SpectraSuite Data File
++++++++++++++++++++++++++++++++++++
Date: Mon Jun 06 12:20:37 CEST 2016
User: root
Dark Spectrum Present: No
Reference Spectrum Present: No
Number of Sampled Component Spectra: 1
Spectrometers: USB4C02835
Integration Time (usec): 100000 (USB4C02835)
Spectra Averaged: 1 (USB4C02835)
Boxcar Smoothing: 0 (USB4C02835)
Correct for Electrical Dark: No (USB4C02835)
Strobe/Lamp Enabled: No (USB4C02835)
Correct for Detector Non-linearity: No (USB4C02835)
Correct for Stray Light: No (USB4C02835)
Number of Pixels in Processed Spectrum: 3648
>>>>>Begin Processed Spectral Data<<<<<
177.47	1466.35
177.69	1466.35
177.91	1466.35
178.13	1462.25
178.36	1472.49
178.58	1714.15
178.80	1724.39
179.02	1591.27
179.24	1669.09
179.46	1642.47
179.68	1769.44
179.90	1695.72
180.13	1634.28
180.35	1673.19
180.57	1695.72
180.79	1714.15
181.01	1611.75
181.23	1746.92
181.45	1800.16
181.67	1613.80
181.90	1689.57
182.12	1595.37
182.34	1587.18
182.56	1738.73
182.78	1650.66
183.00	1691.62
183.22	1660.90
183.44	1611.75
183.66	1755.11
183.89	1742.82
184.11	1685.48
184.33	1738.73
184.55	1820.64
184.77	1669.09
184.99	1724.39
185.21	1648.61
185.43	1853.41
185.65	1630.18
185.87	1777.64
186.10	1841.12
186.32	1820.64
186.54	1730.53
186.76	1714.15
186.98	1718.25
187.20	1689.57
187.42	1712.10
187.64	1730.53
187.86	1726.44
188.08	1687.53
188.30	1665.00
188.52	1667.05
188.75	1724.39
188.97	1791.97
189.19	1624.04
189.41	1714.15
189.63	1708.01
189.85	1646.57
190.07	1591.27
190.29	1568.74
190.51	1685.48
190.73	1611.75
190.95	1787.88
191.17	1685.48
191.39	1669.09
191.61	1632.23
191.84	1708.01
192.06	1693.67
192.28	1562.60
192.50	1869.80
192.72	1757.16
192.94	1730.53
193.16	1791.97
193.38	1697.77
193.60	1613.80
193.82	1687.53
194.04	1720.29
194.26	1691.62
194.48	1763.30
194.70	1669.09
194.92	1675.24
195.14	1710.05
195.36	1626.09
195.58	1665.00
195.80	1673.19
196.02	1652.71
196.24	1681.38
196.46	1665.00
196.69	1716.20
196.91	1869.80
197.13	1677.29
197.35	1673.19
197.57	1669.09
197.79	1687.53
198.01	1699.81
198.23	1710.05
198.45	1650.66
198.67	1640.42
198.89	1738.73
199.11	1779.68
199.33	1677.29
199.55	1695.72
199.77	1734.63
199.99	1753.06
200.21	1710.05
200.43	1724.39
200.65	1603.56
200.87	1521.64
201.09	1693.67
201.31	1613.80
201.53	1724.39
201.75	1720.29
201.97	1740.77
202.19	1710.05
202.41	1753.06
202.63	1787.88
202.85	1810.40
203.07	1695.72
203.29	1703.91
203.51	1564.65
203.73	1644.52
203.95	1865.70
204.17	1746.92
204.39	1748.97
204.61	1636.33
204.83	1681.38
205.05	1757.16
205.27	1738.73
205.49	1761.25
205.71	1609.70
205.93	1617.90
206.15	1648.61
206.37	1689.57
206.59	1615.85
206.81	1583.08
207.03	1648.61
207.25	1648.61
207.47	1769.44
207.69	1636.33
207.91	1751.01
208.13	1753.06
208.34	1710.05
208.56	1656.81
208.78	1794.02
209.00	1624.04
209.22	1673.19
209.44	1675.24
209.66	1646.57
209.88	1669.09
210.10	1710.05
210.32	1652.71
210.54	1804.26
210.76	1656.81
210.98	1718.25
211.20	1560.55
211.42	1751.01
211.64	1691.62
211.86	1757.16
212.08	1648.61
212.30	1722.34
212.52	1654.76
212.74	1699.81
212.96	1673.19
213.17	1751.01
213.39	1705.96
213.61	1761.25
213.83	1820.64
214.05	1628.14
214.27	1730.53
214.49	1595.37
214.71	1640.42
214.93	1744.87
215.15	1705.96
215.37	1728.49
215.59	1615.85
215.81	1697.77
216.03	1767.40
216.24	1748.97
216.46	1650.66
216.68	1708.01
216.90	1724.39
217.12	1673.19
217.34	1720.29
217.56	1751.01
217.78	1744.87
218.00	1652.71
218.22	1730.53
218.44	1775.59
218.66	1665.00
218.87	1787.88
219.09	1636.33
219.31	1656.81
219.53	1693.67
219.75	1730.53
219.97	1679.33
220.19	1685.48
220.41	1636.33
220.63	1755.11
220.85	1728.49
221.06	1660.90
221.28	1789.92
221.50	1708.01
221.72	1710.05
221.94	1714.15
222.16	1783.78
222.38	1722.34
222.60	1718.25
222.82	1685.48
223.03	1746.92
223.25	1597.42
223.47	1802.21
223.69	1796.07
223.91	1837.03
224.13	1656.81
224.35	1710.05
224.57	1732.58
224.78	1673.19
225.00	1701.86
225.22	1710.05
225.44	1726.44
225.66	1703.91
225.88	1609.70
226.10	1697.77
226.32	1718.25
226.53	1765.35
226.75	1689.57
226.97	1665.00
227.19	1687.53
227.41	1656.81
227.63	1640.42
227.85	1624.04
228.06	1710.05
228.28	1771.49
228.50	1781.73
228.72	1607.66
228.94	1681.38
229.16	1564.65
229.37	1654.76
229.59	1673.19
229.81	1798.12
230.03	1660.90
230.25	1628.14
230.47	1671.14
230.69	1660.90
230.90	1685.48
231.12	1705.96
231.34	1765.35
231.56	1705.96
231.78	1699.81
232.00	1671.14
232.21	1734.63
232.43	1656.81
232.65	1589.22
232.87	1722.34
233.09	1662.95
233.30	1593.32
233.52	1710.05
233.74	1751.01
233.96	1603.56
234.18	1705.96
234.40	1697.77
234.61	1765.35
234.83	1607.66
235.05	1611.75
235.27	1839.08
235.49	1724.39
235.70	1744.87
235.92	1773.54
236.14	1748.97
236.36	1839.08
236.58	1626.09
236.79	1691.62
237.01	1675.24
237.23	1699.81
237.45	1789.92
237.67	1628.14
237.88	1738.73
238.10	1802.21
238.32	1656.81
238.54	1722.34
238.76	1757.16
238.97	1615.85
239.19	1671.14
239.41	1751.01
239.63	1726.44
239.85	1587.18
240.06	1673.19
240.28	1667.05
240.50	1791.97
240.72	1683.43
240.93	1703.91
241.15	1703.91
241.37	1699.81
241.59	1759.21
241.81	1572.84
242.02	1652.71
242.24	1693.67
242.46	1695.72
242.68	1718.25
242.89	1691.62
243.11	1714.15
243.33	1662.95
243.55	1734.63
243.76	1714.15
243.98	1685.48
244.20	1626.09
244.42	1701.86
244.64	1730.53
244.85	1730.53
245.07	1662.95
245.29	1632.23
245.51	1705.96
245.72	1714.15
245.94	1773.54
246.16	1591.27
246.38	1689.57
246.59	1599.46
246.81	1660.90
247.03	1710.05
247.24	1593.32
247.46	1642.47
247.68	1681.38
247.90	1693.67
248.11	1632.23
248.33	1791.97
248.55	1683.43
248.77	1699.81
248.98	1683.43
249.20	1777.64
249.42	1691.62
249.64	1685.48
249.85	1714.15
250.07	1660.90
250.29	1689.57
250.50	1712.10
250.72	1634.28
250.94	1714.15
251.16	1728.49
251.37	1738.73
251.59	1767.40
251.81	1710.05
252.02	1697.77
252.24	1654.76
252.46	1740.77
252.68	1675.24
252.89	1667.05
253.11	1640.42
253.33	1787.88
253.54	1808.36
253.76	1619.94
253.98	1652.71
254.20	1581.03
254.41	1624.04
254.63	1652.71
254.85	1607.66
255.06	1667.05
255.28	1820.64
255.50	1738.73
255.71	1613.80
255.93	1605.61
256.15	1667.05
256.36	1636.33
256.58	1644.52
256.80	1738.73
257.02	1669.09
257.23	1587.18
257.45	1665.00
257.67	1734.63
257.88	1581.03
258.10	1644.52
258.32	1708.01
258.53	1697.77
258.75	1746.92
258.97	1693.67
259.18	1779.68
259.40	1675.24
259.62	1787.88
259.83	1746.92
260.05	1742.82
260.27	1945.57
260.48	1701.86
260.70	1669.09
260.92	1656.81
261.13	1683.43
261.35	1699.81
261.57	1742.82
261.78	1671.14
262.00	1642.47
262.22	1687.53
262.43	1624.04
262.65	1638.38
262.86	1755.11
263.08	1783.78
263.30	1679.33
263.51	1671.14
263.73	1642.47
263.95	1708.01
264.16	1640.42
264.38	1665.00
264.60	1699.81
264.81	1656.81
265.03	1734.63
265.25	1736.68
265.46	1777.64
265.68	1693.67
265.89	1755.11
266.11	1599.46
266.33	1732.58
266.54	1769.44
266.76	1716.20
266.98	1769.44
267.19	1708.01
267.41	1716.20
267.62	1646.57
267.84	1650.66
268.06	1736.68
268.27	1652.71
268.49	1781.73
268.70	1634.28
268.92	1599.46
269.14	1697.77
269.35	1646.57
269.57	1660.90
269.79	1708.01
270.00	1685.48
270.22	1769.44
270.43	1669.09
270.65	1609.70
270.87	1746.92
271.08	1658.85
271.30	1775.59
271.51	1701.86
271.73	1679.33
271.95	1820.64
272.16	1691.62
272.38	1638.38
272.59	1621.99
272.81	1673.19
273.02	1710.05
273.24	1697.77
273.46	1697.77
273.67	1597.42
273.89	1652.71
274.10	1693.67
274.32	1654.76
274.54	1746.92
274.75	1689.57
274.97	1570.79
275.18	1728.49
275.40	1665.00
275.61	1701.86
275.83	1652.71
276.05	1624.04
276.26	1771.49
276.48	1716.20
276.69	1763.30
276.91	1685.48
277.12	1724.39
277.34	1746.92
277.55	1767.40
277.77	1718.25
277.99	1697.77
278.20	1595.37
278.42	1654.76
278.63	1681.38
278.85	1675.24
279.06	1574.89
279.28	1742.82
279.49	1724.39
279.71	1785.83
279.93	1644.52
280.14	1665.00
280.36	1669.09
280.57	1767.40
280.79	1724.39
281.00	1640.42
281.22	1662.95
281.43	1746.92
281.65	1599.46
281.86	1640.42
282.08	1720.29
282.29	1814.50
282.51	1585.13
282.73	1619.94
282.94	1638.38
283.16	1720.29
283.37	1824.74
283.59	1673.19
283.80	1630.18
284.02	1652.71
284.23	1695.72
284.45	1587.18
284.66	1603.56
284.88	1615.85
285.09	1689.57
285.31	1714.15
285.52	1701.86
285.74	1599.46
285.95	1714.15
286.17	1726.44
286.38	1742.82
286.60	1613.80
286.81	1671.14
287.03	1705.96
287.24	1673.19
287.46	1714.15
287.67	1628.14
287.89	1746.92
288.10	1667.05
288.32	1658.85
288.53	1773.54
288.75	1691.62
288.96	1697.77
289.18	1640.42
289.39	1675.24
289.61	1763.30
289.82	1746.92
290.04	1765.35
290.25	1667.05
290.47	1683.43
290.68	1605.61
290.90	1767.40
291.11	1695.72
291.33	1685.48
291.54	1568.74
291.76	1681.38
291.97	1669.09
292.18	1742.82
292.40	1691.62
292.61	1665.00
292.83	1822.69
293.04	1755.11
293.26	1681.38
293.47	1708.01
293.69	1632.23
293.90	1624.04
294.12	1763.30
294.33	1683.43
294.55	1642.47
294.76	1759.21
294.97	1710.05
295.19	1839.08
295.40	1667.05
295.62	1699.81
295.83	1728.49
296.05	1576.94
296.26	1703.91
296.48	1660.90
296.69	1656.81
296.90	1683.43
297.12	1742.82
297.33	1718.25
297.55	1728.49
297.76	1658.85
297.98	1753.06
298.19	1675.24
298.41	1693.67
298.62	1671.14
298.83	1753.06
299.05	1714.15
299.26	1638.38
299.48	1599.46
299.69	1759.21
299.90	1658.85
300.12	1683.43
300.33	1718.25
300.55	1638.38
300.76	1716.20
300.98	1642.47
301.19	1732.58
301.40	1656.81
301.62	1648.61
301.83	1685.48
302.05	1701.86
302.26	1624.04
302.47	1673.19
302.69	1564.65
302.90	1695.72
303.12	1626.09
303.33	1748.97
303.54	1791.97
303.76	1613.80
303.97	1697.77
304.19	1781.73
304.40	1648.61
304.61	1757.16
304.83	1857.51
305.04	1736.68
305.26	1736.68
305.47	1658.85
305.68	1746.92
305.90	1587.18
306.11	1699.81
306.33	1558.50
306.54	1677.29
306.75	1650.66
306.97	1595.37
307.18	1595.37
307.39	1578.98
307.61	1732.58
307.82	1665.00
308.04	1697.77
308.25	1609.70
308.46	1732.58
308.68	1673.19
308.89	1718.25
309.10	1742.82
309.32	1695.72
309.53	1677.29
309.74	1775.59
309.96	1667.05
310.17	1710.05
310.39	1665.00
310.60	1708.01
310.81	1646.57
311.03	1591.27
311.24	1767.40
311.45	1648.61
311.67	1814.50
311.88	1632.23
312.09	1681.38
312.31	1693.67
312.52	1619.94
312.73	1677.29
312.95	1660.90
313.16	1652.71
313.37	1816.55
313.59	1763.30
313.80	1791.97
314.01	1822.69
314.23	1634.28
314.44	1677.29
314.65	1568.74
314.87	1640.42
315.08	1687.53
315.29	1695.72
315.51	1648.61
315.72	1617.90
315.93	1755.11
316.15	1677.29
316.36	1669.09
316.57	1701.86
316.79	1697.77
317.00	1638.38
317.21	1724.39
317.43	1624.04
317.64	1787.88
317.85	1648.61
318.07	1718.25
318.28	1738.73
318.49	1777.64
318.70	1830.88
318.92	1804.26
319.13	1871.84
319.34	1855.46
319.56	1751.01
319.77	1732.58
319.98	1734.63
320.20	1851.36
320.41	1718.25
320.62	1708.01
320.83	1593.32
321.05	1859.56
321.26	1734.63
321.47	1609.70
321.69	1736.68
321.90	1626.09
322.11	1570.79
322.32	1728.49
322.54	1759.21
322.75	1656.81
322.96	1845.22
323.18	1617.90
323.39	1601.51
323.60	1626.09
323.81	1806.31
324.03	1636.33
324.24	1714.15
324.45	1583.08
324.66	1673.19
324.88	1771.49
325.09	1765.35
325.30	1689.57
325.52	1738.73
325.73	1615.85
325.94	1595.37
326.15	1640.42
326.37	1636.33
326.58	1781.73
326.79	1828.84
327.00	1648.61
327.22	1701.86
327.43	1712.10
327.64	1615.85
327.85	1722.34
328.07	1701.86
328.28	1761.25
328.49	1669.09
328.70	1710.05
328.92	1714.15
329.13	1677.29
329.34	1619.94
329.55	1716.20
329.76	1671.14
329.98	1689.57
330.19	1789.92
330.40	1675.24
330.61	1732.58
330.83	1738.73
331.04	1687.53
331.25	1656.81
331.46	1648.61
331.68	1619.94
331.89	1755.11
332.10	1667.05
332.31	1691.62
332.52	1679.33
332.74	1730.53
332.95	1597.42
333.16	1748.97
333.37	1720.29
333.58	1646.57
333.80	1724.39
334.01	1568.74
334.22	1718.25
334.43	1609.70
334.64	1689.57
334.86	1652.71
335.07	1669.09
335.28	1740.77
335.49	1576.94
335.70	1773.54
335.92	1771.49
336.13	1796.07
336.34	1691.62
336.55	1748.97
336.76	1708.01
336.98	1599.46
337.19	1705.96
337.40	1726.44
337.61	1800.16
337.82	1732.58
338.04	1675.24
338.25	1609.70
338.46	1665.00
338.67	1648.61
338.88	1669.09
339.09	1640.42
339.31	1652.71
339.52	1638.38
339.73	1697.77
339.94	1701.86
340.15	1796.07
340.36	1681.38
340.58	1595.37
340.79	1648.61
341.00	1710.05
341.21	1599.46
341.42	1785.83
341.63	1716.20
341.85	1787.88
342.06	1703.91
342.27	1679.33
342.48	1748.97
342.69	1624.04
342.90	1761.25
343.12	1814.50
343.33	1669.09
343.54	1697.77
343.75	1689.57
343.96	1695.72
344.17	1660.90
344.38	1585.13
344.60	1626.09
344.81	1605.61
345.02	1701.86
345.23	1751.01
345.44	1832.93
345.65	1708.01
345.86	1652.71
346.07	1658.85
346.29	1581.03
346.50	1724.39
346.71	1732.58
346.92	1755.11
347.13	1820.64
347.34	1687.53
347.55	1685.48
347.76	1755.11
347.98	1609.70
348.19	1685.48
348.40	1732.58
348.61	1642.47
348.82	1791.97
349.03	1695.72
349.24	1679.33
349.45	1814.50
349.66	1529.83
349.88	1703.91
350.09	1669.09
350.30	1775.59
350.51	1787.88
350.72	1691.62
350.93	1681.38
351.14	1654.76
351.35	1705.96
351.56	1621.99
351.77	1708.01
351.99	1751.01
352.20	1779.68
352.41	1773.54
352.62	1568.74
352.83	1718.25
353.04	1693.67
353.25	1615.85
353.46	1787.88
353.67	1675.24
353.88	1634.28
354.09	1746.92
354.30	1570.79
354.52	1681.38
354.73	1673.19
354.94	1615.85
355.15	1634.28
355.36	1765.35
355.57	1705.96
355.78	1656.81
355.99	1589.22
356.20	1621.99
356.41	1703.91
356.62	1646.57
356.83	1710.05
357.04	1794.02
357.25	1658.85
357.46	1628.14
357.68	1611.75
357.89	1652.71
358.10	1677.29
358.31	1703.91
358.52	1742.82
358.73	1658.85
358.94	1644.52
359.15	1624.04
359.36	1726.44
359.57	1710.05
359.78	1683.43
359.99	1740.77
360.20	1705.96
360.41	1714.15
360.62	1796.07
360.83	1697.77
361.04	1689.57
361.25	1748.97
361.46	1767.40
361.67	1773.54
361.88	1785.83
362.09	1767.40
362.30	1781.73
362.51	1781.73
362.72	1693.67
362.93	1755.11
363.14	1744.87
363.35	1705.96
363.56	1648.61
363.78	1748.97
363.99	1748.97
364.20	1634.28
364.41	1726.44
364.62	1744.87
364.83	1669.09
365.04	1667.05
365.25	1634.28
365.46	1781.73
365.67	1687.53
365.88	1593.32
366.09	1708.01
366.30	1697.77
366.51	1687.53
366.72	1619.94
366.93	1652.71
367.14	1730.53
367.35	1722.34
367.56	1675.24
367.77	1722.34
367.98	1642.47
368.18	1722.34
368.39	1693.67
368.60	1632.23
368.81	1738.73
369.02	1712.10
369.23	1708.01
369.44	1613.80
369.65	1693.67
369.86	1783.78
370.07	1689.57
370.28	1613.80
370.49	1703.91
370.70	1728.49
370.91	1628.14
371.12	1642.47
371.33	1748.97
371.54	1636.33
371.75	1812.45
371.96	1531.88
372.17	1673.19
372.38	1681.38
372.59	1722.34
372.80	1603.56
373.01	1732.58
373.22	1685.48
373.43	1691.62
373.64	1599.46
373.85	1705.96
374.06	1822.69
374.26	1763.30
374.47	1751.01
374.68	1841.12
374.89	1697.77
375.10	1671.14
375.31	1710.05
375.52	1638.38
375.73	1746.92
375.94	1617.90
376.15	1834.98
376.36	1703.91
376.57	1712.10
376.78	1658.85
376.99	1673.19
377.20	1763.30
377.40	1718.25
377.61	1724.39
377.82	1677.29
378.03	1800.16
378.24	1738.73
378.45	1673.19
378.66	1767.40
378.87	1558.50
379.08	1576.94
379.29	1677.29
379.50	1720.29
379.71	1732.58
379.91	1796.07
380.12	1648.61
380.33	1640.42
380.54	1615.85
380.75	1736.68
380.96	1650.66
381.17	1763.30
381.38	1665.00
381.59	1769.44
381.80	1683.43
382.00	1779.68
382.21	1814.50
382.42	1748.97
382.63	1873.89
382.84	1746.92
383.05	1804.26
383.26	1693.67
383.47	1740.77
383.68	1736.68
383.88	1771.49
384.09	1710.05
384.30	1824.74
384.51	1755.11
384.72	1677.29
384.93	1634.28
385.14	1734.63
385.35	1693.67
385.55	1634.28
385.76	1802.21
385.97	1722.34
386.18	1628.14
386.39	1656.81
386.60	1662.95
386.81	1689.57
387.02	1665.00
387.22	1660.90
387.43	1789.92
387.64	1718.25
387.85	1871.84
388.06	2193.37
388.27	4396.99
388.48	6940.57
388.68	8382.34
388.89	9572.21
389.10	9930.60
389.31	8732.54
389.52	7636.88
389.73	6735.77
389.93	6373.28
390.14	6002.60
390.35	5267.38
390.56	4710.33
390.77	3856.33
390.98	3010.51
391.18	2549.72
391.39	2183.13
391.60	1841.12
391.81	1808.36
392.02	1724.39
392.23	1830.88
392.43	1691.62
392.64	1703.91
392.85	1662.95
393.06	1806.31
393.27	1634.28
393.47	1675.24
393.68	1722.34
393.89	1701.86
394.10	1751.01
394.31	1695.72
394.52	1599.46
394.72	1753.06
394.93	1673.19
395.14	1634.28
395.35	1726.44
395.56	1710.05
395.76	1767.40
395.97	1773.54
396.18	1812.45
396.39	1771.49
396.60	1974.24
396.80	1906.66
397.01	1789.92
397.22	1779.68
397.43	1816.55
397.64	1767.40
397.84	1796.07
398.05	1851.36
398.26	1742.82
398.47	1767.40
398.67	1755.11
398.88	1728.49
399.09	1746.92
399.30	1705.96
399.51	1771.49
399.71	1626.09
399.92	1675.24
400.13	1769.44
400.34	1638.38
400.54	1673.19
400.75	1730.53
400.96	1708.01
401.17	1791.97
401.37	1726.44
401.58	1753.06
401.79	1734.63
402.00	1894.37
402.21	2000.87
402.41	1964.00
402.62	1978.34
402.83	2058.21
403.04	1920.99
403.24	2072.54
403.45	1886.18
403.66	1904.61
403.87	1824.74
404.07	1955.81
404.28	1898.47
404.49	1884.13
404.70	1724.39
404.90	1785.83
405.11	1675.24
405.32	1742.82
405.52	1685.48
405.73	1640.42
405.94	1646.57
406.15	1753.06
406.35	1783.78
406.56	1748.97
406.77	1652.71
406.98	1796.07
407.18	1630.18
407.39	1751.01
407.60	1695.72
407.80	1673.19
408.01	1638.38
408.22	1671.14
408.43	1662.95
408.63	1767.40
408.84	1771.49
409.05	1757.16
409.25	1646.57
409.46	1671.14
409.67	1652.71
409.88	1685.48
410.08	1681.38
410.29	1665.00
410.50	1718.25
410.70	1732.58
410.91	1699.81
411.12	1675.24
411.32	1746.92
411.53	1726.44
411.74	1837.03
411.95	1796.07
412.15	1699.81
412.36	1740.77
412.57	1812.45
412.77	1845.22
412.98	1732.58
413.19	1683.43
413.39	1777.64
413.60	1765.35
413.81	1757.16
414.01	1705.96
414.22	1742.82
414.43	1675.24
414.63	1681.38
414.84	1716.20
415.05	1691.62
415.25	1654.76
415.46	1755.11
415.67	1701.86
415.87	1763.30
416.08	1724.39
416.29	1669.09
416.49	1720.29
416.70	1689.57
416.91	1665.00
417.11	1640.42
417.32	1714.15
417.53	1804.26
417.73	1677.29
417.94	1642.47
418.15	1746.92
418.35	1718.25
418.56	1712.10
418.77	1746.92
418.97	1662.95
419.18	1603.56
419.38	1621.99
419.59	1691.62
419.80	1785.83
420.00	1656.81
420.21	1667.05
420.42	1765.35
420.62	1714.15
420.83	1673.19
421.04	1746.92
421.24	1675.24
421.45	1769.44
421.65	1720.29
421.86	1683.43
422.07	1755.11
422.27	1746.92
422.48	1771.49
422.69	1605.61
422.89	1714.15
423.10	1683.43
423.30	1581.03
423.51	1710.05
423.72	1712.10
423.92	1759.21
424.13	1642.47
424.33	1785.83
424.54	1736.68
424.75	1691.62
424.95	1740.77
425.16	1691.62
425.36	1636.33
425.57	1689.57
425.78	1746.92
425.98	1808.36
426.19	1632.23
426.39	1578.98
426.60	1716.20
426.81	1665.00
427.01	1642.47
427.22	1652.71
427.42	1603.56
427.63	1611.75
427.83	1753.06
428.04	1746.92
428.25	1738.73
428.45	1732.58
428.66	1748.97
428.86	1693.67
429.07	1613.80
429.28	1718.25
429.48	1652.71
429.69	1646.57
429.89	1746.92
430.10	1595.37
430.30	1773.54
430.51	1734.63
430.71	1746.92
430.92	1650.66
431.13	1634.28
431.33	1734.63
431.54	1710.05
431.74	1814.50
431.95	1808.36
432.15	1662.95
432.36	1710.05
432.56	1748.97
432.77	1830.88
432.98	1779.68
433.18	1732.58
433.39	1705.96
433.59	1654.76
433.80	1755.11
434.00	1822.69
434.21	1693.67
434.41	1652.71
434.62	1871.84
434.82	1714.15
435.03	1609.70
435.23	1679.33
435.44	1726.44
435.64	1689.57
435.85	1718.25
436.06	1779.68
436.26	1779.68
436.47	1708.01
436.67	1595.37
436.88	1791.97
437.08	1748.97
437.29	1845.22
437.49	1732.58
437.70	1724.39
437.90	1744.87
438.11	1804.26
438.31	1791.97
438.52	1804.26
438.72	1828.84
438.93	1746.92
439.13	1755.11
439.34	1757.16
439.54	1812.45
439.75	1849.32
439.95	1779.68
440.16	1748.97
440.36	1744.87
440.57	1820.64
440.77	1755.11
440.98	1697.77
441.18	1820.64
441.39	1628.14
441.59	1638.38
441.80	1873.89
442.00	1697.77
442.21	1773.54
442.41	1617.90
442.62	1757.16
442.82	1681.38
443.02	1759.21
443.23	1738.73
443.43	1675.24
443.64	1771.49
443.84	1667.05
444.05	1828.84
444.25	1804.26
444.46	1753.06
444.66	1697.77
444.87	1763.30
445.07	1646.57
445.28	1662.95
445.48	1824.74
445.69	1718.25
445.89	1734.63
446.09	1687.53
446.30	2084.83
446.50	2764.76
446.71	3864.52
446.91	4315.07
447.12	4878.26
447.32	4898.74
447.53	4253.63
447.73	3889.09
447.93	3592.14
448.14	3426.25
448.34	3184.59
448.55	2975.70
448.75	2875.35
448.96	2674.65
449.16	2365.40
449.36	2256.86
449.57	2058.21
449.77	1931.23
449.98	1779.68
450.18	1800.16
450.39	1810.40
450.59	1802.21
450.79	1720.29
451.00	1757.16
451.20	1734.63
451.41	1736.68
451.61	1771.49
451.81	1730.53
452.02	1726.44
452.22	1761.25
452.43	1677.29
452.63	1689.57
452.84	1783.78
453.04	1689.57
453.24	1800.16
453.45	1771.49
453.65	1716.20
453.86	1746.92
454.06	1734.63
454.26	1734.63
454.47	1720.29
454.67	1839.08
454.87	1779.68
455.08	1734.63
455.28	1890.28
455.49	1705.96
455.69	1701.86
455.89	1824.74
456.10	1736.68
456.30	1617.90
456.51	1726.44
456.71	1771.49
456.91	1748.97
457.12	1769.44
457.32	1695.72
457.52	1681.38
457.73	1748.97
457.93	1767.40
458.14	1652.71
458.34	1722.34
458.54	1724.39
458.75	1636.33
458.95	1789.92
459.15	1777.64
459.36	1755.11
459.56	1769.44
459.76	1841.12
459.97	1718.25
460.17	1748.97
460.37	1718.25
460.58	1710.05
460.78	1779.68
460.99	1755.11
461.19	1773.54
461.39	1630.18
461.60	1720.29
461.80	1751.01
462.00	1621.99
462.21	1734.63
462.41	1626.09
462.61	1675.24
462.82	1621.99
463.02	1794.02
463.22	1701.86
463.43	1781.73
463.63	1742.82
463.83	1748.97
464.04	1755.11
464.24	1685.48
464.44	1683.43
464.64	1722.34
464.85	1757.16
465.05	1722.34
465.25	1765.35
465.46	1665.00
465.66	1748.97
465.86	1726.44
466.07	1722.34
466.27	1730.53
466.47	1644.52
466.68	1671.14
466.88	1808.36
467.08	1796.07
467.29	1787.88
467.49	1665.00
467.69	1728.49
467.89	1740.77
468.10	1722.34
468.30	1769.44
468.50	1830.88
468.71	1734.63
468.91	1621.99
469.11	1818.60
469.31	1722.34
469.52	1716.20
469.72	1781.73
469.92	1802.21
470.13	1654.76
470.33	1708.01
470.53	1857.51
470.73	2117.60
470.94	2320.35
471.14	2367.45
471.34	2557.91
471.54	2453.47
471.75	2236.38
471.95	2193.37
472.15	2111.46
472.36	2138.08
472.56	2076.64
472.76	2066.40
472.96	2056.16
473.17	1871.84
473.37	1959.91
473.57	1828.84
473.77	1830.88
473.98	1685.48
474.18	1697.77
474.38	1818.60
474.58	1718.25
474.79	1665.00
474.99	1789.92
475.19	1732.58
475.39	1621.99
475.60	1740.77
475.80	1744.87
476.00	1701.86
476.20	1751.01
476.41	1759.21
476.61	1732.58
476.81	1783.78
477.01	1603.56
477.21	1822.69
477.42	1841.12
477.62	1648.61
477.82	1791.97
478.02	1730.53
478.23	1695.72
478.43	1648.61
478.63	1730.53
478.83	1693.67
479.03	1738.73
479.24	1794.02
479.44	1857.51
479.64	1640.42
479.84	1591.27
480.04	1597.42
480.25	1783.78
480.45	1646.57
480.65	1648.61
480.85	1796.07
481.06	1667.05
481.26	1716.20
481.46	1736.68
481.66	1716.20
481.86	1634.28
482.06	1832.93
482.27	1720.29
482.47	1644.52
482.67	1753.06
482.87	1699.81
483.07	1744.87
483.28	1642.47
483.48	1632.23
483.68	1755.11
483.88	1667.05
484.08	1615.85
484.29	1673.19
484.49	1763.30
484.69	1658.85
484.89	1845.22
485.09	1837.03
485.29	1718.25
485.50	1757.16
485.70	1654.76
485.90	1839.08
486.10	1685.48
486.30	1691.62
486.50	1734.63
486.71	1679.33
486.91	1722.34
487.11	1773.54
487.31	1636.33
487.51	1720.29
487.71	1695.72
487.91	1636.33
488.12	1611.75
488.32	1669.09
488.52	1656.81
488.72	1554.41
488.92	1679.33
489.12	1748.97
489.32	1677.29
489.53	1785.83
489.73	1656.81
489.93	1771.49
490.13	1734.63
490.33	1617.90
490.53	1689.57
490.73	1822.69
490.94	1660.90
491.14	1728.49
491.34	1804.26
491.54	2121.70
491.74	2619.35
491.94	2979.79
492.14	3018.71
492.34	3057.62
492.54	2707.41
492.75	2467.80
492.95	2473.95
493.15	2340.83
493.35	2258.91
493.55	2162.66
493.75	2168.80
493.95	2123.74
494.15	2011.11
494.35	1896.42
494.56	1884.13
494.76	1802.21
494.96	1800.16
495.16	1796.07
495.36	1763.30
495.56	1646.57
495.76	1728.49
495.96	1697.77
496.16	1734.63
496.36	1781.73
496.56	1724.39
496.77	1703.91
496.97	1675.24
497.17	1748.97
497.37	1683.43
497.57	1767.40
497.77	1734.63
497.97	1679.33
498.17	1755.11
498.37	1646.57
498.57	1775.59
498.77	1667.05
498.97	1773.54
499.17	1841.12
499.38	1769.44
499.58	1742.82
499.78	1773.54
499.98	1732.58
500.18	1705.96
500.38	1720.29
500.58	1939.43
500.78	2557.91
500.98	4599.74
501.18	5941.16
501.38	6844.31
501.58	7258.00
501.78	6774.68
501.98	5515.18
502.18	5003.19
502.38	4483.00
502.58	4214.72
502.78	3823.56
502.98	3706.82
503.18	3461.07
503.38	3198.93
503.59	2813.91
503.79	2584.54
503.99	2525.15
504.19	2328.54
504.39	2215.90
504.59	2082.78
504.79	2140.13
504.99	2004.96
505.19	1937.38
505.39	1849.32
505.59	1892.32
505.79	1820.64
505.99	1857.51
506.19	1822.69
506.39	1880.04
506.59	1777.64
506.79	1718.25
506.99	1814.50
507.19	1755.11
507.39	1742.82
507.59	1667.05
507.79	1697.77
507.99	1699.81
508.19	1644.52
508.39	1677.29
508.59	1755.11
508.79	1808.36
508.99	1724.39
509.19	1740.77
509.39	1771.49
509.59	1699.81
509.79	1642.47
509.99	1748.97
510.19	1738.73
510.39	1740.77
510.59	1791.97
510.79	1607.66
510.99	1660.90
511.19	1804.26
511.39	1869.80
511.59	1834.98
511.79	1763.30
511.99	1689.57
512.19	1875.94
512.38	1722.34
512.58	1753.06
512.78	1724.39
512.98	1728.49
513.18	1820.64
513.38	1708.01
513.58	1796.07
513.78	1710.05
513.98	1677.29
514.18	1738.73
514.38	1619.94
514.58	1679.33
514.78	1667.05
514.98	1708.01
515.18	1722.34
515.38	1634.28
515.58	1837.03
515.78	1683.43
515.98	1667.05
516.18	1681.38
516.38	1744.87
516.57	1734.63
516.77	1699.81
516.97	1712.10
517.17	1570.79
517.37	1648.61
517.57	1804.26
517.77	1708.01
517.97	1697.77
518.17	1849.32
518.37	1617.90
518.57	1705.96
518.77	1759.21
518.97	1607.66
519.16	1681.38
519.36	1769.44
519.56	1755.11
519.76	1712.10
519.96	1693.67
520.16	1740.77
520.36	1701.86
520.56	1814.50
520.76	1624.04
520.96	1748.97
521.16	1722.34
521.35	1773.54
521.55	1708.01
521.75	1679.33
521.95	1630.18
522.15	1810.40
522.35	1695.72
522.55	1638.38
522.75	1746.92
522.95	1716.20
523.14	1742.82
523.34	1767.40
523.54	1689.57
523.74	1724.39
523.94	1796.07
524.14	1638.38
524.34	1746.92
524.54	1763.30
524.73	1718.25
524.93	1736.68
525.13	1746.92
525.33	1697.77
525.53	1894.37
525.73	1730.53
525.93	1771.49
526.13	1701.86
526.32	1767.40
526.52	1794.02
526.72	1748.97
526.92	1757.16
527.12	1667.05
527.32	1681.38
527.52	1732.58
527.71	1763.30
527.91	1779.68
528.11	1634.28
528.31	1712.10
528.51	1660.90
528.71	1718.25
528.90	1681.38
529.10	1808.36
529.30	1791.97
529.50	1599.46
529.70	1834.98
529.90	1683.43
530.09	1669.09
530.29	1681.38
530.49	1689.57
530.69	1853.41
530.89	1794.02
531.09	1765.35
531.28	1769.44
531.48	1826.79
531.68	1783.78
531.88	1652.71
532.08	1824.74
532.28	1742.82
532.47	1712.10
532.67	1718.25
532.87	1753.06
533.07	1595.37
533.27	1703.91
533.46	1753.06
533.66	1798.12
533.86	1738.73
534.06	1675.24
534.26	1654.76
534.45	1705.96
534.65	1771.49
534.85	1662.95
535.05	1658.85
535.25	1775.59
535.44	1644.52
535.64	1787.88
535.84	1665.00
536.04	1667.05
536.24	1697.77
536.43	1675.24
536.63	1701.86
536.83	1689.57
537.03	1753.06
537.22	1595.37
537.42	1636.33
537.62	1708.01
537.82	1669.09
538.02	1783.78
538.21	1841.12
538.41	1884.13
538.61	1734.63
538.81	1673.19
539.00	1761.25
539.20	1621.99
539.40	1726.44
539.60	1802.21
539.79	1693.67
539.99	1728.49
540.19	1775.59
540.39	1665.00
540.58	1681.38
540.78	1765.35
540.98	1734.63
541.18	1761.25
541.37	1871.84
541.57	1714.15
541.77	1748.97
541.97	1693.67
542.16	1726.44
542.36	1640.42
542.56	1662.95
542.76	1880.04
542.95	1714.15
543.15	1759.21
543.35	1681.38
543.54	1687.53
543.74	1667.05
543.94	1890.28
544.14	1794.02
544.33	1716.20
544.53	1736.68
544.73	1746.92
544.93	1644.52
545.12	1660.90
545.32	1708.01
545.52	1712.10
545.71	1617.90
545.91	1685.48
546.11	1718.25
546.30	1660.90
546.50	1712.10
546.70	1742.82
546.90	1710.05
547.09	1626.09
547.29	1652.71
547.49	1720.29
547.68	1689.57
547.88	1636.33
548.08	1712.10
548.27	2138.08
548.47	1734.63
548.67	1691.62
548.87	1769.44
549.06	1687.53
549.26	1748.97
549.46	1771.49
549.65	1736.68
549.85	1685.48
550.05	1757.16
550.24	1642.47
550.44	1710.05
550.64	1798.12
550.83	1720.29
551.03	1869.80
551.23	1802.21
551.42	1734.63
551.62	1679.33
551.82	1804.26
552.01	1689.57
552.21	1841.12
552.41	1728.49
552.60	1763.30
552.80	1763.30
553.00	1746.92
553.19	1748.97
553.39	1863.65
553.59	1677.29
553.78	1763.30
553.98	1757.16
554.17	1646.57
554.37	1777.64
554.57	1781.73
554.76	1681.38
554.96	1724.39
555.16	1718.25
555.35	1695.72
555.55	1789.92
555.75	1744.87
555.94	1722.34
556.14	1636.33
556.33	1765.35
556.53	1714.15
556.73	1724.39
556.92	1761.25
557.12	1814.50
557.32	1812.45
557.51	1789.92
557.71	1761.25
557.90	1798.12
558.10	1837.03
558.30	1718.25
558.49	1736.68
558.69	1675.24
558.88	1740.77
559.08	1740.77
559.28	1722.34
559.47	1720.29
559.67	1720.29
559.86	1822.69
560.06	1777.64
560.26	1705.96
560.45	1777.64
560.65	1697.77
560.84	1804.26
561.04	1693.67
561.24	1759.21
561.43	1677.29
561.63	1765.35
561.82	1765.35
562.02	1755.11
562.22	1681.38
562.41	1677.29
562.61	1675.24
562.80	1671.14
563.00	1867.75
563.19	1722.34
563.39	1775.59
563.59	1748.97
563.78	1658.85
563.98	1603.56
564.17	1734.63
564.37	1646.57
564.56	1685.48
564.76	1636.33
564.96	1810.40
565.15	1800.16
565.35	1869.80
565.54	1708.01
565.74	1720.29
565.93	1748.97
566.13	1781.73
566.32	1781.73
566.52	1730.53
566.71	1734.63
566.91	1753.06
567.11	1716.20
567.30	1730.53
567.50	1765.35
567.69	1738.73
567.89	1753.06
568.08	1609.70
568.28	1724.39
568.47	1673.19
568.67	1705.96
568.86	1773.54
569.06	1718.25
569.25	1705.96
569.45	1726.44
569.64	1697.77
569.84	1665.00
570.04	1689.57
570.23	1703.91
570.43	1697.77
570.62	1738.73
570.82	1798.12
571.01	1748.97
571.21	1681.38
571.40	1708.01
571.60	1824.74
571.79	1712.10
571.99	1718.25
572.18	1722.34
572.38	1806.31
572.57	1710.05
572.77	1804.26
572.96	1812.45
573.16	1726.44
573.35	1759.21
573.55	1779.68
573.74	1703.91
573.94	1796.07
574.13	1683.43
574.33	1828.84
574.52	1810.40
574.71	1675.24
574.91	1814.50
575.10	1650.66
575.30	1789.92
575.49	1656.81
575.69	1656.81
575.88	1689.57
576.08	1687.53
576.27	1812.45
576.47	1703.91
576.66	1773.54
576.86	1824.74
577.05	1742.82
577.25	1834.98
577.44	1826.79
577.64	1734.63
577.83	1726.44
578.02	1722.34
578.22	1804.26
578.41	1867.75
578.61	1669.09
578.80	1710.05
579.00	1773.54
579.19	1703.91
579.39	1791.97
579.58	1863.65
579.77	1728.49
579.97	1791.97
580.16	1787.88
580.36	1810.40
580.55	1834.98
580.75	1734.63
580.94	1738.73
581.13	1810.40
581.33	1814.50
581.52	1734.63
581.72	1853.41
581.91	1818.60
582.11	1781.73
582.30	1787.88
582.49	1767.40
582.69	1796.07
582.88	1724.39
583.08	1728.49
583.27	1775.59
583.47	1652.71
583.66	1746.92
583.85	1683.43
584.05	1691.62
584.24	1660.90
584.44	1794.02
584.63	1779.68
584.82	1841.12
585.02	1730.53
585.21	1759.21
585.41	1808.36
585.60	1767.40
585.79	1918.95
585.99	1955.81
586.18	1837.03
586.37	2207.71
586.57	3360.72
586.76	10020.71
586.96	24954.50
587.15	35063.27
587.34	41209.23
587.54	42995.06
587.73	37238.22
587.93	26998.37
588.12	21903.03
588.31	18530.02
588.51	16711.42
588.70	15460.12
588.89	14487.33
589.09	12728.13
589.28	11188.05
589.47	9594.73
589.67	8040.33
589.86	6471.58
590.06	5052.34
590.25	3897.28
590.44	3084.24
590.64	2566.10
590.83	2236.38
591.02	2050.02
591.22	1953.76
591.41	1851.36
591.60	1726.44
591.80	1968.10
591.99	1744.87
592.18	1777.64
592.38	1841.12
592.57	1791.97
592.76	1777.64
592.96	1804.26
593.15	1734.63
593.34	1806.31
593.54	1712.10
593.73	1722.34
593.92	1712.10
594.12	1824.74
594.31	1718.25
594.50	1845.22
594.70	1781.73
594.89	1855.46
595.08	1697.77
595.28	1755.11
595.47	1845.22
595.66	1763.30
595.86	1652.71
596.05	1662.95
596.24	1699.81
596.43	1896.42
596.63	1802.21
596.82	1701.86
597.01	1777.64
597.21	1798.12
597.40	1796.07
597.59	1714.15
597.79	1789.92
597.98	1802.21
598.17	1730.53
598.36	1781.73
598.56	1748.97
598.75	1675.24
598.94	1689.57
599.14	1759.21
599.33	1605.61
599.52	1779.68
599.71	1742.82
599.91	1761.25
600.10	1779.68
600.29	1738.73
600.48	1755.11
600.68	1791.97
600.87	1744.87
601.06	1644.52
601.26	1796.07
601.45	1734.63
601.64	1751.01
601.83	1820.64
602.03	1671.14
602.22	1607.66
602.41	1849.32
602.60	1861.60
602.80	1728.49
602.99	1769.44
603.18	1710.05
603.37	1726.44
603.57	1796.07
603.76	1757.16
603.95	1662.95
604.14	1732.58
604.34	1665.00
604.53	1736.68
604.72	1656.81
604.91	1791.97
605.10	1730.53
605.30	1669.09
605.49	1759.21
605.68	1767.40
605.87	1742.82
606.07	1714.15
606.26	1648.61
606.45	1830.88
606.64	1708.01
606.84	1736.68
607.03	1751.01
607.22	1714.15
607.41	1658.85
607.60	1728.49
607.80	1791.97
607.99	1642.47
608.18	1755.11
608.37	1685.48
608.56	1632.23
608.76	1818.60
608.95	1875.94
609.14	1742.82
609.33	1732.58
609.52	1839.08
609.72	1775.59
609.91	1722.34
610.10	1683.43
610.29	1818.60
610.48	1689.57
610.68	1730.53
610.87	1763.30
611.06	1781.73
611.25	1730.53
611.44	1812.45
611.63	1740.77
611.83	1751.01
612.02	1708.01
612.21	1794.02
612.40	1572.84
612.59	1667.05
612.79	1677.29
612.98	1746.92
613.17	1769.44
613.36	1773.54
613.55	1818.60
613.74	1714.15
613.93	1665.00
614.13	1794.02
614.32	1705.96
614.51	1814.50
614.70	1744.87
614.89	1658.85
615.08	1812.45
615.28	2097.12
615.47	1644.52
615.66	1787.88
615.85	1705.96
616.04	1757.16
616.23	1648.61
616.42	1587.18
616.62	1804.26
616.81	1716.20
617.00	1724.39
617.19	1794.02
617.38	1726.44
617.57	1726.44
617.76	1714.15
617.95	1798.12
618.15	1673.19
618.34	1789.92
618.53	1630.18
618.72	1740.77
618.91	1832.93
619.10	1839.08
619.29	1710.05
619.48	1738.73
619.68	1703.91
619.87	1669.09
620.06	1591.27
620.25	1810.40
620.44	1726.44
620.63	1654.76
620.82	1730.53
621.01	1685.48
621.20	1685.48
621.39	1701.86
621.59	1701.86
621.78	1726.44
621.97	1806.31
622.16	1701.86
622.35	1724.39
622.54	1699.81
622.73	1828.84
622.92	1677.29
623.11	1652.71
623.30	1701.86
623.49	1763.30
623.68	1724.39
623.88	1689.57
624.07	1712.10
624.26	1726.44
624.45	1650.66
624.64	1773.54
624.83	1789.92
625.02	1701.86
625.21	1742.82
625.40	1740.77
625.59	1742.82
625.78	1775.59
625.97	1800.16
626.16	1755.11
626.35	1691.62
626.54	1681.38
626.74	1738.73
626.93	1669.09
627.12	1636.33
627.31	1765.35
627.50	1691.62
627.69	1761.25
627.88	1630.18
628.07	1701.86
628.26	1681.38
628.45	1652.71
628.64	1652.71
628.83	1665.00
629.02	1722.34
629.21	1751.01
629.40	1742.82
629.59	1591.27
629.78	1705.96
629.97	1683.43
630.16	1650.66
630.35	1759.21
630.54	1742.82
630.73	1734.63
630.92	1714.15
631.11	1714.15
631.30	1708.01
631.49	1716.20
631.68	1708.01
631.87	1701.86
632.06	1654.76
632.25	1871.84
632.44	1705.96
632.63	1726.44
632.82	1701.86
633.01	1634.28
633.20	1689.57
633.39	1703.91
633.58	1665.00
633.77	1714.15
633.96	1763.30
634.15	1763.30
634.34	1769.44
634.53	1806.31
634.72	1697.77
634.91	1634.28
635.10	1728.49
635.29	1734.63
635.48	1660.90
635.67	1689.57
635.86	1757.16
636.05	1761.25
636.24	1650.66
636.43	1738.73
636.62	1701.86
636.81	1578.98
637.00	1748.97
637.19	1802.21
637.38	1675.24
637.57	1789.92
637.76	1662.95
637.95	1798.12
638.14	1687.53
638.33	1693.67
638.52	1724.39
638.71	1683.43
638.89	1634.28
639.08	1945.57
639.27	1755.11
639.46	1642.47
639.65	1820.64
639.84	1755.11
640.03	1775.59
640.22	1662.95
640.41	1810.40
640.60	1724.39
640.79	1740.77
640.98	1665.00
641.17	1740.77
641.36	1652.71
641.55	1687.53
641.74	1593.32
641.92	1660.90
642.11	1658.85
642.30	1671.14
642.49	1656.81
642.68	1708.01
642.87	1703.91
643.06	1742.82
643.25	1640.42
643.44	1652.71
643.63	1710.05
643.82	1771.49
644.00	1640.42
644.19	1667.05
644.38	1640.42
644.57	1714.15
644.76	1714.15
644.95	1779.68
645.14	1685.48
645.33	1724.39
645.52	1712.10
645.71	1662.95
645.89	1656.81
646.08	1712.10
646.27	1667.05
646.46	1828.84
646.65	1654.76
646.84	1699.81
647.03	1669.09
647.22	1714.15
647.40	1746.92
647.59	1662.95
647.78	1613.80
647.97	1624.04
648.16	1609.70
648.35	1728.49
648.54	1812.45
648.73	1679.33
648.91	1718.25
649.10	1751.01
649.29	1691.62
649.48	1771.49
649.67	1736.68
649.86	1699.81
650.05	1685.48
650.23	1787.88
650.42	1603.56
650.61	1761.25
650.80	1722.34
650.99	1828.84
651.18	1761.25
651.36	1714.15
651.55	1593.32
651.74	1730.53
651.93	1683.43
652.12	1738.73
652.31	1691.62
652.49	1640.42
652.68	1683.43
652.87	1742.82
653.06	1748.97
653.25	1763.30
653.44	1703.91
653.62	1855.46
653.81	1665.00
654.00	1726.44
654.19	1744.87
654.38	1847.27
654.56	1708.01
654.75	1667.05
654.94	1712.10
655.13	1701.86
655.32	1742.82
655.51	1730.53
655.69	1679.33
655.88	1759.21
656.07	1652.71
656.26	1767.40
656.45	1665.00
656.63	1685.48
656.82	1779.68
657.01	1820.64
657.20	1726.44
657.38	1787.88
657.57	1751.01
657.76	1626.09
657.95	1724.39
658.14	1652.71
658.32	1734.63
658.51	1687.53
658.70	1724.39
658.89	1744.87
659.08	1654.76
659.26	1744.87
659.45	1681.38
659.64	1675.24
659.83	1679.33
660.01	1853.41
660.20	1708.01
660.39	1748.97
660.58	1652.71
660.76	1763.30
660.95	1656.81
661.14	1775.59
661.33	1624.04
661.51	1724.39
661.70	1718.25
661.89	1732.58
662.08	1759.21
662.26	1667.05
662.45	1630.18
662.64	1798.12
662.83	1703.91
663.01	1681.38
663.20	1634.28
663.39	1865.70
663.58	1726.44
663.76	1662.95
663.95	1765.35
664.14	1677.29
664.32	1669.09
664.51	1685.48
664.70	1626.09
664.89	1724.39
665.07	1652.71
665.26	1798.12
665.45	1634.28
665.64	1734.63
665.82	1687.53
666.01	1796.07
666.20	1695.72
666.38	1773.54
666.57	1808.36
666.76	2101.22
666.95	4683.70
667.13	10516.32
667.32	15591.19
667.51	18382.57
667.69	19472.09
667.88	18032.36
668.07	12478.27
668.25	9551.73
668.44	8349.57
668.63	7358.35
668.81	6905.75
669.00	6289.31
669.19	5738.41
669.38	5183.41
669.56	4468.67
669.75	4007.87
669.94	3518.41
670.12	2942.93
670.31	2498.52
670.50	2168.80
670.68	2037.73
670.87	1906.66
671.06	1841.12
671.24	1789.92
671.43	1828.84
671.62	1714.15
671.80	1648.61
671.99	1855.46
672.18	1720.29
672.36	1730.53
672.55	1738.73
672.74	1701.86
672.92	1611.75
673.11	1689.57
673.29	1673.19
673.48	1722.34
673.67	1665.00
673.85	1746.92
674.04	1697.77
674.23	1800.16
674.41	1890.28
674.60	1634.28
674.79	1644.52
674.97	1738.73
675.16	1699.81
675.34	1789.92
675.53	1665.00
675.72	1748.97
675.90	1812.45
676.09	1656.81
676.28	1681.38
676.46	1640.42
676.65	1683.43
676.83	1691.62
677.02	1738.73
677.21	1662.95
677.39	1703.91
677.58	1640.42
677.77	1654.76
677.95	1681.38
678.14	1656.81
678.32	1669.09
678.51	1673.19
678.70	1871.84
678.88	1632.23
679.07	1710.05
679.25	1705.96
679.44	1728.49
679.63	1638.38
679.81	1675.24
680.00	1810.40
680.18	1675.24
680.37	1736.68
680.55	1667.05
680.74	1648.61
680.93	1554.41
681.11	1689.57
681.30	1720.29
681.48	1683.43
681.67	1685.48
681.85	1730.53
682.04	1640.42
682.23	1755.11
682.41	1753.06
682.60	1591.27
682.78	1699.81
682.97	1636.33
683.15	1675.24
683.34	1691.62
683.53	1775.59
683.71	1529.83
683.90	1716.20
684.08	1789.92
684.27	1685.48
684.45	1705.96
684.64	1845.22
684.82	1644.52
685.01	1705.96
685.19	1662.95
685.38	1779.68
685.57	1683.43
685.75	1693.67
685.94	1693.67
686.12	1691.62
686.31	1665.00
686.49	1744.87
686.68	1679.33
686.86	1759.21
687.05	1665.00
687.23	1761.25
687.42	1716.20
687.60	1566.70
687.79	1632.23
687.97	1787.88
688.16	1798.12
688.34	1652.71
688.53	1640.42
688.71	1763.30
688.90	1746.92
689.08	1714.15
689.27	1660.90
689.45	1695.72
689.64	1734.63
689.82	1738.73
690.01	1708.01
690.19	1763.30
690.38	1646.57
690.56	1740.77
690.75	1626.09
690.93	1699.81
691.12	1746.92
691.30	1685.48
691.49	1701.86
691.67	1736.68
691.86	1796.07
692.04	1673.19
692.23	1699.81
692.41	1640.42
692.60	1886.18
692.78	1732.58
692.97	1683.43
693.15	1701.86
693.34	1806.31
693.52	1665.00
693.71	1671.14
693.89	1648.61
694.08	1513.45
694.26	1736.68
694.44	1800.16
694.63	1734.63
694.81	1660.90
695.00	1648.61
695.18	1740.77
695.37	1802.21
695.55	1681.38
695.74	1671.14
695.92	1703.91
696.10	1716.20
696.29	1581.03
696.47	1681.38
696.66	1763.30
696.84	1638.38
697.03	1652.71
697.21	1744.87
697.40	2303.96
697.58	1726.44
697.76	1710.05
697.95	1691.62
698.13	1617.90
698.32	1650.66
698.50	1730.53
698.68	1730.53
698.87	1697.77
699.05	1759.21
699.24	1804.26
699.42	1654.76
699.61	1710.05
699.79	1703.91
699.97	1761.25
700.16	1630.18
700.34	1714.15
700.53	1732.58
700.71	1781.73
700.89	1718.25
701.08	1662.95
701.26	1660.90
701.45	2041.82
701.63	1646.57
701.81	1697.77
702.00	1665.00
702.18	1714.15
702.37	1640.42
702.55	1781.73
702.73	1673.19
702.92	1677.29
703.10	1812.45
703.28	1751.01
703.47	1654.76
703.65	1820.64
703.84	1755.11
704.02	1665.00
704.20	1765.35
704.39	1529.83
704.57	1681.38
704.75	1789.92
704.94	1718.25
705.12	1728.49
705.30	1804.26
705.49	2258.91
705.67	4429.76
705.86	9432.94
706.04	12820.28
706.22	14913.31
706.41	15775.50
706.59	14161.70
706.77	10119.01
706.96	7483.28
707.14	6786.97
707.32	5957.54
707.51	5533.61
707.69	5019.57
707.87	4329.41
708.06	3555.27
708.24	3000.27
708.42	2498.52
708.61	2168.80
708.79	1970.15
708.97	1781.73
709.16	1804.26
709.34	1771.49
709.52	1708.01
709.71	1765.35
709.89	1734.63
710.07	1642.47
710.26	1621.99
710.44	1781.73
710.62	1789.92
710.80	1671.14
710.99	1744.87
711.17	1656.81
711.35	1718.25
711.54	1732.58
711.72	1757.16
711.90	1654.76
712.09	1671.14
712.27	1665.00
712.45	1736.68
712.63	1714.15
712.82	1665.00
713.00	1673.19
713.18	1775.59
713.37	1830.88
713.55	1783.78
713.73	1781.73
713.91	1705.96
714.10	1626.09
714.28	1675.24
714.46	1746.92
714.65	1765.35
714.83	1689.57
715.01	1665.00
715.19	1732.58
715.38	1675.24
715.56	1714.15
715.74	1677.29
715.92	1658.85
716.11	1746.92
716.29	1638.38
716.47	1726.44
716.65	1720.29
716.84	1675.24
717.02	1757.16
717.20	1654.76
717.38	1644.52
717.57	1691.62
717.75	1718.25
717.93	1626.09
718.11	1687.53
718.30	1673.19
718.48	1693.67
718.66	1742.82
718.84	1767.40
719.03	1681.38
719.21	1587.18
719.39	1812.45
719.57	1759.21
719.75	1746.92
719.94	1671.14
720.12	1689.57
720.30	1742.82
720.48	1791.97
720.67	1581.03
720.85	1624.04
721.03	1730.53
721.21	1771.49
721.39	1791.97
721.58	1738.73
721.76	1624.04
721.94	1732.58
722.12	1742.82
722.30	1773.54
722.49	1656.81
722.67	1675.24
722.85	1734.63
723.03	1662.95
723.21	1624.04
723.40	1673.19
723.58	1759.21
723.76	1783.78
723.94	1763.30
724.12	1705.96
724.30	1689.57
724.49	1767.40
724.67	1611.75
724.85	1804.26
725.03	1628.14
725.21	1679.33
725.40	1742.82
725.58	1636.33
725.76	1742.82
725.94	1765.35
726.12	1632.23
726.30	1722.34
726.49	1673.19
726.67	1634.28
726.85	1728.49
727.03	1830.88
727.21	2160.61
727.39	2914.26
727.57	3747.78
727.76	4169.66
727.94	4515.77
728.12	4452.28
728.30	3780.55
728.48	3041.23
728.66	2736.09
728.84	2512.86
729.03	2316.25
729.21	2115.55
729.39	1869.80
729.57	1804.26
729.75	1824.74
729.93	1818.60
730.11	1636.33
730.30	1724.39
730.48	1697.77
730.66	1746.92
730.84	1736.68
731.02	1681.38
731.20	1642.47
731.38	1714.15
731.56	1624.04
731.74	1583.08
731.93	1742.82
732.11	1650.66
732.29	1763.30
732.47	1716.20
732.65	1681.38
732.83	1830.88
733.01	1673.19
733.19	1617.90
733.37	1765.35
733.56	1730.53
733.74	1724.39
733.92	1748.97
734.10	1644.52
734.28	1712.10
734.46	1693.67
734.64	1648.61
734.82	1720.29
735.00	1693.67
735.18	1701.86
735.36	1673.19
735.54	1667.05
735.73	1628.14
735.91	1730.53
736.09	1685.48
736.27	1732.58
736.45	1638.38
736.63	1644.52
736.81	1675.24
736.99	1748.97
737.17	1763.30
737.35	1665.00
737.53	1744.87
737.71	1689.57
737.89	1791.97
738.07	1720.29
738.25	1615.85
738.43	1642.47
738.61	1652.71
738.80	1675.24
738.98	1587.18
739.16	1667.05
739.34	1677.29
739.52	1785.83
739.70	1738.73
739.88	1812.45
740.06	1740.77
740.24	1673.19
740.42	1744.87
740.60	1583.08
740.78	1654.76
740.96	1609.70
741.14	1724.39
741.32	1679.33
741.50	1595.37
741.68	1890.28
741.86	1824.74
742.04	1589.22
742.22	1658.85
742.40	1646.57
742.58	1628.14
742.76	1693.67
742.94	1751.01
743.12	1574.89
743.30	1660.90
743.48	1716.20
743.66	1624.04
743.84	1691.62
744.02	1701.86
744.20	1640.42
744.38	1628.14
744.56	1642.47
744.74	1853.41
744.92	1763.30
745.10	1753.06
745.28	1708.01
745.46	1730.53
745.64	1722.34
745.82	1714.15
746.00	1742.82
746.18	1834.98
746.36	1617.90
746.54	1673.19
746.72	1697.77
746.90	1636.33
747.08	1775.59
747.26	1624.04
747.44	1691.62
747.62	1769.44
747.80	1689.57
747.98	1691.62
748.15	1730.53
748.33	1775.59
748.51	1652.71
748.69	1769.44
748.87	1667.05
749.05	1755.11
749.23	1699.81
749.41	1718.25
749.59	1679.33
749.77	1714.15
749.95	1626.09
750.13	1669.09
750.31	1675.24
750.49	1675.24
750.67	1753.06
750.85	1822.69
751.03	1742.82
751.20	1779.68
751.38	1708.01
751.56	1652.71
751.74	1718.25
751.92	1617.90
752.10	1607.66
752.28	1748.97
752.46	1632.23
752.64	1691.62
752.82	1632.23
753.00	1771.49
753.18	1632.23
753.35	1689.57
753.53	1669.09
753.71	1687.53
753.89	1800.16
754.07	1683.43
754.25	1697.77
754.43	1791.97
754.61	1716.20
754.79	1751.01
754.97	1683.43
755.14	1802.21
755.32	1673.19
755.50	1685.48
755.68	1703.91
755.86	1619.94
756.04	1691.62
756.22	1607.66
756.40	1738.73
756.57	1841.12
756.75	1689.57
756.93	1746.92
757.11	1734.63
757.29	1636.33
757.47	1640.42
757.65	1673.19
757.82	1570.79
758.00	1652.71
758.18	1632.23
758.36	1673.19
758.54	1740.77
758.72	1595.37
758.90	1695.72
759.07	1726.44
759.25	1613.80
759.43	1730.53
759.61	1722.34
759.79	2179.04
759.97	1744.87
760.15	1699.81
760.32	1701.86
760.50	1701.86
760.68	1755.11
760.86	1619.94
761.04	1689.57
761.22	1761.25
761.39	1695.72
761.57	1765.35
761.75	1648.61
761.93	1685.48
762.11	1667.05
762.28	1701.86
762.46	1660.90
762.64	1685.48
762.82	1642.47
763.00	1607.66
763.18	1656.81
763.35	1697.77
763.53	1730.53
763.71	1724.39
763.89	1685.48
764.07	1685.48
764.24	1650.66
764.42	1718.25
764.60	1648.61
764.78	1748.97
764.96	1755.11
765.13	1767.40
765.31	1650.66
765.49	1679.33
765.67	1718.25
765.84	1619.94
766.02	1673.19
766.20	1636.33
766.38	1759.21
766.56	1755.11
766.73	1751.01
766.91	1683.43
767.09	1777.64
767.27	1695.72
767.44	1621.99
767.62	1621.99
767.80	1722.34
767.98	1644.52
768.15	1681.38
768.33	1734.63
768.51	1718.25
768.69	1703.91
768.87	1722.34
769.04	1689.57
769.22	1832.93
769.40	1800.16
769.58	1828.84
769.75	1669.09
769.93	1812.45
770.11	1755.11
770.28	1687.53
770.46	1687.53
770.64	1710.05
770.82	1710.05
770.99	1652.71
771.17	1693.67
771.35	1697.77
771.53	1687.53
771.70	1665.00
771.88	1695.72
772.06	1667.05
772.23	1777.64
772.41	1693.67
772.59	1730.53
772.77	1626.09
772.94	1722.34
773.12	1722.34
773.30	1648.61
773.47	1732.58
773.65	1683.43
773.83	1773.54
774.01	1621.99
774.18	1556.46
774.36	1712.10
774.54	1564.65
774.71	1736.68
774.89	1601.51
775.07	1632.23
775.24	1720.29
775.42	1687.53
775.60	1818.60
775.78	1671.14
775.95	1613.80
776.13	1521.64
776.31	1550.31
776.48	1718.25
776.66	1714.15
776.84	1691.62
777.01	1667.05
777.19	1638.38
777.37	1585.13
777.54	1724.39
777.72	1761.25
777.90	1685.48
778.07	1640.42
778.25	1800.16
778.43	1757.16
778.60	1779.68
778.78	1710.05
778.96	1781.73
779.13	1611.75
779.31	1785.83
779.49	1619.94
779.66	1705.96
779.84	1720.29
780.01	1677.29
780.19	1644.52
780.37	1734.63
780.54	1675.24
780.72	1558.50
780.90	1701.86
781.07	1722.34
781.25	1646.57
781.43	1724.39
781.60	1636.33
781.78	1753.06
781.95	1734.63
782.13	1611.75
782.31	1710.05
782.48	1550.31
782.66	1738.73
782.83	1728.49
783.01	1753.06
783.19	1730.53
783.36	1624.04
783.54	1593.32
783.72	1732.58
783.89	1730.53
784.07	1656.81
784.24	1697.77
784.42	1771.49
784.60	1710.05
784.77	1701.86
784.95	1660.90
785.12	1632.23
785.30	1712.10
785.47	1673.19
785.65	1697.77
785.83	1710.05
786.00	1621.99
786.18	1701.86
786.35	1615.85
786.53	1667.05
786.71	1740.77
786.88	1726.44
787.06	1714.15
787.23	1681.38
787.41	1636.33
787.58	1652.71
787.76	1685.48
787.94	1722.34
788.11	1677.29
788.29	1667.05
788.46	1699.81
788.64	1554.41
788.81	1665.00
788.99	1724.39
789.16	1613.80
789.34	1675.24
789.52	1660.90
789.69	1652.71
789.87	1640.42
790.04	1660.90
790.22	1632.23
790.39	1845.22
790.57	1665.00
790.74	1632.23
790.92	1798.12
791.09	1640.42
791.27	1677.29
791.44	1751.01
791.62	1701.86
791.79	1669.09
791.97	1619.94
792.15	1916.90
792.32	1712.10
792.50	1685.48
792.67	1820.64
792.85	1712.10
793.02	1660.90
793.20	1630.18
793.37	1605.61
793.55	1736.68
793.72	1677.29
793.90	1732.58
794.07	1605.61
794.25	1648.61
794.42	1689.57
794.60	1746.92
794.77	1671.14
794.95	1705.96
795.12	1703.91
795.30	1667.05
795.47	1609.70
795.65	1834.98
795.82	1695.72
796.00	1675.24
796.17	1626.09
796.34	1669.09
796.52	1705.96
796.69	1773.54
796.87	1710.05
797.04	1748.97
797.22	1691.62
797.39	1705.96
797.57	1759.21
797.74	1728.49
797.92	1693.67
798.09	1591.27
798.27	1716.20
798.44	1757.16
798.62	1648.61
798.79	1697.77
798.96	1757.16
799.14	1724.39
799.31	1853.41
799.49	1720.29
799.66	1683.43
799.84	1710.05
800.01	1644.52
800.19	1652.71
800.36	1621.99
800.53	1728.49
800.71	1708.01
800.88	1773.54
801.06	1615.85
801.23	1681.38
801.41	1658.85
801.58	1665.00
801.75	1734.63
801.93	1613.80
802.10	1665.00
802.28	1679.33
802.45	1703.91
802.63	1693.67
802.80	1734.63
802.97	1693.67
803.15	1638.38
803.32	1691.62
803.50	1738.73
803.67	1648.61
803.84	1583.08
804.02	1695.72
804.19	1677.29
804.37	1546.22
804.54	1636.33
804.71	1697.77
804.89	1634.28
805.06	1632.23
805.24	1669.09
805.41	1607.66
805.58	1611.75
805.76	1794.02
805.93	1646.57
806.10	1740.77
806.28	1738.73
806.45	1771.49
806.63	1732.58
806.80	1667.05
806.97	1691.62
807.15	1714.15
807.32	1697.77
807.49	1662.95
807.67	1589.22
807.84	1675.24
808.01	1583.08
808.19	1753.06
808.36	1822.69
808.54	1654.76
808.71	1726.44
808.88	1675.24
809.06	1648.61
809.23	1781.73
809.40	1697.77
809.58	1746.92
809.75	1636.33
809.92	1624.04
810.10	1791.97
810.27	1656.81
810.44	1642.47
810.62	1732.58
810.79	1695.72
810.96	1634.28
811.14	1673.19
811.31	1665.00
811.48	1712.10
811.66	1667.05
811.83	1699.81
812.00	1783.78
812.18	1716.20
812.35	1781.73
812.52	1730.53
812.69	1714.15
812.87	1667.05
813.04	1677.29
813.21	1679.33
813.39	1673.19
813.56	1669.09
813.73	1671.14
813.91	1648.61
814.08	1710.05
814.25	1712.10
814.42	1644.52
814.60	1621.99
814.77	1777.64
814.94	1658.85
815.12	1718.25
815.29	1742.82
815.46	1714.15
815.63	1634.28
815.81	1689.57
815.98	1681.38
816.15	1730.53
816.33	1724.39
816.50	1708.01
816.67	1728.49
816.84	1652.71
817.02	1533.93
817.19	1728.49
817.36	1697.77
817.53	1679.33
817.71	1695.72
817.88	1763.30
818.05	1730.53
818.22	1658.85
818.40	1791.97
818.57	1630.18
818.74	1634.28
818.91	1693.67
819.09	1716.20
819.26	1767.40
819.43	1581.03
819.60	1656.81
819.78	1642.47
819.95	1708.01
820.12	1697.77
820.29	1708.01
820.47	1773.54
820.64	1615.85
820.81	1665.00
820.98	1654.76
821.15	1656.81
821.33	1755.11
821.50	1576.94
821.67	1697.77
821.84	1710.05
822.02	1697.77
822.19	1779.68
822.36	1683.43
822.53	1648.61
822.70	1605.61
822.88	1626.09
823.05	1765.35
823.22	1759.21
823.39	1746.92
823.56	1681.38
823.74	1755.11
823.91	1677.29
824.08	1624.04
824.25	1619.94
824.42	1779.68
824.60	1671.14
824.77	1705.96
824.94	1630.18
825.11	1744.87
825.28	1617.90
825.45	1701.86
825.63	1689.57
825.80	1642.47
825.97	1724.39
826.14	1685.48
826.31	1597.42
826.48	1685.48
826.66	1673.19
826.83	1626.09
827.00	1748.97
827.17	1632.23
827.34	1693.67
827.51	1685.48
827.69	1710.05
827.86	1660.90
828.03	1677.29
828.20	1697.77
828.37	1617.90
828.54	1724.39
828.71	1621.99
828.89	1744.87
829.06	1695.72
829.23	1853.41
829.40	1658.85
829.57	1597.42
829.74	1767.40
829.91	1689.57
830.09	1714.15
830.26	1675.24
830.43	1703.91
830.60	1671.14
830.77	1761.25
830.94	1699.81
831.11	1705.96
831.28	1726.44
831.46	1748.97
831.63	1636.33
831.80	1755.11
831.97	1652.71
832.14	1667.05
832.31	1693.67
832.48	1646.57
832.65	1777.64
832.82	1687.53
832.99	1714.15
833.17	1636.33
833.34	1804.26
833.51	1697.77
833.68	1599.46
833.85	1701.86
834.02	1621.99
834.19	1632.23
834.36	1683.43
834.53	1665.00
834.70	1699.81
834.87	1728.49
835.04	1708.01
835.22	1558.50
835.39	1671.14
835.56	1681.38
835.73	1654.76
835.90	1695.72
836.07	1654.76
836.24	1791.97
836.41	1591.27
836.58	1691.62
836.75	1785.83
836.92	1693.67
837.09	1648.61
837.26	1736.68
837.43	1712.10
837.60	1728.49
837.77	1665.00
837.94	1701.86
838.12	1708.01
838.29	1609.70
838.46	1626.09
838.63	1679.33
838.80	1816.55
838.97	1718.25
839.14	1667.05
839.31	1699.81
839.48	1701.86
839.65	1640.42
839.82	1761.25
839.99	1710.05
840.16	1654.76
840.33	1628.14
840.50	1665.00
840.67	1597.42
840.84	1466.35
841.01	1734.63
841.18	1699.81
841.35	1615.85
841.52	1744.87
841.69	1757.16
841.86	1718.25
842.03	1665.00
842.20	1699.81
842.37	1644.52
842.54	1691.62
842.71	1669.09
842.88	1630.18
843.05	1734.63
843.22	1669.09
843.39	1806.31
843.56	1708.01
843.73	1597.42
843.90	1757.16
844.07	1693.67
844.24	1751.01
844.41	1705.96
844.58	1712.10
844.75	1675.24
844.92	1730.53
845.09	1587.18
845.26	1685.48
845.43	1638.38
845.60	1689.57
845.77	1697.77
845.94	1652.71
846.10	1720.29
846.27	1644.52
846.44	1597.42
846.61	1595.37
846.78	1730.53
846.95	1712.10
847.12	1675.24
847.29	1734.63
847.46	1665.00
847.63	1773.54
847.80	1628.14
847.97	1669.09
848.14	1769.44
848.31	1665.00
848.48	1546.22
848.65	1673.19
848.82	1646.57
848.98	1769.44
849.15	1679.33
849.32	1763.30
849.49	1820.64
849.66	1675.24
849.83	1648.61
850.00	1652.71
850.17	1738.73
850.34	1605.61
850.51	1648.61
850.68	1621.99
850.85	1845.22
851.01	1730.53
851.18	1759.21
851.35	1701.86
851.52	1759.21
851.69	1794.02
851.86	1632.23
852.03	1615.85
852.20	1695.72
852.37	1763.30
852.53	1587.18
852.70	1642.47
852.87	1652.71
853.04	1746.92
853.21	1740.77
853.38	1781.73
853.55	1722.34
853.72	1753.06
853.89	1644.52
854.05	1677.29
854.22	1646.57
854.39	1685.48
854.56	1644.52
854.73	1638.38
854.90	1611.75
855.07	1660.90
855.23	1650.66
855.40	1636.33
855.57	1634.28
855.74	1613.80
855.91	1880.04
856.08	1656.81
856.25	1673.19
856.41	1648.61
856.58	1636.33
856.75	1669.09
856.92	1605.61
857.09	1687.53
857.26	1593.32
857.42	1738.73
857.59	1710.05
857.76	1593.32
857.93	1753.06
858.10	1697.77
858.27	1626.09
858.43	1628.14
858.60	1642.47
858.77	1568.74
858.94	1763.30
859.11	1783.78
859.27	1689.57
859.44	1667.05
859.61	1722.34
859.78	1736.68
859.95	1687.53
860.12	1701.86
860.28	1824.74
860.45	1753.06
860.62	1636.33
860.79	1718.25
860.95	1644.52
861.12	1662.95
861.29	1662.95
861.46	1660.90
861.63	1689.57
861.79	1710.05
861.96	1701.86
862.13	1697.77
862.30	1753.06
862.47	1681.38
862.63	1660.90
862.80	1763.30
862.97	1718.25
863.14	1710.05
863.30	1648.61
863.47	1652.71
863.64	1728.49
863.81	1726.44
863.97	1654.76
864.14	1687.53
864.31	1718.25
864.48	1722.34
864.65	1755.11
864.81	1710.05
864.98	1695.72
865.15	1636.33
865.32	1722.34
865.48	1679.33
865.65	1828.84
865.82	1671.14
865.98	1689.57
866.15	1724.39
866.32	1716.20
866.49	1650.66
866.65	1701.86
866.82	1632.23
866.99	1669.09
867.16	1673.19
867.32	1691.62
867.49	1626.09
867.66	1671.14
867.83	1648.61
867.99	1675.24
868.16	1734.63
868.33	1603.56
868.49	1658.85
868.66	1652.71
868.83	1759.21
868.99	1738.73
869.16	1636.33
869.33	1814.50
869.50	1685.48
869.66	1726.44
869.83	1693.67
870.00	1607.66
870.16	1736.68
870.33	1652.71
870.50	1714.15
870.66	1712.10
870.83	1837.03
871.00	1654.76
871.17	1703.91
871.33	1611.75
871.50	1697.77
871.67	1716.20
871.83	1609.70
872.00	1798.12
872.17	1671.14
872.33	1791.97
872.50	1796.07
872.67	1773.54
872.83	1632.23
873.00	1759.21
873.17	1689.57
873.33	1726.44
873.50	1728.49
873.67	1675.24
873.83	1667.05
874.00	1685.48
874.16	1738.73
874.33	1660.90
874.50	1640.42
874.66	1710.05
874.83	1675.24
875.00	1800.16
875.16	1730.53
875.33	1665.00
875.50	1578.98
875.66	1675.24
875.83	1677.29
875.99	1767.40
876.16	1654.76
876.33	1558.50
876.49	1599.46
876.66	1691.62
876.83	1640.42
876.99	1632.23
877.16	1730.53
877.32	1626.09
877.49	1726.44
877.66	1730.53
877.82	1748.97
877.99	1705.96
878.15	1728.49
878.32	1769.44
878.49	1677.29
878.65	1648.61
878.82	1716.20
878.98	1671.14
879.15	1738.73
879.32	1665.00
879.48	1728.49
879.65	1615.85
879.81	1734.63
879.98	1669.09
880.15	1734.63
880.31	1775.59
880.48	1673.19
880.64	1769.44
880.81	1779.68
880.97	1851.36
881.14	1660.90
881.31	1585.13
881.47	1861.60
881.64	1710.05
881.80	1574.89
881.97	1787.88
882.13	1703.91
882.30	1642.47
882.47	1646.57
882.63	1564.65
882.80	1572.84
882.96	1648.61
883.13	1839.08
883.29	1656.81
883.46	1662.95
883.62	1744.87
883.79	1777.64
883.95	1834.98
884.12	1583.08
884.29	1771.49
884.45	1665.00
884.62	1708.01
884.78	1693.67
884.95	1794.02
885.11	1650.66
885.28	1779.68
885.44	1648.61
885.61	1693.67
885.77	1796.07
885.94	1748.97
886.10	1712.10
886.27	1710.05
886.43	1732.58
886.60	1771.49
886.76	1724.39
886.93	1654.76
887.09	1601.51
887.26	1617.90
887.42	1658.85
887.59	1757.16
887.75	1783.78
887.92	1708.01
888.08	1673.19
888.25	1755.11
888.41	1691.62
888.58	1667.05
888.74	1675.24
888.91	1593.32
>>>>>End Processed Spectral Data<<<<<
