SpectraSuite Data File
++++++++++++++++++++++++++++++++++++
Date: Mon Jun 06 14:28:57 CEST 2016
User: root
Dark Spectrum Present: No
Reference Spectrum Present: No
Number of Sampled Component Spectra: 1
Spectrometers: USB4C02835
Integration Time (usec): 100000 (USB4C02835)
Spectra Averaged: 1 (USB4C02835)
Boxcar Smoothing: 0 (USB4C02835)
Correct for Electrical Dark: No (USB4C02835)
Strobe/Lamp Enabled: No (USB4C02835)
Correct for Detector Non-linearity: No (USB4C02835)
Correct for Stray Light: No (USB4C02835)
Number of Pixels in Processed Spectrum: 3648
>>>>>Begin Processed Spectral Data<<<<<
177.47	1509.35
177.69	1509.35
177.91	1509.35
178.13	1497.07
178.36	1425.39
178.58	1671.14
178.80	1716.20
179.02	1646.57
179.24	1714.15
179.46	1656.81
179.68	1726.44
179.90	1679.33
180.13	1710.05
180.35	1671.14
180.57	1718.25
180.79	1781.73
181.01	1673.19
181.23	1832.93
181.45	1732.58
181.67	1728.49
181.90	1757.16
182.12	1710.05
182.34	1632.23
182.56	1714.15
182.78	1736.68
183.00	1728.49
183.22	1755.11
183.44	1681.38
183.66	1755.11
183.89	1718.25
184.11	1751.01
184.33	1742.82
184.55	1734.63
184.77	1695.72
184.99	1775.59
185.21	1597.42
185.43	1779.68
185.65	1673.19
185.87	1716.20
186.10	1785.83
186.32	1861.60
186.54	1714.15
186.76	1701.86
186.98	1746.92
187.20	1671.14
187.42	1710.05
187.64	1642.47
187.86	1669.09
188.08	1746.92
188.30	1583.08
188.52	1742.82
188.75	1705.96
188.97	1767.40
189.19	1673.19
189.41	1685.48
189.63	1681.38
189.85	1675.24
190.07	1591.27
190.29	1675.24
190.51	1630.18
190.73	1640.42
190.95	1763.30
191.17	1701.86
191.39	1617.90
191.61	1665.00
191.84	1621.99
192.06	1738.73
192.28	1679.33
192.50	1880.04
192.72	1697.77
192.94	1691.62
193.16	1714.15
193.38	1665.00
193.60	1667.05
193.82	1642.47
194.04	1679.33
194.26	1714.15
194.48	1716.20
194.70	1605.61
194.92	1636.33
195.14	1708.01
195.36	1652.71
195.58	1726.44
195.80	1693.67
196.02	1656.81
196.24	1675.24
196.46	1697.77
196.69	1726.44
196.91	1867.75
197.13	1660.90
197.35	1640.42
197.57	1716.20
197.79	1675.24
198.01	1697.77
198.23	1757.16
198.45	1705.96
198.67	1648.61
198.89	1640.42
199.11	1732.58
199.33	1736.68
199.55	1564.65
199.77	1697.77
199.99	1726.44
200.21	1755.11
200.43	1691.62
200.65	1714.15
200.87	1589.22
201.09	1662.95
201.31	1658.85
201.53	1767.40
201.75	1755.11
201.97	1701.86
202.19	1728.49
202.41	1753.06
202.63	1880.04
202.85	1757.16
203.07	1751.01
203.29	1732.58
203.51	1640.42
203.73	1710.05
203.95	1904.61
204.17	1654.76
204.39	1728.49
204.61	1681.38
204.83	1687.53
205.05	1722.34
205.27	1732.58
205.49	1806.31
205.71	1722.34
205.93	1642.47
206.15	1708.01
206.37	1718.25
206.59	1638.38
206.81	1677.29
207.03	1613.80
207.25	1658.85
207.47	1771.49
207.69	1712.10
207.91	1779.68
208.13	1816.55
208.34	1646.57
208.56	1607.66
208.78	1652.71
209.00	1632.23
209.22	1697.77
209.44	1681.38
209.66	1730.53
209.88	1775.59
210.10	1703.91
210.32	1658.85
210.54	1810.40
210.76	1695.72
210.98	1761.25
211.20	1576.94
211.42	1695.72
211.64	1742.82
211.86	1673.19
212.08	1720.29
212.30	1722.34
212.52	1701.86
212.74	1683.43
212.96	1726.44
213.17	1755.11
213.39	1693.67
213.61	1894.37
213.83	1716.20
214.05	1609.70
214.27	1791.97
214.49	1695.72
214.71	1673.19
214.93	1755.11
215.15	1689.57
215.37	1746.92
215.59	1665.00
215.81	1697.77
216.03	1837.03
216.24	1667.05
216.46	1728.49
216.68	1708.01
216.90	1705.96
217.12	1794.02
217.34	1691.62
217.56	1691.62
217.78	1759.21
218.00	1726.44
218.22	1744.87
218.44	1742.82
218.66	1650.66
218.87	1787.88
219.09	1685.48
219.31	1689.57
219.53	1751.01
219.75	1568.74
219.97	1665.00
220.19	1693.67
220.41	1701.86
220.63	1763.30
220.85	1738.73
221.06	1634.28
221.28	1841.12
221.50	1699.81
221.72	1718.25
221.94	1701.86
222.16	1638.38
222.38	1802.21
222.60	1742.82
222.82	1705.96
223.03	1677.29
223.25	1648.61
223.47	1761.25
223.69	1816.55
223.91	1677.29
224.13	1724.39
224.35	1677.29
224.57	1787.88
224.78	1736.68
225.00	1636.33
225.22	1681.38
225.44	1732.58
225.66	1671.14
225.88	1638.38
226.10	1773.54
226.32	1714.15
226.53	1705.96
226.75	1656.81
226.97	1632.23
227.19	1656.81
227.41	1656.81
227.63	1675.24
227.85	1615.85
228.06	1716.20
228.28	1679.33
228.50	1773.54
228.72	1669.09
228.94	1673.19
229.16	1601.51
229.37	1611.75
229.59	1705.96
229.81	1796.07
230.03	1591.27
230.25	1636.33
230.47	1628.14
230.69	1587.18
230.90	1757.16
231.12	1796.07
231.34	1718.25
231.56	1734.63
231.78	1705.96
232.00	1767.40
232.21	1699.81
232.43	1687.53
232.65	1624.04
232.87	1716.20
233.09	1601.51
233.30	1624.04
233.52	1740.77
233.74	1636.33
233.96	1646.57
234.18	1671.14
234.40	1673.19
234.61	1886.18
234.83	1613.80
235.05	1581.03
235.27	1847.27
235.49	1771.49
235.70	1619.94
235.92	1746.92
236.14	1777.64
236.36	1820.64
236.58	1607.66
236.79	1728.49
237.01	1775.59
237.23	1705.96
237.45	1820.64
237.67	1642.47
237.88	1748.97
238.10	1851.36
238.32	1648.61
238.54	1624.04
238.76	1697.77
238.97	1665.00
239.19	1691.62
239.41	1785.83
239.63	1726.44
239.85	1746.92
240.06	1712.10
240.28	1681.38
240.50	1658.85
240.72	1677.29
240.93	1701.86
241.15	1728.49
241.37	1667.05
241.59	1660.90
241.81	1751.01
242.02	1658.85
242.24	1652.71
242.46	1779.68
242.68	1683.43
242.89	1687.53
243.11	1783.78
243.33	1710.05
243.55	1708.01
243.76	1701.86
243.98	1671.14
244.20	1738.73
244.42	1757.16
244.64	1732.58
244.85	1669.09
245.07	1665.00
245.29	1814.50
245.51	1730.53
245.72	1656.81
245.94	1705.96
246.16	1673.19
246.38	1708.01
246.59	1658.85
246.81	1617.90
247.03	1740.77
247.24	1646.57
247.46	1746.92
247.68	1687.53
247.90	1710.05
248.11	1669.09
248.33	1650.66
248.55	1675.24
248.77	1662.95
248.98	1744.87
249.20	1773.54
249.42	1771.49
249.64	1771.49
249.85	1689.57
250.07	1632.23
250.29	1794.02
250.50	1728.49
250.72	1599.46
250.94	1771.49
251.16	1824.74
251.37	1746.92
251.59	1736.68
251.81	1705.96
252.02	1789.92
252.24	1720.29
252.46	1834.98
252.68	1679.33
252.89	1691.62
253.11	1621.99
253.33	1730.53
253.54	1767.40
253.76	1730.53
253.98	1603.56
254.20	1718.25
254.41	1675.24
254.63	1654.76
254.85	1609.70
255.06	1755.11
255.28	1726.44
255.50	1722.34
255.71	1677.29
255.93	1644.52
256.15	1691.62
256.36	1730.53
256.58	1632.23
256.80	1720.29
257.02	1632.23
257.23	1714.15
257.45	1734.63
257.67	1673.19
257.88	1695.72
258.10	1763.30
258.32	1718.25
258.53	1761.25
258.75	1738.73
258.97	1689.57
259.18	1658.85
259.40	1687.53
259.62	1777.64
259.83	1767.40
260.05	1726.44
260.27	1918.95
260.48	1779.68
260.70	1603.56
260.92	1691.62
261.13	1675.24
261.35	1630.18
261.57	1687.53
261.78	1648.61
262.00	1617.90
262.22	1687.53
262.43	1597.42
262.65	1683.43
262.86	1742.82
263.08	1918.95
263.30	1755.11
263.51	1646.57
263.73	1705.96
263.95	1728.49
264.16	1617.90
264.38	1673.19
264.60	1685.48
264.81	1636.33
265.03	1718.25
265.25	1734.63
265.46	1677.29
265.68	1777.64
265.89	1691.62
266.11	1638.38
266.33	1783.78
266.54	1765.35
266.76	1656.81
266.98	1767.40
267.19	1755.11
267.41	1734.63
267.62	1734.63
267.84	1691.62
268.06	1787.88
268.27	1736.68
268.49	1736.68
268.70	1773.54
268.92	1699.81
269.14	1611.75
269.35	1583.08
269.57	1767.40
269.79	1736.68
270.00	1681.38
270.22	1765.35
270.43	1667.05
270.65	1607.66
270.87	1732.58
271.08	1742.82
271.30	1699.81
271.51	1687.53
271.73	1712.10
271.95	1728.49
272.16	1718.25
272.38	1667.05
272.59	1656.81
272.81	1718.25
273.02	1736.68
273.24	1722.34
273.46	1722.34
273.67	1665.00
273.89	1673.19
274.10	1679.33
274.32	1703.91
274.54	1691.62
274.75	1732.58
274.97	1632.23
275.18	1738.73
275.40	1765.35
275.61	1730.53
275.83	1714.15
276.05	1628.14
276.26	1726.44
276.48	1734.63
276.69	1705.96
276.91	1660.90
277.12	1791.97
277.34	1746.92
277.55	1771.49
277.77	1732.58
277.99	1669.09
278.20	1693.67
278.42	1570.79
278.63	1648.61
278.85	1634.28
279.06	1583.08
279.28	1652.71
279.49	1730.53
279.71	1738.73
279.93	1689.57
280.14	1730.53
280.36	1642.47
280.57	1804.26
280.79	1677.29
281.00	1675.24
281.22	1699.81
281.43	1814.50
281.65	1591.27
281.86	1667.05
282.08	1669.09
282.29	1785.83
282.51	1640.42
282.73	1613.80
282.94	1654.76
283.16	1697.77
283.37	1771.49
283.59	1693.67
283.80	1710.05
284.02	1671.14
284.23	1730.53
284.45	1761.25
284.66	1570.79
284.88	1624.04
285.09	1683.43
285.31	1671.14
285.52	1675.24
285.74	1634.28
285.95	1730.53
286.17	1767.40
286.38	1830.88
286.60	1630.18
286.81	1732.58
287.03	1673.19
287.24	1617.90
287.46	1685.48
287.67	1722.34
287.89	1832.93
288.10	1673.19
288.32	1724.39
288.53	1763.30
288.75	1701.86
288.96	1722.34
289.18	1712.10
289.39	1742.82
289.61	1800.16
289.82	1783.78
290.04	1693.67
290.25	1667.05
290.47	1699.81
290.68	1738.73
290.90	1808.36
291.11	1599.46
291.33	1746.92
291.54	1660.90
291.76	1681.38
291.97	1800.16
292.18	1791.97
292.40	1626.09
292.61	1605.61
292.83	1877.99
293.04	1724.39
293.26	1708.01
293.47	1667.05
293.69	1662.95
293.90	1675.24
294.12	1765.35
294.33	1689.57
294.55	1699.81
294.76	1767.40
294.97	1751.01
295.19	1832.93
295.40	1718.25
295.62	1722.34
295.83	1656.81
296.05	1658.85
296.26	1716.20
296.48	1671.14
296.69	1714.15
296.90	1708.01
297.12	1697.77
297.33	1824.74
297.55	1697.77
297.76	1763.30
297.98	1662.95
298.19	1738.73
298.41	1679.33
298.62	1732.58
298.83	1728.49
299.05	1671.14
299.26	1628.14
299.48	1710.05
299.69	1685.48
299.90	1689.57
300.12	1687.53
300.33	1744.87
300.55	1730.53
300.76	1665.00
300.98	1619.94
301.19	1697.77
301.40	1652.71
301.62	1742.82
301.83	1771.49
302.05	1755.11
302.26	1730.53
302.47	1660.90
302.69	1617.90
302.90	1775.59
303.12	1576.94
303.33	1730.53
303.54	1855.46
303.76	1695.72
303.97	1662.95
304.19	1832.93
304.40	1667.05
304.61	1759.21
304.83	1828.84
305.04	1757.16
305.26	1728.49
305.47	1689.57
305.68	1652.71
305.90	1640.42
306.11	1746.92
306.33	1697.77
306.54	1662.95
306.75	1652.71
306.97	1546.22
307.18	1716.20
307.39	1628.14
307.61	1761.25
307.82	1695.72
308.04	1722.34
308.25	1685.48
308.46	1748.97
308.68	1685.48
308.89	1607.66
309.10	1791.97
309.32	1685.48
309.53	1726.44
309.74	1740.77
309.96	1701.86
310.17	1769.44
310.39	1683.43
310.60	1779.68
310.81	1757.16
311.03	1726.44
311.24	1753.06
311.45	1718.25
311.67	1746.92
311.88	1728.49
312.09	1701.86
312.31	1705.96
312.52	1740.77
312.73	1724.39
312.95	1685.48
313.16	1638.38
313.37	1824.74
313.59	1691.62
313.80	1771.49
314.01	1775.59
314.23	1638.38
314.44	1673.19
314.65	1683.43
314.87	1673.19
315.08	1695.72
315.29	1689.57
315.51	1648.61
315.72	1626.09
315.93	1779.68
316.15	1757.16
316.36	1748.97
316.57	1718.25
316.79	1738.73
317.00	1677.29
317.21	1714.15
317.43	1710.05
317.64	1718.25
317.85	1705.96
318.07	1644.52
318.28	1642.47
318.49	1802.21
318.70	1875.94
318.92	1812.45
319.13	1802.21
319.34	1828.84
319.56	1818.60
319.77	1812.45
319.98	1818.60
320.20	1785.83
320.41	1742.82
320.62	1757.16
320.83	1615.85
321.05	1851.36
321.26	1703.91
321.47	1619.94
321.69	1828.84
321.90	1652.71
322.11	1665.00
322.32	1740.77
322.54	1757.16
322.75	1652.71
322.96	1773.54
323.18	1640.42
323.39	1576.94
323.60	1665.00
323.81	1748.97
324.03	1710.05
324.24	1703.91
324.45	1705.96
324.66	1667.05
324.88	1789.92
325.09	1834.98
325.30	1769.44
325.52	1703.91
325.73	1734.63
325.94	1716.20
326.15	1574.89
326.37	1742.82
326.58	1761.25
326.79	1761.25
327.00	1679.33
327.22	1777.64
327.43	1640.42
327.64	1624.04
327.85	1667.05
328.07	1710.05
328.28	1837.03
328.49	1708.01
328.70	1677.29
328.92	1669.09
329.13	1732.58
329.34	1759.21
329.55	1742.82
329.76	1695.72
329.98	1734.63
330.19	1808.36
330.40	1642.47
330.61	1757.16
330.83	1701.86
331.04	1695.72
331.25	1736.68
331.46	1650.66
331.68	1665.00
331.89	1716.20
332.10	1671.14
332.31	1638.38
332.52	1667.05
332.74	1787.88
332.95	1630.18
333.16	1722.34
333.37	1695.72
333.58	1675.24
333.80	1714.15
334.01	1628.14
334.22	1671.14
334.43	1642.47
334.64	1662.95
334.86	1591.27
335.07	1597.42
335.28	1787.88
335.49	1621.99
335.70	1783.78
335.92	1736.68
336.13	1802.21
336.34	1591.27
336.55	1669.09
336.76	1701.86
336.98	1669.09
337.19	1607.66
337.40	1789.92
337.61	1902.56
337.82	1681.38
338.04	1718.25
338.25	1650.66
338.46	1798.12
338.67	1718.25
338.88	1589.22
339.09	1665.00
339.31	1644.52
339.52	1628.14
339.73	1675.24
339.94	1638.38
340.15	1746.92
340.36	1683.43
340.58	1722.34
340.79	1632.23
341.00	1748.97
341.21	1675.24
341.42	1753.06
341.63	1658.85
341.85	1738.73
342.06	1697.77
342.27	1581.03
342.48	1771.49
342.69	1656.81
342.90	1718.25
343.12	1746.92
343.33	1710.05
343.54	1771.49
343.75	1822.69
343.96	1759.21
344.17	1648.61
344.38	1746.92
344.60	1642.47
344.81	1644.52
345.02	1710.05
345.23	1695.72
345.44	1703.91
345.65	1734.63
345.86	1724.39
346.07	1757.16
346.29	1560.55
346.50	1630.18
346.71	1748.97
346.92	1773.54
347.13	1845.22
347.34	1697.77
347.55	1726.44
347.76	1722.34
347.98	1613.80
348.19	1658.85
348.40	1742.82
348.61	1689.57
348.82	1841.12
349.03	1742.82
349.24	1650.66
349.45	1759.21
349.66	1593.32
349.88	1746.92
350.09	1671.14
350.30	1769.44
350.51	1822.69
350.72	1689.57
350.93	1671.14
351.14	1726.44
351.35	1761.25
351.56	1708.01
351.77	1607.66
351.99	1726.44
352.20	1759.21
352.41	1769.44
352.62	1599.46
352.83	1691.62
353.04	1699.81
353.25	1619.94
353.46	1816.55
353.67	1820.64
353.88	1560.55
354.09	1726.44
354.30	1699.81
354.52	1689.57
354.73	1689.57
354.94	1648.61
355.15	1605.61
355.36	1779.68
355.57	1685.48
355.78	1791.97
355.99	1703.91
356.20	1677.29
356.41	1771.49
356.62	1804.26
356.83	1751.01
357.04	1814.50
357.25	1621.99
357.46	1630.18
357.68	1683.43
357.89	1652.71
358.10	1621.99
358.31	1667.05
358.52	1689.57
358.73	1685.48
358.94	1669.09
359.15	1658.85
359.36	1767.40
359.57	1681.38
359.78	1755.11
359.99	1781.73
360.20	1665.00
360.41	1615.85
360.62	1695.72
360.83	1648.61
361.04	1712.10
361.25	1685.48
361.46	1816.55
361.67	1673.19
361.88	1736.68
362.09	1773.54
362.30	1687.53
362.51	1619.94
362.72	1738.73
362.93	1783.78
363.14	1746.92
363.35	1681.38
363.56	1652.71
363.78	1804.26
363.99	1767.40
364.20	1632.23
364.41	1748.97
364.62	1843.17
364.83	1757.16
365.04	1710.05
365.25	1701.86
365.46	1810.40
365.67	1675.24
365.88	1632.23
366.09	1751.01
366.30	1703.91
366.51	1794.02
366.72	1619.94
366.93	1722.34
367.14	1716.20
367.35	1728.49
367.56	1724.39
367.77	1849.32
367.98	1619.94
368.18	1685.48
368.39	1638.38
368.60	1675.24
368.81	1746.92
369.02	1712.10
369.23	1736.68
369.44	1617.90
369.65	1744.87
369.86	1691.62
370.07	1708.01
370.28	1689.57
370.49	1783.78
370.70	1730.53
370.91	1730.53
371.12	1642.47
371.33	1675.24
371.54	1626.09
371.75	1814.50
371.96	1632.23
372.17	1652.71
372.38	1740.77
372.59	1773.54
372.80	1697.77
373.01	1671.14
373.22	1755.11
373.43	1714.15
373.64	1677.29
373.85	1710.05
374.06	1791.97
374.26	1691.62
374.47	1675.24
374.68	1773.54
374.89	1722.34
375.10	1642.47
375.31	1806.31
375.52	1685.48
375.73	1693.67
375.94	1650.66
376.15	1673.19
376.36	1697.77
376.57	1693.67
376.78	1632.23
376.99	1755.11
377.20	1734.63
377.40	1701.86
377.61	1746.92
377.82	1634.28
378.03	1771.49
378.24	1724.39
378.45	1671.14
378.66	1638.38
378.87	1560.55
379.08	1636.33
379.29	1748.97
379.50	1771.49
379.71	1722.34
379.91	1736.68
380.12	1636.33
380.33	1683.43
380.54	1701.86
380.75	1708.01
380.96	1648.61
381.17	1689.57
381.38	1728.49
381.59	1724.39
381.80	1728.49
382.00	1802.21
382.21	1738.73
382.42	1738.73
382.63	1851.36
382.84	1734.63
383.05	1738.73
383.26	1832.93
383.47	1718.25
383.68	1791.97
383.88	1699.81
384.09	1726.44
384.30	1812.45
384.51	1705.96
384.72	1716.20
384.93	1546.22
385.14	1685.48
385.35	1714.15
385.55	1619.94
385.76	1806.31
385.97	1720.29
386.18	1640.42
386.39	1667.05
386.60	1665.00
386.81	1683.43
387.02	1677.29
387.22	1652.71
387.43	1746.92
387.64	1667.05
387.85	1906.66
388.06	2232.29
388.27	4263.87
388.48	6832.02
388.68	8509.31
388.89	9719.66
389.10	10090.34
389.31	8791.93
389.52	7698.31
389.73	6967.19
389.93	6449.05
390.14	5877.67
390.35	5207.98
390.56	4644.79
390.77	3880.90
390.98	3045.33
391.18	2596.82
391.39	2074.59
391.60	1818.60
391.81	1841.12
392.02	1701.86
392.23	1871.84
392.43	1726.44
392.64	1830.88
392.85	1730.53
393.06	1791.97
393.27	1757.16
393.47	1712.10
393.68	1650.66
393.89	1611.75
394.10	1712.10
394.31	1644.52
394.52	1710.05
394.72	1697.77
394.93	1834.98
395.14	1621.99
395.35	1730.53
395.56	1665.00
395.76	1744.87
395.97	1773.54
396.18	1828.84
396.39	1820.64
396.60	1968.10
396.80	1886.18
397.01	1812.45
397.22	1791.97
397.43	1843.17
397.64	1771.49
397.84	1751.01
398.05	1800.16
398.26	1796.07
398.47	1703.91
398.67	1787.88
398.88	1699.81
399.09	1800.16
399.30	1665.00
399.51	1738.73
399.71	1685.48
399.92	1730.53
400.13	1705.96
400.34	1705.96
400.54	1730.53
400.75	1791.97
400.96	1759.21
401.17	1775.59
401.37	1720.29
401.58	1738.73
401.79	1734.63
402.00	1822.69
402.21	1968.10
402.41	1955.81
402.62	1992.67
402.83	2004.96
403.04	2056.16
403.24	2123.74
403.45	1812.45
403.66	1923.04
403.87	1826.79
404.07	1914.85
404.28	1900.52
404.49	1828.84
404.70	1740.77
404.90	1771.49
405.11	1724.39
405.32	1681.38
405.52	1621.99
405.73	1681.38
405.94	1677.29
406.15	1708.01
406.35	1722.34
406.56	1736.68
406.77	1646.57
406.98	1734.63
407.18	1693.67
407.39	1806.31
407.60	1689.57
407.80	1765.35
408.01	1720.29
408.22	1724.39
408.43	1650.66
408.63	1724.39
408.84	1746.92
409.05	1656.81
409.25	1673.19
409.46	1673.19
409.67	1710.05
409.88	1646.57
410.08	1736.68
410.29	1644.52
410.50	1796.07
410.70	1675.24
410.91	1673.19
411.12	1730.53
411.32	1712.10
411.53	1576.94
411.74	1884.13
411.95	1701.86
412.15	1755.11
412.36	1816.55
412.57	1699.81
412.77	1787.88
412.98	1658.85
413.19	1710.05
413.39	1759.21
413.60	1759.21
413.81	1765.35
414.01	1624.04
414.22	1738.73
414.43	1755.11
414.63	1730.53
414.84	1785.83
415.05	1722.34
415.25	1595.37
415.46	1734.63
415.67	1683.43
415.87	1783.78
416.08	1613.80
416.29	1650.66
416.49	1783.78
416.70	1718.25
416.91	1771.49
417.11	1726.44
417.32	1777.64
417.53	1775.59
417.73	1765.35
417.94	1691.62
418.15	1714.15
418.35	1728.49
418.56	1757.16
418.77	1812.45
418.97	1701.86
419.18	1640.42
419.38	1621.99
419.59	1712.10
419.80	1714.15
420.00	1738.73
420.21	1714.15
420.42	1705.96
420.62	1675.24
420.83	1718.25
421.04	1722.34
421.24	1677.29
421.45	1791.97
421.65	1648.61
421.86	1720.29
422.07	1714.15
422.27	1714.15
422.48	1710.05
422.69	1701.86
422.89	1683.43
423.10	1689.57
423.30	1597.42
423.51	1648.61
423.72	1736.68
423.92	1781.73
424.13	1581.03
424.33	1683.43
424.54	1738.73
424.75	1720.29
424.95	1785.83
425.16	1720.29
425.36	1595.37
425.57	1767.40
425.78	1716.20
425.98	1738.73
426.19	1738.73
426.39	1681.38
426.60	1761.25
426.81	1781.73
427.01	1650.66
427.22	1660.90
427.42	1703.91
427.63	1734.63
427.83	1730.53
428.04	1894.37
428.25	1820.64
428.45	1751.01
428.66	1751.01
428.86	1714.15
429.07	1671.14
429.28	1726.44
429.48	1710.05
429.69	1665.00
429.89	1748.97
430.10	1669.09
430.30	1718.25
430.51	1742.82
430.71	1701.86
430.92	1638.38
431.13	1644.52
431.33	1812.45
431.54	1746.92
431.74	1746.92
431.95	1785.83
432.15	1601.51
432.36	1667.05
432.56	1748.97
432.77	1841.12
432.98	1839.08
433.18	1691.62
433.39	1648.61
433.59	1714.15
433.80	1814.50
434.00	1902.56
434.21	1708.01
434.41	1720.29
434.62	1812.45
434.82	1677.29
435.03	1615.85
435.23	1722.34
435.44	1648.61
435.64	1714.15
435.85	1691.62
436.06	1791.97
436.26	1730.53
436.47	1689.57
436.67	1687.53
436.88	1738.73
437.08	1800.16
437.29	1775.59
437.49	1736.68
437.70	1769.44
437.90	1759.21
438.11	1783.78
438.31	1787.88
438.52	1880.04
438.72	1884.13
438.93	1914.85
439.13	1865.70
439.34	1808.36
439.54	1769.44
439.75	1736.68
439.95	1779.68
440.16	1744.87
440.36	1746.92
440.57	1757.16
440.77	1789.92
440.98	1734.63
441.18	1710.05
441.39	1660.90
441.59	1658.85
441.80	1849.32
442.00	1636.33
442.21	1847.27
442.41	1595.37
442.62	1777.64
442.82	1755.11
443.02	1724.39
443.23	1693.67
443.43	1701.86
443.64	1814.50
443.84	1763.30
444.05	1718.25
444.25	1732.58
444.46	1728.49
444.66	1757.16
444.87	1857.51
445.07	1630.18
445.28	1734.63
445.48	1751.01
445.69	1742.82
445.89	1830.88
446.09	1695.72
446.30	2011.11
446.50	2707.41
446.71	3700.68
446.91	4272.06
447.12	4716.47
447.32	4782.01
447.53	4360.13
447.73	3770.31
447.93	3555.27
448.14	3383.24
448.34	3188.69
448.55	2961.36
448.75	2797.53
448.96	2725.85
449.16	2416.60
449.36	2346.97
449.57	2070.50
449.77	1941.47
449.98	1781.73
450.18	1765.35
450.39	1855.46
450.59	1779.68
450.79	1810.40
451.00	1708.01
451.20	1830.88
451.41	1783.78
451.61	1816.55
451.81	1751.01
452.02	1730.53
452.22	1759.21
452.43	1701.86
452.63	1652.71
452.84	1703.91
453.04	1718.25
453.24	1695.72
453.45	1708.01
453.65	1765.35
453.86	1708.01
454.06	1759.21
454.26	1677.29
454.47	1681.38
454.67	1800.16
454.87	1710.05
455.08	1705.96
455.28	1828.84
455.49	1800.16
455.69	1699.81
455.89	1861.60
456.10	1748.97
456.30	1636.33
456.51	1818.60
456.71	1734.63
456.91	1722.34
457.12	1767.40
457.32	1693.67
457.52	1753.06
457.73	1781.73
457.93	1783.78
458.14	1738.73
458.34	1632.23
458.54	1689.57
458.75	1679.33
458.95	1724.39
459.15	1757.16
459.36	1753.06
459.56	1736.68
459.76	1847.27
459.97	1736.68
460.17	1775.59
460.37	1800.16
460.58	1626.09
460.78	1755.11
460.99	1701.86
461.19	1720.29
461.39	1716.20
461.60	1751.01
461.80	1726.44
462.00	1609.70
462.21	1646.57
462.41	1746.92
462.61	1658.85
462.82	1595.37
463.02	1796.07
463.22	1693.67
463.43	1808.36
463.63	1755.11
463.83	1816.55
464.04	1740.77
464.24	1755.11
464.44	1619.94
464.64	1712.10
464.85	1738.73
465.05	1769.44
465.25	1736.68
465.46	1644.52
465.66	1722.34
465.86	1736.68
466.07	1689.57
466.27	1681.38
466.47	1652.71
466.68	1675.24
466.88	1808.36
467.08	1802.21
467.29	1853.41
467.49	1699.81
467.69	1644.52
467.89	1765.35
468.10	1730.53
468.30	1718.25
468.50	1767.40
468.71	1695.72
468.91	1615.85
469.11	1875.94
469.31	1742.82
469.52	1705.96
469.72	1783.78
469.92	1857.51
470.13	1779.68
470.33	1701.86
470.53	1886.18
470.73	2025.44
470.94	2308.06
471.14	2332.64
471.34	2508.76
471.54	2414.56
471.75	2306.01
471.95	2103.26
472.15	2148.32
472.36	2117.60
472.56	2037.73
472.76	2064.35
472.96	1925.09
473.17	1894.37
473.37	1949.67
473.57	1824.74
473.77	1851.36
473.98	1783.78
474.18	1742.82
474.38	1882.08
474.58	1720.29
474.79	1679.33
474.99	1769.44
475.19	1767.40
475.39	1654.76
475.60	1767.40
475.80	1705.96
476.00	1728.49
476.20	1718.25
476.41	1820.64
476.61	1804.26
476.81	1761.25
477.01	1648.61
477.21	1783.78
477.42	1888.23
477.62	1660.90
477.82	1732.58
478.02	1742.82
478.23	1714.15
478.43	1632.23
478.63	1658.85
478.83	1652.71
479.03	1718.25
479.24	1703.91
479.44	1877.99
479.64	1689.57
479.84	1607.66
480.04	1650.66
480.25	1757.16
480.45	1621.99
480.65	1642.47
480.85	1830.88
481.06	1638.38
481.26	1796.07
481.46	1740.77
481.66	1671.14
481.86	1689.57
482.06	1794.02
482.27	1759.21
482.47	1640.42
482.67	1753.06
482.87	1665.00
483.07	1722.34
483.28	1693.67
483.48	1671.14
483.68	1658.85
483.88	1646.57
484.08	1523.69
484.29	1644.52
484.49	1738.73
484.69	1605.61
484.89	1751.01
485.09	1755.11
485.29	1755.11
485.50	1621.99
485.70	1718.25
485.90	1832.93
486.10	1716.20
486.30	1703.91
486.50	1734.63
486.71	1787.88
486.91	1720.29
487.11	1798.12
487.31	1701.86
487.51	1802.21
487.71	1658.85
487.91	1675.24
488.12	1685.48
488.32	1644.52
488.52	1630.18
488.72	1591.27
488.92	1712.10
489.12	1765.35
489.32	1773.54
489.53	1761.25
489.73	1587.18
489.93	1781.73
490.13	1685.48
490.33	1660.90
490.53	1734.63
490.73	1755.11
490.94	1703.91
491.14	1839.08
491.34	1843.17
491.54	2168.80
491.74	2570.20
491.94	2983.89
492.14	3082.19
492.34	2981.84
492.54	2775.00
492.75	2484.19
492.95	2529.24
493.15	2426.84
493.35	2301.92
493.55	2250.72
493.75	2154.46
493.95	2187.23
494.15	1986.53
494.35	1873.89
494.56	1925.09
494.76	1771.49
494.96	1763.30
495.16	1834.98
495.36	1714.15
495.56	1753.06
495.76	1724.39
495.96	1628.14
496.16	1603.56
496.36	1918.95
496.56	1769.44
496.77	1714.15
496.97	1693.67
497.17	1818.60
497.37	1681.38
497.57	1753.06
497.77	1748.97
497.97	1626.09
498.17	1679.33
498.37	1693.67
498.57	1679.33
498.77	1689.57
498.97	1757.16
499.17	1826.79
499.38	1732.58
499.58	1892.32
499.78	1800.16
499.98	1822.69
500.18	1683.43
500.38	1691.62
500.58	1945.57
500.78	2465.75
500.98	4577.21
501.18	5892.01
501.38	6907.80
501.58	7200.66
501.78	6643.61
501.98	5646.25
502.18	4923.32
502.38	4323.26
502.58	4151.23
502.78	3813.32
502.98	3678.15
503.18	3409.87
503.38	3217.36
503.59	2848.72
503.79	2684.89
503.99	2549.72
504.19	2269.15
504.39	2240.48
504.59	2119.65
504.79	2207.71
504.99	2076.64
505.19	1943.52
505.39	1888.23
505.59	1927.14
505.79	1861.60
505.99	1904.61
506.19	1757.16
506.39	1877.99
506.59	1738.73
506.79	1804.26
506.99	1691.62
507.19	1761.25
507.39	1824.74
507.59	1673.19
507.79	1693.67
507.99	1708.01
508.19	1779.68
508.39	1689.57
508.59	1714.15
508.79	1845.22
508.99	1912.80
509.19	1677.29
509.39	1802.21
509.59	1701.86
509.79	1687.53
509.99	1724.39
510.19	1791.97
510.39	1806.31
510.59	1742.82
510.79	1753.06
510.99	1673.19
511.19	1708.01
511.39	1806.31
511.59	1722.34
511.79	1787.88
511.99	1751.01
512.19	1820.64
512.38	1687.53
512.58	1703.91
512.78	1722.34
512.98	1837.03
513.18	1826.79
513.38	1644.52
513.58	1794.02
513.78	1693.67
513.98	1691.62
514.18	1665.00
514.38	1677.29
514.58	1720.29
514.78	1710.05
514.98	1634.28
515.18	1746.92
515.38	1658.85
515.58	1861.60
515.78	1703.91
515.98	1751.01
516.18	1820.64
516.38	1654.76
516.57	1658.85
516.77	1718.25
516.97	1775.59
517.17	1685.48
517.37	1714.15
517.57	1810.40
517.77	1699.81
517.97	1755.11
518.17	1714.15
518.37	1681.38
518.57	1685.48
518.77	1800.16
518.97	1683.43
519.16	1740.77
519.36	1794.02
519.56	1691.62
519.76	1660.90
519.96	1738.73
520.16	1769.44
520.36	1628.14
520.56	1767.40
520.76	1718.25
520.96	1685.48
521.16	1798.12
521.35	1755.11
521.55	1769.44
521.75	1740.77
521.95	1683.43
522.15	1771.49
522.35	1644.52
522.55	1718.25
522.75	1787.88
522.95	1673.19
523.14	1626.09
523.34	1744.87
523.54	1744.87
523.74	1834.98
523.94	1714.15
524.14	1712.10
524.34	1673.19
524.54	1796.07
524.73	1705.96
524.93	1759.21
525.13	1732.58
525.33	1669.09
525.53	1802.21
525.73	1791.97
525.93	1740.77
526.13	1665.00
526.32	1714.15
526.52	1738.73
526.72	1746.92
526.92	1851.36
527.12	1705.96
527.32	1716.20
527.52	1781.73
527.71	1732.58
527.91	1736.68
528.11	1652.71
528.31	1636.33
528.51	1705.96
528.71	1824.74
528.90	1667.05
529.10	1755.11
529.30	1853.41
529.50	1636.33
529.70	1794.02
529.90	1687.53
530.09	1753.06
530.29	1599.46
530.49	1652.71
530.69	1824.74
530.89	1746.92
531.09	1804.26
531.28	1775.59
531.48	1800.16
531.68	1753.06
531.88	1757.16
532.08	1798.12
532.28	1708.01
532.47	1738.73
532.67	1746.92
532.87	1789.92
533.07	1687.53
533.27	1806.31
533.46	1755.11
533.66	1730.53
533.86	1697.77
534.06	1791.97
534.26	1812.45
534.45	1775.59
534.65	1685.48
534.85	1755.11
535.05	1742.82
535.25	1703.91
535.44	1681.38
535.64	1763.30
535.84	1781.73
536.04	1689.57
536.24	1621.99
536.43	1644.52
536.63	1751.01
536.83	1673.19
537.03	1748.97
537.22	1701.86
537.42	1634.28
537.62	1703.91
537.82	1689.57
538.02	1861.60
538.21	1781.73
538.41	1937.38
538.61	1738.73
538.81	1644.52
539.00	1759.21
539.20	1658.85
539.40	1667.05
539.60	1730.53
539.79	1701.86
539.99	1849.32
540.19	1751.01
540.39	1816.55
540.58	1753.06
540.78	1818.60
540.98	1650.66
541.18	1765.35
541.37	1755.11
541.57	1689.57
541.77	1691.62
541.97	1673.19
542.16	1685.48
542.36	1718.25
542.56	1740.77
542.76	1828.84
542.95	1818.60
543.15	1757.16
543.35	1722.34
543.54	1669.09
543.74	1718.25
543.94	1724.39
544.14	1693.67
544.33	1791.97
544.53	1701.86
544.73	1662.95
544.93	1703.91
545.12	1650.66
545.32	1740.77
545.52	1728.49
545.71	1677.29
545.91	1714.15
546.11	1818.60
546.30	1708.01
546.50	1783.78
546.70	1765.35
546.90	1759.21
547.09	1603.56
547.29	1681.38
547.49	1730.53
547.68	1763.30
547.88	1695.72
548.08	1806.31
548.27	2119.65
548.47	1697.77
548.67	1667.05
548.87	1787.88
549.06	1705.96
549.26	1703.91
549.46	1691.62
549.65	1763.30
549.85	1671.14
550.05	1771.49
550.24	1644.52
550.44	1673.19
550.64	1779.68
550.83	1810.40
551.03	1806.31
551.23	1796.07
551.42	1843.17
551.62	1634.28
551.82	1724.39
552.01	1665.00
552.21	1791.97
552.41	1828.84
552.60	1755.11
552.80	1744.87
553.00	1718.25
553.19	1701.86
553.39	1837.03
553.59	1658.85
553.78	1638.38
553.98	1734.63
554.17	1665.00
554.37	1722.34
554.57	1783.78
554.76	1714.15
554.96	1714.15
555.16	1697.77
555.35	1718.25
555.55	1708.01
555.75	1796.07
555.94	1804.26
556.14	1681.38
556.33	1808.36
556.53	1697.77
556.73	1820.64
556.92	1759.21
557.12	1824.74
557.32	1849.32
557.51	1912.80
557.71	1712.10
557.90	1814.50
558.10	1777.64
558.30	1742.82
558.49	1714.15
558.69	1740.77
558.88	1763.30
559.08	1826.79
559.28	1720.29
559.47	1683.43
559.67	1734.63
559.86	1871.84
560.06	1757.16
560.26	1730.53
560.45	1759.21
560.65	1740.77
560.84	1779.68
561.04	1740.77
561.24	1785.83
561.43	1681.38
561.63	1861.60
561.82	1761.25
562.02	1808.36
562.22	1677.29
562.41	1742.82
562.61	1621.99
562.80	1675.24
563.00	1880.04
563.19	1781.73
563.39	1757.16
563.59	1742.82
563.78	1650.66
563.98	1624.04
564.17	1675.24
564.37	1632.23
564.56	1779.68
564.76	1746.92
564.96	1826.79
565.15	1779.68
565.35	1865.70
565.54	1722.34
565.74	1791.97
565.93	1673.19
566.13	1785.83
566.32	1724.39
566.52	1755.11
566.71	1753.06
566.91	1863.65
567.11	1761.25
567.30	1697.77
567.50	1767.40
567.69	1761.25
567.89	1796.07
568.08	1708.01
568.28	1865.70
568.47	1640.42
568.67	1738.73
568.86	1669.09
569.06	1732.58
569.25	1722.34
569.45	1718.25
569.64	1660.90
569.84	1669.09
570.04	1812.45
570.23	1714.15
570.43	1724.39
570.62	1730.53
570.82	1851.36
571.01	1746.92
571.21	1691.62
571.40	1722.34
571.60	1804.26
571.79	1814.50
571.99	1746.92
572.18	1683.43
572.38	1775.59
572.57	1746.92
572.77	1794.02
572.96	1861.60
573.16	1753.06
573.35	1781.73
573.55	1865.70
573.74	1773.54
573.94	1722.34
574.13	1789.92
574.33	1779.68
574.52	1837.03
574.71	1722.34
574.91	1816.55
575.10	1683.43
575.30	1705.96
575.49	1705.96
575.69	1652.71
575.88	1796.07
576.08	1710.05
576.27	1765.35
576.47	1763.30
576.66	1837.03
576.86	1812.45
577.05	1798.12
577.25	1722.34
577.44	1855.46
577.64	1767.40
577.83	1869.80
578.02	1779.68
578.22	1816.55
578.41	1759.21
578.61	1724.39
578.80	1656.81
579.00	1742.82
579.19	1759.21
579.39	1845.22
579.58	1787.88
579.77	1810.40
579.97	1826.79
580.16	1910.75
580.36	1837.03
580.55	1765.35
580.75	1744.87
580.94	1708.01
581.13	1927.14
581.33	1875.94
581.52	1679.33
581.72	1869.80
581.91	1826.79
582.11	1732.58
582.30	1845.22
582.49	1736.68
582.69	1886.18
582.88	1767.40
583.08	1726.44
583.27	1798.12
583.47	1769.44
583.66	1695.72
583.85	1648.61
584.05	1679.33
584.24	1794.02
584.44	1734.63
584.63	1849.32
584.82	1779.68
585.02	1773.54
585.21	1748.97
585.41	1771.49
585.60	1755.11
585.79	1904.61
585.99	1961.95
586.18	1865.70
586.37	2176.99
586.57	3362.76
586.76	9891.69
586.96	24899.20
587.15	34625.01
587.34	40873.36
587.54	42917.23
587.73	37600.71
587.93	26898.02
588.12	22038.19
588.31	18521.83
588.51	16703.23
588.70	15312.66
588.89	14493.47
589.09	12748.61
589.28	11126.61
589.47	9635.69
589.67	8163.20
589.86	6641.56
590.06	5072.82
590.25	3921.86
590.44	3137.49
590.64	2650.07
590.83	2351.07
591.02	2115.55
591.22	1968.10
591.41	1941.47
591.60	1896.42
591.80	1955.81
591.99	1699.81
592.18	1773.54
592.38	1894.37
592.57	1744.87
592.76	1841.12
592.96	1765.35
593.15	1734.63
593.34	1822.69
593.54	1753.06
593.73	1812.45
593.92	1841.12
594.12	1812.45
594.31	1730.53
594.50	1791.97
594.70	1791.97
594.89	1894.37
595.08	1626.09
595.28	1806.31
595.47	1877.99
595.66	1839.08
595.86	1671.14
596.05	1732.58
596.24	1806.31
596.43	1867.75
596.63	1748.97
596.82	1740.77
597.01	1830.88
597.21	1804.26
597.40	1771.49
597.59	1652.71
597.79	1732.58
597.98	1730.53
598.17	1771.49
598.36	1748.97
598.56	1736.68
598.75	1705.96
598.94	1720.29
599.14	1748.97
599.33	1695.72
599.52	1839.08
599.71	1740.77
599.91	1714.15
600.10	1791.97
600.29	1703.91
600.48	1740.77
600.68	1832.93
600.87	1718.25
601.06	1665.00
601.26	1740.77
601.45	1746.92
601.64	1705.96
601.83	1763.30
602.03	1648.61
602.22	1673.19
602.41	1822.69
602.60	1894.37
602.80	1794.02
602.99	1761.25
603.18	1675.24
603.37	1757.16
603.57	1730.53
603.76	1843.17
603.95	1751.01
604.14	1665.00
604.34	1687.53
604.53	1740.77
604.72	1777.64
604.91	1732.58
605.10	1726.44
605.30	1751.01
605.49	1837.03
605.68	1728.49
605.87	1720.29
606.07	1660.90
606.26	1718.25
606.45	1734.63
606.64	1738.73
606.84	1705.96
607.03	1705.96
607.22	1755.11
607.41	1648.61
607.60	1761.25
607.80	1734.63
607.99	1763.30
608.18	1736.68
608.37	1716.20
608.56	1705.96
608.76	1855.46
608.95	1832.93
609.14	1703.91
609.33	1804.26
609.52	1779.68
609.72	1712.10
609.91	1751.01
610.10	1791.97
610.29	1814.50
610.48	1748.97
610.68	1740.77
610.87	1767.40
611.06	1791.97
611.25	1701.86
611.44	1773.54
611.63	1705.96
611.83	1808.36
612.02	1726.44
612.21	1785.83
612.40	1685.48
612.59	1665.00
612.79	1677.29
612.98	1699.81
613.17	1845.22
613.36	1757.16
613.55	1753.06
613.74	1667.05
613.93	1660.90
614.13	1714.15
614.32	1746.92
614.51	1755.11
614.70	1658.85
614.89	1699.81
615.08	1751.01
615.28	2131.94
615.47	1669.09
615.66	1730.53
615.85	1808.36
616.04	1775.59
616.23	1763.30
616.42	1701.86
616.62	1751.01
616.81	1718.25
617.00	1699.81
617.19	1755.11
617.38	1632.23
617.57	1757.16
617.76	1761.25
617.95	1693.67
618.15	1830.88
618.34	1800.16
618.53	1665.00
618.72	1722.34
618.91	1783.78
619.10	1859.56
619.29	1712.10
619.48	1656.81
619.68	1632.23
619.87	1681.38
620.06	1665.00
620.25	1738.73
620.44	1724.39
620.63	1703.91
620.82	1703.91
621.01	1714.15
621.20	1677.29
621.39	1701.86
621.59	1763.30
621.78	1726.44
621.97	1759.21
622.16	1818.60
622.35	1665.00
622.54	1742.82
622.73	1845.22
622.92	1714.15
623.11	1800.16
623.30	1638.38
623.49	1722.34
623.68	1654.76
623.88	1755.11
624.07	1716.20
624.26	1804.26
624.45	1720.29
624.64	1689.57
624.83	1787.88
625.02	1767.40
625.21	1726.44
625.40	1755.11
625.59	1796.07
625.78	1691.62
625.97	1722.34
626.16	1824.74
626.35	1675.24
626.54	1740.77
626.74	1740.77
626.93	1646.57
627.12	1716.20
627.31	1769.44
627.50	1722.34
627.69	1726.44
627.88	1722.34
628.07	1638.38
628.26	1630.18
628.45	1640.42
628.64	1656.81
628.83	1746.92
629.02	1626.09
629.21	1757.16
629.40	1798.12
629.59	1699.81
629.78	1673.19
629.97	1652.71
630.16	1697.77
630.35	1624.04
630.54	1734.63
630.73	1751.01
630.92	1730.53
631.11	1691.62
631.30	1800.16
631.49	1800.16
631.68	1685.48
631.87	1796.07
632.06	1581.03
632.25	1886.18
632.44	1703.91
632.63	1775.59
632.82	1669.09
633.01	1648.61
633.20	1738.73
633.39	1673.19
633.58	1599.46
633.77	1705.96
633.96	1703.91
634.15	1730.53
634.34	1753.06
634.53	1703.91
634.72	1720.29
634.91	1660.90
635.10	1759.21
635.29	1753.06
635.48	1712.10
635.67	1705.96
635.86	1591.27
636.05	1730.53
636.24	1751.01
636.43	1705.96
636.62	1787.88
636.81	1648.61
637.00	1755.11
637.19	1746.92
637.38	1734.63
637.57	1722.34
637.76	1734.63
637.95	1658.85
638.14	1683.43
638.33	1697.77
638.52	1677.29
638.71	1724.39
638.89	1628.14
639.08	1886.18
639.27	1769.44
639.46	1636.33
639.65	1751.01
639.84	1695.72
640.03	1773.54
640.22	1779.68
640.41	1802.21
640.60	1724.39
640.79	1798.12
640.98	1689.57
641.17	1705.96
641.36	1679.33
641.55	1759.21
641.74	1660.90
641.92	1646.57
642.11	1689.57
642.30	1699.81
642.49	1703.91
642.68	1599.46
642.87	1787.88
643.06	1658.85
643.25	1644.52
643.44	1632.23
643.63	1736.68
643.82	1724.39
644.00	1681.38
644.19	1636.33
644.38	1712.10
644.57	1779.68
644.76	1689.57
644.95	1697.77
645.14	1757.16
645.33	1767.40
645.52	1675.24
645.71	1714.15
645.89	1630.18
646.08	1687.53
646.27	1693.67
646.46	1830.88
646.65	1681.38
646.84	1763.30
647.03	1714.15
647.22	1757.16
647.40	1779.68
647.59	1722.34
647.78	1660.90
647.97	1597.42
648.16	1617.90
648.35	1767.40
648.54	1808.36
648.73	1673.19
648.91	1710.05
649.10	1695.72
649.29	1615.85
649.48	1691.62
649.67	1775.59
649.86	1667.05
650.05	1669.09
650.23	1720.29
650.42	1677.29
650.61	1701.86
650.80	1757.16
650.99	1812.45
651.18	1777.64
651.36	1773.54
651.55	1634.28
651.74	1771.49
651.93	1619.94
652.12	1728.49
652.31	1777.64
652.49	1705.96
652.68	1742.82
652.87	1783.78
653.06	1648.61
653.25	1837.03
653.44	1644.52
653.62	1730.53
653.81	1712.10
654.00	1699.81
654.19	1746.92
654.38	1890.28
654.56	1705.96
654.75	1726.44
654.94	1753.06
655.13	1718.25
655.32	1769.44
655.51	1728.49
655.69	1689.57
655.88	1812.45
656.07	1673.19
656.26	1779.68
656.45	1611.75
656.63	1638.38
656.82	1748.97
657.01	1765.35
657.20	1683.43
657.38	1796.07
657.57	1576.94
657.76	1599.46
657.95	1794.02
658.14	1621.99
658.32	1755.11
658.51	1595.37
658.70	1673.19
658.89	1730.53
659.08	1695.72
659.26	1787.88
659.45	1714.15
659.64	1730.53
659.83	1656.81
660.01	1871.84
660.20	1728.49
660.39	1765.35
660.58	1648.61
660.76	1804.26
660.95	1712.10
661.14	1658.85
661.33	1673.19
661.51	1683.43
661.70	1730.53
661.89	1753.06
662.08	1724.39
662.26	1619.94
662.45	1681.38
662.64	1814.50
662.83	1738.73
663.01	1626.09
663.20	1710.05
663.39	1755.11
663.58	1716.20
663.76	1736.68
663.95	1732.58
664.14	1710.05
664.32	1589.22
664.51	1691.62
664.70	1658.85
664.89	1734.63
665.07	1599.46
665.26	1779.68
665.45	1611.75
665.64	1705.96
665.82	1738.73
666.01	1798.12
666.20	1693.67
666.38	1779.68
666.57	1808.36
666.76	2224.09
666.95	4593.59
667.13	10446.69
667.32	15568.66
667.51	17991.41
667.69	19377.88
667.88	17936.11
668.07	12676.93
668.25	9570.16
668.44	8286.08
668.63	7456.65
668.81	6872.98
669.00	6301.60
669.19	5762.98
669.38	5132.21
669.56	4671.42
669.75	4007.87
669.94	3635.14
670.12	2983.89
670.31	2576.34
670.50	2279.39
670.68	2058.21
670.87	1929.19
671.06	1759.21
671.24	1769.44
671.43	1882.08
671.62	1691.62
671.80	1783.78
671.99	1718.25
672.18	1738.73
672.36	1736.68
672.55	1697.77
672.74	1787.88
672.92	1724.39
673.11	1724.39
673.29	1632.23
673.48	1789.92
673.67	1644.52
673.85	1767.40
674.04	1697.77
674.23	1712.10
674.41	1814.50
674.60	1751.01
674.79	1636.33
674.97	1734.63
675.16	1826.79
675.34	1730.53
675.53	1699.81
675.72	1716.20
675.90	1724.39
676.09	1615.85
676.28	1730.53
676.46	1621.99
676.65	1697.77
676.83	1683.43
677.02	1642.47
677.21	1667.05
677.39	1730.53
677.58	1714.15
677.77	1658.85
677.95	1656.81
678.14	1705.96
678.32	1720.29
678.51	1617.90
678.70	1914.85
678.88	1617.90
679.07	1703.91
679.25	1705.96
679.44	1798.12
679.63	1634.28
679.81	1746.92
680.00	1767.40
680.18	1802.21
680.37	1796.07
680.55	1718.25
680.74	1691.62
680.93	1650.66
681.11	1720.29
681.30	1748.97
681.48	1734.63
681.67	1734.63
681.85	1687.53
682.04	1656.81
682.23	1789.92
682.41	1714.15
682.60	1722.34
682.78	1716.20
682.97	1652.71
683.15	1697.77
683.34	1689.57
683.53	1775.59
683.71	1611.75
683.90	1783.78
684.08	1771.49
684.27	1761.25
684.45	1746.92
684.64	1789.92
684.82	1806.31
685.01	1685.48
685.19	1800.16
685.38	1746.92
685.57	1783.78
685.75	1660.90
685.94	1732.58
686.12	1722.34
686.31	1763.30
686.49	1863.65
686.68	1617.90
686.86	1765.35
687.05	1697.77
687.23	1789.92
687.42	1693.67
687.60	1699.81
687.79	1753.06
687.97	1738.73
688.16	1812.45
688.34	1806.31
688.53	1621.99
688.71	1683.43
688.90	1742.82
689.08	1726.44
689.27	1646.57
689.45	1658.85
689.64	1662.95
689.82	1710.05
690.01	1687.53
690.19	1744.87
690.38	1761.25
690.56	1857.51
690.75	1589.22
690.93	1724.39
691.12	1738.73
691.30	1691.62
691.49	1712.10
691.67	1712.10
691.86	1775.59
692.04	1632.23
692.23	1697.77
692.41	1718.25
692.60	1775.59
692.78	1726.44
692.97	1619.94
693.15	1796.07
693.34	1757.16
693.52	1746.92
693.71	1710.05
693.89	1738.73
694.08	1589.22
694.26	1800.16
694.44	1828.84
694.63	1730.53
694.81	1603.56
695.00	1619.94
695.18	1761.25
695.37	1841.12
695.55	1673.19
695.74	1701.86
695.92	1681.38
696.10	1765.35
696.29	1658.85
696.47	1644.52
696.66	1562.60
696.84	1621.99
697.03	1691.62
697.21	1785.83
697.40	2312.16
697.58	1771.49
697.76	1644.52
697.95	1654.76
698.13	1642.47
698.32	1658.85
698.50	1652.71
698.68	1724.39
698.87	1691.62
699.05	1830.88
699.24	1736.68
699.42	1693.67
699.61	1728.49
699.79	1751.01
699.97	1740.77
700.16	1660.90
700.34	1665.00
700.53	1667.05
700.71	1785.83
700.89	1697.77
701.08	1724.39
701.26	1689.57
701.45	2066.40
701.63	1744.87
701.81	1667.05
702.00	1665.00
702.18	1632.23
702.37	1685.48
702.55	1740.77
702.73	1673.19
702.92	1699.81
703.10	1716.20
703.28	1691.62
703.47	1683.43
703.65	1775.59
703.84	1794.02
704.02	1755.11
704.20	1736.68
704.39	1689.57
704.57	1677.29
704.75	1775.59
704.94	1867.75
705.12	1705.96
705.30	1763.30
705.49	2222.05
705.67	4472.76
705.86	9576.30
706.04	13027.13
706.22	14786.33
706.41	15574.80
706.59	13883.18
706.77	9625.45
706.96	7520.14
707.14	6604.70
707.32	6109.09
707.51	5527.47
707.69	4927.41
707.87	4247.49
708.06	3585.99
708.24	3067.86
708.42	2486.23
708.61	2265.05
708.79	1935.33
708.97	1935.33
709.16	1783.78
709.34	1804.26
709.52	1710.05
709.71	1734.63
709.89	1826.79
710.07	1648.61
710.26	1796.07
710.44	1771.49
710.62	1738.73
710.80	1683.43
710.99	1763.30
711.17	1710.05
711.35	1648.61
711.54	1665.00
711.72	1751.01
711.90	1722.34
712.09	1705.96
712.27	1650.66
712.45	1669.09
712.63	1728.49
712.82	1662.95
713.00	1671.14
713.18	1763.30
713.37	1738.73
713.55	1693.67
713.73	1732.58
713.91	1785.83
714.10	1763.30
714.28	1714.15
714.46	1695.72
714.65	1718.25
714.83	1687.53
715.01	1722.34
715.19	1701.86
715.38	1679.33
715.56	1785.83
715.74	1693.67
715.92	1638.38
716.11	1796.07
716.29	1673.19
716.47	1693.67
716.65	1724.39
716.84	1624.04
717.02	1818.60
717.20	1599.46
717.38	1681.38
717.57	1648.61
717.75	1714.15
717.93	1726.44
718.11	1730.53
718.30	1634.28
718.48	1718.25
718.66	1755.11
718.84	1730.53
719.03	1703.91
719.21	1578.98
719.39	1832.93
719.57	1738.73
719.75	1701.86
719.94	1626.09
720.12	1652.71
720.30	1798.12
720.48	1759.21
720.67	1697.77
720.85	1632.23
721.03	1708.01
721.21	1755.11
721.39	1828.84
721.58	1724.39
721.76	1667.05
721.94	1667.05
722.12	1691.62
722.30	1683.43
722.49	1734.63
722.67	1677.29
722.85	1722.34
723.03	1597.42
723.21	1685.48
723.40	1726.44
723.58	1742.82
723.76	1736.68
723.94	1742.82
724.12	1767.40
724.30	1697.77
724.49	1695.72
724.67	1624.04
724.85	1681.38
725.03	1615.85
725.21	1740.77
725.40	1808.36
725.58	1646.57
725.76	1796.07
725.94	1693.67
726.12	1658.85
726.30	1703.91
726.49	1710.05
726.67	1624.04
726.85	1669.09
727.03	1791.97
727.21	2179.04
727.39	2912.21
727.57	3788.74
727.76	4229.06
727.94	4622.27
728.12	4456.38
728.30	3704.78
728.48	2992.08
728.66	2863.06
728.84	2609.11
729.03	2330.59
729.21	2279.39
729.39	1992.67
729.57	1837.03
729.75	1847.27
729.93	1845.22
730.11	1751.01
730.30	1701.86
730.48	1753.06
730.66	1775.59
730.84	1755.11
731.02	1740.77
731.20	1712.10
731.38	1710.05
731.56	1730.53
731.74	1681.38
731.93	1732.58
732.11	1697.77
732.29	1644.52
732.47	1744.87
732.65	1689.57
732.83	1763.30
733.01	1722.34
733.19	1646.57
733.37	1728.49
733.56	1748.97
733.74	1667.05
733.92	1800.16
734.10	1685.48
734.28	1720.29
734.46	1617.90
734.64	1648.61
734.82	1630.18
735.00	1660.90
735.18	1656.81
735.36	1787.88
735.54	1656.81
735.73	1708.01
735.91	1751.01
736.09	1683.43
736.27	1681.38
736.45	1804.26
736.63	1693.67
736.81	1652.71
736.99	1777.64
737.17	1748.97
737.35	1757.16
737.53	1771.49
737.71	1665.00
737.89	1814.50
738.07	1748.97
738.25	1673.19
738.43	1683.43
738.61	1695.72
738.80	1646.57
738.98	1646.57
739.16	1712.10
739.34	1589.22
739.52	1724.39
739.70	1667.05
739.88	1806.31
740.06	1720.29
740.24	1626.09
740.42	1822.69
740.60	1583.08
740.78	1718.25
740.96	1699.81
741.14	1656.81
741.32	1775.59
741.50	1624.04
741.68	1837.03
741.86	1800.16
742.04	1673.19
742.22	1642.47
742.40	1738.73
742.58	1732.58
742.76	1675.24
742.94	1789.92
743.12	1656.81
743.30	1771.49
743.48	1751.01
743.66	1611.75
743.84	1708.01
744.02	1673.19
744.20	1699.81
744.38	1640.42
744.56	1710.05
744.74	1742.82
744.92	1712.10
745.10	1867.75
745.28	1755.11
745.46	1849.32
745.64	1660.90
745.82	1759.21
746.00	1636.33
746.18	1810.40
746.36	1673.19
746.54	1773.54
746.72	1732.58
746.90	1599.46
747.08	1771.49
747.26	1660.90
747.44	1751.01
747.62	1683.43
747.80	1736.68
747.98	1771.49
748.15	1650.66
748.33	1730.53
748.51	1677.29
748.69	1714.15
748.87	1722.34
749.05	1693.67
749.23	1609.70
749.41	1689.57
749.59	1685.48
749.77	1804.26
749.95	1673.19
750.13	1669.09
750.31	1781.73
750.49	1609.70
750.67	1785.83
750.85	1804.26
751.03	1720.29
751.20	1812.45
751.38	1710.05
751.56	1640.42
751.74	1759.21
751.92	1665.00
752.10	1621.99
752.28	1769.44
752.46	1705.96
752.64	1673.19
752.82	1638.38
753.00	1779.68
753.18	1689.57
753.35	1699.81
753.53	1705.96
753.71	1681.38
753.89	1748.97
754.07	1718.25
754.25	1705.96
754.43	1763.30
754.61	1632.23
754.79	1693.67
754.97	1730.53
755.14	1759.21
755.32	1611.75
755.50	1722.34
755.68	1740.77
755.86	1624.04
756.04	1658.85
756.22	1636.33
756.40	1705.96
756.57	1849.32
756.75	1687.53
756.93	1726.44
757.11	1787.88
757.29	1632.23
757.47	1607.66
757.65	1648.61
757.82	1624.04
758.00	1665.00
758.18	1744.87
758.36	1736.68
758.54	1732.58
758.72	1654.76
758.90	1824.74
759.07	1722.34
759.25	1574.89
759.43	1740.77
759.61	1619.94
759.79	2242.53
759.97	1800.16
760.15	1662.95
760.32	1697.77
760.50	1714.15
760.68	1765.35
760.86	1566.70
761.04	1794.02
761.22	1787.88
761.39	1761.25
761.57	1753.06
761.75	1652.71
761.93	1650.66
762.11	1697.77
762.28	1658.85
762.46	1724.39
762.64	1757.16
762.82	1652.71
763.00	1701.86
763.18	1757.16
763.35	1669.09
763.53	1710.05
763.71	1669.09
763.89	1683.43
764.07	1710.05
764.24	1677.29
764.42	1767.40
764.60	1677.29
764.78	1757.16
764.96	1705.96
765.13	1730.53
765.31	1681.38
765.49	1828.84
765.67	1638.38
765.84	1611.75
766.02	1656.81
766.20	1621.99
766.38	1791.97
766.56	1732.58
766.73	1730.53
766.91	1708.01
767.09	1640.42
767.27	1689.57
767.44	1624.04
767.62	1722.34
767.80	1755.11
767.98	1720.29
768.15	1656.81
768.33	1791.97
768.51	1732.58
768.69	1771.49
768.87	1767.40
769.04	1648.61
769.22	1839.08
769.40	1818.60
769.58	1830.88
769.75	1734.63
769.93	1761.25
770.11	1673.19
770.28	1652.71
770.46	1705.96
770.64	1783.78
770.82	1755.11
770.99	1697.77
771.17	1777.64
771.35	1697.77
771.53	1658.85
771.70	1714.15
771.88	1632.23
772.06	1687.53
772.23	1765.35
772.41	1716.20
772.59	1683.43
772.77	1644.52
772.94	1693.67
773.12	1736.68
773.30	1677.29
773.47	1716.20
773.65	1679.33
773.83	1781.73
774.01	1753.06
774.18	1609.70
774.36	1736.68
774.54	1650.66
774.71	1722.34
774.89	1497.07
775.07	1685.48
775.24	1685.48
775.42	1794.02
775.60	1757.16
775.78	1687.53
775.95	1644.52
776.13	1642.47
776.31	1568.74
776.48	1689.57
776.66	1710.05
776.84	1708.01
777.01	1640.42
777.19	1669.09
777.37	1658.85
777.54	1759.21
777.72	1791.97
777.90	1767.40
778.07	1603.56
778.25	1834.98
778.43	1699.81
778.60	1654.76
778.78	1728.49
778.96	1791.97
779.13	1634.28
779.31	1708.01
779.49	1675.24
779.66	1757.16
779.84	1667.05
780.01	1658.85
780.19	1632.23
780.37	1728.49
780.54	1775.59
780.72	1583.08
780.90	1730.53
781.07	1673.19
781.25	1675.24
781.43	1763.30
781.60	1654.76
781.78	1699.81
781.95	1732.58
782.13	1703.91
782.31	1607.66
782.48	1570.79
782.66	1710.05
782.83	1787.88
783.01	1705.96
783.19	1728.49
783.36	1632.23
783.54	1691.62
783.72	1769.44
783.89	1634.28
784.07	1677.29
784.24	1767.40
784.42	1839.08
784.60	1787.88
784.77	1710.05
784.95	1632.23
785.12	1605.61
785.30	1679.33
785.47	1691.62
785.65	1703.91
785.83	1714.15
786.00	1677.29
786.18	1718.25
786.35	1658.85
786.53	1656.81
786.71	1695.72
786.88	1787.88
787.06	1703.91
787.23	1648.61
787.41	1558.50
787.58	1691.62
787.76	1617.90
787.94	1677.29
788.11	1662.95
788.29	1730.53
788.46	1673.19
788.64	1701.86
788.81	1724.39
788.99	1691.62
789.16	1617.90
789.34	1705.96
789.52	1675.24
789.69	1558.50
789.87	1587.18
790.04	1763.30
790.22	1693.67
790.39	1787.88
790.57	1652.71
790.74	1605.61
790.92	1748.97
791.09	1634.28
791.27	1701.86
791.44	1785.83
791.62	1710.05
791.79	1730.53
791.97	1683.43
792.15	1884.13
792.32	1718.25
792.50	1724.39
792.67	1755.11
792.85	1781.73
793.02	1775.59
793.20	1701.86
793.37	1669.09
793.55	1658.85
793.72	1578.98
793.90	1843.17
794.07	1654.76
794.25	1716.20
794.42	1734.63
794.60	1638.38
794.77	1839.08
794.95	1732.58
795.12	1740.77
795.30	1675.24
795.47	1613.80
795.65	1839.08
795.82	1718.25
796.00	1712.10
796.17	1681.38
796.34	1609.70
796.52	1732.58
796.69	1755.11
796.87	1773.54
797.04	1742.82
797.22	1746.92
797.39	1740.77
797.57	1763.30
797.74	1640.42
797.92	1673.19
798.09	1613.80
798.27	1853.41
798.44	1712.10
798.62	1617.90
798.79	1720.29
798.96	1757.16
799.14	1642.47
799.31	1863.65
799.49	1685.48
799.66	1603.56
799.84	1638.38
800.01	1660.90
800.19	1726.44
800.36	1593.32
800.53	1763.30
800.71	1671.14
800.88	1765.35
801.06	1683.43
801.23	1691.62
801.41	1734.63
801.58	1611.75
801.75	1669.09
801.93	1759.21
802.10	1740.77
802.28	1712.10
802.45	1660.90
802.63	1763.30
802.80	1748.97
802.97	1693.67
803.15	1669.09
803.32	1640.42
803.50	1683.43
803.67	1667.05
803.84	1671.14
804.02	1728.49
804.19	1679.33
804.37	1583.08
804.54	1619.94
804.71	1701.86
804.89	1693.67
805.06	1665.00
805.24	1658.85
805.41	1644.52
805.58	1589.22
805.76	1726.44
805.93	1738.73
806.10	1755.11
806.28	1751.01
806.45	1740.77
806.63	1650.66
806.80	1732.58
806.97	1667.05
807.15	1699.81
807.32	1746.92
807.49	1757.16
807.67	1595.37
807.84	1677.29
808.01	1679.33
808.19	1751.01
808.36	1806.31
808.54	1660.90
808.71	1701.86
808.88	1714.15
809.06	1771.49
809.23	1740.77
809.40	1634.28
809.58	1705.96
809.75	1648.61
809.92	1603.56
810.10	1818.60
810.27	1734.63
810.44	1677.29
810.62	1744.87
810.79	1687.53
810.96	1656.81
811.14	1671.14
811.31	1773.54
811.48	1730.53
811.66	1767.40
811.83	1759.21
812.00	1728.49
812.18	1712.10
812.35	1830.88
812.52	1673.19
812.69	1675.24
812.87	1667.05
813.04	1685.48
813.21	1697.77
813.39	1628.14
813.56	1615.85
813.73	1714.15
813.91	1630.18
814.08	1677.29
814.25	1716.20
814.42	1597.42
814.60	1656.81
814.77	1632.23
814.94	1691.62
815.12	1773.54
815.29	1791.97
815.46	1628.14
815.63	1695.72
815.81	1705.96
815.98	1691.62
816.15	1714.15
816.33	1665.00
816.50	1615.85
816.67	1710.05
816.84	1679.33
817.02	1597.42
817.19	1675.24
817.36	1787.88
817.53	1816.55
817.71	1617.90
817.88	1734.63
818.05	1691.62
818.22	1640.42
818.40	1826.79
818.57	1646.57
818.74	1665.00
818.91	1712.10
819.09	1736.68
819.26	1703.91
819.43	1644.52
819.60	1689.57
819.78	1714.15
819.95	1785.83
820.12	1671.14
820.29	1843.17
820.47	1740.77
820.64	1673.19
820.81	1665.00
820.98	1587.18
821.15	1677.29
821.33	1789.92
821.50	1597.42
821.67	1753.06
821.84	1667.05
822.02	1724.39
822.19	1726.44
822.36	1599.46
822.53	1689.57
822.70	1574.89
822.88	1665.00
823.05	1769.44
823.22	1757.16
823.39	1667.05
823.56	1777.64
823.74	1769.44
823.91	1650.66
824.08	1595.37
824.25	1673.19
824.42	1806.31
824.60	1730.53
824.77	1757.16
824.94	1640.42
825.11	1728.49
825.28	1654.76
825.45	1697.77
825.63	1607.66
825.80	1673.19
825.97	1746.92
826.14	1775.59
826.31	1685.48
826.48	1732.58
826.66	1648.61
826.83	1656.81
827.00	1697.77
827.17	1679.33
827.34	1726.44
827.51	1673.19
827.69	1714.15
827.86	1617.90
828.03	1738.73
828.20	1755.11
828.37	1640.42
828.54	1708.01
828.71	1689.57
828.89	1771.49
829.06	1648.61
829.23	1757.16
829.40	1677.29
829.57	1673.19
829.74	1757.16
829.91	1609.70
830.09	1712.10
830.26	1757.16
830.43	1787.88
830.60	1648.61
830.77	1757.16
830.94	1789.92
831.11	1734.63
831.28	1740.77
831.46	1722.34
831.63	1714.15
831.80	1734.63
831.97	1634.28
832.14	1699.81
832.31	1710.05
832.48	1681.38
832.65	1722.34
832.82	1679.33
832.99	1695.72
833.17	1626.09
833.34	1820.64
833.51	1708.01
833.68	1652.71
833.85	1806.31
834.02	1658.85
834.19	1611.75
834.36	1687.53
834.53	1744.87
834.70	1777.64
834.87	1765.35
835.04	1665.00
835.22	1697.77
835.39	1644.52
835.56	1654.76
835.73	1705.96
835.90	1738.73
836.07	1632.23
836.24	1820.64
836.41	1656.81
836.58	1658.85
836.75	1734.63
836.92	1697.77
837.09	1716.20
837.26	1742.82
837.43	1681.38
837.60	1669.09
837.77	1656.81
837.94	1773.54
838.12	1775.59
838.29	1703.91
838.46	1597.42
838.63	1638.38
838.80	1757.16
838.97	1740.77
839.14	1787.88
839.31	1720.29
839.48	1718.25
839.65	1675.24
839.82	1779.68
839.99	1699.81
840.16	1689.57
840.33	1648.61
840.50	1757.16
840.67	1650.66
840.84	1533.93
841.01	1748.97
841.18	1624.04
841.35	1761.25
841.52	1759.21
841.69	1828.84
841.86	1642.47
842.03	1697.77
842.20	1708.01
842.37	1771.49
842.54	1732.58
842.71	1716.20
842.88	1615.85
843.05	1716.20
843.22	1726.44
843.39	1728.49
843.56	1671.14
843.73	1742.82
843.90	1710.05
844.07	1691.62
844.24	1812.45
844.41	1748.97
844.58	1720.29
844.75	1708.01
844.92	1789.92
845.09	1685.48
845.26	1665.00
845.43	1757.16
845.60	1603.56
845.77	1679.33
845.94	1777.64
846.10	1787.88
846.27	1578.98
846.44	1673.19
846.61	1607.66
846.78	1716.20
846.95	1734.63
847.12	1669.09
847.29	1716.20
847.46	1658.85
847.63	1679.33
847.80	1652.71
847.97	1677.29
848.14	1828.84
848.31	1681.38
848.48	1677.29
848.65	1652.71
848.82	1646.57
848.98	1804.26
849.15	1761.25
849.32	1763.30
849.49	1759.21
849.66	1605.61
849.83	1693.67
850.00	1624.04
850.17	1697.77
850.34	1675.24
850.51	1658.85
850.68	1583.08
850.85	1794.02
851.01	1732.58
851.18	1705.96
851.35	1689.57
851.52	1732.58
851.69	1804.26
851.86	1617.90
852.03	1695.72
852.20	1789.92
852.37	1677.29
852.53	1630.18
852.70	1710.05
852.87	1699.81
853.04	1718.25
853.21	1751.01
853.38	1761.25
853.55	1781.73
853.72	1744.87
853.89	1656.81
854.05	1624.04
854.22	1699.81
854.39	1656.81
854.56	1710.05
854.73	1812.45
854.90	1662.95
855.07	1720.29
855.23	1646.57
855.40	1669.09
855.57	1679.33
855.74	1587.18
855.91	1845.22
856.08	1638.38
856.25	1667.05
856.41	1667.05
856.58	1648.61
856.75	1751.01
856.92	1538.02
857.09	1738.73
857.26	1654.76
857.42	1755.11
857.59	1722.34
857.76	1734.63
857.93	1662.95
858.10	1705.96
858.27	1677.29
858.43	1714.15
858.60	1621.99
858.77	1650.66
858.94	1683.43
859.11	1726.44
859.27	1626.09
859.44	1736.68
859.61	1773.54
859.78	1730.53
859.95	1646.57
860.12	1679.33
860.28	1773.54
860.45	1800.16
860.62	1695.72
860.79	1708.01
860.95	1703.91
861.12	1699.81
861.29	1681.38
861.46	1642.47
861.63	1677.29
861.79	1726.44
861.96	1650.66
862.13	1705.96
862.30	1779.68
862.47	1652.71
862.63	1665.00
862.80	1755.11
862.97	1710.05
863.14	1630.18
863.30	1691.62
863.47	1691.62
863.64	1820.64
863.81	1679.33
863.97	1646.57
864.14	1716.20
864.31	1660.90
864.48	1640.42
864.65	1617.90
864.81	1761.25
864.98	1730.53
865.15	1732.58
865.32	1753.06
865.48	1771.49
865.65	1816.55
865.82	1681.38
865.98	1640.42
866.15	1726.44
866.32	1701.86
866.49	1691.62
866.65	1834.98
866.82	1716.20
866.99	1675.24
867.16	1660.90
867.32	1617.90
867.49	1689.57
867.66	1740.77
867.83	1654.76
867.99	1718.25
868.16	1703.91
868.33	1640.42
868.49	1714.15
868.66	1626.09
868.83	1728.49
868.99	1714.15
869.16	1794.02
869.33	1798.12
869.50	1699.81
869.66	1701.86
869.83	1667.05
870.00	1591.27
870.16	1683.43
870.33	1667.05
870.50	1728.49
870.66	1693.67
870.83	1779.68
871.00	1734.63
871.17	1642.47
871.33	1701.86
871.50	1697.77
871.67	1675.24
871.83	1681.38
872.00	1808.36
872.17	1699.81
872.33	1738.73
872.50	1716.20
872.67	1679.33
872.83	1701.86
873.00	1679.33
873.17	1716.20
873.33	1720.29
873.50	1740.77
873.67	1619.94
873.83	1646.57
874.00	1710.05
874.16	1742.82
874.33	1712.10
874.50	1615.85
874.66	1761.25
874.83	1730.53
875.00	1755.11
875.16	1787.88
875.33	1757.16
875.50	1595.37
875.66	1697.77
875.83	1644.52
875.99	1759.21
876.16	1667.05
876.33	1654.76
876.49	1607.66
876.66	1705.96
876.83	1701.86
876.99	1644.52
877.16	1740.77
877.32	1677.29
877.49	1673.19
877.66	1765.35
877.82	1689.57
877.99	1738.73
878.15	1742.82
878.32	1665.00
878.49	1755.11
878.65	1660.90
878.82	1822.69
878.98	1648.61
879.15	1751.01
879.32	1759.21
879.48	1714.15
879.65	1683.43
879.81	1683.43
879.98	1638.38
880.15	1658.85
880.31	1695.72
880.48	1642.47
880.64	1759.21
880.81	1773.54
880.97	1703.91
881.14	1751.01
881.31	1652.71
881.47	1828.84
881.64	1746.92
881.80	1640.42
881.97	1726.44
882.13	1710.05
882.30	1630.18
882.47	1718.25
882.63	1722.34
882.80	1642.47
882.96	1685.48
883.13	1775.59
883.29	1705.96
883.46	1679.33
883.62	1755.11
883.79	1624.04
883.95	1701.86
884.12	1652.71
884.29	1775.59
884.45	1716.20
884.62	1697.77
884.78	1644.52
884.95	1828.84
885.11	1603.56
885.28	1710.05
885.44	1693.67
885.61	1718.25
885.77	1746.92
885.94	1724.39
886.10	1658.85
886.27	1794.02
886.43	1712.10
886.60	1796.07
886.76	1665.00
886.93	1720.29
887.09	1705.96
887.26	1603.56
887.42	1693.67
887.59	1697.77
887.75	1845.22
887.92	1783.78
888.08	1722.34
888.25	1771.49
888.41	1708.01
888.58	1681.38
888.74	1640.42
888.91	1699.81
>>>>>End Processed Spectral Data<<<<<
