SpectraSuite Data File
++++++++++++++++++++++++++++++++++++
Date: Mon Jun 06 17:37:37 CEST 2016
User: root
Dark Spectrum Present: No
Reference Spectrum Present: No
Number of Sampled Component Spectra: 1
Spectrometers: USB4C02835
Integration Time (usec): 100000 (USB4C02835)
Spectra Averaged: 1 (USB4C02835)
Boxcar Smoothing: 0 (USB4C02835)
Correct for Electrical Dark: No (USB4C02835)
Strobe/Lamp Enabled: No (USB4C02835)
Correct for Detector Non-linearity: No (USB4C02835)
Correct for Stray Light: No (USB4C02835)
Number of Pixels in Processed Spectrum: 3648
>>>>>Begin Processed Spectral Data<<<<<
177,47	1497,07
177,69	1497,07
177,91	1497,07
178,13	1456,11
178,36	1476,59
178,58	1648,61
178,80	1720,29
179,02	1609,70
179,24	1699,81
179,46	1751,01
179,68	1769,44
179,90	1730,53
180,13	1718,25
180,35	1671,14
180,57	1693,67
180,79	1697,77
181,01	1748,97
181,23	1828,84
181,45	1685,48
181,67	1716,20
181,90	1771,49
182,12	1677,29
182,34	1609,70
182,56	1648,61
182,78	1689,57
183,00	1722,34
183,22	1777,64
183,44	1650,66
183,66	1882,08
183,89	1767,40
184,11	1734,63
184,33	1720,29
184,55	1763,30
184,77	1740,77
184,99	1740,77
185,21	1671,14
185,43	1824,74
185,65	1693,67
185,87	1746,92
186,10	1863,65
186,32	1824,74
186,54	1804,26
186,76	1779,68
186,98	1777,64
187,20	1722,34
187,42	1665,00
187,64	1697,77
187,86	1701,86
188,08	1804,26
188,30	1701,86
188,52	1714,15
188,75	1828,84
188,97	1740,77
189,19	1624,04
189,41	1665,00
189,63	1746,92
189,85	1677,29
190,07	1611,75
190,29	1611,75
190,51	1759,21
190,73	1665,00
190,95	1716,20
191,17	1703,91
191,39	1656,81
191,61	1722,34
191,84	1705,96
192,06	1759,21
192,28	1591,27
192,50	1873,89
192,72	1685,48
192,94	1716,20
193,16	1845,22
193,38	1738,73
193,60	1673,19
193,82	1699,81
194,04	1761,25
194,26	1740,77
194,48	1701,86
194,70	1652,71
194,92	1673,19
195,14	1798,12
195,36	1687,53
195,58	1734,63
195,80	1681,38
196,02	1667,05
196,24	1775,59
196,46	1775,59
196,69	1710,05
196,91	1882,08
197,13	1708,01
197,35	1607,66
197,57	1865,70
197,79	1724,39
198,01	1626,09
198,23	1718,25
198,45	1785,83
198,67	1667,05
198,89	1728,49
199,11	1748,97
199,33	1640,42
199,55	1654,76
199,77	1755,11
199,99	1798,12
200,21	1748,97
200,43	1810,40
200,65	1656,81
200,87	1646,57
201,09	1714,15
201,31	1658,85
201,53	1785,83
201,75	1812,45
201,97	1746,92
202,19	1771,49
202,41	1714,15
202,63	1757,16
202,85	1687,53
203,07	1759,21
203,29	1615,85
203,51	1703,91
203,73	1681,38
203,95	1841,12
204,17	1705,96
204,39	1748,97
204,61	1726,44
204,83	1722,34
205,05	1734,63
205,27	1675,24
205,49	1798,12
205,71	1697,77
205,93	1691,62
206,15	1728,49
206,37	1677,29
206,59	1662,95
206,81	1669,09
207,03	1683,43
207,25	1630,18
207,47	1845,22
207,69	1665,00
207,91	1740,77
208,13	1798,12
208,34	1636,33
208,56	1679,33
208,78	1697,77
209,00	1648,61
209,22	1724,39
209,44	1677,29
209,66	1718,25
209,88	1644,52
210,10	1718,25
210,32	1748,97
210,54	1744,87
210,76	1716,20
210,98	1767,40
211,20	1662,95
211,42	1726,44
211,64	1787,88
211,86	1726,44
212,08	1726,44
212,30	1728,49
212,52	1665,00
212,74	1691,62
212,96	1740,77
213,17	1728,49
213,39	1716,20
213,61	1814,50
213,83	1681,38
214,05	1705,96
214,27	1779,68
214,49	1658,85
214,71	1648,61
214,93	1841,12
215,15	1742,82
215,37	1708,01
215,59	1671,14
215,81	1763,30
216,03	1763,30
216,24	1710,05
216,46	1724,39
216,68	1763,30
216,90	1800,16
217,12	1806,31
217,34	1794,02
217,56	1714,15
217,78	1810,40
218,00	1785,83
218,22	1748,97
218,44	1736,68
218,66	1656,81
218,87	1869,80
219,09	1689,57
219,31	1755,11
219,53	1681,38
219,75	1673,19
219,97	1748,97
220,19	1746,92
220,41	1665,00
220,63	1787,88
220,85	1673,19
221,06	1718,25
221,28	1783,78
221,50	1796,07
221,72	1806,31
221,94	1708,01
222,16	1677,29
222,38	1681,38
222,60	1708,01
222,82	1632,23
223,03	1724,39
223,25	1714,15
223,47	1748,97
223,69	1779,68
223,91	1744,87
224,13	1685,48
224,35	1677,29
224,57	1830,88
224,78	1753,06
225,00	1652,71
225,22	1767,40
225,44	1718,25
225,66	1812,45
225,88	1658,85
226,10	1722,34
226,32	1695,72
226,53	1824,74
226,75	1675,24
226,97	1714,15
227,19	1769,44
227,41	1632,23
227,63	1695,72
227,85	1626,09
228,06	1675,24
228,28	1746,92
228,50	1730,53
228,72	1650,66
228,94	1755,11
229,16	1658,85
229,37	1658,85
229,59	1734,63
229,81	1781,73
230,03	1705,96
230,25	1634,28
230,47	1705,96
230,69	1695,72
230,90	1800,16
231,12	1722,34
231,34	1669,09
231,56	1759,21
231,78	1640,42
232,00	1744,87
232,21	1746,92
232,43	1759,21
232,65	1587,18
232,87	1732,58
233,09	1677,29
233,30	1632,23
233,52	1751,01
233,74	1675,24
233,96	1679,33
234,18	1769,44
234,40	1660,90
234,61	1859,56
234,83	1646,57
235,05	1554,41
235,27	1863,65
235,49	1824,74
235,70	1751,01
235,92	1869,80
236,14	1720,29
236,36	1880,04
236,58	1660,90
236,79	1761,25
237,01	1718,25
237,23	1728,49
237,45	1890,28
237,67	1740,77
237,88	1787,88
238,10	1779,68
238,32	1667,05
238,54	1746,92
238,76	1710,05
238,97	1658,85
239,19	1662,95
239,41	1794,02
239,63	1779,68
239,85	1658,85
240,06	1734,63
240,28	1755,11
240,50	1757,16
240,72	1718,25
240,93	1820,64
241,15	1800,16
241,37	1751,01
241,59	1810,40
241,81	1751,01
242,02	1773,54
242,24	1726,44
242,46	1820,64
242,68	1722,34
242,89	1726,44
243,11	1730,53
243,33	1820,64
243,55	1767,40
243,76	1650,66
243,98	1703,91
244,20	1736,68
244,42	1736,68
244,64	1742,82
244,85	1667,05
245,07	1648,61
245,29	1730,53
245,51	1705,96
245,72	1767,40
245,94	1775,59
246,16	1751,01
246,38	1691,62
246,59	1753,06
246,81	1722,34
247,03	1722,34
247,24	1591,27
247,46	1712,10
247,68	1769,44
247,90	1732,58
248,11	1716,20
248,33	1724,39
248,55	1771,49
248,77	1789,92
248,98	1775,59
249,20	1859,56
249,42	1722,34
249,64	1789,92
249,85	1751,01
250,07	1685,48
250,29	1781,73
250,50	1746,92
250,72	1660,90
250,94	1761,25
251,16	1812,45
251,37	1736,68
251,59	1714,15
251,81	1685,48
252,02	1781,73
252,24	1667,05
252,46	1779,68
252,68	1681,38
252,89	1685,48
253,11	1603,56
253,33	1798,12
253,54	1771,49
253,76	1634,28
253,98	1726,44
254,20	1667,05
254,41	1671,14
254,63	1734,63
254,85	1628,14
255,06	1712,10
255,28	1732,58
255,50	1732,58
255,71	1689,57
255,93	1689,57
256,15	1621,99
256,36	1775,59
256,58	1665,00
256,80	1675,24
257,02	1722,34
257,23	1763,30
257,45	1669,09
257,67	1742,82
257,88	1699,81
258,10	1767,40
258,32	1757,16
258,53	1693,67
258,75	1787,88
258,97	1683,43
259,18	1763,30
259,40	1753,06
259,62	1834,98
259,83	1781,73
260,05	1734,63
260,27	1964,00
260,48	1796,07
260,70	1665,00
260,92	1753,06
261,13	1738,73
261,35	1740,77
261,57	1738,73
261,78	1611,75
262,00	1703,91
262,22	1767,40
262,43	1595,37
262,65	1763,30
262,86	1667,05
263,08	1871,84
263,30	1755,11
263,51	1697,77
263,73	1759,21
263,95	1810,40
264,16	1669,09
264,38	1656,81
264,60	1751,01
264,81	1677,29
265,03	1746,92
265,25	1794,02
265,46	1691,62
265,68	1789,92
265,89	1714,15
266,11	1732,58
266,33	1751,01
266,54	1849,32
266,76	1744,87
266,98	1718,25
267,19	1734,63
267,41	1753,06
267,62	1746,92
267,84	1607,66
268,06	1765,35
268,27	1716,20
268,49	1763,30
268,70	1849,32
268,92	1681,38
269,14	1689,57
269,35	1552,36
269,57	1695,72
269,79	1816,55
270,00	1644,52
270,22	1837,03
270,43	1693,67
270,65	1617,90
270,87	1751,01
271,08	1755,11
271,30	1769,44
271,51	1654,76
271,73	1791,97
271,95	1814,50
272,16	1695,72
272,38	1800,16
272,59	1710,05
272,81	1775,59
273,02	1667,05
273,24	1775,59
273,46	1820,64
273,67	1634,28
273,89	1671,14
274,10	1673,19
274,32	1767,40
274,54	1730,53
274,75	1695,72
274,97	1742,82
275,18	1791,97
275,40	1787,88
275,61	1703,91
275,83	1669,09
276,05	1646,57
276,26	1736,68
276,48	1724,39
276,69	1654,76
276,91	1681,38
277,12	1794,02
277,34	1714,15
277,55	1837,03
277,77	1755,11
277,99	1638,38
278,20	1613,80
278,42	1640,42
278,63	1607,66
278,85	1691,62
279,06	1724,39
279,28	1800,16
279,49	1814,50
279,71	1767,40
279,93	1656,81
280,14	1662,95
280,36	1642,47
280,57	1775,59
280,79	1765,35
281,00	1802,21
281,22	1689,57
281,43	1773,54
281,65	1589,22
281,86	1658,85
282,08	1812,45
282,29	1818,60
282,51	1683,43
282,73	1679,33
282,94	1687,53
283,16	1787,88
283,37	1787,88
283,59	1734,63
283,80	1765,35
284,02	1734,63
284,23	1812,45
284,45	1726,44
284,66	1603,56
284,88	1603,56
285,09	1712,10
285,31	1724,39
285,52	1800,16
285,74	1665,00
285,95	1763,30
286,17	1746,92
286,38	1834,98
286,60	1609,70
286,81	1681,38
287,03	1705,96
287,24	1701,86
287,46	1767,40
287,67	1681,38
287,89	1810,40
288,10	1761,25
288,32	1742,82
288,53	1718,25
288,75	1742,82
288,96	1787,88
289,18	1603,56
289,39	1693,67
289,61	1730,53
289,82	1814,50
290,04	1798,12
290,25	1646,57
290,47	1703,91
290,68	1652,71
290,90	1720,29
291,11	1619,94
291,33	1748,97
291,54	1654,76
291,76	1665,00
291,97	1744,87
292,18	1705,96
292,40	1720,29
292,61	1726,44
292,83	1812,45
293,04	1724,39
293,26	1791,97
293,47	1746,92
293,69	1628,14
293,90	1746,92
294,12	1730,53
294,33	1738,73
294,55	1779,68
294,76	1828,84
294,97	1771,49
295,19	1861,60
295,40	1726,44
295,62	1734,63
295,83	1779,68
296,05	1675,24
296,26	1806,31
296,48	1583,08
296,69	1791,97
296,90	1740,77
297,12	1830,88
297,33	1763,30
297,55	1761,25
297,76	1828,84
297,98	1814,50
298,19	1714,15
298,41	1767,40
298,62	1695,72
298,83	1800,16
299,05	1724,39
299,26	1681,38
299,48	1714,15
299,69	1667,05
299,90	1634,28
300,12	1701,86
300,33	1761,25
300,55	1732,58
300,76	1755,11
300,98	1638,38
301,19	1785,83
301,40	1738,73
301,62	1689,57
301,83	1732,58
302,05	1705,96
302,26	1718,25
302,47	1763,30
302,69	1673,19
302,90	1689,57
303,12	1599,46
303,33	1806,31
303,54	1796,07
303,76	1679,33
303,97	1710,05
304,19	1820,64
304,40	1648,61
304,61	1724,39
304,83	1818,60
305,04	1767,40
305,26	1734,63
305,47	1697,77
305,68	1789,92
305,90	1677,29
306,11	1834,98
306,33	1675,24
306,54	1779,68
306,75	1701,86
306,97	1603,56
307,18	1665,00
307,39	1689,57
307,61	1804,26
307,82	1742,82
308,04	1734,63
308,25	1660,90
308,46	1716,20
308,68	1679,33
308,89	1736,68
309,10	1763,30
309,32	1759,21
309,53	1697,77
309,74	1779,68
309,96	1669,09
310,17	1824,74
310,39	1619,94
310,60	1740,77
310,81	1738,73
311,03	1648,61
311,24	1744,87
311,45	1732,58
311,67	1796,07
311,88	1714,15
312,09	1757,16
312,31	1736,68
312,52	1755,11
312,73	1683,43
312,95	1730,53
313,16	1667,05
313,37	1791,97
313,59	1816,55
313,80	1753,06
314,01	1834,98
314,23	1667,05
314,44	1673,19
314,65	1640,42
314,87	1765,35
315,08	1724,39
315,29	1673,19
315,51	1746,92
315,72	1607,66
315,93	1767,40
316,15	1824,74
316,36	1699,81
316,57	1755,11
316,79	1722,34
317,00	1695,72
317,21	1759,21
317,43	1714,15
317,64	1740,77
317,85	1671,14
318,07	1705,96
318,28	1753,06
318,49	1779,68
318,70	1961,95
318,92	1851,36
319,13	1767,40
319,34	1849,32
319,56	1755,11
319,77	1822,69
319,98	1810,40
320,20	1832,93
320,41	1730,53
320,62	1744,87
320,83	1691,62
321,05	1890,28
321,26	1789,92
321,47	1671,14
321,69	1791,97
321,90	1671,14
322,11	1677,29
322,32	1701,86
322,54	1806,31
322,75	1722,34
322,96	1826,79
323,18	1660,90
323,39	1658,85
323,60	1783,78
323,81	1755,11
324,03	1701,86
324,24	1703,91
324,45	1738,73
324,66	1691,62
324,88	1738,73
325,09	1765,35
325,30	1720,29
325,52	1705,96
325,73	1767,40
325,94	1638,38
326,15	1654,76
326,37	1775,59
326,58	1830,88
326,79	1804,26
327,00	1691,62
327,22	1740,77
327,43	1683,43
327,64	1738,73
327,85	1728,49
328,07	1703,91
328,28	1769,44
328,49	1681,38
328,70	1705,96
328,92	1705,96
329,13	1689,57
329,34	1738,73
329,55	1791,97
329,76	1736,68
329,98	1703,91
330,19	1734,63
330,40	1757,16
330,61	1681,38
330,83	1789,92
331,04	1710,05
331,25	1693,67
331,46	1740,77
331,68	1583,08
331,89	1779,68
332,10	1746,92
332,31	1634,28
332,52	1753,06
332,74	1798,12
332,95	1665,00
333,16	1744,87
333,37	1755,11
333,58	1732,58
333,80	1728,49
334,01	1599,46
334,22	1783,78
334,43	1632,23
334,64	1689,57
334,86	1757,16
335,07	1718,25
335,28	1812,45
335,49	1724,39
335,70	1722,34
335,92	1832,93
336,13	1839,08
336,34	1726,44
336,55	1677,29
336,76	1724,39
336,98	1638,38
337,19	1748,97
337,40	1855,46
337,61	1867,75
337,82	1699,81
338,04	1708,01
338,25	1681,38
338,46	1687,53
338,67	1636,33
338,88	1695,72
339,09	1673,19
339,31	1699,81
339,52	1634,28
339,73	1703,91
339,94	1689,57
340,15	1710,05
340,36	1699,81
340,58	1730,53
340,79	1687,53
341,00	1744,87
341,21	1646,57
341,42	1810,40
341,63	1701,86
341,85	1769,44
342,06	1685,48
342,27	1683,43
342,48	1716,20
342,69	1538,02
342,90	1810,40
343,12	1761,25
343,33	1728,49
343,54	1738,73
343,75	1773,54
343,96	1685,48
344,17	1730,53
344,38	1650,66
344,60	1644,52
344,81	1638,38
345,02	1646,57
345,23	1828,84
345,44	1726,44
345,65	1695,72
345,86	1628,14
346,07	1699,81
346,29	1714,15
346,50	1769,44
346,71	1751,01
346,92	1775,59
347,13	1892,32
347,34	1673,19
347,55	1679,33
347,76	1757,16
347,98	1597,42
348,19	1656,81
348,40	1830,88
348,61	1722,34
348,82	1779,68
349,03	1773,54
349,24	1644,52
349,45	1834,98
349,66	1648,61
349,88	1765,35
350,09	1701,86
350,30	1738,73
350,51	1767,40
350,72	1753,06
350,93	1714,15
351,14	1685,48
351,35	1779,68
351,56	1705,96
351,77	1705,96
351,99	1767,40
352,20	1828,84
352,41	1849,32
352,62	1642,47
352,83	1791,97
353,04	1742,82
353,25	1669,09
353,46	1734,63
353,67	1767,40
353,88	1591,27
354,09	1693,67
354,30	1732,58
354,52	1732,58
354,73	1732,58
354,94	1619,94
355,15	1789,92
355,36	1802,21
355,57	1757,16
355,78	1744,87
355,99	1683,43
356,20	1652,71
356,41	1810,40
356,62	1724,39
356,83	1722,34
357,04	1777,64
357,25	1560,55
357,46	1617,90
357,68	1693,67
357,89	1677,29
358,10	1699,81
358,31	1669,09
358,52	1689,57
358,73	1665,00
358,94	1689,57
359,15	1701,86
359,36	1773,54
359,57	1753,06
359,78	1732,58
359,99	1671,14
360,20	1675,24
360,41	1611,75
360,62	1697,77
360,83	1724,39
361,04	1691,62
361,25	1755,11
361,46	1781,73
361,67	1720,29
361,88	1794,02
362,09	1755,11
362,30	1767,40
362,51	1695,72
362,72	1718,25
362,93	1767,40
363,14	1855,46
363,35	1699,81
363,56	1714,15
363,78	1791,97
363,99	1748,97
364,20	1712,10
364,41	1820,64
364,62	1853,41
364,83	1828,84
365,04	1765,35
365,25	1716,20
365,46	1806,31
365,67	1658,85
365,88	1667,05
366,09	1718,25
366,30	1695,72
366,51	1736,68
366,72	1667,05
366,93	1703,91
367,14	1740,77
367,35	1751,01
367,56	1730,53
367,77	1781,73
367,98	1724,39
368,18	1744,87
368,39	1771,49
368,60	1677,29
368,81	1765,35
369,02	1777,64
369,23	1679,33
369,44	1589,22
369,65	1687,53
369,86	1763,30
370,07	1734,63
370,28	1736,68
370,49	1730,53
370,70	1802,21
370,91	1695,72
371,12	1613,80
371,33	1796,07
371,54	1718,25
371,75	1855,46
371,96	1624,04
372,17	1732,58
372,38	1673,19
372,59	1826,79
372,80	1677,29
373,01	1736,68
373,22	1759,21
373,43	1769,44
373,64	1703,91
373,85	1820,64
374,06	1808,36
374,26	1777,64
374,47	1773,54
374,68	1863,65
374,89	1744,87
375,10	1751,01
375,31	1802,21
375,52	1742,82
375,73	1767,40
375,94	1761,25
376,15	1771,49
376,36	1665,00
376,57	1654,76
376,78	1730,53
376,99	1757,16
377,20	1753,06
377,40	1667,05
377,61	1773,54
377,82	1656,81
378,03	1849,32
378,24	1832,93
378,45	1765,35
378,66	1787,88
378,87	1599,46
379,08	1599,46
379,29	1673,19
379,50	1789,92
379,71	1751,01
379,91	1806,31
380,12	1763,30
380,33	1722,34
380,54	1759,21
380,75	1736,68
380,96	1730,53
381,17	1785,83
381,38	1759,21
381,59	1722,34
381,80	1771,49
382,00	1912,80
382,21	1820,64
382,42	1818,60
382,63	1867,75
382,84	1791,97
383,05	1783,78
383,26	1734,63
383,47	1751,01
383,68	1742,82
383,88	1695,72
384,09	1718,25
384,30	1896,42
384,51	1714,15
384,72	1765,35
384,93	1619,94
385,14	1744,87
385,35	1837,03
385,55	1656,81
385,76	1722,34
385,97	1642,47
386,18	1689,57
386,39	1675,24
386,60	1787,88
386,81	1624,04
387,02	1673,19
387,22	1648,61
387,43	1753,06
387,64	1871,84
387,85	1939,43
388,06	2197,47
388,27	4140,99
388,48	6688,67
388,68	8259,46
388,89	9666,41
389,10	9738,09
389,31	8619,90
389,52	7561,10
389,73	6893,46
389,93	6252,45
390,14	5814,18
390,35	5154,74
390,56	4558,78
390,77	3852,23
390,98	3162,06
391,18	2504,67
391,39	2144,22
391,60	1775,59
391,81	1865,70
392,02	1753,06
392,23	1869,80
392,43	1689,57
392,64	1791,97
392,85	1714,15
393,06	1816,55
393,27	1779,68
393,47	1691,62
393,68	1826,79
393,89	1636,33
394,10	1794,02
394,31	1675,24
394,52	1679,33
394,72	1720,29
394,93	1808,36
395,14	1644,52
395,35	1748,97
395,56	1683,43
395,76	1701,86
395,97	1839,08
396,18	1816,55
396,39	1822,69
396,60	1978,34
396,80	1906,66
397,01	1877,99
397,22	1822,69
397,43	1857,51
397,64	1732,58
397,84	1810,40
398,05	1892,32
398,26	1830,88
398,47	1738,73
398,67	1816,55
398,88	1861,60
399,09	1816,55
399,30	1640,42
399,51	1691,62
399,71	1705,96
399,92	1685,48
400,13	1812,45
400,34	1716,20
400,54	1718,25
400,75	1902,56
400,96	1738,73
401,17	1855,46
401,37	1744,87
401,58	1656,81
401,79	1726,44
402,00	1847,27
402,21	2013,15
402,41	1918,95
402,62	2021,35
402,83	2080,74
403,04	2000,87
403,24	2086,88
403,45	1834,98
403,66	1929,19
403,87	1834,98
404,07	1877,99
404,28	1875,94
404,49	1920,99
404,70	1775,59
404,90	1738,73
405,11	1716,20
405,32	1839,08
405,52	1703,91
405,73	1660,90
405,94	1705,96
406,15	1693,67
406,35	1703,91
406,56	1806,31
406,77	1767,40
406,98	1675,24
407,18	1654,76
407,39	1773,54
407,60	1665,00
407,80	1771,49
408,01	1720,29
408,22	1787,88
408,43	1722,34
408,63	1779,68
408,84	1738,73
409,05	1796,07
409,25	1708,01
409,46	1693,67
409,67	1726,44
409,88	1726,44
410,08	1714,15
410,29	1632,23
410,50	1740,77
410,70	1759,21
410,91	1662,95
411,12	1824,74
411,32	1669,09
411,53	1697,77
411,74	1820,64
411,95	1779,68
412,15	1755,11
412,36	1837,03
412,57	1765,35
412,77	1849,32
412,98	1802,21
413,19	1798,12
413,39	1783,78
413,60	1759,21
413,81	1837,03
414,01	1732,58
414,22	1806,31
414,43	1755,11
414,63	1667,05
414,84	1816,55
415,05	1697,77
415,25	1697,77
415,46	1767,40
415,67	1640,42
415,87	1773,54
416,08	1775,59
416,29	1658,85
416,49	1796,07
416,70	1636,33
416,91	1728,49
417,11	1718,25
417,32	1712,10
417,53	1812,45
417,73	1724,39
417,94	1708,01
418,15	1716,20
418,35	1751,01
418,56	1714,15
418,77	1877,99
418,97	1718,25
419,18	1710,05
419,38	1617,90
419,59	1710,05
419,80	1802,21
420,00	1652,71
420,21	1753,06
420,42	1761,25
420,62	1761,25
420,83	1777,64
421,04	1751,01
421,24	1705,96
421,45	1753,06
421,65	1755,11
421,86	1701,86
422,07	1697,77
422,27	1767,40
422,48	1718,25
422,69	1748,97
422,89	1773,54
423,10	1683,43
423,30	1675,24
423,51	1771,49
423,72	1738,73
423,92	1769,44
424,13	1646,57
424,33	1736,68
424,54	1771,49
424,75	1669,09
424,95	1775,59
425,16	1726,44
425,36	1705,96
425,57	1787,88
425,78	1763,30
425,98	1740,77
426,19	1640,42
426,39	1796,07
426,60	1703,91
426,81	1849,32
427,01	1796,07
427,22	1697,77
427,42	1613,80
427,63	1656,81
427,83	1746,92
428,04	1785,83
428,25	1816,55
428,45	1869,80
428,66	1785,83
428,86	1701,86
429,07	1738,73
429,28	1794,02
429,48	1703,91
429,69	1746,92
429,89	1804,26
430,10	1656,81
430,30	1761,25
430,51	1814,50
430,71	1654,76
430,92	1783,78
431,13	1769,44
431,33	1755,11
431,54	1734,63
431,74	1781,73
431,95	1902,56
432,15	1738,73
432,36	1810,40
432,56	1769,44
432,77	1902,56
432,98	1761,25
433,18	1796,07
433,39	1746,92
433,59	1712,10
433,80	1820,64
434,00	1898,47
434,21	1703,91
434,41	1689,57
434,62	1937,38
434,82	1681,38
435,03	1589,22
435,23	1761,25
435,44	1587,18
435,64	1781,73
435,85	1748,97
436,06	1781,73
436,26	1757,16
436,47	1669,09
436,67	1677,29
436,88	1794,02
437,08	1800,16
437,29	1802,21
437,49	1779,68
437,70	1834,98
437,90	1738,73
438,11	1853,41
438,31	1763,30
438,52	1859,56
438,72	1873,89
438,93	1886,18
439,13	1781,73
439,34	1787,88
439,54	1826,79
439,75	1828,84
439,95	1839,08
440,16	1728,49
440,36	1722,34
440,57	1808,36
440,77	1789,92
440,98	1787,88
441,18	1775,59
441,39	1734,63
441,59	1642,47
441,80	1824,74
442,00	1730,53
442,21	1841,12
442,41	1685,48
442,62	1853,41
442,82	1730,53
443,02	1740,77
443,23	1787,88
443,43	1738,73
443,64	1822,69
443,84	1718,25
444,05	1806,31
444,25	1742,82
444,46	1738,73
444,66	1697,77
444,87	1828,84
445,07	1605,61
445,28	1681,38
445,48	1798,12
445,69	1785,83
445,89	1849,32
446,09	1773,54
446,30	2052,06
446,50	2740,18
446,71	3702,73
446,91	4478,91
447,12	4753,34
447,32	4968,37
447,53	4452,28
447,73	3872,71
447,93	3563,47
448,14	3270,61
448,34	3133,39
448,55	2963,41
448,75	2932,69
448,96	2680,79
449,16	2461,66
449,36	2316,25
449,57	2052,06
449,77	1910,75
449,98	1839,08
450,18	1791,97
450,39	1787,88
450,59	1830,88
450,79	1724,39
451,00	1726,44
451,20	1806,31
451,41	1722,34
451,61	1785,83
451,81	1746,92
452,02	1718,25
452,22	1783,78
452,43	1710,05
452,63	1658,85
452,84	1845,22
453,04	1767,40
453,24	1785,83
453,45	1652,71
453,65	1761,25
453,86	1804,26
454,06	1880,04
454,26	1779,68
454,47	1728,49
454,67	1869,80
454,87	1746,92
455,08	1763,30
455,28	1796,07
455,49	1767,40
455,69	1714,15
455,89	1951,71
456,10	1794,02
456,30	1759,21
456,51	1806,31
456,71	1822,69
456,91	1791,97
457,12	1738,73
457,32	1791,97
457,52	1763,30
457,73	1802,21
457,93	1783,78
458,14	1746,92
458,34	1695,72
458,54	1740,77
458,75	1781,73
458,95	1814,50
459,15	1771,49
459,36	1798,12
459,56	1718,25
459,76	1877,99
459,97	1820,64
460,17	1767,40
460,37	1828,84
460,58	1691,62
460,78	1853,41
460,99	1716,20
461,19	1806,31
461,39	1759,21
461,60	1816,55
461,80	1798,12
462,00	1644,52
462,21	1705,96
462,41	1710,05
462,61	1718,25
462,82	1679,33
463,02	1779,68
463,22	1740,77
463,43	1757,16
463,63	1753,06
463,83	1861,60
464,04	1806,31
464,24	1712,10
464,44	1720,29
464,64	1751,01
464,85	1814,50
465,05	1742,82
465,25	1691,62
465,46	1716,20
465,66	1757,16
465,86	1812,45
466,07	1767,40
466,27	1724,39
466,47	1644,52
466,68	1722,34
466,88	1871,84
467,08	1781,73
467,29	1798,12
467,49	1753,06
467,69	1751,01
467,89	1787,88
468,10	1705,96
468,30	1769,44
468,50	1839,08
468,71	1767,40
468,91	1673,19
469,11	1794,02
469,31	1804,26
469,52	1662,95
469,72	1839,08
469,92	1824,74
470,13	1746,92
470,33	1697,77
470,53	1837,03
470,73	2052,06
470,94	2312,16
471,14	2291,68
471,34	2549,72
471,54	2449,37
471,75	2250,72
471,95	2205,66
472,15	2131,94
472,36	2054,11
472,56	2074,59
472,76	2084,83
472,96	2013,15
473,17	1978,34
473,37	1910,75
473,57	1880,04
473,77	1777,64
473,98	1789,92
474,18	1736,68
474,38	1888,23
474,58	1714,15
474,79	1748,97
474,99	1748,97
475,19	1800,16
475,39	1632,23
475,60	1757,16
475,80	1796,07
476,00	1779,68
476,20	1714,15
476,41	1675,24
476,61	1875,94
476,81	1771,49
477,01	1675,24
477,21	1837,03
477,42	1865,70
477,62	1708,01
477,82	1861,60
478,02	1712,10
478,23	1828,84
478,43	1699,81
478,63	1720,29
478,83	1773,54
479,03	1734,63
479,24	1847,27
479,44	1822,69
479,64	1716,20
479,84	1632,23
480,04	1689,57
480,25	1773,54
480,45	1636,33
480,65	1837,03
480,85	1834,98
481,06	1724,39
481,26	1705,96
481,46	1755,11
481,66	1783,78
481,86	1714,15
482,06	1730,53
482,27	1724,39
482,47	1705,96
482,67	1734,63
482,87	1691,62
483,07	1781,73
483,28	1681,38
483,48	1726,44
483,68	1710,05
483,88	1689,57
484,08	1648,61
484,29	1738,73
484,49	1703,91
484,69	1669,09
484,89	1869,80
485,09	1775,59
485,29	1740,77
485,50	1824,74
485,70	1753,06
485,90	1763,30
486,10	1710,05
486,30	1744,87
486,50	1837,03
486,71	1826,79
486,91	1802,21
487,11	1781,73
487,31	1593,32
487,51	1716,20
487,71	1744,87
487,91	1701,86
488,12	1669,09
488,32	1572,84
488,52	1662,95
488,72	1652,71
488,92	1759,21
489,12	1820,64
489,32	1685,48
489,53	1787,88
489,73	1640,42
489,93	1886,18
490,13	1787,88
490,33	1574,89
490,53	1724,39
490,73	1865,70
490,94	1656,81
491,14	1843,17
491,34	1804,26
491,54	2072,54
491,74	2531,29
491,94	2975,70
492,14	3119,06
492,34	3041,23
492,54	2758,61
492,75	2492,38
492,95	2535,39
493,15	2346,97
493,35	2306,01
493,55	2269,15
493,75	2113,50
493,95	2201,57
494,15	2050,02
494,35	2000,87
494,56	1908,71
494,76	1761,25
494,96	1822,69
495,16	1841,12
495,36	1718,25
495,56	1744,87
495,76	1755,11
495,96	1730,53
496,16	1738,73
496,36	1867,75
496,56	1744,87
496,77	1796,07
496,97	1685,48
497,17	1822,69
497,37	1716,20
497,57	1830,88
497,77	1726,44
497,97	1730,53
498,17	1748,97
498,37	1689,57
498,57	1810,40
498,77	1687,53
498,97	1728,49
499,17	1877,99
499,38	1746,92
499,58	1714,15
499,78	1761,25
499,98	1757,16
500,18	1681,38
500,38	1806,31
500,58	1902,56
500,78	2557,91
500,98	4521,92
501,18	6025,12
501,38	6891,41
501,58	7047,06
501,78	6793,11
501,98	5619,63
502,18	4966,32
502,38	4415,42
502,58	4124,61
502,78	3796,93
502,98	3592,14
503,18	3471,31
503,38	3194,83
503,59	2951,12
503,79	2656,22
503,99	2529,24
504,19	2330,59
504,39	2191,33
504,59	2260,96
504,79	2179,04
504,99	2023,39
505,19	1982,43
505,39	1910,75
505,59	1964,00
505,79	1900,52
505,99	1863,65
506,19	1847,27
506,39	1853,41
506,59	1705,96
506,79	1763,30
506,99	1820,64
507,19	1828,84
507,39	1777,64
507,59	1693,67
507,79	1697,77
507,99	1720,29
508,19	1761,25
508,39	1724,39
508,59	1726,44
508,79	1845,22
508,99	1918,95
509,19	1740,77
509,39	1791,97
509,59	1759,21
509,79	1785,83
509,99	1738,73
510,19	1773,54
510,39	1738,73
510,59	1746,92
510,79	1693,67
510,99	1665,00
511,19	1791,97
511,39	1916,90
511,59	1763,30
511,79	1822,69
511,99	1710,05
512,19	1886,18
512,38	1701,86
512,58	1677,29
512,78	1736,68
512,98	1775,59
513,18	1746,92
513,38	1665,00
513,58	1880,04
513,78	1677,29
513,98	1761,25
514,18	1779,68
514,38	1732,58
514,58	1716,20
514,78	1787,88
514,98	1665,00
515,18	1724,39
515,38	1677,29
515,58	1773,54
515,78	1712,10
515,98	1701,86
516,18	1775,59
516,38	1675,24
516,57	1691,62
516,77	1765,35
516,97	1822,69
517,17	1751,01
517,37	1650,66
517,57	1800,16
517,77	1712,10
517,97	1638,38
518,17	1798,12
518,37	1794,02
518,57	1669,09
518,77	1748,97
518,97	1716,20
519,16	1832,93
519,36	1759,21
519,56	1712,10
519,76	1716,20
519,96	1767,40
520,16	1880,04
520,36	1677,29
520,56	1763,30
520,76	1804,26
520,96	1718,25
521,16	1794,02
521,35	1918,95
521,55	1824,74
521,75	1736,68
521,95	1705,96
522,15	1744,87
522,35	1730,53
522,55	1705,96
522,75	1787,88
522,95	1763,30
523,14	1679,33
523,34	1681,38
523,54	1673,19
523,74	1751,01
523,94	1720,29
524,14	1753,06
524,34	1710,05
524,54	1861,60
524,73	1751,01
524,93	1771,49
525,13	1730,53
525,33	1699,81
525,53	1863,65
525,73	1748,97
525,93	1824,74
526,13	1753,06
526,32	1662,95
526,52	1816,55
526,72	1859,56
526,92	1751,01
527,12	1779,68
527,32	1714,15
527,52	1755,11
527,71	1794,02
527,91	1771,49
528,11	1644,52
528,31	1777,64
528,51	1652,71
528,71	1751,01
528,90	1703,91
529,10	1906,66
529,30	1841,12
529,50	1636,33
529,70	1701,86
529,90	1759,21
530,09	1775,59
530,29	1665,00
530,49	1669,09
530,69	1851,36
530,89	1806,31
531,09	1783,78
531,28	1720,29
531,48	1798,12
531,68	1753,06
531,88	1736,68
532,08	1841,12
532,28	1695,72
532,47	1773,54
532,67	1763,30
532,87	1787,88
533,07	1662,95
533,27	1800,16
533,46	1773,54
533,66	1730,53
533,86	1771,49
534,06	1716,20
534,26	1785,83
534,45	1658,85
534,65	1767,40
534,85	1767,40
535,05	1683,43
535,25	1787,88
535,44	1607,66
535,64	1804,26
535,84	1714,15
536,04	1691,62
536,24	1648,61
536,43	1726,44
536,63	1832,93
536,83	1771,49
537,03	1771,49
537,22	1615,85
537,42	1634,28
537,62	1722,34
537,82	1755,11
538,02	1769,44
538,21	1794,02
538,41	1923,04
538,61	1841,12
538,81	1695,72
539,00	1822,69
539,20	1585,13
539,40	1761,25
539,60	1730,53
539,79	1751,01
539,99	1732,58
540,19	1716,20
540,39	1738,73
540,58	1714,15
540,78	1695,72
540,98	1728,49
541,18	1779,68
541,37	1814,50
541,57	1736,68
541,77	1765,35
541,97	1656,81
542,16	1708,01
542,36	1716,20
542,56	1718,25
542,76	1796,07
542,95	1773,54
543,15	1728,49
543,35	1744,87
543,54	1726,44
543,74	1730,53
543,94	1841,12
544,14	1722,34
544,33	1775,59
544,53	1779,68
544,73	1710,05
544,93	1683,43
545,12	1687,53
545,32	1755,11
545,52	1708,01
545,71	1783,78
545,91	1738,73
546,11	1779,68
546,30	1761,25
546,50	1765,35
546,70	1759,21
546,90	1740,77
547,09	1613,80
547,29	1779,68
547,49	1785,83
547,68	1705,96
547,88	1757,16
548,08	1808,36
548,27	2121,70
548,47	1742,82
548,67	1767,40
548,87	1800,16
549,06	1728,49
549,26	1685,48
549,46	1783,78
549,65	1834,98
549,85	1753,06
550,05	1832,93
550,24	1761,25
550,44	1710,05
550,64	1859,56
550,83	1757,16
551,03	1794,02
551,23	1798,12
551,42	1771,49
551,62	1779,68
551,82	1740,77
552,01	1753,06
552,21	1853,41
552,41	1804,26
552,60	1816,55
552,80	1724,39
553,00	1716,20
553,19	1753,06
553,39	1804,26
553,59	1689,57
553,78	1730,53
553,98	1738,73
554,17	1675,24
554,37	1705,96
554,57	1748,97
554,76	1675,24
554,96	1703,91
555,16	1679,33
555,35	1740,77
555,55	1804,26
555,75	1757,16
555,94	1806,31
556,14	1665,00
556,33	1808,36
556,53	1701,86
556,73	1775,59
556,92	1755,11
557,12	1927,14
557,32	1808,36
557,51	1943,52
557,71	1771,49
557,90	1886,18
558,10	1781,73
558,30	1730,53
558,49	1730,53
558,69	1775,59
558,88	1787,88
559,08	1718,25
559,28	1728,49
559,47	1785,83
559,67	1796,07
559,86	1824,74
560,06	1824,74
560,26	1740,77
560,45	1812,45
560,65	1708,01
560,84	1914,85
561,04	1738,73
561,24	1748,97
561,43	1685,48
561,63	1832,93
561,82	1783,78
562,02	1859,56
562,22	1701,86
562,41	1722,34
562,61	1798,12
562,80	1669,09
563,00	1933,28
563,19	1724,39
563,39	1791,97
563,59	1759,21
563,78	1730,53
563,98	1755,11
564,17	1718,25
564,37	1708,01
564,56	1722,34
564,76	1681,38
564,96	1894,37
565,15	1787,88
565,35	1837,03
565,54	1708,01
565,74	1763,30
565,93	1779,68
566,13	1726,44
566,32	1765,35
566,52	1789,92
566,71	1742,82
566,91	1785,83
567,11	1763,30
567,30	1708,01
567,50	1857,51
567,69	1789,92
567,89	1693,67
568,08	1665,00
568,28	1800,16
568,47	1656,81
568,67	1734,63
568,86	1660,90
569,06	1742,82
569,25	1691,62
569,45	1757,16
569,64	1697,77
569,84	1658,85
570,04	1771,49
570,23	1726,44
570,43	1781,73
570,62	1789,92
570,82	1869,80
571,01	1724,39
571,21	1683,43
571,40	1683,43
571,60	1765,35
571,79	1767,40
571,99	1730,53
572,18	1679,33
572,38	1710,05
572,57	1695,72
572,77	1781,73
572,96	1920,99
573,16	1755,11
573,35	1744,87
573,55	1886,18
573,74	1773,54
573,94	1671,14
574,13	1736,68
574,33	1763,30
574,52	1722,34
574,71	1816,55
574,91	1818,60
575,10	1738,73
575,30	1802,21
575,49	1783,78
575,69	1718,25
575,88	1798,12
576,08	1673,19
576,27	1751,01
576,47	1837,03
576,66	1877,99
576,86	1837,03
577,05	1808,36
577,25	1837,03
577,44	1824,74
577,64	1673,19
577,83	1832,93
578,02	1791,97
578,22	1925,09
578,41	1912,80
578,61	1708,01
578,80	1724,39
579,00	1730,53
579,19	1757,16
579,39	1834,98
579,58	1769,44
579,77	1740,77
579,97	1849,32
580,16	1869,80
580,36	1851,36
580,55	1888,23
580,75	1783,78
580,94	1781,73
581,13	1906,66
581,33	1863,65
581,52	1783,78
581,72	1900,52
581,91	1880,04
582,11	1740,77
582,30	1820,64
582,49	1718,25
582,69	1794,02
582,88	1806,31
583,08	1806,31
583,27	1779,68
583,47	1742,82
583,66	1685,48
583,85	1748,97
584,05	1853,41
584,24	1806,31
584,44	1816,55
584,63	1818,60
584,82	1834,98
585,02	1841,12
585,21	1888,23
585,41	1832,93
585,60	1810,40
585,79	1896,42
585,99	1869,80
586,18	1908,71
586,37	2201,57
586,57	3465,16
586,76	9930,60
586,96	24589,96
587,15	34610,67
587,34	40195,48
587,54	41930,11
587,73	36349,40
587,93	26150,51
588,12	21411,51
588,31	18335,46
588,51	16480,00
588,70	15109,91
588,89	14077,74
589,09	12429,12
589,28	10882,91
589,47	9441,14
589,67	7923,59
589,86	6442,91
590,06	4915,12
590,25	3893,19
590,44	3030,99
590,64	2564,06
590,83	2240,48
591,02	2199,52
591,22	2015,20
591,41	1894,37
591,60	1857,51
591,80	1953,76
591,99	1773,54
592,18	1763,30
592,38	1822,69
592,57	1748,97
592,76	1804,26
592,96	1781,73
593,15	1796,07
593,34	1808,36
593,54	1765,35
593,73	1826,79
593,92	1783,78
594,12	1767,40
594,31	1757,16
594,50	1841,12
594,70	1787,88
594,89	1861,60
595,08	1757,16
595,28	1794,02
595,47	1939,43
595,66	1738,73
595,86	1705,96
596,05	1718,25
596,24	1746,92
596,43	1853,41
596,63	1896,42
596,82	1759,21
597,01	1755,11
597,21	1783,78
597,40	1763,30
597,59	1834,98
597,79	1810,40
597,98	1796,07
598,17	1763,30
598,36	1755,11
598,56	1812,45
598,75	1699,81
598,94	1812,45
599,14	1681,38
599,33	1705,96
599,52	1826,79
599,71	1718,25
599,91	1828,84
600,10	1814,50
600,29	1763,30
600,48	1732,58
600,68	1708,01
600,87	1775,59
601,06	1642,47
601,26	1673,19
601,45	1849,32
601,64	1724,39
601,83	1884,13
602,03	1751,01
602,22	1693,67
602,41	1720,29
602,60	1914,85
602,80	1806,31
602,99	1693,67
603,18	1722,34
603,37	1806,31
603,57	1806,31
603,76	1875,94
603,95	1781,73
604,14	1724,39
604,34	1705,96
604,53	1720,29
604,72	1808,36
604,91	1763,30
605,10	1789,92
605,30	1751,01
605,49	1900,52
605,68	1800,16
605,87	1789,92
606,07	1697,77
606,26	1734,63
606,45	1789,92
606,64	1753,06
606,84	1769,44
607,03	1847,27
607,22	1785,83
607,41	1722,34
607,60	1730,53
607,80	1800,16
607,99	1751,01
608,18	1738,73
608,37	1710,05
608,56	1716,20
608,76	1818,60
608,95	1832,93
609,14	1683,43
609,33	1851,36
609,52	1865,70
609,72	1746,92
609,91	1755,11
610,10	1810,40
610,29	1834,98
610,48	1759,21
610,68	1816,55
610,87	1720,29
611,06	1849,32
611,25	1710,05
611,44	1798,12
611,63	1767,40
611,83	1865,70
612,02	1638,38
612,21	1789,92
612,40	1636,33
612,59	1687,53
612,79	1748,97
612,98	1769,44
613,17	1847,27
613,36	1779,68
613,55	1873,89
613,74	1746,92
613,93	1687,53
614,13	1751,01
614,32	1802,21
614,51	1708,01
614,70	1728,49
614,89	1701,86
615,08	1751,01
615,28	2052,06
615,47	1701,86
615,66	1732,58
615,85	1699,81
616,04	1730,53
616,23	1738,73
616,42	1787,88
616,62	1677,29
616,81	1761,25
617,00	1658,85
617,19	1863,65
617,38	1755,11
617,57	1728,49
617,76	1832,93
617,95	1787,88
618,15	1796,07
618,34	1867,75
618,53	1669,09
618,72	1781,73
618,91	1851,36
619,10	1845,22
619,29	1800,16
619,48	1740,77
619,68	1710,05
619,87	1738,73
620,06	1683,43
620,25	1834,98
620,44	1699,81
620,63	1761,25
620,82	1726,44
621,01	1720,29
621,20	1722,34
621,39	1816,55
621,59	1730,53
621,78	1759,21
621,97	1779,68
622,16	1742,82
622,35	1828,84
622,54	1796,07
622,73	1875,94
622,92	1677,29
623,11	1810,40
623,30	1673,19
623,49	1853,41
623,68	1787,88
623,88	1820,64
624,07	1734,63
624,26	1757,16
624,45	1695,72
624,64	1701,86
624,83	1787,88
625,02	1712,10
625,21	1789,92
625,40	1761,25
625,59	1816,55
625,78	1794,02
625,97	1789,92
626,16	1865,70
626,35	1718,25
626,54	1714,15
626,74	1818,60
626,93	1763,30
627,12	1722,34
627,31	1798,12
627,50	1781,73
627,69	1771,49
627,88	1757,16
628,07	1691,62
628,26	1695,72
628,45	1689,57
628,64	1687,53
628,83	1810,40
629,02	1656,81
629,21	1773,54
629,40	1785,83
629,59	1734,63
629,78	1722,34
629,97	1759,21
630,16	1740,77
630,35	1718,25
630,54	1701,86
630,73	1724,39
630,92	1830,88
631,11	1738,73
631,30	1769,44
631,49	1703,91
631,68	1771,49
631,87	1718,25
632,06	1638,38
632,25	1859,56
632,44	1798,12
632,63	1771,49
632,82	1722,34
633,01	1669,09
633,20	1777,64
633,39	1667,05
633,58	1650,66
633,77	1787,88
633,96	1689,57
634,15	1722,34
634,34	1757,16
634,53	1773,54
634,72	1787,88
634,91	1673,19
635,10	1708,01
635,29	1724,39
635,48	1781,73
635,67	1677,29
635,86	1650,66
636,05	1798,12
636,24	1734,63
636,43	1746,92
636,62	1740,77
636,81	1607,66
637,00	1771,49
637,19	1773,54
637,38	1759,21
637,57	1708,01
637,76	1712,10
637,95	1763,30
638,14	1681,38
638,33	1673,19
638,52	1775,59
638,71	1662,95
638,89	1634,28
639,08	1906,66
639,27	1785,83
639,46	1669,09
639,65	1837,03
639,84	1732,58
640,03	1689,57
640,22	1759,21
640,41	1859,56
640,60	1757,16
640,79	1689,57
640,98	1742,82
641,17	1763,30
641,36	1785,83
641,55	1755,11
641,74	1681,38
641,92	1609,70
642,11	1753,06
642,30	1689,57
642,49	1712,10
642,68	1728,49
642,87	1742,82
643,06	1736,68
643,25	1640,42
643,44	1724,39
643,63	1683,43
643,82	1765,35
644,00	1689,57
644,19	1699,81
644,38	1734,63
644,57	1849,32
644,76	1769,44
644,95	1751,01
645,14	1673,19
645,33	1736,68
645,52	1726,44
645,71	1642,47
645,89	1675,24
646,08	1753,06
646,27	1689,57
646,46	1843,17
646,65	1669,09
646,84	1724,39
647,03	1683,43
647,22	1767,40
647,40	1695,72
647,59	1644,52
647,78	1665,00
647,97	1615,85
648,16	1695,72
648,35	1722,34
648,54	1802,21
648,73	1697,77
648,91	1791,97
649,10	1748,97
649,29	1724,39
649,48	1775,59
649,67	1771,49
649,86	1712,10
650,05	1677,29
650,23	1871,84
650,42	1714,15
650,61	1724,39
650,80	1812,45
650,99	1839,08
651,18	1845,22
651,36	1734,63
651,55	1705,96
651,74	1755,11
651,93	1693,67
652,12	1787,88
652,31	1691,62
652,49	1705,96
652,68	1703,91
652,87	1841,12
653,06	1693,67
653,25	1759,21
653,44	1710,05
653,62	1775,59
653,81	1724,39
654,00	1746,92
654,19	1796,07
654,38	1951,71
654,56	1814,50
654,75	1732,58
654,94	1726,44
655,13	1789,92
655,32	1742,82
655,51	1689,57
655,69	1658,85
655,88	1767,40
656,07	1695,72
656,26	1728,49
656,45	1712,10
656,63	1667,05
656,82	1822,69
657,01	1796,07
657,20	1736,68
657,38	1830,88
657,57	1685,48
657,76	1642,47
657,95	1796,07
658,14	1763,30
658,32	1712,10
658,51	1714,15
658,70	1716,20
658,89	1716,20
659,08	1708,01
659,26	1841,12
659,45	1679,33
659,64	1677,29
659,83	1724,39
660,01	1929,19
660,20	1701,86
660,39	1841,12
660,58	1621,99
660,76	1820,64
660,95	1607,66
661,14	1703,91
661,33	1730,53
661,51	1675,24
661,70	1675,24
661,89	1779,68
662,08	1728,49
662,26	1689,57
662,45	1724,39
662,64	1783,78
662,83	1736,68
663,01	1689,57
663,20	1685,48
663,39	1841,12
663,58	1714,15
663,76	1755,11
663,95	1732,58
664,14	1681,38
664,32	1730,53
664,51	1693,67
664,70	1615,85
664,89	1708,01
665,07	1705,96
665,26	1902,56
665,45	1615,85
665,64	1808,36
665,82	1761,25
666,01	1781,73
666,20	1667,05
666,38	1886,18
666,57	1822,69
666,76	2148,32
666,95	4646,84
667,13	10710,88
667,32	15537,94
667,51	18054,89
667,69	19455,70
667,88	17645,30
668,07	12253,00
668,25	9613,17
668,44	8173,44
668,63	7448,46
668,81	6930,33
669,00	6281,12
669,19	5805,99
669,38	5066,67
669,56	4538,30
669,75	4075,46
669,94	3520,46
670,12	2893,78
670,31	2553,82
670,50	2228,19
670,68	2189,28
670,87	1945,57
671,06	1873,89
671,24	1837,03
671,43	1853,41
671,62	1773,54
671,80	1742,82
671,99	1757,16
672,18	1746,92
672,36	1746,92
672,55	1746,92
672,74	1716,20
672,92	1677,29
673,11	1736,68
673,29	1648,61
673,48	1796,07
673,67	1675,24
673,85	1767,40
674,04	1642,47
674,23	1703,91
674,41	1849,32
674,60	1658,85
674,79	1634,28
674,97	1730,53
675,16	1808,36
675,34	1730,53
675,53	1681,38
675,72	1730,53
675,90	1896,42
676,09	1798,12
676,28	1642,47
676,46	1654,76
676,65	1734,63
676,83	1732,58
677,02	1697,77
677,21	1708,01
677,39	1773,54
677,58	1730,53
677,77	1714,15
677,95	1665,00
678,14	1640,42
678,32	1697,77
678,51	1748,97
678,70	1845,22
678,88	1740,77
679,07	1753,06
679,25	1718,25
679,44	1763,30
679,63	1640,42
679,81	1705,96
680,00	1791,97
680,18	1810,40
680,37	1855,46
680,55	1779,68
680,74	1636,33
680,93	1605,61
681,11	1785,83
681,30	1708,01
681,48	1728,49
681,67	1652,71
681,85	1662,95
682,04	1675,24
682,23	1740,77
682,41	1656,81
682,60	1677,29
682,78	1736,68
682,97	1662,95
683,15	1683,43
683,34	1732,58
683,53	1849,32
683,71	1656,81
683,90	1765,35
684,08	1800,16
684,27	1800,16
684,45	1796,07
684,64	1787,88
684,82	1751,01
685,01	1806,31
685,19	1738,73
685,38	1853,41
685,57	1683,43
685,75	1697,77
685,94	1714,15
686,12	1681,38
686,31	1671,14
686,49	1849,32
686,68	1619,94
686,86	1720,29
687,05	1732,58
687,23	1804,26
687,42	1667,05
687,60	1677,29
687,79	1746,92
687,97	1763,30
688,16	1851,36
688,34	1877,99
688,53	1636,33
688,71	1814,50
688,90	1863,65
689,08	1699,81
689,27	1609,70
689,45	1826,79
689,64	1806,31
689,82	1779,68
690,01	1783,78
690,19	1732,58
690,38	1812,45
690,56	1837,03
690,75	1644,52
690,93	1718,25
691,12	1724,39
691,30	1757,16
691,49	1693,67
691,67	1714,15
691,86	1880,04
692,04	1628,14
692,23	1693,67
692,41	1720,29
692,60	1834,98
692,78	1794,02
692,97	1656,81
693,15	1785,83
693,34	1865,70
693,52	1800,16
693,71	1705,96
693,89	1691,62
694,08	1566,70
694,26	1757,16
694,44	1726,44
694,63	1744,87
694,81	1671,14
695,00	1689,57
695,18	1820,64
695,37	1894,37
695,55	1761,25
695,74	1714,15
695,92	1642,47
696,10	1757,16
696,29	1662,95
696,47	1697,77
696,66	1757,16
696,84	1703,91
697,03	1759,21
697,21	1837,03
697,40	2377,69
697,58	1757,16
697,76	1751,01
697,95	1703,91
698,13	1660,90
698,32	1658,85
698,50	1779,68
698,68	1751,01
698,87	1734,63
699,05	1894,37
699,24	1710,05
699,42	1665,00
699,61	1714,15
699,79	1681,38
699,97	1769,44
700,16	1601,51
700,34	1677,29
700,53	1787,88
700,71	1816,55
700,89	1769,44
701,08	1728,49
701,26	1607,66
701,45	2121,70
701,63	1736,68
701,81	1681,38
702,00	1683,43
702,18	1812,45
702,37	1677,29
702,55	1757,16
702,73	1685,48
702,92	1595,37
703,10	1671,14
703,28	1705,96
703,47	1656,81
703,65	1802,21
703,84	1722,34
704,02	1681,38
704,20	1765,35
704,39	1677,29
704,57	1671,14
704,75	1748,97
704,94	1781,73
705,12	1769,44
705,30	1726,44
705,49	2344,92
705,67	4554,68
705,86	9514,86
706,04	12744,51
706,22	14438,18
706,41	15126,30
706,59	13842,22
706,77	9637,74
706,96	7436,17
707,14	6563,74
707,32	6027,17
707,51	5427,12
707,69	4798,39
707,87	4161,47
708,06	3573,71
708,24	2889,68
708,42	2377,69
708,61	2320,35
708,79	1964,00
708,97	1845,22
709,16	1824,74
709,34	1853,41
709,52	1703,91
709,71	1789,92
709,89	1746,92
710,07	1701,86
710,26	1650,66
710,44	1699,81
710,62	1738,73
710,80	1730,53
710,99	1775,59
711,17	1777,64
711,35	1755,11
711,54	1683,43
711,72	1826,79
711,90	1712,10
712,09	1832,93
712,27	1642,47
712,45	1804,26
712,63	1693,67
712,82	1740,77
713,00	1693,67
713,18	1755,11
713,37	1824,74
713,55	1736,68
713,73	1669,09
713,91	1818,60
714,10	1765,35
714,28	1681,38
714,46	1789,92
714,65	1794,02
714,83	1775,59
715,01	1722,34
715,19	1722,34
715,38	1652,71
715,56	1746,92
715,74	1626,09
715,92	1671,14
716,11	1804,26
716,29	1650,66
716,47	1753,06
716,65	1685,48
716,84	1613,80
717,02	1652,71
717,20	1611,75
717,38	1804,26
717,57	1716,20
717,75	1765,35
717,93	1710,05
718,11	1714,15
718,30	1595,37
718,48	1748,97
718,66	1761,25
718,84	1789,92
719,03	1742,82
719,21	1691,62
719,39	1808,36
719,57	1732,58
719,75	1755,11
719,94	1685,48
720,12	1699,81
720,30	1724,39
720,48	1755,11
720,67	1734,63
720,85	1683,43
721,03	1640,42
721,21	1667,05
721,39	1714,15
721,58	1716,20
721,76	1771,49
721,94	1740,77
722,12	1775,59
722,30	1775,59
722,49	1755,11
722,67	1701,86
722,85	1648,61
723,03	1648,61
723,21	1726,44
723,40	1798,12
723,58	1765,35
723,76	1730,53
723,94	1828,84
724,12	1775,59
724,30	1796,07
724,49	1757,16
724,67	1708,01
724,85	1779,68
725,03	1638,38
725,21	1759,21
725,40	1800,16
725,58	1701,86
725,76	1783,78
725,94	1693,67
726,12	1605,61
726,30	1687,53
726,49	1759,21
726,67	1710,05
726,85	1720,29
727,03	1828,84
727,21	2066,40
727,39	3035,09
727,57	3786,69
727,76	4300,73
727,94	4579,26
728,12	4425,66
728,30	3780,55
728,48	2969,55
728,66	2691,03
728,84	2494,43
729,03	2232,29
729,21	2113,50
729,39	1964,00
729,57	1871,84
729,75	1759,21
729,93	1820,64
730,11	1689,57
730,30	1636,33
730,48	1718,25
730,66	1871,84
730,84	1857,51
731,02	1701,86
731,20	1683,43
731,38	1673,19
731,56	1714,15
731,74	1658,85
731,93	1773,54
732,11	1800,16
732,29	1685,48
732,47	1785,83
732,65	1755,11
732,83	1753,06
733,01	1753,06
733,19	1712,10
733,37	1759,21
733,56	1765,35
733,74	1669,09
733,92	1808,36
734,10	1675,24
734,28	1748,97
734,46	1636,33
734,64	1767,40
734,82	1669,09
735,00	1695,72
735,18	1673,19
735,36	1667,05
735,54	1691,62
735,73	1705,96
735,91	1751,01
736,09	1726,44
736,27	1724,39
736,45	1804,26
736,63	1628,14
736,81	1701,86
736,99	1765,35
737,17	1849,32
737,35	1716,20
737,53	1765,35
737,71	1681,38
737,89	1751,01
738,07	1697,77
738,25	1673,19
738,43	1658,85
738,61	1771,49
738,80	1603,56
738,98	1730,53
739,16	1650,66
739,34	1697,77
739,52	1804,26
739,70	1720,29
739,88	1730,53
740,06	1791,97
740,24	1607,66
740,42	1822,69
740,60	1599,46
740,78	1646,57
740,96	1662,95
741,14	1642,47
741,32	1740,77
741,50	1589,22
741,68	1832,93
741,86	1820,64
742,04	1652,71
742,22	1671,14
742,40	1775,59
742,58	1738,73
742,76	1748,97
742,94	1798,12
743,12	1722,34
743,30	1671,14
743,48	1738,73
743,66	1662,95
743,84	1740,77
744,02	1693,67
744,20	1722,34
744,38	1800,16
744,56	1675,24
744,74	1867,75
744,92	1771,49
745,10	1794,02
745,28	1712,10
745,46	1802,21
745,64	1738,73
745,82	1785,83
746,00	1773,54
746,18	1812,45
746,36	1662,95
746,54	1775,59
746,72	1705,96
746,90	1642,47
747,08	1800,16
747,26	1767,40
747,44	1742,82
747,62	1755,11
747,80	1763,30
747,98	1802,21
748,15	1732,58
748,33	1820,64
748,51	1716,20
748,69	1773,54
748,87	1595,37
749,05	1691,62
749,23	1667,05
749,41	1730,53
749,59	1646,57
749,77	1783,78
749,95	1802,21
750,13	1658,85
750,31	1751,01
750,49	1746,92
750,67	1708,01
750,85	1810,40
751,03	1738,73
751,20	1925,09
751,38	1708,01
751,56	1742,82
751,74	1734,63
751,92	1699,81
752,10	1703,91
752,28	1720,29
752,46	1705,96
752,64	1710,05
752,82	1785,83
753,00	1771,49
753,18	1693,67
753,35	1689,57
753,53	1789,92
753,71	1734,63
753,89	1785,83
754,07	1710,05
754,25	1718,25
754,43	1636,33
754,61	1595,37
754,79	1724,39
754,97	1740,77
755,14	1849,32
755,32	1703,91
755,50	1681,38
755,68	1734,63
755,86	1615,85
756,04	1699,81
756,22	1740,77
756,40	1757,16
756,57	1789,92
756,75	1779,68
756,93	1763,30
757,11	1744,87
757,29	1658,85
757,47	1673,19
757,65	1638,38
757,82	1648,61
758,00	1640,42
758,18	1691,62
758,36	1665,00
758,54	1746,92
758,72	1644,52
758,90	1757,16
759,07	1728,49
759,25	1697,77
759,43	1742,82
759,61	1697,77
759,79	2185,18
759,97	1796,07
760,15	1718,25
760,32	1705,96
760,50	1695,72
760,68	1804,26
760,86	1630,18
761,04	1753,06
761,22	1697,77
761,39	1781,73
761,57	1761,25
761,75	1665,00
761,93	1810,40
762,11	1710,05
762,28	1728,49
762,46	1654,76
762,64	1806,31
762,82	1652,71
763,00	1693,67
763,18	1820,64
763,35	1628,14
763,53	1753,06
763,71	1658,85
763,89	1738,73
764,07	1720,29
764,24	1714,15
764,42	1818,60
764,60	1624,04
764,78	1744,87
764,96	1808,36
765,13	1708,01
765,31	1718,25
765,49	1734,63
765,67	1691,62
765,84	1716,20
766,02	1691,62
766,20	1654,76
766,38	1763,30
766,56	1708,01
766,73	1757,16
766,91	1763,30
767,09	1718,25
767,27	1798,12
767,44	1689,57
767,62	1765,35
767,80	1718,25
767,98	1667,05
768,15	1763,30
768,33	1775,59
768,51	1759,21
768,69	1689,57
768,87	1740,77
769,04	1695,72
769,22	1859,56
769,40	1884,13
769,58	1896,42
769,75	1759,21
769,93	1834,98
770,11	1783,78
770,28	1675,24
770,46	1761,25
770,64	1718,25
770,82	1642,47
770,99	1656,81
771,17	1779,68
771,35	1689,57
771,53	1748,97
771,70	1681,38
771,88	1751,01
772,06	1654,76
772,23	1673,19
772,41	1787,88
772,59	1720,29
772,77	1658,85
772,94	1695,72
773,12	1708,01
773,30	1718,25
773,47	1673,19
773,65	1701,86
773,83	1800,16
774,01	1636,33
774,18	1595,37
774,36	1761,25
774,54	1648,61
774,71	1681,38
774,89	1601,51
775,07	1677,29
775,24	1648,61
775,42	1699,81
775,60	1800,16
775,78	1755,11
775,95	1626,09
776,13	1550,31
776,31	1576,94
776,48	1671,14
776,66	1796,07
776,84	1634,28
777,01	1763,30
777,19	1646,57
777,37	1734,63
777,54	1701,86
777,72	1822,69
777,90	1759,21
778,07	1718,25
778,25	1923,04
778,43	1837,03
778,60	1716,20
778,78	1824,74
778,96	1763,30
779,13	1697,77
779,31	1759,21
779,49	1689,57
779,66	1679,33
779,84	1705,96
780,01	1763,30
780,19	1703,91
780,37	1738,73
780,54	1693,67
780,72	1695,72
780,90	1740,77
781,07	1646,57
781,25	1683,43
781,43	1744,87
781,60	1632,23
781,78	1773,54
781,95	1701,86
782,13	1624,04
782,31	1726,44
782,48	1660,90
782,66	1722,34
782,83	1802,21
783,01	1748,97
783,19	1755,11
783,36	1662,95
783,54	1638,38
783,72	1759,21
783,89	1671,14
784,07	1662,95
784,24	1740,77
784,42	1843,17
784,60	1619,94
784,77	1757,16
784,95	1740,77
785,12	1652,71
785,30	1689,57
785,47	1693,67
785,65	1673,19
785,83	1716,20
786,00	1734,63
786,18	1732,58
786,35	1691,62
786,53	1679,33
786,71	1718,25
786,88	1816,55
787,06	1716,20
787,23	1724,39
787,41	1650,66
787,58	1771,49
787,76	1665,00
787,94	1761,25
788,11	1720,29
788,29	1665,00
788,46	1646,57
788,64	1662,95
788,81	1746,92
788,99	1695,72
789,16	1658,85
789,34	1656,81
789,52	1740,77
789,69	1691,62
789,87	1658,85
790,04	1685,48
790,22	1677,29
790,39	1920,99
790,57	1652,71
790,74	1738,73
790,92	1710,05
791,09	1658,85
791,27	1714,15
791,44	1804,26
791,62	1710,05
791,79	1738,73
791,97	1736,68
792,15	1875,94
792,32	1724,39
792,50	1804,26
792,67	1828,84
792,85	1804,26
793,02	1673,19
793,20	1701,86
793,37	1603,56
793,55	1804,26
793,72	1689,57
793,90	1755,11
794,07	1630,18
794,25	1656,81
794,42	1724,39
794,60	1673,19
794,77	1714,15
794,95	1767,40
795,12	1734,63
795,30	1796,07
795,47	1570,79
795,65	1853,41
795,82	1810,40
796,00	1685,48
796,17	1652,71
796,34	1671,14
796,52	1736,68
796,69	1720,29
796,87	1689,57
797,04	1740,77
797,22	1781,73
797,39	1634,28
797,57	1753,06
797,74	1775,59
797,92	1748,97
798,09	1673,19
798,27	1687,53
798,44	1722,34
798,62	1693,67
798,79	1765,35
798,96	1695,72
799,14	1687,53
799,31	1839,08
799,49	1601,51
799,66	1677,29
799,84	1708,01
800,01	1675,24
800,19	1748,97
800,36	1683,43
800,53	1732,58
800,71	1765,35
800,88	1816,55
801,06	1710,05
801,23	1728,49
801,41	1712,10
801,58	1705,96
801,75	1687,53
801,93	1804,26
802,10	1705,96
802,28	1603,56
802,45	1673,19
802,63	1748,97
802,80	1865,70
802,97	1691,62
803,15	1665,00
803,32	1662,95
803,50	1677,29
803,67	1751,01
803,84	1648,61
804,02	1734,63
804,19	1693,67
804,37	1511,40
804,54	1628,14
804,71	1638,38
804,89	1763,30
805,06	1701,86
805,24	1640,42
805,41	1646,57
805,58	1619,94
805,76	1802,21
805,93	1728,49
806,10	1779,68
806,28	1791,97
806,45	1763,30
806,63	1726,44
806,80	1712,10
806,97	1714,15
807,15	1728,49
807,32	1730,53
807,49	1751,01
807,67	1642,47
807,84	1681,38
808,01	1671,14
808,19	1843,17
808,36	1824,74
808,54	1675,24
808,71	1695,72
808,88	1724,39
809,06	1798,12
809,23	1783,78
809,40	1730,53
809,58	1753,06
809,75	1708,01
809,92	1630,18
810,10	1890,28
810,27	1783,78
810,44	1691,62
810,62	1806,31
810,79	1695,72
810,96	1724,39
811,14	1701,86
811,31	1742,82
811,48	1779,68
811,66	1714,15
811,83	1748,97
812,00	1667,05
812,18	1728,49
812,35	1851,36
812,52	1646,57
812,69	1699,81
812,87	1679,33
813,04	1705,96
813,21	1697,77
813,39	1738,73
813,56	1689,57
813,73	1820,64
813,91	1550,31
814,08	1738,73
814,25	1697,77
814,42	1650,66
814,60	1669,09
814,77	1665,00
814,94	1730,53
815,12	1716,20
815,29	1779,68
815,46	1685,48
815,63	1714,15
815,81	1730,53
815,98	1728,49
816,15	1742,82
816,33	1701,86
816,50	1679,33
816,67	1667,05
816,84	1695,72
817,02	1638,38
817,19	1748,97
817,36	1714,15
817,53	1730,53
817,71	1724,39
817,88	1789,92
818,05	1777,64
818,22	1712,10
818,40	1841,12
818,57	1746,92
818,74	1779,68
818,91	1718,25
819,09	1796,07
819,26	1845,22
819,43	1740,77
819,60	1722,34
819,78	1767,40
819,95	1806,31
820,12	1636,33
820,29	1816,55
820,47	1812,45
820,64	1714,15
820,81	1697,77
820,98	1660,90
821,15	1687,53
821,33	1837,03
821,50	1665,00
821,67	1691,62
821,84	1708,01
822,02	1849,32
822,19	1785,83
822,36	1689,57
822,53	1679,33
822,70	1718,25
822,88	1697,77
823,05	1744,87
823,22	1714,15
823,39	1818,60
823,56	1769,44
823,74	1828,84
823,91	1673,19
824,08	1718,25
824,25	1656,81
824,42	1773,54
824,60	1646,57
824,77	1693,67
824,94	1689,57
825,11	1751,01
825,28	1640,42
825,45	1759,21
825,63	1703,91
825,80	1677,29
825,97	1744,87
826,14	1708,01
826,31	1599,46
826,48	1785,83
826,66	1695,72
826,83	1718,25
827,00	1806,31
827,17	1673,19
827,34	1654,76
827,51	1648,61
827,69	1767,40
827,86	1658,85
828,03	1708,01
828,20	1722,34
828,37	1673,19
828,54	1718,25
828,71	1714,15
828,89	1773,54
829,06	1628,14
829,23	1796,07
829,40	1632,23
829,57	1671,14
829,74	1773,54
829,91	1724,39
830,09	1632,23
830,26	1759,21
830,43	1812,45
830,60	1683,43
830,77	1824,74
830,94	1832,93
831,11	1730,53
831,28	1628,14
831,46	1705,96
831,63	1718,25
831,80	1740,77
831,97	1675,24
832,14	1710,05
832,31	1794,02
832,48	1724,39
832,65	1806,31
832,82	1800,16
832,99	1742,82
833,17	1681,38
833,34	1787,88
833,51	1693,67
833,68	1638,38
833,85	1783,78
834,02	1673,19
834,19	1624,04
834,36	1656,81
834,53	1722,34
834,70	1748,97
834,87	1773,54
835,04	1746,92
835,22	1660,90
835,39	1714,15
835,56	1665,00
835,73	1710,05
835,90	1785,83
836,07	1697,77
836,24	1722,34
836,41	1740,77
836,58	1697,77
836,75	1722,34
836,92	1738,73
837,09	1753,06
837,26	1716,20
837,43	1765,35
837,60	1763,30
837,77	1783,78
837,94	1740,77
838,12	1748,97
838,29	1738,73
838,46	1681,38
838,63	1656,81
838,80	1773,54
838,97	1759,21
839,14	1732,58
839,31	1781,73
839,48	1802,21
839,65	1677,29
839,82	1791,97
839,99	1804,26
840,16	1726,44
840,33	1734,63
840,50	1736,68
840,67	1621,99
840,84	1566,70
841,01	1726,44
841,18	1615,85
841,35	1658,85
841,52	1775,59
841,69	1888,23
841,86	1734,63
842,03	1734,63
842,20	1779,68
842,37	1742,82
842,54	1738,73
842,71	1757,16
842,88	1691,62
843,05	1728,49
843,22	1736,68
843,39	1794,02
843,56	1642,47
843,73	1701,86
843,90	1712,10
844,07	1703,91
844,24	1771,49
844,41	1791,97
844,58	1640,42
844,75	1744,87
844,92	1703,91
845,09	1689,57
845,26	1722,34
845,43	1755,11
845,60	1687,53
845,77	1816,55
845,94	1724,39
846,10	1853,41
846,27	1648,61
846,44	1697,77
846,61	1673,19
846,78	1791,97
846,95	1693,67
847,12	1687,53
847,29	1591,27
847,46	1687,53
847,63	1755,11
847,80	1775,59
847,97	1732,58
848,14	1824,74
848,31	1708,01
848,48	1593,32
848,65	1665,00
848,82	1660,90
848,98	1900,52
849,15	1787,88
849,32	1732,58
849,49	1751,01
849,66	1693,67
849,83	1693,67
850,00	1585,13
850,17	1740,77
850,34	1636,33
850,51	1685,48
850,68	1677,29
850,85	1851,36
851,01	1767,40
851,18	1734,63
851,35	1728,49
851,52	1693,67
851,69	1808,36
851,86	1605,61
852,03	1757,16
852,20	1826,79
852,37	1738,73
852,53	1628,14
852,70	1718,25
852,87	1710,05
853,04	1732,58
853,21	1628,14
853,38	1783,78
853,55	1773,54
853,72	1859,56
853,89	1626,09
854,05	1644,52
854,22	1640,42
854,39	1656,81
854,56	1751,01
854,73	1810,40
854,90	1740,77
855,07	1726,44
855,23	1716,20
855,40	1689,57
855,57	1710,05
855,74	1648,61
855,91	1830,88
856,08	1675,24
856,25	1605,61
856,41	1814,50
856,58	1718,25
856,75	1732,58
856,92	1687,53
857,09	1824,74
857,26	1656,81
857,42	1669,09
857,59	1744,87
857,76	1673,19
857,93	1705,96
858,10	1771,49
858,27	1738,73
858,43	1675,24
858,60	1683,43
858,77	1652,71
858,94	1730,53
859,11	1730,53
859,27	1699,81
859,44	1728,49
859,61	1802,21
859,78	1718,25
859,95	1738,73
860,12	1667,05
860,28	1841,12
860,45	1834,98
860,62	1744,87
860,79	1769,44
860,95	1673,19
861,12	1689,57
861,29	1738,73
861,46	1658,85
861,63	1734,63
861,79	1767,40
861,96	1624,04
862,13	1642,47
862,30	1724,39
862,47	1662,95
862,63	1714,15
862,80	1748,97
862,97	1832,93
863,14	1740,77
863,30	1761,25
863,47	1583,08
863,64	1845,22
863,81	1804,26
863,97	1679,33
864,14	1789,92
864,31	1660,90
864,48	1734,63
864,65	1654,76
864,81	1699,81
864,98	1847,27
865,15	1757,16
865,32	1824,74
865,48	1814,50
865,65	1785,83
865,82	1732,58
865,98	1742,82
866,15	1771,49
866,32	1777,64
866,49	1656,81
866,65	1724,39
866,82	1746,92
866,99	1787,88
867,16	1679,33
867,32	1691,62
867,49	1746,92
867,66	1636,33
867,83	1660,90
867,99	1621,99
868,16	1740,77
868,33	1609,70
868,49	1714,15
868,66	1660,90
868,83	1753,06
868,99	1646,57
869,16	1646,57
869,33	1724,39
869,50	1732,58
869,66	1794,02
869,83	1708,01
870,00	1665,00
870,16	1693,67
870,33	1748,97
870,50	1767,40
870,66	1796,07
870,83	1855,46
871,00	1701,86
871,17	1673,19
871,33	1701,86
871,50	1667,05
871,67	1708,01
871,83	1624,04
872,00	1802,21
872,17	1699,81
872,33	1738,73
872,50	1785,83
872,67	1660,90
872,83	1689,57
873,00	1724,39
873,17	1773,54
873,33	1812,45
873,50	1763,30
873,67	1712,10
873,83	1710,05
874,00	1738,73
874,16	1791,97
874,33	1759,21
874,50	1701,86
874,66	1753,06
874,83	1746,92
875,00	1773,54
875,16	1681,38
875,33	1712,10
875,50	1644,52
875,66	1593,32
875,83	1779,68
875,99	1806,31
876,16	1779,68
876,33	1589,22
876,49	1755,11
876,66	1691,62
876,83	1679,33
876,99	1667,05
877,16	1728,49
877,32	1669,09
877,49	1673,19
877,66	1734,63
877,82	1791,97
877,99	1695,72
878,15	1765,35
878,32	1775,59
878,49	1677,29
878,65	1673,19
878,82	1853,41
878,98	1742,82
879,15	1744,87
879,32	1773,54
879,48	1714,15
879,65	1685,48
879,81	1601,51
879,98	1636,33
880,15	1636,33
880,31	1767,40
880,48	1613,80
880,64	1705,96
880,81	1667,05
880,97	1912,80
881,14	1810,40
881,31	1667,05
881,47	1892,32
881,64	1814,50
881,80	1572,84
881,97	1662,95
882,13	1726,44
882,30	1648,61
882,47	1646,57
882,63	1652,71
882,80	1681,38
882,96	1615,85
883,13	1777,64
883,29	1726,44
883,46	1675,24
883,62	1832,93
883,79	1675,24
883,95	1796,07
884,12	1697,77
884,29	1751,01
884,45	1732,58
884,62	1806,31
884,78	1685,48
884,95	1843,17
885,11	1734,63
885,28	1716,20
885,44	1703,91
885,61	1794,02
885,77	1814,50
885,94	1777,64
886,10	1681,38
886,27	1675,24
886,43	1837,03
886,60	1738,73
886,76	1714,15
886,93	1626,09
887,09	1718,25
887,26	1683,43
887,42	1748,97
887,59	1763,30
887,75	1810,40
887,92	1779,68
888,08	1728,49
888,25	1787,88
888,41	1687,53
888,58	1730,53
888,74	1605,61
888,91	1716,20
>>>>>End Processed Spectral Data<<<<<
