SpectraSuite Data File
++++++++++++++++++++++++++++++++++++
Date: Mon Jun 06 12:51:57 CEST 2016
User: root
Dark Spectrum Present: No
Reference Spectrum Present: No
Number of Sampled Component Spectra: 1
Spectrometers: USB4C02835
Integration Time (usec): 100000 (USB4C02835)
Spectra Averaged: 1 (USB4C02835)
Boxcar Smoothing: 0 (USB4C02835)
Correct for Electrical Dark: No (USB4C02835)
Strobe/Lamp Enabled: No (USB4C02835)
Correct for Detector Non-linearity: No (USB4C02835)
Correct for Stray Light: No (USB4C02835)
Number of Pixels in Processed Spectrum: 3648
>>>>>Begin Processed Spectral Data<<<<<
177,47	1560,55
177,69	1560,55
177,91	1560,55
178,13	1460,20
178,36	1509,35
178,58	1656,81
178,80	1722,34
179,02	1638,38
179,24	1648,61
179,46	1648,61
179,68	1724,39
179,90	1673,19
180,13	1689,57
180,35	1669,09
180,57	1710,05
180,79	1710,05
181,01	1716,20
181,23	1791,97
181,45	1773,54
181,67	1771,49
181,90	1705,96
182,12	1619,94
182,34	1658,85
182,56	1720,29
182,78	1630,18
183,00	1701,86
183,22	1689,57
183,44	1617,90
183,66	1841,12
183,89	1810,40
184,11	1716,20
184,33	1763,30
184,55	1796,07
184,77	1796,07
184,99	1660,90
185,21	1714,15
185,43	1859,56
185,65	1710,05
185,87	1730,53
186,10	1877,99
186,32	1859,56
186,54	1755,11
186,76	1712,10
186,98	1773,54
187,20	1714,15
187,42	1671,14
187,64	1708,01
187,86	1757,16
188,08	1705,96
188,30	1636,33
188,52	1677,29
188,75	1763,30
188,97	1763,30
189,19	1626,09
189,41	1595,37
189,63	1675,24
189,85	1714,15
190,07	1640,42
190,29	1599,46
190,51	1746,92
190,73	1632,23
190,95	1779,68
191,17	1632,23
191,39	1564,65
191,61	1800,16
191,84	1611,75
192,06	1728,49
192,28	1595,37
192,50	1914,85
192,72	1720,29
192,94	1757,16
193,16	1828,84
193,38	1767,40
193,60	1611,75
193,82	1718,25
194,04	1708,01
194,26	1759,21
194,48	1728,49
194,70	1681,38
194,92	1714,15
195,14	1785,83
195,36	1728,49
195,58	1642,47
195,80	1656,81
196,02	1650,66
196,24	1626,09
196,46	1791,97
196,69	1650,66
196,91	1804,26
197,13	1667,05
197,35	1697,77
197,57	1810,40
197,79	1783,78
198,01	1751,01
198,23	1726,44
198,45	1714,15
198,67	1636,33
198,89	1716,20
199,11	1716,20
199,33	1611,75
199,55	1599,46
199,77	1726,44
199,99	1738,73
200,21	1632,23
200,43	1665,00
200,65	1576,94
200,87	1642,47
201,09	1689,57
201,31	1738,73
201,53	1746,92
201,75	1771,49
201,97	1710,05
202,19	1740,77
202,41	1742,82
202,63	1832,93
202,85	1693,67
203,07	1718,25
203,29	1681,38
203,51	1648,61
203,73	1652,71
203,95	1816,55
204,17	1728,49
204,39	1820,64
204,61	1673,19
204,83	1691,62
205,05	1724,39
205,27	1757,16
205,49	1820,64
205,71	1652,71
205,93	1632,23
206,15	1703,91
206,37	1726,44
206,59	1705,96
206,81	1646,57
207,03	1646,57
207,25	1656,81
207,47	1722,34
207,69	1636,33
207,91	1785,83
208,13	1757,16
208,34	1687,53
208,56	1636,33
208,78	1728,49
209,00	1654,76
209,22	1687,53
209,44	1703,91
209,66	1652,71
209,88	1759,21
210,10	1681,38
210,32	1669,09
210,54	1794,02
210,76	1693,67
210,98	1705,96
211,20	1626,09
211,42	1689,57
211,64	1808,36
211,86	1714,15
212,08	1697,77
212,30	1746,92
212,52	1662,95
212,74	1705,96
212,96	1697,77
213,17	1734,63
213,39	1734,63
213,61	1726,44
213,83	1708,01
214,05	1589,22
214,27	1734,63
214,49	1642,47
214,71	1677,29
214,93	1757,16
215,15	1703,91
215,37	1761,25
215,59	1644,52
215,81	1763,30
216,03	1732,58
216,24	1640,42
216,46	1722,34
216,68	1650,66
216,90	1689,57
217,12	1734,63
217,34	1746,92
217,56	1703,91
217,78	1759,21
218,00	1861,60
218,22	1718,25
218,44	1765,35
218,66	1830,88
218,87	1867,75
219,09	1654,76
219,31	1751,01
219,53	1732,58
219,75	1648,61
219,97	1667,05
220,19	1708,01
220,41	1703,91
220,63	1787,88
220,85	1761,25
221,06	1669,09
221,28	1708,01
221,50	1751,01
221,72	1736,68
221,94	1714,15
222,16	1708,01
222,38	1767,40
222,60	1759,21
222,82	1675,24
223,03	1705,96
223,25	1640,42
223,47	1744,87
223,69	1779,68
223,91	1761,25
224,13	1701,86
224,35	1697,77
224,57	1724,39
224,78	1705,96
225,00	1689,57
225,22	1691,62
225,44	1763,30
225,66	1683,43
225,88	1705,96
226,10	1812,45
226,32	1695,72
226,53	1757,16
226,75	1634,28
226,97	1673,19
227,19	1654,76
227,41	1671,14
227,63	1705,96
227,85	1599,46
228,06	1705,96
228,28	1691,62
228,50	1738,73
228,72	1585,13
228,94	1683,43
229,16	1613,80
229,37	1685,48
229,59	1697,77
229,81	1732,58
230,03	1701,86
230,25	1589,22
230,47	1570,79
230,69	1644,52
230,90	1824,74
231,12	1638,38
231,34	1708,01
231,56	1777,64
231,78	1589,22
232,00	1710,05
232,21	1681,38
232,43	1701,86
232,65	1589,22
232,87	1716,20
233,09	1687,53
233,30	1589,22
233,52	1742,82
233,74	1714,15
233,96	1673,19
234,18	1691,62
234,40	1740,77
234,61	1816,55
234,83	1609,70
235,05	1628,14
235,27	1839,08
235,49	1769,44
235,70	1665,00
235,92	1777,64
236,14	1671,14
236,36	1828,84
236,58	1724,39
236,79	1798,12
237,01	1777,64
237,23	1730,53
237,45	1839,08
237,67	1665,00
237,88	1697,77
238,10	1796,07
238,32	1621,99
238,54	1665,00
238,76	1648,61
238,97	1667,05
239,19	1648,61
239,41	1791,97
239,63	1730,53
239,85	1732,58
240,06	1677,29
240,28	1677,29
240,50	1767,40
240,72	1667,05
240,93	1730,53
241,15	1708,01
241,37	1693,67
241,59	1828,84
241,81	1710,05
242,02	1683,43
242,24	1734,63
242,46	1742,82
242,68	1673,19
242,89	1685,48
243,11	1697,77
243,33	1787,88
243,55	1689,57
243,76	1662,95
243,98	1773,54
244,20	1710,05
244,42	1687,53
244,64	1697,77
244,85	1675,24
245,07	1656,81
245,29	1742,82
245,51	1763,30
245,72	1720,29
245,94	1796,07
246,16	1673,19
246,38	1710,05
246,59	1691,62
246,81	1626,09
247,03	1648,61
247,24	1726,44
247,46	1642,47
247,68	1716,20
247,90	1615,85
248,11	1572,84
248,33	1726,44
248,55	1714,15
248,77	1736,68
248,98	1724,39
249,20	1771,49
249,42	1714,15
249,64	1781,73
249,85	1726,44
250,07	1662,95
250,29	1726,44
250,50	1820,64
250,72	1693,67
250,94	1693,67
251,16	1828,84
251,37	1765,35
251,59	1699,81
251,81	1779,68
252,02	1761,25
252,24	1650,66
252,46	1804,26
252,68	1624,04
252,89	1619,94
253,11	1630,18
253,33	1755,11
253,54	1738,73
253,76	1568,74
253,98	1660,90
254,20	1677,29
254,41	1677,29
254,63	1710,05
254,85	1679,33
255,06	1734,63
255,28	1742,82
255,50	1695,72
255,71	1693,67
255,93	1601,51
256,15	1679,33
256,36	1722,34
256,58	1628,14
256,80	1771,49
257,02	1697,77
257,23	1722,34
257,45	1679,33
257,67	1652,71
257,88	1697,77
258,10	1689,57
258,32	1736,68
258,53	1773,54
258,75	1810,40
258,97	1712,10
259,18	1708,01
259,40	1699,81
259,62	1806,31
259,83	1765,35
260,05	1691,62
260,27	1931,23
260,48	1714,15
260,70	1726,44
260,92	1695,72
261,13	1691,62
261,35	1722,34
261,57	1716,20
261,78	1720,29
262,00	1695,72
262,22	1783,78
262,43	1656,81
262,65	1701,86
262,86	1634,28
263,08	1806,31
263,30	1712,10
263,51	1617,90
263,73	1691,62
263,95	1748,97
264,16	1662,95
264,38	1673,19
264,60	1726,44
264,81	1751,01
265,03	1804,26
265,25	1705,96
265,46	1687,53
265,68	1812,45
265,89	1734,63
266,11	1693,67
266,33	1734,63
266,54	1816,55
266,76	1714,15
266,98	1683,43
267,19	1773,54
267,41	1681,38
267,62	1681,38
267,84	1656,81
268,06	1748,97
268,27	1710,05
268,49	1757,16
268,70	1751,01
268,92	1681,38
269,14	1677,29
269,35	1593,32
269,57	1712,10
269,79	1716,20
270,00	1660,90
270,22	1726,44
270,43	1634,28
270,65	1685,48
270,87	1748,97
271,08	1708,01
271,30	1673,19
271,51	1763,30
271,73	1705,96
271,95	1765,35
272,16	1681,38
272,38	1767,40
272,59	1642,47
272,81	1673,19
273,02	1677,29
273,24	1673,19
273,46	1712,10
273,67	1714,15
273,89	1619,94
274,10	1734,63
274,32	1837,03
274,54	1761,25
274,75	1677,29
274,97	1703,91
275,18	1646,57
275,40	1691,62
275,61	1695,72
275,83	1734,63
276,05	1644,52
276,26	1667,05
276,48	1716,20
276,69	1724,39
276,91	1710,05
277,12	1767,40
277,34	1787,88
277,55	1791,97
277,77	1732,58
277,99	1740,77
278,20	1628,14
278,42	1636,33
278,63	1693,67
278,85	1628,14
279,06	1603,56
279,28	1712,10
279,49	1736,68
279,71	1789,92
279,93	1665,00
280,14	1728,49
280,36	1650,66
280,57	1767,40
280,79	1744,87
281,00	1703,91
281,22	1675,24
281,43	1701,86
281,65	1531,88
281,86	1685,48
282,08	1662,95
282,29	1755,11
282,51	1693,67
282,73	1585,13
282,94	1665,00
283,16	1740,77
283,37	1814,50
283,59	1722,34
283,80	1695,72
284,02	1748,97
284,23	1689,57
284,45	1628,14
284,66	1652,71
284,88	1683,43
285,09	1734,63
285,31	1746,92
285,52	1679,33
285,74	1636,33
285,95	1738,73
286,17	1724,39
286,38	1699,81
286,60	1671,14
286,81	1751,01
287,03	1685,48
287,24	1722,34
287,46	1769,44
287,67	1689,57
287,89	1773,54
288,10	1718,25
288,32	1693,67
288,53	1802,21
288,75	1732,58
288,96	1781,73
289,18	1701,86
289,39	1722,34
289,61	1744,87
289,82	1859,56
290,04	1847,27
290,25	1689,57
290,47	1624,04
290,68	1728,49
290,90	1701,86
291,11	1705,96
291,33	1763,30
291,54	1605,61
291,76	1710,05
291,97	1695,72
292,18	1746,92
292,40	1712,10
292,61	1656,81
292,83	1839,08
293,04	1705,96
293,26	1654,76
293,47	1777,64
293,69	1658,85
293,90	1724,39
294,12	1753,06
294,33	1693,67
294,55	1736,68
294,76	1718,25
294,97	1779,68
295,19	1855,46
295,40	1685,48
295,62	1665,00
295,83	1722,34
296,05	1642,47
296,26	1726,44
296,48	1669,09
296,69	1728,49
296,90	1740,77
297,12	1769,44
297,33	1783,78
297,55	1761,25
297,76	1789,92
297,98	1746,92
298,19	1738,73
298,41	1642,47
298,62	1609,70
298,83	1806,31
299,05	1652,71
299,26	1691,62
299,48	1716,20
299,69	1728,49
299,90	1734,63
300,12	1681,38
300,33	1763,30
300,55	1718,25
300,76	1755,11
300,98	1695,72
301,19	1753,06
301,40	1718,25
301,62	1726,44
301,83	1683,43
302,05	1681,38
302,26	1685,48
302,47	1615,85
302,69	1665,00
302,90	1689,57
303,12	1581,03
303,33	1806,31
303,54	1806,31
303,76	1677,29
303,97	1699,81
304,19	1830,88
304,40	1611,75
304,61	1724,39
304,83	1841,12
305,04	1705,96
305,26	1753,06
305,47	1744,87
305,68	1714,15
305,90	1650,66
306,11	1763,30
306,33	1769,44
306,54	1667,05
306,75	1556,46
306,97	1621,99
307,18	1669,09
307,39	1726,44
307,61	1656,81
307,82	1732,58
308,04	1699,81
308,25	1755,11
308,46	1738,73
308,68	1802,21
308,89	1734,63
309,10	1808,36
309,32	1646,57
309,53	1693,67
309,74	1701,86
309,96	1685,48
310,17	1787,88
310,39	1693,67
310,60	1738,73
310,81	1652,71
311,03	1703,91
311,24	1681,38
311,45	1763,30
311,67	1804,26
311,88	1736,68
312,09	1644,52
312,31	1685,48
312,52	1726,44
312,73	1665,00
312,95	1624,04
313,16	1665,00
313,37	1791,97
313,59	1832,93
313,80	1748,97
314,01	1744,87
314,23	1667,05
314,44	1712,10
314,65	1609,70
314,87	1652,71
315,08	1697,77
315,29	1681,38
315,51	1593,32
315,72	1693,67
315,93	1789,92
316,15	1736,68
316,36	1755,11
316,57	1669,09
316,79	1681,38
317,00	1689,57
317,21	1740,77
317,43	1687,53
317,64	1710,05
317,85	1695,72
318,07	1683,43
318,28	1634,28
318,49	1814,50
318,70	1910,75
318,92	1796,07
319,13	1748,97
319,34	1845,22
319,56	1730,53
319,77	1753,06
319,98	1794,02
320,20	1708,01
320,41	1789,92
320,62	1701,86
320,83	1609,70
321,05	1847,27
321,26	1722,34
321,47	1673,19
321,69	1763,30
321,90	1576,94
322,11	1626,09
322,32	1660,90
322,54	1818,60
322,75	1689,57
322,96	1798,12
323,18	1669,09
323,39	1669,09
323,60	1693,67
323,81	1697,77
324,03	1695,72
324,24	1726,44
324,45	1736,68
324,66	1648,61
324,88	1710,05
325,09	1806,31
325,30	1720,29
325,52	1699,81
325,73	1742,82
325,94	1654,76
326,15	1669,09
326,37	1650,66
326,58	1759,21
326,79	1765,35
327,00	1558,50
327,22	1689,57
327,43	1685,48
327,64	1681,38
327,85	1740,77
328,07	1751,01
328,28	1875,94
328,49	1595,37
328,70	1634,28
328,92	1599,46
329,13	1695,72
329,34	1703,91
329,55	1771,49
329,76	1730,53
329,98	1703,91
330,19	1777,64
330,40	1675,24
330,61	1738,73
330,83	1810,40
331,04	1681,38
331,25	1697,77
331,46	1644,52
331,68	1595,37
331,89	1736,68
332,10	1701,86
332,31	1574,89
332,52	1652,71
332,74	1710,05
332,95	1636,33
333,16	1681,38
333,37	1712,10
333,58	1675,24
333,80	1646,57
334,01	1576,94
334,22	1693,67
334,43	1650,66
334,64	1624,04
334,86	1601,51
335,07	1681,38
335,28	1748,97
335,49	1585,13
335,70	1767,40
335,92	1830,88
336,13	1832,93
336,34	1708,01
336,55	1755,11
336,76	1716,20
336,98	1572,84
337,19	1740,77
337,40	1816,55
337,61	1767,40
337,82	1644,52
338,04	1732,58
338,25	1632,23
338,46	1712,10
338,67	1740,77
338,88	1593,32
339,09	1624,04
339,31	1566,70
339,52	1662,95
339,73	1626,09
339,94	1675,24
340,15	1671,14
340,36	1595,37
340,58	1640,42
340,79	1677,29
341,00	1718,25
341,21	1644,52
341,42	1777,64
341,63	1695,72
341,85	1777,64
342,06	1703,91
342,27	1611,75
342,48	1771,49
342,69	1691,62
342,90	1656,81
343,12	1753,06
343,33	1691,62
343,54	1718,25
343,75	1744,87
343,96	1599,46
344,17	1652,71
344,38	1705,96
344,60	1646,57
344,81	1652,71
345,02	1738,73
345,23	1742,82
345,44	1855,46
345,65	1748,97
345,86	1787,88
346,07	1683,43
346,29	1638,38
346,50	1734,63
346,71	1689,57
346,92	1787,88
347,13	1736,68
347,34	1669,09
347,55	1665,00
347,76	1628,14
347,98	1693,67
348,19	1746,92
348,40	1834,98
348,61	1669,09
348,82	1806,31
349,03	1708,01
349,24	1746,92
349,45	1855,46
349,66	1660,90
349,88	1669,09
350,09	1626,09
350,30	1796,07
350,51	1765,35
350,72	1716,20
350,93	1695,72
351,14	1656,81
351,35	1761,25
351,56	1640,42
351,77	1689,57
351,99	1691,62
352,20	1789,92
352,41	1734,63
352,62	1570,79
352,83	1726,44
353,04	1716,20
353,25	1693,67
353,46	1763,30
353,67	1800,16
353,88	1636,33
354,09	1724,39
354,30	1665,00
354,52	1775,59
354,73	1798,12
354,94	1728,49
355,15	1654,76
355,36	1742,82
355,57	1658,85
355,78	1675,24
355,99	1632,23
356,20	1607,66
356,41	1759,21
356,62	1685,48
356,83	1646,57
357,04	1800,16
357,25	1597,42
357,46	1720,29
357,68	1708,01
357,89	1634,28
358,10	1734,63
358,31	1660,90
358,52	1689,57
358,73	1673,19
358,94	1638,38
359,15	1648,61
359,36	1722,34
359,57	1761,25
359,78	1714,15
359,99	1740,77
360,20	1685,48
360,41	1703,91
360,62	1767,40
360,83	1697,77
361,04	1660,90
361,25	1761,25
361,46	1830,88
361,67	1734,63
361,88	1755,11
362,09	1726,44
362,30	1767,40
362,51	1628,14
362,72	1685,48
362,93	1724,39
363,14	1785,83
363,35	1703,91
363,56	1681,38
363,78	1800,16
363,99	1861,60
364,20	1626,09
364,41	1720,29
364,62	1861,60
364,83	1748,97
365,04	1769,44
365,25	1751,01
365,46	1851,36
365,67	1722,34
365,88	1595,37
366,09	1699,81
366,30	1683,43
366,51	1734,63
366,72	1656,81
366,93	1708,01
367,14	1716,20
367,35	1781,73
367,56	1656,81
367,77	1763,30
367,98	1697,77
368,18	1708,01
368,39	1734,63
368,60	1595,37
368,81	1697,77
369,02	1742,82
369,23	1726,44
369,44	1615,85
369,65	1703,91
369,86	1734,63
370,07	1716,20
370,28	1656,81
370,49	1800,16
370,70	1773,54
370,91	1665,00
371,12	1667,05
371,33	1697,77
371,54	1689,57
371,75	1777,64
371,96	1578,98
372,17	1712,10
372,38	1714,15
372,59	1802,21
372,80	1689,57
373,01	1662,95
373,22	1742,82
373,43	1642,47
373,64	1621,99
373,85	1775,59
374,06	1767,40
374,26	1775,59
374,47	1673,19
374,68	1816,55
374,89	1789,92
375,10	1734,63
375,31	1783,78
375,52	1703,91
375,73	1703,91
375,94	1669,09
376,15	1763,30
376,36	1628,14
376,57	1675,24
376,78	1632,23
376,99	1703,91
377,20	1814,50
377,40	1650,66
377,61	1787,88
377,82	1712,10
378,03	1828,84
378,24	1738,73
378,45	1624,04
378,66	1763,30
378,87	1597,42
379,08	1699,81
379,29	1640,42
379,50	1732,58
379,71	1593,32
379,91	1652,71
380,12	1624,04
380,33	1751,01
380,54	1734,63
380,75	1644,52
380,96	1734,63
381,17	1775,59
381,38	1722,34
381,59	1763,30
381,80	1701,86
382,00	1851,36
382,21	1710,05
382,42	1701,86
382,63	1902,56
382,84	1804,26
383,05	1763,30
383,26	1806,31
383,47	1789,92
383,68	1761,25
383,88	1718,25
384,09	1667,05
384,30	1814,50
384,51	1736,68
384,72	1677,29
384,93	1701,86
385,14	1695,72
385,35	1820,64
385,55	1642,47
385,76	1781,73
385,97	1738,73
386,18	1691,62
386,39	1658,85
386,60	1681,38
386,81	1775,59
387,02	1714,15
387,22	1724,39
387,43	1755,11
387,64	1746,92
387,85	1847,27
388,06	2322,40
388,27	4282,30
388,48	7010,20
388,68	8419,20
388,89	9852,78
389,10	9928,55
389,31	8724,35
389,52	7563,15
389,73	6875,03
389,93	6373,28
390,14	5978,02
390,35	5248,94
390,56	4499,39
390,77	3901,38
390,98	3094,48
391,18	2537,43
391,39	2146,27
391,60	1851,36
391,81	1834,98
392,02	1738,73
392,23	1843,17
392,43	1800,16
392,64	1818,60
392,85	1687,53
393,06	1920,99
393,27	1691,62
393,47	1685,48
393,68	1746,92
393,89	1617,90
394,10	1742,82
394,31	1728,49
394,52	1636,33
394,72	1720,29
394,93	1822,69
395,14	1660,90
395,35	1771,49
395,56	1769,44
395,76	1781,73
395,97	1785,83
396,18	1847,27
396,39	1906,66
396,60	2064,35
396,80	1851,36
397,01	1910,75
397,22	1865,70
397,43	1824,74
397,64	1705,96
397,84	1880,04
398,05	1857,51
398,26	1679,33
398,47	1857,51
398,67	1757,16
398,88	1738,73
399,09	1740,77
399,30	1697,77
399,51	1818,60
399,71	1669,09
399,92	1705,96
400,13	1746,92
400,34	1640,42
400,54	1718,25
400,75	1783,78
400,96	1701,86
401,17	1822,69
401,37	1755,11
401,58	1757,16
401,79	1796,07
402,00	1892,32
402,21	2093,02
402,41	1970,15
402,62	2004,96
402,83	1988,58
403,04	1996,77
403,24	2136,03
403,45	1814,50
403,66	1918,95
403,87	1931,23
404,07	1886,18
404,28	1837,03
404,49	1818,60
404,70	1714,15
404,90	1763,30
405,11	1767,40
405,32	1759,21
405,52	1603,56
405,73	1748,97
405,94	1705,96
406,15	1638,38
406,35	1748,97
406,56	1675,24
406,77	1607,66
406,98	1759,21
407,18	1650,66
407,39	1798,12
407,60	1679,33
407,80	1734,63
408,01	1685,48
408,22	1718,25
408,43	1660,90
408,63	1724,39
408,84	1765,35
409,05	1787,88
409,25	1662,95
409,46	1611,75
409,67	1701,86
409,88	1640,42
410,08	1693,67
410,29	1613,80
410,50	1697,77
410,70	1763,30
410,91	1595,37
411,12	1730,53
411,32	1665,00
411,53	1699,81
411,74	1734,63
411,95	1708,01
412,15	1736,68
412,36	1748,97
412,57	1738,73
412,77	1832,93
412,98	1697,77
413,19	1687,53
413,39	1732,58
413,60	1765,35
413,81	1773,54
414,01	1648,61
414,22	1708,01
414,43	1791,97
414,63	1675,24
414,84	1693,67
415,05	1677,29
415,25	1650,66
415,46	1703,91
415,67	1656,81
415,87	1708,01
416,08	1718,25
416,29	1726,44
416,49	1771,49
416,70	1628,14
416,91	1718,25
417,11	1656,81
417,32	1779,68
417,53	1767,40
417,73	1742,82
417,94	1691,62
418,15	1724,39
418,35	1728,49
418,56	1693,67
418,77	1843,17
418,97	1699,81
419,18	1658,85
419,38	1607,66
419,59	1689,57
419,80	1822,69
420,00	1650,66
420,21	1656,81
420,42	1812,45
420,62	1710,05
420,83	1712,10
421,04	1685,48
421,24	1640,42
421,45	1757,16
421,65	1701,86
421,86	1671,14
422,07	1738,73
422,27	1701,86
422,48	1718,25
422,69	1566,70
422,89	1701,86
423,10	1673,19
423,30	1677,29
423,51	1716,20
423,72	1724,39
423,92	1804,26
424,13	1671,14
424,33	1722,34
424,54	1863,65
424,75	1732,58
424,95	1812,45
425,16	1699,81
425,36	1701,86
425,57	1705,96
425,78	1660,90
425,98	1773,54
426,19	1734,63
426,39	1611,75
426,60	1724,39
426,81	1839,08
427,01	1650,66
427,22	1679,33
427,42	1636,33
427,63	1677,29
427,83	1714,15
428,04	1779,68
428,25	1689,57
428,45	1812,45
428,66	1710,05
428,86	1646,57
429,07	1667,05
429,28	1718,25
429,48	1662,95
429,69	1673,19
429,89	1703,91
430,10	1689,57
430,30	1726,44
430,51	1730,53
430,71	1654,76
430,92	1718,25
431,13	1691,62
431,33	1720,29
431,54	1660,90
431,74	1771,49
431,95	1857,51
432,15	1644,52
432,36	1746,92
432,56	1765,35
432,77	1810,40
432,98	1818,60
433,18	1738,73
433,39	1722,34
433,59	1705,96
433,80	1837,03
434,00	1908,71
434,21	1685,48
434,41	1671,14
434,62	1863,65
434,82	1632,23
435,03	1705,96
435,23	1757,16
435,44	1667,05
435,64	1791,97
435,85	1810,40
436,06	1810,40
436,26	1748,97
436,47	1728,49
436,67	1671,14
436,88	1667,05
437,08	1736,68
437,29	1796,07
437,49	1728,49
437,70	1791,97
437,90	1724,39
438,11	1847,27
438,31	1808,36
438,52	1882,08
438,72	1816,55
438,93	1951,71
439,13	1775,59
439,34	1771,49
439,54	1724,39
439,75	1748,97
439,95	1810,40
440,16	1689,57
440,36	1767,40
440,57	1800,16
440,77	1734,63
440,98	1787,88
441,18	1757,16
441,39	1708,01
441,59	1697,77
441,80	1759,21
442,00	1757,16
442,21	1863,65
442,41	1695,72
442,62	1785,83
442,82	1681,38
443,02	1767,40
443,23	1787,88
443,43	1703,91
443,64	1767,40
443,84	1646,57
444,05	1865,70
444,25	1695,72
444,46	1636,33
444,66	1794,02
444,87	1877,99
445,07	1656,81
445,28	1777,64
445,48	1806,31
445,69	1748,97
445,89	1857,51
446,09	1773,54
446,30	2031,58
446,50	2721,75
446,71	3708,87
446,91	4319,17
447,12	4743,10
447,32	4868,02
447,53	4376,51
447,73	3905,48
447,93	3524,55
448,14	3475,40
448,34	3276,75
448,55	2836,44
448,75	2725,85
448,96	2705,37
449,16	2459,61
449,36	2246,62
449,57	2111,46
449,77	1857,51
449,98	1841,12
450,18	1806,31
450,39	1867,75
450,59	1765,35
450,79	1722,34
451,00	1695,72
451,20	1796,07
451,41	1736,68
451,61	1785,83
451,81	1763,30
452,02	1689,57
452,22	1742,82
452,43	1726,44
452,63	1734,63
452,84	1726,44
453,04	1710,05
453,24	1767,40
453,45	1634,28
453,65	1771,49
453,86	1744,87
454,06	1751,01
454,26	1699,81
454,47	1722,34
454,67	1808,36
454,87	1728,49
455,08	1732,58
455,28	1828,84
455,49	1730,53
455,69	1689,57
455,89	1802,21
456,10	1773,54
456,30	1636,33
456,51	1738,73
456,71	1796,07
456,91	1810,40
457,12	1773,54
457,32	1798,12
457,52	1726,44
457,73	1779,68
457,93	1777,64
458,14	1693,67
458,34	1621,99
458,54	1638,38
458,75	1730,53
458,95	1748,97
459,15	1730,53
459,36	1824,74
459,56	1728,49
459,76	1873,89
459,97	1759,21
460,17	1697,77
460,37	1851,36
460,58	1738,73
460,78	1720,29
460,99	1736,68
461,19	1677,29
461,39	1720,29
461,60	1648,61
461,80	1767,40
462,00	1755,11
462,21	1765,35
462,41	1765,35
462,61	1660,90
462,82	1632,23
463,02	1857,51
463,22	1738,73
463,43	1755,11
463,63	1748,97
463,83	1816,55
464,04	1728,49
464,24	1722,34
464,44	1697,77
464,64	1646,57
464,85	1740,77
465,05	1796,07
465,25	1767,40
465,46	1634,28
465,66	1746,92
465,86	1742,82
466,07	1703,91
466,27	1669,09
466,47	1613,80
466,68	1638,38
466,88	1847,27
467,08	1734,63
467,29	1744,87
467,49	1748,97
467,69	1779,68
467,89	1685,48
468,10	1685,48
468,30	1730,53
468,50	1730,53
468,71	1712,10
468,91	1628,14
469,11	1853,41
469,31	1687,53
469,52	1658,85
469,72	1814,50
469,92	1877,99
470,13	1726,44
470,33	1787,88
470,53	1783,78
470,73	2172,89
470,94	2281,44
471,14	2406,36
471,34	2527,19
471,54	2357,21
471,75	2283,49
471,95	2121,70
472,15	2050,02
472,36	2107,36
472,56	2023,39
472,76	2066,40
472,96	2031,58
473,17	1966,05
473,37	1939,43
473,57	1865,70
473,77	1824,74
473,98	1816,55
474,18	1669,09
474,38	1916,90
474,58	1681,38
474,79	1720,29
474,99	1767,40
475,19	1816,55
475,39	1669,09
475,60	1810,40
475,80	1701,86
476,00	1763,30
476,20	1705,96
476,41	1724,39
476,61	1808,36
476,81	1794,02
477,01	1738,73
477,21	1810,40
477,42	1814,50
477,62	1617,90
477,82	1767,40
478,02	1710,05
478,23	1757,16
478,43	1570,79
478,63	1632,23
478,83	1751,01
479,03	1722,34
479,24	1869,80
479,44	1884,13
479,64	1658,85
479,84	1605,61
480,04	1689,57
480,25	1755,11
480,45	1642,47
480,65	1716,20
480,85	1808,36
481,06	1701,86
481,26	1734,63
481,46	1818,60
481,66	1773,54
481,86	1611,75
482,06	1775,59
482,27	1757,16
482,47	1630,18
482,67	1710,05
482,87	1652,71
483,07	1755,11
483,28	1687,53
483,48	1601,51
483,68	1697,77
483,88	1673,19
484,08	1634,28
484,29	1718,25
484,49	1726,44
484,69	1660,90
484,89	1755,11
485,09	1673,19
485,29	1716,20
485,50	1740,77
485,70	1755,11
485,90	1779,68
486,10	1675,24
486,30	1699,81
486,50	1781,73
486,71	1791,97
486,91	1753,06
487,11	1843,17
487,31	1578,98
487,51	1777,64
487,71	1656,81
487,91	1644,52
488,12	1644,52
488,32	1624,04
488,52	1660,90
488,72	1607,66
488,92	1734,63
489,12	1755,11
489,32	1808,36
489,53	1726,44
489,73	1673,19
489,93	1796,07
490,13	1677,29
490,33	1669,09
490,53	1765,35
490,73	1826,79
490,94	1695,72
491,14	1787,88
491,34	1800,16
491,54	2140,13
491,74	2639,83
491,94	3043,28
492,14	3016,66
492,34	3098,58
492,54	2883,54
492,75	2574,30
492,95	2406,36
493,15	2406,36
493,35	2201,57
493,55	2301,92
493,75	2217,95
493,95	2144,22
494,15	2019,30
494,35	1953,76
494,56	1873,89
494,76	1736,68
494,96	1779,68
495,16	1740,77
495,36	1705,96
495,56	1757,16
495,76	1726,44
495,96	1638,38
496,16	1728,49
496,36	1820,64
496,56	1716,20
496,77	1738,73
496,97	1679,33
497,17	1865,70
497,37	1671,14
497,57	1771,49
497,77	1636,33
497,97	1656,81
498,17	1746,92
498,37	1683,43
498,57	1763,30
498,77	1685,48
498,97	1779,68
499,17	1775,59
499,38	1619,94
499,58	1701,86
499,78	1808,36
499,98	1779,68
500,18	1712,10
500,38	1642,47
500,58	1972,19
500,78	2519,00
500,98	4575,16
501,18	6025,12
501,38	6875,03
501,58	7204,75
501,78	6756,25
501,98	5660,59
502,18	5050,29
502,38	4485,05
502,58	4204,48
502,78	3772,36
502,98	3672,01
503,18	3481,55
503,38	3174,35
503,59	2803,67
503,79	2656,22
503,99	2510,81
504,19	2297,82
504,39	2336,73
504,59	2148,32
504,79	2068,45
504,99	2037,73
505,19	1910,75
505,39	1873,89
505,59	1972,19
505,79	1908,71
505,99	1871,84
506,19	1804,26
506,39	1910,75
506,59	1771,49
506,79	1779,68
506,99	1777,64
507,19	1804,26
507,39	1767,40
507,59	1689,57
507,79	1714,15
507,99	1708,01
508,19	1710,05
508,39	1691,62
508,59	1791,97
508,79	1877,99
508,99	1804,26
509,19	1615,85
509,39	1779,68
509,59	1742,82
509,79	1615,85
509,99	1802,21
510,19	1773,54
510,39	1763,30
510,59	1701,86
510,79	1746,92
510,99	1675,24
511,19	1732,58
511,39	1769,44
511,59	1748,97
511,79	1802,21
511,99	1771,49
512,19	1775,59
512,38	1740,77
512,58	1677,29
512,78	1824,74
512,98	1753,06
513,18	1791,97
513,38	1636,33
513,58	1779,68
513,78	1660,90
513,98	1753,06
514,18	1763,30
514,38	1689,57
514,58	1691,62
514,78	1658,85
514,98	1695,72
515,18	1787,88
515,38	1722,34
515,58	1814,50
515,78	1716,20
515,98	1748,97
516,18	1751,01
516,38	1701,86
516,57	1689,57
516,77	1652,71
516,97	1699,81
517,17	1740,77
517,37	1681,38
517,57	1796,07
517,77	1771,49
517,97	1671,14
518,17	1791,97
518,37	1746,92
518,57	1681,38
518,77	1683,43
518,97	1748,97
519,16	1812,45
519,36	1773,54
519,56	1652,71
519,76	1796,07
519,96	1697,77
520,16	1863,65
520,36	1640,42
520,56	1851,36
520,76	1724,39
520,96	1714,15
521,16	1798,12
521,35	1734,63
521,55	1810,40
521,75	1718,25
521,95	1693,67
522,15	1705,96
522,35	1583,08
522,55	1708,01
522,75	1673,19
522,95	1652,71
523,14	1615,85
523,34	1783,78
523,54	1775,59
523,74	1777,64
523,94	1767,40
524,14	1611,75
524,34	1779,68
524,54	1824,74
524,73	1693,67
524,93	1714,15
525,13	1761,25
525,33	1636,33
525,53	1875,94
525,73	1789,92
525,93	1763,30
526,13	1648,61
526,32	1744,87
526,52	1787,88
526,72	1718,25
526,92	1683,43
527,12	1689,57
527,32	1640,42
527,52	1701,86
527,71	1769,44
527,91	1759,21
528,11	1669,09
528,31	1636,33
528,51	1724,39
528,71	1753,06
528,90	1822,69
529,10	1853,41
529,30	1767,40
529,50	1656,81
529,70	1724,39
529,90	1767,40
530,09	1734,63
530,29	1777,64
530,49	1681,38
530,69	1841,12
530,89	1781,73
531,09	1812,45
531,28	1712,10
531,48	1783,78
531,68	1775,59
531,88	1726,44
532,08	1751,01
532,28	1613,80
532,47	1751,01
532,67	1718,25
532,87	1828,84
533,07	1703,91
533,27	1765,35
533,46	1732,58
533,66	1726,44
533,86	1683,43
534,06	1685,48
534,26	1761,25
534,45	1712,10
534,65	1753,06
534,85	1771,49
535,05	1724,39
535,25	1787,88
535,44	1599,46
535,64	1800,16
535,84	1779,68
536,04	1763,30
536,24	1677,29
536,43	1685,48
536,63	1824,74
536,83	1677,29
537,03	1677,29
537,22	1650,66
537,42	1615,85
537,62	1742,82
537,82	1699,81
538,02	1804,26
538,21	1816,55
538,41	1865,70
538,61	1787,88
538,81	1757,16
539,00	1751,01
539,20	1673,19
539,40	1736,68
539,60	1796,07
539,79	1865,70
539,99	1673,19
540,19	1648,61
540,39	1658,85
540,58	1767,40
540,78	1732,58
540,98	1675,24
541,18	1775,59
541,37	1722,34
541,57	1738,73
541,77	1738,73
541,97	1691,62
542,16	1654,76
542,36	1650,66
542,56	1814,50
542,76	1861,60
542,95	1755,11
543,15	1828,84
543,35	1796,07
543,54	1734,63
543,74	1691,62
543,94	1705,96
544,14	1761,25
544,33	1734,63
544,53	1765,35
544,73	1785,83
544,93	1665,00
545,12	1699,81
545,32	1722,34
545,52	1673,19
545,71	1673,19
545,91	1773,54
546,11	1689,57
546,30	1687,53
546,50	1675,24
546,70	1861,60
546,90	1734,63
547,09	1671,14
547,29	1738,73
547,49	1730,53
547,68	1761,25
547,88	1677,29
548,08	1765,35
548,27	2201,57
548,47	1656,81
548,67	1738,73
548,87	1744,87
549,06	1689,57
549,26	1771,49
549,46	1794,02
549,65	1705,96
549,85	1665,00
550,05	1859,56
550,24	1671,14
550,44	1742,82
550,64	1710,05
550,83	1779,68
551,03	1794,02
551,23	1773,54
551,42	1675,24
551,62	1710,05
551,82	1669,09
552,01	1613,80
552,21	1765,35
552,41	1767,40
552,60	1853,41
552,80	1849,32
553,00	1716,20
553,19	1751,01
553,39	1839,08
553,59	1710,05
553,78	1800,16
553,98	1820,64
554,17	1738,73
554,37	1744,87
554,57	1804,26
554,76	1691,62
554,96	1785,83
555,16	1771,49
555,35	1734,63
555,55	1759,21
555,75	1753,06
555,94	1869,80
556,14	1603,56
556,33	1732,58
556,53	1724,39
556,73	1791,97
556,92	1775,59
557,12	1781,73
557,32	1869,80
557,51	1816,55
557,71	1775,59
557,90	1787,88
558,10	1855,46
558,30	1722,34
558,49	1656,81
558,69	1671,14
558,88	1742,82
559,08	1812,45
559,28	1695,72
559,47	1773,54
559,67	1763,30
559,86	1822,69
560,06	1720,29
560,26	1675,24
560,45	1794,02
560,65	1669,09
560,84	1794,02
561,04	1683,43
561,24	1718,25
561,43	1765,35
561,63	1781,73
561,82	1748,97
562,02	1726,44
562,22	1699,81
562,41	1679,33
562,61	1722,34
562,80	1687,53
563,00	1882,08
563,19	1781,73
563,39	1710,05
563,59	1828,84
563,78	1648,61
563,98	1697,77
564,17	1755,11
564,37	1581,03
564,56	1685,48
564,76	1746,92
564,96	1802,21
565,15	1767,40
565,35	1806,31
565,54	1748,97
565,74	1871,84
565,93	1734,63
566,13	1734,63
566,32	1726,44
566,52	1759,21
566,71	1802,21
566,91	1761,25
567,11	1734,63
567,30	1662,95
567,50	1738,73
567,69	1777,64
567,89	1755,11
568,08	1779,68
568,28	1673,19
568,47	1714,15
568,67	1740,77
568,86	1748,97
569,06	1746,92
569,25	1736,68
569,45	1714,15
569,64	1787,88
569,84	1791,97
570,04	1800,16
570,23	1763,30
570,43	1728,49
570,62	1767,40
570,82	1867,75
571,01	1710,05
571,21	1791,97
571,40	1699,81
571,60	1796,07
571,79	1703,91
571,99	1728,49
572,18	1685,48
572,38	1773,54
572,57	1679,33
572,77	1837,03
572,96	1845,22
573,16	1796,07
573,35	1683,43
573,55	1845,22
573,74	1779,68
573,94	1708,01
574,13	1746,92
574,33	1857,51
574,52	1789,92
574,71	1703,91
574,91	1779,68
575,10	1626,09
575,30	1755,11
575,49	1734,63
575,69	1683,43
575,88	1781,73
576,08	1718,25
576,27	1865,70
576,47	1712,10
576,66	1834,98
576,86	1853,41
577,05	1744,87
577,25	1812,45
577,44	1888,23
577,64	1660,90
577,83	1839,08
578,02	1677,29
578,22	1841,12
578,41	1832,93
578,61	1746,92
578,80	1722,34
579,00	1685,48
579,19	1773,54
579,39	1796,07
579,58	1794,02
579,77	1726,44
579,97	1765,35
580,16	1755,11
580,36	1781,73
580,55	1824,74
580,75	1810,40
580,94	1751,01
581,13	1892,32
581,33	1861,60
581,52	1728,49
581,72	1804,26
581,91	1804,26
582,11	1816,55
582,30	1742,82
582,49	1738,73
582,69	1875,94
582,88	1763,30
583,08	1734,63
583,27	1808,36
583,47	1718,25
583,66	1734,63
583,85	1642,47
584,05	1755,11
584,24	1818,60
584,44	1761,25
584,63	1765,35
584,82	1798,12
585,02	1812,45
585,21	1796,07
585,41	1839,08
585,60	1789,92
585,79	1906,66
585,99	1863,65
586,18	1820,64
586,37	2181,09
586,57	3563,47
586,76	10125,16
586,96	25228,93
587,15	35464,67
587,34	41239,95
587,54	43228,52
587,73	37533,12
587,93	27127,39
588,12	22060,72
588,31	18546,40
588,51	16766,72
588,70	15556,37
588,89	14548,77
589,09	12945,21
589,28	11456,34
589,47	9488,24
589,67	8142,72
589,86	6395,81
590,06	5003,19
590,25	3985,35
590,44	3143,63
590,64	2527,19
590,83	2303,96
591,02	2097,12
591,22	2078,69
591,41	1951,71
591,60	1796,07
591,80	1955,81
591,99	1769,44
592,18	1763,30
592,38	1736,68
592,57	1724,39
592,76	1740,77
592,96	1820,64
593,15	1708,01
593,34	1802,21
593,54	1751,01
593,73	1810,40
593,92	1728,49
594,12	1767,40
594,31	1720,29
594,50	1818,60
594,70	1759,21
594,89	1882,08
595,08	1636,33
595,28	1802,21
595,47	1920,99
595,66	1765,35
595,86	1587,18
596,05	1697,77
596,24	1648,61
596,43	1826,79
596,63	1845,22
596,82	1701,86
597,01	1769,44
597,21	1802,21
597,40	1734,63
597,59	1695,72
597,79	1789,92
597,98	1740,77
598,17	1716,20
598,36	1716,20
598,56	1738,73
598,75	1734,63
598,94	1796,07
599,14	1773,54
599,33	1720,29
599,52	1810,40
599,71	1779,68
599,91	1771,49
600,10	1746,92
600,29	1816,55
600,48	1810,40
600,68	1746,92
600,87	1791,97
601,06	1675,24
601,26	1808,36
601,45	1740,77
601,64	1689,57
601,83	1837,03
602,03	1716,20
602,22	1710,05
602,41	1742,82
602,60	1861,60
602,80	1779,68
602,99	1736,68
603,18	1753,06
603,37	1771,49
603,57	1816,55
603,76	1757,16
603,95	1742,82
604,14	1746,92
604,34	1685,48
604,53	1751,01
604,72	1751,01
604,91	1781,73
605,10	1712,10
605,30	1646,57
605,49	1828,84
605,68	1820,64
605,87	1705,96
606,07	1673,19
606,26	1718,25
606,45	1730,53
606,64	1765,35
606,84	1665,00
607,03	1765,35
607,22	1765,35
607,41	1652,71
607,60	1712,10
607,80	1710,05
607,99	1705,96
608,18	1710,05
608,37	1763,30
608,56	1681,38
608,76	1794,02
608,95	1818,60
609,14	1648,61
609,33	1683,43
609,52	1755,11
609,72	1796,07
609,91	1746,92
610,10	1687,53
610,29	1755,11
610,48	1753,06
610,68	1740,77
610,87	1681,38
611,06	1773,54
611,25	1761,25
611,44	1718,25
611,63	1726,44
611,83	1794,02
612,02	1671,14
612,21	1824,74
612,40	1652,71
612,59	1587,18
612,79	1736,68
612,98	1771,49
613,17	1855,46
613,36	1681,38
613,55	1800,16
613,74	1660,90
613,93	1679,33
614,13	1673,19
614,32	1779,68
614,51	1759,21
614,70	1681,38
614,89	1683,43
615,08	1714,15
615,28	2039,78
615,47	1671,14
615,66	1781,73
615,85	1730,53
616,04	1865,70
616,23	1730,53
616,42	1710,05
616,62	1796,07
616,81	1736,68
617,00	1722,34
617,19	1748,97
617,38	1691,62
617,57	1628,14
617,76	1755,11
617,95	1734,63
618,15	1732,58
618,34	1757,16
618,53	1599,46
618,72	1880,04
618,91	1765,35
619,10	1837,03
619,29	1697,77
619,48	1763,30
619,68	1689,57
619,87	1699,81
620,06	1701,86
620,25	1800,16
620,44	1697,77
620,63	1658,85
620,82	1730,53
621,01	1783,78
621,20	1597,42
621,39	1767,40
621,59	1732,58
621,78	1726,44
621,97	1697,77
622,16	1816,55
622,35	1781,73
622,54	1746,92
622,73	1810,40
622,92	1636,33
623,11	1740,77
623,30	1708,01
623,49	1701,86
623,68	1695,72
623,88	1794,02
624,07	1697,77
624,26	1800,16
624,45	1779,68
624,64	1671,14
624,83	1761,25
625,02	1722,34
625,21	1681,38
625,40	1720,29
625,59	1751,01
625,78	1634,28
625,97	1798,12
626,16	1767,40
626,35	1714,15
626,54	1685,48
626,74	1779,68
626,93	1728,49
627,12	1691,62
627,31	1722,34
627,50	1806,31
627,69	1742,82
627,88	1601,51
628,07	1671,14
628,26	1665,00
628,45	1660,90
628,64	1681,38
628,83	1767,40
629,02	1705,96
629,21	1767,40
629,40	1796,07
629,59	1671,14
629,78	1699,81
629,97	1736,68
630,16	1765,35
630,35	1697,77
630,54	1685,48
630,73	1683,43
630,92	1693,67
631,11	1726,44
631,30	1699,81
631,49	1734,63
631,68	1720,29
631,87	1742,82
632,06	1613,80
632,25	1871,84
632,44	1736,68
632,63	1740,77
632,82	1656,81
633,01	1726,44
633,20	1714,15
633,39	1720,29
633,58	1576,94
633,77	1710,05
633,96	1748,97
634,15	1722,34
634,34	1806,31
634,53	1742,82
634,72	1685,48
634,91	1746,92
635,10	1849,32
635,29	1693,67
635,48	1691,62
635,67	1624,04
635,86	1621,99
636,05	1787,88
636,24	1800,16
636,43	1701,86
636,62	1761,25
636,81	1611,75
637,00	1665,00
637,19	1734,63
637,38	1720,29
637,57	1665,00
637,76	1691,62
637,95	1658,85
638,14	1671,14
638,33	1740,77
638,52	1683,43
638,71	1705,96
638,89	1644,52
639,08	1853,41
639,27	1736,68
639,46	1619,94
639,65	1783,78
639,84	1738,73
640,03	1751,01
640,22	1726,44
640,41	1849,32
640,60	1611,75
640,79	1687,53
640,98	1734,63
641,17	1791,97
641,36	1687,53
641,55	1738,73
641,74	1572,84
641,92	1736,68
642,11	1660,90
642,30	1746,92
642,49	1624,04
642,68	1703,91
642,87	1703,91
643,06	1746,92
643,25	1660,90
643,44	1648,61
643,63	1652,71
643,82	1820,64
644,00	1671,14
644,19	1759,21
644,38	1705,96
644,57	1718,25
644,76	1714,15
644,95	1751,01
645,14	1789,92
645,33	1687,53
645,52	1740,77
645,71	1574,89
645,89	1658,85
646,08	1804,26
646,27	1742,82
646,46	1888,23
646,65	1619,94
646,84	1691,62
647,03	1675,24
647,22	1757,16
647,40	1705,96
647,59	1695,72
647,78	1716,20
647,97	1681,38
648,16	1648,61
648,35	1738,73
648,54	1810,40
648,73	1705,96
648,91	1800,16
649,10	1732,58
649,29	1652,71
649,48	1705,96
649,67	1732,58
649,86	1765,35
650,05	1650,66
650,23	1773,54
650,42	1669,09
650,61	1728,49
650,80	1763,30
650,99	1886,18
651,18	1789,92
651,36	1746,92
651,55	1714,15
651,74	1705,96
651,93	1685,48
652,12	1730,53
652,31	1675,24
652,49	1638,38
652,68	1716,20
652,87	1839,08
653,06	1718,25
653,25	1806,31
653,44	1724,39
653,62	1796,07
653,81	1667,05
654,00	1742,82
654,19	1738,73
654,38	1861,60
654,56	1800,16
654,75	1714,15
654,94	1779,68
655,13	1712,10
655,32	1681,38
655,51	1695,72
655,69	1685,48
655,88	1814,50
656,07	1701,86
656,26	1710,05
656,45	1642,47
656,63	1787,88
656,82	1722,34
657,01	1791,97
657,20	1710,05
657,38	1781,73
657,57	1726,44
657,76	1583,08
657,95	1763,30
658,14	1687,53
658,32	1738,73
658,51	1691,62
658,70	1621,99
658,89	1734,63
659,08	1705,96
659,26	1804,26
659,45	1703,91
659,64	1761,25
659,83	1701,86
660,01	1886,18
660,20	1748,97
660,39	1837,03
660,58	1617,90
660,76	1746,92
660,95	1660,90
661,14	1685,48
661,33	1683,43
661,51	1695,72
661,70	1705,96
661,89	1728,49
662,08	1767,40
662,26	1662,95
662,45	1710,05
662,64	1744,87
662,83	1705,96
663,01	1660,90
663,20	1669,09
663,39	1777,64
663,58	1662,95
663,76	1699,81
663,95	1738,73
664,14	1714,15
664,32	1615,85
664,51	1683,43
664,70	1628,14
664,89	1785,83
665,07	1667,05
665,26	1746,92
665,45	1726,44
665,64	1765,35
665,82	1681,38
666,01	1753,06
666,20	1722,34
666,38	1771,49
666,57	1837,03
666,76	2123,74
666,95	4677,56
667,13	10938,20
667,32	15765,26
667,51	18388,71
667,69	19322,59
667,88	18061,04
668,07	12558,14
668,25	9734,00
668,44	8355,71
668,63	7538,57
668,81	7002,01
669,00	6379,42
669,19	5658,54
669,38	5142,45
669,56	4552,63
669,75	3911,62
669,94	3477,45
670,12	2920,40
670,31	2588,63
670,50	2297,82
670,68	2056,16
670,87	1853,41
671,06	1781,73
671,24	1812,45
671,43	1859,56
671,62	1818,60
671,80	1638,38
671,99	1748,97
672,18	1718,25
672,36	1722,34
672,55	1763,30
672,74	1701,86
672,92	1650,66
673,11	1804,26
673,29	1648,61
673,48	1685,48
673,67	1636,33
673,85	1730,53
674,04	1632,23
674,23	1808,36
674,41	1851,36
674,60	1734,63
674,79	1574,89
674,97	1767,40
675,16	1726,44
675,34	1804,26
675,53	1722,34
675,72	1742,82
675,90	1781,73
676,09	1644,52
676,28	1683,43
676,46	1570,79
676,65	1757,16
676,83	1638,38
677,02	1736,68
677,21	1714,15
677,39	1759,21
677,58	1634,28
677,77	1701,86
677,95	1689,57
678,14	1673,19
678,32	1726,44
678,51	1640,42
678,70	1865,70
678,88	1693,67
679,07	1722,34
679,25	1722,34
679,44	1681,38
679,63	1650,66
679,81	1751,01
680,00	1812,45
680,18	1755,11
680,37	1699,81
680,55	1634,28
680,74	1611,75
680,93	1599,46
681,11	1669,09
681,30	1751,01
681,48	1650,66
681,67	1597,42
681,85	1691,62
682,04	1673,19
682,23	1751,01
682,41	1777,64
682,60	1660,90
682,78	1755,11
682,97	1677,29
683,15	1714,15
683,34	1705,96
683,53	1738,73
683,71	1578,98
683,90	1808,36
684,08	1800,16
684,27	1734,63
684,45	1722,34
684,64	1796,07
684,82	1677,29
685,01	1714,15
685,19	1736,68
685,38	1865,70
685,57	1771,49
685,75	1701,86
685,94	1665,00
686,12	1613,80
686,31	1656,81
686,49	1781,73
686,68	1605,61
686,86	1675,24
687,05	1695,72
687,23	1853,41
687,42	1759,21
687,60	1609,70
687,79	1785,83
687,97	1806,31
688,16	1742,82
688,34	1738,73
688,53	1699,81
688,71	1724,39
688,90	1736,68
689,08	1636,33
689,27	1656,81
689,45	1800,16
689,64	1720,29
689,82	1732,58
690,01	1746,92
690,19	1667,05
690,38	1773,54
690,56	1791,97
690,75	1630,18
690,93	1722,34
691,12	1675,24
691,30	1742,82
691,49	1607,66
691,67	1689,57
691,86	1783,78
692,04	1724,39
692,23	1636,33
692,41	1738,73
692,60	1826,79
692,78	1751,01
692,97	1667,05
693,15	1798,12
693,34	1810,40
693,52	1742,82
693,71	1720,29
693,89	1708,01
694,08	1636,33
694,26	1779,68
694,44	1794,02
694,63	1732,58
694,81	1646,57
695,00	1714,15
695,18	1748,97
695,37	1849,32
695,55	1777,64
695,74	1669,09
695,92	1628,14
696,10	1742,82
696,29	1701,86
696,47	1656,81
696,66	1632,23
696,84	1673,19
697,03	1734,63
697,21	1841,12
697,40	2332,64
697,58	1767,40
697,76	1716,20
697,95	1740,77
698,13	1658,85
698,32	1636,33
698,50	1761,25
698,68	1787,88
698,87	1677,29
699,05	1771,49
699,24	1644,52
699,42	1716,20
699,61	1679,33
699,79	1712,10
699,97	1767,40
700,16	1632,23
700,34	1708,01
700,53	1685,48
700,71	1865,70
700,89	1785,83
701,08	1738,73
701,26	1697,77
701,45	2144,22
701,63	1656,81
701,81	1710,05
702,00	1708,01
702,18	1697,77
702,37	1720,29
702,55	1830,88
702,73	1685,48
702,92	1619,94
703,10	1701,86
703,28	1714,15
703,47	1599,46
703,65	1841,12
703,84	1693,67
704,02	1681,38
704,20	1785,83
704,39	1677,29
704,57	1708,01
704,75	1800,16
704,94	1798,12
705,12	1673,19
705,30	1785,83
705,49	2308,06
705,67	4579,26
705,86	9727,85
706,04	12982,07
706,22	15023,90
706,41	15685,39
706,59	14167,85
706,77	9848,68
706,96	7452,56
707,14	6778,78
707,32	6023,08
707,51	5648,30
707,69	4956,08
707,87	4372,41
708,06	3567,56
708,24	3000,27
708,42	2432,99
708,61	2189,28
708,79	1939,43
708,97	1841,12
709,16	1826,79
709,34	1734,63
709,52	1755,11
709,71	1689,57
709,89	1785,83
710,07	1638,38
710,26	1642,47
710,44	1667,05
710,62	1830,88
710,80	1703,91
710,99	1703,91
711,17	1837,03
711,35	1693,67
711,54	1611,75
711,72	1783,78
711,90	1718,25
712,09	1630,18
712,27	1648,61
712,45	1705,96
712,63	1703,91
712,82	1714,15
713,00	1619,94
713,18	1744,87
713,37	1705,96
713,55	1771,49
713,73	1705,96
713,91	1777,64
714,10	1669,09
714,28	1638,38
714,46	1753,06
714,65	1796,07
714,83	1755,11
715,01	1708,01
715,19	1773,54
715,38	1669,09
715,56	1765,35
715,74	1642,47
715,92	1722,34
716,11	1775,59
716,29	1615,85
716,47	1638,38
716,65	1718,25
716,84	1599,46
717,02	1677,29
717,20	1689,57
717,38	1650,66
717,57	1705,96
717,75	1714,15
717,93	1679,33
718,11	1744,87
718,30	1681,38
718,48	1714,15
718,66	1734,63
718,84	1728,49
719,03	1699,81
719,21	1607,66
719,39	1853,41
719,57	1699,81
719,75	1826,79
719,94	1665,00
720,12	1675,24
720,30	1693,67
720,48	1759,21
720,67	1728,49
720,85	1646,57
721,03	1685,48
721,21	1697,77
721,39	1673,19
721,58	1738,73
721,76	1722,34
721,94	1720,29
722,12	1720,29
722,30	1818,60
722,49	1753,06
722,67	1722,34
722,85	1695,72
723,03	1683,43
723,21	1619,94
723,40	1679,33
723,58	1740,77
723,76	1736,68
723,94	1773,54
724,12	1701,86
724,30	1814,50
724,49	1712,10
724,67	1640,42
724,85	1857,51
725,03	1615,85
725,21	1701,86
725,40	1701,86
725,58	1720,29
725,76	1714,15
725,94	1740,77
726,12	1679,33
726,30	1720,29
726,49	1689,57
726,67	1765,35
726,85	1724,39
727,03	1751,01
727,21	2152,42
727,39	2897,88
727,57	3780,55
727,76	4175,81
727,94	4470,72
728,12	4489,15
728,30	3698,63
728,48	2994,13
728,66	2797,53
728,84	2580,44
729,03	2275,29
729,21	2203,61
729,39	1931,23
729,57	1863,65
729,75	1791,97
729,93	1845,22
730,11	1705,96
730,30	1613,80
730,48	1687,53
730,66	1744,87
730,84	1748,97
731,02	1677,29
731,20	1714,15
731,38	1726,44
731,56	1691,62
731,74	1689,57
731,93	1632,23
732,11	1669,09
732,29	1669,09
732,47	1767,40
732,65	1734,63
732,83	1736,68
733,01	1722,34
733,19	1677,29
733,37	1654,76
733,56	1697,77
733,74	1671,14
733,92	1802,21
734,10	1716,20
734,28	1697,77
734,46	1708,01
734,64	1650,66
734,82	1697,77
735,00	1683,43
735,18	1591,27
735,36	1689,57
735,54	1679,33
735,73	1738,73
735,91	1691,62
736,09	1697,77
736,27	1720,29
736,45	1699,81
736,63	1646,57
736,81	1732,58
736,99	1759,21
737,17	1730,53
737,35	1714,15
737,53	1628,14
737,71	1679,33
737,89	1824,74
738,07	1677,29
738,25	1689,57
738,43	1681,38
738,61	1755,11
738,80	1621,99
738,98	1619,94
739,16	1652,71
739,34	1699,81
739,52	1802,21
739,70	1718,25
739,88	1771,49
740,06	1763,30
740,24	1611,75
740,42	1738,73
740,60	1632,23
740,78	1642,47
740,96	1638,38
741,14	1746,92
741,32	1685,48
741,50	1593,32
741,68	1855,46
741,86	1722,34
742,04	1722,34
742,22	1710,05
742,40	1691,62
742,58	1777,64
742,76	1617,90
742,94	1693,67
743,12	1572,84
743,30	1671,14
743,48	1685,48
743,66	1589,22
743,84	1767,40
744,02	1683,43
744,20	1665,00
744,38	1632,23
744,56	1642,47
744,74	1875,94
744,92	1771,49
745,10	1738,73
745,28	1697,77
745,46	1740,77
745,64	1724,39
745,82	1734,63
746,00	1722,34
746,18	1693,67
746,36	1665,00
746,54	1740,77
746,72	1730,53
746,90	1720,29
747,08	1763,30
747,26	1726,44
747,44	1787,88
747,62	1742,82
747,80	1775,59
747,98	1816,55
748,15	1685,48
748,33	1861,60
748,51	1726,44
748,69	1837,03
748,87	1708,01
749,05	1681,38
749,23	1699,81
749,41	1759,21
749,59	1648,61
749,77	1728,49
749,95	1738,73
750,13	1638,38
750,31	1748,97
750,49	1652,71
750,67	1791,97
750,85	1853,41
751,03	1619,94
751,20	1832,93
751,38	1714,15
751,56	1787,88
751,74	1677,29
751,92	1701,86
752,10	1578,98
752,28	1826,79
752,46	1658,85
752,64	1718,25
752,82	1648,61
753,00	1765,35
753,18	1716,20
753,35	1695,72
753,53	1724,39
753,71	1621,99
753,89	1744,87
754,07	1730,53
754,25	1667,05
754,43	1703,91
754,61	1632,23
754,79	1757,16
754,97	1722,34
755,14	1765,35
755,32	1607,66
755,50	1687,53
755,68	1777,64
755,86	1693,67
756,04	1695,72
756,22	1654,76
756,40	1769,44
756,57	1794,02
756,75	1697,77
756,93	1730,53
757,11	1783,78
757,29	1665,00
757,47	1705,96
757,65	1548,26
757,82	1583,08
758,00	1679,33
758,18	1679,33
758,36	1722,34
758,54	1705,96
758,72	1603,56
758,90	1746,92
759,07	1732,58
759,25	1648,61
759,43	1736,68
759,61	1619,94
759,79	2220,00
759,97	1691,62
760,15	1714,15
760,32	1681,38
760,50	1701,86
760,68	1841,12
760,86	1578,98
761,04	1767,40
761,22	1783,78
761,39	1796,07
761,57	1767,40
761,75	1658,85
761,93	1665,00
762,11	1714,15
762,28	1746,92
762,46	1626,09
762,64	1767,40
762,82	1673,19
763,00	1720,29
763,18	1783,78
763,35	1605,61
763,53	1695,72
763,71	1638,38
763,89	1736,68
764,07	1699,81
764,24	1630,18
764,42	1791,97
764,60	1691,62
764,78	1742,82
764,96	1783,78
765,13	1703,91
765,31	1751,01
765,49	1710,05
765,67	1724,39
765,84	1669,09
766,02	1722,34
766,20	1669,09
766,38	1716,20
766,56	1769,44
766,73	1724,39
766,91	1615,85
767,09	1662,95
767,27	1720,29
767,44	1630,18
767,62	1751,01
767,80	1724,39
767,98	1705,96
768,15	1710,05
768,33	1722,34
768,51	1794,02
768,69	1716,20
768,87	1763,30
769,04	1738,73
769,22	1775,59
769,40	1800,16
769,58	1824,74
769,75	1755,11
769,93	1755,11
770,11	1679,33
770,28	1679,33
770,46	1710,05
770,64	1705,96
770,82	1695,72
770,99	1701,86
771,17	1716,20
771,35	1714,15
771,53	1644,52
771,70	1665,00
771,88	1624,04
772,06	1636,33
772,23	1640,42
772,41	1751,01
772,59	1730,53
772,77	1628,14
772,94	1607,66
773,12	1742,82
773,30	1699,81
773,47	1744,87
773,65	1656,81
773,83	1787,88
774,01	1734,63
774,18	1519,59
774,36	1652,71
774,54	1587,18
774,71	1683,43
774,89	1570,79
775,07	1636,33
775,24	1595,37
775,42	1669,09
775,60	1769,44
775,78	1646,57
775,95	1595,37
776,13	1628,14
776,31	1619,94
776,48	1761,25
776,66	1732,58
776,84	1671,14
777,01	1675,24
777,19	1671,14
777,37	1714,15
777,54	1705,96
777,72	1822,69
777,90	1705,96
778,07	1673,19
778,25	1873,89
778,43	1751,01
778,60	1656,81
778,78	1710,05
778,96	1746,92
779,13	1654,76
779,31	1771,49
779,49	1693,67
779,66	1757,16
779,84	1718,25
780,01	1724,39
780,19	1607,66
780,37	1753,06
780,54	1740,77
780,72	1632,23
780,90	1683,43
781,07	1619,94
781,25	1730,53
781,43	1740,77
781,60	1703,91
781,78	1748,97
781,95	1740,77
782,13	1673,19
782,31	1767,40
782,48	1605,61
782,66	1679,33
782,83	1794,02
783,01	1669,09
783,19	1755,11
783,36	1699,81
783,54	1671,14
783,72	1685,48
783,89	1693,67
784,07	1703,91
784,24	1742,82
784,42	1845,22
784,60	1701,86
784,77	1742,82
784,95	1595,37
785,12	1716,20
785,30	1619,94
785,47	1656,81
785,65	1687,53
785,83	1665,00
786,00	1599,46
786,18	1771,49
786,35	1689,57
786,53	1648,61
786,71	1800,16
786,88	1748,97
787,06	1722,34
787,23	1646,57
787,41	1642,47
787,58	1708,01
787,76	1636,33
787,94	1619,94
788,11	1634,28
788,29	1642,47
788,46	1652,71
788,64	1652,71
788,81	1697,77
788,99	1646,57
789,16	1642,47
789,34	1648,61
789,52	1652,71
789,69	1677,29
789,87	1685,48
790,04	1714,15
790,22	1767,40
790,39	1779,68
790,57	1708,01
790,74	1712,10
790,92	1822,69
791,09	1656,81
791,27	1673,19
791,44	1691,62
791,62	1691,62
791,79	1742,82
791,97	1689,57
792,15	1931,23
792,32	1751,01
792,50	1722,34
792,67	1812,45
792,85	1771,49
793,02	1662,95
793,20	1714,15
793,37	1665,00
793,55	1708,01
793,72	1665,00
793,90	1710,05
794,07	1591,27
794,25	1660,90
794,42	1714,15
794,60	1740,77
794,77	1679,33
794,95	1689,57
795,12	1751,01
795,30	1697,77
795,47	1609,70
795,65	1867,75
795,82	1687,53
796,00	1609,70
796,17	1806,31
796,34	1720,29
796,52	1759,21
796,69	1701,86
796,87	1732,58
797,04	1681,38
797,22	1701,86
797,39	1763,30
797,57	1703,91
797,74	1736,68
797,92	1738,73
798,09	1726,44
798,27	1781,73
798,44	1716,20
798,62	1640,42
798,79	1757,16
798,96	1763,30
799,14	1644,52
799,31	1880,04
799,49	1617,90
799,66	1669,09
799,84	1722,34
800,01	1615,85
800,19	1755,11
800,36	1601,51
800,53	1728,49
800,71	1796,07
800,88	1744,87
801,06	1589,22
801,23	1675,24
801,41	1677,29
801,58	1640,42
801,75	1714,15
801,93	1742,82
802,10	1773,54
802,28	1691,62
802,45	1632,23
802,63	1757,16
802,80	1800,16
802,97	1669,09
803,15	1652,71
803,32	1550,31
803,50	1632,23
803,67	1683,43
803,84	1685,48
804,02	1685,48
804,19	1648,61
804,37	1523,69
804,54	1683,43
804,71	1648,61
804,89	1789,92
805,06	1740,77
805,24	1556,46
805,41	1685,48
805,58	1646,57
805,76	1822,69
805,93	1697,77
806,10	1877,99
806,28	1710,05
806,45	1697,77
806,63	1724,39
806,80	1771,49
806,97	1736,68
807,15	1740,77
807,32	1705,96
807,49	1738,73
807,67	1687,53
807,84	1699,81
808,01	1636,33
808,19	1726,44
808,36	1830,88
808,54	1738,73
808,71	1669,09
808,88	1724,39
809,06	1744,87
809,23	1720,29
809,40	1662,95
809,58	1705,96
809,75	1632,23
809,92	1675,24
810,10	1820,64
810,27	1662,95
810,44	1740,77
810,62	1783,78
810,79	1746,92
810,96	1642,47
811,14	1626,09
811,31	1679,33
811,48	1791,97
811,66	1724,39
811,83	1808,36
812,00	1685,48
812,18	1714,15
812,35	1873,89
812,52	1632,23
812,69	1720,29
812,87	1607,66
813,04	1669,09
813,21	1701,86
813,39	1642,47
813,56	1689,57
813,73	1720,29
813,91	1611,75
814,08	1665,00
814,25	1652,71
814,42	1624,04
814,60	1695,72
814,77	1683,43
814,94	1640,42
815,12	1685,48
815,29	1759,21
815,46	1681,38
815,63	1732,58
815,81	1658,85
815,98	1703,91
816,15	1662,95
816,33	1677,29
816,50	1656,81
816,67	1703,91
816,84	1665,00
817,02	1718,25
817,19	1714,15
817,36	1736,68
817,53	1673,19
817,71	1636,33
817,88	1673,19
818,05	1650,66
818,22	1644,52
818,40	1820,64
818,57	1693,67
818,74	1740,77
818,91	1708,01
819,09	1738,73
819,26	1814,50
819,43	1640,42
819,60	1708,01
819,78	1761,25
819,95	1787,88
820,12	1689,57
820,29	1777,64
820,47	1751,01
820,64	1685,48
820,81	1665,00
820,98	1675,24
821,15	1597,42
821,33	1724,39
821,50	1540,07
821,67	1701,86
821,84	1703,91
822,02	1722,34
822,19	1695,72
822,36	1738,73
822,53	1703,91
822,70	1646,57
822,88	1701,86
823,05	1779,68
823,22	1683,43
823,39	1660,90
823,56	1718,25
823,74	1763,30
823,91	1689,57
824,08	1650,66
824,25	1621,99
824,42	1769,44
824,60	1587,18
824,77	1726,44
824,94	1695,72
825,11	1722,34
825,28	1656,81
825,45	1699,81
825,63	1703,91
825,80	1648,61
825,97	1728,49
826,14	1732,58
826,31	1638,38
826,48	1683,43
826,66	1564,65
826,83	1667,05
827,00	1708,01
827,17	1681,38
827,34	1613,80
827,51	1638,38
827,69	1675,24
827,86	1624,04
828,03	1585,13
828,20	1722,34
828,37	1578,98
828,54	1710,05
828,71	1617,90
828,89	1683,43
829,06	1746,92
829,23	1763,30
829,40	1595,37
829,57	1617,90
829,74	1734,63
829,91	1693,67
830,09	1691,62
830,26	1687,53
830,43	1701,86
830,60	1722,34
830,77	1777,64
830,94	1732,58
831,11	1673,19
831,28	1701,86
831,46	1720,29
831,63	1720,29
831,80	1746,92
831,97	1665,00
832,14	1585,13
832,31	1818,60
832,48	1693,67
832,65	1767,40
832,82	1628,14
832,99	1710,05
833,17	1615,85
833,34	1718,25
833,51	1681,38
833,68	1701,86
833,85	1753,06
834,02	1648,61
834,19	1685,48
834,36	1662,95
834,53	1724,39
834,70	1701,86
834,87	1830,88
835,04	1736,68
835,22	1646,57
835,39	1677,29
835,56	1656,81
835,73	1693,67
835,90	1806,31
836,07	1652,71
836,24	1767,40
836,41	1660,90
836,58	1642,47
836,75	1839,08
836,92	1757,16
837,09	1712,10
837,26	1751,01
837,43	1685,48
837,60	1705,96
837,77	1677,29
837,94	1732,58
838,12	1759,21
838,29	1712,10
838,46	1626,09
838,63	1638,38
838,80	1732,58
838,97	1785,83
839,14	1642,47
839,31	1689,57
839,48	1771,49
839,65	1662,95
839,82	1701,86
839,99	1673,19
840,16	1687,53
840,33	1624,04
840,50	1693,67
840,67	1683,43
840,84	1591,27
841,01	1757,16
841,18	1667,05
841,35	1609,70
841,52	1779,68
841,69	1757,16
841,86	1699,81
842,03	1685,48
842,20	1730,53
842,37	1685,48
842,54	1669,09
842,71	1724,39
842,88	1617,90
843,05	1718,25
843,22	1628,14
843,39	1632,23
843,56	1656,81
843,73	1673,19
843,90	1695,72
844,07	1705,96
844,24	1691,62
844,41	1746,92
844,58	1691,62
844,75	1667,05
844,92	1746,92
845,09	1685,48
845,26	1671,14
845,43	1812,45
845,60	1632,23
845,77	1783,78
845,94	1777,64
846,10	1683,43
846,27	1671,14
846,44	1677,29
846,61	1689,57
846,78	1714,15
846,95	1767,40
847,12	1648,61
847,29	1677,29
847,46	1720,29
847,63	1724,39
847,80	1654,76
847,97	1662,95
848,14	1824,74
848,31	1679,33
848,48	1603,56
848,65	1705,96
848,82	1652,71
848,98	1796,07
849,15	1693,67
849,32	1798,12
849,49	1763,30
849,66	1648,61
849,83	1718,25
850,00	1611,75
850,17	1667,05
850,34	1632,23
850,51	1718,25
850,68	1691,62
850,85	1847,27
851,01	1791,97
851,18	1757,16
851,35	1726,44
851,52	1675,24
851,69	1822,69
851,86	1576,94
852,03	1603,56
852,20	1718,25
852,37	1718,25
852,53	1621,99
852,70	1658,85
852,87	1638,38
853,04	1746,92
853,21	1783,78
853,38	1800,16
853,55	1800,16
853,72	1763,30
853,89	1642,47
854,05	1675,24
854,22	1617,90
854,39	1724,39
854,56	1640,42
854,73	1628,14
854,90	1513,45
855,07	1691,62
855,23	1757,16
855,40	1658,85
855,57	1626,09
855,74	1626,09
855,91	1841,12
856,08	1701,86
856,25	1626,09
856,41	1734,63
856,58	1701,86
856,75	1769,44
856,92	1617,90
857,09	1718,25
857,26	1650,66
857,42	1650,66
857,59	1654,76
857,76	1632,23
857,93	1685,48
858,10	1708,01
858,27	1673,19
858,43	1695,72
858,60	1665,00
858,77	1613,80
858,94	1712,10
859,11	1705,96
859,27	1632,23
859,44	1724,39
859,61	1812,45
859,78	1720,29
859,95	1687,53
860,12	1714,15
860,28	1826,79
860,45	1753,06
860,62	1675,24
860,79	1708,01
860,95	1648,61
861,12	1697,77
861,29	1691,62
861,46	1642,47
861,63	1763,30
861,79	1781,73
861,96	1572,84
862,13	1642,47
862,30	1775,59
862,47	1611,75
862,63	1695,72
862,80	1763,30
862,97	1773,54
863,14	1697,77
863,30	1730,53
863,47	1677,29
863,64	1732,58
863,81	1734,63
863,97	1656,81
864,14	1724,39
864,31	1701,86
864,48	1744,87
864,65	1685,48
864,81	1746,92
864,98	1673,19
865,15	1742,82
865,32	1699,81
865,48	1804,26
865,65	1736,68
865,82	1589,22
865,98	1728,49
866,15	1763,30
866,32	1667,05
866,49	1650,66
866,65	1722,34
866,82	1656,81
866,99	1726,44
867,16	1781,73
867,32	1769,44
867,49	1683,43
867,66	1685,48
867,83	1679,33
867,99	1581,03
868,16	1738,73
868,33	1611,75
868,49	1730,53
868,66	1681,38
868,83	1769,44
868,99	1732,58
869,16	1687,53
869,33	1726,44
869,50	1636,33
869,66	1697,77
869,83	1718,25
870,00	1648,61
870,16	1796,07
870,33	1673,19
870,50	1726,44
870,66	1759,21
870,83	1775,59
871,00	1636,33
871,17	1662,95
871,33	1763,30
871,50	1716,20
871,67	1744,87
871,83	1570,79
872,00	1787,88
872,17	1689,57
872,33	1738,73
872,50	1755,11
872,67	1775,59
872,83	1695,72
873,00	1761,25
873,17	1697,77
873,33	1787,88
873,50	1710,05
873,67	1597,42
873,83	1703,91
874,00	1736,68
874,16	1777,64
874,33	1689,57
874,50	1591,27
874,66	1763,30
874,83	1681,38
875,00	1755,11
875,16	1728,49
875,33	1716,20
875,50	1566,70
875,66	1669,09
875,83	1763,30
875,99	1675,24
876,16	1708,01
876,33	1718,25
876,49	1681,38
876,66	1808,36
876,83	1681,38
876,99	1619,94
877,16	1599,46
877,32	1691,62
877,49	1669,09
877,66	1771,49
877,82	1841,12
877,99	1730,53
878,15	1705,96
878,32	1767,40
878,49	1681,38
878,65	1673,19
878,82	1697,77
878,98	1683,43
879,15	1746,92
879,32	1710,05
879,48	1748,97
879,65	1738,73
879,81	1722,34
879,98	1646,57
880,15	1615,85
880,31	1787,88
880,48	1701,86
880,64	1720,29
880,81	1652,71
880,97	1796,07
881,14	1667,05
881,31	1679,33
881,47	1898,47
881,64	1726,44
881,80	1708,01
881,97	1689,57
882,13	1816,55
882,30	1685,48
882,47	1581,03
882,63	1587,18
882,80	1748,97
882,96	1636,33
883,13	1716,20
883,29	1628,14
883,46	1710,05
883,62	1857,51
883,79	1656,81
883,95	1753,06
884,12	1744,87
884,29	1775,59
884,45	1736,68
884,62	1736,68
884,78	1695,72
884,95	1734,63
885,11	1673,19
885,28	1685,48
885,44	1605,61
885,61	1771,49
885,77	1767,40
885,94	1730,53
886,10	1595,37
886,27	1665,00
886,43	1763,30
886,60	1742,82
886,76	1697,77
886,93	1626,09
887,09	1726,44
887,26	1634,28
887,42	1718,25
887,59	1728,49
887,75	1851,36
887,92	1804,26
888,08	1798,12
888,25	1767,40
888,41	1716,20
888,58	1714,15
888,74	1669,09
888,91	1722,34
>>>>>End Processed Spectral Data<<<<<
