SpectraSuite Data File
++++++++++++++++++++++++++++++++++++
Date: Mon Jun 06 13:20:17 CEST 2016
User: root
Dark Spectrum Present: No
Reference Spectrum Present: No
Number of Sampled Component Spectra: 1
Spectrometers: USB4C02835
Integration Time (usec): 100000 (USB4C02835)
Spectra Averaged: 1 (USB4C02835)
Boxcar Smoothing: 0 (USB4C02835)
Correct for Electrical Dark: No (USB4C02835)
Strobe/Lamp Enabled: No (USB4C02835)
Correct for Detector Non-linearity: No (USB4C02835)
Correct for Stray Light: No (USB4C02835)
Number of Pixels in Processed Spectrum: 3648
>>>>>Begin Processed Spectral Data<<<<<
177,47	1380,33
177,69	1380,33
177,91	1380,33
178,13	1456,11
178,36	1460,20
178,58	1621,99
178,80	1710,05
179,02	1570,79
179,24	1693,67
179,46	1652,71
179,68	1765,35
179,90	1691,62
180,13	1632,23
180,35	1630,18
180,57	1771,49
180,79	1667,05
181,01	1673,19
181,23	1740,77
181,45	1775,59
181,67	1656,81
181,90	1740,77
182,12	1609,70
182,34	1660,90
182,56	1781,73
182,78	1714,15
183,00	1576,94
183,22	1759,21
183,44	1646,57
183,66	1820,64
183,89	1814,50
184,11	1728,49
184,33	1695,72
184,55	1742,82
184,77	1697,77
184,99	1705,96
185,21	1675,24
185,43	1820,64
185,65	1656,81
185,87	1722,34
186,10	1861,60
186,32	1845,22
186,54	1710,05
186,76	1738,73
186,98	1818,60
187,20	1757,16
187,42	1626,09
187,64	1675,24
187,86	1779,68
188,08	1767,40
188,30	1667,05
188,52	1613,80
188,75	1791,97
188,97	1794,02
189,19	1671,14
189,41	1638,38
189,63	1714,15
189,85	1753,06
190,07	1636,33
190,29	1642,47
190,51	1732,58
190,73	1636,33
190,95	1714,15
191,17	1681,38
191,39	1636,33
191,61	1679,33
191,84	1701,86
192,06	1644,52
192,28	1691,62
192,50	1845,22
192,72	1708,01
192,94	1642,47
193,16	1763,30
193,38	1669,09
193,60	1677,29
193,82	1683,43
194,04	1691,62
194,26	1722,34
194,48	1746,92
194,70	1636,33
194,92	1644,52
195,14	1708,01
195,36	1640,42
195,58	1753,06
195,80	1759,21
196,02	1701,86
196,24	1705,96
196,46	1724,39
196,69	1630,18
196,91	1910,75
197,13	1744,87
197,35	1652,71
197,57	1691,62
197,79	1691,62
198,01	1669,09
198,23	1710,05
198,45	1753,06
198,67	1642,47
198,89	1767,40
199,11	1685,48
199,33	1714,15
199,55	1568,74
199,77	1722,34
199,99	1699,81
200,21	1583,08
200,43	1722,34
200,65	1658,85
200,87	1562,60
201,09	1796,07
201,31	1609,70
201,53	1665,00
201,75	1718,25
201,97	1724,39
202,19	1689,57
202,41	1710,05
202,63	1853,41
202,85	1708,01
203,07	1796,07
203,29	1708,01
203,51	1566,70
203,73	1675,24
203,95	1855,46
204,17	1800,16
204,39	1816,55
204,61	1615,85
204,83	1677,29
205,05	1716,20
205,27	1685,48
205,49	1769,44
205,71	1710,05
205,93	1607,66
206,15	1630,18
206,37	1669,09
206,59	1628,14
206,81	1656,81
207,03	1609,70
207,25	1650,66
207,47	1748,97
207,69	1646,57
207,91	1808,36
208,13	1769,44
208,34	1734,63
208,56	1576,94
208,78	1679,33
209,00	1669,09
209,22	1675,24
209,44	1724,39
209,66	1685,48
209,88	1744,87
210,10	1708,01
210,32	1693,67
210,54	1761,25
210,76	1728,49
210,98	1722,34
211,20	1540,07
211,42	1789,92
211,64	1843,17
211,86	1681,38
212,08	1656,81
212,30	1763,30
212,52	1693,67
212,74	1742,82
212,96	1755,11
213,17	1765,35
213,39	1855,46
213,61	1791,97
213,83	1701,86
214,05	1667,05
214,27	1806,31
214,49	1609,70
214,71	1710,05
214,93	1812,45
215,15	1767,40
215,37	1699,81
215,59	1611,75
215,81	1773,54
216,03	1818,60
216,24	1718,25
216,46	1708,01
216,68	1693,67
216,90	1753,06
217,12	1777,64
217,34	1667,05
217,56	1638,38
217,78	1761,25
218,00	1736,68
218,22	1744,87
218,44	1730,53
218,66	1693,67
218,87	1834,98
219,09	1675,24
219,31	1695,72
219,53	1742,82
219,75	1732,58
219,97	1683,43
220,19	1712,10
220,41	1669,09
220,63	1802,21
220,85	1763,30
221,06	1617,90
221,28	1720,29
221,50	1744,87
221,72	1574,89
221,94	1734,63
222,16	1767,40
222,38	1800,16
222,60	1734,63
222,82	1716,20
223,03	1730,53
223,25	1578,98
223,47	1751,01
223,69	1851,36
223,91	1800,16
224,13	1685,48
224,35	1671,14
224,57	1652,71
224,78	1693,67
225,00	1570,79
225,22	1619,94
225,44	1746,92
225,66	1742,82
225,88	1742,82
226,10	1701,86
226,32	1703,91
226,53	1728,49
226,75	1654,76
226,97	1683,43
227,19	1699,81
227,41	1662,95
227,63	1665,00
227,85	1609,70
228,06	1740,77
228,28	1673,19
228,50	1777,64
228,72	1656,81
228,94	1617,90
229,16	1701,86
229,37	1677,29
229,59	1714,15
229,81	1748,97
230,03	1654,76
230,25	1581,03
230,47	1585,13
230,69	1607,66
230,90	1748,97
231,12	1699,81
231,34	1763,30
231,56	1769,44
231,78	1701,86
232,00	1769,44
232,21	1662,95
232,43	1644,52
232,65	1628,14
232,87	1714,15
233,09	1677,29
233,30	1607,66
233,52	1701,86
233,74	1687,53
233,96	1665,00
234,18	1746,92
234,40	1683,43
234,61	1888,23
234,83	1599,46
235,05	1624,04
235,27	1822,69
235,49	1746,92
235,70	1728,49
235,92	1722,34
236,14	1701,86
236,36	1828,84
236,58	1605,61
236,79	1742,82
237,01	1748,97
237,23	1744,87
237,45	1783,78
237,67	1732,58
237,88	1683,43
238,10	1837,03
238,32	1640,42
238,54	1669,09
238,76	1650,66
238,97	1687,53
239,19	1687,53
239,41	1654,76
239,63	1691,62
239,85	1677,29
240,06	1660,90
240,28	1636,33
240,50	1705,96
240,72	1728,49
240,93	1636,33
241,15	1732,58
241,37	1646,57
241,59	1804,26
241,81	1742,82
242,02	1693,67
242,24	1724,39
242,46	1751,01
242,68	1658,85
242,89	1671,14
243,11	1728,49
243,33	1712,10
243,55	1765,35
243,76	1732,58
243,98	1667,05
244,20	1736,68
244,42	1730,53
244,64	1652,71
244,85	1673,19
245,07	1576,94
245,29	1740,77
245,51	1701,86
245,72	1640,42
245,94	1771,49
246,16	1767,40
246,38	1673,19
246,59	1714,15
246,81	1583,08
247,03	1710,05
247,24	1595,37
247,46	1705,96
247,68	1667,05
247,90	1740,77
248,11	1576,94
248,33	1708,01
248,55	1656,81
248,77	1636,33
248,98	1783,78
249,20	1669,09
249,42	1732,58
249,64	1732,58
249,85	1748,97
250,07	1705,96
250,29	1751,01
250,50	1783,78
250,72	1675,24
250,94	1611,75
251,16	1804,26
251,37	1755,11
251,59	1779,68
251,81	1677,29
252,02	1794,02
252,24	1724,39
252,46	1681,38
252,68	1632,23
252,89	1665,00
253,11	1621,99
253,33	1812,45
253,54	1753,06
253,76	1644,52
253,98	1669,09
254,20	1730,53
254,41	1621,99
254,63	1609,70
254,85	1621,99
255,06	1619,94
255,28	1679,33
255,50	1679,33
255,71	1650,66
255,93	1677,29
256,15	1644,52
256,36	1671,14
256,58	1777,64
256,80	1665,00
257,02	1669,09
257,23	1710,05
257,45	1769,44
257,67	1785,83
257,88	1710,05
258,10	1695,72
258,32	1677,29
258,53	1705,96
258,75	1798,12
258,97	1673,19
259,18	1773,54
259,40	1667,05
259,62	1791,97
259,83	1822,69
260,05	1726,44
260,27	1959,91
260,48	1755,11
260,70	1662,95
260,92	1687,53
261,13	1751,01
261,35	1681,38
261,57	1673,19
261,78	1523,69
262,00	1712,10
262,22	1761,25
262,43	1669,09
262,65	1636,33
262,86	1626,09
263,08	1869,80
263,30	1699,81
263,51	1632,23
263,73	1636,33
263,95	1757,16
264,16	1648,61
264,38	1714,15
264,60	1763,30
264,81	1673,19
265,03	1738,73
265,25	1757,16
265,46	1679,33
265,68	1779,68
265,89	1683,43
266,11	1642,47
266,33	1744,87
266,54	1783,78
266,76	1671,14
266,98	1804,26
267,19	1736,68
267,41	1777,64
267,62	1665,00
267,84	1564,65
268,06	1671,14
268,27	1701,86
268,49	1779,68
268,70	1787,88
268,92	1675,24
269,14	1636,33
269,35	1605,61
269,57	1662,95
269,79	1767,40
270,00	1708,01
270,22	1783,78
270,43	1677,29
270,65	1701,86
270,87	1685,48
271,08	1796,07
271,30	1837,03
271,51	1652,71
271,73	1748,97
271,95	1759,21
272,16	1679,33
272,38	1691,62
272,59	1650,66
272,81	1675,24
273,02	1665,00
273,24	1765,35
273,46	1730,53
273,67	1591,27
273,89	1683,43
274,10	1685,48
274,32	1816,55
274,54	1681,38
274,75	1718,25
274,97	1697,77
275,18	1650,66
275,40	1683,43
275,61	1677,29
275,83	1763,30
276,05	1681,38
276,26	1699,81
276,48	1648,61
276,69	1648,61
276,91	1607,66
277,12	1822,69
277,34	1673,19
277,55	1783,78
277,77	1736,68
277,99	1697,77
278,20	1609,70
278,42	1640,42
278,63	1665,00
278,85	1675,24
279,06	1601,51
279,28	1667,05
279,49	1767,40
279,71	1746,92
279,93	1601,51
280,14	1705,96
280,36	1665,00
280,57	1748,97
280,79	1726,44
281,00	1665,00
281,22	1634,28
281,43	1726,44
281,65	1591,27
281,86	1630,18
282,08	1687,53
282,29	1818,60
282,51	1595,37
282,73	1642,47
282,94	1613,80
283,16	1691,62
283,37	1779,68
283,59	1699,81
283,80	1748,97
284,02	1603,56
284,23	1751,01
284,45	1703,91
284,66	1648,61
284,88	1683,43
285,09	1726,44
285,31	1726,44
285,52	1730,53
285,74	1554,41
285,95	1791,97
286,17	1716,20
286,38	1824,74
286,60	1726,44
286,81	1640,42
287,03	1642,47
287,24	1689,57
287,46	1697,77
287,67	1701,86
287,89	1781,73
288,10	1669,09
288,32	1724,39
288,53	1779,68
288,75	1761,25
288,96	1701,86
289,18	1669,09
289,39	1726,44
289,61	1718,25
289,82	1746,92
290,04	1740,77
290,25	1726,44
290,47	1716,20
290,68	1681,38
290,90	1722,34
291,11	1540,07
291,33	1667,05
291,54	1652,71
291,76	1662,95
291,97	1685,48
292,18	1738,73
292,40	1710,05
292,61	1613,80
292,83	1843,17
293,04	1718,25
293,26	1775,59
293,47	1642,47
293,69	1650,66
293,90	1681,38
294,12	1748,97
294,33	1701,86
294,55	1656,81
294,76	1761,25
294,97	1730,53
295,19	1787,88
295,40	1736,68
295,62	1665,00
295,83	1781,73
296,05	1609,70
296,26	1742,82
296,48	1699,81
296,69	1775,59
296,90	1789,92
297,12	1683,43
297,33	1759,21
297,55	1642,47
297,76	1736,68
297,98	1767,40
298,19	1683,43
298,41	1671,14
298,62	1710,05
298,83	1730,53
299,05	1722,34
299,26	1603,56
299,48	1642,47
299,69	1730,53
299,90	1765,35
300,12	1617,90
300,33	1775,59
300,55	1673,19
300,76	1738,73
300,98	1609,70
301,19	1757,16
301,40	1652,71
301,62	1609,70
301,83	1742,82
302,05	1638,38
302,26	1673,19
302,47	1703,91
302,69	1613,80
302,90	1652,71
303,12	1607,66
303,33	1746,92
303,54	1865,70
303,76	1599,46
303,97	1722,34
304,19	1812,45
304,40	1730,53
304,61	1744,87
304,83	1755,11
305,04	1751,01
305,26	1677,29
305,47	1597,42
305,68	1732,58
305,90	1617,90
306,11	1736,68
306,33	1714,15
306,54	1683,43
306,75	1626,09
306,97	1607,66
307,18	1615,85
307,39	1671,14
307,61	1695,72
307,82	1708,01
308,04	1703,91
308,25	1677,29
308,46	1675,24
308,68	1730,53
308,89	1738,73
309,10	1759,21
309,32	1767,40
309,53	1789,92
309,74	1718,25
309,96	1734,63
310,17	1839,08
310,39	1634,28
310,60	1671,14
310,81	1716,20
311,03	1628,14
311,24	1681,38
311,45	1650,66
311,67	1808,36
311,88	1673,19
312,09	1679,33
312,31	1695,72
312,52	1703,91
312,73	1718,25
312,95	1679,33
313,16	1660,90
313,37	1824,74
313,59	1714,15
313,80	1740,77
314,01	1738,73
314,23	1634,28
314,44	1595,37
314,65	1587,18
314,87	1617,90
315,08	1748,97
315,29	1697,77
315,51	1609,70
315,72	1642,47
315,93	1779,68
316,15	1834,98
316,36	1658,85
316,57	1683,43
316,79	1701,86
317,00	1650,66
317,21	1726,44
317,43	1761,25
317,64	1712,10
317,85	1671,14
318,07	1679,33
318,28	1658,85
318,49	1736,68
318,70	1916,90
318,92	1863,65
319,13	1857,51
319,34	1888,23
319,56	1734,63
319,77	1808,36
319,98	1765,35
320,20	1798,12
320,41	1683,43
320,62	1722,34
320,83	1765,35
321,05	1789,92
321,26	1716,20
321,47	1736,68
321,69	1738,73
321,90	1677,29
322,11	1724,39
322,32	1763,30
322,54	1746,92
322,75	1757,16
322,96	1892,32
323,18	1654,76
323,39	1687,53
323,60	1660,90
323,81	1685,48
324,03	1728,49
324,24	1642,47
324,45	1595,37
324,66	1671,14
324,88	1769,44
325,09	1781,73
325,30	1669,09
325,52	1734,63
325,73	1771,49
325,94	1677,29
326,15	1644,52
326,37	1705,96
326,58	1751,01
326,79	1787,88
327,00	1624,04
327,22	1689,57
327,43	1638,38
327,64	1660,90
327,85	1800,16
328,07	1691,62
328,28	1736,68
328,49	1685,48
328,70	1683,43
328,92	1652,71
329,13	1660,90
329,34	1693,67
329,55	1775,59
329,76	1742,82
329,98	1705,96
330,19	1796,07
330,40	1734,63
330,61	1722,34
330,83	1734,63
331,04	1632,23
331,25	1703,91
331,46	1710,05
331,68	1667,05
331,89	1812,45
332,10	1673,19
332,31	1597,42
332,52	1714,15
332,74	1773,54
332,95	1677,29
333,16	1636,33
333,37	1665,00
333,58	1624,04
333,80	1734,63
334,01	1595,37
334,22	1703,91
334,43	1748,97
334,64	1640,42
334,86	1628,14
335,07	1681,38
335,28	1779,68
335,49	1587,18
335,70	1720,29
335,92	1757,16
336,13	1845,22
336,34	1699,81
336,55	1691,62
336,76	1787,88
336,98	1710,05
337,19	1736,68
337,40	1828,84
337,61	1802,21
337,82	1644,52
338,04	1726,44
338,25	1662,95
338,46	1751,01
338,67	1777,64
338,88	1677,29
339,09	1648,61
339,31	1675,24
339,52	1589,22
339,73	1685,48
339,94	1632,23
340,15	1718,25
340,36	1665,00
340,58	1701,86
340,79	1628,14
341,00	1703,91
341,21	1607,66
341,42	1818,60
341,63	1679,33
341,85	1751,01
342,06	1736,68
342,27	1550,31
342,48	1761,25
342,69	1617,90
342,90	1656,81
343,12	1718,25
343,33	1665,00
343,54	1849,32
343,75	1736,68
343,96	1681,38
344,17	1724,39
344,38	1650,66
344,60	1615,85
344,81	1628,14
345,02	1726,44
345,23	1783,78
345,44	1787,88
345,65	1806,31
345,86	1765,35
346,07	1695,72
346,29	1656,81
346,50	1755,11
346,71	1699,81
346,92	1724,39
347,13	1830,88
347,34	1640,42
347,55	1644,52
347,76	1710,05
347,98	1576,94
348,19	1665,00
348,40	1687,53
348,61	1669,09
348,82	1796,07
349,03	1652,71
349,24	1660,90
349,45	1765,35
349,66	1591,27
349,88	1710,05
350,09	1656,81
350,30	1832,93
350,51	1806,31
350,72	1765,35
350,93	1759,21
351,14	1621,99
351,35	1648,61
351,56	1656,81
351,77	1728,49
351,99	1693,67
352,20	1820,64
352,41	1806,31
352,62	1568,74
352,83	1689,57
353,04	1673,19
353,25	1652,71
353,46	1775,59
353,67	1669,09
353,88	1636,33
354,09	1738,73
354,30	1763,30
354,52	1755,11
354,73	1693,67
354,94	1683,43
355,15	1685,48
355,36	1791,97
355,57	1640,42
355,78	1787,88
355,99	1667,05
356,20	1724,39
356,41	1746,92
356,62	1736,68
356,83	1652,71
357,04	1746,92
357,25	1611,75
357,46	1744,87
357,68	1566,70
357,89	1669,09
358,10	1683,43
358,31	1742,82
358,52	1615,85
358,73	1609,70
358,94	1687,53
359,15	1701,86
359,36	1726,44
359,57	1695,72
359,78	1716,20
359,99	1619,94
360,20	1601,51
360,41	1636,33
360,62	1705,96
360,83	1722,34
361,04	1648,61
361,25	1734,63
361,46	1742,82
361,67	1660,90
361,88	1724,39
362,09	1738,73
362,30	1665,00
362,51	1650,66
362,72	1720,29
362,93	1714,15
363,14	1697,77
363,35	1687,53
363,56	1710,05
363,78	1734,63
363,99	1800,16
364,20	1605,61
364,41	1716,20
364,62	1771,49
364,83	1685,48
365,04	1691,62
365,25	1755,11
365,46	1769,44
365,67	1654,76
365,88	1675,24
366,09	1767,40
366,30	1744,87
366,51	1650,66
366,72	1699,81
366,93	1624,04
367,14	1796,07
367,35	1771,49
367,56	1675,24
367,77	1748,97
367,98	1736,68
368,18	1730,53
368,39	1732,58
368,60	1685,48
368,81	1718,25
369,02	1650,66
369,23	1759,21
369,44	1671,14
369,65	1699,81
369,86	1701,86
370,07	1802,21
370,28	1665,00
370,49	1693,67
370,70	1642,47
370,91	1679,33
371,12	1662,95
371,33	1712,10
371,54	1644,52
371,75	1781,73
371,96	1574,89
372,17	1665,00
372,38	1677,29
372,59	1783,78
372,80	1755,11
373,01	1703,91
373,22	1726,44
373,43	1689,57
373,64	1607,66
373,85	1796,07
374,06	1771,49
374,26	1787,88
374,47	1673,19
374,68	1744,87
374,89	1679,33
375,10	1734,63
375,31	1767,40
375,52	1761,25
375,73	1726,44
375,94	1564,65
376,15	1775,59
376,36	1599,46
376,57	1624,04
376,78	1722,34
376,99	1669,09
377,20	1841,12
377,40	1658,85
377,61	1837,03
377,82	1656,81
378,03	1800,16
378,24	1742,82
378,45	1761,25
378,66	1724,39
378,87	1554,41
379,08	1621,99
379,29	1630,18
379,50	1708,01
379,71	1671,14
379,91	1744,87
380,12	1695,72
380,33	1722,34
380,54	1693,67
380,75	1665,00
380,96	1611,75
381,17	1722,34
381,38	1679,33
381,59	1722,34
381,80	1724,39
382,00	1861,60
382,21	1806,31
382,42	1740,77
382,63	1789,92
382,84	1744,87
383,05	1781,73
383,26	1763,30
383,47	1662,95
383,68	1763,30
383,88	1763,30
384,09	1693,67
384,30	1824,74
384,51	1726,44
384,72	1689,57
384,93	1593,32
385,14	1732,58
385,35	1787,88
385,55	1585,13
385,76	1808,36
385,97	1660,90
386,18	1574,89
386,39	1705,96
386,60	1701,86
386,81	1705,96
387,02	1658,85
387,22	1632,23
387,43	1755,11
387,64	1808,36
387,85	1871,84
388,06	2125,79
388,27	4188,10
388,48	6784,92
388,68	8152,96
388,89	9670,51
389,10	9944,94
389,31	8675,20
389,52	7630,73
389,73	6723,48
389,93	6246,30
390,14	5894,05
390,35	5173,17
390,56	4581,31
390,77	3817,41
390,98	3059,67
391,18	2496,47
391,39	2191,33
391,60	1869,80
391,81	1769,44
392,02	1785,83
392,23	1865,70
392,43	1665,00
392,64	1787,88
392,85	1775,59
393,06	1767,40
393,27	1716,20
393,47	1677,29
393,68	1771,49
393,89	1646,57
394,10	1740,77
394,31	1603,56
394,52	1607,66
394,72	1714,15
394,93	1812,45
395,14	1642,47
395,35	1767,40
395,56	1634,28
395,76	1722,34
395,97	1726,44
396,18	1832,93
396,39	1808,36
396,60	2062,30
396,80	1906,66
397,01	1806,31
397,22	1861,60
397,43	1826,79
397,64	1804,26
397,84	1861,60
398,05	1816,55
398,26	1722,34
398,47	1789,92
398,67	1783,78
398,88	1738,73
399,09	1751,01
399,30	1703,91
399,51	1779,68
399,71	1595,37
399,92	1775,59
400,13	1765,35
400,34	1740,77
400,54	1712,10
400,75	1814,50
400,96	1755,11
401,17	1763,30
401,37	1728,49
401,58	1785,83
401,79	1689,57
402,00	1906,66
402,21	2072,54
402,41	2004,96
402,62	1933,28
402,83	2068,45
403,04	1945,57
403,24	1990,63
403,45	1773,54
403,66	1857,51
403,87	1914,85
404,07	1857,51
404,28	1947,62
404,49	1818,60
404,70	1783,78
404,90	1748,97
405,11	1726,44
405,32	1773,54
405,52	1636,33
405,73	1673,19
405,94	1654,76
406,15	1714,15
406,35	1755,11
406,56	1867,75
406,77	1730,53
406,98	1650,66
407,18	1574,89
407,39	1875,94
407,60	1730,53
407,80	1763,30
408,01	1730,53
408,22	1724,39
408,43	1685,48
408,63	1808,36
408,84	1740,77
409,05	1716,20
409,25	1624,04
409,46	1691,62
409,67	1652,71
409,88	1644,52
410,08	1667,05
410,29	1712,10
410,50	1730,53
410,70	1665,00
410,91	1656,81
411,12	1673,19
411,32	1687,53
411,53	1701,86
411,74	1738,73
411,95	1800,16
412,15	1724,39
412,36	1726,44
412,57	1710,05
412,77	1798,12
412,98	1718,25
413,19	1673,19
413,39	1775,59
413,60	1814,50
413,81	1873,89
414,01	1591,27
414,22	1789,92
414,43	1757,16
414,63	1720,29
414,84	1771,49
415,05	1734,63
415,25	1646,57
415,46	1794,02
415,67	1646,57
415,87	1722,34
416,08	1675,24
416,29	1744,87
416,49	1728,49
416,70	1669,09
416,91	1681,38
417,11	1712,10
417,32	1753,06
417,53	1769,44
417,73	1722,34
417,94	1679,33
418,15	1753,06
418,35	1644,52
418,56	1714,15
418,77	1812,45
418,97	1669,09
419,18	1648,61
419,38	1646,57
419,59	1673,19
419,80	1751,01
420,00	1679,33
420,21	1708,01
420,42	1789,92
420,62	1695,72
420,83	1607,66
421,04	1714,15
421,24	1615,85
421,45	1732,58
421,65	1726,44
421,86	1685,48
422,07	1718,25
422,27	1781,73
422,48	1685,48
422,69	1609,70
422,89	1720,29
423,10	1742,82
423,30	1636,33
423,51	1740,77
423,72	1677,29
423,92	1730,53
424,13	1617,90
424,33	1824,74
424,54	1736,68
424,75	1656,81
424,95	1816,55
425,16	1708,01
425,36	1658,85
425,57	1753,06
425,78	1603,56
425,98	1753,06
426,19	1671,14
426,39	1703,91
426,60	1644,52
426,81	1767,40
427,01	1679,33
427,22	1667,05
427,42	1675,24
427,63	1732,58
427,83	1683,43
428,04	1736,68
428,25	1751,01
428,45	1751,01
428,66	1791,97
428,86	1755,11
429,07	1660,90
429,28	1669,09
429,48	1677,29
429,69	1599,46
429,89	1710,05
430,10	1607,66
430,30	1724,39
430,51	1791,97
430,71	1705,96
430,92	1566,70
431,13	1644,52
431,33	1736,68
431,54	1755,11
431,74	1789,92
431,95	1796,07
432,15	1660,90
432,36	1681,38
432,56	1775,59
432,77	1882,08
432,98	1855,46
433,18	1695,72
433,39	1652,71
433,59	1658,85
433,80	1763,30
434,00	1873,89
434,21	1716,20
434,41	1638,38
434,62	1863,65
434,82	1634,28
435,03	1726,44
435,23	1703,91
435,44	1519,59
435,64	1708,01
435,85	1705,96
436,06	1849,32
436,26	1703,91
436,47	1669,09
436,67	1728,49
436,88	1744,87
437,08	1720,29
437,29	1832,93
437,49	1751,01
437,70	1740,77
437,90	1628,14
438,11	1863,65
438,31	1796,07
438,52	1867,75
438,72	1841,12
438,93	1830,88
439,13	1738,73
439,34	1798,12
439,54	1742,82
439,75	1708,01
439,95	1738,73
440,16	1658,85
440,36	1714,15
440,57	1767,40
440,77	1699,81
440,98	1742,82
441,18	1710,05
441,39	1718,25
441,59	1630,18
441,80	1802,21
442,00	1763,30
442,21	1880,04
442,41	1648,61
442,62	1783,78
442,82	1681,38
443,02	1783,78
443,23	1755,11
443,43	1753,06
443,64	1826,79
443,84	1695,72
444,05	1689,57
444,25	1712,10
444,46	1748,97
444,66	1730,53
444,87	1830,88
445,07	1660,90
445,28	1667,05
445,48	1796,07
445,69	1808,36
445,89	1822,69
446,09	1787,88
446,30	2023,39
446,50	2627,54
446,71	3749,83
446,91	4136,90
447,12	4681,66
447,32	4796,34
447,53	4270,01
447,73	3780,55
447,93	3454,92
448,14	3209,17
448,34	3217,36
448,55	2846,68
448,75	2836,44
448,96	2637,78
449,16	2418,65
449,36	2279,39
449,57	2072,54
449,77	1796,07
449,98	1824,74
450,18	1841,12
450,39	1841,12
450,59	1861,60
450,79	1701,86
451,00	1683,43
451,20	1810,40
451,41	1654,76
451,61	1730,53
451,81	1791,97
452,02	1738,73
452,22	1648,61
452,43	1732,58
452,63	1652,71
452,84	1642,47
453,04	1701,86
453,24	1761,25
453,45	1642,47
453,65	1646,57
453,86	1662,95
454,06	1834,98
454,26	1736,68
454,47	1679,33
454,67	1761,25
454,87	1732,58
455,08	1691,62
455,28	1740,77
455,49	1744,87
455,69	1638,38
455,89	1773,54
456,10	1816,55
456,30	1708,01
456,51	1761,25
456,71	1703,91
456,91	1769,44
457,12	1820,64
457,32	1744,87
457,52	1710,05
457,73	1742,82
457,93	1734,63
458,14	1720,29
458,34	1687,53
458,54	1693,67
458,75	1681,38
458,95	1798,12
459,15	1767,40
459,36	1697,77
459,56	1689,57
459,76	1884,13
459,97	1718,25
460,17	1751,01
460,37	1767,40
460,58	1689,57
460,78	1798,12
460,99	1687,53
461,19	1687,53
461,39	1703,91
461,60	1742,82
461,80	1791,97
462,00	1599,46
462,21	1701,86
462,41	1685,48
462,61	1697,77
462,82	1626,09
463,02	1746,92
463,22	1654,76
463,43	1806,31
463,63	1697,77
463,83	1861,60
464,04	1728,49
464,24	1689,57
464,44	1701,86
464,64	1755,11
464,85	1775,59
465,05	1789,92
465,25	1775,59
465,46	1615,85
465,66	1769,44
465,86	1779,68
466,07	1791,97
466,27	1701,86
466,47	1578,98
466,68	1607,66
466,88	1738,73
467,08	1759,21
467,29	1732,58
467,49	1708,01
467,69	1671,14
467,89	1773,54
468,10	1705,96
468,30	1767,40
468,50	1732,58
468,71	1763,30
468,91	1615,85
469,11	1818,60
469,31	1714,15
469,52	1679,33
469,72	1816,55
469,92	1941,47
470,13	1689,57
470,33	1695,72
470,53	1839,08
470,73	2109,41
470,94	2324,44
471,14	2308,06
471,34	2525,15
471,54	2465,75
471,75	2217,95
471,95	2050,02
472,15	2078,69
472,36	2117,60
472,56	2086,88
472,76	2050,02
472,96	2029,54
473,17	1931,23
473,37	1972,19
473,57	1828,84
473,77	1822,69
473,98	1726,44
474,18	1728,49
474,38	1935,33
474,58	1654,76
474,79	1662,95
474,99	1679,33
475,19	1691,62
475,39	1656,81
475,60	1693,67
475,80	1783,78
476,00	1787,88
476,20	1732,58
476,41	1798,12
476,61	1857,51
476,81	1701,86
477,01	1630,18
477,21	1880,04
477,42	1767,40
477,62	1615,85
477,82	1740,77
478,02	1693,67
478,23	1775,59
478,43	1658,85
478,63	1685,48
478,83	1708,01
479,03	1693,67
479,24	1640,42
479,44	1771,49
479,64	1583,08
479,84	1660,90
480,04	1695,72
480,25	1730,53
480,45	1626,09
480,65	1755,11
480,85	1824,74
481,06	1712,10
481,26	1798,12
481,46	1697,77
481,66	1677,29
481,86	1710,05
482,06	1775,59
482,27	1701,86
482,47	1679,33
482,67	1740,77
482,87	1736,68
483,07	1794,02
483,28	1665,00
483,48	1687,53
483,68	1665,00
483,88	1636,33
484,08	1611,75
484,29	1652,71
484,49	1658,85
484,69	1648,61
484,89	1812,45
485,09	1699,81
485,29	1781,73
485,50	1712,10
485,70	1671,14
485,90	1859,56
486,10	1804,26
486,30	1673,19
486,50	1769,44
486,71	1767,40
486,91	1697,77
487,11	1832,93
487,31	1656,81
487,51	1769,44
487,71	1650,66
487,91	1648,61
488,12	1722,34
488,32	1662,95
488,52	1624,04
488,72	1533,93
488,92	1656,81
489,12	1720,29
489,32	1761,25
489,53	1771,49
489,73	1628,14
489,93	1712,10
490,13	1730,53
490,33	1652,71
490,53	1744,87
490,73	1808,36
490,94	1673,19
491,14	1771,49
491,34	1781,73
491,54	2131,94
491,74	2656,22
491,94	2838,48
492,14	3016,66
492,34	2949,08
492,54	2865,11
492,75	2545,63
492,95	2404,32
493,15	2271,20
493,35	2324,44
493,55	2254,81
493,75	2113,50
493,95	2164,70
494,15	1998,82
494,35	1877,99
494,56	1855,46
494,76	1736,68
494,96	1755,11
495,16	1777,64
495,36	1748,97
495,56	1779,68
495,76	1722,34
495,96	1775,59
496,16	1708,01
496,36	1826,79
496,56	1710,05
496,77	1822,69
496,97	1656,81
497,17	1767,40
497,37	1716,20
497,57	1765,35
497,77	1662,95
497,97	1695,72
498,17	1705,96
498,37	1724,39
498,57	1714,15
498,77	1660,90
498,97	1796,07
499,17	1849,32
499,38	1669,09
499,58	1675,24
499,78	1742,82
499,98	1920,99
500,18	1732,58
500,38	1703,91
500,58	1918,95
500,78	2494,43
500,98	4435,90
501,18	5863,33
501,38	6727,58
501,58	7069,59
501,78	6512,54
501,98	5472,17
502,18	4937,65
502,38	4227,01
502,58	4179,90
502,78	3770,31
502,98	3680,20
503,18	3475,40
503,38	3094,48
503,59	2701,27
503,79	2650,07
503,99	2451,42
504,19	2299,87
504,39	2238,43
504,59	2142,18
504,79	2136,03
504,99	2027,49
505,19	1937,38
505,39	1847,27
505,59	1943,52
505,79	1902,56
505,99	1787,88
506,19	1800,16
506,39	1920,99
506,59	1746,92
506,79	1834,98
506,99	1791,97
507,19	1841,12
507,39	1748,97
507,59	1695,72
507,79	1644,52
507,99	1751,01
508,19	1726,44
508,39	1724,39
508,59	1689,57
508,79	1796,07
508,99	1814,50
509,19	1794,02
509,39	1755,11
509,59	1714,15
509,79	1665,00
509,99	1794,02
510,19	1791,97
510,39	1828,84
510,59	1767,40
510,79	1658,85
510,99	1705,96
511,19	1742,82
511,39	1808,36
511,59	1765,35
511,79	1789,92
511,99	1714,15
512,19	1867,75
512,38	1773,54
512,58	1685,48
512,78	1761,25
512,98	1771,49
513,18	1796,07
513,38	1628,14
513,58	1699,81
513,78	1681,38
513,98	1665,00
514,18	1677,29
514,38	1722,34
514,58	1757,16
514,78	1703,91
514,98	1624,04
515,18	1746,92
515,38	1658,85
515,58	1837,03
515,78	1697,77
515,98	1722,34
516,18	1722,34
516,38	1724,39
516,57	1671,14
516,77	1708,01
516,97	1767,40
517,17	1648,61
517,37	1611,75
517,57	1685,48
517,77	1740,77
517,97	1691,62
518,17	1697,77
518,37	1662,95
518,57	1693,67
518,77	1703,91
518,97	1687,53
519,16	1810,40
519,36	1755,11
519,56	1759,21
519,76	1654,76
519,96	1660,90
520,16	1765,35
520,36	1638,38
520,56	1724,39
520,76	1615,85
520,96	1820,64
521,16	1755,11
521,35	1798,12
521,55	1869,80
521,75	1681,38
521,95	1718,25
522,15	1665,00
522,35	1609,70
522,55	1718,25
522,75	1671,14
522,95	1742,82
523,14	1675,24
523,34	1744,87
523,54	1695,72
523,74	1720,29
523,94	1718,25
524,14	1654,76
524,34	1691,62
524,54	1746,92
524,73	1665,00
524,93	1777,64
525,13	1718,25
525,33	1646,57
525,53	1814,50
525,73	1714,15
525,93	1675,24
526,13	1642,47
526,32	1824,74
526,52	1812,45
526,72	1812,45
526,92	1665,00
527,12	1775,59
527,32	1617,90
527,52	1771,49
527,71	1701,86
527,91	1744,87
528,11	1728,49
528,31	1701,86
528,51	1689,57
528,71	1814,50
528,90	1769,44
529,10	1826,79
529,30	1824,74
529,50	1603,56
529,70	1665,00
529,90	1773,54
530,09	1714,15
530,29	1654,76
530,49	1656,81
530,69	1886,18
530,89	1720,29
531,09	1722,34
531,28	1757,16
531,48	1798,12
531,68	1714,15
531,88	1740,77
532,08	1767,40
532,28	1685,48
532,47	1771,49
532,67	1789,92
532,87	1814,50
533,07	1716,20
533,27	1742,82
533,46	1714,15
533,66	1759,21
533,86	1624,04
534,06	1648,61
534,26	1720,29
534,45	1744,87
534,65	1767,40
534,85	1804,26
535,05	1697,77
535,25	1789,92
535,44	1699,81
535,64	1705,96
535,84	1740,77
536,04	1675,24
536,24	1693,67
536,43	1726,44
536,63	1865,70
536,83	1724,39
537,03	1748,97
537,22	1587,18
537,42	1675,24
537,62	1722,34
537,82	1656,81
538,02	1798,12
538,21	1834,98
538,41	1882,08
538,61	1849,32
538,81	1681,38
539,00	1816,55
539,20	1773,54
539,40	1759,21
539,60	1796,07
539,79	1738,73
539,99	1742,82
540,19	1779,68
540,39	1794,02
540,58	1794,02
540,78	1841,12
540,98	1718,25
541,18	1755,11
541,37	1746,92
541,57	1738,73
541,77	1712,10
541,97	1650,66
542,16	1634,28
542,36	1720,29
542,56	1783,78
542,76	1798,12
542,95	1748,97
543,15	1742,82
543,35	1789,92
543,54	1742,82
543,74	1648,61
543,94	1746,92
544,14	1722,34
544,33	1798,12
544,53	1708,01
544,73	1787,88
544,93	1755,11
545,12	1687,53
545,32	1687,53
545,52	1744,87
545,71	1628,14
545,91	1736,68
546,11	1632,23
546,30	1728,49
546,50	1691,62
546,70	1763,30
546,90	1710,05
547,09	1642,47
547,29	1804,26
547,49	1779,68
547,68	1697,77
547,88	1685,48
548,08	1832,93
548,27	2201,57
548,47	1753,06
548,67	1677,29
548,87	1718,25
549,06	1683,43
549,26	1802,21
549,46	1779,68
549,65	1718,25
549,85	1808,36
550,05	1804,26
550,24	1687,53
550,44	1691,62
550,64	1718,25
550,83	1765,35
551,03	1796,07
551,23	1763,30
551,42	1816,55
551,62	1798,12
551,82	1738,73
552,01	1671,14
552,21	1791,97
552,41	1789,92
552,60	1806,31
552,80	1765,35
553,00	1603,56
553,19	1703,91
553,39	1906,66
553,59	1667,05
553,78	1771,49
553,98	1806,31
554,17	1667,05
554,37	1742,82
554,57	1828,84
554,76	1691,62
554,96	1701,86
555,16	1691,62
555,35	1748,97
555,55	1814,50
555,75	1832,93
555,94	1761,25
556,14	1660,90
556,33	1691,62
556,53	1755,11
556,73	1759,21
556,92	1804,26
557,12	1822,69
557,32	1853,41
557,51	1859,56
557,71	1834,98
557,90	1810,40
558,10	1787,88
558,30	1763,30
558,49	1771,49
558,69	1691,62
558,88	1802,21
559,08	1691,62
559,28	1781,73
559,47	1765,35
559,67	1800,16
559,86	1867,75
560,06	1761,25
560,26	1658,85
560,45	1718,25
560,65	1791,97
560,84	1806,31
561,04	1714,15
561,24	1789,92
561,43	1667,05
561,63	1845,22
561,82	1765,35
562,02	1757,16
562,22	1652,71
562,41	1712,10
562,61	1650,66
562,80	1681,38
563,00	1888,23
563,19	1689,57
563,39	1802,21
563,59	1773,54
563,78	1626,09
563,98	1621,99
564,17	1656,81
564,37	1654,76
564,56	1699,81
564,76	1681,38
564,96	1843,17
565,15	1808,36
565,35	1847,27
565,54	1681,38
565,74	1730,53
565,93	1761,25
566,13	1781,73
566,32	1771,49
566,52	1724,39
566,71	1718,25
566,91	1730,53
567,11	1710,05
567,30	1691,62
567,50	1730,53
567,69	1732,58
567,89	1683,43
568,08	1644,52
568,28	1748,97
568,47	1683,43
568,67	1781,73
568,86	1624,04
569,06	1800,16
569,25	1748,97
569,45	1621,99
569,64	1656,81
569,84	1804,26
570,04	1742,82
570,23	1746,92
570,43	1761,25
570,62	1714,15
570,82	1775,59
571,01	1712,10
571,21	1736,68
571,40	1753,06
571,60	1765,35
571,79	1769,44
571,99	1718,25
572,18	1665,00
572,38	1748,97
572,57	1734,63
572,77	1810,40
572,96	1816,55
573,16	1763,30
573,35	1695,72
573,55	1822,69
573,74	1757,16
573,94	1662,95
574,13	1783,78
574,33	1777,64
574,52	1820,64
574,71	1771,49
574,91	1818,60
575,10	1689,57
575,30	1687,53
575,49	1714,15
575,69	1667,05
575,88	1810,40
576,08	1695,72
576,27	1859,56
576,47	1759,21
576,66	1861,60
576,86	1839,08
577,05	1722,34
577,25	1779,68
577,44	1851,36
577,64	1685,48
577,83	1787,88
578,02	1695,72
578,22	1839,08
578,41	1820,64
578,61	1722,34
578,80	1650,66
579,00	1734,63
579,19	1814,50
579,39	1806,31
579,58	1751,01
579,77	1744,87
579,97	1794,02
580,16	1789,92
580,36	1830,88
580,55	1871,84
580,75	1812,45
580,94	1722,34
581,13	1853,41
581,33	1859,56
581,52	1669,09
581,72	1894,37
581,91	1826,79
582,11	1699,81
582,30	1812,45
582,49	1757,16
582,69	1837,03
582,88	1767,40
583,08	1802,21
583,27	1701,86
583,47	1685,48
583,66	1691,62
583,85	1703,91
584,05	1773,54
584,24	1755,11
584,44	1800,16
584,63	1816,55
584,82	1814,50
585,02	1828,84
585,21	1783,78
585,41	1884,13
585,60	1826,79
585,79	1949,67
585,99	1943,52
586,18	1818,60
586,37	2269,15
586,57	3385,29
586,76	9795,43
586,96	24659,59
587,15	34606,58
587,34	40650,13
587,54	42253,69
587,73	36539,86
587,93	26295,92
588,12	21599,93
588,31	18560,74
588,51	16113,42
588,70	15189,78
588,89	14311,21
589,09	12758,85
589,28	10913,63
589,47	9555,82
589,67	7980,93
589,86	6424,48
590,06	4947,89
590,25	3889,09
590,44	3149,78
590,64	2533,34
590,83	2265,05
591,02	2107,36
591,22	1927,14
591,41	1945,57
591,60	1966,05
591,80	1914,85
591,99	1781,73
592,18	1783,78
592,38	1873,89
592,57	1759,21
592,76	1796,07
592,96	1765,35
593,15	1751,01
593,34	1816,55
593,54	1757,16
593,73	1720,29
593,92	1718,25
594,12	1789,92
594,31	1697,77
594,50	1724,39
594,70	1787,88
594,89	1849,32
595,08	1642,47
595,28	1757,16
595,47	1910,75
595,66	1746,92
595,86	1705,96
596,05	1804,26
596,24	1724,39
596,43	1830,88
596,63	1734,63
596,82	1763,30
597,01	1761,25
597,21	1771,49
597,40	1796,07
597,59	1771,49
597,79	1761,25
597,98	1783,78
598,17	1753,06
598,36	1730,53
598,56	1765,35
598,75	1644,52
598,94	1693,67
599,14	1722,34
599,33	1716,20
599,52	1763,30
599,71	1789,92
599,91	1714,15
600,10	1718,25
600,29	1667,05
600,48	1699,81
600,68	1806,31
600,87	1687,53
601,06	1775,59
601,26	1751,01
601,45	1816,55
601,64	1701,86
601,83	1740,77
602,03	1701,86
602,22	1624,04
602,41	1763,30
602,60	1886,18
602,80	1791,97
602,99	1771,49
603,18	1662,95
603,37	1710,05
603,57	1822,69
603,76	1757,16
603,95	1783,78
604,14	1714,15
604,34	1708,01
604,53	1722,34
604,72	1814,50
604,91	1748,97
605,10	1726,44
605,30	1693,67
605,49	1841,12
605,68	1783,78
605,87	1722,34
606,07	1726,44
606,26	1722,34
606,45	1744,87
606,64	1783,78
606,84	1677,29
607,03	1660,90
607,22	1820,64
607,41	1677,29
607,60	1689,57
607,80	1755,11
607,99	1693,67
608,18	1769,44
608,37	1740,77
608,56	1677,29
608,76	1765,35
608,95	1880,04
609,14	1650,66
609,33	1785,83
609,52	1708,01
609,72	1708,01
609,91	1710,05
610,10	1677,29
610,29	1763,30
610,48	1746,92
610,68	1765,35
610,87	1757,16
611,06	1769,44
611,25	1650,66
611,44	1755,11
611,63	1624,04
611,83	1820,64
612,02	1662,95
612,21	1871,84
612,40	1601,51
612,59	1667,05
612,79	1708,01
612,98	1732,58
613,17	1708,01
613,36	1746,92
613,55	1757,16
613,74	1742,82
613,93	1656,81
614,13	1701,86
614,32	1734,63
614,51	1777,64
614,70	1636,33
614,89	1669,09
615,08	1794,02
615,28	2119,65
615,47	1609,70
615,66	1699,81
615,85	1734,63
616,04	1834,98
616,23	1691,62
616,42	1720,29
616,62	1734,63
616,81	1773,54
617,00	1769,44
617,19	1759,21
617,38	1705,96
617,57	1740,77
617,76	1761,25
617,95	1814,50
618,15	1802,21
618,34	1769,44
618,53	1621,99
618,72	1738,73
618,91	1777,64
619,10	1822,69
619,29	1632,23
619,48	1699,81
619,68	1720,29
619,87	1832,93
620,06	1634,28
620,25	1683,43
620,44	1642,47
620,63	1718,25
620,82	1787,88
621,01	1736,68
621,20	1720,29
621,39	1689,57
621,59	1701,86
621,78	1716,20
621,97	1703,91
622,16	1734,63
622,35	1738,73
622,54	1759,21
622,73	1779,68
622,92	1667,05
623,11	1796,07
623,30	1710,05
623,49	1728,49
623,68	1673,19
623,88	1773,54
624,07	1675,24
624,26	1685,48
624,45	1806,31
624,64	1656,81
624,83	1738,73
625,02	1679,33
625,21	1671,14
625,40	1716,20
625,59	1796,07
625,78	1679,33
625,97	1791,97
626,16	1806,31
626,35	1775,59
626,54	1705,96
626,74	1761,25
626,93	1658,85
627,12	1703,91
627,31	1820,64
627,50	1714,15
627,69	1761,25
627,88	1673,19
628,07	1697,77
628,26	1718,25
628,45	1640,42
628,64	1677,29
628,83	1691,62
629,02	1654,76
629,21	1791,97
629,40	1771,49
629,59	1595,37
629,78	1656,81
629,97	1730,53
630,16	1671,14
630,35	1669,09
630,54	1701,86
630,73	1626,09
630,92	1769,44
631,11	1662,95
631,30	1767,40
631,49	1714,15
631,68	1710,05
631,87	1703,91
632,06	1693,67
632,25	1800,16
632,44	1726,44
632,63	1726,44
632,82	1697,77
633,01	1632,23
633,20	1656,81
633,39	1626,09
633,58	1587,18
633,77	1689,57
633,96	1818,60
634,15	1751,01
634,34	1802,21
634,53	1705,96
634,72	1685,48
634,91	1646,57
635,10	1728,49
635,29	1751,01
635,48	1775,59
635,67	1650,66
635,86	1701,86
636,05	1845,22
636,24	1675,24
636,43	1789,92
636,62	1720,29
636,81	1587,18
637,00	1714,15
637,19	1738,73
637,38	1710,05
637,57	1638,38
637,76	1755,11
637,95	1748,97
638,14	1753,06
638,33	1730,53
638,52	1804,26
638,71	1683,43
638,89	1619,94
639,08	1787,88
639,27	1757,16
639,46	1781,73
639,65	1877,99
639,84	1751,01
640,03	1724,39
640,22	1716,20
640,41	1865,70
640,60	1665,00
640,79	1736,68
640,98	1632,23
641,17	1781,73
641,36	1705,96
641,55	1847,27
641,74	1669,09
641,92	1685,48
642,11	1687,53
642,30	1669,09
642,49	1734,63
642,68	1689,57
642,87	1708,01
643,06	1703,91
643,25	1681,38
643,44	1646,57
643,63	1732,58
643,82	1675,24
644,00	1681,38
644,19	1697,77
644,38	1695,72
644,57	1697,77
644,76	1722,34
644,95	1691,62
645,14	1736,68
645,33	1677,29
645,52	1673,19
645,71	1634,28
645,89	1701,86
646,08	1734,63
646,27	1738,73
646,46	1886,18
646,65	1626,09
646,84	1845,22
647,03	1652,71
647,22	1751,01
647,40	1759,21
647,59	1755,11
647,78	1615,85
647,97	1675,24
648,16	1593,32
648,35	1796,07
648,54	1783,78
648,73	1685,48
648,91	1796,07
649,10	1705,96
649,29	1679,33
649,48	1708,01
649,67	1714,15
649,86	1714,15
650,05	1658,85
650,23	1767,40
650,42	1628,14
650,61	1787,88
650,80	1681,38
650,99	1818,60
651,18	1748,97
651,36	1738,73
651,55	1744,87
651,74	1804,26
651,93	1748,97
652,12	1714,15
652,31	1718,25
652,49	1701,86
652,68	1667,05
652,87	1724,39
653,06	1683,43
653,25	1783,78
653,44	1652,71
653,62	1751,01
653,81	1746,92
654,00	1640,42
654,19	1771,49
654,38	1828,84
654,56	1683,43
654,75	1724,39
654,94	1734,63
655,13	1708,01
655,32	1734,63
655,51	1810,40
655,69	1640,42
655,88	1763,30
656,07	1687,53
656,26	1724,39
656,45	1667,05
656,63	1746,92
656,82	1779,68
657,01	1763,30
657,20	1671,14
657,38	1697,77
657,57	1652,71
657,76	1642,47
657,95	1738,73
658,14	1656,81
658,32	1714,15
658,51	1634,28
658,70	1757,16
658,89	1708,01
659,08	1701,86
659,26	1767,40
659,45	1607,66
659,64	1753,06
659,83	1619,94
660,01	1914,85
660,20	1654,76
660,39	1777,64
660,58	1628,14
660,76	1714,15
660,95	1597,42
661,14	1783,78
661,33	1703,91
661,51	1710,05
661,70	1763,30
661,89	1710,05
662,08	1650,66
662,26	1751,01
662,45	1697,77
662,64	1863,65
662,83	1665,00
663,01	1658,85
663,20	1703,91
663,39	1783,78
663,58	1728,49
663,76	1619,94
663,95	1824,74
664,14	1691,62
664,32	1761,25
664,51	1636,33
664,70	1546,22
664,89	1677,29
665,07	1646,57
665,26	1787,88
665,45	1646,57
665,64	1763,30
665,82	1675,24
666,01	1742,82
666,20	1640,42
666,38	1765,35
666,57	1828,84
666,76	2160,61
666,95	4454,33
667,13	10149,73
667,32	15324,95
667,51	17821,42
667,69	18962,14
667,88	17794,80
668,07	12304,20
668,25	9539,44
668,44	8204,16
668,63	7206,80
668,81	6993,81
669,00	6244,26
669,19	5679,02
669,38	5081,01
669,56	4569,02
669,75	3839,94
669,94	3428,30
670,12	2899,92
670,31	2576,34
670,50	2199,52
670,68	2060,26
670,87	1920,99
671,06	1808,36
671,24	1730,53
671,43	1849,32
671,62	1701,86
671,80	1675,24
671,99	1669,09
672,18	1722,34
672,36	1710,05
672,55	1791,97
672,74	1681,38
672,92	1687,53
673,11	1744,87
673,29	1665,00
673,48	1794,02
673,67	1683,43
673,85	1736,68
674,04	1628,14
674,23	1724,39
674,41	1761,25
674,60	1669,09
674,79	1660,90
674,97	1669,09
675,16	1814,50
675,34	1791,97
675,53	1677,29
675,72	1687,53
675,90	1802,21
676,09	1673,19
676,28	1712,10
676,46	1593,32
676,65	1726,44
676,83	1658,85
677,02	1675,24
677,21	1783,78
677,39	1656,81
677,58	1640,42
677,77	1613,80
677,95	1718,25
678,14	1679,33
678,32	1728,49
678,51	1662,95
678,70	1806,31
678,88	1665,00
679,07	1683,43
679,25	1714,15
679,44	1640,42
679,63	1662,95
679,81	1740,77
680,00	1738,73
680,18	1710,05
680,37	1798,12
680,55	1712,10
680,74	1730,53
680,93	1574,89
681,11	1677,29
681,30	1736,68
681,48	1761,25
681,67	1634,28
681,85	1689,57
682,04	1615,85
682,23	1755,11
682,41	1644,52
682,60	1540,07
682,78	1710,05
682,97	1615,85
683,15	1779,68
683,34	1755,11
683,53	1798,12
683,71	1605,61
683,90	1798,12
684,08	1773,54
684,27	1703,91
684,45	1697,77
684,64	1767,40
684,82	1751,01
685,01	1722,34
685,19	1718,25
685,38	1714,15
685,57	1755,11
685,75	1673,19
685,94	1746,92
686,12	1691,62
686,31	1634,28
686,49	1822,69
686,68	1626,09
686,86	1677,29
687,05	1728,49
687,23	1781,73
687,42	1720,29
687,60	1583,08
687,79	1771,49
687,97	1755,11
688,16	1800,16
688,34	1822,69
688,53	1560,55
688,71	1705,96
688,90	1806,31
689,08	1724,39
689,27	1751,01
689,45	1734,63
689,64	1738,73
689,82	1777,64
690,01	1779,68
690,19	1744,87
690,38	1669,09
690,56	1765,35
690,75	1654,76
690,93	1722,34
691,12	1636,33
691,30	1753,06
691,49	1796,07
691,67	1703,91
691,86	1816,55
692,04	1624,04
692,23	1722,34
692,41	1587,18
692,60	1822,69
692,78	1644,52
692,97	1648,61
693,15	1753,06
693,34	1834,98
693,52	1767,40
693,71	1681,38
693,89	1699,81
694,08	1660,90
694,26	1689,57
694,44	1738,73
694,63	1751,01
694,81	1679,33
695,00	1650,66
695,18	1751,01
695,37	1865,70
695,55	1781,73
695,74	1683,43
695,92	1574,89
696,10	1798,12
696,29	1615,85
696,47	1697,77
696,66	1617,90
696,84	1718,25
697,03	1763,30
697,21	1787,88
697,40	2260,96
697,58	1748,97
697,76	1640,42
697,95	1673,19
698,13	1613,80
698,32	1705,96
698,50	1722,34
698,68	1728,49
698,87	1746,92
699,05	1757,16
699,24	1734,63
699,42	1665,00
699,61	1769,44
699,79	1669,09
699,97	1744,87
700,16	1648,61
700,34	1593,32
700,53	1726,44
700,71	1746,92
700,89	1775,59
701,08	1648,61
701,26	1699,81
701,45	2138,08
701,63	1607,66
701,81	1695,72
702,00	1712,10
702,18	1740,77
702,37	1714,15
702,55	1708,01
702,73	1693,67
702,92	1652,71
703,10	1722,34
703,28	1671,14
703,47	1675,24
703,65	1763,30
703,84	1798,12
704,02	1646,57
704,20	1742,82
704,39	1624,04
704,57	1671,14
704,75	1763,30
704,94	1712,10
705,12	1716,20
705,30	1816,55
705,49	2215,90
705,67	4499,39
705,86	9443,18
706,04	12582,72
706,22	14640,93
706,41	15546,13
706,59	13905,71
706,77	9729,90
706,96	7518,09
707,14	6739,87
707,32	6039,46
707,51	5676,97
707,69	4847,54
707,87	4306,88
708,06	3524,55
708,24	2934,74
708,42	2451,42
708,61	2299,87
708,79	1890,28
708,97	1947,62
709,16	1751,01
709,34	1763,30
709,52	1626,09
709,71	1730,53
709,89	1759,21
710,07	1646,57
710,26	1624,04
710,44	1626,09
710,62	1773,54
710,80	1732,58
710,99	1740,77
711,17	1771,49
711,35	1626,09
711,54	1705,96
711,72	1802,21
711,90	1804,26
712,09	1714,15
712,27	1665,00
712,45	1779,68
712,63	1746,92
712,82	1791,97
713,00	1712,10
713,18	1730,53
713,37	1771,49
713,55	1740,77
713,73	1708,01
713,91	1781,73
714,10	1656,81
714,28	1644,52
714,46	1738,73
714,65	1775,59
714,83	1677,29
715,01	1718,25
715,19	1703,91
715,38	1675,24
715,56	1738,73
715,74	1708,01
715,92	1644,52
716,11	1693,67
716,29	1648,61
716,47	1697,77
716,65	1654,76
716,84	1699,81
717,02	1763,30
717,20	1603,56
717,38	1695,72
717,57	1687,53
717,75	1658,85
717,93	1646,57
718,11	1714,15
718,30	1566,70
718,48	1697,77
718,66	1777,64
718,84	1736,68
719,03	1648,61
719,21	1630,18
719,39	1673,19
719,57	1722,34
719,75	1769,44
719,94	1658,85
720,12	1654,76
720,30	1791,97
720,48	1736,68
720,67	1716,20
720,85	1609,70
721,03	1720,29
721,21	1658,85
721,39	1718,25
721,58	1699,81
721,76	1726,44
721,94	1748,97
722,12	1687,53
722,30	1800,16
722,49	1724,39
722,67	1728,49
722,85	1785,83
723,03	1558,50
723,21	1628,14
723,40	1726,44
723,58	1716,20
723,76	1726,44
723,94	1728,49
724,12	1714,15
724,30	1665,00
724,49	1738,73
724,67	1662,95
724,85	1802,21
725,03	1550,31
725,21	1722,34
725,40	1794,02
725,58	1669,09
725,76	1738,73
725,94	1697,77
726,12	1642,47
726,30	1638,38
726,49	1677,29
726,67	1669,09
726,85	1660,90
727,03	1771,49
727,21	2117,60
727,39	2910,16
727,57	3764,17
727,76	4179,90
727,94	4454,33
728,12	4333,50
728,30	3731,40
728,48	2994,13
728,66	2725,85
728,84	2574,30
729,03	2215,90
729,21	2078,69
729,39	1990,63
729,57	1808,36
729,75	1789,92
729,93	1783,78
730,11	1748,97
730,30	1638,38
730,48	1716,20
730,66	1787,88
730,84	1755,11
731,02	1675,24
731,20	1619,94
731,38	1695,72
731,56	1607,66
731,74	1589,22
731,93	1746,92
732,11	1761,25
732,29	1716,20
732,47	1669,09
732,65	1751,01
732,83	1763,30
733,01	1753,06
733,19	1624,04
733,37	1726,44
733,56	1726,44
733,74	1619,94
733,92	1775,59
734,10	1662,95
734,28	1675,24
734,46	1665,00
734,64	1728,49
734,82	1675,24
735,00	1628,14
735,18	1656,81
735,36	1724,39
735,54	1671,14
735,73	1665,00
735,91	1701,86
736,09	1746,92
736,27	1710,05
736,45	1740,77
736,63	1605,61
736,81	1603,56
736,99	1734,63
737,17	1818,60
737,35	1708,01
737,53	1703,91
737,71	1697,77
737,89	1720,29
738,07	1640,42
738,25	1624,04
738,43	1640,42
738,61	1624,04
738,80	1650,66
738,98	1646,57
739,16	1685,48
739,34	1697,77
739,52	1783,78
739,70	1730,53
739,88	1726,44
740,06	1806,31
740,24	1560,55
740,42	1800,16
740,60	1587,18
740,78	1603,56
740,96	1550,31
741,14	1630,18
741,32	1759,21
741,50	1638,38
741,68	1808,36
741,86	1728,49
742,04	1624,04
742,22	1669,09
742,40	1751,01
742,58	1683,43
742,76	1689,57
742,94	1748,97
743,12	1574,89
743,30	1650,66
743,48	1689,57
743,66	1658,85
743,84	1789,92
744,02	1599,46
744,20	1599,46
744,38	1695,72
744,56	1634,28
744,74	1779,68
744,92	1734,63
745,10	1753,06
745,28	1748,97
745,46	1779,68
745,64	1630,18
745,82	1742,82
746,00	1699,81
746,18	1734,63
746,36	1626,09
746,54	1673,19
746,72	1615,85
746,90	1578,98
747,08	1800,16
747,26	1728,49
747,44	1693,67
747,62	1738,73
747,80	1677,29
747,98	1736,68
748,15	1681,38
748,33	1830,88
748,51	1746,92
748,69	1759,21
748,87	1636,33
749,05	1642,47
749,23	1628,14
749,41	1746,92
749,59	1665,00
749,77	1736,68
749,95	1638,38
750,13	1685,48
750,31	1710,05
750,49	1746,92
750,67	1742,82
750,85	1759,21
751,03	1730,53
751,20	1912,80
751,38	1708,01
751,56	1638,38
751,74	1675,24
751,92	1761,25
752,10	1638,38
752,28	1791,97
752,46	1665,00
752,64	1665,00
752,82	1667,05
753,00	1722,34
753,18	1665,00
753,35	1691,62
753,53	1671,14
753,71	1734,63
753,89	1689,57
754,07	1669,09
754,25	1738,73
754,43	1693,67
754,61	1667,05
754,79	1675,24
754,97	1662,95
755,14	1759,21
755,32	1656,81
755,50	1726,44
755,68	1658,85
755,86	1603,56
756,04	1626,09
756,22	1648,61
756,40	1705,96
756,57	1810,40
756,75	1619,94
756,93	1673,19
757,11	1753,06
757,29	1599,46
757,47	1681,38
757,65	1648,61
757,82	1595,37
758,00	1673,19
758,18	1628,14
758,36	1665,00
758,54	1843,17
758,72	1648,61
758,90	1769,44
759,07	1656,81
759,25	1626,09
759,43	1763,30
759,61	1673,19
759,79	2117,60
759,97	1662,95
760,15	1695,72
760,32	1656,81
760,50	1716,20
760,68	1796,07
760,86	1574,89
761,04	1738,73
761,22	1681,38
761,39	1665,00
761,57	1714,15
761,75	1742,82
761,93	1810,40
762,11	1726,44
762,28	1699,81
762,46	1658,85
762,64	1748,97
762,82	1527,78
763,00	1667,05
763,18	1873,89
763,35	1660,90
763,53	1773,54
763,71	1714,15
763,89	1732,58
764,07	1671,14
764,24	1773,54
764,42	1857,51
764,60	1675,24
764,78	1683,43
764,96	1738,73
765,13	1710,05
765,31	1646,57
765,49	1701,86
765,67	1638,38
765,84	1753,06
766,02	1697,77
766,20	1636,33
766,38	1728,49
766,56	1683,43
766,73	1751,01
766,91	1677,29
767,09	1644,52
767,27	1779,68
767,44	1697,77
767,62	1757,16
767,80	1687,53
767,98	1697,77
768,15	1634,28
768,33	1763,30
768,51	1812,45
768,69	1753,06
768,87	1640,42
769,04	1728,49
769,22	1777,64
769,40	1806,31
769,58	1841,12
769,75	1718,25
769,93	1742,82
770,11	1632,23
770,28	1632,23
770,46	1742,82
770,64	1673,19
770,82	1697,77
770,99	1773,54
771,17	1722,34
771,35	1705,96
771,53	1628,14
771,70	1646,57
771,88	1699,81
772,06	1685,48
772,23	1673,19
772,41	1742,82
772,59	1701,86
772,77	1597,42
772,94	1636,33
773,12	1695,72
773,30	1646,57
773,47	1681,38
773,65	1648,61
773,83	1853,41
774,01	1689,57
774,18	1656,81
774,36	1689,57
774,54	1617,90
774,71	1781,73
774,89	1632,23
775,07	1617,90
775,24	1683,43
775,42	1665,00
775,60	1851,36
775,78	1712,10
775,95	1617,90
776,13	1513,45
776,31	1564,65
776,48	1714,15
776,66	1765,35
776,84	1660,90
777,01	1644,52
777,19	1626,09
777,37	1656,81
777,54	1703,91
777,72	1794,02
777,90	1677,29
778,07	1673,19
778,25	1841,12
778,43	1781,73
778,60	1646,57
778,78	1751,01
778,96	1705,96
779,13	1689,57
779,31	1673,19
779,49	1806,31
779,66	1740,77
779,84	1689,57
780,01	1703,91
780,19	1642,47
780,37	1773,54
780,54	1791,97
780,72	1636,33
780,90	1689,57
781,07	1652,71
781,25	1683,43
781,43	1746,92
781,60	1619,94
781,78	1800,16
781,95	1763,30
782,13	1642,47
782,31	1710,05
782,48	1593,32
782,66	1716,20
782,83	1839,08
783,01	1763,30
783,19	1761,25
783,36	1658,85
783,54	1681,38
783,72	1697,77
783,89	1658,85
784,07	1712,10
784,24	1787,88
784,42	1697,77
784,60	1787,88
784,77	1722,34
784,95	1642,47
785,12	1701,86
785,30	1642,47
785,47	1669,09
785,65	1669,09
785,83	1716,20
786,00	1720,29
786,18	1769,44
786,35	1636,33
786,53	1626,09
786,71	1755,11
786,88	1755,11
787,06	1771,49
787,23	1712,10
787,41	1644,52
787,58	1675,24
787,76	1638,38
787,94	1755,11
788,11	1650,66
788,29	1675,24
788,46	1656,81
788,64	1613,80
788,81	1675,24
788,99	1636,33
789,16	1705,96
789,34	1773,54
789,52	1628,14
789,69	1675,24
789,87	1617,90
790,04	1654,76
790,22	1677,29
790,39	1773,54
790,57	1568,74
790,74	1656,81
790,92	1746,92
791,09	1597,42
791,27	1636,33
791,44	1740,77
791,62	1703,91
791,79	1738,73
791,97	1710,05
792,15	1818,60
792,32	1761,25
792,50	1724,39
792,67	1787,88
792,85	1736,68
793,02	1738,73
793,20	1722,34
793,37	1654,76
793,55	1681,38
793,72	1654,76
793,90	1716,20
794,07	1665,00
794,25	1705,96
794,42	1695,72
794,60	1691,62
794,77	1665,00
794,95	1734,63
795,12	1785,83
795,30	1591,27
795,47	1511,40
795,65	1812,45
795,82	1722,34
796,00	1660,90
796,17	1695,72
796,34	1732,58
796,52	1746,92
796,69	1834,98
796,87	1826,79
797,04	1703,91
797,22	1779,68
797,39	1720,29
797,57	1712,10
797,74	1775,59
797,92	1720,29
798,09	1619,94
798,27	1777,64
798,44	1732,58
798,62	1738,73
798,79	1685,48
798,96	1714,15
799,14	1695,72
799,31	1808,36
799,49	1701,86
799,66	1658,85
799,84	1738,73
800,01	1644,52
800,19	1693,67
800,36	1624,04
800,53	1818,60
800,71	1701,86
800,88	1726,44
801,06	1705,96
801,23	1669,09
801,41	1636,33
801,58	1681,38
801,75	1697,77
801,93	1748,97
802,10	1738,73
802,28	1781,73
802,45	1658,85
802,63	1697,77
802,80	1738,73
802,97	1644,52
803,15	1726,44
803,32	1697,77
803,50	1656,81
803,67	1644,52
803,84	1599,46
804,02	1699,81
804,19	1605,61
804,37	1574,89
804,54	1673,19
804,71	1691,62
804,89	1656,81
805,06	1636,33
805,24	1585,13
805,41	1652,71
805,58	1697,77
805,76	1867,75
805,93	1736,68
806,10	1767,40
806,28	1697,77
806,45	1740,77
806,63	1718,25
806,80	1695,72
806,97	1716,20
807,15	1660,90
807,32	1712,10
807,49	1699,81
807,67	1585,13
807,84	1703,91
808,01	1656,81
808,19	1849,32
808,36	1789,92
808,54	1662,95
808,71	1599,46
808,88	1775,59
809,06	1804,26
809,23	1783,78
809,40	1675,24
809,58	1773,54
809,75	1677,29
809,92	1648,61
810,10	1779,68
810,27	1689,57
810,44	1687,53
810,62	1673,19
810,79	1626,09
810,96	1615,85
811,14	1697,77
811,31	1742,82
811,48	1683,43
811,66	1689,57
811,83	1755,11
812,00	1804,26
812,18	1703,91
812,35	1759,21
812,52	1650,66
812,69	1679,33
812,87	1728,49
813,04	1712,10
813,21	1689,57
813,39	1681,38
813,56	1634,28
813,73	1771,49
813,91	1652,71
814,08	1767,40
814,25	1771,49
814,42	1585,13
814,60	1648,61
814,77	1728,49
814,94	1660,90
815,12	1693,67
815,29	1697,77
815,46	1615,85
815,63	1658,85
815,81	1665,00
815,98	1697,77
816,15	1738,73
816,33	1708,01
816,50	1648,61
816,67	1771,49
816,84	1722,34
817,02	1716,20
817,19	1667,05
817,36	1662,95
817,53	1691,62
817,71	1665,00
817,88	1722,34
818,05	1677,29
818,22	1673,19
818,40	1783,78
818,57	1683,43
818,74	1687,53
818,91	1718,25
819,09	1728,49
819,26	1791,97
819,43	1677,29
819,60	1648,61
819,78	1720,29
819,95	1685,48
820,12	1654,76
820,29	1722,34
820,47	1753,06
820,64	1669,09
820,81	1605,61
820,98	1705,96
821,15	1642,47
821,33	1828,84
821,50	1642,47
821,67	1650,66
821,84	1728,49
822,02	1703,91
822,19	1677,29
822,36	1673,19
822,53	1718,25
822,70	1591,27
822,88	1681,38
823,05	1814,50
823,22	1652,71
823,39	1708,01
823,56	1705,96
823,74	1789,92
823,91	1646,57
824,08	1710,05
824,25	1693,67
824,42	1830,88
824,60	1654,76
824,77	1691,62
824,94	1683,43
825,11	1705,96
825,28	1675,24
825,45	1693,67
825,63	1673,19
825,80	1640,42
825,97	1697,77
826,14	1642,47
826,31	1724,39
826,48	1763,30
826,66	1595,37
826,83	1746,92
827,00	1705,96
827,17	1591,27
827,34	1673,19
827,51	1669,09
827,69	1716,20
827,86	1613,80
828,03	1701,86
828,20	1599,46
828,37	1673,19
828,54	1730,53
828,71	1701,86
828,89	1781,73
829,06	1675,24
829,23	1744,87
829,40	1660,90
829,57	1574,89
829,74	1732,58
829,91	1615,85
830,09	1708,01
830,26	1771,49
830,43	1695,72
830,60	1738,73
830,77	1667,05
830,94	1767,40
831,11	1689,57
831,28	1667,05
831,46	1734,63
831,63	1646,57
831,80	1646,57
831,97	1693,67
832,14	1705,96
832,31	1757,16
832,48	1751,01
832,65	1775,59
832,82	1718,25
832,99	1697,77
833,17	1599,46
833,34	1744,87
833,51	1708,01
833,68	1621,99
833,85	1699,81
834,02	1613,80
834,19	1628,14
834,36	1605,61
834,53	1654,76
834,70	1658,85
834,87	1712,10
835,04	1708,01
835,22	1693,67
835,39	1773,54
835,56	1656,81
835,73	1759,21
835,90	1742,82
836,07	1605,61
836,24	1812,45
836,41	1669,09
836,58	1687,53
836,75	1748,97
836,92	1722,34
837,09	1679,33
837,26	1638,38
837,43	1695,72
837,60	1722,34
837,77	1726,44
837,94	1583,08
838,12	1828,84
838,29	1656,81
838,46	1617,90
838,63	1662,95
838,80	1796,07
838,97	1726,44
839,14	1652,71
839,31	1693,67
839,48	1751,01
839,65	1675,24
839,82	1732,58
839,99	1691,62
840,16	1703,91
840,33	1654,76
840,50	1697,77
840,67	1658,85
840,84	1652,71
841,01	1630,18
841,18	1650,66
841,35	1644,52
841,52	1742,82
841,69	1816,55
841,86	1689,57
842,03	1697,77
842,20	1789,92
842,37	1677,29
842,54	1693,67
842,71	1646,57
842,88	1587,18
843,05	1791,97
843,22	1693,67
843,39	1726,44
843,56	1640,42
843,73	1718,25
843,90	1607,66
844,07	1751,01
844,24	1732,58
844,41	1714,15
844,58	1675,24
844,75	1734,63
844,92	1763,30
845,09	1675,24
845,26	1656,81
845,43	1771,49
845,60	1746,92
845,77	1755,11
845,94	1708,01
846,10	1681,38
846,27	1550,31
846,44	1642,47
846,61	1597,42
846,78	1689,57
846,95	1732,58
847,12	1748,97
847,29	1619,94
847,46	1691,62
847,63	1789,92
847,80	1675,24
847,97	1689,57
848,14	1839,08
848,31	1710,05
848,48	1628,14
848,65	1751,01
848,82	1730,53
848,98	1839,08
849,15	1734,63
849,32	1716,20
849,49	1822,69
849,66	1740,77
849,83	1673,19
850,00	1667,05
850,17	1755,11
850,34	1681,38
850,51	1652,71
850,68	1695,72
850,85	1787,88
851,01	1687,53
851,18	1681,38
851,35	1658,85
851,52	1665,00
851,69	1759,21
851,86	1644,52
852,03	1642,47
852,20	1765,35
852,37	1710,05
852,53	1617,90
852,70	1658,85
852,87	1689,57
853,04	1816,55
853,21	1753,06
853,38	1642,47
853,55	1748,97
853,72	1746,92
853,89	1644,52
854,05	1595,37
854,22	1697,77
854,39	1734,63
854,56	1714,15
854,73	1751,01
854,90	1632,23
855,07	1654,76
855,23	1685,48
855,40	1699,81
855,57	1671,14
855,74	1624,04
855,91	1771,49
856,08	1665,00
856,25	1556,46
856,41	1714,15
856,58	1656,81
856,75	1771,49
856,92	1638,38
857,09	1667,05
857,26	1642,47
857,42	1699,81
857,59	1656,81
857,76	1630,18
857,93	1632,23
858,10	1642,47
858,27	1689,57
858,43	1695,72
858,60	1693,67
858,77	1603,56
858,94	1699,81
859,11	1746,92
859,27	1679,33
859,44	1740,77
859,61	1779,68
859,78	1732,58
859,95	1701,86
860,12	1708,01
860,28	1794,02
860,45	1748,97
860,62	1720,29
860,79	1640,42
860,95	1675,24
861,12	1644,52
861,29	1652,71
861,46	1673,19
861,63	1730,53
861,79	1755,11
861,96	1605,61
862,13	1673,19
862,30	1712,10
862,47	1689,57
862,63	1591,27
862,80	1765,35
862,97	1785,83
863,14	1681,38
863,30	1642,47
863,47	1621,99
863,64	1763,30
863,81	1693,67
863,97	1662,95
864,14	1691,62
864,31	1697,77
864,48	1660,90
864,65	1703,91
864,81	1699,81
864,98	1722,34
865,15	1726,44
865,32	1722,34
865,48	1771,49
865,65	1755,11
865,82	1640,42
865,98	1683,43
866,15	1771,49
866,32	1589,22
866,49	1652,71
866,65	1779,68
866,82	1650,66
866,99	1753,06
867,16	1683,43
867,32	1669,09
867,49	1660,90
867,66	1558,50
867,83	1681,38
867,99	1576,94
868,16	1710,05
868,33	1611,75
868,49	1671,14
868,66	1720,29
868,83	1779,68
868,99	1697,77
869,16	1691,62
869,33	1736,68
869,50	1730,53
869,66	1710,05
869,83	1681,38
870,00	1626,09
870,16	1650,66
870,33	1691,62
870,50	1697,77
870,66	1765,35
870,83	1867,75
871,00	1626,09
871,17	1765,35
871,33	1671,14
871,50	1640,42
871,67	1695,72
871,83	1728,49
872,00	1765,35
872,17	1699,81
872,33	1816,55
872,50	1640,42
872,67	1660,90
872,83	1617,90
873,00	1681,38
873,17	1673,19
873,33	1757,16
873,50	1744,87
873,67	1640,42
873,83	1726,44
874,00	1697,77
874,16	1779,68
874,33	1693,67
874,50	1568,74
874,66	1718,25
874,83	1693,67
875,00	1730,53
875,16	1724,39
875,33	1720,29
875,50	1621,99
875,66	1619,94
875,83	1726,44
875,99	1681,38
876,16	1660,90
876,33	1648,61
876,49	1652,71
876,66	1742,82
876,83	1619,94
876,99	1570,79
877,16	1720,29
877,32	1619,94
877,49	1701,86
877,66	1667,05
877,82	1744,87
877,99	1662,95
878,15	1742,82
878,32	1656,81
878,49	1800,16
878,65	1695,72
878,82	1767,40
878,98	1587,18
879,15	1718,25
879,32	1689,57
879,48	1685,48
879,65	1640,42
879,81	1615,85
879,98	1558,50
880,15	1654,76
880,31	1691,62
880,48	1705,96
880,64	1716,20
880,81	1691,62
880,97	1808,36
881,14	1798,12
881,31	1611,75
881,47	1839,08
881,64	1708,01
881,80	1617,90
881,97	1640,42
882,13	1773,54
882,30	1708,01
882,47	1632,23
882,63	1697,77
882,80	1675,24
882,96	1683,43
883,13	1755,11
883,29	1638,38
883,46	1699,81
883,62	1763,30
883,79	1705,96
883,95	1732,58
884,12	1673,19
884,29	1789,92
884,45	1722,34
884,62	1697,77
884,78	1679,33
884,95	1796,07
885,11	1640,42
885,28	1718,25
885,44	1662,95
885,61	1708,01
885,77	1710,05
885,94	1720,29
886,10	1681,38
886,27	1689,57
886,43	1787,88
886,60	1722,34
886,76	1685,48
886,93	1683,43
887,09	1724,39
887,26	1607,66
887,42	1681,38
887,59	1693,67
887,75	1783,78
887,92	1771,49
888,08	1660,90
888,25	1771,49
888,41	1714,15
888,58	1703,91
888,74	1650,66
888,91	1705,96
>>>>>End Processed Spectral Data<<<<<
