SpectraSuite Data File
++++++++++++++++++++++++++++++++++++
Date: Mon Jun 06 12:21:57 CEST 2016
User: root
Dark Spectrum Present: No
Reference Spectrum Present: No
Number of Sampled Component Spectra: 1
Spectrometers: USB4C02835
Integration Time (usec): 100000 (USB4C02835)
Spectra Averaged: 1 (USB4C02835)
Boxcar Smoothing: 0 (USB4C02835)
Correct for Electrical Dark: No (USB4C02835)
Strobe/Lamp Enabled: No (USB4C02835)
Correct for Detector Non-linearity: No (USB4C02835)
Correct for Stray Light: No (USB4C02835)
Number of Pixels in Processed Spectrum: 3648
>>>>>Begin Processed Spectral Data<<<<<
177,47	1419,24
177,69	1419,24
177,91	1419,24
178,13	1468,39
178,36	1443,82
178,58	1634,28
178,80	1681,38
179,02	1714,15
179,24	1648,61
179,46	1712,10
179,68	1734,63
179,90	1662,95
180,13	1730,53
180,35	1632,23
180,57	1650,66
180,79	1736,68
181,01	1701,86
181,23	1718,25
181,45	1779,68
181,67	1732,58
181,90	1753,06
182,12	1675,24
182,34	1695,72
182,56	1683,43
182,78	1730,53
183,00	1642,47
183,22	1681,38
183,44	1636,33
183,66	1845,22
183,89	1814,50
184,11	1652,71
184,33	1712,10
184,55	1810,40
184,77	1687,53
184,99	1624,04
185,21	1648,61
185,43	1767,40
185,65	1693,67
185,87	1716,20
186,10	1839,08
186,32	1794,02
186,54	1687,53
186,76	1732,58
186,98	1740,77
187,20	1679,33
187,42	1658,85
187,64	1722,34
187,86	1759,21
188,08	1703,91
188,30	1656,81
188,52	1738,73
188,75	1748,97
188,97	1820,64
189,19	1634,28
189,41	1701,86
189,63	1724,39
189,85	1667,05
190,07	1634,28
190,29	1677,29
190,51	1728,49
190,73	1599,46
190,95	1718,25
191,17	1712,10
191,39	1609,70
191,61	1697,77
191,84	1687,53
192,06	1710,05
192,28	1597,42
192,50	1877,99
192,72	1695,72
192,94	1669,09
193,16	1748,97
193,38	1693,67
193,60	1654,76
193,82	1718,25
194,04	1765,35
194,26	1687,53
194,48	1636,33
194,70	1648,61
194,92	1654,76
195,14	1716,20
195,36	1667,05
195,58	1734,63
195,80	1671,14
196,02	1681,38
196,24	1665,00
196,46	1753,06
196,69	1648,61
196,91	1832,93
197,13	1642,47
197,35	1638,38
197,57	1761,25
197,79	1738,73
198,01	1697,77
198,23	1652,71
198,45	1673,19
198,67	1535,98
198,89	1626,09
199,11	1763,30
199,33	1671,14
199,55	1523,69
199,77	1683,43
199,99	1777,64
200,21	1687,53
200,43	1781,73
200,65	1662,95
200,87	1566,70
201,09	1679,33
201,31	1671,14
201,53	1771,49
201,75	1738,73
201,97	1734,63
202,19	1720,29
202,41	1697,77
202,63	1789,92
202,85	1783,78
203,07	1683,43
203,29	1615,85
203,51	1644,52
203,73	1597,42
203,95	1791,97
204,17	1736,68
204,39	1738,73
204,61	1675,24
204,83	1689,57
205,05	1804,26
205,27	1722,34
205,49	1736,68
205,71	1673,19
205,93	1703,91
206,15	1677,29
206,37	1701,86
206,59	1632,23
206,81	1675,24
207,03	1626,09
207,25	1599,46
207,47	1701,86
207,69	1726,44
207,91	1718,25
208,13	1767,40
208,34	1705,96
208,56	1636,33
208,78	1777,64
209,00	1708,01
209,22	1638,38
209,44	1630,18
209,66	1652,71
209,88	1677,29
210,10	1736,68
210,32	1708,01
210,54	1753,06
210,76	1699,81
210,98	1775,59
211,20	1544,17
211,42	1650,66
211,64	1722,34
211,86	1689,57
212,08	1665,00
212,30	1710,05
212,52	1667,05
212,74	1730,53
212,96	1671,14
213,17	1736,68
213,39	1667,05
213,61	1753,06
213,83	1794,02
214,05	1581,03
214,27	1689,57
214,49	1673,19
214,71	1644,52
214,93	1767,40
215,15	1775,59
215,37	1681,38
215,59	1581,03
215,81	1757,16
216,03	1787,88
216,24	1730,53
216,46	1665,00
216,68	1712,10
216,90	1722,34
217,12	1734,63
217,34	1650,66
217,56	1734,63
217,78	1701,86
218,00	1755,11
218,22	1656,81
218,44	1742,82
218,66	1701,86
218,87	1832,93
219,09	1691,62
219,31	1681,38
219,53	1703,91
219,75	1662,95
219,97	1667,05
220,19	1632,23
220,41	1673,19
220,63	1814,50
220,85	1662,95
221,06	1675,24
221,28	1730,53
221,50	1722,34
221,72	1683,43
221,94	1685,48
222,16	1681,38
222,38	1730,53
222,60	1658,85
222,82	1656,81
223,03	1720,29
223,25	1619,94
223,47	1746,92
223,69	1824,74
223,91	1726,44
224,13	1685,48
224,35	1667,05
224,57	1734,63
224,78	1665,00
225,00	1669,09
225,22	1716,20
225,44	1757,16
225,66	1712,10
225,88	1722,34
226,10	1744,87
226,32	1712,10
226,53	1837,03
226,75	1699,81
226,97	1722,34
227,19	1683,43
227,41	1681,38
227,63	1669,09
227,85	1621,99
228,06	1691,62
228,28	1767,40
228,50	1642,47
228,72	1654,76
228,94	1689,57
229,16	1626,09
229,37	1671,14
229,59	1650,66
229,81	1767,40
230,03	1648,61
230,25	1617,90
230,47	1646,57
230,69	1677,29
230,90	1718,25
231,12	1734,63
231,34	1660,90
231,56	1765,35
231,78	1656,81
232,00	1679,33
232,21	1673,19
232,43	1703,91
232,65	1581,03
232,87	1751,01
233,09	1714,15
233,30	1665,00
233,52	1669,09
233,74	1681,38
233,96	1650,66
234,18	1693,67
234,40	1791,97
234,61	1789,92
234,83	1566,70
235,05	1634,28
235,27	1771,49
235,49	1861,60
235,70	1722,34
235,92	1722,34
236,14	1738,73
236,36	1779,68
236,58	1662,95
236,79	1738,73
237,01	1716,20
237,23	1615,85
237,45	1785,83
237,67	1597,42
237,88	1628,14
238,10	1761,25
238,32	1658,85
238,54	1654,76
238,76	1689,57
238,97	1642,47
239,19	1685,48
239,41	1744,87
239,63	1699,81
239,85	1701,86
240,06	1701,86
240,28	1683,43
240,50	1791,97
240,72	1705,96
240,93	1683,43
241,15	1777,64
241,37	1658,85
241,59	1693,67
241,81	1642,47
242,02	1630,18
242,24	1738,73
242,46	1675,24
242,68	1640,42
242,89	1683,43
243,11	1775,59
243,33	1705,96
243,55	1638,38
243,76	1679,33
243,98	1742,82
244,20	1636,33
244,42	1603,56
244,64	1679,33
244,85	1640,42
245,07	1679,33
245,29	1753,06
245,51	1656,81
245,72	1665,00
245,94	1769,44
246,16	1660,90
246,38	1769,44
246,59	1593,32
246,81	1685,48
247,03	1621,99
247,24	1630,18
247,46	1673,19
247,68	1703,91
247,90	1648,61
248,11	1636,33
248,33	1773,54
248,55	1699,81
248,77	1765,35
248,98	1689,57
249,20	1689,57
249,42	1789,92
249,64	1753,06
249,85	1701,86
250,07	1607,66
250,29	1769,44
250,50	1732,58
250,72	1599,46
250,94	1705,96
251,16	1828,84
251,37	1699,81
251,59	1718,25
251,81	1738,73
252,02	1748,97
252,24	1609,70
252,46	1777,64
252,68	1681,38
252,89	1640,42
253,11	1562,60
253,33	1781,73
253,54	1779,68
253,76	1656,81
253,98	1683,43
254,20	1619,94
254,41	1611,75
254,63	1730,53
254,85	1591,27
255,06	1699,81
255,28	1683,43
255,50	1640,42
255,71	1650,66
255,93	1697,77
256,15	1710,05
256,36	1685,48
256,58	1607,66
256,80	1777,64
257,02	1687,53
257,23	1638,38
257,45	1693,67
257,67	1740,77
257,88	1589,22
258,10	1693,67
258,32	1578,98
258,53	1689,57
258,75	1787,88
258,97	1662,95
259,18	1636,33
259,40	1693,67
259,62	1746,92
259,83	1746,92
260,05	1701,86
260,27	1914,85
260,48	1687,53
260,70	1673,19
260,92	1685,48
261,13	1677,29
261,35	1722,34
261,57	1658,85
261,78	1632,23
262,00	1648,61
262,22	1796,07
262,43	1665,00
262,65	1705,96
262,86	1591,27
263,08	1800,16
263,30	1730,53
263,51	1587,18
263,73	1716,20
263,95	1843,17
264,16	1638,38
264,38	1673,19
264,60	1681,38
264,81	1656,81
265,03	1705,96
265,25	1705,96
265,46	1716,20
265,68	1783,78
265,89	1652,71
266,11	1607,66
266,33	1755,11
266,54	1722,34
266,76	1730,53
266,98	1755,11
267,19	1681,38
267,41	1708,01
267,62	1679,33
267,84	1683,43
268,06	1665,00
268,27	1632,23
268,49	1767,40
268,70	1744,87
268,92	1679,33
269,14	1601,51
269,35	1636,33
269,57	1683,43
269,79	1730,53
270,00	1685,48
270,22	1779,68
270,43	1681,38
270,65	1570,79
270,87	1675,24
271,08	1708,01
271,30	1773,54
271,51	1650,66
271,73	1710,05
271,95	1726,44
272,16	1746,92
272,38	1730,53
272,59	1687,53
272,81	1708,01
273,02	1679,33
273,24	1669,09
273,46	1718,25
273,67	1652,71
273,89	1648,61
274,10	1712,10
274,32	1738,73
274,54	1718,25
274,75	1693,67
274,97	1662,95
275,18	1734,63
275,40	1763,30
275,61	1675,24
275,83	1701,86
276,05	1640,42
276,26	1742,82
276,48	1798,12
276,69	1601,51
276,91	1691,62
277,12	1746,92
277,34	1783,78
277,55	1751,01
277,77	1669,09
277,99	1634,28
278,20	1687,53
278,42	1650,66
278,63	1728,49
278,85	1636,33
279,06	1652,71
279,28	1708,01
279,49	1697,77
279,71	1804,26
279,93	1697,77
280,14	1679,33
280,36	1626,09
280,57	1681,38
280,79	1771,49
281,00	1675,24
281,22	1677,29
281,43	1802,21
281,65	1499,11
281,86	1693,67
282,08	1689,57
282,29	1785,83
282,51	1652,71
282,73	1656,81
282,94	1646,57
283,16	1722,34
283,37	1744,87
283,59	1718,25
283,80	1691,62
284,02	1738,73
284,23	1665,00
284,45	1656,81
284,66	1634,28
284,88	1615,85
285,09	1691,62
285,31	1834,98
285,52	1685,48
285,74	1685,48
285,95	1703,91
286,17	1705,96
286,38	1693,67
286,60	1669,09
286,81	1628,14
287,03	1665,00
287,24	1691,62
287,46	1701,86
287,67	1744,87
287,89	1742,82
288,10	1767,40
288,32	1736,68
288,53	1828,84
288,75	1665,00
288,96	1746,92
289,18	1619,94
289,39	1665,00
289,61	1761,25
289,82	1804,26
290,04	1763,30
290,25	1636,33
290,47	1751,01
290,68	1595,37
290,90	1779,68
291,11	1675,24
291,33	1740,77
291,54	1617,90
291,76	1640,42
291,97	1742,82
292,18	1681,38
292,40	1593,32
292,61	1624,04
292,83	1705,96
293,04	1712,10
293,26	1667,05
293,47	1650,66
293,69	1599,46
293,90	1742,82
294,12	1783,78
294,33	1685,48
294,55	1699,81
294,76	1714,15
294,97	1767,40
295,19	1789,92
295,40	1669,09
295,62	1732,58
295,83	1761,25
296,05	1732,58
296,26	1734,63
296,48	1591,27
296,69	1677,29
296,90	1714,15
297,12	1726,44
297,33	1818,60
297,55	1669,09
297,76	1697,77
297,98	1759,21
298,19	1685,48
298,41	1660,90
298,62	1671,14
298,83	1710,05
299,05	1648,61
299,26	1646,57
299,48	1722,34
299,69	1779,68
299,90	1671,14
300,12	1595,37
300,33	1673,19
300,55	1716,20
300,76	1720,29
300,98	1599,46
301,19	1722,34
301,40	1714,15
301,62	1648,61
301,83	1712,10
302,05	1640,42
302,26	1724,39
302,47	1708,01
302,69	1611,75
302,90	1665,00
303,12	1566,70
303,33	1775,59
303,54	1732,58
303,76	1714,15
303,97	1667,05
304,19	1769,44
304,40	1638,38
304,61	1744,87
304,83	1839,08
305,04	1755,11
305,26	1761,25
305,47	1679,33
305,68	1679,33
305,90	1669,09
306,11	1748,97
306,33	1673,19
306,54	1667,05
306,75	1771,49
306,97	1712,10
307,18	1626,09
307,39	1710,05
307,61	1701,86
307,82	1613,80
308,04	1689,57
308,25	1673,19
308,46	1689,57
308,68	1775,59
308,89	1726,44
309,10	1730,53
309,32	1730,53
309,53	1662,95
309,74	1656,81
309,96	1701,86
310,17	1773,54
310,39	1646,57
310,60	1798,12
310,81	1701,86
311,03	1632,23
311,24	1742,82
311,45	1652,71
311,67	1822,69
311,88	1701,86
312,09	1619,94
312,31	1648,61
312,52	1640,42
312,73	1685,48
312,95	1677,29
313,16	1650,66
313,37	1771,49
313,59	1712,10
313,80	1685,48
314,01	1755,11
314,23	1701,86
314,44	1607,66
314,65	1619,94
314,87	1624,04
315,08	1693,67
315,29	1667,05
315,51	1673,19
315,72	1638,38
315,93	1724,39
316,15	1775,59
316,36	1701,86
316,57	1765,35
316,79	1714,15
317,00	1710,05
317,21	1687,53
317,43	1703,91
317,64	1697,77
317,85	1732,58
318,07	1703,91
318,28	1677,29
318,49	1755,11
318,70	1880,04
318,92	1808,36
319,13	1753,06
319,34	1800,16
319,56	1800,16
319,77	1769,44
319,98	1798,12
320,20	1734,63
320,41	1771,49
320,62	1730,53
320,83	1634,28
321,05	1912,80
321,26	1722,34
321,47	1681,38
321,69	1757,16
321,90	1609,70
322,11	1728,49
322,32	1775,59
322,54	1693,67
322,75	1648,61
322,96	1699,81
323,18	1607,66
323,39	1615,85
323,60	1648,61
323,81	1796,07
324,03	1677,29
324,24	1763,30
324,45	1683,43
324,66	1617,90
324,88	1775,59
325,09	1771,49
325,30	1685,48
325,52	1726,44
325,73	1722,34
325,94	1675,24
326,15	1652,71
326,37	1695,72
326,58	1767,40
326,79	1777,64
327,00	1630,18
327,22	1673,19
327,43	1642,47
327,64	1667,05
327,85	1691,62
328,07	1660,90
328,28	1740,77
328,49	1701,86
328,70	1624,04
328,92	1781,73
329,13	1699,81
329,34	1748,97
329,55	1742,82
329,76	1757,16
329,98	1648,61
330,19	1722,34
330,40	1746,92
330,61	1732,58
330,83	1726,44
331,04	1671,14
331,25	1636,33
331,46	1712,10
331,68	1679,33
331,89	1748,97
332,10	1691,62
332,31	1566,70
332,52	1681,38
332,74	1769,44
332,95	1669,09
333,16	1705,96
333,37	1738,73
333,58	1640,42
333,80	1726,44
334,01	1652,71
334,22	1718,25
334,43	1656,81
334,64	1712,10
334,86	1640,42
335,07	1642,47
335,28	1757,16
335,49	1632,23
335,70	1720,29
335,92	1759,21
336,13	1806,31
336,34	1619,94
336,55	1710,05
336,76	1720,29
336,98	1593,32
337,19	1662,95
337,40	1773,54
337,61	1814,50
337,82	1619,94
338,04	1746,92
338,25	1667,05
338,46	1669,09
338,67	1669,09
338,88	1677,29
339,09	1730,53
339,31	1720,29
339,52	1652,71
339,73	1591,27
339,94	1671,14
340,15	1685,48
340,36	1675,24
340,58	1697,77
340,79	1634,28
341,00	1734,63
341,21	1624,04
341,42	1804,26
341,63	1665,00
341,85	1732,58
342,06	1615,85
342,27	1642,47
342,48	1705,96
342,69	1736,68
342,90	1824,74
343,12	1683,43
343,33	1708,01
343,54	1767,40
343,75	1853,41
343,96	1734,63
344,17	1656,81
344,38	1679,33
344,60	1611,75
344,81	1656,81
345,02	1710,05
345,23	1757,16
345,44	1765,35
345,65	1705,96
345,86	1695,72
346,07	1705,96
346,29	1665,00
346,50	1753,06
346,71	1751,01
346,92	1777,64
347,13	1865,70
347,34	1656,81
347,55	1734,63
347,76	1687,53
347,98	1546,22
348,19	1632,23
348,40	1757,16
348,61	1699,81
348,82	1851,36
349,03	1705,96
349,24	1691,62
349,45	1757,16
349,66	1624,04
349,88	1638,38
350,09	1705,96
350,30	1767,40
350,51	1820,64
350,72	1632,23
350,93	1638,38
351,14	1662,95
351,35	1662,95
351,56	1703,91
351,77	1697,77
351,99	1665,00
352,20	1779,68
352,41	1771,49
352,62	1572,84
352,83	1634,28
353,04	1687,53
353,25	1658,85
353,46	1785,83
353,67	1810,40
353,88	1603,56
354,09	1628,14
354,30	1718,25
354,52	1722,34
354,73	1689,57
354,94	1681,38
355,15	1689,57
355,36	1810,40
355,57	1626,09
355,78	1665,00
355,99	1703,91
356,20	1617,90
356,41	1685,48
356,62	1722,34
356,83	1683,43
357,04	1783,78
357,25	1560,55
357,46	1609,70
357,68	1591,27
357,89	1648,61
358,10	1705,96
358,31	1665,00
358,52	1716,20
358,73	1638,38
358,94	1632,23
359,15	1652,71
359,36	1765,35
359,57	1718,25
359,78	1687,53
359,99	1701,86
360,20	1568,74
360,41	1632,23
360,62	1738,73
360,83	1695,72
361,04	1763,30
361,25	1765,35
361,46	1812,45
361,67	1789,92
361,88	1671,14
362,09	1734,63
362,30	1665,00
362,51	1673,19
362,72	1730,53
362,93	1736,68
363,14	1779,68
363,35	1677,29
363,56	1646,57
363,78	1681,38
363,99	1751,01
364,20	1587,18
364,41	1697,77
364,62	1800,16
364,83	1693,67
365,04	1673,19
365,25	1673,19
365,46	1853,41
365,67	1640,42
365,88	1636,33
366,09	1669,09
366,30	1656,81
366,51	1683,43
366,72	1689,57
366,93	1613,80
367,14	1685,48
367,35	1714,15
367,56	1701,86
367,77	1796,07
367,98	1699,81
368,18	1705,96
368,39	1699,81
368,60	1630,18
368,81	1738,73
369,02	1691,62
369,23	1724,39
369,44	1656,81
369,65	1660,90
369,86	1734,63
370,07	1732,58
370,28	1611,75
370,49	1671,14
370,70	1716,20
370,91	1683,43
371,12	1638,38
371,33	1683,43
371,54	1665,00
371,75	1796,07
371,96	1611,75
372,17	1667,05
372,38	1755,11
372,59	1748,97
372,80	1738,73
373,01	1667,05
373,22	1624,04
373,43	1726,44
373,64	1615,85
373,85	1777,64
374,06	1820,64
374,26	1732,58
374,47	1728,49
374,68	1697,77
374,89	1724,39
375,10	1699,81
375,31	1728,49
375,52	1697,77
375,73	1730,53
375,94	1687,53
376,15	1755,11
376,36	1662,95
376,57	1675,24
376,78	1673,19
376,99	1748,97
377,20	1740,77
377,40	1648,61
377,61	1861,60
377,82	1734,63
378,03	1806,31
378,24	1689,57
378,45	1677,29
378,66	1693,67
378,87	1660,90
379,08	1665,00
379,29	1665,00
379,50	1777,64
379,71	1681,38
379,91	1775,59
380,12	1626,09
380,33	1689,57
380,54	1650,66
380,75	1714,15
380,96	1679,33
381,17	1757,16
381,38	1771,49
381,59	1779,68
381,80	1669,09
382,00	1820,64
382,21	1771,49
382,42	1834,98
382,63	1882,08
382,84	1730,53
383,05	1734,63
383,26	1871,84
383,47	1771,49
383,68	1877,99
383,88	1755,11
384,09	1742,82
384,30	1763,30
384,51	1763,30
384,72	1710,05
384,93	1640,42
385,14	1591,27
385,35	1699,81
385,55	1619,94
385,76	1697,77
385,97	1726,44
386,18	1660,90
386,39	1662,95
386,60	1662,95
386,81	1673,19
387,02	1628,14
387,22	1675,24
387,43	1732,58
387,64	1742,82
387,85	1869,80
388,06	2181,09
388,27	4304,83
388,48	6838,17
388,68	8241,03
388,89	9727,85
389,10	9867,11
389,31	8765,31
389,52	7554,96
389,73	6885,27
389,93	6281,12
390,14	5773,22
390,35	5275,57
390,56	4569,02
390,77	3768,26
390,98	3069,91
391,18	2508,76
391,39	2148,32
391,60	1877,99
391,81	1890,28
392,02	1722,34
392,23	1814,50
392,43	1681,38
392,64	1834,98
392,85	1724,39
393,06	1783,78
393,27	1734,63
393,47	1646,57
393,68	1761,25
393,89	1746,92
394,10	1728,49
394,31	1759,21
394,52	1681,38
394,72	1681,38
394,93	1798,12
395,14	1677,29
395,35	1773,54
395,56	1671,14
395,76	1757,16
395,97	1783,78
396,18	1816,55
396,39	1882,08
396,60	1941,47
396,80	1912,80
397,01	1908,71
397,22	1839,08
397,43	1804,26
397,64	1703,91
397,84	1841,12
398,05	1785,83
398,26	1697,77
398,47	1716,20
398,67	1746,92
398,88	1755,11
399,09	1714,15
399,30	1658,85
399,51	1800,16
399,71	1654,76
399,92	1634,28
400,13	1738,73
400,34	1673,19
400,54	1701,86
400,75	1744,87
400,96	1712,10
401,17	1832,93
401,37	1679,33
401,58	1658,85
401,79	1728,49
402,00	1828,84
402,21	1992,67
402,41	2041,82
402,62	2000,87
402,83	2002,91
403,04	1998,82
403,24	2023,39
403,45	1837,03
403,66	1871,84
403,87	1865,70
404,07	1843,17
404,28	1861,60
404,49	1894,37
404,70	1757,16
404,90	1740,77
405,11	1738,73
405,32	1705,96
405,52	1732,58
405,73	1669,09
405,94	1626,09
406,15	1677,29
406,35	1689,57
406,56	1679,33
406,77	1720,29
406,98	1673,19
407,18	1681,38
407,39	1761,25
407,60	1691,62
407,80	1738,73
408,01	1644,52
408,22	1734,63
408,43	1583,08
408,63	1724,39
408,84	1738,73
409,05	1763,30
409,25	1689,57
409,46	1683,43
409,67	1660,90
409,88	1636,33
410,08	1742,82
410,29	1718,25
410,50	1798,12
410,70	1767,40
410,91	1613,80
411,12	1701,86
411,32	1644,52
411,53	1724,39
411,74	1802,21
411,95	1759,21
412,15	1701,86
412,36	1722,34
412,57	1712,10
412,77	1791,97
412,98	1740,77
413,19	1665,00
413,39	1759,21
413,60	1746,92
413,81	1757,16
414,01	1642,47
414,22	1765,35
414,43	1705,96
414,63	1642,47
414,84	1763,30
415,05	1679,33
415,25	1689,57
415,46	1689,57
415,67	1667,05
415,87	1673,19
416,08	1759,21
416,29	1746,92
416,49	1697,77
416,70	1720,29
416,91	1695,72
417,11	1697,77
417,32	1742,82
417,53	1732,58
417,73	1705,96
417,94	1675,24
418,15	1701,86
418,35	1695,72
418,56	1720,29
418,77	1763,30
418,97	1665,00
419,18	1673,19
419,38	1636,33
419,59	1646,57
419,80	1789,92
420,00	1759,21
420,21	1681,38
420,42	1800,16
420,62	1730,53
420,83	1689,57
421,04	1738,73
421,24	1667,05
421,45	1812,45
421,65	1669,09
421,86	1636,33
422,07	1644,52
422,27	1681,38
422,48	1701,86
422,69	1646,57
422,89	1759,21
423,10	1601,51
423,30	1617,90
423,51	1718,25
423,72	1734,63
423,92	1734,63
424,13	1638,38
424,33	1615,85
424,54	1759,21
424,75	1755,11
424,95	1849,32
425,16	1716,20
425,36	1761,25
425,57	1718,25
425,78	1726,44
425,98	1724,39
426,19	1724,39
426,39	1574,89
426,60	1734,63
426,81	1767,40
427,01	1658,85
427,22	1705,96
427,42	1607,66
427,63	1636,33
427,83	1722,34
428,04	1820,64
428,25	1751,01
428,45	1736,68
428,66	1742,82
428,86	1708,01
429,07	1667,05
429,28	1695,72
429,48	1691,62
429,69	1648,61
429,89	1722,34
430,10	1634,28
430,30	1716,20
430,51	1730,53
430,71	1665,00
430,92	1658,85
431,13	1708,01
431,33	1759,21
431,54	1681,38
431,74	1812,45
431,95	1767,40
432,15	1691,62
432,36	1648,61
432,56	1705,96
432,77	1832,93
432,98	1751,01
433,18	1662,95
433,39	1658,85
433,59	1787,88
433,80	1933,28
434,00	1847,27
434,21	1710,05
434,41	1599,46
434,62	1832,93
434,82	1681,38
435,03	1585,13
435,23	1695,72
435,44	1593,32
435,64	1726,44
435,85	1748,97
436,06	1742,82
436,26	1722,34
436,47	1632,23
436,67	1566,70
436,88	1714,15
437,08	1789,92
437,29	1753,06
437,49	1697,77
437,70	1726,44
437,90	1701,86
438,11	1828,84
438,31	1708,01
438,52	1796,07
438,72	1820,64
438,93	1935,33
439,13	1722,34
439,34	1906,66
439,54	1742,82
439,75	1759,21
439,95	1724,39
440,16	1726,44
440,36	1763,30
440,57	1714,15
440,77	1746,92
440,98	1693,67
441,18	1695,72
441,39	1636,33
441,59	1681,38
441,80	1861,60
442,00	1789,92
442,21	1820,64
442,41	1646,57
442,62	1720,29
442,82	1753,06
443,02	1669,09
443,23	1693,67
443,43	1675,24
443,64	1863,65
443,84	1636,33
444,05	1859,56
444,25	1695,72
444,46	1677,29
444,66	1734,63
444,87	1779,68
445,07	1644,52
445,28	1683,43
445,48	1800,16
445,69	1812,45
445,89	1798,12
446,09	1724,39
446,30	2009,06
446,50	2643,93
446,71	3760,07
446,91	4300,73
447,12	4782,01
447,32	4878,26
447,53	4560,83
447,73	3923,91
447,93	3557,32
448,14	3344,33
448,34	3231,69
448,55	2967,51
448,75	2805,72
448,96	2707,41
449,16	2349,02
449,36	2316,25
449,57	2007,01
449,77	1927,14
449,98	1781,73
450,18	1855,46
450,39	1812,45
450,59	1785,83
450,79	1697,77
451,00	1761,25
451,20	1779,68
451,41	1755,11
451,61	1748,97
451,81	1716,20
452,02	1730,53
452,22	1787,88
452,43	1673,19
452,63	1673,19
452,84	1812,45
453,04	1699,81
453,24	1740,77
453,45	1701,86
453,65	1681,38
453,86	1710,05
454,06	1816,55
454,26	1773,54
454,47	1705,96
454,67	1734,63
454,87	1681,38
455,08	1689,57
455,28	1871,84
455,49	1761,25
455,69	1699,81
455,89	1912,80
456,10	1789,92
456,30	1660,90
456,51	1804,26
456,71	1769,44
456,91	1738,73
457,12	1708,01
457,32	1687,53
457,52	1753,06
457,73	1812,45
457,93	1763,30
458,14	1624,04
458,34	1650,66
458,54	1730,53
458,75	1648,61
458,95	1796,07
459,15	1757,16
459,36	1744,87
459,56	1759,21
459,76	1851,36
459,97	1683,43
460,17	1732,58
460,37	1712,10
460,58	1763,30
460,78	1787,88
460,99	1683,43
461,19	1736,68
461,39	1705,96
461,60	1728,49
461,80	1830,88
462,00	1710,05
462,21	1759,21
462,41	1673,19
462,61	1699,81
462,82	1679,33
463,02	1798,12
463,22	1728,49
463,43	1771,49
463,63	1669,09
463,83	1757,16
464,04	1716,20
464,24	1681,38
464,44	1701,86
464,64	1771,49
464,85	1677,29
465,05	1765,35
465,25	1800,16
465,46	1724,39
465,66	1783,78
465,86	1785,83
466,07	1656,81
466,27	1693,67
466,47	1730,53
466,68	1699,81
466,88	1710,05
467,08	1728,49
467,29	1775,59
467,49	1753,06
467,69	1722,34
467,89	1697,77
468,10	1701,86
468,30	1699,81
468,50	1853,41
468,71	1714,15
468,91	1636,33
469,11	1808,36
469,31	1687,53
469,52	1662,95
469,72	1779,68
469,92	1800,16
470,13	1699,81
470,33	1734,63
470,53	1789,92
470,73	2115,55
470,94	2260,96
471,14	2359,26
471,34	2467,80
471,54	2432,99
471,75	2295,77
471,95	2119,65
472,15	2107,36
472,36	2093,02
472,56	2039,78
472,76	1996,77
472,96	1943,52
473,17	1959,91
473,37	1961,95
473,57	1742,82
473,77	1798,12
473,98	1683,43
474,18	1746,92
474,38	1920,99
474,58	1724,39
474,79	1740,77
474,99	1740,77
475,19	1759,21
475,39	1685,48
475,60	1740,77
475,80	1689,57
476,00	1732,58
476,20	1654,76
476,41	1685,48
476,61	1841,12
476,81	1794,02
477,01	1718,25
477,21	1888,23
477,42	1834,98
477,62	1675,24
477,82	1769,44
478,02	1654,76
478,23	1712,10
478,43	1769,44
478,63	1720,29
478,83	1689,57
479,03	1708,01
479,24	1841,12
479,44	1806,31
479,64	1687,53
479,84	1634,28
480,04	1675,24
480,25	1798,12
480,45	1722,34
480,65	1607,66
480,85	1781,73
481,06	1648,61
481,26	1740,77
481,46	1744,87
481,66	1636,33
481,86	1648,61
482,06	1828,84
482,27	1730,53
482,47	1679,33
482,67	1734,63
482,87	1720,29
483,07	1837,03
483,28	1716,20
483,48	1626,09
483,68	1761,25
483,88	1636,33
484,08	1595,37
484,29	1638,38
484,49	1742,82
484,69	1716,20
484,89	1796,07
485,09	1714,15
485,29	1744,87
485,50	1757,16
485,70	1583,08
485,90	1810,40
486,10	1742,82
486,30	1712,10
486,50	1708,01
486,71	1732,58
486,91	1791,97
487,11	1824,74
487,31	1619,94
487,51	1740,77
487,71	1578,98
487,91	1595,37
488,12	1691,62
488,32	1603,56
488,52	1740,77
488,72	1599,46
488,92	1812,45
489,12	1822,69
489,32	1761,25
489,53	1748,97
489,73	1675,24
489,93	1828,84
490,13	1716,20
490,33	1708,01
490,53	1701,86
490,73	1783,78
490,94	1654,76
491,14	1787,88
491,34	1798,12
491,54	2084,83
491,74	2586,58
491,94	2846,68
492,14	3157,97
492,34	3069,91
492,54	2803,67
492,75	2494,43
492,95	2402,27
493,15	2322,40
493,35	2353,12
493,55	2203,61
493,75	2148,32
493,95	2166,75
494,15	2021,35
494,35	1865,70
494,56	1906,66
494,76	1787,88
494,96	1798,12
495,16	1759,21
495,36	1712,10
495,56	1697,77
495,76	1771,49
495,96	1691,62
496,16	1665,00
496,36	1753,06
496,56	1761,25
496,77	1759,21
496,97	1791,97
497,17	1755,11
497,37	1681,38
497,57	1775,59
497,77	1722,34
497,97	1726,44
498,17	1746,92
498,37	1703,91
498,57	1705,96
498,77	1685,48
498,97	1744,87
499,17	1796,07
499,38	1705,96
499,58	1757,16
499,78	1828,84
499,98	1787,88
500,18	1626,09
500,38	1726,44
500,58	1939,43
500,78	2545,63
500,98	4550,59
501,18	5795,75
501,38	6633,37
501,58	7102,36
501,78	6772,63
501,98	5506,99
502,18	5017,52
502,38	4296,64
502,58	4167,62
502,78	3872,71
502,98	3526,60
503,18	3491,79
503,38	3123,15
503,59	2787,29
503,79	2729,94
503,99	2545,63
504,19	2281,44
504,39	2193,37
504,59	2166,75
504,79	2084,83
504,99	1992,67
505,19	1894,37
505,39	1953,76
505,59	1957,86
505,79	1968,10
505,99	1808,36
506,19	1802,21
506,39	1845,22
506,59	1722,34
506,79	1753,06
506,99	1834,98
507,19	1751,01
507,39	1804,26
507,59	1712,10
507,79	1681,38
507,99	1648,61
508,19	1716,20
508,39	1736,68
508,59	1767,40
508,79	1751,01
508,99	1787,88
509,19	1681,38
509,39	1740,77
509,59	1738,73
509,79	1722,34
509,99	1701,86
510,19	1787,88
510,39	1777,64
510,59	1669,09
510,79	1730,53
510,99	1693,67
511,19	1775,59
511,39	1869,80
511,59	1763,30
511,79	1728,49
511,99	1730,53
512,19	1839,08
512,38	1748,97
512,58	1734,63
512,78	1708,01
512,98	1804,26
513,18	1789,92
513,38	1648,61
513,58	1865,70
513,78	1636,33
513,98	1679,33
514,18	1730,53
514,38	1767,40
514,58	1724,39
514,78	1689,57
514,98	1640,42
515,18	1681,38
515,38	1701,86
515,58	1812,45
515,78	1603,56
515,98	1699,81
516,18	1853,41
516,38	1654,76
516,57	1699,81
516,77	1675,24
516,97	1746,92
517,17	1761,25
517,37	1597,42
517,57	1800,16
517,77	1705,96
517,97	1650,66
518,17	1744,87
518,37	1732,58
518,57	1615,85
518,77	1716,20
518,97	1738,73
519,16	1665,00
519,36	1720,29
519,56	1705,96
519,76	1685,48
519,96	1701,86
520,16	1837,03
520,36	1730,53
520,56	1800,16
520,76	1636,33
520,96	1675,24
521,16	1738,73
521,35	1779,68
521,55	1806,31
521,75	1753,06
521,95	1705,96
522,15	1708,01
522,35	1642,47
522,55	1697,77
522,75	1859,56
522,95	1679,33
523,14	1693,67
523,34	1816,55
523,54	1677,29
523,74	1753,06
523,94	1689,57
524,14	1662,95
524,34	1732,58
524,54	1748,97
524,73	1722,34
524,93	1806,31
525,13	1746,92
525,33	1691,62
525,53	1898,47
525,73	1695,72
525,93	1720,29
526,13	1650,66
526,32	1724,39
526,52	1808,36
526,72	1736,68
526,92	1724,39
527,12	1697,77
527,32	1650,66
527,52	1691,62
527,71	1767,40
527,91	1777,64
528,11	1708,01
528,31	1718,25
528,51	1667,05
528,71	1705,96
528,90	1703,91
529,10	1720,29
529,30	1806,31
529,50	1605,61
529,70	1710,05
529,90	1724,39
530,09	1705,96
530,29	1689,57
530,49	1644,52
530,69	1791,97
530,89	1681,38
531,09	1720,29
531,28	1716,20
531,48	1808,36
531,68	1742,82
531,88	1744,87
532,08	1796,07
532,28	1658,85
532,47	1755,11
532,67	1800,16
532,87	1687,53
533,07	1716,20
533,27	1724,39
533,46	1798,12
533,66	1734,63
533,86	1759,21
534,06	1718,25
534,26	1708,01
534,45	1638,38
534,65	1884,13
534,85	1732,58
535,05	1779,68
535,25	1757,16
535,44	1640,42
535,64	1843,17
535,84	1765,35
536,04	1720,29
536,24	1638,38
536,43	1744,87
536,63	1804,26
536,83	1751,01
537,03	1773,54
537,22	1642,47
537,42	1658,85
537,62	1738,73
537,82	1703,91
538,02	1785,83
538,21	1748,97
538,41	1904,61
538,61	1662,95
538,81	1771,49
539,00	1851,36
539,20	1691,62
539,40	1718,25
539,60	1751,01
539,79	1718,25
539,99	1732,58
540,19	1652,71
540,39	1730,53
540,58	1650,66
540,78	1857,51
540,98	1683,43
541,18	1724,39
541,37	1773,54
541,57	1773,54
541,77	1716,20
541,97	1701,86
542,16	1632,23
542,36	1757,16
542,56	1761,25
542,76	1902,56
542,95	1806,31
543,15	1787,88
543,35	1763,30
543,54	1677,29
543,74	1677,29
543,94	1830,88
544,14	1742,82
544,33	1763,30
544,53	1662,95
544,73	1671,14
544,93	1697,77
545,12	1746,92
545,32	1665,00
545,52	1730,53
545,71	1638,38
545,91	1701,86
546,11	1751,01
546,30	1685,48
546,50	1796,07
546,70	1710,05
546,90	1708,01
547,09	1667,05
547,29	1751,01
547,49	1705,96
547,68	1675,24
547,88	1712,10
548,08	1726,44
548,27	2123,74
548,47	1687,53
548,67	1656,81
548,87	1787,88
549,06	1724,39
549,26	1767,40
549,46	1755,11
549,65	1748,97
549,85	1660,90
550,05	1742,82
550,24	1667,05
550,44	1736,68
550,64	1712,10
550,83	1738,73
551,03	1714,15
551,23	1822,69
551,42	1789,92
551,62	1689,57
551,82	1751,01
552,01	1689,57
552,21	1771,49
552,41	1683,43
552,60	1812,45
552,80	1728,49
553,00	1761,25
553,19	1755,11
553,39	1828,84
553,59	1683,43
553,78	1769,44
553,98	1691,62
554,17	1656,81
554,37	1699,81
554,57	1826,79
554,76	1683,43
554,96	1751,01
555,16	1738,73
555,35	1665,00
555,55	1773,54
555,75	1765,35
555,94	1787,88
556,14	1701,86
556,33	1767,40
556,53	1716,20
556,73	1796,07
556,92	1767,40
557,12	1767,40
557,32	1837,03
557,51	1871,84
557,71	1777,64
557,90	1720,29
558,10	1812,45
558,30	1751,01
558,49	1679,33
558,69	1626,09
558,88	1796,07
559,08	1781,73
559,28	1712,10
559,47	1716,20
559,67	1708,01
559,86	1789,92
560,06	1703,91
560,26	1710,05
560,45	1695,72
560,65	1611,75
560,84	1820,64
561,04	1714,15
561,24	1796,07
561,43	1697,77
561,63	1802,21
561,82	1791,97
562,02	1787,88
562,22	1677,29
562,41	1695,72
562,61	1650,66
562,80	1705,96
563,00	1890,28
563,19	1701,86
563,39	1767,40
563,59	1775,59
563,78	1673,19
563,98	1562,60
564,17	1710,05
564,37	1568,74
564,56	1722,34
564,76	1726,44
564,96	1734,63
565,15	1779,68
565,35	1798,12
565,54	1695,72
565,74	1722,34
565,93	1740,77
566,13	1755,11
566,32	1806,31
566,52	1822,69
566,71	1693,67
566,91	1810,40
567,11	1800,16
567,30	1728,49
567,50	1687,53
567,69	1775,59
567,89	1726,44
568,08	1761,25
568,28	1734,63
568,47	1634,28
568,67	1710,05
568,86	1699,81
569,06	1873,89
569,25	1689,57
569,45	1722,34
569,64	1714,15
569,84	1759,21
570,04	1751,01
570,23	1697,77
570,43	1695,72
570,62	1765,35
570,82	1722,34
571,01	1660,90
571,21	1708,01
571,40	1718,25
571,60	1812,45
571,79	1708,01
571,99	1738,73
572,18	1703,91
572,38	1802,21
572,57	1687,53
572,77	1748,97
572,96	1939,43
573,16	1746,92
573,35	1708,01
573,55	1822,69
573,74	1665,00
573,94	1705,96
574,13	1734,63
574,33	1812,45
574,52	1796,07
574,71	1761,25
574,91	1751,01
575,10	1732,58
575,30	1691,62
575,49	1624,04
575,69	1728,49
575,88	1648,61
576,08	1697,77
576,27	1804,26
576,47	1722,34
576,66	1802,21
576,86	1863,65
577,05	1734,63
577,25	1722,34
577,44	1861,60
577,64	1728,49
577,83	1791,97
578,02	1757,16
578,22	1773,54
578,41	1873,89
578,61	1785,83
578,80	1658,85
579,00	1773,54
579,19	1718,25
579,39	1732,58
579,58	1806,31
579,77	1742,82
579,97	1818,60
580,16	1828,84
580,36	1841,12
580,55	1794,02
580,75	1777,64
580,94	1748,97
581,13	1875,94
581,33	1861,60
581,52	1798,12
581,72	1816,55
581,91	1781,73
582,11	1789,92
582,30	1755,11
582,49	1775,59
582,69	1746,92
582,88	1816,55
583,08	1824,74
583,27	1798,12
583,47	1705,96
583,66	1701,86
583,85	1708,01
584,05	1755,11
584,24	1785,83
584,44	1800,16
584,63	1763,30
584,82	1861,60
585,02	1822,69
585,21	1947,62
585,41	1853,41
585,60	1775,59
585,79	1943,52
585,99	1904,61
586,18	1794,02
586,37	2238,43
586,57	3362,76
586,76	10055,53
586,96	24942,21
587,15	34991,59
587,34	40803,73
587,54	43023,73
587,73	37273,03
587,93	26830,44
588,12	21890,74
588,31	18585,32
588,51	16705,28
588,70	15290,13
588,89	14225,19
589,09	12650,30
589,28	11093,85
589,47	9668,46
589,67	8218,50
589,86	6494,11
590,06	4976,56
590,25	4020,16
590,44	3127,25
590,64	2574,30
590,83	2324,44
591,02	2084,83
591,22	1935,33
591,41	1896,42
591,60	1804,26
591,80	1961,95
591,99	1730,53
592,18	1732,58
592,38	1794,02
592,57	1777,64
592,76	1753,06
592,96	1802,21
593,15	1771,49
593,34	1806,31
593,54	1675,24
593,73	1740,77
593,92	1804,26
594,12	1722,34
594,31	1718,25
594,50	1812,45
594,70	1753,06
594,89	1767,40
595,08	1669,09
595,28	1779,68
595,47	1935,33
595,66	1767,40
595,86	1658,85
596,05	1738,73
596,24	1675,24
596,43	1816,55
596,63	1845,22
596,82	1720,29
597,01	1681,38
597,21	1746,92
597,40	1652,71
597,59	1814,50
597,79	1654,76
597,98	1783,78
598,17	1828,84
598,36	1726,44
598,56	1691,62
598,75	1716,20
598,94	1759,21
599,14	1689,57
599,33	1703,91
599,52	1834,98
599,71	1753,06
599,91	1751,01
600,10	1726,44
600,29	1667,05
600,48	1755,11
600,68	1722,34
600,87	1697,77
601,06	1679,33
601,26	1820,64
601,45	1746,92
601,64	1654,76
601,83	1783,78
602,03	1714,15
602,22	1665,00
602,41	1791,97
602,60	1843,17
602,80	1781,73
602,99	1665,00
603,18	1705,96
603,37	1755,11
603,57	1769,44
603,76	1736,68
603,95	1757,16
604,14	1695,72
604,34	1677,29
604,53	1777,64
604,72	1714,15
604,91	1767,40
605,10	1761,25
605,30	1607,66
605,49	1746,92
605,68	1814,50
605,87	1769,44
606,07	1673,19
606,26	1769,44
606,45	1759,21
606,64	1732,58
606,84	1763,30
607,03	1798,12
607,22	1759,21
607,41	1734,63
607,60	1673,19
607,80	1789,92
607,99	1701,86
608,18	1740,77
608,37	1693,67
608,56	1669,09
608,76	1810,40
608,95	1843,17
609,14	1724,39
609,33	1773,54
609,52	1826,79
609,72	1712,10
609,91	1794,02
610,10	1714,15
610,29	1779,68
610,48	1804,26
610,68	1728,49
610,87	1755,11
611,06	1755,11
611,25	1726,44
611,44	1783,78
611,63	1691,62
611,83	1740,77
612,02	1662,95
612,21	1800,16
612,40	1603,56
612,59	1705,96
612,79	1609,70
612,98	1742,82
613,17	1748,97
613,36	1697,77
613,55	1794,02
613,74	1687,53
613,93	1689,57
614,13	1669,09
614,32	1746,92
614,51	1746,92
614,70	1648,61
614,89	1677,29
615,08	1728,49
615,28	2033,63
615,47	1740,77
615,66	1654,76
615,85	1687,53
616,04	1785,83
616,23	1650,66
616,42	1683,43
616,62	1748,97
616,81	1697,77
617,00	1693,67
617,19	1718,25
617,38	1734,63
617,57	1656,81
617,76	1761,25
617,95	1720,29
618,15	1759,21
618,34	1767,40
618,53	1677,29
618,72	1802,21
618,91	1779,68
619,10	1804,26
619,29	1714,15
619,48	1673,19
619,68	1642,47
619,87	1771,49
620,06	1710,05
620,25	1726,44
620,44	1703,91
620,63	1679,33
620,82	1751,01
621,01	1685,48
621,20	1718,25
621,39	1769,44
621,59	1732,58
621,78	1650,66
621,97	1755,11
622,16	1691,62
622,35	1710,05
622,54	1761,25
622,73	1718,25
622,92	1638,38
623,11	1781,73
623,30	1675,24
623,49	1796,07
623,68	1652,71
623,88	1845,22
624,07	1634,28
624,26	1697,77
624,45	1708,01
624,64	1714,15
624,83	1718,25
625,02	1703,91
625,21	1660,90
625,40	1734,63
625,59	1796,07
625,78	1683,43
625,97	1732,58
626,16	1732,58
626,35	1767,40
626,54	1685,48
626,74	1761,25
626,93	1617,90
627,12	1677,29
627,31	1677,29
627,50	1759,21
627,69	1689,57
627,88	1658,85
628,07	1708,01
628,26	1615,85
628,45	1675,24
628,64	1632,23
628,83	1665,00
629,02	1626,09
629,21	1726,44
629,40	1699,81
629,59	1669,09
629,78	1626,09
629,97	1753,06
630,16	1685,48
630,35	1720,29
630,54	1714,15
630,73	1681,38
630,92	1699,81
631,11	1658,85
631,30	1693,67
631,49	1744,87
631,68	1763,30
631,87	1708,01
632,06	1697,77
632,25	1806,31
632,44	1708,01
632,63	1732,58
632,82	1630,18
633,01	1675,24
633,20	1636,33
633,39	1705,96
633,58	1607,66
633,77	1730,53
633,96	1732,58
634,15	1718,25
634,34	1748,97
634,53	1716,20
634,72	1687,53
634,91	1615,85
635,10	1748,97
635,29	1744,87
635,48	1701,86
635,67	1689,57
635,86	1538,02
636,05	1800,16
636,24	1718,25
636,43	1697,77
636,62	1757,16
636,81	1488,87
637,00	1708,01
637,19	1716,20
637,38	1632,23
637,57	1734,63
637,76	1732,58
637,95	1738,73
638,14	1708,01
638,33	1757,16
638,52	1689,57
638,71	1632,23
638,89	1669,09
639,08	1771,49
639,27	1763,30
639,46	1634,28
639,65	1755,11
639,84	1689,57
640,03	1751,01
640,22	1718,25
640,41	1849,32
640,60	1650,66
640,79	1775,59
640,98	1642,47
641,17	1732,58
641,36	1718,25
641,55	1775,59
641,74	1691,62
641,92	1626,09
642,11	1640,42
642,30	1626,09
642,49	1683,43
642,68	1740,77
642,87	1722,34
643,06	1722,34
643,25	1677,29
643,44	1626,09
643,63	1697,77
643,82	1789,92
644,00	1662,95
644,19	1658,85
644,38	1699,81
644,57	1742,82
644,76	1703,91
644,95	1699,81
645,14	1728,49
645,33	1667,05
645,52	1730,53
645,71	1673,19
645,89	1648,61
646,08	1753,06
646,27	1652,71
646,46	1757,16
646,65	1619,94
646,84	1740,77
647,03	1632,23
647,22	1765,35
647,40	1734,63
647,59	1644,52
647,78	1640,42
647,97	1667,05
648,16	1658,85
648,35	1779,68
648,54	1808,36
648,73	1699,81
648,91	1746,92
649,10	1675,24
649,29	1632,23
649,48	1689,57
649,67	1720,29
649,86	1710,05
650,05	1642,47
650,23	1710,05
650,42	1650,66
650,61	1658,85
650,80	1800,16
650,99	1824,74
651,18	1718,25
651,36	1736,68
651,55	1681,38
651,74	1763,30
651,93	1617,90
652,12	1748,97
652,31	1730,53
652,49	1703,91
652,68	1691,62
652,87	1705,96
653,06	1679,33
653,25	1814,50
653,44	1675,24
653,62	1767,40
653,81	1722,34
654,00	1738,73
654,19	1748,97
654,38	1822,69
654,56	1724,39
654,75	1636,33
654,94	1746,92
655,13	1685,48
655,32	1593,32
655,51	1720,29
655,69	1636,33
655,88	1777,64
656,07	1642,47
656,26	1748,97
656,45	1601,51
656,63	1652,71
656,82	1746,92
657,01	1751,01
657,20	1669,09
657,38	1791,97
657,57	1710,05
657,76	1632,23
657,95	1814,50
658,14	1656,81
658,32	1677,29
658,51	1621,99
658,70	1669,09
658,89	1673,19
659,08	1681,38
659,26	1705,96
659,45	1669,09
659,64	1753,06
659,83	1654,76
660,01	1886,18
660,20	1689,57
660,39	1832,93
660,58	1636,33
660,76	1767,40
660,95	1609,70
661,14	1689,57
661,33	1669,09
661,51	1708,01
661,70	1796,07
661,89	1687,53
662,08	1708,01
662,26	1648,61
662,45	1687,53
662,64	1834,98
662,83	1656,81
663,01	1677,29
663,20	1673,19
663,39	1757,16
663,58	1662,95
663,76	1662,95
663,95	1746,92
664,14	1705,96
664,32	1720,29
664,51	1626,09
664,70	1626,09
664,89	1732,58
665,07	1693,67
665,26	1755,11
665,45	1624,04
665,64	1746,92
665,82	1787,88
666,01	1837,03
666,20	1628,14
666,38	1804,26
666,57	1748,97
666,76	2240,48
666,95	4433,85
667,13	10514,27
667,32	15345,43
667,51	18204,39
667,69	19078,88
667,88	17954,54
668,07	12486,47
668,25	9537,39
668,44	8261,51
668,63	7526,29
668,81	6956,95
669,00	6203,30
669,19	5676,97
669,38	5083,06
669,56	4546,49
669,75	4212,67
669,94	3442,64
670,12	2953,17
670,31	2543,58
670,50	2269,15
670,68	2125,79
670,87	1927,14
671,06	1796,07
671,24	1800,16
671,43	1861,60
671,62	1773,54
671,80	1779,68
671,99	1794,02
672,18	1757,16
672,36	1738,73
672,55	1677,29
672,74	1751,01
672,92	1691,62
673,11	1777,64
673,29	1626,09
673,48	1748,97
673,67	1685,48
673,85	1742,82
674,04	1628,14
674,23	1712,10
674,41	1777,64
674,60	1681,38
674,79	1656,81
674,97	1689,57
675,16	1746,92
675,34	1712,10
675,53	1603,56
675,72	1722,34
675,90	1740,77
676,09	1669,09
676,28	1705,96
676,46	1634,28
676,65	1693,67
676,83	1626,09
677,02	1652,71
677,21	1710,05
677,39	1615,85
677,58	1619,94
677,77	1689,57
677,95	1718,25
678,14	1638,38
678,32	1662,95
678,51	1624,04
678,70	1794,02
678,88	1703,91
679,07	1734,63
679,25	1734,63
679,44	1708,01
679,63	1681,38
679,81	1658,85
680,00	1693,67
680,18	1730,53
680,37	1708,01
680,55	1722,34
680,74	1683,43
680,93	1644,52
681,11	1748,97
681,30	1667,05
681,48	1710,05
681,67	1675,24
681,85	1724,39
682,04	1619,94
682,23	1794,02
682,41	1605,61
682,60	1673,19
682,78	1705,96
682,97	1615,85
683,15	1693,67
683,34	1673,19
683,53	1822,69
683,71	1675,24
683,90	1746,92
684,08	1738,73
684,27	1642,47
684,45	1640,42
684,64	1751,01
684,82	1646,57
685,01	1718,25
685,19	1800,16
685,38	1767,40
685,57	1714,15
685,75	1691,62
685,94	1710,05
686,12	1642,47
686,31	1624,04
686,49	1740,77
686,68	1615,85
686,86	1740,77
687,05	1769,44
687,23	1837,03
687,42	1644,52
687,60	1648,61
687,79	1759,21
687,97	1718,25
688,16	1753,06
688,34	1789,92
688,53	1576,94
688,71	1769,44
688,90	1794,02
689,08	1699,81
689,27	1675,24
689,45	1712,10
689,64	1648,61
689,82	1689,57
690,01	1759,21
690,19	1646,57
690,38	1699,81
690,56	1718,25
690,75	1654,76
690,93	1605,61
691,12	1685,48
691,30	1765,35
691,49	1710,05
691,67	1722,34
691,86	1832,93
692,04	1708,01
692,23	1742,82
692,41	1722,34
692,60	1757,16
692,78	1746,92
692,97	1611,75
693,15	1705,96
693,34	1738,73
693,52	1834,98
693,71	1632,23
693,89	1736,68
694,08	1611,75
694,26	1728,49
694,44	1744,87
694,63	1736,68
694,81	1689,57
695,00	1652,71
695,18	1730,53
695,37	1783,78
695,55	1718,25
695,74	1722,34
695,92	1701,86
696,10	1722,34
696,29	1595,37
696,47	1714,15
696,66	1624,04
696,84	1634,28
697,03	1681,38
697,21	1910,75
697,40	2246,62
697,58	1781,73
697,76	1705,96
697,95	1662,95
698,13	1619,94
698,32	1619,94
698,50	1703,91
698,68	1794,02
698,87	1714,15
699,05	1775,59
699,24	1642,47
699,42	1611,75
699,61	1705,96
699,79	1705,96
699,97	1665,00
700,16	1705,96
700,34	1636,33
700,53	1740,77
700,71	1812,45
700,89	1796,07
701,08	1662,95
701,26	1679,33
701,45	2090,98
701,63	1665,00
701,81	1736,68
702,00	1669,09
702,18	1730,53
702,37	1665,00
702,55	1720,29
702,73	1675,24
702,92	1656,81
703,10	1703,91
703,28	1714,15
703,47	1636,33
703,65	1767,40
703,84	1705,96
704,02	1660,90
704,20	1767,40
704,39	1742,82
704,57	1740,77
704,75	1734,63
704,94	1695,72
705,12	1705,96
705,30	1794,02
705,49	2256,86
705,67	4487,10
705,86	9498,48
706,04	12953,40
706,22	14739,23
706,41	15933,20
706,59	14067,50
706,77	9766,76
706,96	7450,51
707,14	6584,22
707,32	6113,19
707,51	5545,90
707,69	4945,84
707,87	4245,44
708,06	3610,57
708,24	2928,60
708,42	2349,02
708,61	2363,36
708,79	1820,64
708,97	1810,40
709,16	1787,88
709,34	1730,53
709,52	1689,57
709,71	1699,81
709,89	1748,97
710,07	1710,05
710,26	1677,29
710,44	1691,62
710,62	1789,92
710,80	1699,81
710,99	1767,40
711,17	1755,11
711,35	1685,48
711,54	1648,61
711,72	1703,91
711,90	1734,63
712,09	1718,25
712,27	1660,90
712,45	1726,44
712,63	1640,42
712,82	1724,39
713,00	1681,38
713,18	1757,16
713,37	1673,19
713,55	1728,49
713,73	1710,05
713,91	1783,78
714,10	1662,95
714,28	1660,90
714,46	1634,28
714,65	1783,78
714,83	1751,01
715,01	1712,10
715,19	1644,52
715,38	1640,42
715,56	1775,59
715,74	1650,66
715,92	1638,38
716,11	1730,53
716,29	1667,05
716,47	1691,62
716,65	1646,57
716,84	1638,38
717,02	1738,73
717,20	1665,00
717,38	1654,76
717,57	1677,29
717,75	1695,72
717,93	1619,94
718,11	1728,49
718,30	1591,27
718,48	1751,01
718,66	1789,92
718,84	1708,01
719,03	1660,90
719,21	1669,09
719,39	1771,49
719,57	1757,16
719,75	1806,31
719,94	1648,61
720,12	1734,63
720,30	1677,29
720,48	1679,33
720,67	1624,04
720,85	1632,23
721,03	1724,39
721,21	1667,05
721,39	1771,49
721,58	1673,19
721,76	1736,68
721,94	1726,44
722,12	1665,00
722,30	1779,68
722,49	1728,49
722,67	1652,71
722,85	1650,66
723,03	1560,55
723,21	1667,05
723,40	1656,81
723,58	1787,88
723,76	1794,02
723,94	1798,12
724,12	1693,67
724,30	1748,97
724,49	1744,87
724,67	1615,85
724,85	1804,26
725,03	1583,08
725,21	1753,06
725,40	1665,00
725,58	1636,33
725,76	1812,45
725,94	1665,00
726,12	1636,33
726,30	1689,57
726,49	1673,19
726,67	1693,67
726,85	1734,63
727,03	1783,78
727,21	2103,26
727,39	2940,88
727,57	3792,84
727,76	4247,49
727,94	4378,56
728,12	4409,28
728,30	3858,37
728,48	3082,19
728,66	2750,42
728,84	2568,15
729,03	2371,55
729,21	2142,18
729,39	1996,77
729,57	1871,84
729,75	1753,06
729,93	1796,07
730,11	1632,23
730,30	1689,57
730,48	1728,49
730,66	1761,25
730,84	1765,35
731,02	1726,44
731,20	1726,44
731,38	1671,14
731,56	1693,67
731,74	1624,04
731,93	1771,49
732,11	1646,57
732,29	1697,77
732,47	1730,53
732,65	1771,49
732,83	1775,59
733,01	1681,38
733,19	1763,30
733,37	1763,30
733,56	1730,53
733,74	1751,01
733,92	1748,97
734,10	1722,34
734,28	1720,29
734,46	1546,22
734,64	1716,20
734,82	1652,71
735,00	1589,22
735,18	1714,15
735,36	1677,29
735,54	1716,20
735,73	1699,81
735,91	1759,21
736,09	1748,97
736,27	1665,00
736,45	1712,10
736,63	1718,25
736,81	1658,85
736,99	1738,73
737,17	1851,36
737,35	1658,85
737,53	1726,44
737,71	1681,38
737,89	1779,68
738,07	1718,25
738,25	1669,09
738,43	1624,04
738,61	1710,05
738,80	1624,04
738,98	1742,82
739,16	1665,00
739,34	1626,09
739,52	1736,68
739,70	1646,57
739,88	1677,29
740,06	1785,83
740,24	1562,60
740,42	1675,24
740,60	1628,14
740,78	1630,18
740,96	1593,32
741,14	1658,85
741,32	1681,38
741,50	1609,70
741,68	1796,07
741,86	1710,05
742,04	1587,18
742,22	1648,61
742,40	1695,72
742,58	1726,44
742,76	1697,77
742,94	1779,68
743,12	1601,51
743,30	1681,38
743,48	1724,39
743,66	1621,99
743,84	1740,77
744,02	1681,38
744,20	1665,00
744,38	1611,75
744,56	1656,81
744,74	1791,97
744,92	1718,25
745,10	1730,53
745,28	1720,29
745,46	1785,83
745,64	1656,81
745,82	1726,44
746,00	1660,90
746,18	1744,87
746,36	1671,14
746,54	1777,64
746,72	1681,38
746,90	1681,38
747,08	1744,87
747,26	1708,01
747,44	1693,67
747,62	1714,15
747,80	1662,95
747,98	1693,67
748,15	1710,05
748,33	1794,02
748,51	1642,47
748,69	1705,96
748,87	1662,95
749,05	1640,42
749,23	1609,70
749,41	1787,88
749,59	1642,47
749,77	1748,97
749,95	1705,96
750,13	1667,05
750,31	1728,49
750,49	1679,33
750,67	1787,88
750,85	1787,88
751,03	1644,52
751,20	1775,59
751,38	1763,30
751,56	1658,85
751,74	1720,29
751,92	1662,95
752,10	1656,81
752,28	1783,78
752,46	1589,22
752,64	1724,39
752,82	1697,77
753,00	1697,77
753,18	1656,81
753,35	1720,29
753,53	1658,85
753,71	1613,80
753,89	1665,00
754,07	1753,06
754,25	1697,77
754,43	1714,15
754,61	1669,09
754,79	1751,01
754,97	1665,00
755,14	1767,40
755,32	1601,51
755,50	1669,09
755,68	1665,00
755,86	1615,85
756,04	1574,89
756,22	1675,24
756,40	1820,64
756,57	1769,44
756,75	1609,70
756,93	1693,67
757,11	1783,78
757,29	1636,33
757,47	1652,71
757,65	1558,50
757,82	1511,40
758,00	1669,09
758,18	1624,04
758,36	1648,61
758,54	1740,77
758,72	1617,90
758,90	1689,57
759,07	1738,73
759,25	1685,48
759,43	1730,53
759,61	1710,05
759,79	2228,19
759,97	1669,09
760,15	1646,57
760,32	1681,38
760,50	1701,86
760,68	1726,44
760,86	1652,71
761,04	1787,88
761,22	1744,87
761,39	1640,42
761,57	1751,01
761,75	1728,49
761,93	1687,53
762,11	1691,62
762,28	1705,96
762,46	1599,46
762,64	1771,49
762,82	1624,04
763,00	1665,00
763,18	1751,01
763,35	1638,38
763,53	1722,34
763,71	1593,32
763,89	1632,23
764,07	1703,91
764,24	1644,52
764,42	1773,54
764,60	1656,81
764,78	1697,77
764,96	1810,40
765,13	1703,91
765,31	1685,48
765,49	1681,38
765,67	1652,71
765,84	1648,61
766,02	1665,00
766,20	1658,85
766,38	1726,44
766,56	1765,35
766,73	1746,92
766,91	1691,62
767,09	1685,48
767,27	1757,16
767,44	1587,18
767,62	1726,44
767,80	1703,91
767,98	1646,57
768,15	1681,38
768,33	1761,25
768,51	1736,68
768,69	1720,29
768,87	1679,33
769,04	1619,94
769,22	1800,16
769,40	1824,74
769,58	1865,70
769,75	1621,99
769,93	1804,26
770,11	1671,14
770,28	1615,85
770,46	1703,91
770,64	1722,34
770,82	1689,57
770,99	1722,34
771,17	1648,61
771,35	1671,14
771,53	1697,77
771,70	1632,23
771,88	1712,10
772,06	1722,34
772,23	1671,14
772,41	1730,53
772,59	1695,72
772,77	1642,47
772,94	1697,77
773,12	1691,62
773,30	1710,05
773,47	1722,34
773,65	1703,91
773,83	1757,16
774,01	1669,09
774,18	1507,30
774,36	1740,77
774,54	1609,70
774,71	1689,57
774,89	1609,70
775,07	1665,00
775,24	1658,85
775,42	1574,89
775,60	1716,20
775,78	1701,86
775,95	1570,79
776,13	1652,71
776,31	1523,69
776,48	1718,25
776,66	1718,25
776,84	1615,85
777,01	1689,57
777,19	1679,33
777,37	1644,52
777,54	1734,63
777,72	1781,73
777,90	1712,10
778,07	1632,23
778,25	1837,03
778,43	1818,60
778,60	1669,09
778,78	1763,30
778,96	1712,10
779,13	1607,66
779,31	1767,40
779,49	1671,14
779,66	1732,58
779,84	1675,24
780,01	1613,80
780,19	1640,42
780,37	1806,31
780,54	1644,52
780,72	1656,81
780,90	1632,23
781,07	1701,86
781,25	1626,09
781,43	1724,39
781,60	1675,24
781,78	1705,96
781,95	1796,07
782,13	1646,57
782,31	1648,61
782,48	1675,24
782,66	1728,49
782,83	1802,21
783,01	1677,29
783,19	1708,01
783,36	1658,85
783,54	1718,25
783,72	1773,54
783,89	1632,23
784,07	1634,28
784,24	1619,94
784,42	1779,68
784,60	1671,14
784,77	1695,72
784,95	1581,03
785,12	1619,94
785,30	1701,86
785,47	1697,77
785,65	1665,00
785,83	1607,66
786,00	1837,03
786,18	1624,04
786,35	1611,75
786,53	1654,76
786,71	1685,48
786,88	1681,38
787,06	1712,10
787,23	1685,48
787,41	1619,94
787,58	1781,73
787,76	1691,62
787,94	1718,25
788,11	1759,21
788,29	1646,57
788,46	1732,58
788,64	1634,28
788,81	1558,50
788,99	1656,81
789,16	1648,61
789,34	1703,91
789,52	1658,85
789,69	1685,48
789,87	1611,75
790,04	1683,43
790,22	1665,00
790,39	1808,36
790,57	1644,52
790,74	1634,28
790,92	1660,90
791,09	1648,61
791,27	1701,86
791,44	1791,97
791,62	1603,56
791,79	1761,25
791,97	1681,38
792,15	1923,04
792,32	1673,19
792,50	1751,01
792,67	1845,22
792,85	1710,05
793,02	1714,15
793,20	1705,96
793,37	1585,13
793,55	1724,39
793,72	1638,38
793,90	1755,11
794,07	1720,29
794,25	1699,81
794,42	1665,00
794,60	1720,29
794,77	1734,63
794,95	1701,86
795,12	1869,80
795,30	1673,19
795,47	1646,57
795,65	1867,75
795,82	1654,76
796,00	1669,09
796,17	1681,38
796,34	1607,66
796,52	1742,82
796,69	1665,00
796,87	1767,40
797,04	1701,86
797,22	1738,73
797,39	1722,34
797,57	1755,11
797,74	1746,92
797,92	1722,34
798,09	1611,75
798,27	1669,09
798,44	1755,11
798,62	1636,33
798,79	1701,86
798,96	1685,48
799,14	1697,77
799,31	1832,93
799,49	1681,38
799,66	1673,19
799,84	1775,59
800,01	1638,38
800,19	1660,90
800,36	1636,33
800,53	1767,40
800,71	1785,83
800,88	1789,92
801,06	1626,09
801,23	1644,52
801,41	1697,77
801,58	1634,28
801,75	1656,81
801,93	1710,05
802,10	1683,43
802,28	1607,66
802,45	1697,77
802,63	1701,86
802,80	1771,49
802,97	1689,57
803,15	1748,97
803,32	1798,12
803,50	1636,33
803,67	1656,81
803,84	1679,33
804,02	1722,34
804,19	1701,86
804,37	1673,19
804,54	1738,73
804,71	1675,24
804,89	1683,43
805,06	1644,52
805,24	1658,85
805,41	1644,52
805,58	1589,22
805,76	1830,88
805,93	1624,04
806,10	1771,49
806,28	1724,39
806,45	1683,43
806,63	1636,33
806,80	1732,58
806,97	1714,15
807,15	1785,83
807,32	1705,96
807,49	1705,96
807,67	1595,37
807,84	1679,33
808,01	1611,75
808,19	1794,02
808,36	1802,21
808,54	1658,85
808,71	1617,90
808,88	1710,05
809,06	1730,53
809,23	1828,84
809,40	1589,22
809,58	1773,54
809,75	1572,84
809,92	1656,81
810,10	1751,01
810,27	1757,16
810,44	1716,20
810,62	1751,01
810,79	1722,34
810,96	1726,44
811,14	1732,58
811,31	1783,78
811,48	1695,72
811,66	1730,53
811,83	1775,59
812,00	1603,56
812,18	1669,09
812,35	1705,96
812,52	1689,57
812,69	1683,43
812,87	1662,95
813,04	1650,66
813,21	1681,38
813,39	1697,77
813,56	1546,22
813,73	1693,67
813,91	1595,37
814,08	1605,61
814,25	1697,77
814,42	1607,66
814,60	1714,15
814,77	1751,01
814,94	1654,76
815,12	1701,86
815,29	1681,38
815,46	1720,29
815,63	1640,42
815,81	1607,66
815,98	1691,62
816,15	1708,01
816,33	1710,05
816,50	1665,00
816,67	1681,38
816,84	1667,05
817,02	1601,51
817,19	1642,47
817,36	1744,87
817,53	1726,44
817,71	1617,90
817,88	1740,77
818,05	1673,19
818,22	1685,48
818,40	1839,08
818,57	1640,42
818,74	1669,09
818,91	1599,46
819,09	1748,97
819,26	1765,35
819,43	1652,71
819,60	1542,12
819,78	1693,67
819,95	1798,12
820,12	1609,70
820,29	1804,26
820,47	1804,26
820,64	1701,86
820,81	1632,23
820,98	1640,42
821,15	1642,47
821,33	1675,24
821,50	1574,89
821,67	1689,57
821,84	1624,04
822,02	1767,40
822,19	1726,44
822,36	1656,81
822,53	1667,05
822,70	1619,94
822,88	1671,14
823,05	1806,31
823,22	1607,66
823,39	1720,29
823,56	1652,71
823,74	1775,59
823,91	1599,46
824,08	1679,33
824,25	1591,27
824,42	1794,02
824,60	1615,85
824,77	1751,01
824,94	1630,18
825,11	1736,68
825,28	1595,37
825,45	1677,29
825,63	1740,77
825,80	1593,32
825,97	1732,58
826,14	1667,05
826,31	1607,66
826,48	1714,15
826,66	1644,52
826,83	1593,32
827,00	1736,68
827,17	1652,71
827,34	1697,77
827,51	1636,33
827,69	1691,62
827,86	1697,77
828,03	1701,86
828,20	1683,43
828,37	1619,94
828,54	1746,92
828,71	1662,95
828,89	1763,30
829,06	1671,14
829,23	1763,30
829,40	1708,01
829,57	1589,22
829,74	1658,85
829,91	1705,96
830,09	1669,09
830,26	1746,92
830,43	1826,79
830,60	1718,25
830,77	1724,39
830,94	1783,78
831,11	1708,01
831,28	1708,01
831,46	1796,07
831,63	1636,33
831,80	1740,77
831,97	1634,28
832,14	1626,09
832,31	1748,97
832,48	1669,09
832,65	1753,06
832,82	1681,38
832,99	1695,72
833,17	1601,51
833,34	1765,35
833,51	1621,99
833,68	1576,94
833,85	1757,16
834,02	1560,55
834,19	1591,27
834,36	1673,19
834,53	1685,48
834,70	1773,54
834,87	1798,12
835,04	1683,43
835,22	1669,09
835,39	1601,51
835,56	1650,66
835,73	1652,71
835,90	1804,26
836,07	1685,48
836,24	1685,48
836,41	1652,71
836,58	1650,66
836,75	1738,73
836,92	1716,20
837,09	1660,90
837,26	1720,29
837,43	1748,97
837,60	1722,34
837,77	1701,86
837,94	1755,11
838,12	1681,38
838,29	1712,10
838,46	1677,29
838,63	1624,04
838,80	1744,87
838,97	1722,34
839,14	1697,77
839,31	1683,43
839,48	1669,09
839,65	1665,00
839,82	1724,39
839,99	1751,01
840,16	1697,77
840,33	1671,14
840,50	1708,01
840,67	1652,71
840,84	1568,74
841,01	1689,57
841,18	1617,90
841,35	1712,10
841,52	1699,81
841,69	1908,71
841,86	1738,73
842,03	1693,67
842,20	1695,72
842,37	1658,85
842,54	1652,71
842,71	1697,77
842,88	1673,19
843,05	1720,29
843,22	1693,67
843,39	1687,53
843,56	1667,05
843,73	1656,81
843,90	1716,20
844,07	1648,61
844,24	1697,77
844,41	1685,48
844,58	1736,68
844,75	1716,20
844,92	1697,77
845,09	1675,24
845,26	1609,70
845,43	1757,16
845,60	1697,77
845,77	1712,10
845,94	1710,05
846,10	1781,73
846,27	1603,56
846,44	1611,75
846,61	1636,33
846,78	1669,09
846,95	1726,44
847,12	1636,33
847,29	1703,91
847,46	1634,28
847,63	1708,01
847,80	1695,72
847,97	1640,42
848,14	1785,83
848,31	1675,24
848,48	1652,71
848,65	1726,44
848,82	1638,38
848,98	1810,40
849,15	1736,68
849,32	1710,05
849,49	1724,39
849,66	1738,73
849,83	1683,43
850,00	1626,09
850,17	1730,53
850,34	1746,92
850,51	1656,81
850,68	1658,85
850,85	1828,84
851,01	1763,30
851,18	1708,01
851,35	1683,43
851,52	1705,96
851,69	1748,97
851,86	1609,70
852,03	1644,52
852,20	1771,49
852,37	1662,95
852,53	1619,94
852,70	1796,07
852,87	1654,76
853,04	1671,14
853,21	1689,57
853,38	1689,57
853,55	1734,63
853,72	1779,68
853,89	1597,42
854,05	1658,85
854,22	1734,63
854,39	1705,96
854,56	1720,29
854,73	1728,49
854,90	1697,77
855,07	1693,67
855,23	1675,24
855,40	1695,72
855,57	1679,33
855,74	1599,46
855,91	1794,02
856,08	1732,58
856,25	1640,42
856,41	1648,61
856,58	1687,53
856,75	1744,87
856,92	1587,18
857,09	1759,21
857,26	1621,99
857,42	1679,33
857,59	1744,87
857,76	1662,95
857,93	1681,38
858,10	1681,38
858,27	1609,70
858,43	1726,44
858,60	1628,14
858,77	1605,61
858,94	1595,37
859,11	1742,82
859,27	1673,19
859,44	1626,09
859,61	1751,01
859,78	1781,73
859,95	1644,52
860,12	1589,22
860,28	1785,83
860,45	1822,69
860,62	1593,32
860,79	1669,09
860,95	1624,04
861,12	1679,33
861,29	1701,86
861,46	1673,19
861,63	1628,14
861,79	1714,15
861,96	1591,27
862,13	1689,57
862,30	1806,31
862,47	1755,11
862,63	1687,53
862,80	1779,68
862,97	1796,07
863,14	1621,99
863,30	1656,81
863,47	1689,57
863,64	1751,01
863,81	1779,68
863,97	1662,95
864,14	1648,61
864,31	1656,81
864,48	1685,48
864,65	1669,09
864,81	1798,12
864,98	1660,90
865,15	1781,73
865,32	1710,05
865,48	1751,01
865,65	1708,01
865,82	1701,86
865,98	1632,23
866,15	1683,43
866,32	1710,05
866,49	1699,81
866,65	1724,39
866,82	1619,94
866,99	1744,87
867,16	1628,14
867,32	1679,33
867,49	1632,23
867,66	1708,01
867,83	1683,43
867,99	1615,85
868,16	1697,77
868,33	1617,90
868,49	1716,20
868,66	1671,14
868,83	1755,11
868,99	1708,01
869,16	1693,67
869,33	1722,34
869,50	1685,48
869,66	1638,38
869,83	1648,61
870,00	1632,23
870,16	1654,76
870,33	1636,33
870,50	1683,43
870,66	1703,91
870,83	1845,22
871,00	1718,25
871,17	1738,73
871,33	1759,21
871,50	1689,57
871,67	1697,77
871,83	1574,89
872,00	1773,54
872,17	1648,61
872,33	1763,30
872,50	1837,03
872,67	1613,80
872,83	1636,33
873,00	1751,01
873,17	1642,47
873,33	1730,53
873,50	1748,97
873,67	1685,48
873,83	1669,09
874,00	1685,48
874,16	1748,97
874,33	1708,01
874,50	1648,61
874,66	1742,82
874,83	1710,05
875,00	1675,24
875,16	1796,07
875,33	1757,16
875,50	1603,56
875,66	1619,94
875,83	1779,68
875,99	1660,90
876,16	1722,34
876,33	1556,46
876,49	1734,63
876,66	1769,44
876,83	1699,81
876,99	1636,33
877,16	1689,57
877,32	1648,61
877,49	1685,48
877,66	1722,34
877,82	1820,64
877,99	1748,97
878,15	1753,06
878,32	1753,06
878,49	1738,73
878,65	1644,52
878,82	1742,82
878,98	1611,75
879,15	1726,44
879,32	1697,77
879,48	1648,61
879,65	1746,92
879,81	1734,63
879,98	1695,72
880,15	1681,38
880,31	1681,38
880,48	1693,67
880,64	1718,25
880,81	1744,87
880,97	1769,44
881,14	1763,30
881,31	1718,25
881,47	1824,74
881,64	1726,44
881,80	1589,22
881,97	1689,57
882,13	1695,72
882,30	1628,14
882,47	1669,09
882,63	1652,71
882,80	1673,19
882,96	1685,48
883,13	1820,64
883,29	1746,92
883,46	1775,59
883,62	1769,44
883,79	1736,68
883,95	1650,66
884,12	1654,76
884,29	1757,16
884,45	1734,63
884,62	1710,05
884,78	1558,50
884,95	1806,31
885,11	1671,14
885,28	1716,20
885,44	1660,90
885,61	1744,87
885,77	1642,47
885,94	1710,05
886,10	1673,19
886,27	1722,34
886,43	1806,31
886,60	1759,21
886,76	1593,32
886,93	1679,33
887,09	1681,38
887,26	1632,23
887,42	1628,14
887,59	1683,43
887,75	1755,11
887,92	1767,40
888,08	1789,92
888,25	1841,12
888,41	1763,30
888,58	1687,53
888,74	1687,53
888,91	1679,33
>>>>>End Processed Spectral Data<<<<<
