SpectraSuite Data File
++++++++++++++++++++++++++++++++++++
Date: Mon Jun 06 12:15:37 CEST 2016
User: root
Dark Spectrum Present: No
Reference Spectrum Present: No
Number of Sampled Component Spectra: 1
Spectrometers: USB4C02835
Integration Time (usec): 100000 (USB4C02835)
Spectra Averaged: 1 (USB4C02835)
Boxcar Smoothing: 0 (USB4C02835)
Correct for Electrical Dark: No (USB4C02835)
Strobe/Lamp Enabled: No (USB4C02835)
Correct for Detector Non-linearity: No (USB4C02835)
Correct for Stray Light: No (USB4C02835)
Number of Pixels in Processed Spectrum: 3648
>>>>>Begin Processed Spectral Data<<<<<
177,47	1441,77
177,69	1441,77
177,91	1441,77
178,13	1492,97
178,36	1390,57
178,58	1648,61
178,80	1665,00
179,02	1581,03
179,24	1662,95
179,46	1658,85
179,68	1806,31
179,90	1578,98
180,13	1640,42
180,35	1642,47
180,57	1660,90
180,79	1718,25
181,01	1724,39
181,23	1705,96
181,45	1732,58
181,67	1646,57
181,90	1712,10
182,12	1660,90
182,34	1607,66
182,56	1728,49
182,78	1636,33
183,00	1716,20
183,22	1673,19
183,44	1562,60
183,66	1775,59
183,89	1751,01
184,11	1699,81
184,33	1746,92
184,55	1787,88
184,77	1695,72
184,99	1771,49
185,21	1693,67
185,43	1814,50
185,65	1710,05
185,87	1599,46
186,10	1695,72
186,32	1845,22
186,54	1660,90
186,76	1677,29
186,98	1693,67
187,20	1665,00
187,42	1708,01
187,64	1673,19
187,86	1701,86
188,08	1624,04
188,30	1675,24
188,52	1648,61
188,75	1808,36
188,97	1765,35
189,19	1697,77
189,41	1665,00
189,63	1687,53
189,85	1693,67
190,07	1673,19
190,29	1691,62
190,51	1775,59
190,73	1621,99
190,95	1734,63
191,17	1667,05
191,39	1617,90
191,61	1679,33
191,84	1669,09
192,06	1736,68
192,28	1628,14
192,50	1791,97
192,72	1734,63
192,94	1677,29
193,16	1761,25
193,38	1693,67
193,60	1591,27
193,82	1675,24
194,04	1728,49
194,26	1697,77
194,48	1714,15
194,70	1566,70
194,92	1621,99
195,14	1769,44
195,36	1669,09
195,58	1732,58
195,80	1677,29
196,02	1660,90
196,24	1708,01
196,46	1681,38
196,69	1677,29
196,91	1894,37
197,13	1667,05
197,35	1705,96
197,57	1675,24
197,79	1699,81
198,01	1650,66
198,23	1624,04
198,45	1685,48
198,67	1665,00
198,89	1687,53
199,11	1701,86
199,33	1646,57
199,55	1525,74
199,77	1665,00
199,99	1789,92
200,21	1644,52
200,43	1748,97
200,65	1693,67
200,87	1562,60
201,09	1669,09
201,31	1681,38
201,53	1769,44
201,75	1710,05
201,97	1675,24
202,19	1689,57
202,41	1732,58
202,63	1765,35
202,85	1726,44
203,07	1753,06
203,29	1671,14
203,51	1673,19
203,73	1624,04
203,95	1855,46
204,17	1697,77
204,39	1673,19
204,61	1658,85
204,83	1701,86
205,05	1781,73
205,27	1806,31
205,49	1720,29
205,71	1654,76
205,93	1535,98
206,15	1605,61
206,37	1716,20
206,59	1628,14
206,81	1570,79
207,03	1613,80
207,25	1660,90
207,47	1728,49
207,69	1714,15
207,91	1775,59
208,13	1814,50
208,34	1646,57
208,56	1656,81
208,78	1685,48
209,00	1667,05
209,22	1626,09
209,44	1677,29
209,66	1736,68
209,88	1705,96
210,10	1685,48
210,32	1708,01
210,54	1800,16
210,76	1640,42
210,98	1755,11
211,20	1626,09
211,42	1697,77
211,64	1746,92
211,86	1804,26
212,08	1753,06
212,30	1673,19
212,52	1685,48
212,74	1632,23
212,96	1650,66
213,17	1757,16
213,39	1716,20
213,61	1796,07
213,83	1693,67
214,05	1660,90
214,27	1718,25
214,49	1601,51
214,71	1652,71
214,93	1763,30
215,15	1726,44
215,37	1734,63
215,59	1638,38
215,81	1769,44
216,03	1751,01
216,24	1681,38
216,46	1689,57
216,68	1701,86
216,90	1748,97
217,12	1722,34
217,34	1665,00
217,56	1732,58
217,78	1742,82
218,00	1701,86
218,22	1638,38
218,44	1710,05
218,66	1701,86
218,87	1746,92
219,09	1667,05
219,31	1665,00
219,53	1656,81
219,75	1632,23
219,97	1638,38
220,19	1650,66
220,41	1656,81
220,63	1736,68
220,85	1734,63
221,06	1677,29
221,28	1734,63
221,50	1669,09
221,72	1714,15
221,94	1693,67
222,16	1716,20
222,38	1757,16
222,60	1730,53
222,82	1675,24
223,03	1738,73
223,25	1624,04
223,47	1679,33
223,69	1845,22
223,91	1656,81
224,13	1632,23
224,35	1716,20
224,57	1718,25
224,78	1751,01
225,00	1636,33
225,22	1640,42
225,44	1675,24
225,66	1742,82
225,88	1656,81
226,10	1705,96
226,32	1701,86
226,53	1757,16
226,75	1654,76
226,97	1644,52
227,19	1742,82
227,41	1652,71
227,63	1603,56
227,85	1642,47
228,06	1685,48
228,28	1714,15
228,50	1728,49
228,72	1642,47
228,94	1718,25
229,16	1611,75
229,37	1568,74
229,59	1613,80
229,81	1789,92
230,03	1712,10
230,25	1619,94
230,47	1650,66
230,69	1581,03
230,90	1722,34
231,12	1572,84
231,34	1722,34
231,56	1691,62
231,78	1640,42
232,00	1660,90
232,21	1701,86
232,43	1695,72
232,65	1546,22
232,87	1773,54
233,09	1722,34
233,30	1722,34
233,52	1738,73
233,74	1675,24
233,96	1685,48
234,18	1667,05
234,40	1656,81
234,61	1828,84
234,83	1646,57
235,05	1542,12
235,27	1824,74
235,49	1771,49
235,70	1730,53
235,92	1660,90
236,14	1712,10
236,36	1787,88
236,58	1667,05
236,79	1761,25
237,01	1617,90
237,23	1687,53
237,45	1695,72
237,67	1703,91
237,88	1685,48
238,10	1796,07
238,32	1613,80
238,54	1619,94
238,76	1693,67
238,97	1695,72
239,19	1619,94
239,41	1769,44
239,63	1781,73
239,85	1644,52
240,06	1697,77
240,28	1640,42
240,50	1779,68
240,72	1642,47
240,93	1654,76
241,15	1705,96
241,37	1654,76
241,59	1746,92
241,81	1691,62
242,02	1673,19
242,24	1718,25
242,46	1763,30
242,68	1591,27
242,89	1724,39
243,11	1808,36
243,33	1699,81
243,55	1695,72
243,76	1763,30
243,98	1669,09
244,20	1683,43
244,42	1689,57
244,64	1718,25
244,85	1650,66
245,07	1560,55
245,29	1763,30
245,51	1699,81
245,72	1626,09
245,94	1773,54
246,16	1658,85
246,38	1675,24
246,59	1621,99
246,81	1581,03
247,03	1669,09
247,24	1624,04
247,46	1644,52
247,68	1705,96
247,90	1726,44
248,11	1656,81
248,33	1724,39
248,55	1665,00
248,77	1701,86
248,98	1808,36
249,20	1734,63
249,42	1675,24
249,64	1810,40
249,85	1755,11
250,07	1699,81
250,29	1679,33
250,50	1718,25
250,72	1609,70
250,94	1644,52
251,16	1779,68
251,37	1832,93
251,59	1685,48
251,81	1665,00
252,02	1775,59
252,24	1710,05
252,46	1761,25
252,68	1619,94
252,89	1679,33
253,11	1572,84
253,33	1775,59
253,54	1806,31
253,76	1574,89
253,98	1640,42
254,20	1665,00
254,41	1615,85
254,63	1611,75
254,85	1689,57
255,06	1644,52
255,28	1691,62
255,50	1703,91
255,71	1589,22
255,93	1568,74
256,15	1642,47
256,36	1716,20
256,58	1650,66
256,80	1716,20
257,02	1658,85
257,23	1699,81
257,45	1697,77
257,67	1726,44
257,88	1753,06
258,10	1722,34
258,32	1742,82
258,53	1658,85
258,75	1769,44
258,97	1693,67
259,18	1701,86
259,40	1662,95
259,62	1748,97
259,83	1775,59
260,05	1671,14
260,27	1916,90
260,48	1726,44
260,70	1621,99
260,92	1714,15
261,13	1695,72
261,35	1714,15
261,57	1601,51
261,78	1624,04
262,00	1722,34
262,22	1736,68
262,43	1718,25
262,65	1683,43
262,86	1730,53
263,08	1787,88
263,30	1728,49
263,51	1634,28
263,73	1662,95
263,95	1800,16
264,16	1636,33
264,38	1652,71
264,60	1744,87
264,81	1640,42
265,03	1730,53
265,25	1724,39
265,46	1634,28
265,68	1812,45
265,89	1765,35
266,11	1697,77
266,33	1708,01
266,54	1722,34
266,76	1701,86
266,98	1724,39
267,19	1779,68
267,41	1742,82
267,62	1675,24
267,84	1611,75
268,06	1757,16
268,27	1710,05
268,49	1718,25
268,70	1773,54
268,92	1722,34
269,14	1583,08
269,35	1644,52
269,57	1693,67
269,79	1751,01
270,00	1576,94
270,22	1794,02
270,43	1654,76
270,65	1503,21
270,87	1638,38
271,08	1751,01
271,30	1787,88
271,51	1697,77
271,73	1738,73
271,95	1705,96
272,16	1722,34
272,38	1712,10
272,59	1634,28
272,81	1687,53
273,02	1724,39
273,24	1773,54
273,46	1708,01
273,67	1607,66
273,89	1671,14
274,10	1669,09
274,32	1701,86
274,54	1730,53
274,75	1665,00
274,97	1683,43
275,18	1701,86
275,40	1734,63
275,61	1665,00
275,83	1708,01
276,05	1607,66
276,26	1708,01
276,48	1703,91
276,69	1615,85
276,91	1648,61
277,12	1673,19
277,34	1732,58
277,55	1714,15
277,77	1669,09
277,99	1656,81
278,20	1617,90
278,42	1691,62
278,63	1640,42
278,85	1601,51
279,06	1660,90
279,28	1673,19
279,49	1687,53
279,71	1689,57
279,93	1691,62
280,14	1775,59
280,36	1636,33
280,57	1697,77
280,79	1720,29
281,00	1578,98
281,22	1630,18
281,43	1773,54
281,65	1636,33
281,86	1601,51
282,08	1738,73
282,29	1808,36
282,51	1603,56
282,73	1617,90
282,94	1626,09
283,16	1724,39
283,37	1734,63
283,59	1730,53
283,80	1742,82
284,02	1677,29
284,23	1728,49
284,45	1656,81
284,66	1652,71
284,88	1642,47
285,09	1677,29
285,31	1687,53
285,52	1705,96
285,74	1624,04
285,95	1767,40
286,17	1742,82
286,38	1748,97
286,60	1669,09
286,81	1642,47
287,03	1624,04
287,24	1636,33
287,46	1716,20
287,67	1662,95
287,89	1828,84
288,10	1810,40
288,32	1740,77
288,53	1779,68
288,75	1689,57
288,96	1753,06
289,18	1724,39
289,39	1714,15
289,61	1755,11
289,82	1773,54
290,04	1802,21
290,25	1687,53
290,47	1595,37
290,68	1609,70
290,90	1769,44
291,11	1564,65
291,33	1751,01
291,54	1601,51
291,76	1617,90
291,97	1753,06
292,18	1710,05
292,40	1671,14
292,61	1669,09
292,83	1847,27
293,04	1755,11
293,26	1642,47
293,47	1669,09
293,69	1701,86
293,90	1638,38
294,12	1775,59
294,33	1681,38
294,55	1722,34
294,76	1794,02
294,97	1791,97
295,19	1837,03
295,40	1675,24
295,62	1681,38
295,83	1689,57
296,05	1613,80
296,26	1689,57
296,48	1658,85
296,69	1660,90
296,90	1654,76
297,12	1746,92
297,33	1755,11
297,55	1695,72
297,76	1710,05
297,98	1751,01
298,19	1710,05
298,41	1609,70
298,62	1558,50
298,83	1730,53
299,05	1691,62
299,26	1662,95
299,48	1679,33
299,69	1693,67
299,90	1681,38
300,12	1687,53
300,33	1738,73
300,55	1681,38
300,76	1724,39
300,98	1609,70
301,19	1679,33
301,40	1693,67
301,62	1710,05
301,83	1755,11
302,05	1648,61
302,26	1705,96
302,47	1716,20
302,69	1611,75
302,90	1683,43
303,12	1589,22
303,33	1783,78
303,54	1871,84
303,76	1644,52
303,97	1691,62
304,19	1742,82
304,40	1644,52
304,61	1703,91
304,83	1812,45
305,04	1783,78
305,26	1732,58
305,47	1656,81
305,68	1691,62
305,90	1609,70
306,11	1763,30
306,33	1748,97
306,54	1607,66
306,75	1615,85
306,97	1599,46
307,18	1642,47
307,39	1640,42
307,61	1662,95
307,82	1689,57
308,04	1689,57
308,25	1683,43
308,46	1677,29
308,68	1677,29
308,89	1720,29
309,10	1796,07
309,32	1697,77
309,53	1708,01
309,74	1703,91
309,96	1638,38
310,17	1722,34
310,39	1763,30
310,60	1681,38
310,81	1675,24
311,03	1677,29
311,24	1640,42
311,45	1656,81
311,67	1751,01
311,88	1656,81
312,09	1656,81
312,31	1640,42
312,52	1701,86
312,73	1660,90
312,95	1566,70
313,16	1597,42
313,37	1744,87
313,59	1675,24
313,80	1720,29
314,01	1714,15
314,23	1607,66
314,44	1693,67
314,65	1665,00
314,87	1613,80
315,08	1611,75
315,29	1699,81
315,51	1677,29
315,72	1597,42
315,93	1824,74
316,15	1755,11
316,36	1689,57
316,57	1660,90
316,79	1759,21
317,00	1740,77
317,21	1761,25
317,43	1621,99
317,64	1699,81
317,85	1716,20
318,07	1699,81
318,28	1652,71
318,49	1740,77
318,70	1867,75
318,92	1789,92
319,13	1839,08
319,34	1929,19
319,56	1759,21
319,77	1822,69
319,98	1697,77
320,20	1744,87
320,41	1783,78
320,62	1755,11
320,83	1628,14
321,05	1841,12
321,26	1638,38
321,47	1671,14
321,69	1816,55
321,90	1640,42
322,11	1669,09
322,32	1691,62
322,54	1781,73
322,75	1552,36
322,96	1787,88
323,18	1632,23
323,39	1615,85
323,60	1585,13
323,81	1763,30
324,03	1667,05
324,24	1673,19
324,45	1695,72
324,66	1794,02
324,88	1677,29
325,09	1660,90
325,30	1718,25
325,52	1738,73
325,73	1710,05
325,94	1624,04
326,15	1605,61
326,37	1703,91
326,58	1746,92
326,79	1710,05
327,00	1619,94
327,22	1697,77
327,43	1677,29
327,64	1607,66
327,85	1665,00
328,07	1691,62
328,28	1779,68
328,49	1695,72
328,70	1736,68
328,92	1669,09
329,13	1693,67
329,34	1695,72
329,55	1810,40
329,76	1689,57
329,98	1638,38
330,19	1767,40
330,40	1693,67
330,61	1759,21
330,83	1701,86
331,04	1634,28
331,25	1652,71
331,46	1693,67
331,68	1574,89
331,89	1794,02
332,10	1650,66
332,31	1593,32
332,52	1726,44
332,74	1787,88
332,95	1634,28
333,16	1722,34
333,37	1722,34
333,58	1621,99
333,80	1742,82
334,01	1669,09
334,22	1679,33
334,43	1701,86
334,64	1638,38
334,86	1683,43
335,07	1660,90
335,28	1722,34
335,49	1576,94
335,70	1705,96
335,92	1767,40
336,13	1863,65
336,34	1621,99
336,55	1703,91
336,76	1671,14
336,98	1599,46
337,19	1777,64
337,40	1794,02
337,61	1742,82
337,82	1591,27
338,04	1759,21
338,25	1609,70
338,46	1697,77
338,67	1669,09
338,88	1570,79
339,09	1626,09
339,31	1722,34
339,52	1595,37
339,73	1701,86
339,94	1665,00
340,15	1693,67
340,36	1681,38
340,58	1658,85
340,79	1578,98
341,00	1738,73
341,21	1609,70
341,42	1744,87
341,63	1621,99
341,85	1746,92
342,06	1751,01
342,27	1691,62
342,48	1718,25
342,69	1658,85
342,90	1738,73
343,12	1724,39
343,33	1689,57
343,54	1697,77
343,75	1689,57
343,96	1716,20
344,17	1628,14
344,38	1714,15
344,60	1667,05
344,81	1578,98
345,02	1640,42
345,23	1734,63
345,44	1777,64
345,65	1685,48
345,86	1726,44
346,07	1665,00
346,29	1683,43
346,50	1703,91
346,71	1697,77
346,92	1742,82
347,13	1861,60
347,34	1621,99
347,55	1703,91
347,76	1738,73
347,98	1576,94
348,19	1632,23
348,40	1685,48
348,61	1687,53
348,82	1781,73
349,03	1701,86
349,24	1683,43
349,45	1779,68
349,66	1564,65
349,88	1671,14
350,09	1634,28
350,30	1697,77
350,51	1746,92
350,72	1697,77
350,93	1677,29
351,14	1607,66
351,35	1732,58
351,56	1757,16
351,77	1742,82
351,99	1728,49
352,20	1800,16
352,41	1812,45
352,62	1644,52
352,83	1591,27
353,04	1724,39
353,25	1705,96
353,46	1755,11
353,67	1767,40
353,88	1613,80
354,09	1619,94
354,30	1660,90
354,52	1677,29
354,73	1687,53
354,94	1685,48
355,15	1687,53
355,36	1689,57
355,57	1660,90
355,78	1726,44
355,99	1644,52
356,20	1673,19
356,41	1740,77
356,62	1736,68
356,83	1726,44
357,04	1744,87
357,25	1667,05
357,46	1621,99
357,68	1642,47
357,89	1650,66
358,10	1648,61
358,31	1679,33
358,52	1708,01
358,73	1607,66
358,94	1699,81
359,15	1634,28
359,36	1695,72
359,57	1642,47
359,78	1640,42
359,99	1615,85
360,20	1718,25
360,41	1722,34
360,62	1783,78
360,83	1732,58
361,04	1654,76
361,25	1777,64
361,46	1728,49
361,67	1695,72
361,88	1695,72
362,09	1716,20
362,30	1646,57
362,51	1759,21
362,72	1648,61
362,93	1740,77
363,14	1763,30
363,35	1683,43
363,56	1675,24
363,78	1746,92
363,99	1734,63
364,20	1611,75
364,41	1628,14
364,62	1859,56
364,83	1701,86
365,04	1730,53
365,25	1685,48
365,46	1771,49
365,67	1650,66
365,88	1603,56
366,09	1673,19
366,30	1683,43
366,51	1722,34
366,72	1667,05
366,93	1640,42
367,14	1656,81
367,35	1763,30
367,56	1746,92
367,77	1781,73
367,98	1642,47
368,18	1746,92
368,39	1703,91
368,60	1656,81
368,81	1759,21
369,02	1681,38
369,23	1667,05
369,44	1624,04
369,65	1619,94
369,86	1673,19
370,07	1720,29
370,28	1665,00
370,49	1755,11
370,70	1685,48
370,91	1638,38
371,12	1624,04
371,33	1646,57
371,54	1560,55
371,75	1724,39
371,96	1593,32
372,17	1720,29
372,38	1742,82
372,59	1697,77
372,80	1697,77
373,01	1685,48
373,22	1685,48
373,43	1697,77
373,64	1648,61
373,85	1746,92
374,06	1804,26
374,26	1765,35
374,47	1753,06
374,68	1789,92
374,89	1714,15
375,10	1691,62
375,31	1742,82
375,52	1648,61
375,73	1630,18
375,94	1648,61
376,15	1757,16
376,36	1648,61
376,57	1673,19
376,78	1599,46
376,99	1634,28
377,20	1818,60
377,40	1665,00
377,61	1773,54
377,82	1642,47
378,03	1726,44
378,24	1710,05
378,45	1697,77
378,66	1730,53
378,87	1652,71
379,08	1609,70
379,29	1667,05
379,50	1738,73
379,71	1669,09
379,91	1722,34
380,12	1615,85
380,33	1718,25
380,54	1734,63
380,75	1697,77
380,96	1662,95
381,17	1785,83
381,38	1660,90
381,59	1796,07
381,80	1738,73
382,00	1853,41
382,21	1695,72
382,42	1808,36
382,63	1841,12
382,84	1726,44
383,05	1863,65
383,26	1734,63
383,47	1716,20
383,68	1773,54
383,88	1736,68
384,09	1724,39
384,30	1826,79
384,51	1703,91
384,72	1650,66
384,93	1558,50
385,14	1646,57
385,35	1759,21
385,55	1626,09
385,76	1716,20
385,97	1736,68
386,18	1634,28
386,39	1673,19
386,60	1708,01
386,81	1644,52
387,02	1681,38
387,22	1697,77
387,43	1773,54
387,64	1738,73
387,85	1892,32
388,06	2150,37
388,27	4429,76
388,48	6858,65
388,68	8464,25
388,89	9920,36
389,10	10014,57
389,31	8884,09
389,52	7800,71
389,73	6860,70
389,93	6369,18
390,14	5984,16
390,35	5271,47
390,56	4683,70
390,77	3839,94
390,98	3059,67
391,18	2541,53
391,39	2101,22
391,60	1861,60
391,81	1820,64
392,02	1701,86
392,23	1769,44
392,43	1761,25
392,64	1779,68
392,85	1724,39
393,06	1865,70
393,27	1646,57
393,47	1650,66
393,68	1701,86
393,89	1687,53
394,10	1718,25
394,31	1628,14
394,52	1650,66
394,72	1699,81
394,93	1781,73
395,14	1632,23
395,35	1722,34
395,56	1644,52
395,76	1724,39
395,97	1861,60
396,18	1808,36
396,39	1791,97
396,60	1964,00
396,80	1828,84
397,01	1839,08
397,22	1796,07
397,43	1812,45
397,64	1755,11
397,84	1785,83
398,05	1855,46
398,26	1705,96
398,47	1759,21
398,67	1800,16
398,88	1755,11
399,09	1718,25
399,30	1720,29
399,51	1781,73
399,71	1652,71
399,92	1652,71
400,13	1652,71
400,34	1683,43
400,54	1617,90
400,75	1761,25
400,96	1722,34
401,17	1779,68
401,37	1726,44
401,58	1753,06
401,79	1669,09
402,00	1853,41
402,21	2023,39
402,41	1994,72
402,62	2004,96
402,83	2031,58
403,04	1974,24
403,24	2086,88
403,45	1855,46
403,66	1902,56
403,87	1845,22
404,07	1882,08
404,28	1851,36
404,49	1853,41
404,70	1740,77
404,90	1732,58
405,11	1765,35
405,32	1736,68
405,52	1605,61
405,73	1681,38
405,94	1681,38
406,15	1699,81
406,35	1734,63
406,56	1755,11
406,77	1755,11
406,98	1748,97
407,18	1621,99
407,39	1779,68
407,60	1736,68
407,80	1693,67
408,01	1687,53
408,22	1744,87
408,43	1675,24
408,63	1689,57
408,84	1796,07
409,05	1695,72
409,25	1703,91
409,46	1677,29
409,67	1636,33
409,88	1736,68
410,08	1665,00
410,29	1654,76
410,50	1683,43
410,70	1716,20
410,91	1621,99
411,12	1751,01
411,32	1710,05
411,53	1732,58
411,74	1820,64
411,95	1755,11
412,15	1744,87
412,36	1742,82
412,57	1642,47
412,77	1730,53
412,98	1654,76
413,19	1736,68
413,39	1765,35
413,60	1689,57
413,81	1798,12
414,01	1652,71
414,22	1671,14
414,43	1718,25
414,63	1652,71
414,84	1763,30
415,05	1638,38
415,25	1593,32
415,46	1734,63
415,67	1632,23
415,87	1671,14
416,08	1671,14
416,29	1697,77
416,49	1675,24
416,70	1677,29
416,91	1634,28
417,11	1628,14
417,32	1736,68
417,53	1699,81
417,73	1767,40
417,94	1613,80
418,15	1652,71
418,35	1695,72
418,56	1730,53
418,77	1767,40
418,97	1744,87
419,18	1626,09
419,38	1634,28
419,59	1673,19
419,80	1677,29
420,00	1628,14
420,21	1675,24
420,42	1705,96
420,62	1765,35
420,83	1560,55
421,04	1742,82
421,24	1652,71
421,45	1726,44
421,65	1689,57
421,86	1740,77
422,07	1701,86
422,27	1691,62
422,48	1710,05
422,69	1658,85
422,89	1683,43
423,10	1724,39
423,30	1587,18
423,51	1667,05
423,72	1687,53
423,92	1748,97
424,13	1714,15
424,33	1693,67
424,54	1726,44
424,75	1773,54
424,95	1806,31
425,16	1667,05
425,36	1781,73
425,57	1736,68
425,78	1665,00
425,98	1703,91
426,19	1691,62
426,39	1632,23
426,60	1841,12
426,81	1832,93
427,01	1689,57
427,22	1677,29
427,42	1660,90
427,63	1660,90
427,83	1652,71
428,04	1691,62
428,25	1787,88
428,45	1708,01
428,66	1705,96
428,86	1708,01
429,07	1628,14
429,28	1654,76
429,48	1640,42
429,69	1619,94
429,89	1720,29
430,10	1621,99
430,30	1705,96
430,51	1718,25
430,71	1642,47
430,92	1689,57
431,13	1712,10
431,33	1667,05
431,54	1669,09
431,74	1806,31
431,95	1742,82
432,15	1708,01
432,36	1714,15
432,56	1755,11
432,77	1744,87
432,98	1722,34
433,18	1714,15
433,39	1648,61
433,59	1669,09
433,80	1763,30
434,00	1875,94
434,21	1701,86
434,41	1716,20
434,62	1843,17
434,82	1609,70
435,03	1564,65
435,23	1683,43
435,44	1607,66
435,64	1677,29
435,85	1781,73
436,06	1781,73
436,26	1751,01
436,47	1634,28
436,67	1640,42
436,88	1705,96
437,08	1738,73
437,29	1802,21
437,49	1621,99
437,70	1701,86
437,90	1714,15
438,11	1869,80
438,31	1783,78
438,52	1837,03
438,72	1857,51
438,93	1925,09
439,13	1773,54
439,34	1742,82
439,54	1738,73
439,75	1785,83
439,95	1767,40
440,16	1693,67
440,36	1722,34
440,57	1757,16
440,77	1683,43
440,98	1722,34
441,18	1806,31
441,39	1677,29
441,59	1673,19
441,80	1804,26
442,00	1673,19
442,21	1800,16
442,41	1624,04
442,62	1759,21
442,82	1642,47
443,02	1744,87
443,23	1730,53
443,43	1730,53
443,64	1855,46
443,84	1693,67
444,05	1853,41
444,25	1720,29
444,46	1714,15
444,66	1748,97
444,87	1728,49
445,07	1632,23
445,28	1716,20
445,48	1837,03
445,69	1697,77
445,89	1853,41
446,09	1751,01
446,30	2035,68
446,50	2705,37
446,71	3749,83
446,91	4388,80
447,12	4796,34
447,32	4863,93
447,53	4241,34
447,73	3932,10
447,93	3686,34
448,14	3258,32
448,34	3225,55
448,55	2996,18
448,75	2781,14
448,96	2709,46
449,16	2490,33
449,36	2340,83
449,57	2047,97
449,77	1918,95
449,98	1808,36
450,18	1828,84
450,39	1830,88
450,59	1738,73
450,79	1681,38
451,00	1689,57
451,20	1753,06
451,41	1638,38
451,61	1748,97
451,81	1683,43
452,02	1757,16
452,22	1738,73
452,43	1632,23
452,63	1667,05
452,84	1695,72
453,04	1746,92
453,24	1738,73
453,45	1699,81
453,65	1691,62
453,86	1730,53
454,06	1705,96
454,26	1796,07
454,47	1673,19
454,67	1832,93
454,87	1730,53
455,08	1734,63
455,28	1845,22
455,49	1763,30
455,69	1617,90
455,89	1828,84
456,10	1785,83
456,30	1640,42
456,51	1716,20
456,71	1771,49
456,91	1781,73
457,12	1667,05
457,32	1658,85
457,52	1642,47
457,73	1714,15
457,93	1705,96
458,14	1736,68
458,34	1642,47
458,54	1708,01
458,75	1730,53
458,95	1740,77
459,15	1779,68
459,36	1748,97
459,56	1697,77
459,76	1806,31
459,97	1705,96
460,17	1705,96
460,37	1849,32
460,58	1685,48
460,78	1794,02
460,99	1753,06
461,19	1708,01
461,39	1812,45
461,60	1732,58
461,80	1701,86
462,00	1644,52
462,21	1697,77
462,41	1613,80
462,61	1621,99
462,82	1583,08
463,02	1683,43
463,22	1701,86
463,43	1822,69
463,63	1751,01
463,83	1775,59
464,04	1783,78
464,24	1693,67
464,44	1705,96
464,64	1808,36
464,85	1763,30
465,05	1744,87
465,25	1812,45
465,46	1701,86
465,66	1763,30
465,86	1779,68
466,07	1691,62
466,27	1691,62
466,47	1648,61
466,68	1667,05
466,88	1814,50
467,08	1728,49
467,29	1748,97
467,49	1757,16
467,69	1681,38
467,89	1699,81
468,10	1716,20
468,30	1810,40
468,50	1673,19
468,71	1740,77
468,91	1646,57
469,11	1732,58
469,31	1665,00
469,52	1660,90
469,72	1816,55
469,92	1853,41
470,13	1615,85
470,33	1701,86
470,53	1865,70
470,73	2119,65
470,94	2320,35
471,14	2404,32
471,34	2525,15
471,54	2379,74
471,75	2207,71
471,95	2170,85
472,15	2138,08
472,36	2119,65
472,56	2115,55
472,76	2074,59
472,96	1916,90
473,17	2039,78
473,37	1890,28
473,57	1804,26
473,77	1855,46
473,98	1814,50
474,18	1669,09
474,38	1849,32
474,58	1693,67
474,79	1656,81
474,99	1658,85
475,19	1765,35
475,39	1683,43
475,60	1724,39
475,80	1769,44
476,00	1753,06
476,20	1685,48
476,41	1708,01
476,61	1757,16
476,81	1808,36
477,01	1681,38
477,21	1806,31
477,42	1730,53
477,62	1644,52
477,82	1806,31
478,02	1638,38
478,23	1757,16
478,43	1665,00
478,63	1685,48
478,83	1767,40
479,03	1648,61
479,24	1787,88
479,44	1820,64
479,64	1611,75
479,84	1660,90
480,04	1621,99
480,25	1724,39
480,45	1699,81
480,65	1726,44
480,85	1779,68
481,06	1667,05
481,26	1730,53
481,46	1691,62
481,66	1777,64
481,86	1652,71
482,06	1798,12
482,27	1705,96
482,47	1679,33
482,67	1816,55
482,87	1656,81
483,07	1712,10
483,28	1640,42
483,48	1587,18
483,68	1720,29
483,88	1693,67
484,08	1644,52
484,29	1675,24
484,49	1703,91
484,69	1648,61
484,89	1800,16
485,09	1691,62
485,29	1724,39
485,50	1773,54
485,70	1736,68
485,90	1828,84
486,10	1683,43
486,30	1685,48
486,50	1808,36
486,71	1665,00
486,91	1734,63
487,11	1763,30
487,31	1681,38
487,51	1722,34
487,71	1689,57
487,91	1609,70
488,12	1699,81
488,32	1628,14
488,52	1609,70
488,72	1626,09
488,92	1695,72
489,12	1710,05
489,32	1763,30
489,53	1710,05
489,73	1632,23
489,93	1847,27
490,13	1675,24
490,33	1662,95
490,53	1718,25
490,73	1820,64
490,94	1632,23
491,14	1736,68
491,34	1798,12
491,54	2136,03
491,74	2596,82
491,94	2932,69
492,14	2979,79
492,34	3008,47
492,54	2828,24
492,75	2412,51
492,95	2432,99
493,15	2314,20
493,35	2297,82
493,55	2234,33
493,75	2179,04
493,95	2113,50
494,15	2029,54
494,35	1873,89
494,56	1826,79
494,76	1847,27
494,96	1808,36
495,16	1722,34
495,36	1769,44
495,56	1708,01
495,76	1724,39
495,96	1732,58
496,16	1624,04
496,36	1824,74
496,56	1646,57
496,77	1742,82
496,97	1693,67
497,17	1787,88
497,37	1634,28
497,57	1808,36
497,77	1699,81
497,97	1681,38
498,17	1714,15
498,37	1728,49
498,57	1781,73
498,77	1687,53
498,97	1755,11
499,17	1880,04
499,38	1705,96
499,58	1763,30
499,78	1724,39
499,98	1839,08
500,18	1675,24
500,38	1683,43
500,58	1888,23
500,78	2553,82
500,98	4667,32
501,18	6016,93
501,38	6928,28
501,58	7124,88
501,78	6815,64
501,98	5605,29
502,18	5042,10
502,38	4501,44
502,58	4161,47
502,78	3758,02
502,98	3653,58
503,18	3444,68
503,38	3096,53
503,59	2770,90
503,79	2756,57
503,99	2537,43
504,19	2330,59
504,39	2238,43
504,59	2199,52
504,79	2113,50
504,99	2009,06
505,19	1904,61
505,39	1931,23
505,59	1884,13
505,79	1908,71
505,99	1886,18
506,19	1830,88
506,39	1888,23
506,59	1783,78
506,79	1683,43
506,99	1822,69
507,19	1691,62
507,39	1695,72
507,59	1632,23
507,79	1656,81
507,99	1728,49
508,19	1693,67
508,39	1716,20
508,59	1687,53
508,79	1779,68
508,99	1755,11
509,19	1665,00
509,39	1779,68
509,59	1636,33
509,79	1703,91
509,99	1740,77
510,19	1820,64
510,39	1771,49
510,59	1763,30
510,79	1634,28
510,99	1669,09
511,19	1814,50
511,39	1800,16
511,59	1757,16
511,79	1824,74
511,99	1708,01
512,19	1804,26
512,38	1724,39
512,58	1597,42
512,78	1767,40
512,98	1804,26
513,18	1820,64
513,38	1691,62
513,58	1757,16
513,78	1738,73
513,98	1665,00
514,18	1683,43
514,38	1767,40
514,58	1761,25
514,78	1691,62
514,98	1628,14
515,18	1679,33
515,38	1632,23
515,58	1759,21
515,78	1728,49
515,98	1669,09
516,18	1777,64
516,38	1673,19
516,57	1654,76
516,77	1673,19
516,97	1722,34
517,17	1736,68
517,37	1646,57
517,57	1789,92
517,77	1683,43
517,97	1732,58
518,17	1751,01
518,37	1683,43
518,57	1656,81
518,77	1677,29
518,97	1767,40
519,16	1787,88
519,36	1783,78
519,56	1697,77
519,76	1771,49
519,96	1767,40
520,16	1789,92
520,36	1636,33
520,56	1800,16
520,76	1722,34
520,96	1662,95
521,16	1740,77
521,35	1822,69
521,55	1794,02
521,75	1732,58
521,95	1703,91
522,15	1660,90
522,35	1626,09
522,55	1697,77
522,75	1820,64
522,95	1726,44
523,14	1714,15
523,34	1798,12
523,54	1632,23
523,74	1769,44
523,94	1722,34
524,14	1597,42
524,34	1794,02
524,54	1761,25
524,73	1748,97
524,93	1703,91
525,13	1705,96
525,33	1605,61
525,53	1914,85
525,73	1783,78
525,93	1753,06
526,13	1718,25
526,32	1783,78
526,52	1740,77
526,72	1779,68
526,92	1746,92
527,12	1669,09
527,32	1626,09
527,52	1722,34
527,71	1853,41
527,91	1757,16
528,11	1665,00
528,31	1697,77
528,51	1667,05
528,71	1744,87
528,90	1759,21
529,10	1837,03
529,30	1845,22
529,50	1636,33
529,70	1800,16
529,90	1732,58
530,09	1757,16
530,29	1738,73
530,49	1636,33
530,69	1826,79
530,89	1656,81
531,09	1771,49
531,28	1679,33
531,48	1800,16
531,68	1769,44
531,88	1738,73
532,08	1734,63
532,28	1640,42
532,47	1726,44
532,67	1732,58
532,87	1722,34
533,07	1679,33
533,27	1822,69
533,46	1775,59
533,66	1742,82
533,86	1710,05
534,06	1689,57
534,26	1658,85
534,45	1722,34
534,65	1796,07
534,85	1732,58
535,05	1718,25
535,25	1830,88
535,44	1671,14
535,64	1820,64
535,84	1724,39
536,04	1677,29
536,24	1798,12
536,43	1665,00
536,63	1771,49
536,83	1722,34
537,03	1785,83
537,22	1648,61
537,42	1634,28
537,62	1800,16
537,82	1732,58
538,02	1769,44
538,21	1765,35
538,41	1796,07
538,61	1800,16
538,81	1652,71
539,00	1726,44
539,20	1646,57
539,40	1705,96
539,60	1810,40
539,79	1697,77
539,99	1726,44
540,19	1716,20
540,39	1714,15
540,58	1779,68
540,78	1837,03
540,98	1775,59
541,18	1763,30
541,37	1667,05
541,57	1679,33
541,77	1736,68
541,97	1662,95
542,16	1652,71
542,36	1689,57
542,56	1765,35
542,76	1867,75
542,95	1751,01
543,15	1730,53
543,35	1746,92
543,54	1669,09
543,74	1626,09
543,94	1781,73
544,14	1701,86
544,33	1763,30
544,53	1677,29
544,73	1710,05
544,93	1722,34
545,12	1742,82
545,32	1732,58
545,52	1759,21
545,71	1656,81
545,91	1683,43
546,11	1656,81
546,30	1718,25
546,50	1734,63
546,70	1712,10
546,90	1722,34
547,09	1714,15
547,29	1738,73
547,49	1671,14
547,68	1673,19
547,88	1683,43
548,08	1724,39
548,27	2176,99
548,47	1720,29
548,67	1591,27
548,87	1746,92
549,06	1662,95
549,26	1771,49
549,46	1761,25
549,65	1712,10
549,85	1695,72
550,05	1816,55
550,24	1673,19
550,44	1699,81
550,64	1679,33
550,83	1734,63
551,03	1804,26
551,23	1814,50
551,42	1779,68
551,62	1650,66
551,82	1785,83
552,01	1697,77
552,21	1802,21
552,41	1740,77
552,60	1863,65
552,80	1753,06
553,00	1726,44
553,19	1693,67
553,39	1818,60
553,59	1685,48
553,78	1767,40
553,98	1691,62
554,17	1728,49
554,37	1798,12
554,57	1822,69
554,76	1621,99
554,96	1597,42
555,16	1775,59
555,35	1775,59
555,55	1818,60
555,75	1656,81
555,94	1771,49
556,14	1644,52
556,33	1775,59
556,53	1730,53
556,73	1763,30
556,92	1703,91
557,12	1751,01
557,32	1828,84
557,51	1781,73
557,71	1736,68
557,90	1763,30
558,10	1839,08
558,30	1689,57
558,49	1695,72
558,69	1716,20
558,88	1755,11
559,08	1740,77
559,28	1736,68
559,47	1730,53
559,67	1761,25
559,86	1880,04
560,06	1777,64
560,26	1748,97
560,45	1861,60
560,65	1712,10
560,84	1800,16
561,04	1712,10
561,24	1728,49
561,43	1652,71
561,63	1783,78
561,82	1777,64
562,02	1804,26
562,22	1667,05
562,41	1724,39
562,61	1718,25
562,80	1718,25
563,00	1855,46
563,19	1681,38
563,39	1722,34
563,59	1771,49
563,78	1697,77
563,98	1613,80
564,17	1722,34
564,37	1624,04
564,56	1730,53
564,76	1591,27
564,96	1787,88
565,15	1751,01
565,35	1857,51
565,54	1695,72
565,74	1693,67
565,93	1753,06
566,13	1652,71
566,32	1755,11
566,52	1763,30
566,71	1718,25
566,91	1689,57
567,11	1726,44
567,30	1652,71
567,50	1783,78
567,69	1763,30
567,89	1765,35
568,08	1740,77
568,28	1814,50
568,47	1671,14
568,67	1726,44
568,86	1642,47
569,06	1763,30
569,25	1687,53
569,45	1628,14
569,64	1708,01
569,84	1710,05
570,04	1771,49
570,23	1708,01
570,43	1699,81
570,62	1693,67
570,82	1753,06
571,01	1701,86
571,21	1720,29
571,40	1656,81
571,60	1802,21
571,79	1742,82
571,99	1800,16
572,18	1695,72
572,38	1732,58
572,57	1730,53
572,77	1800,16
572,96	1902,56
573,16	1804,26
573,35	1732,58
573,55	1849,32
573,74	1759,21
573,94	1703,91
574,13	1738,73
574,33	1824,74
574,52	1705,96
574,71	1701,86
574,91	1714,15
575,10	1695,72
575,30	1683,43
575,49	1734,63
575,69	1716,20
575,88	1665,00
576,08	1675,24
576,27	1822,69
576,47	1689,57
576,66	1865,70
576,86	1794,02
577,05	1712,10
577,25	1791,97
577,44	1855,46
577,64	1746,92
577,83	1732,58
578,02	1738,73
578,22	1820,64
578,41	1849,32
578,61	1701,86
578,80	1648,61
579,00	1783,78
579,19	1687,53
579,39	1796,07
579,58	1763,30
579,77	1716,20
579,97	1822,69
580,16	1820,64
580,36	1853,41
580,55	1824,74
580,75	1791,97
580,94	1751,01
581,13	1925,09
581,33	1800,16
581,52	1763,30
581,72	1853,41
581,91	1841,12
582,11	1636,33
582,30	1726,44
582,49	1722,34
582,69	1849,32
582,88	1761,25
583,08	1703,91
583,27	1859,56
583,47	1761,25
583,66	1695,72
583,85	1718,25
584,05	1753,06
584,24	1744,87
584,44	1808,36
584,63	1832,93
584,82	1873,89
585,02	1806,31
585,21	1718,25
585,41	1816,55
585,60	1814,50
585,79	2004,96
585,99	1920,99
586,18	1851,36
586,37	2209,76
586,57	3391,44
586,76	10219,36
586,96	25034,37
587,15	35479,01
587,34	41532,81
587,54	43443,56
587,73	37885,37
587,93	27096,67
588,12	22259,37
588,31	18935,52
588,51	16711,42
588,70	15429,40
588,89	14397,22
589,09	12922,68
589,28	11423,57
589,47	9758,57
589,67	8236,93
589,86	6578,08
590,06	5023,67
590,25	3971,01
590,44	3092,43
590,64	2621,40
590,83	2230,24
591,02	2054,11
591,22	1927,14
591,41	1853,41
591,60	1822,69
591,80	1884,13
591,99	1761,25
592,18	1744,87
592,38	1828,84
592,57	1751,01
592,76	1716,20
592,96	1783,78
593,15	1804,26
593,34	1751,01
593,54	1708,01
593,73	1779,68
593,92	1769,44
594,12	1740,77
594,31	1767,40
594,50	1834,98
594,70	1748,97
594,89	1871,84
595,08	1660,90
595,28	1765,35
595,47	1939,43
595,66	1787,88
595,86	1652,71
596,05	1773,54
596,24	1699,81
596,43	1800,16
596,63	1855,46
596,82	1687,53
597,01	1781,73
597,21	1785,83
597,40	1732,58
597,59	1798,12
597,79	1718,25
597,98	1748,97
598,17	1767,40
598,36	1769,44
598,56	1832,93
598,75	1730,53
598,94	1695,72
599,14	1773,54
599,33	1669,09
599,52	1763,30
599,71	1724,39
599,91	1820,64
600,10	1816,55
600,29	1720,29
600,48	1732,58
600,68	1757,16
600,87	1744,87
601,06	1677,29
601,26	1779,68
601,45	1730,53
601,64	1720,29
601,83	1740,77
602,03	1779,68
602,22	1660,90
602,41	1755,11
602,60	1863,65
602,80	1808,36
602,99	1689,57
603,18	1775,59
603,37	1732,58
603,57	1763,30
603,76	1814,50
603,95	1716,20
604,14	1712,10
604,34	1708,01
604,53	1763,30
604,72	1658,85
604,91	1765,35
605,10	1726,44
605,30	1667,05
605,49	1791,97
605,68	1771,49
605,87	1712,10
606,07	1652,71
606,26	1685,48
606,45	1748,97
606,64	1785,83
606,84	1665,00
607,03	1738,73
607,22	1781,73
607,41	1656,81
607,60	1669,09
607,80	1769,44
607,99	1703,91
608,18	1730,53
608,37	1701,86
608,56	1658,85
608,76	1855,46
608,95	1808,36
609,14	1658,85
609,33	1744,87
609,52	1720,29
609,72	1720,29
609,91	1705,96
610,10	1785,83
610,29	1824,74
610,48	1685,48
610,68	1767,40
610,87	1701,86
611,06	1705,96
611,25	1732,58
611,44	1822,69
611,63	1730,53
611,83	1742,82
612,02	1638,38
612,21	1849,32
612,40	1652,71
612,59	1617,90
612,79	1669,09
612,98	1753,06
613,17	1785,83
613,36	1730,53
613,55	1843,17
613,74	1748,97
613,93	1681,38
614,13	1701,86
614,32	1697,77
614,51	1740,77
614,70	1687,53
614,89	1654,76
615,08	1722,34
615,28	2015,20
615,47	1681,38
615,66	1722,34
615,85	1728,49
616,04	1791,97
616,23	1646,57
616,42	1769,44
616,62	1726,44
616,81	1748,97
617,00	1734,63
617,19	1699,81
617,38	1642,47
617,57	1785,83
617,76	1736,68
617,95	1730,53
618,15	1693,67
618,34	1796,07
618,53	1718,25
618,72	1800,16
618,91	1826,79
619,10	1810,40
619,29	1677,29
619,48	1701,86
619,68	1710,05
619,87	1732,58
620,06	1652,71
620,25	1673,19
620,44	1738,73
620,63	1695,72
620,82	1726,44
621,01	1796,07
621,20	1732,58
621,39	1761,25
621,59	1728,49
621,78	1681,38
621,97	1662,95
622,16	1746,92
622,35	1753,06
622,54	1744,87
622,73	1734,63
622,92	1689,57
623,11	1691,62
623,30	1689,57
623,49	1732,58
623,68	1705,96
623,88	1828,84
624,07	1714,15
624,26	1746,92
624,45	1787,88
624,64	1689,57
624,83	1736,68
625,02	1726,44
625,21	1697,77
625,40	1759,21
625,59	1822,69
625,78	1640,42
625,97	1703,91
626,16	1703,91
626,35	1714,15
626,54	1748,97
626,74	1834,98
626,93	1642,47
627,12	1734,63
627,31	1769,44
627,50	1755,11
627,69	1810,40
627,88	1632,23
628,07	1689,57
628,26	1624,04
628,45	1714,15
628,64	1667,05
628,83	1710,05
629,02	1673,19
629,21	1738,73
629,40	1791,97
629,59	1624,04
629,78	1718,25
629,97	1626,09
630,16	1744,87
630,35	1730,53
630,54	1714,15
630,73	1638,38
630,92	1705,96
631,11	1740,77
631,30	1753,06
631,49	1773,54
631,68	1718,25
631,87	1800,16
632,06	1621,99
632,25	1834,98
632,44	1640,42
632,63	1693,67
632,82	1708,01
633,01	1710,05
633,20	1736,68
633,39	1724,39
633,58	1621,99
633,77	1742,82
633,96	1716,20
634,15	1763,30
634,34	1708,01
634,53	1722,34
634,72	1632,23
634,91	1685,48
635,10	1720,29
635,29	1755,11
635,48	1728,49
635,67	1626,09
635,86	1648,61
636,05	1765,35
636,24	1759,21
636,43	1708,01
636,62	1708,01
636,81	1572,84
637,00	1769,44
637,19	1708,01
637,38	1726,44
637,57	1714,15
637,76	1718,25
637,95	1705,96
638,14	1632,23
638,33	1714,15
638,52	1718,25
638,71	1632,23
638,89	1656,81
639,08	1828,84
639,27	1728,49
639,46	1675,24
639,65	1802,21
639,84	1710,05
640,03	1820,64
640,22	1708,01
640,41	1738,73
640,60	1628,14
640,79	1771,49
640,98	1638,38
641,17	1763,30
641,36	1738,73
641,55	1683,43
641,74	1677,29
641,92	1550,31
642,11	1656,81
642,30	1605,61
642,49	1669,09
642,68	1699,81
642,87	1767,40
643,06	1699,81
643,25	1681,38
643,44	1683,43
643,63	1730,53
643,82	1789,92
644,00	1691,62
644,19	1697,77
644,38	1683,43
644,57	1726,44
644,76	1642,47
644,95	1652,71
645,14	1755,11
645,33	1646,57
645,52	1699,81
645,71	1615,85
645,89	1632,23
646,08	1650,66
646,27	1665,00
646,46	1744,87
646,65	1609,70
646,84	1738,73
647,03	1652,71
647,22	1765,35
647,40	1708,01
647,59	1658,85
647,78	1662,95
647,97	1673,19
648,16	1681,38
648,35	1800,16
648,54	1824,74
648,73	1734,63
648,91	1779,68
649,10	1724,39
649,29	1687,53
649,48	1740,77
649,67	1748,97
649,86	1685,48
650,05	1683,43
650,23	1732,58
650,42	1617,90
650,61	1761,25
650,80	1730,53
650,99	1834,98
651,18	1761,25
651,36	1705,96
651,55	1689,57
651,74	1767,40
651,93	1669,09
652,12	1681,38
652,31	1621,99
652,49	1703,91
652,68	1652,71
652,87	1771,49
653,06	1669,09
653,25	1761,25
653,44	1628,14
653,62	1771,49
653,81	1738,73
654,00	1695,72
654,19	1671,14
654,38	1757,16
654,56	1671,14
654,75	1685,48
654,94	1677,29
655,13	1773,54
655,32	1648,61
655,51	1755,11
655,69	1673,19
655,88	1789,92
656,07	1697,77
656,26	1732,58
656,45	1652,71
656,63	1652,71
656,82	1742,82
657,01	1783,78
657,20	1667,05
657,38	1759,21
657,57	1757,16
657,76	1671,14
657,95	1763,30
658,14	1726,44
658,32	1726,44
658,51	1648,61
658,70	1708,01
658,89	1712,10
659,08	1771,49
659,26	1818,60
659,45	1644,52
659,64	1642,47
659,83	1644,52
660,01	1974,24
660,20	1693,67
660,39	1820,64
660,58	1566,70
660,76	1732,58
660,95	1683,43
661,14	1701,86
661,33	1662,95
661,51	1740,77
661,70	1687,53
661,89	1783,78
662,08	1710,05
662,26	1613,80
662,45	1738,73
662,64	1763,30
662,83	1785,83
663,01	1611,75
663,20	1714,15
663,39	1806,31
663,58	1636,33
663,76	1648,61
663,95	1712,10
664,14	1677,29
664,32	1697,77
664,51	1640,42
664,70	1572,84
664,89	1683,43
665,07	1675,24
665,26	1779,68
665,45	1681,38
665,64	1732,58
665,82	1660,90
666,01	1759,21
666,20	1718,25
666,38	1757,16
666,57	1820,64
666,76	2088,93
666,95	4534,20
667,13	10669,92
667,32	15488,79
667,51	18302,70
667,69	19699,41
667,88	17981,17
668,07	12601,15
668,25	9840,49
668,44	8257,41
668,63	7559,05
668,81	7051,16
669,00	6522,78
669,19	5765,03
669,38	5187,50
669,56	4579,26
669,75	4104,13
669,94	3596,23
670,12	2893,78
670,31	2580,44
670,50	2353,12
670,68	2052,06
670,87	1896,42
671,06	1757,16
671,24	1841,12
671,43	1769,44
671,62	1699,81
671,80	1720,29
671,99	1746,92
672,18	1677,29
672,36	1726,44
672,55	1785,83
672,74	1716,20
672,92	1732,58
673,11	1699,81
673,29	1701,86
673,48	1748,97
673,67	1675,24
673,85	1763,30
674,04	1658,85
674,23	1789,92
674,41	1808,36
674,60	1691,62
674,79	1603,56
674,97	1660,90
675,16	1701,86
675,34	1687,53
675,53	1671,14
675,72	1773,54
675,90	1703,91
676,09	1685,48
676,28	1744,87
676,46	1617,90
676,65	1722,34
676,83	1656,81
677,02	1683,43
677,21	1746,92
677,39	1669,09
677,58	1656,81
677,77	1671,14
677,95	1675,24
678,14	1601,51
678,32	1691,62
678,51	1673,19
678,70	1837,03
678,88	1652,71
679,07	1691,62
679,25	1695,72
679,44	1671,14
679,63	1615,85
679,81	1742,82
680,00	1765,35
680,18	1695,72
680,37	1755,11
680,55	1667,05
680,74	1642,47
680,93	1605,61
681,11	1701,86
681,30	1708,01
681,48	1730,53
681,67	1681,38
681,85	1665,00
682,04	1646,57
682,23	1783,78
682,41	1683,43
682,60	1660,90
682,78	1730,53
682,97	1683,43
683,15	1691,62
683,34	1720,29
683,53	1732,58
683,71	1609,70
683,90	1816,55
684,08	1765,35
684,27	1662,95
684,45	1791,97
684,64	1722,34
684,82	1685,48
685,01	1730,53
685,19	1681,38
685,38	1796,07
685,57	1669,09
685,75	1671,14
685,94	1675,24
686,12	1599,46
686,31	1695,72
686,49	1900,52
686,68	1662,95
686,86	1736,68
687,05	1683,43
687,23	1755,11
687,42	1634,28
687,60	1626,09
687,79	1732,58
687,97	1726,44
688,16	1701,86
688,34	1763,30
688,53	1636,33
688,71	1791,97
688,90	1798,12
689,08	1646,57
689,27	1560,55
689,45	1746,92
689,64	1720,29
689,82	1703,91
690,01	1730,53
690,19	1742,82
690,38	1734,63
690,56	1787,88
690,75	1621,99
690,93	1665,00
691,12	1703,91
691,30	1687,53
691,49	1656,81
691,67	1693,67
691,86	1873,89
692,04	1726,44
692,23	1662,95
692,41	1648,61
692,60	1851,36
692,78	1722,34
692,97	1646,57
693,15	1742,82
693,34	1837,03
693,52	1763,30
693,71	1689,57
693,89	1779,68
694,08	1578,98
694,26	1751,01
694,44	1667,05
694,63	1779,68
694,81	1619,94
695,00	1626,09
695,18	1736,68
695,37	1796,07
695,55	1816,55
695,74	1710,05
695,92	1652,71
696,10	1705,96
696,29	1632,23
696,47	1665,00
696,66	1607,66
696,84	1621,99
697,03	1658,85
697,21	1869,80
697,40	2220,00
697,58	1763,30
697,76	1705,96
697,95	1695,72
698,13	1615,85
698,32	1714,15
698,50	1697,77
698,68	1699,81
698,87	1669,09
699,05	1738,73
699,24	1787,88
699,42	1617,90
699,61	1638,38
699,79	1697,77
699,97	1716,20
700,16	1617,90
700,34	1644,52
700,53	1619,94
700,71	1806,31
700,89	1705,96
701,08	1714,15
701,26	1689,57
701,45	2041,82
701,63	1603,56
701,81	1726,44
702,00	1669,09
702,18	1712,10
702,37	1630,18
702,55	1671,14
702,73	1712,10
702,92	1613,80
703,10	1798,12
703,28	1697,77
703,47	1662,95
703,65	1748,97
703,84	1681,38
704,02	1630,18
704,20	1787,88
704,39	1683,43
704,57	1701,86
704,75	1742,82
704,94	1748,97
705,12	1779,68
705,30	1789,92
705,49	2232,29
705,67	4396,99
705,86	9654,12
706,04	12986,17
706,22	14815,01
706,41	15742,74
706,59	14335,78
706,77	9897,83
706,96	7524,24
707,14	6694,81
707,32	6170,53
707,51	5742,50
707,69	5038,00
707,87	4411,32
708,06	3567,56
708,24	2979,79
708,42	2389,98
708,61	2338,78
708,79	1820,64
708,97	1898,47
709,16	1798,12
709,34	1775,59
709,52	1759,21
709,71	1701,86
709,89	1746,92
710,07	1701,86
710,26	1611,75
710,44	1769,44
710,62	1769,44
710,80	1701,86
710,99	1783,78
711,17	1738,73
711,35	1640,42
711,54	1650,66
711,72	1699,81
711,90	1677,29
712,09	1681,38
712,27	1677,29
712,45	1689,57
712,63	1621,99
712,82	1705,96
713,00	1751,01
713,18	1685,48
713,37	1714,15
713,55	1757,16
713,73	1755,11
713,91	1742,82
714,10	1648,61
714,28	1640,42
714,46	1746,92
714,65	1720,29
714,83	1650,66
715,01	1636,33
715,19	1662,95
715,38	1718,25
715,56	1697,77
715,74	1669,09
715,92	1626,09
716,11	1771,49
716,29	1636,33
716,47	1691,62
716,65	1685,48
716,84	1617,90
717,02	1748,97
717,20	1642,47
717,38	1697,77
717,57	1732,58
717,75	1708,01
717,93	1665,00
718,11	1720,29
718,30	1605,61
718,48	1675,24
718,66	1822,69
718,84	1773,54
719,03	1687,53
719,21	1595,37
719,39	1796,07
719,57	1712,10
719,75	1718,25
719,94	1685,48
720,12	1652,71
720,30	1671,14
720,48	1683,43
720,67	1613,80
720,85	1597,42
721,03	1640,42
721,21	1667,05
721,39	1740,77
721,58	1728,49
721,76	1652,71
721,94	1732,58
722,12	1710,05
722,30	1697,77
722,49	1699,81
722,67	1736,68
722,85	1757,16
723,03	1605,61
723,21	1601,51
723,40	1775,59
723,58	1695,72
723,76	1652,71
723,94	1791,97
724,12	1701,86
724,30	1705,96
724,49	1767,40
724,67	1611,75
724,85	1820,64
725,03	1689,57
725,21	1740,77
725,40	1726,44
725,58	1656,81
725,76	1757,16
725,94	1683,43
726,12	1624,04
726,30	1634,28
726,49	1615,85
726,67	1710,05
726,85	1667,05
727,03	1701,86
727,21	2121,70
727,39	2942,93
727,57	3911,62
727,76	4212,67
727,94	4579,26
728,12	4337,60
728,30	3770,31
728,48	3045,33
728,66	2766,81
728,84	2629,59
729,03	2314,20
729,21	2113,50
729,39	1968,10
729,57	1853,41
729,75	1779,68
729,93	1808,36
730,11	1648,61
730,30	1638,38
730,48	1648,61
730,66	1832,93
730,84	1751,01
731,02	1681,38
731,20	1650,66
731,38	1673,19
731,56	1679,33
731,74	1646,57
731,93	1710,05
732,11	1710,05
732,29	1708,01
732,47	1798,12
732,65	1634,28
732,83	1669,09
733,01	1689,57
733,19	1644,52
733,37	1740,77
733,56	1656,81
733,74	1640,42
733,92	1796,07
734,10	1695,72
734,28	1673,19
734,46	1607,66
734,64	1624,04
734,82	1619,94
735,00	1578,98
735,18	1669,09
735,36	1656,81
735,54	1669,09
735,73	1701,86
735,91	1658,85
736,09	1726,44
736,27	1669,09
736,45	1677,29
736,63	1576,94
736,81	1658,85
736,99	1665,00
737,17	1732,58
737,35	1650,66
737,53	1714,15
737,71	1650,66
737,89	1730,53
738,07	1665,00
738,25	1570,79
738,43	1615,85
738,61	1660,90
738,80	1640,42
738,98	1595,37
739,16	1630,18
739,34	1595,37
739,52	1816,55
739,70	1628,14
739,88	1697,77
740,06	1736,68
740,24	1560,55
740,42	1757,16
740,60	1583,08
740,78	1693,67
740,96	1603,56
741,14	1671,14
741,32	1710,05
741,50	1693,67
741,68	1847,27
741,86	1769,44
742,04	1644,52
742,22	1624,04
742,40	1705,96
742,58	1689,57
742,76	1626,09
742,94	1751,01
743,12	1632,23
743,30	1644,52
743,48	1660,90
743,66	1662,95
743,84	1724,39
744,02	1640,42
744,20	1685,48
744,38	1665,00
744,56	1667,05
744,74	1845,22
744,92	1685,48
745,10	1759,21
745,28	1720,29
745,46	1837,03
745,64	1677,29
745,82	1775,59
746,00	1785,83
746,18	1689,57
746,36	1632,23
746,54	1675,24
746,72	1716,20
746,90	1662,95
747,08	1767,40
747,26	1708,01
747,44	1695,72
747,62	1703,91
747,80	1714,15
747,98	1806,31
748,15	1697,77
748,33	1796,07
748,51	1617,90
748,69	1740,77
748,87	1708,01
749,05	1689,57
749,23	1677,29
749,41	1689,57
749,59	1646,57
749,77	1654,76
749,95	1624,04
750,13	1687,53
750,31	1738,73
750,49	1665,00
750,67	1763,30
750,85	1865,70
751,03	1703,91
751,20	1857,51
751,38	1679,33
751,56	1601,51
751,74	1734,63
751,92	1708,01
752,10	1703,91
752,28	1832,93
752,46	1632,23
752,64	1650,66
752,82	1722,34
753,00	1652,71
753,18	1568,74
753,35	1716,20
753,53	1654,76
753,71	1611,75
753,89	1714,15
754,07	1744,87
754,25	1648,61
754,43	1701,86
754,61	1681,38
754,79	1759,21
754,97	1728,49
755,14	1800,16
755,32	1607,66
755,50	1613,80
755,68	1665,00
755,86	1671,14
756,04	1632,23
756,22	1572,84
756,40	1718,25
756,57	1814,50
756,75	1665,00
756,93	1759,21
757,11	1773,54
757,29	1550,31
757,47	1660,90
757,65	1652,71
757,82	1603,56
758,00	1681,38
758,18	1667,05
758,36	1638,38
758,54	1736,68
758,72	1648,61
758,90	1748,97
759,07	1736,68
759,25	1677,29
759,43	1667,05
759,61	1636,33
759,79	2070,50
759,97	1689,57
760,15	1757,16
760,32	1673,19
760,50	1720,29
760,68	1718,25
760,86	1587,18
761,04	1742,82
761,22	1783,78
761,39	1675,24
761,57	1679,33
761,75	1626,09
761,93	1665,00
762,11	1705,96
762,28	1642,47
762,46	1626,09
762,64	1718,25
762,82	1665,00
763,00	1755,11
763,18	1763,30
763,35	1597,42
763,53	1701,86
763,71	1607,66
763,89	1615,85
764,07	1669,09
764,24	1677,29
764,42	1687,53
764,60	1699,81
764,78	1777,64
764,96	1693,67
765,13	1746,92
765,31	1683,43
765,49	1828,84
765,67	1613,80
765,84	1654,76
766,02	1665,00
766,20	1683,43
766,38	1701,86
766,56	1722,34
766,73	1806,31
766,91	1681,38
767,09	1644,52
767,27	1699,81
767,44	1566,70
767,62	1742,82
767,80	1644,52
767,98	1662,95
768,15	1662,95
768,33	1689,57
768,51	1769,44
768,69	1691,62
768,87	1681,38
769,04	1736,68
769,22	1783,78
769,40	1751,01
769,58	1830,88
769,75	1667,05
769,93	1742,82
770,11	1720,29
770,28	1714,15
770,46	1705,96
770,64	1673,19
770,82	1628,14
770,99	1607,66
771,17	1728,49
771,35	1656,81
771,53	1669,09
771,70	1701,86
771,88	1742,82
772,06	1714,15
772,23	1611,75
772,41	1753,06
772,59	1683,43
772,77	1603,56
772,94	1710,05
773,12	1767,40
773,30	1667,05
773,47	1632,23
773,65	1648,61
773,83	1734,63
774,01	1699,81
774,18	1572,84
774,36	1699,81
774,54	1574,89
774,71	1628,14
774,89	1570,79
775,07	1675,24
775,24	1732,58
775,42	1675,24
775,60	1861,60
775,78	1603,56
775,95	1550,31
776,13	1540,07
776,31	1593,32
776,48	1679,33
776,66	1742,82
776,84	1691,62
777,01	1652,71
777,19	1671,14
777,37	1644,52
777,54	1632,23
777,72	1779,68
777,90	1689,57
778,07	1630,18
778,25	1908,71
778,43	1703,91
778,60	1644,52
778,78	1771,49
778,96	1734,63
779,13	1656,81
779,31	1738,73
779,49	1671,14
779,66	1746,92
779,84	1667,05
780,01	1652,71
780,19	1626,09
780,37	1845,22
780,54	1712,10
780,72	1650,66
780,90	1693,67
781,07	1644,52
781,25	1621,99
781,43	1734,63
781,60	1714,15
781,78	1759,21
781,95	1675,24
782,13	1626,09
782,31	1681,38
782,48	1648,61
782,66	1609,70
782,83	1824,74
783,01	1765,35
783,19	1761,25
783,36	1640,42
783,54	1660,90
783,72	1777,64
783,89	1626,09
784,07	1671,14
784,24	1724,39
784,42	1775,59
784,60	1744,87
784,77	1673,19
784,95	1603,56
785,12	1652,71
785,30	1624,04
785,47	1505,26
785,65	1589,22
785,83	1654,76
786,00	1677,29
786,18	1703,91
786,35	1662,95
786,53	1613,80
786,71	1720,29
786,88	1726,44
787,06	1642,47
787,23	1701,86
787,41	1634,28
787,58	1730,53
787,76	1599,46
787,94	1697,77
788,11	1722,34
788,29	1617,90
788,46	1626,09
788,64	1572,84
788,81	1677,29
788,99	1712,10
789,16	1681,38
789,34	1705,96
789,52	1650,66
789,69	1656,81
789,87	1562,60
790,04	1701,86
790,22	1687,53
790,39	1781,73
790,57	1607,66
790,74	1605,61
790,92	1763,30
791,09	1667,05
791,27	1683,43
791,44	1769,44
791,62	1669,09
791,79	1669,09
791,97	1699,81
792,15	1898,47
792,32	1685,48
792,50	1691,62
792,67	1761,25
792,85	1740,77
793,02	1681,38
793,20	1646,57
793,37	1531,88
793,55	1693,67
793,72	1595,37
793,90	1757,16
794,07	1554,41
794,25	1681,38
794,42	1732,58
794,60	1617,90
794,77	1714,15
794,95	1710,05
795,12	1732,58
795,30	1646,57
795,47	1603,56
795,65	1802,21
795,82	1714,15
796,00	1650,66
796,17	1685,48
796,34	1603,56
796,52	1597,42
796,69	1816,55
796,87	1708,01
797,04	1728,49
797,22	1816,55
797,39	1714,15
797,57	1703,91
797,74	1621,99
797,92	1681,38
798,09	1599,46
798,27	1742,82
798,44	1765,35
798,62	1611,75
798,79	1665,00
798,96	1705,96
799,14	1746,92
799,31	1800,16
799,49	1581,03
799,66	1624,04
799,84	1687,53
800,01	1621,99
800,19	1705,96
800,36	1675,24
800,53	1640,42
800,71	1689,57
800,88	1800,16
801,06	1644,52
801,23	1667,05
801,41	1693,67
801,58	1642,47
801,75	1648,61
801,93	1687,53
802,10	1769,44
802,28	1691,62
802,45	1742,82
802,63	1705,96
802,80	1726,44
802,97	1693,67
803,15	1708,01
803,32	1730,53
803,50	1640,42
803,67	1662,95
803,84	1619,94
804,02	1718,25
804,19	1601,51
804,37	1583,08
804,54	1665,00
804,71	1710,05
804,89	1656,81
805,06	1634,28
805,24	1624,04
805,41	1697,77
805,58	1634,28
805,76	1796,07
805,93	1683,43
806,10	1732,58
806,28	1794,02
806,45	1681,38
806,63	1697,77
806,80	1693,67
806,97	1667,05
807,15	1751,01
807,32	1728,49
807,49	1691,62
807,67	1576,94
807,84	1632,23
808,01	1595,37
808,19	1816,55
808,36	1814,50
808,54	1679,33
808,71	1658,85
808,88	1703,91
809,06	1708,01
809,23	1619,94
809,40	1617,90
809,58	1734,63
809,75	1650,66
809,92	1652,71
810,10	1818,60
810,27	1658,85
810,44	1716,20
810,62	1730,53
810,79	1654,76
810,96	1689,57
811,14	1656,81
811,31	1644,52
811,48	1726,44
811,66	1632,23
811,83	1730,53
812,00	1734,63
812,18	1773,54
812,35	1820,64
812,52	1597,42
812,69	1724,39
812,87	1724,39
813,04	1617,90
813,21	1644,52
813,39	1662,95
813,56	1628,14
813,73	1791,97
813,91	1535,98
814,08	1753,06
814,25	1701,86
814,42	1689,57
814,60	1665,00
814,77	1716,20
814,94	1662,95
815,12	1632,23
815,29	1726,44
815,46	1634,28
815,63	1779,68
815,81	1656,81
815,98	1681,38
816,15	1630,18
816,33	1705,96
816,50	1716,20
816,67	1724,39
816,84	1685,48
817,02	1601,51
817,19	1636,33
817,36	1673,19
817,53	1765,35
817,71	1675,24
817,88	1806,31
818,05	1648,61
818,22	1656,81
818,40	1773,54
818,57	1644,52
818,74	1703,91
818,91	1679,33
819,09	1742,82
819,26	1746,92
819,43	1632,23
819,60	1638,38
819,78	1705,96
819,95	1761,25
820,12	1595,37
820,29	1740,77
820,47	1730,53
820,64	1730,53
820,81	1656,81
820,98	1648,61
821,15	1648,61
821,33	1722,34
821,50	1636,33
821,67	1779,68
821,84	1705,96
822,02	1742,82
822,19	1722,34
822,36	1665,00
822,53	1593,32
822,70	1689,57
822,88	1763,30
823,05	1796,07
823,22	1640,42
823,39	1746,92
823,56	1615,85
823,74	1794,02
823,91	1632,23
824,08	1583,08
824,25	1660,90
824,42	1800,16
824,60	1642,47
824,77	1699,81
824,94	1701,86
825,11	1738,73
825,28	1650,66
825,45	1736,68
825,63	1658,85
825,80	1640,42
825,97	1687,53
826,14	1712,10
826,31	1667,05
826,48	1728,49
826,66	1691,62
826,83	1587,18
827,00	1607,66
827,17	1621,99
827,34	1718,25
827,51	1708,01
827,69	1695,72
827,86	1599,46
828,03	1662,95
828,20	1560,55
828,37	1675,24
828,54	1701,86
828,71	1677,29
828,89	1728,49
829,06	1746,92
829,23	1830,88
829,40	1738,73
829,57	1650,66
829,74	1728,49
829,91	1726,44
830,09	1697,77
830,26	1648,61
830,43	1693,67
830,60	1689,57
830,77	1708,01
830,94	1765,35
831,11	1718,25
831,28	1710,05
831,46	1753,06
831,63	1617,90
831,80	1771,49
831,97	1628,14
832,14	1624,04
832,31	1730,53
832,48	1716,20
832,65	1779,68
832,82	1628,14
832,99	1613,80
833,17	1615,85
833,34	1738,73
833,51	1751,01
833,68	1652,71
833,85	1673,19
834,02	1593,32
834,19	1615,85
834,36	1677,29
834,53	1662,95
834,70	1853,41
834,87	1665,00
835,04	1744,87
835,22	1701,86
835,39	1652,71
835,56	1621,99
835,73	1640,42
835,90	1734,63
836,07	1605,61
836,24	1726,44
836,41	1689,57
836,58	1675,24
836,75	1744,87
836,92	1662,95
837,09	1640,42
837,26	1626,09
837,43	1699,81
837,60	1740,77
837,77	1660,90
837,94	1794,02
838,12	1787,88
838,29	1640,42
838,46	1634,28
838,63	1640,42
838,80	1757,16
838,97	1744,87
839,14	1697,77
839,31	1669,09
839,48	1748,97
839,65	1689,57
839,82	1671,14
839,99	1636,33
840,16	1628,14
840,33	1628,14
840,50	1687,53
840,67	1681,38
840,84	1576,94
841,01	1671,14
841,18	1675,24
841,35	1624,04
841,52	1787,88
841,69	1740,77
841,86	1767,40
842,03	1744,87
842,20	1716,20
842,37	1726,44
842,54	1605,61
842,71	1767,40
842,88	1673,19
843,05	1667,05
843,22	1626,09
843,39	1701,86
843,56	1710,05
843,73	1660,90
843,90	1732,58
844,07	1630,18
844,24	1765,35
844,41	1748,97
844,58	1650,66
844,75	1665,00
844,92	1728,49
845,09	1699,81
845,26	1673,19
845,43	1740,77
845,60	1681,38
845,77	1687,53
845,94	1656,81
846,10	1710,05
846,27	1634,28
846,44	1662,95
846,61	1593,32
846,78	1675,24
846,95	1658,85
847,12	1710,05
847,29	1703,91
847,46	1624,04
847,63	1720,29
847,80	1673,19
847,97	1703,91
848,14	1740,77
848,31	1695,72
848,48	1656,81
848,65	1675,24
848,82	1671,14
848,98	1781,73
849,15	1671,14
849,32	1773,54
849,49	1777,64
849,66	1675,24
849,83	1691,62
850,00	1669,09
850,17	1708,01
850,34	1642,47
850,51	1603,56
850,68	1617,90
850,85	1787,88
851,01	1665,00
851,18	1753,06
851,35	1691,62
851,52	1734,63
851,69	1802,21
851,86	1640,42
852,03	1701,86
852,20	1746,92
852,37	1681,38
852,53	1609,70
852,70	1718,25
852,87	1658,85
853,04	1781,73
853,21	1660,90
853,38	1644,52
853,55	1693,67
853,72	1722,34
853,89	1626,09
854,05	1669,09
854,22	1589,22
854,39	1699,81
854,56	1708,01
854,73	1685,48
854,90	1636,33
855,07	1646,57
855,23	1632,23
855,40	1656,81
855,57	1708,01
855,74	1624,04
855,91	1755,11
856,08	1601,51
856,25	1603,56
856,41	1701,86
856,58	1595,37
856,75	1697,77
856,92	1619,94
857,09	1755,11
857,26	1640,42
857,42	1683,43
857,59	1787,88
857,76	1593,32
857,93	1677,29
858,10	1648,61
858,27	1550,31
858,43	1632,23
858,60	1619,94
858,77	1632,23
858,94	1677,29
859,11	1730,53
859,27	1648,61
859,44	1650,66
859,61	1763,30
859,78	1781,73
859,95	1708,01
860,12	1701,86
860,28	1771,49
860,45	1865,70
860,62	1751,01
860,79	1705,96
860,95	1617,90
861,12	1667,05
861,29	1607,66
861,46	1595,37
861,63	1585,13
861,79	1699,81
861,96	1648,61
862,13	1609,70
862,30	1740,77
862,47	1656,81
862,63	1658,85
862,80	1781,73
862,97	1726,44
863,14	1720,29
863,30	1705,96
863,47	1624,04
863,64	1751,01
863,81	1699,81
863,97	1665,00
864,14	1767,40
864,31	1695,72
864,48	1710,05
864,65	1634,28
864,81	1687,53
864,98	1714,15
865,15	1769,44
865,32	1722,34
865,48	1689,57
865,65	1767,40
865,82	1599,46
865,98	1724,39
866,15	1757,16
866,32	1759,21
866,49	1652,71
866,65	1775,59
866,82	1656,81
866,99	1703,91
867,16	1667,05
867,32	1648,61
867,49	1662,95
867,66	1689,57
867,83	1658,85
867,99	1570,79
868,16	1630,18
868,33	1693,67
868,49	1681,38
868,66	1736,68
868,83	1716,20
868,99	1722,34
869,16	1669,09
869,33	1785,83
869,50	1730,53
869,66	1722,34
869,83	1738,73
870,00	1621,99
870,16	1751,01
870,33	1802,21
870,50	1730,53
870,66	1693,67
870,83	1757,16
871,00	1662,95
871,17	1677,29
871,33	1757,16
871,50	1691,62
871,67	1669,09
871,83	1644,52
872,00	1751,01
872,17	1611,75
872,33	1785,83
872,50	1660,90
872,67	1734,63
872,83	1642,47
873,00	1673,19
873,17	1638,38
873,33	1759,21
873,50	1736,68
873,67	1597,42
873,83	1648,61
874,00	1675,24
874,16	1724,39
874,33	1716,20
874,50	1599,46
874,66	1744,87
874,83	1771,49
875,00	1695,72
875,16	1730,53
875,33	1697,77
875,50	1578,98
875,66	1705,96
875,83	1734,63
875,99	1683,43
876,16	1679,33
876,33	1626,09
876,49	1716,20
876,66	1691,62
876,83	1689,57
876,99	1611,75
877,16	1638,38
877,32	1710,05
877,49	1583,08
877,66	1650,66
877,82	1787,88
877,99	1724,39
878,15	1718,25
878,32	1703,91
878,49	1681,38
878,65	1687,53
878,82	1669,09
878,98	1705,96
879,15	1667,05
879,32	1722,34
879,48	1722,34
879,65	1683,43
879,81	1630,18
879,98	1683,43
880,15	1693,67
880,31	1697,77
880,48	1624,04
880,64	1767,40
880,81	1693,67
880,97	1695,72
881,14	1746,92
881,31	1587,18
881,47	1816,55
881,64	1662,95
881,80	1599,46
881,97	1705,96
882,13	1794,02
882,30	1646,57
882,47	1650,66
882,63	1568,74
882,80	1638,38
882,96	1673,19
883,13	1804,26
883,29	1742,82
883,46	1734,63
883,62	1789,92
883,79	1767,40
883,95	1730,53
884,12	1673,19
884,29	1736,68
884,45	1693,67
884,62	1740,77
884,78	1603,56
884,95	1761,25
885,11	1650,66
885,28	1687,53
885,44	1705,96
885,61	1660,90
885,77	1712,10
885,94	1728,49
886,10	1718,25
886,27	1656,81
886,43	1746,92
886,60	1738,73
886,76	1640,42
886,93	1679,33
887,09	1701,86
887,26	1603,56
887,42	1679,33
887,59	1798,12
887,75	1798,12
887,92	1732,58
888,08	1761,25
888,25	1726,44
888,41	1665,00
888,58	1736,68
888,74	1658,85
888,91	1671,14
>>>>>End Processed Spectral Data<<<<<
