SpectraSuite Data File
++++++++++++++++++++++++++++++++++++
Date: Mon Jun 06 16:57:17 CEST 2016
User: root
Dark Spectrum Present: No
Reference Spectrum Present: No
Number of Sampled Component Spectra: 1
Spectrometers: USB4C02835
Integration Time (usec): 100000 (USB4C02835)
Spectra Averaged: 1 (USB4C02835)
Boxcar Smoothing: 0 (USB4C02835)
Correct for Electrical Dark: No (USB4C02835)
Strobe/Lamp Enabled: No (USB4C02835)
Correct for Detector Non-linearity: No (USB4C02835)
Correct for Stray Light: No (USB4C02835)
Number of Pixels in Processed Spectrum: 3648
>>>>>Begin Processed Spectral Data<<<<<
177,47	1423,34
177,69	1423,34
177,91	1423,34
178,13	1433,58
178,36	1462,25
178,58	1650,66
178,80	1728,49
179,02	1605,61
179,24	1701,86
179,46	1648,61
179,68	1763,30
179,90	1624,04
180,13	1718,25
180,35	1638,38
180,57	1656,81
180,79	1738,73
181,01	1636,33
181,23	1783,78
181,45	1857,51
181,67	1732,58
181,90	1740,77
182,12	1634,28
182,34	1665,00
182,56	1742,82
182,78	1699,81
183,00	1736,68
183,22	1710,05
183,44	1636,33
183,66	1857,51
183,89	1761,25
184,11	1705,96
184,33	1689,57
184,55	1796,07
184,77	1775,59
184,99	1746,92
185,21	1638,38
185,43	1902,56
185,65	1728,49
185,87	1734,63
186,10	1820,64
186,32	1812,45
186,54	1710,05
186,76	1730,53
186,98	1771,49
187,20	1693,67
187,42	1665,00
187,64	1689,57
187,86	1722,34
188,08	1775,59
188,30	1675,24
188,52	1683,43
188,75	1759,21
188,97	1773,54
189,19	1716,20
189,41	1757,16
189,63	1730,53
189,85	1636,33
190,07	1701,86
190,29	1605,61
190,51	1765,35
190,73	1648,61
190,95	1767,40
191,17	1654,76
191,39	1660,90
191,61	1660,90
191,84	1693,67
192,06	1697,77
192,28	1662,95
192,50	1837,03
192,72	1667,05
192,94	1691,62
193,16	1695,72
193,38	1726,44
193,60	1681,38
193,82	1667,05
194,04	1732,58
194,26	1748,97
194,48	1753,06
194,70	1699,81
194,92	1679,33
195,14	1703,91
195,36	1654,76
195,58	1755,11
195,80	1748,97
196,02	1675,24
196,24	1677,29
196,46	1828,84
196,69	1726,44
196,91	1890,28
197,13	1746,92
197,35	1716,20
197,57	1728,49
197,79	1769,44
198,01	1667,05
198,23	1734,63
198,45	1695,72
198,67	1763,30
198,89	1648,61
199,11	1667,05
199,33	1654,76
199,55	1585,13
199,77	1665,00
199,99	1777,64
200,21	1675,24
200,43	1665,00
200,65	1630,18
200,87	1533,93
201,09	1705,96
201,31	1673,19
201,53	1699,81
201,75	1714,15
201,97	1724,39
202,19	1759,21
202,41	1732,58
202,63	1830,88
202,85	1769,44
203,07	1714,15
203,29	1624,04
203,51	1624,04
203,73	1785,83
203,95	1927,14
204,17	1660,90
204,39	1759,21
204,61	1650,66
204,83	1689,57
205,05	1814,50
205,27	1677,29
205,49	1837,03
205,71	1699,81
205,93	1687,53
206,15	1654,76
206,37	1683,43
206,59	1630,18
206,81	1603,56
207,03	1656,81
207,25	1642,47
207,47	1769,44
207,69	1677,29
207,91	1777,64
208,13	1826,79
208,34	1681,38
208,56	1685,48
208,78	1779,68
209,00	1673,19
209,22	1677,29
209,44	1722,34
209,66	1632,23
209,88	1710,05
210,10	1646,57
210,32	1685,48
210,54	1712,10
210,76	1755,11
210,98	1755,11
211,20	1595,37
211,42	1683,43
211,64	1779,68
211,86	1716,20
212,08	1779,68
212,30	1703,91
212,52	1646,57
212,74	1763,30
212,96	1693,67
213,17	1791,97
213,39	1759,21
213,61	1781,73
213,83	1658,85
214,05	1681,38
214,27	1789,92
214,49	1746,92
214,71	1683,43
214,93	1798,12
215,15	1804,26
215,37	1812,45
215,59	1675,24
215,81	1755,11
216,03	1796,07
216,24	1691,62
216,46	1701,86
216,68	1708,01
216,90	1738,73
217,12	1773,54
217,34	1783,78
217,56	1677,29
217,78	1769,44
218,00	1728,49
218,22	1755,11
218,44	1699,81
218,66	1675,24
218,87	1816,55
219,09	1718,25
219,31	1757,16
219,53	1716,20
219,75	1632,23
219,97	1734,63
220,19	1708,01
220,41	1726,44
220,63	1849,32
220,85	1802,21
221,06	1730,53
221,28	1810,40
221,50	1822,69
221,72	1697,77
221,94	1642,47
222,16	1665,00
222,38	1796,07
222,60	1732,58
222,82	1693,67
223,03	1740,77
223,25	1628,14
223,47	1841,12
223,69	1875,94
223,91	1769,44
224,13	1710,05
224,35	1665,00
224,57	1724,39
224,78	1730,53
225,00	1667,05
225,22	1742,82
225,44	1761,25
225,66	1806,31
225,88	1669,09
226,10	1755,11
226,32	1654,76
226,53	1746,92
226,75	1689,57
226,97	1771,49
227,19	1675,24
227,41	1699,81
227,63	1714,15
227,85	1630,18
228,06	1712,10
228,28	1681,38
228,50	1726,44
228,72	1716,20
228,94	1703,91
229,16	1644,52
229,37	1624,04
229,59	1689,57
229,81	1781,73
230,03	1691,62
230,25	1654,76
230,47	1613,80
230,69	1615,85
230,90	1767,40
231,12	1644,52
231,34	1689,57
231,56	1746,92
231,78	1699,81
232,00	1656,81
232,21	1652,71
232,43	1636,33
232,65	1603,56
232,87	1691,62
233,09	1660,90
233,30	1626,09
233,52	1804,26
233,74	1718,25
233,96	1722,34
234,18	1703,91
234,40	1687,53
234,61	1763,30
234,83	1689,57
235,05	1644,52
235,27	1810,40
235,49	1802,21
235,70	1673,19
235,92	1753,06
236,14	1744,87
236,36	1843,17
236,58	1658,85
236,79	1777,64
237,01	1665,00
237,23	1691,62
237,45	1814,50
237,67	1712,10
237,88	1748,97
238,10	1871,84
238,32	1705,96
238,54	1669,09
238,76	1738,73
238,97	1665,00
239,19	1642,47
239,41	1738,73
239,63	1814,50
239,85	1650,66
240,06	1728,49
240,28	1681,38
240,50	1757,16
240,72	1753,06
240,93	1738,73
241,15	1730,53
241,37	1703,91
241,59	1740,77
241,81	1662,95
242,02	1740,77
242,24	1738,73
242,46	1714,15
242,68	1658,85
242,89	1714,15
243,11	1718,25
243,33	1816,55
243,55	1710,05
243,76	1808,36
243,98	1734,63
244,20	1734,63
244,42	1685,48
244,64	1742,82
244,85	1630,18
245,07	1642,47
245,29	1759,21
245,51	1648,61
245,72	1730,53
245,94	1816,55
246,16	1718,25
246,38	1695,72
246,59	1701,86
246,81	1687,53
247,03	1677,29
247,24	1587,18
247,46	1681,38
247,68	1714,15
247,90	1675,24
248,11	1646,57
248,33	1767,40
248,55	1708,01
248,77	1697,77
248,98	1810,40
249,20	1796,07
249,42	1673,19
249,64	1648,61
249,85	1660,90
250,07	1634,28
250,29	1705,96
250,50	1794,02
250,72	1640,42
250,94	1703,91
251,16	1837,03
251,37	1708,01
251,59	1755,11
251,81	1746,92
252,02	1832,93
252,24	1705,96
252,46	1773,54
252,68	1607,66
252,89	1671,14
253,11	1628,14
253,33	1742,82
253,54	1820,64
253,76	1646,57
253,98	1710,05
254,20	1781,73
254,41	1656,81
254,63	1634,28
254,85	1675,24
255,06	1642,47
255,28	1765,35
255,50	1656,81
255,71	1673,19
255,93	1724,39
256,15	1742,82
256,36	1738,73
256,58	1701,86
256,80	1726,44
257,02	1740,77
257,23	1683,43
257,45	1673,19
257,67	1783,78
257,88	1751,01
258,10	1693,67
258,32	1777,64
258,53	1791,97
258,75	1820,64
258,97	1701,86
259,18	1673,19
259,40	1740,77
259,62	1804,26
259,83	1853,41
260,05	1789,92
260,27	1916,90
260,48	1722,34
260,70	1619,94
260,92	1699,81
261,13	1718,25
261,35	1662,95
261,57	1787,88
261,78	1638,38
262,00	1681,38
262,22	1722,34
262,43	1665,00
262,65	1730,53
262,86	1656,81
263,08	1830,88
263,30	1751,01
263,51	1619,94
263,73	1675,24
263,95	1724,39
264,16	1654,76
264,38	1695,72
264,60	1724,39
264,81	1693,67
265,03	1742,82
265,25	1794,02
265,46	1726,44
265,68	1763,30
265,89	1746,92
266,11	1683,43
266,33	1695,72
266,54	1779,68
266,76	1695,72
266,98	1785,83
267,19	1806,31
267,41	1761,25
267,62	1607,66
267,84	1615,85
268,06	1714,15
268,27	1703,91
268,49	1714,15
268,70	1808,36
268,92	1748,97
269,14	1665,00
269,35	1652,71
269,57	1703,91
269,79	1740,77
270,00	1673,19
270,22	1853,41
270,43	1667,05
270,65	1611,75
270,87	1695,72
271,08	1679,33
271,30	1757,16
271,51	1656,81
271,73	1746,92
271,95	1787,88
272,16	1701,86
272,38	1710,05
272,59	1714,15
272,81	1746,92
273,02	1720,29
273,24	1742,82
273,46	1771,49
273,67	1652,71
273,89	1691,62
274,10	1658,85
274,32	1755,11
274,54	1736,68
274,75	1662,95
274,97	1681,38
275,18	1783,78
275,40	1710,05
275,61	1744,87
275,83	1746,92
276,05	1609,70
276,26	1718,25
276,48	1732,58
276,69	1656,81
276,91	1636,33
277,12	1789,92
277,34	1771,49
277,55	1730,53
277,77	1728,49
277,99	1646,57
278,20	1572,84
278,42	1617,90
278,63	1699,81
278,85	1673,19
279,06	1673,19
279,28	1689,57
279,49	1857,51
279,71	1755,11
279,93	1726,44
280,14	1658,85
280,36	1695,72
280,57	1810,40
280,79	1761,25
281,00	1699,81
281,22	1673,19
281,43	1759,21
281,65	1642,47
281,86	1658,85
282,08	1794,02
282,29	1882,08
282,51	1619,94
282,73	1615,85
282,94	1705,96
283,16	1757,16
283,37	1775,59
283,59	1697,77
283,80	1759,21
284,02	1673,19
284,23	1763,30
284,45	1718,25
284,66	1650,66
284,88	1665,00
285,09	1708,01
285,31	1669,09
285,52	1738,73
285,74	1603,56
285,95	1744,87
286,17	1710,05
286,38	1746,92
286,60	1677,29
286,81	1587,18
287,03	1681,38
287,24	1705,96
287,46	1708,01
287,67	1677,29
287,89	1839,08
288,10	1691,62
288,32	1673,19
288,53	1804,26
288,75	1691,62
288,96	1730,53
289,18	1679,33
289,39	1691,62
289,61	1769,44
289,82	1855,46
290,04	1861,60
290,25	1642,47
290,47	1742,82
290,68	1759,21
290,90	1671,14
291,11	1638,38
291,33	1787,88
291,54	1601,51
291,76	1669,09
291,97	1716,20
292,18	1701,86
292,40	1681,38
292,61	1654,76
292,83	1791,97
293,04	1714,15
293,26	1755,11
293,47	1671,14
293,69	1673,19
293,90	1667,05
294,12	1753,06
294,33	1699,81
294,55	1630,18
294,76	1843,17
294,97	1740,77
295,19	1918,95
295,40	1658,85
295,62	1675,24
295,83	1802,21
296,05	1665,00
296,26	1783,78
296,48	1617,90
296,69	1673,19
296,90	1691,62
297,12	1777,64
297,33	1763,30
297,55	1675,24
297,76	1697,77
297,98	1816,55
298,19	1724,39
298,41	1652,71
298,62	1609,70
298,83	1804,26
299,05	1787,88
299,26	1660,90
299,48	1691,62
299,69	1763,30
299,90	1720,29
300,12	1642,47
300,33	1736,68
300,55	1771,49
300,76	1755,11
300,98	1638,38
301,19	1804,26
301,40	1654,76
301,62	1705,96
301,83	1812,45
302,05	1763,30
302,26	1714,15
302,47	1794,02
302,69	1595,37
302,90	1665,00
303,12	1601,51
303,33	1787,88
303,54	1779,68
303,76	1646,57
303,97	1734,63
304,19	1853,41
304,40	1638,38
304,61	1744,87
304,83	1814,50
305,04	1757,16
305,26	1789,92
305,47	1634,28
305,68	1687,53
305,90	1646,57
306,11	1701,86
306,33	1712,10
306,54	1722,34
306,75	1718,25
306,97	1675,24
307,18	1701,86
307,39	1638,38
307,61	1730,53
307,82	1734,63
308,04	1703,91
308,25	1673,19
308,46	1728,49
308,68	1800,16
308,89	1722,34
309,10	1775,59
309,32	1724,39
309,53	1738,73
309,74	1763,30
309,96	1685,48
310,17	1802,21
310,39	1689,57
310,60	1732,58
310,81	1718,25
311,03	1697,77
311,24	1714,15
311,45	1726,44
311,67	1822,69
311,88	1712,10
312,09	1763,30
312,31	1689,57
312,52	1691,62
312,73	1677,29
312,95	1646,57
313,16	1632,23
313,37	1767,40
313,59	1748,97
313,80	1748,97
314,01	1705,96
314,23	1652,71
314,44	1671,14
314,65	1611,75
314,87	1677,29
315,08	1710,05
315,29	1689,57
315,51	1642,47
315,72	1714,15
315,93	1800,16
316,15	1710,05
316,36	1681,38
316,57	1691,62
316,79	1771,49
317,00	1740,77
317,21	1728,49
317,43	1658,85
317,64	1771,49
317,85	1740,77
318,07	1658,85
318,28	1816,55
318,49	1781,73
318,70	1900,52
318,92	1785,83
319,13	1796,07
319,34	1898,47
319,56	1841,12
319,77	1820,64
319,98	1830,88
320,20	1757,16
320,41	1730,53
320,62	1722,34
320,83	1679,33
321,05	1767,40
321,26	1751,01
321,47	1679,33
321,69	1740,77
321,90	1675,24
322,11	1691,62
322,32	1716,20
322,54	1789,92
322,75	1730,53
322,96	1757,16
323,18	1611,75
323,39	1517,54
323,60	1644,52
323,81	1830,88
324,03	1662,95
324,24	1685,48
324,45	1710,05
324,66	1689,57
324,88	1794,02
325,09	1720,29
325,30	1683,43
325,52	1796,07
325,73	1722,34
325,94	1734,63
326,15	1566,70
326,37	1660,90
326,58	1720,29
326,79	1828,84
327,00	1609,70
327,22	1718,25
327,43	1703,91
327,64	1699,81
327,85	1740,77
328,07	1714,15
328,28	1810,40
328,49	1683,43
328,70	1712,10
328,92	1734,63
329,13	1644,52
329,34	1748,97
329,55	1767,40
329,76	1724,39
329,98	1695,72
330,19	1716,20
330,40	1710,05
330,61	1718,25
330,83	1697,77
331,04	1656,81
331,25	1769,44
331,46	1609,70
331,68	1617,90
331,89	1777,64
332,10	1740,77
332,31	1744,87
332,52	1683,43
332,74	1789,92
332,95	1665,00
333,16	1710,05
333,37	1732,58
333,58	1712,10
333,80	1748,97
334,01	1687,53
334,22	1679,33
334,43	1673,19
334,64	1638,38
334,86	1638,38
335,07	1667,05
335,28	1781,73
335,49	1599,46
335,70	1773,54
335,92	1804,26
336,13	1763,30
336,34	1681,38
336,55	1744,87
336,76	1689,57
336,98	1677,29
337,19	1613,80
337,40	1830,88
337,61	1771,49
337,82	1646,57
338,04	1800,16
338,25	1642,47
338,46	1724,39
338,67	1632,23
338,88	1648,61
339,09	1673,19
339,31	1605,61
339,52	1624,04
339,73	1626,09
339,94	1751,01
340,15	1769,44
340,36	1718,25
340,58	1781,73
340,79	1638,38
341,00	1757,16
341,21	1652,71
341,42	1839,08
341,63	1714,15
341,85	1685,48
342,06	1679,33
342,27	1632,23
342,48	1767,40
342,69	1605,61
342,90	1701,86
343,12	1738,73
343,33	1722,34
343,54	1759,21
343,75	1791,97
343,96	1667,05
344,17	1701,86
344,38	1730,53
344,60	1644,52
344,81	1722,34
345,02	1738,73
345,23	1763,30
345,44	1765,35
345,65	1726,44
345,86	1738,73
346,07	1689,57
346,29	1607,66
346,50	1806,31
346,71	1685,48
346,92	1761,25
347,13	1767,40
347,34	1769,44
347,55	1617,90
347,76	1738,73
347,98	1626,09
348,19	1628,14
348,40	1781,73
348,61	1722,34
348,82	1814,50
349,03	1759,21
349,24	1675,24
349,45	1767,40
349,66	1583,08
349,88	1679,33
350,09	1708,01
350,30	1734,63
350,51	1712,10
350,72	1708,01
350,93	1701,86
351,14	1669,09
351,35	1777,64
351,56	1763,30
351,77	1656,81
351,99	1669,09
352,20	1880,04
352,41	1824,74
352,62	1642,47
352,83	1718,25
353,04	1742,82
353,25	1640,42
353,46	1732,58
353,67	1773,54
353,88	1525,74
354,09	1710,05
354,30	1673,19
354,52	1689,57
354,73	1710,05
354,94	1609,70
355,15	1714,15
355,36	1787,88
355,57	1695,72
355,78	1777,64
355,99	1601,51
356,20	1628,14
356,41	1787,88
356,62	1773,54
356,83	1746,92
357,04	1779,68
357,25	1669,09
357,46	1660,90
357,68	1689,57
357,89	1636,33
358,10	1730,53
358,31	1642,47
358,52	1685,48
358,73	1646,57
358,94	1710,05
359,15	1732,58
359,36	1746,92
359,57	1693,67
359,78	1757,16
359,99	1681,38
360,20	1621,99
360,41	1673,19
360,62	1765,35
360,83	1753,06
361,04	1732,58
361,25	1728,49
361,46	1820,64
361,67	1687,53
361,88	1785,83
362,09	1798,12
362,30	1769,44
362,51	1710,05
362,72	1697,77
362,93	1779,68
363,14	1769,44
363,35	1628,14
363,56	1642,47
363,78	1734,63
363,99	1789,92
364,20	1669,09
364,41	1810,40
364,62	1802,21
364,83	1763,30
365,04	1660,90
365,25	1751,01
365,46	1847,27
365,67	1656,81
365,88	1671,14
366,09	1671,14
366,30	1630,18
366,51	1767,40
366,72	1626,09
366,93	1751,01
367,14	1755,11
367,35	1789,92
367,56	1675,24
367,77	1771,49
367,98	1699,81
368,18	1695,72
368,39	1738,73
368,60	1656,81
368,81	1720,29
369,02	1755,11
369,23	1767,40
369,44	1652,71
369,65	1720,29
369,86	1728,49
370,07	1802,21
370,28	1671,14
370,49	1740,77
370,70	1656,81
370,91	1572,84
371,12	1642,47
371,33	1746,92
371,54	1662,95
371,75	1837,03
371,96	1654,76
372,17	1673,19
372,38	1705,96
372,59	1701,86
372,80	1669,09
373,01	1658,85
373,22	1624,04
373,43	1701,86
373,64	1644,52
373,85	1808,36
374,06	1820,64
374,26	1712,10
374,47	1669,09
374,68	1775,59
374,89	1759,21
375,10	1689,57
375,31	1740,77
375,52	1740,77
375,73	1806,31
375,94	1626,09
376,15	1787,88
376,36	1677,29
376,57	1685,48
376,78	1710,05
376,99	1683,43
377,20	1734,63
377,40	1660,90
377,61	1800,16
377,82	1638,38
378,03	1779,68
378,24	1757,16
378,45	1746,92
378,66	1755,11
378,87	1650,66
379,08	1581,03
379,29	1703,91
379,50	1826,79
379,71	1738,73
379,91	1759,21
380,12	1714,15
380,33	1748,97
380,54	1722,34
380,75	1722,34
380,96	1703,91
381,17	1748,97
381,38	1753,06
381,59	1667,05
381,80	1738,73
382,00	1863,65
382,21	1728,49
382,42	1853,41
382,63	1828,84
382,84	1761,25
383,05	1800,16
383,26	1859,56
383,47	1726,44
383,68	1705,96
383,88	1738,73
384,09	1732,58
384,30	1820,64
384,51	1767,40
384,72	1699,81
384,93	1671,14
385,14	1656,81
385,35	1734,63
385,55	1638,38
385,76	1861,60
385,97	1748,97
386,18	1691,62
386,39	1695,72
386,60	1714,15
386,81	1753,06
387,02	1662,95
387,22	1679,33
387,43	1814,50
387,64	1773,54
387,85	1890,28
388,06	2248,67
388,27	4247,49
388,48	6844,31
388,68	8185,73
388,89	9514,86
389,10	9916,26
389,31	8589,18
389,52	7729,03
389,73	6594,46
389,93	6238,11
390,14	5812,14
390,35	5179,31
390,56	4634,55
390,77	3819,46
390,98	3102,67
391,18	2408,41
391,39	2168,80
391,60	1757,16
391,81	1873,89
392,02	1736,68
392,23	1841,12
392,43	1746,92
392,64	1828,84
392,85	1761,25
393,06	1796,07
393,27	1779,68
393,47	1687,53
393,68	1755,11
393,89	1667,05
394,10	1802,21
394,31	1654,76
394,52	1624,04
394,72	1751,01
394,93	1726,44
395,14	1660,90
395,35	1820,64
395,56	1689,57
395,76	1777,64
395,97	1751,01
396,18	1714,15
396,39	1841,12
396,60	2072,54
396,80	1888,23
397,01	1898,47
397,22	1800,16
397,43	1800,16
397,64	1767,40
397,84	1820,64
398,05	1890,28
398,26	1769,44
398,47	1806,31
398,67	1783,78
398,88	1757,16
399,09	1697,77
399,30	1755,11
399,51	1851,36
399,71	1673,19
399,92	1671,14
400,13	1751,01
400,34	1759,21
400,54	1751,01
400,75	1834,98
400,96	1710,05
401,17	1794,02
401,37	1753,06
401,58	1701,86
401,79	1716,20
402,00	1857,51
402,21	2015,20
402,41	1984,48
402,62	2056,16
402,83	2009,06
403,04	1945,57
403,24	2017,25
403,45	1800,16
403,66	1890,28
403,87	1894,37
404,07	1828,84
404,28	1896,42
404,49	1990,63
404,70	1834,98
404,90	1765,35
405,11	1777,64
405,32	1728,49
405,52	1718,25
405,73	1687,53
405,94	1720,29
406,15	1716,20
406,35	1738,73
406,56	1753,06
406,77	1769,44
406,98	1816,55
407,18	1638,38
407,39	1785,83
407,60	1712,10
407,80	1767,40
408,01	1642,47
408,22	1689,57
408,43	1650,66
408,63	1740,77
408,84	1755,11
409,05	1724,39
409,25	1679,33
409,46	1771,49
409,67	1730,53
409,88	1665,00
410,08	1777,64
410,29	1675,24
410,50	1771,49
410,70	1667,05
410,91	1710,05
411,12	1736,68
411,32	1712,10
411,53	1720,29
411,74	1789,92
411,95	1765,35
412,15	1806,31
412,36	1701,86
412,57	1861,60
412,77	1816,55
412,98	1738,73
413,19	1681,38
413,39	1730,53
413,60	1718,25
413,81	1806,31
414,01	1621,99
414,22	1789,92
414,43	1726,44
414,63	1660,90
414,84	1781,73
415,05	1712,10
415,25	1626,09
415,46	1767,40
415,67	1626,09
415,87	1740,77
416,08	1748,97
416,29	1773,54
416,49	1644,52
416,70	1603,56
416,91	1685,48
417,11	1652,71
417,32	1701,86
417,53	1640,42
417,73	1726,44
417,94	1744,87
418,15	1687,53
418,35	1691,62
418,56	1695,72
418,77	1853,41
418,97	1773,54
419,18	1728,49
419,38	1570,79
419,59	1751,01
419,80	1751,01
420,00	1728,49
420,21	1705,96
420,42	1753,06
420,62	1677,29
420,83	1683,43
421,04	1716,20
421,24	1650,66
421,45	1738,73
421,65	1732,58
421,86	1748,97
422,07	1714,15
422,27	1779,68
422,48	1705,96
422,69	1667,05
422,89	1701,86
423,10	1708,01
423,30	1697,77
423,51	1787,88
423,72	1714,15
423,92	1751,01
424,13	1628,14
424,33	1742,82
424,54	1771,49
424,75	1714,15
424,95	1785,83
425,16	1693,67
425,36	1669,09
425,57	1779,68
425,78	1759,21
425,98	1777,64
426,19	1730,53
426,39	1675,24
426,60	1734,63
426,81	1822,69
427,01	1730,53
427,22	1710,05
427,42	1675,24
427,63	1683,43
427,83	1720,29
428,04	1787,88
428,25	1794,02
428,45	1765,35
428,66	1798,12
428,86	1703,91
429,07	1701,86
429,28	1673,19
429,48	1681,38
429,69	1628,14
429,89	1751,01
430,10	1634,28
430,30	1728,49
430,51	1748,97
430,71	1595,37
430,92	1710,05
431,13	1644,52
431,33	1761,25
431,54	1681,38
431,74	1791,97
431,95	1867,75
432,15	1634,28
432,36	1732,58
432,56	1740,77
432,77	1806,31
432,98	1837,03
433,18	1798,12
433,39	1720,29
433,59	1771,49
433,80	1759,21
434,00	1736,68
434,21	1656,81
434,41	1646,57
434,62	1837,03
434,82	1705,96
435,03	1722,34
435,23	1757,16
435,44	1634,28
435,64	1767,40
435,85	1753,06
436,06	1746,92
436,26	1757,16
436,47	1705,96
436,67	1701,86
436,88	1662,95
437,08	1730,53
437,29	1826,79
437,49	1753,06
437,70	1834,98
437,90	1681,38
438,11	1843,17
438,31	1812,45
438,52	1873,89
438,72	1902,56
438,93	1912,80
439,13	1779,68
439,34	1843,17
439,54	1767,40
439,75	1822,69
439,95	1824,74
440,16	1777,64
440,36	1716,20
440,57	1800,16
440,77	1839,08
440,98	1798,12
441,18	1808,36
441,39	1710,05
441,59	1714,15
441,80	1763,30
442,00	1658,85
442,21	1841,12
442,41	1568,74
442,62	1742,82
442,82	1705,96
443,02	1773,54
443,23	1777,64
443,43	1693,67
443,64	1824,74
443,84	1617,90
444,05	1837,03
444,25	1759,21
444,46	1736,68
444,66	1746,92
444,87	1804,26
445,07	1636,33
445,28	1763,30
445,48	1863,65
445,69	1781,73
445,89	1880,04
446,09	1751,01
446,30	2054,11
446,50	2719,70
446,71	3741,64
446,91	4198,34
447,12	4655,03
447,32	4847,54
447,53	4425,66
447,73	3819,46
447,93	3559,37
448,14	3348,43
448,34	3256,27
448,55	2838,48
448,75	2858,96
448,96	2736,09
449,16	2385,88
449,36	2328,54
449,57	2088,93
449,77	1873,89
449,98	1781,73
450,18	1834,98
450,39	1826,79
450,59	1816,55
450,79	1773,54
451,00	1751,01
451,20	1843,17
451,41	1787,88
451,61	1816,55
451,81	1759,21
452,02	1685,48
452,22	1771,49
452,43	1777,64
452,63	1671,14
452,84	1773,54
453,04	1705,96
453,24	1787,88
453,45	1705,96
453,65	1716,20
453,86	1751,01
454,06	1759,21
454,26	1728,49
454,47	1687,53
454,67	1818,60
454,87	1767,40
455,08	1755,11
455,28	1859,56
455,49	1775,59
455,69	1656,81
455,89	1861,60
456,10	1804,26
456,30	1714,15
456,51	1771,49
456,71	1812,45
456,91	1822,69
457,12	1673,19
457,32	1773,54
457,52	1650,66
457,73	1810,40
457,93	1861,60
458,14	1736,68
458,34	1712,10
458,54	1660,90
458,75	1783,78
458,95	1867,75
459,15	1810,40
459,36	1712,10
459,56	1832,93
459,76	1849,32
459,97	1724,39
460,17	1812,45
460,37	1832,93
460,58	1689,57
460,78	1816,55
460,99	1691,62
461,19	1736,68
461,39	1681,38
461,60	1777,64
461,80	1779,68
462,00	1679,33
462,21	1710,05
462,41	1699,81
462,61	1669,09
462,82	1710,05
463,02	1855,46
463,22	1710,05
463,43	1837,03
463,63	1730,53
463,83	1777,64
464,04	1755,11
464,24	1802,21
464,44	1685,48
464,64	1710,05
464,85	1787,88
465,05	1714,15
465,25	1681,38
465,46	1687,53
465,66	1789,92
465,86	1804,26
466,07	1751,01
466,27	1708,01
466,47	1634,28
466,68	1708,01
466,88	1814,50
467,08	1800,16
467,29	1746,92
467,49	1714,15
467,69	1771,49
467,89	1773,54
468,10	1806,31
468,30	1798,12
468,50	1845,22
468,71	1804,26
468,91	1624,04
469,11	1828,84
469,31	1765,35
469,52	1652,71
469,72	1802,21
469,92	1810,40
470,13	1732,58
470,33	1746,92
470,53	1877,99
470,73	2113,50
470,94	2230,24
471,14	2295,77
471,34	2469,85
471,54	2435,03
471,75	2271,20
471,95	2058,21
472,15	2088,93
472,36	2121,70
472,56	2000,87
472,76	1984,48
472,96	2060,26
473,17	2007,01
473,37	1941,47
473,57	1824,74
473,77	1767,40
473,98	1757,16
474,18	1730,53
474,38	1877,99
474,58	1736,68
474,79	1724,39
474,99	1742,82
475,19	1730,53
475,39	1746,92
475,60	1744,87
475,80	1732,58
476,00	1826,79
476,20	1658,85
476,41	1714,15
476,61	1816,55
476,81	1804,26
477,01	1644,52
477,21	1851,36
477,42	1857,51
477,62	1708,01
477,82	1771,49
478,02	1658,85
478,23	1748,97
478,43	1722,34
478,63	1732,58
478,83	1701,86
479,03	1689,57
479,24	1814,50
479,44	1812,45
479,64	1753,06
479,84	1656,81
480,04	1714,15
480,25	1802,21
480,45	1621,99
480,65	1716,20
480,85	1785,83
481,06	1697,77
481,26	1687,53
481,46	1804,26
481,66	1787,88
481,86	1697,77
482,06	1773,54
482,27	1705,96
482,47	1685,48
482,67	1751,01
482,87	1763,30
483,07	1769,44
483,28	1626,09
483,48	1691,62
483,68	1695,72
483,88	1744,87
484,08	1638,38
484,29	1681,38
484,49	1683,43
484,69	1679,33
484,89	1800,16
485,09	1726,44
485,29	1728,49
485,50	1800,16
485,70	1726,44
485,90	1798,12
486,10	1691,62
486,30	1763,30
486,50	1830,88
486,71	1673,19
486,91	1800,16
487,11	1861,60
487,31	1636,33
487,51	1771,49
487,71	1658,85
487,91	1697,77
488,12	1736,68
488,32	1591,27
488,52	1695,72
488,72	1607,66
488,92	1740,77
489,12	1828,84
489,32	1765,35
489,53	1802,21
489,73	1708,01
489,93	1861,60
490,13	1759,21
490,33	1589,22
490,53	1748,97
490,73	1804,26
490,94	1644,52
491,14	1843,17
491,34	1855,46
491,54	2052,06
491,74	2555,86
491,94	2899,92
492,14	3020,75
492,34	2918,36
492,54	2803,67
492,75	2490,33
492,95	2490,33
493,15	2392,03
493,35	2324,44
493,55	2191,33
493,75	2097,12
493,95	2162,66
494,15	2029,54
494,35	1871,84
494,56	1890,28
494,76	1845,22
494,96	1843,17
495,16	1787,88
495,36	1765,35
495,56	1689,57
495,76	1806,31
495,96	1693,67
496,16	1667,05
496,36	1806,31
496,56	1767,40
496,77	1777,64
496,97	1679,33
497,17	1779,68
497,37	1697,77
497,57	1781,73
497,77	1779,68
497,97	1738,73
498,17	1738,73
498,37	1763,30
498,57	1785,83
498,77	1646,57
498,97	1769,44
499,17	1820,64
499,38	1687,53
499,58	1843,17
499,78	1787,88
499,98	1828,84
500,18	1705,96
500,38	1681,38
500,58	1875,94
500,78	2541,53
500,98	4474,81
501,18	6006,69
501,38	6791,06
501,58	7053,20
501,78	6842,26
501,98	5640,11
502,18	4966,32
502,38	4431,80
502,58	4163,52
502,78	3801,03
502,98	3704,78
503,18	3413,96
503,38	3223,50
503,59	2783,19
503,79	2729,94
503,99	2480,09
504,19	2295,77
504,39	2148,32
504,59	2205,66
504,79	2082,78
504,99	2052,06
505,19	1957,86
505,39	1890,28
505,59	1923,04
505,79	1818,60
505,99	1882,08
506,19	1796,07
506,39	1888,23
506,59	1697,77
506,79	1804,26
506,99	1853,41
507,19	1779,68
507,39	1808,36
507,59	1746,92
507,79	1667,05
507,99	1710,05
508,19	1740,77
508,39	1730,53
508,59	1787,88
508,79	1769,44
508,99	1804,26
509,19	1730,53
509,39	1767,40
509,59	1718,25
509,79	1732,58
509,99	1796,07
510,19	1769,44
510,39	1777,64
510,59	1740,77
510,79	1662,95
510,99	1683,43
511,19	1691,62
511,39	1810,40
511,59	1869,80
511,79	1736,68
511,99	1714,15
512,19	1849,32
512,38	1718,25
512,58	1787,88
512,78	1710,05
512,98	1822,69
513,18	1732,58
513,38	1656,81
513,58	1837,03
513,78	1677,29
513,98	1681,38
514,18	1677,29
514,38	1767,40
514,58	1800,16
514,78	1736,68
514,98	1744,87
515,18	1691,62
515,38	1705,96
515,58	1845,22
515,78	1734,63
515,98	1740,77
516,18	1673,19
516,38	1718,25
516,57	1734,63
516,77	1746,92
516,97	1779,68
517,17	1697,77
517,37	1652,71
517,57	1728,49
517,77	1718,25
517,97	1740,77
518,17	1779,68
518,37	1703,91
518,57	1697,77
518,77	1724,39
518,97	1785,83
519,16	1773,54
519,36	1759,21
519,56	1810,40
519,76	1728,49
519,96	1695,72
520,16	1859,56
520,36	1748,97
520,56	1775,59
520,76	1660,90
520,96	1724,39
521,16	1769,44
521,35	1765,35
521,55	1834,98
521,75	1695,72
521,95	1673,19
522,15	1746,92
522,35	1710,05
522,55	1767,40
522,75	1738,73
522,95	1759,21
523,14	1730,53
523,34	1800,16
523,54	1697,77
523,74	1757,16
523,94	1740,77
524,14	1740,77
524,34	1769,44
524,54	1783,78
524,73	1708,01
524,93	1775,59
525,13	1722,34
525,33	1695,72
525,53	1957,86
525,73	1748,97
525,93	1738,73
526,13	1660,90
526,32	1779,68
526,52	1742,82
526,72	1783,78
526,92	1660,90
527,12	1705,96
527,32	1697,77
527,52	1755,11
527,71	1861,60
527,91	1722,34
528,11	1779,68
528,31	1681,38
528,51	1695,72
528,71	1826,79
528,90	1820,64
529,10	1689,57
529,30	1853,41
529,50	1542,12
529,70	1726,44
529,90	1736,68
530,09	1789,92
530,29	1777,64
530,49	1681,38
530,69	1898,47
530,89	1765,35
531,09	1773,54
531,28	1677,29
531,48	1775,59
531,68	1779,68
531,88	1658,85
532,08	1808,36
532,28	1699,81
532,47	1710,05
532,67	1808,36
532,87	1716,20
533,07	1742,82
533,27	1800,16
533,46	1726,44
533,66	1712,10
533,86	1734,63
534,06	1726,44
534,26	1791,97
534,45	1728,49
534,65	1837,03
534,85	1794,02
535,05	1705,96
535,25	1804,26
535,44	1593,32
535,64	1763,30
535,84	1701,86
536,04	1744,87
536,24	1681,38
536,43	1662,95
536,63	1730,53
536,83	1789,92
537,03	1773,54
537,22	1638,38
537,42	1642,47
537,62	1748,97
537,82	1701,86
538,02	1789,92
538,21	1804,26
538,41	1927,14
538,61	1755,11
538,81	1773,54
539,00	1796,07
539,20	1753,06
539,40	1753,06
539,60	1708,01
539,79	1841,12
539,99	1763,30
540,19	1730,53
540,39	1714,15
540,58	1783,78
540,78	1834,98
540,98	1691,62
541,18	1859,56
541,37	1787,88
541,57	1767,40
541,77	1773,54
541,97	1755,11
542,16	1724,39
542,36	1683,43
542,56	1714,15
542,76	1939,43
542,95	1822,69
543,15	1837,03
543,35	1767,40
543,54	1691,62
543,74	1693,67
543,94	1775,59
544,14	1777,64
544,33	1722,34
544,53	1759,21
544,73	1683,43
544,93	1744,87
545,12	1740,77
545,32	1714,15
545,52	1716,20
545,71	1740,77
545,91	1712,10
546,11	1710,05
546,30	1689,57
546,50	1728,49
546,70	1755,11
546,90	1748,97
547,09	1667,05
547,29	1648,61
547,49	1718,25
547,68	1755,11
547,88	1777,64
548,08	1816,55
548,27	2203,61
548,47	1714,15
548,67	1779,68
548,87	1783,78
549,06	1699,81
549,26	1800,16
549,46	1724,39
549,65	1710,05
549,85	1800,16
550,05	1808,36
550,24	1716,20
550,44	1796,07
550,64	1779,68
550,83	1734,63
551,03	1824,74
551,23	1798,12
551,42	1751,01
551,62	1722,34
551,82	1775,59
552,01	1708,01
552,21	1718,25
552,41	1734,63
552,60	1847,27
552,80	1742,82
553,00	1660,90
553,19	1732,58
553,39	1853,41
553,59	1673,19
553,78	1730,53
553,98	1839,08
554,17	1662,95
554,37	1816,55
554,57	1753,06
554,76	1613,80
554,96	1699,81
555,16	1761,25
555,35	1720,29
555,55	1785,83
555,75	1685,48
555,94	1769,44
556,14	1648,61
556,33	1759,21
556,53	1726,44
556,73	1748,97
556,92	1789,92
557,12	1832,93
557,32	1845,22
557,51	1855,46
557,71	1722,34
557,90	1789,92
558,10	1777,64
558,30	1687,53
558,49	1665,00
558,69	1732,58
558,88	1812,45
559,08	1748,97
559,28	1699,81
559,47	1734,63
559,67	1724,39
559,86	1863,65
560,06	1773,54
560,26	1714,15
560,45	1757,16
560,65	1775,59
560,84	1816,55
561,04	1656,81
561,24	1890,28
561,43	1652,71
561,63	1837,03
561,82	1785,83
562,02	1791,97
562,22	1681,38
562,41	1705,96
562,61	1695,72
562,80	1738,73
563,00	1906,66
563,19	1791,97
563,39	1716,20
563,59	1763,30
563,78	1710,05
563,98	1636,33
564,17	1705,96
564,37	1720,29
564,56	1738,73
564,76	1712,10
564,96	1730,53
565,15	1728,49
565,35	1859,56
565,54	1671,14
565,74	1777,64
565,93	1779,68
566,13	1687,53
566,32	1740,77
566,52	1677,29
566,71	1759,21
566,91	1734,63
567,11	1677,29
567,30	1763,30
567,50	1828,84
567,69	1779,68
567,89	1742,82
568,08	1665,00
568,28	1755,11
568,47	1705,96
568,67	1705,96
568,86	1687,53
569,06	1728,49
569,25	1648,61
569,45	1701,86
569,64	1730,53
569,84	1681,38
570,04	1761,25
570,23	1728,49
570,43	1789,92
570,62	1798,12
570,82	1810,40
571,01	1662,95
571,21	1800,16
571,40	1662,95
571,60	1804,26
571,79	1791,97
571,99	1761,25
572,18	1703,91
572,38	1796,07
572,57	1765,35
572,77	1722,34
572,96	1933,28
573,16	1753,06
573,35	1730,53
573,55	1855,46
573,74	1732,58
573,94	1804,26
574,13	1718,25
574,33	1726,44
574,52	1845,22
574,71	1771,49
574,91	1748,97
575,10	1581,03
575,30	1708,01
575,49	1703,91
575,69	1736,68
575,88	1740,77
576,08	1699,81
576,27	1765,35
576,47	1722,34
576,66	1826,79
576,86	1796,07
577,05	1794,02
577,25	1771,49
577,44	1828,84
577,64	1730,53
577,83	1789,92
578,02	1775,59
578,22	1828,84
578,41	1828,84
578,61	1712,10
578,80	1695,72
579,00	1777,64
579,19	1769,44
579,39	1699,81
579,58	1802,21
579,77	1785,83
579,97	1789,92
580,16	1851,36
580,36	1804,26
580,55	1845,22
580,75	1834,98
580,94	1814,50
581,13	1900,52
581,33	1914,85
581,52	1742,82
581,72	1859,56
581,91	1849,32
582,11	1687,53
582,30	1740,77
582,49	1812,45
582,69	1814,50
582,88	1828,84
583,08	1757,16
583,27	1861,60
583,47	1771,49
583,66	1677,29
583,85	1728,49
584,05	1761,25
584,24	1816,55
584,44	1798,12
584,63	1837,03
584,82	1890,28
585,02	1830,88
585,21	1798,12
585,41	1914,85
585,60	1789,92
585,79	1890,28
585,99	1904,61
586,18	1906,66
586,37	2260,96
586,57	3348,43
586,76	9889,64
586,96	24270,48
587,15	34356,72
587,34	40351,13
587,54	41913,73
587,73	36527,57
587,93	26498,67
588,12	21585,59
588,31	18425,57
588,51	16416,52
588,70	15165,21
588,89	14071,59
589,09	12474,18
589,28	11126,61
589,47	9357,17
589,67	7985,03
589,86	6438,81
590,06	4884,41
590,25	3786,69
590,44	3127,25
590,64	2570,20
590,83	2217,95
591,02	2215,90
591,22	1898,47
591,41	1834,98
591,60	1894,37
591,80	1953,76
591,99	1748,97
592,18	1765,35
592,38	1767,40
592,57	1830,88
592,76	1748,97
592,96	1732,58
593,15	1779,68
593,34	1857,51
593,54	1730,53
593,73	1853,41
593,92	1824,74
594,12	1726,44
594,31	1789,92
594,50	1794,02
594,70	1824,74
594,89	1900,52
595,08	1701,86
595,28	1785,83
595,47	1888,23
595,66	1755,11
595,86	1665,00
596,05	1718,25
596,24	1746,92
596,43	1869,80
596,63	1765,35
596,82	1722,34
597,01	1779,68
597,21	1834,98
597,40	1843,17
597,59	1816,55
597,79	1705,96
597,98	1794,02
598,17	1845,22
598,36	1753,06
598,56	1742,82
598,75	1753,06
598,94	1791,97
599,14	1738,73
599,33	1785,83
599,52	1765,35
599,71	1736,68
599,91	1732,58
600,10	1812,45
600,29	1720,29
600,48	1796,07
600,68	1816,55
600,87	1820,64
601,06	1728,49
601,26	1746,92
601,45	1787,88
601,64	1765,35
601,83	1859,56
602,03	1667,05
602,22	1691,62
602,41	1814,50
602,60	1869,80
602,80	1783,78
602,99	1820,64
603,18	1740,77
603,37	1755,11
603,57	1779,68
603,76	1775,59
603,95	1806,31
604,14	1746,92
604,34	1677,29
604,53	1730,53
604,72	1726,44
604,91	1794,02
605,10	1769,44
605,30	1693,67
605,49	1916,90
605,68	1820,64
605,87	1779,68
606,07	1701,86
606,26	1718,25
606,45	1765,35
606,64	1753,06
606,84	1732,58
607,03	1665,00
607,22	1767,40
607,41	1675,24
607,60	1789,92
607,80	1798,12
607,99	1734,63
608,18	1705,96
608,37	1834,98
608,56	1617,90
608,76	1796,07
608,95	1791,97
609,14	1812,45
609,33	1751,01
609,52	1794,02
609,72	1699,81
609,91	1800,16
610,10	1724,39
610,29	1796,07
610,48	1748,97
610,68	1796,07
610,87	1755,11
611,06	1779,68
611,25	1753,06
611,44	1818,60
611,63	1726,44
611,83	1863,65
612,02	1693,67
612,21	1771,49
612,40	1617,90
612,59	1677,29
612,79	1638,38
612,98	1675,24
613,17	1888,23
613,36	1724,39
613,55	1837,03
613,74	1777,64
613,93	1710,05
614,13	1742,82
614,32	1791,97
614,51	1726,44
614,70	1746,92
614,89	1720,29
615,08	1751,01
615,28	2084,83
615,47	1728,49
615,66	1708,01
615,85	1746,92
616,04	1843,17
616,23	1759,21
616,42	1746,92
616,62	1757,16
616,81	1736,68
617,00	1730,53
617,19	1769,44
617,38	1712,10
617,57	1742,82
617,76	1763,30
617,95	1759,21
618,15	1771,49
618,34	1748,97
618,53	1722,34
618,72	1812,45
618,91	1755,11
619,10	1880,04
619,29	1703,91
619,48	1722,34
619,68	1753,06
619,87	1730,53
620,06	1652,71
620,25	1726,44
620,44	1654,76
620,63	1738,73
620,82	1755,11
621,01	1742,82
621,20	1761,25
621,39	1779,68
621,59	1777,64
621,78	1708,01
621,97	1751,01
622,16	1824,74
622,35	1794,02
622,54	1806,31
622,73	1826,79
622,92	1615,85
623,11	1730,53
623,30	1687,53
623,49	1720,29
623,68	1681,38
623,88	1718,25
624,07	1671,14
624,26	1714,15
624,45	1802,21
624,64	1720,29
624,83	1673,19
625,02	1695,72
625,21	1742,82
625,40	1742,82
625,59	1794,02
625,78	1791,97
625,97	1791,97
626,16	1796,07
626,35	1699,81
626,54	1736,68
626,74	1824,74
626,93	1689,57
627,12	1716,20
627,31	1806,31
627,50	1742,82
627,69	1740,77
627,88	1730,53
628,07	1705,96
628,26	1566,70
628,45	1685,48
628,64	1687,53
628,83	1679,33
629,02	1685,48
629,21	1724,39
629,40	1767,40
629,59	1603,56
629,78	1775,59
629,97	1730,53
630,16	1779,68
630,35	1730,53
630,54	1722,34
630,73	1669,09
630,92	1724,39
631,11	1640,42
631,30	1722,34
631,49	1826,79
631,68	1677,29
631,87	1818,60
632,06	1611,75
632,25	1845,22
632,44	1683,43
632,63	1712,10
632,82	1673,19
633,01	1693,67
633,20	1748,97
633,39	1665,00
633,58	1656,81
633,77	1710,05
633,96	1789,92
634,15	1777,64
634,34	1691,62
634,53	1742,82
634,72	1714,15
634,91	1660,90
635,10	1701,86
635,29	1841,12
635,48	1685,48
635,67	1724,39
635,86	1669,09
636,05	1744,87
636,24	1701,86
636,43	1671,14
636,62	1705,96
636,81	1585,13
637,00	1705,96
637,19	1712,10
637,38	1734,63
637,57	1691,62
637,76	1751,01
637,95	1761,25
638,14	1687,53
638,33	1693,67
638,52	1748,97
638,71	1638,38
638,89	1701,86
639,08	1867,75
639,27	1789,92
639,46	1689,57
639,65	1740,77
639,84	1808,36
640,03	1794,02
640,22	1642,47
640,41	1869,80
640,60	1677,29
640,79	1708,01
640,98	1705,96
641,17	1724,39
641,36	1779,68
641,55	1837,03
641,74	1642,47
641,92	1656,81
642,11	1712,10
642,30	1675,24
642,49	1624,04
642,68	1708,01
642,87	1781,73
643,06	1755,11
643,25	1671,14
643,44	1665,00
643,63	1759,21
643,82	1867,75
644,00	1660,90
644,19	1736,68
644,38	1691,62
644,57	1740,77
644,76	1748,97
644,95	1769,44
645,14	1777,64
645,33	1734,63
645,52	1765,35
645,71	1597,42
645,89	1619,94
646,08	1652,71
646,27	1763,30
646,46	1837,03
646,65	1685,48
646,84	1691,62
647,03	1718,25
647,22	1740,77
647,40	1695,72
647,59	1685,48
647,78	1642,47
647,97	1718,25
648,16	1689,57
648,35	1847,27
648,54	1740,77
648,73	1681,38
648,91	1816,55
649,10	1734,63
649,29	1566,70
649,48	1726,44
649,67	1800,16
649,86	1701,86
650,05	1742,82
650,23	1810,40
650,42	1630,18
650,61	1779,68
650,80	1734,63
650,99	1904,61
651,18	1738,73
651,36	1789,92
651,55	1685,48
651,74	1800,16
651,93	1710,05
652,12	1695,72
652,31	1791,97
652,49	1628,14
652,68	1640,42
652,87	1759,21
653,06	1708,01
653,25	1757,16
653,44	1751,01
653,62	1834,98
653,81	1775,59
654,00	1648,61
654,19	1683,43
654,38	1916,90
654,56	1783,78
654,75	1673,19
654,94	1834,98
655,13	1787,88
655,32	1675,24
655,51	1779,68
655,69	1722,34
655,88	1771,49
656,07	1699,81
656,26	1789,92
656,45	1550,31
656,63	1675,24
656,82	1800,16
657,01	1736,68
657,20	1712,10
657,38	1820,64
657,57	1748,97
657,76	1646,57
657,95	1861,60
658,14	1742,82
658,32	1689,57
658,51	1681,38
658,70	1738,73
658,89	1697,77
659,08	1759,21
659,26	1869,80
659,45	1693,67
659,64	1755,11
659,83	1748,97
660,01	1955,81
660,20	1662,95
660,39	1841,12
660,58	1632,23
660,76	1656,81
660,95	1701,86
661,14	1681,38
661,33	1632,23
661,51	1787,88
661,70	1693,67
661,89	1738,73
662,08	1751,01
662,26	1722,34
662,45	1693,67
662,64	1746,92
662,83	1716,20
663,01	1710,05
663,20	1705,96
663,39	1757,16
663,58	1742,82
663,76	1675,24
663,95	1720,29
664,14	1665,00
664,32	1681,38
664,51	1654,76
664,70	1621,99
664,89	1806,31
665,07	1697,77
665,26	1771,49
665,45	1695,72
665,64	1798,12
665,82	1691,62
666,01	1757,16
666,20	1621,99
666,38	1771,49
666,57	1820,64
666,76	2258,91
666,95	4560,83
667,13	10321,76
667,32	15370,01
667,51	17876,72
667,69	19091,16
667,88	18106,09
668,07	12459,84
668,25	9619,31
668,44	8048,52
668,63	7395,22
668,81	6776,73
669,00	6240,16
669,19	5787,56
669,38	5046,20
669,56	4454,33
669,75	4050,88
669,94	3477,45
670,12	2930,64
670,31	2613,21
670,50	2254,81
670,68	2123,74
670,87	1923,04
671,06	1806,31
671,24	1849,32
671,43	1826,79
671,62	1753,06
671,80	1683,43
671,99	1744,87
672,18	1746,92
672,36	1783,78
672,55	1816,55
672,74	1671,14
672,92	1742,82
673,11	1789,92
673,29	1677,29
673,48	1708,01
673,67	1712,10
673,85	1740,77
674,04	1638,38
674,23	1689,57
674,41	1794,02
674,60	1595,37
674,79	1708,01
674,97	1671,14
675,16	1806,31
675,34	1763,30
675,53	1599,46
675,72	1769,44
675,90	1794,02
676,09	1665,00
676,28	1687,53
676,46	1626,09
676,65	1753,06
676,83	1660,90
677,02	1636,33
677,21	1714,15
677,39	1736,68
677,58	1609,70
677,77	1763,30
677,95	1658,85
678,14	1753,06
678,32	1705,96
678,51	1730,53
678,70	1843,17
678,88	1695,72
679,07	1814,50
679,25	1710,05
679,44	1738,73
679,63	1701,86
679,81	1746,92
680,00	1785,83
680,18	1773,54
680,37	1765,35
680,55	1609,70
680,74	1673,19
680,93	1617,90
681,11	1697,77
681,30	1748,97
681,48	1726,44
681,67	1740,77
681,85	1742,82
682,04	1695,72
682,23	1789,92
682,41	1769,44
682,60	1650,66
682,78	1718,25
682,97	1613,80
683,15	1667,05
683,34	1720,29
683,53	1839,08
683,71	1660,90
683,90	1769,44
684,08	1859,56
684,27	1703,91
684,45	1802,21
684,64	1785,83
684,82	1732,58
685,01	1783,78
685,19	1683,43
685,38	1855,46
685,57	1710,05
685,75	1628,14
685,94	1699,81
686,12	1630,18
686,31	1658,85
686,49	1746,92
686,68	1673,19
686,86	1767,40
687,05	1753,06
687,23	1837,03
687,42	1689,57
687,60	1593,32
687,79	1832,93
687,97	1783,78
688,16	1816,55
688,34	1759,21
688,53	1621,99
688,71	1724,39
688,90	1728,49
689,08	1667,05
689,27	1654,76
689,45	1718,25
689,64	1857,51
689,82	1677,29
690,01	1800,16
690,19	1662,95
690,38	1685,48
690,56	1847,27
690,75	1648,61
690,93	1648,61
691,12	1675,24
691,30	1716,20
691,49	1691,62
691,67	1785,83
691,86	1806,31
692,04	1648,61
692,23	1644,52
692,41	1681,38
692,60	1804,26
692,78	1810,40
692,97	1726,44
693,15	1693,67
693,34	1826,79
693,52	1810,40
693,71	1742,82
693,89	1689,57
694,08	1626,09
694,26	1775,59
694,44	1734,63
694,63	1699,81
694,81	1720,29
695,00	1667,05
695,18	1779,68
695,37	1832,93
695,55	1714,15
695,74	1746,92
695,92	1687,53
696,10	1757,16
696,29	1607,66
696,47	1609,70
696,66	1646,57
696,84	1624,04
697,03	1697,77
697,21	1828,84
697,40	2385,88
697,58	1789,92
697,76	1675,24
697,95	1710,05
698,13	1646,57
698,32	1681,38
698,50	1720,29
698,68	1734,63
698,87	1718,25
699,05	1775,59
699,24	1712,10
699,42	1683,43
699,61	1734,63
699,79	1699,81
699,97	1718,25
700,16	1640,42
700,34	1658,85
700,53	1708,01
700,71	1800,16
700,89	1746,92
701,08	1734,63
701,26	1687,53
701,45	2093,02
701,63	1681,38
701,81	1658,85
702,00	1615,85
702,18	1722,34
702,37	1591,27
702,55	1748,97
702,73	1705,96
702,92	1699,81
703,10	1781,73
703,28	1765,35
703,47	1736,68
703,65	1837,03
703,84	1822,69
704,02	1699,81
704,20	1843,17
704,39	1738,73
704,57	1669,09
704,75	1730,53
704,94	1830,88
705,12	1759,21
705,30	1771,49
705,49	2183,13
705,67	4313,02
705,86	9549,68
706,04	12533,57
706,22	14466,85
706,41	15247,13
706,59	13602,61
706,77	9652,08
706,96	7346,06
707,14	6799,26
707,32	5912,49
707,51	5494,70
707,69	5003,19
707,87	4257,73
708,06	3467,21
708,24	2930,64
708,42	2463,71
708,61	2310,11
708,79	1867,75
708,97	1857,51
709,16	1802,21
709,34	1742,82
709,52	1757,16
709,71	1693,67
709,89	1724,39
710,07	1703,91
710,26	1652,71
710,44	1746,92
710,62	1714,15
710,80	1669,09
710,99	1781,73
711,17	1841,12
711,35	1665,00
711,54	1667,05
711,72	1755,11
711,90	1834,98
712,09	1724,39
712,27	1693,67
712,45	1677,29
712,63	1687,53
712,82	1701,86
713,00	1757,16
713,18	1738,73
713,37	1798,12
713,55	1789,92
713,73	1738,73
713,91	1759,21
714,10	1628,14
714,28	1695,72
714,46	1781,73
714,65	1677,29
714,83	1693,67
715,01	1726,44
715,19	1863,65
715,38	1712,10
715,56	1724,39
715,74	1681,38
715,92	1718,25
716,11	1798,12
716,29	1617,90
716,47	1654,76
716,65	1681,38
716,84	1646,57
717,02	1773,54
717,20	1630,18
717,38	1660,90
717,57	1812,45
717,75	1722,34
717,93	1642,47
718,11	1763,30
718,30	1677,29
718,48	1746,92
718,66	1771,49
718,84	1714,15
719,03	1771,49
719,21	1654,76
719,39	1814,50
719,57	1701,86
719,75	1853,41
719,94	1617,90
720,12	1751,01
720,30	1699,81
720,48	1791,97
720,67	1712,10
720,85	1603,56
721,03	1742,82
721,21	1660,90
721,39	1728,49
721,58	1726,44
721,76	1767,40
721,94	1751,01
722,12	1753,06
722,30	1832,93
722,49	1671,14
722,67	1748,97
722,85	1699,81
723,03	1583,08
723,21	1687,53
723,40	1761,25
723,58	1728,49
723,76	1761,25
723,94	1665,00
724,12	1662,95
724,30	1855,46
724,49	1746,92
724,67	1562,60
724,85	1834,98
725,03	1574,89
725,21	1720,29
725,40	1740,77
725,58	1640,42
725,76	1796,07
725,94	1675,24
726,12	1632,23
726,30	1652,71
726,49	1767,40
726,67	1724,39
726,85	1816,55
727,03	1818,60
727,21	2093,02
727,39	2887,64
727,57	3874,76
727,76	4132,80
727,94	4442,04
728,12	4409,28
728,30	3805,13
728,48	2895,83
728,66	2754,52
728,84	2572,25
729,03	2301,92
729,21	2203,61
729,39	2052,06
729,57	1779,68
729,75	1816,55
729,93	1804,26
730,11	1687,53
730,30	1656,81
730,48	1757,16
730,66	1761,25
730,84	1812,45
731,02	1724,39
731,20	1708,01
731,38	1716,20
731,56	1652,71
731,74	1597,42
731,93	1714,15
732,11	1769,44
732,29	1667,05
732,47	1802,21
732,65	1722,34
732,83	1789,92
733,01	1726,44
733,19	1665,00
733,37	1748,97
733,56	1773,54
733,74	1693,67
733,92	1791,97
734,10	1697,77
734,28	1746,92
734,46	1669,09
734,64	1714,15
734,82	1624,04
735,00	1677,29
735,18	1636,33
735,36	1705,96
735,54	1755,11
735,73	1759,21
735,91	1732,58
736,09	1732,58
736,27	1679,33
736,45	1724,39
736,63	1570,79
736,81	1634,28
736,99	1742,82
737,17	1712,10
737,35	1699,81
737,53	1712,10
737,71	1701,86
737,89	1800,16
738,07	1734,63
738,25	1691,62
738,43	1675,24
738,61	1677,29
738,80	1658,85
738,98	1669,09
739,16	1705,96
739,34	1667,05
739,52	1808,36
739,70	1708,01
739,88	1771,49
740,06	1779,68
740,24	1667,05
740,42	1812,45
740,60	1615,85
740,78	1632,23
740,96	1591,27
741,14	1718,25
741,32	1681,38
741,50	1640,42
741,68	1966,05
741,86	1775,59
742,04	1669,09
742,22	1619,94
742,40	1640,42
742,58	1722,34
742,76	1609,70
742,94	1736,68
743,12	1650,66
743,30	1708,01
743,48	1759,21
743,66	1677,29
743,84	1777,64
744,02	1640,42
744,20	1710,05
744,38	1742,82
744,56	1656,81
744,74	1830,88
744,92	1718,25
745,10	1798,12
745,28	1708,01
745,46	1779,68
745,64	1708,01
745,82	1736,68
746,00	1748,97
746,18	1662,95
746,36	1671,14
746,54	1763,30
746,72	1714,15
746,90	1689,57
747,08	1824,74
747,26	1667,05
747,44	1728,49
747,62	1734,63
747,80	1693,67
747,98	1783,78
748,15	1683,43
748,33	1794,02
748,51	1677,29
748,69	1718,25
748,87	1638,38
749,05	1708,01
749,23	1693,67
749,41	1683,43
749,59	1699,81
749,77	1734,63
749,95	1714,15
750,13	1720,29
750,31	1734,63
750,49	1669,09
750,67	1744,87
750,85	1824,74
751,03	1738,73
751,20	1832,93
751,38	1677,29
751,56	1665,00
751,74	1720,29
751,92	1673,19
752,10	1621,99
752,28	1730,53
752,46	1677,29
752,64	1701,86
752,82	1658,85
753,00	1804,26
753,18	1648,61
753,35	1703,91
753,53	1724,39
753,71	1701,86
753,89	1820,64
754,07	1800,16
754,25	1802,21
754,43	1710,05
754,61	1673,19
754,79	1722,34
754,97	1705,96
755,14	1783,78
755,32	1632,23
755,50	1648,61
755,68	1751,01
755,86	1681,38
756,04	1677,29
756,22	1703,91
756,40	1771,49
756,57	1810,40
756,75	1689,57
756,93	1742,82
757,11	1746,92
757,29	1691,62
757,47	1652,71
757,65	1628,14
757,82	1658,85
758,00	1648,61
758,18	1624,04
758,36	1632,23
758,54	1810,40
758,72	1652,71
758,90	1777,64
759,07	1759,21
759,25	1712,10
759,43	1744,87
759,61	1685,48
759,79	2170,85
759,97	1742,82
760,15	1697,77
760,32	1759,21
760,50	1667,05
760,68	1787,88
760,86	1677,29
761,04	1820,64
761,22	1767,40
761,39	1675,24
761,57	1785,83
761,75	1642,47
761,93	1828,84
762,11	1720,29
762,28	1759,21
762,46	1632,23
762,64	1761,25
762,82	1642,47
763,00	1701,86
763,18	1691,62
763,35	1679,33
763,53	1730,53
763,71	1697,77
763,89	1650,66
764,07	1660,90
764,24	1636,33
764,42	1708,01
764,60	1710,05
764,78	1769,44
764,96	1740,77
765,13	1701,86
765,31	1779,68
765,49	1767,40
765,67	1691,62
765,84	1642,47
766,02	1675,24
766,20	1593,32
766,38	1691,62
766,56	1779,68
766,73	1671,14
766,91	1669,09
767,09	1708,01
767,27	1705,96
767,44	1732,58
767,62	1775,59
767,80	1705,96
767,98	1720,29
768,15	1722,34
768,33	1781,73
768,51	1765,35
768,69	1685,48
768,87	1705,96
769,04	1675,24
769,22	1851,36
769,40	1826,79
769,58	1804,26
769,75	1730,53
769,93	1785,83
770,11	1716,20
770,28	1658,85
770,46	1814,50
770,64	1744,87
770,82	1720,29
770,99	1710,05
771,17	1802,21
771,35	1683,43
771,53	1708,01
771,70	1705,96
771,88	1798,12
772,06	1658,85
772,23	1654,76
772,41	1738,73
772,59	1677,29
772,77	1683,43
772,94	1705,96
773,12	1703,91
773,30	1654,76
773,47	1693,67
773,65	1710,05
773,83	1822,69
774,01	1710,05
774,18	1642,47
774,36	1691,62
774,54	1708,01
774,71	1705,96
774,89	1675,24
775,07	1669,09
775,24	1665,00
775,42	1597,42
775,60	1859,56
775,78	1660,90
775,95	1632,23
776,13	1738,73
776,31	1626,09
776,48	1714,15
776,66	1683,43
776,84	1724,39
777,01	1703,91
777,19	1669,09
777,37	1701,86
777,54	1765,35
777,72	1820,64
777,90	1734,63
778,07	1683,43
778,25	1937,38
778,43	1742,82
778,60	1671,14
778,78	1771,49
778,96	1740,77
779,13	1644,52
779,31	1802,21
779,49	1714,15
779,66	1722,34
779,84	1736,68
780,01	1673,19
780,19	1673,19
780,37	1728,49
780,54	1783,78
780,72	1703,91
780,90	1687,53
781,07	1794,02
781,25	1726,44
781,43	1777,64
781,60	1691,62
781,78	1816,55
781,95	1748,97
782,13	1634,28
782,31	1720,29
782,48	1556,46
782,66	1728,49
782,83	1853,41
783,01	1746,92
783,19	1775,59
783,36	1660,90
783,54	1675,24
783,72	1736,68
783,89	1652,71
784,07	1812,45
784,24	1693,67
784,42	1812,45
784,60	1697,77
784,77	1689,57
784,95	1621,99
785,12	1634,28
785,30	1726,44
785,47	1675,24
785,65	1617,90
785,83	1660,90
786,00	1689,57
786,18	1746,92
786,35	1615,85
786,53	1640,42
786,71	1746,92
786,88	1775,59
787,06	1681,38
787,23	1669,09
787,41	1654,76
787,58	1767,40
787,76	1703,91
787,94	1775,59
788,11	1703,91
788,29	1759,21
788,46	1742,82
788,64	1673,19
788,81	1695,72
788,99	1605,61
789,16	1644,52
789,34	1724,39
789,52	1722,34
789,69	1740,77
789,87	1566,70
790,04	1658,85
790,22	1757,16
790,39	1810,40
790,57	1552,36
790,74	1656,81
790,92	1742,82
791,09	1685,48
791,27	1734,63
791,44	1732,58
791,62	1744,87
791,79	1726,44
791,97	1759,21
792,15	1839,08
792,32	1814,50
792,50	1794,02
792,67	1773,54
792,85	1843,17
793,02	1720,29
793,20	1724,39
793,37	1617,90
793,55	1701,86
793,72	1685,48
793,90	1730,53
794,07	1679,33
794,25	1656,81
794,42	1730,53
794,60	1718,25
794,77	1724,39
794,95	1714,15
795,12	1787,88
795,30	1742,82
795,47	1617,90
795,65	1951,71
795,82	1693,67
796,00	1781,73
796,17	1695,72
796,34	1662,95
796,52	1656,81
796,69	1783,78
796,87	1748,97
797,04	1726,44
797,22	1767,40
797,39	1767,40
797,57	1734,63
797,74	1726,44
797,92	1679,33
798,09	1679,33
798,27	1787,88
798,44	1738,73
798,62	1748,97
798,79	1779,68
798,96	1636,33
799,14	1669,09
799,31	1837,03
799,49	1626,09
799,66	1652,71
799,84	1779,68
800,01	1665,00
800,19	1791,97
800,36	1617,90
800,53	1667,05
800,71	1751,01
800,88	1806,31
801,06	1626,09
801,23	1744,87
801,41	1693,67
801,58	1673,19
801,75	1667,05
801,93	1726,44
802,10	1708,01
802,28	1685,48
802,45	1753,06
802,63	1738,73
802,80	1808,36
802,97	1648,61
803,15	1742,82
803,32	1720,29
803,50	1697,77
803,67	1656,81
803,84	1667,05
804,02	1685,48
804,19	1705,96
804,37	1513,45
804,54	1677,29
804,71	1710,05
804,89	1699,81
805,06	1656,81
805,24	1646,57
805,41	1685,48
805,58	1703,91
805,76	1812,45
805,93	1724,39
806,10	1757,16
806,28	1732,58
806,45	1710,05
806,63	1705,96
806,80	1701,86
806,97	1681,38
807,15	1753,06
807,32	1679,33
807,49	1712,10
807,67	1665,00
807,84	1677,29
808,01	1665,00
808,19	1775,59
808,36	1861,60
808,54	1681,38
808,71	1628,14
808,88	1675,24
809,06	1755,11
809,23	1771,49
809,40	1581,03
809,58	1730,53
809,75	1716,20
809,92	1697,77
810,10	1753,06
810,27	1705,96
810,44	1740,77
810,62	1773,54
810,79	1767,40
810,96	1652,71
811,14	1660,90
811,31	1710,05
811,48	1718,25
811,66	1765,35
811,83	1710,05
812,00	1730,53
812,18	1699,81
812,35	1755,11
812,52	1697,77
812,69	1685,48
812,87	1621,99
813,04	1636,33
813,21	1675,24
813,39	1667,05
813,56	1617,90
813,73	1728,49
813,91	1585,13
814,08	1656,81
814,25	1718,25
814,42	1591,27
814,60	1669,09
814,77	1701,86
814,94	1632,23
815,12	1697,77
815,29	1746,92
815,46	1619,94
815,63	1757,16
815,81	1695,72
815,98	1691,62
816,15	1771,49
816,33	1681,38
816,50	1640,42
816,67	1726,44
816,84	1691,62
817,02	1646,57
817,19	1685,48
817,36	1691,62
817,53	1742,82
817,71	1671,14
817,88	1710,05
818,05	1658,85
818,22	1677,29
818,40	1802,21
818,57	1642,47
818,74	1722,34
818,91	1722,34
819,09	1673,19
819,26	1755,11
819,43	1626,09
819,60	1755,11
819,78	1789,92
819,95	1810,40
820,12	1660,90
820,29	1777,64
820,47	1783,78
820,64	1673,19
820,81	1683,43
820,98	1667,05
821,15	1605,61
821,33	1777,64
821,50	1568,74
821,67	1662,95
821,84	1742,82
822,02	1822,69
822,19	1796,07
822,36	1669,09
822,53	1669,09
822,70	1714,15
822,88	1681,38
823,05	1810,40
823,22	1669,09
823,39	1675,24
823,56	1662,95
823,74	1837,03
823,91	1632,23
824,08	1640,42
824,25	1681,38
824,42	1839,08
824,60	1628,14
824,77	1685,48
824,94	1632,23
825,11	1798,12
825,28	1626,09
825,45	1724,39
825,63	1775,59
825,80	1667,05
825,97	1736,68
826,14	1683,43
826,31	1552,36
826,48	1759,21
826,66	1689,57
826,83	1681,38
827,00	1685,48
827,17	1595,37
827,34	1595,37
827,51	1714,15
827,69	1656,81
827,86	1554,41
828,03	1730,53
828,20	1796,07
828,37	1671,14
828,54	1667,05
828,71	1718,25
828,89	1843,17
829,06	1652,71
829,23	1755,11
829,40	1619,94
829,57	1720,29
829,74	1806,31
829,91	1644,52
830,09	1746,92
830,26	1720,29
830,43	1779,68
830,60	1695,72
830,77	1808,36
830,94	1769,44
831,11	1779,68
831,28	1685,48
831,46	1779,68
831,63	1714,15
831,80	1783,78
831,97	1589,22
832,14	1650,66
832,31	1738,73
832,48	1689,57
832,65	1779,68
832,82	1748,97
832,99	1773,54
833,17	1658,85
833,34	1841,12
833,51	1697,77
833,68	1689,57
833,85	1716,20
834,02	1632,23
834,19	1654,76
834,36	1708,01
834,53	1648,61
834,70	1712,10
834,87	1767,40
835,04	1712,10
835,22	1697,77
835,39	1740,77
835,56	1619,94
835,73	1636,33
835,90	1847,27
836,07	1648,61
836,24	1736,68
836,41	1574,89
836,58	1652,71
836,75	1753,06
836,92	1767,40
837,09	1751,01
837,26	1697,77
837,43	1755,11
837,60	1701,86
837,77	1705,96
837,94	1746,92
838,12	1761,25
838,29	1705,96
838,46	1572,84
838,63	1613,80
838,80	1820,64
838,97	1804,26
839,14	1708,01
839,31	1665,00
839,48	1722,34
839,65	1689,57
839,82	1705,96
839,99	1785,83
840,16	1710,05
840,33	1667,05
840,50	1677,29
840,67	1552,36
840,84	1568,74
841,01	1701,86
841,18	1671,14
841,35	1681,38
841,52	1726,44
841,69	1855,46
841,86	1703,91
842,03	1640,42
842,20	1730,53
842,37	1777,64
842,54	1744,87
842,71	1722,34
842,88	1658,85
843,05	1785,83
843,22	1722,34
843,39	1671,14
843,56	1636,33
843,73	1650,66
843,90	1701,86
844,07	1687,53
844,24	1748,97
844,41	1701,86
844,58	1716,20
844,75	1751,01
844,92	1746,92
845,09	1640,42
845,26	1755,11
845,43	1693,67
845,60	1738,73
845,77	1808,36
845,94	1714,15
846,10	1794,02
846,27	1619,94
846,44	1757,16
846,61	1669,09
846,78	1748,97
846,95	1714,15
847,12	1681,38
847,29	1720,29
847,46	1638,38
847,63	1755,11
847,80	1683,43
847,97	1669,09
848,14	1855,46
848,31	1656,81
848,48	1644,52
848,65	1769,44
848,82	1734,63
848,98	1769,44
849,15	1826,79
849,32	1746,92
849,49	1783,78
849,66	1683,43
849,83	1718,25
850,00	1628,14
850,17	1759,21
850,34	1667,05
850,51	1667,05
850,68	1599,46
850,85	1847,27
851,01	1763,30
851,18	1714,15
851,35	1626,09
851,52	1710,05
851,69	1773,54
851,86	1599,46
852,03	1720,29
852,20	1703,91
852,37	1732,58
852,53	1669,09
852,70	1710,05
852,87	1730,53
853,04	1730,53
853,21	1791,97
853,38	1806,31
853,55	1732,58
853,72	1773,54
853,89	1654,76
854,05	1679,33
854,22	1708,01
854,39	1716,20
854,56	1724,39
854,73	1796,07
854,90	1746,92
855,07	1759,21
855,23	1732,58
855,40	1689,57
855,57	1644,52
855,74	1634,28
855,91	1845,22
856,08	1701,86
856,25	1675,24
856,41	1658,85
856,58	1701,86
856,75	1708,01
856,92	1578,98
857,09	1771,49
857,26	1677,29
857,42	1718,25
857,59	1763,30
857,76	1708,01
857,93	1767,40
858,10	1658,85
858,27	1677,29
858,43	1722,34
858,60	1716,20
858,77	1591,27
858,94	1673,19
859,11	1722,34
859,27	1730,53
859,44	1634,28
859,61	1826,79
859,78	1697,77
859,95	1585,13
860,12	1671,14
860,28	1863,65
860,45	1820,64
860,62	1734,63
860,79	1712,10
860,95	1673,19
861,12	1660,90
861,29	1681,38
861,46	1658,85
861,63	1796,07
861,79	1744,87
861,96	1689,57
862,13	1658,85
862,30	1705,96
862,47	1658,85
862,63	1603,56
862,80	1822,69
862,97	1710,05
863,14	1753,06
863,30	1705,96
863,47	1677,29
863,64	1728,49
863,81	1734,63
863,97	1640,42
864,14	1708,01
864,31	1656,81
864,48	1798,12
864,65	1742,82
864,81	1658,85
864,98	1673,19
865,15	1767,40
865,32	1732,58
865,48	1779,68
865,65	1775,59
865,82	1648,61
865,98	1746,92
866,15	1763,30
866,32	1724,39
866,49	1701,86
866,65	1716,20
866,82	1691,62
866,99	1673,19
867,16	1660,90
867,32	1683,43
867,49	1746,92
867,66	1738,73
867,83	1634,28
867,99	1601,51
868,16	1716,20
868,33	1583,08
868,49	1671,14
868,66	1658,85
868,83	1744,87
868,99	1687,53
869,16	1675,24
869,33	1720,29
869,50	1810,40
869,66	1667,05
869,83	1669,09
870,00	1566,70
870,16	1767,40
870,33	1693,67
870,50	1730,53
870,66	1740,77
870,83	1818,60
871,00	1691,62
871,17	1755,11
871,33	1714,15
871,50	1755,11
871,67	1630,18
871,83	1705,96
872,00	1830,88
872,17	1609,70
872,33	1767,40
872,50	1783,78
872,67	1755,11
872,83	1679,33
873,00	1769,44
873,17	1644,52
873,33	1744,87
873,50	1724,39
873,67	1626,09
873,83	1679,33
874,00	1705,96
874,16	1798,12
874,33	1732,58
874,50	1640,42
874,66	1796,07
874,83	1634,28
875,00	1828,84
875,16	1738,73
875,33	1730,53
875,50	1640,42
875,66	1624,04
875,83	1828,84
875,99	1699,81
876,16	1603,56
876,33	1621,99
876,49	1650,66
876,66	1740,77
876,83	1685,48
876,99	1665,00
877,16	1783,78
877,32	1677,29
877,49	1658,85
877,66	1712,10
877,82	1796,07
877,99	1695,72
878,15	1751,01
878,32	1693,67
878,49	1757,16
878,65	1658,85
878,82	1701,86
878,98	1710,05
879,15	1759,21
879,32	1671,14
879,48	1771,49
879,65	1691,62
879,81	1656,81
879,98	1693,67
880,15	1671,14
880,31	1728,49
880,48	1636,33
880,64	1755,11
880,81	1675,24
880,97	1828,84
881,14	1783,78
881,31	1624,04
881,47	1812,45
881,64	1671,14
881,80	1619,94
881,97	1789,92
882,13	1746,92
882,30	1669,09
882,47	1705,96
882,63	1656,81
882,80	1640,42
882,96	1687,53
883,13	1746,92
883,29	1787,88
883,46	1732,58
883,62	1765,35
883,79	1632,23
883,95	1736,68
884,12	1671,14
884,29	1710,05
884,45	1697,77
884,62	1695,72
884,78	1669,09
884,95	1783,78
885,11	1660,90
885,28	1720,29
885,44	1656,81
885,61	1710,05
885,77	1744,87
885,94	1761,25
886,10	1703,91
886,27	1652,71
886,43	1886,18
886,60	1712,10
886,76	1648,61
886,93	1726,44
887,09	1654,76
887,26	1578,98
887,42	1687,53
887,59	1800,16
887,75	1789,92
887,92	1748,97
888,08	1742,82
888,25	1839,08
888,41	1777,64
888,58	1718,25
888,74	1603,56
888,91	1726,44
>>>>>End Processed Spectral Data<<<<<
