SpectraSuite Data File
++++++++++++++++++++++++++++++++++++
Date: Mon Jun 06 17:26:17 CEST 2016
User: root
Dark Spectrum Present: No
Reference Spectrum Present: No
Number of Sampled Component Spectra: 1
Spectrometers: USB4C02835
Integration Time (usec): 100000 (USB4C02835)
Spectra Averaged: 1 (USB4C02835)
Boxcar Smoothing: 0 (USB4C02835)
Correct for Electrical Dark: No (USB4C02835)
Strobe/Lamp Enabled: No (USB4C02835)
Correct for Detector Non-linearity: No (USB4C02835)
Correct for Stray Light: No (USB4C02835)
Number of Pixels in Processed Spectrum: 3648
>>>>>Begin Processed Spectral Data<<<<<
177,47	1497,07
177,69	1497,07
177,91	1497,07
178,13	1468,39
178,36	1495,02
178,58	1671,14
178,80	1748,97
179,02	1695,72
179,24	1732,58
179,46	1693,67
179,68	1767,40
179,90	1740,77
180,13	1708,01
180,35	1673,19
180,57	1720,29
180,79	1718,25
181,01	1656,81
181,23	1791,97
181,45	1730,53
181,67	1632,23
181,90	1738,73
182,12	1693,67
182,34	1697,77
182,56	1744,87
182,78	1705,96
183,00	1646,57
183,22	1681,38
183,44	1626,09
183,66	1857,51
183,89	1773,54
184,11	1683,43
184,33	1726,44
184,55	1787,88
184,77	1773,54
184,99	1660,90
185,21	1646,57
185,43	1804,26
185,65	1691,62
185,87	1759,21
186,10	1810,40
186,32	1918,95
186,54	1742,82
186,76	1724,39
186,98	1769,44
187,20	1628,14
187,42	1722,34
187,64	1726,44
187,86	1724,39
188,08	1767,40
188,30	1617,90
188,52	1626,09
188,75	1757,16
188,97	1787,88
189,19	1787,88
189,41	1691,62
189,63	1699,81
189,85	1689,57
190,07	1628,14
190,29	1677,29
190,51	1675,24
190,73	1613,80
190,95	1789,92
191,17	1662,95
191,39	1621,99
191,61	1630,18
191,84	1732,58
192,06	1757,16
192,28	1595,37
192,50	1826,79
192,72	1769,44
192,94	1667,05
193,16	1705,96
193,38	1740,77
193,60	1695,72
193,82	1740,77
194,04	1771,49
194,26	1724,39
194,48	1662,95
194,70	1679,33
194,92	1687,53
195,14	1724,39
195,36	1646,57
195,58	1720,29
195,80	1685,48
196,02	1634,28
196,24	1677,29
196,46	1740,77
196,69	1689,57
196,91	1789,92
197,13	1619,94
197,35	1642,47
197,57	1796,07
197,79	1779,68
198,01	1693,67
198,23	1773,54
198,45	1781,73
198,67	1642,47
198,89	1722,34
199,11	1701,86
199,33	1769,44
199,55	1607,66
199,77	1736,68
199,99	1773,54
200,21	1712,10
200,43	1693,67
200,65	1636,33
200,87	1617,90
201,09	1714,15
201,31	1603,56
201,53	1755,11
201,75	1652,71
201,97	1755,11
202,19	1708,01
202,41	1828,84
202,63	1871,84
202,85	1728,49
203,07	1734,63
203,29	1730,53
203,51	1640,42
203,73	1693,67
203,95	1826,79
204,17	1710,05
204,39	1710,05
204,61	1753,06
204,83	1648,61
205,05	1769,44
205,27	1765,35
205,49	1857,51
205,71	1730,53
205,93	1628,14
206,15	1683,43
206,37	1732,58
206,59	1722,34
206,81	1632,23
207,03	1656,81
207,25	1638,38
207,47	1660,90
207,69	1658,85
207,91	1791,97
208,13	1685,48
208,34	1654,76
208,56	1701,86
208,78	1734,63
209,00	1724,39
209,22	1697,77
209,44	1724,39
209,66	1642,47
209,88	1693,67
210,10	1568,74
210,32	1695,72
210,54	1857,51
210,76	1642,47
210,98	1751,01
211,20	1607,66
211,42	1738,73
211,64	1767,40
211,86	1665,00
212,08	1800,16
212,30	1669,09
212,52	1712,10
212,74	1765,35
212,96	1697,77
213,17	1693,67
213,39	1785,83
213,61	1839,08
213,83	1742,82
214,05	1585,13
214,27	1781,73
214,49	1660,90
214,71	1650,66
214,93	1730,53
215,15	1730,53
215,37	1814,50
215,59	1607,66
215,81	1751,01
216,03	1787,88
216,24	1734,63
216,46	1652,71
216,68	1753,06
216,90	1744,87
217,12	1783,78
217,34	1685,48
217,56	1732,58
217,78	1771,49
218,00	1800,16
218,22	1765,35
218,44	1722,34
218,66	1685,48
218,87	1904,61
219,09	1632,23
219,31	1804,26
219,53	1718,25
219,75	1628,14
219,97	1783,78
220,19	1732,58
220,41	1728,49
220,63	1798,12
220,85	1738,73
221,06	1642,47
221,28	1767,40
221,50	1761,25
221,72	1708,01
221,94	1652,71
222,16	1738,73
222,38	1726,44
222,60	1775,59
222,82	1662,95
223,03	1769,44
223,25	1681,38
223,47	1777,64
223,69	1796,07
223,91	1708,01
224,13	1775,59
224,35	1644,52
224,57	1771,49
224,78	1705,96
225,00	1603,56
225,22	1708,01
225,44	1738,73
225,66	1738,73
225,88	1742,82
226,10	1787,88
226,32	1681,38
226,53	1849,32
226,75	1685,48
226,97	1730,53
227,19	1744,87
227,41	1669,09
227,63	1710,05
227,85	1656,81
228,06	1781,73
228,28	1771,49
228,50	1705,96
228,72	1611,75
228,94	1724,39
229,16	1640,42
229,37	1669,09
229,59	1681,38
229,81	1763,30
230,03	1656,81
230,25	1658,85
230,47	1716,20
230,69	1587,18
230,90	1820,64
231,12	1656,81
231,34	1722,34
231,56	1701,86
231,78	1701,86
232,00	1718,25
232,21	1705,96
232,43	1634,28
232,65	1552,36
232,87	1716,20
233,09	1701,86
233,30	1624,04
233,52	1779,68
233,74	1714,15
233,96	1699,81
234,18	1724,39
234,40	1720,29
234,61	1857,51
234,83	1615,85
235,05	1628,14
235,27	1861,60
235,49	1775,59
235,70	1681,38
235,92	1820,64
236,14	1791,97
236,36	1865,70
236,58	1660,90
236,79	1771,49
237,01	1681,38
237,23	1697,77
237,45	1863,65
237,67	1683,43
237,88	1693,67
238,10	1820,64
238,32	1695,72
238,54	1685,48
238,76	1693,67
238,97	1701,86
239,19	1652,71
239,41	1724,39
239,63	1773,54
239,85	1697,77
240,06	1665,00
240,28	1665,00
240,50	1783,78
240,72	1720,29
240,93	1759,21
241,15	1794,02
241,37	1759,21
241,59	1877,99
241,81	1732,58
242,02	1703,91
242,24	1701,86
242,46	1734,63
242,68	1720,29
242,89	1712,10
243,11	1738,73
243,33	1710,05
243,55	1753,06
243,76	1757,16
243,98	1710,05
244,20	1714,15
244,42	1675,24
244,64	1755,11
244,85	1685,48
245,07	1656,81
245,29	1667,05
245,51	1697,77
245,72	1765,35
245,94	1744,87
246,16	1708,01
246,38	1798,12
246,59	1644,52
246,81	1722,34
247,03	1699,81
247,24	1705,96
247,46	1697,77
247,68	1714,15
247,90	1751,01
248,11	1675,24
248,33	1671,14
248,55	1732,58
248,77	1791,97
248,98	1724,39
249,20	1796,07
249,42	1783,78
249,64	1732,58
249,85	1671,14
250,07	1689,57
250,29	1775,59
250,50	1761,25
250,72	1603,56
250,94	1751,01
251,16	1855,46
251,37	1777,64
251,59	1730,53
251,81	1671,14
252,02	1857,51
252,24	1669,09
252,46	1771,49
252,68	1681,38
252,89	1642,47
253,11	1615,85
253,33	1769,44
253,54	1837,03
253,76	1607,66
253,98	1716,20
254,20	1708,01
254,41	1697,77
254,63	1675,24
254,85	1624,04
255,06	1746,92
255,28	1759,21
255,50	1718,25
255,71	1662,95
255,93	1665,00
256,15	1699,81
256,36	1789,92
256,58	1708,01
256,80	1722,34
257,02	1681,38
257,23	1626,09
257,45	1748,97
257,67	1742,82
257,88	1753,06
258,10	1730,53
258,32	1677,29
258,53	1718,25
258,75	1837,03
258,97	1685,48
259,18	1716,20
259,40	1705,96
259,62	1812,45
259,83	1783,78
260,05	1728,49
260,27	2000,87
260,48	1773,54
260,70	1665,00
260,92	1644,52
261,13	1705,96
261,35	1753,06
261,57	1759,21
261,78	1667,05
262,00	1722,34
262,22	1779,68
262,43	1685,48
262,65	1642,47
262,86	1705,96
263,08	1775,59
263,30	1724,39
263,51	1656,81
263,73	1740,77
263,95	1818,60
264,16	1673,19
264,38	1779,68
264,60	1769,44
264,81	1689,57
265,03	1796,07
265,25	1804,26
265,46	1697,77
265,68	1826,79
265,89	1761,25
266,11	1677,29
266,33	1757,16
266,54	1812,45
266,76	1789,92
266,98	1685,48
267,19	1703,91
267,41	1736,68
267,62	1730,53
267,84	1693,67
268,06	1738,73
268,27	1685,48
268,49	1789,92
268,70	1763,30
268,92	1691,62
269,14	1673,19
269,35	1665,00
269,57	1722,34
269,79	1730,53
270,00	1685,48
270,22	1779,68
270,43	1695,72
270,65	1621,99
270,87	1710,05
271,08	1734,63
271,30	1677,29
271,51	1660,90
271,73	1710,05
271,95	1806,31
272,16	1677,29
272,38	1695,72
272,59	1699,81
272,81	1738,73
273,02	1746,92
273,24	1753,06
273,46	1804,26
273,67	1654,76
273,89	1677,29
274,10	1636,33
274,32	1812,45
274,54	1763,30
274,75	1744,87
274,97	1724,39
275,18	1767,40
275,40	1701,86
275,61	1650,66
275,83	1714,15
276,05	1630,18
276,26	1693,67
276,48	1763,30
276,69	1648,61
276,91	1691,62
277,12	1746,92
277,34	1726,44
277,55	1722,34
277,77	1699,81
277,99	1740,77
278,20	1730,53
278,42	1689,57
278,63	1624,04
278,85	1634,28
279,06	1683,43
279,28	1781,73
279,49	1748,97
279,71	1699,81
279,93	1746,92
280,14	1738,73
280,36	1730,53
280,57	1800,16
280,79	1800,16
281,00	1652,71
281,22	1742,82
281,43	1765,35
281,65	1578,98
281,86	1662,95
282,08	1654,76
282,29	1783,78
282,51	1605,61
282,73	1652,71
282,94	1607,66
283,16	1761,25
283,37	1765,35
283,59	1751,01
283,80	1730,53
284,02	1675,24
284,23	1697,77
284,45	1638,38
284,66	1632,23
284,88	1742,82
285,09	1697,77
285,31	1763,30
285,52	1851,36
285,74	1648,61
285,95	1816,55
286,17	1705,96
286,38	1761,25
286,60	1699,81
286,81	1714,15
287,03	1761,25
287,24	1683,43
287,46	1767,40
287,67	1816,55
287,89	1877,99
288,10	1730,53
288,32	1757,16
288,53	1771,49
288,75	1714,15
288,96	1755,11
289,18	1742,82
289,39	1681,38
289,61	1771,49
289,82	1779,68
290,04	1875,94
290,25	1675,24
290,47	1814,50
290,68	1685,48
290,90	1767,40
291,11	1646,57
291,33	1777,64
291,54	1740,77
291,76	1667,05
291,97	1728,49
292,18	1748,97
292,40	1656,81
292,61	1693,67
292,83	1820,64
293,04	1699,81
293,26	1771,49
293,47	1691,62
293,69	1673,19
293,90	1722,34
294,12	1746,92
294,33	1716,20
294,55	1669,09
294,76	1765,35
294,97	1783,78
295,19	1837,03
295,40	1658,85
295,62	1769,44
295,83	1742,82
296,05	1761,25
296,26	1769,44
296,48	1681,38
296,69	1746,92
296,90	1665,00
297,12	1677,29
297,33	1771,49
297,55	1748,97
297,76	1765,35
297,98	1800,16
298,19	1746,92
298,41	1787,88
298,62	1617,90
298,83	1794,02
299,05	1789,92
299,26	1724,39
299,48	1671,14
299,69	1753,06
299,90	1744,87
300,12	1669,09
300,33	1847,27
300,55	1697,77
300,76	1761,25
300,98	1570,79
301,19	1859,56
301,40	1701,86
301,62	1681,38
301,83	1789,92
302,05	1648,61
302,26	1759,21
302,47	1773,54
302,69	1650,66
302,90	1701,86
303,12	1630,18
303,33	1705,96
303,54	1802,21
303,76	1705,96
303,97	1759,21
304,19	1738,73
304,40	1699,81
304,61	1718,25
304,83	1882,08
305,04	1818,60
305,26	1775,59
305,47	1738,73
305,68	1714,15
305,90	1609,70
306,11	1742,82
306,33	1683,43
306,54	1751,01
306,75	1763,30
306,97	1621,99
307,18	1669,09
307,39	1691,62
307,61	1716,20
307,82	1734,63
308,04	1701,86
308,25	1716,20
308,46	1785,83
308,68	1642,47
308,89	1705,96
309,10	1777,64
309,32	1763,30
309,53	1691,62
309,74	1699,81
309,96	1734,63
310,17	1705,96
310,39	1746,92
310,60	1675,24
310,81	1736,68
311,03	1617,90
311,24	1746,92
311,45	1724,39
311,67	1812,45
311,88	1724,39
312,09	1722,34
312,31	1679,33
312,52	1714,15
312,73	1701,86
312,95	1646,57
313,16	1648,61
313,37	1775,59
313,59	1740,77
313,80	1693,67
314,01	1779,68
314,23	1742,82
314,44	1742,82
314,65	1650,66
314,87	1683,43
315,08	1667,05
315,29	1609,70
315,51	1722,34
315,72	1628,14
315,93	1796,07
316,15	1751,01
316,36	1677,29
316,57	1736,68
316,79	1720,29
317,00	1665,00
317,21	1763,30
317,43	1681,38
317,64	1697,77
317,85	1691,62
318,07	1693,67
318,28	1687,53
318,49	1810,40
318,70	1927,14
318,92	1841,12
319,13	1822,69
319,34	1806,31
319,56	1732,58
319,77	1806,31
319,98	1798,12
320,20	1742,82
320,41	1753,06
320,62	1769,44
320,83	1687,53
321,05	1898,47
321,26	1732,58
321,47	1683,43
321,69	1789,92
321,90	1607,66
322,11	1591,27
322,32	1767,40
322,54	1777,64
322,75	1677,29
322,96	1867,75
323,18	1669,09
323,39	1646,57
323,60	1605,61
323,81	1787,88
324,03	1677,29
324,24	1738,73
324,45	1689,57
324,66	1765,35
324,88	1798,12
325,09	1849,32
325,30	1783,78
325,52	1746,92
325,73	1662,95
325,94	1732,58
326,15	1648,61
326,37	1718,25
326,58	1755,11
326,79	1671,14
327,00	1671,14
327,22	1751,01
327,43	1652,71
327,64	1697,77
327,85	1753,06
328,07	1755,11
328,28	1855,46
328,49	1732,58
328,70	1732,58
328,92	1746,92
329,13	1675,24
329,34	1716,20
329,55	1726,44
329,76	1767,40
329,98	1630,18
330,19	1832,93
330,40	1712,10
330,61	1708,01
330,83	1734,63
331,04	1671,14
331,25	1761,25
331,46	1630,18
331,68	1718,25
331,89	1724,39
332,10	1703,91
332,31	1677,29
332,52	1705,96
332,74	1728,49
332,95	1611,75
333,16	1722,34
333,37	1699,81
333,58	1710,05
333,80	1779,68
334,01	1593,32
334,22	1675,24
334,43	1630,18
334,64	1722,34
334,86	1583,08
335,07	1644,52
335,28	1771,49
335,49	1679,33
335,70	1812,45
335,92	1757,16
336,13	1877,99
336,34	1761,25
336,55	1765,35
336,76	1736,68
336,98	1697,77
337,19	1720,29
337,40	1847,27
337,61	1900,52
337,82	1669,09
338,04	1751,01
338,25	1679,33
338,46	1720,29
338,67	1734,63
338,88	1595,37
339,09	1656,81
339,31	1734,63
339,52	1597,42
339,73	1638,38
339,94	1677,29
340,15	1789,92
340,36	1656,81
340,58	1705,96
340,79	1681,38
341,00	1783,78
341,21	1673,19
341,42	1804,26
341,63	1701,86
341,85	1777,64
342,06	1746,92
342,27	1679,33
342,48	1697,77
342,69	1597,42
342,90	1689,57
343,12	1751,01
343,33	1667,05
343,54	1734,63
343,75	1759,21
343,96	1687,53
344,17	1673,19
344,38	1695,72
344,60	1714,15
344,81	1677,29
345,02	1665,00
345,23	1828,84
345,44	1771,49
345,65	1853,41
345,86	1765,35
346,07	1646,57
346,29	1683,43
346,50	1783,78
346,71	1746,92
346,92	1822,69
347,13	1867,75
347,34	1712,10
347,55	1665,00
347,76	1732,58
347,98	1710,05
348,19	1724,39
348,40	1775,59
348,61	1683,43
348,82	1853,41
349,03	1732,58
349,24	1658,85
349,45	1802,21
349,66	1646,57
349,88	1783,78
350,09	1751,01
350,30	1759,21
350,51	1837,03
350,72	1730,53
350,93	1695,72
351,14	1701,86
351,35	1724,39
351,56	1726,44
351,77	1744,87
351,99	1781,73
352,20	1785,83
352,41	1718,25
352,62	1628,14
352,83	1691,62
353,04	1744,87
353,25	1669,09
353,46	1810,40
353,67	1724,39
353,88	1648,61
354,09	1773,54
354,30	1771,49
354,52	1712,10
354,73	1673,19
354,94	1656,81
355,15	1679,33
355,36	1812,45
355,57	1701,86
355,78	1789,92
355,99	1650,66
356,20	1611,75
356,41	1779,68
356,62	1775,59
356,83	1732,58
357,04	1769,44
357,25	1603,56
357,46	1626,09
357,68	1632,23
357,89	1685,48
358,10	1751,01
358,31	1689,57
358,52	1667,05
358,73	1681,38
358,94	1646,57
359,15	1693,67
359,36	1712,10
359,57	1669,09
359,78	1716,20
359,99	1769,44
360,20	1599,46
360,41	1732,58
360,62	1740,77
360,83	1701,86
361,04	1783,78
361,25	1753,06
361,46	1923,04
361,67	1736,68
361,88	1769,44
362,09	1781,73
362,30	1736,68
362,51	1667,05
362,72	1746,92
362,93	1744,87
363,14	1746,92
363,35	1742,82
363,56	1667,05
363,78	1755,11
363,99	1763,30
364,20	1693,67
364,41	1740,77
364,62	1832,93
364,83	1755,11
365,04	1738,73
365,25	1734,63
365,46	1794,02
365,67	1708,01
365,88	1640,42
366,09	1701,86
366,30	1644,52
366,51	1775,59
366,72	1677,29
366,93	1693,67
367,14	1779,68
367,35	1814,50
367,56	1765,35
367,77	1761,25
367,98	1675,24
368,18	1671,14
368,39	1705,96
368,60	1658,85
368,81	1818,60
369,02	1685,48
369,23	1658,85
369,44	1654,76
369,65	1689,57
369,86	1826,79
370,07	1859,56
370,28	1656,81
370,49	1757,16
370,70	1775,59
370,91	1677,29
371,12	1617,90
371,33	1744,87
371,54	1722,34
371,75	1834,98
371,96	1611,75
372,17	1665,00
372,38	1634,28
372,59	1736,68
372,80	1732,58
373,01	1716,20
373,22	1771,49
373,43	1658,85
373,64	1697,77
373,85	1822,69
374,06	1818,60
374,26	1767,40
374,47	1746,92
374,68	1761,25
374,89	1746,92
375,10	1697,77
375,31	1755,11
375,52	1751,01
375,73	1693,67
375,94	1687,53
376,15	1800,16
376,36	1644,52
376,57	1699,81
376,78	1693,67
376,99	1730,53
377,20	1845,22
377,40	1689,57
377,61	1800,16
377,82	1615,85
378,03	1759,21
378,24	1681,38
378,45	1695,72
378,66	1751,01
378,87	1624,04
379,08	1628,14
379,29	1679,33
379,50	1820,64
379,71	1660,90
379,91	1738,73
380,12	1734,63
380,33	1630,18
380,54	1740,77
380,75	1679,33
380,96	1671,14
381,17	1753,06
381,38	1710,05
381,59	1757,16
381,80	1787,88
382,00	1873,89
382,21	1765,35
382,42	1849,32
382,63	1859,56
382,84	1777,64
383,05	1855,46
383,26	1783,78
383,47	1753,06
383,68	1761,25
383,88	1734,63
384,09	1761,25
384,30	1845,22
384,51	1800,16
384,72	1607,66
384,93	1640,42
385,14	1742,82
385,35	1798,12
385,55	1757,16
385,76	1710,05
385,97	1699,81
386,18	1728,49
386,39	1656,81
386,60	1753,06
386,81	1718,25
387,02	1660,90
387,22	1714,15
387,43	1718,25
387,64	1810,40
387,85	1853,41
388,06	2207,71
388,27	4288,45
388,48	6743,96
388,68	8218,50
388,89	9570,16
389,10	9844,59
389,31	8460,16
389,52	7528,33
389,73	6696,86
389,93	6238,11
390,14	5867,43
390,35	5070,77
390,56	4630,46
390,77	3751,88
390,98	3018,71
391,18	2521,05
391,39	2187,23
391,60	1841,12
391,81	1822,69
392,02	1748,97
392,23	1886,18
392,43	1738,73
392,64	1824,74
392,85	1765,35
393,06	1802,21
393,27	1798,12
393,47	1705,96
393,68	1738,73
393,89	1722,34
394,10	1783,78
394,31	1720,29
394,52	1658,85
394,72	1703,91
394,93	1824,74
395,14	1669,09
395,35	1703,91
395,56	1710,05
395,76	1837,03
395,97	1818,60
396,18	1886,18
396,39	1802,21
396,60	2101,22
396,80	1892,32
397,01	1808,36
397,22	1890,28
397,43	1857,51
397,64	1759,21
397,84	1841,12
398,05	1785,83
398,26	1705,96
398,47	1757,16
398,67	1816,55
398,88	1701,86
399,09	1751,01
399,30	1724,39
399,51	1736,68
399,71	1648,61
399,92	1697,77
400,13	1730,53
400,34	1751,01
400,54	1728,49
400,75	1785,83
400,96	1744,87
401,17	1812,45
401,37	1804,26
401,58	1757,16
401,79	1785,83
402,00	1855,46
402,21	2017,25
402,41	2017,25
402,62	2013,15
402,83	1978,34
403,04	2033,63
403,24	2060,26
403,45	1908,71
403,66	1880,04
403,87	1937,38
404,07	1955,81
404,28	1880,04
404,49	1861,60
404,70	1800,16
404,90	1771,49
405,11	1748,97
405,32	1722,34
405,52	1591,27
405,73	1753,06
405,94	1652,71
406,15	1716,20
406,35	1763,30
406,56	1730,53
406,77	1718,25
406,98	1804,26
407,18	1736,68
407,39	1783,78
407,60	1650,66
407,80	1738,73
408,01	1681,38
408,22	1822,69
408,43	1671,14
408,63	1763,30
408,84	1800,16
409,05	1773,54
409,25	1675,24
409,46	1689,57
409,67	1660,90
409,88	1681,38
410,08	1716,20
410,29	1712,10
410,50	1775,59
410,70	1763,30
410,91	1705,96
411,12	1746,92
411,32	1751,01
411,53	1716,20
411,74	1810,40
411,95	1742,82
412,15	1789,92
412,36	1718,25
412,57	1765,35
412,77	1734,63
412,98	1779,68
413,19	1710,05
413,39	1736,68
413,60	1755,11
413,81	1832,93
414,01	1708,01
414,22	1794,02
414,43	1726,44
414,63	1691,62
414,84	1765,35
415,05	1771,49
415,25	1654,76
415,46	1812,45
415,67	1705,96
415,87	1658,85
416,08	1699,81
416,29	1665,00
416,49	1738,73
416,70	1705,96
416,91	1722,34
417,11	1603,56
417,32	1701,86
417,53	1726,44
417,73	1677,29
417,94	1740,77
418,15	1761,25
418,35	1757,16
418,56	1751,01
418,77	1943,52
418,97	1742,82
419,18	1654,76
419,38	1554,41
419,59	1660,90
419,80	1775,59
420,00	1630,18
420,21	1785,83
420,42	1822,69
420,62	1779,68
420,83	1646,57
421,04	1722,34
421,24	1730,53
421,45	1714,15
421,65	1761,25
421,86	1697,77
422,07	1693,67
422,27	1748,97
422,48	1755,11
422,69	1710,05
422,89	1763,30
423,10	1755,11
423,30	1667,05
423,51	1806,31
423,72	1687,53
423,92	1767,40
424,13	1658,85
424,33	1755,11
424,54	1816,55
424,75	1789,92
424,95	1781,73
425,16	1720,29
425,36	1746,92
425,57	1796,07
425,78	1720,29
425,98	1820,64
426,19	1671,14
426,39	1619,94
426,60	1822,69
426,81	1802,21
427,01	1746,92
427,22	1652,71
427,42	1628,14
427,63	1728,49
427,83	1722,34
428,04	1789,92
428,25	1648,61
428,45	1781,73
428,66	1775,59
428,86	1699,81
429,07	1665,00
429,28	1714,15
429,48	1656,81
429,69	1597,42
429,89	1722,34
430,10	1632,23
430,30	1746,92
430,51	1789,92
430,71	1632,23
430,92	1730,53
431,13	1665,00
431,33	1787,88
431,54	1781,73
431,74	1812,45
431,95	1810,40
432,15	1691,62
432,36	1738,73
432,56	1794,02
432,77	1863,65
432,98	1871,84
433,18	1730,53
433,39	1765,35
433,59	1718,25
433,80	1847,27
434,00	1794,02
434,21	1742,82
434,41	1642,47
434,62	1837,03
434,82	1714,15
435,03	1628,14
435,23	1779,68
435,44	1615,85
435,64	1677,29
435,85	1734,63
436,06	1724,39
436,26	1744,87
436,47	1685,48
436,67	1697,77
436,88	1648,61
437,08	1826,79
437,29	1853,41
437,49	1718,25
437,70	1738,73
437,90	1705,96
438,11	1861,60
438,31	1761,25
438,52	1857,51
438,72	1841,12
438,93	1943,52
439,13	1794,02
439,34	1875,94
439,54	1853,41
439,75	1738,73
439,95	1771,49
440,16	1767,40
440,36	1822,69
440,57	1748,97
440,77	1781,73
440,98	1785,83
441,18	1708,01
441,39	1812,45
441,59	1656,81
441,80	1816,55
442,00	1804,26
442,21	1804,26
442,41	1638,38
442,62	1828,84
442,82	1777,64
443,02	1775,59
443,23	1673,19
443,43	1703,91
443,64	1863,65
443,84	1691,62
444,05	1812,45
444,25	1843,17
444,46	1769,44
444,66	1730,53
444,87	1857,51
445,07	1648,61
445,28	1755,11
445,48	1802,21
445,69	1834,98
445,89	1908,71
446,09	1791,97
446,30	2068,45
446,50	2725,85
446,71	3723,21
446,91	4429,76
447,12	4806,58
447,32	4884,41
447,53	4308,93
447,73	3778,50
447,93	3592,14
448,14	3293,13
448,34	3188,69
448,55	2885,59
448,75	2904,02
448,96	2752,47
449,16	2412,51
449,36	2281,44
449,57	2121,70
449,77	1859,56
449,98	1849,32
450,18	1800,16
450,39	1900,52
450,59	1826,79
450,79	1703,91
451,00	1697,77
451,20	1789,92
451,41	1697,77
451,61	1789,92
451,81	1671,14
452,02	1679,33
452,22	1736,68
452,43	1796,07
452,63	1679,33
452,84	1787,88
453,04	1773,54
453,24	1767,40
453,45	1728,49
453,65	1710,05
453,86	1724,39
454,06	1751,01
454,26	1759,21
454,47	1769,44
454,67	1798,12
454,87	1685,48
455,08	1724,39
455,28	1814,50
455,49	1828,84
455,69	1660,90
455,89	1869,80
456,10	1796,07
456,30	1693,67
456,51	1746,92
456,71	1683,43
456,91	1814,50
457,12	1722,34
457,32	1710,05
457,52	1587,18
457,73	1796,07
457,93	1812,45
458,14	1681,38
458,34	1677,29
458,54	1722,34
458,75	1703,91
458,95	1816,55
459,15	1687,53
459,36	1732,58
459,56	1779,68
459,76	1834,98
459,97	1841,12
460,17	1787,88
460,37	1777,64
460,58	1832,93
460,78	1730,53
460,99	1787,88
461,19	1677,29
461,39	1720,29
461,60	1722,34
461,80	1718,25
462,00	1656,81
462,21	1744,87
462,41	1701,86
462,61	1646,57
462,82	1681,38
463,02	1789,92
463,22	1748,97
463,43	1751,01
463,63	1800,16
463,83	1824,74
464,04	1708,01
464,24	1755,11
464,44	1642,47
464,64	1769,44
464,85	1763,30
465,05	1789,92
465,25	1753,06
465,46	1703,91
465,66	1740,77
465,86	1740,77
466,07	1751,01
466,27	1755,11
466,47	1556,46
466,68	1667,05
466,88	1845,22
467,08	1767,40
467,29	1759,21
467,49	1742,82
467,69	1693,67
467,89	1828,84
468,10	1730,53
468,30	1767,40
468,50	1789,92
468,71	1804,26
468,91	1687,53
469,11	1742,82
469,31	1765,35
469,52	1679,33
469,72	1781,73
469,92	1910,75
470,13	1662,95
470,33	1718,25
470,53	1802,21
470,73	2138,08
470,94	2269,15
471,14	2369,50
471,34	2566,10
471,54	2406,36
471,75	2220,00
471,95	2220,00
472,15	2101,22
472,36	2064,35
472,56	2017,25
472,76	2066,40
472,96	2066,40
473,17	1980,39
473,37	1951,71
473,57	1853,41
473,77	1875,94
473,98	1830,88
474,18	1724,39
474,38	1902,56
474,58	1767,40
474,79	1740,77
474,99	1732,58
475,19	1740,77
475,39	1732,58
475,60	1751,01
475,80	1767,40
476,00	1724,39
476,20	1671,14
476,41	1804,26
476,61	1847,27
476,81	1837,03
477,01	1642,47
477,21	1822,69
477,42	1865,70
477,62	1605,61
477,82	1787,88
478,02	1779,68
478,23	1714,15
478,43	1669,09
478,63	1730,53
478,83	1742,82
479,03	1644,52
479,24	1757,16
479,44	1861,60
479,64	1691,62
479,84	1654,76
480,04	1718,25
480,25	1794,02
480,45	1677,29
480,65	1730,53
480,85	1804,26
481,06	1679,33
481,26	1673,19
481,46	1791,97
481,66	1701,86
481,86	1685,48
482,06	1787,88
482,27	1753,06
482,47	1626,09
482,67	1773,54
482,87	1693,67
483,07	1812,45
483,28	1648,61
483,48	1781,73
483,68	1720,29
483,88	1693,67
484,08	1603,56
484,29	1701,86
484,49	1724,39
484,69	1675,24
484,89	1886,18
485,09	1751,01
485,29	1701,86
485,50	1681,38
485,70	1722,34
485,90	1796,07
486,10	1689,57
486,30	1794,02
486,50	1783,78
486,71	1689,57
486,91	1767,40
487,11	1849,32
487,31	1605,61
487,51	1767,40
487,71	1677,29
487,91	1757,16
488,12	1634,28
488,32	1630,18
488,52	1624,04
488,72	1634,28
488,92	1787,88
489,12	1808,36
489,32	1791,97
489,53	1804,26
489,73	1726,44
489,93	1851,36
490,13	1685,48
490,33	1687,53
490,53	1796,07
490,73	1818,60
490,94	1617,90
491,14	1714,15
491,34	1804,26
491,54	2115,55
491,74	2564,06
491,94	2885,59
492,14	3082,19
492,34	3078,10
492,54	2787,29
492,75	2473,95
492,95	2420,70
493,15	2234,33
493,35	2306,01
493,55	2240,48
493,75	2189,28
493,95	2156,51
494,15	2115,55
494,35	1837,03
494,56	1920,99
494,76	1705,96
494,96	1851,36
495,16	1769,44
495,36	1695,72
495,56	1730,53
495,76	1767,40
495,96	1796,07
496,16	1748,97
496,36	1802,21
496,56	1742,82
496,77	1751,01
496,97	1740,77
497,17	1800,16
497,37	1624,04
497,57	1767,40
497,77	1718,25
497,97	1720,29
498,17	1773,54
498,37	1683,43
498,57	1765,35
498,77	1677,29
498,97	1691,62
499,17	1794,02
499,38	1742,82
499,58	1804,26
499,78	1832,93
499,98	1816,55
500,18	1724,39
500,38	1705,96
500,58	1964,00
500,78	2602,97
500,98	4655,03
501,18	5875,62
501,38	6913,94
501,58	7071,64
501,78	6600,60
501,98	5545,90
502,18	4992,95
502,38	4440,00
502,58	4069,31
502,78	3852,23
502,98	3698,63
503,18	3444,68
503,38	3147,73
503,59	2877,40
503,79	2656,22
503,99	2568,15
504,19	2371,55
504,39	2256,86
504,59	2179,04
504,79	2090,98
504,99	2052,06
505,19	1865,70
505,39	1945,57
505,59	1970,15
505,79	1964,00
505,99	1832,93
506,19	1841,12
506,39	1816,55
506,59	1814,50
506,79	1765,35
506,99	1871,84
507,19	1753,06
507,39	1796,07
507,59	1730,53
507,79	1662,95
507,99	1689,57
508,19	1726,44
508,39	1751,01
508,59	1722,34
508,79	1857,51
508,99	1849,32
509,19	1660,90
509,39	1746,92
509,59	1669,09
509,79	1701,86
509,99	1820,64
510,19	1812,45
510,39	1873,89
510,59	1746,92
510,79	1681,38
510,99	1697,77
511,19	1779,68
511,39	1826,79
511,59	1757,16
511,79	1767,40
511,99	1703,91
512,19	1808,36
512,38	1730,53
512,58	1665,00
512,78	1771,49
512,98	1832,93
513,18	1828,84
513,38	1720,29
513,58	1824,74
513,78	1769,44
513,98	1720,29
514,18	1746,92
514,38	1796,07
514,58	1744,87
514,78	1665,00
514,98	1654,76
515,18	1701,86
515,38	1740,77
515,58	1837,03
515,78	1703,91
515,98	1757,16
516,18	1759,21
516,38	1722,34
516,57	1779,68
516,77	1708,01
516,97	1656,81
517,17	1646,57
517,37	1695,72
517,57	1837,03
517,77	1753,06
517,97	1755,11
518,17	1765,35
518,37	1705,96
518,57	1648,61
518,77	1730,53
518,97	1740,77
519,16	1675,24
519,36	1779,68
519,56	1720,29
519,76	1705,96
519,96	1783,78
520,16	1871,84
520,36	1601,51
520,56	1794,02
520,76	1755,11
520,96	1710,05
521,16	1791,97
521,35	1751,01
521,55	1861,60
521,75	1748,97
521,95	1705,96
522,15	1712,10
522,35	1656,81
522,55	1673,19
522,75	1824,74
522,95	1771,49
523,14	1728,49
523,34	1738,73
523,54	1681,38
523,74	1779,68
523,94	1761,25
524,14	1642,47
524,34	1783,78
524,54	1845,22
524,73	1730,53
524,93	1718,25
525,13	1759,21
525,33	1683,43
525,53	1855,46
525,73	1824,74
525,93	1759,21
526,13	1658,85
526,32	1777,64
526,52	1771,49
526,72	1804,26
526,92	1712,10
527,12	1724,39
527,32	1613,80
527,52	1681,38
527,71	1769,44
527,91	1732,58
528,11	1734,63
528,31	1759,21
528,51	1662,95
528,71	1834,98
528,90	1732,58
529,10	1849,32
529,30	1851,36
529,50	1665,00
529,70	1697,77
529,90	1779,68
530,09	1671,14
530,29	1683,43
530,49	1734,63
530,69	1863,65
530,89	1746,92
531,09	1798,12
531,28	1697,77
531,48	1814,50
531,68	1753,06
531,88	1787,88
532,08	1746,92
532,28	1648,61
532,47	1775,59
532,67	1736,68
532,87	1746,92
533,07	1677,29
533,27	1757,16
533,46	1837,03
533,66	1773,54
533,86	1751,01
534,06	1757,16
534,26	1718,25
534,45	1710,05
534,65	1769,44
534,85	1789,92
535,05	1673,19
535,25	1787,88
535,44	1734,63
535,64	1738,73
535,84	1728,49
536,04	1689,57
536,24	1640,42
536,43	1722,34
536,63	1789,92
536,83	1740,77
537,03	1779,68
537,22	1583,08
537,42	1718,25
537,62	1759,21
537,82	1781,73
538,02	1785,83
538,21	1892,32
538,41	1814,50
538,61	1804,26
538,81	1718,25
539,00	1816,55
539,20	1671,14
539,40	1685,48
539,60	1667,05
539,79	1808,36
539,99	1681,38
540,19	1757,16
540,39	1769,44
540,58	1824,74
540,78	1847,27
540,98	1761,25
541,18	1771,49
541,37	1779,68
541,57	1736,68
541,77	1775,59
541,97	1673,19
542,16	1644,52
542,36	1673,19
542,56	1826,79
542,76	1853,41
542,95	1755,11
543,15	1843,17
543,35	1806,31
543,54	1652,71
543,74	1660,90
543,94	1777,64
544,14	1681,38
544,33	1824,74
544,53	1765,35
544,73	1710,05
544,93	1703,91
545,12	1677,29
545,32	1732,58
545,52	1714,15
545,71	1685,48
545,91	1689,57
546,11	1746,92
546,30	1716,20
546,50	1736,68
546,70	1759,21
546,90	1734,63
547,09	1619,94
547,29	1759,21
547,49	1781,73
547,68	1781,73
547,88	1736,68
548,08	1736,68
548,27	2220,00
548,47	1689,57
548,67	1716,20
548,87	1880,04
549,06	1781,73
549,26	1757,16
549,46	1744,87
549,65	1718,25
549,85	1773,54
550,05	1738,73
550,24	1626,09
550,44	1738,73
550,64	1712,10
550,83	1767,40
551,03	1830,88
551,23	1746,92
551,42	1761,25
551,62	1714,15
551,82	1705,96
552,01	1771,49
552,21	1837,03
552,41	1740,77
552,60	1843,17
552,80	1783,78
553,00	1724,39
553,19	1726,44
553,39	1927,14
553,59	1691,62
553,78	1716,20
553,98	1789,92
554,17	1667,05
554,37	1826,79
554,57	1740,77
554,76	1701,86
554,96	1728,49
555,16	1834,98
555,35	1771,49
555,55	1800,16
555,75	1736,68
555,94	1791,97
556,14	1640,42
556,33	1773,54
556,53	1777,64
556,73	1660,90
556,92	1710,05
557,12	1779,68
557,32	1910,75
557,51	1877,99
557,71	1822,69
557,90	1941,47
558,10	1853,41
558,30	1609,70
558,49	1705,96
558,69	1755,11
558,88	1744,87
559,08	1771,49
559,28	1812,45
559,47	1761,25
559,67	1798,12
559,86	1853,41
560,06	1822,69
560,26	1796,07
560,45	1703,91
560,65	1781,73
560,84	1779,68
561,04	1710,05
561,24	1769,44
561,43	1732,58
561,63	1873,89
561,82	1834,98
562,02	1875,94
562,22	1716,20
562,41	1673,19
562,61	1730,53
562,80	1728,49
563,00	1912,80
563,19	1751,01
563,39	1800,16
563,59	1812,45
563,78	1630,18
563,98	1634,28
564,17	1814,50
564,37	1650,66
564,56	1726,44
564,76	1718,25
564,96	1857,51
565,15	1693,67
565,35	1867,75
565,54	1765,35
565,74	1765,35
565,93	1679,33
566,13	1777,64
566,32	1701,86
566,52	1863,65
566,71	1728,49
566,91	1773,54
567,11	1771,49
567,30	1738,73
567,50	1699,81
567,69	1751,01
567,89	1800,16
568,08	1740,77
568,28	1738,73
568,47	1726,44
568,67	1781,73
568,86	1748,97
569,06	1798,12
569,25	1734,63
569,45	1683,43
569,64	1714,15
569,84	1775,59
570,04	1734,63
570,23	1669,09
570,43	1763,30
570,62	1775,59
570,82	1839,08
571,01	1738,73
571,21	1697,77
571,40	1667,05
571,60	1826,79
571,79	1808,36
571,99	1740,77
572,18	1728,49
572,38	1791,97
572,57	1701,86
572,77	1755,11
572,96	1791,97
573,16	1751,01
573,35	1712,10
573,55	1824,74
573,74	1777,64
573,94	1736,68
574,13	1689,57
574,33	1826,79
574,52	1820,64
574,71	1683,43
574,91	1794,02
575,10	1681,38
575,30	1708,01
575,49	1689,57
575,69	1716,20
575,88	1720,29
576,08	1789,92
576,27	1863,65
576,47	1769,44
576,66	1789,92
576,86	1814,50
577,05	1800,16
577,25	1841,12
577,44	1882,08
577,64	1722,34
577,83	1871,84
578,02	1701,86
578,22	1857,51
578,41	1824,74
578,61	1726,44
578,80	1734,63
579,00	1816,55
579,19	1755,11
579,39	1779,68
579,58	1830,88
579,77	1724,39
579,97	1869,80
580,16	1804,26
580,36	1853,41
580,55	1783,78
580,75	1824,74
580,94	1701,86
581,13	1877,99
581,33	1800,16
581,52	1738,73
581,72	1837,03
581,91	1839,08
582,11	1763,30
582,30	1814,50
582,49	1816,55
582,69	1755,11
582,88	1798,12
583,08	1781,73
583,27	1730,53
583,47	1746,92
583,66	1687,53
583,85	1738,73
584,05	1779,68
584,24	1785,83
584,44	1814,50
584,63	1877,99
584,82	1882,08
585,02	1830,88
585,21	1877,99
585,41	1804,26
585,60	1816,55
585,79	1880,04
585,99	1959,91
586,18	1925,09
586,37	2230,24
586,57	3438,54
586,76	10049,38
586,96	24309,39
587,15	34672,11
587,34	40525,21
587,54	42026,37
587,73	36802,00
587,93	26113,65
588,12	21444,28
588,31	18126,57
588,51	16508,68
588,70	15103,77
588,89	14272,29
589,09	12568,38
589,28	10991,45
589,47	9389,94
589,67	7913,35
589,86	6315,94
590,06	4925,36
590,25	3909,57
590,44	3090,38
590,64	2623,45
590,83	2217,95
591,02	2148,32
591,22	1888,23
591,41	1890,28
591,60	1943,52
591,80	1929,19
591,99	1755,11
592,18	1730,53
592,38	1947,62
592,57	1845,22
592,76	1769,44
592,96	1761,25
593,15	1812,45
593,34	1783,78
593,54	1744,87
593,73	1751,01
593,92	1730,53
594,12	1691,62
594,31	1812,45
594,50	1832,93
594,70	1828,84
594,89	1826,79
595,08	1732,58
595,28	1755,11
595,47	1916,90
595,66	1724,39
595,86	1687,53
596,05	1773,54
596,24	1726,44
596,43	1853,41
596,63	1796,07
596,82	1787,88
597,01	1769,44
597,21	1839,08
597,40	1785,83
597,59	1791,97
597,79	1791,97
597,98	1746,92
598,17	1763,30
598,36	1796,07
598,56	1746,92
598,75	1763,30
598,94	1734,63
599,14	1755,11
599,33	1724,39
599,52	1791,97
599,71	1798,12
599,91	1798,12
600,10	1787,88
600,29	1781,73
600,48	1796,07
600,68	1953,76
600,87	1726,44
601,06	1673,19
601,26	1785,83
601,45	1718,25
601,64	1755,11
601,83	1787,88
602,03	1744,87
602,22	1710,05
602,41	1824,74
602,60	1880,04
602,80	1789,92
602,99	1814,50
603,18	1701,86
603,37	1718,25
603,57	1699,81
603,76	1896,42
603,95	1744,87
604,14	1742,82
604,34	1755,11
604,53	1755,11
604,72	1642,47
604,91	1769,44
605,10	1759,21
605,30	1724,39
605,49	1832,93
605,68	1730,53
605,87	1771,49
606,07	1730,53
606,26	1830,88
606,45	1755,11
606,64	1755,11
606,84	1656,81
607,03	1798,12
607,22	1789,92
607,41	1642,47
607,60	1687,53
607,80	1740,77
607,99	1748,97
608,18	1734,63
608,37	1738,73
608,56	1677,29
608,76	1734,63
608,95	1839,08
609,14	1753,06
609,33	1738,73
609,52	1822,69
609,72	1806,31
609,91	1791,97
610,10	1763,30
610,29	1873,89
610,48	1730,53
610,68	1738,73
610,87	1767,40
611,06	1734,63
611,25	1699,81
611,44	1736,68
611,63	1701,86
611,83	1837,03
612,02	1705,96
612,21	1812,45
612,40	1583,08
612,59	1685,48
612,79	1687,53
612,98	1785,83
613,17	1859,56
613,36	1794,02
613,55	1826,79
613,74	1632,23
613,93	1687,53
614,13	1791,97
614,32	1748,97
614,51	1787,88
614,70	1689,57
614,89	1757,16
615,08	1763,30
615,28	2054,11
615,47	1681,38
615,66	1722,34
615,85	1779,68
616,04	1865,70
616,23	1730,53
616,42	1675,24
616,62	1763,30
616,81	1755,11
617,00	1744,87
617,19	1767,40
617,38	1779,68
617,57	1830,88
617,76	1759,21
617,95	1722,34
618,15	1724,39
618,34	1783,78
618,53	1648,61
618,72	1783,78
618,91	1796,07
619,10	1857,51
619,29	1722,34
619,48	1787,88
619,68	1642,47
619,87	1685,48
620,06	1671,14
620,25	1816,55
620,44	1701,86
620,63	1722,34
620,82	1751,01
621,01	1798,12
621,20	1689,57
621,39	1753,06
621,59	1751,01
621,78	1757,16
621,97	1746,92
622,16	1781,73
622,35	1783,78
622,54	1861,60
622,73	1839,08
622,92	1681,38
623,11	1779,68
623,30	1701,86
623,49	1777,64
623,68	1722,34
623,88	1798,12
624,07	1710,05
624,26	1667,05
624,45	1722,34
624,64	1771,49
624,83	1787,88
625,02	1703,91
625,21	1697,77
625,40	1748,97
625,59	1902,56
625,78	1697,77
625,97	1748,97
626,16	1837,03
626,35	1767,40
626,54	1726,44
626,74	1746,92
626,93	1710,05
627,12	1677,29
627,31	1738,73
627,50	1716,20
627,69	1767,40
627,88	1708,01
628,07	1697,77
628,26	1671,14
628,45	1705,96
628,64	1724,39
628,83	1802,21
629,02	1611,75
629,21	1814,50
629,40	1738,73
629,59	1697,77
629,78	1705,96
629,97	1718,25
630,16	1734,63
630,35	1716,20
630,54	1759,21
630,73	1628,14
630,92	1757,16
631,11	1648,61
631,30	1685,48
631,49	1781,73
631,68	1777,64
631,87	1794,02
632,06	1695,72
632,25	1841,12
632,44	1755,11
632,63	1761,25
632,82	1681,38
633,01	1748,97
633,20	1714,15
633,39	1673,19
633,58	1656,81
633,77	1728,49
633,96	1730,53
634,15	1794,02
634,34	1783,78
634,53	1800,16
634,72	1658,85
634,91	1712,10
635,10	1718,25
635,29	1804,26
635,48	1755,11
635,67	1685,48
635,86	1619,94
636,05	1857,51
636,24	1746,92
636,43	1691,62
636,62	1742,82
636,81	1587,18
637,00	1712,10
637,19	1755,11
637,38	1794,02
637,57	1695,72
637,76	1730,53
637,95	1769,44
638,14	1738,73
638,33	1693,67
638,52	1767,40
638,71	1720,29
638,89	1665,00
639,08	1761,25
639,27	1777,64
639,46	1722,34
639,65	1814,50
639,84	1697,77
640,03	1839,08
640,22	1730,53
640,41	1810,40
640,60	1677,29
640,79	1755,11
640,98	1675,24
641,17	1810,40
641,36	1722,34
641,55	1740,77
641,74	1689,57
641,92	1697,77
642,11	1665,00
642,30	1681,38
642,49	1703,91
642,68	1642,47
642,87	1742,82
643,06	1769,44
643,25	1732,58
643,44	1609,70
643,63	1759,21
643,82	1759,21
644,00	1611,75
644,19	1765,35
644,38	1708,01
644,57	1814,50
644,76	1726,44
644,95	1652,71
645,14	1771,49
645,33	1757,16
645,52	1691,62
645,71	1699,81
645,89	1677,29
646,08	1703,91
646,27	1652,71
646,46	1861,60
646,65	1607,66
646,84	1773,54
647,03	1603,56
647,22	1738,73
647,40	1775,59
647,59	1734,63
647,78	1638,38
647,97	1779,68
648,16	1658,85
648,35	1812,45
648,54	1773,54
648,73	1677,29
648,91	1726,44
649,10	1738,73
649,29	1613,80
649,48	1787,88
649,67	1726,44
649,86	1775,59
650,05	1656,81
650,23	1794,02
650,42	1679,33
650,61	1710,05
650,80	1697,77
650,99	1902,56
651,18	1740,77
651,36	1773,54
651,55	1742,82
651,74	1781,73
651,93	1685,48
652,12	1654,76
652,31	1712,10
652,49	1730,53
652,68	1716,20
652,87	1763,30
653,06	1726,44
653,25	1732,58
653,44	1701,86
653,62	1824,74
653,81	1773,54
654,00	1734,63
654,19	1773,54
654,38	1882,08
654,56	1798,12
654,75	1726,44
654,94	1761,25
655,13	1746,92
655,32	1748,97
655,51	1779,68
655,69	1658,85
655,88	1787,88
656,07	1677,29
656,26	1779,68
656,45	1697,77
656,63	1660,90
656,82	1781,73
657,01	1761,25
657,20	1712,10
657,38	1804,26
657,57	1691,62
657,76	1714,15
657,95	1748,97
658,14	1755,11
658,32	1757,16
658,51	1624,04
658,70	1718,25
658,89	1738,73
659,08	1671,14
659,26	1769,44
659,45	1642,47
659,64	1673,19
659,83	1665,00
660,01	1896,42
660,20	1826,79
660,39	1830,88
660,58	1558,50
660,76	1812,45
660,95	1710,05
661,14	1722,34
661,33	1691,62
661,51	1759,21
661,70	1642,47
661,89	1751,01
662,08	1751,01
662,26	1728,49
662,45	1691,62
662,64	1871,84
662,83	1779,68
663,01	1636,33
663,20	1695,72
663,39	1808,36
663,58	1683,43
663,76	1775,59
663,95	1847,27
664,14	1660,90
664,32	1691,62
664,51	1738,73
664,70	1654,76
664,89	1781,73
665,07	1646,57
665,26	1816,55
665,45	1652,71
665,64	1789,92
665,82	1773,54
666,01	1787,88
666,20	1714,15
666,38	1861,60
666,57	1796,07
666,76	2217,95
666,95	4652,98
667,13	10665,82
667,32	15372,05
667,51	17968,88
667,69	19255,00
667,88	17641,20
668,07	12269,38
668,25	9508,72
668,44	8157,06
668,63	7464,85
668,81	6911,89
669,00	6207,39
669,19	5754,79
669,38	5140,40
669,56	4609,98
669,75	3987,40
669,94	3420,11
670,12	2901,97
670,31	2494,43
670,50	2338,78
670,68	2054,11
670,87	1914,85
671,06	1832,93
671,24	1812,45
671,43	1818,60
671,62	1822,69
671,80	1675,24
671,99	1740,77
672,18	1730,53
672,36	1832,93
672,55	1673,19
672,74	1677,29
672,92	1681,38
673,11	1734,63
673,29	1671,14
673,48	1832,93
673,67	1673,19
673,85	1796,07
674,04	1673,19
674,23	1740,77
674,41	1796,07
674,60	1626,09
674,79	1673,19
674,97	1710,05
675,16	1720,29
675,34	1722,34
675,53	1751,01
675,72	1771,49
675,90	1736,68
676,09	1722,34
676,28	1640,42
676,46	1699,81
676,65	1710,05
676,83	1675,24
677,02	1730,53
677,21	1669,09
677,39	1804,26
677,58	1638,38
677,77	1662,95
677,95	1710,05
678,14	1667,05
678,32	1746,92
678,51	1624,04
678,70	1830,88
678,88	1724,39
679,07	1681,38
679,25	1650,66
679,44	1669,09
679,63	1679,33
679,81	1708,01
680,00	1779,68
680,18	1730,53
680,37	1722,34
680,55	1726,44
680,74	1650,66
680,93	1636,33
681,11	1697,77
681,30	1689,57
681,48	1738,73
681,67	1642,47
681,85	1716,20
682,04	1708,01
682,23	1804,26
682,41	1759,21
682,60	1773,54
682,78	1667,05
682,97	1662,95
683,15	1724,39
683,34	1757,16
683,53	1789,92
683,71	1628,14
683,90	1834,98
684,08	1804,26
684,27	1675,24
684,45	1761,25
684,64	1839,08
684,82	1689,57
685,01	1789,92
685,19	1775,59
685,38	1761,25
685,57	1724,39
685,75	1660,90
685,94	1748,97
686,12	1693,67
686,31	1695,72
686,49	1882,08
686,68	1667,05
686,86	1746,92
687,05	1765,35
687,23	1847,27
687,42	1710,05
687,60	1632,23
687,79	1789,92
687,97	1779,68
688,16	1800,16
688,34	1839,08
688,53	1669,09
688,71	1742,82
688,90	1771,49
689,08	1710,05
689,27	1685,48
689,45	1777,64
689,64	1730,53
689,82	1691,62
690,01	1734,63
690,19	1755,11
690,38	1724,39
690,56	1894,37
690,75	1591,27
690,93	1658,85
691,12	1701,86
691,30	1726,44
691,49	1636,33
691,67	1677,29
691,86	1816,55
692,04	1720,29
692,23	1656,81
692,41	1705,96
692,60	1746,92
692,78	1732,58
692,97	1757,16
693,15	1771,49
693,34	1847,27
693,52	1724,39
693,71	1646,57
693,89	1658,85
694,08	1617,90
694,26	1726,44
694,44	1746,92
694,63	1800,16
694,81	1587,18
695,00	1662,95
695,18	1798,12
695,37	1918,95
695,55	1693,67
695,74	1683,43
695,92	1699,81
696,10	1740,77
696,29	1669,09
696,47	1759,21
696,66	1673,19
696,84	1628,14
697,03	1685,48
697,21	1937,38
697,40	2263,01
697,58	1814,50
697,76	1628,14
697,95	1701,86
698,13	1679,33
698,32	1724,39
698,50	1679,33
698,68	1816,55
698,87	1724,39
699,05	1808,36
699,24	1775,59
699,42	1665,00
699,61	1701,86
699,79	1738,73
699,97	1757,16
700,16	1685,48
700,34	1624,04
700,53	1742,82
700,71	1824,74
700,89	1718,25
701,08	1759,21
701,26	1759,21
701,45	2093,02
701,63	1681,38
701,81	1705,96
702,00	1605,61
702,18	1734,63
702,37	1665,00
702,55	1865,70
702,73	1701,86
702,92	1683,43
703,10	1759,21
703,28	1791,97
703,47	1718,25
703,65	1804,26
703,84	1777,64
704,02	1634,28
704,20	1767,40
704,39	1665,00
704,57	1621,99
704,75	1796,07
704,94	1689,57
705,12	1757,16
705,30	1841,12
705,49	2275,29
705,67	4577,21
705,86	9420,66
706,04	12668,73
706,22	14483,24
706,41	15357,72
706,59	13594,42
706,77	9686,89
706,96	7401,36
707,14	6391,71
707,32	5869,48
707,51	5486,51
707,69	4872,12
707,87	4188,10
708,06	3579,85
708,24	2959,31
708,42	2439,13
708,61	2162,66
708,79	1927,14
708,97	1894,37
709,16	1828,84
709,34	1789,92
709,52	1718,25
709,71	1736,68
709,89	1759,21
710,07	1675,24
710,26	1714,15
710,44	1689,57
710,62	1724,39
710,80	1777,64
710,99	1775,59
711,17	1787,88
711,35	1730,53
711,54	1636,33
711,72	1785,83
711,90	1746,92
712,09	1765,35
712,27	1613,80
712,45	1689,57
712,63	1718,25
712,82	1728,49
713,00	1689,57
713,18	1757,16
713,37	1730,53
713,55	1732,58
713,73	1759,21
713,91	1718,25
714,10	1589,22
714,28	1667,05
714,46	1820,64
714,65	1728,49
714,83	1771,49
715,01	1720,29
715,19	1744,87
715,38	1640,42
715,56	1753,06
715,74	1732,58
715,92	1667,05
716,11	1791,97
716,29	1722,34
716,47	1740,77
716,65	1703,91
716,84	1703,91
717,02	1730,53
717,20	1581,03
717,38	1691,62
717,57	1773,54
717,75	1724,39
717,93	1632,23
718,11	1738,73
718,30	1656,81
718,48	1689,57
718,66	1773,54
718,84	1800,16
719,03	1714,15
719,21	1621,99
719,39	1791,97
719,57	1798,12
719,75	1705,96
719,94	1705,96
720,12	1720,29
720,30	1658,85
720,48	1744,87
720,67	1658,85
720,85	1626,09
721,03	1701,86
721,21	1640,42
721,39	1783,78
721,58	1701,86
721,76	1757,16
721,94	1769,44
722,12	1724,39
722,30	1800,16
722,49	1697,77
722,67	1826,79
722,85	1720,29
723,03	1646,57
723,21	1669,09
723,40	1726,44
723,58	1763,30
723,76	1710,05
723,94	1843,17
724,12	1785,83
724,30	1845,22
724,49	1724,39
724,67	1652,71
724,85	1779,68
725,03	1691,62
725,21	1822,69
725,40	1796,07
725,58	1671,14
725,76	1845,22
725,94	1794,02
726,12	1609,70
726,30	1753,06
726,49	1742,82
726,67	1652,71
726,85	1714,15
727,03	1783,78
727,21	2314,20
727,39	3061,71
727,57	3708,87
727,76	4214,72
727,94	4536,25
728,12	4239,30
728,30	3768,26
728,48	3037,14
728,66	2711,51
728,84	2633,69
729,03	2355,16
729,21	2213,85
729,39	2045,92
729,57	1890,28
729,75	1783,78
729,93	1841,12
730,11	1671,14
730,30	1656,81
730,48	1697,77
730,66	1855,46
730,84	1775,59
731,02	1687,53
731,20	1652,71
731,38	1765,35
731,56	1583,08
731,74	1646,57
731,93	1730,53
732,11	1773,54
732,29	1724,39
732,47	1681,38
732,65	1609,70
732,83	1765,35
733,01	1724,39
733,19	1634,28
733,37	1693,67
733,56	1722,34
733,74	1716,20
733,92	1837,03
734,10	1732,58
734,28	1775,59
734,46	1640,42
734,64	1693,67
734,82	1710,05
735,00	1642,47
735,18	1703,91
735,36	1722,34
735,54	1738,73
735,73	1730,53
735,91	1789,92
736,09	1734,63
736,27	1697,77
736,45	1693,67
736,63	1595,37
736,81	1671,14
736,99	1796,07
737,17	1759,21
737,35	1755,11
737,53	1730,53
737,71	1677,29
737,89	1734,63
738,07	1710,05
738,25	1648,61
738,43	1640,42
738,61	1712,10
738,80	1619,94
738,98	1632,23
739,16	1658,85
739,34	1671,14
739,52	1824,74
739,70	1710,05
739,88	1771,49
740,06	1837,03
740,24	1566,70
740,42	1775,59
740,60	1607,66
740,78	1681,38
740,96	1660,90
741,14	1699,81
741,32	1703,91
741,50	1656,81
741,68	1828,84
741,86	1779,68
742,04	1593,32
742,22	1634,28
742,40	1765,35
742,58	1783,78
742,76	1656,81
742,94	1927,14
743,12	1656,81
743,30	1751,01
743,48	1816,55
743,66	1685,48
743,84	1697,77
744,02	1636,33
744,20	1689,57
744,38	1679,33
744,56	1705,96
744,74	1769,44
744,92	1748,97
745,10	1812,45
745,28	1845,22
745,46	1689,57
745,64	1769,44
745,82	1742,82
746,00	1738,73
746,18	1734,63
746,36	1705,96
746,54	1726,44
746,72	1703,91
746,90	1710,05
747,08	1771,49
747,26	1613,80
747,44	1802,21
747,62	1742,82
747,80	1730,53
747,98	1753,06
748,15	1701,86
748,33	1730,53
748,51	1732,58
748,69	1759,21
748,87	1660,90
749,05	1683,43
749,23	1701,86
749,41	1757,16
749,59	1767,40
749,77	1775,59
749,95	1687,53
750,13	1656,81
750,31	1783,78
750,49	1712,10
750,67	1767,40
750,85	1748,97
751,03	1677,29
751,20	1808,36
751,38	1796,07
751,56	1685,48
751,74	1757,16
751,92	1671,14
752,10	1648,61
752,28	1816,55
752,46	1689,57
752,64	1734,63
752,82	1697,77
753,00	1748,97
753,18	1683,43
753,35	1648,61
753,53	1722,34
753,71	1677,29
753,89	1771,49
754,07	1720,29
754,25	1724,39
754,43	1769,44
754,61	1609,70
754,79	1732,58
754,97	1703,91
755,14	1791,97
755,32	1660,90
755,50	1714,15
755,68	1748,97
755,86	1656,81
756,04	1671,14
756,22	1644,52
756,40	1791,97
756,57	1777,64
756,75	1695,72
756,93	1822,69
757,11	1830,88
757,29	1611,75
757,47	1652,71
757,65	1634,28
757,82	1576,94
758,00	1636,33
758,18	1708,01
758,36	1687,53
758,54	1810,40
758,72	1679,33
758,90	1767,40
759,07	1787,88
759,25	1669,09
759,43	1843,17
759,61	1593,32
759,79	2252,77
759,97	1652,71
760,15	1763,30
760,32	1732,58
760,50	1740,77
760,68	1826,79
760,86	1689,57
761,04	1757,16
761,22	1806,31
761,39	1669,09
761,57	1800,16
761,75	1683,43
761,93	1748,97
762,11	1705,96
762,28	1708,01
762,46	1724,39
762,64	1759,21
762,82	1638,38
763,00	1679,33
763,18	1759,21
763,35	1724,39
763,53	1730,53
763,71	1802,21
763,89	1757,16
764,07	1708,01
764,24	1693,67
764,42	1740,77
764,60	1693,67
764,78	1722,34
764,96	1775,59
765,13	1857,51
765,31	1665,00
765,49	1771,49
765,67	1560,55
765,84	1679,33
766,02	1636,33
766,20	1693,67
766,38	1718,25
766,56	1730,53
766,73	1773,54
766,91	1648,61
767,09	1708,01
767,27	1714,15
767,44	1681,38
767,62	1818,60
767,80	1775,59
767,98	1759,21
768,15	1708,01
768,33	1732,58
768,51	1730,53
768,69	1783,78
768,87	1722,34
769,04	1730,53
769,22	1863,65
769,40	1828,84
769,58	1839,08
769,75	1710,05
769,93	1767,40
770,11	1648,61
770,28	1578,98
770,46	1769,44
770,64	1718,25
770,82	1724,39
770,99	1746,92
771,17	1761,25
771,35	1708,01
771,53	1712,10
771,70	1775,59
771,88	1771,49
772,06	1695,72
772,23	1701,86
772,41	1767,40
772,59	1742,82
772,77	1662,95
772,94	1720,29
773,12	1716,20
773,30	1656,81
773,47	1736,68
773,65	1736,68
773,83	1877,99
774,01	1744,87
774,18	1662,95
774,36	1748,97
774,54	1685,48
774,71	1775,59
774,89	1644,52
775,07	1613,80
775,24	1714,15
775,42	1640,42
775,60	1755,11
775,78	1693,67
775,95	1718,25
776,13	1628,14
776,31	1517,54
776,48	1710,05
776,66	1740,77
776,84	1656,81
777,01	1675,24
777,19	1685,48
777,37	1689,57
777,54	1742,82
777,72	1837,03
777,90	1736,68
778,07	1624,04
778,25	1955,81
778,43	1716,20
778,60	1748,97
778,78	1738,73
778,96	1759,21
779,13	1652,71
779,31	1710,05
779,49	1697,77
779,66	1804,26
779,84	1691,62
780,01	1755,11
780,19	1724,39
780,37	1804,26
780,54	1744,87
780,72	1626,09
780,90	1748,97
781,07	1662,95
781,25	1689,57
781,43	1771,49
781,60	1730,53
781,78	1757,16
781,95	1699,81
782,13	1705,96
782,31	1718,25
782,48	1564,65
782,66	1765,35
782,83	1791,97
783,01	1771,49
783,19	1732,58
783,36	1736,68
783,54	1574,89
783,72	1763,30
783,89	1726,44
784,07	1662,95
784,24	1667,05
784,42	1824,74
784,60	1730,53
784,77	1720,29
784,95	1564,65
785,12	1708,01
785,30	1677,29
785,47	1724,39
785,65	1648,61
785,83	1673,19
786,00	1662,95
786,18	1746,92
786,35	1619,94
786,53	1570,79
786,71	1779,68
786,88	1681,38
787,06	1726,44
787,23	1656,81
787,41	1621,99
787,58	1779,68
787,76	1685,48
787,94	1701,86
788,11	1710,05
788,29	1652,71
788,46	1673,19
788,64	1607,66
788,81	1673,19
788,99	1673,19
789,16	1660,90
789,34	1736,68
789,52	1595,37
789,69	1718,25
789,87	1593,32
790,04	1630,18
790,22	1773,54
790,39	1802,21
790,57	1673,19
790,74	1626,09
790,92	1720,29
791,09	1646,57
791,27	1617,90
791,44	1806,31
791,62	1689,57
791,79	1769,44
791,97	1726,44
792,15	1898,47
792,32	1740,77
792,50	1771,49
792,67	1808,36
792,85	1796,07
793,02	1742,82
793,20	1693,67
793,37	1626,09
793,55	1689,57
793,72	1591,27
793,90	1759,21
794,07	1722,34
794,25	1763,30
794,42	1742,82
794,60	1675,24
794,77	1767,40
794,95	1685,48
795,12	1759,21
795,30	1714,15
795,47	1691,62
795,65	1861,60
795,82	1751,01
796,00	1648,61
796,17	1757,16
796,34	1673,19
796,52	1787,88
796,69	1705,96
796,87	1740,77
797,04	1718,25
797,22	1718,25
797,39	1708,01
797,57	1796,07
797,74	1695,72
797,92	1669,09
798,09	1667,05
798,27	1720,29
798,44	1658,85
798,62	1619,94
798,79	1675,24
798,96	1662,95
799,14	1669,09
799,31	1886,18
799,49	1695,72
799,66	1722,34
799,84	1681,38
800,01	1691,62
800,19	1800,16
800,36	1642,47
800,53	1660,90
800,71	1695,72
800,88	1812,45
801,06	1638,38
801,23	1609,70
801,41	1710,05
801,58	1708,01
801,75	1634,28
801,93	1740,77
802,10	1757,16
802,28	1712,10
802,45	1685,48
802,63	1787,88
802,80	1857,51
802,97	1675,24
803,15	1736,68
803,32	1665,00
803,50	1693,67
803,67	1624,04
803,84	1675,24
804,02	1765,35
804,19	1705,96
804,37	1644,52
804,54	1648,61
804,71	1683,43
804,89	1679,33
805,06	1658,85
805,24	1550,31
805,41	1695,72
805,58	1714,15
805,76	1828,84
805,93	1718,25
806,10	1777,64
806,28	1734,63
806,45	1771,49
806,63	1708,01
806,80	1738,73
806,97	1789,92
807,15	1673,19
807,32	1679,33
807,49	1738,73
807,67	1665,00
807,84	1685,48
808,01	1632,23
808,19	1824,74
808,36	1863,65
808,54	1689,57
808,71	1652,71
808,88	1742,82
809,06	1722,34
809,23	1798,12
809,40	1734,63
809,58	1755,11
809,75	1687,53
809,92	1640,42
810,10	1841,12
810,27	1695,72
810,44	1728,49
810,62	1732,58
810,79	1724,39
810,96	1677,29
811,14	1691,62
811,31	1744,87
811,48	1779,68
811,66	1703,91
811,83	1775,59
812,00	1705,96
812,18	1697,77
812,35	1845,22
812,52	1726,44
812,69	1703,91
812,87	1640,42
813,04	1738,73
813,21	1658,85
813,39	1626,09
813,56	1669,09
813,73	1753,06
813,91	1708,01
814,08	1716,20
814,25	1755,11
814,42	1613,80
814,60	1710,05
814,77	1763,30
814,94	1734,63
815,12	1740,77
815,29	1841,12
815,46	1726,44
815,63	1701,86
815,81	1673,19
815,98	1613,80
816,15	1708,01
816,33	1800,16
816,50	1742,82
816,67	1800,16
816,84	1722,34
817,02	1681,38
817,19	1740,77
817,36	1757,16
817,53	1656,81
817,71	1677,29
817,88	1771,49
818,05	1695,72
818,22	1722,34
818,40	1791,97
818,57	1675,24
818,74	1779,68
818,91	1705,96
819,09	1669,09
819,26	1796,07
819,43	1640,42
819,60	1732,58
819,78	1806,31
819,95	1841,12
820,12	1767,40
820,29	1748,97
820,47	1804,26
820,64	1634,28
820,81	1667,05
820,98	1677,29
821,15	1646,57
821,33	1705,96
821,50	1703,91
821,67	1794,02
821,84	1689,57
822,02	1779,68
822,19	1775,59
822,36	1697,77
822,53	1671,14
822,70	1656,81
822,88	1744,87
823,05	1794,02
823,22	1660,90
823,39	1773,54
823,56	1783,78
823,74	1753,06
823,91	1701,86
824,08	1597,42
824,25	1757,16
824,42	1806,31
824,60	1636,33
824,77	1765,35
824,94	1679,33
825,11	1724,39
825,28	1644,52
825,45	1697,77
825,63	1755,11
825,80	1636,33
825,97	1748,97
826,14	1697,77
826,31	1667,05
826,48	1796,07
826,66	1691,62
826,83	1603,56
827,00	1685,48
827,17	1726,44
827,34	1697,77
827,51	1697,77
827,69	1673,19
827,86	1677,29
828,03	1765,35
828,20	1714,15
828,37	1665,00
828,54	1742,82
828,71	1673,19
828,89	1761,25
829,06	1767,40
829,23	1832,93
829,40	1671,14
829,57	1681,38
829,74	1779,68
829,91	1630,18
830,09	1703,91
830,26	1730,53
830,43	1757,16
830,60	1783,78
830,77	1697,77
830,94	1695,72
831,11	1830,88
831,28	1656,81
831,46	1794,02
831,63	1669,09
831,80	1789,92
831,97	1660,90
832,14	1712,10
832,31	1671,14
832,48	1765,35
832,65	1751,01
832,82	1771,49
832,99	1802,21
833,17	1658,85
833,34	1798,12
833,51	1746,92
833,68	1626,09
833,85	1779,68
834,02	1687,53
834,19	1677,29
834,36	1677,29
834,53	1787,88
834,70	1826,79
834,87	1771,49
835,04	1738,73
835,22	1701,86
835,39	1654,76
835,56	1703,91
835,73	1746,92
835,90	1775,59
836,07	1669,09
836,24	1781,73
836,41	1714,15
836,58	1654,76
836,75	1665,00
836,92	1669,09
837,09	1718,25
837,26	1714,15
837,43	1660,90
837,60	1740,77
837,77	1632,23
837,94	1757,16
838,12	1753,06
838,29	1695,72
838,46	1611,75
838,63	1626,09
838,80	1742,82
838,97	1777,64
839,14	1712,10
839,31	1615,85
839,48	1732,58
839,65	1714,15
839,82	1691,62
839,99	1679,33
840,16	1732,58
840,33	1689,57
840,50	1742,82
840,67	1718,25
840,84	1490,92
841,01	1605,61
841,18	1642,47
841,35	1794,02
841,52	1796,07
841,69	1748,97
841,86	1699,81
842,03	1685,48
842,20	1755,11
842,37	1726,44
842,54	1738,73
842,71	1632,23
842,88	1638,38
843,05	1798,12
843,22	1662,95
843,39	1779,68
843,56	1746,92
843,73	1779,68
843,90	1712,10
844,07	1746,92
844,24	1738,73
844,41	1775,59
844,58	1716,20
844,75	1669,09
844,92	1794,02
845,09	1697,77
845,26	1662,95
845,43	1705,96
845,60	1730,53
845,77	1763,30
845,94	1689,57
846,10	1697,77
846,27	1615,85
846,44	1669,09
846,61	1636,33
846,78	1736,68
846,95	1753,06
847,12	1699,81
847,29	1677,29
847,46	1644,52
847,63	1834,98
847,80	1703,91
847,97	1701,86
848,14	1861,60
848,31	1755,11
848,48	1544,17
848,65	1658,85
848,82	1593,32
848,98	1853,41
849,15	1640,42
849,32	1802,21
849,49	1728,49
849,66	1658,85
849,83	1753,06
850,00	1650,66
850,17	1705,96
850,34	1640,42
850,51	1697,77
850,68	1667,05
850,85	1810,40
851,01	1742,82
851,18	1697,77
851,35	1689,57
851,52	1738,73
851,69	1783,78
851,86	1683,43
852,03	1677,29
852,20	1759,21
852,37	1705,96
852,53	1621,99
852,70	1705,96
852,87	1628,14
853,04	1828,84
853,21	1746,92
853,38	1759,21
853,55	1804,26
853,72	1875,94
853,89	1626,09
854,05	1724,39
854,22	1742,82
854,39	1687,53
854,56	1771,49
854,73	1689,57
854,90	1677,29
855,07	1742,82
855,23	1710,05
855,40	1669,09
855,57	1724,39
855,74	1660,90
855,91	1830,88
856,08	1691,62
856,25	1566,70
856,41	1718,25
856,58	1695,72
856,75	1734,63
856,92	1617,90
857,09	1830,88
857,26	1673,19
857,42	1730,53
857,59	1753,06
857,76	1757,16
857,93	1710,05
858,10	1724,39
858,27	1710,05
858,43	1757,16
858,60	1681,38
858,77	1609,70
858,94	1685,48
859,11	1783,78
859,27	1636,33
859,44	1703,91
859,61	1759,21
859,78	1746,92
859,95	1718,25
860,12	1667,05
860,28	1775,59
860,45	1834,98
860,62	1691,62
860,79	1738,73
860,95	1669,09
861,12	1615,85
861,29	1658,85
861,46	1583,08
861,63	1726,44
861,79	1681,38
861,96	1703,91
862,13	1669,09
862,30	1804,26
862,47	1722,34
862,63	1665,00
862,80	1763,30
862,97	1808,36
863,14	1769,44
863,30	1724,39
863,47	1638,38
863,64	1806,31
863,81	1640,42
863,97	1675,24
864,14	1724,39
864,31	1714,15
864,48	1658,85
864,65	1705,96
864,81	1667,05
864,98	1732,58
865,15	1685,48
865,32	1699,81
865,48	1730,53
865,65	1777,64
865,82	1667,05
865,98	1683,43
866,15	1820,64
866,32	1662,95
866,49	1691,62
866,65	1855,46
866,82	1654,76
866,99	1716,20
867,16	1695,72
867,32	1624,04
867,49	1775,59
867,66	1644,52
867,83	1724,39
867,99	1595,37
868,16	1703,91
868,33	1660,90
868,49	1736,68
868,66	1685,48
868,83	1701,86
868,99	1720,29
869,16	1687,53
869,33	1738,73
869,50	1773,54
869,66	1685,48
869,83	1656,81
870,00	1658,85
870,16	1732,58
870,33	1662,95
870,50	1847,27
870,66	1669,09
870,83	1812,45
871,00	1746,92
871,17	1615,85
871,33	1714,15
871,50	1808,36
871,67	1716,20
871,83	1740,77
872,00	1775,59
872,17	1617,90
872,33	1771,49
872,50	1755,11
872,67	1593,32
872,83	1710,05
873,00	1724,39
873,17	1763,30
873,33	1796,07
873,50	1697,77
873,67	1726,44
873,83	1683,43
874,00	1746,92
874,16	1765,35
874,33	1714,15
874,50	1593,32
874,66	1783,78
874,83	1730,53
875,00	1726,44
875,16	1787,88
875,33	1757,16
875,50	1687,53
875,66	1693,67
875,83	1755,11
875,99	1773,54
876,16	1671,14
876,33	1638,38
876,49	1806,31
876,66	1814,50
876,83	1722,34
876,99	1646,57
877,16	1687,53
877,32	1634,28
877,49	1724,39
877,66	1677,29
877,82	1734,63
877,99	1759,21
878,15	1765,35
878,32	1722,34
878,49	1751,01
878,65	1714,15
878,82	1777,64
878,98	1644,52
879,15	1746,92
879,32	1798,12
879,48	1738,73
879,65	1705,96
879,81	1667,05
879,98	1681,38
880,15	1689,57
880,31	1683,43
880,48	1593,32
880,64	1800,16
880,81	1708,01
880,97	1837,03
881,14	1675,24
881,31	1671,14
881,47	1800,16
881,64	1757,16
881,80	1642,47
881,97	1740,77
882,13	1757,16
882,30	1603,56
882,47	1716,20
882,63	1607,66
882,80	1689,57
882,96	1665,00
883,13	1751,01
883,29	1728,49
883,46	1746,92
883,62	1710,05
883,79	1718,25
883,95	1759,21
884,12	1683,43
884,29	1695,72
884,45	1791,97
884,62	1734,63
884,78	1632,23
884,95	1791,97
885,11	1671,14
885,28	1660,90
885,44	1685,48
885,61	1660,90
885,77	1732,58
885,94	1687,53
886,10	1722,34
886,27	1665,00
886,43	1810,40
886,60	1734,63
886,76	1728,49
886,93	1685,48
887,09	1755,11
887,26	1613,80
887,42	1652,71
887,59	1779,68
887,75	1810,40
887,92	1830,88
888,08	1783,78
888,25	1830,88
888,41	1732,58
888,58	1787,88
888,74	1718,25
888,91	1730,53
>>>>>End Processed Spectral Data<<<<<
