SpectraSuite Data File
++++++++++++++++++++++++++++++++++++
Date: Mon Jun 06 14:21:17 CEST 2016
User: root
Dark Spectrum Present: No
Reference Spectrum Present: No
Number of Sampled Component Spectra: 1
Spectrometers: USB4C02835
Integration Time (usec): 100000 (USB4C02835)
Spectra Averaged: 1 (USB4C02835)
Boxcar Smoothing: 0 (USB4C02835)
Correct for Electrical Dark: No (USB4C02835)
Strobe/Lamp Enabled: No (USB4C02835)
Correct for Detector Non-linearity: No (USB4C02835)
Correct for Stray Light: No (USB4C02835)
Number of Pixels in Processed Spectrum: 3648
>>>>>Begin Processed Spectral Data<<<<<
177,47	1470,44
177,69	1470,44
177,91	1470,44
178,13	1454,06
178,36	1492,97
178,58	1652,71
178,80	1691,62
179,02	1628,14
179,24	1648,61
179,46	1751,01
179,68	1755,11
179,90	1656,81
180,13	1693,67
180,35	1677,29
180,57	1703,91
180,79	1726,44
181,01	1718,25
181,23	1751,01
181,45	1744,87
181,67	1662,95
181,90	1728,49
182,12	1724,39
182,34	1632,23
182,56	1697,77
182,78	1665,00
183,00	1783,78
183,22	1683,43
183,44	1656,81
183,66	1875,94
183,89	1796,07
184,11	1710,05
184,33	1742,82
184,55	1654,76
184,77	1703,91
184,99	1732,58
185,21	1669,09
185,43	1806,31
185,65	1701,86
185,87	1767,40
186,10	1812,45
186,32	1837,03
186,54	1708,01
186,76	1701,86
186,98	1771,49
187,20	1740,77
187,42	1681,38
187,64	1705,96
187,86	1681,38
188,08	1716,20
188,30	1581,03
188,52	1691,62
188,75	1724,39
188,97	1859,56
189,19	1652,71
189,41	1675,24
189,63	1769,44
189,85	1681,38
190,07	1673,19
190,29	1603,56
190,51	1751,01
190,73	1578,98
190,95	1728,49
191,17	1695,72
191,39	1619,94
191,61	1599,46
191,84	1677,29
192,06	1669,09
192,28	1587,18
192,50	1873,89
192,72	1705,96
192,94	1767,40
193,16	1724,39
193,38	1677,29
193,60	1605,61
193,82	1624,04
194,04	1738,73
194,26	1730,53
194,48	1697,77
194,70	1695,72
194,92	1646,57
195,14	1746,92
195,36	1673,19
195,58	1755,11
195,80	1718,25
196,02	1667,05
196,24	1738,73
196,46	1781,73
196,69	1679,33
196,91	1798,12
197,13	1624,04
197,35	1691,62
197,57	1724,39
197,79	1714,15
198,01	1705,96
198,23	1771,49
198,45	1800,16
198,67	1662,95
198,89	1683,43
199,11	1691,62
199,33	1656,81
199,55	1550,31
199,77	1650,66
199,99	1781,73
200,21	1687,53
200,43	1767,40
200,65	1642,47
200,87	1599,46
201,09	1673,19
201,31	1753,06
201,53	1658,85
201,75	1726,44
201,97	1689,57
202,19	1679,33
202,41	1665,00
202,63	1769,44
202,85	1767,40
203,07	1705,96
203,29	1667,05
203,51	1675,24
203,73	1673,19
203,95	1830,88
204,17	1742,82
204,39	1710,05
204,61	1722,34
204,83	1632,23
205,05	1755,11
205,27	1759,21
205,49	1826,79
205,71	1705,96
205,93	1648,61
206,15	1658,85
206,37	1728,49
206,59	1718,25
206,81	1675,24
207,03	1605,61
207,25	1589,22
207,47	1732,58
207,69	1712,10
207,91	1730,53
208,13	1773,54
208,34	1591,27
208,56	1624,04
208,78	1724,39
209,00	1656,81
209,22	1656,81
209,44	1693,67
209,66	1636,33
209,88	1724,39
210,10	1673,19
210,32	1701,86
210,54	1699,81
210,76	1683,43
210,98	1730,53
211,20	1568,74
211,42	1742,82
211,64	1718,25
211,86	1740,77
212,08	1714,15
212,30	1755,11
212,52	1662,95
212,74	1648,61
212,96	1771,49
213,17	1775,59
213,39	1736,68
213,61	1734,63
213,83	1630,18
214,05	1685,48
214,27	1763,30
214,49	1619,94
214,71	1669,09
214,93	1726,44
215,15	1757,16
215,37	1718,25
215,59	1591,27
215,81	1857,51
216,03	1773,54
216,24	1738,73
216,46	1662,95
216,68	1697,77
216,90	1681,38
217,12	1828,84
217,34	1626,09
217,56	1708,01
217,78	1765,35
218,00	1728,49
218,22	1724,39
218,44	1767,40
218,66	1734,63
218,87	1855,46
219,09	1722,34
219,31	1710,05
219,53	1742,82
219,75	1638,38
219,97	1701,86
220,19	1710,05
220,41	1601,51
220,63	1744,87
220,85	1714,15
221,06	1720,29
221,28	1748,97
221,50	1669,09
221,72	1714,15
221,94	1656,81
222,16	1757,16
222,38	1746,92
222,60	1773,54
222,82	1681,38
223,03	1751,01
223,25	1560,55
223,47	1757,16
223,69	1828,84
223,91	1736,68
224,13	1685,48
224,35	1650,66
224,57	1720,29
224,78	1740,77
225,00	1609,70
225,22	1673,19
225,44	1705,96
225,66	1759,21
225,88	1654,76
226,10	1681,38
226,32	1791,97
226,53	1841,12
226,75	1812,45
226,97	1701,86
227,19	1654,76
227,41	1669,09
227,63	1683,43
227,85	1669,09
228,06	1714,15
228,28	1669,09
228,50	1650,66
228,72	1605,61
228,94	1624,04
229,16	1544,17
229,37	1642,47
229,59	1693,67
229,81	1738,73
230,03	1697,77
230,25	1601,51
230,47	1621,99
230,69	1701,86
230,90	1740,77
231,12	1675,24
231,34	1775,59
231,56	1755,11
231,78	1617,90
232,00	1734,63
232,21	1681,38
232,43	1660,90
232,65	1628,14
232,87	1705,96
233,09	1601,51
233,30	1613,80
233,52	1757,16
233,74	1697,77
233,96	1640,42
234,18	1816,55
234,40	1665,00
234,61	1798,12
234,83	1570,79
235,05	1648,61
235,27	1830,88
235,49	1734,63
235,70	1695,72
235,92	1753,06
236,14	1726,44
236,36	1800,16
236,58	1628,14
236,79	1804,26
237,01	1720,29
237,23	1787,88
237,45	1875,94
237,67	1742,82
237,88	1730,53
238,10	1800,16
238,32	1685,48
238,54	1695,72
238,76	1722,34
238,97	1658,85
239,19	1667,05
239,41	1734,63
239,63	1710,05
239,85	1697,77
240,06	1673,19
240,28	1701,86
240,50	1779,68
240,72	1738,73
240,93	1724,39
241,15	1746,92
241,37	1654,76
241,59	1771,49
241,81	1654,76
242,02	1773,54
242,24	1671,14
242,46	1744,87
242,68	1642,47
242,89	1714,15
243,11	1716,20
243,33	1691,62
243,55	1765,35
243,76	1722,34
243,98	1665,00
244,20	1753,06
244,42	1658,85
244,64	1710,05
244,85	1609,70
245,07	1681,38
245,29	1767,40
245,51	1736,68
245,72	1652,71
245,94	1773,54
246,16	1738,73
246,38	1763,30
246,59	1636,33
246,81	1667,05
247,03	1644,52
247,24	1519,59
247,46	1650,66
247,68	1714,15
247,90	1681,38
248,11	1746,92
248,33	1718,25
248,55	1644,52
248,77	1687,53
248,98	1767,40
249,20	1751,01
249,42	1724,39
249,64	1765,35
249,85	1710,05
250,07	1681,38
250,29	1748,97
250,50	1746,92
250,72	1619,94
250,94	1716,20
251,16	1839,08
251,37	1773,54
251,59	1716,20
251,81	1789,92
252,02	1769,44
252,24	1665,00
252,46	1771,49
252,68	1654,76
252,89	1722,34
253,11	1626,09
253,33	1738,73
253,54	1738,73
253,76	1638,38
253,98	1675,24
254,20	1710,05
254,41	1603,56
254,63	1748,97
254,85	1581,03
255,06	1652,71
255,28	1701,86
255,50	1708,01
255,71	1693,67
255,93	1599,46
256,15	1656,81
256,36	1660,90
256,58	1601,51
256,80	1740,77
257,02	1632,23
257,23	1691,62
257,45	1701,86
257,67	1667,05
257,88	1628,14
258,10	1796,07
258,32	1662,95
258,53	1648,61
258,75	1761,25
258,97	1638,38
259,18	1730,53
259,40	1585,13
259,62	1769,44
259,83	1644,52
260,05	1800,16
260,27	1990,63
260,48	1820,64
260,70	1599,46
260,92	1710,05
261,13	1644,52
261,35	1732,58
261,57	1724,39
261,78	1683,43
262,00	1699,81
262,22	1777,64
262,43	1652,71
262,65	1619,94
262,86	1699,81
263,08	1884,13
263,30	1652,71
263,51	1556,46
263,73	1695,72
263,95	1763,30
264,16	1593,32
264,38	1648,61
264,60	1738,73
264,81	1710,05
265,03	1746,92
265,25	1773,54
265,46	1722,34
265,68	1818,60
265,89	1763,30
266,11	1658,85
266,33	1705,96
266,54	1812,45
266,76	1708,01
266,98	1720,29
267,19	1800,16
267,41	1744,87
267,62	1689,57
267,84	1613,80
268,06	1736,68
268,27	1734,63
268,49	1746,92
268,70	1771,49
268,92	1705,96
269,14	1628,14
269,35	1705,96
269,57	1759,21
269,79	1841,12
270,00	1679,33
270,22	1796,07
270,43	1722,34
270,65	1603,56
270,87	1742,82
271,08	1669,09
271,30	1742,82
271,51	1667,05
271,73	1691,62
271,95	1751,01
272,16	1607,66
272,38	1736,68
272,59	1667,05
272,81	1755,11
273,02	1748,97
273,24	1753,06
273,46	1722,34
273,67	1669,09
273,89	1640,42
274,10	1736,68
274,32	1794,02
274,54	1759,21
274,75	1710,05
274,97	1632,23
275,18	1712,10
275,40	1746,92
275,61	1716,20
275,83	1748,97
276,05	1675,24
276,26	1697,77
276,48	1806,31
276,69	1685,48
276,91	1697,77
277,12	1816,55
277,34	1736,68
277,55	1787,88
277,77	1660,90
277,99	1746,92
278,20	1656,81
278,42	1697,77
278,63	1687,53
278,85	1673,19
279,06	1632,23
279,28	1681,38
279,49	1726,44
279,71	1751,01
279,93	1658,85
280,14	1685,48
280,36	1613,80
280,57	1695,72
280,79	1787,88
281,00	1687,53
281,22	1761,25
281,43	1771,49
281,65	1619,94
281,86	1660,90
282,08	1718,25
282,29	1800,16
282,51	1632,23
282,73	1769,44
282,94	1716,20
283,16	1789,92
283,37	1798,12
283,59	1693,67
283,80	1738,73
284,02	1703,91
284,23	1652,71
284,45	1671,14
284,66	1619,94
284,88	1660,90
285,09	1681,38
285,31	1777,64
285,52	1662,95
285,74	1558,50
285,95	1714,15
286,17	1769,44
286,38	1722,34
286,60	1677,29
286,81	1669,09
287,03	1634,28
287,24	1636,33
287,46	1720,29
287,67	1665,00
287,89	1787,88
288,10	1677,29
288,32	1693,67
288,53	1769,44
288,75	1720,29
288,96	1734,63
289,18	1642,47
289,39	1669,09
289,61	1736,68
289,82	1832,93
290,04	1808,36
290,25	1636,33
290,47	1617,90
290,68	1660,90
290,90	1722,34
291,11	1669,09
291,33	1806,31
291,54	1578,98
291,76	1634,28
291,97	1798,12
292,18	1697,77
292,40	1679,33
292,61	1642,47
292,83	1929,19
293,04	1714,15
293,26	1767,40
293,47	1695,72
293,69	1720,29
293,90	1689,57
294,12	1800,16
294,33	1683,43
294,55	1703,91
294,76	1710,05
294,97	1800,16
295,19	1708,01
295,40	1656,81
295,62	1728,49
295,83	1761,25
296,05	1634,28
296,26	1736,68
296,48	1730,53
296,69	1642,47
296,90	1697,77
297,12	1736,68
297,33	1853,41
297,55	1699,81
297,76	1714,15
297,98	1742,82
298,19	1654,76
298,41	1746,92
298,62	1699,81
298,83	1820,64
299,05	1687,53
299,26	1722,34
299,48	1724,39
299,69	1716,20
299,90	1748,97
300,12	1689,57
300,33	1683,43
300,55	1687,53
300,76	1751,01
300,98	1640,42
301,19	1683,43
301,40	1658,85
301,62	1701,86
301,83	1777,64
302,05	1665,00
302,26	1693,67
302,47	1634,28
302,69	1703,91
302,90	1660,90
303,12	1609,70
303,33	1740,77
303,54	1853,41
303,76	1583,08
303,97	1783,78
304,19	1763,30
304,40	1648,61
304,61	1761,25
304,83	1849,32
305,04	1755,11
305,26	1714,15
305,47	1716,20
305,68	1658,85
305,90	1613,80
306,11	1771,49
306,33	1681,38
306,54	1662,95
306,75	1679,33
306,97	1607,66
307,18	1642,47
307,39	1626,09
307,61	1787,88
307,82	1726,44
308,04	1714,15
308,25	1683,43
308,46	1685,48
308,68	1624,04
308,89	1732,58
309,10	1771,49
309,32	1716,20
309,53	1687,53
309,74	1708,01
309,96	1636,33
310,17	1751,01
310,39	1636,33
310,60	1742,82
310,81	1722,34
311,03	1560,55
311,24	1673,19
311,45	1642,47
311,67	1802,21
311,88	1689,57
312,09	1570,79
312,31	1652,71
312,52	1675,24
312,73	1640,42
312,95	1564,65
313,16	1617,90
313,37	1773,54
313,59	1675,24
313,80	1646,57
314,01	1818,60
314,23	1660,90
314,44	1652,71
314,65	1648,61
314,87	1601,51
315,08	1669,09
315,29	1660,90
315,51	1669,09
315,72	1589,22
315,93	1834,98
316,15	1722,34
316,36	1720,29
316,57	1791,97
316,79	1796,07
317,00	1632,23
317,21	1718,25
317,43	1640,42
317,64	1753,06
317,85	1632,23
318,07	1617,90
318,28	1675,24
318,49	1873,89
318,70	1949,67
318,92	1857,51
319,13	1794,02
319,34	1906,66
319,56	1822,69
319,77	1828,84
319,98	1796,07
320,20	1773,54
320,41	1779,68
320,62	1800,16
320,83	1591,27
321,05	1849,32
321,26	1718,25
321,47	1732,58
321,69	1736,68
321,90	1607,66
322,11	1642,47
322,32	1812,45
322,54	1804,26
322,75	1695,72
322,96	1855,46
323,18	1568,74
323,39	1609,70
323,60	1624,04
323,81	1722,34
324,03	1746,92
324,24	1714,15
324,45	1677,29
324,66	1667,05
324,88	1761,25
325,09	1738,73
325,30	1691,62
325,52	1710,05
325,73	1732,58
325,94	1708,01
326,15	1617,90
326,37	1673,19
326,58	1693,67
326,79	1794,02
327,00	1755,11
327,22	1656,81
327,43	1705,96
327,64	1626,09
327,85	1748,97
328,07	1669,09
328,28	1796,07
328,49	1624,04
328,70	1665,00
328,92	1691,62
329,13	1683,43
329,34	1744,87
329,55	1753,06
329,76	1779,68
329,98	1744,87
330,19	1783,78
330,40	1728,49
330,61	1753,06
330,83	1753,06
331,04	1658,85
331,25	1671,14
331,46	1677,29
331,68	1652,71
331,89	1828,84
332,10	1632,23
332,31	1691,62
332,52	1662,95
332,74	1781,73
332,95	1687,53
333,16	1658,85
333,37	1734,63
333,58	1730,53
333,80	1681,38
334,01	1648,61
334,22	1691,62
334,43	1636,33
334,64	1701,86
334,86	1656,81
335,07	1671,14
335,28	1787,88
335,49	1605,61
335,70	1705,96
335,92	1693,67
336,13	1822,69
336,34	1689,57
336,55	1716,20
336,76	1708,01
336,98	1615,85
337,19	1781,73
337,40	1804,26
337,61	1853,41
337,82	1685,48
338,04	1730,53
338,25	1628,14
338,46	1650,66
338,67	1701,86
338,88	1665,00
339,09	1611,75
339,31	1689,57
339,52	1646,57
339,73	1595,37
339,94	1755,11
340,15	1767,40
340,36	1697,77
340,58	1687,53
340,79	1607,66
341,00	1716,20
341,21	1628,14
341,42	1761,25
341,63	1646,57
341,85	1689,57
342,06	1701,86
342,27	1685,48
342,48	1732,58
342,69	1656,81
342,90	1656,81
343,12	1722,34
343,33	1763,30
343,54	1730,53
343,75	1820,64
343,96	1667,05
344,17	1705,96
344,38	1740,77
344,60	1665,00
344,81	1671,14
345,02	1705,96
345,23	1683,43
345,44	1855,46
345,65	1742,82
345,86	1783,78
346,07	1708,01
346,29	1656,81
346,50	1783,78
346,71	1755,11
346,92	1806,31
347,13	1816,55
347,34	1730,53
347,55	1677,29
347,76	1705,96
347,98	1634,28
348,19	1701,86
348,40	1769,44
348,61	1722,34
348,82	1773,54
349,03	1757,16
349,24	1632,23
349,45	1884,13
349,66	1607,66
349,88	1689,57
350,09	1699,81
350,30	1849,32
350,51	1796,07
350,72	1671,14
350,93	1654,76
351,14	1648,61
351,35	1677,29
351,56	1656,81
351,77	1716,20
351,99	1728,49
352,20	1861,60
352,41	1791,97
352,62	1644,52
352,83	1581,03
353,04	1759,21
353,25	1587,18
353,46	1796,07
353,67	1724,39
353,88	1585,13
354,09	1691,62
354,30	1718,25
354,52	1710,05
354,73	1689,57
354,94	1720,29
355,15	1718,25
355,36	1808,36
355,57	1748,97
355,78	1724,39
355,99	1656,81
356,20	1681,38
356,41	1837,03
356,62	1761,25
356,83	1703,91
357,04	1728,49
357,25	1562,60
357,46	1669,09
357,68	1587,18
357,89	1677,29
358,10	1681,38
358,31	1681,38
358,52	1724,39
358,73	1642,47
358,94	1632,23
359,15	1654,76
359,36	1726,44
359,57	1708,01
359,78	1667,05
359,99	1732,58
360,20	1656,81
360,41	1650,66
360,62	1640,42
360,83	1693,67
361,04	1779,68
361,25	1742,82
361,46	1789,92
361,67	1755,11
361,88	1712,10
362,09	1673,19
362,30	1656,81
362,51	1652,71
362,72	1714,15
362,93	1767,40
363,14	1773,54
363,35	1769,44
363,56	1718,25
363,78	1777,64
363,99	1697,77
364,20	1753,06
364,41	1656,81
364,62	1783,78
364,83	1701,86
365,04	1734,63
365,25	1794,02
365,46	1779,68
365,67	1667,05
365,88	1583,08
366,09	1718,25
366,30	1671,14
366,51	1689,57
366,72	1656,81
366,93	1689,57
367,14	1619,94
367,35	1802,21
367,56	1736,68
367,77	1691,62
367,98	1683,43
368,18	1708,01
368,39	1732,58
368,60	1566,70
368,81	1716,20
369,02	1755,11
369,23	1722,34
369,44	1677,29
369,65	1708,01
369,86	1648,61
370,07	1757,16
370,28	1689,57
370,49	1683,43
370,70	1740,77
370,91	1626,09
371,12	1648,61
371,33	1789,92
371,54	1669,09
371,75	1771,49
371,96	1660,90
372,17	1697,77
372,38	1705,96
372,59	1812,45
372,80	1722,34
373,01	1740,77
373,22	1695,72
373,43	1675,24
373,64	1687,53
373,85	1863,65
374,06	1748,97
374,26	1730,53
374,47	1701,86
374,68	1734,63
374,89	1691,62
375,10	1667,05
375,31	1785,83
375,52	1714,15
375,73	1714,15
375,94	1701,86
376,15	1812,45
376,36	1724,39
376,57	1652,71
376,78	1673,19
376,99	1708,01
377,20	1748,97
377,40	1646,57
377,61	1810,40
377,82	1648,61
378,03	1791,97
378,24	1724,39
378,45	1751,01
378,66	1759,21
378,87	1603,56
379,08	1648,61
379,29	1697,77
379,50	1812,45
379,71	1734,63
379,91	1800,16
380,12	1638,38
380,33	1718,25
380,54	1736,68
380,75	1701,86
380,96	1716,20
381,17	1755,11
381,38	1701,86
381,59	1724,39
381,80	1757,16
382,00	1861,60
382,21	1763,30
382,42	1767,40
382,63	1816,55
382,84	1730,53
383,05	1769,44
383,26	1730,53
383,47	1763,30
383,68	1728,49
383,88	1730,53
384,09	1755,11
384,30	1773,54
384,51	1726,44
384,72	1675,24
384,93	1650,66
385,14	1837,03
385,35	1783,78
385,55	1716,20
385,76	1726,44
385,97	1691,62
386,18	1589,22
386,39	1642,47
386,60	1697,77
386,81	1763,30
387,02	1652,71
387,22	1665,00
387,43	1779,68
387,64	1869,80
387,85	1869,80
388,06	2140,13
388,27	4274,11
388,48	6666,14
388,68	8159,11
388,89	9561,97
389,10	9666,41
389,31	8376,19
389,52	7569,29
389,73	6737,82
389,93	6391,71
390,14	5822,38
390,35	5181,36
390,56	4569,02
390,77	3774,41
390,98	3028,95
391,18	2525,15
391,39	2111,46
391,60	1863,65
391,81	1920,99
392,02	1755,11
392,23	1798,12
392,43	1763,30
392,64	1808,36
392,85	1665,00
393,06	1820,64
393,27	1734,63
393,47	1665,00
393,68	1675,24
393,89	1656,81
394,10	1753,06
394,31	1701,86
394,52	1638,38
394,72	1665,00
394,93	1689,57
395,14	1605,61
395,35	1714,15
395,56	1638,38
395,76	1771,49
395,97	1820,64
396,18	1834,98
396,39	1859,56
396,60	1994,72
396,80	1925,09
397,01	1800,16
397,22	1824,74
397,43	1865,70
397,64	1789,92
397,84	1765,35
398,05	1861,60
398,26	1787,88
398,47	1738,73
398,67	1822,69
398,88	1712,10
399,09	1705,96
399,30	1701,86
399,51	1744,87
399,71	1683,43
399,92	1755,11
400,13	1726,44
400,34	1722,34
400,54	1732,58
400,75	1669,09
400,96	1738,73
401,17	1837,03
401,37	1726,44
401,58	1714,15
401,79	1722,34
402,00	1904,61
402,21	1935,33
402,41	1966,05
402,62	1920,99
402,83	2088,93
403,04	1949,67
403,24	2133,98
403,45	1777,64
403,66	1902,56
403,87	1892,32
404,07	1861,60
404,28	1890,28
404,49	1910,75
404,70	1710,05
404,90	1820,64
405,11	1791,97
405,32	1787,88
405,52	1695,72
405,73	1714,15
405,94	1695,72
406,15	1685,48
406,35	1742,82
406,56	1701,86
406,77	1669,09
406,98	1755,11
407,18	1710,05
407,39	1816,55
407,60	1720,29
407,80	1708,01
408,01	1660,90
408,22	1755,11
408,43	1675,24
408,63	1660,90
408,84	1718,25
409,05	1697,77
409,25	1634,28
409,46	1605,61
409,67	1734,63
409,88	1677,29
410,08	1734,63
410,29	1722,34
410,50	1705,96
410,70	1775,59
410,91	1656,81
411,12	1744,87
411,32	1644,52
411,53	1669,09
411,74	1818,60
411,95	1746,92
412,15	1777,64
412,36	1748,97
412,57	1742,82
412,77	1837,03
412,98	1726,44
413,19	1642,47
413,39	1736,68
413,60	1703,91
413,81	1716,20
414,01	1626,09
414,22	1732,58
414,43	1746,92
414,63	1769,44
414,84	1765,35
415,05	1744,87
415,25	1570,79
415,46	1724,39
415,67	1724,39
415,87	1703,91
416,08	1671,14
416,29	1703,91
416,49	1705,96
416,70	1695,72
416,91	1675,24
417,11	1705,96
417,32	1687,53
417,53	1720,29
417,73	1757,16
417,94	1710,05
418,15	1757,16
418,35	1642,47
418,56	1683,43
418,77	1832,93
418,97	1669,09
419,18	1689,57
419,38	1585,13
419,59	1634,28
419,80	1789,92
420,00	1742,82
420,21	1701,86
420,42	1738,73
420,62	1691,62
420,83	1667,05
421,04	1767,40
421,24	1767,40
421,45	1718,25
421,65	1781,73
421,86	1716,20
422,07	1759,21
422,27	1724,39
422,48	1710,05
422,69	1650,66
422,89	1714,15
423,10	1685,48
423,30	1646,57
423,51	1769,44
423,72	1736,68
423,92	1724,39
424,13	1624,04
424,33	1681,38
424,54	1624,04
424,75	1712,10
424,95	1781,73
425,16	1759,21
425,36	1710,05
425,57	1759,21
425,78	1751,01
425,98	1794,02
426,19	1660,90
426,39	1626,09
426,60	1814,50
426,81	1716,20
427,01	1732,58
427,22	1640,42
427,42	1660,90
427,63	1722,34
427,83	1722,34
428,04	1724,39
428,25	1732,58
428,45	1834,98
428,66	1736,68
428,86	1724,39
429,07	1710,05
429,28	1689,57
429,48	1677,29
429,69	1675,24
429,89	1726,44
430,10	1607,66
430,30	1669,09
430,51	1703,91
430,71	1701,86
430,92	1718,25
431,13	1736,68
431,33	1761,25
431,54	1757,16
431,74	1822,69
431,95	1824,74
432,15	1665,00
432,36	1732,58
432,56	1720,29
432,77	1798,12
432,98	1757,16
433,18	1671,14
433,39	1796,07
433,59	1648,61
433,80	1830,88
434,00	1861,60
434,21	1669,09
434,41	1681,38
434,62	1884,13
434,82	1673,19
435,03	1628,14
435,23	1781,73
435,44	1677,29
435,64	1693,67
435,85	1730,53
436,06	1708,01
436,26	1769,44
436,47	1714,15
436,67	1658,85
436,88	1632,23
437,08	1665,00
437,29	1763,30
437,49	1763,30
437,70	1767,40
437,90	1693,67
438,11	1824,74
438,31	1732,58
438,52	1843,17
438,72	1869,80
438,93	1918,95
439,13	1742,82
439,34	1800,16
439,54	1767,40
439,75	1800,16
439,95	1791,97
440,16	1730,53
440,36	1759,21
440,57	1822,69
440,77	1877,99
440,98	1722,34
441,18	1701,86
441,39	1636,33
441,59	1601,51
441,80	1826,79
442,00	1810,40
442,21	1875,94
442,41	1662,95
442,62	1777,64
442,82	1671,14
443,02	1673,19
443,23	1712,10
443,43	1763,30
443,64	1796,07
443,84	1665,00
444,05	1828,84
444,25	1734,63
444,46	1669,09
444,66	1751,01
444,87	1798,12
445,07	1681,38
445,28	1642,47
445,48	1804,26
445,69	1787,88
445,89	1853,41
446,09	1855,46
446,30	2002,91
446,50	2580,44
446,71	3567,56
446,91	4343,74
447,12	4636,60
447,32	4958,13
447,53	4194,24
447,73	3743,69
447,93	3606,47
448,14	3428,30
448,34	3248,08
448,55	2936,79
448,75	2807,77
448,96	2629,59
449,16	2326,49
449,36	2265,05
449,57	2058,21
449,77	1955,81
449,98	1742,82
450,18	1867,75
450,39	1794,02
450,59	1716,20
450,79	1675,24
451,00	1740,77
451,20	1771,49
451,41	1697,77
451,61	1695,72
451,81	1759,21
452,02	1720,29
452,22	1744,87
452,43	1667,05
452,63	1705,96
452,84	1681,38
453,04	1705,96
453,24	1744,87
453,45	1726,44
453,65	1720,29
453,86	1724,39
454,06	1787,88
454,26	1751,01
454,47	1669,09
454,67	1771,49
454,87	1714,15
455,08	1724,39
455,28	1900,52
455,49	1726,44
455,69	1695,72
455,89	1822,69
456,10	1697,77
456,30	1681,38
456,51	1791,97
456,71	1716,20
456,91	1789,92
457,12	1638,38
457,32	1759,21
457,52	1689,57
457,73	1718,25
457,93	1673,19
458,14	1687,53
458,34	1621,99
458,54	1720,29
458,75	1689,57
458,95	1740,77
459,15	1738,73
459,36	1777,64
459,56	1705,96
459,76	1759,21
459,97	1765,35
460,17	1671,14
460,37	1834,98
460,58	1689,57
460,78	1755,11
460,99	1724,39
461,19	1677,29
461,39	1671,14
461,60	1642,47
461,80	1810,40
462,00	1730,53
462,21	1828,84
462,41	1619,94
462,61	1685,48
462,82	1648,61
463,02	1847,27
463,22	1714,15
463,43	1822,69
463,63	1718,25
463,83	1816,55
464,04	1748,97
464,24	1710,05
464,44	1671,14
464,64	1697,77
464,85	1724,39
465,05	1767,40
465,25	1783,78
465,46	1705,96
465,66	1791,97
465,86	1722,34
466,07	1769,44
466,27	1685,48
466,47	1595,37
466,68	1640,42
466,88	1824,74
467,08	1710,05
467,29	1779,68
467,49	1742,82
467,69	1730,53
467,89	1748,97
468,10	1716,20
468,30	1734,63
468,50	1816,55
468,71	1751,01
468,91	1679,33
469,11	1847,27
469,31	1775,59
469,52	1654,76
469,72	1832,93
469,92	1777,64
470,13	1726,44
470,33	1699,81
470,53	1927,14
470,73	2133,98
470,94	2316,25
471,14	2349,02
471,34	2447,32
471,54	2283,49
471,75	2236,38
471,95	2123,74
472,15	2090,98
472,36	2101,22
472,56	2099,17
472,76	2033,63
472,96	2015,20
473,17	1941,47
473,37	1884,13
473,57	1734,63
473,77	1863,65
473,98	1759,21
474,18	1673,19
474,38	1843,17
474,58	1681,38
474,79	1630,18
474,99	1787,88
475,19	1716,20
475,39	1587,18
475,60	1710,05
475,80	1763,30
476,00	1701,86
476,20	1730,53
476,41	1630,18
476,61	1824,74
476,81	1785,83
477,01	1638,38
477,21	1902,56
477,42	1820,64
477,62	1669,09
477,82	1755,11
478,02	1705,96
478,23	1763,30
478,43	1667,05
478,63	1632,23
478,83	1738,73
479,03	1728,49
479,24	1765,35
479,44	1863,65
479,64	1646,57
479,84	1669,09
480,04	1609,70
480,25	1781,73
480,45	1755,11
480,65	1718,25
480,85	1771,49
481,06	1654,76
481,26	1824,74
481,46	1714,15
481,66	1744,87
481,86	1568,74
482,06	1785,83
482,27	1667,05
482,47	1722,34
482,67	1701,86
482,87	1742,82
483,07	1822,69
483,28	1669,09
483,48	1626,09
483,68	1669,09
483,88	1714,15
484,08	1671,14
484,29	1736,68
484,49	1759,21
484,69	1599,46
484,89	1751,01
485,09	1787,88
485,29	1775,59
485,50	1708,01
485,70	1779,68
485,90	1791,97
486,10	1714,15
486,30	1771,49
486,50	1796,07
486,71	1775,59
486,91	1791,97
487,11	1779,68
487,31	1722,34
487,51	1705,96
487,71	1615,85
487,91	1697,77
488,12	1718,25
488,32	1581,03
488,52	1660,90
488,72	1607,66
488,92	1570,79
489,12	1771,49
489,32	1771,49
489,53	1761,25
489,73	1705,96
489,93	1806,31
490,13	1718,25
490,33	1732,58
490,53	1710,05
490,73	1771,49
490,94	1632,23
491,14	1722,34
491,34	1869,80
491,54	2078,69
491,74	2607,06
491,94	2963,41
492,14	3035,09
492,34	2910,16
492,54	2723,80
492,75	2432,99
492,95	2422,75
493,15	2332,64
493,35	2199,52
493,55	2234,33
493,75	2176,99
493,95	2052,06
494,15	1978,34
494,35	2047,97
494,56	1787,88
494,76	1763,30
494,96	1804,26
495,16	1736,68
495,36	1744,87
495,56	1796,07
495,76	1757,16
495,96	1693,67
496,16	1660,90
496,36	1843,17
496,56	1722,34
496,77	1796,07
496,97	1746,92
497,17	1845,22
497,37	1634,28
497,57	1796,07
497,77	1734,63
497,97	1658,85
498,17	1775,59
498,37	1691,62
498,57	1665,00
498,77	1716,20
498,97	1710,05
499,17	1806,31
499,38	1712,10
499,58	1789,92
499,78	1769,44
499,98	1802,21
500,18	1660,90
500,38	1751,01
500,58	1966,05
500,78	2555,86
500,98	4505,53
501,18	5762,98
501,38	6582,17
501,58	6854,55
501,78	6567,84
501,98	5496,75
502,18	4954,04
502,38	4360,13
502,58	4106,18
502,78	3698,63
502,98	3622,86
503,18	3444,68
503,38	3096,53
503,59	2803,67
503,79	2723,80
503,99	2475,99
504,19	2226,14
504,39	2174,94
504,59	2062,30
504,79	2109,41
504,99	1994,72
505,19	1896,42
505,39	1871,84
505,59	1949,67
505,79	1918,95
505,99	1869,80
506,19	1734,63
506,39	1869,80
506,59	1708,01
506,79	1695,72
506,99	1865,70
507,19	1830,88
507,39	1761,25
507,59	1654,76
507,79	1605,61
507,99	1720,29
508,19	1773,54
508,39	1753,06
508,59	1722,34
508,79	1880,04
508,99	1808,36
509,19	1658,85
509,39	1816,55
509,59	1681,38
509,79	1695,72
509,99	1783,78
510,19	1800,16
510,39	1791,97
510,59	1744,87
510,79	1660,90
510,99	1687,53
511,19	1828,84
511,39	1826,79
511,59	1834,98
511,79	1796,07
511,99	1769,44
512,19	1785,83
512,38	1685,48
512,58	1640,42
512,78	1751,01
512,98	1808,36
513,18	1771,49
513,38	1595,37
513,58	1820,64
513,78	1730,53
513,98	1673,19
514,18	1665,00
514,38	1697,77
514,58	1708,01
514,78	1673,19
514,98	1716,20
515,18	1765,35
515,38	1648,61
515,58	1812,45
515,78	1671,14
515,98	1693,67
516,18	1677,29
516,38	1794,02
516,57	1726,44
516,77	1675,24
516,97	1759,21
517,17	1765,35
517,37	1591,27
517,57	1740,77
517,77	1732,58
517,97	1685,48
518,17	1822,69
518,37	1689,57
518,57	1679,33
518,77	1691,62
518,97	1697,77
519,16	1767,40
519,36	1775,59
519,56	1718,25
519,76	1787,88
519,96	1830,88
520,16	1847,27
520,36	1656,81
520,56	1822,69
520,76	1681,38
520,96	1722,34
521,16	1699,81
521,35	1746,92
521,55	1839,08
521,75	1718,25
521,95	1675,24
522,15	1767,40
522,35	1673,19
522,55	1744,87
522,75	1712,10
522,95	1677,29
523,14	1667,05
523,34	1775,59
523,54	1630,18
523,74	1773,54
523,94	1787,88
524,14	1593,32
524,34	1820,64
524,54	1765,35
524,73	1755,11
524,93	1744,87
525,13	1714,15
525,33	1683,43
525,53	1867,75
525,73	1814,50
525,93	1742,82
526,13	1716,20
526,32	1755,11
526,52	1775,59
526,72	1804,26
526,92	1728,49
527,12	1617,90
527,32	1636,33
527,52	1767,40
527,71	1718,25
527,91	1738,73
528,11	1675,24
528,31	1718,25
528,51	1689,57
528,71	1771,49
528,90	1746,92
529,10	1785,83
529,30	1781,73
529,50	1636,33
529,70	1763,30
529,90	1800,16
530,09	1722,34
530,29	1697,77
530,49	1677,29
530,69	1847,27
530,89	1763,30
531,09	1812,45
531,28	1757,16
531,48	1804,26
531,68	1693,67
531,88	1785,83
532,08	1753,06
532,28	1718,25
532,47	1763,30
532,67	1746,92
532,87	1660,90
533,07	1675,24
533,27	1769,44
533,46	1751,01
533,66	1697,77
533,86	1757,16
534,06	1740,77
534,26	1757,16
534,45	1708,01
534,65	1753,06
534,85	1757,16
535,05	1705,96
535,25	1777,64
535,44	1708,01
535,64	1779,68
535,84	1695,72
536,04	1699,81
536,24	1701,86
536,43	1640,42
536,63	1773,54
536,83	1703,91
537,03	1740,77
537,22	1609,70
537,42	1677,29
537,62	1755,11
537,82	1583,08
538,02	1865,70
538,21	1837,03
538,41	1949,67
538,61	1724,39
538,81	1720,29
539,00	1828,84
539,20	1703,91
539,40	1699,81
539,60	1779,68
539,79	1781,73
539,99	1757,16
540,19	1658,85
540,39	1703,91
540,58	1738,73
540,78	1789,92
540,98	1693,67
541,18	1837,03
541,37	1730,53
541,57	1714,15
541,77	1726,44
541,97	1720,29
542,16	1726,44
542,36	1726,44
542,56	1679,33
542,76	1880,04
542,95	1730,53
543,15	1822,69
543,35	1802,21
543,54	1683,43
543,74	1718,25
543,94	1845,22
544,14	1755,11
544,33	1791,97
544,53	1710,05
544,73	1691,62
544,93	1724,39
545,12	1777,64
545,32	1769,44
545,52	1681,38
545,71	1710,05
545,91	1656,81
546,11	1687,53
546,30	1738,73
546,50	1740,77
546,70	1689,57
546,90	1744,87
547,09	1634,28
547,29	1759,21
547,49	1775,59
547,68	1785,83
547,88	1689,57
548,08	1787,88
548,27	2217,95
548,47	1705,96
548,67	1703,91
548,87	1816,55
549,06	1736,68
549,26	1783,78
549,46	1771,49
549,65	1650,66
549,85	1736,68
550,05	1724,39
550,24	1650,66
550,44	1728,49
550,64	1763,30
550,83	1699,81
551,03	1757,16
551,23	1806,31
551,42	1814,50
551,62	1751,01
551,82	1724,39
552,01	1763,30
552,21	1791,97
552,41	1697,77
552,60	1849,32
552,80	1751,01
553,00	1658,85
553,19	1742,82
553,39	1812,45
553,59	1730,53
553,78	1740,77
553,98	1732,58
554,17	1648,61
554,37	1765,35
554,57	1804,26
554,76	1578,98
554,96	1628,14
555,16	1779,68
555,35	1689,57
555,55	1734,63
555,75	1705,96
555,94	1740,77
556,14	1726,44
556,33	1781,73
556,53	1730,53
556,73	1705,96
556,92	1701,86
557,12	1773,54
557,32	1849,32
557,51	1828,84
557,71	1787,88
557,90	1783,78
558,10	1794,02
558,30	1681,38
558,49	1742,82
558,69	1775,59
558,88	1804,26
559,08	1703,91
559,28	1691,62
559,47	1755,11
559,67	1751,01
559,86	1773,54
560,06	1759,21
560,26	1732,58
560,45	1742,82
560,65	1689,57
560,84	1843,17
561,04	1728,49
561,24	1804,26
561,43	1658,85
561,63	1767,40
561,82	1759,21
562,02	1787,88
562,22	1642,47
562,41	1669,09
562,61	1681,38
562,80	1693,67
563,00	1890,28
563,19	1665,00
563,39	1796,07
563,59	1859,56
563,78	1636,33
563,98	1693,67
564,17	1710,05
564,37	1667,05
564,56	1755,11
564,76	1660,90
564,96	1771,49
565,15	1724,39
565,35	1826,79
565,54	1751,01
565,74	1730,53
565,93	1765,35
566,13	1722,34
566,32	1787,88
566,52	1718,25
566,71	1667,05
566,91	1857,51
567,11	1761,25
567,30	1773,54
567,50	1769,44
567,69	1777,64
567,89	1767,40
568,08	1695,72
568,28	1798,12
568,47	1658,85
568,67	1753,06
568,86	1654,76
569,06	1701,86
569,25	1714,15
569,45	1726,44
569,64	1597,42
569,84	1716,20
570,04	1753,06
570,23	1693,67
570,43	1779,68
570,62	1718,25
570,82	1855,46
571,01	1683,43
571,21	1734,63
571,40	1689,57
571,60	1740,77
571,79	1779,68
571,99	1818,60
572,18	1685,48
572,38	1806,31
572,57	1720,29
572,77	1705,96
572,96	1906,66
573,16	1785,83
573,35	1751,01
573,55	1845,22
573,74	1816,55
573,94	1757,16
574,13	1714,15
574,33	1730,53
574,52	1755,11
574,71	1785,83
574,91	1712,10
575,10	1644,52
575,30	1720,29
575,49	1722,34
575,69	1675,24
575,88	1755,11
576,08	1716,20
576,27	1798,12
576,47	1742,82
576,66	1757,16
576,86	1865,70
577,05	1738,73
577,25	1826,79
577,44	1841,12
577,64	1701,86
577,83	1873,89
578,02	1755,11
578,22	1857,51
578,41	1843,17
578,61	1710,05
578,80	1697,77
579,00	1787,88
579,19	1775,59
579,39	1800,16
579,58	1753,06
579,77	1744,87
579,97	1867,75
580,16	1845,22
580,36	1898,47
580,55	1746,92
580,75	1820,64
580,94	1814,50
581,13	1880,04
581,33	1906,66
581,52	1845,22
581,72	1871,84
581,91	1918,95
582,11	1683,43
582,30	1820,64
582,49	1771,49
582,69	1867,75
582,88	1755,11
583,08	1763,30
583,27	1867,75
583,47	1865,70
583,66	1658,85
583,85	1730,53
584,05	1675,24
584,24	1740,77
584,44	1918,95
584,63	1759,21
584,82	1810,40
585,02	1773,54
585,21	1837,03
585,41	1808,36
585,60	1861,60
585,79	1890,28
585,99	1912,80
586,18	1845,22
586,37	2209,76
586,57	3379,15
586,76	9803,63
586,96	24356,49
587,15	33986,04
587,34	40306,07
587,54	41588,10
587,73	36638,16
587,93	26140,27
588,12	21808,82
588,31	18126,57
588,51	16199,43
588,70	15148,82
588,89	13995,82
589,09	12625,73
589,28	11046,74
589,47	9418,61
589,67	7917,45
589,86	6401,95
590,06	4892,60
590,25	4059,07
590,44	3119,06
590,64	2580,44
590,83	2359,26
591,02	2150,37
591,22	1923,04
591,41	1867,75
591,60	1804,26
591,80	1902,56
591,99	1814,50
592,18	1810,40
592,38	1796,07
592,57	1677,29
592,76	1708,01
592,96	1812,45
593,15	1710,05
593,34	1841,12
593,54	1832,93
593,73	1755,11
593,92	1867,75
594,12	1705,96
594,31	1683,43
594,50	1814,50
594,70	1742,82
594,89	1828,84
595,08	1597,42
595,28	1837,03
595,47	1906,66
595,66	1716,20
595,86	1738,73
596,05	1755,11
596,24	1732,58
596,43	1849,32
596,63	1767,40
596,82	1800,16
597,01	1714,15
597,21	1822,69
597,40	1734,63
597,59	1732,58
597,79	1761,25
597,98	1804,26
598,17	1775,59
598,36	1728,49
598,56	1665,00
598,75	1679,33
598,94	1783,78
599,14	1734,63
599,33	1587,18
599,52	1808,36
599,71	1675,24
599,91	1814,50
600,10	1710,05
600,29	1718,25
600,48	1732,58
600,68	1744,87
600,87	1773,54
601,06	1757,16
601,26	1677,29
601,45	1763,30
601,64	1783,78
601,83	1759,21
602,03	1732,58
602,22	1656,81
602,41	1757,16
602,60	1871,84
602,80	1746,92
602,99	1714,15
603,18	1654,76
603,37	1765,35
603,57	1787,88
603,76	1789,92
603,95	1847,27
604,14	1689,57
604,34	1570,79
604,53	1720,29
604,72	1763,30
604,91	1822,69
605,10	1818,60
605,30	1665,00
605,49	1918,95
605,68	1841,12
605,87	1693,67
606,07	1665,00
606,26	1705,96
606,45	1779,68
606,64	1681,38
606,84	1722,34
607,03	1794,02
607,22	1806,31
607,41	1699,81
607,60	1681,38
607,80	1810,40
607,99	1732,58
608,18	1734,63
608,37	1726,44
608,56	1718,25
608,76	1763,30
608,95	1830,88
609,14	1722,34
609,33	1710,05
609,52	1777,64
609,72	1800,16
609,91	1834,98
610,10	1736,68
610,29	1800,16
610,48	1802,21
610,68	1767,40
610,87	1693,67
611,06	1734,63
611,25	1767,40
611,44	1814,50
611,63	1675,24
611,83	1769,44
612,02	1628,14
612,21	1767,40
612,40	1681,38
612,59	1589,22
612,79	1697,77
612,98	1712,10
613,17	1853,41
613,36	1746,92
613,55	1855,46
613,74	1712,10
613,93	1736,68
614,13	1705,96
614,32	1832,93
614,51	1699,81
614,70	1652,71
614,89	1689,57
615,08	1761,25
615,28	2041,82
615,47	1681,38
615,66	1697,77
615,85	1736,68
616,04	1777,64
616,23	1714,15
616,42	1738,73
616,62	1728,49
616,81	1814,50
617,00	1691,62
617,19	1804,26
617,38	1738,73
617,57	1751,01
617,76	1720,29
617,95	1773,54
618,15	1730,53
618,34	1785,83
618,53	1646,57
618,72	1755,11
618,91	1808,36
619,10	1845,22
619,29	1744,87
619,48	1722,34
619,68	1671,14
619,87	1638,38
620,06	1646,57
620,25	1800,16
620,44	1705,96
620,63	1665,00
620,82	1673,19
621,01	1732,58
621,20	1693,67
621,39	1767,40
621,59	1800,16
621,78	1646,57
621,97	1720,29
622,16	1851,36
622,35	1718,25
622,54	1787,88
622,73	1816,55
622,92	1710,05
623,11	1771,49
623,30	1734,63
623,49	1794,02
623,68	1794,02
623,88	1814,50
624,07	1654,76
624,26	1718,25
624,45	1665,00
624,64	1812,45
624,83	1757,16
625,02	1730,53
625,21	1763,30
625,40	1783,78
625,59	1820,64
625,78	1712,10
625,97	1748,97
626,16	1796,07
626,35	1734,63
626,54	1652,71
626,74	1777,64
626,93	1730,53
627,12	1669,09
627,31	1787,88
627,50	1787,88
627,69	1734,63
627,88	1667,05
628,07	1757,16
628,26	1601,51
628,45	1767,40
628,64	1626,09
628,83	1777,64
629,02	1673,19
629,21	1701,86
629,40	1757,16
629,59	1634,28
629,78	1740,77
629,97	1693,67
630,16	1718,25
630,35	1687,53
630,54	1624,04
630,73	1662,95
630,92	1677,29
631,11	1691,62
631,30	1730,53
631,49	1775,59
631,68	1736,68
631,87	1746,92
632,06	1726,44
632,25	1824,74
632,44	1699,81
632,63	1726,44
632,82	1687,53
633,01	1640,42
633,20	1669,09
633,39	1667,05
633,58	1669,09
633,77	1697,77
633,96	1689,57
634,15	1687,53
634,34	1736,68
634,53	1708,01
634,72	1718,25
634,91	1642,47
635,10	1779,68
635,29	1767,40
635,48	1810,40
635,67	1724,39
635,86	1619,94
636,05	1808,36
636,24	1712,10
636,43	1712,10
636,62	1755,11
636,81	1609,70
637,00	1695,72
637,19	1787,88
637,38	1728,49
637,57	1673,19
637,76	1644,52
637,95	1656,81
638,14	1658,85
638,33	1742,82
638,52	1724,39
638,71	1654,76
638,89	1724,39
639,08	1816,55
639,27	1722,34
639,46	1603,56
639,65	1810,40
639,84	1689,57
640,03	1730,53
640,22	1695,72
640,41	1890,28
640,60	1630,18
640,79	1724,39
640,98	1710,05
641,17	1779,68
641,36	1693,67
641,55	1677,29
641,74	1669,09
641,92	1693,67
642,11	1681,38
642,30	1845,22
642,49	1658,85
642,68	1718,25
642,87	1710,05
643,06	1728,49
643,25	1681,38
643,44	1632,23
643,63	1757,16
643,82	1716,20
644,00	1667,05
644,19	1624,04
644,38	1621,99
644,57	1683,43
644,76	1763,30
644,95	1734,63
645,14	1732,58
645,33	1763,30
645,52	1712,10
645,71	1658,85
645,89	1638,38
646,08	1734,63
646,27	1685,48
646,46	1816,55
646,65	1689,57
646,84	1710,05
647,03	1630,18
647,22	1818,60
647,40	1718,25
647,59	1699,81
647,78	1630,18
647,97	1681,38
648,16	1654,76
648,35	1722,34
648,54	1775,59
648,73	1720,29
648,91	1726,44
649,10	1638,38
649,29	1605,61
649,48	1734,63
649,67	1722,34
649,86	1720,29
650,05	1767,40
650,23	1751,01
650,42	1660,90
650,61	1771,49
650,80	1728,49
650,99	1837,03
651,18	1751,01
651,36	1767,40
651,55	1669,09
651,74	1746,92
651,93	1693,67
652,12	1705,96
652,31	1767,40
652,49	1681,38
652,68	1769,44
652,87	1742,82
653,06	1773,54
653,25	1816,55
653,44	1705,96
653,62	1794,02
653,81	1673,19
654,00	1716,20
654,19	1748,97
654,38	1904,61
654,56	1732,58
654,75	1726,44
654,94	1708,01
655,13	1669,09
655,32	1710,05
655,51	1820,64
655,69	1665,00
655,88	1771,49
656,07	1669,09
656,26	1785,83
656,45	1648,61
656,63	1732,58
656,82	1705,96
657,01	1730,53
657,20	1685,48
657,38	1806,31
657,57	1632,23
657,76	1681,38
657,95	1779,68
658,14	1681,38
658,32	1722,34
658,51	1640,42
658,70	1726,44
658,89	1710,05
659,08	1699,81
659,26	1820,64
659,45	1626,09
659,64	1677,29
659,83	1726,44
660,01	1904,61
660,20	1726,44
660,39	1738,73
660,58	1628,14
660,76	1746,92
660,95	1632,23
661,14	1753,06
661,33	1701,86
661,51	1669,09
661,70	1658,85
661,89	1753,06
662,08	1611,75
662,26	1615,85
662,45	1716,20
662,64	1853,41
662,83	1722,34
663,01	1667,05
663,20	1621,99
663,39	1753,06
663,58	1658,85
663,76	1708,01
663,95	1734,63
664,14	1675,24
664,32	1714,15
664,51	1746,92
664,70	1644,52
664,89	1783,78
665,07	1658,85
665,26	1703,91
665,45	1695,72
665,64	1779,68
665,82	1726,44
666,01	1705,96
666,20	1748,97
666,38	1818,60
666,57	1804,26
666,76	2191,33
666,95	4614,07
667,13	10321,76
667,32	15312,66
667,51	17858,29
667,69	19087,07
667,88	17590,00
668,07	12347,20
668,25	9496,43
668,44	8099,72
668,63	7305,10
668,81	6903,70
669,00	6385,57
669,19	5595,05
669,38	4990,90
669,56	4597,69
669,75	3971,01
669,94	3370,96
670,12	2881,49
670,31	2508,76
670,50	2256,86
670,68	2037,73
670,87	1976,29
671,06	1843,17
671,24	1798,12
671,43	1730,53
671,62	1724,39
671,80	1736,68
671,99	1726,44
672,18	1699,81
672,36	1677,29
672,55	1798,12
672,74	1695,72
672,92	1724,39
673,11	1685,48
673,29	1671,14
673,48	1837,03
673,67	1634,28
673,85	1839,08
674,04	1671,14
674,23	1648,61
674,41	1765,35
674,60	1724,39
674,79	1617,90
674,97	1669,09
675,16	1718,25
675,34	1789,92
675,53	1669,09
675,72	1755,11
675,90	1753,06
676,09	1683,43
676,28	1767,40
676,46	1691,62
676,65	1763,30
676,83	1669,09
677,02	1626,09
677,21	1783,78
677,39	1662,95
677,58	1728,49
677,77	1648,61
677,95	1687,53
678,14	1755,11
678,32	1708,01
678,51	1740,77
678,70	1828,84
678,88	1703,91
679,07	1808,36
679,25	1708,01
679,44	1693,67
679,63	1736,68
679,81	1726,44
680,00	1726,44
680,18	1714,15
680,37	1783,78
680,55	1689,57
680,74	1673,19
680,93	1527,78
681,11	1712,10
681,30	1722,34
681,48	1722,34
681,67	1644,52
681,85	1691,62
682,04	1671,14
682,23	1746,92
682,41	1746,92
682,60	1660,90
682,78	1636,33
682,97	1724,39
683,15	1757,16
683,34	1687,53
683,53	1820,64
683,71	1673,19
683,90	1796,07
684,08	1791,97
684,27	1689,57
684,45	1740,77
684,64	1771,49
684,82	1755,11
685,01	1732,58
685,19	1744,87
685,38	1798,12
685,57	1722,34
685,75	1701,86
685,94	1714,15
686,12	1669,09
686,31	1603,56
686,49	1798,12
686,68	1570,79
686,86	1722,34
687,05	1718,25
687,23	1816,55
687,42	1654,76
687,60	1576,94
687,79	1757,16
687,97	1726,44
688,16	1849,32
688,34	1763,30
688,53	1589,22
688,71	1738,73
688,90	1738,73
689,08	1732,58
689,27	1615,85
689,45	1742,82
689,64	1781,73
689,82	1697,77
690,01	1701,86
690,19	1757,16
690,38	1730,53
690,56	1718,25
690,75	1677,29
690,93	1771,49
691,12	1685,48
691,30	1738,73
691,49	1644,52
691,67	1716,20
691,86	1818,60
692,04	1730,53
692,23	1642,47
692,41	1728,49
692,60	1839,08
692,78	1773,54
692,97	1675,24
693,15	1699,81
693,34	1767,40
693,52	1746,92
693,71	1742,82
693,89	1665,00
694,08	1578,98
694,26	1718,25
694,44	1673,19
694,63	1730,53
694,81	1583,08
695,00	1585,13
695,18	1734,63
695,37	1771,49
695,55	1701,86
695,74	1662,95
695,92	1646,57
696,10	1773,54
696,29	1703,91
696,47	1705,96
696,66	1650,66
696,84	1744,87
697,03	1751,01
697,21	1722,34
697,40	2297,82
697,58	1769,44
697,76	1669,09
697,95	1677,29
698,13	1703,91
698,32	1665,00
698,50	1710,05
698,68	1800,16
698,87	1718,25
699,05	1808,36
699,24	1773,54
699,42	1693,67
699,61	1665,00
699,79	1695,72
699,97	1705,96
700,16	1656,81
700,34	1619,94
700,53	1730,53
700,71	1810,40
700,89	1714,15
701,08	1693,67
701,26	1681,38
701,45	2211,81
701,63	1751,01
701,81	1744,87
702,00	1705,96
702,18	1736,68
702,37	1705,96
702,55	1699,81
702,73	1761,25
702,92	1587,18
703,10	1738,73
703,28	1710,05
703,47	1642,47
703,65	1783,78
703,84	1759,21
704,02	1691,62
704,20	1708,01
704,39	1751,01
704,57	1705,96
704,75	1767,40
704,94	1773,54
705,12	1671,14
705,30	1832,93
705,49	2250,72
705,67	4374,46
705,86	9443,18
706,04	12386,12
706,22	14245,67
706,41	15243,03
706,59	13719,34
706,77	9539,44
706,96	7194,51
707,14	6506,40
707,32	5930,92
707,51	5492,65
707,69	4831,16
707,87	4134,85
708,06	3416,01
708,24	3041,23
708,42	2437,08
708,61	2220,00
708,79	1910,75
708,97	1849,32
709,16	1873,89
709,34	1818,60
709,52	1726,44
709,71	1773,54
709,89	1779,68
710,07	1718,25
710,26	1691,62
710,44	1742,82
710,62	1708,01
710,80	1699,81
710,99	1718,25
711,17	1691,62
711,35	1642,47
711,54	1746,92
711,72	1865,70
711,90	1746,92
712,09	1701,86
712,27	1705,96
712,45	1695,72
712,63	1652,71
712,82	1722,34
713,00	1720,29
713,18	1734,63
713,37	1767,40
713,55	1679,33
713,73	1740,77
713,91	1710,05
714,10	1634,28
714,28	1695,72
714,46	1787,88
714,65	1757,16
714,83	1624,04
715,01	1730,53
715,19	1714,15
715,38	1589,22
715,56	1781,73
715,74	1691,62
715,92	1656,81
716,11	1773,54
716,29	1632,23
716,47	1665,00
716,65	1718,25
716,84	1544,17
717,02	1783,78
717,20	1615,85
717,38	1738,73
717,57	1736,68
717,75	1714,15
717,93	1703,91
718,11	1648,61
718,30	1681,38
718,48	1734,63
718,66	1779,68
718,84	1738,73
719,03	1701,86
719,21	1722,34
719,39	1742,82
719,57	1740,77
719,75	1744,87
719,94	1611,75
720,12	1697,77
720,30	1710,05
720,48	1814,50
720,67	1738,73
720,85	1660,90
721,03	1687,53
721,21	1699,81
721,39	1865,70
721,58	1785,83
721,76	1765,35
721,94	1730,53
722,12	1716,20
722,30	1859,56
722,49	1689,57
722,67	1699,81
722,85	1789,92
723,03	1581,03
723,21	1693,67
723,40	1755,11
723,58	1779,68
723,76	1675,24
723,94	1800,16
724,12	1689,57
724,30	1765,35
724,49	1755,11
724,67	1665,00
724,85	1748,97
725,03	1611,75
725,21	1771,49
725,40	1800,16
725,58	1691,62
725,76	1742,82
725,94	1730,53
726,12	1609,70
726,30	1738,73
726,49	1724,39
726,67	1665,00
726,85	1744,87
727,03	1710,05
727,21	2123,74
727,39	2893,78
727,57	3835,85
727,76	4210,62
727,94	4413,37
728,12	4231,10
728,30	3606,47
728,48	2959,31
728,66	2715,61
728,84	2547,67
729,03	2346,97
729,21	2125,79
729,39	1988,58
729,57	1773,54
729,75	1777,64
729,93	1843,17
730,11	1687,53
730,30	1624,04
730,48	1773,54
730,66	1781,73
730,84	1734,63
731,02	1691,62
731,20	1716,20
731,38	1681,38
731,56	1677,29
731,74	1705,96
731,93	1732,58
732,11	1693,67
732,29	1658,85
732,47	1751,01
732,65	1710,05
732,83	1787,88
733,01	1640,42
733,19	1689,57
733,37	1748,97
733,56	1806,31
733,74	1708,01
733,92	1814,50
734,10	1734,63
734,28	1732,58
734,46	1615,85
734,64	1763,30
734,82	1701,86
735,00	1681,38
735,18	1613,80
735,36	1681,38
735,54	1665,00
735,73	1794,02
735,91	1730,53
736,09	1779,68
736,27	1746,92
736,45	1724,39
736,63	1591,27
736,81	1683,43
736,99	1689,57
737,17	1718,25
737,35	1789,92
737,53	1732,58
737,71	1611,75
737,89	1796,07
738,07	1687,53
738,25	1705,96
738,43	1619,94
738,61	1673,19
738,80	1665,00
738,98	1630,18
739,16	1687,53
739,34	1626,09
739,52	1738,73
739,70	1695,72
739,88	1732,58
740,06	1783,78
740,24	1648,61
740,42	1791,97
740,60	1615,85
740,78	1595,37
740,96	1646,57
741,14	1593,32
741,32	1724,39
741,50	1685,48
741,68	1851,36
741,86	1789,92
742,04	1642,47
742,22	1673,19
742,40	1845,22
742,58	1814,50
742,76	1665,00
742,94	1771,49
743,12	1601,51
743,30	1722,34
743,48	1705,96
743,66	1638,38
743,84	1781,73
744,02	1650,66
744,20	1634,28
744,38	1667,05
744,56	1677,29
744,74	1798,12
744,92	1705,96
745,10	1804,26
745,28	1744,87
745,46	1830,88
745,64	1660,90
745,82	1695,72
746,00	1699,81
746,18	1665,00
746,36	1626,09
746,54	1703,91
746,72	1718,25
746,90	1685,48
747,08	1814,50
747,26	1669,09
747,44	1732,58
747,62	1665,00
747,80	1738,73
747,98	1769,44
748,15	1740,77
748,33	1779,68
748,51	1718,25
748,69	1708,01
748,87	1658,85
749,05	1705,96
749,23	1640,42
749,41	1777,64
749,59	1699,81
749,77	1740,77
749,95	1658,85
750,13	1677,29
750,31	1691,62
750,49	1662,95
750,67	1722,34
750,85	1802,21
751,03	1742,82
751,20	1773,54
751,38	1708,01
751,56	1708,01
751,74	1755,11
751,92	1734,63
752,10	1673,19
752,28	1726,44
752,46	1599,46
752,64	1624,04
752,82	1652,71
753,00	1693,67
753,18	1673,19
753,35	1656,81
753,53	1624,04
753,71	1601,51
753,89	1767,40
754,07	1667,05
754,25	1806,31
754,43	1708,01
754,61	1628,14
754,79	1734,63
754,97	1787,88
755,14	1683,43
755,32	1626,09
755,50	1669,09
755,68	1691,62
755,86	1654,76
756,04	1705,96
756,22	1648,61
756,40	1730,53
756,57	1810,40
756,75	1636,33
756,93	1722,34
757,11	1705,96
757,29	1673,19
757,47	1621,99
757,65	1677,29
757,82	1585,13
758,00	1724,39
758,18	1665,00
758,36	1677,29
758,54	1855,46
758,72	1648,61
758,90	1773,54
759,07	1703,91
759,25	1607,66
759,43	1794,02
759,61	1658,85
759,79	2209,76
759,97	1757,16
760,15	1642,47
760,32	1652,71
760,50	1748,97
760,68	1804,26
760,86	1628,14
761,04	1800,16
761,22	1804,26
761,39	1685,48
761,57	1751,01
761,75	1695,72
761,93	1746,92
762,11	1685,48
762,28	1732,58
762,46	1667,05
762,64	1746,92
762,82	1746,92
763,00	1665,00
763,18	1708,01
763,35	1636,33
763,53	1798,12
763,71	1718,25
763,89	1683,43
764,07	1800,16
764,24	1775,59
764,42	1669,09
764,60	1720,29
764,78	1736,68
764,96	1673,19
765,13	1791,97
765,31	1748,97
765,49	1681,38
765,67	1574,89
765,84	1617,90
766,02	1699,81
766,20	1632,23
766,38	1757,16
766,56	1724,39
766,73	1720,29
766,91	1742,82
767,09	1732,58
767,27	1654,76
767,44	1720,29
767,62	1777,64
767,80	1751,01
767,98	1683,43
768,15	1681,38
768,33	1761,25
768,51	1714,15
768,69	1753,06
768,87	1714,15
769,04	1662,95
769,22	1808,36
769,40	1773,54
769,58	1798,12
769,75	1710,05
769,93	1746,92
770,11	1742,82
770,28	1646,57
770,46	1730,53
770,64	1683,43
770,82	1650,66
770,99	1722,34
771,17	1658,85
771,35	1726,44
771,53	1691,62
771,70	1609,70
771,88	1691,62
772,06	1652,71
772,23	1615,85
772,41	1806,31
772,59	1638,38
772,77	1656,81
772,94	1763,30
773,12	1699,81
773,30	1624,04
773,47	1703,91
773,65	1652,71
773,83	1798,12
774,01	1753,06
774,18	1556,46
774,36	1660,90
774,54	1656,81
774,71	1730,53
774,89	1611,75
775,07	1714,15
775,24	1765,35
775,42	1687,53
775,60	1773,54
775,78	1677,29
775,95	1642,47
776,13	1595,37
776,31	1486,83
776,48	1665,00
776,66	1763,30
776,84	1675,24
777,01	1658,85
777,19	1673,19
777,37	1667,05
777,54	1638,38
777,72	1791,97
777,90	1656,81
778,07	1630,18
778,25	1865,70
778,43	1720,29
778,60	1679,33
778,78	1775,59
778,96	1781,73
779,13	1660,90
779,31	1724,39
779,49	1716,20
779,66	1638,38
779,84	1687,53
780,01	1753,06
780,19	1673,19
780,37	1777,64
780,54	1755,11
780,72	1632,23
780,90	1665,00
781,07	1724,39
781,25	1683,43
781,43	1787,88
781,60	1675,24
781,78	1736,68
781,95	1740,77
782,13	1724,39
782,31	1755,11
782,48	1673,19
782,66	1738,73
782,83	1820,64
783,01	1722,34
783,19	1798,12
783,36	1687,53
783,54	1613,80
783,72	1675,24
783,89	1699,81
784,07	1736,68
784,24	1742,82
784,42	1763,30
784,60	1660,90
784,77	1724,39
784,95	1640,42
785,12	1689,57
785,30	1734,63
785,47	1554,41
785,65	1652,71
785,83	1615,85
786,00	1630,18
786,18	1759,21
786,35	1642,47
786,53	1658,85
786,71	1718,25
786,88	1703,91
787,06	1746,92
787,23	1648,61
787,41	1673,19
787,58	1736,68
787,76	1695,72
787,94	1722,34
788,11	1728,49
788,29	1656,81
788,46	1693,67
788,64	1660,90
788,81	1658,85
788,99	1652,71
789,16	1652,71
789,34	1771,49
789,52	1654,76
789,69	1632,23
789,87	1531,88
790,04	1609,70
790,22	1742,82
790,39	1773,54
790,57	1617,90
790,74	1642,47
790,92	1832,93
791,09	1542,12
791,27	1634,28
791,44	1789,92
791,62	1593,32
791,79	1728,49
791,97	1634,28
792,15	1888,23
792,32	1708,01
792,50	1619,94
792,67	1708,01
792,85	1773,54
793,02	1740,77
793,20	1697,77
793,37	1533,93
793,55	1740,77
793,72	1615,85
793,90	1800,16
794,07	1609,70
794,25	1595,37
794,42	1683,43
794,60	1716,20
794,77	1765,35
794,95	1755,11
795,12	1734,63
795,30	1648,61
795,47	1654,76
795,65	1857,51
795,82	1703,91
796,00	1642,47
796,17	1658,85
796,34	1648,61
796,52	1624,04
796,69	1763,30
796,87	1726,44
797,04	1751,01
797,22	1708,01
797,39	1693,67
797,57	1726,44
797,74	1691,62
797,92	1767,40
798,09	1718,25
798,27	1777,64
798,44	1720,29
798,62	1669,09
798,79	1656,81
798,96	1697,77
799,14	1716,20
799,31	1853,41
799,49	1652,71
799,66	1662,95
799,84	1710,05
800,01	1654,76
800,19	1742,82
800,36	1638,38
800,53	1730,53
800,71	1732,58
800,88	1765,35
801,06	1695,72
801,23	1619,94
801,41	1759,21
801,58	1742,82
801,75	1665,00
801,93	1693,67
802,10	1773,54
802,28	1648,61
802,45	1603,56
802,63	1712,10
802,80	1826,79
802,97	1685,48
803,15	1714,15
803,32	1660,90
803,50	1605,61
803,67	1634,28
803,84	1583,08
804,02	1671,14
804,19	1710,05
804,37	1597,42
804,54	1642,47
804,71	1689,57
804,89	1708,01
805,06	1677,29
805,24	1560,55
805,41	1599,46
805,58	1632,23
805,76	1830,88
805,93	1675,24
806,10	1822,69
806,28	1708,01
806,45	1732,58
806,63	1748,97
806,80	1738,73
806,97	1722,34
807,15	1763,30
807,32	1755,11
807,49	1658,85
807,67	1615,85
807,84	1691,62
808,01	1693,67
808,19	1861,60
808,36	1755,11
808,54	1697,77
808,71	1624,04
808,88	1628,14
809,06	1789,92
809,23	1855,46
809,40	1671,14
809,58	1771,49
809,75	1718,25
809,92	1677,29
810,10	1820,64
810,27	1708,01
810,44	1738,73
810,62	1773,54
810,79	1669,09
810,96	1751,01
811,14	1677,29
811,31	1748,97
811,48	1708,01
811,66	1755,11
811,83	1753,06
812,00	1689,57
812,18	1771,49
812,35	1796,07
812,52	1683,43
812,69	1609,70
812,87	1718,25
813,04	1642,47
813,21	1726,44
813,39	1708,01
813,56	1710,05
813,73	1744,87
813,91	1636,33
814,08	1705,96
814,25	1765,35
814,42	1621,99
814,60	1697,77
814,77	1751,01
814,94	1638,38
815,12	1665,00
815,29	1767,40
815,46	1708,01
815,63	1685,48
815,81	1630,18
815,98	1648,61
816,15	1726,44
816,33	1693,67
816,50	1744,87
816,67	1691,62
816,84	1693,67
817,02	1574,89
817,19	1685,48
817,36	1699,81
817,53	1695,72
817,71	1744,87
817,88	1789,92
818,05	1759,21
818,22	1722,34
818,40	1820,64
818,57	1648,61
818,74	1660,90
818,91	1675,24
819,09	1718,25
819,26	1730,53
819,43	1675,24
819,60	1738,73
819,78	1714,15
819,95	1753,06
820,12	1646,57
820,29	1841,12
820,47	1705,96
820,64	1656,81
820,81	1609,70
820,98	1603,56
821,15	1665,00
821,33	1843,17
821,50	1632,23
821,67	1726,44
821,84	1652,71
822,02	1751,01
822,19	1769,44
822,36	1617,90
822,53	1732,58
822,70	1640,42
822,88	1640,42
823,05	1708,01
823,22	1757,16
823,39	1673,19
823,56	1695,72
823,74	1753,06
823,91	1650,66
824,08	1636,33
824,25	1578,98
824,42	1830,88
824,60	1638,38
824,77	1722,34
824,94	1681,38
825,11	1730,53
825,28	1636,33
825,45	1710,05
825,63	1695,72
825,80	1638,38
825,97	1777,64
826,14	1673,19
826,31	1632,23
826,48	1781,73
826,66	1669,09
826,83	1673,19
827,00	1714,15
827,17	1656,81
827,34	1658,85
827,51	1665,00
827,69	1671,14
827,86	1634,28
828,03	1685,48
828,20	1667,05
828,37	1703,91
828,54	1736,68
828,71	1587,18
828,89	1730,53
829,06	1718,25
829,23	1847,27
829,40	1644,52
829,57	1609,70
829,74	1781,73
829,91	1669,09
830,09	1632,23
830,26	1714,15
830,43	1802,21
830,60	1691,62
830,77	1816,55
830,94	1783,78
831,11	1703,91
831,28	1650,66
831,46	1812,45
831,63	1687,53
831,80	1746,92
831,97	1691,62
832,14	1708,01
832,31	1773,54
832,48	1695,72
832,65	1691,62
832,82	1669,09
832,99	1699,81
833,17	1634,28
833,34	1753,06
833,51	1699,81
833,68	1589,22
833,85	1703,91
834,02	1605,61
834,19	1685,48
834,36	1689,57
834,53	1748,97
834,70	1681,38
834,87	1736,68
835,04	1681,38
835,22	1685,48
835,39	1638,38
835,56	1642,47
835,73	1619,94
835,90	1738,73
836,07	1640,42
836,24	1736,68
836,41	1568,74
836,58	1601,51
836,75	1771,49
836,92	1683,43
837,09	1636,33
837,26	1695,72
837,43	1648,61
837,60	1759,21
837,77	1636,33
837,94	1697,77
838,12	1757,16
838,29	1742,82
838,46	1560,55
838,63	1662,95
838,80	1798,12
838,97	1755,11
839,14	1658,85
839,31	1777,64
839,48	1787,88
839,65	1634,28
839,82	1740,77
839,99	1693,67
840,16	1740,77
840,33	1767,40
840,50	1679,33
840,67	1748,97
840,84	1560,55
841,01	1689,57
841,18	1714,15
841,35	1652,71
841,52	1744,87
841,69	1791,97
841,86	1753,06
842,03	1673,19
842,20	1789,92
842,37	1740,77
842,54	1671,14
842,71	1675,24
842,88	1710,05
843,05	1679,33
843,22	1636,33
843,39	1785,83
843,56	1656,81
843,73	1628,14
843,90	1705,96
844,07	1583,08
844,24	1732,58
844,41	1712,10
844,58	1656,81
844,75	1695,72
844,92	1765,35
845,09	1669,09
845,26	1646,57
845,43	1705,96
845,60	1626,09
845,77	1712,10
845,94	1742,82
846,10	1763,30
846,27	1599,46
846,44	1619,94
846,61	1642,47
846,78	1724,39
846,95	1777,64
847,12	1665,00
847,29	1718,25
847,46	1675,24
847,63	1720,29
847,80	1708,01
847,97	1699,81
848,14	1847,27
848,31	1621,99
848,48	1656,81
848,65	1726,44
848,82	1630,18
848,98	1839,08
849,15	1718,25
849,32	1775,59
849,49	1748,97
849,66	1691,62
849,83	1626,09
850,00	1646,57
850,17	1757,16
850,34	1677,29
850,51	1667,05
850,68	1699,81
850,85	1689,57
851,01	1689,57
851,18	1662,95
851,35	1679,33
851,52	1714,15
851,69	1796,07
851,86	1599,46
852,03	1671,14
852,20	1712,10
852,37	1681,38
852,53	1593,32
852,70	1734,63
852,87	1689,57
853,04	1673,19
853,21	1722,34
853,38	1683,43
853,55	1716,20
853,72	1728,49
853,89	1699,81
854,05	1691,62
854,22	1675,24
854,39	1640,42
854,56	1748,97
854,73	1685,48
854,90	1705,96
855,07	1669,09
855,23	1630,18
855,40	1751,01
855,57	1650,66
855,74	1572,84
855,91	1839,08
856,08	1609,70
856,25	1667,05
856,41	1738,73
856,58	1656,81
856,75	1687,53
856,92	1583,08
857,09	1822,69
857,26	1665,00
857,42	1732,58
857,59	1755,11
857,76	1730,53
857,93	1716,20
858,10	1673,19
858,27	1701,86
858,43	1740,77
858,60	1675,24
858,77	1587,18
858,94	1603,56
859,11	1701,86
859,27	1640,42
859,44	1630,18
859,61	1779,68
859,78	1697,77
859,95	1712,10
860,12	1648,61
860,28	1880,04
860,45	1851,36
860,62	1681,38
860,79	1689,57
860,95	1652,71
861,12	1642,47
861,29	1683,43
861,46	1634,28
861,63	1716,20
861,79	1689,57
861,96	1619,94
862,13	1695,72
862,30	1761,25
862,47	1646,57
862,63	1669,09
862,80	1755,11
862,97	1689,57
863,14	1703,91
863,30	1730,53
863,47	1648,61
863,64	1722,34
863,81	1761,25
863,97	1658,85
864,14	1738,73
864,31	1568,74
864,48	1728,49
864,65	1687,53
864,81	1726,44
864,98	1693,67
865,15	1744,87
865,32	1812,45
865,48	1687,53
865,65	1771,49
865,82	1716,20
865,98	1804,26
866,15	1763,30
866,32	1695,72
866,49	1683,43
866,65	1691,62
866,82	1650,66
866,99	1699,81
867,16	1683,43
867,32	1730,53
867,49	1650,66
867,66	1624,04
867,83	1650,66
867,99	1656,81
868,16	1687,53
868,33	1607,66
868,49	1665,00
868,66	1728,49
868,83	1697,77
868,99	1710,05
869,16	1691,62
869,33	1810,40
869,50	1740,77
869,66	1658,85
869,83	1648,61
870,00	1617,90
870,16	1660,90
870,33	1746,92
870,50	1751,01
870,66	1621,99
870,83	1839,08
871,00	1644,52
871,17	1683,43
871,33	1730,53
871,50	1665,00
871,67	1656,81
871,83	1656,81
872,00	1769,44
872,17	1621,99
872,33	1726,44
872,50	1716,20
872,67	1662,95
872,83	1748,97
873,00	1665,00
873,17	1703,91
873,33	1656,81
873,50	1746,92
873,67	1708,01
873,83	1705,96
874,00	1638,38
874,16	1789,92
874,33	1673,19
874,50	1583,08
874,66	1714,15
874,83	1716,20
875,00	1736,68
875,16	1767,40
875,33	1767,40
875,50	1505,26
875,66	1689,57
875,83	1691,62
875,99	1732,58
876,16	1726,44
876,33	1619,94
876,49	1619,94
876,66	1712,10
876,83	1646,57
876,99	1642,47
877,16	1652,71
877,32	1611,75
877,49	1665,00
877,66	1691,62
877,82	1691,62
877,99	1736,68
878,15	1665,00
878,32	1773,54
878,49	1705,96
878,65	1652,71
878,82	1738,73
878,98	1685,48
879,15	1693,67
879,32	1714,15
879,48	1646,57
879,65	1642,47
879,81	1673,19
879,98	1722,34
880,15	1642,47
880,31	1826,79
880,48	1648,61
880,64	1787,88
880,81	1787,88
880,97	1853,41
881,14	1714,15
881,31	1644,52
881,47	1880,04
881,64	1667,05
881,80	1578,98
881,97	1644,52
882,13	1769,44
882,30	1578,98
882,47	1671,14
882,63	1656,81
882,80	1693,67
882,96	1640,42
883,13	1755,11
883,29	1697,77
883,46	1765,35
883,62	1781,73
883,79	1685,48
883,95	1802,21
884,12	1724,39
884,29	1755,11
884,45	1650,66
884,62	1814,50
884,78	1658,85
884,95	1726,44
885,11	1665,00
885,28	1671,14
885,44	1646,57
885,61	1701,86
885,77	1724,39
885,94	1759,21
886,10	1615,85
886,27	1720,29
886,43	1787,88
886,60	1767,40
886,76	1667,05
886,93	1679,33
887,09	1675,24
887,26	1673,19
887,42	1755,11
887,59	1818,60
887,75	1775,59
887,92	1783,78
888,08	1701,86
888,25	1759,21
888,41	1728,49
888,58	1726,44
888,74	1656,81
888,91	1708,01
>>>>>End Processed Spectral Data<<<<<
