SpectraSuite Data File
++++++++++++++++++++++++++++++++++++
Date: Mon Jun 06 15:08:17 CEST 2016
User: root
Dark Spectrum Present: No
Reference Spectrum Present: No
Number of Sampled Component Spectra: 1
Spectrometers: USB4C02835
Integration Time (usec): 100000 (USB4C02835)
Spectra Averaged: 1 (USB4C02835)
Boxcar Smoothing: 0 (USB4C02835)
Correct for Electrical Dark: No (USB4C02835)
Strobe/Lamp Enabled: No (USB4C02835)
Correct for Detector Non-linearity: No (USB4C02835)
Correct for Stray Light: No (USB4C02835)
Number of Pixels in Processed Spectrum: 3648
>>>>>Begin Processed Spectral Data<<<<<
177,47	1505,26
177,69	1505,26
177,91	1505,26
178,13	1456,11
178,36	1429,48
178,58	1685,48
178,80	1705,96
179,02	1628,14
179,24	1677,29
179,46	1734,63
179,68	1642,47
179,90	1726,44
180,13	1679,33
180,35	1628,14
180,57	1673,19
180,79	1695,72
181,01	1714,15
181,23	1759,21
181,45	1855,46
181,67	1712,10
181,90	1761,25
182,12	1691,62
182,34	1640,42
182,56	1710,05
182,78	1708,01
183,00	1697,77
183,22	1734,63
183,44	1634,28
183,66	1804,26
183,89	1761,25
184,11	1734,63
184,33	1720,29
184,55	1755,11
184,77	1644,52
184,99	1701,86
185,21	1689,57
185,43	1824,74
185,65	1652,71
185,87	1757,16
186,10	1785,83
186,32	1916,90
186,54	1728,49
186,76	1734,63
186,98	1738,73
187,20	1685,48
187,42	1738,73
187,64	1720,29
187,86	1695,72
188,08	1751,01
188,30	1714,15
188,52	1761,25
188,75	1703,91
188,97	1796,07
189,19	1660,90
189,41	1710,05
189,63	1779,68
189,85	1728,49
190,07	1671,14
190,29	1603,56
190,51	1787,88
190,73	1689,57
190,95	1730,53
191,17	1718,25
191,39	1562,60
191,61	1697,77
191,84	1724,39
192,06	1667,05
192,28	1558,50
192,50	1855,46
192,72	1695,72
192,94	1675,24
193,16	1804,26
193,38	1673,19
193,60	1636,33
193,82	1724,39
194,04	1693,67
194,26	1687,53
194,48	1714,15
194,70	1681,38
194,92	1693,67
195,14	1701,86
195,36	1689,57
195,58	1738,73
195,80	1652,71
196,02	1699,81
196,24	1748,97
196,46	1642,47
196,69	1665,00
196,91	1875,94
197,13	1693,67
197,35	1681,38
197,57	1789,92
197,79	1779,68
198,01	1681,38
198,23	1832,93
198,45	1751,01
198,67	1632,23
198,89	1681,38
199,11	1724,39
199,33	1603,56
199,55	1632,23
199,77	1763,30
199,99	1785,83
200,21	1724,39
200,43	1720,29
200,65	1679,33
200,87	1587,18
201,09	1665,00
201,31	1691,62
201,53	1742,82
201,75	1677,29
201,97	1667,05
202,19	1701,86
202,41	1814,50
202,63	1824,74
202,85	1705,96
203,07	1712,10
203,29	1665,00
203,51	1708,01
203,73	1603,56
203,95	1890,28
204,17	1683,43
204,39	1763,30
204,61	1662,95
204,83	1712,10
205,05	1722,34
205,27	1753,06
205,49	1763,30
205,71	1755,11
205,93	1695,72
206,15	1685,48
206,37	1650,66
206,59	1646,57
206,81	1667,05
207,03	1601,51
207,25	1699,81
207,47	1757,16
207,69	1703,91
207,91	1728,49
208,13	1708,01
208,34	1703,91
208,56	1662,95
208,78	1757,16
209,00	1642,47
209,22	1648,61
209,44	1646,57
209,66	1636,33
209,88	1746,92
210,10	1669,09
210,32	1605,61
210,54	1755,11
210,76	1656,81
210,98	1761,25
211,20	1554,41
211,42	1763,30
211,64	1740,77
211,86	1722,34
212,08	1757,16
212,30	1738,73
212,52	1683,43
212,74	1746,92
212,96	1699,81
213,17	1757,16
213,39	1714,15
213,61	1781,73
213,83	1669,09
214,05	1665,00
214,27	1826,79
214,49	1636,33
214,71	1654,76
214,93	1837,03
215,15	1638,38
215,37	1699,81
215,59	1679,33
215,81	1759,21
216,03	1736,68
216,24	1697,77
216,46	1689,57
216,68	1714,15
216,90	1738,73
217,12	1802,21
217,34	1736,68
217,56	1732,58
217,78	1714,15
218,00	1712,10
218,22	1728,49
218,44	1785,83
218,66	1714,15
218,87	1787,88
219,09	1716,20
219,31	1757,16
219,53	1771,49
219,75	1644,52
219,97	1656,81
220,19	1708,01
220,41	1740,77
220,63	1773,54
220,85	1759,21
221,06	1648,61
221,28	1841,12
221,50	1703,91
221,72	1683,43
221,94	1738,73
222,16	1632,23
222,38	1794,02
222,60	1703,91
222,82	1728,49
223,03	1771,49
223,25	1658,85
223,47	1697,77
223,69	1808,36
223,91	1673,19
224,13	1759,21
224,35	1708,01
224,57	1685,48
224,78	1771,49
225,00	1697,77
225,22	1662,95
225,44	1656,81
225,66	1724,39
225,88	1689,57
226,10	1779,68
226,32	1699,81
226,53	1810,40
226,75	1636,33
226,97	1695,72
227,19	1675,24
227,41	1613,80
227,63	1611,75
227,85	1673,19
228,06	1673,19
228,28	1724,39
228,50	1699,81
228,72	1656,81
228,94	1714,15
229,16	1607,66
229,37	1585,13
229,59	1708,01
229,81	1783,78
230,03	1681,38
230,25	1617,90
230,47	1714,15
230,69	1677,29
230,90	1753,06
231,12	1734,63
231,34	1695,72
231,56	1863,65
231,78	1675,24
232,00	1634,28
232,21	1703,91
232,43	1734,63
232,65	1650,66
232,87	1796,07
233,09	1634,28
233,30	1652,71
233,52	1826,79
233,74	1679,33
233,96	1695,72
234,18	1763,30
234,40	1751,01
234,61	1832,93
234,83	1632,23
235,05	1583,08
235,27	1812,45
235,49	1728,49
235,70	1722,34
235,92	1751,01
236,14	1732,58
236,36	1847,27
236,58	1599,46
236,79	1728,49
237,01	1728,49
237,23	1615,85
237,45	1794,02
237,67	1648,61
237,88	1779,68
238,10	1785,83
238,32	1601,51
238,54	1634,28
238,76	1667,05
238,97	1615,85
239,19	1732,58
239,41	1728,49
239,63	1736,68
239,85	1689,57
240,06	1738,73
240,28	1646,57
240,50	1716,20
240,72	1648,61
240,93	1693,67
241,15	1767,40
241,37	1675,24
241,59	1773,54
241,81	1746,92
242,02	1722,34
242,24	1722,34
242,46	1791,97
242,68	1589,22
242,89	1687,53
243,11	1724,39
243,33	1679,33
243,55	1710,05
243,76	1773,54
243,98	1658,85
244,20	1665,00
244,42	1722,34
244,64	1714,15
244,85	1581,03
245,07	1759,21
245,29	1665,00
245,51	1708,01
245,72	1642,47
245,94	1779,68
246,16	1718,25
246,38	1779,68
246,59	1638,38
246,81	1646,57
247,03	1691,62
247,24	1587,18
247,46	1669,09
247,68	1703,91
247,90	1675,24
248,11	1658,85
248,33	1740,77
248,55	1574,89
248,77	1703,91
248,98	1742,82
249,20	1789,92
249,42	1771,49
249,64	1710,05
249,85	1757,16
250,07	1710,05
250,29	1662,95
250,50	1705,96
250,72	1679,33
250,94	1714,15
251,16	1845,22
251,37	1802,21
251,59	1665,00
251,81	1705,96
252,02	1826,79
252,24	1636,33
252,46	1765,35
252,68	1593,32
252,89	1769,44
253,11	1603,56
253,33	1769,44
253,54	1800,16
253,76	1660,90
253,98	1644,52
254,20	1665,00
254,41	1662,95
254,63	1753,06
254,85	1632,23
255,06	1646,57
255,28	1724,39
255,50	1617,90
255,71	1630,18
255,93	1578,98
256,15	1714,15
256,36	1779,68
256,58	1652,71
256,80	1644,52
257,02	1665,00
257,23	1703,91
257,45	1683,43
257,67	1742,82
257,88	1703,91
258,10	1710,05
258,32	1734,63
258,53	1691,62
258,75	1757,16
258,97	1636,33
259,18	1710,05
259,40	1718,25
259,62	1884,13
259,83	1812,45
260,05	1710,05
260,27	1972,19
260,48	1732,58
260,70	1601,51
260,92	1665,00
261,13	1658,85
261,35	1751,01
261,57	1701,86
261,78	1615,85
262,00	1656,81
262,22	1767,40
262,43	1701,86
262,65	1648,61
262,86	1724,39
263,08	1843,17
263,30	1681,38
263,51	1523,69
263,73	1687,53
263,95	1730,53
264,16	1675,24
264,38	1644,52
264,60	1705,96
264,81	1617,90
265,03	1724,39
265,25	1726,44
265,46	1740,77
265,68	1791,97
265,89	1751,01
266,11	1619,94
266,33	1794,02
266,54	1755,11
266,76	1738,73
266,98	1685,48
267,19	1861,60
267,41	1734,63
267,62	1632,23
267,84	1642,47
268,06	1705,96
268,27	1732,58
268,49	1779,68
268,70	1791,97
268,92	1705,96
269,14	1681,38
269,35	1611,75
269,57	1689,57
269,79	1746,92
270,00	1634,28
270,22	1802,21
270,43	1636,33
270,65	1589,22
270,87	1677,29
271,08	1765,35
271,30	1708,01
271,51	1650,66
271,73	1730,53
271,95	1740,77
272,16	1636,33
272,38	1771,49
272,59	1705,96
272,81	1732,58
273,02	1705,96
273,24	1716,20
273,46	1783,78
273,67	1656,81
273,89	1648,61
274,10	1595,37
274,32	1798,12
274,54	1718,25
274,75	1722,34
274,97	1603,56
275,18	1779,68
275,40	1718,25
275,61	1769,44
275,83	1613,80
276,05	1611,75
276,26	1710,05
276,48	1691,62
276,69	1626,09
276,91	1685,48
277,12	1763,30
277,34	1689,57
277,55	1736,68
277,77	1656,81
277,99	1642,47
278,20	1619,94
278,42	1667,05
278,63	1783,78
278,85	1634,28
279,06	1599,46
279,28	1691,62
279,49	1712,10
279,71	1759,21
279,93	1781,73
280,14	1708,01
280,36	1652,71
280,57	1746,92
280,79	1818,60
281,00	1628,14
281,22	1677,29
281,43	1781,73
281,65	1601,51
281,86	1658,85
282,08	1701,86
282,29	1767,40
282,51	1662,95
282,73	1656,81
282,94	1599,46
283,16	1775,59
283,37	1798,12
283,59	1757,16
283,80	1677,29
284,02	1738,73
284,23	1687,53
284,45	1689,57
284,66	1687,53
284,88	1660,90
285,09	1775,59
285,31	1765,35
285,52	1722,34
285,74	1685,48
285,95	1730,53
286,17	1693,67
286,38	1665,00
286,60	1714,15
286,81	1662,95
287,03	1728,49
287,24	1671,14
287,46	1726,44
287,67	1699,81
287,89	1777,64
288,10	1693,67
288,32	1699,81
288,53	1798,12
288,75	1644,52
288,96	1691,62
289,18	1716,20
289,39	1748,97
289,61	1779,68
289,82	1853,41
290,04	1794,02
290,25	1665,00
290,47	1632,23
290,68	1693,67
290,90	1781,73
291,11	1605,61
291,33	1748,97
291,54	1683,43
291,76	1652,71
291,97	1697,77
292,18	1744,87
292,40	1673,19
292,61	1617,90
292,83	1810,40
293,04	1742,82
293,26	1710,05
293,47	1708,01
293,69	1603,56
293,90	1705,96
294,12	1775,59
294,33	1695,72
294,55	1703,91
294,76	1656,81
294,97	1705,96
295,19	1851,36
295,40	1755,11
295,62	1665,00
295,83	1779,68
296,05	1605,61
296,26	1738,73
296,48	1693,67
296,69	1701,86
296,90	1716,20
297,12	1673,19
297,33	1697,77
297,55	1710,05
297,76	1697,77
297,98	1783,78
298,19	1757,16
298,41	1693,67
298,62	1689,57
298,83	1748,97
299,05	1665,00
299,26	1587,18
299,48	1648,61
299,69	1691,62
299,90	1773,54
300,12	1646,57
300,33	1708,01
300,55	1746,92
300,76	1683,43
300,98	1681,38
301,19	1787,88
301,40	1673,19
301,62	1734,63
301,83	1755,11
302,05	1667,05
302,26	1681,38
302,47	1679,33
302,69	1617,90
302,90	1720,29
303,12	1513,45
303,33	1755,11
303,54	1822,69
303,76	1673,19
303,97	1730,53
304,19	1783,78
304,40	1640,42
304,61	1683,43
304,83	1751,01
305,04	1808,36
305,26	1712,10
305,47	1705,96
305,68	1716,20
305,90	1636,33
306,11	1759,21
306,33	1695,72
306,54	1691,62
306,75	1638,38
306,97	1570,79
307,18	1640,42
307,39	1720,29
307,61	1785,83
307,82	1722,34
308,04	1832,93
308,25	1640,42
308,46	1746,92
308,68	1679,33
308,89	1718,25
309,10	1828,84
309,32	1736,68
309,53	1697,77
309,74	1755,11
309,96	1660,90
310,17	1794,02
310,39	1671,14
310,60	1730,53
310,81	1732,58
311,03	1675,24
311,24	1724,39
311,45	1669,09
311,67	1798,12
311,88	1763,30
312,09	1652,71
312,31	1636,33
312,52	1691,62
312,73	1628,14
312,95	1605,61
313,16	1671,14
313,37	1785,83
313,59	1785,83
313,80	1712,10
314,01	1787,88
314,23	1570,79
314,44	1701,86
314,65	1603,56
314,87	1619,94
315,08	1734,63
315,29	1683,43
315,51	1685,48
315,72	1636,33
315,93	1769,44
316,15	1880,04
316,36	1683,43
316,57	1742,82
316,79	1753,06
317,00	1734,63
317,21	1699,81
317,43	1613,80
317,64	1748,97
317,85	1691,62
318,07	1636,33
318,28	1710,05
318,49	1720,29
318,70	1968,10
318,92	1794,02
319,13	1820,64
319,34	1712,10
319,56	1779,68
319,77	1736,68
319,98	1796,07
320,20	1732,58
320,41	1794,02
320,62	1812,45
320,83	1624,04
321,05	1859,56
321,26	1800,16
321,47	1755,11
321,69	1755,11
321,90	1658,85
322,11	1705,96
322,32	1718,25
322,54	1742,82
322,75	1697,77
322,96	1812,45
323,18	1609,70
323,39	1613,80
323,60	1732,58
323,81	1695,72
324,03	1665,00
324,24	1679,33
324,45	1724,39
324,66	1642,47
324,88	1742,82
325,09	1832,93
325,30	1748,97
325,52	1730,53
325,73	1677,29
325,94	1677,29
326,15	1667,05
326,37	1644,52
326,58	1800,16
326,79	1742,82
327,00	1681,38
327,22	1703,91
327,43	1679,33
327,64	1632,23
327,85	1722,34
328,07	1753,06
328,28	1767,40
328,49	1624,04
328,70	1732,58
328,92	1730,53
329,13	1734,63
329,34	1720,29
329,55	1847,27
329,76	1732,58
329,98	1685,48
330,19	1794,02
330,40	1652,71
330,61	1744,87
330,83	1699,81
331,04	1650,66
331,25	1732,58
331,46	1652,71
331,68	1667,05
331,89	1701,86
332,10	1718,25
332,31	1646,57
332,52	1693,67
332,74	1755,11
332,95	1636,33
333,16	1648,61
333,37	1742,82
333,58	1644,52
333,80	1724,39
334,01	1650,66
334,22	1595,37
334,43	1705,96
334,64	1697,77
334,86	1593,32
335,07	1611,75
335,28	1785,83
335,49	1669,09
335,70	1773,54
335,92	1751,01
336,13	1847,27
336,34	1660,90
336,55	1705,96
336,76	1720,29
336,98	1628,14
337,19	1613,80
337,40	1855,46
337,61	1800,16
337,82	1644,52
338,04	1761,25
338,25	1617,90
338,46	1669,09
338,67	1677,29
338,88	1693,67
339,09	1632,23
339,31	1714,15
339,52	1609,70
339,73	1677,29
339,94	1730,53
340,15	1757,16
340,36	1691,62
340,58	1732,58
340,79	1636,33
341,00	1695,72
341,21	1662,95
341,42	1808,36
341,63	1718,25
341,85	1748,97
342,06	1748,97
342,27	1697,77
342,48	1808,36
342,69	1695,72
342,90	1689,57
343,12	1773,54
343,33	1636,33
343,54	1687,53
343,75	1798,12
343,96	1697,77
344,17	1640,42
344,38	1601,51
344,60	1730,53
344,81	1636,33
345,02	1738,73
345,23	1728,49
345,44	1814,50
345,65	1710,05
345,86	1744,87
346,07	1697,77
346,29	1677,29
346,50	1693,67
346,71	1720,29
346,92	1800,16
347,13	1789,92
347,34	1646,57
347,55	1683,43
347,76	1695,72
347,98	1597,42
348,19	1722,34
348,40	1761,25
348,61	1687,53
348,82	1822,69
349,03	1675,24
349,24	1644,52
349,45	1718,25
349,66	1599,46
349,88	1648,61
350,09	1585,13
350,30	1796,07
350,51	1779,68
350,72	1724,39
350,93	1726,44
351,14	1665,00
351,35	1794,02
351,56	1746,92
351,77	1720,29
351,99	1693,67
352,20	1781,73
352,41	1769,44
352,62	1662,95
352,83	1718,25
353,04	1730,53
353,25	1714,15
353,46	1781,73
353,67	1687,53
353,88	1605,61
354,09	1665,00
354,30	1626,09
354,52	1755,11
354,73	1699,81
354,94	1691,62
355,15	1720,29
355,36	1777,64
355,57	1732,58
355,78	1734,63
355,99	1691,62
356,20	1726,44
356,41	1720,29
356,62	1691,62
356,83	1732,58
357,04	1722,34
357,25	1615,85
357,46	1611,75
357,68	1638,38
357,89	1677,29
358,10	1740,77
358,31	1695,72
358,52	1642,47
358,73	1609,70
358,94	1636,33
359,15	1642,47
359,36	1675,24
359,57	1689,57
359,78	1675,24
359,99	1730,53
360,20	1693,67
360,41	1736,68
360,62	1746,92
360,83	1761,25
361,04	1695,72
361,25	1755,11
361,46	1808,36
361,67	1669,09
361,88	1748,97
362,09	1714,15
362,30	1714,15
362,51	1683,43
362,72	1703,91
362,93	1769,44
363,14	1857,51
363,35	1691,62
363,56	1624,04
363,78	1708,01
363,99	1695,72
364,20	1683,43
364,41	1783,78
364,62	1716,20
364,83	1738,73
365,04	1656,81
365,25	1738,73
365,46	1802,21
365,67	1632,23
365,88	1628,14
366,09	1697,77
366,30	1648,61
366,51	1683,43
366,72	1605,61
366,93	1660,90
367,14	1697,77
367,35	1769,44
367,56	1689,57
367,77	1849,32
367,98	1632,23
368,18	1789,92
368,39	1697,77
368,60	1687,53
368,81	1712,10
369,02	1783,78
369,23	1701,86
369,44	1634,28
369,65	1632,23
369,86	1714,15
370,07	1818,60
370,28	1732,58
370,49	1796,07
370,70	1755,11
370,91	1617,90
371,12	1617,90
371,33	1675,24
371,54	1679,33
371,75	1796,07
371,96	1572,84
372,17	1691,62
372,38	1746,92
372,59	1697,77
372,80	1732,58
373,01	1617,90
373,22	1697,77
373,43	1689,57
373,64	1599,46
373,85	1810,40
374,06	1738,73
374,26	1765,35
374,47	1777,64
374,68	1794,02
374,89	1730,53
375,10	1736,68
375,31	1705,96
375,52	1681,38
375,73	1732,58
375,94	1656,81
376,15	1757,16
376,36	1675,24
376,57	1615,85
376,78	1673,19
376,99	1634,28
377,20	1773,54
377,40	1683,43
377,61	1794,02
377,82	1656,81
378,03	1812,45
378,24	1787,88
378,45	1699,81
378,66	1644,52
378,87	1570,79
379,08	1568,74
379,29	1763,30
379,50	1734,63
379,71	1691,62
379,91	1837,03
380,12	1665,00
380,33	1716,20
380,54	1726,44
380,75	1685,48
380,96	1669,09
381,17	1773,54
381,38	1681,38
381,59	1730,53
381,80	1722,34
382,00	1882,08
382,21	1740,77
382,42	1798,12
382,63	1877,99
382,84	1720,29
383,05	1816,55
383,26	1781,73
383,47	1710,05
383,68	1783,78
383,88	1697,77
384,09	1675,24
384,30	1796,07
384,51	1689,57
384,72	1660,90
384,93	1656,81
385,14	1732,58
385,35	1771,49
385,55	1691,62
385,76	1771,49
385,97	1687,53
386,18	1626,09
386,39	1736,68
386,60	1675,24
386,81	1665,00
387,02	1748,97
387,22	1658,85
387,43	1804,26
387,64	1763,30
387,85	1941,47
388,06	2211,81
388,27	4143,04
388,48	6655,90
388,68	8017,80
388,89	9512,81
389,10	9465,71
389,31	8263,55
389,52	7403,41
389,73	6606,75
389,93	5980,07
390,14	5652,39
390,35	5162,93
390,56	4362,17
390,77	3835,85
390,98	2987,99
391,18	2422,75
391,39	2078,69
391,60	1818,60
391,81	1783,78
392,02	1697,77
392,23	1857,51
392,43	1746,92
392,64	1773,54
392,85	1767,40
393,06	1775,59
393,27	1701,86
393,47	1667,05
393,68	1740,77
393,89	1687,53
394,10	1796,07
394,31	1691,62
394,52	1605,61
394,72	1753,06
394,93	1861,60
395,14	1638,38
395,35	1826,79
395,56	1665,00
395,76	1667,05
395,97	1800,16
396,18	1826,79
396,39	1794,02
396,60	2068,45
396,80	1814,50
397,01	1943,52
397,22	1771,49
397,43	1843,17
397,64	1652,71
397,84	1765,35
398,05	1855,46
398,26	1681,38
398,47	1791,97
398,67	1779,68
398,88	1691,62
399,09	1761,25
399,30	1718,25
399,51	1726,44
399,71	1667,05
399,92	1656,81
400,13	1777,64
400,34	1714,15
400,54	1681,38
400,75	1777,64
400,96	1755,11
401,17	1789,92
401,37	1720,29
401,58	1695,72
401,79	1730,53
402,00	1769,44
402,21	2027,49
402,41	1939,43
402,62	1976,29
402,83	2074,59
403,04	1990,63
403,24	2107,36
403,45	1839,08
403,66	1882,08
403,87	1859,56
404,07	1877,99
404,28	1851,36
404,49	1828,84
404,70	1722,34
404,90	1748,97
405,11	1740,77
405,32	1798,12
405,52	1771,49
405,73	1716,20
405,94	1605,61
406,15	1718,25
406,35	1716,20
406,56	1771,49
406,77	1761,25
406,98	1798,12
407,18	1679,33
407,39	1820,64
407,60	1691,62
407,80	1730,53
408,01	1628,14
408,22	1742,82
408,43	1640,42
408,63	1679,33
408,84	1761,25
409,05	1738,73
409,25	1599,46
409,46	1697,77
409,67	1701,86
409,88	1695,72
410,08	1726,44
410,29	1675,24
410,50	1753,06
410,70	1705,96
410,91	1648,61
411,12	1730,53
411,32	1660,90
411,53	1681,38
411,74	1816,55
411,95	1765,35
412,15	1718,25
412,36	1802,21
412,57	1783,78
412,77	1779,68
412,98	1687,53
413,19	1728,49
413,39	1759,21
413,60	1849,32
413,81	1804,26
414,01	1656,81
414,22	1742,82
414,43	1716,20
414,63	1703,91
414,84	1783,78
415,05	1726,44
415,25	1558,50
415,46	1867,75
415,67	1681,38
415,87	1757,16
416,08	1767,40
416,29	1710,05
416,49	1732,58
416,70	1740,77
416,91	1736,68
417,11	1644,52
417,32	1789,92
417,53	1738,73
417,73	1646,57
417,94	1701,86
418,15	1662,95
418,35	1779,68
418,56	1771,49
418,77	1753,06
418,97	1712,10
419,18	1658,85
419,38	1591,27
419,59	1656,81
419,80	1789,92
420,00	1679,33
420,21	1687,53
420,42	1759,21
420,62	1667,05
420,83	1685,48
421,04	1656,81
421,24	1679,33
421,45	1755,11
421,65	1624,04
421,86	1677,29
422,07	1791,97
422,27	1714,15
422,48	1746,92
422,69	1609,70
422,89	1724,39
423,10	1652,71
423,30	1648,61
423,51	1810,40
423,72	1689,57
423,92	1662,95
424,13	1626,09
424,33	1695,72
424,54	1718,25
424,75	1783,78
424,95	1816,55
425,16	1742,82
425,36	1748,97
425,57	1751,01
425,78	1748,97
425,98	1730,53
426,19	1720,29
426,39	1677,29
426,60	1757,16
426,81	1777,64
427,01	1650,66
427,22	1675,24
427,42	1624,04
427,63	1681,38
427,83	1742,82
428,04	1773,54
428,25	1785,83
428,45	1738,73
428,66	1751,01
428,86	1673,19
429,07	1677,29
429,28	1708,01
429,48	1689,57
429,69	1695,72
429,89	1656,81
430,10	1648,61
430,30	1738,73
430,51	1798,12
430,71	1665,00
430,92	1675,24
431,13	1587,18
431,33	1748,97
431,54	1773,54
431,74	1853,41
431,95	1806,31
432,15	1677,29
432,36	1730,53
432,56	1822,69
432,77	1816,55
432,98	1847,27
433,18	1681,38
433,39	1677,29
433,59	1751,01
433,80	1787,88
434,00	1806,31
434,21	1695,72
434,41	1617,90
434,62	1828,84
434,82	1669,09
435,03	1697,77
435,23	1771,49
435,44	1593,32
435,64	1705,96
435,85	1677,29
436,06	1708,01
436,26	1740,77
436,47	1722,34
436,67	1662,95
436,88	1681,38
437,08	1687,53
437,29	1824,74
437,49	1783,78
437,70	1746,92
437,90	1640,42
438,11	1841,12
438,31	1783,78
438,52	1839,08
438,72	1847,27
438,93	1841,12
439,13	1697,77
439,34	1781,73
439,54	1837,03
439,75	1775,59
439,95	1763,30
440,16	1695,72
440,36	1701,86
440,57	1779,68
440,77	1773,54
440,98	1665,00
441,18	1742,82
441,39	1632,23
441,59	1695,72
441,80	1826,79
442,00	1722,34
442,21	1837,03
442,41	1642,47
442,62	1787,88
442,82	1718,25
443,02	1644,52
443,23	1755,11
443,43	1693,67
443,64	1748,97
443,84	1587,18
444,05	1787,88
444,25	1718,25
444,46	1734,63
444,66	1724,39
444,87	1779,68
445,07	1654,76
445,28	1783,78
445,48	1755,11
445,69	1742,82
445,89	1867,75
446,09	1767,40
446,30	2050,02
446,50	2619,35
446,71	3739,59
446,91	4224,96
447,12	4642,75
447,32	4802,49
447,53	4165,57
447,73	3764,17
447,93	3583,95
448,14	3227,60
448,34	3260,37
448,55	2844,63
448,75	2777,05
448,96	2607,06
449,16	2367,45
449,36	2238,43
449,57	2029,54
449,77	1914,85
449,98	1814,50
450,18	1791,97
450,39	1794,02
450,59	1751,01
450,79	1789,92
451,00	1679,33
451,20	1746,92
451,41	1695,72
451,61	1820,64
451,81	1734,63
452,02	1701,86
452,22	1779,68
452,43	1689,57
452,63	1759,21
452,84	1763,30
453,04	1703,91
453,24	1834,98
453,45	1677,29
453,65	1710,05
453,86	1820,64
454,06	1746,92
454,26	1785,83
454,47	1673,19
454,67	1812,45
454,87	1804,26
455,08	1775,59
455,28	1822,69
455,49	1763,30
455,69	1689,57
455,89	1927,14
456,10	1771,49
456,30	1763,30
456,51	1761,25
456,71	1675,24
456,91	1796,07
457,12	1763,30
457,32	1705,96
457,52	1691,62
457,73	1765,35
457,93	1742,82
458,14	1693,67
458,34	1667,05
458,54	1689,57
458,75	1669,09
458,95	1847,27
459,15	1740,77
459,36	1734,63
459,56	1820,64
459,76	1816,55
459,97	1734,63
460,17	1763,30
460,37	1757,16
460,58	1769,44
460,78	1781,73
460,99	1701,86
461,19	1708,01
461,39	1669,09
461,60	1781,73
461,80	1720,29
462,00	1705,96
462,21	1744,87
462,41	1601,51
462,61	1660,90
462,82	1679,33
463,02	1834,98
463,22	1738,73
463,43	1791,97
463,63	1726,44
463,83	1777,64
464,04	1724,39
464,24	1732,58
464,44	1632,23
464,64	1753,06
464,85	1695,72
465,05	1751,01
465,25	1640,42
465,46	1703,91
465,66	1697,77
465,86	1781,73
466,07	1832,93
466,27	1665,00
466,47	1716,20
466,68	1718,25
466,88	1753,06
467,08	1726,44
467,29	1814,50
467,49	1796,07
467,69	1701,86
467,89	1763,30
468,10	1701,86
468,30	1773,54
468,50	1746,92
468,71	1746,92
468,91	1665,00
469,11	1867,75
469,31	1740,77
469,52	1677,29
469,72	1742,82
469,92	1830,88
470,13	1656,81
470,33	1812,45
470,53	1812,45
470,73	2131,94
470,94	2205,66
471,14	2322,40
471,34	2410,46
471,54	2283,49
471,75	2201,57
471,95	2109,41
472,15	2127,84
472,36	2101,22
472,56	2050,02
472,76	1968,10
472,96	2033,63
473,17	1961,95
473,37	1914,85
473,57	1761,25
473,77	1808,36
473,98	1748,97
474,18	1673,19
474,38	1849,32
474,58	1738,73
474,79	1769,44
474,99	1730,53
475,19	1753,06
475,39	1656,81
475,60	1748,97
475,80	1779,68
476,00	1787,88
476,20	1732,58
476,41	1734,63
476,61	1806,31
476,81	1824,74
477,01	1705,96
477,21	1810,40
477,42	1798,12
477,62	1705,96
477,82	1722,34
478,02	1697,77
478,23	1767,40
478,43	1624,04
478,63	1740,77
478,83	1648,61
479,03	1744,87
479,24	1818,60
479,44	1851,36
479,64	1665,00
479,84	1687,53
480,04	1662,95
480,25	1759,21
480,45	1665,00
480,65	1765,35
480,85	1755,11
481,06	1681,38
481,26	1744,87
481,46	1771,49
481,66	1673,19
481,86	1685,48
482,06	1804,26
482,27	1712,10
482,47	1712,10
482,67	1705,96
482,87	1734,63
483,07	1800,16
483,28	1738,73
483,48	1656,81
483,68	1771,49
483,88	1587,18
484,08	1628,14
484,29	1646,57
484,49	1751,01
484,69	1652,71
484,89	1820,64
485,09	1744,87
485,29	1697,77
485,50	1802,21
485,70	1677,29
485,90	1812,45
486,10	1728,49
486,30	1669,09
486,50	1755,11
486,71	1679,33
486,91	1714,15
487,11	1765,35
487,31	1646,57
487,51	1732,58
487,71	1654,76
487,91	1609,70
488,12	1746,92
488,32	1636,33
488,52	1728,49
488,72	1482,73
488,92	1775,59
489,12	1861,60
489,32	1794,02
489,53	1767,40
489,73	1671,14
489,93	1798,12
490,13	1693,67
490,33	1677,29
490,53	1751,01
490,73	1705,96
490,94	1697,77
491,14	1806,31
491,34	1808,36
491,54	2111,46
491,74	2465,75
491,94	2793,43
492,14	2910,16
492,34	2926,55
492,54	2654,17
492,75	2500,57
492,95	2498,52
493,15	2428,89
493,35	2271,20
493,55	2125,79
493,75	2129,89
493,95	2117,60
494,15	2002,91
494,35	1953,76
494,56	1771,49
494,76	1726,44
494,96	1787,88
495,16	1753,06
495,36	1724,39
495,56	1738,73
495,76	1796,07
495,96	1779,68
496,16	1675,24
496,36	1783,78
496,56	1683,43
496,77	1787,88
496,97	1675,24
497,17	1791,97
497,37	1691,62
497,57	1767,40
497,77	1724,39
497,97	1665,00
498,17	1740,77
498,37	1705,96
498,57	1757,16
498,77	1722,34
498,97	1787,88
499,17	1804,26
499,38	1738,73
499,58	1730,53
499,78	1767,40
499,98	1908,71
500,18	1728,49
500,38	1613,80
500,58	1927,14
500,78	2543,58
500,98	4491,20
501,18	5928,87
501,38	6651,80
501,58	6805,40
501,78	6383,52
501,98	5402,54
502,18	4964,28
502,38	4399,04
502,58	4075,46
502,78	3733,45
502,98	3553,23
503,18	3377,10
503,38	3110,86
503,59	2818,00
503,79	2725,85
503,99	2402,27
504,19	2328,54
504,39	2127,84
504,59	2117,60
504,79	2154,46
504,99	2041,82
505,19	1910,75
505,39	1814,50
505,59	1980,39
505,79	1910,75
505,99	1857,51
506,19	1892,32
506,39	1861,60
506,59	1751,01
506,79	1773,54
506,99	1841,12
507,19	1783,78
507,39	1660,90
507,59	1644,52
507,79	1740,77
507,99	1683,43
508,19	1718,25
508,39	1640,42
508,59	1714,15
508,79	1869,80
508,99	1771,49
509,19	1751,01
509,39	1740,77
509,59	1726,44
509,79	1650,66
509,99	1722,34
510,19	1798,12
510,39	1767,40
510,59	1730,53
510,79	1787,88
510,99	1636,33
511,19	1746,92
511,39	1791,97
511,59	1740,77
511,79	1775,59
511,99	1712,10
512,19	1839,08
512,38	1789,92
512,58	1693,67
512,78	1753,06
512,98	1816,55
513,18	1773,54
513,38	1658,85
513,58	1781,73
513,78	1708,01
513,98	1685,48
514,18	1734,63
514,38	1693,67
514,58	1691,62
514,78	1648,61
514,98	1628,14
515,18	1712,10
515,38	1669,09
515,58	1755,11
515,78	1757,16
515,98	1755,11
516,18	1761,25
516,38	1773,54
516,57	1681,38
516,77	1665,00
516,97	1781,73
517,17	1687,53
517,37	1654,76
517,57	1804,26
517,77	1777,64
517,97	1714,15
518,17	1832,93
518,37	1656,81
518,57	1712,10
518,77	1714,15
518,97	1740,77
519,16	1714,15
519,36	1759,21
519,56	1748,97
519,76	1665,00
519,96	1744,87
520,16	1812,45
520,36	1726,44
520,56	1794,02
520,76	1677,29
520,96	1757,16
521,16	1675,24
521,35	1734,63
521,55	1814,50
521,75	1712,10
521,95	1693,67
522,15	1652,71
522,35	1681,38
522,55	1734,63
522,75	1767,40
522,95	1718,25
523,14	1730,53
523,34	1832,93
523,54	1615,85
523,74	1888,23
523,94	1740,77
524,14	1658,85
524,34	1714,15
524,54	1740,77
524,73	1705,96
524,93	1826,79
525,13	1728,49
525,33	1652,71
525,53	1886,18
525,73	1759,21
525,93	1814,50
526,13	1665,00
526,32	1699,81
526,52	1892,32
526,72	1798,12
526,92	1656,81
527,12	1734,63
527,32	1660,90
527,52	1759,21
527,71	1738,73
527,91	1759,21
528,11	1724,39
528,31	1697,77
528,51	1665,00
528,71	1699,81
528,90	1757,16
529,10	1863,65
529,30	1806,31
529,50	1619,94
529,70	1751,01
529,90	1689,57
530,09	1765,35
530,29	1669,09
530,49	1753,06
530,69	1857,51
530,89	1724,39
531,09	1783,78
531,28	1695,72
531,48	1781,73
531,68	1759,21
531,88	1746,92
532,08	1726,44
532,28	1724,39
532,47	1742,82
532,67	1787,88
532,87	1755,11
533,07	1665,00
533,27	1761,25
533,46	1775,59
533,66	1826,79
533,86	1751,01
534,06	1742,82
534,26	1718,25
534,45	1746,92
534,65	1748,97
534,85	1708,01
535,05	1599,46
535,25	1767,40
535,44	1667,05
535,64	1814,50
535,84	1619,94
536,04	1658,85
536,24	1779,68
536,43	1677,29
536,63	1738,73
536,83	1695,72
537,03	1714,15
537,22	1570,79
537,42	1599,46
537,62	1767,40
537,82	1699,81
538,02	1816,55
538,21	1728,49
538,41	1972,19
538,61	1732,58
538,81	1671,14
539,00	1791,97
539,20	1611,75
539,40	1738,73
539,60	1806,31
539,79	1701,86
539,99	1714,15
540,19	1722,34
540,39	1751,01
540,58	1757,16
540,78	1730,53
540,98	1763,30
541,18	1703,91
541,37	1742,82
541,57	1744,87
541,77	1757,16
541,97	1660,90
542,16	1644,52
542,36	1669,09
542,56	1763,30
542,76	1771,49
542,95	1738,73
543,15	1804,26
543,35	1777,64
543,54	1673,19
543,74	1703,91
543,94	1808,36
544,14	1718,25
544,33	1824,74
544,53	1751,01
544,73	1728,49
544,93	1722,34
545,12	1699,81
545,32	1773,54
545,52	1798,12
545,71	1617,90
545,91	1734,63
546,11	1736,68
546,30	1667,05
546,50	1710,05
546,70	1742,82
546,90	1748,97
547,09	1703,91
547,29	1724,39
547,49	1820,64
547,68	1759,21
547,88	1699,81
548,08	1851,36
548,27	2205,66
548,47	1662,95
548,67	1656,81
548,87	1738,73
549,06	1724,39
549,26	1738,73
549,46	1763,30
549,65	1751,01
549,85	1751,01
550,05	1703,91
550,24	1632,23
550,44	1753,06
550,64	1708,01
550,83	1742,82
551,03	1818,60
551,23	1806,31
551,42	1757,16
551,62	1771,49
551,82	1759,21
552,01	1689,57
552,21	1814,50
552,41	1779,68
552,60	1796,07
552,80	1757,16
553,00	1638,38
553,19	1759,21
553,39	1877,99
553,59	1679,33
553,78	1744,87
553,98	1753,06
554,17	1695,72
554,37	1773,54
554,57	1746,92
554,76	1716,20
554,96	1734,63
555,16	1775,59
555,35	1787,88
555,55	1798,12
555,75	1687,53
555,94	1781,73
556,14	1572,84
556,33	1753,06
556,53	1722,34
556,73	1800,16
556,92	1837,03
557,12	1748,97
557,32	1746,92
557,51	1859,56
557,71	1761,25
557,90	1794,02
558,10	1861,60
558,30	1724,39
558,49	1644,52
558,69	1787,88
558,88	1796,07
559,08	1765,35
559,28	1763,30
559,47	1759,21
559,67	1775,59
559,86	1837,03
560,06	1697,77
560,26	1683,43
560,45	1787,88
560,65	1765,35
560,84	1808,36
561,04	1667,05
561,24	1777,64
561,43	1675,24
561,63	1834,98
561,82	1726,44
562,02	1748,97
562,22	1695,72
562,41	1705,96
562,61	1724,39
562,80	1724,39
563,00	1877,99
563,19	1800,16
563,39	1751,01
563,59	1804,26
563,78	1644,52
563,98	1617,90
564,17	1722,34
564,37	1662,95
564,56	1734,63
564,76	1728,49
564,96	1761,25
565,15	1697,77
565,35	1789,92
565,54	1765,35
565,74	1724,39
565,93	1765,35
566,13	1710,05
566,32	1791,97
566,52	1730,53
566,71	1699,81
566,91	1763,30
567,11	1816,55
567,30	1691,62
567,50	1796,07
567,69	1800,16
567,89	1732,58
568,08	1714,15
568,28	1724,39
568,47	1693,67
568,67	1724,39
568,86	1748,97
569,06	1824,74
569,25	1722,34
569,45	1675,24
569,64	1644,52
569,84	1683,43
570,04	1767,40
570,23	1705,96
570,43	1730,53
570,62	1767,40
570,82	1845,22
571,01	1650,66
571,21	1660,90
571,40	1738,73
571,60	1730,53
571,79	1820,64
571,99	1746,92
572,18	1751,01
572,38	1779,68
572,57	1691,62
572,77	1785,83
572,96	1849,32
573,16	1708,01
573,35	1699,81
573,55	1865,70
573,74	1812,45
573,94	1685,48
574,13	1744,87
574,33	1845,22
574,52	1757,16
574,71	1703,91
574,91	1726,44
575,10	1671,14
575,30	1804,26
575,49	1718,25
575,69	1656,81
575,88	1798,12
576,08	1658,85
576,27	1763,30
576,47	1732,58
576,66	1759,21
576,86	1857,51
577,05	1757,16
577,25	1757,16
577,44	1888,23
577,64	1726,44
577,83	1804,26
578,02	1757,16
578,22	1789,92
578,41	1820,64
578,61	1681,38
578,80	1701,86
579,00	1820,64
579,19	1765,35
579,39	1824,74
579,58	1820,64
579,77	1816,55
579,97	1892,32
580,16	1810,40
580,36	1869,80
580,55	1871,84
580,75	1769,44
580,94	1818,60
581,13	1789,92
581,33	1843,17
581,52	1705,96
581,72	1857,51
581,91	1910,75
582,11	1738,73
582,30	1794,02
582,49	1730,53
582,69	1839,08
582,88	1714,15
583,08	1765,35
583,27	1832,93
583,47	1853,41
583,66	1675,24
583,85	1693,67
584,05	1781,73
584,24	1775,59
584,44	1746,92
584,63	1796,07
584,82	1734,63
585,02	1839,08
585,21	1861,60
585,41	1812,45
585,60	1779,68
585,79	1961,95
585,99	1941,47
586,18	1841,12
586,37	2154,46
586,57	3190,74
586,76	9676,65
586,96	23776,92
587,15	33117,70
587,34	39177,64
587,54	40590,74
587,73	35472,87
587,93	25210,50
588,12	20664,00
588,31	17846,00
588,51	15750,93
588,70	14741,28
588,89	13770,54
589,09	12087,11
589,28	10663,77
589,47	9150,32
589,67	7649,16
589,86	6391,71
590,06	4876,21
590,25	3811,27
590,44	3008,47
590,64	2602,97
590,83	2222,05
591,02	2064,35
591,22	1904,61
591,41	1863,65
591,60	1794,02
591,80	1925,09
591,99	1734,63
592,18	1683,43
592,38	1834,98
592,57	1720,29
592,76	1755,11
592,96	1818,60
593,15	1781,73
593,34	1751,01
593,54	1773,54
593,73	1804,26
593,92	1841,12
594,12	1855,46
594,31	1738,73
594,50	1810,40
594,70	1775,59
594,89	1863,65
595,08	1683,43
595,28	1839,08
595,47	1894,37
595,66	1775,59
595,86	1714,15
596,05	1685,48
596,24	1751,01
596,43	1839,08
596,63	1849,32
596,82	1798,12
597,01	1771,49
597,21	1845,22
597,40	1755,11
597,59	1755,11
597,79	1716,20
597,98	1724,39
598,17	1796,07
598,36	1677,29
598,56	1728,49
598,75	1724,39
598,94	1759,21
599,14	1783,78
599,33	1615,85
599,52	1763,30
599,71	1736,68
599,91	1828,84
600,10	1783,78
600,29	1753,06
600,48	1789,92
600,68	1744,87
600,87	1732,58
601,06	1746,92
601,26	1703,91
601,45	1751,01
601,64	1669,09
601,83	1763,30
602,03	1736,68
602,22	1605,61
602,41	1730,53
602,60	1824,74
602,80	1779,68
602,99	1781,73
603,18	1697,77
603,37	1691,62
603,57	1742,82
603,76	1828,84
603,95	1773,54
604,14	1718,25
604,34	1650,66
604,53	1765,35
604,72	1736,68
604,91	1775,59
605,10	1828,84
605,30	1695,72
605,49	1769,44
605,68	1771,49
605,87	1732,58
606,07	1699,81
606,26	1779,68
606,45	1734,63
606,64	1791,97
606,84	1685,48
607,03	1689,57
607,22	1755,11
607,41	1632,23
607,60	1740,77
607,80	1763,30
607,99	1751,01
608,18	1724,39
608,37	1812,45
608,56	1599,46
608,76	1808,36
608,95	1845,22
609,14	1789,92
609,33	1724,39
609,52	1740,77
609,72	1775,59
609,91	1822,69
610,10	1675,24
610,29	1830,88
610,48	1720,29
610,68	1773,54
610,87	1703,91
611,06	1746,92
611,25	1689,57
611,44	1812,45
611,63	1667,05
611,83	1798,12
612,02	1697,77
612,21	1791,97
612,40	1609,70
612,59	1705,96
612,79	1667,05
612,98	1703,91
613,17	1853,41
613,36	1736,68
613,55	1802,21
613,74	1701,86
613,93	1730,53
614,13	1738,73
614,32	1738,73
614,51	1751,01
614,70	1734,63
614,89	1726,44
615,08	1777,64
615,28	2052,06
615,47	1746,92
615,66	1757,16
615,85	1734,63
616,04	1822,69
616,23	1771,49
616,42	1738,73
616,62	1662,95
616,81	1665,00
617,00	1761,25
617,19	1820,64
617,38	1697,77
617,57	1697,77
617,76	1730,53
617,95	1779,68
618,15	1746,92
618,34	1847,27
618,53	1632,23
618,72	1820,64
618,91	1771,49
619,10	1777,64
619,29	1728,49
619,48	1697,77
619,68	1716,20
619,87	1738,73
620,06	1613,80
620,25	1855,46
620,44	1689,57
620,63	1689,57
620,82	1730,53
621,01	1748,97
621,20	1693,67
621,39	1677,29
621,59	1710,05
621,78	1681,38
621,97	1728,49
622,16	1732,58
622,35	1783,78
622,54	1781,73
622,73	1837,03
622,92	1619,94
623,11	1800,16
623,30	1730,53
623,49	1775,59
623,68	1701,86
623,88	1798,12
624,07	1691,62
624,26	1665,00
624,45	1724,39
624,64	1748,97
624,83	1771,49
625,02	1697,77
625,21	1730,53
625,40	1722,34
625,59	1751,01
625,78	1695,72
625,97	1789,92
626,16	1689,57
626,35	1775,59
626,54	1775,59
626,74	1892,32
626,93	1675,24
627,12	1695,72
627,31	1853,41
627,50	1748,97
627,69	1771,49
627,88	1695,72
628,07	1712,10
628,26	1708,01
628,45	1697,77
628,64	1675,24
628,83	1769,44
629,02	1669,09
629,21	1759,21
629,40	1748,97
629,59	1734,63
629,78	1718,25
629,97	1665,00
630,16	1755,11
630,35	1654,76
630,54	1726,44
630,73	1669,09
630,92	1697,77
631,11	1710,05
631,30	1693,67
631,49	1720,29
631,68	1720,29
631,87	1730,53
632,06	1615,85
632,25	1875,94
632,44	1681,38
632,63	1800,16
632,82	1708,01
633,01	1726,44
633,20	1785,83
633,39	1699,81
633,58	1599,46
633,77	1730,53
633,96	1734,63
634,15	1705,96
634,34	1781,73
634,53	1808,36
634,72	1603,56
634,91	1665,00
635,10	1716,20
635,29	1728,49
635,48	1724,39
635,67	1763,30
635,86	1589,22
636,05	1837,03
636,24	1837,03
636,43	1705,96
636,62	1804,26
636,81	1609,70
637,00	1720,29
637,19	1751,01
637,38	1689,57
637,57	1685,48
637,76	1691,62
637,95	1769,44
638,14	1705,96
638,33	1716,20
638,52	1640,42
638,71	1732,58
638,89	1583,08
639,08	1925,09
639,27	1697,77
639,46	1601,51
639,65	1841,12
639,84	1773,54
640,03	1785,83
640,22	1734,63
640,41	1853,41
640,60	1667,05
640,79	1699,81
640,98	1656,81
641,17	1708,01
641,36	1751,01
641,55	1718,25
641,74	1669,09
641,92	1634,28
642,11	1689,57
642,30	1773,54
642,49	1683,43
642,68	1683,43
642,87	1804,26
643,06	1681,38
643,25	1746,92
643,44	1615,85
643,63	1751,01
643,82	1703,91
644,00	1656,81
644,19	1722,34
644,38	1660,90
644,57	1791,97
644,76	1769,44
644,95	1710,05
645,14	1693,67
645,33	1708,01
645,52	1685,48
645,71	1701,86
645,89	1683,43
646,08	1718,25
646,27	1734,63
646,46	1824,74
646,65	1710,05
646,84	1734,63
647,03	1613,80
647,22	1787,88
647,40	1669,09
647,59	1650,66
647,78	1691,62
647,97	1669,09
648,16	1685,48
648,35	1746,92
648,54	1767,40
648,73	1689,57
648,91	1767,40
649,10	1712,10
649,29	1765,35
649,48	1753,06
649,67	1714,15
649,86	1720,29
650,05	1638,38
650,23	1777,64
650,42	1665,00
650,61	1757,16
650,80	1763,30
650,99	1812,45
651,18	1703,91
651,36	1781,73
651,55	1703,91
651,74	1789,92
651,93	1615,85
652,12	1673,19
652,31	1722,34
652,49	1779,68
652,68	1671,14
652,87	1775,59
653,06	1681,38
653,25	1787,88
653,44	1691,62
653,62	1757,16
653,81	1646,57
654,00	1656,81
654,19	1777,64
654,38	1859,56
654,56	1699,81
654,75	1763,30
654,94	1767,40
655,13	1740,77
655,32	1787,88
655,51	1777,64
655,69	1697,77
655,88	1761,25
656,07	1648,61
656,26	1763,30
656,45	1638,38
656,63	1677,29
656,82	1736,68
657,01	1845,22
657,20	1677,29
657,38	1695,72
657,57	1742,82
657,76	1673,19
657,95	1820,64
658,14	1683,43
658,32	1738,73
658,51	1642,47
658,70	1759,21
658,89	1761,25
659,08	1624,04
659,26	1820,64
659,45	1679,33
659,64	1746,92
659,83	1693,67
660,01	1968,10
660,20	1705,96
660,39	1859,56
660,58	1574,89
660,76	1740,77
660,95	1660,90
661,14	1667,05
661,33	1660,90
661,51	1708,01
661,70	1662,95
661,89	1714,15
662,08	1689,57
662,26	1699,81
662,45	1630,18
662,64	1851,36
662,83	1769,44
663,01	1669,09
663,20	1708,01
663,39	1816,55
663,58	1589,22
663,76	1650,66
663,95	1748,97
664,14	1673,19
664,32	1687,53
664,51	1587,18
664,70	1624,04
664,89	1677,29
665,07	1720,29
665,26	1708,01
665,45	1542,12
665,64	1722,34
665,82	1722,34
666,01	1806,31
666,20	1652,71
666,38	1789,92
666,57	1787,88
666,76	2164,70
666,95	4433,85
667,13	10028,90
667,32	14829,34
667,51	17260,28
667,69	18435,81
667,88	17250,04
668,07	11947,85
668,25	9430,90
668,44	7894,92
668,63	7161,75
668,81	6600,60
669,00	6049,70
669,19	5558,19
669,38	4886,45
669,56	4573,11
669,75	3899,33
669,94	3243,98
670,12	2858,96
670,31	2527,19
670,50	2236,38
670,68	2052,06
670,87	1898,47
671,06	1910,75
671,24	1830,88
671,43	1806,31
671,62	1791,97
671,80	1789,92
671,99	1777,64
672,18	1726,44
672,36	1798,12
672,55	1738,73
672,74	1628,14
672,92	1699,81
673,11	1652,71
673,29	1705,96
673,48	1742,82
673,67	1710,05
673,85	1837,03
674,04	1675,24
674,23	1804,26
674,41	1714,15
674,60	1751,01
674,79	1640,42
674,97	1689,57
675,16	1785,83
675,34	1746,92
675,53	1626,09
675,72	1746,92
675,90	1834,98
676,09	1710,05
676,28	1771,49
676,46	1746,92
676,65	1693,67
676,83	1677,29
677,02	1691,62
677,21	1771,49
677,39	1726,44
677,58	1679,33
677,77	1712,10
677,95	1650,66
678,14	1726,44
678,32	1732,58
678,51	1691,62
678,70	1871,84
678,88	1759,21
679,07	1755,11
679,25	1609,70
679,44	1687,53
679,63	1611,75
679,81	1804,26
680,00	1751,01
680,18	1767,40
680,37	1763,30
680,55	1701,86
680,74	1671,14
680,93	1578,98
681,11	1757,16
681,30	1701,86
681,48	1802,21
681,67	1644,52
681,85	1681,38
682,04	1693,67
682,23	1724,39
682,41	1742,82
682,60	1595,37
682,78	1644,52
682,97	1679,33
683,15	1650,66
683,34	1712,10
683,53	1783,78
683,71	1615,85
683,90	1820,64
684,08	1759,21
684,27	1589,22
684,45	1755,11
684,64	1781,73
684,82	1671,14
685,01	1781,73
685,19	1736,68
685,38	1781,73
685,57	1722,34
685,75	1669,09
685,94	1753,06
686,12	1746,92
686,31	1665,00
686,49	1767,40
686,68	1630,18
686,86	1705,96
687,05	1697,77
687,23	1773,54
687,42	1677,29
687,60	1638,38
687,79	1769,44
687,97	1789,92
688,16	1775,59
688,34	1781,73
688,53	1556,46
688,71	1796,07
688,90	1720,29
689,08	1632,23
689,27	1710,05
689,45	1697,77
689,64	1748,97
689,82	1724,39
690,01	1759,21
690,19	1777,64
690,38	1705,96
690,56	1759,21
690,75	1648,61
690,93	1619,94
691,12	1613,80
691,30	1742,82
691,49	1662,95
691,67	1710,05
691,86	1859,56
692,04	1685,48
692,23	1685,48
692,41	1708,01
692,60	1849,32
692,78	1777,64
692,97	1605,61
693,15	1732,58
693,34	1787,88
693,52	1667,05
693,71	1665,00
693,89	1660,90
694,08	1583,08
694,26	1781,73
694,44	1722,34
694,63	1802,21
694,81	1716,20
695,00	1646,57
695,18	1693,67
695,37	1798,12
695,55	1718,25
695,74	1685,48
695,92	1652,71
696,10	1767,40
696,29	1609,70
696,47	1665,00
696,66	1658,85
696,84	1632,23
697,03	1751,01
697,21	1841,12
697,40	2242,53
697,58	1773,54
697,76	1669,09
697,95	1660,90
698,13	1607,66
698,32	1732,58
698,50	1705,96
698,68	1796,07
698,87	1808,36
699,05	1791,97
699,24	1746,92
699,42	1677,29
699,61	1716,20
699,79	1753,06
699,97	1736,68
700,16	1685,48
700,34	1628,14
700,53	1689,57
700,71	1851,36
700,89	1783,78
701,08	1669,09
701,26	1751,01
701,45	2056,16
701,63	1689,57
701,81	1759,21
702,00	1640,42
702,18	1712,10
702,37	1613,80
702,55	1632,23
702,73	1716,20
702,92	1617,90
703,10	1783,78
703,28	1779,68
703,47	1708,01
703,65	1714,15
703,84	1716,20
704,02	1642,47
704,20	1765,35
704,39	1691,62
704,57	1722,34
704,75	1716,20
704,94	1757,16
705,12	1726,44
705,30	1773,54
705,49	2332,64
705,67	4315,07
705,86	9131,89
706,04	12134,21
706,22	14184,23
706,41	14765,85
706,59	13446,96
706,77	9129,84
706,96	7143,32
707,14	6264,74
707,32	5916,58
707,51	5435,31
707,69	4827,06
707,87	4245,44
708,06	3532,75
708,24	2895,83
708,42	2408,41
708,61	2207,71
708,79	1837,03
708,97	1847,27
709,16	1845,22
709,34	1822,69
709,52	1759,21
709,71	1697,77
709,89	1828,84
710,07	1652,71
710,26	1640,42
710,44	1722,34
710,62	1710,05
710,80	1746,92
710,99	1779,68
711,17	1726,44
711,35	1642,47
711,54	1689,57
711,72	1812,45
711,90	1748,97
712,09	1759,21
712,27	1677,29
712,45	1767,40
712,63	1677,29
712,82	1787,88
713,00	1736,68
713,18	1773,54
713,37	1710,05
713,55	1773,54
713,73	1736,68
713,91	1775,59
714,10	1699,81
714,28	1726,44
714,46	1714,15
714,65	1716,20
714,83	1726,44
715,01	1685,48
715,19	1781,73
715,38	1673,19
715,56	1714,15
715,74	1765,35
715,92	1658,85
716,11	1785,83
716,29	1626,09
716,47	1613,80
716,65	1736,68
716,84	1712,10
717,02	1830,88
717,20	1652,71
717,38	1681,38
717,57	1673,19
717,75	1732,58
717,93	1656,81
718,11	1624,04
718,30	1601,51
718,48	1726,44
718,66	1708,01
718,84	1820,64
719,03	1767,40
719,21	1691,62
719,39	1849,32
719,57	1705,96
719,75	1841,12
719,94	1697,77
720,12	1640,42
720,30	1685,48
720,48	1740,77
720,67	1619,94
720,85	1636,33
721,03	1632,23
721,21	1720,29
721,39	1769,44
721,58	1730,53
721,76	1667,05
721,94	1695,72
722,12	1759,21
722,30	1791,97
722,49	1669,09
722,67	1728,49
722,85	1724,39
723,03	1601,51
723,21	1708,01
723,40	1779,68
723,58	1679,33
723,76	1740,77
723,94	1742,82
724,12	1691,62
724,30	1824,74
724,49	1669,09
724,67	1673,19
724,85	1810,40
725,03	1568,74
725,21	1695,72
725,40	1732,58
725,58	1732,58
725,76	1779,68
725,94	1753,06
726,12	1652,71
726,30	1621,99
726,49	1755,11
726,67	1746,92
726,85	1724,39
727,03	1769,44
727,21	2090,98
727,39	2867,16
727,57	3721,16
727,76	4026,31
727,94	4417,47
728,12	4317,12
728,30	3590,09
728,48	2830,29
728,66	2719,70
728,84	2537,43
729,03	2279,39
729,21	2144,22
729,39	1937,38
729,57	1777,64
729,75	1705,96
729,93	1763,30
730,11	1648,61
730,30	1615,85
730,48	1648,61
730,66	1728,49
730,84	1708,01
731,02	1734,63
731,20	1763,30
731,38	1781,73
731,56	1624,04
731,74	1650,66
731,93	1705,96
732,11	1757,16
732,29	1681,38
732,47	1716,20
732,65	1714,15
732,83	1787,88
733,01	1636,33
733,19	1611,75
733,37	1830,88
733,56	1726,44
733,74	1708,01
733,92	1755,11
734,10	1722,34
734,28	1714,15
734,46	1656,81
734,64	1753,06
734,82	1683,43
735,00	1667,05
735,18	1650,66
735,36	1656,81
735,54	1701,86
735,73	1732,58
735,91	1705,96
736,09	1701,86
736,27	1673,19
736,45	1675,24
736,63	1665,00
736,81	1671,14
736,99	1728,49
737,17	1804,26
737,35	1665,00
737,53	1693,67
737,71	1695,72
737,89	1791,97
738,07	1654,76
738,25	1683,43
738,43	1648,61
738,61	1730,53
738,80	1634,28
738,98	1607,66
739,16	1697,77
739,34	1628,14
739,52	1767,40
739,70	1796,07
739,88	1718,25
740,06	1701,86
740,24	1601,51
740,42	1824,74
740,60	1632,23
740,78	1681,38
740,96	1609,70
741,14	1746,92
741,32	1687,53
741,50	1656,81
741,68	1832,93
741,86	1746,92
742,04	1660,90
742,22	1656,81
742,40	1773,54
742,58	1681,38
742,76	1617,90
742,94	1771,49
743,12	1574,89
743,30	1693,67
743,48	1712,10
743,66	1642,47
743,84	1783,78
744,02	1660,90
744,20	1646,57
744,38	1558,50
744,56	1648,61
744,74	1753,06
744,92	1730,53
745,10	1759,21
745,28	1693,67
745,46	1812,45
745,64	1695,72
745,82	1746,92
746,00	1681,38
746,18	1748,97
746,36	1626,09
746,54	1708,01
746,72	1734,63
746,90	1648,61
747,08	1763,30
747,26	1652,71
747,44	1755,11
747,62	1720,29
747,80	1724,39
747,98	1740,77
748,15	1744,87
748,33	1781,73
748,51	1665,00
748,69	1656,81
748,87	1708,01
749,05	1652,71
749,23	1697,77
749,41	1722,34
749,59	1718,25
749,77	1710,05
749,95	1716,20
750,13	1669,09
750,31	1722,34
750,49	1660,90
750,67	1814,50
750,85	1781,73
751,03	1683,43
751,20	1787,88
751,38	1687,53
751,56	1660,90
751,74	1783,78
751,92	1665,00
752,10	1634,28
752,28	1771,49
752,46	1667,05
752,64	1650,66
752,82	1691,62
753,00	1757,16
753,18	1615,85
753,35	1697,77
753,53	1701,86
753,71	1611,75
753,89	1714,15
754,07	1738,73
754,25	1789,92
754,43	1660,90
754,61	1617,90
754,79	1810,40
754,97	1671,14
755,14	1796,07
755,32	1667,05
755,50	1720,29
755,68	1695,72
755,86	1748,97
756,04	1665,00
756,22	1632,23
756,40	1744,87
756,57	1804,26
756,75	1658,85
756,93	1822,69
757,11	1771,49
757,29	1748,97
757,47	1632,23
757,65	1638,38
757,82	1626,09
758,00	1701,86
758,18	1673,19
758,36	1652,71
758,54	1837,03
758,72	1665,00
758,90	1740,77
759,07	1732,58
759,25	1652,71
759,43	1728,49
759,61	1630,18
759,79	2211,81
759,97	1812,45
760,15	1712,10
760,32	1656,81
760,50	1738,73
760,68	1818,60
760,86	1603,56
761,04	1734,63
761,22	1808,36
761,39	1712,10
761,57	1728,49
761,75	1644,52
761,93	1693,67
762,11	1728,49
762,28	1687,53
762,46	1660,90
762,64	1691,62
762,82	1587,18
763,00	1648,61
763,18	1755,11
763,35	1683,43
763,53	1791,97
763,71	1648,61
763,89	1722,34
764,07	1669,09
764,24	1751,01
764,42	1779,68
764,60	1626,09
764,78	1738,73
764,96	1828,84
765,13	1783,78
765,31	1722,34
765,49	1656,81
765,67	1632,23
765,84	1705,96
766,02	1714,15
766,20	1667,05
766,38	1744,87
766,56	1695,72
766,73	1662,95
766,91	1681,38
767,09	1767,40
767,27	1794,02
767,44	1595,37
767,62	1761,25
767,80	1738,73
767,98	1695,72
768,15	1726,44
768,33	1689,57
768,51	1714,15
768,69	1748,97
768,87	1724,39
769,04	1699,81
769,22	1744,87
769,40	1804,26
769,58	1847,27
769,75	1789,92
769,93	1755,11
770,11	1683,43
770,28	1687,53
770,46	1681,38
770,64	1763,30
770,82	1689,57
770,99	1681,38
771,17	1748,97
771,35	1665,00
771,53	1667,05
771,70	1710,05
771,88	1759,21
772,06	1734,63
772,23	1708,01
772,41	1708,01
772,59	1665,00
772,77	1648,61
772,94	1710,05
773,12	1624,04
773,30	1681,38
773,47	1728,49
773,65	1685,48
773,83	1761,25
774,01	1722,34
774,18	1570,79
774,36	1705,96
774,54	1658,85
774,71	1724,39
774,89	1634,28
775,07	1632,23
775,24	1751,01
775,42	1634,28
775,60	1777,64
775,78	1654,76
775,95	1632,23
776,13	1677,29
776,31	1529,83
776,48	1753,06
776,66	1685,48
776,84	1660,90
777,01	1595,37
777,19	1665,00
777,37	1648,61
777,54	1800,16
777,72	1730,53
777,90	1675,24
778,07	1650,66
778,25	1894,37
778,43	1796,07
778,60	1658,85
778,78	1697,77
778,96	1773,54
779,13	1703,91
779,31	1656,81
779,49	1669,09
779,66	1677,29
779,84	1669,09
780,01	1667,05
780,19	1656,81
780,37	1744,87
780,54	1765,35
780,72	1677,29
780,90	1628,14
781,07	1703,91
781,25	1710,05
781,43	1794,02
781,60	1705,96
781,78	1759,21
781,95	1748,97
782,13	1701,86
782,31	1660,90
782,48	1628,14
782,66	1697,77
782,83	1796,07
783,01	1656,81
783,19	1810,40
783,36	1642,47
783,54	1632,23
783,72	1787,88
783,89	1634,28
784,07	1705,96
784,24	1824,74
784,42	1853,41
784,60	1728,49
784,77	1689,57
784,95	1673,19
785,12	1679,33
785,30	1677,29
785,47	1689,57
785,65	1691,62
785,83	1748,97
786,00	1681,38
786,18	1722,34
786,35	1660,90
786,53	1699,81
786,71	1759,21
786,88	1767,40
787,06	1761,25
787,23	1675,24
787,41	1687,53
787,58	1759,21
787,76	1634,28
787,94	1697,77
788,11	1730,53
788,29	1558,50
788,46	1689,57
788,64	1673,19
788,81	1681,38
788,99	1613,80
789,16	1628,14
789,34	1656,81
789,52	1603,56
789,69	1703,91
789,87	1658,85
790,04	1658,85
790,22	1665,00
790,39	1812,45
790,57	1701,86
790,74	1724,39
790,92	1746,92
791,09	1701,86
791,27	1710,05
791,44	1824,74
791,62	1703,91
791,79	1796,07
791,97	1677,29
792,15	1900,52
792,32	1724,39
792,50	1779,68
792,67	1787,88
792,85	1699,81
793,02	1705,96
793,20	1710,05
793,37	1615,85
793,55	1771,49
793,72	1646,57
793,90	1652,71
794,07	1697,77
794,25	1628,14
794,42	1742,82
794,60	1679,33
794,77	1712,10
794,95	1769,44
795,12	1773,54
795,30	1665,00
795,47	1568,74
795,65	1877,99
795,82	1689,57
796,00	1632,23
796,17	1648,61
796,34	1714,15
796,52	1630,18
796,69	1687,53
796,87	1812,45
797,04	1779,68
797,22	1787,88
797,39	1716,20
797,57	1746,92
797,74	1757,16
797,92	1732,58
798,09	1691,62
798,27	1718,25
798,44	1621,99
798,62	1724,39
798,79	1708,01
798,96	1712,10
799,14	1722,34
799,31	1849,32
799,49	1681,38
799,66	1746,92
799,84	1742,82
800,01	1679,33
800,19	1757,16
800,36	1599,46
800,53	1755,11
800,71	1730,53
800,88	1783,78
801,06	1695,72
801,23	1570,79
801,41	1689,57
801,58	1722,34
801,75	1697,77
801,93	1681,38
802,10	1701,86
802,28	1726,44
802,45	1648,61
802,63	1734,63
802,80	1710,05
802,97	1732,58
803,15	1779,68
803,32	1685,48
803,50	1634,28
803,67	1638,38
803,84	1632,23
804,02	1642,47
804,19	1662,95
804,37	1609,70
804,54	1656,81
804,71	1708,01
804,89	1705,96
805,06	1601,51
805,24	1697,77
805,41	1634,28
805,58	1642,47
805,76	1877,99
805,93	1730,53
806,10	1816,55
806,28	1695,72
806,45	1665,00
806,63	1763,30
806,80	1683,43
806,97	1767,40
807,15	1759,21
807,32	1718,25
807,49	1689,57
807,67	1705,96
807,84	1699,81
808,01	1656,81
808,19	1763,30
808,36	1867,75
808,54	1714,15
808,71	1640,42
808,88	1673,19
809,06	1734,63
809,23	1779,68
809,40	1716,20
809,58	1789,92
809,75	1673,19
809,92	1574,89
810,10	1830,88
810,27	1685,48
810,44	1716,20
810,62	1724,39
810,79	1755,11
810,96	1611,75
811,14	1714,15
811,31	1646,57
811,48	1736,68
811,66	1656,81
811,83	1785,83
812,00	1734,63
812,18	1812,45
812,35	1818,60
812,52	1705,96
812,69	1671,14
812,87	1726,44
813,04	1638,38
813,21	1701,86
813,39	1585,13
813,56	1638,38
813,73	1834,98
813,91	1546,22
814,08	1787,88
814,25	1677,29
814,42	1611,75
814,60	1662,95
814,77	1734,63
814,94	1714,15
815,12	1738,73
815,29	1730,53
815,46	1697,77
815,63	1656,81
815,81	1710,05
815,98	1691,62
816,15	1685,48
816,33	1665,00
816,50	1609,70
816,67	1714,15
816,84	1671,14
817,02	1656,81
817,19	1705,96
817,36	1673,19
817,53	1716,20
817,71	1660,90
817,88	1724,39
818,05	1712,10
818,22	1703,91
818,40	1820,64
818,57	1619,94
818,74	1714,15
818,91	1740,77
819,09	1728,49
819,26	1761,25
819,43	1665,00
819,60	1638,38
819,78	1738,73
819,95	1822,69
820,12	1718,25
820,29	1771,49
820,47	1718,25
820,64	1679,33
820,81	1675,24
820,98	1603,56
821,15	1699,81
821,33	1730,53
821,50	1652,71
821,67	1773,54
821,84	1646,57
822,02	1742,82
822,19	1771,49
822,36	1726,44
822,53	1708,01
822,70	1665,00
822,88	1640,42
823,05	1775,59
823,22	1757,16
823,39	1718,25
823,56	1740,77
823,74	1806,31
823,91	1636,33
824,08	1673,19
824,25	1708,01
824,42	1751,01
824,60	1628,14
824,77	1726,44
824,94	1669,09
825,11	1728,49
825,28	1632,23
825,45	1738,73
825,63	1665,00
825,80	1632,23
825,97	1667,05
826,14	1724,39
826,31	1681,38
826,48	1759,21
826,66	1648,61
826,83	1605,61
827,00	1732,58
827,17	1550,31
827,34	1671,14
827,51	1703,91
827,69	1701,86
827,86	1689,57
828,03	1693,67
828,20	1681,38
828,37	1656,81
828,54	1691,62
828,71	1732,58
828,89	1789,92
829,06	1732,58
829,23	1828,84
829,40	1662,95
829,57	1722,34
829,74	1748,97
829,91	1611,75
830,09	1648,61
830,26	1726,44
830,43	1796,07
830,60	1732,58
830,77	1714,15
830,94	1724,39
831,11	1671,14
831,28	1710,05
831,46	1787,88
831,63	1742,82
831,80	1695,72
831,97	1671,14
832,14	1722,34
832,31	1689,57
832,48	1751,01
832,65	1724,39
832,82	1767,40
832,99	1724,39
833,17	1673,19
833,34	1787,88
833,51	1662,95
833,68	1642,47
833,85	1724,39
834,02	1654,76
834,19	1689,57
834,36	1658,85
834,53	1734,63
834,70	1779,68
834,87	1742,82
835,04	1658,85
835,22	1662,95
835,39	1636,33
835,56	1640,42
835,73	1632,23
835,90	1730,53
836,07	1705,96
836,24	1720,29
836,41	1617,90
836,58	1714,15
836,75	1806,31
836,92	1728,49
837,09	1689,57
837,26	1720,29
837,43	1689,57
837,60	1736,68
837,77	1734,63
837,94	1658,85
838,12	1699,81
838,29	1644,52
838,46	1589,22
838,63	1662,95
838,80	1742,82
838,97	1740,77
839,14	1675,24
839,31	1632,23
839,48	1689,57
839,65	1691,62
839,82	1673,19
839,99	1732,58
840,16	1789,92
840,33	1685,48
840,50	1687,53
840,67	1630,18
840,84	1619,94
841,01	1689,57
841,18	1634,28
841,35	1636,33
841,52	1787,88
841,69	1789,92
841,86	1699,81
842,03	1787,88
842,20	1755,11
842,37	1748,97
842,54	1646,57
842,71	1736,68
842,88	1708,01
843,05	1701,86
843,22	1675,24
843,39	1665,00
843,56	1665,00
843,73	1697,77
843,90	1701,86
844,07	1681,38
844,24	1767,40
844,41	1759,21
844,58	1710,05
844,75	1693,67
844,92	1693,67
845,09	1642,47
845,26	1628,14
845,43	1783,78
845,60	1730,53
845,77	1726,44
845,94	1744,87
846,10	1789,92
846,27	1628,14
846,44	1650,66
846,61	1667,05
846,78	1693,67
846,95	1744,87
847,12	1738,73
847,29	1724,39
847,46	1728,49
847,63	1730,53
847,80	1615,85
847,97	1699,81
848,14	1761,25
848,31	1689,57
848,48	1634,28
848,65	1701,86
848,82	1656,81
848,98	1884,13
849,15	1667,05
849,32	1873,89
849,49	1769,44
849,66	1683,43
849,83	1740,77
850,00	1630,18
850,17	1697,77
850,34	1662,95
850,51	1636,33
850,68	1667,05
850,85	1830,88
851,01	1767,40
851,18	1654,76
851,35	1705,96
851,52	1761,25
851,69	1804,26
851,86	1617,90
852,03	1685,48
852,20	1712,10
852,37	1699,81
852,53	1673,19
852,70	1746,92
852,87	1710,05
853,04	1705,96
853,21	1761,25
853,38	1734,63
853,55	1738,73
853,72	1710,05
853,89	1671,14
854,05	1632,23
854,22	1722,34
854,39	1654,76
854,56	1689,57
854,73	1779,68
854,90	1720,29
855,07	1691,62
855,23	1595,37
855,40	1681,38
855,57	1728,49
855,74	1677,29
855,91	1873,89
856,08	1636,33
856,25	1626,09
856,41	1624,04
856,58	1648,61
856,75	1669,09
856,92	1693,67
857,09	1755,11
857,26	1603,56
857,42	1748,97
857,59	1724,39
857,76	1716,20
857,93	1673,19
858,10	1679,33
858,27	1570,79
858,43	1689,57
858,60	1671,14
858,77	1638,38
858,94	1671,14
859,11	1724,39
859,27	1667,05
859,44	1591,27
859,61	1773,54
859,78	1699,81
859,95	1632,23
860,12	1708,01
860,28	1798,12
860,45	1837,03
860,62	1673,19
860,79	1710,05
860,95	1671,14
861,12	1673,19
861,29	1685,48
861,46	1646,57
861,63	1720,29
861,79	1654,76
861,96	1695,72
862,13	1662,95
862,30	1730,53
862,47	1658,85
862,63	1634,28
862,80	1773,54
862,97	1738,73
863,14	1722,34
863,30	1705,96
863,47	1669,09
863,64	1742,82
863,81	1742,82
863,97	1677,29
864,14	1652,71
864,31	1740,77
864,48	1673,19
864,65	1679,33
864,81	1714,15
864,98	1722,34
865,15	1769,44
865,32	1724,39
865,48	1775,59
865,65	1779,68
865,82	1617,90
865,98	1767,40
866,15	1789,92
866,32	1665,00
866,49	1673,19
866,65	1810,40
866,82	1589,22
866,99	1642,47
867,16	1658,85
867,32	1619,94
867,49	1714,15
867,66	1689,57
867,83	1677,29
867,99	1601,51
868,16	1728,49
868,33	1681,38
868,49	1740,77
868,66	1759,21
868,83	1794,02
868,99	1673,19
869,16	1794,02
869,33	1806,31
869,50	1724,39
869,66	1693,67
869,83	1693,67
870,00	1660,90
870,16	1751,01
870,33	1695,72
870,50	1703,91
870,66	1716,20
870,83	1763,30
871,00	1693,67
871,17	1650,66
871,33	1681,38
871,50	1624,04
871,67	1658,85
871,83	1533,93
872,00	1759,21
872,17	1689,57
872,33	1789,92
872,50	1722,34
872,67	1746,92
872,83	1617,90
873,00	1691,62
873,17	1775,59
873,33	1757,16
873,50	1656,81
873,67	1652,71
873,83	1615,85
874,00	1656,81
874,16	1800,16
874,33	1628,14
874,50	1552,36
874,66	1783,78
874,83	1710,05
875,00	1796,07
875,16	1734,63
875,33	1783,78
875,50	1591,27
875,66	1613,80
875,83	1724,39
875,99	1759,21
876,16	1720,29
876,33	1624,04
876,49	1619,94
876,66	1775,59
876,83	1699,81
876,99	1675,24
877,16	1732,58
877,32	1720,29
877,49	1699,81
877,66	1652,71
877,82	1765,35
877,99	1699,81
878,15	1751,01
878,32	1671,14
878,49	1712,10
878,65	1769,44
878,82	1787,88
878,98	1656,81
879,15	1677,29
879,32	1740,77
879,48	1714,15
879,65	1691,62
879,81	1681,38
879,98	1675,24
880,15	1687,53
880,31	1697,77
880,48	1636,33
880,64	1759,21
880,81	1748,97
880,97	1800,16
881,14	1716,20
881,31	1626,09
881,47	1841,12
881,64	1699,81
881,80	1646,57
881,97	1679,33
882,13	1722,34
882,30	1634,28
882,47	1705,96
882,63	1730,53
882,80	1671,14
882,96	1710,05
883,13	1757,16
883,29	1804,26
883,46	1759,21
883,62	1763,30
883,79	1716,20
883,95	1791,97
884,12	1681,38
884,29	1701,86
884,45	1624,04
884,62	1783,78
884,78	1654,76
884,95	1775,59
885,11	1587,18
885,28	1685,48
885,44	1640,42
885,61	1703,91
885,77	1867,75
885,94	1757,16
886,10	1738,73
886,27	1683,43
886,43	1808,36
886,60	1734,63
886,76	1726,44
886,93	1693,67
887,09	1681,38
887,26	1705,96
887,42	1693,67
887,59	1810,40
887,75	1748,97
887,92	1763,30
888,08	1789,92
888,25	1791,97
888,41	1714,15
888,58	1693,67
888,74	1681,38
888,91	1619,94
>>>>>End Processed Spectral Data<<<<<
