SpectraSuite Data File
++++++++++++++++++++++++++++++++++++
Date: Mon Jun 06 14:46:57 CEST 2016
User: root
Dark Spectrum Present: No
Reference Spectrum Present: No
Number of Sampled Component Spectra: 1
Spectrometers: USB4C02835
Integration Time (usec): 100000 (USB4C02835)
Spectra Averaged: 1 (USB4C02835)
Boxcar Smoothing: 0 (USB4C02835)
Correct for Electrical Dark: No (USB4C02835)
Strobe/Lamp Enabled: No (USB4C02835)
Correct for Detector Non-linearity: No (USB4C02835)
Correct for Stray Light: No (USB4C02835)
Number of Pixels in Processed Spectrum: 3648
>>>>>Begin Processed Spectral Data<<<<<
177,47	1517,54
177,69	1517,54
177,91	1517,54
178,13	1482,73
178,36	1462,25
178,58	1621,99
178,80	1695,72
179,02	1546,22
179,24	1685,48
179,46	1777,64
179,68	1726,44
179,90	1597,42
180,13	1724,39
180,35	1624,04
180,57	1763,30
180,79	1789,92
181,01	1648,61
181,23	1816,55
181,45	1767,40
181,67	1732,58
181,90	1683,43
182,12	1665,00
182,34	1665,00
182,56	1705,96
182,78	1726,44
183,00	1697,77
183,22	1703,91
183,44	1642,47
183,66	1898,47
183,89	1812,45
184,11	1656,81
184,33	1705,96
184,55	1808,36
184,77	1763,30
184,99	1689,57
185,21	1681,38
185,43	1837,03
185,65	1687,53
185,87	1671,14
186,10	1828,84
186,32	1783,78
186,54	1716,20
186,76	1712,10
186,98	1818,60
187,20	1662,95
187,42	1628,14
187,64	1728,49
187,86	1734,63
188,08	1724,39
188,30	1652,71
188,52	1667,05
188,75	1824,74
188,97	1820,64
189,19	1705,96
189,41	1714,15
189,63	1695,72
189,85	1716,20
190,07	1660,90
190,29	1613,80
190,51	1632,23
190,73	1560,55
190,95	1781,73
191,17	1675,24
191,39	1603,56
191,61	1699,81
191,84	1652,71
192,06	1785,83
192,28	1578,98
192,50	1867,75
192,72	1691,62
192,94	1708,01
193,16	1783,78
193,38	1732,58
193,60	1605,61
193,82	1611,75
194,04	1724,39
194,26	1685,48
194,48	1695,72
194,70	1650,66
194,92	1665,00
195,14	1697,77
195,36	1650,66
195,58	1669,09
195,80	1671,14
196,02	1703,91
196,24	1757,16
196,46	1701,86
196,69	1673,19
196,91	1806,31
197,13	1755,11
197,35	1658,85
197,57	1779,68
197,79	1748,97
198,01	1740,77
198,23	1738,73
198,45	1679,33
198,67	1617,90
198,89	1728,49
199,11	1718,25
199,33	1744,87
199,55	1628,14
199,77	1738,73
199,99	1753,06
200,21	1732,58
200,43	1742,82
200,65	1603,56
200,87	1617,90
201,09	1773,54
201,31	1630,18
201,53	1734,63
201,75	1769,44
201,97	1685,48
202,19	1607,66
202,41	1734,63
202,63	1736,68
202,85	1718,25
203,07	1693,67
203,29	1648,61
203,51	1624,04
203,73	1621,99
203,95	1888,23
204,17	1708,01
204,39	1699,81
204,61	1669,09
204,83	1648,61
205,05	1746,92
205,27	1738,73
205,49	1742,82
205,71	1767,40
205,93	1708,01
206,15	1716,20
206,37	1732,58
206,59	1642,47
206,81	1654,76
207,03	1638,38
207,25	1603,56
207,47	1648,61
207,69	1738,73
207,91	1722,34
208,13	1722,34
208,34	1728,49
208,56	1675,24
208,78	1722,34
209,00	1712,10
209,22	1667,05
209,44	1673,19
209,66	1615,85
209,88	1656,81
210,10	1742,82
210,32	1617,90
210,54	1767,40
210,76	1685,48
210,98	1767,40
211,20	1640,42
211,42	1697,77
211,64	1771,49
211,86	1746,92
212,08	1730,53
212,30	1755,11
212,52	1683,43
212,74	1677,29
212,96	1701,86
213,17	1621,99
213,39	1742,82
213,61	1855,46
213,83	1701,86
214,05	1585,13
214,27	1794,02
214,49	1619,94
214,71	1615,85
214,93	1724,39
215,15	1726,44
215,37	1699,81
215,59	1722,34
215,81	1683,43
216,03	1773,54
216,24	1656,81
216,46	1660,90
216,68	1732,58
216,90	1705,96
217,12	1802,21
217,34	1636,33
217,56	1767,40
217,78	1751,01
218,00	1701,86
218,22	1691,62
218,44	1736,68
218,66	1708,01
218,87	1755,11
219,09	1681,38
219,31	1615,85
219,53	1748,97
219,75	1695,72
219,97	1705,96
220,19	1740,77
220,41	1603,56
220,63	1812,45
220,85	1773,54
221,06	1665,00
221,28	1798,12
221,50	1742,82
221,72	1681,38
221,94	1665,00
222,16	1611,75
222,38	1748,97
222,60	1759,21
222,82	1742,82
223,03	1724,39
223,25	1634,28
223,47	1730,53
223,69	1722,34
223,91	1712,10
224,13	1656,81
224,35	1685,48
224,57	1683,43
224,78	1744,87
225,00	1699,81
225,22	1630,18
225,44	1640,42
225,66	1708,01
225,88	1685,48
226,10	1798,12
226,32	1705,96
226,53	1765,35
226,75	1742,82
226,97	1660,90
227,19	1667,05
227,41	1652,71
227,63	1656,81
227,85	1658,85
228,06	1701,86
228,28	1714,15
228,50	1751,01
228,72	1648,61
228,94	1714,15
229,16	1572,84
229,37	1726,44
229,59	1732,58
229,81	1855,46
230,03	1738,73
230,25	1607,66
230,47	1673,19
230,69	1630,18
230,90	1753,06
231,12	1708,01
231,34	1693,67
231,56	1751,01
231,78	1615,85
232,00	1730,53
232,21	1669,09
232,43	1742,82
232,65	1581,03
232,87	1718,25
233,09	1714,15
233,30	1570,79
233,52	1736,68
233,74	1724,39
233,96	1685,48
234,18	1740,77
234,40	1769,44
234,61	1826,79
234,83	1599,46
235,05	1581,03
235,27	1769,44
235,49	1751,01
235,70	1724,39
235,92	1718,25
236,14	1681,38
236,36	1834,98
236,58	1681,38
236,79	1757,16
237,01	1724,39
237,23	1689,57
237,45	1802,21
237,67	1726,44
237,88	1697,77
238,10	1804,26
238,32	1681,38
238,54	1699,81
238,76	1603,56
238,97	1634,28
239,19	1716,20
239,41	1683,43
239,63	1697,77
239,85	1701,86
240,06	1669,09
240,28	1642,47
240,50	1705,96
240,72	1644,52
240,93	1667,05
241,15	1746,92
241,37	1654,76
241,59	1779,68
241,81	1746,92
242,02	1763,30
242,24	1798,12
242,46	1820,64
242,68	1619,94
242,89	1724,39
243,11	1748,97
243,33	1671,14
243,55	1685,48
243,76	1705,96
243,98	1705,96
244,20	1691,62
244,42	1642,47
244,64	1716,20
244,85	1679,33
245,07	1669,09
245,29	1832,93
245,51	1748,97
245,72	1632,23
245,94	1771,49
246,16	1746,92
246,38	1751,01
246,59	1724,39
246,81	1656,81
247,03	1763,30
247,24	1630,18
247,46	1634,28
247,68	1667,05
247,90	1648,61
248,11	1685,48
248,33	1708,01
248,55	1656,81
248,77	1751,01
248,98	1710,05
249,20	1728,49
249,42	1691,62
249,64	1693,67
249,85	1710,05
250,07	1710,05
250,29	1693,67
250,50	1708,01
250,72	1568,74
250,94	1730,53
251,16	1830,88
251,37	1683,43
251,59	1675,24
251,81	1734,63
252,02	1722,34
252,24	1591,27
252,46	1708,01
252,68	1650,66
252,89	1609,70
253,11	1535,98
253,33	1794,02
253,54	1820,64
253,76	1642,47
253,98	1632,23
254,20	1748,97
254,41	1628,14
254,63	1744,87
254,85	1673,19
255,06	1667,05
255,28	1681,38
255,50	1675,24
255,71	1626,09
255,93	1722,34
256,15	1681,38
256,36	1779,68
256,58	1624,04
256,80	1689,57
257,02	1705,96
257,23	1648,61
257,45	1703,91
257,67	1804,26
257,88	1665,00
258,10	1619,94
258,32	1703,91
258,53	1642,47
258,75	1726,44
258,97	1652,71
259,18	1685,48
259,40	1654,76
259,62	1796,07
259,83	1812,45
260,05	1728,49
260,27	1953,76
260,48	1800,16
260,70	1665,00
260,92	1679,33
261,13	1703,91
261,35	1714,15
261,57	1634,28
261,78	1621,99
262,00	1583,08
262,22	1726,44
262,43	1703,91
262,65	1722,34
262,86	1669,09
263,08	1800,16
263,30	1662,95
263,51	1601,51
263,73	1624,04
263,95	1787,88
264,16	1695,72
264,38	1636,33
264,60	1716,20
264,81	1734,63
265,03	1705,96
265,25	1767,40
265,46	1652,71
265,68	1728,49
265,89	1718,25
266,11	1607,66
266,33	1744,87
266,54	1761,25
266,76	1740,77
266,98	1634,28
267,19	1789,92
267,41	1730,53
267,62	1685,48
267,84	1581,03
268,06	1767,40
268,27	1689,57
268,49	1712,10
268,70	1701,86
268,92	1744,87
269,14	1677,29
269,35	1560,55
269,57	1742,82
269,79	1699,81
270,00	1673,19
270,22	1785,83
270,43	1701,86
270,65	1640,42
270,87	1687,53
271,08	1814,50
271,30	1689,57
271,51	1736,68
271,73	1757,16
271,95	1779,68
272,16	1724,39
272,38	1660,90
272,59	1677,29
272,81	1773,54
273,02	1736,68
273,24	1699,81
273,46	1746,92
273,67	1644,52
273,89	1693,67
274,10	1685,48
274,32	1699,81
274,54	1796,07
274,75	1708,01
274,97	1648,61
275,18	1753,06
275,40	1699,81
275,61	1703,91
275,83	1691,62
276,05	1624,04
276,26	1636,33
276,48	1658,85
276,69	1716,20
276,91	1597,42
277,12	1804,26
277,34	1734,63
277,55	1712,10
277,77	1648,61
277,99	1621,99
278,20	1658,85
278,42	1660,90
278,63	1583,08
278,85	1609,70
279,06	1683,43
279,28	1722,34
279,49	1701,86
279,71	1759,21
279,93	1765,35
280,14	1687,53
280,36	1665,00
280,57	1699,81
280,79	1712,10
281,00	1693,67
281,22	1660,90
281,43	1763,30
281,65	1615,85
281,86	1642,47
282,08	1779,68
282,29	1751,01
282,51	1671,14
282,73	1652,71
282,94	1705,96
283,16	1751,01
283,37	1755,11
283,59	1710,05
283,80	1669,09
284,02	1718,25
284,23	1765,35
284,45	1753,06
284,66	1650,66
284,88	1656,81
285,09	1667,05
285,31	1763,30
285,52	1802,21
285,74	1583,08
285,95	1775,59
286,17	1695,72
286,38	1765,35
286,60	1605,61
286,81	1689,57
287,03	1720,29
287,24	1632,23
287,46	1708,01
287,67	1742,82
287,89	1718,25
288,10	1748,97
288,32	1714,15
288,53	1746,92
288,75	1677,29
288,96	1779,68
289,18	1650,66
289,39	1720,29
289,61	1751,01
289,82	1877,99
290,04	1789,92
290,25	1681,38
290,47	1779,68
290,68	1599,46
290,90	1748,97
291,11	1550,31
291,33	1705,96
291,54	1671,14
291,76	1638,38
291,97	1724,39
292,18	1673,19
292,40	1777,64
292,61	1714,15
292,83	1783,78
293,04	1708,01
293,26	1697,77
293,47	1751,01
293,69	1652,71
293,90	1675,24
294,12	1781,73
294,33	1699,81
294,55	1722,34
294,76	1773,54
294,97	1808,36
295,19	1769,44
295,40	1656,81
295,62	1693,67
295,83	1755,11
296,05	1648,61
296,26	1763,30
296,48	1654,76
296,69	1619,94
296,90	1714,15
297,12	1740,77
297,33	1814,50
297,55	1748,97
297,76	1751,01
297,98	1724,39
298,19	1699,81
298,41	1755,11
298,62	1640,42
298,83	1755,11
299,05	1738,73
299,26	1681,38
299,48	1662,95
299,69	1787,88
299,90	1714,15
300,12	1689,57
300,33	1744,87
300,55	1697,77
300,76	1708,01
300,98	1693,67
301,19	1755,11
301,40	1652,71
301,62	1660,90
301,83	1710,05
302,05	1650,66
302,26	1710,05
302,47	1748,97
302,69	1671,14
302,90	1740,77
303,12	1560,55
303,33	1669,09
303,54	1791,97
303,76	1669,09
303,97	1691,62
304,19	1789,92
304,40	1628,14
304,61	1699,81
304,83	1812,45
305,04	1802,21
305,26	1734,63
305,47	1689,57
305,68	1628,14
305,90	1638,38
306,11	1808,36
306,33	1755,11
306,54	1673,19
306,75	1669,09
306,97	1658,85
307,18	1640,42
307,39	1708,01
307,61	1652,71
307,82	1642,47
308,04	1763,30
308,25	1677,29
308,46	1732,58
308,68	1722,34
308,89	1675,24
309,10	1746,92
309,32	1757,16
309,53	1734,63
309,74	1685,48
309,96	1718,25
310,17	1765,35
310,39	1636,33
310,60	1687,53
310,81	1759,21
311,03	1619,94
311,24	1716,20
311,45	1771,49
311,67	1834,98
311,88	1712,10
312,09	1730,53
312,31	1658,85
312,52	1660,90
312,73	1673,19
312,95	1562,60
313,16	1689,57
313,37	1742,82
313,59	1705,96
313,80	1769,44
314,01	1746,92
314,23	1685,48
314,44	1697,77
314,65	1626,09
314,87	1748,97
315,08	1687,53
315,29	1744,87
315,51	1662,95
315,72	1574,89
315,93	1794,02
316,15	1822,69
316,36	1630,18
316,57	1697,77
316,79	1769,44
317,00	1722,34
317,21	1718,25
317,43	1656,81
317,64	1763,30
317,85	1769,44
318,07	1615,85
318,28	1671,14
318,49	1705,96
318,70	1880,04
318,92	1810,40
319,13	1783,78
319,34	1853,41
319,56	1828,84
319,77	1806,31
319,98	1834,98
320,20	1705,96
320,41	1771,49
320,62	1742,82
320,83	1669,09
321,05	1865,70
321,26	1705,96
321,47	1660,90
321,69	1779,68
321,90	1578,98
322,11	1656,81
322,32	1740,77
322,54	1753,06
322,75	1710,05
322,96	1800,16
323,18	1621,99
323,39	1560,55
323,60	1673,19
323,81	1759,21
324,03	1632,23
324,24	1662,95
324,45	1648,61
324,66	1740,77
324,88	1724,39
325,09	1796,07
325,30	1701,86
325,52	1671,14
325,73	1755,11
325,94	1677,29
326,15	1607,66
326,37	1701,86
326,58	1748,97
326,79	1800,16
327,00	1615,85
327,22	1734,63
327,43	1689,57
327,64	1652,71
327,85	1736,68
328,07	1644,52
328,28	1755,11
328,49	1703,91
328,70	1667,05
328,92	1695,72
329,13	1683,43
329,34	1751,01
329,55	1802,21
329,76	1755,11
329,98	1714,15
330,19	1730,53
330,40	1689,57
330,61	1689,57
330,83	1791,97
331,04	1718,25
331,25	1685,48
331,46	1691,62
331,68	1642,47
331,89	1689,57
332,10	1705,96
332,31	1632,23
332,52	1689,57
332,74	1769,44
332,95	1609,70
333,16	1708,01
333,37	1746,92
333,58	1724,39
333,80	1742,82
334,01	1642,47
334,22	1636,33
334,43	1681,38
334,64	1671,14
334,86	1656,81
335,07	1640,42
335,28	1837,03
335,49	1654,76
335,70	1734,63
335,92	1718,25
336,13	1779,68
336,34	1777,64
336,55	1742,82
336,76	1685,48
336,98	1636,33
337,19	1662,95
337,40	1781,73
337,61	1894,37
337,82	1619,94
338,04	1703,91
338,25	1609,70
338,46	1712,10
338,67	1708,01
338,88	1685,48
339,09	1599,46
339,31	1640,42
339,52	1593,32
339,73	1665,00
339,94	1654,76
340,15	1710,05
340,36	1613,80
340,58	1636,33
340,79	1708,01
341,00	1662,95
341,21	1609,70
341,42	1824,74
341,63	1695,72
341,85	1775,59
342,06	1691,62
342,27	1638,38
342,48	1767,40
342,69	1585,13
342,90	1697,77
343,12	1826,79
343,33	1617,90
343,54	1808,36
343,75	1798,12
343,96	1697,77
344,17	1599,46
344,38	1675,24
344,60	1660,90
344,81	1728,49
345,02	1746,92
345,23	1667,05
345,44	1769,44
345,65	1755,11
345,86	1710,05
346,07	1728,49
346,29	1656,81
346,50	1716,20
346,71	1718,25
346,92	1798,12
347,13	1787,88
347,34	1714,15
347,55	1722,34
347,76	1671,14
347,98	1632,23
348,19	1640,42
348,40	1798,12
348,61	1628,14
348,82	1769,44
349,03	1753,06
349,24	1683,43
349,45	1820,64
349,66	1603,56
349,88	1708,01
350,09	1658,85
350,30	1789,92
350,51	1816,55
350,72	1665,00
350,93	1722,34
351,14	1746,92
351,35	1757,16
351,56	1789,92
351,77	1648,61
351,99	1644,52
352,20	1841,12
352,41	1808,36
352,62	1650,66
352,83	1658,85
353,04	1726,44
353,25	1691,62
353,46	1726,44
353,67	1734,63
353,88	1607,66
354,09	1783,78
354,30	1724,39
354,52	1736,68
354,73	1724,39
354,94	1681,38
355,15	1789,92
355,36	1808,36
355,57	1640,42
355,78	1738,73
355,99	1636,33
356,20	1683,43
356,41	1720,29
356,62	1765,35
356,83	1710,05
357,04	1781,73
357,25	1603,56
357,46	1656,81
357,68	1609,70
357,89	1609,70
358,10	1697,77
358,31	1708,01
358,52	1644,52
358,73	1718,25
358,94	1603,56
359,15	1595,37
359,36	1724,39
359,57	1621,99
359,78	1699,81
359,99	1681,38
360,20	1603,56
360,41	1683,43
360,62	1789,92
360,83	1689,57
361,04	1695,72
361,25	1628,14
361,46	1888,23
361,67	1677,29
361,88	1695,72
362,09	1808,36
362,30	1685,48
362,51	1687,53
362,72	1693,67
362,93	1767,40
363,14	1732,58
363,35	1751,01
363,56	1658,85
363,78	1720,29
363,99	1724,39
364,20	1660,90
364,41	1716,20
364,62	1759,21
364,83	1748,97
365,04	1665,00
365,25	1644,52
365,46	1798,12
365,67	1673,19
365,88	1601,51
366,09	1708,01
366,30	1685,48
366,51	1685,48
366,72	1617,90
366,93	1746,92
367,14	1742,82
367,35	1740,77
367,56	1751,01
367,77	1759,21
367,98	1701,86
368,18	1701,86
368,39	1638,38
368,60	1556,46
368,81	1738,73
369,02	1755,11
369,23	1689,57
369,44	1628,14
369,65	1660,90
369,86	1718,25
370,07	1812,45
370,28	1611,75
370,49	1718,25
370,70	1773,54
370,91	1714,15
371,12	1632,23
371,33	1806,31
371,54	1683,43
371,75	1736,68
371,96	1628,14
372,17	1681,38
372,38	1726,44
372,59	1796,07
372,80	1675,24
373,01	1685,48
373,22	1718,25
373,43	1689,57
373,64	1615,85
373,85	1773,54
374,06	1814,50
374,26	1712,10
374,47	1689,57
374,68	1753,06
374,89	1669,09
375,10	1634,28
375,31	1771,49
375,52	1673,19
375,73	1665,00
375,94	1665,00
376,15	1718,25
376,36	1644,52
376,57	1703,91
376,78	1644,52
376,99	1640,42
377,20	1777,64
377,40	1714,15
377,61	1837,03
377,82	1644,52
378,03	1783,78
378,24	1742,82
378,45	1701,86
378,66	1708,01
378,87	1662,95
379,08	1601,51
379,29	1738,73
379,50	1691,62
379,71	1675,24
379,91	1753,06
380,12	1740,77
380,33	1742,82
380,54	1751,01
380,75	1742,82
380,96	1720,29
381,17	1718,25
381,38	1697,77
381,59	1722,34
381,80	1685,48
382,00	1959,91
382,21	1781,73
382,42	1761,25
382,63	1933,28
382,84	1767,40
383,05	1736,68
383,26	1804,26
383,47	1665,00
383,68	1849,32
383,88	1714,15
384,09	1705,96
384,30	1886,18
384,51	1687,53
384,72	1689,57
384,93	1644,52
385,14	1710,05
385,35	1718,25
385,55	1634,28
385,76	1834,98
385,97	1673,19
386,18	1619,94
386,39	1746,92
386,60	1662,95
386,81	1734,63
387,02	1675,24
387,22	1644,52
387,43	1699,81
387,64	1791,97
387,85	1851,36
388,06	2222,05
388,27	4405,18
388,48	6758,30
388,68	8451,97
388,89	9486,19
389,10	9965,42
389,31	8843,13
389,52	7557,00
389,73	6825,88
389,93	6301,60
390,14	5894,05
390,35	5273,52
390,56	4536,25
390,77	3749,83
390,98	3094,48
391,18	2578,39
391,39	2127,84
391,60	1810,40
391,81	1896,42
392,02	1734,63
392,23	1843,17
392,43	1701,86
392,64	1816,55
392,85	1734,63
393,06	1748,97
393,27	1705,96
393,47	1662,95
393,68	1779,68
393,89	1640,42
394,10	1771,49
394,31	1699,81
394,52	1644,52
394,72	1646,57
394,93	1734,63
395,14	1683,43
395,35	1748,97
395,56	1681,38
395,76	1710,05
395,97	1828,84
396,18	1861,60
396,39	1789,92
396,60	1961,95
396,80	1867,75
397,01	1837,03
397,22	1857,51
397,43	1845,22
397,64	1740,77
397,84	1773,54
398,05	1929,19
398,26	1787,88
398,47	1763,30
398,67	1714,15
398,88	1730,53
399,09	1705,96
399,30	1701,86
399,51	1812,45
399,71	1599,46
399,92	1736,68
400,13	1724,39
400,34	1679,33
400,54	1703,91
400,75	1783,78
400,96	1744,87
401,17	1767,40
401,37	1755,11
401,58	1675,24
401,79	1697,77
402,00	1863,65
402,21	2045,92
402,41	1906,66
402,62	1937,38
402,83	2039,78
403,04	1955,81
403,24	2041,82
403,45	1877,99
403,66	1914,85
403,87	1859,56
404,07	1845,22
404,28	1853,41
404,49	1902,56
404,70	1841,12
404,90	1841,12
405,11	1736,68
405,32	1753,06
405,52	1624,04
405,73	1660,90
405,94	1697,77
406,15	1683,43
406,35	1808,36
406,56	1720,29
406,77	1646,57
406,98	1771,49
407,18	1691,62
407,39	1804,26
407,60	1660,90
407,80	1781,73
408,01	1656,81
408,22	1703,91
408,43	1783,78
408,63	1660,90
408,84	1746,92
409,05	1722,34
409,25	1685,48
409,46	1626,09
409,67	1638,38
409,88	1669,09
410,08	1720,29
410,29	1738,73
410,50	1695,72
410,70	1744,87
410,91	1705,96
411,12	1748,97
411,32	1734,63
411,53	1689,57
411,74	1779,68
411,95	1763,30
412,15	1705,96
412,36	1757,16
412,57	1708,01
412,77	1763,30
412,98	1765,35
413,19	1681,38
413,39	1759,21
413,60	1804,26
413,81	1785,83
414,01	1685,48
414,22	1767,40
414,43	1748,97
414,63	1677,29
414,84	1691,62
415,05	1740,77
415,25	1617,90
415,46	1665,00
415,67	1613,80
415,87	1703,91
416,08	1726,44
416,29	1646,57
416,49	1759,21
416,70	1660,90
416,91	1714,15
417,11	1722,34
417,32	1685,48
417,53	1804,26
417,73	1738,73
417,94	1693,67
418,15	1708,01
418,35	1724,39
418,56	1718,25
418,77	1906,66
418,97	1724,39
419,18	1677,29
419,38	1585,13
419,59	1691,62
419,80	1816,55
420,00	1697,77
420,21	1710,05
420,42	1806,31
420,62	1626,09
420,83	1716,20
421,04	1658,85
421,24	1701,86
421,45	1714,15
421,65	1816,55
421,86	1652,71
422,07	1689,57
422,27	1755,11
422,48	1693,67
422,69	1671,14
422,89	1732,58
423,10	1722,34
423,30	1624,04
423,51	1693,67
423,72	1724,39
423,92	1742,82
424,13	1642,47
424,33	1701,86
424,54	1775,59
424,75	1675,24
424,95	1736,68
425,16	1748,97
425,36	1718,25
425,57	1763,30
425,78	1773,54
425,98	1718,25
426,19	1748,97
426,39	1648,61
426,60	1730,53
426,81	1763,30
427,01	1767,40
427,22	1652,71
427,42	1656,81
427,63	1691,62
427,83	1720,29
428,04	1742,82
428,25	1734,63
428,45	1732,58
428,66	1822,69
428,86	1734,63
429,07	1660,90
429,28	1796,07
429,48	1617,90
429,69	1685,48
429,89	1703,91
430,10	1677,29
430,30	1753,06
430,51	1726,44
430,71	1648,61
430,92	1751,01
431,13	1640,42
431,33	1759,21
431,54	1699,81
431,74	1720,29
431,95	1822,69
432,15	1642,47
432,36	1783,78
432,56	1724,39
432,77	1806,31
432,98	1843,17
433,18	1755,11
433,39	1683,43
433,59	1734,63
433,80	1810,40
434,00	1767,40
434,21	1687,53
434,41	1628,14
434,62	1873,89
434,82	1734,63
435,03	1660,90
435,23	1669,09
435,44	1617,90
435,64	1771,49
435,85	1714,15
436,06	1759,21
436,26	1796,07
436,47	1691,62
436,67	1712,10
436,88	1691,62
437,08	1765,35
437,29	1841,12
437,49	1732,58
437,70	1765,35
437,90	1697,77
438,11	1882,08
438,31	1722,34
438,52	1822,69
438,72	1847,27
438,93	1978,34
439,13	1779,68
439,34	1869,80
439,54	1728,49
439,75	1767,40
439,95	1808,36
440,16	1691,62
440,36	1738,73
440,57	1701,86
440,77	1744,87
440,98	1814,50
441,18	1775,59
441,39	1691,62
441,59	1669,09
441,80	1849,32
442,00	1773,54
442,21	1714,15
442,41	1660,90
442,62	1804,26
442,82	1658,85
443,02	1720,29
443,23	1685,48
443,43	1767,40
443,64	1755,11
443,84	1726,44
444,05	1796,07
444,25	1722,34
444,46	1624,04
444,66	1673,19
444,87	1802,21
445,07	1650,66
445,28	1660,90
445,48	1779,68
445,69	1781,73
445,89	1855,46
446,09	1714,15
446,30	2088,93
446,50	2701,27
446,71	3721,16
446,91	4337,60
447,12	4650,94
447,32	4802,49
447,53	4337,60
447,73	3864,52
447,93	3616,71
448,14	3233,74
448,34	3174,35
448,55	2992,08
448,75	2838,48
448,96	2688,98
449,16	2449,37
449,36	2297,82
449,57	2054,11
449,77	1906,66
449,98	1877,99
450,18	1796,07
450,39	1779,68
450,59	1806,31
450,79	1728,49
451,00	1718,25
451,20	1812,45
451,41	1693,67
451,61	1783,78
451,81	1808,36
452,02	1683,43
452,22	1730,53
452,43	1703,91
452,63	1662,95
452,84	1734,63
453,04	1691,62
453,24	1732,58
453,45	1667,05
453,65	1734,63
453,86	1748,97
454,06	1693,67
454,26	1781,73
454,47	1671,14
454,67	1814,50
454,87	1767,40
455,08	1685,48
455,28	1845,22
455,49	1718,25
455,69	1742,82
455,89	1857,51
456,10	1802,21
456,30	1697,77
456,51	1708,01
456,71	1697,77
456,91	1773,54
457,12	1652,71
457,32	1785,83
457,52	1714,15
457,73	1683,43
457,93	1771,49
458,14	1693,67
458,34	1591,27
458,54	1650,66
458,75	1677,29
458,95	1808,36
459,15	1701,86
459,36	1779,68
459,56	1710,05
459,76	1916,90
459,97	1746,92
460,17	1744,87
460,37	1867,75
460,58	1740,77
460,78	1763,30
460,99	1710,05
461,19	1740,77
461,39	1683,43
461,60	1738,73
461,80	1757,16
462,00	1722,34
462,21	1808,36
462,41	1601,51
462,61	1669,09
462,82	1636,33
463,02	1712,10
463,22	1728,49
463,43	1742,82
463,63	1697,77
463,83	1798,12
464,04	1755,11
464,24	1691,62
464,44	1671,14
464,64	1716,20
464,85	1798,12
465,05	1738,73
465,25	1763,30
465,46	1656,81
465,66	1724,39
465,86	1853,41
466,07	1636,33
466,27	1794,02
466,47	1619,94
466,68	1716,20
466,88	1851,36
467,08	1701,86
467,29	1800,16
467,49	1820,64
467,69	1703,91
467,89	1708,01
468,10	1703,91
468,30	1658,85
468,50	1757,16
468,71	1695,72
468,91	1648,61
469,11	1804,26
469,31	1740,77
469,52	1632,23
469,72	1851,36
469,92	1871,84
470,13	1742,82
470,33	1665,00
470,53	1810,40
470,73	2062,30
470,94	2340,83
471,14	2371,55
471,34	2492,38
471,54	2400,22
471,75	2254,81
471,95	2181,09
472,15	2105,31
472,36	2097,12
472,56	2027,49
472,76	2070,50
472,96	2070,50
473,17	1978,34
473,37	1871,84
473,57	1859,56
473,77	1894,37
473,98	1800,16
474,18	1677,29
474,38	1810,40
474,58	1697,77
474,79	1730,53
474,99	1791,97
475,19	1761,25
475,39	1683,43
475,60	1701,86
475,80	1671,14
476,00	1714,15
476,20	1658,85
476,41	1656,81
476,61	1853,41
476,81	1767,40
477,01	1681,38
477,21	1771,49
477,42	1875,94
477,62	1662,95
477,82	1767,40
478,02	1671,14
478,23	1712,10
478,43	1648,61
478,63	1646,57
478,83	1701,86
479,03	1798,12
479,24	1763,30
479,44	1808,36
479,64	1640,42
479,84	1566,70
480,04	1677,29
480,25	1746,92
480,45	1677,29
480,65	1722,34
480,85	1751,01
481,06	1671,14
481,26	1734,63
481,46	1681,38
481,66	1738,73
481,86	1656,81
482,06	1689,57
482,27	1726,44
482,47	1683,43
482,67	1781,73
482,87	1642,47
483,07	1763,30
483,28	1751,01
483,48	1669,09
483,68	1740,77
483,88	1648,61
484,08	1605,61
484,29	1652,71
484,49	1742,82
484,69	1640,42
484,89	1828,84
485,09	1751,01
485,29	1794,02
485,50	1798,12
485,70	1560,55
485,90	1804,26
486,10	1665,00
486,30	1728,49
486,50	1804,26
486,71	1722,34
486,91	1738,73
487,11	1798,12
487,31	1640,42
487,51	1726,44
487,71	1685,48
487,91	1644,52
488,12	1667,05
488,32	1570,79
488,52	1705,96
488,72	1583,08
488,92	1742,82
489,12	1857,51
489,32	1791,97
489,53	1728,49
489,73	1673,19
489,93	1767,40
490,13	1660,90
490,33	1603,56
490,53	1730,53
490,73	1812,45
490,94	1646,57
491,14	1761,25
491,34	1826,79
491,54	2201,57
491,74	2682,84
491,94	2795,48
492,14	2977,75
492,34	2955,22
492,54	2779,09
492,75	2537,43
492,95	2496,47
493,15	2299,87
493,35	2258,91
493,55	2238,43
493,75	2131,94
493,95	2074,59
494,15	2062,30
494,35	1877,99
494,56	1910,75
494,76	1798,12
494,96	1796,07
495,16	1708,01
495,36	1755,11
495,56	1738,73
495,76	1703,91
495,96	1757,16
496,16	1681,38
496,36	1841,12
496,56	1771,49
496,77	1763,30
496,97	1757,16
497,17	1863,65
497,37	1685,48
497,57	1759,21
497,77	1720,29
497,97	1660,90
498,17	1738,73
498,37	1710,05
498,57	1816,55
498,77	1722,34
498,97	1783,78
499,17	1869,80
499,38	1736,68
499,58	1800,16
499,78	1777,64
499,98	1800,16
500,18	1742,82
500,38	1724,39
500,58	1882,08
500,78	2484,19
500,98	4597,69
501,18	5859,24
501,38	6797,21
501,58	7092,12
501,78	6731,67
501,98	5597,10
502,18	5085,11
502,38	4310,97
502,58	4044,74
502,78	3706,82
502,98	3663,82
503,18	3448,78
503,38	3231,69
503,59	2824,15
503,79	2727,89
503,99	2510,81
504,19	2277,34
504,39	2211,81
504,59	2172,89
504,79	2099,17
504,99	2043,87
505,19	1929,19
505,39	1912,80
505,59	1988,58
505,79	1861,60
505,99	1800,16
506,19	1798,12
506,39	1834,98
506,59	1714,15
506,79	1789,92
506,99	1832,93
507,19	1718,25
507,39	1816,55
507,59	1626,09
507,79	1753,06
507,99	1681,38
508,19	1669,09
508,39	1720,29
508,59	1705,96
508,79	1812,45
508,99	1849,32
509,19	1724,39
509,39	1771,49
509,59	1652,71
509,79	1693,67
509,99	1710,05
510,19	1832,93
510,39	1783,78
510,59	1710,05
510,79	1689,57
510,99	1652,71
511,19	1771,49
511,39	1816,55
511,59	1814,50
511,79	1851,36
511,99	1851,36
512,19	1828,84
512,38	1697,77
512,58	1695,72
512,78	1697,77
512,98	1724,39
513,18	1781,73
513,38	1615,85
513,58	1841,12
513,78	1697,77
513,98	1718,25
514,18	1724,39
514,38	1740,77
514,58	1744,87
514,78	1699,81
514,98	1632,23
515,18	1685,48
515,38	1710,05
515,58	1816,55
515,78	1708,01
515,98	1652,71
516,18	1687,53
516,38	1714,15
516,57	1716,20
516,77	1660,90
516,97	1740,77
517,17	1644,52
517,37	1583,08
517,57	1765,35
517,77	1765,35
517,97	1726,44
518,17	1701,86
518,37	1726,44
518,57	1650,66
518,77	1673,19
518,97	1689,57
519,16	1714,15
519,36	1826,79
519,56	1685,48
519,76	1656,81
519,96	1724,39
520,16	1845,22
520,36	1628,14
520,56	1861,60
520,76	1671,14
520,96	1681,38
521,16	1828,84
521,35	1804,26
521,55	1785,83
521,75	1695,72
521,95	1675,24
522,15	1699,81
522,35	1714,15
522,55	1716,20
522,75	1771,49
522,95	1724,39
523,14	1699,81
523,34	1751,01
523,54	1675,24
523,74	1781,73
523,94	1720,29
524,14	1640,42
524,34	1798,12
524,54	1820,64
524,73	1751,01
524,93	1769,44
525,13	1734,63
525,33	1701,86
525,53	1853,41
525,73	1748,97
525,93	1777,64
526,13	1742,82
526,32	1769,44
526,52	1705,96
526,72	1757,16
526,92	1724,39
527,12	1732,58
527,32	1646,57
527,52	1720,29
527,71	1740,77
527,91	1665,00
528,11	1746,92
528,31	1695,72
528,51	1734,63
528,71	1669,09
528,90	1722,34
529,10	1712,10
529,30	1796,07
529,50	1593,32
529,70	1716,20
529,90	1726,44
530,09	1722,34
530,29	1722,34
530,49	1611,75
530,69	1902,56
530,89	1759,21
531,09	1818,60
531,28	1722,34
531,48	1765,35
531,68	1796,07
531,88	1714,15
532,08	1726,44
532,28	1669,09
532,47	1791,97
532,67	1820,64
532,87	1816,55
533,07	1679,33
533,27	1814,50
533,46	1736,68
533,66	1767,40
533,86	1742,82
534,06	1660,90
534,26	1828,84
534,45	1685,48
534,65	1761,25
534,85	1755,11
535,05	1673,19
535,25	1779,68
535,44	1677,29
535,64	1705,96
535,84	1751,01
536,04	1658,85
536,24	1654,76
536,43	1757,16
536,63	1730,53
536,83	1722,34
537,03	1673,19
537,22	1642,47
537,42	1669,09
537,62	1744,87
537,82	1705,96
538,02	1867,75
538,21	1855,46
538,41	1865,70
538,61	1675,24
538,81	1740,77
539,00	1847,27
539,20	1708,01
539,40	1701,86
539,60	1783,78
539,79	1830,88
539,99	1708,01
540,19	1751,01
540,39	1771,49
540,58	1734,63
540,78	1804,26
540,98	1722,34
541,18	1789,92
541,37	1765,35
541,57	1728,49
541,77	1765,35
541,97	1624,04
542,16	1603,56
542,36	1724,39
542,56	1699,81
542,76	1873,89
542,95	1716,20
543,15	1720,29
543,35	1757,16
543,54	1634,28
543,74	1712,10
543,94	1775,59
544,14	1705,96
544,33	1812,45
544,53	1660,90
544,73	1710,05
544,93	1724,39
545,12	1771,49
545,32	1832,93
545,52	1728,49
545,71	1683,43
545,91	1681,38
546,11	1765,35
546,30	1640,42
546,50	1705,96
546,70	1781,73
546,90	1763,30
547,09	1705,96
547,29	1720,29
547,49	1824,74
547,68	1779,68
547,88	1742,82
548,08	1777,64
548,27	2146,27
548,47	1740,77
548,67	1722,34
548,87	1767,40
549,06	1738,73
549,26	1738,73
549,46	1718,25
549,65	1685,48
549,85	1781,73
550,05	1804,26
550,24	1617,90
550,44	1783,78
550,64	1759,21
550,83	1730,53
551,03	1857,51
551,23	1779,68
551,42	1753,06
551,62	1695,72
551,82	1779,68
552,01	1646,57
552,21	1791,97
552,41	1673,19
552,60	1871,84
552,80	1734,63
553,00	1679,33
553,19	1742,82
553,39	1783,78
553,59	1615,85
553,78	1755,11
553,98	1755,11
554,17	1671,14
554,37	1720,29
554,57	1820,64
554,76	1652,71
554,96	1718,25
555,16	1705,96
555,35	1722,34
555,55	1763,30
555,75	1718,25
555,94	1789,92
556,14	1642,47
556,33	1744,87
556,53	1767,40
556,73	1714,15
556,92	1753,06
557,12	1812,45
557,32	1851,36
557,51	1789,92
557,71	1757,16
557,90	1845,22
558,10	1791,97
558,30	1673,19
558,49	1669,09
558,69	1726,44
558,88	1689,57
559,08	1763,30
559,28	1697,77
559,47	1777,64
559,67	1763,30
559,86	1814,50
560,06	1818,60
560,26	1681,38
560,45	1783,78
560,65	1693,67
560,84	1841,12
561,04	1646,57
561,24	1742,82
561,43	1744,87
561,63	1847,27
561,82	1720,29
562,02	1796,07
562,22	1642,47
562,41	1648,61
562,61	1751,01
562,80	1660,90
563,00	1898,47
563,19	1718,25
563,39	1695,72
563,59	1769,44
563,78	1691,62
563,98	1724,39
564,17	1714,15
564,37	1691,62
564,56	1652,71
564,76	1695,72
564,96	1787,88
565,15	1675,24
565,35	1830,88
565,54	1759,21
565,74	1751,01
565,93	1753,06
566,13	1796,07
566,32	1794,02
566,52	1798,12
566,71	1689,57
566,91	1847,27
567,11	1732,58
567,30	1736,68
567,50	1812,45
567,69	1802,21
567,89	1742,82
568,08	1660,90
568,28	1687,53
568,47	1669,09
568,67	1759,21
568,86	1689,57
569,06	1771,49
569,25	1781,73
569,45	1621,99
569,64	1638,38
569,84	1722,34
570,04	1837,03
570,23	1687,53
570,43	1789,92
570,62	1755,11
570,82	1818,60
571,01	1726,44
571,21	1740,77
571,40	1656,81
571,60	1800,16
571,79	1722,34
571,99	1818,60
572,18	1693,67
572,38	1779,68
572,57	1716,20
572,77	1763,30
572,96	1847,27
573,16	1800,16
573,35	1742,82
573,55	1791,97
573,74	1839,08
573,94	1779,68
574,13	1744,87
574,33	1804,26
574,52	1755,11
574,71	1732,58
574,91	1824,74
575,10	1712,10
575,30	1718,25
575,49	1669,09
575,69	1679,33
575,88	1742,82
576,08	1703,91
576,27	1802,21
576,47	1718,25
576,66	1898,47
576,86	1808,36
577,05	1748,97
577,25	1757,16
577,44	1877,99
577,64	1677,29
577,83	1781,73
578,02	1679,33
578,22	1822,69
578,41	1849,32
578,61	1755,11
578,80	1705,96
579,00	1730,53
579,19	1695,72
579,39	1847,27
579,58	1849,32
579,77	1662,95
579,97	1791,97
580,16	1794,02
580,36	1812,45
580,55	1824,74
580,75	1753,06
580,94	1740,77
581,13	1873,89
581,33	1837,03
581,52	1685,48
581,72	1964,00
581,91	1908,71
582,11	1734,63
582,30	1738,73
582,49	1808,36
582,69	1759,21
582,88	1798,12
583,08	1746,92
583,27	1800,16
583,47	1802,21
583,66	1773,54
583,85	1701,86
584,05	1753,06
584,24	1761,25
584,44	1785,83
584,63	1753,06
584,82	1814,50
585,02	1863,65
585,21	1841,12
585,41	1839,08
585,60	1755,11
585,79	1925,09
585,99	1972,19
586,18	1949,67
586,37	2117,60
586,57	3418,06
586,76	9801,58
586,96	24288,91
587,15	34625,01
587,34	40637,84
587,54	42624,37
587,73	37377,48
587,93	26410,60
588,12	21999,28
588,31	18642,66
588,51	16678,66
588,70	15306,52
588,89	14286,63
589,09	12728,13
589,28	11071,32
589,47	9469,81
589,67	7970,69
589,86	6537,12
590,06	5054,39
590,25	3983,30
590,44	3119,06
590,64	2557,91
590,83	2367,45
591,02	2160,61
591,22	1935,33
591,41	1882,08
591,60	1877,99
591,80	1953,76
591,99	1773,54
592,18	1828,84
592,38	1789,92
592,57	1783,78
592,76	1734,63
592,96	1785,83
593,15	1685,48
593,34	1787,88
593,54	1789,92
593,73	1806,31
593,92	1808,36
594,12	1751,01
594,31	1746,92
594,50	1812,45
594,70	1822,69
594,89	1791,97
595,08	1632,23
595,28	1812,45
595,47	1906,66
595,66	1753,06
595,86	1781,73
596,05	1783,78
596,24	1753,06
596,43	1845,22
596,63	1861,60
596,82	1732,58
597,01	1738,73
597,21	1828,84
597,40	1781,73
597,59	1738,73
597,79	1734,63
597,98	1773,54
598,17	1841,12
598,36	1732,58
598,56	1767,40
598,75	1650,66
598,94	1761,25
599,14	1693,67
599,33	1751,01
599,52	1837,03
599,71	1724,39
599,91	1806,31
600,10	1708,01
600,29	1771,49
600,48	1826,79
600,68	1777,64
600,87	1695,72
601,06	1628,14
601,26	1718,25
601,45	1726,44
601,64	1771,49
601,83	1822,69
602,03	1687,53
602,22	1689,57
602,41	1753,06
602,60	1798,12
602,80	1783,78
602,99	1734,63
603,18	1724,39
603,37	1718,25
603,57	1748,97
603,76	1701,86
603,95	1763,30
604,14	1710,05
604,34	1714,15
604,53	1677,29
604,72	1763,30
604,91	1742,82
605,10	1810,40
605,30	1708,01
605,49	1806,31
605,68	1771,49
605,87	1767,40
606,07	1667,05
606,26	1730,53
606,45	1746,92
606,64	1810,40
606,84	1714,15
607,03	1722,34
607,22	1794,02
607,41	1708,01
607,60	1679,33
607,80	1705,96
607,99	1697,77
608,18	1714,15
608,37	1720,29
608,56	1722,34
608,76	1779,68
608,95	1826,79
609,14	1693,67
609,33	1820,64
609,52	1744,87
609,72	1730,53
609,91	1767,40
610,10	1722,34
610,29	1751,01
610,48	1767,40
610,68	1777,64
610,87	1763,30
611,06	1779,68
611,25	1605,61
611,44	1818,60
611,63	1714,15
611,83	1796,07
612,02	1628,14
612,21	1720,29
612,40	1701,86
612,59	1603,56
612,79	1665,00
612,98	1667,05
613,17	1808,36
613,36	1697,77
613,55	1810,40
613,74	1759,21
613,93	1652,71
614,13	1765,35
614,32	1775,59
614,51	1769,44
614,70	1708,01
614,89	1679,33
615,08	1671,14
615,28	1996,77
615,47	1748,97
615,66	1710,05
615,85	1708,01
616,04	1851,36
616,23	1626,09
616,42	1697,77
616,62	1691,62
616,81	1710,05
617,00	1738,73
617,19	1751,01
617,38	1705,96
617,57	1746,92
617,76	1730,53
617,95	1769,44
618,15	1724,39
618,34	1781,73
618,53	1677,29
618,72	1832,93
618,91	1722,34
619,10	1851,36
619,29	1714,15
619,48	1722,34
619,68	1683,43
619,87	1738,73
620,06	1705,96
620,25	1740,77
620,44	1695,72
620,63	1757,16
620,82	1665,00
621,01	1685,48
621,20	1746,92
621,39	1701,86
621,59	1742,82
621,78	1660,90
621,97	1726,44
622,16	1712,10
622,35	1726,44
622,54	1839,08
622,73	1824,74
622,92	1642,47
623,11	1769,44
623,30	1767,40
623,49	1834,98
623,68	1744,87
623,88	1796,07
624,07	1667,05
624,26	1771,49
624,45	1761,25
624,64	1712,10
624,83	1779,68
625,02	1751,01
625,21	1783,78
625,40	1691,62
625,59	1765,35
625,78	1734,63
625,97	1804,26
626,16	1832,93
626,35	1755,11
626,54	1677,29
626,74	1736,68
626,93	1677,29
627,12	1755,11
627,31	1791,97
627,50	1650,66
627,69	1710,05
627,88	1767,40
628,07	1671,14
628,26	1685,48
628,45	1691,62
628,64	1689,57
628,83	1748,97
629,02	1595,37
629,21	1781,73
629,40	1734,63
629,59	1697,77
629,78	1681,38
629,97	1722,34
630,16	1732,58
630,35	1708,01
630,54	1748,97
630,73	1646,57
630,92	1685,48
631,11	1732,58
631,30	1767,40
631,49	1708,01
631,68	1683,43
631,87	1697,77
632,06	1683,43
632,25	1853,41
632,44	1759,21
632,63	1791,97
632,82	1701,86
633,01	1681,38
633,20	1699,81
633,39	1703,91
633,58	1660,90
633,77	1751,01
633,96	1753,06
634,15	1812,45
634,34	1746,92
634,53	1748,97
634,72	1611,75
634,91	1617,90
635,10	1714,15
635,29	1755,11
635,48	1699,81
635,67	1712,10
635,86	1632,23
636,05	1806,31
636,24	1667,05
636,43	1751,01
636,62	1763,30
636,81	1603,56
637,00	1691,62
637,19	1740,77
637,38	1697,77
637,57	1742,82
637,76	1699,81
637,95	1781,73
638,14	1734,63
638,33	1677,29
638,52	1693,67
638,71	1744,87
638,89	1757,16
639,08	1832,93
639,27	1751,01
639,46	1671,14
639,65	1779,68
639,84	1714,15
640,03	1751,01
640,22	1734,63
640,41	1822,69
640,60	1685,48
640,79	1656,81
640,98	1683,43
641,17	1857,51
641,36	1650,66
641,55	1740,77
641,74	1693,67
641,92	1685,48
642,11	1617,90
642,30	1705,96
642,49	1599,46
642,68	1656,81
642,87	1751,01
643,06	1732,58
643,25	1689,57
643,44	1689,57
643,63	1761,25
643,82	1755,11
644,00	1703,91
644,19	1826,79
644,38	1621,99
644,57	1665,00
644,76	1753,06
644,95	1671,14
645,14	1744,87
645,33	1761,25
645,52	1703,91
645,71	1624,04
645,89	1693,67
646,08	1665,00
646,27	1769,44
646,46	1828,84
646,65	1630,18
646,84	1728,49
647,03	1699,81
647,22	1771,49
647,40	1767,40
647,59	1695,72
647,78	1640,42
647,97	1652,71
648,16	1611,75
648,35	1755,11
648,54	1853,41
648,73	1697,77
648,91	1798,12
649,10	1705,96
649,29	1671,14
649,48	1648,61
649,67	1777,64
649,86	1632,23
650,05	1675,24
650,23	1761,25
650,42	1617,90
650,61	1765,35
650,80	1714,15
650,99	1828,84
651,18	1798,12
651,36	1757,16
651,55	1656,81
651,74	1746,92
651,93	1716,20
652,12	1728,49
652,31	1695,72
652,49	1699,81
652,68	1665,00
652,87	1781,73
653,06	1734,63
653,25	1828,84
653,44	1779,68
653,62	1791,97
653,81	1703,91
654,00	1726,44
654,19	1738,73
654,38	1789,92
654,56	1755,11
654,75	1679,33
654,94	1693,67
655,13	1755,11
655,32	1847,27
655,51	1822,69
655,69	1697,77
655,88	1755,11
656,07	1642,47
656,26	1769,44
656,45	1658,85
656,63	1724,39
656,82	1748,97
657,01	1744,87
657,20	1718,25
657,38	1847,27
657,57	1687,53
657,76	1630,18
657,95	1800,16
658,14	1689,57
658,32	1726,44
658,51	1574,89
658,70	1734,63
658,89	1722,34
659,08	1708,01
659,26	1873,89
659,45	1714,15
659,64	1677,29
659,83	1605,61
660,01	1884,13
660,20	1685,48
660,39	1853,41
660,58	1624,04
660,76	1685,48
660,95	1726,44
661,14	1648,61
661,33	1699,81
661,51	1755,11
661,70	1681,38
661,89	1800,16
662,08	1691,62
662,26	1658,85
662,45	1718,25
662,64	1826,79
662,83	1738,73
663,01	1619,94
663,20	1597,42
663,39	1751,01
663,58	1697,77
663,76	1667,05
663,95	1718,25
664,14	1646,57
664,32	1640,42
664,51	1712,10
664,70	1624,04
664,89	1673,19
665,07	1652,71
665,26	1755,11
665,45	1689,57
665,64	1816,55
665,82	1812,45
666,01	1736,68
666,20	1699,81
666,38	1732,58
666,57	1834,98
666,76	2211,81
666,95	4448,19
667,13	10415,97
667,32	15417,11
667,51	17903,34
667,69	19308,25
667,88	17880,82
668,07	12599,10
668,25	9588,59
668,44	8179,59
668,63	7430,03
668,81	6836,12
669,00	6268,83
669,19	5777,32
669,38	5136,31
669,56	4599,74
669,75	3989,44
669,94	3481,55
670,12	2885,59
670,31	2545,63
670,50	2248,67
670,68	2021,35
670,87	1955,81
671,06	1767,40
671,24	1845,22
671,43	1892,32
671,62	1701,86
671,80	1691,62
671,99	1757,16
672,18	1693,67
672,36	1775,59
672,55	1773,54
672,74	1728,49
672,92	1722,34
673,11	1806,31
673,29	1718,25
673,48	1714,15
673,67	1697,77
673,85	1787,88
674,04	1595,37
674,23	1701,86
674,41	1773,54
674,60	1712,10
674,79	1654,76
674,97	1607,66
675,16	1701,86
675,34	1779,68
675,53	1650,66
675,72	1689,57
675,90	1834,98
676,09	1718,25
676,28	1683,43
676,46	1675,24
676,65	1734,63
676,83	1652,71
677,02	1689,57
677,21	1765,35
677,39	1748,97
677,58	1613,80
677,77	1681,38
677,95	1665,00
678,14	1705,96
678,32	1671,14
678,51	1693,67
678,70	1746,92
678,88	1712,10
679,07	1730,53
679,25	1695,72
679,44	1724,39
679,63	1617,90
679,81	1699,81
680,00	1777,64
680,18	1779,68
680,37	1781,73
680,55	1665,00
680,74	1605,61
680,93	1574,89
681,11	1759,21
681,30	1781,73
681,48	1679,33
681,67	1730,53
681,85	1716,20
682,04	1624,04
682,23	1703,91
682,41	1730,53
682,60	1648,61
682,78	1710,05
682,97	1665,00
683,15	1763,30
683,34	1771,49
683,53	1730,53
683,71	1654,76
683,90	1748,97
684,08	1824,74
684,27	1658,85
684,45	1718,25
684,64	1800,16
684,82	1665,00
685,01	1744,87
685,19	1689,57
685,38	1796,07
685,57	1703,91
685,75	1630,18
685,94	1722,34
686,12	1665,00
686,31	1636,33
686,49	1816,55
686,68	1632,23
686,86	1732,58
687,05	1728,49
687,23	1800,16
687,42	1708,01
687,60	1624,04
687,79	1726,44
687,97	1861,60
688,16	1777,64
688,34	1710,05
688,53	1611,75
688,71	1718,25
688,90	1744,87
689,08	1730,53
689,27	1601,51
689,45	1714,15
689,64	1699,81
689,82	1728,49
690,01	1783,78
690,19	1730,53
690,38	1650,66
690,56	1804,26
690,75	1603,56
690,93	1640,42
691,12	1648,61
691,30	1658,85
691,49	1687,53
691,67	1787,88
691,86	1748,97
692,04	1730,53
692,23	1697,77
692,41	1671,14
692,60	1834,98
692,78	1796,07
692,97	1642,47
693,15	1656,81
693,34	1839,08
693,52	1748,97
693,71	1712,10
693,89	1718,25
694,08	1673,19
694,26	1701,86
694,44	1728,49
694,63	1751,01
694,81	1585,13
695,00	1615,85
695,18	1789,92
695,37	1849,32
695,55	1677,29
695,74	1667,05
695,92	1699,81
696,10	1761,25
696,29	1705,96
696,47	1660,90
696,66	1558,50
696,84	1636,33
697,03	1685,48
697,21	1845,22
697,40	2246,62
697,58	1724,39
697,76	1634,28
697,95	1675,24
698,13	1648,61
698,32	1708,01
698,50	1714,15
698,68	1847,27
698,87	1765,35
699,05	1785,83
699,24	1648,61
699,42	1667,05
699,61	1722,34
699,79	1714,15
699,97	1718,25
700,16	1634,28
700,34	1646,57
700,53	1699,81
700,71	1830,88
700,89	1734,63
701,08	1728,49
701,26	1718,25
701,45	2109,41
701,63	1708,01
701,81	1710,05
702,00	1652,71
702,18	1693,67
702,37	1687,53
702,55	1724,39
702,73	1712,10
702,92	1638,38
703,10	1755,11
703,28	1767,40
703,47	1662,95
703,65	1779,68
703,84	1787,88
704,02	1695,72
704,20	1767,40
704,39	1667,05
704,57	1656,81
704,75	1734,63
704,94	1753,06
705,12	1753,06
705,30	1794,02
705,49	2207,71
705,67	4286,40
705,86	9262,96
706,04	12744,51
706,22	14786,33
706,41	15464,21
706,59	13987,63
706,77	9785,19
706,96	7348,11
707,14	6633,37
707,32	6088,61
707,51	5654,44
707,69	5062,58
707,87	4345,79
708,06	3512,27
708,24	2901,97
708,42	2422,75
708,61	2254,81
708,79	1918,95
708,97	1861,60
709,16	1834,98
709,34	1746,92
709,52	1753,06
709,71	1699,81
709,89	1742,82
710,07	1708,01
710,26	1665,00
710,44	1718,25
710,62	1773,54
710,80	1726,44
710,99	1775,59
711,17	1785,83
711,35	1572,84
711,54	1587,18
711,72	1755,11
711,90	1761,25
712,09	1722,34
712,27	1601,51
712,45	1740,77
712,63	1658,85
712,82	1693,67
713,00	1738,73
713,18	1738,73
713,37	1681,38
713,55	1689,57
713,73	1681,38
713,91	1763,30
714,10	1691,62
714,28	1716,20
714,46	1781,73
714,65	1650,66
714,83	1761,25
715,01	1656,81
715,19	1701,86
715,38	1648,61
715,56	1757,16
715,74	1683,43
715,92	1665,00
716,11	1806,31
716,29	1607,66
716,47	1722,34
716,65	1687,53
716,84	1636,33
717,02	1787,88
717,20	1648,61
717,38	1681,38
717,57	1724,39
717,75	1695,72
717,93	1687,53
718,11	1736,68
718,30	1583,08
718,48	1757,16
718,66	1714,15
718,84	1791,97
719,03	1691,62
719,21	1681,38
719,39	1822,69
719,57	1779,68
719,75	1773,54
719,94	1687,53
720,12	1759,21
720,30	1648,61
720,48	1800,16
720,67	1607,66
720,85	1673,19
721,03	1718,25
721,21	1607,66
721,39	1755,11
721,58	1726,44
721,76	1697,77
721,94	1730,53
722,12	1673,19
722,30	1726,44
722,49	1636,33
722,67	1777,64
722,85	1718,25
723,03	1621,99
723,21	1681,38
723,40	1654,76
723,58	1748,97
723,76	1730,53
723,94	1728,49
724,12	1693,67
724,30	1679,33
724,49	1722,34
724,67	1656,81
724,85	1669,09
725,03	1638,38
725,21	1728,49
725,40	1767,40
725,58	1667,05
725,76	1738,73
725,94	1681,38
726,12	1675,24
726,30	1730,53
726,49	1656,81
726,67	1681,38
726,85	1775,59
727,03	1841,12
727,21	2168,80
727,39	2942,93
727,57	3860,42
727,76	4110,27
727,94	4548,54
728,12	4394,94
728,30	3706,82
728,48	2934,74
728,66	2740,18
728,84	2488,28
729,03	2258,91
729,21	2191,33
729,39	1990,63
729,57	1791,97
729,75	1779,68
729,93	1886,18
730,11	1644,52
730,30	1761,25
730,48	1724,39
730,66	1845,22
730,84	1710,05
731,02	1679,33
731,20	1722,34
731,38	1681,38
731,56	1640,42
731,74	1681,38
731,93	1783,78
732,11	1748,97
732,29	1656,81
732,47	1722,34
732,65	1726,44
732,83	1787,88
733,01	1759,21
733,19	1681,38
733,37	1683,43
733,56	1689,57
733,74	1525,74
733,92	1714,15
734,10	1699,81
734,28	1732,58
734,46	1626,09
734,64	1712,10
734,82	1710,05
735,00	1699,81
735,18	1652,71
735,36	1665,00
735,54	1708,01
735,73	1603,56
735,91	1740,77
736,09	1785,83
736,27	1679,33
736,45	1742,82
736,63	1648,61
736,81	1763,30
736,99	1798,12
737,17	1712,10
737,35	1679,33
737,53	1640,42
737,71	1615,85
737,89	1785,83
738,07	1650,66
738,25	1656,81
738,43	1644,52
738,61	1693,67
738,80	1615,85
738,98	1609,70
739,16	1738,73
739,34	1607,66
739,52	1820,64
739,70	1683,43
739,88	1712,10
740,06	1701,86
740,24	1628,14
740,42	1796,07
740,60	1646,57
740,78	1619,94
740,96	1640,42
741,14	1708,01
741,32	1722,34
741,50	1595,37
741,68	1820,64
741,86	1746,92
742,04	1648,61
742,22	1597,42
742,40	1642,47
742,58	1755,11
742,76	1683,43
742,94	1701,86
743,12	1636,33
743,30	1710,05
743,48	1732,58
743,66	1566,70
743,84	1769,44
744,02	1662,95
744,20	1724,39
744,38	1652,71
744,56	1673,19
744,74	1769,44
744,92	1703,91
745,10	1769,44
745,28	1705,96
745,46	1761,25
745,64	1636,33
745,82	1802,21
746,00	1763,30
746,18	1697,77
746,36	1626,09
746,54	1767,40
746,72	1712,10
746,90	1658,85
747,08	1732,58
747,26	1638,38
747,44	1699,81
747,62	1648,61
747,80	1699,81
747,98	1753,06
748,15	1728,49
748,33	1755,11
748,51	1693,67
748,69	1701,86
748,87	1591,27
749,05	1673,19
749,23	1714,15
749,41	1740,77
749,59	1654,76
749,77	1708,01
749,95	1619,94
750,13	1695,72
750,31	1769,44
750,49	1726,44
750,67	1748,97
750,85	1820,64
751,03	1744,87
751,20	1867,75
751,38	1705,96
751,56	1624,04
751,74	1785,83
751,92	1744,87
752,10	1697,77
752,28	1748,97
752,46	1720,29
752,64	1742,82
752,82	1726,44
753,00	1736,68
753,18	1693,67
753,35	1644,52
753,53	1724,39
753,71	1714,15
753,89	1693,67
754,07	1695,72
754,25	1779,68
754,43	1744,87
754,61	1667,05
754,79	1683,43
754,97	1642,47
755,14	1771,49
755,32	1683,43
755,50	1679,33
755,68	1671,14
755,86	1675,24
756,04	1714,15
756,22	1624,04
756,40	1728,49
756,57	1824,74
756,75	1685,48
756,93	1804,26
757,11	1738,73
757,29	1665,00
757,47	1628,14
757,65	1673,19
757,82	1568,74
758,00	1615,85
758,18	1634,28
758,36	1636,33
758,54	1812,45
758,72	1632,23
758,90	1687,53
759,07	1710,05
759,25	1624,04
759,43	1767,40
759,61	1697,77
759,79	2246,62
759,97	1714,15
760,15	1673,19
760,32	1714,15
760,50	1800,16
760,68	1789,92
760,86	1648,61
761,04	1796,07
761,22	1748,97
761,39	1640,42
761,57	1712,10
761,75	1687,53
761,93	1744,87
762,11	1611,75
762,28	1771,49
762,46	1562,60
762,64	1722,34
762,82	1624,04
763,00	1716,20
763,18	1804,26
763,35	1705,96
763,53	1824,74
763,71	1708,01
763,89	1710,05
764,07	1757,16
764,24	1710,05
764,42	1677,29
764,60	1650,66
764,78	1796,07
764,96	1740,77
765,13	1720,29
765,31	1695,72
765,49	1689,57
765,67	1597,42
765,84	1636,33
766,02	1738,73
766,20	1671,14
766,38	1687,53
766,56	1667,05
766,73	1748,97
766,91	1634,28
767,09	1697,77
767,27	1740,77
767,44	1603,56
767,62	1746,92
767,80	1689,57
767,98	1675,24
768,15	1703,91
768,33	1746,92
768,51	1738,73
768,69	1671,14
768,87	1773,54
769,04	1746,92
769,22	1890,28
769,40	1779,68
769,58	1826,79
769,75	1689,57
769,93	1763,30
770,11	1642,47
770,28	1648,61
770,46	1687,53
770,64	1783,78
770,82	1652,71
770,99	1748,97
771,17	1783,78
771,35	1734,63
771,53	1759,21
771,70	1615,85
771,88	1671,14
772,06	1640,42
772,23	1691,62
772,41	1650,66
772,59	1687,53
772,77	1609,70
772,94	1638,38
773,12	1742,82
773,30	1734,63
773,47	1685,48
773,65	1593,32
773,83	1812,45
774,01	1650,66
774,18	1613,80
774,36	1646,57
774,54	1626,09
774,71	1738,73
774,89	1646,57
775,07	1662,95
775,24	1685,48
775,42	1687,53
775,60	1759,21
775,78	1695,72
775,95	1583,08
776,13	1548,26
776,31	1634,28
776,48	1685,48
776,66	1724,39
776,84	1740,77
777,01	1665,00
777,19	1583,08
777,37	1615,85
777,54	1738,73
777,72	1789,92
777,90	1779,68
778,07	1654,76
778,25	1900,52
778,43	1738,73
778,60	1677,29
778,78	1738,73
778,96	1708,01
779,13	1691,62
779,31	1781,73
779,49	1716,20
779,66	1642,47
779,84	1724,39
780,01	1710,05
780,19	1650,66
780,37	1722,34
780,54	1726,44
780,72	1705,96
780,90	1718,25
781,07	1730,53
781,25	1705,96
781,43	1677,29
781,60	1609,70
781,78	1734,63
781,95	1730,53
782,13	1628,14
782,31	1705,96
782,48	1538,02
782,66	1708,01
782,83	1837,03
783,01	1701,86
783,19	1746,92
783,36	1703,91
783,54	1683,43
783,72	1798,12
783,89	1677,29
784,07	1650,66
784,24	1669,09
784,42	1875,94
784,60	1677,29
784,77	1783,78
784,95	1607,66
785,12	1693,67
785,30	1714,15
785,47	1736,68
785,65	1640,42
785,83	1603,56
786,00	1736,68
786,18	1677,29
786,35	1628,14
786,53	1675,24
786,71	1798,12
786,88	1779,68
787,06	1761,25
787,23	1724,39
787,41	1642,47
787,58	1693,67
787,76	1683,43
787,94	1634,28
788,11	1724,39
788,29	1574,89
788,46	1660,90
788,64	1660,90
788,81	1642,47
788,99	1669,09
789,16	1640,42
789,34	1781,73
789,52	1593,32
789,69	1722,34
789,87	1615,85
790,04	1693,67
790,22	1714,15
790,39	1796,07
790,57	1578,98
790,74	1662,95
790,92	1730,53
791,09	1601,51
791,27	1712,10
791,44	1767,40
791,62	1685,48
791,79	1714,15
791,97	1708,01
792,15	1890,28
792,32	1732,58
792,50	1742,82
792,67	1802,21
792,85	1818,60
793,02	1726,44
793,20	1650,66
793,37	1634,28
793,55	1587,18
793,72	1667,05
793,90	1714,15
794,07	1648,61
794,25	1589,22
794,42	1710,05
794,60	1685,48
794,77	1652,71
794,95	1673,19
795,12	1726,44
795,30	1673,19
795,47	1601,51
795,65	1886,18
795,82	1732,58
796,00	1656,81
796,17	1658,85
796,34	1693,67
796,52	1699,81
796,69	1798,12
796,87	1738,73
797,04	1779,68
797,22	1710,05
797,39	1628,14
797,57	1712,10
797,74	1658,85
797,92	1699,81
798,09	1626,09
798,27	1763,30
798,44	1804,26
798,62	1665,00
798,79	1724,39
798,96	1710,05
799,14	1656,81
799,31	1787,88
799,49	1636,33
799,66	1603,56
799,84	1628,14
800,01	1619,94
800,19	1751,01
800,36	1554,41
800,53	1708,01
800,71	1722,34
800,88	1789,92
801,06	1677,29
801,23	1695,72
801,41	1640,42
801,58	1732,58
801,75	1708,01
801,93	1777,64
802,10	1703,91
802,28	1675,24
802,45	1691,62
802,63	1789,92
802,80	1847,27
802,97	1689,57
803,15	1701,86
803,32	1650,66
803,50	1716,20
803,67	1636,33
803,84	1683,43
804,02	1650,66
804,19	1658,85
804,37	1621,99
804,54	1634,28
804,71	1699,81
804,89	1710,05
805,06	1759,21
805,24	1607,66
805,41	1658,85
805,58	1648,61
805,76	1808,36
805,93	1681,38
806,10	1740,77
806,28	1710,05
806,45	1718,25
806,63	1738,73
806,80	1681,38
806,97	1746,92
807,15	1697,77
807,32	1757,16
807,49	1683,43
807,67	1701,86
807,84	1689,57
808,01	1658,85
808,19	1892,32
808,36	1767,40
808,54	1716,20
808,71	1648,61
808,88	1724,39
809,06	1812,45
809,23	1679,33
809,40	1660,90
809,58	1767,40
809,75	1697,77
809,92	1648,61
810,10	1759,21
810,27	1671,14
810,44	1710,05
810,62	1738,73
810,79	1705,96
810,96	1583,08
811,14	1679,33
811,31	1716,20
811,48	1687,53
811,66	1656,81
811,83	1802,21
812,00	1736,68
812,18	1667,05
812,35	1853,41
812,52	1744,87
812,69	1646,57
812,87	1648,61
813,04	1636,33
813,21	1634,28
813,39	1673,19
813,56	1673,19
813,73	1767,40
813,91	1609,70
814,08	1638,38
814,25	1708,01
814,42	1589,22
814,60	1687,53
814,77	1617,90
814,94	1714,15
815,12	1691,62
815,29	1814,50
815,46	1611,75
815,63	1763,30
815,81	1683,43
815,98	1654,76
816,15	1687,53
816,33	1665,00
816,50	1658,85
816,67	1652,71
816,84	1746,92
817,02	1669,09
817,19	1646,57
817,36	1679,33
817,53	1687,53
817,71	1714,15
817,88	1738,73
818,05	1626,09
818,22	1665,00
818,40	1812,45
818,57	1705,96
818,74	1796,07
818,91	1724,39
819,09	1720,29
819,26	1785,83
819,43	1697,77
819,60	1632,23
819,78	1712,10
819,95	1787,88
820,12	1599,46
820,29	1765,35
820,47	1683,43
820,64	1673,19
820,81	1640,42
820,98	1677,29
821,15	1689,57
821,33	1609,70
821,50	1624,04
821,67	1722,34
821,84	1710,05
822,02	1695,72
822,19	1771,49
822,36	1677,29
822,53	1644,52
822,70	1632,23
822,88	1673,19
823,05	1808,36
823,22	1662,95
823,39	1671,14
823,56	1683,43
823,74	1751,01
823,91	1650,66
824,08	1640,42
824,25	1624,04
824,42	1755,11
824,60	1624,04
824,77	1673,19
824,94	1572,84
825,11	1812,45
825,28	1597,42
825,45	1708,01
825,63	1652,71
825,80	1667,05
825,97	1746,92
826,14	1677,29
826,31	1687,53
826,48	1761,25
826,66	1636,33
826,83	1708,01
827,00	1724,39
827,17	1630,18
827,34	1628,14
827,51	1693,67
827,69	1656,81
827,86	1585,13
828,03	1671,14
828,20	1646,57
828,37	1665,00
828,54	1732,58
828,71	1738,73
828,89	1744,87
829,06	1767,40
829,23	1722,34
829,40	1558,50
829,57	1640,42
829,74	1691,62
829,91	1650,66
830,09	1681,38
830,26	1699,81
830,43	1806,31
830,60	1701,86
830,77	1691,62
830,94	1783,78
831,11	1755,11
831,28	1656,81
831,46	1710,05
831,63	1703,91
831,80	1720,29
831,97	1673,19
832,14	1638,38
832,31	1634,28
832,48	1742,82
832,65	1769,44
832,82	1710,05
832,99	1697,77
833,17	1675,24
833,34	1732,58
833,51	1708,01
833,68	1640,42
833,85	1720,29
834,02	1669,09
834,19	1658,85
834,36	1685,48
834,53	1671,14
834,70	1777,64
834,87	1775,59
835,04	1773,54
835,22	1644,52
835,39	1738,73
835,56	1646,57
835,73	1705,96
835,90	1759,21
836,07	1628,14
836,24	1755,11
836,41	1665,00
836,58	1593,32
836,75	1806,31
836,92	1685,48
837,09	1701,86
837,26	1683,43
837,43	1765,35
837,60	1744,87
837,77	1667,05
837,94	1748,97
838,12	1785,83
838,29	1654,76
838,46	1593,32
838,63	1613,80
838,80	1710,05
838,97	1765,35
839,14	1667,05
839,31	1652,71
839,48	1740,77
839,65	1671,14
839,82	1771,49
839,99	1665,00
840,16	1681,38
840,33	1720,29
840,50	1705,96
840,67	1648,61
840,84	1617,90
841,01	1662,95
841,18	1662,95
841,35	1691,62
841,52	1726,44
841,69	1806,31
841,86	1701,86
842,03	1638,38
842,20	1761,25
842,37	1677,29
842,54	1699,81
842,71	1744,87
842,88	1601,51
843,05	1703,91
843,22	1681,38
843,39	1781,73
843,56	1605,61
843,73	1689,57
843,90	1701,86
844,07	1781,73
844,24	1695,72
844,41	1726,44
844,58	1654,76
844,75	1716,20
844,92	1648,61
845,09	1695,72
845,26	1689,57
845,43	1761,25
845,60	1714,15
845,77	1757,16
845,94	1673,19
846,10	1716,20
846,27	1621,99
846,44	1632,23
846,61	1593,32
846,78	1714,15
846,95	1767,40
847,12	1624,04
847,29	1687,53
847,46	1720,29
847,63	1771,49
847,80	1654,76
847,97	1681,38
848,14	1767,40
848,31	1681,38
848,48	1634,28
848,65	1701,86
848,82	1638,38
848,98	1882,08
849,15	1791,97
849,32	1738,73
849,49	1773,54
849,66	1658,85
849,83	1658,85
850,00	1617,90
850,17	1611,75
850,34	1722,34
850,51	1681,38
850,68	1722,34
850,85	1804,26
851,01	1775,59
851,18	1691,62
851,35	1671,14
851,52	1701,86
851,69	1791,97
851,86	1621,99
852,03	1660,90
852,20	1599,46
852,37	1697,77
852,53	1587,18
852,70	1708,01
852,87	1681,38
853,04	1802,21
853,21	1724,39
853,38	1789,92
853,55	1722,34
853,72	1787,88
853,89	1640,42
854,05	1695,72
854,22	1679,33
854,39	1624,04
854,56	1689,57
854,73	1808,36
854,90	1560,55
855,07	1634,28
855,23	1726,44
855,40	1771,49
855,57	1701,86
855,74	1554,41
855,91	1869,80
856,08	1650,66
856,25	1605,61
856,41	1626,09
856,58	1695,72
856,75	1671,14
856,92	1619,94
857,09	1748,97
857,26	1665,00
857,42	1755,11
857,59	1757,16
857,76	1656,81
857,93	1763,30
858,10	1716,20
858,27	1636,33
858,43	1771,49
858,60	1609,70
858,77	1605,61
858,94	1630,18
859,11	1687,53
859,27	1665,00
859,44	1640,42
859,61	1720,29
859,78	1744,87
859,95	1656,81
860,12	1679,33
860,28	1837,03
860,45	1849,32
860,62	1652,71
860,79	1685,48
860,95	1675,24
861,12	1613,80
861,29	1701,86
861,46	1589,22
861,63	1628,14
861,79	1789,92
861,96	1654,76
862,13	1679,33
862,30	1714,15
862,47	1658,85
862,63	1685,48
862,80	1742,82
862,97	1757,16
863,14	1718,25
863,30	1710,05
863,47	1687,53
863,64	1826,79
863,81	1642,47
863,97	1642,47
864,14	1693,67
864,31	1673,19
864,48	1740,77
864,65	1701,86
864,81	1740,77
864,98	1689,57
865,15	1757,16
865,32	1689,57
865,48	1804,26
865,65	1783,78
865,82	1720,29
865,98	1738,73
866,15	1763,30
866,32	1701,86
866,49	1697,77
866,65	1726,44
866,82	1636,33
866,99	1689,57
867,16	1697,77
867,32	1681,38
867,49	1681,38
867,66	1716,20
867,83	1667,05
867,99	1679,33
868,16	1732,58
868,33	1667,05
868,49	1669,09
868,66	1708,01
868,83	1761,25
868,99	1601,51
869,16	1718,25
869,33	1681,38
869,50	1759,21
869,66	1656,81
869,83	1650,66
870,00	1703,91
870,16	1691,62
870,33	1654,76
870,50	1751,01
870,66	1665,00
870,83	1810,40
871,00	1699,81
871,17	1734,63
871,33	1746,92
871,50	1716,20
871,67	1638,38
871,83	1634,28
872,00	1816,55
872,17	1630,18
872,33	1728,49
872,50	1781,73
872,67	1691,62
872,83	1716,20
873,00	1742,82
873,17	1769,44
873,33	1763,30
873,50	1708,01
873,67	1570,79
873,83	1701,86
874,00	1658,85
874,16	1763,30
874,33	1685,48
874,50	1640,42
874,66	1767,40
874,83	1683,43
875,00	1748,97
875,16	1730,53
875,33	1775,59
875,50	1613,80
875,66	1689,57
875,83	1703,91
875,99	1726,44
876,16	1714,15
876,33	1595,37
876,49	1638,38
876,66	1736,68
876,83	1685,48
876,99	1695,72
877,16	1603,56
877,32	1673,19
877,49	1636,33
877,66	1679,33
877,82	1710,05
877,99	1685,48
878,15	1806,31
878,32	1708,01
878,49	1769,44
878,65	1613,80
878,82	1763,30
878,98	1652,71
879,15	1740,77
879,32	1718,25
879,48	1640,42
879,65	1677,29
879,81	1691,62
879,98	1642,47
880,15	1732,58
880,31	1728,49
880,48	1562,60
880,64	1742,82
880,81	1693,67
880,97	1722,34
881,14	1746,92
881,31	1617,90
881,47	1861,60
881,64	1634,28
881,80	1609,70
881,97	1730,53
882,13	1738,73
882,30	1626,09
882,47	1695,72
882,63	1691,62
882,80	1624,04
882,96	1667,05
883,13	1734,63
883,29	1689,57
883,46	1732,58
883,62	1847,27
883,79	1724,39
883,95	1787,88
884,12	1673,19
884,29	1753,06
884,45	1683,43
884,62	1765,35
884,78	1650,66
884,95	1798,12
885,11	1652,71
885,28	1794,02
885,44	1697,77
885,61	1722,34
885,77	1820,64
885,94	1744,87
886,10	1619,94
886,27	1665,00
886,43	1808,36
886,60	1785,83
886,76	1695,72
886,93	1693,67
887,09	1642,47
887,26	1628,14
887,42	1755,11
887,59	1734,63
887,75	1816,55
887,92	1794,02
888,08	1740,77
888,25	1763,30
888,41	1744,87
888,58	1689,57
888,74	1658,85
888,91	1652,71
>>>>>End Processed Spectral Data<<<<<
