SpectraSuite Data File
++++++++++++++++++++++++++++++++++++
Date: Mon Jun 06 13:30:17 CEST 2016
User: root
Dark Spectrum Present: No
Reference Spectrum Present: No
Number of Sampled Component Spectra: 1
Spectrometers: USB4C02835
Integration Time (usec): 100000 (USB4C02835)
Spectra Averaged: 1 (USB4C02835)
Boxcar Smoothing: 0 (USB4C02835)
Correct for Electrical Dark: No (USB4C02835)
Strobe/Lamp Enabled: No (USB4C02835)
Correct for Detector Non-linearity: No (USB4C02835)
Correct for Stray Light: No (USB4C02835)
Number of Pixels in Processed Spectrum: 3648
>>>>>Begin Processed Spectral Data<<<<<
177,47	1427,43
177,69	1427,43
177,91	1427,43
178,13	1458,15
178,36	1447,91
178,58	1642,47
178,80	1720,29
179,02	1603,56
179,24	1650,66
179,46	1673,19
179,68	1769,44
179,90	1693,67
180,13	1724,39
180,35	1693,67
180,57	1662,95
180,79	1714,15
181,01	1726,44
181,23	1677,29
181,45	1757,16
181,67	1654,76
181,90	1771,49
182,12	1658,85
182,34	1599,46
182,56	1826,79
182,78	1687,53
183,00	1646,57
183,22	1642,47
183,44	1652,71
183,66	1808,36
183,89	1843,17
184,11	1673,19
184,33	1724,39
184,55	1693,67
184,77	1634,28
184,99	1677,29
185,21	1669,09
185,43	1736,68
185,65	1730,53
185,87	1718,25
186,10	1808,36
186,32	1779,68
186,54	1746,92
186,76	1675,24
186,98	1777,64
187,20	1712,10
187,42	1632,23
187,64	1699,81
187,86	1753,06
188,08	1771,49
188,30	1683,43
188,52	1751,01
188,75	1857,51
188,97	1708,01
189,19	1636,33
189,41	1703,91
189,63	1740,77
189,85	1710,05
190,07	1628,14
190,29	1574,89
190,51	1669,09
190,73	1613,80
190,95	1699,81
191,17	1730,53
191,39	1632,23
191,61	1644,52
191,84	1669,09
192,06	1710,05
192,28	1574,89
192,50	1916,90
192,72	1724,39
192,94	1656,81
193,16	1679,33
193,38	1730,53
193,60	1681,38
193,82	1691,62
194,04	1798,12
194,26	1681,38
194,48	1765,35
194,70	1695,72
194,92	1693,67
195,14	1703,91
195,36	1597,42
195,58	1705,96
195,80	1693,67
196,02	1581,03
196,24	1669,09
196,46	1714,15
196,69	1660,90
196,91	1882,08
197,13	1765,35
197,35	1683,43
197,57	1701,86
197,79	1796,07
198,01	1738,73
198,23	1730,53
198,45	1716,20
198,67	1599,46
198,89	1667,05
199,11	1732,58
199,33	1548,26
199,55	1589,22
199,77	1652,71
199,99	1730,53
200,21	1638,38
200,43	1708,01
200,65	1630,18
200,87	1566,70
201,09	1683,43
201,31	1673,19
201,53	1671,14
201,75	1769,44
201,97	1624,04
202,19	1652,71
202,41	1718,25
202,63	1744,87
202,85	1769,44
203,07	1775,59
203,29	1660,90
203,51	1603,56
203,73	1669,09
203,95	1845,22
204,17	1742,82
204,39	1693,67
204,61	1599,46
204,83	1708,01
205,05	1703,91
205,27	1722,34
205,49	1824,74
205,71	1671,14
205,93	1636,33
206,15	1646,57
206,37	1621,99
206,59	1796,07
206,81	1556,46
207,03	1660,90
207,25	1624,04
207,47	1740,77
207,69	1654,76
207,91	1806,31
208,13	1814,50
208,34	1587,18
208,56	1665,00
208,78	1722,34
209,00	1693,67
209,22	1605,61
209,44	1681,38
209,66	1667,05
209,88	1701,86
210,10	1593,32
210,32	1611,75
210,54	1816,55
210,76	1642,47
210,98	1708,01
211,20	1599,46
211,42	1726,44
211,64	1689,57
211,86	1767,40
212,08	1703,91
212,30	1683,43
212,52	1675,24
212,74	1777,64
212,96	1769,44
213,17	1791,97
213,39	1728,49
213,61	1845,22
213,83	1703,91
214,05	1691,62
214,27	1789,92
214,49	1638,38
214,71	1644,52
214,93	1818,60
215,15	1595,37
215,37	1781,73
215,59	1603,56
215,81	1775,59
216,03	1781,73
216,24	1730,53
216,46	1656,81
216,68	1685,48
216,90	1812,45
217,12	1693,67
217,34	1738,73
217,56	1744,87
217,78	1777,64
218,00	1740,77
218,22	1650,66
218,44	1738,73
218,66	1699,81
218,87	1773,54
219,09	1697,77
219,31	1685,48
219,53	1687,53
219,75	1689,57
219,97	1742,82
220,19	1671,14
220,41	1687,53
220,63	1773,54
220,85	1697,77
221,06	1691,62
221,28	1789,92
221,50	1794,02
221,72	1671,14
221,94	1785,83
222,16	1689,57
222,38	1687,53
222,60	1689,57
222,82	1716,20
223,03	1703,91
223,25	1693,67
223,47	1736,68
223,69	1814,50
223,91	1757,16
224,13	1673,19
224,35	1619,94
224,57	1714,15
224,78	1701,86
225,00	1675,24
225,22	1714,15
225,44	1665,00
225,66	1712,10
225,88	1658,85
226,10	1818,60
226,32	1679,33
226,53	1759,21
226,75	1787,88
226,97	1662,95
227,19	1728,49
227,41	1691,62
227,63	1632,23
227,85	1599,46
228,06	1681,38
228,28	1730,53
228,50	1775,59
228,72	1665,00
228,94	1681,38
229,16	1667,05
229,37	1533,93
229,59	1701,86
229,81	1787,88
230,03	1691,62
230,25	1576,94
230,47	1693,67
230,69	1705,96
230,90	1759,21
231,12	1683,43
231,34	1683,43
231,56	1791,97
231,78	1603,56
232,00	1675,24
232,21	1703,91
232,43	1773,54
232,65	1644,52
232,87	1708,01
233,09	1675,24
233,30	1740,77
233,52	1781,73
233,74	1669,09
233,96	1665,00
234,18	1714,15
234,40	1630,18
234,61	1781,73
234,83	1587,18
235,05	1689,57
235,27	1863,65
235,49	1779,68
235,70	1800,16
235,92	1785,83
236,14	1710,05
236,36	1845,22
236,58	1660,90
236,79	1708,01
237,01	1697,77
237,23	1771,49
237,45	1800,16
237,67	1615,85
237,88	1722,34
238,10	1773,54
238,32	1619,94
238,54	1710,05
238,76	1710,05
238,97	1615,85
239,19	1662,95
239,41	1769,44
239,63	1740,77
239,85	1740,77
240,06	1722,34
240,28	1656,81
240,50	1675,24
240,72	1722,34
240,93	1632,23
241,15	1796,07
241,37	1728,49
241,59	1757,16
241,81	1736,68
242,02	1714,15
242,24	1712,10
242,46	1751,01
242,68	1593,32
242,89	1730,53
243,11	1695,72
243,33	1640,42
243,55	1628,14
243,76	1710,05
243,98	1640,42
244,20	1685,48
244,42	1705,96
244,64	1677,29
244,85	1642,47
245,07	1675,24
245,29	1816,55
245,51	1632,23
245,72	1714,15
245,94	1759,21
246,16	1699,81
246,38	1718,25
246,59	1705,96
246,81	1691,62
247,03	1722,34
247,24	1626,09
247,46	1654,76
247,68	1730,53
247,90	1701,86
248,11	1603,56
248,33	1777,64
248,55	1697,77
248,77	1722,34
248,98	1761,25
249,20	1787,88
249,42	1705,96
249,64	1740,77
249,85	1691,62
250,07	1689,57
250,29	1740,77
250,50	1843,17
250,72	1601,51
250,94	1689,57
251,16	1816,55
251,37	1703,91
251,59	1697,77
251,81	1712,10
252,02	1775,59
252,24	1615,85
252,46	1783,78
252,68	1679,33
252,89	1630,18
253,11	1626,09
253,33	1839,08
253,54	1830,88
253,76	1654,76
253,98	1662,95
254,20	1726,44
254,41	1624,04
254,63	1654,76
254,85	1605,61
255,06	1718,25
255,28	1693,67
255,50	1771,49
255,71	1642,47
255,93	1665,00
256,15	1642,47
256,36	1687,53
256,58	1689,57
256,80	1748,97
257,02	1691,62
257,23	1654,76
257,45	1613,80
257,67	1746,92
257,88	1636,33
258,10	1738,73
258,32	1699,81
258,53	1710,05
258,75	1773,54
258,97	1574,89
259,18	1691,62
259,40	1619,94
259,62	1796,07
259,83	1716,20
260,05	1722,34
260,27	1886,18
260,48	1730,53
260,70	1605,61
260,92	1679,33
261,13	1652,71
261,35	1660,90
261,57	1699,81
261,78	1603,56
262,00	1630,18
262,22	1683,43
262,43	1662,95
262,65	1652,71
262,86	1685,48
263,08	1837,03
263,30	1722,34
263,51	1675,24
263,73	1677,29
263,95	1867,75
264,16	1632,23
264,38	1695,72
264,60	1748,97
264,81	1619,94
265,03	1789,92
265,25	1779,68
265,46	1763,30
265,68	1726,44
265,89	1769,44
266,11	1660,90
266,33	1730,53
266,54	1794,02
266,76	1675,24
266,98	1742,82
267,19	1820,64
267,41	1755,11
267,62	1650,66
267,84	1617,90
268,06	1722,34
268,27	1789,92
268,49	1740,77
268,70	1751,01
268,92	1628,14
269,14	1699,81
269,35	1644,52
269,57	1650,66
269,79	1787,88
270,00	1669,09
270,22	1736,68
270,43	1601,51
270,65	1632,23
270,87	1624,04
271,08	1765,35
271,30	1689,57
271,51	1675,24
271,73	1724,39
271,95	1755,11
272,16	1677,29
272,38	1722,34
272,59	1671,14
272,81	1697,77
273,02	1771,49
273,24	1685,48
273,46	1714,15
273,67	1738,73
273,89	1621,99
274,10	1687,53
274,32	1675,24
274,54	1738,73
274,75	1822,69
274,97	1677,29
275,18	1662,95
275,40	1728,49
275,61	1681,38
275,83	1652,71
276,05	1630,18
276,26	1658,85
276,48	1703,91
276,69	1632,23
276,91	1671,14
277,12	1753,06
277,34	1738,73
277,55	1753,06
277,77	1716,20
277,99	1691,62
278,20	1652,71
278,42	1675,24
278,63	1671,14
278,85	1589,22
279,06	1558,50
279,28	1705,96
279,49	1710,05
279,71	1701,86
279,93	1667,05
280,14	1683,43
280,36	1560,55
280,57	1771,49
280,79	1779,68
281,00	1681,38
281,22	1710,05
281,43	1738,73
281,65	1626,09
281,86	1701,86
282,08	1669,09
282,29	1826,79
282,51	1624,04
282,73	1660,90
282,94	1630,18
283,16	1808,36
283,37	1773,54
283,59	1685,48
283,80	1757,16
284,02	1738,73
284,23	1667,05
284,45	1691,62
284,66	1644,52
284,88	1656,81
285,09	1716,20
285,31	1718,25
285,52	1712,10
285,74	1673,19
285,95	1738,73
286,17	1765,35
286,38	1763,30
286,60	1628,14
286,81	1587,18
287,03	1638,38
287,24	1673,19
287,46	1734,63
287,67	1701,86
287,89	1796,07
288,10	1687,53
288,32	1638,38
288,53	1789,92
288,75	1679,33
288,96	1679,33
289,18	1648,61
289,39	1619,94
289,61	1789,92
289,82	1787,88
290,04	1759,21
290,25	1630,18
290,47	1685,48
290,68	1644,52
290,90	1705,96
291,11	1621,99
291,33	1667,05
291,54	1650,66
291,76	1611,75
291,97	1720,29
292,18	1687,53
292,40	1593,32
292,61	1621,99
292,83	1869,80
293,04	1710,05
293,26	1673,19
293,47	1587,18
293,69	1628,14
293,90	1773,54
294,12	1632,23
294,33	1716,20
294,55	1779,68
294,76	1669,09
294,97	1753,06
295,19	1841,12
295,40	1689,57
295,62	1705,96
295,83	1697,77
296,05	1701,86
296,26	1744,87
296,48	1679,33
296,69	1671,14
296,90	1652,71
297,12	1734,63
297,33	1697,77
297,55	1710,05
297,76	1714,15
297,98	1759,21
298,19	1746,92
298,41	1603,56
298,62	1660,90
298,83	1708,01
299,05	1699,81
299,26	1683,43
299,48	1697,77
299,69	1701,86
299,90	1656,81
300,12	1576,94
300,33	1757,16
300,55	1679,33
300,76	1806,31
300,98	1617,90
301,19	1759,21
301,40	1689,57
301,62	1673,19
301,83	1685,48
302,05	1742,82
302,26	1734,63
302,47	1646,57
302,69	1626,09
302,90	1710,05
303,12	1574,89
303,33	1777,64
303,54	1748,97
303,76	1658,85
303,97	1695,72
304,19	1755,11
304,40	1615,85
304,61	1722,34
304,83	1851,36
305,04	1751,01
305,26	1714,15
305,47	1691,62
305,68	1705,96
305,90	1681,38
306,11	1757,16
306,33	1652,71
306,54	1742,82
306,75	1583,08
306,97	1644,52
307,18	1572,84
307,39	1673,19
307,61	1730,53
307,82	1728,49
308,04	1755,11
308,25	1650,66
308,46	1722,34
308,68	1755,11
308,89	1751,01
309,10	1718,25
309,32	1691,62
309,53	1722,34
309,74	1720,29
309,96	1699,81
310,17	1742,82
310,39	1662,95
310,60	1761,25
310,81	1710,05
311,03	1642,47
311,24	1718,25
311,45	1648,61
311,67	1757,16
311,88	1699,81
312,09	1712,10
312,31	1681,38
312,52	1632,23
312,73	1716,20
312,95	1560,55
313,16	1662,95
313,37	1767,40
313,59	1771,49
313,80	1773,54
314,01	1773,54
314,23	1683,43
314,44	1738,73
314,65	1683,43
314,87	1632,23
315,08	1681,38
315,29	1671,14
315,51	1675,24
315,72	1634,28
315,93	1791,97
316,15	1808,36
316,36	1624,04
316,57	1718,25
316,79	1775,59
317,00	1671,14
317,21	1685,48
317,43	1656,81
317,64	1656,81
317,85	1644,52
318,07	1716,20
318,28	1732,58
318,49	1757,16
318,70	1933,28
318,92	1714,15
319,13	1837,03
319,34	1837,03
319,56	1746,92
319,77	1771,49
319,98	1738,73
320,20	1808,36
320,41	1695,72
320,62	1720,29
320,83	1562,60
321,05	1773,54
321,26	1673,19
321,47	1718,25
321,69	1744,87
321,90	1738,73
322,11	1675,24
322,32	1767,40
322,54	1746,92
322,75	1718,25
322,96	1773,54
323,18	1665,00
323,39	1660,90
323,60	1597,42
323,81	1753,06
324,03	1689,57
324,24	1718,25
324,45	1746,92
324,66	1609,70
324,88	1775,59
325,09	1822,69
325,30	1669,09
325,52	1740,77
325,73	1681,38
325,94	1628,14
326,15	1644,52
326,37	1650,66
326,58	1744,87
326,79	1791,97
327,00	1667,05
327,22	1687,53
327,43	1687,53
327,64	1638,38
327,85	1734,63
328,07	1697,77
328,28	1843,17
328,49	1583,08
328,70	1728,49
328,92	1699,81
329,13	1677,29
329,34	1730,53
329,55	1755,11
329,76	1734,63
329,98	1695,72
330,19	1693,67
330,40	1800,16
330,61	1636,33
330,83	1791,97
331,04	1665,00
331,25	1757,16
331,46	1630,18
331,68	1611,75
331,89	1748,97
332,10	1703,91
332,31	1638,38
332,52	1716,20
332,74	1748,97
332,95	1550,31
333,16	1699,81
333,37	1787,88
333,58	1689,57
333,80	1718,25
334,01	1609,70
334,22	1687,53
334,43	1646,57
334,64	1662,95
334,86	1681,38
335,07	1640,42
335,28	1757,16
335,49	1621,99
335,70	1701,86
335,92	1693,67
336,13	1832,93
336,34	1775,59
336,55	1683,43
336,76	1781,73
336,98	1619,94
337,19	1683,43
337,40	1820,64
337,61	1837,03
337,82	1671,14
338,04	1765,35
338,25	1681,38
338,46	1669,09
338,67	1685,48
338,88	1650,66
339,09	1642,47
339,31	1695,72
339,52	1665,00
339,73	1611,75
339,94	1697,77
340,15	1753,06
340,36	1654,76
340,58	1703,91
340,79	1636,33
341,00	1697,77
341,21	1648,61
341,42	1757,16
341,63	1734,63
341,85	1712,10
342,06	1689,57
342,27	1689,57
342,48	1775,59
342,69	1652,71
342,90	1724,39
343,12	1689,57
343,33	1591,27
343,54	1726,44
343,75	1775,59
343,96	1673,19
344,17	1716,20
344,38	1703,91
344,60	1642,47
344,81	1650,66
345,02	1644,52
345,23	1773,54
345,44	1869,80
345,65	1843,17
345,86	1701,86
346,07	1751,01
346,29	1718,25
346,50	1697,77
346,71	1748,97
346,92	1748,97
347,13	1906,66
347,34	1710,05
347,55	1740,77
347,76	1757,16
347,98	1669,09
348,19	1658,85
348,40	1789,92
348,61	1679,33
348,82	1763,30
349,03	1734,63
349,24	1626,09
349,45	1847,27
349,66	1665,00
349,88	1671,14
350,09	1632,23
350,30	1855,46
350,51	1796,07
350,72	1705,96
350,93	1740,77
351,14	1671,14
351,35	1701,86
351,56	1734,63
351,77	1722,34
351,99	1720,29
352,20	1757,16
352,41	1765,35
352,62	1564,65
352,83	1703,91
353,04	1718,25
353,25	1669,09
353,46	1695,72
353,67	1724,39
353,88	1517,54
354,09	1703,91
354,30	1671,14
354,52	1701,86
354,73	1712,10
354,94	1718,25
355,15	1660,90
355,36	1759,21
355,57	1619,94
355,78	1787,88
355,99	1656,81
356,20	1703,91
356,41	1773,54
356,62	1712,10
356,83	1626,09
357,04	1812,45
357,25	1601,51
357,46	1634,28
357,68	1617,90
357,89	1695,72
358,10	1654,76
358,31	1675,24
358,52	1714,15
358,73	1583,08
358,94	1675,24
359,15	1687,53
359,36	1697,77
359,57	1689,57
359,78	1716,20
359,99	1736,68
360,20	1640,42
360,41	1667,05
360,62	1767,40
360,83	1724,39
361,04	1603,56
361,25	1656,81
361,46	1877,99
361,67	1767,40
361,88	1734,63
362,09	1722,34
362,30	1673,19
362,51	1638,38
362,72	1693,67
362,93	1718,25
363,14	1701,86
363,35	1662,95
363,56	1671,14
363,78	1771,49
363,99	1804,26
364,20	1658,85
364,41	1720,29
364,62	1775,59
364,83	1718,25
365,04	1724,39
365,25	1626,09
365,46	1910,75
365,67	1548,26
365,88	1585,13
366,09	1611,75
366,30	1673,19
366,51	1763,30
366,72	1632,23
366,93	1681,38
367,14	1677,29
367,35	1796,07
367,56	1693,67
367,77	1720,29
367,98	1693,67
368,18	1753,06
368,39	1734,63
368,60	1624,04
368,81	1763,30
369,02	1808,36
369,23	1751,01
369,44	1626,09
369,65	1660,90
369,86	1769,44
370,07	1783,78
370,28	1605,61
370,49	1624,04
370,70	1740,77
370,91	1613,80
371,12	1679,33
371,33	1732,58
371,54	1634,28
371,75	1748,97
371,96	1544,17
372,17	1673,19
372,38	1701,86
372,59	1652,71
372,80	1736,68
373,01	1683,43
373,22	1759,21
373,43	1730,53
373,64	1599,46
373,85	1791,97
374,06	1779,68
374,26	1773,54
374,47	1714,15
374,68	1798,12
374,89	1708,01
375,10	1632,23
375,31	1810,40
375,52	1681,38
375,73	1677,29
375,94	1630,18
376,15	1779,68
376,36	1632,23
376,57	1644,52
376,78	1689,57
376,99	1718,25
377,20	1761,25
377,40	1677,29
377,61	1779,68
377,82	1634,28
378,03	1755,11
378,24	1691,62
378,45	1714,15
378,66	1701,86
378,87	1605,61
379,08	1566,70
379,29	1703,91
379,50	1796,07
379,71	1671,14
379,91	1837,03
380,12	1652,71
380,33	1687,53
380,54	1742,82
380,75	1703,91
380,96	1626,09
381,17	1796,07
381,38	1691,62
381,59	1705,96
381,80	1773,54
382,00	1820,64
382,21	1699,81
382,42	1834,98
382,63	1845,22
382,84	1746,92
383,05	1722,34
383,26	1773,54
383,47	1777,64
383,68	1759,21
383,88	1767,40
384,09	1722,34
384,30	1853,41
384,51	1708,01
384,72	1609,70
384,93	1578,98
385,14	1644,52
385,35	1767,40
385,55	1697,77
385,76	1789,92
385,97	1755,11
386,18	1669,09
386,39	1746,92
386,60	1722,34
386,81	1705,96
387,02	1583,08
387,22	1697,77
387,43	1755,11
387,64	1708,01
387,85	1855,46
388,06	2271,20
388,27	4321,21
388,48	6733,72
388,68	8198,02
388,89	9484,14
389,10	9531,25
389,31	8589,18
389,52	7526,29
389,73	6625,18
389,93	6088,61
390,14	5814,18
390,35	5214,13
390,56	4581,31
390,77	3876,80
390,98	3000,27
391,18	2531,29
391,39	2078,69
391,60	1812,45
391,81	1820,64
392,02	1714,15
392,23	1853,41
392,43	1708,01
392,64	1781,73
392,85	1632,23
393,06	1783,78
393,27	1740,77
393,47	1685,48
393,68	1765,35
393,89	1628,14
394,10	1769,44
394,31	1636,33
394,52	1630,18
394,72	1748,97
394,93	1781,73
395,14	1595,37
395,35	1699,81
395,56	1748,97
395,76	1710,05
395,97	1755,11
396,18	1791,97
396,39	1771,49
396,60	1984,48
396,80	1898,47
397,01	1804,26
397,22	1734,63
397,43	1771,49
397,64	1732,58
397,84	1765,35
398,05	1828,84
398,26	1751,01
398,47	1775,59
398,67	1808,36
398,88	1714,15
399,09	1781,73
399,30	1624,04
399,51	1777,64
399,71	1615,85
399,92	1806,31
400,13	1705,96
400,34	1701,86
400,54	1689,57
400,75	1828,84
400,96	1714,15
401,17	1818,60
401,37	1734,63
401,58	1667,05
401,79	1746,92
402,00	1820,64
402,21	2074,59
402,41	1966,05
402,62	1867,75
402,83	1988,58
403,04	1933,28
403,24	2021,35
403,45	1859,56
403,66	1920,99
403,87	1910,75
404,07	1882,08
404,28	1849,32
404,49	1785,83
404,70	1773,54
404,90	1882,08
405,11	1761,25
405,32	1767,40
405,52	1656,81
405,73	1699,81
405,94	1560,55
406,15	1718,25
406,35	1724,39
406,56	1710,05
406,77	1695,72
406,98	1763,30
407,18	1636,33
407,39	1798,12
407,60	1675,24
407,80	1751,01
408,01	1603,56
408,22	1710,05
408,43	1654,76
408,63	1812,45
408,84	1705,96
409,05	1744,87
409,25	1656,81
409,46	1667,05
409,67	1687,53
409,88	1697,77
410,08	1714,15
410,29	1730,53
410,50	1742,82
410,70	1722,34
410,91	1621,99
411,12	1689,57
411,32	1705,96
411,53	1697,77
411,74	1796,07
411,95	1826,79
412,15	1779,68
412,36	1781,73
412,57	1816,55
412,77	1837,03
412,98	1726,44
413,19	1660,90
413,39	1751,01
413,60	1755,11
413,81	1732,58
414,01	1673,19
414,22	1791,97
414,43	1757,16
414,63	1720,29
414,84	1701,86
415,05	1728,49
415,25	1646,57
415,46	1796,07
415,67	1683,43
415,87	1761,25
416,08	1640,42
416,29	1695,72
416,49	1730,53
416,70	1638,38
416,91	1689,57
417,11	1716,20
417,32	1771,49
417,53	1773,54
417,73	1748,97
417,94	1703,91
418,15	1708,01
418,35	1751,01
418,56	1718,25
418,77	1853,41
418,97	1691,62
419,18	1775,59
419,38	1597,42
419,59	1757,16
419,80	1773,54
420,00	1697,77
420,21	1736,68
420,42	1775,59
420,62	1738,73
420,83	1714,15
421,04	1722,34
421,24	1679,33
421,45	1785,83
421,65	1738,73
421,86	1703,91
422,07	1724,39
422,27	1732,58
422,48	1669,09
422,69	1679,33
422,89	1695,72
423,10	1656,81
423,30	1611,75
423,51	1697,77
423,72	1769,44
423,92	1648,61
424,13	1648,61
424,33	1679,33
424,54	1738,73
424,75	1744,87
424,95	1820,64
425,16	1660,90
425,36	1669,09
425,57	1681,38
425,78	1746,92
425,98	1748,97
426,19	1660,90
426,39	1634,28
426,60	1681,38
426,81	1798,12
427,01	1759,21
427,22	1660,90
427,42	1589,22
427,63	1626,09
427,83	1712,10
428,04	1789,92
428,25	1789,92
428,45	1689,57
428,66	1757,16
428,86	1640,42
429,07	1689,57
429,28	1689,57
429,48	1734,63
429,69	1599,46
429,89	1757,16
430,10	1609,70
430,30	1808,36
430,51	1761,25
430,71	1714,15
430,92	1722,34
431,13	1708,01
431,33	1718,25
431,54	1695,72
431,74	1738,73
431,95	1744,87
432,15	1712,10
432,36	1740,77
432,56	1648,61
432,77	1875,94
432,98	1812,45
433,18	1728,49
433,39	1724,39
433,59	1673,19
433,80	1783,78
434,00	1845,22
434,21	1685,48
434,41	1763,30
434,62	1863,65
434,82	1701,86
435,03	1714,15
435,23	1798,12
435,44	1595,37
435,64	1646,57
435,85	1710,05
436,06	1736,68
436,26	1718,25
436,47	1726,44
436,67	1720,29
436,88	1779,68
437,08	1816,55
437,29	1718,25
437,49	1728,49
437,70	1662,95
437,90	1652,71
438,11	1810,40
438,31	1828,84
438,52	1845,22
438,72	1871,84
438,93	1861,60
439,13	1812,45
439,34	1871,84
439,54	1673,19
439,75	1765,35
439,95	1773,54
440,16	1697,77
440,36	1767,40
440,57	1742,82
440,77	1755,11
440,98	1775,59
441,18	1808,36
441,39	1613,80
441,59	1665,00
441,80	1859,56
442,00	1716,20
442,21	1820,64
442,41	1669,09
442,62	1710,05
442,82	1695,72
443,02	1771,49
443,23	1689,57
443,43	1755,11
443,64	1800,16
443,84	1685,48
444,05	1740,77
444,25	1708,01
444,46	1726,44
444,66	1689,57
444,87	1824,74
445,07	1595,37
445,28	1720,29
445,48	1810,40
445,69	1742,82
445,89	1834,98
446,09	1783,78
446,30	2019,30
446,50	2652,12
446,71	3655,62
446,91	4231,10
447,12	4657,08
447,32	4704,18
447,53	4245,44
447,73	3860,42
447,93	3497,93
448,14	3280,85
448,34	3209,17
448,55	2951,12
448,75	2813,91
448,96	2525,15
449,16	2385,88
449,36	2404,32
449,57	2011,11
449,77	1875,94
449,98	1775,59
450,18	1781,73
450,39	1763,30
450,59	1744,87
450,79	1718,25
451,00	1724,39
451,20	1716,20
451,41	1722,34
451,61	1753,06
451,81	1767,40
452,02	1712,10
452,22	1671,14
452,43	1732,58
452,63	1718,25
452,84	1744,87
453,04	1691,62
453,24	1781,73
453,45	1644,52
453,65	1759,21
453,86	1730,53
454,06	1736,68
454,26	1738,73
454,47	1691,62
454,67	1789,92
454,87	1816,55
455,08	1685,48
455,28	1796,07
455,49	1853,41
455,69	1712,10
455,89	1855,46
456,10	1847,27
456,30	1656,81
456,51	1710,05
456,71	1759,21
456,91	1769,44
457,12	1746,92
457,32	1748,97
457,52	1630,18
457,73	1757,16
457,93	1787,88
458,14	1679,33
458,34	1648,61
458,54	1732,58
458,75	1728,49
458,95	1834,98
459,15	1755,11
459,36	1761,25
459,56	1804,26
459,76	1853,41
459,97	1734,63
460,17	1720,29
460,37	1775,59
460,58	1771,49
460,78	1759,21
460,99	1687,53
461,19	1773,54
461,39	1691,62
461,60	1677,29
461,80	1787,88
462,00	1697,77
462,21	1693,67
462,41	1675,24
462,61	1609,70
462,82	1658,85
463,02	1773,54
463,22	1687,53
463,43	1828,84
463,63	1724,39
463,83	1761,25
464,04	1675,24
464,24	1779,68
464,44	1642,47
464,64	1732,58
464,85	1857,51
465,05	1748,97
465,25	1695,72
465,46	1675,24
465,66	1787,88
465,86	1769,44
466,07	1837,03
466,27	1740,77
466,47	1705,96
466,68	1587,18
466,88	1775,59
467,08	1720,29
467,29	1830,88
467,49	1812,45
467,69	1732,58
467,89	1689,57
468,10	1673,19
468,30	1757,16
468,50	1822,69
468,71	1847,27
468,91	1603,56
469,11	1757,16
469,31	1738,73
469,52	1607,66
469,72	1824,74
469,92	1820,64
470,13	1773,54
470,33	1746,92
470,53	1910,75
470,73	2152,42
470,94	2322,40
471,14	2299,87
471,34	2508,76
471,54	2346,97
471,75	2242,53
471,95	2152,42
472,15	2039,78
472,36	1998,82
472,56	2127,84
472,76	2009,06
472,96	1978,34
473,17	1949,67
473,37	1859,56
473,57	1763,30
473,77	1802,21
473,98	1810,40
474,18	1689,57
474,38	1841,12
474,58	1699,81
474,79	1714,15
474,99	1802,21
475,19	1781,73
475,39	1691,62
475,60	1675,24
475,80	1691,62
476,00	1720,29
476,20	1687,53
476,41	1753,06
476,61	1841,12
476,81	1818,60
477,01	1665,00
477,21	1882,08
477,42	1755,11
477,62	1648,61
477,82	1757,16
478,02	1730,53
478,23	1679,33
478,43	1673,19
478,63	1667,05
478,83	1683,43
479,03	1791,97
479,24	1769,44
479,44	1871,84
479,64	1730,53
479,84	1593,32
480,04	1695,72
480,25	1798,12
480,45	1693,67
480,65	1728,49
480,85	1798,12
481,06	1658,85
481,26	1644,52
481,46	1662,95
481,66	1703,91
481,86	1603,56
482,06	1791,97
482,27	1781,73
482,47	1712,10
482,67	1722,34
482,87	1693,67
483,07	1775,59
483,28	1714,15
483,48	1673,19
483,68	1675,24
483,88	1621,99
484,08	1583,08
484,29	1562,60
484,49	1646,57
484,69	1675,24
484,89	1798,12
485,09	1777,64
485,29	1765,35
485,50	1755,11
485,70	1665,00
485,90	1755,11
486,10	1820,64
486,30	1787,88
486,50	1734,63
486,71	1724,39
486,91	1751,01
487,11	1812,45
487,31	1693,67
487,51	1701,86
487,71	1726,44
487,91	1677,29
488,12	1679,33
488,32	1626,09
488,52	1699,81
488,72	1595,37
488,92	1652,71
489,12	1814,50
489,32	1853,41
489,53	1732,58
489,73	1669,09
489,93	1759,21
490,13	1626,09
490,33	1669,09
490,53	1806,31
490,73	1740,77
490,94	1617,90
491,14	1804,26
491,34	1867,75
491,54	2072,54
491,74	2555,86
491,94	2865,11
492,14	3078,10
492,34	2947,03
492,54	2711,51
492,75	2494,43
492,95	2455,51
493,15	2240,48
493,35	2258,91
493,55	2238,43
493,75	2111,46
493,95	2140,13
494,15	2011,11
494,35	1894,37
494,56	1873,89
494,76	1769,44
494,96	1806,31
495,16	1775,59
495,36	1806,31
495,56	1759,21
495,76	1710,05
495,96	1665,00
496,16	1597,42
496,36	1806,31
496,56	1712,10
496,77	1689,57
496,97	1695,72
497,17	1863,65
497,37	1648,61
497,57	1726,44
497,77	1771,49
497,97	1644,52
498,17	1738,73
498,37	1660,90
498,57	1722,34
498,77	1785,83
498,97	1777,64
499,17	1855,46
499,38	1685,48
499,58	1765,35
499,78	1761,25
499,98	1787,88
500,18	1716,20
500,38	1722,34
500,58	1945,57
500,78	2615,26
500,98	4343,74
501,18	5844,90
501,38	6688,67
501,58	7112,60
501,78	6584,22
501,98	5470,12
502,18	4931,51
502,38	4396,99
502,58	4118,47
502,78	3805,13
502,98	3565,51
503,18	3350,48
503,38	3162,06
503,59	2869,20
503,79	2639,83
503,99	2471,90
504,19	2318,30
504,39	2172,89
504,59	2111,46
504,79	2097,12
504,99	1998,82
505,19	1976,29
505,39	1939,43
505,59	1931,23
505,79	1832,93
505,99	1869,80
506,19	1769,44
506,39	1820,64
506,59	1791,97
506,79	1714,15
506,99	1705,96
507,19	1757,16
507,39	1765,35
507,59	1722,34
507,79	1685,48
507,99	1763,30
508,19	1753,06
508,39	1658,85
508,59	1730,53
508,79	1863,65
508,99	1820,64
509,19	1687,53
509,39	1791,97
509,59	1712,10
509,79	1654,76
509,99	1673,19
510,19	1853,41
510,39	1802,21
510,59	1773,54
510,79	1708,01
510,99	1650,66
511,19	1716,20
511,39	1824,74
511,59	1841,12
511,79	1751,01
511,99	1732,58
512,19	1834,98
512,38	1742,82
512,58	1779,68
512,78	1677,29
512,98	1746,92
513,18	1724,39
513,38	1621,99
513,58	1804,26
513,78	1697,77
513,98	1695,72
514,18	1630,18
514,38	1658,85
514,58	1720,29
514,78	1681,38
514,98	1675,24
515,18	1714,15
515,38	1665,00
515,58	1832,93
515,78	1681,38
515,98	1730,53
516,18	1753,06
516,38	1738,73
516,57	1628,14
516,77	1689,57
516,97	1658,85
517,17	1609,70
517,37	1607,66
517,57	1828,84
517,77	1675,24
517,97	1716,20
518,17	1763,30
518,37	1681,38
518,57	1691,62
518,77	1710,05
518,97	1755,11
519,16	1789,92
519,36	1734,63
519,56	1710,05
519,76	1599,46
519,96	1744,87
520,16	1841,12
520,36	1765,35
520,56	1757,16
520,76	1681,38
520,96	1634,28
521,16	1744,87
521,35	1783,78
521,55	1849,32
521,75	1751,01
521,95	1624,04
522,15	1701,86
522,35	1613,80
522,55	1736,68
522,75	1765,35
522,95	1691,62
523,14	1691,62
523,34	1781,73
523,54	1763,30
523,74	1744,87
523,94	1730,53
524,14	1628,14
524,34	1742,82
524,54	1787,88
524,73	1781,73
524,93	1683,43
525,13	1814,50
525,33	1652,71
525,53	1863,65
525,73	1746,92
525,93	1667,05
526,13	1662,95
526,32	1773,54
526,52	1714,15
526,72	1777,64
526,92	1802,21
527,12	1759,21
527,32	1628,14
527,52	1767,40
527,71	1677,29
527,91	1632,23
528,11	1662,95
528,31	1681,38
528,51	1658,85
528,71	1798,12
528,90	1755,11
529,10	1761,25
529,30	1775,59
529,50	1656,81
529,70	1802,21
529,90	1681,38
530,09	1697,77
530,29	1673,19
530,49	1671,14
530,69	1830,88
530,89	1705,96
531,09	1808,36
531,28	1724,39
531,48	1888,23
531,68	1744,87
531,88	1761,25
532,08	1722,34
532,28	1699,81
532,47	1708,01
532,67	1814,50
532,87	1796,07
533,07	1671,14
533,27	1822,69
533,46	1820,64
533,66	1705,96
533,86	1722,34
534,06	1660,90
534,26	1732,58
534,45	1693,67
534,65	1789,92
534,85	1728,49
535,05	1693,67
535,25	1755,11
535,44	1583,08
535,64	1746,92
535,84	1648,61
536,04	1722,34
536,24	1599,46
536,43	1683,43
536,63	1681,38
536,83	1734,63
537,03	1699,81
537,22	1656,81
537,42	1595,37
537,62	1628,14
537,82	1624,04
538,02	1726,44
538,21	1767,40
538,41	1890,28
538,61	1755,11
538,81	1744,87
539,00	1798,12
539,20	1597,42
539,40	1687,53
539,60	1783,78
539,79	1787,88
539,99	1695,72
540,19	1773,54
540,39	1689,57
540,58	1781,73
540,78	1853,41
540,98	1753,06
541,18	1777,64
541,37	1816,55
541,57	1697,77
541,77	1808,36
541,97	1667,05
542,16	1634,28
542,36	1681,38
542,56	1728,49
542,76	1826,79
542,95	1755,11
543,15	1710,05
543,35	1681,38
543,54	1710,05
543,74	1763,30
543,94	1814,50
544,14	1728,49
544,33	1810,40
544,53	1671,14
544,73	1708,01
544,93	1732,58
545,12	1712,10
545,32	1703,91
545,52	1722,34
545,71	1599,46
545,91	1714,15
546,11	1722,34
546,30	1638,38
546,50	1781,73
546,70	1738,73
546,90	1763,30
547,09	1681,38
547,29	1728,49
547,49	1683,43
547,68	1755,11
547,88	1669,09
548,08	1693,67
548,27	2131,94
548,47	1718,25
548,67	1699,81
548,87	1775,59
549,06	1744,87
549,26	1757,16
549,46	1779,68
549,65	1730,53
549,85	1761,25
550,05	1701,86
550,24	1681,38
550,44	1771,49
550,64	1685,48
550,83	1736,68
551,03	1810,40
551,23	1812,45
551,42	1708,01
551,62	1732,58
551,82	1800,16
552,01	1787,88
552,21	1787,88
552,41	1673,19
552,60	1832,93
552,80	1761,25
553,00	1687,53
553,19	1722,34
553,39	1834,98
553,59	1689,57
553,78	1816,55
553,98	1724,39
554,17	1656,81
554,37	1765,35
554,57	1767,40
554,76	1728,49
554,96	1699,81
555,16	1765,35
555,35	1791,97
555,55	1705,96
555,75	1718,25
555,94	1849,32
556,14	1591,27
556,33	1693,67
556,53	1710,05
556,73	1771,49
556,92	1775,59
557,12	1775,59
557,32	1824,74
557,51	1822,69
557,71	1738,73
557,90	1822,69
558,10	1869,80
558,30	1804,26
558,49	1742,82
558,69	1736,68
558,88	1820,64
559,08	1781,73
559,28	1677,29
559,47	1804,26
559,67	1767,40
559,86	1839,08
560,06	1771,49
560,26	1675,24
560,45	1791,97
560,65	1757,16
560,84	1839,08
561,04	1720,29
561,24	1773,54
561,43	1660,90
561,63	1884,13
561,82	1685,48
562,02	1755,11
562,22	1638,38
562,41	1714,15
562,61	1740,77
562,80	1642,47
563,00	1896,42
563,19	1710,05
563,39	1777,64
563,59	1791,97
563,78	1710,05
563,98	1605,61
564,17	1781,73
564,37	1683,43
564,56	1736,68
564,76	1658,85
564,96	1763,30
565,15	1828,84
565,35	1771,49
565,54	1630,18
565,74	1779,68
565,93	1806,31
566,13	1783,78
566,32	1785,83
566,52	1791,97
566,71	1736,68
566,91	1744,87
567,11	1626,09
567,30	1681,38
567,50	1734,63
567,69	1804,26
567,89	1730,53
568,08	1728,49
568,28	1794,02
568,47	1617,90
568,67	1775,59
568,86	1755,11
569,06	1804,26
569,25	1724,39
569,45	1640,42
569,64	1738,73
569,84	1722,34
570,04	1748,97
570,23	1740,77
570,43	1681,38
570,62	1724,39
570,82	1812,45
571,01	1726,44
571,21	1708,01
571,40	1687,53
571,60	1794,02
571,79	1775,59
571,99	1738,73
572,18	1646,57
572,38	1718,25
572,57	1730,53
572,77	1734,63
572,96	1873,89
573,16	1732,58
573,35	1724,39
573,55	1818,60
573,74	1712,10
573,94	1732,58
574,13	1775,59
574,33	1765,35
574,52	1716,20
574,71	1691,62
574,91	1753,06
575,10	1740,77
575,30	1751,01
575,49	1685,48
575,69	1724,39
575,88	1722,34
576,08	1669,09
576,27	1718,25
576,47	1751,01
576,66	1865,70
576,86	1757,16
577,05	1714,15
577,25	1767,40
577,44	1877,99
577,64	1697,77
577,83	1781,73
578,02	1810,40
578,22	1894,37
578,41	1757,16
578,61	1757,16
578,80	1675,24
579,00	1689,57
579,19	1689,57
579,39	1804,26
579,58	1697,77
579,77	1751,01
579,97	1810,40
580,16	1798,12
580,36	1834,98
580,55	1845,22
580,75	1775,59
580,94	1736,68
581,13	1837,03
581,33	1804,26
581,52	1740,77
581,72	1857,51
581,91	1789,92
582,11	1779,68
582,30	1763,30
582,49	1785,83
582,69	1832,93
582,88	1824,74
583,08	1720,29
583,27	1871,84
583,47	1798,12
583,66	1636,33
583,85	1744,87
584,05	1726,44
584,24	1763,30
584,44	1800,16
584,63	1851,36
584,82	1828,84
585,02	1726,44
585,21	1751,01
585,41	1818,60
585,60	1824,74
585,79	1851,36
585,99	1953,76
586,18	1841,12
586,37	2156,51
586,57	3360,72
586,76	9783,15
586,96	24315,53
587,15	34375,16
587,34	40371,61
587,54	41559,43
587,73	36441,56
587,93	26396,27
588,12	21706,42
588,31	18376,42
588,51	16103,18
588,70	15071,00
588,89	14073,64
589,09	12265,28
589,28	10868,57
589,47	9293,68
589,67	7966,60
589,86	6397,85
590,06	4978,61
590,25	3975,11
590,44	3164,11
590,64	2570,20
590,83	2220,00
591,02	2019,30
591,22	1896,42
591,41	1888,23
591,60	1812,45
591,80	1906,66
591,99	1724,39
592,18	1763,30
592,38	1779,68
592,57	1726,44
592,76	1755,11
592,96	1779,68
593,15	1746,92
593,34	1796,07
593,54	1765,35
593,73	1759,21
593,92	1794,02
594,12	1712,10
594,31	1687,53
594,50	1824,74
594,70	1744,87
594,89	1855,46
595,08	1714,15
595,28	1738,73
595,47	1845,22
595,66	1781,73
595,86	1734,63
596,05	1681,38
596,24	1691,62
596,43	1775,59
596,63	1884,13
596,82	1712,10
597,01	1769,44
597,21	1837,03
597,40	1781,73
597,59	1662,95
597,79	1724,39
597,98	1822,69
598,17	1748,97
598,36	1742,82
598,56	1748,97
598,75	1724,39
598,94	1665,00
599,14	1710,05
599,33	1710,05
599,52	1773,54
599,71	1734,63
599,91	1785,83
600,10	1804,26
600,29	1806,31
600,48	1810,40
600,68	1824,74
600,87	1761,25
601,06	1712,10
601,26	1701,86
601,45	1753,06
601,64	1710,05
601,83	1787,88
602,03	1712,10
602,22	1660,90
602,41	1767,40
602,60	1820,64
602,80	1814,50
602,99	1787,88
603,18	1693,67
603,37	1763,30
603,57	1746,92
603,76	1800,16
603,95	1744,87
604,14	1763,30
604,34	1681,38
604,53	1748,97
604,72	1753,06
604,91	1798,12
605,10	1794,02
605,30	1691,62
605,49	1806,31
605,68	1796,07
605,87	1724,39
606,07	1673,19
606,26	1687,53
606,45	1783,78
606,64	1652,71
606,84	1693,67
607,03	1740,77
607,22	1757,16
607,41	1724,39
607,60	1587,18
607,80	1705,96
607,99	1617,90
608,18	1722,34
608,37	1738,73
608,56	1679,33
608,76	1814,50
608,95	1853,41
609,14	1732,58
609,33	1820,64
609,52	1763,30
609,72	1802,21
609,91	1812,45
610,10	1636,33
610,29	1873,89
610,48	1751,01
610,68	1796,07
610,87	1675,24
611,06	1689,57
611,25	1765,35
611,44	1818,60
611,63	1753,06
611,83	1808,36
612,02	1669,09
612,21	1742,82
612,40	1595,37
612,59	1632,23
612,79	1675,24
612,98	1738,73
613,17	1841,12
613,36	1724,39
613,55	1843,17
613,74	1626,09
613,93	1734,63
614,13	1632,23
614,32	1734,63
614,51	1769,44
614,70	1796,07
614,89	1681,38
615,08	1765,35
615,28	2095,07
615,47	1597,42
615,66	1673,19
615,85	1646,57
616,04	1783,78
616,23	1714,15
616,42	1683,43
616,62	1742,82
616,81	1695,72
617,00	1771,49
617,19	1796,07
617,38	1652,71
617,57	1740,77
617,76	1769,44
617,95	1755,11
618,15	1734,63
618,34	1724,39
618,53	1769,44
618,72	1894,37
618,91	1777,64
619,10	1834,98
619,29	1695,72
619,48	1779,68
619,68	1669,09
619,87	1691,62
620,06	1685,48
620,25	1697,77
620,44	1714,15
620,63	1730,53
620,82	1767,40
621,01	1675,24
621,20	1697,77
621,39	1722,34
621,59	1763,30
621,78	1742,82
621,97	1738,73
622,16	1730,53
622,35	1730,53
622,54	1695,72
622,73	1693,67
622,92	1593,32
623,11	1773,54
623,30	1740,77
623,49	1796,07
623,68	1669,09
623,88	1808,36
624,07	1697,77
624,26	1665,00
624,45	1699,81
624,64	1699,81
624,83	1746,92
625,02	1615,85
625,21	1658,85
625,40	1738,73
625,59	1796,07
625,78	1742,82
625,97	1787,88
626,16	1740,77
626,35	1771,49
626,54	1574,89
626,74	1740,77
626,93	1705,96
627,12	1685,48
627,31	1751,01
627,50	1763,30
627,69	1837,03
627,88	1677,29
628,07	1722,34
628,26	1683,43
628,45	1701,86
628,64	1615,85
628,83	1654,76
629,02	1617,90
629,21	1785,83
629,40	1736,68
629,59	1660,90
629,78	1740,77
629,97	1712,10
630,16	1724,39
630,35	1703,91
630,54	1665,00
630,73	1640,42
630,92	1742,82
631,11	1656,81
631,30	1748,97
631,49	1728,49
631,68	1767,40
631,87	1726,44
632,06	1628,14
632,25	1851,36
632,44	1759,21
632,63	1701,86
632,82	1708,01
633,01	1665,00
633,20	1783,78
633,39	1656,81
633,58	1550,31
633,77	1730,53
633,96	1755,11
634,15	1714,15
634,34	1701,86
634,53	1759,21
634,72	1628,14
634,91	1624,04
635,10	1732,58
635,29	1703,91
635,48	1630,18
635,67	1636,33
635,86	1632,23
636,05	1781,73
636,24	1638,38
636,43	1699,81
636,62	1781,73
636,81	1589,22
637,00	1687,53
637,19	1775,59
637,38	1654,76
637,57	1675,24
637,76	1648,61
637,95	1775,59
638,14	1691,62
638,33	1671,14
638,52	1658,85
638,71	1599,46
638,89	1554,41
639,08	1843,17
639,27	1753,06
639,46	1624,04
639,65	1763,30
639,84	1716,20
640,03	1691,62
640,22	1714,15
640,41	1802,21
640,60	1634,28
640,79	1761,25
640,98	1708,01
641,17	1787,88
641,36	1730,53
641,55	1783,78
641,74	1667,05
641,92	1632,23
642,11	1638,38
642,30	1732,58
642,49	1705,96
642,68	1640,42
642,87	1703,91
643,06	1675,24
643,25	1660,90
643,44	1701,86
643,63	1660,90
643,82	1722,34
644,00	1652,71
644,19	1705,96
644,38	1617,90
644,57	1726,44
644,76	1773,54
644,95	1689,57
645,14	1708,01
645,33	1714,15
645,52	1722,34
645,71	1705,96
645,89	1644,52
646,08	1730,53
646,27	1644,52
646,46	1734,63
646,65	1593,32
646,84	1726,44
647,03	1689,57
647,22	1757,16
647,40	1708,01
647,59	1685,48
647,78	1675,24
647,97	1638,38
648,16	1644,52
648,35	1837,03
648,54	1810,40
648,73	1701,86
648,91	1785,83
649,10	1763,30
649,29	1644,52
649,48	1677,29
649,67	1726,44
649,86	1660,90
650,05	1636,33
650,23	1708,01
650,42	1693,67
650,61	1767,40
650,80	1726,44
650,99	1841,12
651,18	1734,63
651,36	1701,86
651,55	1724,39
651,74	1779,68
651,93	1703,91
652,12	1726,44
652,31	1740,77
652,49	1679,33
652,68	1656,81
652,87	1814,50
653,06	1771,49
653,25	1800,16
653,44	1751,01
653,62	1818,60
653,81	1708,01
654,00	1697,77
654,19	1710,05
654,38	1882,08
654,56	1699,81
654,75	1691,62
654,94	1693,67
655,13	1759,21
655,32	1654,76
655,51	1744,87
655,69	1617,90
655,88	1794,02
656,07	1658,85
656,26	1746,92
656,45	1615,85
656,63	1712,10
656,82	1716,20
657,01	1777,64
657,20	1611,75
657,38	1769,44
657,57	1665,00
657,76	1648,61
657,95	1697,77
658,14	1667,05
658,32	1748,97
658,51	1728,49
658,70	1718,25
658,89	1640,42
659,08	1710,05
659,26	1849,32
659,45	1673,19
659,64	1720,29
659,83	1648,61
660,01	1882,08
660,20	1685,48
660,39	1789,92
660,58	1658,85
660,76	1685,48
660,95	1607,66
661,14	1732,58
661,33	1546,22
661,51	1632,23
661,70	1630,18
661,89	1753,06
662,08	1677,29
662,26	1718,25
662,45	1701,86
662,64	1806,31
662,83	1804,26
663,01	1632,23
663,20	1773,54
663,39	1781,73
663,58	1705,96
663,76	1685,48
663,95	1746,92
664,14	1685,48
664,32	1716,20
664,51	1728,49
664,70	1640,42
664,89	1722,34
665,07	1677,29
665,26	1736,68
665,45	1624,04
665,64	1646,57
665,82	1689,57
666,01	1714,15
666,20	1695,72
666,38	1765,35
666,57	1843,17
666,76	2246,62
666,95	4450,24
667,13	10071,91
667,32	15034,14
667,51	17487,61
667,69	18872,03
667,88	17778,42
668,07	12369,73
668,25	9602,93
668,44	7950,21
668,63	7217,04
668,81	6795,16
669,00	6301,60
669,19	5695,40
669,38	5144,50
669,56	4480,96
669,75	4018,11
669,94	3346,38
670,12	2918,36
670,31	2521,05
670,50	2230,24
670,68	2039,78
670,87	1857,51
671,06	1818,60
671,24	1847,27
671,43	1843,17
671,62	1763,30
671,80	1740,77
671,99	1703,91
672,18	1763,30
672,36	1822,69
672,55	1656,81
672,74	1722,34
672,92	1755,11
673,11	1779,68
673,29	1607,66
673,48	1751,01
673,67	1738,73
673,85	1757,16
674,04	1656,81
674,23	1691,62
674,41	1744,87
674,60	1677,29
674,79	1613,80
674,97	1642,47
675,16	1837,03
675,34	1751,01
675,53	1710,05
675,72	1738,73
675,90	1890,28
676,09	1652,71
676,28	1683,43
676,46	1564,65
676,65	1755,11
676,83	1648,61
677,02	1746,92
677,21	1746,92
677,39	1681,38
677,58	1638,38
677,77	1650,66
677,95	1673,19
678,14	1693,67
678,32	1765,35
678,51	1689,57
678,70	1794,02
678,88	1624,04
679,07	1767,40
679,25	1658,85
679,44	1595,37
679,63	1667,05
679,81	1755,11
680,00	1716,20
680,18	1763,30
680,37	1753,06
680,55	1681,38
680,74	1646,57
680,93	1576,94
681,11	1687,53
681,30	1708,01
681,48	1746,92
681,67	1722,34
681,85	1619,94
682,04	1642,47
682,23	1753,06
682,41	1683,43
682,60	1628,14
682,78	1624,04
682,97	1667,05
683,15	1624,04
683,34	1761,25
683,53	1761,25
683,71	1656,81
683,90	1726,44
684,08	1800,16
684,27	1732,58
684,45	1753,06
684,64	1724,39
684,82	1675,24
685,01	1675,24
685,19	1685,48
685,38	1796,07
685,57	1732,58
685,75	1630,18
685,94	1751,01
686,12	1542,12
686,31	1697,77
686,49	1771,49
686,68	1644,52
686,86	1748,97
687,05	1615,85
687,23	1751,01
687,42	1650,66
687,60	1662,95
687,79	1732,58
687,97	1779,68
688,16	1761,25
688,34	1763,30
688,53	1568,74
688,71	1724,39
688,90	1769,44
689,08	1720,29
689,27	1669,09
689,45	1751,01
689,64	1724,39
689,82	1673,19
690,01	1724,39
690,19	1689,57
690,38	1703,91
690,56	1763,30
690,75	1679,33
690,93	1759,21
691,12	1679,33
691,30	1722,34
691,49	1740,77
691,67	1685,48
691,86	1855,46
692,04	1708,01
692,23	1695,72
692,41	1738,73
692,60	1828,84
692,78	1748,97
692,97	1654,76
693,15	1808,36
693,34	1761,25
693,52	1714,15
693,71	1613,80
693,89	1656,81
694,08	1658,85
694,26	1748,97
694,44	1720,29
694,63	1685,48
694,81	1716,20
695,00	1644,52
695,18	1787,88
695,37	1798,12
695,55	1742,82
695,74	1718,25
695,92	1646,57
696,10	1763,30
696,29	1669,09
696,47	1722,34
696,66	1599,46
696,84	1650,66
697,03	1712,10
697,21	1857,51
697,40	2258,91
697,58	1804,26
697,76	1695,72
697,95	1662,95
698,13	1667,05
698,32	1656,81
698,50	1701,86
698,68	1732,58
698,87	1718,25
699,05	1798,12
699,24	1691,62
699,42	1736,68
699,61	1689,57
699,79	1742,82
699,97	1765,35
700,16	1648,61
700,34	1693,67
700,53	1787,88
700,71	1875,94
700,89	1742,82
701,08	1746,92
701,26	1648,61
701,45	2105,31
701,63	1644,52
701,81	1691,62
702,00	1679,33
702,18	1724,39
702,37	1695,72
702,55	1767,40
702,73	1693,67
702,92	1621,99
703,10	1689,57
703,28	1677,29
703,47	1685,48
703,65	1662,95
703,84	1791,97
704,02	1656,81
704,20	1796,07
704,39	1638,38
704,57	1667,05
704,75	1751,01
704,94	1775,59
705,12	1724,39
705,30	1830,88
705,49	2295,77
705,67	4442,04
705,86	9240,44
706,04	12513,09
706,22	14421,80
706,41	15300,37
706,59	13870,89
706,77	9621,36
706,96	7374,74
707,14	6596,51
707,32	5980,07
707,51	5574,57
707,69	4990,90
707,87	4231,10
708,06	3600,33
708,24	2877,40
708,42	2392,03
708,61	2291,68
708,79	1896,42
708,97	1867,75
709,16	1855,46
709,34	1929,19
709,52	1744,87
709,71	1710,05
709,89	1726,44
710,07	1669,09
710,26	1699,81
710,44	1746,92
710,62	1687,53
710,80	1691,62
710,99	1744,87
711,17	1800,16
711,35	1722,34
711,54	1658,85
711,72	1851,36
711,90	1683,43
712,09	1777,64
712,27	1667,05
712,45	1800,16
712,63	1677,29
712,82	1644,52
713,00	1665,00
713,18	1744,87
713,37	1853,41
713,55	1748,97
713,73	1648,61
713,91	1677,29
714,10	1640,42
714,28	1683,43
714,46	1644,52
714,65	1712,10
714,83	1671,14
715,01	1769,44
715,19	1673,19
715,38	1679,33
715,56	1693,67
715,74	1736,68
715,92	1583,08
716,11	1714,15
716,29	1609,70
716,47	1742,82
716,65	1746,92
716,84	1576,94
717,02	1781,73
717,20	1646,57
717,38	1632,23
717,57	1820,64
717,75	1710,05
717,93	1665,00
718,11	1681,38
718,30	1597,42
718,48	1755,11
718,66	1720,29
718,84	1753,06
719,03	1755,11
719,21	1662,95
719,39	1740,77
719,57	1804,26
719,75	1697,77
719,94	1644,52
720,12	1642,47
720,30	1730,53
720,48	1769,44
720,67	1693,67
720,85	1624,04
721,03	1621,99
721,21	1714,15
721,39	1724,39
721,58	1746,92
721,76	1714,15
721,94	1708,01
722,12	1751,01
722,30	1787,88
722,49	1693,67
722,67	1705,96
722,85	1697,77
723,03	1621,99
723,21	1708,01
723,40	1691,62
723,58	1781,73
723,76	1710,05
723,94	1808,36
724,12	1628,14
724,30	1806,31
724,49	1744,87
724,67	1644,52
724,85	1796,07
725,03	1660,90
725,21	1740,77
725,40	1748,97
725,58	1607,66
725,76	1744,87
725,94	1757,16
726,12	1621,99
726,30	1683,43
726,49	1658,85
726,67	1718,25
726,85	1683,43
727,03	1791,97
727,21	2076,64
727,39	2815,96
727,57	3717,06
727,76	3999,68
727,94	4429,76
728,12	4442,04
728,30	3696,58
728,48	2942,93
728,66	2748,37
728,84	2471,90
729,03	2320,35
729,21	2179,04
729,39	1990,63
729,57	1859,56
729,75	1804,26
729,93	1863,65
730,11	1726,44
730,30	1656,81
730,48	1695,72
730,66	1787,88
730,84	1669,09
731,02	1675,24
731,20	1720,29
731,38	1636,33
731,56	1703,91
731,74	1654,76
731,93	1759,21
732,11	1705,96
732,29	1656,81
732,47	1705,96
732,65	1771,49
732,83	1808,36
733,01	1691,62
733,19	1652,71
733,37	1701,86
733,56	1669,09
733,74	1703,91
733,92	1734,63
734,10	1642,47
734,28	1703,91
734,46	1671,14
734,64	1673,19
734,82	1624,04
735,00	1642,47
735,18	1683,43
735,36	1703,91
735,54	1693,67
735,73	1689,57
735,91	1732,58
736,09	1773,54
736,27	1708,01
736,45	1687,53
736,63	1589,22
736,81	1708,01
736,99	1703,91
737,17	1828,84
737,35	1642,47
737,53	1718,25
737,71	1685,48
737,89	1738,73
738,07	1648,61
738,25	1662,95
738,43	1634,28
738,61	1701,86
738,80	1644,52
738,98	1591,27
739,16	1683,43
739,34	1665,00
739,52	1726,44
739,70	1644,52
739,88	1697,77
740,06	1765,35
740,24	1665,00
740,42	1644,52
740,60	1640,42
740,78	1654,76
740,96	1515,50
741,14	1656,81
741,32	1675,24
741,50	1689,57
741,68	1820,64
741,86	1734,63
742,04	1599,46
742,22	1615,85
742,40	1691,62
742,58	1695,72
742,76	1691,62
742,94	1710,05
743,12	1572,84
743,30	1667,05
743,48	1691,62
743,66	1687,53
743,84	1759,21
744,02	1632,23
744,20	1796,07
744,38	1714,15
744,56	1607,66
744,74	1765,35
744,92	1699,81
745,10	1767,40
745,28	1738,73
745,46	1851,36
745,64	1675,24
745,82	1812,45
746,00	1718,25
746,18	1689,57
746,36	1562,60
746,54	1722,34
746,72	1714,15
746,90	1689,57
747,08	1759,21
747,26	1621,99
747,44	1681,38
747,62	1722,34
747,80	1755,11
747,98	1781,73
748,15	1695,72
748,33	1794,02
748,51	1673,19
748,69	1677,29
748,87	1611,75
749,05	1701,86
749,23	1669,09
749,41	1757,16
749,59	1650,66
749,77	1810,40
749,95	1669,09
750,13	1654,76
750,31	1736,68
750,49	1669,09
750,67	1740,77
750,85	1800,16
751,03	1804,26
751,20	1802,21
751,38	1716,20
751,56	1730,53
751,74	1742,82
751,92	1703,91
752,10	1742,82
752,28	1789,92
752,46	1724,39
752,64	1701,86
752,82	1722,34
753,00	1777,64
753,18	1708,01
753,35	1720,29
753,53	1755,11
753,71	1656,81
753,89	1757,16
754,07	1703,91
754,25	1748,97
754,43	1648,61
754,61	1660,90
754,79	1767,40
754,97	1607,66
755,14	1683,43
755,32	1578,98
755,50	1714,15
755,68	1740,77
755,86	1601,51
756,04	1628,14
756,22	1531,88
756,40	1730,53
756,57	1867,75
756,75	1714,15
756,93	1626,09
757,11	1773,54
757,29	1656,81
757,47	1603,56
757,65	1593,32
757,82	1587,18
758,00	1570,79
758,18	1572,84
758,36	1619,94
758,54	1763,30
758,72	1595,37
758,90	1740,77
759,07	1710,05
759,25	1673,19
759,43	1740,77
759,61	1615,85
759,79	2197,47
759,97	1744,87
760,15	1675,24
760,32	1667,05
760,50	1648,61
760,68	1744,87
760,86	1595,37
761,04	1710,05
761,22	1667,05
761,39	1660,90
761,57	1738,73
761,75	1714,15
761,93	1683,43
762,11	1701,86
762,28	1775,59
762,46	1667,05
762,64	1601,51
762,82	1708,01
763,00	1708,01
763,18	1746,92
763,35	1603,56
763,53	1791,97
763,71	1730,53
763,89	1728,49
764,07	1734,63
764,24	1665,00
764,42	1738,73
764,60	1685,48
764,78	1732,58
764,96	1787,88
765,13	1708,01
765,31	1650,66
765,49	1708,01
765,67	1595,37
765,84	1673,19
766,02	1679,33
766,20	1568,74
766,38	1685,48
766,56	1724,39
766,73	1812,45
766,91	1724,39
767,09	1765,35
767,27	1693,67
767,44	1560,55
767,62	1675,24
767,80	1738,73
767,98	1689,57
768,15	1640,42
768,33	1753,06
768,51	1708,01
768,69	1695,72
768,87	1771,49
769,04	1701,86
769,22	1830,88
769,40	1751,01
769,58	1851,36
769,75	1730,53
769,93	1812,45
770,11	1732,58
770,28	1656,81
770,46	1734,63
770,64	1742,82
770,82	1642,47
770,99	1665,00
771,17	1722,34
771,35	1660,90
771,53	1669,09
771,70	1673,19
771,88	1699,81
772,06	1650,66
772,23	1712,10
772,41	1677,29
772,59	1640,42
772,77	1599,46
772,94	1755,11
773,12	1699,81
773,30	1628,14
773,47	1667,05
773,65	1619,94
773,83	1722,34
774,01	1718,25
774,18	1611,75
774,36	1703,91
774,54	1675,24
774,71	1673,19
774,89	1679,33
775,07	1685,48
775,24	1621,99
775,42	1667,05
775,60	1798,12
775,78	1619,94
775,95	1607,66
776,13	1644,52
776,31	1658,85
776,48	1701,86
776,66	1839,08
776,84	1669,09
777,01	1634,28
777,19	1679,33
777,37	1630,18
777,54	1708,01
777,72	1757,16
777,90	1751,01
778,07	1734,63
778,25	1845,22
778,43	1822,69
778,60	1650,66
778,78	1656,81
778,96	1738,73
779,13	1646,57
779,31	1712,10
779,49	1640,42
779,66	1708,01
779,84	1673,19
780,01	1679,33
780,19	1626,09
780,37	1726,44
780,54	1658,85
780,72	1716,20
780,90	1632,23
781,07	1621,99
781,25	1617,90
781,43	1767,40
781,60	1712,10
781,78	1748,97
781,95	1681,38
782,13	1685,48
782,31	1673,19
782,48	1570,79
782,66	1695,72
782,83	1804,26
783,01	1669,09
783,19	1634,28
783,36	1722,34
783,54	1658,85
783,72	1708,01
783,89	1632,23
784,07	1591,27
784,24	1687,53
784,42	1849,32
784,60	1722,34
784,77	1794,02
784,95	1589,22
785,12	1632,23
785,30	1683,43
785,47	1701,86
785,65	1736,68
785,83	1652,71
786,00	1632,23
786,18	1665,00
786,35	1613,80
786,53	1722,34
786,71	1796,07
786,88	1734,63
787,06	1732,58
787,23	1630,18
787,41	1642,47
787,58	1689,57
787,76	1654,76
787,94	1804,26
788,11	1650,66
788,29	1617,90
788,46	1755,11
788,64	1705,96
788,81	1605,61
788,99	1685,48
789,16	1654,76
789,34	1701,86
789,52	1624,04
789,69	1634,28
789,87	1607,66
790,04	1705,96
790,22	1738,73
790,39	1767,40
790,57	1529,83
790,74	1665,00
790,92	1726,44
791,09	1708,01
791,27	1722,34
791,44	1767,40
791,62	1705,96
791,79	1798,12
791,97	1742,82
792,15	1804,26
792,32	1654,76
792,50	1771,49
792,67	1728,49
792,85	1796,07
793,02	1677,29
793,20	1726,44
793,37	1609,70
793,55	1716,20
793,72	1621,99
793,90	1742,82
794,07	1640,42
794,25	1701,86
794,42	1691,62
794,60	1718,25
794,77	1753,06
794,95	1826,79
795,12	1771,49
795,30	1701,86
795,47	1566,70
795,65	1841,12
795,82	1718,25
796,00	1687,53
796,17	1646,57
796,34	1589,22
796,52	1718,25
796,69	1796,07
796,87	1740,77
797,04	1640,42
797,22	1673,19
797,39	1712,10
797,57	1730,53
797,74	1773,54
797,92	1724,39
798,09	1669,09
798,27	1744,87
798,44	1742,82
798,62	1615,85
798,79	1671,14
798,96	1624,04
799,14	1660,90
799,31	1816,55
799,49	1718,25
799,66	1689,57
799,84	1681,38
800,01	1603,56
800,19	1720,29
800,36	1552,36
800,53	1718,25
800,71	1636,33
800,88	1798,12
801,06	1689,57
801,23	1652,71
801,41	1652,71
801,58	1624,04
801,75	1697,77
801,93	1675,24
802,10	1789,92
802,28	1705,96
802,45	1695,72
802,63	1734,63
802,80	1824,74
802,97	1673,19
803,15	1677,29
803,32	1748,97
803,50	1693,67
803,67	1626,09
803,84	1677,29
804,02	1665,00
804,19	1665,00
804,37	1554,41
804,54	1648,61
804,71	1734,63
804,89	1660,90
805,06	1710,05
805,24	1673,19
805,41	1607,66
805,58	1636,33
805,76	1845,22
805,93	1685,48
806,10	1802,21
806,28	1693,67
806,45	1697,77
806,63	1763,30
806,80	1656,81
806,97	1738,73
807,15	1669,09
807,32	1671,14
807,49	1716,20
807,67	1699,81
807,84	1730,53
808,01	1564,65
808,19	1865,70
808,36	1873,89
808,54	1724,39
808,71	1642,47
808,88	1683,43
809,06	1708,01
809,23	1744,87
809,40	1581,03
809,58	1740,77
809,75	1738,73
809,92	1628,14
810,10	1845,22
810,27	1673,19
810,44	1722,34
810,62	1697,77
810,79	1761,25
810,96	1681,38
811,14	1695,72
811,31	1744,87
811,48	1738,73
811,66	1673,19
811,83	1759,21
812,00	1681,38
812,18	1656,81
812,35	1837,03
812,52	1667,05
812,69	1650,66
812,87	1751,01
813,04	1636,33
813,21	1634,28
813,39	1619,94
813,56	1687,53
813,73	1712,10
813,91	1554,41
814,08	1650,66
814,25	1722,34
814,42	1523,69
814,60	1669,09
814,77	1710,05
814,94	1650,66
815,12	1665,00
815,29	1785,83
815,46	1607,66
815,63	1701,86
815,81	1705,96
815,98	1665,00
816,15	1671,14
816,33	1634,28
816,50	1556,46
816,67	1716,20
816,84	1722,34
817,02	1626,09
817,19	1640,42
817,36	1609,70
817,53	1699,81
817,71	1619,94
817,88	1728,49
818,05	1624,04
818,22	1609,70
818,40	1814,50
818,57	1673,19
818,74	1662,95
818,91	1640,42
819,09	1802,21
819,26	1763,30
819,43	1726,44
819,60	1634,28
819,78	1636,33
819,95	1828,84
820,12	1654,76
820,29	1738,73
820,47	1755,11
820,64	1568,74
820,81	1617,90
820,98	1673,19
821,15	1669,09
821,33	1679,33
821,50	1595,37
821,67	1705,96
821,84	1679,33
822,02	1738,73
822,19	1667,05
822,36	1691,62
822,53	1683,43
822,70	1673,19
822,88	1673,19
823,05	1769,44
823,22	1667,05
823,39	1703,91
823,56	1636,33
823,74	1779,68
823,91	1609,70
824,08	1708,01
824,25	1572,84
824,42	1783,78
824,60	1681,38
824,77	1685,48
824,94	1728,49
825,11	1742,82
825,28	1630,18
825,45	1740,77
825,63	1689,57
825,80	1673,19
825,97	1728,49
826,14	1687,53
826,31	1648,61
826,48	1675,24
826,66	1697,77
826,83	1654,76
827,00	1730,53
827,17	1722,34
827,34	1660,90
827,51	1583,08
827,69	1683,43
827,86	1566,70
828,03	1681,38
828,20	1736,68
828,37	1673,19
828,54	1720,29
828,71	1665,00
828,89	1806,31
829,06	1619,94
829,23	1732,58
829,40	1658,85
829,57	1673,19
829,74	1656,81
829,91	1710,05
830,09	1636,33
830,26	1773,54
830,43	1783,78
830,60	1701,86
830,77	1691,62
830,94	1748,97
831,11	1714,15
831,28	1615,85
831,46	1783,78
831,63	1722,34
831,80	1734,63
831,97	1636,33
832,14	1650,66
832,31	1652,71
832,48	1681,38
832,65	1800,16
832,82	1693,67
832,99	1712,10
833,17	1701,86
833,34	1810,40
833,51	1732,58
833,68	1624,04
833,85	1765,35
834,02	1689,57
834,19	1646,57
834,36	1636,33
834,53	1665,00
834,70	1710,05
834,87	1673,19
835,04	1683,43
835,22	1687,53
835,39	1685,48
835,56	1640,42
835,73	1697,77
835,90	1708,01
836,07	1699,81
836,24	1722,34
836,41	1671,14
836,58	1703,91
836,75	1748,97
836,92	1685,48
837,09	1675,24
837,26	1734,63
837,43	1673,19
837,60	1697,77
837,77	1648,61
837,94	1681,38
838,12	1724,39
838,29	1718,25
838,46	1640,42
838,63	1673,19
838,80	1736,68
838,97	1732,58
839,14	1691,62
839,31	1732,58
839,48	1687,53
839,65	1568,74
839,82	1753,06
839,99	1705,96
840,16	1691,62
840,33	1677,29
840,50	1755,11
840,67	1734,63
840,84	1552,36
841,01	1701,86
841,18	1581,03
841,35	1730,53
841,52	1748,97
841,69	1738,73
841,86	1685,48
842,03	1771,49
842,20	1763,30
842,37	1695,72
842,54	1691,62
842,71	1701,86
842,88	1550,31
843,05	1771,49
843,22	1703,91
843,39	1742,82
843,56	1648,61
843,73	1740,77
843,90	1697,77
844,07	1685,48
844,24	1751,01
844,41	1675,24
844,58	1671,14
844,75	1687,53
844,92	1720,29
845,09	1644,52
845,26	1599,46
845,43	1669,09
845,60	1662,95
845,77	1763,30
845,94	1683,43
846,10	1689,57
846,27	1617,90
846,44	1628,14
846,61	1656,81
846,78	1738,73
846,95	1740,77
847,12	1656,81
847,29	1656,81
847,46	1687,53
847,63	1699,81
847,80	1568,74
847,97	1650,66
848,14	1773,54
848,31	1697,77
848,48	1650,66
848,65	1630,18
848,82	1636,33
848,98	1802,21
849,15	1771,49
849,32	1828,84
849,49	1720,29
849,66	1683,43
849,83	1658,85
850,00	1587,18
850,17	1716,20
850,34	1732,58
850,51	1636,33
850,68	1607,66
850,85	1734,63
851,01	1669,09
851,18	1673,19
851,35	1683,43
851,52	1804,26
851,69	1779,68
851,86	1611,75
852,03	1683,43
852,20	1740,77
852,37	1615,85
852,53	1673,19
852,70	1703,91
852,87	1636,33
853,04	1699,81
853,21	1617,90
853,38	1712,10
853,55	1701,86
853,72	1767,40
853,89	1632,23
854,05	1646,57
854,22	1712,10
854,39	1550,31
854,56	1695,72
854,73	1699,81
854,90	1683,43
855,07	1746,92
855,23	1654,76
855,40	1673,19
855,57	1689,57
855,74	1613,80
855,91	1890,28
856,08	1619,94
856,25	1652,71
856,41	1626,09
856,58	1648,61
856,75	1695,72
856,92	1632,23
857,09	1708,01
857,26	1564,65
857,42	1726,44
857,59	1728,49
857,76	1722,34
857,93	1705,96
858,10	1691,62
858,27	1578,98
858,43	1677,29
858,60	1650,66
858,77	1599,46
858,94	1691,62
859,11	1746,92
859,27	1654,76
859,44	1691,62
859,61	1808,36
859,78	1757,16
859,95	1626,09
860,12	1611,75
860,28	1785,83
860,45	1759,21
860,62	1562,60
860,79	1669,09
860,95	1771,49
861,12	1667,05
861,29	1660,90
861,46	1652,71
861,63	1636,33
861,79	1699,81
861,96	1613,80
862,13	1683,43
862,30	1849,32
862,47	1628,14
862,63	1673,19
862,80	1662,95
862,97	1701,86
863,14	1615,85
863,30	1736,68
863,47	1626,09
863,64	1787,88
863,81	1689,57
863,97	1703,91
864,14	1685,48
864,31	1740,77
864,48	1665,00
864,65	1630,18
864,81	1779,68
864,98	1718,25
865,15	1712,10
865,32	1691,62
865,48	1730,53
865,65	1771,49
865,82	1648,61
865,98	1703,91
866,15	1824,74
866,32	1654,76
866,49	1597,42
866,65	1796,07
866,82	1636,33
866,99	1665,00
867,16	1648,61
867,32	1673,19
867,49	1675,24
867,66	1730,53
867,83	1630,18
867,99	1708,01
868,16	1654,76
868,33	1609,70
868,49	1671,14
868,66	1619,94
868,83	1773,54
868,99	1732,58
869,16	1783,78
869,33	1730,53
869,50	1677,29
869,66	1656,81
869,83	1695,72
870,00	1613,80
870,16	1789,92
870,33	1685,48
870,50	1718,25
870,66	1656,81
870,83	1779,68
871,00	1677,29
871,17	1679,33
871,33	1714,15
871,50	1722,34
871,67	1693,67
871,83	1665,00
872,00	1886,18
872,17	1714,15
872,33	1765,35
872,50	1755,11
872,67	1628,14
872,83	1703,91
873,00	1705,96
873,17	1701,86
873,33	1671,14
873,50	1710,05
873,67	1595,37
873,83	1675,24
874,00	1738,73
874,16	1759,21
874,33	1669,09
874,50	1689,57
874,66	1705,96
874,83	1693,67
875,00	1722,34
875,16	1722,34
875,33	1710,05
875,50	1548,26
875,66	1656,81
875,83	1691,62
875,99	1779,68
876,16	1693,67
876,33	1636,33
876,49	1722,34
876,66	1742,82
876,83	1689,57
876,99	1558,50
877,16	1587,18
877,32	1689,57
877,49	1681,38
877,66	1712,10
877,82	1771,49
877,99	1714,15
878,15	1689,57
878,32	1708,01
878,49	1697,77
878,65	1716,20
878,82	1812,45
878,98	1648,61
879,15	1714,15
879,32	1746,92
879,48	1703,91
879,65	1697,77
879,81	1705,96
879,98	1728,49
880,15	1634,28
880,31	1748,97
880,48	1652,71
880,64	1785,83
880,81	1701,86
880,97	1712,10
881,14	1699,81
881,31	1597,42
881,47	1757,16
881,64	1644,52
881,80	1599,46
881,97	1722,34
882,13	1681,38
882,30	1662,95
882,47	1605,61
882,63	1607,66
882,80	1648,61
882,96	1632,23
883,13	1798,12
883,29	1708,01
883,46	1779,68
883,62	1828,84
883,79	1683,43
883,95	1763,30
884,12	1681,38
884,29	1767,40
884,45	1585,13
884,62	1748,97
884,78	1646,57
884,95	1759,21
885,11	1644,52
885,28	1662,95
885,44	1708,01
885,61	1695,72
885,77	1812,45
885,94	1689,57
886,10	1652,71
886,27	1650,66
886,43	1693,67
886,60	1781,73
886,76	1642,47
886,93	1644,52
887,09	1726,44
887,26	1636,33
887,42	1609,70
887,59	1816,55
887,75	1867,75
887,92	1724,39
888,08	1787,88
888,25	1765,35
888,41	1718,25
888,58	1693,67
888,74	1671,14
888,91	1660,90
>>>>>End Processed Spectral Data<<<<<
