SpectraSuite Data File
++++++++++++++++++++++++++++++++++++
Date: Mon Jun 06 12:22:17 CEST 2016
User: root
Dark Spectrum Present: No
Reference Spectrum Present: No
Number of Sampled Component Spectra: 1
Spectrometers: USB4C02835
Integration Time (usec): 100000 (USB4C02835)
Spectra Averaged: 1 (USB4C02835)
Boxcar Smoothing: 0 (USB4C02835)
Correct for Electrical Dark: No (USB4C02835)
Strobe/Lamp Enabled: No (USB4C02835)
Correct for Detector Non-linearity: No (USB4C02835)
Correct for Stray Light: No (USB4C02835)
Number of Pixels in Processed Spectrum: 3648
>>>>>Begin Processed Spectral Data<<<<<
177,47	1402,86
177,69	1402,86
177,91	1402,86
178,13	1492,97
178,36	1472,49
178,58	1607,66
178,80	1662,95
179,02	1662,95
179,24	1685,48
179,46	1710,05
179,68	1703,91
179,90	1673,19
180,13	1681,38
180,35	1689,57
180,57	1683,43
180,79	1775,59
181,01	1632,23
181,23	1720,29
181,45	1697,77
181,67	1693,67
181,90	1736,68
182,12	1644,52
182,34	1568,74
182,56	1806,31
182,78	1679,33
183,00	1638,38
183,22	1718,25
183,44	1644,52
183,66	1837,03
183,89	1822,69
184,11	1820,64
184,33	1822,69
184,55	1720,29
184,77	1660,90
184,99	1683,43
185,21	1732,58
185,43	1771,49
185,65	1611,75
185,87	1730,53
186,10	1820,64
186,32	1798,12
186,54	1748,97
186,76	1630,18
186,98	1791,97
187,20	1675,24
187,42	1708,01
187,64	1640,42
187,86	1697,77
188,08	1693,67
188,30	1724,39
188,52	1621,99
188,75	1771,49
188,97	1753,06
189,19	1662,95
189,41	1660,90
189,63	1753,06
189,85	1673,19
190,07	1597,42
190,29	1634,28
190,51	1751,01
190,73	1583,08
190,95	1787,88
191,17	1677,29
191,39	1667,05
191,61	1693,67
191,84	1671,14
192,06	1740,77
192,28	1650,66
192,50	1837,03
192,72	1740,77
192,94	1748,97
193,16	1804,26
193,38	1644,52
193,60	1632,23
193,82	1730,53
194,04	1753,06
194,26	1748,97
194,48	1677,29
194,70	1687,53
194,92	1751,01
195,14	1740,77
195,36	1699,81
195,58	1671,14
195,80	1712,10
196,02	1667,05
196,24	1705,96
196,46	1673,19
196,69	1656,81
196,91	1791,97
197,13	1681,38
197,35	1677,29
197,57	1763,30
197,79	1701,86
198,01	1642,47
198,23	1740,77
198,45	1757,16
198,67	1648,61
198,89	1683,43
199,11	1812,45
199,33	1630,18
199,55	1552,36
199,77	1652,71
199,99	1761,25
200,21	1650,66
200,43	1601,51
200,65	1566,70
200,87	1640,42
201,09	1652,71
201,31	1722,34
201,53	1734,63
201,75	1693,67
201,97	1656,81
202,19	1714,15
202,41	1679,33
202,63	1822,69
202,85	1691,62
203,07	1665,00
203,29	1708,01
203,51	1568,74
203,73	1581,03
203,95	1918,95
204,17	1705,96
204,39	1689,57
204,61	1654,76
204,83	1667,05
205,05	1652,71
205,27	1675,24
205,49	1800,16
205,71	1712,10
205,93	1677,29
206,15	1681,38
206,37	1673,19
206,59	1648,61
206,81	1562,60
207,03	1644,52
207,25	1673,19
207,47	1691,62
207,69	1652,71
207,91	1804,26
208,13	1724,39
208,34	1607,66
208,56	1671,14
208,78	1708,01
209,00	1730,53
209,22	1697,77
209,44	1685,48
209,66	1611,75
209,88	1681,38
210,10	1732,58
210,32	1687,53
210,54	1781,73
210,76	1683,43
210,98	1755,11
211,20	1523,69
211,42	1691,62
211,64	1753,06
211,86	1691,62
212,08	1644,52
212,30	1652,71
212,52	1671,14
212,74	1605,61
212,96	1708,01
213,17	1755,11
213,39	1681,38
213,61	1818,60
213,83	1757,16
214,05	1644,52
214,27	1699,81
214,49	1660,90
214,71	1697,77
214,93	1771,49
215,15	1712,10
215,37	1681,38
215,59	1574,89
215,81	1695,72
216,03	1837,03
216,24	1728,49
216,46	1673,19
216,68	1699,81
216,90	1761,25
217,12	1773,54
217,34	1658,85
217,56	1673,19
217,78	1814,50
218,00	1671,14
218,22	1693,67
218,44	1724,39
218,66	1728,49
218,87	1718,25
219,09	1611,75
219,31	1650,66
219,53	1732,58
219,75	1624,04
219,97	1660,90
220,19	1685,48
220,41	1740,77
220,63	1740,77
220,85	1681,38
221,06	1673,19
221,28	1771,49
221,50	1794,02
221,72	1730,53
221,94	1656,81
222,16	1628,14
222,38	1730,53
222,60	1767,40
222,82	1695,72
223,03	1714,15
223,25	1673,19
223,47	1734,63
223,69	1761,25
223,91	1705,96
224,13	1703,91
224,35	1693,67
224,57	1761,25
224,78	1759,21
225,00	1691,62
225,22	1699,81
225,44	1693,67
225,66	1724,39
225,88	1634,28
226,10	1748,97
226,32	1720,29
226,53	1826,79
226,75	1675,24
226,97	1677,29
227,19	1650,66
227,41	1718,25
227,63	1679,33
227,85	1613,80
228,06	1738,73
228,28	1703,91
228,50	1783,78
228,72	1669,09
228,94	1648,61
229,16	1617,90
229,37	1636,33
229,59	1566,70
229,81	1746,92
230,03	1689,57
230,25	1603,56
230,47	1652,71
230,69	1560,55
230,90	1718,25
231,12	1626,09
231,34	1695,72
231,56	1708,01
231,78	1660,90
232,00	1665,00
232,21	1728,49
232,43	1669,09
232,65	1554,41
232,87	1673,19
233,09	1691,62
233,30	1683,43
233,52	1708,01
233,74	1703,91
233,96	1703,91
234,18	1701,86
234,40	1685,48
234,61	1800,16
234,83	1648,61
235,05	1654,76
235,27	1783,78
235,49	1720,29
235,70	1695,72
235,92	1798,12
236,14	1746,92
236,36	1824,74
236,58	1578,98
236,79	1654,76
237,01	1662,95
237,23	1609,70
237,45	1816,55
237,67	1683,43
237,88	1720,29
238,10	1822,69
238,32	1667,05
238,54	1650,66
238,76	1689,57
238,97	1665,00
239,19	1683,43
239,41	1751,01
239,63	1796,07
239,85	1681,38
240,06	1720,29
240,28	1632,23
240,50	1701,86
240,72	1624,04
240,93	1642,47
241,15	1671,14
241,37	1683,43
241,59	1742,82
241,81	1685,48
242,02	1761,25
242,24	1761,25
242,46	1755,11
242,68	1665,00
242,89	1652,71
243,11	1716,20
243,33	1689,57
243,55	1730,53
243,76	1753,06
243,98	1705,96
244,20	1648,61
244,42	1708,01
244,64	1669,09
244,85	1601,51
245,07	1642,47
245,29	1748,97
245,51	1689,57
245,72	1759,21
245,94	1804,26
246,16	1769,44
246,38	1736,68
246,59	1671,14
246,81	1593,32
247,03	1693,67
247,24	1591,27
247,46	1638,38
247,68	1675,24
247,90	1677,29
248,11	1683,43
248,33	1701,86
248,55	1630,18
248,77	1699,81
248,98	1705,96
249,20	1781,73
249,42	1720,29
249,64	1695,72
249,85	1712,10
250,07	1669,09
250,29	1730,53
250,50	1738,73
250,72	1660,90
250,94	1767,40
251,16	1783,78
251,37	1800,16
251,59	1667,05
251,81	1689,57
252,02	1755,11
252,24	1648,61
252,46	1794,02
252,68	1648,61
252,89	1728,49
253,11	1576,94
253,33	1804,26
253,54	1730,53
253,76	1568,74
253,98	1669,09
254,20	1675,24
254,41	1599,46
254,63	1646,57
254,85	1671,14
255,06	1736,68
255,28	1673,19
255,50	1718,25
255,71	1656,81
255,93	1642,47
256,15	1634,28
256,36	1669,09
256,58	1714,15
256,80	1765,35
257,02	1601,51
257,23	1681,38
257,45	1677,29
257,67	1759,21
257,88	1636,33
258,10	1742,82
258,32	1673,19
258,53	1703,91
258,75	1746,92
258,97	1632,23
259,18	1705,96
259,40	1619,94
259,62	1800,16
259,83	1822,69
260,05	1751,01
260,27	1927,14
260,48	1748,97
260,70	1650,66
260,92	1648,61
261,13	1652,71
261,35	1724,39
261,57	1677,29
261,78	1581,03
262,00	1615,85
262,22	1695,72
262,43	1697,77
262,65	1701,86
262,86	1685,48
263,08	1798,12
263,30	1705,96
263,51	1656,81
263,73	1650,66
263,95	1832,93
264,16	1636,33
264,38	1658,85
264,60	1761,25
264,81	1658,85
265,03	1763,30
265,25	1753,06
265,46	1685,48
265,68	1751,01
265,89	1732,58
266,11	1699,81
266,33	1705,96
266,54	1771,49
266,76	1748,97
266,98	1779,68
267,19	1791,97
267,41	1767,40
267,62	1691,62
267,84	1640,42
268,06	1742,82
268,27	1697,77
268,49	1763,30
268,70	1826,79
268,92	1716,20
269,14	1662,95
269,35	1613,80
269,57	1677,29
269,79	1738,73
270,00	1626,09
270,22	1804,26
270,43	1650,66
270,65	1634,28
270,87	1613,80
271,08	1751,01
271,30	1669,09
271,51	1773,54
271,73	1712,10
271,95	1875,94
272,16	1738,73
272,38	1689,57
272,59	1648,61
272,81	1730,53
273,02	1679,33
273,24	1718,25
273,46	1720,29
273,67	1675,24
273,89	1677,29
274,10	1642,47
274,32	1755,11
274,54	1722,34
274,75	1677,29
274,97	1695,72
275,18	1681,38
275,40	1708,01
275,61	1675,24
275,83	1714,15
276,05	1574,89
276,26	1701,86
276,48	1673,19
276,69	1615,85
276,91	1630,18
277,12	1765,35
277,34	1763,30
277,55	1679,33
277,77	1710,05
277,99	1669,09
278,20	1716,20
278,42	1560,55
278,63	1617,90
278,85	1642,47
279,06	1673,19
279,28	1742,82
279,49	1769,44
279,71	1722,34
279,93	1728,49
280,14	1732,58
280,36	1683,43
280,57	1691,62
280,79	1767,40
281,00	1673,19
281,22	1634,28
281,43	1718,25
281,65	1593,32
281,86	1640,42
282,08	1681,38
282,29	1748,97
282,51	1648,61
282,73	1615,85
282,94	1587,18
283,16	1726,44
283,37	1765,35
283,59	1716,20
283,80	1730,53
284,02	1650,66
284,23	1658,85
284,45	1677,29
284,66	1660,90
284,88	1681,38
285,09	1710,05
285,31	1691,62
285,52	1708,01
285,74	1619,94
285,95	1712,10
286,17	1716,20
286,38	1783,78
286,60	1695,72
286,81	1673,19
287,03	1673,19
287,24	1691,62
287,46	1681,38
287,67	1660,90
287,89	1853,41
288,10	1685,48
288,32	1703,91
288,53	1644,52
288,75	1642,47
288,96	1708,01
289,18	1656,81
289,39	1699,81
289,61	1773,54
289,82	1820,64
290,04	1767,40
290,25	1660,90
290,47	1630,18
290,68	1552,36
290,90	1767,40
291,11	1673,19
291,33	1708,01
291,54	1665,00
291,76	1732,58
291,97	1683,43
292,18	1732,58
292,40	1673,19
292,61	1769,44
292,83	1767,40
293,04	1699,81
293,26	1728,49
293,47	1626,09
293,69	1656,81
293,90	1703,91
294,12	1720,29
294,33	1761,25
294,55	1714,15
294,76	1753,06
294,97	1818,60
295,19	1791,97
295,40	1714,15
295,62	1738,73
295,83	1759,21
296,05	1689,57
296,26	1683,43
296,48	1656,81
296,69	1689,57
296,90	1683,43
297,12	1714,15
297,33	1783,78
297,55	1712,10
297,76	1699,81
297,98	1732,58
298,19	1660,90
298,41	1665,00
298,62	1656,81
298,83	1703,91
299,05	1587,18
299,26	1605,61
299,48	1640,42
299,69	1669,09
299,90	1662,95
300,12	1658,85
300,33	1804,26
300,55	1689,57
300,76	1779,68
300,98	1593,32
301,19	1763,30
301,40	1675,24
301,62	1710,05
301,83	1650,66
302,05	1773,54
302,26	1695,72
302,47	1697,77
302,69	1640,42
302,90	1685,48
303,12	1611,75
303,33	1714,15
303,54	1730,53
303,76	1701,86
303,97	1699,81
304,19	1791,97
304,40	1646,57
304,61	1724,39
304,83	1812,45
305,04	1765,35
305,26	1710,05
305,47	1669,09
305,68	1736,68
305,90	1593,32
306,11	1726,44
306,33	1667,05
306,54	1669,09
306,75	1736,68
306,97	1634,28
307,18	1683,43
307,39	1654,76
307,61	1734,63
307,82	1662,95
308,04	1673,19
308,25	1615,85
308,46	1710,05
308,68	1701,86
308,89	1691,62
309,10	1751,01
309,32	1683,43
309,53	1595,37
309,74	1740,77
309,96	1675,24
310,17	1755,11
310,39	1687,53
310,60	1742,82
310,81	1689,57
311,03	1669,09
311,24	1785,83
311,45	1675,24
311,67	1763,30
311,88	1642,47
312,09	1601,51
312,31	1658,85
312,52	1650,66
312,73	1640,42
312,95	1556,46
313,16	1581,03
313,37	1687,53
313,59	1697,77
313,80	1757,16
314,01	1738,73
314,23	1648,61
314,44	1673,19
314,65	1650,66
314,87	1632,23
315,08	1658,85
315,29	1669,09
315,51	1652,71
315,72	1542,12
315,93	1767,40
316,15	1804,26
316,36	1621,99
316,57	1726,44
316,79	1697,77
317,00	1626,09
317,21	1658,85
317,43	1652,71
317,64	1656,81
317,85	1654,76
318,07	1658,85
318,28	1714,15
318,49	1781,73
318,70	1951,71
318,92	1849,32
319,13	1796,07
319,34	1834,98
319,56	1802,21
319,77	1777,64
319,98	1761,25
320,20	1742,82
320,41	1732,58
320,62	1804,26
320,83	1654,76
321,05	1818,60
321,26	1601,51
321,47	1718,25
321,69	1708,01
321,90	1640,42
322,11	1671,14
322,32	1656,81
322,54	1744,87
322,75	1656,81
322,96	1863,65
323,18	1681,38
323,39	1677,29
323,60	1662,95
323,81	1771,49
324,03	1675,24
324,24	1681,38
324,45	1689,57
324,66	1607,66
324,88	1734,63
325,09	1804,26
325,30	1718,25
325,52	1675,24
325,73	1681,38
325,94	1634,28
326,15	1562,60
326,37	1665,00
326,58	1767,40
326,79	1773,54
327,00	1621,99
327,22	1699,81
327,43	1665,00
327,64	1630,18
327,85	1728,49
328,07	1738,73
328,28	1843,17
328,49	1716,20
328,70	1626,09
328,92	1675,24
329,13	1746,92
329,34	1812,45
329,55	1843,17
329,76	1699,81
329,98	1783,78
330,19	1779,68
330,40	1669,09
330,61	1724,39
330,83	1787,88
331,04	1703,91
331,25	1636,33
331,46	1697,77
331,68	1581,03
331,89	1751,01
332,10	1658,85
332,31	1593,32
332,52	1654,76
332,74	1771,49
332,95	1613,80
333,16	1683,43
333,37	1695,72
333,58	1683,43
333,80	1687,53
334,01	1593,32
334,22	1640,42
334,43	1644,52
334,64	1697,77
334,86	1585,13
335,07	1642,47
335,28	1779,68
335,49	1589,22
335,70	1683,43
335,92	1808,36
336,13	1816,55
336,34	1716,20
336,55	1669,09
336,76	1673,19
336,98	1517,54
337,19	1665,00
337,40	1832,93
337,61	1796,07
337,82	1708,01
338,04	1695,72
338,25	1648,61
338,46	1748,97
338,67	1667,05
338,88	1607,66
339,09	1667,05
339,31	1673,19
339,52	1589,22
339,73	1626,09
339,94	1667,05
340,15	1757,16
340,36	1701,86
340,58	1769,44
340,79	1578,98
341,00	1728,49
341,21	1722,34
341,42	1773,54
341,63	1636,33
341,85	1699,81
342,06	1673,19
342,27	1636,33
342,48	1687,53
342,69	1630,18
342,90	1730,53
343,12	1703,91
343,33	1718,25
343,54	1673,19
343,75	1804,26
343,96	1638,38
344,17	1665,00
344,38	1660,90
344,60	1613,80
344,81	1695,72
345,02	1652,71
345,23	1773,54
345,44	1787,88
345,65	1722,34
345,86	1783,78
346,07	1689,57
346,29	1665,00
346,50	1746,92
346,71	1712,10
346,92	1791,97
347,13	1812,45
347,34	1683,43
347,55	1718,25
347,76	1732,58
347,98	1576,94
348,19	1724,39
348,40	1841,12
348,61	1732,58
348,82	1753,06
349,03	1740,77
349,24	1535,98
349,45	1837,03
349,66	1632,23
349,88	1724,39
350,09	1624,04
350,30	1751,01
350,51	1794,02
350,72	1736,68
350,93	1695,72
351,14	1660,90
351,35	1701,86
351,56	1697,77
351,77	1685,48
351,99	1630,18
352,20	1681,38
352,41	1859,56
352,62	1488,87
352,83	1603,56
353,04	1675,24
353,25	1642,47
353,46	1765,35
353,67	1746,92
353,88	1675,24
354,09	1740,77
354,30	1746,92
354,52	1724,39
354,73	1662,95
354,94	1701,86
355,15	1718,25
355,36	1763,30
355,57	1644,52
355,78	1802,21
355,99	1662,95
356,20	1693,67
356,41	1693,67
356,62	1712,10
356,83	1632,23
357,04	1751,01
357,25	1562,60
357,46	1660,90
357,68	1628,14
357,89	1638,38
358,10	1648,61
358,31	1675,24
358,52	1716,20
358,73	1650,66
358,94	1574,89
359,15	1656,81
359,36	1738,73
359,57	1714,15
359,78	1648,61
359,99	1669,09
360,20	1615,85
360,41	1685,48
360,62	1683,43
360,83	1708,01
361,04	1775,59
361,25	1716,20
361,46	1796,07
361,67	1683,43
361,88	1722,34
362,09	1775,59
362,30	1673,19
362,51	1681,38
362,72	1732,58
362,93	1728,49
363,14	1712,10
363,35	1751,01
363,56	1648,61
363,78	1628,14
363,99	1763,30
364,20	1626,09
364,41	1675,24
364,62	1804,26
364,83	1726,44
365,04	1640,42
365,25	1628,14
365,46	1832,93
365,67	1644,52
365,88	1701,86
366,09	1632,23
366,30	1669,09
366,51	1693,67
366,72	1599,46
366,93	1714,15
367,14	1703,91
367,35	1753,06
367,56	1697,77
367,77	1820,64
367,98	1609,70
368,18	1724,39
368,39	1712,10
368,60	1617,90
368,81	1710,05
369,02	1748,97
369,23	1722,34
369,44	1593,32
369,65	1710,05
369,86	1669,09
370,07	1748,97
370,28	1650,66
370,49	1787,88
370,70	1746,92
370,91	1609,70
371,12	1621,99
371,33	1697,77
371,54	1654,76
371,75	1779,68
371,96	1599,46
372,17	1685,48
372,38	1652,71
372,59	1662,95
372,80	1671,14
373,01	1751,01
373,22	1675,24
373,43	1697,77
373,64	1687,53
373,85	1767,40
374,06	1794,02
374,26	1728,49
374,47	1714,15
374,68	1636,33
374,89	1732,58
375,10	1640,42
375,31	1724,39
375,52	1656,81
375,73	1757,16
375,94	1691,62
376,15	1705,96
376,36	1658,85
376,57	1613,80
376,78	1662,95
376,99	1697,77
377,20	1759,21
377,40	1703,91
377,61	1839,08
377,82	1611,75
378,03	1777,64
378,24	1718,25
378,45	1701,86
378,66	1621,99
378,87	1624,04
379,08	1634,28
379,29	1673,19
379,50	1726,44
379,71	1605,61
379,91	1771,49
380,12	1658,85
380,33	1767,40
380,54	1699,81
380,75	1617,90
380,96	1646,57
381,17	1746,92
381,38	1660,90
381,59	1738,73
381,80	1710,05
382,00	1892,32
382,21	1740,77
382,42	1814,50
382,63	1845,22
382,84	1755,11
383,05	1812,45
383,26	1796,07
383,47	1695,72
383,68	1804,26
383,88	1708,01
384,09	1724,39
384,30	1841,12
384,51	1720,29
384,72	1734,63
384,93	1583,08
385,14	1757,16
385,35	1769,44
385,55	1669,09
385,76	1748,97
385,97	1705,96
386,18	1656,81
386,39	1640,42
386,60	1691,62
386,81	1685,48
387,02	1658,85
387,22	1673,19
387,43	1832,93
387,64	1783,78
387,85	1918,95
388,06	2111,46
388,27	4284,35
388,48	6834,07
388,68	8441,73
388,89	9586,54
389,10	10102,63
389,31	8664,96
389,52	7694,22
389,73	6918,04
389,93	6287,26
390,14	5984,16
390,35	5238,70
390,56	4609,98
390,77	3817,41
390,98	3004,37
391,18	2508,76
391,39	2138,08
391,60	1804,26
391,81	1814,50
392,02	1697,77
392,23	1849,32
392,43	1755,11
392,64	1785,83
392,85	1683,43
393,06	1802,21
393,27	1677,29
393,47	1599,46
393,68	1679,33
393,89	1775,59
394,10	1734,63
394,31	1626,09
394,52	1566,70
394,72	1671,14
394,93	1822,69
395,14	1626,09
395,35	1748,97
395,56	1671,14
395,76	1681,38
395,97	1765,35
396,18	1849,32
396,39	1839,08
396,60	2021,35
396,80	1861,60
397,01	1783,78
397,22	1828,84
397,43	1863,65
397,64	1716,20
397,84	1802,21
398,05	1896,42
398,26	1710,05
398,47	1730,53
398,67	1738,73
398,88	1716,20
399,09	1714,15
399,30	1667,05
399,51	1697,77
399,71	1744,87
399,92	1744,87
400,13	1718,25
400,34	1689,57
400,54	1720,29
400,75	1837,03
400,96	1693,67
401,17	1845,22
401,37	1769,44
401,58	1669,09
401,79	1773,54
402,00	1791,97
402,21	1970,15
402,41	1972,19
402,62	2017,25
402,83	2097,12
403,04	2027,49
403,24	2119,65
403,45	1869,80
403,66	1859,56
403,87	1828,84
404,07	1837,03
404,28	1955,81
404,49	1845,22
404,70	1785,83
404,90	1779,68
405,11	1730,53
405,32	1738,73
405,52	1705,96
405,73	1644,52
405,94	1687,53
406,15	1689,57
406,35	1738,73
406,56	1634,28
406,77	1767,40
406,98	1742,82
407,18	1585,13
407,39	1824,74
407,60	1665,00
407,80	1732,58
408,01	1642,47
408,22	1728,49
408,43	1646,57
408,63	1783,78
408,84	1714,15
409,05	1814,50
409,25	1619,94
409,46	1669,09
409,67	1646,57
409,88	1689,57
410,08	1767,40
410,29	1632,23
410,50	1730,53
410,70	1755,11
410,91	1669,09
411,12	1753,06
411,32	1683,43
411,53	1593,32
411,74	1802,21
411,95	1732,58
412,15	1726,44
412,36	1765,35
412,57	1742,82
412,77	1726,44
412,98	1677,29
413,19	1685,48
413,39	1683,43
413,60	1724,39
413,81	1759,21
414,01	1640,42
414,22	1724,39
414,43	1783,78
414,63	1744,87
414,84	1738,73
415,05	1703,91
415,25	1626,09
415,46	1742,82
415,67	1611,75
415,87	1685,48
416,08	1681,38
416,29	1675,24
416,49	1746,92
416,70	1718,25
416,91	1669,09
417,11	1697,77
417,32	1712,10
417,53	1751,01
417,73	1732,58
417,94	1736,68
418,15	1730,53
418,35	1675,24
418,56	1677,29
418,77	1816,55
418,97	1697,77
419,18	1669,09
419,38	1548,26
419,59	1640,42
419,80	1732,58
420,00	1687,53
420,21	1722,34
420,42	1753,06
420,62	1667,05
420,83	1658,85
421,04	1683,43
421,24	1667,05
421,45	1830,88
421,65	1734,63
421,86	1705,96
422,07	1691,62
422,27	1714,15
422,48	1779,68
422,69	1621,99
422,89	1591,27
423,10	1636,33
423,30	1677,29
423,51	1665,00
423,72	1634,28
423,92	1691,62
424,13	1662,95
424,33	1759,21
424,54	1751,01
424,75	1681,38
424,95	1791,97
425,16	1662,95
425,36	1714,15
425,57	1738,73
425,78	1787,88
425,98	1759,21
426,19	1550,31
426,39	1619,94
426,60	1753,06
426,81	1757,16
427,01	1697,77
427,22	1638,38
427,42	1671,14
427,63	1665,00
427,83	1759,21
428,04	1861,60
428,25	1810,40
428,45	1775,59
428,66	1775,59
428,86	1703,91
429,07	1722,34
429,28	1746,92
429,48	1693,67
429,69	1646,57
429,89	1697,77
430,10	1603,56
430,30	1621,99
430,51	1742,82
430,71	1685,48
430,92	1624,04
431,13	1609,70
431,33	1757,16
431,54	1703,91
431,74	1806,31
431,95	1841,12
432,15	1660,90
432,36	1730,53
432,56	1759,21
432,77	1769,44
432,98	1830,88
433,18	1642,47
433,39	1646,57
433,59	1728,49
433,80	1816,55
434,00	1808,36
434,21	1644,52
434,41	1667,05
434,62	1779,68
434,82	1621,99
435,03	1732,58
435,23	1726,44
435,44	1546,22
435,64	1777,64
435,85	1755,11
436,06	1712,10
436,26	1748,97
436,47	1665,00
436,67	1685,48
436,88	1714,15
437,08	1826,79
437,29	1798,12
437,49	1675,24
437,70	1783,78
437,90	1710,05
438,11	1834,98
438,31	1753,06
438,52	1832,93
438,72	1791,97
438,93	1918,95
439,13	1779,68
439,34	1871,84
439,54	1755,11
439,75	1806,31
439,95	1763,30
440,16	1685,48
440,36	1689,57
440,57	1728,49
440,77	1742,82
440,98	1746,92
441,18	1734,63
441,39	1677,29
441,59	1718,25
441,80	1810,40
442,00	1699,81
442,21	1753,06
442,41	1732,58
442,62	1759,21
442,82	1673,19
443,02	1701,86
443,23	1691,62
443,43	1734,63
443,64	1751,01
443,84	1640,42
444,05	1796,07
444,25	1763,30
444,46	1716,20
444,66	1718,25
444,87	1814,50
445,07	1564,65
445,28	1746,92
445,48	1849,32
445,69	1773,54
445,89	1832,93
446,09	1728,49
446,30	2062,30
446,50	2631,64
446,71	3790,79
446,91	4341,69
447,12	4849,59
447,32	4859,83
447,53	4351,93
447,73	3790,79
447,93	3565,51
448,14	3266,51
448,34	3332,05
448,55	2854,87
448,75	2861,01
448,96	2721,75
449,16	2365,40
449,36	2285,53
449,57	2090,98
449,77	1959,91
449,98	1787,88
450,18	1777,64
450,39	1816,55
450,59	1675,24
450,79	1748,97
451,00	1654,76
451,20	1769,44
451,41	1742,82
451,61	1701,86
451,81	1640,42
452,02	1669,09
452,22	1632,23
452,43	1691,62
452,63	1560,55
452,84	1755,11
453,04	1703,91
453,24	1779,68
453,45	1638,38
453,65	1753,06
453,86	1783,78
454,06	1744,87
454,26	1755,11
454,47	1650,66
454,67	1843,17
454,87	1751,01
455,08	1744,87
455,28	1800,16
455,49	1736,68
455,69	1679,33
455,89	1867,75
456,10	1806,31
456,30	1714,15
456,51	1710,05
456,71	1759,21
456,91	1781,73
457,12	1708,01
457,32	1705,96
457,52	1740,77
457,73	1771,49
457,93	1687,53
458,14	1638,38
458,34	1738,73
458,54	1740,77
458,75	1748,97
458,95	1800,16
459,15	1667,05
459,36	1722,34
459,56	1796,07
459,76	1841,12
459,97	1652,71
460,17	1738,73
460,37	1798,12
460,58	1658,85
460,78	1779,68
460,99	1726,44
461,19	1681,38
461,39	1644,52
461,60	1687,53
461,80	1783,78
462,00	1671,14
462,21	1718,25
462,41	1714,15
462,61	1609,70
462,82	1648,61
463,02	1740,77
463,22	1720,29
463,43	1699,81
463,63	1751,01
463,83	1820,64
464,04	1734,63
464,24	1671,14
464,44	1595,37
464,64	1695,72
464,85	1697,77
465,05	1730,53
465,25	1667,05
465,46	1695,72
465,66	1810,40
465,86	1794,02
466,07	1796,07
466,27	1669,09
466,47	1681,38
466,68	1578,98
466,88	1771,49
467,08	1730,53
467,29	1775,59
467,49	1703,91
467,69	1695,72
467,89	1691,62
468,10	1681,38
468,30	1714,15
468,50	1736,68
468,71	1714,15
468,91	1619,94
469,11	1830,88
469,31	1705,96
469,52	1656,81
469,72	1939,43
469,92	1824,74
470,13	1699,81
470,33	1779,68
470,53	1767,40
470,73	2078,69
470,94	2209,76
471,14	2336,73
471,34	2502,62
471,54	2529,24
471,75	2238,43
471,95	2160,61
472,15	2054,11
472,36	2142,18
472,56	2060,26
472,76	2064,35
472,96	2027,49
473,17	1914,85
473,37	1853,41
473,57	1853,41
473,77	1771,49
473,98	1781,73
474,18	1675,24
474,38	1867,75
474,58	1669,09
474,79	1701,86
474,99	1703,91
475,19	1691,62
475,39	1667,05
475,60	1669,09
475,80	1722,34
476,00	1746,92
476,20	1675,24
476,41	1712,10
476,61	1791,97
476,81	1789,92
477,01	1724,39
477,21	1828,84
477,42	1853,41
477,62	1658,85
477,82	1785,83
478,02	1712,10
478,23	1724,39
478,43	1708,01
478,63	1626,09
478,83	1716,20
479,03	1624,04
479,24	1802,21
479,44	1824,74
479,64	1652,71
479,84	1660,90
480,04	1703,91
480,25	1781,73
480,45	1617,90
480,65	1656,81
480,85	1796,07
481,06	1687,53
481,26	1771,49
481,46	1824,74
481,66	1697,77
481,86	1615,85
482,06	1796,07
482,27	1697,77
482,47	1675,24
482,67	1720,29
482,87	1701,86
483,07	1730,53
483,28	1710,05
483,48	1656,81
483,68	1720,29
483,88	1648,61
484,08	1632,23
484,29	1595,37
484,49	1718,25
484,69	1624,04
484,89	1834,98
485,09	1748,97
485,29	1767,40
485,50	1697,77
485,70	1662,95
485,90	1693,67
486,10	1716,20
486,30	1759,21
486,50	1728,49
486,71	1751,01
486,91	1693,67
487,11	1734,63
487,31	1603,56
487,51	1722,34
487,71	1671,14
487,91	1658,85
488,12	1712,10
488,32	1615,85
488,52	1640,42
488,72	1583,08
488,92	1726,44
489,12	1767,40
489,32	1834,98
489,53	1751,01
489,73	1652,71
489,93	1751,01
490,13	1624,04
490,33	1648,61
490,53	1689,57
490,73	1828,84
490,94	1656,81
491,14	1755,11
491,34	1832,93
491,54	2123,74
491,74	2492,38
491,94	2875,35
492,14	3071,95
492,34	2990,03
492,54	2770,90
492,75	2545,63
492,95	2459,61
493,15	2269,15
493,35	2248,67
493,55	2222,05
493,75	2146,27
493,95	2156,51
494,15	1937,38
494,35	1888,23
494,56	1839,08
494,76	1748,97
494,96	1757,16
495,16	1736,68
495,36	1730,53
495,56	1734,63
495,76	1804,26
495,96	1648,61
496,16	1665,00
496,36	1820,64
496,56	1748,97
496,77	1703,91
496,97	1757,16
497,17	1783,78
497,37	1648,61
497,57	1791,97
497,77	1675,24
497,97	1708,01
498,17	1742,82
498,37	1667,05
498,57	1728,49
498,77	1599,46
498,97	1787,88
499,17	1800,16
499,38	1742,82
499,58	1753,06
499,78	1806,31
499,98	1742,82
500,18	1753,06
500,38	1710,05
500,58	1865,70
500,78	2549,72
500,98	4544,44
501,18	5971,88
501,38	6885,27
501,58	7323,54
501,78	6647,71
501,98	5609,39
502,18	4892,60
502,38	4564,92
502,58	4134,85
502,78	3796,93
502,98	3712,97
503,18	3471,31
503,38	3280,85
503,59	2760,66
503,79	2631,64
503,99	2488,28
504,19	2293,72
504,39	2207,71
504,59	2193,37
504,79	2047,97
504,99	1947,62
505,19	1849,32
505,39	1888,23
505,59	1964,00
505,79	1894,37
505,99	1812,45
506,19	1755,11
506,39	1865,70
506,59	1665,00
506,79	1718,25
506,99	1777,64
507,19	1791,97
507,39	1712,10
507,59	1710,05
507,79	1677,29
507,99	1710,05
508,19	1755,11
508,39	1619,94
508,59	1734,63
508,79	1746,92
508,99	1771,49
509,19	1662,95
509,39	1746,92
509,59	1691,62
509,79	1697,77
509,99	1765,35
510,19	1732,58
510,39	1814,50
510,59	1701,86
510,79	1734,63
510,99	1595,37
511,19	1681,38
511,39	1853,41
511,59	1712,10
511,79	1761,25
511,99	1802,21
512,19	1841,12
512,38	1677,29
512,58	1628,14
512,78	1697,77
512,98	1775,59
513,18	1798,12
513,38	1585,13
513,58	1693,67
513,78	1732,58
513,98	1681,38
514,18	1683,43
514,38	1669,09
514,58	1781,73
514,78	1697,77
514,98	1681,38
515,18	1710,05
515,38	1634,28
515,58	1767,40
515,78	1714,15
515,98	1671,14
516,18	1763,30
516,38	1742,82
516,57	1755,11
516,77	1675,24
516,97	1693,67
517,17	1726,44
517,37	1636,33
517,57	1744,87
517,77	1734,63
517,97	1693,67
518,17	1843,17
518,37	1669,09
518,57	1660,90
518,77	1714,15
518,97	1714,15
519,16	1732,58
519,36	1771,49
519,56	1636,33
519,76	1841,12
519,96	1656,81
520,16	1773,54
520,36	1652,71
520,56	1763,30
520,76	1714,15
520,96	1742,82
521,16	1759,21
521,35	1777,64
521,55	1781,73
521,75	1761,25
521,95	1722,34
522,15	1763,30
522,35	1687,53
522,55	1656,81
522,75	1818,60
522,95	1673,19
523,14	1621,99
523,34	1718,25
523,54	1718,25
523,74	1857,51
523,94	1744,87
524,14	1652,71
524,34	1730,53
524,54	1808,36
524,73	1820,64
524,93	1712,10
525,13	1716,20
525,33	1652,71
525,53	1853,41
525,73	1773,54
525,93	1738,73
526,13	1746,92
526,32	1726,44
526,52	1802,21
526,72	1798,12
526,92	1740,77
527,12	1636,33
527,32	1640,42
527,52	1714,15
527,71	1755,11
527,91	1724,39
528,11	1626,09
528,31	1705,96
528,51	1693,67
528,71	1744,87
528,90	1744,87
529,10	1841,12
529,30	1769,44
529,50	1640,42
529,70	1740,77
529,90	1753,06
530,09	1771,49
530,29	1687,53
530,49	1691,62
530,69	1861,60
530,89	1736,68
531,09	1773,54
531,28	1695,72
531,48	1720,29
531,68	1746,92
531,88	1781,73
532,08	1775,59
532,28	1724,39
532,47	1730,53
532,67	1843,17
532,87	1769,44
533,07	1681,38
533,27	1771,49
533,46	1761,25
533,66	1695,72
533,86	1658,85
534,06	1658,85
534,26	1781,73
534,45	1798,12
534,65	1697,77
534,85	1753,06
535,05	1708,01
535,25	1789,92
535,44	1691,62
535,64	1710,05
535,84	1746,92
536,04	1705,96
536,24	1724,39
536,43	1683,43
536,63	1761,25
536,83	1697,77
537,03	1718,25
537,22	1695,72
537,42	1654,76
537,62	1802,21
537,82	1705,96
538,02	1843,17
538,21	1853,41
538,41	1849,32
538,61	1773,54
538,81	1673,19
539,00	1810,40
539,20	1710,05
539,40	1662,95
539,60	1748,97
539,79	1748,97
539,99	1626,09
540,19	1679,33
540,39	1693,67
540,58	1683,43
540,78	1765,35
540,98	1689,57
541,18	1794,02
541,37	1773,54
541,57	1746,92
541,77	1740,77
541,97	1667,05
542,16	1656,81
542,36	1718,25
542,56	1726,44
542,76	1816,55
542,95	1791,97
543,15	1701,86
543,35	1820,64
543,54	1665,00
543,74	1667,05
543,94	1738,73
544,14	1685,48
544,33	1730,53
544,53	1724,39
544,73	1624,04
544,93	1691,62
545,12	1710,05
545,32	1777,64
545,52	1624,04
545,71	1654,76
545,91	1712,10
546,11	1673,19
546,30	1740,77
546,50	1742,82
546,70	1791,97
546,90	1720,29
547,09	1583,08
547,29	1751,01
547,49	1748,97
547,68	1685,48
547,88	1662,95
548,08	1787,88
548,27	2168,80
548,47	1714,15
548,67	1708,01
548,87	1779,68
549,06	1775,59
549,26	1667,05
549,46	1800,16
549,65	1697,77
549,85	1712,10
550,05	1714,15
550,24	1689,57
550,44	1751,01
550,64	1701,86
550,83	1652,71
551,03	1775,59
551,23	1777,64
551,42	1751,01
551,62	1714,15
551,82	1830,88
552,01	1738,73
552,21	1820,64
552,41	1777,64
552,60	1757,16
552,80	1773,54
553,00	1636,33
553,19	1763,30
553,39	1804,26
553,59	1679,33
553,78	1718,25
553,98	1859,56
554,17	1591,27
554,37	1791,97
554,57	1810,40
554,76	1648,61
554,96	1669,09
555,16	1773,54
555,35	1738,73
555,55	1789,92
555,75	1759,21
555,94	1804,26
556,14	1652,71
556,33	1761,25
556,53	1767,40
556,73	1730,53
556,92	1837,03
557,12	1771,49
557,32	1779,68
557,51	1728,49
557,71	1783,78
557,90	1808,36
558,10	1818,60
558,30	1652,71
558,49	1753,06
558,69	1730,53
558,88	1763,30
559,08	1757,16
559,28	1763,30
559,47	1826,79
559,67	1748,97
559,86	1822,69
560,06	1791,97
560,26	1748,97
560,45	1732,58
560,65	1742,82
560,84	1826,79
561,04	1712,10
561,24	1740,77
561,43	1697,77
561,63	1875,94
561,82	1771,49
562,02	1800,16
562,22	1740,77
562,41	1693,67
562,61	1771,49
562,80	1662,95
563,00	1894,37
563,19	1822,69
563,39	1783,78
563,59	1669,09
563,78	1660,90
563,98	1660,90
564,17	1705,96
564,37	1632,23
564,56	1742,82
564,76	1712,10
564,96	1763,30
565,15	1683,43
565,35	1830,88
565,54	1732,58
565,74	1701,86
565,93	1738,73
566,13	1701,86
566,32	1753,06
566,52	1746,92
566,71	1685,48
566,91	1736,68
567,11	1671,14
567,30	1718,25
567,50	1753,06
567,69	1724,39
567,89	1779,68
568,08	1683,43
568,28	1693,67
568,47	1685,48
568,67	1765,35
568,86	1650,66
569,06	1757,16
569,25	1740,77
569,45	1642,47
569,64	1726,44
569,84	1738,73
570,04	1730,53
570,23	1685,48
570,43	1703,91
570,62	1765,35
570,82	1839,08
571,01	1724,39
571,21	1621,99
571,40	1675,24
571,60	1837,03
571,79	1798,12
571,99	1791,97
572,18	1671,14
572,38	1740,77
572,57	1648,61
572,77	1730,53
572,96	1898,47
573,16	1761,25
573,35	1644,52
573,55	1861,60
573,74	1812,45
573,94	1718,25
574,13	1734,63
574,33	1796,07
574,52	1753,06
574,71	1761,25
574,91	1753,06
575,10	1636,33
575,30	1691,62
575,49	1638,38
575,69	1650,66
575,88	1701,86
576,08	1695,72
576,27	1755,11
576,47	1701,86
576,66	1826,79
576,86	1832,93
577,05	1787,88
577,25	1791,97
577,44	1810,40
577,64	1669,09
577,83	1740,77
578,02	1640,42
578,22	1781,73
578,41	1855,46
578,61	1722,34
578,80	1720,29
579,00	1732,58
579,19	1697,77
579,39	1759,21
579,58	1800,16
579,77	1757,16
579,97	1839,08
580,16	1789,92
580,36	1826,79
580,55	1773,54
580,75	1742,82
580,94	1734,63
581,13	1894,37
581,33	1785,83
581,52	1660,90
581,72	1875,94
581,91	1873,89
582,11	1748,97
582,30	1818,60
582,49	1775,59
582,69	1794,02
582,88	1732,58
583,08	1804,26
583,27	1814,50
583,47	1685,48
583,66	1716,20
583,85	1687,53
584,05	1767,40
584,24	1748,97
584,44	1769,44
584,63	1855,46
584,82	1812,45
585,02	1744,87
585,21	1767,40
585,41	1847,27
585,60	1845,22
585,79	1966,05
585,99	1867,75
586,18	1873,89
586,37	2185,18
586,57	3424,20
586,76	10342,24
586,96	25011,84
587,15	35100,14
587,34	41371,02
587,54	42937,71
587,73	37387,72
587,93	26764,90
588,12	21997,23
588,31	19019,49
588,51	16688,90
588,70	15318,81
588,89	14368,55
589,09	12730,17
589,28	11192,15
589,47	9758,57
589,67	8114,05
589,86	6457,25
590,06	4999,09
590,25	3934,15
590,44	3192,78
590,64	2490,33
590,83	2226,14
591,02	2113,50
591,22	2011,11
591,41	1900,52
591,60	1841,12
591,80	1959,91
591,99	1763,30
592,18	1843,17
592,38	1736,68
592,57	1767,40
592,76	1755,11
592,96	1767,40
593,15	1722,34
593,34	1861,60
593,54	1685,48
593,73	1828,84
593,92	1673,19
594,12	1671,14
594,31	1742,82
594,50	1812,45
594,70	1751,01
594,89	1781,73
595,08	1634,28
595,28	1767,40
595,47	1869,80
595,66	1738,73
595,86	1640,42
596,05	1665,00
596,24	1675,24
596,43	1816,55
596,63	1775,59
596,82	1796,07
597,01	1687,53
597,21	1828,84
597,40	1720,29
597,59	1759,21
597,79	1759,21
597,98	1796,07
598,17	1781,73
598,36	1806,31
598,56	1834,98
598,75	1734,63
598,94	1685,48
599,14	1755,11
599,33	1681,38
599,52	1748,97
599,71	1783,78
599,91	1757,16
600,10	1738,73
600,29	1779,68
600,48	1789,92
600,68	1798,12
600,87	1753,06
601,06	1681,38
601,26	1759,21
601,45	1681,38
601,64	1642,47
601,83	1828,84
602,03	1679,33
602,22	1732,58
602,41	1773,54
602,60	1871,84
602,80	1746,92
602,99	1777,64
603,18	1722,34
603,37	1714,15
603,57	1697,77
603,76	1806,31
603,95	1785,83
604,14	1701,86
604,34	1724,39
604,53	1791,97
604,72	1714,15
604,91	1753,06
605,10	1843,17
605,30	1652,71
605,49	1865,70
605,68	1730,53
605,87	1742,82
606,07	1699,81
606,26	1679,33
606,45	1685,48
606,64	1759,21
606,84	1773,54
607,03	1710,05
607,22	1777,64
607,41	1665,00
607,60	1665,00
607,80	1734,63
607,99	1736,68
608,18	1816,55
608,37	1765,35
608,56	1710,05
608,76	1800,16
608,95	1826,79
609,14	1701,86
609,33	1798,12
609,52	1814,50
609,72	1720,29
609,91	1753,06
610,10	1748,97
610,29	1742,82
610,48	1744,87
610,68	1724,39
610,87	1726,44
611,06	1822,69
611,25	1669,09
611,44	1812,45
611,63	1689,57
611,83	1777,64
612,02	1658,85
612,21	1779,68
612,40	1595,37
612,59	1583,08
612,79	1597,42
612,98	1650,66
613,17	1851,36
613,36	1708,01
613,55	1837,03
613,74	1685,48
613,93	1685,48
614,13	1767,40
614,32	1763,30
614,51	1708,01
614,70	1785,83
614,89	1591,27
615,08	1767,40
615,28	1951,71
615,47	1656,81
615,66	1697,77
615,85	1775,59
616,04	1898,47
616,23	1681,38
616,42	1724,39
616,62	1734,63
616,81	1751,01
617,00	1712,10
617,19	1689,57
617,38	1736,68
617,57	1757,16
617,76	1677,29
617,95	1701,86
618,15	1738,73
618,34	1671,14
618,53	1632,23
618,72	1736,68
618,91	1839,08
619,10	1763,30
619,29	1638,38
619,48	1708,01
619,68	1646,57
619,87	1724,39
620,06	1589,22
620,25	1681,38
620,44	1753,06
620,63	1708,01
620,82	1800,16
621,01	1716,20
621,20	1693,67
621,39	1708,01
621,59	1658,85
621,78	1683,43
621,97	1744,87
622,16	1771,49
622,35	1683,43
622,54	1714,15
622,73	1720,29
622,92	1669,09
623,11	1665,00
623,30	1732,58
623,49	1816,55
623,68	1703,91
623,88	1773,54
624,07	1755,11
624,26	1734,63
624,45	1701,86
624,64	1677,29
624,83	1673,19
625,02	1675,24
625,21	1746,92
625,40	1699,81
625,59	1746,92
625,78	1701,86
625,97	1714,15
626,16	1783,78
626,35	1761,25
626,54	1673,19
626,74	1765,35
626,93	1712,10
627,12	1697,77
627,31	1746,92
627,50	1808,36
627,69	1742,82
627,88	1667,05
628,07	1677,29
628,26	1601,51
628,45	1730,53
628,64	1636,33
628,83	1759,21
629,02	1621,99
629,21	1685,48
629,40	1710,05
629,59	1617,90
629,78	1714,15
629,97	1716,20
630,16	1732,58
630,35	1658,85
630,54	1681,38
630,73	1660,90
630,92	1781,73
631,11	1736,68
631,30	1744,87
631,49	1740,77
631,68	1753,06
631,87	1708,01
632,06	1628,14
632,25	1875,94
632,44	1718,25
632,63	1757,16
632,82	1648,61
633,01	1705,96
633,20	1671,14
633,39	1660,90
633,58	1665,00
633,77	1708,01
633,96	1730,53
634,15	1738,73
634,34	1773,54
634,53	1703,91
634,72	1751,01
634,91	1681,38
635,10	1714,15
635,29	1710,05
635,48	1798,12
635,67	1574,89
635,86	1638,38
636,05	1775,59
636,24	1726,44
636,43	1767,40
636,62	1675,24
636,81	1501,16
637,00	1683,43
637,19	1652,71
637,38	1742,82
637,57	1683,43
637,76	1738,73
637,95	1779,68
638,14	1681,38
638,33	1734,63
638,52	1701,86
638,71	1595,37
638,89	1667,05
639,08	1861,60
639,27	1722,34
639,46	1720,29
639,65	1761,25
639,84	1699,81
640,03	1783,78
640,22	1712,10
640,41	1818,60
640,60	1652,71
640,79	1761,25
640,98	1732,58
641,17	1718,25
641,36	1658,85
641,55	1687,53
641,74	1646,57
641,92	1644,52
642,11	1613,80
642,30	1687,53
642,49	1636,33
642,68	1650,66
642,87	1720,29
643,06	1710,05
643,25	1673,19
643,44	1646,57
643,63	1697,77
643,82	1810,40
644,00	1634,28
644,19	1642,47
644,38	1671,14
644,57	1769,44
644,76	1726,44
644,95	1685,48
645,14	1685,48
645,33	1671,14
645,52	1708,01
645,71	1665,00
645,89	1644,52
646,08	1718,25
646,27	1738,73
646,46	1810,40
646,65	1636,33
646,84	1751,01
647,03	1671,14
647,22	1794,02
647,40	1773,54
647,59	1628,14
647,78	1611,75
647,97	1693,67
648,16	1667,05
648,35	1824,74
648,54	1730,53
648,73	1718,25
648,91	1710,05
649,10	1791,97
649,29	1648,61
649,48	1759,21
649,67	1710,05
649,86	1693,67
650,05	1564,65
650,23	1712,10
650,42	1578,98
650,61	1748,97
650,80	1759,21
650,99	1810,40
651,18	1789,92
651,36	1822,69
651,55	1708,01
651,74	1785,83
651,93	1791,97
652,12	1681,38
652,31	1734,63
652,49	1748,97
652,68	1691,62
652,87	1701,86
653,06	1714,15
653,25	1798,12
653,44	1681,38
653,62	1675,24
653,81	1726,44
654,00	1742,82
654,19	1683,43
654,38	1882,08
654,56	1769,44
654,75	1724,39
654,94	1783,78
655,13	1779,68
655,32	1691,62
655,51	1742,82
655,69	1697,77
655,88	1818,60
656,07	1734,63
656,26	1779,68
656,45	1695,72
656,63	1683,43
656,82	1705,96
657,01	1736,68
657,20	1742,82
657,38	1828,84
657,57	1621,99
657,76	1665,00
657,95	1720,29
658,14	1697,77
658,32	1728,49
658,51	1648,61
658,70	1689,57
658,89	1734,63
659,08	1734,63
659,26	1673,19
659,45	1546,22
659,64	1755,11
659,83	1673,19
660,01	1920,99
660,20	1742,82
660,39	1787,88
660,58	1550,31
660,76	1736,68
660,95	1685,48
661,14	1693,67
661,33	1570,79
661,51	1642,47
661,70	1671,14
661,89	1812,45
662,08	1755,11
662,26	1675,24
662,45	1628,14
662,64	1785,83
662,83	1804,26
663,01	1665,00
663,20	1650,66
663,39	1810,40
663,58	1689,57
663,76	1732,58
663,95	1726,44
664,14	1710,05
664,32	1654,76
664,51	1685,48
664,70	1644,52
664,89	1802,21
665,07	1669,09
665,26	1736,68
665,45	1679,33
665,64	1742,82
665,82	1748,97
666,01	1763,30
666,20	1646,57
666,38	1699,81
666,57	1785,83
666,76	2232,29
666,95	4591,55
667,13	10600,29
667,32	15539,99
667,51	17954,54
667,69	19218,14
667,88	17909,49
668,07	12293,96
668,25	9609,07
668,44	8195,97
668,63	7409,55
668,81	6920,09
669,00	6369,18
669,19	5758,89
669,38	5097,39
669,56	4657,08
669,75	3946,44
669,94	3456,97
670,12	2871,25
670,31	2500,57
670,50	2342,88
670,68	2097,12
670,87	1894,37
671,06	1769,44
671,24	1732,58
671,43	1839,08
671,62	1753,06
671,80	1667,05
671,99	1722,34
672,18	1751,01
672,36	1769,44
672,55	1705,96
672,74	1736,68
672,92	1673,19
673,11	1738,73
673,29	1658,85
673,48	1736,68
673,67	1730,53
673,85	1791,97
674,04	1736,68
674,23	1656,81
674,41	1873,89
674,60	1652,71
674,79	1599,46
674,97	1734,63
675,16	1671,14
675,34	1681,38
675,53	1665,00
675,72	1693,67
675,90	1794,02
676,09	1751,01
676,28	1703,91
676,46	1585,13
676,65	1761,25
676,83	1748,97
677,02	1681,38
677,21	1697,77
677,39	1697,77
677,58	1593,32
677,77	1683,43
677,95	1626,09
678,14	1703,91
678,32	1644,52
678,51	1675,24
678,70	1783,78
678,88	1671,14
679,07	1671,14
679,25	1662,95
679,44	1757,16
679,63	1607,66
679,81	1705,96
680,00	1673,19
680,18	1712,10
680,37	1798,12
680,55	1738,73
680,74	1607,66
680,93	1607,66
681,11	1730,53
681,30	1746,92
681,48	1761,25
681,67	1685,48
681,85	1693,67
682,04	1740,77
682,23	1753,06
682,41	1724,39
682,60	1740,77
682,78	1777,64
682,97	1626,09
683,15	1644,52
683,34	1689,57
683,53	1832,93
683,71	1611,75
683,90	1806,31
684,08	1826,79
684,27	1677,29
684,45	1759,21
684,64	1800,16
684,82	1652,71
685,01	1724,39
685,19	1671,14
685,38	1794,02
685,57	1722,34
685,75	1640,42
685,94	1695,72
686,12	1607,66
686,31	1638,38
686,49	1783,78
686,68	1621,99
686,86	1767,40
687,05	1675,24
687,23	1781,73
687,42	1669,09
687,60	1656,81
687,79	1851,36
687,97	1777,64
688,16	1746,92
688,34	1757,16
688,53	1648,61
688,71	1675,24
688,90	1769,44
689,08	1656,81
689,27	1624,04
689,45	1773,54
689,64	1753,06
689,82	1748,97
690,01	1718,25
690,19	1724,39
690,38	1662,95
690,56	1753,06
690,75	1683,43
690,93	1660,90
691,12	1679,33
691,30	1673,19
691,49	1644,52
691,67	1701,86
691,86	1814,50
692,04	1665,00
692,23	1630,18
692,41	1658,85
692,60	1697,77
692,78	1767,40
692,97	1656,81
693,15	1716,20
693,34	1791,97
693,52	1765,35
693,71	1656,81
693,89	1632,23
694,08	1617,90
694,26	1734,63
694,44	1722,34
694,63	1730,53
694,81	1689,57
695,00	1591,27
695,18	1697,77
695,37	1849,32
695,55	1636,33
695,74	1722,34
695,92	1638,38
696,10	1755,11
696,29	1609,70
696,47	1658,85
696,66	1630,18
696,84	1644,52
697,03	1732,58
697,21	1882,08
697,40	2342,88
697,58	1789,92
697,76	1665,00
697,95	1665,00
698,13	1748,97
698,32	1632,23
698,50	1744,87
698,68	1716,20
698,87	1734,63
699,05	1828,84
699,24	1624,04
699,42	1621,99
699,61	1714,15
699,79	1673,19
699,97	1718,25
700,16	1679,33
700,34	1638,38
700,53	1732,58
700,71	1820,64
700,89	1708,01
701,08	1712,10
701,26	1656,81
701,45	2119,65
701,63	1652,71
701,81	1697,77
702,00	1689,57
702,18	1699,81
702,37	1611,75
702,55	1683,43
702,73	1642,47
702,92	1675,24
703,10	1773,54
703,28	1658,85
703,47	1581,03
703,65	1683,43
703,84	1787,88
704,02	1662,95
704,20	1814,50
704,39	1718,25
704,57	1658,85
704,75	1738,73
704,94	1697,77
705,12	1712,10
705,30	1730,53
705,49	2324,44
705,67	4493,24
705,86	9635,69
706,04	13104,95
706,22	14798,62
706,41	15802,13
706,59	14325,54
706,77	9871,21
706,96	7407,50
707,14	6817,69
707,32	6111,14
707,51	5640,11
707,69	4827,06
707,87	4286,40
708,06	3413,96
708,24	2916,31
708,42	2406,36
708,61	2279,39
708,79	1898,47
708,97	1865,70
709,16	1769,44
709,34	1804,26
709,52	1771,49
709,71	1714,15
709,89	1767,40
710,07	1634,28
710,26	1615,85
710,44	1720,29
710,62	1734,63
710,80	1650,66
710,99	1783,78
711,17	1724,39
711,35	1716,20
711,54	1669,09
711,72	1705,96
711,90	1671,14
712,09	1767,40
712,27	1642,47
712,45	1716,20
712,63	1642,47
712,82	1734,63
713,00	1640,42
713,18	1767,40
713,37	1714,15
713,55	1669,09
713,73	1724,39
713,91	1761,25
714,10	1671,14
714,28	1646,57
714,46	1738,73
714,65	1621,99
714,83	1660,90
715,01	1736,68
715,19	1650,66
715,38	1595,37
715,56	1736,68
715,74	1687,53
715,92	1632,23
716,11	1820,64
716,29	1531,88
716,47	1693,67
716,65	1705,96
716,84	1644,52
717,02	1742,82
717,20	1626,09
717,38	1652,71
717,57	1738,73
717,75	1716,20
717,93	1593,32
718,11	1771,49
718,30	1681,38
718,48	1708,01
718,66	1740,77
718,84	1767,40
719,03	1691,62
719,21	1585,13
719,39	1779,68
719,57	1728,49
719,75	1712,10
719,94	1609,70
720,12	1746,92
720,30	1693,67
720,48	1712,10
720,67	1581,03
720,85	1581,03
721,03	1617,90
721,21	1624,04
721,39	1730,53
721,58	1730,53
721,76	1691,62
721,94	1730,53
722,12	1662,95
722,30	1832,93
722,49	1611,75
722,67	1714,15
722,85	1699,81
723,03	1601,51
723,21	1740,77
723,40	1728,49
723,58	1789,92
723,76	1718,25
723,94	1724,39
724,12	1763,30
724,30	1796,07
724,49	1742,82
724,67	1542,12
724,85	1765,35
725,03	1630,18
725,21	1710,05
725,40	1728,49
725,58	1601,51
725,76	1751,01
725,94	1740,77
726,12	1720,29
726,30	1691,62
726,49	1658,85
726,67	1662,95
726,85	1640,42
727,03	1779,68
727,21	2160,61
727,39	2875,35
727,57	3862,47
727,76	4157,38
727,94	4521,92
728,12	4274,11
728,30	3733,45
728,48	3039,19
728,66	2775,00
728,84	2553,82
729,03	2308,06
729,21	2133,98
729,39	2095,07
729,57	1843,17
729,75	1845,22
729,93	1824,74
730,11	1638,38
730,30	1746,92
730,48	1703,91
730,66	1808,36
730,84	1738,73
731,02	1648,61
731,20	1675,24
731,38	1701,86
731,56	1679,33
731,74	1660,90
731,93	1708,01
732,11	1730,53
732,29	1605,61
732,47	1679,33
732,65	1722,34
732,83	1748,97
733,01	1697,77
733,19	1660,90
733,37	1718,25
733,56	1726,44
733,74	1619,94
733,92	1804,26
734,10	1703,91
734,28	1628,14
734,46	1568,74
734,64	1613,80
734,82	1677,29
735,00	1697,77
735,18	1634,28
735,36	1689,57
735,54	1662,95
735,73	1705,96
735,91	1669,09
736,09	1730,53
736,27	1673,19
736,45	1781,73
736,63	1576,94
736,81	1665,00
736,99	1746,92
737,17	1736,68
737,35	1699,81
737,53	1640,42
737,71	1665,00
737,89	1748,97
738,07	1673,19
738,25	1630,18
738,43	1599,46
738,61	1671,14
738,80	1589,22
738,98	1697,77
739,16	1665,00
739,34	1662,95
739,52	1724,39
739,70	1660,90
739,88	1845,22
740,06	1718,25
740,24	1576,94
740,42	1763,30
740,60	1624,04
740,78	1615,85
740,96	1628,14
741,14	1673,19
741,32	1695,72
741,50	1669,09
741,68	1771,49
741,86	1751,01
742,04	1591,27
742,22	1595,37
742,40	1775,59
742,58	1705,96
742,76	1642,47
742,94	1695,72
743,12	1632,23
743,30	1699,81
743,48	1634,28
743,66	1644,52
743,84	1662,95
744,02	1714,15
744,20	1728,49
744,38	1681,38
744,56	1693,67
744,74	1679,33
744,92	1650,66
745,10	1765,35
745,28	1742,82
745,46	1822,69
745,64	1679,33
745,82	1734,63
746,00	1671,14
746,18	1746,92
746,36	1658,85
746,54	1691,62
746,72	1679,33
746,90	1638,38
747,08	1724,39
747,26	1677,29
747,44	1671,14
747,62	1714,15
747,80	1724,39
747,98	1748,97
748,15	1636,33
748,33	1837,03
748,51	1687,53
748,69	1802,21
748,87	1568,74
749,05	1693,67
749,23	1765,35
749,41	1705,96
749,59	1662,95
749,77	1765,35
749,95	1660,90
750,13	1714,15
750,31	1722,34
750,49	1681,38
750,67	1722,34
750,85	1800,16
751,03	1677,29
751,20	1730,53
751,38	1726,44
751,56	1636,33
751,74	1673,19
751,92	1705,96
752,10	1652,71
752,28	1669,09
752,46	1628,14
752,64	1632,23
752,82	1734,63
753,00	1759,21
753,18	1624,04
753,35	1681,38
753,53	1609,70
753,71	1595,37
753,89	1640,42
754,07	1617,90
754,25	1708,01
754,43	1708,01
754,61	1654,76
754,79	1650,66
754,97	1617,90
755,14	1748,97
755,32	1673,19
755,50	1644,52
755,68	1746,92
755,86	1601,51
756,04	1603,56
756,22	1632,23
756,40	1714,15
756,57	1820,64
756,75	1701,86
756,93	1724,39
757,11	1761,25
757,29	1646,57
757,47	1652,71
757,65	1648,61
757,82	1640,42
758,00	1611,75
758,18	1681,38
758,36	1665,00
758,54	1775,59
758,72	1568,74
758,90	1722,34
759,07	1783,78
759,25	1665,00
759,43	1712,10
759,61	1626,09
759,79	2086,88
759,97	1656,81
760,15	1599,46
760,32	1648,61
760,50	1613,80
760,68	1832,93
760,86	1619,94
761,04	1751,01
761,22	1699,81
761,39	1650,66
761,57	1744,87
761,75	1689,57
761,93	1695,72
762,11	1705,96
762,28	1710,05
762,46	1621,99
762,64	1634,28
762,82	1648,61
763,00	1632,23
763,18	1626,09
763,35	1673,19
763,53	1667,05
763,71	1685,48
763,89	1650,66
764,07	1730,53
764,24	1669,09
764,42	1785,83
764,60	1656,81
764,78	1716,20
764,96	1740,77
765,13	1734,63
765,31	1724,39
765,49	1767,40
765,67	1642,47
765,84	1628,14
766,02	1636,33
766,20	1671,14
766,38	1699,81
766,56	1767,40
766,73	1728,49
766,91	1712,10
767,09	1640,42
767,27	1753,06
767,44	1718,25
767,62	1714,15
767,80	1609,70
767,98	1626,09
768,15	1712,10
768,33	1708,01
768,51	1740,77
768,69	1791,97
768,87	1701,86
769,04	1722,34
769,22	1822,69
769,40	1806,31
769,58	1857,51
769,75	1689,57
769,93	1789,92
770,11	1695,72
770,28	1642,47
770,46	1728,49
770,64	1742,82
770,82	1673,19
770,99	1681,38
771,17	1779,68
771,35	1636,33
771,53	1701,86
771,70	1785,83
771,88	1710,05
772,06	1656,81
772,23	1667,05
772,41	1751,01
772,59	1689,57
772,77	1607,66
772,94	1685,48
773,12	1705,96
773,30	1642,47
773,47	1755,11
773,65	1685,48
773,83	1724,39
774,01	1656,81
774,18	1615,85
774,36	1656,81
774,54	1656,81
774,71	1712,10
774,89	1574,89
775,07	1632,23
775,24	1609,70
775,42	1607,66
775,60	1812,45
775,78	1605,61
775,95	1624,04
776,13	1615,85
776,31	1603,56
776,48	1701,86
776,66	1777,64
776,84	1658,85
777,01	1667,05
777,19	1667,05
777,37	1705,96
777,54	1771,49
777,72	1826,79
777,90	1679,33
778,07	1615,85
778,25	1824,74
778,43	1621,99
778,60	1665,00
778,78	1742,82
778,96	1746,92
779,13	1689,57
779,31	1767,40
779,49	1667,05
779,66	1714,15
779,84	1619,94
780,01	1759,21
780,19	1630,18
780,37	1744,87
780,54	1779,68
780,72	1751,01
780,90	1638,38
781,07	1654,76
781,25	1609,70
781,43	1658,85
781,60	1669,09
781,78	1742,82
781,95	1720,29
782,13	1658,85
782,31	1673,19
782,48	1572,84
782,66	1675,24
782,83	1810,40
783,01	1757,16
783,19	1675,24
783,36	1687,53
783,54	1615,85
783,72	1761,25
783,89	1689,57
784,07	1687,53
784,24	1695,72
784,42	1771,49
784,60	1683,43
784,77	1779,68
784,95	1533,93
785,12	1644,52
785,30	1642,47
785,47	1587,18
785,65	1693,67
785,83	1677,29
786,00	1685,48
786,18	1695,72
786,35	1689,57
786,53	1679,33
786,71	1718,25
786,88	1738,73
787,06	1718,25
787,23	1742,82
787,41	1634,28
787,58	1765,35
787,76	1593,32
787,94	1673,19
788,11	1646,57
788,29	1611,75
788,46	1621,99
788,64	1636,33
788,81	1673,19
788,99	1673,19
789,16	1689,57
789,34	1695,72
789,52	1673,19
789,69	1669,09
789,87	1609,70
790,04	1673,19
790,22	1677,29
790,39	1748,97
790,57	1542,12
790,74	1740,77
790,92	1751,01
791,09	1621,99
791,27	1757,16
791,44	1822,69
791,62	1691,62
791,79	1757,16
791,97	1685,48
792,15	1869,80
792,32	1697,77
792,50	1759,21
792,67	1806,31
792,85	1781,73
793,02	1665,00
793,20	1724,39
793,37	1587,18
793,55	1685,48
793,72	1685,48
793,90	1796,07
794,07	1630,18
794,25	1722,34
794,42	1689,57
794,60	1738,73
794,77	1751,01
794,95	1683,43
795,12	1722,34
795,30	1646,57
795,47	1603,56
795,65	1839,08
795,82	1597,42
796,00	1693,67
796,17	1669,09
796,34	1710,05
796,52	1624,04
796,69	1689,57
796,87	1769,44
797,04	1736,68
797,22	1718,25
797,39	1705,96
797,57	1644,52
797,74	1785,83
797,92	1697,77
798,09	1656,81
798,27	1783,78
798,44	1689,57
798,62	1660,90
798,79	1671,14
798,96	1751,01
799,14	1703,91
799,31	1822,69
799,49	1665,00
799,66	1675,24
799,84	1771,49
800,01	1595,37
800,19	1714,15
800,36	1628,14
800,53	1617,90
800,71	1722,34
800,88	1816,55
801,06	1630,18
801,23	1658,85
801,41	1636,33
801,58	1662,95
801,75	1619,94
801,93	1714,15
802,10	1738,73
802,28	1603,56
802,45	1738,73
802,63	1777,64
802,80	1759,21
802,97	1652,71
803,15	1669,09
803,32	1638,38
803,50	1669,09
803,67	1689,57
803,84	1570,79
804,02	1699,81
804,19	1617,90
804,37	1628,14
804,54	1611,75
804,71	1730,53
804,89	1660,90
805,06	1667,05
805,24	1642,47
805,41	1742,82
805,58	1660,90
805,76	1822,69
805,93	1714,15
806,10	1787,88
806,28	1718,25
806,45	1697,77
806,63	1771,49
806,80	1677,29
806,97	1722,34
807,15	1773,54
807,32	1785,83
807,49	1712,10
807,67	1574,89
807,84	1669,09
808,01	1656,81
808,19	1812,45
808,36	1867,75
808,54	1671,14
808,71	1677,29
808,88	1679,33
809,06	1822,69
809,23	1783,78
809,40	1660,90
809,58	1685,48
809,75	1726,44
809,92	1535,98
810,10	1802,21
810,27	1728,49
810,44	1624,04
810,62	1718,25
810,79	1660,90
810,96	1624,04
811,14	1665,00
811,31	1675,24
811,48	1720,29
811,66	1759,21
811,83	1759,21
812,00	1673,19
812,18	1699,81
812,35	1812,45
812,52	1656,81
812,69	1578,98
812,87	1695,72
813,04	1648,61
813,21	1650,66
813,39	1642,47
813,56	1617,90
813,73	1818,60
813,91	1597,42
814,08	1685,48
814,25	1646,57
814,42	1568,74
814,60	1716,20
814,77	1763,30
814,94	1632,23
815,12	1632,23
815,29	1689,57
815,46	1669,09
815,63	1695,72
815,81	1585,13
815,98	1650,66
816,15	1722,34
816,33	1683,43
816,50	1669,09
816,67	1683,43
816,84	1693,67
817,02	1628,14
817,19	1681,38
817,36	1619,94
817,53	1656,81
817,71	1630,18
817,88	1685,48
818,05	1759,21
818,22	1708,01
818,40	1763,30
818,57	1650,66
818,74	1779,68
818,91	1595,37
819,09	1708,01
819,26	1677,29
819,43	1642,47
819,60	1669,09
819,78	1744,87
819,95	1777,64
820,12	1687,53
820,29	1746,92
820,47	1748,97
820,64	1669,09
820,81	1644,52
820,98	1560,55
821,15	1705,96
821,33	1652,71
821,50	1673,19
821,67	1761,25
821,84	1656,81
822,02	1683,43
822,19	1769,44
822,36	1708,01
822,53	1712,10
822,70	1603,56
822,88	1671,14
823,05	1712,10
823,22	1683,43
823,39	1738,73
823,56	1734,63
823,74	1755,11
823,91	1581,03
824,08	1624,04
824,25	1578,98
824,42	1710,05
824,60	1646,57
824,77	1708,01
824,94	1617,90
825,11	1691,62
825,28	1646,57
825,45	1740,77
825,63	1654,76
825,80	1677,29
825,97	1665,00
826,14	1679,33
826,31	1710,05
826,48	1732,58
826,66	1634,28
826,83	1642,47
827,00	1667,05
827,17	1656,81
827,34	1626,09
827,51	1673,19
827,69	1712,10
827,86	1677,29
828,03	1693,67
828,20	1634,28
828,37	1677,29
828,54	1763,30
828,71	1701,86
828,89	1781,73
829,06	1660,90
829,23	1787,88
829,40	1603,56
829,57	1685,48
829,74	1677,29
829,91	1576,94
830,09	1677,29
830,26	1773,54
830,43	1746,92
830,60	1716,20
830,77	1779,68
830,94	1738,73
831,11	1748,97
831,28	1673,19
831,46	1757,16
831,63	1673,19
831,80	1730,53
831,97	1638,38
832,14	1662,95
832,31	1763,30
832,48	1634,28
832,65	1740,77
832,82	1646,57
832,99	1746,92
833,17	1636,33
833,34	1738,73
833,51	1722,34
833,68	1562,60
833,85	1771,49
834,02	1658,85
834,19	1599,46
834,36	1650,66
834,53	1712,10
834,70	1746,92
834,87	1667,05
835,04	1714,15
835,22	1660,90
835,39	1710,05
835,56	1615,85
835,73	1669,09
835,90	1710,05
836,07	1701,86
836,24	1691,62
836,41	1638,38
836,58	1650,66
836,75	1800,16
836,92	1712,10
837,09	1609,70
837,26	1701,86
837,43	1679,33
837,60	1720,29
837,77	1697,77
837,94	1681,38
838,12	1748,97
838,29	1599,46
838,46	1673,19
838,63	1632,23
838,80	1761,25
838,97	1683,43
839,14	1697,77
839,31	1697,77
839,48	1738,73
839,65	1673,19
839,82	1687,53
839,99	1699,81
840,16	1648,61
840,33	1734,63
840,50	1722,34
840,67	1665,00
840,84	1546,22
841,01	1685,48
841,18	1728,49
841,35	1703,91
841,52	1712,10
841,69	1748,97
841,86	1759,21
842,03	1675,24
842,20	1695,72
842,37	1691,62
842,54	1665,00
842,71	1746,92
842,88	1640,42
843,05	1746,92
843,22	1718,25
843,39	1693,67
843,56	1665,00
843,73	1667,05
843,90	1730,53
844,07	1689,57
844,24	1783,78
844,41	1742,82
844,58	1726,44
844,75	1695,72
844,92	1755,11
845,09	1650,66
845,26	1656,81
845,43	1714,15
845,60	1718,25
845,77	1667,05
845,94	1705,96
846,10	1812,45
846,27	1630,18
846,44	1681,38
846,61	1607,66
846,78	1693,67
846,95	1771,49
847,12	1703,91
847,29	1687,53
847,46	1624,04
847,63	1701,86
847,80	1632,23
847,97	1638,38
848,14	1734,63
848,31	1681,38
848,48	1583,08
848,65	1613,80
848,82	1626,09
848,98	1826,79
849,15	1718,25
849,32	1759,21
849,49	1738,73
849,66	1652,71
849,83	1638,38
850,00	1585,13
850,17	1732,58
850,34	1656,81
850,51	1658,85
850,68	1656,81
850,85	1751,01
851,01	1746,92
851,18	1785,83
851,35	1634,28
851,52	1607,66
851,69	1800,16
851,86	1679,33
852,03	1632,23
852,20	1693,67
852,37	1658,85
852,53	1652,71
852,70	1728,49
852,87	1765,35
853,04	1730,53
853,21	1722,34
853,38	1775,59
853,55	1744,87
853,72	1718,25
853,89	1581,03
854,05	1724,39
854,22	1691,62
854,39	1691,62
854,56	1769,44
854,73	1767,40
854,90	1572,84
855,07	1685,48
855,23	1689,57
855,40	1716,20
855,57	1705,96
855,74	1615,85
855,91	1798,12
856,08	1644,52
856,25	1603,56
856,41	1689,57
856,58	1734,63
856,75	1703,91
856,92	1546,22
857,09	1759,21
857,26	1628,14
857,42	1689,57
857,59	1722,34
857,76	1648,61
857,93	1617,90
858,10	1759,21
858,27	1619,94
858,43	1679,33
858,60	1626,09
858,77	1619,94
858,94	1619,94
859,11	1718,25
859,27	1660,90
859,44	1665,00
859,61	1859,56
859,78	1685,48
859,95	1728,49
860,12	1605,61
860,28	1736,68
860,45	1845,22
860,62	1685,48
860,79	1718,25
860,95	1701,86
861,12	1621,99
861,29	1753,06
861,46	1675,24
861,63	1730,53
861,79	1759,21
861,96	1624,04
862,13	1585,13
862,30	1648,61
862,47	1609,70
862,63	1628,14
862,80	1769,44
862,97	1767,40
863,14	1701,86
863,30	1740,77
863,47	1638,38
863,64	1816,55
863,81	1665,00
863,97	1658,85
864,14	1685,48
864,31	1730,53
864,48	1716,20
864,65	1662,95
864,81	1740,77
864,98	1712,10
865,15	1697,77
865,32	1675,24
865,48	1705,96
865,65	1757,16
865,82	1646,57
865,98	1757,16
866,15	1771,49
866,32	1646,57
866,49	1675,24
866,65	1746,92
866,82	1675,24
866,99	1697,77
867,16	1648,61
867,32	1638,38
867,49	1726,44
867,66	1716,20
867,83	1669,09
867,99	1636,33
868,16	1634,28
868,33	1589,22
868,49	1724,39
868,66	1636,33
868,83	1691,62
868,99	1753,06
869,16	1701,86
869,33	1796,07
869,50	1802,21
869,66	1652,71
869,83	1665,00
870,00	1609,70
870,16	1679,33
870,33	1675,24
870,50	1761,25
870,66	1687,53
870,83	1841,12
871,00	1650,66
871,17	1703,91
871,33	1767,40
871,50	1624,04
871,67	1656,81
871,83	1560,55
872,00	1785,83
872,17	1619,94
872,33	1755,11
872,50	1791,97
872,67	1658,85
872,83	1708,01
873,00	1769,44
873,17	1679,33
873,33	1738,73
873,50	1632,23
873,67	1667,05
873,83	1646,57
874,00	1748,97
874,16	1783,78
874,33	1691,62
874,50	1566,70
874,66	1726,44
874,83	1699,81
875,00	1708,01
875,16	1769,44
875,33	1791,97
875,50	1531,88
875,66	1716,20
875,83	1744,87
875,99	1751,01
876,16	1683,43
876,33	1648,61
876,49	1736,68
876,66	1736,68
876,83	1675,24
876,99	1587,18
877,16	1636,33
877,32	1730,53
877,49	1652,71
877,66	1720,29
877,82	1746,92
877,99	1599,46
878,15	1658,85
878,32	1642,47
878,49	1695,72
878,65	1705,96
878,82	1759,21
878,98	1665,00
879,15	1714,15
879,32	1703,91
879,48	1767,40
879,65	1673,19
879,81	1675,24
879,98	1695,72
880,15	1685,48
880,31	1724,39
880,48	1638,38
880,64	1718,25
880,81	1679,33
880,97	1746,92
881,14	1724,39
881,31	1617,90
881,47	1802,21
881,64	1751,01
881,80	1636,33
881,97	1726,44
882,13	1683,43
882,30	1628,14
882,47	1658,85
882,63	1679,33
882,80	1705,96
882,96	1572,84
883,13	1726,44
883,29	1673,19
883,46	1703,91
883,62	1824,74
883,79	1724,39
883,95	1716,20
884,12	1689,57
884,29	1726,44
884,45	1611,75
884,62	1724,39
884,78	1675,24
884,95	1746,92
885,11	1669,09
885,28	1648,61
885,44	1691,62
885,61	1730,53
885,77	1779,68
885,94	1777,64
886,10	1646,57
886,27	1667,05
886,43	1808,36
886,60	1738,73
886,76	1640,42
886,93	1652,71
887,09	1759,21
887,26	1603,56
887,42	1691,62
887,59	1773,54
887,75	1902,56
887,92	1812,45
888,08	1730,53
888,25	1736,68
888,41	1757,16
888,58	1681,38
888,74	1624,04
888,91	1632,23
>>>>>End Processed Spectral Data<<<<<
