SpectraSuite Data File
++++++++++++++++++++++++++++++++++++
Date: Mon Jun 06 15:16:57 CEST 2016
User: root
Dark Spectrum Present: No
Reference Spectrum Present: No
Number of Sampled Component Spectra: 1
Spectrometers: USB4C02835
Integration Time (usec): 100000 (USB4C02835)
Spectra Averaged: 1 (USB4C02835)
Boxcar Smoothing: 0 (USB4C02835)
Correct for Electrical Dark: No (USB4C02835)
Strobe/Lamp Enabled: No (USB4C02835)
Correct for Detector Non-linearity: No (USB4C02835)
Correct for Stray Light: No (USB4C02835)
Number of Pixels in Processed Spectrum: 3648
>>>>>Begin Processed Spectral Data<<<<<
177,47	1521,64
177,69	1521,64
177,91	1521,64
178,13	1464,30
178,36	1454,06
178,58	1644,52
178,80	1738,73
179,02	1652,71
179,24	1617,90
179,46	1685,48
179,68	1767,40
179,90	1675,24
180,13	1783,78
180,35	1581,03
180,57	1689,57
180,79	1705,96
181,01	1665,00
181,23	1761,25
181,45	1746,92
181,67	1640,42
181,90	1730,53
182,12	1722,34
182,34	1654,76
182,56	1716,20
182,78	1699,81
183,00	1703,91
183,22	1695,72
183,44	1595,37
183,66	1902,56
183,89	1826,79
184,11	1734,63
184,33	1730,53
184,55	1789,92
184,77	1736,68
184,99	1738,73
185,21	1685,48
185,43	1877,99
185,65	1662,95
185,87	1714,15
186,10	1820,64
186,32	1787,88
186,54	1767,40
186,76	1787,88
186,98	1796,07
187,20	1652,71
187,42	1703,91
187,64	1734,63
187,86	1728,49
188,08	1705,96
188,30	1703,91
188,52	1785,83
188,75	1877,99
188,97	1791,97
189,19	1689,57
189,41	1685,48
189,63	1718,25
189,85	1671,14
190,07	1599,46
190,29	1589,22
190,51	1724,39
190,73	1685,48
190,95	1755,11
191,17	1650,66
191,39	1624,04
191,61	1658,85
191,84	1673,19
192,06	1734,63
192,28	1570,79
192,50	1845,22
192,72	1730,53
192,94	1742,82
193,16	1796,07
193,38	1824,74
193,60	1669,09
193,82	1763,30
194,04	1796,07
194,26	1681,38
194,48	1730,53
194,70	1689,57
194,92	1695,72
195,14	1841,12
195,36	1685,48
195,58	1724,39
195,80	1716,20
196,02	1708,01
196,24	1677,29
196,46	1746,92
196,69	1683,43
196,91	1845,22
197,13	1730,53
197,35	1665,00
197,57	1808,36
197,79	1722,34
198,01	1800,16
198,23	1705,96
198,45	1736,68
198,67	1615,85
198,89	1726,44
199,11	1703,91
199,33	1652,71
199,55	1603,56
199,77	1761,25
199,99	1740,77
200,21	1714,15
200,43	1718,25
200,65	1628,14
200,87	1566,70
201,09	1644,52
201,31	1740,77
201,53	1808,36
201,75	1705,96
201,97	1665,00
202,19	1734,63
202,41	1789,92
202,63	1808,36
202,85	1685,48
203,07	1710,05
203,29	1626,09
203,51	1669,09
203,73	1652,71
203,95	1865,70
204,17	1681,38
204,39	1757,16
204,61	1677,29
204,83	1720,29
205,05	1777,64
205,27	1722,34
205,49	1820,64
205,71	1755,11
205,93	1624,04
206,15	1652,71
206,37	1689,57
206,59	1677,29
206,81	1601,51
207,03	1626,09
207,25	1642,47
207,47	1769,44
207,69	1662,95
207,91	1710,05
208,13	1761,25
208,34	1708,01
208,56	1683,43
208,78	1806,31
209,00	1701,86
209,22	1708,01
209,44	1726,44
209,66	1646,57
209,88	1699,81
210,10	1755,11
210,32	1585,13
210,54	1751,01
210,76	1675,24
210,98	1732,58
211,20	1523,69
211,42	1646,57
211,64	1837,03
211,86	1699,81
212,08	1748,97
212,30	1761,25
212,52	1669,09
212,74	1718,25
212,96	1675,24
213,17	1734,63
213,39	1742,82
213,61	1787,88
213,83	1738,73
214,05	1650,66
214,27	1744,87
214,49	1701,86
214,71	1703,91
214,93	1783,78
215,15	1701,86
215,37	1783,78
215,59	1673,19
215,81	1763,30
216,03	1796,07
216,24	1693,67
216,46	1677,29
216,68	1785,83
216,90	1675,24
217,12	1712,10
217,34	1613,80
217,56	1660,90
217,78	1769,44
218,00	1724,39
218,22	1626,09
218,44	1740,77
218,66	1687,53
218,87	1751,01
219,09	1673,19
219,31	1765,35
219,53	1705,96
219,75	1691,62
219,97	1734,63
220,19	1742,82
220,41	1689,57
220,63	1861,60
220,85	1757,16
221,06	1689,57
221,28	1777,64
221,50	1763,30
221,72	1773,54
221,94	1703,91
222,16	1742,82
222,38	1806,31
222,60	1755,11
222,82	1726,44
223,03	1808,36
223,25	1621,99
223,47	1720,29
223,69	1882,08
223,91	1787,88
224,13	1742,82
224,35	1730,53
224,57	1742,82
224,78	1785,83
225,00	1718,25
225,22	1744,87
225,44	1679,33
225,66	1738,73
225,88	1701,86
226,10	1896,42
226,32	1755,11
226,53	1814,50
226,75	1695,72
226,97	1736,68
227,19	1677,29
227,41	1718,25
227,63	1626,09
227,85	1626,09
228,06	1718,25
228,28	1732,58
228,50	1744,87
228,72	1615,85
228,94	1730,53
229,16	1574,89
229,37	1720,29
229,59	1671,14
229,81	1779,68
230,03	1658,85
230,25	1648,61
230,47	1626,09
230,69	1630,18
230,90	1683,43
231,12	1718,25
231,34	1714,15
231,56	1843,17
231,78	1636,33
232,00	1724,39
232,21	1744,87
232,43	1665,00
232,65	1587,18
232,87	1773,54
233,09	1724,39
233,30	1699,81
233,52	1748,97
233,74	1691,62
233,96	1718,25
234,18	1724,39
234,40	1740,77
234,61	1886,18
234,83	1679,33
235,05	1646,57
235,27	1812,45
235,49	1738,73
235,70	1703,91
235,92	1728,49
236,14	1656,81
236,36	1705,96
236,58	1638,38
236,79	1703,91
237,01	1738,73
237,23	1736,68
237,45	1753,06
237,67	1691,62
237,88	1722,34
238,10	1804,26
238,32	1648,61
238,54	1720,29
238,76	1732,58
238,97	1634,28
239,19	1683,43
239,41	1746,92
239,63	1777,64
239,85	1689,57
240,06	1701,86
240,28	1634,28
240,50	1730,53
240,72	1718,25
240,93	1632,23
241,15	1779,68
241,37	1738,73
241,59	1779,68
241,81	1738,73
242,02	1740,77
242,24	1847,27
242,46	1685,48
242,68	1701,86
242,89	1685,48
243,11	1796,07
243,33	1730,53
243,55	1714,15
243,76	1757,16
243,98	1628,14
244,20	1724,39
244,42	1728,49
244,64	1734,63
244,85	1613,80
245,07	1624,04
245,29	1781,73
245,51	1738,73
245,72	1757,16
245,94	1734,63
246,16	1773,54
246,38	1730,53
246,59	1708,01
246,81	1689,57
247,03	1654,76
247,24	1621,99
247,46	1677,29
247,68	1667,05
247,90	1681,38
248,11	1728,49
248,33	1763,30
248,55	1720,29
248,77	1646,57
248,98	1765,35
249,20	1794,02
249,42	1734,63
249,64	1794,02
249,85	1652,71
250,07	1665,00
250,29	1820,64
250,50	1818,60
250,72	1675,24
250,94	1767,40
251,16	1841,12
251,37	1728,49
251,59	1798,12
251,81	1740,77
252,02	1800,16
252,24	1736,68
252,46	1787,88
252,68	1697,77
252,89	1652,71
253,11	1673,19
253,33	1794,02
253,54	1730,53
253,76	1603,56
253,98	1646,57
254,20	1699,81
254,41	1669,09
254,63	1722,34
254,85	1591,27
255,06	1708,01
255,28	1705,96
255,50	1667,05
255,71	1585,13
255,93	1648,61
256,15	1679,33
256,36	1816,55
256,58	1669,09
256,80	1796,07
257,02	1626,09
257,23	1693,67
257,45	1693,67
257,67	1810,40
257,88	1710,05
258,10	1775,59
258,32	1669,09
258,53	1732,58
258,75	1804,26
258,97	1734,63
259,18	1710,05
259,40	1673,19
259,62	1865,70
259,83	1849,32
260,05	1728,49
260,27	1968,10
260,48	1703,91
260,70	1634,28
260,92	1744,87
261,13	1699,81
261,35	1683,43
261,57	1748,97
261,78	1689,57
262,00	1687,53
262,22	1865,70
262,43	1632,23
262,65	1763,30
262,86	1705,96
263,08	1828,84
263,30	1738,73
263,51	1605,61
263,73	1697,77
263,95	1820,64
264,16	1695,72
264,38	1644,52
264,60	1714,15
264,81	1701,86
265,03	1765,35
265,25	1726,44
265,46	1648,61
265,68	1763,30
265,89	1769,44
266,11	1644,52
266,33	1796,07
266,54	1705,96
266,76	1794,02
266,98	1695,72
267,19	1746,92
267,41	1775,59
267,62	1726,44
267,84	1652,71
268,06	1748,97
268,27	1773,54
268,49	1791,97
268,70	1804,26
268,92	1693,67
269,14	1695,72
269,35	1572,84
269,57	1712,10
269,79	1726,44
270,00	1718,25
270,22	1796,07
270,43	1703,91
270,65	1603,56
270,87	1693,67
271,08	1777,64
271,30	1779,68
271,51	1773,54
271,73	1779,68
271,95	1832,93
272,16	1689,57
272,38	1712,10
272,59	1683,43
272,81	1708,01
273,02	1701,86
273,24	1738,73
273,46	1734,63
273,67	1667,05
273,89	1742,82
274,10	1665,00
274,32	1812,45
274,54	1732,58
274,75	1730,53
274,97	1755,11
275,18	1679,33
275,40	1636,33
275,61	1693,67
275,83	1746,92
276,05	1722,34
276,26	1669,09
276,48	1759,21
276,69	1654,76
276,91	1628,14
277,12	1753,06
277,34	1669,09
277,55	1734,63
277,77	1761,25
277,99	1695,72
278,20	1642,47
278,42	1691,62
278,63	1638,38
278,85	1689,57
279,06	1617,90
279,28	1751,01
279,49	1742,82
279,71	1771,49
279,93	1697,77
280,14	1646,57
280,36	1642,47
280,57	1781,73
280,79	1755,11
281,00	1683,43
281,22	1611,75
281,43	1773,54
281,65	1578,98
281,86	1656,81
282,08	1841,12
282,29	1863,65
282,51	1703,91
282,73	1648,61
282,94	1714,15
283,16	1718,25
283,37	1845,22
283,59	1665,00
283,80	1755,11
284,02	1603,56
284,23	1699,81
284,45	1593,32
284,66	1677,29
284,88	1660,90
285,09	1771,49
285,31	1769,44
285,52	1730,53
285,74	1560,55
285,95	1785,83
286,17	1736,68
286,38	1714,15
286,60	1673,19
286,81	1665,00
287,03	1632,23
287,24	1689,57
287,46	1771,49
287,67	1757,16
287,89	1810,40
288,10	1716,20
288,32	1712,10
288,53	1779,68
288,75	1685,48
288,96	1710,05
289,18	1640,42
289,39	1736,68
289,61	1775,59
289,82	1900,52
290,04	1794,02
290,25	1669,09
290,47	1669,09
290,68	1755,11
290,90	1781,73
291,11	1634,28
291,33	1697,77
291,54	1667,05
291,76	1624,04
291,97	1730,53
292,18	1681,38
292,40	1689,57
292,61	1658,85
292,83	1837,03
293,04	1791,97
293,26	1662,95
293,47	1675,24
293,69	1648,61
293,90	1722,34
294,12	1669,09
294,33	1671,14
294,55	1695,72
294,76	1777,64
294,97	1769,44
295,19	1824,74
295,40	1728,49
295,62	1714,15
295,83	1783,78
296,05	1611,75
296,26	1777,64
296,48	1640,42
296,69	1669,09
296,90	1718,25
297,12	1785,83
297,33	1753,06
297,55	1771,49
297,76	1818,60
297,98	1748,97
298,19	1744,87
298,41	1708,01
298,62	1675,24
298,83	1748,97
299,05	1728,49
299,26	1695,72
299,48	1681,38
299,69	1724,39
299,90	1697,77
300,12	1632,23
300,33	1767,40
300,55	1742,82
300,76	1748,97
300,98	1611,75
301,19	1724,39
301,40	1679,33
301,62	1714,15
301,83	1705,96
302,05	1748,97
302,26	1603,56
302,47	1816,55
302,69	1605,61
302,90	1736,68
303,12	1523,69
303,33	1775,59
303,54	1771,49
303,76	1705,96
303,97	1708,01
304,19	1789,92
304,40	1624,04
304,61	1685,48
304,83	1814,50
305,04	1820,64
305,26	1703,91
305,47	1679,33
305,68	1689,57
305,90	1697,77
306,11	1714,15
306,33	1675,24
306,54	1609,70
306,75	1710,05
306,97	1603,56
307,18	1710,05
307,39	1693,67
307,61	1767,40
307,82	1738,73
308,04	1722,34
308,25	1636,33
308,46	1695,72
308,68	1665,00
308,89	1679,33
309,10	1742,82
309,32	1769,44
309,53	1677,29
309,74	1783,78
309,96	1646,57
310,17	1748,97
310,39	1685,48
310,60	1712,10
310,81	1769,44
311,03	1699,81
311,24	1755,11
311,45	1730,53
311,67	1890,28
311,88	1789,92
312,09	1673,19
312,31	1681,38
312,52	1699,81
312,73	1652,71
312,95	1624,04
313,16	1681,38
313,37	1871,84
313,59	1703,91
313,80	1742,82
314,01	1880,04
314,23	1681,38
314,44	1714,15
314,65	1626,09
314,87	1722,34
315,08	1587,18
315,29	1728,49
315,51	1603,56
315,72	1640,42
315,93	1800,16
316,15	1826,79
316,36	1652,71
316,57	1714,15
316,79	1734,63
317,00	1646,57
317,21	1714,15
317,43	1648,61
317,64	1744,87
317,85	1695,72
318,07	1660,90
318,28	1724,39
318,49	1826,79
318,70	1945,57
318,92	1763,30
319,13	1857,51
319,34	1796,07
319,56	1818,60
319,77	1796,07
319,98	1779,68
320,20	1787,88
320,41	1730,53
320,62	1746,92
320,83	1660,90
321,05	1890,28
321,26	1738,73
321,47	1693,67
321,69	1789,92
321,90	1644,52
322,11	1656,81
322,32	1662,95
322,54	1800,16
322,75	1738,73
322,96	1814,50
323,18	1589,22
323,39	1609,70
323,60	1689,57
323,81	1828,84
324,03	1675,24
324,24	1693,67
324,45	1751,01
324,66	1736,68
324,88	1708,01
325,09	1769,44
325,30	1703,91
325,52	1771,49
325,73	1716,20
325,94	1673,19
326,15	1679,33
326,37	1693,67
326,58	1781,73
326,79	1820,64
327,00	1644,52
327,22	1738,73
327,43	1697,77
327,64	1574,89
327,85	1808,36
328,07	1755,11
328,28	1828,84
328,49	1701,86
328,70	1673,19
328,92	1773,54
329,13	1701,86
329,34	1716,20
329,55	1783,78
329,76	1705,96
329,98	1654,76
330,19	1781,73
330,40	1753,06
330,61	1708,01
330,83	1755,11
331,04	1677,29
331,25	1705,96
331,46	1677,29
331,68	1632,23
331,89	1714,15
332,10	1785,83
332,31	1677,29
332,52	1742,82
332,74	1761,25
332,95	1607,66
333,16	1708,01
333,37	1847,27
333,58	1699,81
333,80	1650,66
334,01	1656,81
334,22	1683,43
334,43	1667,05
334,64	1687,53
334,86	1611,75
335,07	1681,38
335,28	1740,77
335,49	1642,47
335,70	1765,35
335,92	1783,78
336,13	1841,12
336,34	1826,79
336,55	1781,73
336,76	1716,20
336,98	1615,85
337,19	1759,21
337,40	1867,75
337,61	1810,40
337,82	1691,62
338,04	1787,88
338,25	1699,81
338,46	1609,70
338,67	1687,53
338,88	1640,42
339,09	1591,27
339,31	1683,43
339,52	1685,48
339,73	1665,00
339,94	1763,30
340,15	1775,59
340,36	1673,19
340,58	1677,29
340,79	1689,57
341,00	1701,86
341,21	1746,92
341,42	1804,26
341,63	1712,10
341,85	1710,05
342,06	1720,29
342,27	1601,51
342,48	1767,40
342,69	1718,25
342,90	1765,35
343,12	1724,39
343,33	1742,82
343,54	1828,84
343,75	1802,21
343,96	1701,86
344,17	1714,15
344,38	1697,77
344,60	1675,24
344,81	1695,72
345,02	1683,43
345,23	1783,78
345,44	1789,92
345,65	1771,49
345,86	1746,92
346,07	1667,05
346,29	1699,81
346,50	1781,73
346,71	1755,11
346,92	1738,73
347,13	1816,55
347,34	1665,00
347,55	1681,38
347,76	1720,29
347,98	1617,90
348,19	1693,67
348,40	1802,21
348,61	1652,71
348,82	1746,92
349,03	1753,06
349,24	1677,29
349,45	1800,16
349,66	1615,85
349,88	1687,53
350,09	1681,38
350,30	1773,54
350,51	1773,54
350,72	1705,96
350,93	1753,06
351,14	1726,44
351,35	1722,34
351,56	1761,25
351,77	1751,01
351,99	1724,39
352,20	1802,21
352,41	1769,44
352,62	1650,66
352,83	1720,29
353,04	1761,25
353,25	1697,77
353,46	1812,45
353,67	1751,01
353,88	1601,51
354,09	1722,34
354,30	1701,86
354,52	1626,09
354,73	1730,53
354,94	1628,14
355,15	1722,34
355,36	1867,75
355,57	1601,51
355,78	1753,06
355,99	1693,67
356,20	1607,66
356,41	1798,12
356,62	1642,47
356,83	1732,58
357,04	1845,22
357,25	1626,09
357,46	1628,14
357,68	1574,89
357,89	1640,42
358,10	1714,15
358,31	1644,52
358,52	1755,11
358,73	1687,53
358,94	1591,27
359,15	1714,15
359,36	1734,63
359,57	1748,97
359,78	1716,20
359,99	1671,14
360,20	1656,81
360,41	1697,77
360,62	1685,48
360,83	1746,92
361,04	1812,45
361,25	1740,77
361,46	1783,78
361,67	1644,52
361,88	1759,21
362,09	1779,68
362,30	1767,40
362,51	1738,73
362,72	1714,15
362,93	1828,84
363,14	1773,54
363,35	1746,92
363,56	1613,80
363,78	1757,16
363,99	1734,63
364,20	1632,23
364,41	1730,53
364,62	1861,60
364,83	1734,63
365,04	1738,73
365,25	1705,96
365,46	1777,64
365,67	1652,71
365,88	1691,62
366,09	1665,00
366,30	1656,81
366,51	1691,62
366,72	1621,99
366,93	1724,39
367,14	1705,96
367,35	1820,64
367,56	1673,19
367,77	1880,04
367,98	1679,33
368,18	1714,15
368,39	1746,92
368,60	1646,57
368,81	1728,49
369,02	1796,07
369,23	1669,09
369,44	1589,22
369,65	1679,33
369,86	1769,44
370,07	1791,97
370,28	1724,39
370,49	1753,06
370,70	1765,35
370,91	1699,81
371,12	1601,51
371,33	1710,05
371,54	1730,53
371,75	1767,40
371,96	1558,50
372,17	1755,11
372,38	1714,15
372,59	1761,25
372,80	1730,53
373,01	1619,94
373,22	1691,62
373,43	1638,38
373,64	1640,42
373,85	1779,68
374,06	1779,68
374,26	1779,68
374,47	1671,14
374,68	1779,68
374,89	1769,44
375,10	1658,85
375,31	1816,55
375,52	1710,05
375,73	1660,90
375,94	1634,28
376,15	1830,88
376,36	1630,18
376,57	1753,06
376,78	1689,57
376,99	1746,92
377,20	1742,82
377,40	1755,11
377,61	1757,16
377,82	1697,77
378,03	1791,97
378,24	1744,87
378,45	1720,29
378,66	1699,81
378,87	1689,57
379,08	1691,62
379,29	1718,25
379,50	1816,55
379,71	1699,81
379,91	1757,16
380,12	1820,64
380,33	1730,53
380,54	1712,10
380,75	1609,70
380,96	1705,96
381,17	1771,49
381,38	1646,57
381,59	1708,01
381,80	1705,96
382,00	1837,03
382,21	1746,92
382,42	1865,70
382,63	1830,88
382,84	1746,92
383,05	1765,35
383,26	1822,69
383,47	1712,10
383,68	1763,30
383,88	1722,34
384,09	1787,88
384,30	1830,88
384,51	1699,81
384,72	1665,00
384,93	1658,85
385,14	1714,15
385,35	1759,21
385,55	1642,47
385,76	1744,87
385,97	1720,29
386,18	1626,09
386,39	1646,57
386,60	1658,85
386,81	1628,14
387,02	1714,15
387,22	1687,53
387,43	1748,97
387,64	1755,11
387,85	1873,89
388,06	2244,57
388,27	4116,42
388,48	6649,75
388,68	7991,17
388,89	9467,76
389,10	9537,39
389,31	8298,37
389,52	7460,75
389,73	6584,22
389,93	6072,23
390,14	5633,96
390,35	5185,46
390,56	4511,68
390,77	3809,22
390,98	2953,17
391,18	2443,23
391,39	2181,09
391,60	1898,47
391,81	1814,50
392,02	1734,63
392,23	1884,13
392,43	1742,82
392,64	1837,03
392,85	1708,01
393,06	1777,64
393,27	1667,05
393,47	1716,20
393,68	1677,29
393,89	1656,81
394,10	1777,64
394,31	1703,91
394,52	1677,29
394,72	1642,47
394,93	1791,97
395,14	1656,81
395,35	1730,53
395,56	1685,48
395,76	1712,10
395,97	1779,68
396,18	1796,07
396,39	1832,93
396,60	1978,34
396,80	1861,60
397,01	1867,75
397,22	1777,64
397,43	1785,83
397,64	1742,82
397,84	1785,83
398,05	1828,84
398,26	1826,79
398,47	1783,78
398,67	1724,39
398,88	1787,88
399,09	1701,86
399,30	1705,96
399,51	1738,73
399,71	1656,81
399,92	1708,01
400,13	1718,25
400,34	1740,77
400,54	1705,96
400,75	1886,18
400,96	1730,53
401,17	1734,63
401,37	1800,16
401,58	1673,19
401,79	1695,72
402,00	1892,32
402,21	2037,73
402,41	1947,62
402,62	1918,95
402,83	1992,67
403,04	1947,62
403,24	2021,35
403,45	1806,31
403,66	1937,38
403,87	1804,26
404,07	1902,56
404,28	1828,84
404,49	1931,23
404,70	1736,68
404,90	1779,68
405,11	1722,34
405,32	1712,10
405,52	1701,86
405,73	1693,67
405,94	1775,59
406,15	1687,53
406,35	1769,44
406,56	1722,34
406,77	1748,97
406,98	1722,34
407,18	1693,67
407,39	1806,31
407,60	1665,00
407,80	1751,01
408,01	1654,76
408,22	1701,86
408,43	1648,61
408,63	1722,34
408,84	1759,21
409,05	1705,96
409,25	1621,99
409,46	1738,73
409,67	1720,29
409,88	1728,49
410,08	1804,26
410,29	1701,86
410,50	1757,16
410,70	1769,44
410,91	1693,67
411,12	1759,21
411,32	1650,66
411,53	1662,95
411,74	1775,59
411,95	1812,45
412,15	1734,63
412,36	1746,92
412,57	1718,25
412,77	1814,50
412,98	1748,97
413,19	1757,16
413,39	1689,57
413,60	1759,21
413,81	1794,02
414,01	1624,04
414,22	1732,58
414,43	1763,30
414,63	1687,53
414,84	1740,77
415,05	1712,10
415,25	1585,13
415,46	1753,06
415,67	1746,92
415,87	1742,82
416,08	1683,43
416,29	1701,86
416,49	1804,26
416,70	1697,77
416,91	1644,52
417,11	1697,77
417,32	1775,59
417,53	1740,77
417,73	1742,82
417,94	1691,62
418,15	1675,24
418,35	1783,78
418,56	1757,16
418,77	1828,84
418,97	1679,33
419,18	1734,63
419,38	1611,75
419,59	1697,77
419,80	1781,73
420,00	1642,47
420,21	1722,34
420,42	1845,22
420,62	1677,29
420,83	1667,05
421,04	1775,59
421,24	1669,09
421,45	1763,30
421,65	1697,77
421,86	1728,49
422,07	1730,53
422,27	1656,81
422,48	1722,34
422,69	1705,96
422,89	1697,77
423,10	1761,25
423,30	1654,76
423,51	1781,73
423,72	1667,05
423,92	1759,21
424,13	1615,85
424,33	1716,20
424,54	1796,07
424,75	1685,48
424,95	1837,03
425,16	1693,67
425,36	1734,63
425,57	1687,53
425,78	1812,45
425,98	1763,30
426,19	1693,67
426,39	1689,57
426,60	1751,01
426,81	1832,93
427,01	1834,98
427,22	1740,77
427,42	1619,94
427,63	1644,52
427,83	1822,69
428,04	1781,73
428,25	1722,34
428,45	1761,25
428,66	1761,25
428,86	1691,62
429,07	1697,77
429,28	1683,43
429,48	1626,09
429,69	1699,81
429,89	1808,36
430,10	1691,62
430,30	1720,29
430,51	1720,29
430,71	1695,72
430,92	1685,48
431,13	1714,15
431,33	1730,53
431,54	1746,92
431,74	1763,30
431,95	1855,46
432,15	1656,81
432,36	1695,72
432,56	1769,44
432,77	1824,74
432,98	1783,78
433,18	1681,38
433,39	1714,15
433,59	1763,30
433,80	1822,69
434,00	1841,12
434,21	1742,82
434,41	1691,62
434,62	1871,84
434,82	1708,01
435,03	1648,61
435,23	1769,44
435,44	1593,32
435,64	1726,44
435,85	1751,01
436,06	1822,69
436,26	1785,83
436,47	1667,05
436,67	1753,06
436,88	1734,63
437,08	1738,73
437,29	1894,37
437,49	1734,63
437,70	1794,02
437,90	1744,87
438,11	1859,56
438,31	1806,31
438,52	1923,04
438,72	1873,89
438,93	1796,07
439,13	1787,88
439,34	1849,32
439,54	1796,07
439,75	1759,21
439,95	1761,25
440,16	1656,81
440,36	1781,73
440,57	1779,68
440,77	1781,73
440,98	1761,25
441,18	1695,72
441,39	1697,77
441,59	1712,10
441,80	1828,84
442,00	1755,11
442,21	1804,26
442,41	1695,72
442,62	1751,01
442,82	1705,96
443,02	1822,69
443,23	1757,16
443,43	1767,40
443,64	1794,02
443,84	1712,10
444,05	1798,12
444,25	1705,96
444,46	1732,58
444,66	1738,73
444,87	1796,07
445,07	1566,70
445,28	1791,97
445,48	1816,55
445,69	1695,72
445,89	1923,04
446,09	1841,12
446,30	1964,00
446,50	2625,50
446,71	3792,84
446,91	4179,90
447,12	4626,36
447,32	4648,89
447,53	4308,93
447,73	3798,98
447,93	3393,48
448,14	3313,61
448,34	3166,16
448,55	2836,44
448,75	2684,89
448,96	2631,64
449,16	2363,36
449,36	2240,48
449,57	2060,26
449,77	1898,47
449,98	1738,73
450,18	1802,21
450,39	1894,37
450,59	1765,35
450,79	1691,62
451,00	1742,82
451,20	1812,45
451,41	1757,16
451,61	1816,55
451,81	1738,73
452,02	1675,24
452,22	1722,34
452,43	1648,61
452,63	1738,73
452,84	1810,40
453,04	1738,73
453,24	1767,40
453,45	1734,63
453,65	1646,57
453,86	1789,92
454,06	1720,29
454,26	1693,67
454,47	1646,57
454,67	1796,07
454,87	1685,48
455,08	1728,49
455,28	1857,51
455,49	1789,92
455,69	1736,68
455,89	1755,11
456,10	1902,56
456,30	1732,58
456,51	1744,87
456,71	1699,81
456,91	1755,11
457,12	1763,30
457,32	1787,88
457,52	1691,62
457,73	1841,12
457,93	1804,26
458,14	1718,25
458,34	1628,14
458,54	1671,14
458,75	1685,48
458,95	1718,25
459,15	1800,16
459,36	1847,27
459,56	1763,30
459,76	1849,32
459,97	1685,48
460,17	1730,53
460,37	1806,31
460,58	1757,16
460,78	1738,73
460,99	1673,19
461,19	1681,38
461,39	1669,09
461,60	1697,77
461,80	1765,35
462,00	1761,25
462,21	1771,49
462,41	1748,97
462,61	1658,85
462,82	1730,53
463,02	1818,60
463,22	1796,07
463,43	1777,64
463,63	1703,91
463,83	1742,82
464,04	1738,73
464,24	1691,62
464,44	1740,77
464,64	1769,44
464,85	1775,59
465,05	1763,30
465,25	1783,78
465,46	1722,34
465,66	1710,05
465,86	1763,30
466,07	1789,92
466,27	1738,73
466,47	1626,09
466,68	1718,25
466,88	1826,79
467,08	1718,25
467,29	1791,97
467,49	1796,07
467,69	1796,07
467,89	1687,53
468,10	1734,63
468,30	1808,36
468,50	1865,70
468,71	1724,39
468,91	1601,51
469,11	1882,08
469,31	1804,26
469,52	1640,42
469,72	1796,07
469,92	1834,98
470,13	1742,82
470,33	1775,59
470,53	1910,75
470,73	2050,02
470,94	2220,00
471,14	2269,15
471,34	2506,71
471,54	2469,85
471,75	2265,05
471,95	2215,90
472,15	2185,18
472,36	2101,22
472,56	2068,45
472,76	2072,54
472,96	1923,04
473,17	1902,56
473,37	1929,19
473,57	1783,78
473,77	1832,93
473,98	1734,63
474,18	1660,90
474,38	1931,23
474,58	1699,81
474,79	1701,86
474,99	1744,87
475,19	1808,36
475,39	1683,43
475,60	1761,25
475,80	1783,78
476,00	1718,25
476,20	1660,90
476,41	1783,78
476,61	1841,12
476,81	1824,74
477,01	1705,96
477,21	1849,32
477,42	1787,88
477,62	1695,72
477,82	1800,16
478,02	1701,86
478,23	1738,73
478,43	1685,48
478,63	1685,48
478,83	1767,40
479,03	1779,68
479,24	1820,64
479,44	1839,08
479,64	1689,57
479,84	1679,33
480,04	1683,43
480,25	1826,79
480,45	1763,30
480,65	1708,01
480,85	1773,54
481,06	1697,77
481,26	1802,21
481,46	1695,72
481,66	1738,73
481,86	1591,27
482,06	1703,91
482,27	1718,25
482,47	1785,83
482,67	1794,02
482,87	1716,20
483,07	1738,73
483,28	1695,72
483,48	1726,44
483,68	1726,44
483,88	1673,19
484,08	1650,66
484,29	1667,05
484,49	1781,73
484,69	1673,19
484,89	1701,86
485,09	1738,73
485,29	1720,29
485,50	1812,45
485,70	1679,33
485,90	1810,40
486,10	1753,06
486,30	1808,36
486,50	1787,88
486,71	1746,92
486,91	1781,73
487,11	1820,64
487,31	1652,71
487,51	1679,33
487,71	1646,57
487,91	1757,16
488,12	1665,00
488,32	1671,14
488,52	1701,86
488,72	1619,94
488,92	1689,57
489,12	1808,36
489,32	1744,87
489,53	1781,73
489,73	1683,43
489,93	1847,27
490,13	1691,62
490,33	1683,43
490,53	1812,45
490,73	1720,29
490,94	1665,00
491,14	1783,78
491,34	1822,69
491,54	2041,82
491,74	2504,67
491,94	2936,79
492,14	2969,55
492,34	3047,38
492,54	2615,26
492,75	2490,33
492,95	2385,88
493,15	2387,93
493,35	2273,25
493,55	2228,19
493,75	2101,22
493,95	2111,46
494,15	1961,95
494,35	1935,33
494,56	1834,98
494,76	1740,77
494,96	1763,30
495,16	1744,87
495,36	1765,35
495,56	1759,21
495,76	1724,39
495,96	1705,96
496,16	1740,77
496,36	1849,32
496,56	1712,10
496,77	1755,11
496,97	1800,16
497,17	1757,16
497,37	1710,05
497,57	1755,11
497,77	1691,62
497,97	1689,57
498,17	1742,82
498,37	1691,62
498,57	1724,39
498,77	1652,71
498,97	1763,30
499,17	1837,03
499,38	1701,86
499,58	1742,82
499,78	1771,49
499,98	1861,60
500,18	1787,88
500,38	1740,77
500,58	1931,23
500,78	2467,80
500,98	4466,62
501,18	5814,18
501,38	6649,75
501,58	7139,22
501,78	6576,03
501,98	5418,93
502,18	4749,24
502,38	4288,45
502,58	4075,46
502,78	3657,67
502,98	3606,47
503,18	3356,62
503,38	3049,43
503,59	2750,42
503,79	2600,92
503,99	2459,61
504,19	2318,30
504,39	2168,80
504,59	2144,22
504,79	2111,46
504,99	2133,98
505,19	1877,99
505,39	1861,60
505,59	1961,95
505,79	1855,46
505,99	1865,70
506,19	1837,03
506,39	1867,75
506,59	1714,15
506,79	1740,77
506,99	1894,37
507,19	1779,68
507,39	1751,01
507,59	1611,75
507,79	1693,67
507,99	1656,81
508,19	1693,67
508,39	1718,25
508,59	1812,45
508,79	1855,46
508,99	1853,41
509,19	1665,00
509,39	1810,40
509,59	1712,10
509,79	1681,38
509,99	1789,92
510,19	1771,49
510,39	1804,26
510,59	1763,30
510,79	1748,97
510,99	1656,81
511,19	1761,25
511,39	1845,22
511,59	1855,46
511,79	1767,40
511,99	1773,54
512,19	1800,16
512,38	1775,59
512,58	1718,25
512,78	1779,68
512,98	1779,68
513,18	1873,89
513,38	1691,62
513,58	1828,84
513,78	1703,91
513,98	1708,01
514,18	1765,35
514,38	1789,92
514,58	1763,30
514,78	1722,34
514,98	1687,53
515,18	1783,78
515,38	1720,29
515,58	1873,89
515,78	1691,62
515,98	1720,29
516,18	1787,88
516,38	1714,15
516,57	1656,81
516,77	1671,14
516,97	1802,21
517,17	1648,61
517,37	1677,29
517,57	1779,68
517,77	1740,77
517,97	1687,53
518,17	1787,88
518,37	1699,81
518,57	1634,28
518,77	1679,33
518,97	1773,54
519,16	1746,92
519,36	1753,06
519,56	1751,01
519,76	1734,63
519,96	1722,34
520,16	1826,79
520,36	1650,66
520,56	1847,27
520,76	1794,02
520,96	1710,05
521,16	1837,03
521,35	1755,11
521,55	1882,08
521,75	1742,82
521,95	1665,00
522,15	1679,33
522,35	1640,42
522,55	1671,14
522,75	1820,64
522,95	1687,53
523,14	1736,68
523,34	1675,24
523,54	1769,44
523,74	1765,35
523,94	1695,72
524,14	1714,15
524,34	1765,35
524,54	1812,45
524,73	1734,63
524,93	1779,68
525,13	1740,77
525,33	1669,09
525,53	1920,99
525,73	1816,55
525,93	1751,01
526,13	1710,05
526,32	1794,02
526,52	1759,21
526,72	1847,27
526,92	1740,77
527,12	1701,86
527,32	1624,04
527,52	1800,16
527,71	1820,64
527,91	1755,11
528,11	1720,29
528,31	1773,54
528,51	1662,95
528,71	1695,72
528,90	1716,20
529,10	1804,26
529,30	1773,54
529,50	1605,61
529,70	1763,30
529,90	1794,02
530,09	1773,54
530,29	1718,25
530,49	1730,53
530,69	1806,31
530,89	1767,40
531,09	1761,25
531,28	1695,72
531,48	1771,49
531,68	1757,16
531,88	1736,68
532,08	1794,02
532,28	1746,92
532,47	1804,26
532,67	1783,78
532,87	1789,92
533,07	1726,44
533,27	1683,43
533,46	1785,83
533,66	1826,79
533,86	1769,44
534,06	1716,20
534,26	1798,12
534,45	1710,05
534,65	1798,12
534,85	1759,21
535,05	1626,09
535,25	1853,41
535,44	1619,94
535,64	1773,54
535,84	1695,72
536,04	1667,05
536,24	1701,86
536,43	1716,20
536,63	1808,36
536,83	1804,26
537,03	1789,92
537,22	1685,48
537,42	1724,39
537,62	1771,49
537,82	1714,15
538,02	1779,68
538,21	1785,83
538,41	1867,75
538,61	1777,64
538,81	1685,48
539,00	1804,26
539,20	1648,61
539,40	1730,53
539,60	1748,97
539,79	1818,60
539,99	1722,34
540,19	1705,96
540,39	1710,05
540,58	1744,87
540,78	1812,45
540,98	1810,40
541,18	1773,54
541,37	1826,79
541,57	1714,15
541,77	1763,30
541,97	1679,33
542,16	1677,29
542,36	1746,92
542,56	1697,77
542,76	1771,49
542,95	1826,79
543,15	1818,60
543,35	1767,40
543,54	1667,05
543,74	1705,96
543,94	1841,12
544,14	1599,46
544,33	1740,77
544,53	1714,15
544,73	1736,68
544,93	1701,86
545,12	1736,68
545,32	1765,35
545,52	1667,05
545,71	1685,48
545,91	1748,97
546,11	1746,92
546,30	1710,05
546,50	1718,25
546,70	1791,97
546,90	1736,68
547,09	1716,20
547,29	1732,58
547,49	1771,49
547,68	1742,82
547,88	1740,77
548,08	1767,40
548,27	2109,41
548,47	1724,39
548,67	1779,68
548,87	1757,16
549,06	1703,91
549,26	1691,62
549,46	1783,78
549,65	1757,16
549,85	1767,40
550,05	1779,68
550,24	1660,90
550,44	1732,58
550,64	1808,36
550,83	1765,35
551,03	1781,73
551,23	1800,16
551,42	1777,64
551,62	1759,21
551,82	1712,10
552,01	1767,40
552,21	1857,51
552,41	1751,01
552,60	1773,54
552,80	1787,88
553,00	1714,15
553,19	1779,68
553,39	1839,08
553,59	1656,81
553,78	1753,06
553,98	1787,88
554,17	1697,77
554,37	1751,01
554,57	1724,39
554,76	1658,85
554,96	1718,25
555,16	1746,92
555,35	1841,12
555,55	1746,92
555,75	1822,69
555,94	1769,44
556,14	1658,85
556,33	1775,59
556,53	1730,53
556,73	1742,82
556,92	1822,69
557,12	1865,70
557,32	1841,12
557,51	1863,65
557,71	1744,87
557,90	1808,36
558,10	1894,37
558,30	1675,24
558,49	1730,53
558,69	1771,49
558,88	1755,11
559,08	1769,44
559,28	1677,29
559,47	1755,11
559,67	1787,88
559,86	1873,89
560,06	1714,15
560,26	1783,78
560,45	1837,03
560,65	1771,49
560,84	1794,02
561,04	1773,54
561,24	1683,43
561,43	1634,28
561,63	1890,28
561,82	1746,92
562,02	1771,49
562,22	1751,01
562,41	1708,01
562,61	1748,97
562,80	1615,85
563,00	1935,33
563,19	1783,78
563,39	1748,97
563,59	1789,92
563,78	1689,57
563,98	1617,90
564,17	1724,39
564,37	1658,85
564,56	1689,57
564,76	1701,86
564,96	1769,44
565,15	1773,54
565,35	1847,27
565,54	1722,34
565,74	1763,30
565,93	1689,57
566,13	1791,97
566,32	1773,54
566,52	1798,12
566,71	1689,57
566,91	1785,83
567,11	1755,11
567,30	1687,53
567,50	1673,19
567,69	1716,20
567,89	1755,11
568,08	1652,71
568,28	1753,06
568,47	1765,35
568,67	1716,20
568,86	1697,77
569,06	1857,51
569,25	1773,54
569,45	1730,53
569,64	1732,58
569,84	1689,57
570,04	1804,26
570,23	1685,48
570,43	1726,44
570,62	1785,83
570,82	1789,92
571,01	1726,44
571,21	1681,38
571,40	1746,92
571,60	1765,35
571,79	1802,21
571,99	1726,44
572,18	1642,47
572,38	1796,07
572,57	1732,58
572,77	1755,11
572,96	1945,57
573,16	1712,10
573,35	1751,01
573,55	1845,22
573,74	1787,88
573,94	1736,68
574,13	1689,57
574,33	1779,68
574,52	1861,60
574,71	1705,96
574,91	1748,97
575,10	1720,29
575,30	1693,67
575,49	1654,76
575,69	1718,25
575,88	1699,81
576,08	1693,67
576,27	1839,08
576,47	1773,54
576,66	1853,41
576,86	1796,07
577,05	1693,67
577,25	1775,59
577,44	1877,99
577,64	1644,52
577,83	1886,18
578,02	1730,53
578,22	1767,40
578,41	1843,17
578,61	1748,97
578,80	1673,19
579,00	1718,25
579,19	1728,49
579,39	1708,01
579,58	1832,93
579,77	1732,58
579,97	1861,60
580,16	1796,07
580,36	1832,93
580,55	1769,44
580,75	1726,44
580,94	1769,44
581,13	1800,16
581,33	1839,08
581,52	1746,92
581,72	1863,65
581,91	1894,37
582,11	1734,63
582,30	1791,97
582,49	1787,88
582,69	1787,88
582,88	1839,08
583,08	1775,59
583,27	1808,36
583,47	1744,87
583,66	1724,39
583,85	1746,92
584,05	1773,54
584,24	1800,16
584,44	1724,39
584,63	1867,75
584,82	1830,88
585,02	1863,65
585,21	1845,22
585,41	1794,02
585,60	1783,78
585,79	1943,52
585,99	1927,14
586,18	1843,17
586,37	2136,03
586,57	3299,28
586,76	9705,32
586,96	23793,30
587,15	33715,71
587,34	39597,48
587,54	41321,87
587,73	35573,22
587,93	25392,76
588,12	21126,85
588,31	17604,34
588,51	15845,13
588,70	14722,85
588,89	13719,34
589,09	12244,81
589,28	10555,23
589,47	9119,60
589,67	7692,17
589,86	6238,11
590,06	4825,01
590,25	3698,63
590,44	3108,82
590,64	2562,01
590,83	2275,29
591,02	2035,68
591,22	2002,91
591,41	1955,81
591,60	1851,36
591,80	1886,18
591,99	1718,25
592,18	1822,69
592,38	1877,99
592,57	1685,48
592,76	1740,77
592,96	1861,60
593,15	1671,14
593,34	1853,41
593,54	1703,91
593,73	1753,06
593,92	1771,49
594,12	1808,36
594,31	1740,77
594,50	1882,08
594,70	1816,55
594,89	1843,17
595,08	1681,38
595,28	1738,73
595,47	1980,39
595,66	1810,40
595,86	1669,09
596,05	1734,63
596,24	1804,26
596,43	1851,36
596,63	1806,31
596,82	1718,25
597,01	1730,53
597,21	1837,03
597,40	1808,36
597,59	1755,11
597,79	1636,33
597,98	1787,88
598,17	1775,59
598,36	1765,35
598,56	1781,73
598,75	1669,09
598,94	1759,21
599,14	1683,43
599,33	1705,96
599,52	1794,02
599,71	1751,01
599,91	1775,59
600,10	1789,92
600,29	1732,58
600,48	1787,88
600,68	1791,97
600,87	1742,82
601,06	1726,44
601,26	1814,50
601,45	1763,30
601,64	1826,79
601,83	1857,51
602,03	1728,49
602,22	1730,53
602,41	1828,84
602,60	1912,80
602,80	1783,78
602,99	1712,10
603,18	1630,18
603,37	1716,20
603,57	1806,31
603,76	1726,44
603,95	1822,69
604,14	1681,38
604,34	1667,05
604,53	1708,01
604,72	1736,68
604,91	1705,96
605,10	1738,73
605,30	1726,44
605,49	1880,04
605,68	1837,03
605,87	1818,60
606,07	1771,49
606,26	1712,10
606,45	1849,32
606,64	1726,44
606,84	1728,49
607,03	1710,05
607,22	1820,64
607,41	1720,29
607,60	1738,73
607,80	1775,59
607,99	1662,95
608,18	1800,16
608,37	1834,98
608,56	1712,10
608,76	1832,93
608,95	1851,36
609,14	1697,77
609,33	1748,97
609,52	1861,60
609,72	1757,16
609,91	1746,92
610,10	1755,11
610,29	1814,50
610,48	1748,97
610,68	1791,97
610,87	1742,82
611,06	1791,97
611,25	1708,01
611,44	1798,12
611,63	1738,73
611,83	1849,32
612,02	1675,24
612,21	1830,88
612,40	1632,23
612,59	1734,63
612,79	1722,34
612,98	1730,53
613,17	1783,78
613,36	1832,93
613,55	1818,60
613,74	1646,57
613,93	1685,48
614,13	1699,81
614,32	1732,58
614,51	1802,21
614,70	1775,59
614,89	1722,34
615,08	1734,63
615,28	2146,27
615,47	1695,72
615,66	1820,64
615,85	1714,15
616,04	1806,31
616,23	1787,88
616,42	1740,77
616,62	1759,21
616,81	1779,68
617,00	1757,16
617,19	1759,21
617,38	1763,30
617,57	1769,44
617,76	1693,67
617,95	1808,36
618,15	1718,25
618,34	1910,75
618,53	1656,81
618,72	1771,49
618,91	1814,50
619,10	1824,74
619,29	1671,14
619,48	1740,77
619,68	1644,52
619,87	1726,44
620,06	1648,61
620,25	1796,07
620,44	1720,29
620,63	1728,49
620,82	1695,72
621,01	1742,82
621,20	1728,49
621,39	1798,12
621,59	1744,87
621,78	1691,62
621,97	1656,81
622,16	1746,92
622,35	1767,40
622,54	1783,78
622,73	1787,88
622,92	1642,47
623,11	1763,30
623,30	1722,34
623,49	1732,58
623,68	1759,21
623,88	1820,64
624,07	1785,83
624,26	1785,83
624,45	1779,68
624,64	1695,72
624,83	1681,38
625,02	1673,19
625,21	1726,44
625,40	1800,16
625,59	1849,32
625,78	1669,09
625,97	1687,53
626,16	1708,01
626,35	1789,92
626,54	1669,09
626,74	1834,98
626,93	1691,62
627,12	1669,09
627,31	1834,98
627,50	1726,44
627,69	1791,97
627,88	1675,24
628,07	1738,73
628,26	1671,14
628,45	1746,92
628,64	1646,57
628,83	1785,83
629,02	1679,33
629,21	1800,16
629,40	1740,77
629,59	1730,53
629,78	1626,09
629,97	1683,43
630,16	1730,53
630,35	1691,62
630,54	1765,35
630,73	1611,75
630,92	1677,29
631,11	1677,29
631,30	1785,83
631,49	1748,97
631,68	1720,29
631,87	1773,54
632,06	1669,09
632,25	1820,64
632,44	1658,85
632,63	1714,15
632,82	1728,49
633,01	1716,20
633,20	1669,09
633,39	1662,95
633,58	1624,04
633,77	1699,81
633,96	1769,44
634,15	1812,45
634,34	1714,15
634,53	1800,16
634,72	1761,25
634,91	1683,43
635,10	1734,63
635,29	1789,92
635,48	1761,25
635,67	1714,15
635,86	1708,01
636,05	1767,40
636,24	1695,72
636,43	1748,97
636,62	1787,88
636,81	1603,56
637,00	1699,81
637,19	1757,16
637,38	1650,66
637,57	1714,15
637,76	1685,48
637,95	1769,44
638,14	1714,15
638,33	1677,29
638,52	1769,44
638,71	1640,42
638,89	1656,81
639,08	1851,36
639,27	1763,30
639,46	1726,44
639,65	1765,35
639,84	1767,40
640,03	1746,92
640,22	1673,19
640,41	1857,51
640,60	1685,48
640,79	1763,30
640,98	1658,85
641,17	1771,49
641,36	1755,11
641,55	1728,49
641,74	1726,44
641,92	1748,97
642,11	1572,84
642,30	1685,48
642,49	1665,00
642,68	1689,57
642,87	1724,39
643,06	1794,02
643,25	1660,90
643,44	1714,15
643,63	1720,29
643,82	1748,97
644,00	1687,53
644,19	1744,87
644,38	1605,61
644,57	1796,07
644,76	1691,62
644,95	1699,81
645,14	1748,97
645,33	1744,87
645,52	1724,39
645,71	1660,90
645,89	1656,81
646,08	1662,95
646,27	1671,14
646,46	1802,21
646,65	1619,94
646,84	1787,88
647,03	1640,42
647,22	1800,16
647,40	1759,21
647,59	1732,58
647,78	1581,03
647,97	1708,01
648,16	1675,24
648,35	1759,21
648,54	1789,92
648,73	1644,52
648,91	1828,84
649,10	1695,72
649,29	1603,56
649,48	1828,84
649,67	1726,44
649,86	1796,07
650,05	1742,82
650,23	1781,73
650,42	1685,48
650,61	1722,34
650,80	1701,86
650,99	1871,84
651,18	1787,88
651,36	1802,21
651,55	1642,47
651,74	1822,69
651,93	1718,25
652,12	1714,15
652,31	1660,90
652,49	1662,95
652,68	1748,97
652,87	1804,26
653,06	1826,79
653,25	1845,22
653,44	1738,73
653,62	1779,68
653,81	1687,53
654,00	1779,68
654,19	1728,49
654,38	1845,22
654,56	1769,44
654,75	1820,64
654,94	1798,12
655,13	1751,01
655,32	1740,77
655,51	1705,96
655,69	1685,48
655,88	1761,25
656,07	1632,23
656,26	1765,35
656,45	1683,43
656,63	1681,38
656,82	1763,30
657,01	1744,87
657,20	1804,26
657,38	1781,73
657,57	1771,49
657,76	1746,92
657,95	1771,49
658,14	1679,33
658,32	1742,82
658,51	1695,72
658,70	1720,29
658,89	1724,39
659,08	1720,29
659,26	1845,22
659,45	1609,70
659,64	1710,05
659,83	1705,96
660,01	1976,29
660,20	1691,62
660,39	1722,34
660,58	1644,52
660,76	1791,97
660,95	1665,00
661,14	1669,09
661,33	1617,90
661,51	1681,38
661,70	1679,33
661,89	1718,25
662,08	1748,97
662,26	1640,42
662,45	1662,95
662,64	1830,88
662,83	1689,57
663,01	1691,62
663,20	1755,11
663,39	1769,44
663,58	1740,77
663,76	1767,40
663,95	1740,77
664,14	1703,91
664,32	1708,01
664,51	1650,66
664,70	1617,90
664,89	1771,49
665,07	1740,77
665,26	1812,45
665,45	1667,05
665,64	1773,54
665,82	1730,53
666,01	1798,12
666,20	1667,05
666,38	1861,60
666,57	1767,40
666,76	2150,37
666,95	4571,07
667,13	10192,74
667,32	14948,12
667,51	17309,43
667,69	18642,66
667,88	17207,03
668,07	12011,34
668,25	9344,88
668,44	7935,88
668,63	7212,95
668,81	6662,04
669,00	6068,13
669,19	5633,96
669,38	4988,85
669,56	4337,60
669,75	3901,38
669,94	3354,57
670,12	2834,39
670,31	2519,00
670,50	2332,64
670,68	1968,10
670,87	1898,47
671,06	1757,16
671,24	1712,10
671,43	1855,46
671,62	1808,36
671,80	1744,87
671,99	1722,34
672,18	1732,58
672,36	1785,83
672,55	1777,64
672,74	1697,77
672,92	1693,67
673,11	1796,07
673,29	1738,73
673,48	1779,68
673,67	1665,00
673,85	1746,92
674,04	1648,61
674,23	1812,45
674,41	1818,60
674,60	1648,61
674,79	1595,37
674,97	1624,04
675,16	1828,84
675,34	1769,44
675,53	1708,01
675,72	1775,59
675,90	1814,50
676,09	1689,57
676,28	1724,39
676,46	1611,75
676,65	1730,53
676,83	1665,00
677,02	1714,15
677,21	1781,73
677,39	1722,34
677,58	1662,95
677,77	1611,75
677,95	1679,33
678,14	1685,48
678,32	1691,62
678,51	1675,24
678,70	1890,28
678,88	1685,48
679,07	1730,53
679,25	1665,00
679,44	1626,09
679,63	1675,24
679,81	1751,01
680,00	1734,63
680,18	1787,88
680,37	1804,26
680,55	1798,12
680,74	1658,85
680,93	1615,85
681,11	1669,09
681,30	1708,01
681,48	1722,34
681,67	1677,29
681,85	1669,09
682,04	1656,81
682,23	1697,77
682,41	1757,16
682,60	1744,87
682,78	1746,92
682,97	1646,57
683,15	1697,77
683,34	1732,58
683,53	1839,08
683,71	1736,68
683,90	1763,30
684,08	1816,55
684,27	1705,96
684,45	1720,29
684,64	1728,49
684,82	1701,86
685,01	1730,53
685,19	1650,66
685,38	1783,78
685,57	1718,25
685,75	1660,90
685,94	1677,29
686,12	1689,57
686,31	1669,09
686,49	1808,36
686,68	1624,04
686,86	1685,48
687,05	1615,85
687,23	1779,68
687,42	1652,71
687,60	1619,94
687,79	1789,92
687,97	1828,84
688,16	1728,49
688,34	1820,64
688,53	1599,46
688,71	1820,64
688,90	1753,06
689,08	1740,77
689,27	1652,71
689,45	1820,64
689,64	1755,11
689,82	1732,58
690,01	1708,01
690,19	1773,54
690,38	1665,00
690,56	1794,02
690,75	1714,15
690,93	1697,77
691,12	1765,35
691,30	1742,82
691,49	1722,34
691,67	1722,34
691,86	1845,22
692,04	1703,91
692,23	1777,64
692,41	1689,57
692,60	1849,32
692,78	1802,21
692,97	1755,11
693,15	1716,20
693,34	1863,65
693,52	1800,16
693,71	1693,67
693,89	1691,62
694,08	1552,36
694,26	1753,06
694,44	1775,59
694,63	1783,78
694,81	1714,15
695,00	1730,53
695,18	1769,44
695,37	1773,54
695,55	1708,01
695,74	1742,82
695,92	1667,05
696,10	1802,21
696,29	1597,42
696,47	1576,94
696,66	1693,67
696,84	1691,62
697,03	1746,92
697,21	1869,80
697,40	2291,68
697,58	1742,82
697,76	1656,81
697,95	1593,32
698,13	1679,33
698,32	1689,57
698,50	1685,48
698,68	1828,84
698,87	1683,43
699,05	1808,36
699,24	1697,77
699,42	1642,47
699,61	1751,01
699,79	1738,73
699,97	1857,51
700,16	1695,72
700,34	1693,67
700,53	1730,53
700,71	1830,88
700,89	1732,58
701,08	1665,00
701,26	1708,01
701,45	2138,08
701,63	1685,48
701,81	1763,30
702,00	1718,25
702,18	1759,21
702,37	1705,96
702,55	1769,44
702,73	1665,00
702,92	1644,52
703,10	1775,59
703,28	1728,49
703,47	1673,19
703,65	1746,92
703,84	1646,57
704,02	1681,38
704,20	1841,12
704,39	1722,34
704,57	1611,75
704,75	1734,63
704,94	1734,63
705,12	1744,87
705,30	1837,03
705,49	2263,01
705,67	4427,71
705,86	8970,10
706,04	12218,18
706,22	14266,15
706,41	14968,60
706,59	13299,51
706,77	9369,46
706,96	7202,71
707,14	6455,20
707,32	5871,53
707,51	5382,06
707,69	4667,32
707,87	4073,41
708,06	3411,92
708,24	2879,44
708,42	2443,23
708,61	2295,77
708,79	1910,75
708,97	1816,55
709,16	1832,93
709,34	1751,01
709,52	1791,97
709,71	1759,21
709,89	1789,92
710,07	1619,94
710,26	1757,16
710,44	1671,14
710,62	1796,07
710,80	1791,97
710,99	1765,35
711,17	1779,68
711,35	1642,47
711,54	1718,25
711,72	1656,81
711,90	1800,16
712,09	1787,88
712,27	1736,68
712,45	1759,21
712,63	1697,77
712,82	1648,61
713,00	1697,77
713,18	1687,53
713,37	1710,05
713,55	1796,07
713,73	1718,25
713,91	1806,31
714,10	1632,23
714,28	1714,15
714,46	1791,97
714,65	1712,10
714,83	1748,97
715,01	1687,53
715,19	1724,39
715,38	1642,47
715,56	1714,15
715,74	1660,90
715,92	1662,95
716,11	1863,65
716,29	1615,85
716,47	1710,05
716,65	1771,49
716,84	1562,60
717,02	1767,40
717,20	1615,85
717,38	1687,53
717,57	1697,77
717,75	1740,77
717,93	1748,97
718,11	1718,25
718,30	1671,14
718,48	1769,44
718,66	1695,72
718,84	1834,98
719,03	1748,97
719,21	1665,00
719,39	1808,36
719,57	1732,58
719,75	1796,07
719,94	1648,61
720,12	1708,01
720,30	1701,86
720,48	1824,74
720,67	1673,19
720,85	1673,19
721,03	1689,57
721,21	1710,05
721,39	1763,30
721,58	1728,49
721,76	1705,96
721,94	1722,34
722,12	1712,10
722,30	1751,01
722,49	1650,66
722,67	1773,54
722,85	1773,54
723,03	1667,05
723,21	1646,57
723,40	1708,01
723,58	1800,16
723,76	1753,06
723,94	1785,83
724,12	1640,42
724,30	1798,12
724,49	1753,06
724,67	1632,23
724,85	1798,12
725,03	1667,05
725,21	1775,59
725,40	1746,92
725,58	1701,86
725,76	1701,86
725,94	1722,34
726,12	1615,85
726,30	1685,48
726,49	1722,34
726,67	1626,09
726,85	1640,42
727,03	1687,53
727,21	2127,84
727,39	2949,08
727,57	3844,04
727,76	4093,89
727,94	4313,02
728,12	4319,17
728,30	3657,67
728,48	2922,45
728,66	2703,32
728,84	2529,24
729,03	2279,39
729,21	2193,37
729,39	2037,73
729,57	1820,64
729,75	1812,45
729,93	1814,50
730,11	1693,67
730,30	1708,01
730,48	1681,38
730,66	1791,97
730,84	1726,44
731,02	1775,59
731,20	1601,51
731,38	1796,07
731,56	1681,38
731,74	1654,76
731,93	1734,63
732,11	1738,73
732,29	1576,94
732,47	1732,58
732,65	1738,73
732,83	1779,68
733,01	1724,39
733,19	1607,66
733,37	1765,35
733,56	1832,93
733,74	1716,20
733,92	1728,49
734,10	1785,83
734,28	1748,97
734,46	1630,18
734,64	1628,14
734,82	1738,73
735,00	1662,95
735,18	1644,52
735,36	1779,68
735,54	1656,81
735,73	1763,30
735,91	1730,53
736,09	1738,73
736,27	1714,15
736,45	1722,34
736,63	1617,90
736,81	1640,42
736,99	1740,77
737,17	1738,73
737,35	1656,81
737,53	1763,30
737,71	1712,10
737,89	1783,78
738,07	1718,25
738,25	1683,43
738,43	1644,52
738,61	1693,67
738,80	1587,18
738,98	1669,09
739,16	1681,38
739,34	1617,90
739,52	1812,45
739,70	1683,43
739,88	1808,36
740,06	1777,64
740,24	1495,02
740,42	1791,97
740,60	1597,42
740,78	1640,42
740,96	1656,81
741,14	1665,00
741,32	1667,05
741,50	1667,05
741,68	1828,84
741,86	1761,25
742,04	1669,09
742,22	1669,09
742,40	1748,97
742,58	1667,05
742,76	1615,85
742,94	1763,30
743,12	1642,47
743,30	1722,34
743,48	1656,81
743,66	1665,00
743,84	1714,15
744,02	1705,96
744,20	1654,76
744,38	1621,99
744,56	1705,96
744,74	1804,26
744,92	1753,06
745,10	1808,36
745,28	1767,40
745,46	1830,88
745,64	1759,21
745,82	1789,92
746,00	1679,33
746,18	1740,77
746,36	1624,04
746,54	1708,01
746,72	1671,14
746,90	1669,09
747,08	1818,60
747,26	1630,18
747,44	1703,91
747,62	1845,22
747,80	1765,35
747,98	1796,07
748,15	1626,09
748,33	1781,73
748,51	1708,01
748,69	1777,64
748,87	1597,42
749,05	1691,62
749,23	1679,33
749,41	1701,86
749,59	1716,20
749,77	1794,02
749,95	1660,90
750,13	1722,34
750,31	1724,39
750,49	1628,14
750,67	1724,39
750,85	1841,12
751,03	1640,42
751,20	1794,02
751,38	1748,97
751,56	1699,81
751,74	1697,77
751,92	1705,96
752,10	1697,77
752,28	1732,58
752,46	1638,38
752,64	1665,00
752,82	1705,96
753,00	1777,64
753,18	1599,46
753,35	1693,67
753,53	1708,01
753,71	1720,29
753,89	1759,21
754,07	1714,15
754,25	1775,59
754,43	1675,24
754,61	1660,90
754,79	1814,50
754,97	1673,19
755,14	1701,86
755,32	1626,09
755,50	1783,78
755,68	1781,73
755,86	1691,62
756,04	1587,18
756,22	1667,05
756,40	1779,68
756,57	1791,97
756,75	1703,91
756,93	1742,82
757,11	1787,88
757,29	1695,72
757,47	1681,38
757,65	1636,33
757,82	1687,53
758,00	1693,67
758,18	1619,94
758,36	1665,00
758,54	1763,30
758,72	1650,66
758,90	1763,30
759,07	1689,57
759,25	1624,04
759,43	1697,77
759,61	1634,28
759,79	2260,96
759,97	1724,39
760,15	1654,76
760,32	1650,66
760,50	1738,73
760,68	1806,31
760,86	1611,75
761,04	1710,05
761,22	1812,45
761,39	1765,35
761,57	1830,88
761,75	1634,28
761,93	1716,20
762,11	1796,07
762,28	1802,21
762,46	1701,86
762,64	1812,45
762,82	1601,51
763,00	1671,14
763,18	1806,31
763,35	1660,90
763,53	1736,68
763,71	1714,15
763,89	1718,25
764,07	1689,57
764,24	1726,44
764,42	1777,64
764,60	1699,81
764,78	1734,63
764,96	1822,69
765,13	1791,97
765,31	1744,87
765,49	1724,39
765,67	1667,05
765,84	1654,76
766,02	1648,61
766,20	1581,03
766,38	1791,97
766,56	1798,12
766,73	1800,16
766,91	1710,05
767,09	1726,44
767,27	1691,62
767,44	1683,43
767,62	1703,91
767,80	1712,10
767,98	1742,82
768,15	1691,62
768,33	1714,15
768,51	1705,96
768,69	1755,11
768,87	1742,82
769,04	1728,49
769,22	1834,98
769,40	1851,36
769,58	1896,42
769,75	1691,62
769,93	1791,97
770,11	1636,33
770,28	1626,09
770,46	1644,52
770,64	1746,92
770,82	1730,53
770,99	1732,58
771,17	1722,34
771,35	1722,34
771,53	1679,33
771,70	1599,46
771,88	1718,25
772,06	1695,72
772,23	1732,58
772,41	1753,06
772,59	1650,66
772,77	1693,67
772,94	1744,87
773,12	1726,44
773,30	1665,00
773,47	1755,11
773,65	1589,22
773,83	1910,75
774,01	1714,15
774,18	1665,00
774,36	1722,34
774,54	1644,52
774,71	1722,34
774,89	1644,52
775,07	1638,38
775,24	1746,92
775,42	1720,29
775,60	1931,23
775,78	1679,33
775,95	1599,46
776,13	1626,09
776,31	1587,18
776,48	1730,53
776,66	1761,25
776,84	1593,32
777,01	1626,09
777,19	1650,66
777,37	1708,01
777,54	1714,15
777,72	1789,92
777,90	1689,57
778,07	1695,72
778,25	1892,32
778,43	1765,35
778,60	1718,25
778,78	1757,16
778,96	1740,77
779,13	1624,04
779,31	1814,50
779,49	1691,62
779,66	1669,09
779,84	1718,25
780,01	1736,68
780,19	1656,81
780,37	1814,50
780,54	1763,30
780,72	1714,15
780,90	1693,67
781,07	1744,87
781,25	1689,57
781,43	1710,05
781,60	1617,90
781,78	1757,16
781,95	1681,38
782,13	1730,53
782,31	1806,31
782,48	1566,70
782,66	1693,67
782,83	1869,80
783,01	1738,73
783,19	1759,21
783,36	1648,61
783,54	1675,24
783,72	1759,21
783,89	1683,43
784,07	1742,82
784,24	1728,49
784,42	1671,14
784,60	1695,72
784,77	1710,05
784,95	1570,79
785,12	1671,14
785,30	1667,05
785,47	1722,34
785,65	1654,76
785,83	1650,66
786,00	1685,48
786,18	1755,11
786,35	1656,81
786,53	1671,14
786,71	1746,92
786,88	1705,96
787,06	1687,53
787,23	1812,45
787,41	1607,66
787,58	1740,77
787,76	1662,95
787,94	1636,33
788,11	1681,38
788,29	1628,14
788,46	1687,53
788,64	1605,61
788,81	1708,01
788,99	1710,05
789,16	1693,67
789,34	1714,15
789,52	1646,57
789,69	1714,15
789,87	1632,23
790,04	1648,61
790,22	1748,97
790,39	1810,40
790,57	1644,52
790,74	1787,88
790,92	1851,36
791,09	1675,24
791,27	1748,97
791,44	1648,61
791,62	1732,58
791,79	1734,63
791,97	1761,25
792,15	1816,55
792,32	1695,72
792,50	1697,77
792,67	1783,78
792,85	1794,02
793,02	1705,96
793,20	1712,10
793,37	1640,42
793,55	1771,49
793,72	1642,47
793,90	1714,15
794,07	1687,53
794,25	1701,86
794,42	1677,29
794,60	1677,29
794,77	1658,85
794,95	1701,86
795,12	1726,44
795,30	1650,66
795,47	1611,75
795,65	1845,22
795,82	1665,00
796,00	1658,85
796,17	1738,73
796,34	1632,23
796,52	1789,92
796,69	1806,31
796,87	1787,88
797,04	1689,57
797,22	1734,63
797,39	1708,01
797,57	1769,44
797,74	1718,25
797,92	1574,89
798,09	1732,58
798,27	1759,21
798,44	1753,06
798,62	1628,14
798,79	1724,39
798,96	1697,77
799,14	1738,73
799,31	1861,60
799,49	1681,38
799,66	1773,54
799,84	1681,38
800,01	1619,94
800,19	1722,34
800,36	1595,37
800,53	1773,54
800,71	1714,15
800,88	1757,16
801,06	1673,19
801,23	1634,28
801,41	1703,91
801,58	1675,24
801,75	1681,38
801,93	1683,43
802,10	1710,05
802,28	1660,90
802,45	1724,39
802,63	1687,53
802,80	1894,37
802,97	1677,29
803,15	1767,40
803,32	1679,33
803,50	1640,42
803,67	1693,67
803,84	1593,32
804,02	1660,90
804,19	1681,38
804,37	1652,71
804,54	1675,24
804,71	1681,38
804,89	1701,86
805,06	1648,61
805,24	1636,33
805,41	1689,57
805,58	1689,57
805,76	1863,65
805,93	1683,43
806,10	1787,88
806,28	1746,92
806,45	1779,68
806,63	1724,39
806,80	1689,57
806,97	1673,19
807,15	1681,38
807,32	1800,16
807,49	1642,47
807,67	1699,81
807,84	1708,01
808,01	1626,09
808,19	1843,17
808,36	1914,85
808,54	1642,47
808,71	1665,00
808,88	1720,29
809,06	1714,15
809,23	1746,92
809,40	1687,53
809,58	1765,35
809,75	1734,63
809,92	1677,29
810,10	1828,84
810,27	1626,09
810,44	1718,25
810,62	1765,35
810,79	1718,25
810,96	1669,09
811,14	1609,70
811,31	1730,53
811,48	1667,05
811,66	1734,63
811,83	1751,01
812,00	1669,09
812,18	1654,76
812,35	1794,02
812,52	1658,85
812,69	1712,10
812,87	1669,09
813,04	1654,76
813,21	1652,71
813,39	1642,47
813,56	1665,00
813,73	1759,21
813,91	1669,09
814,08	1748,97
814,25	1798,12
814,42	1640,42
814,60	1593,32
814,77	1771,49
814,94	1644,52
815,12	1724,39
815,29	1751,01
815,46	1656,81
815,63	1755,11
815,81	1703,91
815,98	1654,76
816,15	1697,77
816,33	1740,77
816,50	1714,15
816,67	1691,62
816,84	1765,35
817,02	1667,05
817,19	1671,14
817,36	1771,49
817,53	1810,40
817,71	1570,79
817,88	1777,64
818,05	1689,57
818,22	1705,96
818,40	1744,87
818,57	1683,43
818,74	1689,57
818,91	1640,42
819,09	1783,78
819,26	1779,68
819,43	1687,53
819,60	1697,77
819,78	1789,92
819,95	1808,36
820,12	1681,38
820,29	1720,29
820,47	1705,96
820,64	1705,96
820,81	1654,76
820,98	1681,38
821,15	1701,86
821,33	1740,77
821,50	1675,24
821,67	1779,68
821,84	1751,01
822,02	1775,59
822,19	1732,58
822,36	1691,62
822,53	1755,11
822,70	1613,80
822,88	1705,96
823,05	1789,92
823,22	1701,86
823,39	1808,36
823,56	1724,39
823,74	1800,16
823,91	1630,18
824,08	1597,42
824,25	1648,61
824,42	1742,82
824,60	1630,18
824,77	1734,63
824,94	1710,05
825,11	1777,64
825,28	1570,79
825,45	1701,86
825,63	1734,63
825,80	1636,33
825,97	1732,58
826,14	1685,48
826,31	1591,27
826,48	1767,40
826,66	1644,52
826,83	1628,14
827,00	1732,58
827,17	1630,18
827,34	1714,15
827,51	1705,96
827,69	1654,76
827,86	1615,85
828,03	1748,97
828,20	1669,09
828,37	1697,77
828,54	1785,83
828,71	1650,66
828,89	1812,45
829,06	1710,05
829,23	1708,01
829,40	1710,05
829,57	1681,38
829,74	1716,20
829,91	1673,19
830,09	1687,53
830,26	1712,10
830,43	1767,40
830,60	1722,34
830,77	1712,10
830,94	1781,73
831,11	1689,57
831,28	1665,00
831,46	1763,30
831,63	1703,91
831,80	1718,25
831,97	1658,85
832,14	1640,42
832,31	1738,73
832,48	1736,68
832,65	1697,77
832,82	1703,91
832,99	1767,40
833,17	1611,75
833,34	1777,64
833,51	1662,95
833,68	1654,76
833,85	1679,33
834,02	1681,38
834,19	1689,57
834,36	1671,14
834,53	1712,10
834,70	1742,82
834,87	1755,11
835,04	1701,86
835,22	1652,71
835,39	1708,01
835,56	1624,04
835,73	1640,42
835,90	1767,40
836,07	1632,23
836,24	1847,27
836,41	1652,71
836,58	1677,29
836,75	1763,30
836,92	1695,72
837,09	1619,94
837,26	1751,01
837,43	1718,25
837,60	1779,68
837,77	1699,81
837,94	1806,31
838,12	1812,45
838,29	1701,86
838,46	1578,98
838,63	1679,33
838,80	1765,35
838,97	1708,01
839,14	1695,72
839,31	1757,16
839,48	1673,19
839,65	1697,77
839,82	1759,21
839,99	1695,72
840,16	1634,28
840,33	1615,85
840,50	1705,96
840,67	1724,39
840,84	1599,46
841,01	1691,62
841,18	1755,11
841,35	1701,86
841,52	1796,07
841,69	1851,36
841,86	1718,25
842,03	1746,92
842,20	1787,88
842,37	1683,43
842,54	1630,18
842,71	1722,34
842,88	1591,27
843,05	1677,29
843,22	1665,00
843,39	1712,10
843,56	1697,77
843,73	1677,29
843,90	1679,33
844,07	1695,72
844,24	1716,20
844,41	1695,72
844,58	1755,11
844,75	1705,96
844,92	1769,44
845,09	1738,73
845,26	1675,24
845,43	1810,40
845,60	1669,09
845,77	1789,92
845,94	1697,77
846,10	1755,11
846,27	1626,09
846,44	1589,22
846,61	1638,38
846,78	1734,63
846,95	1757,16
847,12	1570,79
847,29	1671,14
847,46	1638,38
847,63	1722,34
847,80	1640,42
847,97	1761,25
848,14	1761,25
848,31	1699,81
848,48	1677,29
848,65	1736,68
848,82	1615,85
848,98	1779,68
849,15	1726,44
849,32	1748,97
849,49	1685,48
849,66	1695,72
849,83	1740,77
850,00	1660,90
850,17	1605,61
850,34	1665,00
850,51	1712,10
850,68	1603,56
850,85	1783,78
851,01	1640,42
851,18	1710,05
851,35	1683,43
851,52	1722,34
851,69	1789,92
851,86	1677,29
852,03	1753,06
852,20	1687,53
852,37	1697,77
852,53	1689,57
852,70	1689,57
852,87	1718,25
853,04	1783,78
853,21	1656,81
853,38	1742,82
853,55	1714,15
853,72	1865,70
853,89	1652,71
854,05	1669,09
854,22	1679,33
854,39	1705,96
854,56	1761,25
854,73	1753,06
854,90	1718,25
855,07	1789,92
855,23	1683,43
855,40	1720,29
855,57	1734,63
855,74	1644,52
855,91	1847,27
856,08	1705,96
856,25	1609,70
856,41	1701,86
856,58	1685,48
856,75	1699,81
856,92	1626,09
857,09	1742,82
857,26	1587,18
857,42	1730,53
857,59	1724,39
857,76	1669,09
857,93	1701,86
858,10	1732,58
858,27	1701,86
858,43	1695,72
858,60	1730,53
858,77	1619,94
858,94	1708,01
859,11	1783,78
859,27	1732,58
859,44	1636,33
859,61	1820,64
859,78	1607,66
859,95	1720,29
860,12	1677,29
860,28	1759,21
860,45	1853,41
860,62	1689,57
860,79	1738,73
860,95	1730,53
861,12	1689,57
861,29	1677,29
861,46	1685,48
861,63	1755,11
861,79	1718,25
861,96	1599,46
862,13	1615,85
862,30	1771,49
862,47	1724,39
862,63	1636,33
862,80	1808,36
862,97	1705,96
863,14	1673,19
863,30	1738,73
863,47	1603,56
863,64	1785,83
863,81	1673,19
863,97	1673,19
864,14	1722,34
864,31	1642,47
864,48	1791,97
864,65	1689,57
864,81	1765,35
864,98	1671,14
865,15	1791,97
865,32	1748,97
865,48	1802,21
865,65	1755,11
865,82	1679,33
865,98	1775,59
866,15	1775,59
866,32	1632,23
866,49	1644,52
866,65	1755,11
866,82	1607,66
866,99	1730,53
867,16	1634,28
867,32	1665,00
867,49	1615,85
867,66	1632,23
867,83	1675,24
867,99	1650,66
868,16	1724,39
868,33	1564,65
868,49	1736,68
868,66	1660,90
868,83	1652,71
868,99	1681,38
869,16	1687,53
869,33	1695,72
869,50	1843,17
869,66	1697,77
869,83	1689,57
870,00	1630,18
870,16	1816,55
870,33	1773,54
870,50	1687,53
870,66	1734,63
870,83	1751,01
871,00	1791,97
871,17	1699,81
871,33	1726,44
871,50	1748,97
871,67	1650,66
871,83	1701,86
872,00	1781,73
872,17	1724,39
872,33	1857,51
872,50	1779,68
872,67	1648,61
872,83	1691,62
873,00	1740,77
873,17	1730,53
873,33	1742,82
873,50	1705,96
873,67	1724,39
873,83	1681,38
874,00	1675,24
874,16	1712,10
874,33	1710,05
874,50	1652,71
874,66	1667,05
874,83	1693,67
875,00	1759,21
875,16	1787,88
875,33	1804,26
875,50	1626,09
875,66	1613,80
875,83	1658,85
875,99	1751,01
876,16	1726,44
876,33	1671,14
876,49	1755,11
876,66	1761,25
876,83	1769,44
876,99	1593,32
877,16	1654,76
877,32	1667,05
877,49	1681,38
877,66	1638,38
877,82	1834,98
877,99	1734,63
878,15	1779,68
878,32	1824,74
878,49	1701,86
878,65	1685,48
878,82	1800,16
878,98	1624,04
879,15	1794,02
879,32	1732,58
879,48	1771,49
879,65	1708,01
879,81	1724,39
879,98	1685,48
880,15	1609,70
880,31	1763,30
880,48	1648,61
880,64	1691,62
880,81	1732,58
880,97	1820,64
881,14	1724,39
881,31	1689,57
881,47	1855,46
881,64	1695,72
881,80	1589,22
881,97	1796,07
882,13	1748,97
882,30	1642,47
882,47	1673,19
882,63	1667,05
882,80	1679,33
882,96	1695,72
883,13	1728,49
883,29	1705,96
883,46	1705,96
883,62	1855,46
883,79	1630,18
883,95	1699,81
884,12	1705,96
884,29	1779,68
884,45	1736,68
884,62	1761,25
884,78	1652,71
884,95	1804,26
885,11	1583,08
885,28	1699,81
885,44	1732,58
885,61	1849,32
885,77	1804,26
885,94	1863,65
886,10	1767,40
886,27	1732,58
886,43	1798,12
886,60	1826,79
886,76	1689,57
886,93	1683,43
887,09	1777,64
887,26	1591,27
887,42	1673,19
887,59	1718,25
887,75	1888,23
887,92	1654,76
888,08	1783,78
888,25	1800,16
888,41	1771,49
888,58	1714,15
888,74	1732,58
888,91	1644,52
>>>>>End Processed Spectral Data<<<<<
