SpectraSuite Data File
++++++++++++++++++++++++++++++++++++
Date: Mon Jun 06 17:06:17 CEST 2016
User: root
Dark Spectrum Present: No
Reference Spectrum Present: No
Number of Sampled Component Spectra: 1
Spectrometers: USB4C02835
Integration Time (usec): 100000 (USB4C02835)
Spectra Averaged: 1 (USB4C02835)
Boxcar Smoothing: 0 (USB4C02835)
Correct for Electrical Dark: No (USB4C02835)
Strobe/Lamp Enabled: No (USB4C02835)
Correct for Detector Non-linearity: No (USB4C02835)
Correct for Stray Light: No (USB4C02835)
Number of Pixels in Processed Spectrum: 3648
>>>>>Begin Processed Spectral Data<<<<<
177,47	1478,63
177,69	1478,63
177,91	1478,63
178,13	1480,68
178,36	1492,97
178,58	1671,14
178,80	1685,48
179,02	1630,18
179,24	1667,05
179,46	1679,33
179,68	1746,92
179,90	1724,39
180,13	1656,81
180,35	1656,81
180,57	1669,09
180,79	1763,30
181,01	1701,86
181,23	1802,21
181,45	1738,73
181,67	1712,10
181,90	1767,40
182,12	1726,44
182,34	1607,66
182,56	1722,34
182,78	1763,30
183,00	1728,49
183,22	1736,68
183,44	1599,46
183,66	1796,07
183,89	1800,16
184,11	1796,07
184,33	1771,49
184,55	1867,75
184,77	1648,61
184,99	1779,68
185,21	1742,82
185,43	1843,17
185,65	1683,43
185,87	1726,44
186,10	1861,60
186,32	1857,51
186,54	1740,77
186,76	1765,35
186,98	1746,92
187,20	1644,52
187,42	1611,75
187,64	1646,57
187,86	1693,67
188,08	1763,30
188,30	1703,91
188,52	1761,25
188,75	1787,88
188,97	1779,68
189,19	1695,72
189,41	1658,85
189,63	1767,40
189,85	1726,44
190,07	1705,96
190,29	1689,57
190,51	1726,44
190,73	1599,46
190,95	1839,08
191,17	1730,53
191,39	1613,80
191,61	1687,53
191,84	1697,77
192,06	1730,53
192,28	1630,18
192,50	1920,99
192,72	1759,21
192,94	1697,77
193,16	1820,64
193,38	1804,26
193,60	1697,77
193,82	1699,81
194,04	1728,49
194,26	1705,96
194,48	1695,72
194,70	1673,19
194,92	1681,38
195,14	1734,63
195,36	1710,05
195,58	1724,39
195,80	1724,39
196,02	1656,81
196,24	1761,25
196,46	1746,92
196,69	1689,57
196,91	1896,42
197,13	1777,64
197,35	1681,38
197,57	1841,12
197,79	1681,38
198,01	1683,43
198,23	1730,53
198,45	1802,21
198,67	1724,39
198,89	1691,62
199,11	1712,10
199,33	1615,85
199,55	1658,85
199,77	1685,48
199,99	1755,11
200,21	1644,52
200,43	1705,96
200,65	1640,42
200,87	1656,81
201,09	1689,57
201,31	1783,78
201,53	1714,15
201,75	1699,81
201,97	1722,34
202,19	1689,57
202,41	1732,58
202,63	1867,75
202,85	1830,88
203,07	1667,05
203,29	1591,27
203,51	1634,28
203,73	1628,14
203,95	1908,71
204,17	1730,53
204,39	1716,20
204,61	1634,28
204,83	1701,86
205,05	1732,58
205,27	1783,78
205,49	1808,36
205,71	1626,09
205,93	1640,42
206,15	1693,67
206,37	1695,72
206,59	1703,91
206,81	1695,72
207,03	1681,38
207,25	1669,09
207,47	1677,29
207,69	1734,63
207,91	1771,49
208,13	1791,97
208,34	1732,58
208,56	1585,13
208,78	1720,29
209,00	1677,29
209,22	1689,57
209,44	1687,53
209,66	1726,44
209,88	1683,43
210,10	1656,81
210,32	1746,92
210,54	1769,44
210,76	1759,21
210,98	1687,53
211,20	1572,84
211,42	1734,63
211,64	1779,68
211,86	1726,44
212,08	1785,83
212,30	1720,29
212,52	1726,44
212,74	1705,96
212,96	1765,35
213,17	1712,10
213,39	1763,30
213,61	1771,49
213,83	1720,29
214,05	1642,47
214,27	1808,36
214,49	1599,46
214,71	1710,05
214,93	1759,21
215,15	1687,53
215,37	1802,21
215,59	1640,42
215,81	1757,16
216,03	1773,54
216,24	1681,38
216,46	1669,09
216,68	1697,77
216,90	1787,88
217,12	1783,78
217,34	1654,76
217,56	1712,10
217,78	1804,26
218,00	1726,44
218,22	1769,44
218,44	1720,29
218,66	1785,83
218,87	1822,69
219,09	1744,87
219,31	1728,49
219,53	1730,53
219,75	1677,29
219,97	1662,95
220,19	1722,34
220,41	1759,21
220,63	1771,49
220,85	1757,16
221,06	1628,14
221,28	1732,58
221,50	1720,29
221,72	1740,77
221,94	1658,85
222,16	1708,01
222,38	1718,25
222,60	1771,49
222,82	1679,33
223,03	1736,68
223,25	1624,04
223,47	1798,12
223,69	1826,79
223,91	1736,68
224,13	1757,16
224,35	1662,95
224,57	1787,88
224,78	1705,96
225,00	1570,79
225,22	1724,39
225,44	1734,63
225,66	1736,68
225,88	1755,11
226,10	1722,34
226,32	1775,59
226,53	1818,60
226,75	1742,82
226,97	1716,20
227,19	1763,30
227,41	1605,61
227,63	1681,38
227,85	1685,48
228,06	1757,16
228,28	1632,23
228,50	1812,45
228,72	1665,00
228,94	1712,10
229,16	1603,56
229,37	1626,09
229,59	1658,85
229,81	1794,02
230,03	1726,44
230,25	1687,53
230,47	1619,94
230,69	1654,76
230,90	1734,63
231,12	1697,77
231,34	1767,40
231,56	1746,92
231,78	1718,25
232,00	1769,44
232,21	1726,44
232,43	1716,20
232,65	1640,42
232,87	1755,11
233,09	1656,81
233,30	1665,00
233,52	1757,16
233,74	1652,71
233,96	1656,81
234,18	1667,05
234,40	1681,38
234,61	1859,56
234,83	1697,77
235,05	1740,77
235,27	1869,80
235,49	1763,30
235,70	1648,61
235,92	1757,16
236,14	1759,21
236,36	1853,41
236,58	1689,57
236,79	1791,97
237,01	1722,34
237,23	1720,29
237,45	1724,39
237,67	1650,66
237,88	1728,49
238,10	1816,55
238,32	1656,81
238,54	1734,63
238,76	1652,71
238,97	1646,57
239,19	1601,51
239,41	1730,53
239,63	1765,35
239,85	1708,01
240,06	1746,92
240,28	1675,24
240,50	1755,11
240,72	1685,48
240,93	1755,11
241,15	1789,92
241,37	1726,44
241,59	1845,22
241,81	1746,92
242,02	1697,77
242,24	1730,53
242,46	1779,68
242,68	1705,96
242,89	1689,57
243,11	1728,49
243,33	1712,10
243,55	1787,88
243,76	1699,81
243,98	1640,42
244,20	1771,49
244,42	1773,54
244,64	1724,39
244,85	1658,85
245,07	1701,86
245,29	1761,25
245,51	1665,00
245,72	1705,96
245,94	1830,88
246,16	1705,96
246,38	1748,97
246,59	1626,09
246,81	1615,85
247,03	1677,29
247,24	1595,37
247,46	1685,48
247,68	1742,82
247,90	1630,18
248,11	1665,00
248,33	1736,68
248,55	1796,07
248,77	1697,77
248,98	1757,16
249,20	1802,21
249,42	1703,91
249,64	1783,78
249,85	1671,14
250,07	1734,63
250,29	1710,05
250,50	1771,49
250,72	1726,44
250,94	1708,01
251,16	1849,32
251,37	1714,15
251,59	1728,49
251,81	1697,77
252,02	1826,79
252,24	1691,62
252,46	1751,01
252,68	1656,81
252,89	1679,33
253,11	1712,10
253,33	1769,44
253,54	1814,50
253,76	1648,61
253,98	1626,09
254,20	1658,85
254,41	1693,67
254,63	1636,33
254,85	1658,85
255,06	1755,11
255,28	1755,11
255,50	1691,62
255,71	1652,71
255,93	1671,14
256,15	1710,05
256,36	1787,88
256,58	1646,57
256,80	1740,77
257,02	1636,33
257,23	1671,14
257,45	1656,81
257,67	1789,92
257,88	1693,67
258,10	1794,02
258,32	1669,09
258,53	1705,96
258,75	1806,31
258,97	1642,47
259,18	1703,91
259,40	1765,35
259,62	1816,55
259,83	1826,79
260,05	1783,78
260,27	2072,54
260,48	1765,35
260,70	1662,95
260,92	1761,25
261,13	1691,62
261,35	1652,71
261,57	1675,24
261,78	1597,42
262,00	1656,81
262,22	1732,58
262,43	1695,72
262,65	1642,47
262,86	1667,05
263,08	1910,75
263,30	1718,25
263,51	1611,75
263,73	1714,15
263,95	1812,45
264,16	1673,19
264,38	1671,14
264,60	1744,87
264,81	1736,68
265,03	1761,25
265,25	1783,78
265,46	1724,39
265,68	1837,03
265,89	1726,44
266,11	1597,42
266,33	1665,00
266,54	1699,81
266,76	1730,53
266,98	1769,44
267,19	1779,68
267,41	1753,06
267,62	1691,62
267,84	1636,33
268,06	1767,40
268,27	1732,58
268,49	1816,55
268,70	1755,11
268,92	1705,96
269,14	1738,73
269,35	1660,90
269,57	1701,86
269,79	1771,49
270,00	1683,43
270,22	1796,07
270,43	1662,95
270,65	1615,85
270,87	1757,16
271,08	1751,01
271,30	1767,40
271,51	1677,29
271,73	1673,19
271,95	1804,26
272,16	1656,81
272,38	1818,60
272,59	1726,44
272,81	1818,60
273,02	1710,05
273,24	1685,48
273,46	1611,75
273,67	1677,29
273,89	1591,27
274,10	1619,94
274,32	1777,64
274,54	1726,44
274,75	1748,97
274,97	1656,81
275,18	1726,44
275,40	1767,40
275,61	1683,43
275,83	1726,44
276,05	1619,94
276,26	1748,97
276,48	1708,01
276,69	1656,81
276,91	1697,77
277,12	1771,49
277,34	1757,16
277,55	1839,08
277,77	1671,14
277,99	1728,49
278,20	1671,14
278,42	1740,77
278,63	1701,86
278,85	1650,66
279,06	1611,75
279,28	1755,11
279,49	1785,83
279,71	1769,44
279,93	1669,09
280,14	1718,25
280,36	1660,90
280,57	1761,25
280,79	1794,02
281,00	1703,91
281,22	1689,57
281,43	1746,92
281,65	1648,61
281,86	1667,05
282,08	1771,49
282,29	1806,31
282,51	1538,02
282,73	1660,90
282,94	1611,75
283,16	1759,21
283,37	1802,21
283,59	1705,96
283,80	1767,40
284,02	1687,53
284,23	1689,57
284,45	1705,96
284,66	1669,09
284,88	1748,97
285,09	1679,33
285,31	1712,10
285,52	1763,30
285,74	1560,55
285,95	1761,25
286,17	1667,05
286,38	1728,49
286,60	1660,90
286,81	1683,43
287,03	1740,77
287,24	1695,72
287,46	1796,07
287,67	1742,82
287,89	1712,10
288,10	1677,29
288,32	1718,25
288,53	1763,30
288,75	1720,29
288,96	1818,60
289,18	1624,04
289,39	1720,29
289,61	1742,82
289,82	1845,22
290,04	1810,40
290,25	1656,81
290,47	1742,82
290,68	1646,57
290,90	1746,92
291,11	1589,22
291,33	1757,16
291,54	1665,00
291,76	1589,22
291,97	1718,25
292,18	1697,77
292,40	1710,05
292,61	1621,99
292,83	1773,54
293,04	1708,01
293,26	1742,82
293,47	1714,15
293,69	1685,48
293,90	1681,38
294,12	1783,78
294,33	1652,71
294,55	1712,10
294,76	1796,07
294,97	1806,31
295,19	1777,64
295,40	1742,82
295,62	1726,44
295,83	1767,40
296,05	1636,33
296,26	1714,15
296,48	1689,57
296,69	1757,16
296,90	1763,30
297,12	1773,54
297,33	1759,21
297,55	1755,11
297,76	1757,16
297,98	1761,25
298,19	1693,67
298,41	1755,11
298,62	1613,80
298,83	1757,16
299,05	1662,95
299,26	1703,91
299,48	1652,71
299,69	1708,01
299,90	1728,49
300,12	1679,33
300,33	1785,83
300,55	1740,77
300,76	1767,40
300,98	1652,71
301,19	1748,97
301,40	1660,90
301,62	1710,05
301,83	1785,83
302,05	1789,92
302,26	1775,59
302,47	1751,01
302,69	1581,03
302,90	1740,77
303,12	1587,18
303,33	1748,97
303,54	1820,64
303,76	1699,81
303,97	1746,92
304,19	1789,92
304,40	1619,94
304,61	1689,57
304,83	1843,17
305,04	1781,73
305,26	1738,73
305,47	1648,61
305,68	1705,96
305,90	1675,24
306,11	1767,40
306,33	1701,86
306,54	1660,90
306,75	1644,52
306,97	1642,47
307,18	1669,09
307,39	1716,20
307,61	1787,88
307,82	1730,53
308,04	1701,86
308,25	1746,92
308,46	1695,72
308,68	1638,38
308,89	1712,10
309,10	1820,64
309,32	1730,53
309,53	1650,66
309,74	1697,77
309,96	1669,09
310,17	1843,17
310,39	1701,86
310,60	1705,96
310,81	1798,12
311,03	1697,77
311,24	1720,29
311,45	1744,87
311,67	1775,59
311,88	1730,53
312,09	1660,90
312,31	1724,39
312,52	1708,01
312,73	1681,38
312,95	1662,95
313,16	1687,53
313,37	1736,68
313,59	1779,68
313,80	1765,35
314,01	1798,12
314,23	1677,29
314,44	1650,66
314,65	1624,04
314,87	1634,28
315,08	1595,37
315,29	1705,96
315,51	1546,22
315,72	1640,42
315,93	1826,79
316,15	1724,39
316,36	1687,53
316,57	1722,34
316,79	1785,83
317,00	1681,38
317,21	1794,02
317,43	1701,86
317,64	1677,29
317,85	1646,57
318,07	1687,53
318,28	1728,49
318,49	1757,16
318,70	1927,14
318,92	1859,56
319,13	1763,30
319,34	1853,41
319,56	1806,31
319,77	1857,51
319,98	1781,73
320,20	1746,92
320,41	1789,92
320,62	1800,16
320,83	1636,33
321,05	1824,74
321,26	1789,92
321,47	1658,85
321,69	1804,26
321,90	1640,42
322,11	1720,29
322,32	1771,49
322,54	1722,34
322,75	1673,19
322,96	1832,93
323,18	1681,38
323,39	1662,95
323,60	1642,47
323,81	1726,44
324,03	1722,34
324,24	1726,44
324,45	1660,90
324,66	1675,24
324,88	1732,58
325,09	1785,83
325,30	1742,82
325,52	1705,96
325,73	1652,71
325,94	1701,86
326,15	1632,23
326,37	1703,91
326,58	1726,44
326,79	1748,97
327,00	1654,76
327,22	1755,11
327,43	1728,49
327,64	1630,18
327,85	1847,27
328,07	1685,48
328,28	1808,36
328,49	1736,68
328,70	1609,70
328,92	1740,77
329,13	1746,92
329,34	1767,40
329,55	1832,93
329,76	1771,49
329,98	1621,99
330,19	1796,07
330,40	1759,21
330,61	1757,16
330,83	1732,58
331,04	1660,90
331,25	1656,81
331,46	1683,43
331,68	1718,25
331,89	1765,35
332,10	1730,53
332,31	1546,22
332,52	1755,11
332,74	1824,74
332,95	1662,95
333,16	1658,85
333,37	1730,53
333,58	1730,53
333,80	1769,44
334,01	1665,00
334,22	1681,38
334,43	1722,34
334,64	1722,34
334,86	1660,90
335,07	1642,47
335,28	1742,82
335,49	1564,65
335,70	1701,86
335,92	1703,91
336,13	1857,51
336,34	1712,10
336,55	1671,14
336,76	1685,48
336,98	1677,29
337,19	1677,29
337,40	1847,27
337,61	1769,44
337,82	1660,90
338,04	1765,35
338,25	1599,46
338,46	1660,90
338,67	1697,77
338,88	1658,85
339,09	1619,94
339,31	1697,77
339,52	1683,43
339,73	1628,14
339,94	1636,33
340,15	1697,77
340,36	1615,85
340,58	1665,00
340,79	1640,42
341,00	1802,21
341,21	1714,15
341,42	1853,41
341,63	1720,29
341,85	1685,48
342,06	1726,44
342,27	1636,33
342,48	1726,44
342,69	1632,23
342,90	1787,88
343,12	1677,29
343,33	1710,05
343,54	1718,25
343,75	1798,12
343,96	1785,83
344,17	1634,28
344,38	1746,92
344,60	1681,38
344,81	1724,39
345,02	1671,14
345,23	1787,88
345,44	1761,25
345,65	1742,82
345,86	1712,10
346,07	1667,05
346,29	1652,71
346,50	1720,29
346,71	1767,40
346,92	1849,32
347,13	1767,40
347,34	1648,61
347,55	1728,49
347,76	1765,35
347,98	1632,23
348,19	1714,15
348,40	1757,16
348,61	1687,53
348,82	1771,49
349,03	1787,88
349,24	1599,46
349,45	1824,74
349,66	1617,90
349,88	1656,81
350,09	1669,09
350,30	1765,35
350,51	1796,07
350,72	1753,06
350,93	1740,77
351,14	1751,01
351,35	1675,24
351,56	1751,01
351,77	1689,57
351,99	1726,44
352,20	1759,21
352,41	1746,92
352,62	1677,29
352,83	1716,20
353,04	1757,16
353,25	1716,20
353,46	1802,21
353,67	1812,45
353,88	1589,22
354,09	1693,67
354,30	1689,57
354,52	1777,64
354,73	1628,14
354,94	1695,72
355,15	1708,01
355,36	1742,82
355,57	1660,90
355,78	1746,92
355,99	1667,05
356,20	1718,25
356,41	1757,16
356,62	1716,20
356,83	1712,10
357,04	1738,73
357,25	1642,47
357,46	1660,90
357,68	1617,90
357,89	1656,81
358,10	1671,14
358,31	1665,00
358,52	1712,10
358,73	1730,53
358,94	1697,77
359,15	1628,14
359,36	1705,96
359,57	1636,33
359,78	1685,48
359,99	1751,01
360,20	1656,81
360,41	1640,42
360,62	1755,11
360,83	1710,05
361,04	1748,97
361,25	1712,10
361,46	1845,22
361,67	1724,39
361,88	1775,59
362,09	1753,06
362,30	1658,85
362,51	1697,77
362,72	1736,68
362,93	1775,59
363,14	1695,72
363,35	1701,86
363,56	1662,95
363,78	1753,06
363,99	1695,72
364,20	1669,09
364,41	1734,63
364,62	1777,64
364,83	1695,72
365,04	1632,23
365,25	1675,24
365,46	1759,21
365,67	1642,47
365,88	1671,14
366,09	1677,29
366,30	1697,77
366,51	1775,59
366,72	1652,71
366,93	1714,15
367,14	1693,67
367,35	1761,25
367,56	1656,81
367,77	1812,45
367,98	1710,05
368,18	1744,87
368,39	1810,40
368,60	1630,18
368,81	1703,91
369,02	1783,78
369,23	1720,29
369,44	1697,77
369,65	1742,82
369,86	1740,77
370,07	1775,59
370,28	1677,29
370,49	1710,05
370,70	1716,20
370,91	1585,13
371,12	1628,14
371,33	1765,35
371,54	1683,43
371,75	1767,40
371,96	1646,57
372,17	1636,33
372,38	1712,10
372,59	1736,68
372,80	1736,68
373,01	1626,09
373,22	1826,79
373,43	1705,96
373,64	1626,09
373,85	1757,16
374,06	1820,64
374,26	1718,25
374,47	1697,77
374,68	1841,12
374,89	1730,53
375,10	1699,81
375,31	1710,05
375,52	1714,15
375,73	1710,05
375,94	1632,23
376,15	1806,31
376,36	1775,59
376,57	1648,61
376,78	1720,29
376,99	1714,15
377,20	1775,59
377,40	1738,73
377,61	1812,45
377,82	1652,71
378,03	1841,12
378,24	1759,21
378,45	1701,86
378,66	1712,10
378,87	1660,90
379,08	1662,95
379,29	1597,42
379,50	1794,02
379,71	1761,25
379,91	1759,21
380,12	1703,91
380,33	1738,73
380,54	1726,44
380,75	1738,73
380,96	1687,53
381,17	1740,77
381,38	1726,44
381,59	1769,44
381,80	1658,85
382,00	1755,11
382,21	1720,29
382,42	1894,37
382,63	1896,42
382,84	1703,91
383,05	1853,41
383,26	1820,64
383,47	1722,34
383,68	1740,77
383,88	1755,11
384,09	1677,29
384,30	1804,26
384,51	1751,01
384,72	1759,21
384,93	1638,38
385,14	1701,86
385,35	1763,30
385,55	1685,48
385,76	1722,34
385,97	1734,63
386,18	1591,27
386,39	1710,05
386,60	1669,09
386,81	1779,68
387,02	1720,29
387,22	1660,90
387,43	1722,34
387,64	1785,83
387,85	1888,23
388,06	2238,43
388,27	4282,30
388,48	6780,82
388,68	8107,91
388,89	9566,06
389,10	9633,64
389,31	8535,93
389,52	7571,34
389,73	6635,42
389,93	6268,83
390,14	5846,95
390,35	5144,50
390,56	4626,36
390,77	3776,45
390,98	3114,96
391,18	2459,61
391,39	2152,42
391,60	1861,60
391,81	1826,79
392,02	1683,43
392,23	1839,08
392,43	1705,96
392,64	1837,03
392,85	1615,85
393,06	1841,12
393,27	1791,97
393,47	1718,25
393,68	1800,16
393,89	1662,95
394,10	1822,69
394,31	1691,62
394,52	1617,90
394,72	1708,01
394,93	1791,97
395,14	1662,95
395,35	1738,73
395,56	1693,67
395,76	1742,82
395,97	1849,32
396,18	1869,80
396,39	1841,12
396,60	2064,35
396,80	1880,04
397,01	1806,31
397,22	1802,21
397,43	1814,50
397,64	1724,39
397,84	1730,53
398,05	1785,83
398,26	1769,44
398,47	1812,45
398,67	1818,60
398,88	1779,68
399,09	1798,12
399,30	1738,73
399,51	1781,73
399,71	1755,11
399,92	1748,97
400,13	1742,82
400,34	1722,34
400,54	1728,49
400,75	1849,32
400,96	1759,21
401,17	1787,88
401,37	1765,35
401,58	1738,73
401,79	1701,86
402,00	1851,36
402,21	2033,63
402,41	1953,76
402,62	2033,63
402,83	1988,58
403,04	1984,48
403,24	2084,83
403,45	1863,65
403,66	1902,56
403,87	1877,99
404,07	1828,84
404,28	1888,23
404,49	1882,08
404,70	1771,49
404,90	1818,60
405,11	1783,78
405,32	1867,75
405,52	1759,21
405,73	1665,00
405,94	1677,29
406,15	1691,62
406,35	1845,22
406,56	1742,82
406,77	1636,33
406,98	1787,88
407,18	1730,53
407,39	1802,21
407,60	1683,43
407,80	1816,55
408,01	1632,23
408,22	1736,68
408,43	1626,09
408,63	1767,40
408,84	1767,40
409,05	1804,26
409,25	1634,28
409,46	1675,24
409,67	1699,81
409,88	1691,62
410,08	1734,63
410,29	1703,91
410,50	1722,34
410,70	1736,68
410,91	1652,71
411,12	1693,67
411,32	1718,25
411,53	1710,05
411,74	1775,59
411,95	1839,08
412,15	1683,43
412,36	1777,64
412,57	1665,00
412,77	1925,09
412,98	1736,68
413,19	1765,35
413,39	1767,40
413,60	1769,44
413,81	1742,82
414,01	1701,86
414,22	1697,77
414,43	1785,83
414,63	1716,20
414,84	1830,88
415,05	1693,67
415,25	1615,85
415,46	1816,55
415,67	1673,19
415,87	1669,09
416,08	1722,34
416,29	1689,57
416,49	1767,40
416,70	1718,25
416,91	1738,73
417,11	1759,21
417,32	1783,78
417,53	1763,30
417,73	1689,57
417,94	1673,19
418,15	1730,53
418,35	1740,77
418,56	1718,25
418,77	1832,93
418,97	1628,14
419,18	1800,16
419,38	1605,61
419,59	1671,14
419,80	1767,40
420,00	1755,11
420,21	1708,01
420,42	1816,55
420,62	1765,35
420,83	1728,49
421,04	1773,54
421,24	1644,52
421,45	1779,68
421,65	1746,92
421,86	1642,47
422,07	1753,06
422,27	1765,35
422,48	1742,82
422,69	1695,72
422,89	1710,05
423,10	1705,96
423,30	1656,81
423,51	1697,77
423,72	1818,60
423,92	1781,73
424,13	1607,66
424,33	1757,16
424,54	1748,97
424,75	1767,40
424,95	1746,92
425,16	1773,54
425,36	1697,77
425,57	1769,44
425,78	1755,11
425,98	1751,01
426,19	1701,86
426,39	1714,15
426,60	1734,63
426,81	1808,36
427,01	1683,43
427,22	1730,53
427,42	1667,05
427,63	1708,01
427,83	1722,34
428,04	1783,78
428,25	1828,84
428,45	1822,69
428,66	1757,16
428,86	1708,01
429,07	1648,61
429,28	1734,63
429,48	1708,01
429,69	1687,53
429,89	1728,49
430,10	1662,95
430,30	1753,06
430,51	1781,73
430,71	1675,24
430,92	1718,25
431,13	1701,86
431,33	1748,97
431,54	1742,82
431,74	1802,21
431,95	1810,40
432,15	1646,57
432,36	1667,05
432,56	1755,11
432,77	1824,74
432,98	1755,11
433,18	1800,16
433,39	1634,28
433,59	1628,14
433,80	1839,08
434,00	1857,51
434,21	1691,62
434,41	1697,77
434,62	1914,85
434,82	1658,85
435,03	1642,47
435,23	1632,23
435,44	1640,42
435,64	1712,10
435,85	1761,25
436,06	1783,78
436,26	1683,43
436,47	1759,21
436,67	1716,20
436,88	1703,91
437,08	1816,55
437,29	1816,55
437,49	1705,96
437,70	1748,97
437,90	1699,81
438,11	1877,99
438,31	1800,16
438,52	1892,32
438,72	1882,08
438,93	1886,18
439,13	1816,55
439,34	1867,75
439,54	1763,30
439,75	1802,21
439,95	1779,68
440,16	1691,62
440,36	1755,11
440,57	1808,36
440,77	1728,49
440,98	1757,16
441,18	1755,11
441,39	1689,57
441,59	1691,62
441,80	1755,11
442,00	1669,09
442,21	1830,88
442,41	1675,24
442,62	1808,36
442,82	1734,63
443,02	1730,53
443,23	1701,86
443,43	1759,21
443,64	1724,39
443,84	1693,67
444,05	1763,30
444,25	1697,77
444,46	1787,88
444,66	1757,16
444,87	1863,65
445,07	1634,28
445,28	1800,16
445,48	1802,21
445,69	1873,89
445,89	1898,47
446,09	1748,97
446,30	2090,98
446,50	2738,13
446,71	3712,97
446,91	4444,09
447,12	4708,28
447,32	4724,66
447,53	4388,80
447,73	3766,21
447,93	3610,57
448,14	3286,99
448,34	3237,84
448,55	2895,83
448,75	2762,71
448,96	2682,84
449,16	2387,93
449,36	2369,50
449,57	2045,92
449,77	1959,91
449,98	1771,49
450,18	1822,69
450,39	1818,60
450,59	1779,68
450,79	1804,26
451,00	1720,29
451,20	1800,16
451,41	1751,01
451,61	1748,97
451,81	1677,29
452,02	1660,90
452,22	1730,53
452,43	1728,49
452,63	1722,34
452,84	1791,97
453,04	1714,15
453,24	1734,63
453,45	1712,10
453,65	1742,82
453,86	1716,20
454,06	1738,73
454,26	1705,96
454,47	1699,81
454,67	1796,07
454,87	1710,05
455,08	1804,26
455,28	1877,99
455,49	1757,16
455,69	1763,30
455,89	1925,09
456,10	1861,60
456,30	1755,11
456,51	1744,87
456,71	1775,59
456,91	1751,01
457,12	1787,88
457,32	1849,32
457,52	1638,38
457,73	1841,12
457,93	1845,22
458,14	1671,14
458,34	1705,96
458,54	1703,91
458,75	1716,20
458,95	1806,31
459,15	1755,11
459,36	1785,83
459,56	1751,01
459,76	1841,12
459,97	1779,68
460,17	1769,44
460,37	1708,01
460,58	1718,25
460,78	1779,68
460,99	1728,49
461,19	1699,81
461,39	1767,40
461,60	1716,20
461,80	1732,58
462,00	1658,85
462,21	1699,81
462,41	1683,43
462,61	1648,61
462,82	1642,47
463,02	1728,49
463,22	1683,43
463,43	1734,63
463,63	1757,16
463,83	1787,88
464,04	1705,96
464,24	1765,35
464,44	1660,90
464,64	1818,60
464,85	1718,25
465,05	1857,51
465,25	1740,77
465,46	1638,38
465,66	1773,54
465,86	1781,73
466,07	1767,40
466,27	1767,40
466,47	1720,29
466,68	1667,05
466,88	1796,07
467,08	1804,26
467,29	1822,69
467,49	1691,62
467,69	1755,11
467,89	1708,01
468,10	1789,92
468,30	1781,73
468,50	1781,73
468,71	1710,05
468,91	1605,61
469,11	1798,12
469,31	1691,62
469,52	1689,57
469,72	1839,08
469,92	1931,23
470,13	1730,53
470,33	1759,21
470,53	1824,74
470,73	2099,17
470,94	2328,54
471,14	2322,40
471,34	2478,04
471,54	2404,32
471,75	2215,90
471,95	2136,03
472,15	2105,31
472,36	2101,22
472,56	2070,50
472,76	2029,54
472,96	2050,02
473,17	1923,04
473,37	1918,95
473,57	1751,01
473,77	1875,94
473,98	1712,10
474,18	1755,11
474,38	1892,32
474,58	1728,49
474,79	1679,33
474,99	1683,43
475,19	1791,97
475,39	1658,85
475,60	1746,92
475,80	1798,12
476,00	1712,10
476,20	1740,77
476,41	1757,16
476,61	1779,68
476,81	1822,69
477,01	1738,73
477,21	1853,41
477,42	1843,17
477,62	1660,90
477,82	1785,83
478,02	1783,78
478,23	1781,73
478,43	1665,00
478,63	1699,81
478,83	1740,77
479,03	1710,05
479,24	1828,84
479,44	1900,52
479,64	1720,29
479,84	1677,29
480,04	1734,63
480,25	1771,49
480,45	1744,87
480,65	1730,53
480,85	1781,73
481,06	1658,85
481,26	1759,21
481,46	1771,49
481,66	1775,59
481,86	1679,33
482,06	1849,32
482,27	1705,96
482,47	1720,29
482,67	1740,77
482,87	1685,48
483,07	1800,16
483,28	1738,73
483,48	1716,20
483,68	1675,24
483,88	1705,96
484,08	1667,05
484,29	1714,15
484,49	1730,53
484,69	1708,01
484,89	1769,44
485,09	1734,63
485,29	1775,59
485,50	1794,02
485,70	1654,76
485,90	1775,59
486,10	1673,19
486,30	1718,25
486,50	1791,97
486,71	1701,86
486,91	1744,87
487,11	1828,84
487,31	1662,95
487,51	1724,39
487,71	1667,05
487,91	1609,70
488,12	1642,47
488,32	1621,99
488,52	1734,63
488,72	1652,71
488,92	1710,05
489,12	1763,30
489,32	1773,54
489,53	1771,49
489,73	1621,99
489,93	1853,41
490,13	1734,63
490,33	1689,57
490,53	1755,11
490,73	1820,64
490,94	1699,81
491,14	1738,73
491,34	1814,50
491,54	2140,13
491,74	2613,21
491,94	2959,31
492,14	3006,42
492,34	2938,84
492,54	2748,37
492,75	2564,06
492,95	2379,74
493,15	2385,88
493,35	2291,68
493,55	2228,19
493,75	2123,74
493,95	2166,75
494,15	1961,95
494,35	1970,15
494,56	1826,79
494,76	1779,68
494,96	1783,78
495,16	1820,64
495,36	1746,92
495,56	1679,33
495,76	1785,83
495,96	1757,16
496,16	1660,90
496,36	1800,16
496,56	1703,91
496,77	1763,30
496,97	1716,20
497,17	1802,21
497,37	1615,85
497,57	1783,78
497,77	1677,29
497,97	1697,77
498,17	1773,54
498,37	1714,15
498,57	1820,64
498,77	1834,98
498,97	1808,36
499,17	1877,99
499,38	1759,21
499,58	1712,10
499,78	1765,35
499,98	1800,16
500,18	1777,64
500,38	1722,34
500,58	1918,95
500,78	2578,39
500,98	4571,07
501,18	5771,18
501,38	6659,99
501,58	6891,41
501,78	6791,06
501,98	5492,65
502,18	4974,52
502,38	4407,23
502,58	4196,29
502,78	3825,61
502,98	3833,80
503,18	3534,79
503,38	3278,80
503,59	2879,44
503,79	2697,17
503,99	2482,14
504,19	2361,31
504,39	2189,28
504,59	2258,91
504,79	2113,50
504,99	2033,63
505,19	1976,29
505,39	1875,94
505,59	1935,33
505,79	1951,71
505,99	1894,37
506,19	1791,97
506,39	1953,76
506,59	1685,48
506,79	1787,88
506,99	1877,99
507,19	1800,16
507,39	1720,29
507,59	1677,29
507,79	1673,19
507,99	1691,62
508,19	1779,68
508,39	1718,25
508,59	1740,77
508,79	1810,40
508,99	1916,90
509,19	1775,59
509,39	1783,78
509,59	1677,29
509,79	1677,29
509,99	1673,19
510,19	1794,02
510,39	1765,35
510,59	1681,38
510,79	1759,21
510,99	1714,15
511,19	1689,57
511,39	1900,52
511,59	1777,64
511,79	1804,26
511,99	1708,01
512,19	1832,93
512,38	1828,84
512,58	1685,48
512,78	1779,68
512,98	1847,27
513,18	1757,16
513,38	1658,85
513,58	1736,68
513,78	1679,33
513,98	1767,40
514,18	1767,40
514,38	1675,24
514,58	1742,82
514,78	1681,38
514,98	1689,57
515,18	1781,73
515,38	1648,61
515,58	1877,99
515,78	1710,05
515,98	1787,88
516,18	1847,27
516,38	1722,34
516,57	1683,43
516,77	1767,40
516,97	1808,36
517,17	1722,34
517,37	1638,38
517,57	1839,08
517,77	1730,53
517,97	1722,34
518,17	1820,64
518,37	1740,77
518,57	1730,53
518,77	1701,86
518,97	1769,44
519,16	1736,68
519,36	1791,97
519,56	1716,20
519,76	1794,02
519,96	1775,59
520,16	1839,08
520,36	1734,63
520,56	1828,84
520,76	1691,62
520,96	1708,01
521,16	1740,77
521,35	1845,22
521,55	1834,98
521,75	1791,97
521,95	1718,25
522,15	1675,24
522,35	1624,04
522,55	1667,05
522,75	1822,69
522,95	1773,54
523,14	1693,67
523,34	1826,79
523,54	1658,85
523,74	1834,98
523,94	1732,58
524,14	1665,00
524,34	1822,69
524,54	1802,21
524,73	1763,30
524,93	1779,68
525,13	1763,30
525,33	1796,07
525,53	1853,41
525,73	1869,80
525,93	1705,96
526,13	1742,82
526,32	1746,92
526,52	1791,97
526,72	1746,92
526,92	1726,44
527,12	1771,49
527,32	1646,57
527,52	1796,07
527,71	1689,57
527,91	1728,49
528,11	1732,58
528,31	1789,92
528,51	1681,38
528,71	1736,68
528,90	1728,49
529,10	1794,02
529,30	1816,55
529,50	1587,18
529,70	1775,59
529,90	1705,96
530,09	1718,25
530,29	1757,16
530,49	1759,21
530,69	1900,52
530,89	1775,59
531,09	1759,21
531,28	1767,40
531,48	1822,69
531,68	1740,77
531,88	1728,49
532,08	1720,29
532,28	1804,26
532,47	1755,11
532,67	1896,42
532,87	1730,53
533,07	1775,59
533,27	1808,36
533,46	1746,92
533,66	1722,34
533,86	1757,16
534,06	1746,92
534,26	1722,34
534,45	1699,81
534,65	1886,18
534,85	1804,26
535,05	1773,54
535,25	1765,35
535,44	1701,86
535,64	1710,05
535,84	1746,92
536,04	1677,29
536,24	1701,86
536,43	1763,30
536,63	1759,21
536,83	1781,73
537,03	1677,29
537,22	1693,67
537,42	1654,76
537,62	1763,30
537,82	1765,35
538,02	1896,42
538,21	1816,55
538,41	1916,90
538,61	1746,92
538,81	1662,95
539,00	1773,54
539,20	1701,86
539,40	1728,49
539,60	1796,07
539,79	1800,16
539,99	1765,35
540,19	1665,00
540,39	1791,97
540,58	1761,25
540,78	1794,02
540,98	1787,88
541,18	1732,58
541,37	1820,64
541,57	1746,92
541,77	1689,57
541,97	1656,81
542,16	1638,38
542,36	1744,87
542,56	1720,29
542,76	1820,64
542,95	1863,65
543,15	1716,20
543,35	1798,12
543,54	1685,48
543,74	1738,73
543,94	1794,02
544,14	1697,77
544,33	1763,30
544,53	1814,50
544,73	1765,35
544,93	1675,24
545,12	1736,68
545,32	1730,53
545,52	1677,29
545,71	1683,43
545,91	1724,39
546,11	1667,05
546,30	1714,15
546,50	1691,62
546,70	1806,31
546,90	1789,92
547,09	1626,09
547,29	1796,07
547,49	1800,16
547,68	1710,05
547,88	1660,90
548,08	1738,73
548,27	2215,90
548,47	1738,73
548,67	1710,05
548,87	1691,62
549,06	1691,62
549,26	1779,68
549,46	1767,40
549,65	1820,64
549,85	1705,96
550,05	1771,49
550,24	1718,25
550,44	1738,73
550,64	1806,31
550,83	1738,73
551,03	1796,07
551,23	1820,64
551,42	1771,49
551,62	1742,82
551,82	1787,88
552,01	1804,26
552,21	1798,12
552,41	1746,92
552,60	1800,16
552,80	1732,58
553,00	1693,67
553,19	1767,40
553,39	1847,27
553,59	1656,81
553,78	1771,49
553,98	1765,35
554,17	1681,38
554,37	1730,53
554,57	1757,16
554,76	1581,03
554,96	1718,25
555,16	1851,36
555,35	1849,32
555,55	1759,21
555,75	1771,49
555,94	1802,21
556,14	1671,14
556,33	1804,26
556,53	1730,53
556,73	1722,34
556,92	1814,50
557,12	1812,45
557,32	1798,12
557,51	1837,03
557,71	1830,88
557,90	1820,64
558,10	1769,44
558,30	1804,26
558,49	1720,29
558,69	1697,77
558,88	1773,54
559,08	1828,84
559,28	1787,88
559,47	1802,21
559,67	1822,69
559,86	1834,98
560,06	1781,73
560,26	1757,16
560,45	1703,91
560,65	1742,82
560,84	1789,92
561,04	1648,61
561,24	1763,30
561,43	1734,63
561,63	1828,84
561,82	1634,28
562,02	1787,88
562,22	1767,40
562,41	1693,67
562,61	1718,25
562,80	1710,05
563,00	1865,70
563,19	1777,64
563,39	1765,35
563,59	1759,21
563,78	1673,19
563,98	1636,33
564,17	1718,25
564,37	1673,19
564,56	1732,58
564,76	1703,91
564,96	1863,65
565,15	1726,44
565,35	1855,46
565,54	1732,58
565,74	1802,21
565,93	1742,82
566,13	1791,97
566,32	1767,40
566,52	1873,89
566,71	1742,82
566,91	1818,60
567,11	1708,01
567,30	1642,47
567,50	1724,39
567,69	1847,27
567,89	1705,96
568,08	1689,57
568,28	1779,68
568,47	1628,14
568,67	1812,45
568,86	1746,92
569,06	1798,12
569,25	1703,91
569,45	1746,92
569,64	1757,16
569,84	1699,81
570,04	1787,88
570,23	1658,85
570,43	1763,30
570,62	1808,36
570,82	1841,12
571,01	1669,09
571,21	1665,00
571,40	1722,34
571,60	1814,50
571,79	1761,25
571,99	1769,44
572,18	1712,10
572,38	1796,07
572,57	1728,49
572,77	1781,73
572,96	1914,85
573,16	1771,49
573,35	1781,73
573,55	1861,60
573,74	1757,16
573,94	1718,25
574,13	1738,73
574,33	1837,03
574,52	1773,54
574,71	1720,29
574,91	1703,91
575,10	1710,05
575,30	1710,05
575,49	1757,16
575,69	1726,44
575,88	1724,39
576,08	1720,29
576,27	1740,77
576,47	1718,25
576,66	1822,69
576,86	1877,99
577,05	1708,01
577,25	1845,22
577,44	1863,65
577,64	1705,96
577,83	1751,01
578,02	1681,38
578,22	1841,12
578,41	1853,41
578,61	1798,12
578,80	1720,29
579,00	1751,01
579,19	1720,29
579,39	1765,35
579,58	1818,60
579,77	1759,21
579,97	1779,68
580,16	1861,60
580,36	1822,69
580,55	1890,28
580,75	1755,11
580,94	1748,97
581,13	1851,36
581,33	1769,44
581,52	1681,38
581,72	1898,47
581,91	1839,08
582,11	1773,54
582,30	1736,68
582,49	1781,73
582,69	1871,84
582,88	1816,55
583,08	1748,97
583,27	1802,21
583,47	1820,64
583,66	1665,00
583,85	1679,33
584,05	1714,15
584,24	1744,87
584,44	1779,68
584,63	1757,16
584,82	1837,03
585,02	1812,45
585,21	1779,68
585,41	1775,59
585,60	1869,80
585,79	2002,91
585,99	1894,37
586,18	1888,23
586,37	2127,84
586,57	3370,96
586,76	9965,42
586,96	24110,74
587,15	34211,32
587,34	40242,59
587,54	41647,49
587,73	36658,64
587,93	26304,11
588,12	21679,80
588,31	18075,37
588,51	16148,23
588,70	15161,11
588,89	13997,87
589,09	12394,31
589,28	11022,17
589,47	9439,09
589,67	7849,86
589,86	6430,62
590,06	4921,27
590,25	3866,56
590,44	3149,78
590,64	2672,60
590,83	2250,72
591,02	2176,99
591,22	1996,77
591,41	1951,71
591,60	1906,66
591,80	1918,95
591,99	1736,68
592,18	1746,92
592,38	1822,69
592,57	1751,01
592,76	1675,24
592,96	1800,16
593,15	1765,35
593,34	1816,55
593,54	1744,87
593,73	1771,49
593,92	1814,50
594,12	1800,16
594,31	1667,05
594,50	1804,26
594,70	1783,78
594,89	1839,08
595,08	1646,57
595,28	1779,68
595,47	1902,56
595,66	1796,07
595,86	1646,57
596,05	1726,44
596,24	1732,58
596,43	1849,32
596,63	1865,70
596,82	1791,97
597,01	1773,54
597,21	1888,23
597,40	1859,56
597,59	1722,34
597,79	1845,22
597,98	1736,68
598,17	1765,35
598,36	1822,69
598,56	1722,34
598,75	1757,16
598,94	1767,40
599,14	1722,34
599,33	1736,68
599,52	1783,78
599,71	1748,97
599,91	1855,46
600,10	1796,07
600,29	1775,59
600,48	1802,21
600,68	1824,74
600,87	1744,87
601,06	1724,39
601,26	1796,07
601,45	1728,49
601,64	1761,25
601,83	1720,29
602,03	1681,38
602,22	1708,01
602,41	1785,83
602,60	1869,80
602,80	1796,07
602,99	1816,55
603,18	1724,39
603,37	1765,35
603,57	1796,07
603,76	1812,45
603,95	1781,73
604,14	1703,91
604,34	1644,52
604,53	1748,97
604,72	1738,73
604,91	1800,16
605,10	1808,36
605,30	1716,20
605,49	1863,65
605,68	1767,40
605,87	1800,16
606,07	1697,77
606,26	1730,53
606,45	1757,16
606,64	1753,06
606,84	1648,61
607,03	1705,96
607,22	1767,40
607,41	1726,44
607,60	1716,20
607,80	1787,88
607,99	1746,92
608,18	1734,63
608,37	1722,34
608,56	1699,81
608,76	1837,03
608,95	1828,84
609,14	1773,54
609,33	1761,25
609,52	1767,40
609,72	1697,77
609,91	1773,54
610,10	1746,92
610,29	1789,92
610,48	1771,49
610,68	1783,78
610,87	1695,72
611,06	1783,78
611,25	1669,09
611,44	1791,97
611,63	1656,81
611,83	1851,36
612,02	1697,77
612,21	1832,93
612,40	1675,24
612,59	1714,15
612,79	1730,53
612,98	1701,86
613,17	1841,12
613,36	1705,96
613,55	1832,93
613,74	1744,87
613,93	1740,77
614,13	1791,97
614,32	1800,16
614,51	1841,12
614,70	1675,24
614,89	1742,82
615,08	1822,69
615,28	1990,63
615,47	1665,00
615,66	1740,77
615,85	1724,39
616,04	1875,94
616,23	1757,16
616,42	1675,24
616,62	1734,63
616,81	1798,12
617,00	1726,44
617,19	1843,17
617,38	1693,67
617,57	1740,77
617,76	1734,63
617,95	1763,30
618,15	1765,35
618,34	1828,84
618,53	1644,52
618,72	1802,21
618,91	1742,82
619,10	1755,11
619,29	1712,10
619,48	1708,01
619,68	1720,29
619,87	1673,19
620,06	1617,90
620,25	1763,30
620,44	1759,21
620,63	1724,39
620,82	1732,58
621,01	1861,60
621,20	1738,73
621,39	1773,54
621,59	1693,67
621,78	1740,77
621,97	1757,16
622,16	1779,68
622,35	1742,82
622,54	1763,30
622,73	1847,27
622,92	1671,14
623,11	1687,53
623,30	1746,92
623,49	1744,87
623,68	1789,92
623,88	1765,35
624,07	1734,63
624,26	1679,33
624,45	1708,01
624,64	1800,16
624,83	1828,84
625,02	1740,77
625,21	1751,01
625,40	1699,81
625,59	1781,73
625,78	1710,05
625,97	1759,21
626,16	1810,40
626,35	1736,68
626,54	1712,10
626,74	1767,40
626,93	1638,38
627,12	1740,77
627,31	1796,07
627,50	1714,15
627,69	1814,50
627,88	1716,20
628,07	1699,81
628,26	1691,62
628,45	1650,66
628,64	1728,49
628,83	1800,16
629,02	1673,19
629,21	1830,88
629,40	1722,34
629,59	1695,72
629,78	1644,52
629,97	1744,87
630,16	1746,92
630,35	1757,16
630,54	1734,63
630,73	1681,38
630,92	1775,59
631,11	1736,68
631,30	1667,05
631,49	1806,31
631,68	1769,44
631,87	1771,49
632,06	1705,96
632,25	1863,65
632,44	1697,77
632,63	1748,97
632,82	1748,97
633,01	1699,81
633,20	1722,34
633,39	1654,76
633,58	1646,57
633,77	1800,16
633,96	1773,54
634,15	1808,36
634,34	1804,26
634,53	1716,20
634,72	1691,62
634,91	1656,81
635,10	1738,73
635,29	1763,30
635,48	1751,01
635,67	1724,39
635,86	1724,39
636,05	1804,26
636,24	1708,01
636,43	1771,49
636,62	1746,92
636,81	1538,02
637,00	1708,01
637,19	1685,48
637,38	1689,57
637,57	1687,53
637,76	1767,40
637,95	1744,87
638,14	1591,27
638,33	1773,54
638,52	1765,35
638,71	1671,14
638,89	1615,85
639,08	1834,98
639,27	1746,92
639,46	1691,62
639,65	1800,16
639,84	1738,73
640,03	1791,97
640,22	1705,96
640,41	1777,64
640,60	1726,44
640,79	1710,05
640,98	1615,85
641,17	1771,49
641,36	1720,29
641,55	1757,16
641,74	1662,95
641,92	1697,77
642,11	1695,72
642,30	1724,39
642,49	1697,77
642,68	1722,34
642,87	1771,49
643,06	1710,05
643,25	1728,49
643,44	1660,90
643,63	1785,83
643,82	1791,97
644,00	1619,94
644,19	1718,25
644,38	1638,38
644,57	1675,24
644,76	1703,91
644,95	1736,68
645,14	1777,64
645,33	1710,05
645,52	1697,77
645,71	1603,56
645,89	1648,61
646,08	1675,24
646,27	1697,77
646,46	1873,89
646,65	1705,96
646,84	1693,67
647,03	1677,29
647,22	1820,64
647,40	1787,88
647,59	1765,35
647,78	1658,85
647,97	1564,65
648,16	1691,62
648,35	1818,60
648,54	1777,64
648,73	1734,63
648,91	1802,21
649,10	1675,24
649,29	1660,90
649,48	1673,19
649,67	1703,91
649,86	1779,68
650,05	1669,09
650,23	1808,36
650,42	1595,37
650,61	1751,01
650,80	1763,30
650,99	1859,56
651,18	1816,55
651,36	1757,16
651,55	1662,95
651,74	1767,40
651,93	1652,71
652,12	1746,92
652,31	1763,30
652,49	1660,90
652,68	1730,53
652,87	1740,77
653,06	1736,68
653,25	1736,68
653,44	1660,90
653,62	1773,54
653,81	1724,39
654,00	1759,21
654,19	1787,88
654,38	1779,68
654,56	1802,21
654,75	1726,44
654,94	1753,06
655,13	1794,02
655,32	1734,63
655,51	1751,01
655,69	1669,09
655,88	1789,92
656,07	1701,86
656,26	1744,87
656,45	1576,94
656,63	1773,54
656,82	1701,86
657,01	1851,36
657,20	1697,77
657,38	1759,21
657,57	1640,42
657,76	1626,09
657,95	1738,73
658,14	1669,09
658,32	1710,05
658,51	1673,19
658,70	1826,79
658,89	1677,29
659,08	1654,76
659,26	1720,29
659,45	1611,75
659,64	1748,97
659,83	1673,19
660,01	1918,95
660,20	1720,29
660,39	1791,97
660,58	1578,98
660,76	1753,06
660,95	1669,09
661,14	1708,01
661,33	1646,57
661,51	1685,48
661,70	1751,01
661,89	1726,44
662,08	1691,62
662,26	1613,80
662,45	1642,47
662,64	1902,56
662,83	1718,25
663,01	1708,01
663,20	1665,00
663,39	1851,36
663,58	1640,42
663,76	1705,96
663,95	1828,84
664,14	1687,53
664,32	1669,09
664,51	1648,61
664,70	1652,71
664,89	1767,40
665,07	1621,99
665,26	1804,26
665,45	1660,90
665,64	1720,29
665,82	1769,44
666,01	1824,74
666,20	1650,66
666,38	1837,03
666,57	1830,88
666,76	2189,28
666,95	4480,96
667,13	10168,16
667,32	15343,38
667,51	17743,60
667,69	19054,30
667,88	17540,85
668,07	12394,31
668,25	9451,38
668,44	8101,76
668,63	7366,54
668,81	6838,17
669,00	6141,86
669,19	5668,78
669,38	5203,89
669,56	4587,45
669,75	4087,75
669,94	3475,40
670,12	2918,36
670,31	2549,72
670,50	2324,44
670,68	2074,59
670,87	1904,61
671,06	1818,60
671,24	1751,01
671,43	1830,88
671,62	1755,11
671,80	1718,25
671,99	1742,82
672,18	1742,82
672,36	1789,92
672,55	1775,59
672,74	1828,84
672,92	1703,91
673,11	1763,30
673,29	1607,66
673,48	1794,02
673,67	1712,10
673,85	1761,25
674,04	1681,38
674,23	1699,81
674,41	1814,50
674,60	1695,72
674,79	1673,19
674,97	1689,57
675,16	1812,45
675,34	1722,34
675,53	1734,63
675,72	1794,02
675,90	1789,92
676,09	1646,57
676,28	1748,97
676,46	1535,98
676,65	1880,04
676,83	1677,29
677,02	1730,53
677,21	1763,30
677,39	1726,44
677,58	1615,85
677,77	1705,96
677,95	1656,81
678,14	1740,77
678,32	1705,96
678,51	1724,39
678,70	1851,36
678,88	1685,48
679,07	1695,72
679,25	1769,44
679,44	1732,58
679,63	1648,61
679,81	1800,16
680,00	1824,74
680,18	1812,45
680,37	1806,31
680,55	1683,43
680,74	1710,05
680,93	1634,28
681,11	1765,35
681,30	1693,67
681,48	1791,97
681,67	1695,72
681,85	1683,43
682,04	1624,04
682,23	1728,49
682,41	1710,05
682,60	1695,72
682,78	1755,11
682,97	1589,22
683,15	1724,39
683,34	1673,19
683,53	1759,21
683,71	1677,29
683,90	1705,96
684,08	1822,69
684,27	1693,67
684,45	1748,97
684,64	1681,38
684,82	1742,82
685,01	1705,96
685,19	1718,25
685,38	1771,49
685,57	1683,43
685,75	1740,77
685,94	1714,15
686,12	1669,09
686,31	1689,57
686,49	1773,54
686,68	1691,62
686,86	1724,39
687,05	1746,92
687,23	1794,02
687,42	1685,48
687,60	1611,75
687,79	1734,63
687,97	1849,32
688,16	1714,15
688,34	1781,73
688,53	1667,05
688,71	1759,21
688,90	1841,12
689,08	1701,86
689,27	1679,33
689,45	1773,54
689,64	1724,39
689,82	1734,63
690,01	1714,15
690,19	1724,39
690,38	1767,40
690,56	1822,69
690,75	1667,05
690,93	1638,38
691,12	1599,46
691,30	1712,10
691,49	1634,28
691,67	1712,10
691,86	1884,13
692,04	1681,38
692,23	1705,96
692,41	1636,33
692,60	1867,75
692,78	1820,64
692,97	1714,15
693,15	1812,45
693,34	1820,64
693,52	1726,44
693,71	1654,76
693,89	1728,49
694,08	1646,57
694,26	1753,06
694,44	1763,30
694,63	1734,63
694,81	1603,56
695,00	1746,92
695,18	1757,16
695,37	1822,69
695,55	1652,71
695,74	1705,96
695,92	1626,09
696,10	1794,02
696,29	1683,43
696,47	1640,42
696,66	1671,14
696,84	1656,81
697,03	1728,49
697,21	1867,75
697,40	2326,49
697,58	1812,45
697,76	1716,20
697,95	1673,19
698,13	1607,66
698,32	1662,95
698,50	1720,29
698,68	1757,16
698,87	1619,94
699,05	1796,07
699,24	1712,10
699,42	1693,67
699,61	1791,97
699,79	1744,87
699,97	1732,58
700,16	1638,38
700,34	1685,48
700,53	1695,72
700,71	1783,78
700,89	1808,36
701,08	1681,38
701,26	1740,77
701,45	2082,78
701,63	1691,62
701,81	1724,39
702,00	1714,15
702,18	1697,77
702,37	1656,81
702,55	1685,48
702,73	1726,44
702,92	1638,38
703,10	1804,26
703,28	1746,92
703,47	1650,66
703,65	1775,59
703,84	1777,64
704,02	1751,01
704,20	1798,12
704,39	1646,57
704,57	1689,57
704,75	1783,78
704,94	1726,44
705,12	1669,09
705,30	1753,06
705,49	2289,63
705,67	4523,96
705,86	9330,55
706,04	12646,21
706,22	14450,47
706,41	15273,75
706,59	13737,77
706,77	9494,38
706,96	7427,98
707,14	6649,75
707,32	5937,06
707,51	5584,81
707,69	4837,30
707,87	4214,72
708,06	3592,14
708,24	2957,27
708,42	2361,31
708,61	2197,47
708,79	1871,84
708,97	1834,98
709,16	1837,03
709,34	1771,49
709,52	1722,34
709,71	1767,40
709,89	1742,82
710,07	1712,10
710,26	1771,49
710,44	1718,25
710,62	1724,39
710,80	1779,68
710,99	1765,35
711,17	1732,58
711,35	1714,15
711,54	1722,34
711,72	1763,30
711,90	1732,58
712,09	1720,29
712,27	1632,23
712,45	1722,34
712,63	1703,91
712,82	1722,34
713,00	1718,25
713,18	1771,49
713,37	1730,53
713,55	1730,53
713,73	1726,44
713,91	1724,39
714,10	1714,15
714,28	1751,01
714,46	1779,68
714,65	1798,12
714,83	1728,49
715,01	1722,34
715,19	1710,05
715,38	1656,81
715,56	1751,01
715,74	1681,38
715,92	1697,77
716,11	1869,80
716,29	1619,94
716,47	1689,57
716,65	1701,86
716,84	1609,70
717,02	1744,87
717,20	1646,57
717,38	1656,81
717,57	1738,73
717,75	1703,91
717,93	1679,33
718,11	1777,64
718,30	1576,94
718,48	1646,57
718,66	1814,50
718,84	1804,26
719,03	1675,24
719,21	1656,81
719,39	1755,11
719,57	1796,07
719,75	1740,77
719,94	1646,57
720,12	1677,29
720,30	1716,20
720,48	1857,51
720,67	1665,00
720,85	1716,20
721,03	1742,82
721,21	1630,18
721,39	1746,92
721,58	1751,01
721,76	1724,39
721,94	1736,68
722,12	1656,81
722,30	1775,59
722,49	1720,29
722,67	1673,19
722,85	1609,70
723,03	1724,39
723,21	1669,09
723,40	1656,81
723,58	1787,88
723,76	1720,29
723,94	1828,84
724,12	1671,14
724,30	1771,49
724,49	1734,63
724,67	1640,42
724,85	1816,55
725,03	1652,71
725,21	1744,87
725,40	1787,88
725,58	1716,20
725,76	1757,16
725,94	1726,44
726,12	1638,38
726,30	1701,86
726,49	1714,15
726,67	1701,86
726,85	1710,05
727,03	1748,97
727,21	2199,52
727,39	2848,72
727,57	3780,55
727,76	4251,58
727,94	4460,48
728,12	4280,25
728,30	3733,45
728,48	3049,43
728,66	2740,18
728,84	2676,70
729,03	2215,90
729,21	2174,94
729,39	1953,76
729,57	1839,08
729,75	1849,32
729,93	1841,12
730,11	1638,38
730,30	1705,96
730,48	1718,25
730,66	1806,31
730,84	1773,54
731,02	1779,68
731,20	1695,72
731,38	1759,21
731,56	1660,90
731,74	1644,52
731,93	1787,88
732,11	1761,25
732,29	1740,77
732,47	1726,44
732,65	1691,62
732,83	1789,92
733,01	1783,78
733,19	1628,14
733,37	1708,01
733,56	1726,44
733,74	1769,44
733,92	1769,44
734,10	1640,42
734,28	1812,45
734,46	1615,85
734,64	1640,42
734,82	1599,46
735,00	1742,82
735,18	1662,95
735,36	1679,33
735,54	1665,00
735,73	1761,25
735,91	1773,54
736,09	1761,25
736,27	1673,19
736,45	1783,78
736,63	1648,61
736,81	1656,81
736,99	1689,57
737,17	1751,01
737,35	1677,29
737,53	1763,30
737,71	1652,71
737,89	1751,01
738,07	1644,52
738,25	1718,25
738,43	1714,15
738,61	1751,01
738,80	1648,61
738,98	1646,57
739,16	1705,96
739,34	1585,13
739,52	1773,54
739,70	1785,83
739,88	1794,02
740,06	1759,21
740,24	1650,66
740,42	1748,97
740,60	1667,05
740,78	1738,73
740,96	1683,43
741,14	1740,77
741,32	1683,43
741,50	1648,61
741,68	1904,61
741,86	1783,78
742,04	1701,86
742,22	1740,77
742,40	1740,77
742,58	1843,17
742,76	1689,57
742,94	1677,29
743,12	1564,65
743,30	1742,82
743,48	1751,01
743,66	1609,70
743,84	1708,01
744,02	1740,77
744,20	1738,73
744,38	1691,62
744,56	1652,71
744,74	1832,93
744,92	1787,88
745,10	1804,26
745,28	1755,11
745,46	1832,93
745,64	1662,95
745,82	1757,16
746,00	1734,63
746,18	1648,61
746,36	1685,48
746,54	1656,81
746,72	1703,91
746,90	1646,57
747,08	1775,59
747,26	1673,19
747,44	1769,44
747,62	1738,73
747,80	1736,68
747,98	1724,39
748,15	1691,62
748,33	1837,03
748,51	1705,96
748,69	1763,30
748,87	1699,81
749,05	1746,92
749,23	1753,06
749,41	1736,68
749,59	1710,05
749,77	1765,35
749,95	1619,94
750,13	1619,94
750,31	1693,67
750,49	1691,62
750,67	1718,25
750,85	1837,03
751,03	1777,64
751,20	1851,36
751,38	1734,63
751,56	1662,95
751,74	1705,96
751,92	1697,77
752,10	1683,43
752,28	1748,97
752,46	1626,09
752,64	1748,97
752,82	1705,96
753,00	1765,35
753,18	1656,81
753,35	1683,43
753,53	1669,09
753,71	1595,37
753,89	1767,40
754,07	1677,29
754,25	1755,11
754,43	1767,40
754,61	1613,80
754,79	1644,52
754,97	1708,01
755,14	1708,01
755,32	1642,47
755,50	1781,73
755,68	1767,40
755,86	1718,25
756,04	1669,09
756,22	1617,90
756,40	1775,59
756,57	1871,84
756,75	1722,34
756,93	1769,44
757,11	1705,96
757,29	1652,71
757,47	1701,86
757,65	1687,53
757,82	1644,52
758,00	1675,24
758,18	1714,15
758,36	1683,43
758,54	1783,78
758,72	1595,37
758,90	1773,54
759,07	1648,61
759,25	1691,62
759,43	1773,54
759,61	1714,15
759,79	2244,57
759,97	1734,63
760,15	1671,14
760,32	1701,86
760,50	1740,77
760,68	1791,97
760,86	1683,43
761,04	1734,63
761,22	1757,16
761,39	1714,15
761,57	1652,71
761,75	1652,71
761,93	1767,40
762,11	1685,48
762,28	1736,68
762,46	1634,28
762,64	1730,53
762,82	1681,38
763,00	1691,62
763,18	1763,30
763,35	1697,77
763,53	1765,35
763,71	1724,39
763,89	1820,64
764,07	1665,00
764,24	1693,67
764,42	1714,15
764,60	1765,35
764,78	1695,72
764,96	1732,58
765,13	1691,62
765,31	1718,25
765,49	1669,09
765,67	1693,67
765,84	1675,24
766,02	1695,72
766,20	1607,66
766,38	1734,63
766,56	1701,86
766,73	1726,44
766,91	1712,10
767,09	1646,57
767,27	1730,53
767,44	1562,60
767,62	1722,34
767,80	1781,73
767,98	1656,81
768,15	1697,77
768,33	1728,49
768,51	1763,30
768,69	1763,30
768,87	1787,88
769,04	1697,77
769,22	1896,42
769,40	1767,40
769,58	1830,88
769,75	1708,01
769,93	1779,68
770,11	1732,58
770,28	1669,09
770,46	1714,15
770,64	1771,49
770,82	1677,29
770,99	1681,38
771,17	1804,26
771,35	1720,29
771,53	1687,53
771,70	1677,29
771,88	1667,05
772,06	1669,09
772,23	1738,73
772,41	1781,73
772,59	1677,29
772,77	1624,04
772,94	1689,57
773,12	1652,71
773,30	1642,47
773,47	1714,15
773,65	1660,90
773,83	1802,21
774,01	1638,38
774,18	1564,65
774,36	1695,72
774,54	1703,91
774,71	1695,72
774,89	1681,38
775,07	1658,85
775,24	1691,62
775,42	1617,90
775,60	1794,02
775,78	1708,01
775,95	1566,70
776,13	1763,30
776,31	1685,48
776,48	1681,38
776,66	1710,05
776,84	1687,53
777,01	1726,44
777,19	1671,14
777,37	1701,86
777,54	1769,44
777,72	1851,36
777,90	1703,91
778,07	1683,43
778,25	1861,60
778,43	1714,15
778,60	1652,71
778,78	1804,26
778,96	1755,11
779,13	1665,00
779,31	1773,54
779,49	1744,87
779,66	1673,19
779,84	1753,06
780,01	1736,68
780,19	1722,34
780,37	1808,36
780,54	1779,68
780,72	1691,62
780,90	1732,58
781,07	1742,82
781,25	1603,56
781,43	1732,58
781,60	1724,39
781,78	1771,49
781,95	1673,19
782,13	1718,25
782,31	1742,82
782,48	1630,18
782,66	1660,90
782,83	1880,04
783,01	1691,62
783,19	1779,68
783,36	1755,11
783,54	1673,19
783,72	1734,63
783,89	1714,15
784,07	1732,58
784,24	1716,20
784,42	1837,03
784,60	1697,77
784,77	1667,05
784,95	1673,19
785,12	1673,19
785,30	1697,77
785,47	1640,42
785,65	1578,98
785,83	1742,82
786,00	1714,15
786,18	1730,53
786,35	1710,05
786,53	1716,20
786,71	1705,96
786,88	1681,38
787,06	1730,53
787,23	1730,53
787,41	1656,81
787,58	1710,05
787,76	1679,33
787,94	1732,58
788,11	1705,96
788,29	1597,42
788,46	1669,09
788,64	1591,27
788,81	1656,81
788,99	1665,00
789,16	1589,22
789,34	1699,81
789,52	1685,48
789,69	1767,40
789,87	1630,18
790,04	1710,05
790,22	1669,09
790,39	1742,82
790,57	1652,71
790,74	1701,86
790,92	1775,59
791,09	1675,24
791,27	1742,82
791,44	1834,98
791,62	1570,79
791,79	1712,10
791,97	1689,57
792,15	1910,75
792,32	1730,53
792,50	1673,19
792,67	1863,65
792,85	1773,54
793,02	1726,44
793,20	1630,18
793,37	1689,57
793,55	1708,01
793,72	1753,06
793,90	1742,82
794,07	1677,29
794,25	1646,57
794,42	1710,05
794,60	1718,25
794,77	1658,85
794,95	1695,72
795,12	1691,62
795,30	1732,58
795,47	1701,86
795,65	1853,41
795,82	1744,87
796,00	1638,38
796,17	1669,09
796,34	1746,92
796,52	1759,21
796,69	1791,97
796,87	1714,15
797,04	1697,77
797,22	1726,44
797,39	1751,01
797,57	1761,25
797,74	1693,67
797,92	1767,40
798,09	1607,66
798,27	1783,78
798,44	1751,01
798,62	1679,33
798,79	1691,62
798,96	1718,25
799,14	1689,57
799,31	1867,75
799,49	1677,29
799,66	1679,33
799,84	1705,96
800,01	1646,57
800,19	1738,73
800,36	1621,99
800,53	1648,61
800,71	1742,82
800,88	1738,73
801,06	1755,11
801,23	1673,19
801,41	1703,91
801,58	1673,19
801,75	1621,99
801,93	1703,91
802,10	1691,62
802,28	1675,24
802,45	1740,77
802,63	1730,53
802,80	1697,77
802,97	1591,27
803,15	1691,62
803,32	1640,42
803,50	1624,04
803,67	1730,53
803,84	1673,19
804,02	1806,31
804,19	1662,95
804,37	1634,28
804,54	1624,04
804,71	1724,39
804,89	1683,43
805,06	1693,67
805,24	1665,00
805,41	1619,94
805,58	1716,20
805,76	1826,79
805,93	1738,73
806,10	1763,30
806,28	1808,36
806,45	1738,73
806,63	1708,01
806,80	1708,01
806,97	1744,87
807,15	1701,86
807,32	1671,14
807,49	1746,92
807,67	1632,23
807,84	1736,68
808,01	1599,46
808,19	1808,36
808,36	1808,36
808,54	1658,85
808,71	1642,47
808,88	1718,25
809,06	1734,63
809,23	1755,11
809,40	1728,49
809,58	1828,84
809,75	1769,44
809,92	1638,38
810,10	1869,80
810,27	1703,91
810,44	1730,53
810,62	1732,58
810,79	1710,05
810,96	1634,28
811,14	1796,07
811,31	1634,28
811,48	1806,31
811,66	1755,11
811,83	1675,24
812,00	1724,39
812,18	1775,59
812,35	1820,64
812,52	1642,47
812,69	1638,38
812,87	1642,47
813,04	1681,38
813,21	1689,57
813,39	1761,25
813,56	1697,77
813,73	1732,58
813,91	1636,33
814,08	1775,59
814,25	1671,14
814,42	1654,76
814,60	1665,00
814,77	1716,20
814,94	1755,11
815,12	1728,49
815,29	1834,98
815,46	1716,20
815,63	1712,10
815,81	1730,53
815,98	1681,38
816,15	1626,09
816,33	1798,12
816,50	1691,62
816,67	1644,52
816,84	1712,10
817,02	1701,86
817,19	1652,71
817,36	1791,97
817,53	1722,34
817,71	1650,66
817,88	1730,53
818,05	1652,71
818,22	1615,85
818,40	1794,02
818,57	1726,44
818,74	1718,25
818,91	1710,05
819,09	1787,88
819,26	1632,23
819,43	1705,96
819,60	1638,38
819,78	1738,73
819,95	1744,87
820,12	1673,19
820,29	1769,44
820,47	1751,01
820,64	1632,23
820,81	1609,70
820,98	1609,70
821,15	1736,68
821,33	1734,63
821,50	1697,77
821,67	1779,68
821,84	1724,39
822,02	1732,58
822,19	1685,48
822,36	1753,06
822,53	1687,53
822,70	1712,10
822,88	1677,29
823,05	1785,83
823,22	1738,73
823,39	1791,97
823,56	1722,34
823,74	1830,88
823,91	1591,27
824,08	1658,85
824,25	1691,62
824,42	1759,21
824,60	1636,33
824,77	1699,81
824,94	1728,49
825,11	1734,63
825,28	1632,23
825,45	1767,40
825,63	1798,12
825,80	1638,38
825,97	1640,42
826,14	1691,62
826,31	1585,13
826,48	1740,77
826,66	1718,25
826,83	1718,25
827,00	1701,86
827,17	1638,38
827,34	1646,57
827,51	1691,62
827,69	1703,91
827,86	1621,99
828,03	1703,91
828,20	1712,10
828,37	1595,37
828,54	1812,45
828,71	1679,33
828,89	1771,49
829,06	1644,52
829,23	1759,21
829,40	1675,24
829,57	1648,61
829,74	1806,31
829,91	1665,00
830,09	1697,77
830,26	1810,40
830,43	1810,40
830,60	1673,19
830,77	1732,58
830,94	1806,31
831,11	1753,06
831,28	1703,91
831,46	1734,63
831,63	1759,21
831,80	1775,59
831,97	1744,87
832,14	1597,42
832,31	1794,02
832,48	1697,77
832,65	1779,68
832,82	1708,01
832,99	1732,58
833,17	1669,09
833,34	1804,26
833,51	1740,77
833,68	1679,33
833,85	1789,92
834,02	1681,38
834,19	1677,29
834,36	1624,04
834,53	1708,01
834,70	1718,25
834,87	1728,49
835,04	1732,58
835,22	1660,90
835,39	1677,29
835,56	1652,71
835,73	1648,61
835,90	1716,20
836,07	1759,21
836,24	1796,07
836,41	1578,98
836,58	1681,38
836,75	1824,74
836,92	1646,57
837,09	1740,77
837,26	1759,21
837,43	1718,25
837,60	1699,81
837,77	1689,57
837,94	1736,68
838,12	1765,35
838,29	1742,82
838,46	1613,80
838,63	1634,28
838,80	1779,68
838,97	1720,29
839,14	1765,35
839,31	1720,29
839,48	1761,25
839,65	1720,29
839,82	1755,11
839,99	1658,85
840,16	1667,05
840,33	1624,04
840,50	1726,44
840,67	1714,15
840,84	1568,74
841,01	1730,53
841,18	1611,75
841,35	1708,01
841,52	1660,90
841,69	1802,21
841,86	1744,87
842,03	1728,49
842,20	1765,35
842,37	1687,53
842,54	1683,43
842,71	1718,25
842,88	1609,70
843,05	1755,11
843,22	1732,58
843,39	1763,30
843,56	1730,53
843,73	1648,61
843,90	1658,85
844,07	1640,42
844,24	1771,49
844,41	1765,35
844,58	1634,28
844,75	1703,91
844,92	1689,57
845,09	1777,64
845,26	1673,19
845,43	1695,72
845,60	1638,38
845,77	1726,44
845,94	1761,25
846,10	1818,60
846,27	1628,14
846,44	1746,92
846,61	1671,14
846,78	1742,82
846,95	1779,68
847,12	1601,51
847,29	1673,19
847,46	1656,81
847,63	1710,05
847,80	1609,70
847,97	1697,77
848,14	1845,22
848,31	1695,72
848,48	1624,04
848,65	1703,91
848,82	1710,05
848,98	1812,45
849,15	1705,96
849,32	1787,88
849,49	1732,58
849,66	1734,63
849,83	1652,71
850,00	1658,85
850,17	1757,16
850,34	1718,25
850,51	1732,58
850,68	1699,81
850,85	1816,55
851,01	1763,30
851,18	1705,96
851,35	1710,05
851,52	1759,21
851,69	1798,12
851,86	1603,56
852,03	1703,91
852,20	1742,82
852,37	1648,61
852,53	1615,85
852,70	1710,05
852,87	1689,57
853,04	1722,34
853,21	1728,49
853,38	1828,84
853,55	1791,97
853,72	1767,40
853,89	1714,15
854,05	1689,57
854,22	1667,05
854,39	1652,71
854,56	1652,71
854,73	1732,58
854,90	1677,29
855,07	1722,34
855,23	1693,67
855,40	1783,78
855,57	1673,19
855,74	1587,18
855,91	1861,60
856,08	1681,38
856,25	1644,52
856,41	1634,28
856,58	1673,19
856,75	1708,01
856,92	1560,55
857,09	1761,25
857,26	1646,57
857,42	1665,00
857,59	1714,15
857,76	1697,77
857,93	1689,57
858,10	1679,33
858,27	1638,38
858,43	1697,77
858,60	1679,33
858,77	1609,70
858,94	1621,99
859,11	1748,97
859,27	1662,95
859,44	1656,81
859,61	1828,84
859,78	1751,01
859,95	1681,38
860,12	1658,85
860,28	1841,12
860,45	1812,45
860,62	1724,39
860,79	1722,34
860,95	1728,49
861,12	1701,86
861,29	1658,85
861,46	1695,72
861,63	1751,01
861,79	1761,25
861,96	1691,62
862,13	1660,90
862,30	1787,88
862,47	1648,61
862,63	1673,19
862,80	1714,15
862,97	1718,25
863,14	1779,68
863,30	1701,86
863,47	1638,38
863,64	1742,82
863,81	1771,49
863,97	1722,34
864,14	1693,67
864,31	1675,24
864,48	1718,25
864,65	1662,95
864,81	1714,15
864,98	1738,73
865,15	1767,40
865,32	1677,29
865,48	1763,30
865,65	1769,44
865,82	1683,43
865,98	1744,87
866,15	1777,64
866,32	1660,90
866,49	1699,81
866,65	1742,82
866,82	1671,14
866,99	1683,43
867,16	1687,53
867,32	1642,47
867,49	1683,43
867,66	1697,77
867,83	1658,85
867,99	1665,00
868,16	1617,90
868,33	1677,29
868,49	1771,49
868,66	1722,34
868,83	1757,16
868,99	1724,39
869,16	1730,53
869,33	1703,91
869,50	1789,92
869,66	1740,77
869,83	1667,05
870,00	1628,14
870,16	1716,20
870,33	1673,19
870,50	1734,63
870,66	1763,30
870,83	1816,55
871,00	1695,72
871,17	1775,59
871,33	1677,29
871,50	1736,68
871,67	1677,29
871,83	1658,85
872,00	1814,50
872,17	1626,09
872,33	1804,26
872,50	1734,63
872,67	1656,81
872,83	1705,96
873,00	1804,26
873,17	1669,09
873,33	1697,77
873,50	1718,25
873,67	1644,52
873,83	1669,09
874,00	1716,20
874,16	1734,63
874,33	1650,66
874,50	1638,38
874,66	1710,05
874,83	1708,01
875,00	1875,94
875,16	1734,63
875,33	1751,01
875,50	1599,46
875,66	1611,75
875,83	1751,01
875,99	1746,92
876,16	1652,71
876,33	1564,65
876,49	1626,09
876,66	1767,40
876,83	1628,14
876,99	1646,57
877,16	1714,15
877,32	1669,09
877,49	1675,24
877,66	1761,25
877,82	1812,45
877,99	1689,57
878,15	1812,45
878,32	1714,15
878,49	1689,57
878,65	1701,86
878,82	1785,83
878,98	1714,15
879,15	1738,73
879,32	1730,53
879,48	1759,21
879,65	1675,24
879,81	1695,72
879,98	1646,57
880,15	1699,81
880,31	1746,92
880,48	1693,67
880,64	1748,97
880,81	1724,39
880,97	1822,69
881,14	1796,07
881,31	1679,33
881,47	1728,49
881,64	1712,10
881,80	1636,33
881,97	1705,96
882,13	1773,54
882,30	1644,52
882,47	1712,10
882,63	1660,90
882,80	1695,72
882,96	1796,07
883,13	1675,24
883,29	1658,85
883,46	1722,34
883,62	1683,43
883,79	1718,25
883,95	1767,40
884,12	1669,09
884,29	1689,57
884,45	1710,05
884,62	1781,73
884,78	1679,33
884,95	1763,30
885,11	1705,96
885,28	1669,09
885,44	1761,25
885,61	1728,49
885,77	1798,12
885,94	1755,11
886,10	1681,38
886,27	1728,49
886,43	1820,64
886,60	1767,40
886,76	1648,61
886,93	1689,57
887,09	1714,15
887,26	1601,51
887,42	1703,91
887,59	1712,10
887,75	1898,47
887,92	1779,68
888,08	1767,40
888,25	1828,84
888,41	1732,58
888,58	1671,14
888,74	1628,14
888,91	1679,33
>>>>>End Processed Spectral Data<<<<<
