SpectraSuite Data File
++++++++++++++++++++++++++++++++++++
Date: Mon Jun 06 16:55:17 CEST 2016
User: root
Dark Spectrum Present: No
Reference Spectrum Present: No
Number of Sampled Component Spectra: 1
Spectrometers: USB4C02835
Integration Time (usec): 100000 (USB4C02835)
Spectra Averaged: 1 (USB4C02835)
Boxcar Smoothing: 0 (USB4C02835)
Correct for Electrical Dark: No (USB4C02835)
Strobe/Lamp Enabled: No (USB4C02835)
Correct for Detector Non-linearity: No (USB4C02835)
Correct for Stray Light: No (USB4C02835)
Number of Pixels in Processed Spectrum: 3648
>>>>>Begin Processed Spectral Data<<<<<
177,47	1454,06
177,69	1454,06
177,91	1454,06
178,13	1556,46
178,36	1462,25
178,58	1701,86
178,80	1685,48
179,02	1638,38
179,24	1642,47
179,46	1771,49
179,68	1822,69
179,90	1687,53
180,13	1665,00
180,35	1705,96
180,57	1730,53
180,79	1787,88
181,01	1673,19
181,23	1767,40
181,45	1787,88
181,67	1755,11
181,90	1703,91
182,12	1697,77
182,34	1652,71
182,56	1738,73
182,78	1720,29
183,00	1640,42
183,22	1738,73
183,44	1621,99
183,66	1886,18
183,89	1824,74
184,11	1634,28
184,33	1746,92
184,55	1736,68
184,77	1714,15
184,99	1742,82
185,21	1662,95
185,43	1791,97
185,65	1662,95
185,87	1736,68
186,10	1771,49
186,32	1880,04
186,54	1714,15
186,76	1781,73
186,98	1716,20
187,20	1605,61
187,42	1710,05
187,64	1630,18
187,86	1710,05
188,08	1742,82
188,30	1613,80
188,52	1656,81
188,75	1710,05
188,97	1716,20
189,19	1685,48
189,41	1683,43
189,63	1701,86
189,85	1679,33
190,07	1617,90
190,29	1578,98
190,51	1716,20
190,73	1605,61
190,95	1785,83
191,17	1673,19
191,39	1605,61
191,61	1603,56
191,84	1734,63
192,06	1765,35
192,28	1677,29
192,50	1929,19
192,72	1679,33
192,94	1722,34
193,16	1730,53
193,38	1830,88
193,60	1671,14
193,82	1712,10
194,04	1777,64
194,26	1730,53
194,48	1738,73
194,70	1714,15
194,92	1769,44
195,14	1746,92
195,36	1656,81
195,58	1755,11
195,80	1662,95
196,02	1667,05
196,24	1771,49
196,46	1681,38
196,69	1634,28
196,91	1828,84
197,13	1658,85
197,35	1724,39
197,57	1832,93
197,79	1699,81
198,01	1718,25
198,23	1781,73
198,45	1757,16
198,67	1638,38
198,89	1658,85
199,11	1751,01
199,33	1701,86
199,55	1619,94
199,77	1699,81
199,99	1787,88
200,21	1658,85
200,43	1703,91
200,65	1609,70
200,87	1560,55
201,09	1699,81
201,31	1765,35
201,53	1728,49
201,75	1789,92
201,97	1662,95
202,19	1685,48
202,41	1730,53
202,63	1804,26
202,85	1779,68
203,07	1771,49
203,29	1689,57
203,51	1675,24
203,73	1708,01
203,95	1863,65
204,17	1734,63
204,39	1757,16
204,61	1757,16
204,83	1746,92
205,05	1796,07
205,27	1673,19
205,49	1753,06
205,71	1781,73
205,93	1689,57
206,15	1669,09
206,37	1736,68
206,59	1677,29
206,81	1636,33
207,03	1703,91
207,25	1576,94
207,47	1644,52
207,69	1619,94
207,91	1816,55
208,13	1732,58
208,34	1703,91
208,56	1632,23
208,78	1755,11
209,00	1677,29
209,22	1767,40
209,44	1720,29
209,66	1615,85
209,88	1703,91
210,10	1693,67
210,32	1652,71
210,54	1730,53
210,76	1742,82
210,98	1767,40
211,20	1673,19
211,42	1724,39
211,64	1843,17
211,86	1728,49
212,08	1716,20
212,30	1779,68
212,52	1748,97
212,74	1769,44
212,96	1691,62
213,17	1714,15
213,39	1759,21
213,61	1761,25
213,83	1712,10
214,05	1648,61
214,27	1806,31
214,49	1640,42
214,71	1624,04
214,93	1775,59
215,15	1716,20
215,37	1712,10
215,59	1562,60
215,81	1765,35
216,03	1818,60
216,24	1767,40
216,46	1705,96
216,68	1615,85
216,90	1712,10
217,12	1759,21
217,34	1703,91
217,56	1779,68
217,78	1763,30
218,00	1708,01
218,22	1728,49
218,44	1744,87
218,66	1718,25
218,87	1845,22
219,09	1630,18
219,31	1726,44
219,53	1652,71
219,75	1816,55
219,97	1730,53
220,19	1724,39
220,41	1708,01
220,63	1794,02
220,85	1808,36
221,06	1665,00
221,28	1751,01
221,50	1734,63
221,72	1748,97
221,94	1718,25
222,16	1738,73
222,38	1808,36
222,60	1751,01
222,82	1665,00
223,03	1693,67
223,25	1615,85
223,47	1685,48
223,69	1861,60
223,91	1734,63
224,13	1761,25
224,35	1685,48
224,57	1765,35
224,78	1695,72
225,00	1701,86
225,22	1644,52
225,44	1740,77
225,66	1660,90
225,88	1599,46
226,10	1740,77
226,32	1740,77
226,53	1759,21
226,75	1730,53
226,97	1771,49
227,19	1626,09
227,41	1656,81
227,63	1728,49
227,85	1601,51
228,06	1769,44
228,28	1728,49
228,50	1791,97
228,72	1695,72
228,94	1665,00
229,16	1603,56
229,37	1720,29
229,59	1671,14
229,81	1777,64
230,03	1683,43
230,25	1662,95
230,47	1673,19
230,69	1619,94
230,90	1736,68
231,12	1701,86
231,34	1699,81
231,56	1744,87
231,78	1617,90
232,00	1746,92
232,21	1824,74
232,43	1720,29
232,65	1593,32
232,87	1724,39
233,09	1648,61
233,30	1662,95
233,52	1701,86
233,74	1628,14
233,96	1734,63
234,18	1746,92
234,40	1658,85
234,61	1857,51
234,83	1540,07
235,05	1646,57
235,27	1875,94
235,49	1812,45
235,70	1800,16
235,92	1814,50
236,14	1646,57
236,36	1890,28
236,58	1669,09
236,79	1724,39
237,01	1716,20
237,23	1673,19
237,45	1828,84
237,67	1650,66
237,88	1726,44
238,10	1804,26
238,32	1626,09
238,54	1699,81
238,76	1611,75
238,97	1691,62
239,19	1636,33
239,41	1703,91
239,63	1734,63
239,85	1722,34
240,06	1728,49
240,28	1716,20
240,50	1796,07
240,72	1650,66
240,93	1728,49
241,15	1789,92
241,37	1746,92
241,59	1740,77
241,81	1656,81
242,02	1658,85
242,24	1685,48
242,46	1779,68
242,68	1677,29
242,89	1728,49
243,11	1761,25
243,33	1738,73
243,55	1720,29
243,76	1804,26
243,98	1648,61
244,20	1685,48
244,42	1767,40
244,64	1710,05
244,85	1611,75
245,07	1640,42
245,29	1771,49
245,51	1738,73
245,72	1734,63
245,94	1789,92
246,16	1693,67
246,38	1783,78
246,59	1742,82
246,81	1669,09
247,03	1648,61
247,24	1601,51
247,46	1710,05
247,68	1716,20
247,90	1648,61
248,11	1742,82
248,33	1785,83
248,55	1697,77
248,77	1730,53
248,98	1742,82
249,20	1802,21
249,42	1736,68
249,64	1701,86
249,85	1701,86
250,07	1630,18
250,29	1783,78
250,50	1705,96
250,72	1658,85
250,94	1763,30
251,16	1857,51
251,37	1798,12
251,59	1714,15
251,81	1751,01
252,02	1867,75
252,24	1697,77
252,46	1863,65
252,68	1574,89
252,89	1689,57
253,11	1595,37
253,33	1796,07
253,54	1812,45
253,76	1619,94
253,98	1732,58
254,20	1679,33
254,41	1574,89
254,63	1730,53
254,85	1685,48
255,06	1730,53
255,28	1662,95
255,50	1769,44
255,71	1656,81
255,93	1662,95
256,15	1755,11
256,36	1773,54
256,58	1701,86
256,80	1794,02
257,02	1669,09
257,23	1658,85
257,45	1628,14
257,67	1671,14
257,88	1669,09
258,10	1724,39
258,32	1742,82
258,53	1730,53
258,75	1779,68
258,97	1681,38
259,18	1642,47
259,40	1634,28
259,62	1787,88
259,83	1804,26
260,05	1671,14
260,27	2002,91
260,48	1705,96
260,70	1669,09
260,92	1642,47
261,13	1728,49
261,35	1753,06
261,57	1732,58
261,78	1650,66
262,00	1675,24
262,22	1785,83
262,43	1648,61
262,65	1748,97
262,86	1669,09
263,08	1892,32
263,30	1744,87
263,51	1689,57
263,73	1654,76
263,95	1734,63
264,16	1611,75
264,38	1689,57
264,60	1789,92
264,81	1677,29
265,03	1849,32
265,25	1755,11
265,46	1697,77
265,68	1732,58
265,89	1757,16
266,11	1669,09
266,33	1765,35
266,54	1798,12
266,76	1722,34
266,98	1761,25
267,19	1765,35
267,41	1775,59
267,62	1691,62
267,84	1722,34
268,06	1742,82
268,27	1720,29
268,49	1748,97
268,70	1714,15
268,92	1738,73
269,14	1560,55
269,35	1640,42
269,57	1697,77
269,79	1730,53
270,00	1656,81
270,22	1800,16
270,43	1673,19
270,65	1558,50
270,87	1716,20
271,08	1753,06
271,30	1710,05
271,51	1630,18
271,73	1724,39
271,95	1765,35
272,16	1708,01
272,38	1691,62
272,59	1679,33
272,81	1730,53
273,02	1769,44
273,24	1718,25
273,46	1787,88
273,67	1660,90
273,89	1654,76
274,10	1648,61
274,32	1796,07
274,54	1787,88
274,75	1689,57
274,97	1753,06
275,18	1769,44
275,40	1701,86
275,61	1746,92
275,83	1660,90
276,05	1603,56
276,26	1722,34
276,48	1783,78
276,69	1708,01
276,91	1714,15
277,12	1769,44
277,34	1787,88
277,55	1757,16
277,77	1751,01
277,99	1665,00
278,20	1708,01
278,42	1638,38
278,63	1648,61
278,85	1665,00
279,06	1624,04
279,28	1761,25
279,49	1775,59
279,71	1787,88
279,93	1769,44
280,14	1728,49
280,36	1673,19
280,57	1667,05
280,79	1775,59
281,00	1587,18
281,22	1658,85
281,43	1722,34
281,65	1605,61
281,86	1638,38
282,08	1681,38
282,29	1818,60
282,51	1701,86
282,73	1624,04
282,94	1583,08
283,16	1691,62
283,37	1847,27
283,59	1726,44
283,80	1710,05
284,02	1722,34
284,23	1710,05
284,45	1728,49
284,66	1726,44
284,88	1699,81
285,09	1701,86
285,31	1759,21
285,52	1730,53
285,74	1626,09
285,95	1794,02
286,17	1671,14
286,38	1761,25
286,60	1628,14
286,81	1669,09
287,03	1716,20
287,24	1796,07
287,46	1751,01
287,67	1650,66
287,89	1816,55
288,10	1712,10
288,32	1679,33
288,53	1861,60
288,75	1689,57
288,96	1763,30
289,18	1685,48
289,39	1730,53
289,61	1642,47
289,82	1820,64
290,04	1837,03
290,25	1687,53
290,47	1763,30
290,68	1679,33
290,90	1763,30
291,11	1634,28
291,33	1732,58
291,54	1624,04
291,76	1693,67
291,97	1718,25
292,18	1683,43
292,40	1662,95
292,61	1705,96
292,83	1830,88
293,04	1763,30
293,26	1730,53
293,47	1689,57
293,69	1640,42
293,90	1697,77
294,12	1796,07
294,33	1722,34
294,55	1732,58
294,76	1722,34
294,97	1802,21
295,19	1791,97
295,40	1642,47
295,62	1734,63
295,83	1806,31
296,05	1636,33
296,26	1841,12
296,48	1705,96
296,69	1607,66
296,90	1697,77
297,12	1763,30
297,33	1804,26
297,55	1767,40
297,76	1716,20
297,98	1779,68
298,19	1636,33
298,41	1724,39
298,62	1687,53
298,83	1785,83
299,05	1732,58
299,26	1695,72
299,48	1619,94
299,69	1732,58
299,90	1671,14
300,12	1695,72
300,33	1736,68
300,55	1710,05
300,76	1681,38
300,98	1658,85
301,19	1771,49
301,40	1746,92
301,62	1662,95
301,83	1798,12
302,05	1669,09
302,26	1734,63
302,47	1798,12
302,69	1697,77
302,90	1687,53
303,12	1499,11
303,33	1779,68
303,54	1828,84
303,76	1628,14
303,97	1775,59
304,19	1812,45
304,40	1630,18
304,61	1697,77
304,83	1796,07
305,04	1796,07
305,26	1695,72
305,47	1626,09
305,68	1675,24
305,90	1603,56
306,11	1834,98
306,33	1689,57
306,54	1687,53
306,75	1689,57
306,97	1660,90
307,18	1689,57
307,39	1712,10
307,61	1714,15
307,82	1701,86
308,04	1732,58
308,25	1689,57
308,46	1734,63
308,68	1695,72
308,89	1751,01
309,10	1748,97
309,32	1771,49
309,53	1734,63
309,74	1744,87
309,96	1720,29
310,17	1779,68
310,39	1660,90
310,60	1742,82
310,81	1712,10
311,03	1644,52
311,24	1771,49
311,45	1751,01
311,67	1748,97
311,88	1685,48
312,09	1646,57
312,31	1695,72
312,52	1662,95
312,73	1701,86
312,95	1603,56
313,16	1687,53
313,37	1816,55
313,59	1712,10
313,80	1783,78
314,01	1789,92
314,23	1587,18
314,44	1593,32
314,65	1683,43
314,87	1626,09
315,08	1624,04
315,29	1724,39
315,51	1665,00
315,72	1654,76
315,93	1931,23
316,15	1759,21
316,36	1716,20
316,57	1658,85
316,79	1693,67
317,00	1728,49
317,21	1683,43
317,43	1638,38
317,64	1714,15
317,85	1736,68
318,07	1677,29
318,28	1726,44
318,49	1822,69
318,70	1902,56
318,92	1791,97
319,13	1798,12
319,34	1841,12
319,56	1834,98
319,77	1812,45
319,98	1834,98
320,20	1755,11
320,41	1865,70
320,62	1728,49
320,83	1705,96
321,05	1802,21
321,26	1742,82
321,47	1652,71
321,69	1765,35
321,90	1574,89
322,11	1691,62
322,32	1724,39
322,54	1738,73
322,75	1624,04
322,96	1830,88
323,18	1646,57
323,39	1609,70
323,60	1587,18
323,81	1771,49
324,03	1636,33
324,24	1673,19
324,45	1689,57
324,66	1724,39
324,88	1820,64
325,09	1738,73
325,30	1724,39
325,52	1761,25
325,73	1791,97
325,94	1730,53
326,15	1650,66
326,37	1669,09
326,58	1748,97
326,79	1728,49
327,00	1630,18
327,22	1769,44
327,43	1689,57
327,64	1677,29
327,85	1763,30
328,07	1746,92
328,28	1818,60
328,49	1675,24
328,70	1724,39
328,92	1746,92
329,13	1755,11
329,34	1716,20
329,55	1800,16
329,76	1769,44
329,98	1677,29
330,19	1742,82
330,40	1753,06
330,61	1689,57
330,83	1818,60
331,04	1691,62
331,25	1691,62
331,46	1683,43
331,68	1630,18
331,89	1751,01
332,10	1757,16
332,31	1619,94
332,52	1728,49
332,74	1820,64
332,95	1644,52
333,16	1634,28
333,37	1689,57
333,58	1658,85
333,80	1705,96
334,01	1640,42
334,22	1683,43
334,43	1738,73
334,64	1679,33
334,86	1654,76
335,07	1703,91
335,28	1839,08
335,49	1609,70
335,70	1789,92
335,92	1738,73
336,13	1845,22
336,34	1718,25
336,55	1681,38
336,76	1765,35
336,98	1599,46
337,19	1742,82
337,40	1837,03
337,61	1927,14
337,82	1646,57
338,04	1691,62
338,25	1685,48
338,46	1742,82
338,67	1695,72
338,88	1662,95
339,09	1662,95
339,31	1687,53
339,52	1624,04
339,73	1585,13
339,94	1740,77
340,15	1726,44
340,36	1667,05
340,58	1681,38
340,79	1697,77
341,00	1732,58
341,21	1689,57
341,42	1763,30
341,63	1632,23
341,85	1734,63
342,06	1738,73
342,27	1677,29
342,48	1718,25
342,69	1638,38
342,90	1738,73
343,12	1751,01
343,33	1675,24
343,54	1705,96
343,75	1791,97
343,96	1671,14
344,17	1689,57
344,38	1656,81
344,60	1638,38
344,81	1681,38
345,02	1660,90
345,23	1779,68
345,44	1855,46
345,65	1808,36
345,86	1757,16
346,07	1650,66
346,29	1642,47
346,50	1751,01
346,71	1734,63
346,92	1779,68
347,13	1869,80
347,34	1767,40
347,55	1730,53
347,76	1738,73
347,98	1581,03
348,19	1677,29
348,40	1763,30
348,61	1691,62
348,82	1761,25
349,03	1724,39
349,24	1693,67
349,45	1757,16
349,66	1656,81
349,88	1718,25
350,09	1683,43
350,30	1794,02
350,51	1785,83
350,72	1636,33
350,93	1787,88
351,14	1671,14
351,35	1738,73
351,56	1648,61
351,77	1748,97
351,99	1740,77
352,20	1816,55
352,41	1810,40
352,62	1591,27
352,83	1644,52
353,04	1703,91
353,25	1609,70
353,46	1726,44
353,67	1740,77
353,88	1619,94
354,09	1732,58
354,30	1658,85
354,52	1716,20
354,73	1740,77
354,94	1718,25
355,15	1708,01
355,36	1865,70
355,57	1642,47
355,78	1802,21
355,99	1667,05
356,20	1669,09
356,41	1753,06
356,62	1753,06
356,83	1724,39
357,04	1808,36
357,25	1583,08
357,46	1646,57
357,68	1556,46
357,89	1695,72
358,10	1730,53
358,31	1714,15
358,52	1679,33
358,73	1572,84
358,94	1560,55
359,15	1697,77
359,36	1722,34
359,57	1624,04
359,78	1662,95
359,99	1779,68
360,20	1683,43
360,41	1667,05
360,62	1744,87
360,83	1724,39
361,04	1683,43
361,25	1730,53
361,46	1728,49
361,67	1718,25
361,88	1767,40
362,09	1785,83
362,30	1730,53
362,51	1685,48
362,72	1738,73
362,93	1755,11
363,14	1724,39
363,35	1773,54
363,56	1615,85
363,78	1796,07
363,99	1701,86
364,20	1705,96
364,41	1806,31
364,62	1882,08
364,83	1775,59
365,04	1671,14
365,25	1716,20
365,46	1812,45
365,67	1722,34
365,88	1701,86
366,09	1732,58
366,30	1730,53
366,51	1814,50
366,72	1667,05
366,93	1748,97
367,14	1638,38
367,35	1722,34
367,56	1703,91
367,77	1814,50
367,98	1773,54
368,18	1759,21
368,39	1779,68
368,60	1636,33
368,81	1703,91
369,02	1705,96
369,23	1665,00
369,44	1607,66
369,65	1701,86
369,86	1708,01
370,07	1796,07
370,28	1654,76
370,49	1703,91
370,70	1683,43
370,91	1742,82
371,12	1671,14
371,33	1773,54
371,54	1681,38
371,75	1834,98
371,96	1701,86
372,17	1699,81
372,38	1742,82
372,59	1744,87
372,80	1654,76
373,01	1685,48
373,22	1779,68
373,43	1746,92
373,64	1724,39
373,85	1841,12
374,06	1730,53
374,26	1724,39
374,47	1667,05
374,68	1746,92
374,89	1699,81
375,10	1650,66
375,31	1769,44
375,52	1630,18
375,73	1714,15
375,94	1699,81
376,15	1800,16
376,36	1720,29
376,57	1726,44
376,78	1718,25
376,99	1703,91
377,20	1748,97
377,40	1691,62
377,61	1753,06
377,82	1691,62
378,03	1763,30
378,24	1730,53
378,45	1671,14
378,66	1759,21
378,87	1605,61
379,08	1570,79
379,29	1675,24
379,50	1796,07
379,71	1787,88
379,91	1830,88
380,12	1689,57
380,33	1701,86
380,54	1695,72
380,75	1787,88
380,96	1712,10
381,17	1765,35
381,38	1728,49
381,59	1716,20
381,80	1726,44
382,00	1918,95
382,21	1755,11
382,42	1853,41
382,63	1834,98
382,84	1742,82
383,05	1794,02
383,26	1830,88
383,47	1718,25
383,68	1701,86
383,88	1769,44
384,09	1726,44
384,30	1828,84
384,51	1753,06
384,72	1669,09
384,93	1658,85
385,14	1683,43
385,35	1863,65
385,55	1656,81
385,76	1728,49
385,97	1728,49
386,18	1617,90
386,39	1660,90
386,60	1617,90
386,81	1691,62
387,02	1753,06
387,22	1638,38
387,43	1767,40
387,64	1783,78
387,85	1877,99
388,06	2205,66
388,27	4214,72
388,48	6741,91
388,68	8157,06
388,89	9260,91
389,10	9680,75
389,31	8429,44
389,52	7460,75
389,73	6621,08
389,93	6117,28
390,14	5906,34
390,35	5031,86
390,56	4419,52
390,77	3870,66
390,98	3035,09
391,18	2512,86
391,39	2097,12
391,60	1847,27
391,81	1824,74
392,02	1742,82
392,23	1779,68
392,43	1771,49
392,64	1800,16
392,85	1714,15
393,06	1824,74
393,27	1667,05
393,47	1714,15
393,68	1775,59
393,89	1718,25
394,10	1748,97
394,31	1660,90
394,52	1615,85
394,72	1720,29
394,93	1777,64
395,14	1718,25
395,35	1763,30
395,56	1658,85
395,76	1691,62
395,97	1830,88
396,18	1867,75
396,39	1808,36
396,60	2113,50
396,80	1865,70
397,01	1722,34
397,22	1824,74
397,43	1865,70
397,64	1753,06
397,84	1820,64
398,05	1828,84
398,26	1716,20
398,47	1800,16
398,67	1718,25
398,88	1712,10
399,09	1783,78
399,30	1748,97
399,51	1765,35
399,71	1656,81
399,92	1777,64
400,13	1740,77
400,34	1714,15
400,54	1722,34
400,75	1812,45
400,96	1787,88
401,17	1785,83
401,37	1720,29
401,58	1724,39
401,79	1759,21
402,00	1880,04
402,21	2002,91
402,41	1945,57
402,62	2027,49
402,83	2050,02
403,04	1957,86
403,24	2185,18
403,45	1830,88
403,66	1955,81
403,87	1904,61
404,07	1894,37
404,28	1865,70
404,49	1814,50
404,70	1703,91
404,90	1787,88
405,11	1712,10
405,32	1785,83
405,52	1734,63
405,73	1619,94
405,94	1669,09
406,15	1687,53
406,35	1767,40
406,56	1714,15
406,77	1771,49
406,98	1798,12
407,18	1675,24
407,39	1779,68
407,60	1699,81
407,80	1724,39
408,01	1716,20
408,22	1746,92
408,43	1675,24
408,63	1710,05
408,84	1814,50
409,05	1765,35
409,25	1685,48
409,46	1681,38
409,67	1730,53
409,88	1710,05
410,08	1728,49
410,29	1705,96
410,50	1746,92
410,70	1789,92
410,91	1650,66
411,12	1748,97
411,32	1748,97
411,53	1708,01
411,74	1767,40
411,95	1812,45
412,15	1769,44
412,36	1773,54
412,57	1718,25
412,77	1824,74
412,98	1781,73
413,19	1675,24
413,39	1775,59
413,60	1781,73
413,81	1800,16
414,01	1650,66
414,22	1779,68
414,43	1767,40
414,63	1742,82
414,84	1720,29
415,05	1736,68
415,25	1724,39
415,46	1718,25
415,67	1769,44
415,87	1796,07
416,08	1705,96
416,29	1685,48
416,49	1734,63
416,70	1716,20
416,91	1660,90
417,11	1677,29
417,32	1718,25
417,53	1748,97
417,73	1746,92
417,94	1740,77
418,15	1769,44
418,35	1759,21
418,56	1769,44
418,77	1845,22
418,97	1718,25
419,18	1683,43
419,38	1619,94
419,59	1791,97
419,80	1802,21
420,00	1740,77
420,21	1746,92
420,42	1810,40
420,62	1773,54
420,83	1705,96
421,04	1728,49
421,24	1726,44
421,45	1785,83
421,65	1728,49
421,86	1675,24
422,07	1667,05
422,27	1722,34
422,48	1773,54
422,69	1630,18
422,89	1755,11
423,10	1662,95
423,30	1621,99
423,51	1732,58
423,72	1740,77
423,92	1773,54
424,13	1693,67
424,33	1705,96
424,54	1728,49
424,75	1681,38
424,95	1791,97
425,16	1738,73
425,36	1675,24
425,57	1767,40
425,78	1763,30
425,98	1765,35
426,19	1718,25
426,39	1621,99
426,60	1708,01
426,81	1796,07
427,01	1794,02
427,22	1677,29
427,42	1624,04
427,63	1601,51
427,83	1708,01
428,04	1828,84
428,25	1791,97
428,45	1796,07
428,66	1789,92
428,86	1714,15
429,07	1814,50
429,28	1697,77
429,48	1652,71
429,69	1693,67
429,89	1759,21
430,10	1564,65
430,30	1720,29
430,51	1746,92
430,71	1714,15
430,92	1673,19
431,13	1656,81
431,33	1755,11
431,54	1734,63
431,74	1746,92
431,95	1781,73
432,15	1738,73
432,36	1773,54
432,56	1759,21
432,77	1841,12
432,98	1785,83
433,18	1660,90
433,39	1705,96
433,59	1644,52
433,80	1810,40
434,00	1961,95
434,21	1665,00
434,41	1742,82
434,62	1927,14
434,82	1677,29
435,03	1662,95
435,23	1685,48
435,44	1636,33
435,64	1746,92
435,85	1650,66
436,06	1748,97
436,26	1810,40
436,47	1759,21
436,67	1695,72
436,88	1712,10
437,08	1777,64
437,29	1847,27
437,49	1726,44
437,70	1777,64
437,90	1746,92
438,11	1853,41
438,31	1808,36
438,52	1894,37
438,72	1875,94
438,93	1832,93
439,13	1796,07
439,34	1832,93
439,54	1800,16
439,75	1757,16
439,95	1851,36
440,16	1753,06
440,36	1804,26
440,57	1814,50
440,77	1843,17
440,98	1800,16
441,18	1742,82
441,39	1751,01
441,59	1656,81
441,80	1849,32
442,00	1693,67
442,21	1826,79
442,41	1693,67
442,62	1828,84
442,82	1716,20
443,02	1658,85
443,23	1701,86
443,43	1742,82
443,64	1761,25
443,84	1697,77
444,05	1873,89
444,25	1665,00
444,46	1769,44
444,66	1710,05
444,87	1816,55
445,07	1679,33
445,28	1746,92
445,48	1767,40
445,69	1783,78
445,89	1873,89
446,09	1746,92
446,30	2115,55
446,50	2607,06
446,71	3708,87
446,91	4270,01
447,12	4687,80
447,32	4790,20
447,53	4304,83
447,73	3815,37
447,93	3551,18
448,14	3266,51
448,34	3180,50
448,55	2983,89
448,75	2863,06
448,96	2584,54
449,16	2414,56
449,36	2254,81
449,57	2129,89
449,77	1890,28
449,98	1794,02
450,18	1841,12
450,39	1775,59
450,59	1806,31
450,79	1703,91
451,00	1685,48
451,20	1806,31
451,41	1763,30
451,61	1740,77
451,81	1761,25
452,02	1740,77
452,22	1691,62
452,43	1783,78
452,63	1732,58
452,84	1728,49
453,04	1773,54
453,24	1761,25
453,45	1652,71
453,65	1763,30
453,86	1681,38
454,06	1804,26
454,26	1738,73
454,47	1683,43
454,67	1845,22
454,87	1834,98
455,08	1804,26
455,28	1880,04
455,49	1736,68
455,69	1654,76
455,89	1824,74
456,10	1777,64
456,30	1757,16
456,51	1691,62
456,71	1710,05
456,91	1714,15
457,12	1763,30
457,32	1748,97
457,52	1662,95
457,73	1849,32
457,93	1742,82
458,14	1708,01
458,34	1632,23
458,54	1773,54
458,75	1693,67
458,95	1798,12
459,15	1660,90
459,36	1650,66
459,56	1718,25
459,76	1857,51
459,97	1787,88
460,17	1716,20
460,37	1837,03
460,58	1691,62
460,78	1830,88
460,99	1638,38
461,19	1789,92
461,39	1755,11
461,60	1718,25
461,80	1789,92
462,00	1634,28
462,21	1722,34
462,41	1771,49
462,61	1615,85
462,82	1634,28
463,02	1810,40
463,22	1798,12
463,43	1781,73
463,63	1734,63
463,83	1773,54
464,04	1798,12
464,24	1722,34
464,44	1732,58
464,64	1769,44
464,85	1820,64
465,05	1781,73
465,25	1753,06
465,46	1701,86
465,66	1769,44
465,86	1804,26
466,07	1718,25
466,27	1640,42
466,47	1697,77
466,68	1621,99
466,88	1796,07
467,08	1746,92
467,29	1777,64
467,49	1763,30
467,69	1828,84
467,89	1746,92
468,10	1675,24
468,30	1843,17
468,50	1867,75
468,71	1691,62
468,91	1656,81
469,11	1834,98
469,31	1714,15
469,52	1732,58
469,72	1796,07
469,92	1853,41
470,13	1662,95
470,33	1804,26
470,53	1837,03
470,73	2107,36
470,94	2361,31
471,14	2303,96
471,34	2510,81
471,54	2455,51
471,75	2269,15
471,95	2080,74
472,15	2093,02
472,36	2127,84
472,56	2045,92
472,76	2052,06
472,96	2031,58
473,17	1945,57
473,37	1933,28
473,57	1828,84
473,77	1736,68
473,98	1767,40
474,18	1742,82
474,38	1923,04
474,58	1712,10
474,79	1775,59
474,99	1740,77
475,19	1714,15
475,39	1789,92
475,60	1751,01
475,80	1705,96
476,00	1777,64
476,20	1695,72
476,41	1755,11
476,61	1714,15
476,81	1808,36
477,01	1613,80
477,21	1865,70
477,42	1900,52
477,62	1675,24
477,82	1746,92
478,02	1703,91
478,23	1773,54
478,43	1654,76
478,63	1761,25
478,83	1716,20
479,03	1804,26
479,24	1751,01
479,44	1800,16
479,64	1691,62
479,84	1570,79
480,04	1726,44
480,25	1771,49
480,45	1642,47
480,65	1701,86
480,85	1791,97
481,06	1716,20
481,26	1703,91
481,46	1726,44
481,66	1777,64
481,86	1656,81
482,06	1828,84
482,27	1679,33
482,47	1718,25
482,67	1730,53
482,87	1724,39
483,07	1701,86
483,28	1701,86
483,48	1710,05
483,68	1685,48
483,88	1667,05
484,08	1593,32
484,29	1640,42
484,49	1755,11
484,69	1658,85
484,89	1753,06
485,09	1748,97
485,29	1757,16
485,50	1818,60
485,70	1708,01
485,90	1820,64
486,10	1699,81
486,30	1773,54
486,50	1732,58
486,71	1722,34
486,91	1755,11
487,11	1808,36
487,31	1650,66
487,51	1681,38
487,71	1679,33
487,91	1619,94
488,12	1695,72
488,32	1656,81
488,52	1703,91
488,72	1689,57
488,92	1708,01
489,12	1806,31
489,32	1775,59
489,53	1822,69
489,73	1644,52
489,93	1689,57
490,13	1681,38
490,33	1677,29
490,53	1677,29
490,73	1837,03
490,94	1615,85
491,14	1785,83
491,34	1853,41
491,54	2029,54
491,74	2529,24
491,94	2992,08
492,14	3059,67
492,34	3026,90
492,54	2820,05
492,75	2525,15
492,95	2488,28
493,15	2244,57
493,35	2293,72
493,55	2185,18
493,75	2193,37
493,95	2265,05
494,15	2047,97
494,35	1959,91
494,56	1896,42
494,76	1736,68
494,96	1865,70
495,16	1744,87
495,36	1757,16
495,56	1746,92
495,76	1687,53
495,96	1654,76
496,16	1724,39
496,36	1826,79
496,56	1746,92
496,77	1748,97
496,97	1732,58
497,17	1800,16
497,37	1619,94
497,57	1769,44
497,77	1714,15
497,97	1624,04
498,17	1722,34
498,37	1683,43
498,57	1720,29
498,77	1673,19
498,97	1736,68
499,17	1865,70
499,38	1724,39
499,58	1824,74
499,78	1800,16
499,98	1937,38
500,18	1689,57
500,38	1779,68
500,58	1961,95
500,78	2480,09
500,98	4579,26
501,18	5867,43
501,38	6801,30
501,58	6930,33
501,78	6563,74
501,98	5527,47
502,18	5044,15
502,38	4415,42
502,58	4112,32
502,78	3702,73
502,98	3637,19
503,18	3411,92
503,38	3198,93
503,59	2725,85
503,79	2686,94
503,99	2533,34
504,19	2320,35
504,39	2224,09
504,59	2189,28
504,79	2068,45
504,99	2045,92
505,19	1910,75
505,39	1830,88
505,59	1927,14
505,79	1939,43
505,99	1849,32
506,19	1791,97
506,39	1882,08
506,59	1761,25
506,79	1783,78
506,99	1826,79
507,19	1767,40
507,39	1753,06
507,59	1665,00
507,79	1763,30
507,99	1746,92
508,19	1755,11
508,39	1673,19
508,59	1671,14
508,79	1802,21
508,99	1798,12
509,19	1660,90
509,39	1779,68
509,59	1730,53
509,79	1724,39
509,99	1763,30
510,19	1855,46
510,39	1779,68
510,59	1787,88
510,79	1771,49
510,99	1703,91
511,19	1755,11
511,39	1857,51
511,59	1775,59
511,79	1822,69
511,99	1779,68
512,19	1804,26
512,38	1787,88
512,58	1646,57
512,78	1705,96
512,98	1810,40
513,18	1810,40
513,38	1671,14
513,58	1720,29
513,78	1697,77
513,98	1695,72
514,18	1761,25
514,38	1763,30
514,58	1791,97
514,78	1720,29
514,98	1689,57
515,18	1705,96
515,38	1669,09
515,58	1800,16
515,78	1669,09
515,98	1740,77
516,18	1791,97
516,38	1751,01
516,57	1744,87
516,77	1718,25
516,97	1834,98
517,17	1669,09
517,37	1564,65
517,57	1699,81
517,77	1736,68
517,97	1693,67
518,17	1796,07
518,37	1683,43
518,57	1755,11
518,77	1658,85
518,97	1708,01
519,16	1775,59
519,36	1716,20
519,56	1722,34
519,76	1738,73
519,96	1767,40
520,16	1804,26
520,36	1656,81
520,56	1855,46
520,76	1673,19
520,96	1660,90
521,16	1748,97
521,35	1765,35
521,55	1830,88
521,75	1757,16
521,95	1716,20
522,15	1685,48
522,35	1683,43
522,55	1722,34
522,75	1765,35
522,95	1722,34
523,14	1730,53
523,34	1724,39
523,54	1716,20
523,74	1814,50
523,94	1761,25
524,14	1689,57
524,34	1787,88
524,54	1781,73
524,73	1714,15
524,93	1798,12
525,13	1691,62
525,33	1626,09
525,53	1925,09
525,73	1787,88
525,93	1759,21
526,13	1705,96
526,32	1683,43
526,52	1804,26
526,72	1783,78
526,92	1742,82
527,12	1705,96
527,32	1677,29
527,52	1730,53
527,71	1755,11
527,91	1699,81
528,11	1722,34
528,31	1804,26
528,51	1734,63
528,71	1814,50
528,90	1695,72
529,10	1806,31
529,30	1832,93
529,50	1642,47
529,70	1720,29
529,90	1767,40
530,09	1734,63
530,29	1683,43
530,49	1658,85
530,69	1894,37
530,89	1730,53
531,09	1800,16
531,28	1712,10
531,48	1810,40
531,68	1843,17
531,88	1814,50
532,08	1701,86
532,28	1710,05
532,47	1755,11
532,67	1820,64
532,87	1701,86
533,07	1611,75
533,27	1781,73
533,46	1746,92
533,66	1828,84
533,86	1761,25
534,06	1728,49
534,26	1796,07
534,45	1730,53
534,65	1810,40
534,85	1689,57
535,05	1730,53
535,25	1775,59
535,44	1636,33
535,64	1777,64
535,84	1697,77
536,04	1753,06
536,24	1726,44
536,43	1738,73
536,63	1755,11
536,83	1753,06
537,03	1734,63
537,22	1667,05
537,42	1675,24
537,62	1710,05
537,82	1785,83
538,02	1777,64
538,21	1763,30
538,41	1912,80
538,61	1789,92
538,81	1716,20
539,00	1781,73
539,20	1703,91
539,40	1701,86
539,60	1757,16
539,79	1759,21
539,99	1781,73
540,19	1646,57
540,39	1748,97
540,58	1761,25
540,78	1804,26
540,98	1837,03
541,18	1800,16
541,37	1771,49
541,57	1712,10
541,77	1738,73
541,97	1703,91
542,16	1656,81
542,36	1763,30
542,56	1724,39
542,76	1886,18
542,95	1730,53
543,15	1837,03
543,35	1861,60
543,54	1828,84
543,74	1742,82
543,94	1812,45
544,14	1710,05
544,33	1802,21
544,53	1744,87
544,73	1724,39
544,93	1695,72
545,12	1734,63
545,32	1742,82
545,52	1800,16
545,71	1640,42
545,91	1724,39
546,11	1746,92
546,30	1665,00
546,50	1712,10
546,70	1753,06
546,90	1759,21
547,09	1685,48
547,29	1728,49
547,49	1828,84
547,68	1767,40
547,88	1746,92
548,08	1718,25
548,27	2158,56
548,47	1675,24
548,67	1662,95
548,87	1781,73
549,06	1732,58
549,26	1806,31
549,46	1722,34
549,65	1773,54
549,85	1783,78
550,05	1789,92
550,24	1677,29
550,44	1763,30
550,64	1732,58
550,83	1791,97
551,03	1787,88
551,23	1755,11
551,42	1787,88
551,62	1658,85
551,82	1687,53
552,01	1757,16
552,21	1810,40
552,41	1777,64
552,60	1832,93
552,80	1751,01
553,00	1738,73
553,19	1697,77
553,39	1826,79
553,59	1626,09
553,78	1751,01
553,98	1689,57
554,17	1652,71
554,37	1779,68
554,57	1755,11
554,76	1714,15
554,96	1636,33
555,16	1718,25
555,35	1777,64
555,55	1767,40
555,75	1732,58
555,94	1841,12
556,14	1701,86
556,33	1808,36
556,53	1689,57
556,73	1798,12
556,92	1730,53
557,12	1755,11
557,32	1906,66
557,51	1851,36
557,71	1744,87
557,90	1888,23
558,10	1724,39
558,30	1716,20
558,49	1720,29
558,69	1673,19
558,88	1751,01
559,08	1679,33
559,28	1773,54
559,47	1726,44
559,67	1716,20
559,86	1906,66
560,06	1665,00
560,26	1740,77
560,45	1753,06
560,65	1771,49
560,84	1814,50
561,04	1787,88
561,24	1742,82
561,43	1656,81
561,63	1822,69
561,82	1716,20
562,02	1865,70
562,22	1708,01
562,41	1660,90
562,61	1755,11
562,80	1667,05
563,00	1884,13
563,19	1802,21
563,39	1806,31
563,59	1746,92
563,78	1716,20
563,98	1544,17
564,17	1722,34
564,37	1665,00
564,56	1742,82
564,76	1687,53
564,96	1857,51
565,15	1794,02
565,35	1873,89
565,54	1751,01
565,74	1783,78
565,93	1810,40
566,13	1714,15
566,32	1779,68
566,52	1765,35
566,71	1726,44
566,91	1740,77
567,11	1628,14
567,30	1765,35
567,50	1716,20
567,69	1759,21
567,89	1730,53
568,08	1730,53
568,28	1751,01
568,47	1736,68
568,67	1714,15
568,86	1685,48
569,06	1880,04
569,25	1759,21
569,45	1751,01
569,64	1771,49
569,84	1748,97
570,04	1779,68
570,23	1724,39
570,43	1730,53
570,62	1742,82
570,82	1769,44
571,01	1771,49
571,21	1757,16
571,40	1632,23
571,60	1798,12
571,79	1767,40
571,99	1771,49
572,18	1710,05
572,38	1777,64
572,57	1728,49
572,77	1748,97
572,96	1923,04
573,16	1744,87
573,35	1755,11
573,55	1886,18
573,74	1794,02
573,94	1714,15
574,13	1810,40
574,33	1824,74
574,52	1730,53
574,71	1781,73
574,91	1740,77
575,10	1691,62
575,30	1796,07
575,49	1728,49
575,69	1736,68
575,88	1779,68
576,08	1734,63
576,27	1853,41
576,47	1746,92
576,66	1857,51
576,86	1820,64
577,05	1791,97
577,25	1810,40
577,44	1865,70
577,64	1699,81
577,83	1837,03
578,02	1673,19
578,22	1894,37
578,41	1806,31
578,61	1667,05
578,80	1720,29
579,00	1789,92
579,19	1669,09
579,39	1773,54
579,58	1800,16
579,77	1708,01
579,97	1814,50
580,16	1818,60
580,36	1853,41
580,55	1738,73
580,75	1826,79
580,94	1783,78
581,13	1871,84
581,33	1888,23
581,52	1781,73
581,72	1849,32
581,91	1900,52
582,11	1734,63
582,30	1791,97
582,49	1822,69
582,69	1884,13
582,88	1769,44
583,08	1714,15
583,27	1837,03
583,47	1759,21
583,66	1751,01
583,85	1732,58
584,05	1675,24
584,24	1810,40
584,44	1812,45
584,63	1775,59
584,82	1812,45
585,02	1804,26
585,21	1843,17
585,41	1777,64
585,60	1904,61
585,79	1945,57
585,99	1906,66
586,18	1839,08
586,37	2136,03
586,57	3362,76
586,76	9815,91
586,96	24059,54
587,15	33697,28
587,34	39495,08
587,54	41371,02
587,73	35775,97
587,93	25796,21
588,12	20950,72
588,31	18274,03
588,51	16054,03
588,70	14853,92
588,89	14004,01
589,09	12371,78
589,28	10973,02
589,47	9291,63
589,67	7890,82
589,86	6336,42
590,06	4962,23
590,25	3798,98
590,44	3024,85
590,64	2590,68
590,83	2166,75
591,02	2054,11
591,22	1914,85
591,41	1918,95
591,60	1875,94
591,80	1968,10
591,99	1701,86
592,18	1755,11
592,38	1933,28
592,57	1820,64
592,76	1763,30
592,96	1789,92
593,15	1794,02
593,34	1798,12
593,54	1751,01
593,73	1748,97
593,92	1748,97
594,12	1744,87
594,31	1718,25
594,50	1851,36
594,70	1832,93
594,89	1900,52
595,08	1628,14
595,28	1849,32
595,47	1880,04
595,66	1847,27
595,86	1703,91
596,05	1726,44
596,24	1748,97
596,43	1796,07
596,63	1798,12
596,82	1771,49
597,01	1816,55
597,21	1914,85
597,40	1693,67
597,59	1824,74
597,79	1777,64
597,98	1779,68
598,17	1855,46
598,36	1744,87
598,56	1804,26
598,75	1710,05
598,94	1765,35
599,14	1800,16
599,33	1765,35
599,52	1800,16
599,71	1787,88
599,91	1843,17
600,10	1759,21
600,29	1757,16
600,48	1804,26
600,68	1738,73
600,87	1857,51
601,06	1789,92
601,26	1679,33
601,45	1738,73
601,64	1705,96
601,83	1875,94
602,03	1832,93
602,22	1732,58
602,41	1806,31
602,60	1867,75
602,80	1763,30
602,99	1738,73
603,18	1695,72
603,37	1767,40
603,57	1691,62
603,76	1834,98
603,95	1800,16
604,14	1732,58
604,34	1695,72
604,53	1703,91
604,72	1671,14
604,91	1777,64
605,10	1695,72
605,30	1689,57
605,49	1828,84
605,68	1773,54
605,87	1724,39
606,07	1693,67
606,26	1701,86
606,45	1744,87
606,64	1863,65
606,84	1675,24
607,03	1769,44
607,22	1800,16
607,41	1728,49
607,60	1617,90
607,80	1761,25
607,99	1658,85
608,18	1724,39
608,37	1722,34
608,56	1736,68
608,76	1796,07
608,95	1859,56
609,14	1740,77
609,33	1802,21
609,52	1796,07
609,72	1734,63
609,91	1769,44
610,10	1746,92
610,29	1761,25
610,48	1814,50
610,68	1708,01
610,87	1800,16
611,06	1738,73
611,25	1849,32
611,44	1759,21
611,63	1726,44
611,83	1783,78
612,02	1712,10
612,21	1763,30
612,40	1673,19
612,59	1628,14
612,79	1621,99
612,98	1796,07
613,17	1800,16
613,36	1714,15
613,55	1824,74
613,74	1757,16
613,93	1712,10
614,13	1826,79
614,32	1701,86
614,51	1830,88
614,70	1710,05
614,89	1732,58
615,08	1828,84
615,28	2058,21
615,47	1693,67
615,66	1765,35
615,85	1722,34
616,04	1830,88
616,23	1685,48
616,42	1712,10
616,62	1701,86
616,81	1787,88
617,00	1759,21
617,19	1691,62
617,38	1726,44
617,57	1638,38
617,76	1796,07
617,95	1714,15
618,15	1841,12
618,34	1708,01
618,53	1718,25
618,72	1736,68
618,91	1796,07
619,10	1812,45
619,29	1671,14
619,48	1744,87
619,68	1675,24
619,87	1699,81
620,06	1644,52
620,25	1746,92
620,44	1630,18
620,63	1615,85
620,82	1705,96
621,01	1732,58
621,20	1738,73
621,39	1800,16
621,59	1785,83
621,78	1673,19
621,97	1761,25
622,16	1787,88
622,35	1730,53
622,54	1804,26
622,73	1718,25
622,92	1697,77
623,11	1726,44
623,30	1712,10
623,49	1755,11
623,68	1753,06
623,88	1808,36
624,07	1759,21
624,26	1726,44
624,45	1783,78
624,64	1642,47
624,83	1771,49
625,02	1701,86
625,21	1681,38
625,40	1736,68
625,59	1773,54
625,78	1722,34
625,97	1732,58
626,16	1736,68
626,35	1759,21
626,54	1755,11
626,74	1771,49
626,93	1671,14
627,12	1652,71
627,31	1732,58
627,50	1812,45
627,69	1802,21
627,88	1665,00
628,07	1738,73
628,26	1665,00
628,45	1654,76
628,64	1695,72
628,83	1716,20
629,02	1710,05
629,21	1785,83
629,40	1785,83
629,59	1703,91
629,78	1681,38
629,97	1665,00
630,16	1685,48
630,35	1712,10
630,54	1732,58
630,73	1621,99
630,92	1714,15
631,11	1681,38
631,30	1720,29
631,49	1781,73
631,68	1773,54
631,87	1734,63
632,06	1722,34
632,25	1816,55
632,44	1755,11
632,63	1767,40
632,82	1693,67
633,01	1697,77
633,20	1755,11
633,39	1716,20
633,58	1648,61
633,77	1763,30
633,96	1714,15
634,15	1755,11
634,34	1755,11
634,53	1691,62
634,72	1740,77
634,91	1576,94
635,10	1746,92
635,29	1775,59
635,48	1794,02
635,67	1679,33
635,86	1630,18
636,05	1779,68
636,24	1728,49
636,43	1734,63
636,62	1763,30
636,81	1595,37
637,00	1669,09
637,19	1638,38
637,38	1689,57
637,57	1673,19
637,76	1720,29
637,95	1771,49
638,14	1673,19
638,33	1724,39
638,52	1767,40
638,71	1671,14
638,89	1665,00
639,08	1888,23
639,27	1771,49
639,46	1728,49
639,65	1904,61
639,84	1714,15
640,03	1763,30
640,22	1716,20
640,41	1863,65
640,60	1646,57
640,79	1779,68
640,98	1726,44
641,17	1742,82
641,36	1769,44
641,55	1736,68
641,74	1644,52
641,92	1742,82
642,11	1681,38
642,30	1730,53
642,49	1667,05
642,68	1667,05
642,87	1734,63
643,06	1785,83
643,25	1701,86
643,44	1628,14
643,63	1816,55
643,82	1804,26
644,00	1640,42
644,19	1691,62
644,38	1595,37
644,57	1773,54
644,76	1765,35
644,95	1685,48
645,14	1765,35
645,33	1685,48
645,52	1746,92
645,71	1652,71
645,89	1644,52
646,08	1705,96
646,27	1716,20
646,46	1877,99
646,65	1693,67
646,84	1630,18
647,03	1722,34
647,22	1785,83
647,40	1726,44
647,59	1724,39
647,78	1685,48
647,97	1710,05
648,16	1681,38
648,35	1710,05
648,54	1753,06
648,73	1708,01
648,91	1796,07
649,10	1744,87
649,29	1699,81
649,48	1656,81
649,67	1806,31
649,86	1679,33
650,05	1685,48
650,23	1771,49
650,42	1703,91
650,61	1855,46
650,80	1740,77
650,99	1802,21
651,18	1783,78
651,36	1746,92
651,55	1740,77
651,74	1779,68
651,93	1697,77
652,12	1679,33
652,31	1736,68
652,49	1763,30
652,68	1722,34
652,87	1794,02
653,06	1720,29
653,25	1787,88
653,44	1742,82
653,62	1767,40
653,81	1708,01
654,00	1804,26
654,19	1746,92
654,38	1841,12
654,56	1705,96
654,75	1677,29
654,94	1761,25
655,13	1732,58
655,32	1816,55
655,51	1781,73
655,69	1660,90
655,88	1777,64
656,07	1634,28
656,26	1722,34
656,45	1685,48
656,63	1806,31
656,82	1785,83
657,01	1773,54
657,20	1636,33
657,38	1744,87
657,57	1751,01
657,76	1632,23
657,95	1777,64
658,14	1722,34
658,32	1763,30
658,51	1746,92
658,70	1679,33
658,89	1789,92
659,08	1724,39
659,26	1787,88
659,45	1705,96
659,64	1675,24
659,83	1599,46
660,01	1906,66
660,20	1705,96
660,39	1779,68
660,58	1601,51
660,76	1708,01
660,95	1665,00
661,14	1728,49
661,33	1660,90
661,51	1658,85
661,70	1744,87
661,89	1765,35
662,08	1761,25
662,26	1665,00
662,45	1595,37
662,64	1908,71
662,83	1775,59
663,01	1632,23
663,20	1732,58
663,39	1773,54
663,58	1708,01
663,76	1755,11
663,95	1708,01
664,14	1738,73
664,32	1662,95
664,51	1714,15
664,70	1640,42
664,89	1763,30
665,07	1685,48
665,26	1734,63
665,45	1624,04
665,64	1753,06
665,82	1720,29
666,01	1796,07
666,20	1638,38
666,38	1794,02
666,57	1755,11
666,76	2203,61
666,95	4415,42
667,13	10172,26
667,32	15060,76
667,51	17719,03
667,69	18470,63
667,88	17540,85
668,07	12257,09
668,25	9463,66
668,44	8114,05
668,63	7360,40
668,81	6647,71
669,00	6197,15
669,19	5672,87
669,38	5048,24
669,56	4542,39
669,75	3950,53
669,94	3377,10
670,12	2934,74
670,31	2529,24
670,50	2203,61
670,68	2009,06
670,87	1927,14
671,06	1853,41
671,24	1853,41
671,43	1902,56
671,62	1767,40
671,80	1722,34
671,99	1781,73
672,18	1712,10
672,36	1744,87
672,55	1660,90
672,74	1753,06
672,92	1701,86
673,11	1767,40
673,29	1615,85
673,48	1675,24
673,67	1787,88
673,85	1724,39
674,04	1634,28
674,23	1814,50
674,41	1923,04
674,60	1660,90
674,79	1691,62
674,97	1769,44
675,16	1677,29
675,34	1763,30
675,53	1779,68
675,72	1751,01
675,90	1746,92
676,09	1654,76
676,28	1763,30
676,46	1714,15
676,65	1740,77
676,83	1748,97
677,02	1681,38
677,21	1722,34
677,39	1730,53
677,58	1675,24
677,77	1738,73
677,95	1656,81
678,14	1677,29
678,32	1771,49
678,51	1652,71
678,70	1923,04
678,88	1640,42
679,07	1730,53
679,25	1701,86
679,44	1728,49
679,63	1609,70
679,81	1757,16
680,00	1804,26
680,18	1724,39
680,37	1763,30
680,55	1751,01
680,74	1634,28
680,93	1615,85
681,11	1748,97
681,30	1626,09
681,48	1763,30
681,67	1685,48
681,85	1757,16
682,04	1718,25
682,23	1697,77
682,41	1708,01
682,60	1769,44
682,78	1722,34
682,97	1654,76
683,15	1736,68
683,34	1714,15
683,53	1814,50
683,71	1562,60
683,90	1757,16
684,08	1796,07
684,27	1677,29
684,45	1689,57
684,64	1857,51
684,82	1650,66
685,01	1757,16
685,19	1687,53
685,38	1789,92
685,57	1746,92
685,75	1673,19
685,94	1636,33
686,12	1632,23
686,31	1689,57
686,49	1812,45
686,68	1646,57
686,86	1775,59
687,05	1712,10
687,23	1810,40
687,42	1667,05
687,60	1656,81
687,79	1730,53
687,97	1830,88
688,16	1767,40
688,34	1814,50
688,53	1646,57
688,71	1822,69
688,90	1808,36
689,08	1708,01
689,27	1642,47
689,45	1789,92
689,64	1738,73
689,82	1804,26
690,01	1746,92
690,19	1710,05
690,38	1734,63
690,56	1779,68
690,75	1656,81
690,93	1679,33
691,12	1626,09
691,30	1736,68
691,49	1636,33
691,67	1699,81
691,86	1834,98
692,04	1728,49
692,23	1755,11
692,41	1683,43
692,60	1830,88
692,78	1757,16
692,97	1705,96
693,15	1714,15
693,34	1841,12
693,52	1771,49
693,71	1699,81
693,89	1722,34
694,08	1652,71
694,26	1820,64
694,44	1740,77
694,63	1738,73
694,81	1644,52
695,00	1705,96
695,18	1857,51
695,37	1847,27
695,55	1742,82
695,74	1722,34
695,92	1611,75
696,10	1826,79
696,29	1648,61
696,47	1628,14
696,66	1619,94
696,84	1615,85
697,03	1693,67
697,21	1845,22
697,40	2338,78
697,58	1742,82
697,76	1679,33
697,95	1652,71
698,13	1689,57
698,32	1603,56
698,50	1677,29
698,68	1746,92
698,87	1748,97
699,05	1845,22
699,24	1789,92
699,42	1685,48
699,61	1669,09
699,79	1673,19
699,97	1746,92
700,16	1644,52
700,34	1710,05
700,53	1728,49
700,71	1857,51
700,89	1718,25
701,08	1712,10
701,26	1679,33
701,45	2179,04
701,63	1654,76
701,81	1685,48
702,00	1716,20
702,18	1728,49
702,37	1722,34
702,55	1654,76
702,73	1714,15
702,92	1595,37
703,10	1732,58
703,28	1599,46
703,47	1568,74
703,65	1744,87
703,84	1687,53
704,02	1748,97
704,20	1804,26
704,39	1738,73
704,57	1726,44
704,75	1744,87
704,94	1781,73
705,12	1775,59
705,30	1726,44
705,49	2224,09
705,67	4349,89
705,86	9273,20
706,04	12439,36
706,22	14425,89
706,41	15040,28
706,59	13719,34
706,77	9377,65
706,96	7260,05
707,14	6610,84
707,32	5928,87
707,51	5570,48
707,69	4861,88
707,87	4122,56
708,06	3467,21
708,24	3000,27
708,42	2463,71
708,61	2248,67
708,79	1914,85
708,97	1902,56
709,16	1816,55
709,34	1808,36
709,52	1695,72
709,71	1705,96
709,89	1771,49
710,07	1714,15
710,26	1671,14
710,44	1730,53
710,62	1708,01
710,80	1699,81
710,99	1720,29
711,17	1839,08
711,35	1628,14
711,54	1572,84
711,72	1726,44
711,90	1773,54
712,09	1701,86
712,27	1638,38
712,45	1759,21
712,63	1736,68
712,82	1755,11
713,00	1708,01
713,18	1796,07
713,37	1759,21
713,55	1783,78
713,73	1734,63
713,91	1681,38
714,10	1630,18
714,28	1708,01
714,46	1779,68
714,65	1681,38
714,83	1716,20
715,01	1581,03
715,19	1644,52
715,38	1683,43
715,56	1734,63
715,74	1701,86
715,92	1656,81
716,11	1828,84
716,29	1591,27
716,47	1658,85
716,65	1689,57
716,84	1646,57
717,02	1736,68
717,20	1546,22
717,38	1599,46
717,57	1783,78
717,75	1755,11
717,93	1613,80
718,11	1703,91
718,30	1761,25
718,48	1669,09
718,66	1724,39
718,84	1787,88
719,03	1687,53
719,21	1648,61
719,39	1736,68
719,57	1755,11
719,75	1787,88
719,94	1673,19
720,12	1736,68
720,30	1701,86
720,48	1783,78
720,67	1644,52
720,85	1650,66
721,03	1697,77
721,21	1701,86
721,39	1748,97
721,58	1818,60
721,76	1687,53
721,94	1736,68
722,12	1720,29
722,30	1849,32
722,49	1638,38
722,67	1722,34
722,85	1746,92
723,03	1574,89
723,21	1665,00
723,40	1744,87
723,58	1722,34
723,76	1724,39
723,94	1742,82
724,12	1748,97
724,30	1671,14
724,49	1748,97
724,67	1648,61
724,85	1744,87
725,03	1628,14
725,21	1732,58
725,40	1824,74
725,58	1703,91
725,76	1722,34
725,94	1650,66
726,12	1675,24
726,30	1732,58
726,49	1787,88
726,67	1677,29
726,85	1777,64
727,03	1748,97
727,21	2201,57
727,39	3006,42
727,57	3704,78
727,76	4124,61
727,94	4442,04
728,12	4421,56
728,30	3669,96
728,48	2881,49
728,66	2750,42
728,84	2519,00
729,03	2357,21
729,21	2138,08
729,39	1933,28
729,57	1882,08
729,75	1867,75
729,93	1847,27
730,11	1726,44
730,30	1640,42
730,48	1703,91
730,66	1808,36
730,84	1812,45
731,02	1746,92
731,20	1621,99
731,38	1761,25
731,56	1673,19
731,74	1621,99
731,93	1673,19
732,11	1710,05
732,29	1720,29
732,47	1726,44
732,65	1763,30
732,83	1787,88
733,01	1712,10
733,19	1718,25
733,37	1732,58
733,56	1732,58
733,74	1691,62
733,92	1794,02
734,10	1685,48
734,28	1726,44
734,46	1646,57
734,64	1656,81
734,82	1732,58
735,00	1642,47
735,18	1654,76
735,36	1677,29
735,54	1695,72
735,73	1679,33
735,91	1701,86
736,09	1759,21
736,27	1738,73
736,45	1732,58
736,63	1619,94
736,81	1693,67
736,99	1738,73
737,17	1753,06
737,35	1724,39
737,53	1705,96
737,71	1669,09
737,89	1744,87
738,07	1675,24
738,25	1638,38
738,43	1619,94
738,61	1654,76
738,80	1603,56
738,98	1662,95
739,16	1691,62
739,34	1603,56
739,52	1724,39
739,70	1708,01
739,88	1759,21
740,06	1732,58
740,24	1632,23
740,42	1804,26
740,60	1624,04
740,78	1689,57
740,96	1615,85
741,14	1759,21
741,32	1783,78
741,50	1675,24
741,68	1814,50
741,86	1759,21
742,04	1675,24
742,22	1695,72
742,40	1734,63
742,58	1755,11
742,76	1675,24
742,94	1822,69
743,12	1605,61
743,30	1646,57
743,48	1769,44
743,66	1695,72
743,84	1777,64
744,02	1671,14
744,20	1708,01
744,38	1665,00
744,56	1689,57
744,74	1806,31
744,92	1681,38
745,10	1763,30
745,28	1710,05
745,46	1748,97
745,64	1681,38
745,82	1708,01
746,00	1763,30
746,18	1771,49
746,36	1617,90
746,54	1695,72
746,72	1710,05
746,90	1609,70
747,08	1763,30
747,26	1652,71
747,44	1763,30
747,62	1730,53
747,80	1724,39
747,98	1714,15
748,15	1671,14
748,33	1853,41
748,51	1705,96
748,69	1669,09
748,87	1695,72
749,05	1759,21
749,23	1669,09
749,41	1679,33
749,59	1693,67
749,77	1800,16
749,95	1734,63
750,13	1634,28
750,31	1697,77
750,49	1726,44
750,67	1769,44
750,85	1826,79
751,03	1691,62
751,20	1859,56
751,38	1722,34
751,56	1679,33
751,74	1712,10
751,92	1691,62
752,10	1673,19
752,28	1798,12
752,46	1667,05
752,64	1587,18
752,82	1724,39
753,00	1744,87
753,18	1662,95
753,35	1744,87
753,53	1748,97
753,71	1683,43
753,89	1716,20
754,07	1714,15
754,25	1791,97
754,43	1736,68
754,61	1638,38
754,79	1703,91
754,97	1681,38
755,14	1794,02
755,32	1630,18
755,50	1775,59
755,68	1675,24
755,86	1697,77
756,04	1685,48
756,22	1632,23
756,40	1746,92
756,57	1818,60
756,75	1716,20
756,93	1767,40
757,11	1771,49
757,29	1662,95
757,47	1665,00
757,65	1566,70
757,82	1660,90
758,00	1669,09
758,18	1679,33
758,36	1665,00
758,54	1841,12
758,72	1642,47
758,90	1779,68
759,07	1685,48
759,25	1673,19
759,43	1705,96
759,61	1755,11
759,79	2250,72
759,97	1845,22
760,15	1669,09
760,32	1761,25
760,50	1710,05
760,68	1832,93
760,86	1570,79
761,04	1775,59
761,22	1794,02
761,39	1759,21
761,57	1718,25
761,75	1673,19
761,93	1753,06
762,11	1722,34
762,28	1650,66
762,46	1656,81
762,64	1791,97
762,82	1638,38
763,00	1808,36
763,18	1763,30
763,35	1636,33
763,53	1724,39
763,71	1679,33
763,89	1703,91
764,07	1791,97
764,24	1665,00
764,42	1763,30
764,60	1791,97
764,78	1701,86
764,96	1705,96
765,13	1781,73
765,31	1673,19
765,49	1734,63
765,67	1611,75
765,84	1701,86
766,02	1722,34
766,20	1667,05
766,38	1705,96
766,56	1677,29
766,73	1767,40
766,91	1722,34
767,09	1658,85
767,27	1816,55
767,44	1615,85
767,62	1695,72
767,80	1755,11
767,98	1640,42
768,15	1675,24
768,33	1718,25
768,51	1730,53
768,69	1767,40
768,87	1791,97
769,04	1697,77
769,22	1812,45
769,40	1761,25
769,58	1865,70
769,75	1675,24
769,93	1810,40
770,11	1640,42
770,28	1716,20
770,46	1683,43
770,64	1748,97
770,82	1724,39
770,99	1708,01
771,17	1738,73
771,35	1722,34
771,53	1652,71
771,70	1716,20
771,88	1722,34
772,06	1720,29
772,23	1734,63
772,41	1710,05
772,59	1689,57
772,77	1646,57
772,94	1755,11
773,12	1791,97
773,30	1730,53
773,47	1720,29
773,65	1708,01
773,83	1822,69
774,01	1724,39
774,18	1642,47
774,36	1755,11
774,54	1609,70
774,71	1757,16
774,89	1683,43
775,07	1705,96
775,24	1683,43
775,42	1632,23
775,60	1822,69
775,78	1697,77
775,95	1640,42
776,13	1656,81
776,31	1558,50
776,48	1683,43
776,66	1734,63
776,84	1701,86
777,01	1658,85
777,19	1677,29
777,37	1732,58
777,54	1746,92
777,72	1814,50
777,90	1726,44
778,07	1658,85
778,25	1900,52
778,43	1699,81
778,60	1746,92
778,78	1740,77
778,96	1775,59
779,13	1632,23
779,31	1779,68
779,49	1746,92
779,66	1769,44
779,84	1699,81
780,01	1667,05
780,19	1615,85
780,37	1785,83
780,54	1712,10
780,72	1669,09
780,90	1660,90
781,07	1722,34
781,25	1677,29
781,43	1738,73
781,60	1665,00
781,78	1740,77
781,95	1722,34
782,13	1642,47
782,31	1740,77
782,48	1583,08
782,66	1763,30
782,83	1814,50
783,01	1736,68
783,19	1744,87
783,36	1642,47
783,54	1701,86
783,72	1746,92
783,89	1660,90
784,07	1722,34
784,24	1775,59
784,42	1703,91
784,60	1718,25
784,77	1726,44
784,95	1576,94
785,12	1732,58
785,30	1679,33
785,47	1681,38
785,65	1662,95
785,83	1738,73
786,00	1648,61
786,18	1751,01
786,35	1617,90
786,53	1695,72
786,71	1820,64
786,88	1699,81
787,06	1779,68
787,23	1712,10
787,41	1615,85
787,58	1710,05
787,76	1671,14
787,94	1740,77
788,11	1660,90
788,29	1603,56
788,46	1656,81
788,64	1665,00
788,81	1746,92
788,99	1685,48
789,16	1617,90
789,34	1718,25
789,52	1736,68
789,69	1718,25
789,87	1585,13
790,04	1724,39
790,22	1660,90
790,39	1767,40
790,57	1581,03
790,74	1626,09
790,92	1691,62
791,09	1597,42
791,27	1703,91
791,44	1808,36
791,62	1636,33
791,79	1794,02
791,97	1767,40
792,15	1961,95
792,32	1769,44
792,50	1765,35
792,67	1839,08
792,85	1740,77
793,02	1689,57
793,20	1628,14
793,37	1701,86
793,55	1701,86
793,72	1548,26
793,90	1712,10
794,07	1642,47
794,25	1679,33
794,42	1689,57
794,60	1708,01
794,77	1714,15
794,95	1771,49
795,12	1812,45
795,30	1697,77
795,47	1699,81
795,65	1927,14
795,82	1771,49
796,00	1660,90
796,17	1693,67
796,34	1693,67
796,52	1730,53
796,69	1751,01
796,87	1714,15
797,04	1685,48
797,22	1718,25
797,39	1705,96
797,57	1783,78
797,74	1673,19
797,92	1761,25
798,09	1718,25
798,27	1755,11
798,44	1777,64
798,62	1656,81
798,79	1710,05
798,96	1726,44
799,14	1787,88
799,31	1847,27
799,49	1697,77
799,66	1615,85
799,84	1697,77
800,01	1691,62
800,19	1699,81
800,36	1615,85
800,53	1742,82
800,71	1673,19
800,88	1802,21
801,06	1615,85
801,23	1681,38
801,41	1681,38
801,58	1683,43
801,75	1687,53
801,93	1658,85
802,10	1724,39
802,28	1646,57
802,45	1671,14
802,63	1746,92
802,80	1751,01
802,97	1697,77
803,15	1769,44
803,32	1693,67
803,50	1646,57
803,67	1681,38
803,84	1687,53
804,02	1724,39
804,19	1650,66
804,37	1607,66
804,54	1658,85
804,71	1681,38
804,89	1746,92
805,06	1640,42
805,24	1714,15
805,41	1701,86
805,58	1644,52
805,76	1822,69
805,93	1689,57
806,10	1773,54
806,28	1783,78
806,45	1656,81
806,63	1751,01
806,80	1738,73
806,97	1710,05
807,15	1681,38
807,32	1681,38
807,49	1642,47
807,67	1687,53
807,84	1755,11
808,01	1632,23
808,19	1804,26
808,36	1818,60
808,54	1716,20
808,71	1624,04
808,88	1667,05
809,06	1746,92
809,23	1814,50
809,40	1720,29
809,58	1732,58
809,75	1716,20
809,92	1624,04
810,10	1845,22
810,27	1689,57
810,44	1742,82
810,62	1718,25
810,79	1746,92
810,96	1650,66
811,14	1693,67
811,31	1763,30
811,48	1732,58
811,66	1699,81
811,83	1746,92
812,00	1665,00
812,18	1726,44
812,35	1882,08
812,52	1638,38
812,69	1662,95
812,87	1681,38
813,04	1683,43
813,21	1611,75
813,39	1634,28
813,56	1689,57
813,73	1871,84
813,91	1564,65
814,08	1777,64
814,25	1720,29
814,42	1640,42
814,60	1701,86
814,77	1734,63
814,94	1722,34
815,12	1656,81
815,29	1837,03
815,46	1656,81
815,63	1724,39
815,81	1746,92
815,98	1648,61
816,15	1697,77
816,33	1724,39
816,50	1716,20
816,67	1691,62
816,84	1712,10
817,02	1665,00
817,19	1640,42
817,36	1710,05
817,53	1751,01
817,71	1744,87
817,88	1791,97
818,05	1646,57
818,22	1665,00
818,40	1765,35
818,57	1619,94
818,74	1767,40
818,91	1595,37
819,09	1757,16
819,26	1736,68
819,43	1679,33
819,60	1667,05
819,78	1732,58
819,95	1763,30
820,12	1634,28
820,29	1718,25
820,47	1705,96
820,64	1667,05
820,81	1607,66
820,98	1669,09
821,15	1718,25
821,33	1714,15
821,50	1628,14
821,67	1746,92
821,84	1636,33
822,02	1822,69
822,19	1773,54
822,36	1685,48
822,53	1619,94
822,70	1681,38
822,88	1667,05
823,05	1716,20
823,22	1705,96
823,39	1699,81
823,56	1673,19
823,74	1812,45
823,91	1595,37
824,08	1656,81
824,25	1640,42
824,42	1705,96
824,60	1683,43
824,77	1847,27
824,94	1638,38
825,11	1708,01
825,28	1705,96
825,45	1777,64
825,63	1736,68
825,80	1648,61
825,97	1773,54
826,14	1740,77
826,31	1624,04
826,48	1730,53
826,66	1701,86
826,83	1701,86
827,00	1740,77
827,17	1613,80
827,34	1665,00
827,51	1681,38
827,69	1703,91
827,86	1701,86
828,03	1693,67
828,20	1738,73
828,37	1691,62
828,54	1665,00
828,71	1693,67
828,89	1757,16
829,06	1759,21
829,23	1849,32
829,40	1636,33
829,57	1654,76
829,74	1732,58
829,91	1626,09
830,09	1632,23
830,26	1716,20
830,43	1771,49
830,60	1705,96
830,77	1730,53
830,94	1726,44
831,11	1716,20
831,28	1615,85
831,46	1744,87
831,63	1705,96
831,80	1761,25
831,97	1701,86
832,14	1648,61
832,31	1773,54
832,48	1812,45
832,65	1816,55
832,82	1683,43
832,99	1755,11
833,17	1648,61
833,34	1812,45
833,51	1742,82
833,68	1634,28
833,85	1730,53
834,02	1685,48
834,19	1615,85
834,36	1697,77
834,53	1675,24
834,70	1781,73
834,87	1722,34
835,04	1701,86
835,22	1601,51
835,39	1665,00
835,56	1525,74
835,73	1632,23
835,90	1763,30
836,07	1656,81
836,24	1808,36
836,41	1718,25
836,58	1603,56
836,75	1796,07
836,92	1667,05
837,09	1660,90
837,26	1738,73
837,43	1740,77
837,60	1740,77
837,77	1667,05
837,94	1703,91
838,12	1794,02
838,29	1724,39
838,46	1652,71
838,63	1658,85
838,80	1783,78
838,97	1753,06
839,14	1648,61
839,31	1757,16
839,48	1775,59
839,65	1705,96
839,82	1734,63
839,99	1763,30
840,16	1730,53
840,33	1695,72
840,50	1720,29
840,67	1640,42
840,84	1583,08
841,01	1751,01
841,18	1667,05
841,35	1703,91
841,52	1763,30
841,69	1814,50
841,86	1779,68
842,03	1673,19
842,20	1673,19
842,37	1744,87
842,54	1658,85
842,71	1718,25
842,88	1554,41
843,05	1705,96
843,22	1787,88
843,39	1751,01
843,56	1724,39
843,73	1705,96
843,90	1751,01
844,07	1724,39
844,24	1769,44
844,41	1720,29
844,58	1787,88
844,75	1634,28
844,92	1771,49
845,09	1730,53
845,26	1626,09
845,43	1761,25
845,60	1671,14
845,77	1767,40
845,94	1708,01
846,10	1767,40
846,27	1601,51
846,44	1646,57
846,61	1652,71
846,78	1703,91
846,95	1763,30
847,12	1609,70
847,29	1662,95
847,46	1638,38
847,63	1720,29
847,80	1621,99
847,97	1658,85
848,14	1888,23
848,31	1701,86
848,48	1646,57
848,65	1701,86
848,82	1667,05
848,98	1765,35
849,15	1771,49
849,32	1781,73
849,49	1714,15
849,66	1738,73
849,83	1814,50
850,00	1697,77
850,17	1814,50
850,34	1652,71
850,51	1617,90
850,68	1718,25
850,85	1820,64
851,01	1714,15
851,18	1798,12
851,35	1654,76
851,52	1724,39
851,69	1705,96
851,86	1638,38
852,03	1775,59
852,20	1818,60
852,37	1742,82
852,53	1568,74
852,70	1724,39
852,87	1746,92
853,04	1761,25
853,21	1660,90
853,38	1736,68
853,55	1841,12
853,72	1732,58
853,89	1589,22
854,05	1738,73
854,22	1712,10
854,39	1675,24
854,56	1734,63
854,73	1691,62
854,90	1660,90
855,07	1697,77
855,23	1611,75
855,40	1685,48
855,57	1673,19
855,74	1540,07
855,91	1853,41
856,08	1595,37
856,25	1566,70
856,41	1671,14
856,58	1726,44
856,75	1708,01
856,92	1703,91
857,09	1824,74
857,26	1630,18
857,42	1632,23
857,59	1705,96
857,76	1662,95
857,93	1701,86
858,10	1722,34
858,27	1591,27
858,43	1683,43
858,60	1644,52
858,77	1576,94
858,94	1683,43
859,11	1675,24
859,27	1626,09
859,44	1687,53
859,61	1824,74
859,78	1734,63
859,95	1683,43
860,12	1642,47
860,28	1818,60
860,45	1802,21
860,62	1699,81
860,79	1732,58
860,95	1722,34
861,12	1628,14
861,29	1689,57
861,46	1632,23
861,63	1703,91
861,79	1705,96
861,96	1689,57
862,13	1642,47
862,30	1757,16
862,47	1701,86
862,63	1681,38
862,80	1800,16
862,97	1734,63
863,14	1730,53
863,30	1728,49
863,47	1685,48
863,64	1775,59
863,81	1806,31
863,97	1660,90
864,14	1712,10
864,31	1640,42
864,48	1775,59
864,65	1728,49
864,81	1781,73
864,98	1755,11
865,15	1714,15
865,32	1789,92
865,48	1730,53
865,65	1748,97
865,82	1701,86
865,98	1753,06
866,15	1783,78
866,32	1689,57
866,49	1695,72
866,65	1728,49
866,82	1740,77
866,99	1748,97
867,16	1693,67
867,32	1667,05
867,49	1667,05
867,66	1724,39
867,83	1648,61
867,99	1662,95
868,16	1722,34
868,33	1654,76
868,49	1646,57
868,66	1705,96
868,83	1728,49
868,99	1605,61
869,16	1671,14
869,33	1734,63
869,50	1783,78
869,66	1773,54
869,83	1583,08
870,00	1683,43
870,16	1871,84
870,33	1662,95
870,50	1767,40
870,66	1703,91
870,83	1826,79
871,00	1757,16
871,17	1761,25
871,33	1775,59
871,50	1683,43
871,67	1724,39
871,83	1728,49
872,00	1802,21
872,17	1632,23
872,33	1791,97
872,50	1800,16
872,67	1628,14
872,83	1673,19
873,00	1691,62
873,17	1732,58
873,33	1757,16
873,50	1697,77
873,67	1693,67
873,83	1697,77
874,00	1732,58
874,16	1744,87
874,33	1665,00
874,50	1650,66
874,66	1742,82
874,83	1665,00
875,00	1724,39
875,16	1763,30
875,33	1800,16
875,50	1628,14
875,66	1644,52
875,83	1708,01
875,99	1716,20
876,16	1656,81
876,33	1646,57
876,49	1740,77
876,66	1710,05
876,83	1681,38
876,99	1679,33
877,16	1685,48
877,32	1689,57
877,49	1687,53
877,66	1744,87
877,82	1828,84
877,99	1736,68
878,15	1691,62
878,32	1716,20
878,49	1675,24
878,65	1632,23
878,82	1769,44
878,98	1689,57
879,15	1746,92
879,32	1773,54
879,48	1665,00
879,65	1665,00
879,81	1656,81
879,98	1769,44
880,15	1705,96
880,31	1712,10
880,48	1646,57
880,64	1804,26
880,81	1753,06
880,97	1802,21
881,14	1740,77
881,31	1689,57
881,47	1853,41
881,64	1660,90
881,80	1705,96
881,97	1708,01
882,13	1746,92
882,30	1607,66
882,47	1714,15
882,63	1667,05
882,80	1701,86
882,96	1675,24
883,13	1789,92
883,29	1736,68
883,46	1763,30
883,62	1701,86
883,79	1746,92
883,95	1789,92
884,12	1759,21
884,29	1753,06
884,45	1718,25
884,62	1748,97
884,78	1669,09
884,95	1791,97
885,11	1632,23
885,28	1718,25
885,44	1673,19
885,61	1726,44
885,77	1705,96
885,94	1740,77
886,10	1683,43
886,27	1718,25
886,43	1798,12
886,60	1732,58
886,76	1665,00
886,93	1621,99
887,09	1722,34
887,26	1660,90
887,42	1689,57
887,59	1693,67
887,75	1765,35
887,92	1785,83
888,08	1714,15
888,25	1714,15
888,41	1738,73
888,58	1636,33
888,74	1691,62
888,91	1685,48
>>>>>End Processed Spectral Data<<<<<
