SpectraSuite Data File
++++++++++++++++++++++++++++++++++++
Date: Mon Jun 06 13:46:57 CEST 2016
User: root
Dark Spectrum Present: No
Reference Spectrum Present: No
Number of Sampled Component Spectra: 1
Spectrometers: USB4C02835
Integration Time (usec): 100000 (USB4C02835)
Spectra Averaged: 1 (USB4C02835)
Boxcar Smoothing: 0 (USB4C02835)
Correct for Electrical Dark: No (USB4C02835)
Strobe/Lamp Enabled: No (USB4C02835)
Correct for Detector Non-linearity: No (USB4C02835)
Correct for Stray Light: No (USB4C02835)
Number of Pixels in Processed Spectrum: 3648
>>>>>Begin Processed Spectral Data<<<<<
177,47	1458,15
177,69	1458,15
177,91	1458,15
178,13	1515,50
178,36	1439,72
178,58	1650,66
178,80	1736,68
179,02	1599,46
179,24	1667,05
179,46	1705,96
179,68	1767,40
179,90	1685,48
180,13	1687,53
180,35	1693,67
180,57	1683,43
180,79	1732,58
181,01	1742,82
181,23	1794,02
181,45	1779,68
181,67	1720,29
181,90	1748,97
182,12	1658,85
182,34	1601,51
182,56	1720,29
182,78	1720,29
183,00	1673,19
183,22	1665,00
183,44	1640,42
183,66	1851,36
183,89	1820,64
184,11	1722,34
184,33	1744,87
184,55	1679,33
184,77	1720,29
184,99	1665,00
185,21	1574,89
185,43	1812,45
185,65	1669,09
185,87	1765,35
186,10	1880,04
186,32	1746,92
186,54	1748,97
186,76	1740,77
186,98	1689,57
187,20	1714,15
187,42	1669,09
187,64	1685,48
187,86	1759,21
188,08	1753,06
188,30	1677,29
188,52	1724,39
188,75	1710,05
188,97	1746,92
189,19	1720,29
189,41	1640,42
189,63	1728,49
189,85	1685,48
190,07	1646,57
190,29	1601,51
190,51	1720,29
190,73	1648,61
190,95	1748,97
191,17	1642,47
191,39	1652,71
191,61	1724,39
191,84	1624,04
192,06	1695,72
192,28	1628,14
192,50	1935,33
192,72	1732,58
192,94	1730,53
193,16	1726,44
193,38	1791,97
193,60	1685,48
193,82	1662,95
194,04	1822,69
194,26	1714,15
194,48	1654,76
194,70	1724,39
194,92	1617,90
195,14	1734,63
195,36	1646,57
195,58	1724,39
195,80	1615,85
196,02	1626,09
196,24	1665,00
196,46	1730,53
196,69	1689,57
196,91	1781,73
197,13	1689,57
197,35	1615,85
197,57	1775,59
197,79	1751,01
198,01	1708,01
198,23	1744,87
198,45	1718,25
198,67	1708,01
198,89	1716,20
199,11	1699,81
199,33	1714,15
199,55	1542,12
199,77	1771,49
199,99	1810,40
200,21	1742,82
200,43	1697,77
200,65	1568,74
200,87	1513,45
201,09	1697,77
201,31	1652,71
201,53	1722,34
201,75	1695,72
201,97	1699,81
202,19	1820,64
202,41	1802,21
202,63	1824,74
202,85	1699,81
203,07	1712,10
203,29	1712,10
203,51	1605,61
203,73	1699,81
203,95	1787,88
204,17	1673,19
204,39	1730,53
204,61	1712,10
204,83	1617,90
205,05	1779,68
205,27	1736,68
205,49	1783,78
205,71	1677,29
205,93	1568,74
206,15	1646,57
206,37	1705,96
206,59	1695,72
206,81	1687,53
207,03	1689,57
207,25	1636,33
207,47	1839,08
207,69	1744,87
207,91	1775,59
208,13	1791,97
208,34	1642,47
208,56	1652,71
208,78	1740,77
209,00	1615,85
209,22	1632,23
209,44	1624,04
209,66	1691,62
209,88	1703,91
210,10	1599,46
210,32	1722,34
210,54	1763,30
210,76	1662,95
210,98	1675,24
211,20	1626,09
211,42	1710,05
211,64	1763,30
211,86	1583,08
212,08	1667,05
212,30	1701,86
212,52	1714,15
212,74	1714,15
212,96	1714,15
213,17	1800,16
213,39	1732,58
213,61	1826,79
213,83	1648,61
214,05	1681,38
214,27	1785,83
214,49	1589,22
214,71	1691,62
214,93	1765,35
215,15	1667,05
215,37	1708,01
215,59	1699,81
215,81	1724,39
216,03	1746,92
216,24	1710,05
216,46	1679,33
216,68	1726,44
216,90	1789,92
217,12	1724,39
217,34	1658,85
217,56	1681,38
217,78	1761,25
218,00	1710,05
218,22	1710,05
218,44	1701,86
218,66	1681,38
218,87	1757,16
219,09	1656,81
219,31	1687,53
219,53	1781,73
219,75	1703,91
219,97	1646,57
220,19	1765,35
220,41	1679,33
220,63	1751,01
220,85	1730,53
221,06	1705,96
221,28	1736,68
221,50	1714,15
221,72	1646,57
221,94	1708,01
222,16	1722,34
222,38	1765,35
222,60	1710,05
222,82	1742,82
223,03	1695,72
223,25	1617,90
223,47	1824,74
223,69	1837,03
223,91	1699,81
224,13	1648,61
224,35	1701,86
224,57	1722,34
224,78	1779,68
225,00	1654,76
225,22	1695,72
225,44	1679,33
225,66	1748,97
225,88	1621,99
226,10	1796,07
226,32	1716,20
226,53	1806,31
226,75	1658,85
226,97	1613,80
227,19	1697,77
227,41	1613,80
227,63	1656,81
227,85	1648,61
228,06	1685,48
228,28	1732,58
228,50	1757,16
228,72	1665,00
228,94	1691,62
229,16	1617,90
229,37	1568,74
229,59	1615,85
229,81	1763,30
230,03	1642,47
230,25	1691,62
230,47	1632,23
230,69	1613,80
230,90	1748,97
231,12	1679,33
231,34	1808,36
231,56	1734,63
231,78	1624,04
232,00	1621,99
232,21	1652,71
232,43	1722,34
232,65	1640,42
232,87	1701,86
233,09	1675,24
233,30	1599,46
233,52	1730,53
233,74	1734,63
233,96	1630,18
234,18	1679,33
234,40	1673,19
234,61	1796,07
234,83	1578,98
235,05	1599,46
235,27	1765,35
235,49	1761,25
235,70	1685,48
235,92	1779,68
236,14	1695,72
236,36	1806,31
236,58	1658,85
236,79	1751,01
237,01	1662,95
237,23	1730,53
237,45	1800,16
237,67	1687,53
237,88	1667,05
238,10	1724,39
238,32	1621,99
238,54	1693,67
238,76	1634,28
238,97	1673,19
239,19	1634,28
239,41	1759,21
239,63	1781,73
239,85	1687,53
240,06	1697,77
240,28	1650,66
240,50	1714,15
240,72	1665,00
240,93	1677,29
241,15	1757,16
241,37	1759,21
241,59	1828,84
241,81	1677,29
242,02	1720,29
242,24	1730,53
242,46	1669,09
242,68	1656,81
242,89	1689,57
243,11	1734,63
243,33	1710,05
243,55	1720,29
243,76	1744,87
243,98	1609,70
244,20	1669,09
244,42	1675,24
244,64	1732,58
244,85	1689,57
245,07	1642,47
245,29	1722,34
245,51	1662,95
245,72	1728,49
245,94	1701,86
246,16	1660,90
246,38	1734,63
246,59	1660,90
246,81	1640,42
247,03	1605,61
247,24	1617,90
247,46	1748,97
247,68	1771,49
247,90	1691,62
248,11	1685,48
248,33	1755,11
248,55	1660,90
248,77	1722,34
248,98	1701,86
249,20	1822,69
249,42	1789,92
249,64	1742,82
249,85	1740,77
250,07	1601,51
250,29	1703,91
250,50	1732,58
250,72	1578,98
250,94	1708,01
251,16	1890,28
251,37	1640,42
251,59	1751,01
251,81	1703,91
252,02	1736,68
252,24	1632,23
252,46	1689,57
252,68	1683,43
252,89	1665,00
253,11	1531,88
253,33	1779,68
253,54	1716,20
253,76	1660,90
253,98	1708,01
254,20	1652,71
254,41	1669,09
254,63	1720,29
254,85	1585,13
255,06	1650,66
255,28	1708,01
255,50	1689,57
255,71	1667,05
255,93	1693,67
256,15	1689,57
256,36	1726,44
256,58	1675,24
256,80	1726,44
257,02	1691,62
257,23	1665,00
257,45	1759,21
257,67	1732,58
257,88	1705,96
258,10	1738,73
258,32	1722,34
258,53	1697,77
258,75	1837,03
258,97	1689,57
259,18	1763,30
259,40	1710,05
259,62	1789,92
259,83	1820,64
260,05	1628,14
260,27	2009,06
260,48	1738,73
260,70	1703,91
260,92	1742,82
261,13	1650,66
261,35	1740,77
261,57	1724,39
261,78	1560,55
262,00	1665,00
262,22	1714,15
262,43	1630,18
262,65	1619,94
262,86	1681,38
263,08	1865,70
263,30	1738,73
263,51	1621,99
263,73	1751,01
263,95	1667,05
264,16	1671,14
264,38	1611,75
264,60	1736,68
264,81	1724,39
265,03	1722,34
265,25	1734,63
265,46	1697,77
265,68	1812,45
265,89	1738,73
266,11	1646,57
266,33	1783,78
266,54	1683,43
266,76	1724,39
266,98	1734,63
267,19	1828,84
267,41	1732,58
267,62	1683,43
267,84	1626,09
268,06	1794,02
268,27	1681,38
268,49	1654,76
268,70	1751,01
268,92	1734,63
269,14	1603,56
269,35	1609,70
269,57	1683,43
269,79	1755,11
270,00	1734,63
270,22	1765,35
270,43	1660,90
270,65	1542,12
270,87	1652,71
271,08	1693,67
271,30	1732,58
271,51	1732,58
271,73	1839,08
271,95	1710,05
272,16	1757,16
272,38	1648,61
272,59	1701,86
272,81	1705,96
273,02	1648,61
273,24	1730,53
273,46	1689,57
273,67	1654,76
273,89	1603,56
274,10	1636,33
274,32	1810,40
274,54	1697,77
274,75	1712,10
274,97	1738,73
275,18	1675,24
275,40	1740,77
275,61	1658,85
275,83	1718,25
276,05	1624,04
276,26	1619,94
276,48	1751,01
276,69	1656,81
276,91	1697,77
277,12	1734,63
277,34	1755,11
277,55	1785,83
277,77	1621,99
277,99	1681,38
278,20	1624,04
278,42	1675,24
278,63	1593,32
278,85	1699,81
279,06	1640,42
279,28	1716,20
279,49	1730,53
279,71	1767,40
279,93	1738,73
280,14	1716,20
280,36	1716,20
280,57	1767,40
280,79	1773,54
281,00	1652,71
281,22	1581,03
281,43	1802,21
281,65	1552,36
281,86	1705,96
282,08	1759,21
282,29	1753,06
282,51	1607,66
282,73	1665,00
282,94	1660,90
283,16	1738,73
283,37	1796,07
283,59	1656,81
283,80	1628,14
284,02	1710,05
284,23	1748,97
284,45	1632,23
284,66	1578,98
284,88	1619,94
285,09	1710,05
285,31	1800,16
285,52	1648,61
285,74	1613,80
285,95	1755,11
286,17	1677,29
286,38	1740,77
286,60	1626,09
286,81	1710,05
287,03	1648,61
287,24	1705,96
287,46	1755,11
287,67	1683,43
287,89	1812,45
288,10	1628,14
288,32	1705,96
288,53	1800,16
288,75	1652,71
288,96	1751,01
289,18	1644,52
289,39	1648,61
289,61	1775,59
289,82	1859,56
290,04	1763,30
290,25	1650,66
290,47	1667,05
290,68	1683,43
290,90	1787,88
291,11	1550,31
291,33	1787,88
291,54	1632,23
291,76	1638,38
291,97	1738,73
292,18	1763,30
292,40	1716,20
292,61	1671,14
292,83	1775,59
293,04	1689,57
293,26	1689,57
293,47	1720,29
293,69	1646,57
293,90	1652,71
294,12	1728,49
294,33	1716,20
294,55	1632,23
294,76	1751,01
294,97	1777,64
295,19	1890,28
295,40	1687,53
295,62	1710,05
295,83	1738,73
296,05	1605,61
296,26	1812,45
296,48	1615,85
296,69	1726,44
296,90	1712,10
297,12	1740,77
297,33	1773,54
297,55	1748,97
297,76	1681,38
297,98	1734,63
298,19	1736,68
298,41	1720,29
298,62	1632,23
298,83	1818,60
299,05	1787,88
299,26	1665,00
299,48	1619,94
299,69	1658,85
299,90	1634,28
300,12	1757,16
300,33	1726,44
300,55	1789,92
300,76	1781,73
300,98	1615,85
301,19	1734,63
301,40	1728,49
301,62	1753,06
301,83	1710,05
302,05	1654,76
302,26	1677,29
302,47	1720,29
302,69	1648,61
302,90	1710,05
303,12	1576,94
303,33	1708,01
303,54	1734,63
303,76	1685,48
303,97	1693,67
304,19	1810,40
304,40	1642,47
304,61	1683,43
304,83	1757,16
305,04	1708,01
305,26	1826,79
305,47	1703,91
305,68	1642,47
305,90	1558,50
306,11	1777,64
306,33	1665,00
306,54	1718,25
306,75	1685,48
306,97	1599,46
307,18	1634,28
307,39	1675,24
307,61	1746,92
307,82	1689,57
308,04	1751,01
308,25	1689,57
308,46	1718,25
308,68	1767,40
308,89	1646,57
309,10	1697,77
309,32	1693,67
309,53	1755,11
309,74	1673,19
309,96	1699,81
310,17	1730,53
310,39	1732,58
310,60	1742,82
310,81	1748,97
311,03	1607,66
311,24	1732,58
311,45	1763,30
311,67	1810,40
311,88	1691,62
312,09	1585,13
312,31	1615,85
312,52	1714,15
312,73	1691,62
312,95	1644,52
313,16	1665,00
313,37	1765,35
313,59	1751,01
313,80	1755,11
314,01	1824,74
314,23	1689,57
314,44	1734,63
314,65	1619,94
314,87	1703,91
315,08	1712,10
315,29	1648,61
315,51	1632,23
315,72	1671,14
315,93	1830,88
316,15	1746,92
316,36	1669,09
316,57	1753,06
316,79	1683,43
317,00	1722,34
317,21	1679,33
317,43	1640,42
317,64	1685,48
317,85	1611,75
318,07	1720,29
318,28	1710,05
318,49	1757,16
318,70	1851,36
318,92	1822,69
319,13	1839,08
319,34	1875,94
319,56	1787,88
319,77	1880,04
319,98	1744,87
320,20	1763,30
320,41	1759,21
320,62	1767,40
320,83	1644,52
321,05	1796,07
321,26	1705,96
321,47	1740,77
321,69	1744,87
321,90	1624,04
322,11	1679,33
322,32	1738,73
322,54	1751,01
322,75	1710,05
322,96	1841,12
323,18	1650,66
323,39	1669,09
323,60	1599,46
323,81	1830,88
324,03	1689,57
324,24	1714,15
324,45	1726,44
324,66	1683,43
324,88	1714,15
325,09	1748,97
325,30	1738,73
325,52	1656,81
325,73	1681,38
325,94	1697,77
326,15	1630,18
326,37	1632,23
326,58	1734,63
326,79	1830,88
327,00	1638,38
327,22	1724,39
327,43	1601,51
327,64	1613,80
327,85	1708,01
328,07	1681,38
328,28	1871,84
328,49	1685,48
328,70	1726,44
328,92	1726,44
329,13	1718,25
329,34	1734,63
329,55	1783,78
329,76	1734,63
329,98	1687,53
330,19	1720,29
330,40	1695,72
330,61	1718,25
330,83	1658,85
331,04	1687,53
331,25	1626,09
331,46	1650,66
331,68	1632,23
331,89	1722,34
332,10	1695,72
332,31	1624,04
332,52	1742,82
332,74	1798,12
332,95	1658,85
333,16	1658,85
333,37	1755,11
333,58	1662,95
333,80	1777,64
334,01	1589,22
334,22	1652,71
334,43	1691,62
334,64	1720,29
334,86	1644,52
335,07	1677,29
335,28	1732,58
335,49	1630,18
335,70	1634,28
335,92	1693,67
336,13	1783,78
336,34	1667,05
336,55	1642,47
336,76	1708,01
336,98	1665,00
337,19	1646,57
337,40	1728,49
337,61	1800,16
337,82	1654,76
338,04	1837,03
338,25	1646,57
338,46	1667,05
338,67	1724,39
338,88	1701,86
339,09	1632,23
339,31	1603,56
339,52	1656,81
339,73	1644,52
339,94	1689,57
340,15	1687,53
340,36	1705,96
340,58	1728,49
340,79	1712,10
341,00	1759,21
341,21	1628,14
341,42	1777,64
341,63	1679,33
341,85	1710,05
342,06	1748,97
342,27	1640,42
342,48	1765,35
342,69	1617,90
342,90	1744,87
343,12	1718,25
343,33	1691,62
343,54	1742,82
343,75	1755,11
343,96	1708,01
344,17	1656,81
344,38	1681,38
344,60	1669,09
344,81	1656,81
345,02	1691,62
345,23	1718,25
345,44	1810,40
345,65	1718,25
345,86	1681,38
346,07	1673,19
346,29	1650,66
346,50	1720,29
346,71	1728,49
346,92	1757,16
347,13	1800,16
347,34	1718,25
347,55	1712,10
347,76	1769,44
347,98	1757,16
348,19	1624,04
348,40	1759,21
348,61	1660,90
348,82	1822,69
349,03	1671,14
349,24	1626,09
349,45	1757,16
349,66	1621,99
349,88	1751,01
350,09	1599,46
350,30	1783,78
350,51	1757,16
350,72	1724,39
350,93	1716,20
351,14	1734,63
351,35	1736,68
351,56	1662,95
351,77	1705,96
351,99	1722,34
352,20	1789,92
352,41	1759,21
352,62	1597,42
352,83	1593,32
353,04	1697,77
353,25	1671,14
353,46	1853,41
353,67	1693,67
353,88	1607,66
354,09	1769,44
354,30	1634,28
354,52	1669,09
354,73	1724,39
354,94	1677,29
355,15	1671,14
355,36	1759,21
355,57	1726,44
355,78	1648,61
355,99	1697,77
356,20	1632,23
356,41	1837,03
356,62	1742,82
356,83	1759,21
357,04	1789,92
357,25	1677,29
357,46	1640,42
357,68	1605,61
357,89	1665,00
358,10	1634,28
358,31	1660,90
358,52	1718,25
358,73	1724,39
358,94	1667,05
359,15	1724,39
359,36	1701,86
359,57	1714,15
359,78	1714,15
359,99	1683,43
360,20	1628,14
360,41	1726,44
360,62	1710,05
360,83	1703,91
361,04	1675,24
361,25	1779,68
361,46	1751,01
361,67	1722,34
361,88	1730,53
362,09	1703,91
362,30	1769,44
362,51	1701,86
362,72	1665,00
362,93	1802,21
363,14	1738,73
363,35	1665,00
363,56	1689,57
363,78	1837,03
363,99	1675,24
364,20	1550,31
364,41	1714,15
364,62	1736,68
364,83	1726,44
365,04	1665,00
365,25	1609,70
365,46	1830,88
365,67	1658,85
365,88	1607,66
366,09	1632,23
366,30	1665,00
366,51	1632,23
366,72	1642,47
366,93	1693,67
367,14	1714,15
367,35	1712,10
367,56	1710,05
367,77	1771,49
367,98	1703,91
368,18	1675,24
368,39	1808,36
368,60	1681,38
368,81	1796,07
369,02	1771,49
369,23	1669,09
369,44	1640,42
369,65	1621,99
369,86	1712,10
370,07	1744,87
370,28	1677,29
370,49	1800,16
370,70	1658,85
370,91	1677,29
371,12	1615,85
371,33	1814,50
371,54	1671,14
371,75	1789,92
371,96	1624,04
372,17	1748,97
372,38	1607,66
372,59	1742,82
372,80	1599,46
373,01	1691,62
373,22	1660,90
373,43	1761,25
373,64	1691,62
373,85	1761,25
374,06	1791,97
374,26	1824,74
374,47	1755,11
374,68	1746,92
374,89	1742,82
375,10	1705,96
375,31	1734,63
375,52	1685,48
375,73	1867,75
375,94	1648,61
376,15	1722,34
376,36	1601,51
376,57	1642,47
376,78	1662,95
376,99	1703,91
377,20	1763,30
377,40	1689,57
377,61	1777,64
377,82	1585,13
378,03	1771,49
378,24	1763,30
378,45	1689,57
378,66	1671,14
378,87	1609,70
379,08	1630,18
379,29	1703,91
379,50	1775,59
379,71	1701,86
379,91	1763,30
380,12	1685,48
380,33	1699,81
380,54	1681,38
380,75	1742,82
380,96	1685,48
381,17	1710,05
381,38	1714,15
381,59	1728,49
381,80	1789,92
382,00	1859,56
382,21	1755,11
382,42	1765,35
382,63	1853,41
382,84	1787,88
383,05	1785,83
383,26	1787,88
383,47	1748,97
383,68	1783,78
383,88	1789,92
384,09	1757,16
384,30	1775,59
384,51	1763,30
384,72	1656,81
384,93	1650,66
385,14	1636,33
385,35	1738,73
385,55	1675,24
385,76	1775,59
385,97	1746,92
386,18	1626,09
386,39	1740,77
386,60	1736,68
386,81	1693,67
387,02	1675,24
387,22	1656,81
387,43	1771,49
387,64	1755,11
387,85	1865,70
388,06	2285,53
388,27	4394,94
388,48	6915,99
388,68	8445,82
388,89	9672,56
389,10	9809,77
389,31	8750,97
389,52	7735,18
389,73	6741,91
389,93	6428,57
390,14	5881,77
390,35	5119,92
390,56	4665,27
390,77	3874,76
390,98	3069,91
391,18	2516,95
391,39	2152,42
391,60	1816,55
391,81	1785,83
392,02	1667,05
392,23	1837,03
392,43	1689,57
392,64	1779,68
392,85	1724,39
393,06	1767,40
393,27	1751,01
393,47	1705,96
393,68	1683,43
393,89	1755,11
394,10	1822,69
394,31	1681,38
394,52	1693,67
394,72	1740,77
394,93	1796,07
395,14	1662,95
395,35	1751,01
395,56	1703,91
395,76	1689,57
395,97	1746,92
396,18	1746,92
396,39	1828,84
396,60	2013,15
396,80	1845,22
397,01	1869,80
397,22	1849,32
397,43	1904,61
397,64	1742,82
397,84	1796,07
398,05	1873,89
398,26	1759,21
398,47	1734,63
398,67	1779,68
398,88	1761,25
399,09	1738,73
399,30	1730,53
399,51	1736,68
399,71	1638,38
399,92	1734,63
400,13	1796,07
400,34	1708,01
400,54	1695,72
400,75	1769,44
400,96	1714,15
401,17	1712,10
401,37	1757,16
401,58	1609,70
401,79	1791,97
402,00	1855,46
402,21	2021,35
402,41	1966,05
402,62	1931,23
402,83	2029,54
403,04	2041,82
403,24	2095,07
403,45	1855,46
403,66	1910,75
403,87	1902,56
404,07	1871,84
404,28	1968,10
404,49	1845,22
404,70	1810,40
404,90	1740,77
405,11	1779,68
405,32	1689,57
405,52	1617,90
405,73	1689,57
405,94	1660,90
406,15	1681,38
406,35	1785,83
406,56	1746,92
406,77	1705,96
406,98	1718,25
407,18	1679,33
407,39	1787,88
407,60	1722,34
407,80	1640,42
408,01	1632,23
408,22	1734,63
408,43	1644,52
408,63	1746,92
408,84	1726,44
409,05	1734,63
409,25	1640,42
409,46	1665,00
409,67	1771,49
409,88	1675,24
410,08	1662,95
410,29	1675,24
410,50	1794,02
410,70	1667,05
410,91	1738,73
411,12	1763,30
411,32	1781,73
411,53	1683,43
411,74	1740,77
411,95	1767,40
412,15	1732,58
412,36	1763,30
412,57	1767,40
412,77	1779,68
412,98	1744,87
413,19	1685,48
413,39	1746,92
413,60	1763,30
413,81	1791,97
414,01	1718,25
414,22	1777,64
414,43	1798,12
414,63	1648,61
414,84	1828,84
415,05	1730,53
415,25	1591,27
415,46	1781,73
415,67	1644,52
415,87	1765,35
416,08	1718,25
416,29	1689,57
416,49	1759,21
416,70	1677,29
416,91	1626,09
417,11	1675,24
417,32	1738,73
417,53	1783,78
417,73	1697,77
417,94	1779,68
418,15	1812,45
418,35	1605,61
418,56	1634,28
418,77	1847,27
418,97	1662,95
419,18	1751,01
419,38	1558,50
419,59	1671,14
419,80	1853,41
420,00	1687,53
420,21	1710,05
420,42	1800,16
420,62	1738,73
420,83	1654,76
421,04	1726,44
421,24	1699,81
421,45	1691,62
421,65	1736,68
421,86	1617,90
422,07	1697,77
422,27	1730,53
422,48	1728,49
422,69	1624,04
422,89	1695,72
423,10	1667,05
423,30	1710,05
423,51	1675,24
423,72	1742,82
423,92	1806,31
424,13	1599,46
424,33	1718,25
424,54	1810,40
424,75	1796,07
424,95	1839,08
425,16	1722,34
425,36	1759,21
425,57	1755,11
425,78	1603,56
425,98	1777,64
426,19	1621,99
426,39	1626,09
426,60	1662,95
426,81	1781,73
427,01	1703,91
427,22	1742,82
427,42	1589,22
427,63	1675,24
427,83	1757,16
428,04	1783,78
428,25	1769,44
428,45	1742,82
428,66	1738,73
428,86	1734,63
429,07	1738,73
429,28	1759,21
429,48	1624,04
429,69	1646,57
429,89	1796,07
430,10	1566,70
430,30	1732,58
430,51	1796,07
430,71	1621,99
430,92	1675,24
431,13	1720,29
431,33	1769,44
431,54	1697,77
431,74	1855,46
431,95	1744,87
432,15	1673,19
432,36	1714,15
432,56	1755,11
432,77	1785,83
432,98	1884,13
433,18	1744,87
433,39	1703,91
433,59	1679,33
433,80	1773,54
434,00	1880,04
434,21	1667,05
434,41	1765,35
434,62	1837,03
434,82	1689,57
435,03	1714,15
435,23	1724,39
435,44	1613,80
435,64	1646,57
435,85	1714,15
436,06	1751,01
436,26	1767,40
436,47	1691,62
436,67	1656,81
436,88	1658,85
437,08	1673,19
437,29	1751,01
437,49	1681,38
437,70	1775,59
437,90	1640,42
438,11	1869,80
438,31	1738,73
438,52	1849,32
438,72	1783,78
438,93	1855,46
439,13	1851,36
439,34	1789,92
439,54	1810,40
439,75	1773,54
439,95	1767,40
440,16	1763,30
440,36	1800,16
440,57	1763,30
440,77	1804,26
440,98	1722,34
441,18	1730,53
441,39	1734,63
441,59	1703,91
441,80	1845,22
442,00	1640,42
442,21	1814,50
442,41	1662,95
442,62	1742,82
442,82	1681,38
443,02	1720,29
443,23	1763,30
443,43	1693,67
443,64	1826,79
443,84	1677,29
444,05	1806,31
444,25	1761,25
444,46	1675,24
444,66	1671,14
444,87	1755,11
445,07	1744,87
445,28	1726,44
445,48	1853,41
445,69	1798,12
445,89	1781,73
446,09	1740,77
446,30	2023,39
446,50	2709,46
446,71	3755,97
446,91	4435,90
447,12	4827,06
447,32	4837,30
447,53	4327,36
447,73	3952,58
447,93	3520,46
448,14	3344,33
448,34	3166,16
448,55	2906,07
448,75	2781,14
448,96	2729,94
449,16	2404,32
449,36	2320,35
449,57	2074,59
449,77	1910,75
449,98	1775,59
450,18	1708,01
450,39	1769,44
450,59	1740,77
450,79	1800,16
451,00	1710,05
451,20	1783,78
451,41	1796,07
451,61	1697,77
451,81	1751,01
452,02	1714,15
452,22	1621,99
452,43	1775,59
452,63	1736,68
452,84	1771,49
453,04	1738,73
453,24	1765,35
453,45	1759,21
453,65	1699,81
453,86	1685,48
454,06	1765,35
454,26	1779,68
454,47	1701,86
454,67	1810,40
454,87	1628,14
455,08	1720,29
455,28	1847,27
455,49	1667,05
455,69	1687,53
455,89	1843,17
456,10	1800,16
456,30	1738,73
456,51	1759,21
456,71	1781,73
456,91	1775,59
457,12	1781,73
457,32	1773,54
457,52	1703,91
457,73	1775,59
457,93	1742,82
458,14	1787,88
458,34	1564,65
458,54	1669,09
458,75	1718,25
458,95	1814,50
459,15	1734,63
459,36	1755,11
459,56	1726,44
459,76	1748,97
459,97	1708,01
460,17	1738,73
460,37	1787,88
460,58	1705,96
460,78	1730,53
460,99	1701,86
461,19	1673,19
461,39	1691,62
461,60	1669,09
461,80	1714,15
462,00	1638,38
462,21	1714,15
462,41	1705,96
462,61	1759,21
462,82	1677,29
463,02	1767,40
463,22	1728,49
463,43	1775,59
463,63	1728,49
463,83	1812,45
464,04	1708,01
464,24	1712,10
464,44	1632,23
464,64	1773,54
464,85	1771,49
465,05	1785,83
465,25	1757,16
465,46	1681,38
465,66	1806,31
465,86	1734,63
466,07	1763,30
466,27	1701,86
466,47	1626,09
466,68	1595,37
466,88	1810,40
467,08	1769,44
467,29	1724,39
467,49	1767,40
467,69	1652,71
467,89	1718,25
468,10	1732,58
468,30	1705,96
468,50	1779,68
468,71	1703,91
468,91	1718,25
469,11	1847,27
469,31	1693,67
469,52	1650,66
469,72	1820,64
469,92	1806,31
470,13	1734,63
470,33	1710,05
470,53	1882,08
470,73	2127,84
470,94	2283,49
471,14	2385,88
471,34	2578,39
471,54	2408,41
471,75	2293,72
471,95	2127,84
472,15	2084,83
472,36	2082,78
472,56	2013,15
472,76	2047,97
472,96	2072,54
473,17	1964,00
473,37	1914,85
473,57	1738,73
473,77	1808,36
473,98	1710,05
474,18	1722,34
474,38	1880,04
474,58	1636,33
474,79	1658,85
474,99	1783,78
475,19	1781,73
475,39	1609,70
475,60	1732,58
475,80	1742,82
476,00	1714,15
476,20	1681,38
476,41	1710,05
476,61	1787,88
476,81	1800,16
477,01	1675,24
477,21	1755,11
477,42	1779,68
477,62	1628,14
477,82	1812,45
478,02	1738,73
478,23	1660,90
478,43	1669,09
478,63	1621,99
478,83	1753,06
479,03	1708,01
479,24	1812,45
479,44	1861,60
479,64	1671,14
479,84	1566,70
480,04	1699,81
480,25	1683,43
480,45	1667,05
480,65	1656,81
480,85	1814,50
481,06	1753,06
481,26	1781,73
481,46	1759,21
481,66	1785,83
481,86	1675,24
482,06	1843,17
482,27	1759,21
482,47	1710,05
482,67	1755,11
482,87	1757,16
483,07	1841,12
483,28	1654,76
483,48	1691,62
483,68	1695,72
483,88	1624,04
484,08	1570,79
484,29	1648,61
484,49	1716,20
484,69	1673,19
484,89	1763,30
485,09	1796,07
485,29	1812,45
485,50	1787,88
485,70	1744,87
485,90	1796,07
486,10	1767,40
486,30	1759,21
486,50	1755,11
486,71	1687,53
486,91	1720,29
487,11	1808,36
487,31	1646,57
487,51	1757,16
487,71	1724,39
487,91	1601,51
488,12	1621,99
488,32	1624,04
488,52	1679,33
488,72	1624,04
488,92	1722,34
489,12	1755,11
489,32	1810,40
489,53	1658,85
489,73	1636,33
489,93	1849,32
490,13	1621,99
490,33	1619,94
490,53	1734,63
490,73	1765,35
490,94	1630,18
491,14	1773,54
491,34	1896,42
491,54	2142,18
491,74	2572,25
491,94	2926,55
492,14	3041,23
492,34	3049,43
492,54	2787,29
492,75	2578,39
492,95	2490,33
493,15	2279,39
493,35	2244,57
493,55	2232,29
493,75	2086,88
493,95	2131,94
494,15	2078,69
494,35	1904,61
494,56	1853,41
494,76	1748,97
494,96	1808,36
495,16	1722,34
495,36	1753,06
495,56	1728,49
495,76	1761,25
495,96	1740,77
496,16	1638,38
496,36	1820,64
496,56	1701,86
496,77	1742,82
496,97	1671,14
497,17	1847,27
497,37	1619,94
497,57	1736,68
497,77	1687,53
497,97	1644,52
498,17	1755,11
498,37	1650,66
498,57	1734,63
498,77	1734,63
498,97	1732,58
499,17	1763,30
499,38	1669,09
499,58	1699,81
499,78	1798,12
499,98	1873,89
500,18	1695,72
500,38	1746,92
500,58	1845,22
500,78	2545,63
500,98	4614,07
501,18	6025,12
501,38	6809,50
501,58	7206,80
501,78	6668,19
501,98	5564,33
502,18	5070,77
502,38	4528,06
502,58	4204,48
502,78	3852,23
502,98	3745,73
503,18	3467,21
503,38	3295,18
503,59	2793,43
503,79	2621,40
503,99	2426,84
504,19	2244,57
504,39	2136,03
504,59	2136,03
504,79	2101,22
504,99	2111,46
505,19	1894,37
505,39	1812,45
505,59	2007,01
505,79	1902,56
505,99	1845,22
506,19	1841,12
506,39	1837,03
506,59	1744,87
506,79	1753,06
506,99	1814,50
507,19	1615,85
507,39	1720,29
507,59	1699,81
507,79	1660,90
507,99	1607,66
508,19	1765,35
508,39	1609,70
508,59	1601,51
508,79	1724,39
508,99	1802,21
509,19	1665,00
509,39	1761,25
509,59	1720,29
509,79	1673,19
509,99	1705,96
510,19	1867,75
510,39	1777,64
510,59	1744,87
510,79	1714,15
510,99	1675,24
511,19	1712,10
511,39	1896,42
511,59	1726,44
511,79	1810,40
511,99	1738,73
512,19	1839,08
512,38	1740,77
512,58	1714,15
512,78	1753,06
512,98	1828,84
513,18	1853,41
513,38	1615,85
513,58	1796,07
513,78	1703,91
513,98	1734,63
514,18	1730,53
514,38	1652,71
514,58	1716,20
514,78	1636,33
514,98	1687,53
515,18	1689,57
515,38	1753,06
515,58	1855,46
515,78	1767,40
515,98	1724,39
516,18	1646,57
516,38	1679,33
516,57	1689,57
516,77	1683,43
516,97	1759,21
517,17	1736,68
517,37	1650,66
517,57	1705,96
517,77	1718,25
517,97	1624,04
518,17	1828,84
518,37	1714,15
518,57	1697,77
518,77	1716,20
518,97	1689,57
519,16	1800,16
519,36	1753,06
519,56	1755,11
519,76	1744,87
519,96	1687,53
520,16	1839,08
520,36	1677,29
520,56	1810,40
520,76	1722,34
520,96	1660,90
521,16	1759,21
521,35	1746,92
521,55	1800,16
521,75	1720,29
521,95	1665,00
522,15	1660,90
522,35	1611,75
522,55	1726,44
522,75	1812,45
522,95	1673,19
523,14	1662,95
523,34	1839,08
523,54	1650,66
523,74	1785,83
523,94	1720,29
524,14	1708,01
524,34	1777,64
524,54	1806,31
524,73	1763,30
524,93	1738,73
525,13	1689,57
525,33	1656,81
525,53	1824,74
525,73	1738,73
525,93	1701,86
526,13	1701,86
526,32	1761,25
526,52	1863,65
526,72	1787,88
526,92	1746,92
527,12	1716,20
527,32	1644,52
527,52	1705,96
527,71	1791,97
527,91	1695,72
528,11	1675,24
528,31	1755,11
528,51	1636,33
528,71	1767,40
528,90	1662,95
529,10	1789,92
529,30	1746,92
529,50	1628,14
529,70	1728,49
529,90	1699,81
530,09	1703,91
530,29	1744,87
530,49	1605,61
530,69	1904,61
530,89	1763,30
531,09	1816,55
531,28	1734,63
531,48	1802,21
531,68	1740,77
531,88	1722,34
532,08	1808,36
532,28	1703,91
532,47	1791,97
532,67	1767,40
532,87	1814,50
533,07	1703,91
533,27	1771,49
533,46	1841,12
533,66	1785,83
533,86	1644,52
534,06	1689,57
534,26	1728,49
534,45	1736,68
534,65	1814,50
534,85	1665,00
535,05	1718,25
535,25	1775,59
535,44	1656,81
535,64	1853,41
535,84	1732,58
536,04	1726,44
536,24	1630,18
536,43	1734,63
536,63	1740,77
536,83	1695,72
537,03	1714,15
537,22	1652,71
537,42	1640,42
537,62	1716,20
537,82	1667,05
538,02	1804,26
538,21	1736,68
538,41	1910,75
538,61	1708,01
538,81	1744,87
539,00	1826,79
539,20	1574,89
539,40	1742,82
539,60	1777,64
539,79	1796,07
539,99	1771,49
540,19	1724,39
540,39	1759,21
540,58	1832,93
540,78	1757,16
540,98	1738,73
541,18	1789,92
541,37	1744,87
541,57	1693,67
541,77	1718,25
541,97	1660,90
542,16	1638,38
542,36	1742,82
542,56	1685,48
542,76	1806,31
542,95	1695,72
543,15	1687,53
543,35	1748,97
543,54	1757,16
543,74	1697,77
543,94	1794,02
544,14	1699,81
544,33	1708,01
544,53	1724,39
544,73	1734,63
544,93	1687,53
545,12	1710,05
545,32	1740,77
545,52	1771,49
545,71	1697,77
545,91	1710,05
546,11	1779,68
546,30	1671,14
546,50	1814,50
546,70	1624,04
546,90	1699,81
547,09	1697,77
547,29	1669,09
547,49	1775,59
547,68	1708,01
547,88	1607,66
548,08	1787,88
548,27	2160,61
548,47	1714,15
548,67	1742,82
548,87	1714,15
549,06	1755,11
549,26	1636,33
549,46	1828,84
549,65	1710,05
549,85	1708,01
550,05	1730,53
550,24	1683,43
550,44	1730,53
550,64	1718,25
550,83	1755,11
551,03	1787,88
551,23	1843,17
551,42	1736,68
551,62	1791,97
551,82	1740,77
552,01	1732,58
552,21	1804,26
552,41	1714,15
552,60	1824,74
552,80	1748,97
553,00	1681,38
553,19	1693,67
553,39	1857,51
553,59	1683,43
553,78	1755,11
553,98	1691,62
554,17	1636,33
554,37	1763,30
554,57	1761,25
554,76	1652,71
554,96	1644,52
555,16	1746,92
555,35	1656,81
555,55	1783,78
555,75	1839,08
555,94	1826,79
556,14	1595,37
556,33	1718,25
556,53	1689,57
556,73	1681,38
556,92	1802,21
557,12	1877,99
557,32	1824,74
557,51	1884,13
557,71	1728,49
557,90	1816,55
558,10	1822,69
558,30	1667,05
558,49	1654,76
558,69	1648,61
558,88	1755,11
559,08	1812,45
559,28	1679,33
559,47	1722,34
559,67	1814,50
559,86	1880,04
560,06	1691,62
560,26	1687,53
560,45	1779,68
560,65	1714,15
560,84	1824,74
561,04	1775,59
561,24	1669,09
561,43	1783,78
561,63	1744,87
561,82	1728,49
562,02	1724,39
562,22	1748,97
562,41	1701,86
562,61	1712,10
562,80	1703,91
563,00	1849,32
563,19	1697,77
563,39	1736,68
563,59	1744,87
563,78	1837,03
563,98	1681,38
564,17	1734,63
564,37	1656,81
564,56	1724,39
564,76	1689,57
564,96	1781,73
565,15	1714,15
565,35	1894,37
565,54	1693,67
565,74	1798,12
565,93	1775,59
566,13	1722,34
566,32	1755,11
566,52	1779,68
566,71	1699,81
566,91	1718,25
567,11	1734,63
567,30	1796,07
567,50	1785,83
567,69	1763,30
567,89	1728,49
568,08	1689,57
568,28	1812,45
568,47	1736,68
568,67	1716,20
568,86	1716,20
569,06	1767,40
569,25	1757,16
569,45	1683,43
569,64	1665,00
569,84	1705,96
570,04	1834,98
570,23	1720,29
570,43	1732,58
570,62	1787,88
570,82	1789,92
571,01	1640,42
571,21	1683,43
571,40	1736,68
571,60	1765,35
571,79	1773,54
571,99	1822,69
572,18	1689,57
572,38	1736,68
572,57	1763,30
572,77	1843,17
572,96	1916,90
573,16	1718,25
573,35	1714,15
573,55	1783,78
573,74	1802,21
573,94	1736,68
574,13	1705,96
574,33	1806,31
574,52	1697,77
574,71	1771,49
574,91	1828,84
575,10	1662,95
575,30	1722,34
575,49	1683,43
575,69	1685,48
575,88	1689,57
576,08	1667,05
576,27	1806,31
576,47	1687,53
576,66	1796,07
576,86	1812,45
577,05	1673,19
577,25	1763,30
577,44	1861,60
577,64	1691,62
577,83	1751,01
578,02	1722,34
578,22	1806,31
578,41	1791,97
578,61	1765,35
578,80	1722,34
579,00	1744,87
579,19	1761,25
579,39	1771,49
579,58	1787,88
579,77	1814,50
579,97	1886,18
580,16	1830,88
580,36	1812,45
580,55	1798,12
580,75	1773,54
580,94	1820,64
581,13	1853,41
581,33	1808,36
581,52	1767,40
581,72	1941,47
581,91	1845,22
582,11	1697,77
582,30	1724,39
582,49	1722,34
582,69	1830,88
582,88	1787,88
583,08	1687,53
583,27	1855,46
583,47	1720,29
583,66	1687,53
583,85	1730,53
584,05	1767,40
584,24	1691,62
584,44	1808,36
584,63	1808,36
584,82	1812,45
585,02	1867,75
585,21	1882,08
585,41	1816,55
585,60	1834,98
585,79	1894,37
585,99	1959,91
586,18	1884,13
586,37	2133,98
586,57	3381,20
586,76	9846,63
586,96	25046,66
587,15	35159,53
587,34	41207,18
587,54	43255,15
587,73	37531,08
587,93	26791,53
588,12	22056,62
588,31	18573,03
588,51	16736,00
588,70	15466,26
588,89	14331,69
589,09	12734,27
589,28	11255,64
589,47	9684,84
589,67	8130,44
589,86	6543,26
590,06	5154,74
590,25	3925,96
590,44	3108,82
590,64	2539,48
590,83	2273,25
591,02	2199,52
591,22	1990,63
591,41	1920,99
591,60	1871,84
591,80	1875,94
591,99	1796,07
592,18	1808,36
592,38	1837,03
592,57	1779,68
592,76	1701,86
592,96	1773,54
593,15	1757,16
593,34	1783,78
593,54	1685,48
593,73	1740,77
593,92	1757,16
594,12	1789,92
594,31	1861,60
594,50	1814,50
594,70	1765,35
594,89	1920,99
595,08	1720,29
595,28	1791,97
595,47	1845,22
595,66	1718,25
595,86	1703,91
596,05	1734,63
596,24	1742,82
596,43	1880,04
596,63	1828,84
596,82	1794,02
597,01	1785,83
597,21	1802,21
597,40	1767,40
597,59	1722,34
597,79	1746,92
597,98	1834,98
598,17	1716,20
598,36	1783,78
598,56	1718,25
598,75	1738,73
598,94	1779,68
599,14	1740,77
599,33	1701,86
599,52	1755,11
599,71	1755,11
599,91	1714,15
600,10	1746,92
600,29	1732,58
600,48	1738,73
600,68	1787,88
600,87	1689,57
601,06	1746,92
601,26	1720,29
601,45	1804,26
601,64	1699,81
601,83	1796,07
602,03	1710,05
602,22	1626,09
602,41	1773,54
602,60	1884,13
602,80	1808,36
602,99	1673,19
603,18	1718,25
603,37	1658,85
603,57	1699,81
603,76	1873,89
603,95	1765,35
604,14	1753,06
604,34	1767,40
604,53	1685,48
604,72	1693,67
604,91	1783,78
605,10	1796,07
605,30	1642,47
605,49	1834,98
605,68	1748,97
605,87	1839,08
606,07	1726,44
606,26	1695,72
606,45	1759,21
606,64	1718,25
606,84	1726,44
607,03	1734,63
607,22	1773,54
607,41	1691,62
607,60	1771,49
607,80	1804,26
607,99	1687,53
608,18	1748,97
608,37	1787,88
608,56	1675,24
608,76	1738,73
608,95	1761,25
609,14	1765,35
609,33	1787,88
609,52	1855,46
609,72	1703,91
609,91	1808,36
610,10	1767,40
610,29	1853,41
610,48	1751,01
610,68	1845,22
610,87	1675,24
611,06	1726,44
611,25	1736,68
611,44	1742,82
611,63	1724,39
611,83	1804,26
612,02	1652,71
612,21	1789,92
612,40	1646,57
612,59	1714,15
612,79	1656,81
612,98	1728,49
613,17	1806,31
613,36	1742,82
613,55	1742,82
613,74	1710,05
613,93	1687,53
614,13	1693,67
614,32	1748,97
614,51	1751,01
614,70	1773,54
614,89	1683,43
615,08	1742,82
615,28	2037,73
615,47	1740,77
615,66	1685,48
615,85	1689,57
616,04	1839,08
616,23	1640,42
616,42	1724,39
616,62	1751,01
616,81	1763,30
617,00	1765,35
617,19	1699,81
617,38	1746,92
617,57	1765,35
617,76	1800,16
617,95	1685,48
618,15	1755,11
618,34	1789,92
618,53	1638,38
618,72	1738,73
618,91	1732,58
619,10	1779,68
619,29	1767,40
619,48	1757,16
619,68	1691,62
619,87	1650,66
620,06	1656,81
620,25	1720,29
620,44	1726,44
620,63	1695,72
620,82	1705,96
621,01	1773,54
621,20	1722,34
621,39	1742,82
621,59	1724,39
621,78	1724,39
621,97	1732,58
622,16	1765,35
622,35	1751,01
622,54	1777,64
622,73	1755,11
622,92	1564,65
623,11	1736,68
623,30	1726,44
623,49	1759,21
623,68	1693,67
623,88	1789,92
624,07	1695,72
624,26	1763,30
624,45	1808,36
624,64	1697,77
624,83	1705,96
625,02	1777,64
625,21	1722,34
625,40	1767,40
625,59	1751,01
625,78	1742,82
625,97	1837,03
626,16	1814,50
626,35	1734,63
626,54	1710,05
626,74	1755,11
626,93	1701,86
627,12	1675,24
627,31	1748,97
627,50	1783,78
627,69	1841,12
627,88	1671,14
628,07	1794,02
628,26	1679,33
628,45	1677,29
628,64	1724,39
628,83	1675,24
629,02	1624,04
629,21	1777,64
629,40	1701,86
629,59	1648,61
629,78	1644,52
629,97	1681,38
630,16	1728,49
630,35	1667,05
630,54	1693,67
630,73	1701,86
630,92	1759,21
631,11	1652,71
631,30	1738,73
631,49	1779,68
631,68	1738,73
631,87	1759,21
632,06	1687,53
632,25	1845,22
632,44	1839,08
632,63	1699,81
632,82	1685,48
633,01	1673,19
633,20	1671,14
633,39	1740,77
633,58	1636,33
633,77	1775,59
633,96	1644,52
634,15	1763,30
634,34	1732,58
634,53	1724,39
634,72	1675,24
634,91	1644,52
635,10	1665,00
635,29	1693,67
635,48	1824,74
635,67	1705,96
635,86	1677,29
636,05	1820,64
636,24	1744,87
636,43	1751,01
636,62	1732,58
636,81	1593,32
637,00	1710,05
637,19	1681,38
637,38	1708,01
637,57	1636,33
637,76	1658,85
637,95	1730,53
638,14	1669,09
638,33	1669,09
638,52	1689,57
638,71	1650,66
638,89	1605,61
639,08	1877,99
639,27	1755,11
639,46	1644,52
639,65	1789,92
639,84	1708,01
640,03	1740,77
640,22	1703,91
640,41	1767,40
640,60	1763,30
640,79	1734,63
640,98	1693,67
641,17	1802,21
641,36	1746,92
641,55	1755,11
641,74	1605,61
641,92	1703,91
642,11	1626,09
642,30	1654,76
642,49	1691,62
642,68	1724,39
642,87	1751,01
643,06	1751,01
643,25	1785,83
643,44	1615,85
643,63	1701,86
643,82	1757,16
644,00	1662,95
644,19	1648,61
644,38	1599,46
644,57	1722,34
644,76	1847,27
644,95	1652,71
645,14	1730,53
645,33	1736,68
645,52	1615,85
645,71	1714,15
645,89	1646,57
646,08	1689,57
646,27	1695,72
646,46	1841,12
646,65	1640,42
646,84	1720,29
647,03	1660,90
647,22	1738,73
647,40	1697,77
647,59	1712,10
647,78	1669,09
647,97	1634,28
648,16	1673,19
648,35	1796,07
648,54	1708,01
648,73	1738,73
648,91	1753,06
649,10	1812,45
649,29	1677,29
649,48	1746,92
649,67	1732,58
649,86	1683,43
650,05	1726,44
650,23	1724,39
650,42	1671,14
650,61	1710,05
650,80	1728,49
650,99	1841,12
651,18	1820,64
651,36	1806,31
651,55	1648,61
651,74	1734,63
651,93	1669,09
652,12	1714,15
652,31	1708,01
652,49	1775,59
652,68	1755,11
652,87	1710,05
653,06	1703,91
653,25	1904,61
653,44	1740,77
653,62	1757,16
653,81	1683,43
654,00	1695,72
654,19	1828,84
654,38	1884,13
654,56	1712,10
654,75	1693,67
654,94	1738,73
655,13	1662,95
655,32	1748,97
655,51	1818,60
655,69	1660,90
655,88	1822,69
656,07	1634,28
656,26	1673,19
656,45	1720,29
656,63	1701,86
656,82	1744,87
657,01	1796,07
657,20	1705,96
657,38	1716,20
657,57	1781,73
657,76	1634,28
657,95	1744,87
658,14	1658,85
658,32	1746,92
658,51	1611,75
658,70	1779,68
658,89	1767,40
659,08	1669,09
659,26	1861,60
659,45	1630,18
659,64	1640,42
659,83	1679,33
660,01	1904,61
660,20	1681,38
660,39	1732,58
660,58	1662,95
660,76	1779,68
660,95	1658,85
661,14	1691,62
661,33	1591,27
661,51	1683,43
661,70	1701,86
661,89	1751,01
662,08	1699,81
662,26	1671,14
662,45	1695,72
662,64	1877,99
662,83	1785,83
663,01	1611,75
663,20	1716,20
663,39	1808,36
663,58	1759,21
663,76	1656,81
663,95	1789,92
664,14	1718,25
664,32	1699,81
664,51	1712,10
664,70	1695,72
664,89	1716,20
665,07	1621,99
665,26	1783,78
665,45	1738,73
665,64	1724,39
665,82	1751,01
666,01	1767,40
666,20	1705,96
666,38	1779,68
666,57	1777,64
666,76	2148,32
666,95	4442,04
667,13	10547,04
667,32	15351,57
667,51	18280,17
667,69	19494,61
667,88	17899,25
668,07	12660,54
668,25	9783,15
668,44	8103,81
668,63	7362,45
668,81	6909,85
669,00	6360,99
669,19	5689,26
669,38	5089,20
669,56	4661,18
669,75	3966,92
669,94	3405,77
670,12	2910,16
670,31	2592,73
670,50	2271,20
670,68	2101,22
670,87	1943,52
671,06	1871,84
671,24	1748,97
671,43	1759,21
671,62	1722,34
671,80	1734,63
671,99	1740,77
672,18	1746,92
672,36	1761,25
672,55	1736,68
672,74	1732,58
672,92	1744,87
673,11	1775,59
673,29	1640,42
673,48	1660,90
673,67	1714,15
673,85	1787,88
674,04	1736,68
674,23	1714,15
674,41	1814,50
674,60	1722,34
674,79	1611,75
674,97	1691,62
675,16	1716,20
675,34	1834,98
675,53	1701,86
675,72	1677,29
675,90	1753,06
676,09	1642,47
676,28	1628,14
676,46	1615,85
676,65	1761,25
676,83	1669,09
677,02	1794,02
677,21	1720,29
677,39	1722,34
677,58	1626,09
677,77	1673,19
677,95	1669,09
678,14	1771,49
678,32	1656,81
678,51	1609,70
678,70	1884,13
678,88	1769,44
679,07	1794,02
679,25	1699,81
679,44	1683,43
679,63	1736,68
679,81	1638,38
680,00	1751,01
680,18	1701,86
680,37	1794,02
680,55	1697,77
680,74	1581,03
680,93	1648,61
681,11	1708,01
681,30	1701,86
681,48	1765,35
681,67	1710,05
681,85	1705,96
682,04	1732,58
682,23	1693,67
682,41	1652,71
682,60	1681,38
682,78	1705,96
682,97	1732,58
683,15	1714,15
683,34	1714,15
683,53	1832,93
683,71	1652,71
683,90	1722,34
684,08	1802,21
684,27	1650,66
684,45	1800,16
684,64	1783,78
684,82	1701,86
685,01	1656,81
685,19	1650,66
685,38	1800,16
685,57	1757,16
685,75	1654,76
685,94	1708,01
686,12	1695,72
686,31	1730,53
686,49	1746,92
686,68	1603,56
686,86	1744,87
687,05	1648,61
687,23	1746,92
687,42	1667,05
687,60	1619,94
687,79	1791,97
687,97	1751,01
688,16	1753,06
688,34	1771,49
688,53	1572,84
688,71	1708,01
688,90	1746,92
689,08	1734,63
689,27	1585,13
689,45	1734,63
689,64	1662,95
689,82	1736,68
690,01	1773,54
690,19	1693,67
690,38	1781,73
690,56	1710,05
690,75	1642,47
690,93	1705,96
691,12	1695,72
691,30	1773,54
691,49	1701,86
691,67	1738,73
691,86	1818,60
692,04	1613,80
692,23	1665,00
692,41	1736,68
692,60	1814,50
692,78	1755,11
692,97	1787,88
693,15	1810,40
693,34	1781,73
693,52	1796,07
693,71	1636,33
693,89	1677,29
694,08	1673,19
694,26	1796,07
694,44	1722,34
694,63	1691,62
694,81	1677,29
695,00	1662,95
695,18	1738,73
695,37	1816,55
695,55	1691,62
695,74	1673,19
695,92	1605,61
696,10	1751,01
696,29	1652,71
696,47	1708,01
696,66	1624,04
696,84	1650,66
697,03	1699,81
697,21	1794,02
697,40	2287,58
697,58	1759,21
697,76	1693,67
697,95	1644,52
698,13	1665,00
698,32	1710,05
698,50	1660,90
698,68	1671,14
698,87	1767,40
699,05	1800,16
699,24	1751,01
699,42	1673,19
699,61	1746,92
699,79	1726,44
699,97	1691,62
700,16	1703,91
700,34	1607,66
700,53	1781,73
700,71	1771,49
700,89	1767,40
701,08	1712,10
701,26	1662,95
701,45	2189,28
701,63	1658,85
701,81	1746,92
702,00	1687,53
702,18	1691,62
702,37	1710,05
702,55	1775,59
702,73	1695,72
702,92	1587,18
703,10	1730,53
703,28	1673,19
703,47	1687,53
703,65	1767,40
703,84	1740,77
704,02	1578,98
704,20	1812,45
704,39	1689,57
704,57	1689,57
704,75	1732,58
704,94	1699,81
705,12	1777,64
705,30	1783,78
705,49	2138,08
705,67	4429,76
705,86	9516,91
706,04	12760,89
706,22	14726,94
706,41	15734,54
706,59	13977,39
706,77	9682,80
706,96	7567,24
707,14	6664,09
707,32	6010,79
707,51	5617,58
707,69	5060,53
707,87	4294,59
708,06	3600,33
708,24	2955,22
708,42	2455,51
708,61	2174,94
708,79	1996,77
708,97	1923,04
709,16	1904,61
709,34	1808,36
709,52	1673,19
709,71	1701,86
709,89	1794,02
710,07	1576,94
710,26	1693,67
710,44	1646,57
710,62	1781,73
710,80	1681,38
710,99	1650,66
711,17	1755,11
711,35	1615,85
711,54	1669,09
711,72	1787,88
711,90	1689,57
712,09	1726,44
712,27	1693,67
712,45	1751,01
712,63	1703,91
712,82	1683,43
713,00	1703,91
713,18	1767,40
713,37	1816,55
713,55	1716,20
713,73	1789,92
713,91	1718,25
714,10	1789,92
714,28	1685,48
714,46	1748,97
714,65	1656,81
714,83	1652,71
715,01	1624,04
715,19	1738,73
715,38	1646,57
715,56	1738,73
715,74	1650,66
715,92	1595,37
716,11	1767,40
716,29	1599,46
716,47	1611,75
716,65	1703,91
716,84	1621,99
717,02	1746,92
717,20	1671,14
717,38	1619,94
717,57	1734,63
717,75	1710,05
717,93	1699,81
718,11	1726,44
718,30	1681,38
718,48	1648,61
718,66	1740,77
718,84	1781,73
719,03	1769,44
719,21	1695,72
719,39	1791,97
719,57	1761,25
719,75	1724,39
719,94	1632,23
720,12	1761,25
720,30	1689,57
720,48	1779,68
720,67	1642,47
720,85	1669,09
721,03	1640,42
721,21	1761,25
721,39	1755,11
721,58	1714,15
721,76	1691,62
721,94	1689,57
722,12	1646,57
722,30	1804,26
722,49	1667,05
722,67	1753,06
722,85	1796,07
723,03	1626,09
723,21	1632,23
723,40	1687,53
723,58	1699,81
723,76	1746,92
723,94	1818,60
724,12	1783,78
724,30	1744,87
724,49	1812,45
724,67	1648,61
724,85	1810,40
725,03	1646,57
725,21	1718,25
725,40	1751,01
725,58	1644,52
725,76	1742,82
725,94	1755,11
726,12	1695,72
726,30	1777,64
726,49	1593,32
726,67	1671,14
726,85	1769,44
727,03	1757,16
727,21	2054,11
727,39	2971,60
727,57	3811,27
727,76	4181,95
727,94	4403,13
728,12	4446,14
728,30	3770,31
728,48	3082,19
728,66	2793,43
728,84	2639,83
729,03	2336,73
729,21	2156,51
729,39	1943,52
729,57	1875,94
729,75	1820,64
729,93	1837,03
730,11	1738,73
730,30	1683,43
730,48	1613,80
730,66	1742,82
730,84	1822,69
731,02	1685,48
731,20	1662,95
731,38	1718,25
731,56	1617,90
731,74	1679,33
731,93	1705,96
732,11	1763,30
732,29	1693,67
732,47	1699,81
732,65	1708,01
732,83	1773,54
733,01	1665,00
733,19	1742,82
733,37	1708,01
733,56	1691,62
733,74	1656,81
733,92	1748,97
734,10	1671,14
734,28	1703,91
734,46	1578,98
734,64	1669,09
734,82	1685,48
735,00	1738,73
735,18	1644,52
735,36	1712,10
735,54	1665,00
735,73	1677,29
735,91	1697,77
736,09	1757,16
736,27	1720,29
736,45	1708,01
736,63	1662,95
736,81	1767,40
736,99	1812,45
737,17	1808,36
737,35	1693,67
737,53	1724,39
737,71	1665,00
737,89	1763,30
738,07	1681,38
738,25	1535,98
738,43	1603,56
738,61	1767,40
738,80	1658,85
738,98	1607,66
739,16	1640,42
739,34	1624,04
739,52	1806,31
739,70	1720,29
739,88	1742,82
740,06	1771,49
740,24	1603,56
740,42	1738,73
740,60	1599,46
740,78	1628,14
740,96	1640,42
741,14	1699,81
741,32	1748,97
741,50	1605,61
741,68	1871,84
741,86	1755,11
742,04	1636,33
742,22	1689,57
742,40	1759,21
742,58	1708,01
742,76	1607,66
742,94	1771,49
743,12	1576,94
743,30	1681,38
743,48	1761,25
743,66	1638,38
743,84	1740,77
744,02	1673,19
744,20	1705,96
744,38	1636,33
744,56	1634,28
744,74	1804,26
744,92	1730,53
745,10	1820,64
745,28	1734,63
745,46	1751,01
745,64	1703,91
745,82	1728,49
746,00	1673,19
746,18	1738,73
746,36	1685,48
746,54	1720,29
746,72	1695,72
746,90	1671,14
747,08	1763,30
747,26	1634,28
747,44	1679,33
747,62	1740,77
747,80	1722,34
747,98	1753,06
748,15	1738,73
748,33	1812,45
748,51	1691,62
748,69	1683,43
748,87	1703,91
749,05	1794,02
749,23	1671,14
749,41	1826,79
749,59	1722,34
749,77	1804,26
749,95	1691,62
750,13	1632,23
750,31	1832,93
750,49	1691,62
750,67	1755,11
750,85	1746,92
751,03	1787,88
751,20	1808,36
751,38	1740,77
751,56	1691,62
751,74	1771,49
751,92	1642,47
752,10	1644,52
752,28	1726,44
752,46	1683,43
752,64	1732,58
752,82	1652,71
753,00	1724,39
753,18	1658,85
753,35	1660,90
753,53	1716,20
753,71	1642,47
753,89	1794,02
754,07	1619,94
754,25	1720,29
754,43	1738,73
754,61	1533,93
754,79	1718,25
754,97	1783,78
755,14	1712,10
755,32	1710,05
755,50	1658,85
755,68	1728,49
755,86	1624,04
756,04	1662,95
756,22	1550,31
756,40	1699,81
756,57	1812,45
756,75	1656,81
756,93	1783,78
757,11	1697,77
757,29	1634,28
757,47	1638,38
757,65	1689,57
757,82	1570,79
758,00	1673,19
758,18	1697,77
758,36	1689,57
758,54	1755,11
758,72	1712,10
758,90	1796,07
759,07	1765,35
759,25	1695,72
759,43	1730,53
759,61	1621,99
759,79	2191,33
759,97	1730,53
760,15	1667,05
760,32	1753,06
760,50	1751,01
760,68	1820,64
760,86	1615,85
761,04	1742,82
761,22	1712,10
761,39	1751,01
761,57	1740,77
761,75	1757,16
761,93	1722,34
762,11	1740,77
762,28	1685,48
762,46	1634,28
762,64	1734,63
762,82	1652,71
763,00	1693,67
763,18	1726,44
763,35	1654,76
763,53	1775,59
763,71	1697,77
763,89	1687,53
764,07	1689,57
764,24	1632,23
764,42	1820,64
764,60	1693,67
764,78	1718,25
764,96	1701,86
765,13	1730,53
765,31	1683,43
765,49	1724,39
765,67	1609,70
765,84	1673,19
766,02	1681,38
766,20	1624,04
766,38	1738,73
766,56	1751,01
766,73	1683,43
766,91	1693,67
767,09	1726,44
767,27	1730,53
767,44	1673,19
767,62	1689,57
767,80	1724,39
767,98	1658,85
768,15	1689,57
768,33	1728,49
768,51	1718,25
768,69	1716,20
768,87	1701,86
769,04	1705,96
769,22	1830,88
769,40	1724,39
769,58	1867,75
769,75	1675,24
769,93	1849,32
770,11	1697,77
770,28	1689,57
770,46	1789,92
770,64	1744,87
770,82	1667,05
770,99	1685,48
771,17	1746,92
771,35	1650,66
771,53	1720,29
771,70	1701,86
771,88	1650,66
772,06	1646,57
772,23	1724,39
772,41	1785,83
772,59	1650,66
772,77	1583,08
772,94	1679,33
773,12	1763,30
773,30	1714,15
773,47	1703,91
773,65	1687,53
773,83	1781,73
774,01	1708,01
774,18	1665,00
774,36	1658,85
774,54	1697,77
774,71	1787,88
774,89	1658,85
775,07	1634,28
775,24	1662,95
775,42	1699,81
775,60	1824,74
775,78	1632,23
775,95	1652,71
776,13	1585,13
776,31	1554,41
776,48	1714,15
776,66	1806,31
776,84	1695,72
777,01	1716,20
777,19	1587,18
777,37	1628,14
777,54	1826,79
777,72	1802,21
777,90	1828,84
778,07	1718,25
778,25	1896,42
778,43	1769,44
778,60	1662,95
778,78	1767,40
778,96	1748,97
779,13	1621,99
779,31	1689,57
779,49	1705,96
779,66	1662,95
779,84	1662,95
780,01	1695,72
780,19	1626,09
780,37	1683,43
780,54	1708,01
780,72	1621,99
780,90	1656,81
781,07	1658,85
781,25	1669,09
781,43	1781,73
781,60	1650,66
781,78	1791,97
781,95	1744,87
782,13	1658,85
782,31	1673,19
782,48	1601,51
782,66	1673,19
782,83	1849,32
783,01	1699,81
783,19	1599,46
783,36	1628,14
783,54	1681,38
783,72	1761,25
783,89	1662,95
784,07	1751,01
784,24	1722,34
784,42	1738,73
784,60	1665,00
784,77	1820,64
784,95	1656,81
785,12	1687,53
785,30	1675,24
785,47	1648,61
785,65	1642,47
785,83	1662,95
786,00	1658,85
786,18	1748,97
786,35	1595,37
786,53	1718,25
786,71	1769,44
786,88	1705,96
787,06	1669,09
787,23	1732,58
787,41	1642,47
787,58	1691,62
787,76	1695,72
787,94	1671,14
788,11	1695,72
788,29	1689,57
788,46	1583,08
788,64	1693,67
788,81	1677,29
788,99	1644,52
789,16	1636,33
789,34	1701,86
789,52	1658,85
789,69	1726,44
789,87	1626,09
790,04	1699,81
790,22	1695,72
790,39	1839,08
790,57	1669,09
790,74	1628,14
790,92	1730,53
791,09	1595,37
791,27	1757,16
791,44	1708,01
791,62	1677,29
791,79	1683,43
791,97	1710,05
792,15	1882,08
792,32	1775,59
792,50	1751,01
792,67	1703,91
792,85	1830,88
793,02	1671,14
793,20	1730,53
793,37	1578,98
793,55	1710,05
793,72	1669,09
793,90	1615,85
794,07	1626,09
794,25	1626,09
794,42	1673,19
794,60	1740,77
794,77	1800,16
794,95	1667,05
795,12	1738,73
795,30	1681,38
795,47	1593,32
795,65	1787,88
795,82	1665,00
796,00	1669,09
796,17	1675,24
796,34	1673,19
796,52	1628,14
796,69	1685,48
796,87	1808,36
797,04	1763,30
797,22	1701,86
797,39	1757,16
797,57	1730,53
797,74	1748,97
797,92	1769,44
798,09	1675,24
798,27	1710,05
798,44	1699,81
798,62	1626,09
798,79	1744,87
798,96	1732,58
799,14	1665,00
799,31	1761,25
799,49	1734,63
799,66	1724,39
799,84	1673,19
800,01	1628,14
800,19	1689,57
800,36	1708,01
800,53	1667,05
800,71	1734,63
800,88	1814,50
801,06	1595,37
801,23	1710,05
801,41	1738,73
801,58	1753,06
801,75	1736,68
801,93	1679,33
802,10	1718,25
802,28	1701,86
802,45	1660,90
802,63	1679,33
802,80	1779,68
802,97	1683,43
803,15	1691,62
803,32	1687,53
803,50	1681,38
803,67	1728,49
803,84	1595,37
804,02	1691,62
804,19	1718,25
804,37	1535,98
804,54	1589,22
804,71	1644,52
804,89	1621,99
805,06	1613,80
805,24	1683,43
805,41	1697,77
805,58	1724,39
805,76	1791,97
805,93	1710,05
806,10	1744,87
806,28	1681,38
806,45	1658,85
806,63	1718,25
806,80	1701,86
806,97	1730,53
807,15	1636,33
807,32	1665,00
807,49	1744,87
807,67	1615,85
807,84	1667,05
808,01	1566,70
808,19	1890,28
808,36	1837,03
808,54	1710,05
808,71	1642,47
808,88	1734,63
809,06	1718,25
809,23	1783,78
809,40	1660,90
809,58	1708,01
809,75	1728,49
809,92	1718,25
810,10	1869,80
810,27	1691,62
810,44	1734,63
810,62	1726,44
810,79	1728,49
810,96	1667,05
811,14	1722,34
811,31	1769,44
811,48	1691,62
811,66	1716,20
811,83	1738,73
812,00	1796,07
812,18	1769,44
812,35	1806,31
812,52	1648,61
812,69	1652,71
812,87	1697,77
813,04	1640,42
813,21	1669,09
813,39	1624,04
813,56	1611,75
813,73	1652,71
813,91	1677,29
814,08	1712,10
814,25	1650,66
814,42	1650,66
814,60	1697,77
814,77	1697,77
814,94	1708,01
815,12	1724,39
815,29	1826,79
815,46	1722,34
815,63	1685,48
815,81	1710,05
815,98	1665,00
816,15	1703,91
816,33	1767,40
816,50	1665,00
816,67	1632,23
816,84	1714,15
817,02	1665,00
817,19	1642,47
817,36	1699,81
817,53	1669,09
817,71	1675,24
817,88	1675,24
818,05	1734,63
818,22	1699,81
818,40	1820,64
818,57	1677,29
818,74	1701,86
818,91	1697,77
819,09	1765,35
819,26	1699,81
819,43	1626,09
819,60	1644,52
819,78	1714,15
819,95	1855,46
820,12	1644,52
820,29	1791,97
820,47	1744,87
820,64	1679,33
820,81	1665,00
820,98	1619,94
821,15	1656,81
821,33	1808,36
821,50	1595,37
821,67	1644,52
821,84	1656,81
822,02	1746,92
822,19	1767,40
822,36	1679,33
822,53	1705,96
822,70	1552,36
822,88	1691,62
823,05	1783,78
823,22	1679,33
823,39	1710,05
823,56	1716,20
823,74	1810,40
823,91	1576,94
824,08	1679,33
824,25	1609,70
824,42	1830,88
824,60	1603,56
824,77	1751,01
824,94	1652,71
825,11	1712,10
825,28	1705,96
825,45	1755,11
825,63	1677,29
825,80	1660,90
825,97	1794,02
826,14	1779,68
826,31	1595,37
826,48	1746,92
826,66	1658,85
826,83	1615,85
827,00	1681,38
827,17	1644,52
827,34	1615,85
827,51	1574,89
827,69	1736,68
827,86	1611,75
828,03	1736,68
828,20	1703,91
828,37	1718,25
828,54	1718,25
828,71	1656,81
828,89	1802,21
829,06	1763,30
829,23	1744,87
829,40	1609,70
829,57	1640,42
829,74	1695,72
829,91	1632,23
830,09	1660,90
830,26	1771,49
830,43	1744,87
830,60	1697,77
830,77	1683,43
830,94	1865,70
831,11	1671,14
831,28	1662,95
831,46	1830,88
831,63	1708,01
831,80	1751,01
831,97	1597,42
832,14	1687,53
832,31	1660,90
832,48	1726,44
832,65	1748,97
832,82	1689,57
832,99	1746,92
833,17	1644,52
833,34	1773,54
833,51	1748,97
833,68	1568,74
833,85	1685,48
834,02	1640,42
834,19	1652,71
834,36	1630,18
834,53	1751,01
834,70	1751,01
834,87	1710,05
835,04	1708,01
835,22	1703,91
835,39	1671,14
835,56	1658,85
835,73	1619,94
835,90	1662,95
836,07	1613,80
836,24	1734,63
836,41	1673,19
836,58	1609,70
836,75	1679,33
836,92	1734,63
837,09	1640,42
837,26	1736,68
837,43	1771,49
837,60	1714,15
837,77	1714,15
837,94	1712,10
838,12	1746,92
838,29	1710,05
838,46	1626,09
838,63	1636,33
838,80	1859,56
838,97	1726,44
839,14	1669,09
839,31	1652,71
839,48	1763,30
839,65	1646,57
839,82	1779,68
839,99	1718,25
840,16	1787,88
840,33	1677,29
840,50	1732,58
840,67	1658,85
840,84	1615,85
841,01	1779,68
841,18	1705,96
841,35	1669,09
841,52	1689,57
841,69	1814,50
841,86	1773,54
842,03	1722,34
842,20	1744,87
842,37	1703,91
842,54	1773,54
842,71	1714,15
842,88	1589,22
843,05	1720,29
843,22	1755,11
843,39	1667,05
843,56	1714,15
843,73	1638,38
843,90	1693,67
844,07	1783,78
844,24	1730,53
844,41	1730,53
844,58	1658,85
844,75	1648,61
844,92	1730,53
845,09	1591,27
845,26	1714,15
845,43	1789,92
845,60	1656,81
845,77	1746,92
845,94	1656,81
846,10	1685,48
846,27	1648,61
846,44	1621,99
846,61	1679,33
846,78	1734,63
846,95	1810,40
847,12	1693,67
847,29	1673,19
847,46	1621,99
847,63	1787,88
847,80	1683,43
847,97	1626,09
848,14	1806,31
848,31	1658,85
848,48	1552,36
848,65	1705,96
848,82	1652,71
848,98	1777,64
849,15	1746,92
849,32	1716,20
849,49	1724,39
849,66	1736,68
849,83	1757,16
850,00	1648,61
850,17	1773,54
850,34	1705,96
850,51	1576,94
850,68	1695,72
850,85	1787,88
851,01	1705,96
851,18	1687,53
851,35	1738,73
851,52	1691,62
851,69	1783,78
851,86	1636,33
852,03	1705,96
852,20	1730,53
852,37	1693,67
852,53	1591,27
852,70	1695,72
852,87	1730,53
853,04	1757,16
853,21	1685,48
853,38	1691,62
853,55	1748,97
853,72	1779,68
853,89	1642,47
854,05	1628,14
854,22	1701,86
854,39	1611,75
854,56	1726,44
854,73	1767,40
854,90	1679,33
855,07	1656,81
855,23	1630,18
855,40	1652,71
855,57	1748,97
855,74	1671,14
855,91	1849,32
856,08	1665,00
856,25	1574,89
856,41	1669,09
856,58	1681,38
856,75	1660,90
856,92	1644,52
857,09	1796,07
857,26	1675,24
857,42	1712,10
857,59	1724,39
857,76	1621,99
857,93	1708,01
858,10	1693,67
858,27	1638,38
858,43	1683,43
858,60	1695,72
858,77	1675,24
858,94	1658,85
859,11	1820,64
859,27	1646,57
859,44	1656,81
859,61	1787,88
859,78	1718,25
859,95	1687,53
860,12	1671,14
860,28	1841,12
860,45	1810,40
860,62	1681,38
860,79	1687,53
860,95	1646,57
861,12	1705,96
861,29	1632,23
861,46	1650,66
861,63	1693,67
861,79	1710,05
861,96	1699,81
862,13	1683,43
862,30	1765,35
862,47	1673,19
862,63	1630,18
862,80	1816,55
862,97	1740,77
863,14	1669,09
863,30	1718,25
863,47	1703,91
863,64	1734,63
863,81	1671,14
863,97	1652,71
864,14	1656,81
864,31	1740,77
864,48	1681,38
864,65	1632,23
864,81	1689,57
864,98	1685,48
865,15	1730,53
865,32	1779,68
865,48	1767,40
865,65	1820,64
865,82	1671,14
865,98	1644,52
866,15	1757,16
866,32	1748,97
866,49	1679,33
866,65	1722,34
866,82	1685,48
866,99	1683,43
867,16	1652,71
867,32	1628,14
867,49	1650,66
867,66	1677,29
867,83	1669,09
867,99	1632,23
868,16	1640,42
868,33	1662,95
868,49	1722,34
868,66	1656,81
868,83	1738,73
868,99	1736,68
869,16	1740,77
869,33	1808,36
869,50	1791,97
869,66	1703,91
869,83	1652,71
870,00	1685,48
870,16	1730,53
870,33	1660,90
870,50	1734,63
870,66	1636,33
870,83	1718,25
871,00	1718,25
871,17	1662,95
871,33	1755,11
871,50	1673,19
871,67	1624,04
871,83	1730,53
872,00	1763,30
872,17	1650,66
872,33	1744,87
872,50	1765,35
872,67	1722,34
872,83	1730,53
873,00	1699,81
873,17	1773,54
873,33	1796,07
873,50	1685,48
873,67	1669,09
873,83	1667,05
874,00	1656,81
874,16	1695,72
874,33	1726,44
874,50	1679,33
874,66	1671,14
874,83	1677,29
875,00	1763,30
875,16	1730,53
875,33	1789,92
875,50	1615,85
875,66	1619,94
875,83	1654,76
875,99	1685,48
876,16	1701,86
876,33	1613,80
876,49	1705,96
876,66	1726,44
876,83	1628,14
876,99	1578,98
877,16	1732,58
877,32	1734,63
877,49	1683,43
877,66	1757,16
877,82	1830,88
877,99	1646,57
878,15	1736,68
878,32	1669,09
878,49	1695,72
878,65	1769,44
878,82	1738,73
878,98	1611,75
879,15	1755,11
879,32	1785,83
879,48	1775,59
879,65	1679,33
879,81	1701,86
879,98	1705,96
880,15	1679,33
880,31	1726,44
880,48	1662,95
880,64	1740,77
880,81	1722,34
880,97	1837,03
881,14	1714,15
881,31	1595,37
881,47	1839,08
881,64	1734,63
881,80	1632,23
881,97	1660,90
882,13	1701,86
882,30	1617,90
882,47	1621,99
882,63	1669,09
882,80	1681,38
882,96	1712,10
883,13	1812,45
883,29	1724,39
883,46	1701,86
883,62	1757,16
883,79	1734,63
883,95	1759,21
884,12	1644,52
884,29	1759,21
884,45	1730,53
884,62	1742,82
884,78	1673,19
884,95	1781,73
885,11	1619,94
885,28	1718,25
885,44	1710,05
885,61	1761,25
885,77	1765,35
885,94	1738,73
886,10	1765,35
886,27	1726,44
886,43	1755,11
886,60	1746,92
886,76	1662,95
886,93	1667,05
887,09	1710,05
887,26	1605,61
887,42	1701,86
887,59	1687,53
887,75	1865,70
887,92	1804,26
888,08	1763,30
888,25	1742,82
888,41	1798,12
888,58	1734,63
888,74	1701,86
888,91	1691,62
>>>>>End Processed Spectral Data<<<<<
