SpectraSuite Data File
++++++++++++++++++++++++++++++++++++
Date: Mon Jun 06 15:28:37 CEST 2016
User: root
Dark Spectrum Present: No
Reference Spectrum Present: No
Number of Sampled Component Spectra: 1
Spectrometers: USB4C02835
Integration Time (usec): 100000 (USB4C02835)
Spectra Averaged: 1 (USB4C02835)
Boxcar Smoothing: 0 (USB4C02835)
Correct for Electrical Dark: No (USB4C02835)
Strobe/Lamp Enabled: No (USB4C02835)
Correct for Detector Non-linearity: No (USB4C02835)
Correct for Stray Light: No (USB4C02835)
Number of Pixels in Processed Spectrum: 3648
>>>>>Begin Processed Spectral Data<<<<<
177,47	1454,06
177,69	1454,06
177,91	1454,06
178,13	1464,30
178,36	1523,69
178,58	1634,28
178,80	1761,25
179,02	1650,66
179,24	1677,29
179,46	1665,00
179,68	1814,50
179,90	1744,87
180,13	1662,95
180,35	1665,00
180,57	1685,48
180,79	1789,92
181,01	1681,38
181,23	1746,92
181,45	1806,31
181,67	1789,92
181,90	1794,02
182,12	1730,53
182,34	1640,42
182,56	1726,44
182,78	1732,58
183,00	1669,09
183,22	1699,81
183,44	1576,94
183,66	1804,26
183,89	1726,44
184,11	1681,38
184,33	1705,96
184,55	1783,78
184,77	1732,58
184,99	1804,26
185,21	1687,53
185,43	1763,30
185,65	1800,16
185,87	1683,43
186,10	1830,88
186,32	1871,84
186,54	1798,12
186,76	1779,68
186,98	1828,84
187,20	1687,53
187,42	1697,77
187,64	1701,86
187,86	1667,05
188,08	1794,02
188,30	1730,53
188,52	1679,33
188,75	1765,35
188,97	1769,44
189,19	1738,73
189,41	1689,57
189,63	1697,77
189,85	1619,94
190,07	1638,38
190,29	1675,24
190,51	1708,01
190,73	1626,09
190,95	1841,12
191,17	1685,48
191,39	1634,28
191,61	1742,82
191,84	1685,48
192,06	1746,92
192,28	1583,08
192,50	1845,22
192,72	1705,96
192,94	1724,39
193,16	1734,63
193,38	1746,92
193,60	1636,33
193,82	1689,57
194,04	1748,97
194,26	1710,05
194,48	1675,24
194,70	1681,38
194,92	1681,38
195,14	1718,25
195,36	1658,85
195,58	1734,63
195,80	1673,19
196,02	1665,00
196,24	1746,92
196,46	1736,68
196,69	1636,33
196,91	1914,85
197,13	1699,81
197,35	1617,90
197,57	1806,31
197,79	1773,54
198,01	1732,58
198,23	1744,87
198,45	1759,21
198,67	1665,00
198,89	1679,33
199,11	1748,97
199,33	1687,53
199,55	1603,56
199,77	1654,76
199,99	1771,49
200,21	1683,43
200,43	1742,82
200,65	1697,77
200,87	1607,66
201,09	1701,86
201,31	1728,49
201,53	1796,07
201,75	1736,68
201,97	1748,97
202,19	1755,11
202,41	1783,78
202,63	1855,46
202,85	1669,09
203,07	1699,81
203,29	1693,67
203,51	1667,05
203,73	1640,42
203,95	1865,70
204,17	1751,01
204,39	1685,48
204,61	1671,14
204,83	1787,88
205,05	1744,87
205,27	1759,21
205,49	1789,92
205,71	1712,10
205,93	1615,85
206,15	1765,35
206,37	1748,97
206,59	1636,33
206,81	1640,42
207,03	1634,28
207,25	1695,72
207,47	1718,25
207,69	1742,82
207,91	1757,16
208,13	1779,68
208,34	1771,49
208,56	1671,14
208,78	1738,73
209,00	1613,80
209,22	1681,38
209,44	1669,09
209,66	1718,25
209,88	1681,38
210,10	1634,28
210,32	1615,85
210,54	1857,51
210,76	1679,33
210,98	1769,44
211,20	1607,66
211,42	1748,97
211,64	1748,97
211,86	1765,35
212,08	1726,44
212,30	1744,87
212,52	1691,62
212,74	1712,10
212,96	1708,01
213,17	1771,49
213,39	1785,83
213,61	1812,45
213,83	1728,49
214,05	1671,14
214,27	1787,88
214,49	1634,28
214,71	1603,56
214,93	1763,30
215,15	1742,82
215,37	1716,20
215,59	1648,61
215,81	1761,25
216,03	1800,16
216,24	1677,29
216,46	1779,68
216,68	1722,34
216,90	1783,78
217,12	1771,49
217,34	1740,77
217,56	1742,82
217,78	1822,69
218,00	1746,92
218,22	1771,49
218,44	1730,53
218,66	1718,25
218,87	1791,97
219,09	1748,97
219,31	1765,35
219,53	1753,06
219,75	1708,01
219,97	1640,42
220,19	1726,44
220,41	1742,82
220,63	1771,49
220,85	1798,12
221,06	1654,76
221,28	1757,16
221,50	1722,34
221,72	1718,25
221,94	1689,57
222,16	1681,38
222,38	1650,66
222,60	1705,96
222,82	1738,73
223,03	1732,58
223,25	1603,56
223,47	1761,25
223,69	1894,37
223,91	1748,97
224,13	1650,66
224,35	1701,86
224,57	1806,31
224,78	1755,11
225,00	1691,62
225,22	1697,77
225,44	1742,82
225,66	1779,68
225,88	1689,57
226,10	1722,34
226,32	1687,53
226,53	1724,39
226,75	1677,29
226,97	1648,61
227,19	1751,01
227,41	1644,52
227,63	1695,72
227,85	1636,33
228,06	1685,48
228,28	1738,73
228,50	1660,90
228,72	1634,28
228,94	1675,24
229,16	1636,33
229,37	1609,70
229,59	1714,15
229,81	1787,88
230,03	1734,63
230,25	1638,38
230,47	1695,72
230,69	1646,57
230,90	1787,88
231,12	1615,85
231,34	1716,20
231,56	1796,07
231,78	1656,81
232,00	1732,58
232,21	1652,71
232,43	1720,29
232,65	1578,98
232,87	1736,68
233,09	1740,77
233,30	1677,29
233,52	1843,17
233,74	1673,19
233,96	1628,14
234,18	1675,24
234,40	1718,25
234,61	1841,12
234,83	1593,32
235,05	1621,99
235,27	1863,65
235,49	1765,35
235,70	1734,63
235,92	1738,73
236,14	1720,29
236,36	1839,08
236,58	1587,18
236,79	1763,30
237,01	1646,57
237,23	1703,91
237,45	1820,64
237,67	1722,34
237,88	1693,67
238,10	1804,26
238,32	1665,00
238,54	1769,44
238,76	1726,44
238,97	1632,23
239,19	1699,81
239,41	1783,78
239,63	1816,55
239,85	1681,38
240,06	1712,10
240,28	1697,77
240,50	1660,90
240,72	1732,58
240,93	1650,66
241,15	1775,59
241,37	1701,86
241,59	1755,11
241,81	1763,30
242,02	1640,42
242,24	1681,38
242,46	1679,33
242,68	1677,29
242,89	1775,59
243,11	1802,21
243,33	1720,29
243,55	1689,57
243,76	1800,16
243,98	1703,91
244,20	1738,73
244,42	1736,68
244,64	1722,34
244,85	1638,38
245,07	1705,96
245,29	1728,49
245,51	1667,05
245,72	1710,05
245,94	1773,54
246,16	1767,40
246,38	1740,77
246,59	1656,81
246,81	1687,53
247,03	1660,90
247,24	1632,23
247,46	1654,76
247,68	1658,85
247,90	1646,57
248,11	1703,91
248,33	1736,68
248,55	1761,25
248,77	1722,34
248,98	1851,36
249,20	1800,16
249,42	1728,49
249,64	1779,68
249,85	1642,47
250,07	1638,38
250,29	1761,25
250,50	1771,49
250,72	1597,42
250,94	1699,81
251,16	1863,65
251,37	1818,60
251,59	1763,30
251,81	1746,92
252,02	1757,16
252,24	1679,33
252,46	1765,35
252,68	1675,24
252,89	1648,61
253,11	1671,14
253,33	1783,78
253,54	1789,92
253,76	1673,19
253,98	1708,01
254,20	1746,92
254,41	1591,27
254,63	1675,24
254,85	1650,66
255,06	1652,71
255,28	1738,73
255,50	1724,39
255,71	1734,63
255,93	1675,24
256,15	1705,96
256,36	1652,71
256,58	1662,95
256,80	1685,48
257,02	1714,15
257,23	1699,81
257,45	1736,68
257,67	1755,11
257,88	1652,71
258,10	1726,44
258,32	1724,39
258,53	1710,05
258,75	1800,16
258,97	1714,15
259,18	1656,81
259,40	1667,05
259,62	1798,12
259,83	1779,68
260,05	1761,25
260,27	1955,81
260,48	1798,12
260,70	1642,47
260,92	1712,10
261,13	1740,77
261,35	1705,96
261,57	1701,86
261,78	1624,04
262,00	1648,61
262,22	1781,73
262,43	1542,12
262,65	1761,25
262,86	1718,25
263,08	1787,88
263,30	1722,34
263,51	1687,53
263,73	1705,96
263,95	1781,73
264,16	1669,09
264,38	1720,29
264,60	1726,44
264,81	1660,90
265,03	1816,55
265,25	1705,96
265,46	1685,48
265,68	1736,68
265,89	1738,73
266,11	1640,42
266,33	1675,24
266,54	1683,43
266,76	1746,92
266,98	1748,97
267,19	1806,31
267,41	1759,21
267,62	1675,24
267,84	1744,87
268,06	1734,63
268,27	1691,62
268,49	1771,49
268,70	1775,59
268,92	1685,48
269,14	1714,15
269,35	1601,51
269,57	1697,77
269,79	1779,68
270,00	1644,52
270,22	1736,68
270,43	1693,67
270,65	1589,22
270,87	1697,77
271,08	1763,30
271,30	1705,96
271,51	1621,99
271,73	1818,60
271,95	1796,07
272,16	1759,21
272,38	1763,30
272,59	1658,85
272,81	1740,77
273,02	1789,92
273,24	1667,05
273,46	1769,44
273,67	1658,85
273,89	1652,71
274,10	1708,01
274,32	1765,35
274,54	1705,96
274,75	1722,34
274,97	1693,67
275,18	1798,12
275,40	1789,92
275,61	1724,39
275,83	1763,30
276,05	1646,57
276,26	1656,81
276,48	1765,35
276,69	1603,56
276,91	1753,06
277,12	1771,49
277,34	1863,65
277,55	1763,30
277,77	1697,77
277,99	1681,38
278,20	1714,15
278,42	1611,75
278,63	1636,33
278,85	1642,47
279,06	1697,77
279,28	1714,15
279,49	1767,40
279,71	1734,63
279,93	1716,20
280,14	1695,72
280,36	1761,25
280,57	1746,92
280,79	1734,63
281,00	1685,48
281,22	1662,95
281,43	1714,15
281,65	1576,94
281,86	1705,96
282,08	1701,86
282,29	1791,97
282,51	1611,75
282,73	1703,91
282,94	1697,77
283,16	1751,01
283,37	1800,16
283,59	1783,78
283,80	1703,91
284,02	1716,20
284,23	1757,16
284,45	1726,44
284,66	1640,42
284,88	1636,33
285,09	1746,92
285,31	1787,88
285,52	1734,63
285,74	1728,49
285,95	1705,96
286,17	1681,38
286,38	1757,16
286,60	1679,33
286,81	1642,47
287,03	1662,95
287,24	1705,96
287,46	1714,15
287,67	1757,16
287,89	1918,95
288,10	1595,37
288,32	1720,29
288,53	1775,59
288,75	1740,77
288,96	1751,01
289,18	1759,21
289,39	1640,42
289,61	1746,92
289,82	1839,08
290,04	1785,83
290,25	1619,94
290,47	1673,19
290,68	1677,29
290,90	1812,45
291,11	1630,18
291,33	1779,68
291,54	1648,61
291,76	1695,72
291,97	1761,25
292,18	1718,25
292,40	1667,05
292,61	1683,43
292,83	1820,64
293,04	1751,01
293,26	1812,45
293,47	1724,39
293,69	1685,48
293,90	1697,77
294,12	1705,96
294,33	1718,25
294,55	1693,67
294,76	1787,88
294,97	1769,44
295,19	1847,27
295,40	1658,85
295,62	1765,35
295,83	1728,49
296,05	1716,20
296,26	1744,87
296,48	1673,19
296,69	1710,05
296,90	1738,73
297,12	1726,44
297,33	1834,98
297,55	1746,92
297,76	1773,54
297,98	1773,54
298,19	1714,15
298,41	1742,82
298,62	1662,95
298,83	1746,92
299,05	1712,10
299,26	1615,85
299,48	1708,01
299,69	1693,67
299,90	1646,57
300,12	1652,71
300,33	1787,88
300,55	1761,25
300,76	1712,10
300,98	1607,66
301,19	1820,64
301,40	1710,05
301,62	1689,57
301,83	1767,40
302,05	1771,49
302,26	1775,59
302,47	1724,39
302,69	1642,47
302,90	1714,15
303,12	1564,65
303,33	1744,87
303,54	1767,40
303,76	1712,10
303,97	1783,78
304,19	1777,64
304,40	1632,23
304,61	1787,88
304,83	1810,40
305,04	1732,58
305,26	1714,15
305,47	1736,68
305,68	1652,71
305,90	1607,66
306,11	1777,64
306,33	1675,24
306,54	1697,77
306,75	1658,85
306,97	1617,90
307,18	1662,95
307,39	1679,33
307,61	1726,44
307,82	1720,29
308,04	1830,88
308,25	1619,94
308,46	1785,83
308,68	1697,77
308,89	1691,62
309,10	1822,69
309,32	1710,05
309,53	1726,44
309,74	1726,44
309,96	1720,29
310,17	1746,92
310,39	1691,62
310,60	1742,82
310,81	1724,39
311,03	1621,99
311,24	1710,05
311,45	1669,09
311,67	1748,97
311,88	1773,54
312,09	1724,39
312,31	1681,38
312,52	1691,62
312,73	1656,81
312,95	1648,61
313,16	1722,34
313,37	1746,92
313,59	1771,49
313,80	1773,54
314,01	1822,69
314,23	1695,72
314,44	1712,10
314,65	1685,48
314,87	1636,33
315,08	1714,15
315,29	1695,72
315,51	1640,42
315,72	1548,26
315,93	1738,73
316,15	1787,88
316,36	1654,76
316,57	1744,87
316,79	1712,10
317,00	1667,05
317,21	1712,10
317,43	1691,62
317,64	1675,24
317,85	1648,61
318,07	1652,71
318,28	1802,21
318,49	1806,31
318,70	1863,65
318,92	1847,27
319,13	1859,56
319,34	1906,66
319,56	1806,31
319,77	1808,36
319,98	1837,03
320,20	1804,26
320,41	1773,54
320,62	1775,59
320,83	1648,61
321,05	1857,51
321,26	1701,86
321,47	1665,00
321,69	1845,22
321,90	1656,81
322,11	1697,77
322,32	1720,29
322,54	1734,63
322,75	1734,63
322,96	1804,26
323,18	1624,04
323,39	1675,24
323,60	1736,68
323,81	1771,49
324,03	1632,23
324,24	1699,81
324,45	1712,10
324,66	1710,05
324,88	1771,49
325,09	1777,64
325,30	1742,82
325,52	1757,16
325,73	1755,11
325,94	1685,48
326,15	1640,42
326,37	1732,58
326,58	1781,73
326,79	1822,69
327,00	1634,28
327,22	1757,16
327,43	1621,99
327,64	1675,24
327,85	1703,91
328,07	1687,53
328,28	1857,51
328,49	1726,44
328,70	1751,01
328,92	1755,11
329,13	1630,18
329,34	1746,92
329,55	1851,36
329,76	1753,06
329,98	1699,81
330,19	1834,98
330,40	1753,06
330,61	1716,20
330,83	1791,97
331,04	1728,49
331,25	1800,16
331,46	1689,57
331,68	1619,94
331,89	1771,49
332,10	1667,05
332,31	1701,86
332,52	1669,09
332,74	1796,07
332,95	1630,18
333,16	1699,81
333,37	1804,26
333,58	1755,11
333,80	1769,44
334,01	1648,61
334,22	1644,52
334,43	1650,66
334,64	1753,06
334,86	1722,34
335,07	1634,28
335,28	1730,53
335,49	1589,22
335,70	1714,15
335,92	1693,67
336,13	1839,08
336,34	1691,62
336,55	1685,48
336,76	1703,91
336,98	1642,47
337,19	1738,73
337,40	1828,84
337,61	1882,08
337,82	1740,77
338,04	1742,82
338,25	1621,99
338,46	1679,33
338,67	1683,43
338,88	1621,99
339,09	1667,05
339,31	1693,67
339,52	1656,81
339,73	1693,67
339,94	1724,39
340,15	1802,21
340,36	1658,85
340,58	1673,19
340,79	1613,80
341,00	1755,11
341,21	1601,51
341,42	1898,47
341,63	1660,90
341,85	1781,73
342,06	1703,91
342,27	1679,33
342,48	1705,96
342,69	1646,57
342,90	1708,01
343,12	1697,77
343,33	1705,96
343,54	1775,59
343,75	1812,45
343,96	1681,38
344,17	1683,43
344,38	1724,39
344,60	1679,33
344,81	1714,15
345,02	1640,42
345,23	1773,54
345,44	1779,68
345,65	1787,88
345,86	1757,16
346,07	1742,82
346,29	1726,44
346,50	1714,15
346,71	1740,77
346,92	1785,83
347,13	1828,84
347,34	1703,91
347,55	1687,53
347,76	1736,68
347,98	1650,66
348,19	1699,81
348,40	1757,16
348,61	1628,14
348,82	1812,45
349,03	1759,21
349,24	1658,85
349,45	1826,79
349,66	1634,28
349,88	1701,86
350,09	1675,24
350,30	1802,21
350,51	1773,54
350,72	1683,43
350,93	1759,21
351,14	1726,44
351,35	1693,67
351,56	1728,49
351,77	1626,09
351,99	1789,92
352,20	1777,64
352,41	1808,36
352,62	1708,01
352,83	1644,52
353,04	1683,43
353,25	1744,87
353,46	1812,45
353,67	1681,38
353,88	1634,28
354,09	1724,39
354,30	1693,67
354,52	1718,25
354,73	1691,62
354,94	1595,37
355,15	1683,43
355,36	1818,60
355,57	1677,29
355,78	1802,21
355,99	1708,01
356,20	1705,96
356,41	1824,74
356,62	1796,07
356,83	1705,96
357,04	1789,92
357,25	1621,99
357,46	1583,08
357,68	1624,04
357,89	1626,09
358,10	1677,29
358,31	1705,96
358,52	1685,48
358,73	1695,72
358,94	1648,61
359,15	1665,00
359,36	1751,01
359,57	1724,39
359,78	1658,85
359,99	1726,44
360,20	1644,52
360,41	1710,05
360,62	1800,16
360,83	1681,38
361,04	1667,05
361,25	1732,58
361,46	1738,73
361,67	1769,44
361,88	1775,59
362,09	1830,88
362,30	1650,66
362,51	1710,05
362,72	1718,25
362,93	1732,58
363,14	1816,55
363,35	1681,38
363,56	1613,80
363,78	1671,14
363,99	1755,11
364,20	1679,33
364,41	1679,33
364,62	1845,22
364,83	1724,39
365,04	1761,25
365,25	1738,73
365,46	1853,41
365,67	1701,86
365,88	1628,14
366,09	1677,29
366,30	1708,01
366,51	1763,30
366,72	1662,95
366,93	1722,34
367,14	1673,19
367,35	1787,88
367,56	1656,81
367,77	1814,50
367,98	1732,58
368,18	1798,12
368,39	1789,92
368,60	1687,53
368,81	1720,29
369,02	1769,44
369,23	1730,53
369,44	1578,98
369,65	1673,19
369,86	1705,96
370,07	1810,40
370,28	1656,81
370,49	1697,77
370,70	1738,73
370,91	1654,76
371,12	1576,94
371,33	1779,68
371,54	1665,00
371,75	1845,22
371,96	1615,85
372,17	1705,96
372,38	1714,15
372,59	1796,07
372,80	1757,16
373,01	1728,49
373,22	1759,21
373,43	1748,97
373,64	1673,19
373,85	1847,27
374,06	1896,42
374,26	1769,44
374,47	1710,05
374,68	1802,21
374,89	1783,78
375,10	1714,15
375,31	1732,58
375,52	1730,53
375,73	1736,68
375,94	1656,81
376,15	1861,60
376,36	1701,86
376,57	1673,19
376,78	1755,11
376,99	1675,24
377,20	1744,87
377,40	1685,48
377,61	1886,18
377,82	1626,09
378,03	1814,50
378,24	1722,34
378,45	1761,25
378,66	1673,19
378,87	1644,52
379,08	1656,81
379,29	1744,87
379,50	1802,21
379,71	1738,73
379,91	1677,29
380,12	1714,15
380,33	1714,15
380,54	1751,01
380,75	1691,62
380,96	1705,96
381,17	1757,16
381,38	1748,97
381,59	1765,35
381,80	1677,29
382,00	1920,99
382,21	1763,30
382,42	1828,84
382,63	1959,91
382,84	1802,21
383,05	1763,30
383,26	1839,08
383,47	1732,58
383,68	1740,77
383,88	1726,44
384,09	1652,71
384,30	1834,98
384,51	1820,64
384,72	1689,57
384,93	1689,57
385,14	1693,67
385,35	1742,82
385,55	1613,80
385,76	1765,35
385,97	1710,05
386,18	1662,95
386,39	1726,44
386,60	1710,05
386,81	1691,62
387,02	1673,19
387,22	1609,70
387,43	1779,68
387,64	1742,82
387,85	1896,42
388,06	2220,00
388,27	4188,10
388,48	6576,03
388,68	7991,17
388,89	9334,64
389,10	9426,80
389,31	8431,49
389,52	7456,65
389,73	6623,13
389,93	6104,99
390,14	5695,40
390,35	5162,93
390,56	4403,13
390,77	3715,02
390,98	3026,90
391,18	2475,99
391,39	2043,87
391,60	1882,08
391,81	1802,21
392,02	1740,77
392,23	1904,61
392,43	1781,73
392,64	1785,83
392,85	1738,73
393,06	1828,84
393,27	1665,00
393,47	1683,43
393,68	1759,21
393,89	1705,96
394,10	1791,97
394,31	1728,49
394,52	1742,82
394,72	1652,71
394,93	1828,84
395,14	1624,04
395,35	1757,16
395,56	1650,66
395,76	1736,68
395,97	1789,92
396,18	1820,64
396,39	1839,08
396,60	2050,02
396,80	1916,90
397,01	1865,70
397,22	1787,88
397,43	1869,80
397,64	1746,92
397,84	1808,36
398,05	1820,64
398,26	1796,07
398,47	1808,36
398,67	1830,88
398,88	1771,49
399,09	1689,57
399,30	1691,62
399,51	1722,34
399,71	1675,24
399,92	1708,01
400,13	1742,82
400,34	1726,44
400,54	1714,15
400,75	1808,36
400,96	1767,40
401,17	1888,23
401,37	1755,11
401,58	1757,16
401,79	1714,15
402,00	1869,80
402,21	1916,90
402,41	1964,00
402,62	2050,02
402,83	1970,15
403,04	2058,21
403,24	2062,30
403,45	1865,70
403,66	1959,91
403,87	1925,09
404,07	1869,80
404,28	1877,99
404,49	1968,10
404,70	1787,88
404,90	1781,73
405,11	1755,11
405,32	1693,67
405,52	1675,24
405,73	1642,47
405,94	1673,19
406,15	1703,91
406,35	1771,49
406,56	1697,77
406,77	1746,92
406,98	1779,68
407,18	1621,99
407,39	1789,92
407,60	1763,30
407,80	1869,80
408,01	1742,82
408,22	1658,85
408,43	1716,20
408,63	1677,29
408,84	1718,25
409,05	1763,30
409,25	1718,25
409,46	1722,34
409,67	1646,57
409,88	1669,09
410,08	1757,16
410,29	1710,05
410,50	1726,44
410,70	1738,73
410,91	1544,17
411,12	1785,83
411,32	1693,67
411,53	1736,68
411,74	1779,68
411,95	1828,84
412,15	1783,78
412,36	1789,92
412,57	1777,64
412,77	1845,22
412,98	1777,64
413,19	1740,77
413,39	1730,53
413,60	1771,49
413,81	1855,46
414,01	1699,81
414,22	1773,54
414,43	1722,34
414,63	1693,67
414,84	1751,01
415,05	1724,39
415,25	1734,63
415,46	1759,21
415,67	1628,14
415,87	1742,82
416,08	1804,26
416,29	1683,43
416,49	1748,97
416,70	1636,33
416,91	1628,14
417,11	1693,67
417,32	1751,01
417,53	1767,40
417,73	1763,30
417,94	1621,99
418,15	1652,71
418,35	1763,30
418,56	1699,81
418,77	1859,56
418,97	1765,35
419,18	1753,06
419,38	1572,84
419,59	1714,15
419,80	1820,64
420,00	1679,33
420,21	1703,91
420,42	1859,56
420,62	1802,21
420,83	1658,85
421,04	1785,83
421,24	1679,33
421,45	1820,64
421,65	1775,59
421,86	1726,44
422,07	1785,83
422,27	1718,25
422,48	1744,87
422,69	1640,42
422,89	1716,20
423,10	1781,73
423,30	1644,52
423,51	1693,67
423,72	1730,53
423,92	1755,11
424,13	1658,85
424,33	1738,73
424,54	1738,73
424,75	1738,73
424,95	1794,02
425,16	1787,88
425,36	1724,39
425,57	1822,69
425,78	1693,67
425,98	1800,16
426,19	1636,33
426,39	1673,19
426,60	1767,40
426,81	1798,12
427,01	1740,77
427,22	1669,09
427,42	1564,65
427,63	1658,85
427,83	1724,39
428,04	1845,22
428,25	1798,12
428,45	1769,44
428,66	1697,77
428,86	1763,30
429,07	1708,01
429,28	1738,73
429,48	1714,15
429,69	1665,00
429,89	1740,77
430,10	1652,71
430,30	1802,21
430,51	1767,40
430,71	1703,91
430,92	1714,15
431,13	1665,00
431,33	1783,78
431,54	1746,92
431,74	1771,49
431,95	1796,07
432,15	1660,90
432,36	1712,10
432,56	1773,54
432,77	1771,49
432,98	1816,55
433,18	1728,49
433,39	1681,38
433,59	1714,15
433,80	1822,69
434,00	1802,21
434,21	1744,87
434,41	1669,09
434,62	1845,22
434,82	1736,68
435,03	1742,82
435,23	1791,97
435,44	1617,90
435,64	1714,15
435,85	1697,77
436,06	1785,83
436,26	1804,26
436,47	1816,55
436,67	1624,04
436,88	1789,92
437,08	1761,25
437,29	1828,84
437,49	1751,01
437,70	1765,35
437,90	1734,63
438,11	1834,98
438,31	1744,87
438,52	1839,08
438,72	1861,60
438,93	1992,67
439,13	1773,54
439,34	1814,50
439,54	1800,16
439,75	1853,41
439,95	1808,36
440,16	1675,24
440,36	1820,64
440,57	1794,02
440,77	1732,58
440,98	1748,97
441,18	1771,49
441,39	1753,06
441,59	1669,09
441,80	1871,84
442,00	1730,53
442,21	1779,68
442,41	1751,01
442,62	1746,92
442,82	1738,73
443,02	1775,59
443,23	1783,78
443,43	1738,73
443,64	1867,75
443,84	1718,25
444,05	1935,33
444,25	1748,97
444,46	1693,67
444,66	1691,62
444,87	1804,26
445,07	1718,25
445,28	1787,88
445,48	1787,88
445,69	1787,88
445,89	1863,65
446,09	1736,68
446,30	2127,84
446,50	2586,58
446,71	3737,54
446,91	4220,86
447,12	4655,03
447,32	4736,95
447,53	4315,07
447,73	3696,58
447,93	3381,20
448,14	3330,00
448,34	3223,50
448,55	2887,64
448,75	2836,44
448,96	2705,37
449,16	2457,56
449,36	2267,10
449,57	2080,74
449,77	1920,99
449,98	1771,49
450,18	1738,73
450,39	1828,84
450,59	1771,49
450,79	1736,68
451,00	1730,53
451,20	1832,93
451,41	1689,57
451,61	1742,82
451,81	1751,01
452,02	1716,20
452,22	1767,40
452,43	1605,61
452,63	1673,19
452,84	1742,82
453,04	1697,77
453,24	1810,40
453,45	1673,19
453,65	1712,10
453,86	1699,81
454,06	1755,11
454,26	1800,16
454,47	1691,62
454,67	1804,26
454,87	1730,53
455,08	1705,96
455,28	1820,64
455,49	1769,44
455,69	1660,90
455,89	1882,08
456,10	1791,97
456,30	1783,78
456,51	1785,83
456,71	1818,60
456,91	1720,29
457,12	1812,45
457,32	1761,25
457,52	1746,92
457,73	1800,16
457,93	1746,92
458,14	1660,90
458,34	1562,60
458,54	1708,01
458,75	1757,16
458,95	1798,12
459,15	1820,64
459,36	1689,57
459,56	1791,97
459,76	1828,84
459,97	1781,73
460,17	1777,64
460,37	1810,40
460,58	1755,11
460,78	1771,49
460,99	1701,86
461,19	1708,01
461,39	1677,29
461,60	1738,73
461,80	1796,07
462,00	1738,73
462,21	1705,96
462,41	1689,57
462,61	1759,21
462,82	1632,23
463,02	1742,82
463,22	1779,68
463,43	1847,27
463,63	1791,97
463,83	1820,64
464,04	1759,21
464,24	1755,11
464,44	1689,57
464,64	1751,01
464,85	1834,98
465,05	1886,18
465,25	1753,06
465,46	1759,21
465,66	1730,53
465,86	1796,07
466,07	1796,07
466,27	1726,44
466,47	1708,01
466,68	1648,61
466,88	1798,12
467,08	1714,15
467,29	1718,25
467,49	1777,64
467,69	1630,18
467,89	1714,15
468,10	1779,68
468,30	1720,29
468,50	1802,21
468,71	1757,16
468,91	1677,29
469,11	1791,97
469,31	1732,58
469,52	1673,19
469,72	1830,88
469,92	1880,04
470,13	1675,24
470,33	1757,16
470,53	1863,65
470,73	2033,63
470,94	2215,90
471,14	2209,76
471,34	2498,52
471,54	2367,45
471,75	2199,52
471,95	2148,32
472,15	2119,65
472,36	2084,83
472,56	2054,11
472,76	2072,54
472,96	2015,20
473,17	2017,25
473,37	1959,91
473,57	1806,31
473,77	1830,88
473,98	1814,50
474,18	1769,44
474,38	1953,76
474,58	1746,92
474,79	1675,24
474,99	1783,78
475,19	1716,20
475,39	1761,25
475,60	1728,49
475,80	1796,07
476,00	1785,83
476,20	1613,80
476,41	1728,49
476,61	1816,55
476,81	1755,11
477,01	1665,00
477,21	1884,13
477,42	1738,73
477,62	1763,30
477,82	1787,88
478,02	1740,77
478,23	1753,06
478,43	1714,15
478,63	1757,16
478,83	1646,57
479,03	1779,68
479,24	1787,88
479,44	1837,03
479,64	1685,48
479,84	1632,23
480,04	1712,10
480,25	1818,60
480,45	1603,56
480,65	1708,01
480,85	1742,82
481,06	1687,53
481,26	1671,14
481,46	1810,40
481,66	1808,36
481,86	1644,52
482,06	1843,17
482,27	1720,29
482,47	1681,38
482,67	1708,01
482,87	1722,34
483,07	1781,73
483,28	1712,10
483,48	1671,14
483,68	1720,29
483,88	1634,28
484,08	1626,09
484,29	1703,91
484,49	1826,79
484,69	1660,90
484,89	1873,89
485,09	1832,93
485,29	1853,41
485,50	1804,26
485,70	1699,81
485,90	1843,17
486,10	1789,92
486,30	1777,64
486,50	1748,97
486,71	1769,44
486,91	1757,16
487,11	1812,45
487,31	1665,00
487,51	1845,22
487,71	1742,82
487,91	1589,22
488,12	1673,19
488,32	1574,89
488,52	1724,39
488,72	1720,29
488,92	1712,10
489,12	1847,27
489,32	1816,55
489,53	1753,06
489,73	1611,75
489,93	1837,03
490,13	1658,85
490,33	1621,99
490,53	1734,63
490,73	1812,45
490,94	1730,53
491,14	1812,45
491,34	1834,98
491,54	2088,93
491,74	2492,38
491,94	2863,06
492,14	2987,99
492,34	2961,36
492,54	2707,41
492,75	2420,70
492,95	2480,09
493,15	2324,44
493,35	2344,92
493,55	2275,29
493,75	2160,61
493,95	2166,75
494,15	2060,26
494,35	1945,57
494,56	1830,88
494,76	1763,30
494,96	1787,88
495,16	1730,53
495,36	1712,10
495,56	1732,58
495,76	1732,58
495,96	1791,97
496,16	1689,57
496,36	1900,52
496,56	1767,40
496,77	1785,83
496,97	1744,87
497,17	1693,67
497,37	1660,90
497,57	1777,64
497,77	1685,48
497,97	1605,61
498,17	1783,78
498,37	1683,43
498,57	1714,15
498,77	1804,26
498,97	1787,88
499,17	1841,12
499,38	1738,73
499,58	1783,78
499,78	1863,65
499,98	1783,78
500,18	1761,25
500,38	1658,85
500,58	1859,56
500,78	2582,49
500,98	4362,17
501,18	5754,79
501,38	6602,65
501,58	6891,41
501,78	6459,29
501,98	5463,98
502,18	4925,36
502,38	4364,22
502,58	4108,23
502,78	3817,41
502,98	3608,52
503,18	3465,16
503,38	3213,26
503,59	2770,90
503,79	2670,55
503,99	2379,74
504,19	2256,86
504,39	2215,90
504,59	2152,42
504,79	2107,36
504,99	2111,46
505,19	1839,08
505,39	1896,42
505,59	1984,48
505,79	1974,24
505,99	1898,47
506,19	1802,21
506,39	1941,47
506,59	1773,54
506,79	1722,34
506,99	1785,83
507,19	1763,30
507,39	1753,06
507,59	1740,77
507,79	1687,53
507,99	1699,81
508,19	1691,62
508,39	1763,30
508,59	1748,97
508,79	1820,64
508,99	1886,18
509,19	1761,25
509,39	1738,73
509,59	1751,01
509,79	1753,06
509,99	1738,73
510,19	1820,64
510,39	1826,79
510,59	1763,30
510,79	1669,09
510,99	1781,73
511,19	1734,63
511,39	1771,49
511,59	1787,88
511,79	1837,03
511,99	1746,92
512,19	1820,64
512,38	1718,25
512,58	1771,49
512,78	1773,54
512,98	1789,92
513,18	1812,45
513,38	1722,34
513,58	1787,88
513,78	1685,48
513,98	1746,92
514,18	1775,59
514,38	1755,11
514,58	1804,26
514,78	1675,24
514,98	1708,01
515,18	1724,39
515,38	1605,61
515,58	1783,78
515,78	1710,05
515,98	1699,81
516,18	1742,82
516,38	1697,77
516,57	1730,53
516,77	1708,01
516,97	1812,45
517,17	1705,96
517,37	1665,00
517,57	1720,29
517,77	1734,63
517,97	1710,05
518,17	1814,50
518,37	1730,53
518,57	1736,68
518,77	1681,38
518,97	1773,54
519,16	1748,97
519,36	1787,88
519,56	1755,11
519,76	1761,25
519,96	1728,49
520,16	1812,45
520,36	1667,05
520,56	1865,70
520,76	1791,97
520,96	1693,67
521,16	1794,02
521,35	1771,49
521,55	1832,93
521,75	1736,68
521,95	1660,90
522,15	1718,25
522,35	1648,61
522,55	1708,01
522,75	1759,21
522,95	1687,53
523,14	1730,53
523,34	1773,54
523,54	1650,66
523,74	1740,77
523,94	1789,92
524,14	1726,44
524,34	1822,69
524,54	1828,84
524,73	1685,48
524,93	1834,98
525,13	1665,00
525,33	1669,09
525,53	1906,66
525,73	1804,26
525,93	1710,05
526,13	1728,49
526,32	1746,92
526,52	1712,10
526,72	1746,92
526,92	1744,87
527,12	1681,38
527,32	1724,39
527,52	1703,91
527,71	1738,73
527,91	1746,92
528,11	1816,55
528,31	1718,25
528,51	1630,18
528,71	1791,97
528,90	1796,07
529,10	1781,73
529,30	1912,80
529,50	1609,70
529,70	1794,02
529,90	1660,90
530,09	1765,35
530,29	1693,67
530,49	1714,15
530,69	1839,08
530,89	1796,07
531,09	1828,84
531,28	1775,59
531,48	1857,51
531,68	1740,77
531,88	1794,02
532,08	1751,01
532,28	1728,49
532,47	1783,78
532,67	1843,17
532,87	1738,73
533,07	1728,49
533,27	1779,68
533,46	1751,01
533,66	1748,97
533,86	1708,01
534,06	1777,64
534,26	1728,49
534,45	1748,97
534,65	1853,41
534,85	1669,09
535,05	1619,94
535,25	1767,40
535,44	1732,58
535,64	1722,34
535,84	1708,01
536,04	1751,01
536,24	1687,53
536,43	1757,16
536,63	1804,26
536,83	1683,43
537,03	1824,74
537,22	1660,90
537,42	1634,28
537,62	1703,91
537,82	1701,86
538,02	1759,21
538,21	1855,46
538,41	1949,67
538,61	1781,73
538,81	1705,96
539,00	1843,17
539,20	1599,46
539,40	1658,85
539,60	1751,01
539,79	1783,78
539,99	1746,92
540,19	1699,81
540,39	1708,01
540,58	1789,92
540,78	1830,88
540,98	1740,77
541,18	1744,87
541,37	1777,64
541,57	1791,97
541,77	1779,68
541,97	1746,92
542,16	1738,73
542,36	1712,10
542,56	1738,73
542,76	1845,22
542,95	1746,92
543,15	1763,30
543,35	1812,45
543,54	1744,87
543,74	1722,34
543,94	1806,31
544,14	1640,42
544,33	1871,84
544,53	1724,39
544,73	1798,12
544,93	1730,53
545,12	1677,29
545,32	1822,69
545,52	1710,05
545,71	1665,00
545,91	1759,21
546,11	1697,77
546,30	1669,09
546,50	1769,44
546,70	1837,03
546,90	1691,62
547,09	1640,42
547,29	1773,54
547,49	1816,55
547,68	1669,09
547,88	1722,34
548,08	1832,93
548,27	2174,94
548,47	1701,86
548,67	1738,73
548,87	1837,03
549,06	1681,38
549,26	1746,92
549,46	1798,12
549,65	1675,24
549,85	1800,16
550,05	1759,21
550,24	1746,92
550,44	1812,45
550,64	1669,09
550,83	1781,73
551,03	1808,36
551,23	1851,36
551,42	1804,26
551,62	1777,64
551,82	1761,25
552,01	1744,87
552,21	1814,50
552,41	1718,25
552,60	1877,99
552,80	1777,64
553,00	1685,48
553,19	1796,07
553,39	1781,73
553,59	1742,82
553,78	1822,69
553,98	1794,02
554,17	1697,77
554,37	1826,79
554,57	1832,93
554,76	1652,71
554,96	1701,86
555,16	1779,68
555,35	1738,73
555,55	1791,97
555,75	1824,74
555,94	1816,55
556,14	1724,39
556,33	1748,97
556,53	1841,12
556,73	1716,20
556,92	1839,08
557,12	1828,84
557,32	1896,42
557,51	1894,37
557,71	1794,02
557,90	1804,26
558,10	1886,18
558,30	1765,35
558,49	1802,21
558,69	1798,12
558,88	1773,54
559,08	1773,54
559,28	1755,11
559,47	1701,86
559,67	1726,44
559,86	1816,55
560,06	1845,22
560,26	1728,49
560,45	1843,17
560,65	1662,95
560,84	1882,08
561,04	1763,30
561,24	1822,69
561,43	1765,35
561,63	1839,08
561,82	1763,30
562,02	1800,16
562,22	1708,01
562,41	1654,76
562,61	1667,05
562,80	1669,09
563,00	1927,14
563,19	1865,70
563,39	1814,50
563,59	1830,88
563,78	1638,38
563,98	1705,96
564,17	1693,67
564,37	1646,57
564,56	1720,29
564,76	1681,38
564,96	1791,97
565,15	1802,21
565,35	1920,99
565,54	1730,53
565,74	1802,21
565,93	1777,64
566,13	1763,30
566,32	1783,78
566,52	1775,59
566,71	1771,49
566,91	1656,81
567,11	1695,72
567,30	1621,99
567,50	1847,27
567,69	1738,73
567,89	1742,82
568,08	1734,63
568,28	1781,73
568,47	1681,38
568,67	1771,49
568,86	1671,14
569,06	1810,40
569,25	1703,91
569,45	1791,97
569,64	1785,83
569,84	1724,39
570,04	1751,01
570,23	1691,62
570,43	1703,91
570,62	1787,88
570,82	1841,12
571,01	1640,42
571,21	1705,96
571,40	1673,19
571,60	1773,54
571,79	1841,12
571,99	1681,38
572,18	1722,34
572,38	1800,16
572,57	1734,63
572,77	1826,79
572,96	1904,61
573,16	1775,59
573,35	1679,33
573,55	1877,99
573,74	1818,60
573,94	1728,49
574,13	1724,39
574,33	1724,39
574,52	1804,26
574,71	1763,30
574,91	1771,49
575,10	1685,48
575,30	1757,16
575,49	1738,73
575,69	1695,72
575,88	1828,84
576,08	1789,92
576,27	1804,26
576,47	1710,05
576,66	1865,70
576,86	1820,64
577,05	1734,63
577,25	1820,64
577,44	1857,51
577,64	1644,52
577,83	1855,46
578,02	1771,49
578,22	1847,27
578,41	1894,37
578,61	1826,79
578,80	1693,67
579,00	1730,53
579,19	1841,12
579,39	1812,45
579,58	1806,31
579,77	1787,88
579,97	1824,74
580,16	1892,32
580,36	1871,84
580,55	1853,41
580,75	1726,44
580,94	1718,25
581,13	1894,37
581,33	1871,84
581,52	1732,58
581,72	1810,40
581,91	1841,12
582,11	1785,83
582,30	1867,75
582,49	1814,50
582,69	1818,60
582,88	1820,64
583,08	1826,79
583,27	1791,97
583,47	1763,30
583,66	1734,63
583,85	1681,38
584,05	1826,79
584,24	1751,01
584,44	1828,84
584,63	1865,70
584,82	1882,08
585,02	1865,70
585,21	1845,22
585,41	1734,63
585,60	1777,64
585,79	1959,91
585,99	1875,94
586,18	1849,32
586,37	2191,33
586,57	3350,48
586,76	9762,67
586,96	23789,20
587,15	33162,76
587,34	39744,93
587,54	40920,46
587,73	35450,34
587,93	25470,59
588,12	20698,82
588,31	17843,95
588,51	15986,44
588,70	14700,32
588,89	13727,53
589,09	12101,45
589,28	10792,80
589,47	9107,32
589,67	7751,56
589,86	6309,79
590,06	4704,18
590,25	3856,33
590,44	3041,23
590,64	2559,96
590,83	2164,70
591,02	2172,89
591,22	1933,28
591,41	1925,09
591,60	1804,26
591,80	1953,76
591,99	1804,26
592,18	1783,78
592,38	1888,23
592,57	1781,73
592,76	1918,95
592,96	1837,03
593,15	1710,05
593,34	1804,26
593,54	1781,73
593,73	1761,25
593,92	1771,49
594,12	1820,64
594,31	1722,34
594,50	1828,84
594,70	1720,29
594,89	1884,13
595,08	1652,71
595,28	1777,64
595,47	1902,56
595,66	1824,74
595,86	1751,01
596,05	1818,60
596,24	1732,58
596,43	1740,77
596,63	1783,78
596,82	1791,97
597,01	1800,16
597,21	1880,04
597,40	1798,12
597,59	1746,92
597,79	1765,35
597,98	1777,64
598,17	1808,36
598,36	1800,16
598,56	1771,49
598,75	1767,40
598,94	1726,44
599,14	1746,92
599,33	1669,09
599,52	1794,02
599,71	1759,21
599,91	1748,97
600,10	1742,82
600,29	1705,96
600,48	1771,49
600,68	1781,73
600,87	1855,46
601,06	1714,15
601,26	1660,90
601,45	1832,93
601,64	1759,21
601,83	1828,84
602,03	1732,58
602,22	1683,43
602,41	1753,06
602,60	1902,56
602,80	1771,49
602,99	1771,49
603,18	1701,86
603,37	1740,77
603,57	1742,82
603,76	1738,73
603,95	1769,44
604,14	1675,24
604,34	1724,39
604,53	1683,43
604,72	1875,94
604,91	1816,55
605,10	1716,20
605,30	1652,71
605,49	1841,12
605,68	1785,83
605,87	1763,30
606,07	1755,11
606,26	1759,21
606,45	1798,12
606,64	1789,92
606,84	1675,24
607,03	1794,02
607,22	1761,25
607,41	1669,09
607,60	1755,11
607,80	1761,25
607,99	1771,49
608,18	1779,68
608,37	1794,02
608,56	1689,57
608,76	1857,51
608,95	1877,99
609,14	1726,44
609,33	1732,58
609,52	1834,98
609,72	1769,44
609,91	1730,53
610,10	1732,58
610,29	1818,60
610,48	1716,20
610,68	1763,30
610,87	1742,82
611,06	1855,46
611,25	1796,07
611,44	1869,80
611,63	1722,34
611,83	1847,27
612,02	1667,05
612,21	1785,83
612,40	1626,09
612,59	1667,05
612,79	1605,61
612,98	1720,29
613,17	1824,74
613,36	1726,44
613,55	1865,70
613,74	1710,05
613,93	1705,96
614,13	1748,97
614,32	1783,78
614,51	1839,08
614,70	1783,78
614,89	1773,54
615,08	1767,40
615,28	2029,54
615,47	1701,86
615,66	1687,53
615,85	1716,20
616,04	1834,98
616,23	1699,81
616,42	1751,01
616,62	1777,64
616,81	1718,25
617,00	1732,58
617,19	1783,78
617,38	1693,67
617,57	1722,34
617,76	1798,12
617,95	1720,29
618,15	1755,11
618,34	1882,08
618,53	1708,01
618,72	1773,54
618,91	1757,16
619,10	1812,45
619,29	1712,10
619,48	1722,34
619,68	1744,87
619,87	1765,35
620,06	1665,00
620,25	1703,91
620,44	1675,24
620,63	1693,67
620,82	1685,48
621,01	1824,74
621,20	1734,63
621,39	1763,30
621,59	1773,54
621,78	1734,63
621,97	1701,86
622,16	1773,54
622,35	1724,39
622,54	1824,74
622,73	1787,88
622,92	1701,86
623,11	1824,74
623,30	1775,59
623,49	1716,20
623,68	1681,38
623,88	1755,11
624,07	1783,78
624,26	1650,66
624,45	1759,21
624,64	1701,86
624,83	1689,57
625,02	1708,01
625,21	1751,01
625,40	1708,01
625,59	1886,18
625,78	1769,44
625,97	1834,98
626,16	1787,88
626,35	1800,16
626,54	1710,05
626,74	1730,53
626,93	1718,25
627,12	1673,19
627,31	1839,08
627,50	1789,92
627,69	1773,54
627,88	1732,58
628,07	1761,25
628,26	1654,76
628,45	1736,68
628,64	1714,15
628,83	1734,63
629,02	1695,72
629,21	1812,45
629,40	1740,77
629,59	1638,38
629,78	1716,20
629,97	1800,16
630,16	1701,86
630,35	1656,81
630,54	1740,77
630,73	1787,88
630,92	1798,12
631,11	1691,62
631,30	1798,12
631,49	1851,36
631,68	1703,91
631,87	1802,21
632,06	1695,72
632,25	1812,45
632,44	1771,49
632,63	1773,54
632,82	1613,80
633,01	1599,46
633,20	1781,73
633,39	1746,92
633,58	1581,03
633,77	1830,88
633,96	1693,67
634,15	1736,68
634,34	1773,54
634,53	1775,59
634,72	1722,34
634,91	1718,25
635,10	1699,81
635,29	1753,06
635,48	1779,68
635,67	1716,20
635,86	1691,62
636,05	1824,74
636,24	1705,96
636,43	1810,40
636,62	1740,77
636,81	1652,71
637,00	1652,71
637,19	1812,45
637,38	1740,77
637,57	1693,67
637,76	1708,01
637,95	1832,93
638,14	1675,24
638,33	1789,92
638,52	1736,68
638,71	1683,43
638,89	1667,05
639,08	1843,17
639,27	1804,26
639,46	1710,05
639,65	1779,68
639,84	1732,58
640,03	1808,36
640,22	1701,86
640,41	1757,16
640,60	1697,77
640,79	1730,53
640,98	1744,87
641,17	1675,24
641,36	1726,44
641,55	1744,87
641,74	1689,57
641,92	1650,66
642,11	1644,52
642,30	1695,72
642,49	1644,52
642,68	1681,38
642,87	1718,25
643,06	1714,15
643,25	1714,15
643,44	1748,97
643,63	1634,28
643,82	1781,73
644,00	1617,90
644,19	1718,25
644,38	1697,77
644,57	1722,34
644,76	1656,81
644,95	1685,48
645,14	1734,63
645,33	1779,68
645,52	1779,68
645,71	1689,57
645,89	1714,15
646,08	1738,73
646,27	1755,11
646,46	1808,36
646,65	1652,71
646,84	1665,00
647,03	1705,96
647,22	1744,87
647,40	1753,06
647,59	1675,24
647,78	1681,38
647,97	1734,63
648,16	1734,63
648,35	1693,67
648,54	1791,97
648,73	1773,54
648,91	1763,30
649,10	1712,10
649,29	1673,19
649,48	1726,44
649,67	1740,77
649,86	1587,18
650,05	1648,61
650,23	1791,97
650,42	1621,99
650,61	1757,16
650,80	1728,49
650,99	1861,60
651,18	1769,44
651,36	1810,40
651,55	1710,05
651,74	1812,45
651,93	1705,96
652,12	1734,63
652,31	1810,40
652,49	1798,12
652,68	1724,39
652,87	1781,73
653,06	1746,92
653,25	1822,69
653,44	1748,97
653,62	1804,26
653,81	1699,81
654,00	1695,72
654,19	1826,79
654,38	1818,60
654,56	1804,26
654,75	1716,20
654,94	1744,87
655,13	1681,38
655,32	1699,81
655,51	1789,92
655,69	1777,64
655,88	1777,64
656,07	1654,76
656,26	1742,82
656,45	1677,29
656,63	1820,64
656,82	1802,21
657,01	1791,97
657,20	1712,10
657,38	1806,31
657,57	1681,38
657,76	1648,61
657,95	1732,58
658,14	1814,50
658,32	1679,33
658,51	1738,73
658,70	1714,15
658,89	1800,16
659,08	1662,95
659,26	1861,60
659,45	1658,85
659,64	1771,49
659,83	1689,57
660,01	1890,28
660,20	1671,14
660,39	1830,88
660,58	1648,61
660,76	1806,31
660,95	1628,14
661,14	1753,06
661,33	1644,52
661,51	1648,61
661,70	1726,44
661,89	1757,16
662,08	1632,23
662,26	1632,23
662,45	1701,86
662,64	1880,04
662,83	1800,16
663,01	1697,77
663,20	1708,01
663,39	1828,84
663,58	1701,86
663,76	1675,24
663,95	1763,30
664,14	1677,29
664,32	1748,97
664,51	1677,29
664,70	1656,81
664,89	1820,64
665,07	1662,95
665,26	1806,31
665,45	1679,33
665,64	1783,78
665,82	1812,45
666,01	1785,83
666,20	1701,86
666,38	1859,56
666,57	1828,84
666,76	2281,44
666,95	4509,63
667,13	10297,19
667,32	15085,34
667,51	17299,19
667,69	18503,40
667,88	17307,38
668,07	12095,30
668,25	9398,13
668,44	7778,19
668,63	7143,32
668,81	6639,51
669,00	6082,47
669,19	5582,76
669,38	5017,52
669,56	4440,00
669,75	3993,54
669,94	3395,53
670,12	2805,72
670,31	2494,43
670,50	2328,54
670,68	2009,06
670,87	1888,23
671,06	1824,74
671,24	1775,59
671,43	1820,64
671,62	1748,97
671,80	1701,86
671,99	1845,22
672,18	1759,21
672,36	1873,89
672,55	1810,40
672,74	1708,01
672,92	1701,86
673,11	1791,97
673,29	1660,90
673,48	1830,88
673,67	1660,90
673,85	1677,29
674,04	1669,09
674,23	1742,82
674,41	1828,84
674,60	1646,57
674,79	1755,11
674,97	1634,28
675,16	1730,53
675,34	1716,20
675,53	1712,10
675,72	1738,73
675,90	1804,26
676,09	1665,00
676,28	1728,49
676,46	1718,25
676,65	1830,88
676,83	1697,77
677,02	1755,11
677,21	1822,69
677,39	1785,83
677,58	1650,66
677,77	1685,48
677,95	1742,82
678,14	1738,73
678,32	1722,34
678,51	1697,77
678,70	1816,55
678,88	1671,14
679,07	1701,86
679,25	1714,15
679,44	1679,33
679,63	1632,23
679,81	1773,54
680,00	1800,16
680,18	1759,21
680,37	1820,64
680,55	1718,25
680,74	1671,14
680,93	1656,81
681,11	1712,10
681,30	1771,49
681,48	1837,03
681,67	1740,77
681,85	1648,61
682,04	1662,95
682,23	1794,02
682,41	1712,10
682,60	1662,95
682,78	1705,96
682,97	1748,97
683,15	1755,11
683,34	1679,33
683,53	1877,99
683,71	1665,00
683,90	1798,12
684,08	1800,16
684,27	1722,34
684,45	1771,49
684,64	1757,16
684,82	1742,82
685,01	1734,63
685,19	1697,77
685,38	1877,99
685,57	1660,90
685,75	1708,01
685,94	1718,25
686,12	1693,67
686,31	1648,61
686,49	1796,07
686,68	1597,42
686,86	1783,78
687,05	1681,38
687,23	1798,12
687,42	1765,35
687,60	1652,71
687,79	1714,15
687,97	1779,68
688,16	1691,62
688,34	1759,21
688,53	1617,90
688,71	1751,01
688,90	1880,04
689,08	1730,53
689,27	1624,04
689,45	1722,34
689,64	1681,38
689,82	1738,73
690,01	1689,57
690,19	1779,68
690,38	1705,96
690,56	1771,49
690,75	1681,38
690,93	1699,81
691,12	1656,81
691,30	1710,05
691,49	1665,00
691,67	1714,15
691,86	1755,11
692,04	1701,86
692,23	1775,59
692,41	1701,86
692,60	1904,61
692,78	1748,97
692,97	1746,92
693,15	1734,63
693,34	1759,21
693,52	1796,07
693,71	1691,62
693,89	1644,52
694,08	1671,14
694,26	1859,56
694,44	1710,05
694,63	1804,26
694,81	1619,94
695,00	1728,49
695,18	1697,77
695,37	1875,94
695,55	1730,53
695,74	1718,25
695,92	1609,70
696,10	1777,64
696,29	1605,61
696,47	1677,29
696,66	1693,67
696,84	1599,46
697,03	1814,50
697,21	1828,84
697,40	2306,01
697,58	1779,68
697,76	1728,49
697,95	1615,85
698,13	1632,23
698,32	1656,81
698,50	1763,30
698,68	1742,82
698,87	1787,88
699,05	1777,64
699,24	1753,06
699,42	1681,38
699,61	1714,15
699,79	1701,86
699,97	1738,73
700,16	1685,48
700,34	1619,94
700,53	1804,26
700,71	1796,07
700,89	1736,68
701,08	1761,25
701,26	1628,14
701,45	2084,83
701,63	1697,77
701,81	1755,11
702,00	1675,24
702,18	1705,96
702,37	1665,00
702,55	1751,01
702,73	1632,23
702,92	1570,79
703,10	1726,44
703,28	1673,19
703,47	1669,09
703,65	1734,63
703,84	1767,40
704,02	1726,44
704,20	1796,07
704,39	1685,48
704,57	1681,38
704,75	1705,96
704,94	1740,77
705,12	1716,20
705,30	1748,97
705,49	2287,58
705,67	4507,58
705,86	9486,19
706,04	12439,36
706,22	14100,26
706,41	14819,10
706,59	13524,79
706,77	9394,03
706,96	7047,06
707,14	6461,34
707,32	5742,50
707,51	5394,35
707,69	4757,43
707,87	4147,14
708,06	3452,88
708,24	2985,94
708,42	2406,36
708,61	2230,24
708,79	1867,75
708,97	1865,70
709,16	1904,61
709,34	1753,06
709,52	1722,34
709,71	1763,30
709,89	1779,68
710,07	1665,00
710,26	1726,44
710,44	1796,07
710,62	1771,49
710,80	1712,10
710,99	1798,12
711,17	1783,78
711,35	1703,91
711,54	1691,62
711,72	1812,45
711,90	1716,20
712,09	1802,21
712,27	1681,38
712,45	1798,12
712,63	1679,33
712,82	1681,38
713,00	1714,15
713,18	1753,06
713,37	1755,11
713,55	1765,35
713,73	1777,64
713,91	1808,36
714,10	1673,19
714,28	1728,49
714,46	1705,96
714,65	1660,90
714,83	1701,86
715,01	1646,57
715,19	1724,39
715,38	1677,29
715,56	1777,64
715,74	1740,77
715,92	1673,19
716,11	1775,59
716,29	1632,23
716,47	1691,62
716,65	1695,72
716,84	1677,29
717,02	1699,81
717,20	1722,34
717,38	1699,81
717,57	1703,91
717,75	1726,44
717,93	1718,25
718,11	1753,06
718,30	1642,47
718,48	1701,86
718,66	1689,57
718,84	1789,92
719,03	1751,01
719,21	1605,61
719,39	1798,12
719,57	1746,92
719,75	1701,86
719,94	1726,44
720,12	1734,63
720,30	1697,77
720,48	1744,87
720,67	1683,43
720,85	1626,09
721,03	1718,25
721,21	1708,01
721,39	1697,77
721,58	1699,81
721,76	1728,49
721,94	1767,40
722,12	1714,15
722,30	1804,26
722,49	1669,09
722,67	1720,29
722,85	1652,71
723,03	1619,94
723,21	1716,20
723,40	1744,87
723,58	1845,22
723,76	1771,49
723,94	1699,81
724,12	1732,58
724,30	1796,07
724,49	1742,82
724,67	1679,33
724,85	1748,97
725,03	1669,09
725,21	1751,01
725,40	1806,31
725,58	1699,81
725,76	1808,36
725,94	1619,94
726,12	1673,19
726,30	1742,82
726,49	1738,73
726,67	1667,05
726,85	1701,86
727,03	1738,73
727,21	2205,66
727,39	2942,93
727,57	3684,30
727,76	4042,69
727,94	4294,59
728,12	4294,59
728,30	3581,90
728,48	2916,31
728,66	2684,89
728,84	2469,85
729,03	2248,67
729,21	2222,05
729,39	2007,01
729,57	1861,60
729,75	1837,03
729,93	1783,78
730,11	1681,38
730,30	1757,16
730,48	1755,11
730,66	1765,35
730,84	1773,54
731,02	1730,53
731,20	1697,77
731,38	1714,15
731,56	1562,60
731,74	1632,23
731,93	1724,39
732,11	1640,42
732,29	1693,67
732,47	1728,49
732,65	1742,82
732,83	1816,55
733,01	1783,78
733,19	1718,25
733,37	1701,86
733,56	1716,20
733,74	1658,85
733,92	1791,97
734,10	1667,05
734,28	1773,54
734,46	1656,81
734,64	1656,81
734,82	1669,09
735,00	1695,72
735,18	1689,57
735,36	1705,96
735,54	1783,78
735,73	1740,77
735,91	1681,38
736,09	1802,21
736,27	1740,77
736,45	1753,06
736,63	1650,66
736,81	1689,57
736,99	1834,98
737,17	1796,07
737,35	1683,43
737,53	1738,73
737,71	1697,77
737,89	1779,68
738,07	1738,73
738,25	1673,19
738,43	1609,70
738,61	1734,63
738,80	1617,90
738,98	1656,81
739,16	1619,94
739,34	1787,88
739,52	1822,69
739,70	1791,97
739,88	1761,25
740,06	1822,69
740,24	1656,81
740,42	1746,92
740,60	1599,46
740,78	1675,24
740,96	1523,69
741,14	1751,01
741,32	1820,64
741,50	1628,14
741,68	1935,33
741,86	1763,30
742,04	1677,29
742,22	1644,52
742,40	1736,68
742,58	1818,60
742,76	1703,91
742,94	1775,59
743,12	1556,46
743,30	1751,01
743,48	1773,54
743,66	1685,48
743,84	1834,98
744,02	1718,25
744,20	1720,29
744,38	1648,61
744,56	1689,57
744,74	1843,17
744,92	1722,34
745,10	1826,79
745,28	1757,16
745,46	1789,92
745,64	1677,29
745,82	1783,78
746,00	1712,10
746,18	1769,44
746,36	1673,19
746,54	1658,85
746,72	1689,57
746,90	1642,47
747,08	1675,24
747,26	1732,58
747,44	1779,68
747,62	1732,58
747,80	1761,25
747,98	1851,36
748,15	1617,90
748,33	1802,21
748,51	1802,21
748,69	1742,82
748,87	1656,81
749,05	1746,92
749,23	1685,48
749,41	1728,49
749,59	1730,53
749,77	1787,88
749,95	1695,72
750,13	1724,39
750,31	1720,29
750,49	1726,44
750,67	1804,26
750,85	1753,06
751,03	1736,68
751,20	1804,26
751,38	1708,01
751,56	1671,14
751,74	1703,91
751,92	1683,43
752,10	1640,42
752,28	1804,26
752,46	1648,61
752,64	1697,77
752,82	1763,30
753,00	1746,92
753,18	1730,53
753,35	1693,67
753,53	1681,38
753,71	1726,44
753,89	1757,16
754,07	1695,72
754,25	1736,68
754,43	1665,00
754,61	1619,94
754,79	1740,77
754,97	1677,29
755,14	1753,06
755,32	1624,04
755,50	1726,44
755,68	1738,73
755,86	1648,61
756,04	1665,00
756,22	1570,79
756,40	1683,43
756,57	1877,99
756,75	1683,43
756,93	1804,26
757,11	1787,88
757,29	1673,19
757,47	1624,04
757,65	1615,85
757,82	1607,66
758,00	1619,94
758,18	1681,38
758,36	1624,04
758,54	1789,92
758,72	1646,57
758,90	1720,29
759,07	1759,21
759,25	1671,14
759,43	1708,01
759,61	1652,71
759,79	2217,95
759,97	1687,53
760,15	1701,86
760,32	1660,90
760,50	1658,85
760,68	1834,98
760,86	1611,75
761,04	1832,93
761,22	1738,73
761,39	1777,64
761,57	1699,81
761,75	1751,01
761,93	1738,73
762,11	1740,77
762,28	1613,80
762,46	1646,57
762,64	1804,26
762,82	1630,18
763,00	1691,62
763,18	1796,07
763,35	1699,81
763,53	1777,64
763,71	1779,68
763,89	1748,97
764,07	1716,20
764,24	1673,19
764,42	1806,31
764,60	1710,05
764,78	1808,36
764,96	1730,53
765,13	1718,25
765,31	1691,62
765,49	1744,87
765,67	1718,25
765,84	1671,14
766,02	1714,15
766,20	1689,57
766,38	1642,47
766,56	1742,82
766,73	1779,68
766,91	1701,86
767,09	1734,63
767,27	1726,44
767,44	1619,94
767,62	1738,73
767,80	1712,10
767,98	1708,01
768,15	1753,06
768,33	1759,21
768,51	1732,58
768,69	1683,43
768,87	1720,29
769,04	1636,33
769,22	1794,02
769,40	1798,12
769,58	1832,93
769,75	1679,33
769,93	1808,36
770,11	1693,67
770,28	1673,19
770,46	1697,77
770,64	1761,25
770,82	1628,14
770,99	1689,57
771,17	1779,68
771,35	1667,05
771,53	1726,44
771,70	1705,96
771,88	1794,02
772,06	1779,68
772,23	1777,64
772,41	1812,45
772,59	1660,90
772,77	1669,09
772,94	1712,10
773,12	1753,06
773,30	1660,90
773,47	1689,57
773,65	1648,61
773,83	1773,54
774,01	1718,25
774,18	1722,34
774,36	1736,68
774,54	1644,52
774,71	1658,85
774,89	1665,00
775,07	1632,23
775,24	1669,09
775,42	1693,67
775,60	1716,20
775,78	1708,01
775,95	1716,20
776,13	1681,38
776,31	1617,90
776,48	1791,97
776,66	1728,49
776,84	1712,10
777,01	1648,61
777,19	1662,95
777,37	1642,47
777,54	1746,92
777,72	1849,32
777,90	1732,58
778,07	1644,52
778,25	1918,95
778,43	1753,06
778,60	1626,09
778,78	1773,54
778,96	1777,64
779,13	1675,24
779,31	1736,68
779,49	1703,91
779,66	1703,91
779,84	1716,20
780,01	1693,67
780,19	1697,77
780,37	1769,44
780,54	1728,49
780,72	1748,97
780,90	1701,86
781,07	1710,05
781,25	1681,38
781,43	1738,73
781,60	1658,85
781,78	1789,92
781,95	1728,49
782,13	1708,01
782,31	1740,77
782,48	1638,38
782,66	1779,68
782,83	1830,88
783,01	1732,58
783,19	1724,39
783,36	1691,62
783,54	1632,23
783,72	1734,63
783,89	1705,96
784,07	1765,35
784,24	1775,59
784,42	1787,88
784,60	1777,64
784,77	1689,57
784,95	1581,03
785,12	1699,81
785,30	1767,40
785,47	1699,81
785,65	1685,48
785,83	1681,38
786,00	1726,44
786,18	1769,44
786,35	1660,90
786,53	1640,42
786,71	1767,40
786,88	1708,01
787,06	1708,01
787,23	1675,24
787,41	1697,77
787,58	1746,92
787,76	1691,62
787,94	1734,63
788,11	1677,29
788,29	1644,52
788,46	1710,05
788,64	1681,38
788,81	1656,81
788,99	1599,46
789,16	1677,29
789,34	1753,06
789,52	1697,77
789,69	1626,09
789,87	1634,28
790,04	1667,05
790,22	1769,44
790,39	1834,98
790,57	1726,44
790,74	1716,20
790,92	1781,73
791,09	1570,79
791,27	1726,44
791,44	1746,92
791,62	1689,57
791,79	1816,55
791,97	1761,25
792,15	1839,08
792,32	1826,79
792,50	1763,30
792,67	1832,93
792,85	1822,69
793,02	1730,53
793,20	1714,15
793,37	1667,05
793,55	1720,29
793,72	1638,38
793,90	1646,57
794,07	1660,90
794,25	1658,85
794,42	1720,29
794,60	1779,68
794,77	1697,77
794,95	1765,35
795,12	1771,49
795,30	1748,97
795,47	1650,66
795,65	1920,99
795,82	1761,25
796,00	1685,48
796,17	1673,19
796,34	1732,58
796,52	1693,67
796,69	1789,92
796,87	1794,02
797,04	1785,83
797,22	1769,44
797,39	1689,57
797,57	1753,06
797,74	1746,92
797,92	1746,92
798,09	1685,48
798,27	1710,05
798,44	1839,08
798,62	1675,24
798,79	1697,77
798,96	1681,38
799,14	1726,44
799,31	1837,03
799,49	1763,30
799,66	1675,24
799,84	1710,05
800,01	1673,19
800,19	1665,00
800,36	1650,66
800,53	1728,49
800,71	1619,94
800,88	1824,74
801,06	1619,94
801,23	1685,48
801,41	1683,43
801,58	1716,20
801,75	1712,10
801,93	1734,63
802,10	1769,44
802,28	1648,61
802,45	1767,40
802,63	1763,30
802,80	1738,73
802,97	1693,67
803,15	1740,77
803,32	1734,63
803,50	1705,96
803,67	1576,94
803,84	1703,91
804,02	1656,81
804,19	1699,81
804,37	1597,42
804,54	1708,01
804,71	1628,14
804,89	1710,05
805,06	1628,14
805,24	1726,44
805,41	1683,43
805,58	1671,14
805,76	1753,06
805,93	1689,57
806,10	1851,36
806,28	1681,38
806,45	1755,11
806,63	1675,24
806,80	1779,68
806,97	1687,53
807,15	1755,11
807,32	1736,68
807,49	1699,81
807,67	1665,00
807,84	1744,87
808,01	1626,09
808,19	1816,55
808,36	1865,70
808,54	1734,63
808,71	1693,67
808,88	1771,49
809,06	1746,92
809,23	1777,64
809,40	1619,94
809,58	1773,54
809,75	1781,73
809,92	1669,09
810,10	1861,60
810,27	1755,11
810,44	1755,11
810,62	1716,20
810,79	1804,26
810,96	1693,67
811,14	1710,05
811,31	1738,73
811,48	1732,58
811,66	1755,11
811,83	1794,02
812,00	1722,34
812,18	1740,77
812,35	1789,92
812,52	1726,44
812,69	1695,72
812,87	1726,44
813,04	1681,38
813,21	1769,44
813,39	1697,77
813,56	1662,95
813,73	1736,68
813,91	1587,18
814,08	1808,36
814,25	1722,34
814,42	1607,66
814,60	1759,21
814,77	1658,85
814,94	1716,20
815,12	1783,78
815,29	1734,63
815,46	1718,25
815,63	1685,48
815,81	1746,92
815,98	1644,52
816,15	1720,29
816,33	1677,29
816,50	1665,00
816,67	1652,71
816,84	1722,34
817,02	1730,53
817,19	1726,44
817,36	1689,57
817,53	1732,58
817,71	1687,53
817,88	1800,16
818,05	1675,24
818,22	1597,42
818,40	1873,89
818,57	1621,99
818,74	1740,77
818,91	1716,20
819,09	1816,55
819,26	1765,35
819,43	1615,85
819,60	1675,24
819,78	1697,77
819,95	1773,54
820,12	1665,00
820,29	1830,88
820,47	1796,07
820,64	1730,53
820,81	1667,05
820,98	1658,85
821,15	1693,67
821,33	1732,58
821,50	1611,75
821,67	1773,54
821,84	1734,63
822,02	1740,77
822,19	1796,07
822,36	1642,47
822,53	1728,49
822,70	1603,56
822,88	1650,66
823,05	1816,55
823,22	1693,67
823,39	1728,49
823,56	1742,82
823,74	1769,44
823,91	1699,81
824,08	1693,67
824,25	1638,38
824,42	1806,31
824,60	1658,85
824,77	1826,79
824,94	1667,05
825,11	1710,05
825,28	1669,09
825,45	1765,35
825,63	1718,25
825,80	1675,24
825,97	1720,29
826,14	1802,21
826,31	1669,09
826,48	1734,63
826,66	1705,96
826,83	1730,53
827,00	1781,73
827,17	1714,15
827,34	1665,00
827,51	1650,66
827,69	1681,38
827,86	1705,96
828,03	1767,40
828,20	1740,77
828,37	1603,56
828,54	1746,92
828,71	1705,96
828,89	1816,55
829,06	1701,86
829,23	1800,16
829,40	1671,14
829,57	1671,14
829,74	1724,39
829,91	1726,44
830,09	1660,90
830,26	1683,43
830,43	1794,02
830,60	1679,33
830,77	1853,41
830,94	1744,87
831,11	1783,78
831,28	1685,48
831,46	1748,97
831,63	1611,75
831,80	1771,49
831,97	1689,57
832,14	1705,96
832,31	1791,97
832,48	1746,92
832,65	1785,83
832,82	1765,35
832,99	1728,49
833,17	1673,19
833,34	1849,32
833,51	1791,97
833,68	1658,85
833,85	1787,88
834,02	1634,28
834,19	1570,79
834,36	1697,77
834,53	1734,63
834,70	1783,78
834,87	1787,88
835,04	1714,15
835,22	1683,43
835,39	1730,53
835,56	1697,77
835,73	1685,48
835,90	1771,49
836,07	1730,53
836,24	1701,86
836,41	1718,25
836,58	1675,24
836,75	1804,26
836,92	1683,43
837,09	1628,14
837,26	1767,40
837,43	1722,34
837,60	1710,05
837,77	1642,47
837,94	1738,73
838,12	1714,15
838,29	1726,44
838,46	1656,81
838,63	1646,57
838,80	1834,98
838,97	1695,72
839,14	1726,44
839,31	1710,05
839,48	1677,29
839,65	1640,42
839,82	1796,07
839,99	1642,47
840,16	1746,92
840,33	1640,42
840,50	1740,77
840,67	1689,57
840,84	1599,46
841,01	1679,33
841,18	1599,46
841,35	1716,20
841,52	1775,59
841,69	1763,30
841,86	1787,88
842,03	1673,19
842,20	1837,03
842,37	1628,14
842,54	1759,21
842,71	1695,72
842,88	1710,05
843,05	1755,11
843,22	1714,15
843,39	1728,49
843,56	1726,44
843,73	1669,09
843,90	1724,39
844,07	1787,88
844,24	1722,34
844,41	1810,40
844,58	1665,00
844,75	1691,62
844,92	1705,96
845,09	1724,39
845,26	1675,24
845,43	1742,82
845,60	1693,67
845,77	1853,41
845,94	1804,26
846,10	1759,21
846,27	1654,76
846,44	1636,33
846,61	1658,85
846,78	1703,91
846,95	1804,26
847,12	1765,35
847,29	1685,48
847,46	1724,39
847,63	1736,68
847,80	1632,23
847,97	1669,09
848,14	1734,63
848,31	1753,06
848,48	1648,61
848,65	1800,16
848,82	1665,00
848,98	1814,50
849,15	1773,54
849,32	1791,97
849,49	1755,11
849,66	1673,19
849,83	1716,20
850,00	1673,19
850,17	1736,68
850,34	1705,96
850,51	1726,44
850,68	1693,67
850,85	1808,36
851,01	1744,87
851,18	1744,87
851,35	1624,04
851,52	1767,40
851,69	1822,69
851,86	1613,80
852,03	1708,01
852,20	1775,59
852,37	1730,53
852,53	1665,00
852,70	1705,96
852,87	1753,06
853,04	1812,45
853,21	1781,73
853,38	1771,49
853,55	1806,31
853,72	1781,73
853,89	1673,19
854,05	1648,61
854,22	1771,49
854,39	1722,34
854,56	1787,88
854,73	1767,40
854,90	1685,48
855,07	1728,49
855,23	1726,44
855,40	1722,34
855,57	1722,34
855,74	1611,75
855,91	1826,79
856,08	1626,09
856,25	1687,53
856,41	1673,19
856,58	1697,77
856,75	1675,24
856,92	1632,23
857,09	1759,21
857,26	1722,34
857,42	1691,62
857,59	1753,06
857,76	1677,29
857,93	1669,09
858,10	1708,01
858,27	1642,47
858,43	1685,48
858,60	1660,90
858,77	1603,56
858,94	1703,91
859,11	1771,49
859,27	1724,39
859,44	1673,19
859,61	1841,12
859,78	1783,78
859,95	1736,68
860,12	1673,19
860,28	1814,50
860,45	1843,17
860,62	1669,09
860,79	1691,62
860,95	1595,37
861,12	1626,09
861,29	1634,28
861,46	1617,90
861,63	1724,39
861,79	1689,57
861,96	1679,33
862,13	1722,34
862,30	1769,44
862,47	1638,38
862,63	1669,09
862,80	1726,44
862,97	1722,34
863,14	1726,44
863,30	1720,29
863,47	1708,01
863,64	1720,29
863,81	1677,29
863,97	1728,49
864,14	1724,39
864,31	1624,04
864,48	1699,81
864,65	1769,44
864,81	1730,53
864,98	1671,14
865,15	1744,87
865,32	1718,25
865,48	1740,77
865,65	1859,56
865,82	1650,66
865,98	1742,82
866,15	1779,68
866,32	1644,52
866,49	1634,28
866,65	1843,17
866,82	1665,00
866,99	1714,15
867,16	1677,29
867,32	1654,76
867,49	1714,15
867,66	1671,14
867,83	1658,85
867,99	1648,61
868,16	1656,81
868,33	1630,18
868,49	1748,97
868,66	1744,87
868,83	1724,39
868,99	1679,33
869,16	1814,50
869,33	1757,16
869,50	1781,73
869,66	1751,01
869,83	1777,64
870,00	1630,18
870,16	1738,73
870,33	1658,85
870,50	1703,91
870,66	1683,43
870,83	1857,51
871,00	1689,57
871,17	1751,01
871,33	1701,86
871,50	1683,43
871,67	1658,85
871,83	1710,05
872,00	1798,12
872,17	1677,29
872,33	1810,40
872,50	1773,54
872,67	1626,09
872,83	1681,38
873,00	1660,90
873,17	1736,68
873,33	1718,25
873,50	1710,05
873,67	1626,09
873,83	1716,20
874,00	1658,85
874,16	1722,34
874,33	1746,92
874,50	1591,27
874,66	1783,78
874,83	1751,01
875,00	1822,69
875,16	1818,60
875,33	1845,22
875,50	1576,94
875,66	1693,67
875,83	1693,67
875,99	1746,92
876,16	1689,57
876,33	1671,14
876,49	1730,53
876,66	1671,14
876,83	1673,19
876,99	1658,85
877,16	1714,15
877,32	1730,53
877,49	1624,04
877,66	1710,05
877,82	1806,31
877,99	1742,82
878,15	1708,01
878,32	1665,00
878,49	1722,34
878,65	1730,53
878,82	1724,39
878,98	1718,25
879,15	1789,92
879,32	1726,44
879,48	1689,57
879,65	1718,25
879,81	1732,58
879,98	1662,95
880,15	1693,67
880,31	1732,58
880,48	1667,05
880,64	1742,82
880,81	1783,78
880,97	1812,45
881,14	1804,26
881,31	1699,81
881,47	1912,80
881,64	1701,86
881,80	1654,76
881,97	1804,26
882,13	1734,63
882,30	1648,61
882,47	1679,33
882,63	1703,91
882,80	1681,38
882,96	1781,73
883,13	1732,58
883,29	1665,00
883,46	1757,16
883,62	1865,70
883,79	1720,29
883,95	1748,97
884,12	1685,48
884,29	1736,68
884,45	1757,16
884,62	1726,44
884,78	1615,85
884,95	1777,64
885,11	1669,09
885,28	1761,25
885,44	1617,90
885,61	1705,96
885,77	1837,03
885,94	1703,91
886,10	1740,77
886,27	1636,33
886,43	1859,56
886,60	1757,16
886,76	1648,61
886,93	1658,85
887,09	1728,49
887,26	1621,99
887,42	1734,63
887,59	1779,68
887,75	1794,02
887,92	1669,09
888,08	1830,88
888,25	1861,60
888,41	1730,53
888,58	1720,29
888,74	1634,28
888,91	1705,96
>>>>>End Processed Spectral Data<<<<<
