SpectraSuite Data File
++++++++++++++++++++++++++++++++++++
Date: Mon Jun 06 16:23:57 CEST 2016
User: root
Dark Spectrum Present: No
Reference Spectrum Present: No
Number of Sampled Component Spectra: 1
Spectrometers: USB4C02835
Integration Time (usec): 100000 (USB4C02835)
Spectra Averaged: 1 (USB4C02835)
Boxcar Smoothing: 0 (USB4C02835)
Correct for Electrical Dark: No (USB4C02835)
Strobe/Lamp Enabled: No (USB4C02835)
Correct for Detector Non-linearity: No (USB4C02835)
Correct for Stray Light: No (USB4C02835)
Number of Pixels in Processed Spectrum: 3648
>>>>>Begin Processed Spectral Data<<<<<
177,47	1456,11
177,69	1456,11
177,91	1456,11
178,13	1445,87
178,36	1476,59
178,58	1683,43
178,80	1738,73
179,02	1636,33
179,24	1621,99
179,46	1726,44
179,68	1769,44
179,90	1708,01
180,13	1742,82
180,35	1691,62
180,57	1687,53
180,79	1710,05
181,01	1716,20
181,23	1875,94
181,45	1751,01
181,67	1763,30
181,90	1873,89
182,12	1650,66
182,34	1703,91
182,56	1775,59
182,78	1808,36
183,00	1685,48
183,22	1714,15
183,44	1642,47
183,66	1859,56
183,89	1925,09
184,11	1804,26
184,33	1726,44
184,55	1767,40
184,77	1693,67
184,99	1722,34
185,21	1701,86
185,43	1837,03
185,65	1669,09
185,87	1679,33
186,10	1877,99
186,32	1892,32
186,54	1779,68
186,76	1742,82
186,98	1791,97
187,20	1669,09
187,42	1751,01
187,64	1726,44
187,86	1675,24
188,08	1783,78
188,30	1703,91
188,52	1751,01
188,75	1763,30
188,97	1724,39
189,19	1652,71
189,41	1699,81
189,63	1722,34
189,85	1742,82
190,07	1648,61
190,29	1619,94
190,51	1759,21
190,73	1716,20
190,95	1781,73
191,17	1730,53
191,39	1640,42
191,61	1718,25
191,84	1738,73
192,06	1773,54
192,28	1607,66
192,50	1943,52
192,72	1654,76
192,94	1677,29
193,16	1828,84
193,38	1775,59
193,60	1626,09
193,82	1609,70
194,04	1736,68
194,26	1679,33
194,48	1710,05
194,70	1757,16
194,92	1691,62
195,14	1751,01
195,36	1640,42
195,58	1716,20
195,80	1683,43
196,02	1675,24
196,24	1710,05
196,46	1714,15
196,69	1667,05
196,91	1869,80
197,13	1697,77
197,35	1630,18
197,57	1824,74
197,79	1703,91
198,01	1718,25
198,23	1757,16
198,45	1687,53
198,67	1644,52
198,89	1673,19
199,11	1783,78
199,33	1708,01
199,55	1562,60
199,77	1722,34
199,99	1771,49
200,21	1753,06
200,43	1730,53
200,65	1683,43
200,87	1656,81
201,09	1738,73
201,31	1695,72
201,53	1703,91
201,75	1705,96
201,97	1794,02
202,19	1720,29
202,41	1691,62
202,63	1812,45
202,85	1744,87
203,07	1771,49
203,29	1685,48
203,51	1689,57
203,73	1667,05
203,95	1880,04
204,17	1736,68
204,39	1763,30
204,61	1701,86
204,83	1761,25
205,05	1781,73
205,27	1800,16
205,49	1814,50
205,71	1701,86
205,93	1679,33
206,15	1718,25
206,37	1693,67
206,59	1638,38
206,81	1642,47
207,03	1646,57
207,25	1617,90
207,47	1783,78
207,69	1701,86
207,91	1859,56
208,13	1775,59
208,34	1634,28
208,56	1636,33
208,78	1728,49
209,00	1720,29
209,22	1677,29
209,44	1683,43
209,66	1671,14
209,88	1683,43
210,10	1681,38
210,32	1701,86
210,54	1744,87
210,76	1679,33
210,98	1714,15
211,20	1617,90
211,42	1701,86
211,64	1847,27
211,86	1712,10
212,08	1736,68
212,30	1798,12
212,52	1761,25
212,74	1716,20
212,96	1722,34
213,17	1791,97
213,39	1703,91
213,61	1837,03
213,83	1804,26
214,05	1648,61
214,27	1798,12
214,49	1615,85
214,71	1712,10
214,93	1775,59
215,15	1712,10
215,37	1849,32
215,59	1597,42
215,81	1681,38
216,03	1740,77
216,24	1724,39
216,46	1714,15
216,68	1673,19
216,90	1761,25
217,12	1847,27
217,34	1724,39
217,56	1796,07
217,78	1837,03
218,00	1775,59
218,22	1626,09
218,44	1689,57
218,66	1722,34
218,87	1765,35
219,09	1730,53
219,31	1783,78
219,53	1673,19
219,75	1683,43
219,97	1656,81
220,19	1683,43
220,41	1650,66
220,63	1785,83
220,85	1763,30
221,06	1687,53
221,28	1804,26
221,50	1724,39
221,72	1724,39
221,94	1703,91
222,16	1710,05
222,38	1775,59
222,60	1781,73
222,82	1640,42
223,03	1650,66
223,25	1648,61
223,47	1816,55
223,69	1857,51
223,91	1791,97
224,13	1697,77
224,35	1656,81
224,57	1757,16
224,78	1812,45
225,00	1644,52
225,22	1667,05
225,44	1740,77
225,66	1769,44
225,88	1665,00
226,10	1806,31
226,32	1777,64
226,53	1800,16
226,75	1736,68
226,97	1734,63
227,19	1677,29
227,41	1693,67
227,63	1697,77
227,85	1628,14
228,06	1724,39
228,28	1771,49
228,50	1748,97
228,72	1665,00
228,94	1701,86
229,16	1617,90
229,37	1675,24
229,59	1728,49
229,81	1804,26
230,03	1632,23
230,25	1691,62
230,47	1619,94
230,69	1636,33
230,90	1775,59
231,12	1591,27
231,34	1665,00
231,56	1734,63
231,78	1593,32
232,00	1695,72
232,21	1746,92
232,43	1681,38
232,65	1607,66
232,87	1685,48
233,09	1671,14
233,30	1708,01
233,52	1816,55
233,74	1746,92
233,96	1701,86
234,18	1665,00
234,40	1726,44
234,61	1861,60
234,83	1638,38
235,05	1660,90
235,27	1814,50
235,49	1783,78
235,70	1738,73
235,92	1751,01
236,14	1759,21
236,36	1785,83
236,58	1658,85
236,79	1796,07
237,01	1691,62
237,23	1738,73
237,45	1816,55
237,67	1660,90
237,88	1787,88
238,10	1798,12
238,32	1652,71
238,54	1650,66
238,76	1683,43
238,97	1685,48
239,19	1695,72
239,41	1742,82
239,63	1794,02
239,85	1732,58
240,06	1640,42
240,28	1646,57
240,50	1767,40
240,72	1677,29
240,93	1720,29
241,15	1771,49
241,37	1740,77
241,59	1779,68
241,81	1740,77
242,02	1636,33
242,24	1718,25
242,46	1771,49
242,68	1693,67
242,89	1748,97
243,11	1832,93
243,33	1712,10
243,55	1761,25
243,76	1751,01
243,98	1734,63
244,20	1732,58
244,42	1757,16
244,64	1691,62
244,85	1771,49
245,07	1689,57
245,29	1779,68
245,51	1673,19
245,72	1675,24
245,94	1726,44
246,16	1730,53
246,38	1757,16
246,59	1675,24
246,81	1640,42
247,03	1718,25
247,24	1628,14
247,46	1654,76
247,68	1744,87
247,90	1785,83
248,11	1695,72
248,33	1734,63
248,55	1703,91
248,77	1705,96
248,98	1708,01
249,20	1714,15
249,42	1697,77
249,64	1810,40
249,85	1685,48
250,07	1714,15
250,29	1767,40
250,50	1769,44
250,72	1665,00
250,94	1757,16
251,16	1830,88
251,37	1757,16
251,59	1724,39
251,81	1693,67
252,02	1753,06
252,24	1646,57
252,46	1810,40
252,68	1687,53
252,89	1681,38
253,11	1607,66
253,33	1787,88
253,54	1824,74
253,76	1636,33
253,98	1736,68
254,20	1746,92
254,41	1665,00
254,63	1763,30
254,85	1654,76
255,06	1650,66
255,28	1755,11
255,50	1716,20
255,71	1699,81
255,93	1691,62
256,15	1765,35
256,36	1775,59
256,58	1640,42
256,80	1740,77
257,02	1652,71
257,23	1617,90
257,45	1779,68
257,67	1789,92
257,88	1662,95
258,10	1652,71
258,32	1679,33
258,53	1763,30
258,75	1812,45
258,97	1718,25
259,18	1759,21
259,40	1759,21
259,62	1834,98
259,83	1775,59
260,05	1777,64
260,27	1947,62
260,48	1732,58
260,70	1654,76
260,92	1738,73
261,13	1759,21
261,35	1787,88
261,57	1759,21
261,78	1638,38
262,00	1718,25
262,22	1685,48
262,43	1667,05
262,65	1548,26
262,86	1703,91
263,08	1839,08
263,30	1736,68
263,51	1642,47
263,73	1699,81
263,95	1873,89
264,16	1669,09
264,38	1742,82
264,60	1732,58
264,81	1718,25
265,03	1738,73
265,25	1712,10
265,46	1722,34
265,68	1820,64
265,89	1791,97
266,11	1681,38
266,33	1677,29
266,54	1814,50
266,76	1736,68
266,98	1751,01
267,19	1804,26
267,41	1738,73
267,62	1685,48
267,84	1632,23
268,06	1714,15
268,27	1746,92
268,49	1808,36
268,70	1726,44
268,92	1712,10
269,14	1708,01
269,35	1705,96
269,57	1656,81
269,79	1708,01
270,00	1751,01
270,22	1845,22
270,43	1728,49
270,65	1609,70
270,87	1669,09
271,08	1736,68
271,30	1724,39
271,51	1705,96
271,73	1773,54
271,95	1832,93
272,16	1716,20
272,38	1734,63
272,59	1701,86
272,81	1767,40
273,02	1734,63
273,24	1810,40
273,46	1712,10
273,67	1640,42
273,89	1615,85
274,10	1767,40
274,32	1775,59
274,54	1759,21
274,75	1759,21
274,97	1671,14
275,18	1763,30
275,40	1769,44
275,61	1755,11
275,83	1712,10
276,05	1646,57
276,26	1767,40
276,48	1757,16
276,69	1689,57
276,91	1636,33
277,12	1771,49
277,34	1791,97
277,55	1701,86
277,77	1751,01
277,99	1677,29
278,20	1628,14
278,42	1697,77
278,63	1644,52
278,85	1699,81
279,06	1710,05
279,28	1773,54
279,49	1787,88
279,71	1751,01
279,93	1652,71
280,14	1757,16
280,36	1708,01
280,57	1736,68
280,79	1785,83
281,00	1642,47
281,22	1675,24
281,43	1779,68
281,65	1636,33
281,86	1607,66
282,08	1751,01
282,29	1796,07
282,51	1568,74
282,73	1677,29
282,94	1585,13
283,16	1726,44
283,37	1820,64
283,59	1804,26
283,80	1755,11
284,02	1777,64
284,23	1789,92
284,45	1669,09
284,66	1615,85
284,88	1665,00
285,09	1656,81
285,31	1730,53
285,52	1714,15
285,74	1667,05
285,95	1785,83
286,17	1814,50
286,38	1800,16
286,60	1726,44
286,81	1626,09
287,03	1710,05
287,24	1685,48
287,46	1671,14
287,67	1689,57
287,89	1882,08
288,10	1740,77
288,32	1746,92
288,53	1787,88
288,75	1730,53
288,96	1714,15
289,18	1671,14
289,39	1685,48
289,61	1716,20
289,82	1830,88
290,04	1796,07
290,25	1636,33
290,47	1732,58
290,68	1665,00
290,90	1791,97
291,11	1665,00
291,33	1726,44
291,54	1634,28
291,76	1685,48
291,97	1665,00
292,18	1667,05
292,40	1638,38
292,61	1568,74
292,83	1877,99
293,04	1785,83
293,26	1695,72
293,47	1742,82
293,69	1673,19
293,90	1732,58
294,12	1751,01
294,33	1738,73
294,55	1736,68
294,76	1791,97
294,97	1787,88
295,19	1843,17
295,40	1671,14
295,62	1693,67
295,83	1818,60
296,05	1697,77
296,26	1777,64
296,48	1685,48
296,69	1703,91
296,90	1679,33
297,12	1787,88
297,33	1773,54
297,55	1742,82
297,76	1816,55
297,98	1722,34
298,19	1699,81
298,41	1722,34
298,62	1710,05
298,83	1753,06
299,05	1775,59
299,26	1667,05
299,48	1658,85
299,69	1705,96
299,90	1734,63
300,12	1757,16
300,33	1810,40
300,55	1691,62
300,76	1761,25
300,98	1689,57
301,19	1708,01
301,40	1728,49
301,62	1724,39
301,83	1746,92
302,05	1716,20
302,26	1791,97
302,47	1726,44
302,69	1642,47
302,90	1697,77
303,12	1650,66
303,33	1781,73
303,54	1785,83
303,76	1675,24
303,97	1710,05
304,19	1781,73
304,40	1642,47
304,61	1742,82
304,83	1798,12
305,04	1748,97
305,26	1789,92
305,47	1658,85
305,68	1697,77
305,90	1656,81
306,11	1744,87
306,33	1720,29
306,54	1791,97
306,75	1720,29
306,97	1687,53
307,18	1665,00
307,39	1642,47
307,61	1802,21
307,82	1640,42
308,04	1740,77
308,25	1705,96
308,46	1677,29
308,68	1714,15
308,89	1652,71
309,10	1787,88
309,32	1671,14
309,53	1814,50
309,74	1779,68
309,96	1677,29
310,17	1748,97
310,39	1726,44
310,60	1775,59
310,81	1660,90
311,03	1624,04
311,24	1712,10
311,45	1652,71
311,67	1812,45
311,88	1705,96
312,09	1677,29
312,31	1697,77
312,52	1708,01
312,73	1759,21
312,95	1703,91
313,16	1716,20
313,37	1808,36
313,59	1812,45
313,80	1732,58
314,01	1832,93
314,23	1724,39
314,44	1658,85
314,65	1705,96
314,87	1632,23
315,08	1628,14
315,29	1710,05
315,51	1667,05
315,72	1574,89
315,93	1781,73
316,15	1730,53
316,36	1656,81
316,57	1755,11
316,79	1742,82
317,00	1638,38
317,21	1744,87
317,43	1626,09
317,64	1769,44
317,85	1671,14
318,07	1693,67
318,28	1699,81
318,49	1791,97
318,70	1896,42
318,92	1855,46
319,13	1771,49
319,34	1951,71
319,56	1771,49
319,77	1828,84
319,98	1826,79
320,20	1804,26
320,41	1771,49
320,62	1714,15
320,83	1660,90
321,05	1867,75
321,26	1773,54
321,47	1746,92
321,69	1832,93
321,90	1621,99
322,11	1689,57
322,32	1683,43
322,54	1837,03
322,75	1681,38
322,96	1824,74
323,18	1617,90
323,39	1658,85
323,60	1714,15
323,81	1818,60
324,03	1617,90
324,24	1685,48
324,45	1748,97
324,66	1675,24
324,88	1734,63
325,09	1781,73
325,30	1656,81
325,52	1767,40
325,73	1740,77
325,94	1634,28
326,15	1640,42
326,37	1705,96
326,58	1763,30
326,79	1886,18
327,00	1630,18
327,22	1791,97
327,43	1662,95
327,64	1648,61
327,85	1689,57
328,07	1753,06
328,28	1771,49
328,49	1740,77
328,70	1763,30
328,92	1708,01
329,13	1660,90
329,34	1775,59
329,55	1812,45
329,76	1685,48
329,98	1677,29
330,19	1777,64
330,40	1734,63
330,61	1816,55
330,83	1703,91
331,04	1708,01
331,25	1656,81
331,46	1730,53
331,68	1652,71
331,89	1757,16
332,10	1714,15
332,31	1597,42
332,52	1738,73
332,74	1740,77
332,95	1687,53
333,16	1724,39
333,37	1732,58
333,58	1738,73
333,80	1669,09
334,01	1755,11
334,22	1697,77
334,43	1624,04
334,64	1634,28
334,86	1640,42
335,07	1724,39
335,28	1787,88
335,49	1662,95
335,70	1773,54
335,92	1734,63
336,13	1861,60
336,34	1730,53
336,55	1759,21
336,76	1757,16
336,98	1644,52
337,19	1701,86
337,40	1773,54
337,61	1880,04
337,82	1693,67
338,04	1687,53
338,25	1738,73
338,46	1693,67
338,67	1705,96
338,88	1681,38
339,09	1705,96
339,31	1710,05
339,52	1638,38
339,73	1615,85
339,94	1681,38
340,15	1812,45
340,36	1660,90
340,58	1757,16
340,79	1634,28
341,00	1714,15
341,21	1642,47
341,42	1761,25
341,63	1671,14
341,85	1779,68
342,06	1691,62
342,27	1689,57
342,48	1724,39
342,69	1638,38
342,90	1695,72
343,12	1767,40
343,33	1671,14
343,54	1744,87
343,75	1816,55
343,96	1746,92
344,17	1677,29
344,38	1634,28
344,60	1646,57
344,81	1644,52
345,02	1712,10
345,23	1777,64
345,44	1804,26
345,65	1722,34
345,86	1710,05
346,07	1734,63
346,29	1660,90
346,50	1685,48
346,71	1736,68
346,92	1753,06
347,13	1828,84
347,34	1681,38
347,55	1746,92
347,76	1748,97
347,98	1679,33
348,19	1726,44
348,40	1728,49
348,61	1658,85
348,82	1767,40
349,03	1765,35
349,24	1708,01
349,45	1798,12
349,66	1626,09
349,88	1757,16
350,09	1636,33
350,30	1791,97
350,51	1757,16
350,72	1718,25
350,93	1730,53
351,14	1687,53
351,35	1798,12
351,56	1730,53
351,77	1753,06
351,99	1718,25
352,20	1806,31
352,41	1691,62
352,62	1640,42
352,83	1751,01
353,04	1751,01
353,25	1689,57
353,46	1761,25
353,67	1755,11
353,88	1587,18
354,09	1720,29
354,30	1701,86
354,52	1693,67
354,73	1720,29
354,94	1673,19
355,15	1757,16
355,36	1851,36
355,57	1718,25
355,78	1759,21
355,99	1773,54
356,20	1695,72
356,41	1728,49
356,62	1761,25
356,83	1746,92
357,04	1720,29
357,25	1615,85
357,46	1658,85
357,68	1615,85
357,89	1652,71
358,10	1714,15
358,31	1654,76
358,52	1777,64
358,73	1689,57
358,94	1665,00
359,15	1699,81
359,36	1751,01
359,57	1697,77
359,78	1701,86
359,99	1816,55
360,20	1650,66
360,41	1683,43
360,62	1779,68
360,83	1742,82
361,04	1699,81
361,25	1759,21
361,46	1867,75
361,67	1714,15
361,88	1779,68
362,09	1718,25
362,30	1732,58
362,51	1701,86
362,72	1722,34
362,93	1814,50
363,14	1794,02
363,35	1753,06
363,56	1640,42
363,78	1789,92
363,99	1781,73
364,20	1656,81
364,41	1710,05
364,62	1824,74
364,83	1736,68
365,04	1677,29
365,25	1751,01
365,46	1824,74
365,67	1687,53
365,88	1644,52
366,09	1685,48
366,30	1691,62
366,51	1763,30
366,72	1656,81
366,93	1724,39
367,14	1718,25
367,35	1798,12
367,56	1738,73
367,77	1753,06
367,98	1744,87
368,18	1763,30
368,39	1740,77
368,60	1673,19
368,81	1771,49
369,02	1742,82
369,23	1665,00
369,44	1677,29
369,65	1763,30
369,86	1751,01
370,07	1726,44
370,28	1656,81
370,49	1716,20
370,70	1751,01
370,91	1638,38
371,12	1677,29
371,33	1775,59
371,54	1718,25
371,75	1832,93
371,96	1591,27
372,17	1703,91
372,38	1761,25
372,59	1718,25
372,80	1724,39
373,01	1667,05
373,22	1740,77
373,43	1767,40
373,64	1681,38
373,85	1832,93
374,06	1796,07
374,26	1730,53
374,47	1767,40
374,68	1796,07
374,89	1665,00
375,10	1765,35
375,31	1732,58
375,52	1738,73
375,73	1730,53
375,94	1722,34
376,15	1777,64
376,36	1656,81
376,57	1656,81
376,78	1632,23
376,99	1683,43
377,20	1822,69
377,40	1685,48
377,61	1806,31
377,82	1712,10
378,03	1763,30
378,24	1632,23
378,45	1714,15
378,66	1624,04
378,87	1671,14
379,08	1642,47
379,29	1744,87
379,50	1802,21
379,71	1650,66
379,91	1763,30
380,12	1640,42
380,33	1693,67
380,54	1765,35
380,75	1703,91
380,96	1746,92
381,17	1767,40
381,38	1669,09
381,59	1779,68
381,80	1720,29
382,00	1855,46
382,21	1753,06
382,42	1851,36
382,63	1904,61
382,84	1742,82
383,05	1791,97
383,26	1884,13
383,47	1751,01
383,68	1769,44
383,88	1751,01
384,09	1800,16
384,30	1873,89
384,51	1855,46
384,72	1685,48
384,93	1660,90
385,14	1769,44
385,35	1746,92
385,55	1628,14
385,76	1865,70
385,97	1679,33
386,18	1677,29
386,39	1751,01
386,60	1714,15
386,81	1716,20
387,02	1705,96
387,22	1644,52
387,43	1777,64
387,64	1779,68
387,85	1918,95
388,06	2158,56
388,27	4313,02
388,48	6766,49
388,68	8163,20
388,89	9484,14
389,10	9557,87
389,31	8560,51
389,52	7661,45
389,73	6823,83
389,93	6252,45
390,14	5898,15
390,35	5054,39
390,56	4544,44
390,77	3782,60
390,98	3033,04
391,18	2504,67
391,39	2109,41
391,60	1869,80
391,81	1822,69
392,02	1798,12
392,23	1822,69
392,43	1765,35
392,64	1800,16
392,85	1726,44
393,06	1880,04
393,27	1794,02
393,47	1665,00
393,68	1751,01
393,89	1714,15
394,10	1814,50
394,31	1665,00
394,52	1697,77
394,72	1746,92
394,93	1890,28
395,14	1603,56
395,35	1703,91
395,56	1724,39
395,76	1824,74
395,97	1843,17
396,18	1832,93
396,39	1855,46
396,60	2021,35
396,80	1945,57
397,01	1791,97
397,22	1861,60
397,43	1796,07
397,64	1812,45
397,84	1810,40
398,05	1810,40
398,26	1691,62
398,47	1673,19
398,67	1849,32
398,88	1757,16
399,09	1761,25
399,30	1705,96
399,51	1871,84
399,71	1712,10
399,92	1755,11
400,13	1748,97
400,34	1779,68
400,54	1751,01
400,75	1818,60
400,96	1716,20
401,17	1755,11
401,37	1785,83
401,58	1665,00
401,79	1640,42
402,00	1865,70
402,21	2066,40
402,41	1943,52
402,62	2029,54
402,83	2070,50
403,04	2131,94
403,24	2093,02
403,45	1853,41
403,66	1910,75
403,87	1875,94
404,07	1896,42
404,28	1853,41
404,49	1867,75
404,70	1820,64
404,90	1818,60
405,11	1791,97
405,32	1816,55
405,52	1714,15
405,73	1675,24
405,94	1710,05
406,15	1683,43
406,35	1779,68
406,56	1755,11
406,77	1728,49
406,98	1746,92
407,18	1619,94
407,39	1834,98
407,60	1691,62
407,80	1789,92
408,01	1755,11
408,22	1771,49
408,43	1710,05
408,63	1787,88
408,84	1714,15
409,05	1789,92
409,25	1714,15
409,46	1708,01
409,67	1683,43
409,88	1697,77
410,08	1720,29
410,29	1677,29
410,50	1808,36
410,70	1755,11
410,91	1621,99
411,12	1712,10
411,32	1693,67
411,53	1708,01
411,74	1791,97
411,95	1828,84
412,15	1738,73
412,36	1777,64
412,57	1767,40
412,77	1861,60
412,98	1710,05
413,19	1746,92
413,39	1742,82
413,60	1773,54
413,81	1843,17
414,01	1755,11
414,22	1773,54
414,43	1769,44
414,63	1796,07
414,84	1708,01
415,05	1742,82
415,25	1648,61
415,46	1755,11
415,67	1730,53
415,87	1751,01
416,08	1687,53
416,29	1595,37
416,49	1783,78
416,70	1742,82
416,91	1791,97
417,11	1730,53
417,32	1767,40
417,53	1769,44
417,73	1738,73
417,94	1779,68
418,15	1781,73
418,35	1751,01
418,56	1693,67
418,77	1898,47
418,97	1695,72
419,18	1722,34
419,38	1642,47
419,59	1765,35
419,80	1748,97
420,00	1779,68
420,21	1695,72
420,42	1699,81
420,62	1724,39
420,83	1746,92
421,04	1779,68
421,24	1662,95
421,45	1722,34
421,65	1785,83
421,86	1673,19
422,07	1736,68
422,27	1628,14
422,48	1779,68
422,69	1673,19
422,89	1746,92
423,10	1791,97
423,30	1632,23
423,51	1796,07
423,72	1738,73
423,92	1734,63
424,13	1703,91
424,33	1718,25
424,54	1765,35
424,75	1759,21
424,95	1798,12
425,16	1742,82
425,36	1644,52
425,57	1822,69
425,78	1728,49
425,98	1806,31
426,19	1724,39
426,39	1613,80
426,60	1652,71
426,81	1757,16
427,01	1771,49
427,22	1673,19
427,42	1650,66
427,63	1630,18
427,83	1769,44
428,04	1812,45
428,25	1763,30
428,45	1769,44
428,66	1685,48
428,86	1701,86
429,07	1646,57
429,28	1777,64
429,48	1665,00
429,69	1601,51
429,89	1834,98
430,10	1609,70
430,30	1789,92
430,51	1794,02
430,71	1732,58
430,92	1751,01
431,13	1687,53
431,33	1757,16
431,54	1710,05
431,74	1703,91
431,95	1855,46
432,15	1718,25
432,36	1738,73
432,56	1738,73
432,77	1787,88
432,98	1843,17
433,18	1779,68
433,39	1677,29
433,59	1679,33
433,80	1908,71
434,00	1861,60
434,21	1746,92
434,41	1722,34
434,62	1931,23
434,82	1660,90
435,03	1681,38
435,23	1705,96
435,44	1660,90
435,64	1738,73
435,85	1753,06
436,06	1806,31
436,26	1798,12
436,47	1644,52
436,67	1699,81
436,88	1689,57
437,08	1820,64
437,29	1820,64
437,49	1660,90
437,70	1781,73
437,90	1763,30
438,11	1822,69
438,31	1761,25
438,52	1851,36
438,72	1898,47
438,93	1910,75
439,13	1806,31
439,34	1888,23
439,54	1755,11
439,75	1806,31
439,95	1855,46
440,16	1708,01
440,36	1722,34
440,57	1734,63
440,77	1720,29
440,98	1742,82
441,18	1783,78
441,39	1669,09
441,59	1738,73
441,80	1818,60
442,00	1789,92
442,21	1767,40
442,41	1667,05
442,62	1804,26
442,82	1736,68
443,02	1781,73
443,23	1763,30
443,43	1763,30
443,64	1791,97
443,84	1605,61
444,05	1857,51
444,25	1730,53
444,46	1689,57
444,66	1738,73
444,87	1871,84
445,07	1744,87
445,28	1642,47
445,48	1853,41
445,69	1759,21
445,89	1957,86
446,09	1802,21
446,30	2058,21
446,50	2674,65
446,71	3772,36
446,91	4396,99
447,12	4808,63
447,32	4739,00
447,53	4321,21
447,73	3850,18
447,93	3512,27
448,14	3323,85
448,34	3233,74
448,55	2940,88
448,75	3061,71
448,96	2738,13
449,16	2412,51
449,36	2349,02
449,57	1996,77
449,77	1896,42
449,98	1746,92
450,18	1816,55
450,39	1816,55
450,59	1744,87
450,79	1728,49
451,00	1701,86
451,20	1708,01
451,41	1806,31
451,61	1818,60
451,81	1812,45
452,02	1789,92
452,22	1714,15
452,43	1748,97
452,63	1642,47
452,84	1718,25
453,04	1681,38
453,24	1759,21
453,45	1675,24
453,65	1763,30
453,86	1814,50
454,06	1806,31
454,26	1677,29
454,47	1710,05
454,67	1845,22
454,87	1724,39
455,08	1726,44
455,28	1802,21
455,49	1683,43
455,69	1814,50
455,89	1890,28
456,10	1722,34
456,30	1740,77
456,51	1730,53
456,71	1806,31
456,91	1767,40
457,12	1839,08
457,32	1787,88
457,52	1693,67
457,73	1763,30
457,93	1744,87
458,14	1779,68
458,34	1652,71
458,54	1648,61
458,75	1730,53
458,95	1783,78
459,15	1763,30
459,36	1761,25
459,56	1724,39
459,76	1839,08
459,97	1773,54
460,17	1744,87
460,37	1781,73
460,58	1755,11
460,78	1777,64
460,99	1677,29
461,19	1732,58
461,39	1814,50
461,60	1701,86
461,80	1759,21
462,00	1679,33
462,21	1710,05
462,41	1724,39
462,61	1701,86
462,82	1718,25
463,02	1753,06
463,22	1708,01
463,43	1845,22
463,63	1796,07
463,83	1757,16
464,04	1839,08
464,24	1761,25
464,44	1730,53
464,64	1773,54
464,85	1779,68
465,05	1763,30
465,25	1705,96
465,46	1744,87
465,66	1796,07
465,86	1775,59
466,07	1716,20
466,27	1748,97
466,47	1720,29
466,68	1632,23
466,88	1826,79
467,08	1742,82
467,29	1802,21
467,49	1765,35
467,69	1675,24
467,89	1748,97
468,10	1751,01
468,30	1791,97
468,50	1798,12
468,71	1728,49
468,91	1738,73
469,11	1820,64
469,31	1679,33
469,52	1736,68
469,72	1812,45
469,92	1914,85
470,13	1710,05
470,33	1783,78
470,53	1877,99
470,73	2113,50
470,94	2267,10
471,14	2353,12
471,34	2478,04
471,54	2490,33
471,75	2142,18
471,95	2199,52
472,15	2086,88
472,36	2150,37
472,56	2072,54
472,76	2041,82
472,96	1961,95
473,17	1875,94
473,37	1826,79
473,57	1779,68
473,77	1779,68
473,98	1779,68
474,18	1708,01
474,38	1941,47
474,58	1730,53
474,79	1685,48
474,99	1828,84
475,19	1769,44
475,39	1611,75
475,60	1730,53
475,80	1816,55
476,00	1712,10
476,20	1697,77
476,41	1800,16
476,61	1826,79
476,81	1830,88
477,01	1656,81
477,21	1837,03
477,42	1828,84
477,62	1732,58
477,82	1746,92
478,02	1718,25
478,23	1767,40
478,43	1640,42
478,63	1742,82
478,83	1728,49
479,03	1767,40
479,24	1779,68
479,44	1859,56
479,64	1675,24
479,84	1667,05
480,04	1628,14
480,25	1775,59
480,45	1740,77
480,65	1718,25
480,85	1798,12
481,06	1699,81
481,26	1726,44
481,46	1677,29
481,66	1804,26
481,86	1757,16
482,06	1761,25
482,27	1683,43
482,47	1691,62
482,67	1736,68
482,87	1753,06
483,07	1787,88
483,28	1677,29
483,48	1679,33
483,68	1669,09
483,88	1646,57
484,08	1648,61
484,29	1685,48
484,49	1732,58
484,69	1660,90
484,89	1796,07
485,09	1767,40
485,29	1781,73
485,50	1822,69
485,70	1738,73
485,90	1859,56
486,10	1818,60
486,30	1783,78
486,50	1785,83
486,71	1746,92
486,91	1830,88
487,11	1802,21
487,31	1654,76
487,51	1718,25
487,71	1705,96
487,91	1656,81
488,12	1710,05
488,32	1705,96
488,52	1656,81
488,72	1660,90
488,92	1777,64
489,12	1888,23
489,32	1802,21
489,53	1785,83
489,73	1665,00
489,93	1859,56
490,13	1701,86
490,33	1665,00
490,53	1800,16
490,73	1802,21
490,94	1677,29
491,14	1806,31
491,34	1902,56
491,54	2148,32
491,74	2652,12
491,94	2981,84
492,14	3020,75
492,34	2940,88
492,54	2768,85
492,75	2584,54
492,95	2449,37
493,15	2336,73
493,35	2336,73
493,55	2222,05
493,75	2150,37
493,95	2168,80
494,15	2025,44
494,35	1941,47
494,56	1777,64
494,76	1824,74
494,96	1787,88
495,16	1783,78
495,36	1845,22
495,56	1730,53
495,76	1658,85
495,96	1796,07
496,16	1685,48
496,36	1812,45
496,56	1775,59
496,77	1665,00
496,97	1744,87
497,17	1847,27
497,37	1601,51
497,57	1869,80
497,77	1800,16
497,97	1675,24
498,17	1746,92
498,37	1775,59
498,57	1787,88
498,77	1679,33
498,97	1765,35
499,17	1837,03
499,38	1765,35
499,58	1712,10
499,78	1708,01
499,98	1789,92
500,18	1665,00
500,38	1695,72
500,58	1888,23
500,78	2592,73
500,98	4550,59
501,18	5730,22
501,38	6817,69
501,58	7196,56
501,78	6584,22
501,98	5550,00
502,18	5048,24
502,38	4509,63
502,58	4130,75
502,78	3768,26
502,98	3704,78
503,18	3403,72
503,38	3117,01
503,59	2963,41
503,79	2686,94
503,99	2494,43
504,19	2285,53
504,39	2166,75
504,59	2185,18
504,79	2117,60
504,99	1998,82
505,19	1908,71
505,39	1916,90
505,59	1900,52
505,79	1988,58
505,99	1853,41
506,19	1800,16
506,39	1820,64
506,59	1816,55
506,79	1730,53
506,99	1763,30
507,19	1814,50
507,39	1818,60
507,59	1734,63
507,79	1662,95
507,99	1769,44
508,19	1748,97
508,39	1742,82
508,59	1712,10
508,79	1853,41
508,99	1851,36
509,19	1755,11
509,39	1773,54
509,59	1681,38
509,79	1759,21
509,99	1726,44
510,19	1826,79
510,39	1818,60
510,59	1701,86
510,79	1740,77
510,99	1722,34
511,19	1726,44
511,39	1845,22
511,59	1785,83
511,79	1783,78
511,99	1755,11
512,19	1812,45
512,38	1812,45
512,58	1726,44
512,78	1822,69
512,98	1800,16
513,18	1787,88
513,38	1681,38
513,58	1746,92
513,78	1779,68
513,98	1712,10
514,18	1779,68
514,38	1748,97
514,58	1751,01
514,78	1753,06
514,98	1658,85
515,18	1757,16
515,38	1712,10
515,58	1892,32
515,78	1677,29
515,98	1722,34
516,18	1812,45
516,38	1757,16
516,57	1734,63
516,77	1794,02
516,97	1769,44
517,17	1708,01
517,37	1669,09
517,57	1753,06
517,77	1738,73
517,97	1736,68
518,17	1820,64
518,37	1722,34
518,57	1796,07
518,77	1771,49
518,97	1671,14
519,16	1736,68
519,36	1796,07
519,56	1718,25
519,76	1742,82
519,96	1695,72
520,16	1826,79
520,36	1718,25
520,56	1824,74
520,76	1771,49
520,96	1726,44
521,16	1814,50
521,35	1759,21
521,55	1910,75
521,75	1783,78
521,95	1732,58
522,15	1648,61
522,35	1630,18
522,55	1638,38
522,75	1841,12
522,95	1746,92
523,14	1763,30
523,34	1726,44
523,54	1701,86
523,74	1787,88
523,94	1853,41
524,14	1720,29
524,34	1779,68
524,54	1814,50
524,73	1787,88
524,93	1789,92
525,13	1804,26
525,33	1691,62
525,53	1873,89
525,73	1777,64
525,93	1806,31
526,13	1708,01
526,32	1757,16
526,52	1783,78
526,72	1808,36
526,92	1791,97
527,12	1806,31
527,32	1662,95
527,52	1763,30
527,71	1763,30
527,91	1757,16
528,11	1732,58
528,31	1705,96
528,51	1669,09
528,71	1787,88
528,90	1775,59
529,10	1830,88
529,30	1822,69
529,50	1712,10
529,70	1728,49
529,90	1830,88
530,09	1791,97
530,29	1636,33
530,49	1689,57
530,69	1845,22
530,89	1773,54
531,09	1783,78
531,28	1724,39
531,48	1828,84
531,68	1832,93
531,88	1742,82
532,08	1738,73
532,28	1742,82
532,47	1781,73
532,67	1734,63
532,87	1722,34
533,07	1642,47
533,27	1814,50
533,46	1828,84
533,66	1757,16
533,86	1710,05
534,06	1755,11
534,26	1738,73
534,45	1654,76
534,65	1683,43
534,85	1818,60
535,05	1675,24
535,25	1857,51
535,44	1675,24
535,64	1789,92
535,84	1714,15
536,04	1757,16
536,24	1732,58
536,43	1710,05
536,63	1779,68
536,83	1769,44
537,03	1759,21
537,22	1673,19
537,42	1665,00
537,62	1806,31
537,82	1687,53
538,02	1875,94
538,21	1834,98
538,41	1943,52
538,61	1765,35
538,81	1777,64
539,00	1810,40
539,20	1695,72
539,40	1781,73
539,60	1771,49
539,79	1771,49
539,99	1779,68
540,19	1718,25
540,39	1734,63
540,58	1738,73
540,78	1791,97
540,98	1724,39
541,18	1808,36
541,37	1740,77
541,57	1695,72
541,77	1816,55
541,97	1667,05
542,16	1660,90
542,36	1646,57
542,56	1789,92
542,76	1929,19
542,95	1759,21
543,15	1777,64
543,35	1779,68
543,54	1689,57
543,74	1705,96
543,94	1789,92
544,14	1658,85
544,33	1781,73
544,53	1730,53
544,73	1650,66
544,93	1726,44
545,12	1765,35
545,32	1705,96
545,52	1832,93
545,71	1644,52
545,91	1728,49
546,11	1732,58
546,30	1695,72
546,50	1689,57
546,70	1794,02
546,90	1751,01
547,09	1675,24
547,29	1755,11
547,49	1832,93
547,68	1751,01
547,88	1734,63
548,08	1773,54
548,27	2176,99
548,47	1765,35
548,67	1714,15
548,87	1841,12
549,06	1726,44
549,26	1751,01
549,46	1816,55
549,65	1605,61
549,85	1722,34
550,05	1814,50
550,24	1716,20
550,44	1757,16
550,64	1753,06
550,83	1771,49
551,03	1794,02
551,23	1755,11
551,42	1837,03
551,62	1650,66
551,82	1726,44
552,01	1771,49
552,21	1837,03
552,41	1705,96
552,60	1886,18
552,80	1736,68
553,00	1660,90
553,19	1763,30
553,39	1849,32
553,59	1697,77
553,78	1767,40
553,98	1789,92
554,17	1624,04
554,37	1740,77
554,57	1802,21
554,76	1691,62
554,96	1777,64
555,16	1787,88
555,35	1710,05
555,55	1763,30
555,75	1693,67
555,94	1843,17
556,14	1677,29
556,33	1796,07
556,53	1746,92
556,73	1724,39
556,92	1884,13
557,12	1837,03
557,32	1794,02
557,51	1767,40
557,71	1738,73
557,90	1865,70
558,10	1812,45
558,30	1738,73
558,49	1742,82
558,69	1806,31
558,88	1775,59
559,08	1714,15
559,28	1671,14
559,47	1765,35
559,67	1783,78
559,86	1908,71
560,06	1771,49
560,26	1736,68
560,45	1820,64
560,65	1849,32
560,84	1837,03
561,04	1746,92
561,24	1779,68
561,43	1665,00
561,63	1853,41
561,82	1789,92
562,02	1759,21
562,22	1656,81
562,41	1701,86
562,61	1728,49
562,80	1722,34
563,00	1984,48
563,19	1800,16
563,39	1708,01
563,59	1794,02
563,78	1712,10
563,98	1621,99
564,17	1708,01
564,37	1615,85
564,56	1763,30
564,76	1699,81
564,96	1847,27
565,15	1710,05
565,35	1798,12
565,54	1667,05
565,74	1834,98
565,93	1720,29
566,13	1751,01
566,32	1800,16
566,52	1755,11
566,71	1703,91
566,91	1759,21
567,11	1820,64
567,30	1718,25
567,50	1812,45
567,69	1763,30
567,89	1746,92
568,08	1697,77
568,28	1834,98
568,47	1640,42
568,67	1779,68
568,86	1732,58
569,06	1716,20
569,25	1804,26
569,45	1742,82
569,64	1775,59
569,84	1748,97
570,04	1730,53
570,23	1601,51
570,43	1720,29
570,62	1738,73
570,82	1863,65
571,01	1705,96
571,21	1691,62
571,40	1738,73
571,60	1761,25
571,79	1730,53
571,99	1779,68
572,18	1724,39
572,38	1710,05
572,57	1730,53
572,77	1765,35
572,96	1908,71
573,16	1814,50
573,35	1720,29
573,55	1890,28
573,74	1765,35
573,94	1691,62
574,13	1710,05
574,33	1810,40
574,52	1875,94
574,71	1703,91
574,91	1734,63
575,10	1718,25
575,30	1810,40
575,49	1734,63
575,69	1703,91
575,88	1732,58
576,08	1728,49
576,27	1789,92
576,47	1765,35
576,66	1828,84
576,86	1882,08
577,05	1746,92
577,25	1738,73
577,44	1943,52
577,64	1710,05
577,83	1869,80
578,02	1810,40
578,22	1832,93
578,41	1828,84
578,61	1804,26
578,80	1656,81
579,00	1814,50
579,19	1701,86
579,39	1837,03
579,58	1834,98
579,77	1822,69
579,97	1812,45
580,16	1853,41
580,36	1802,21
580,55	1839,08
580,75	1757,16
580,94	1765,35
581,13	1796,07
581,33	1886,18
581,52	1775,59
581,72	1871,84
581,91	1785,83
582,11	1763,30
582,30	1802,21
582,49	1771,49
582,69	1748,97
582,88	1785,83
583,08	1832,93
583,27	1837,03
583,47	1771,49
583,66	1681,38
583,85	1744,87
584,05	1759,21
584,24	1802,21
584,44	1794,02
584,63	1837,03
584,82	1765,35
585,02	1871,84
585,21	1839,08
585,41	1839,08
585,60	1837,03
585,79	1929,19
585,99	1882,08
586,18	1900,52
586,37	2185,18
586,57	3373,00
586,76	9967,46
586,96	24112,78
587,15	34381,30
587,34	40396,18
587,54	41932,16
587,73	36199,90
587,93	26160,75
588,12	21366,46
588,31	18327,27
588,51	16279,30
588,70	15095,58
588,89	14081,83
589,09	12547,90
589,28	10913,63
589,47	9414,51
589,67	7976,84
589,86	6463,39
590,06	4904,89
590,25	3950,53
590,44	3057,62
590,64	2551,77
590,83	2267,10
591,02	2045,92
591,22	1908,71
591,41	1912,80
591,60	1783,78
591,80	2004,96
591,99	1751,01
592,18	1751,01
592,38	1841,12
592,57	1839,08
592,76	1771,49
592,96	1787,88
593,15	1722,34
593,34	1886,18
593,54	1812,45
593,73	1787,88
593,92	1773,54
594,12	1765,35
594,31	1740,77
594,50	1816,55
594,70	1732,58
594,89	1894,37
595,08	1712,10
595,28	1787,88
595,47	1949,67
595,66	1814,50
595,86	1667,05
596,05	1779,68
596,24	1753,06
596,43	1787,88
596,63	1851,36
596,82	1740,77
597,01	1816,55
597,21	1855,46
597,40	1734,63
597,59	1765,35
597,79	1695,72
597,98	1832,93
598,17	1720,29
598,36	1773,54
598,56	1814,50
598,75	1734,63
598,94	1787,88
599,14	1800,16
599,33	1728,49
599,52	1775,59
599,71	1658,85
599,91	1787,88
600,10	1767,40
600,29	1773,54
600,48	1753,06
600,68	1812,45
600,87	1812,45
601,06	1744,87
601,26	1832,93
601,45	1779,68
601,64	1761,25
601,83	1816,55
602,03	1777,64
602,22	1763,30
602,41	1816,55
602,60	1892,32
602,80	1816,55
602,99	1732,58
603,18	1730,53
603,37	1779,68
603,57	1796,07
603,76	1804,26
603,95	1810,40
604,14	1757,16
604,34	1726,44
604,53	1724,39
604,72	1736,68
604,91	1732,58
605,10	1818,60
605,30	1720,29
605,49	1824,74
605,68	1791,97
605,87	1763,30
606,07	1746,92
606,26	1751,01
606,45	1746,92
606,64	1710,05
606,84	1732,58
607,03	1654,76
607,22	1843,17
607,41	1665,00
607,60	1681,38
607,80	1814,50
607,99	1775,59
608,18	1734,63
608,37	1730,53
608,56	1742,82
608,76	1730,53
608,95	1871,84
609,14	1689,57
609,33	1769,44
609,52	1814,50
609,72	1714,15
609,91	1771,49
610,10	1644,52
610,29	1849,32
610,48	1777,64
610,68	1800,16
610,87	1693,67
611,06	1757,16
611,25	1701,86
611,44	1806,31
611,63	1724,39
611,83	1742,82
612,02	1646,57
612,21	1812,45
612,40	1593,32
612,59	1701,86
612,79	1714,15
612,98	1775,59
613,17	1877,99
613,36	1730,53
613,55	1804,26
613,74	1732,58
613,93	1677,29
614,13	1701,86
614,32	1681,38
614,51	1787,88
614,70	1665,00
614,89	1705,96
615,08	1798,12
615,28	2041,82
615,47	1656,81
615,66	1722,34
615,85	1738,73
616,04	1824,74
616,23	1626,09
616,42	1742,82
616,62	1697,77
616,81	1767,40
617,00	1755,11
617,19	1740,77
617,38	1730,53
617,57	1751,01
617,76	1794,02
617,95	1755,11
618,15	1742,82
618,34	1869,80
618,53	1767,40
618,72	1744,87
618,91	1869,80
619,10	1787,88
619,29	1728,49
619,48	1730,53
619,68	1658,85
619,87	1730,53
620,06	1722,34
620,25	1775,59
620,44	1695,72
620,63	1718,25
620,82	1822,69
621,01	1712,10
621,20	1771,49
621,39	1839,08
621,59	1705,96
621,78	1767,40
621,97	1730,53
622,16	1736,68
622,35	1798,12
622,54	1726,44
622,73	1841,12
622,92	1681,38
623,11	1746,92
623,30	1699,81
623,49	1837,03
623,68	1718,25
623,88	1849,32
624,07	1738,73
624,26	1787,88
624,45	1767,40
624,64	1648,61
624,83	1755,11
625,02	1701,86
625,21	1787,88
625,40	1679,33
625,59	1779,68
625,78	1763,30
625,97	1837,03
626,16	1783,78
626,35	1775,59
626,54	1699,81
626,74	1875,94
626,93	1708,01
627,12	1648,61
627,31	1757,16
627,50	1705,96
627,69	1716,20
627,88	1689,57
628,07	1681,38
628,26	1648,61
628,45	1669,09
628,64	1665,00
628,83	1771,49
629,02	1636,33
629,21	1734,63
629,40	1777,64
629,59	1689,57
629,78	1662,95
629,97	1685,48
630,16	1687,53
630,35	1638,38
630,54	1824,74
630,73	1638,38
630,92	1660,90
631,11	1759,21
631,30	1785,83
631,49	1732,58
631,68	1773,54
631,87	1763,30
632,06	1624,04
632,25	1806,31
632,44	1656,81
632,63	1716,20
632,82	1669,09
633,01	1726,44
633,20	1714,15
633,39	1763,30
633,58	1654,76
633,77	1765,35
633,96	1759,21
634,15	1781,73
634,34	1820,64
634,53	1785,83
634,72	1681,38
634,91	1701,86
635,10	1708,01
635,29	1802,21
635,48	1722,34
635,67	1673,19
635,86	1646,57
636,05	1818,60
636,24	1722,34
636,43	1767,40
636,62	1781,73
636,81	1626,09
637,00	1753,06
637,19	1742,82
637,38	1785,83
637,57	1697,77
637,76	1687,53
637,95	1761,25
638,14	1705,96
638,33	1765,35
638,52	1673,19
638,71	1634,28
638,89	1667,05
639,08	1865,70
639,27	1755,11
639,46	1667,05
639,65	1785,83
639,84	1722,34
640,03	1822,69
640,22	1724,39
640,41	1855,46
640,60	1703,91
640,79	1730,53
640,98	1673,19
641,17	1832,93
641,36	1734,63
641,55	1730,53
641,74	1642,47
641,92	1683,43
642,11	1650,66
642,30	1669,09
642,49	1730,53
642,68	1751,01
642,87	1763,30
643,06	1783,78
643,25	1652,71
643,44	1669,09
643,63	1710,05
643,82	1732,58
644,00	1652,71
644,19	1730,53
644,38	1642,47
644,57	1771,49
644,76	1728,49
644,95	1820,64
645,14	1781,73
645,33	1732,58
645,52	1734,63
645,71	1675,24
645,89	1718,25
646,08	1779,68
646,27	1687,53
646,46	1834,98
646,65	1667,05
646,84	1802,21
647,03	1636,33
647,22	1791,97
647,40	1687,53
647,59	1669,09
647,78	1689,57
647,97	1728,49
648,16	1705,96
648,35	1814,50
648,54	1781,73
648,73	1665,00
648,91	1691,62
649,10	1671,14
649,29	1658,85
649,48	1714,15
649,67	1796,07
649,86	1773,54
650,05	1605,61
650,23	1744,87
650,42	1699,81
650,61	1789,92
650,80	1763,30
650,99	1871,84
651,18	1740,77
651,36	1718,25
651,55	1708,01
651,74	1812,45
651,93	1679,33
652,12	1679,33
652,31	1767,40
652,49	1765,35
652,68	1648,61
652,87	1783,78
653,06	1767,40
653,25	1832,93
653,44	1748,97
653,62	1722,34
653,81	1705,96
654,00	1730,53
654,19	1748,97
654,38	1857,51
654,56	1769,44
654,75	1710,05
654,94	1775,59
655,13	1714,15
655,32	1757,16
655,51	1777,64
655,69	1740,77
655,88	1755,11
656,07	1705,96
656,26	1705,96
656,45	1624,04
656,63	1699,81
656,82	1722,34
657,01	1767,40
657,20	1626,09
657,38	1777,64
657,57	1658,85
657,76	1691,62
657,95	1771,49
658,14	1681,38
658,32	1695,72
658,51	1624,04
658,70	1763,30
658,89	1738,73
659,08	1771,49
659,26	1812,45
659,45	1628,14
659,64	1812,45
659,83	1648,61
660,01	1910,75
660,20	1703,91
660,39	1832,93
660,58	1578,98
660,76	1820,64
660,95	1581,03
661,14	1765,35
661,33	1691,62
661,51	1697,77
661,70	1726,44
661,89	1673,19
662,08	1789,92
662,26	1665,00
662,45	1693,67
662,64	1845,22
662,83	1800,16
663,01	1630,18
663,20	1726,44
663,39	1822,69
663,58	1724,39
663,76	1794,02
663,95	1773,54
664,14	1697,77
664,32	1716,20
664,51	1697,77
664,70	1615,85
664,89	1777,64
665,07	1634,28
665,26	1744,87
665,45	1685,48
665,64	1755,11
665,82	1714,15
666,01	1822,69
666,20	1759,21
666,38	1814,50
666,57	1896,42
666,76	2238,43
666,95	4566,97
667,13	10297,19
667,32	15367,96
667,51	17903,34
667,69	19025,63
667,88	17813,23
668,07	12310,34
668,25	9682,80
668,44	8208,26
668,63	7335,82
668,81	6707,10
669,00	6201,25
669,19	5744,55
669,38	5050,29
669,56	4360,13
669,75	3880,90
669,94	3536,84
670,12	2973,65
670,31	2531,29
670,50	2297,82
670,68	2009,06
670,87	1894,37
671,06	1800,16
671,24	1816,55
671,43	1818,60
671,62	1738,73
671,80	1748,97
671,99	1794,02
672,18	1775,59
672,36	1841,12
672,55	1783,78
672,74	1789,92
672,92	1658,85
673,11	1742,82
673,29	1722,34
673,48	1796,07
673,67	1710,05
673,85	1812,45
674,04	1679,33
674,23	1744,87
674,41	1787,88
674,60	1677,29
674,79	1673,19
674,97	1714,15
675,16	1730,53
675,34	1736,68
675,53	1710,05
675,72	1781,73
675,90	1837,03
676,09	1697,77
676,28	1722,34
676,46	1593,32
676,65	1736,68
676,83	1695,72
677,02	1732,58
677,21	1742,82
677,39	1697,77
677,58	1650,66
677,77	1705,96
677,95	1656,81
678,14	1720,29
678,32	1699,81
678,51	1738,73
678,70	1902,56
678,88	1691,62
679,07	1708,01
679,25	1718,25
679,44	1738,73
679,63	1634,28
679,81	1757,16
680,00	1781,73
680,18	1728,49
680,37	1804,26
680,55	1781,73
680,74	1609,70
680,93	1636,33
681,11	1691,62
681,30	1736,68
681,48	1755,11
681,67	1708,01
681,85	1675,24
682,04	1726,44
682,23	1724,39
682,41	1722,34
682,60	1695,72
682,78	1675,24
682,97	1746,92
683,15	1689,57
683,34	1697,77
683,53	1800,16
683,71	1681,38
683,90	1769,44
684,08	1863,65
684,27	1697,77
684,45	1708,01
684,64	1814,50
684,82	1779,68
685,01	1730,53
685,19	1726,44
685,38	1849,32
685,57	1646,57
685,75	1761,25
685,94	1703,91
686,12	1636,33
686,31	1609,70
686,49	1828,84
686,68	1652,71
686,86	1775,59
687,05	1712,10
687,23	1777,64
687,42	1701,86
687,60	1665,00
687,79	1716,20
687,97	1812,45
688,16	1855,46
688,34	1826,79
688,53	1607,66
688,71	1662,95
688,90	1771,49
689,08	1679,33
689,27	1628,14
689,45	1746,92
689,64	1748,97
689,82	1753,06
690,01	1710,05
690,19	1736,68
690,38	1628,14
690,56	1687,53
690,75	1699,81
690,93	1732,58
691,12	1681,38
691,30	1722,34
691,49	1681,38
691,67	1662,95
691,86	1791,97
692,04	1681,38
692,23	1703,91
692,41	1751,01
692,60	1822,69
692,78	1767,40
692,97	1665,00
693,15	1773,54
693,34	1791,97
693,52	1785,83
693,71	1699,81
693,89	1667,05
694,08	1642,47
694,26	1755,11
694,44	1755,11
694,63	1708,01
694,81	1609,70
695,00	1765,35
695,18	1755,11
695,37	1814,50
695,55	1726,44
695,74	1757,16
695,92	1656,81
696,10	1863,65
696,29	1744,87
696,47	1763,30
696,66	1624,04
696,84	1697,77
697,03	1601,51
697,21	1816,55
697,40	2185,18
697,58	1853,41
697,76	1695,72
697,95	1755,11
698,13	1695,72
698,32	1658,85
698,50	1738,73
698,68	1789,92
698,87	1738,73
699,05	1765,35
699,24	1732,58
699,42	1669,09
699,61	1685,48
699,79	1724,39
699,97	1675,24
700,16	1708,01
700,34	1683,43
700,53	1804,26
700,71	1812,45
700,89	1781,73
701,08	1660,90
701,26	1800,16
701,45	2066,40
701,63	1724,39
701,81	1746,92
702,00	1691,62
702,18	1722,34
702,37	1718,25
702,55	1789,92
702,73	1693,67
702,92	1583,08
703,10	1738,73
703,28	1742,82
703,47	1681,38
703,65	1763,30
703,84	1697,77
704,02	1636,33
704,20	1822,69
704,39	1677,29
704,57	1714,15
704,75	1675,24
704,94	1767,40
705,12	1746,92
705,30	1714,15
705,49	2199,52
705,67	4495,29
705,86	9631,60
706,04	12508,99
706,22	14620,45
706,41	15126,30
706,59	13840,17
706,77	9490,29
706,96	7503,76
707,14	6479,77
707,32	5941,16
707,51	5564,33
707,69	4857,78
707,87	4368,32
708,06	3557,32
708,24	2920,40
708,42	2426,84
708,61	2275,29
708,79	1986,53
708,97	1841,12
709,16	1845,22
709,34	1783,78
709,52	1796,07
709,71	1683,43
709,89	1669,09
710,07	1626,09
710,26	1658,85
710,44	1740,77
710,62	1791,97
710,80	1740,77
710,99	1785,83
711,17	1769,44
711,35	1665,00
711,54	1671,14
711,72	1746,92
711,90	1755,11
712,09	1732,58
712,27	1746,92
712,45	1689,57
712,63	1740,77
712,82	1695,72
713,00	1703,91
713,18	1718,25
713,37	1734,63
713,55	1779,68
713,73	1804,26
713,91	1716,20
714,10	1755,11
714,28	1763,30
714,46	1742,82
714,65	1677,29
714,83	1746,92
715,01	1757,16
715,19	1656,81
715,38	1621,99
715,56	1673,19
715,74	1738,73
715,92	1691,62
716,11	1830,88
716,29	1644,52
716,47	1718,25
716,65	1730,53
716,84	1644,52
717,02	1734,63
717,20	1626,09
717,38	1665,00
717,57	1769,44
717,75	1783,78
717,93	1691,62
718,11	1759,21
718,30	1640,42
718,48	1724,39
718,66	1718,25
718,84	1720,29
719,03	1826,79
719,21	1691,62
719,39	1814,50
719,57	1732,58
719,75	1773,54
719,94	1740,77
720,12	1720,29
720,30	1746,92
720,48	1767,40
720,67	1673,19
720,85	1634,28
721,03	1738,73
721,21	1673,19
721,39	1791,97
721,58	1771,49
721,76	1744,87
721,94	1804,26
722,12	1740,77
722,30	1806,31
722,49	1710,05
722,67	1679,33
722,85	1732,58
723,03	1683,43
723,21	1718,25
723,40	1705,96
723,58	1798,12
723,76	1744,87
723,94	1734,63
724,12	1794,02
724,30	1787,88
724,49	1755,11
724,67	1673,19
724,85	1783,78
725,03	1624,04
725,21	1740,77
725,40	1726,44
725,58	1648,61
725,76	1781,73
725,94	1734,63
726,12	1691,62
726,30	1677,29
726,49	1708,01
726,67	1742,82
726,85	1699,81
727,03	1826,79
727,21	2115,55
727,39	2963,41
727,57	3839,94
727,76	4259,78
727,94	4564,92
728,12	4245,44
728,30	3653,58
728,48	2955,22
728,66	2766,81
728,84	2566,10
729,03	2293,72
729,21	2176,99
729,39	2000,87
729,57	1859,56
729,75	1812,45
729,93	1843,17
730,11	1689,57
730,30	1708,01
730,48	1728,49
730,66	1810,40
730,84	1722,34
731,02	1724,39
731,20	1714,15
731,38	1734,63
731,56	1658,85
731,74	1689,57
731,93	1740,77
732,11	1652,71
732,29	1714,15
732,47	1779,68
732,65	1818,60
732,83	1708,01
733,01	1802,21
733,19	1722,34
733,37	1773,54
733,56	1734,63
733,74	1656,81
733,92	1757,16
734,10	1697,77
734,28	1748,97
734,46	1609,70
734,64	1675,24
734,82	1685,48
735,00	1658,85
735,18	1681,38
735,36	1753,06
735,54	1691,62
735,73	1720,29
735,91	1714,15
736,09	1720,29
736,27	1615,85
736,45	1757,16
736,63	1660,90
736,81	1722,34
736,99	1755,11
737,17	1888,23
737,35	1617,90
737,53	1685,48
737,71	1714,15
737,89	1791,97
738,07	1634,28
738,25	1673,19
738,43	1636,33
738,61	1685,48
738,80	1734,63
738,98	1669,09
739,16	1658,85
739,34	1630,18
739,52	1734,63
739,70	1759,21
739,88	1845,22
740,06	1804,26
740,24	1562,60
740,42	1820,64
740,60	1621,99
740,78	1619,94
740,96	1542,12
741,14	1730,53
741,32	1724,39
741,50	1650,66
741,68	1800,16
741,86	1708,01
742,04	1681,38
742,22	1695,72
742,40	1761,25
742,58	1736,68
742,76	1689,57
742,94	1791,97
743,12	1669,09
743,30	1730,53
743,48	1787,88
743,66	1576,94
743,84	1816,55
744,02	1705,96
744,20	1738,73
744,38	1675,24
744,56	1742,82
744,74	1746,92
744,92	1714,15
745,10	1839,08
745,28	1751,01
745,46	1789,92
745,64	1687,53
745,82	1759,21
746,00	1712,10
746,18	1736,68
746,36	1683,43
746,54	1705,96
746,72	1630,18
746,90	1665,00
747,08	1775,59
747,26	1660,90
747,44	1683,43
747,62	1677,29
747,80	1708,01
747,98	1701,86
748,15	1667,05
748,33	1802,21
748,51	1755,11
748,69	1757,16
748,87	1675,24
749,05	1656,81
749,23	1767,40
749,41	1771,49
749,59	1697,77
749,77	1726,44
749,95	1652,71
750,13	1730,53
750,31	1726,44
750,49	1734,63
750,67	1724,39
750,85	1724,39
751,03	1644,52
751,20	1796,07
751,38	1773,54
751,56	1658,85
751,74	1757,16
751,92	1759,21
752,10	1726,44
752,28	1779,68
752,46	1640,42
752,64	1746,92
752,82	1738,73
753,00	1810,40
753,18	1701,86
753,35	1669,09
753,53	1685,48
753,71	1615,85
753,89	1740,77
754,07	1697,77
754,25	1720,29
754,43	1781,73
754,61	1714,15
754,79	1771,49
754,97	1662,95
755,14	1808,36
755,32	1652,71
755,50	1796,07
755,68	1730,53
755,86	1691,62
756,04	1705,96
756,22	1658,85
756,40	1705,96
756,57	1796,07
756,75	1708,01
756,93	1837,03
757,11	1732,58
757,29	1693,67
757,47	1714,15
757,65	1642,47
757,82	1624,04
758,00	1675,24
758,18	1675,24
758,36	1712,10
758,54	1820,64
758,72	1640,42
758,90	1730,53
759,07	1726,44
759,25	1693,67
759,43	1755,11
759,61	1710,05
759,79	2117,60
759,97	1785,83
760,15	1619,94
760,32	1671,14
760,50	1726,44
760,68	1775,59
760,86	1658,85
761,04	1751,01
761,22	1689,57
761,39	1742,82
761,57	1806,31
761,75	1736,68
761,93	1783,78
762,11	1744,87
762,28	1726,44
762,46	1626,09
762,64	1806,31
762,82	1720,29
763,00	1669,09
763,18	1847,27
763,35	1656,81
763,53	1769,44
763,71	1693,67
763,89	1732,58
764,07	1720,29
764,24	1675,24
764,42	1736,68
764,60	1755,11
764,78	1718,25
764,96	1744,87
765,13	1771,49
765,31	1722,34
765,49	1712,10
765,67	1673,19
765,84	1746,92
766,02	1738,73
766,20	1578,98
766,38	1691,62
766,56	1675,24
766,73	1781,73
766,91	1662,95
767,09	1681,38
767,27	1800,16
767,44	1638,38
767,62	1742,82
767,80	1732,58
767,98	1740,77
768,15	1808,36
768,33	1748,97
768,51	1820,64
768,69	1697,77
768,87	1789,92
769,04	1703,91
769,22	1845,22
769,40	1834,98
769,58	1875,94
769,75	1689,57
769,93	1789,92
770,11	1744,87
770,28	1687,53
770,46	1781,73
770,64	1748,97
770,82	1689,57
770,99	1785,83
771,17	1734,63
771,35	1759,21
771,53	1730,53
771,70	1669,09
771,88	1693,67
772,06	1744,87
772,23	1748,97
772,41	1630,18
772,59	1699,81
772,77	1722,34
772,94	1710,05
773,12	1697,77
773,30	1673,19
773,47	1742,82
773,65	1753,06
773,83	1914,85
774,01	1718,25
774,18	1681,38
774,36	1658,85
774,54	1562,60
774,71	1716,20
774,89	1656,81
775,07	1636,33
775,24	1740,77
775,42	1669,09
775,60	1742,82
775,78	1617,90
775,95	1683,43
776,13	1630,18
776,31	1605,61
776,48	1800,16
776,66	1794,02
776,84	1632,23
777,01	1718,25
777,19	1642,47
777,37	1630,18
777,54	1748,97
777,72	1822,69
777,90	1810,40
778,07	1665,00
778,25	1873,89
778,43	1701,86
778,60	1738,73
778,78	1742,82
778,96	1783,78
779,13	1695,72
779,31	1832,93
779,49	1757,16
779,66	1677,29
779,84	1669,09
780,01	1728,49
780,19	1681,38
780,37	1781,73
780,54	1761,25
780,72	1640,42
780,90	1703,91
781,07	1669,09
781,25	1654,76
781,43	1816,55
781,60	1650,66
781,78	1701,86
781,95	1765,35
782,13	1679,33
782,31	1779,68
782,48	1617,90
782,66	1746,92
782,83	1806,31
783,01	1794,02
783,19	1724,39
783,36	1708,01
783,54	1687,53
783,72	1763,30
783,89	1695,72
784,07	1697,77
784,24	1705,96
784,42	1869,80
784,60	1748,97
784,77	1689,57
784,95	1538,02
785,12	1677,29
785,30	1708,01
785,47	1687,53
785,65	1613,80
785,83	1697,77
786,00	1742,82
786,18	1724,39
786,35	1621,99
786,53	1665,00
786,71	1777,64
786,88	1716,20
787,06	1789,92
787,23	1656,81
787,41	1669,09
787,58	1656,81
787,76	1703,91
787,94	1701,86
788,11	1736,68
788,29	1658,85
788,46	1644,52
788,64	1607,66
788,81	1689,57
788,99	1722,34
789,16	1738,73
789,34	1736,68
789,52	1710,05
789,69	1640,42
789,87	1599,46
790,04	1621,99
790,22	1734,63
790,39	1841,12
790,57	1699,81
790,74	1615,85
790,92	1724,39
791,09	1652,71
791,27	1726,44
791,44	1884,13
791,62	1730,53
791,79	1796,07
791,97	1644,52
792,15	1902,56
792,32	1763,30
792,50	1726,44
792,67	1789,92
792,85	1781,73
793,02	1779,68
793,20	1646,57
793,37	1628,14
793,55	1701,86
793,72	1728,49
793,90	1730,53
794,07	1705,96
794,25	1695,72
794,42	1652,71
794,60	1665,00
794,77	1751,01
794,95	1732,58
795,12	1765,35
795,30	1679,33
795,47	1632,23
795,65	1880,04
795,82	1763,30
796,00	1638,38
796,17	1644,52
796,34	1714,15
796,52	1689,57
796,69	1763,30
796,87	1701,86
797,04	1779,68
797,22	1755,11
797,39	1734,63
797,57	1740,77
797,74	1775,59
797,92	1636,33
798,09	1609,70
798,27	1769,44
798,44	1751,01
798,62	1673,19
798,79	1757,16
798,96	1734,63
799,14	1673,19
799,31	1871,84
799,49	1703,91
799,66	1681,38
799,84	1732,58
800,01	1693,67
800,19	1751,01
800,36	1636,33
800,53	1736,68
800,71	1724,39
800,88	1763,30
801,06	1642,47
801,23	1654,76
801,41	1734,63
801,58	1728,49
801,75	1701,86
801,93	1660,90
802,10	1781,73
802,28	1679,33
802,45	1697,77
802,63	1781,73
802,80	1773,54
802,97	1742,82
803,15	1724,39
803,32	1656,81
803,50	1613,80
803,67	1652,71
803,84	1708,01
804,02	1734,63
804,19	1658,85
804,37	1677,29
804,54	1730,53
804,71	1611,75
804,89	1656,81
805,06	1640,42
805,24	1636,33
805,41	1667,05
805,58	1718,25
805,76	1855,46
805,93	1746,92
806,10	1794,02
806,28	1763,30
806,45	1748,97
806,63	1683,43
806,80	1714,15
806,97	1705,96
807,15	1632,23
807,32	1732,58
807,49	1708,01
807,67	1677,29
807,84	1755,11
808,01	1611,75
808,19	1804,26
808,36	1798,12
808,54	1685,48
808,71	1669,09
808,88	1662,95
809,06	1732,58
809,23	1824,74
809,40	1697,77
809,58	1714,15
809,75	1779,68
809,92	1630,18
810,10	1859,56
810,27	1693,67
810,44	1703,91
810,62	1828,84
810,79	1695,72
810,96	1689,57
811,14	1662,95
811,31	1742,82
811,48	1736,68
811,66	1687,53
811,83	1818,60
812,00	1751,01
812,18	1816,55
812,35	1804,26
812,52	1669,09
812,69	1703,91
812,87	1683,43
813,04	1779,68
813,21	1722,34
813,39	1718,25
813,56	1621,99
813,73	1783,78
813,91	1712,10
814,08	1816,55
814,25	1705,96
814,42	1634,28
814,60	1712,10
814,77	1759,21
814,94	1730,53
815,12	1746,92
815,29	1820,64
815,46	1658,85
815,63	1681,38
815,81	1740,77
815,98	1736,68
816,15	1671,14
816,33	1683,43
816,50	1701,86
816,67	1648,61
816,84	1746,92
817,02	1634,28
817,19	1660,90
817,36	1662,95
817,53	1734,63
817,71	1699,81
817,88	1697,77
818,05	1724,39
818,22	1703,91
818,40	1789,92
818,57	1636,33
818,74	1740,77
818,91	1683,43
819,09	1773,54
819,26	1763,30
819,43	1679,33
819,60	1695,72
819,78	1812,45
819,95	1773,54
820,12	1632,23
820,29	1746,92
820,47	1755,11
820,64	1660,90
820,81	1677,29
820,98	1609,70
821,15	1619,94
821,33	1705,96
821,50	1611,75
821,67	1708,01
821,84	1691,62
822,02	1781,73
822,19	1763,30
822,36	1648,61
822,53	1753,06
822,70	1624,04
822,88	1650,66
823,05	1779,68
823,22	1656,81
823,39	1751,01
823,56	1656,81
823,74	1877,99
823,91	1681,38
824,08	1611,75
824,25	1665,00
824,42	1738,73
824,60	1644,52
824,77	1701,86
824,94	1679,33
825,11	1751,01
825,28	1628,14
825,45	1724,39
825,63	1755,11
825,80	1683,43
825,97	1802,21
826,14	1771,49
826,31	1605,61
826,48	1746,92
826,66	1646,57
826,83	1652,71
827,00	1744,87
827,17	1697,77
827,34	1650,66
827,51	1673,19
827,69	1636,33
827,86	1665,00
828,03	1744,87
828,20	1697,77
828,37	1693,67
828,54	1693,67
828,71	1767,40
828,89	1818,60
829,06	1773,54
829,23	1771,49
829,40	1599,46
829,57	1667,05
829,74	1687,53
829,91	1667,05
830,09	1710,05
830,26	1753,06
830,43	1753,06
830,60	1794,02
830,77	1738,73
830,94	1716,20
831,11	1728,49
831,28	1712,10
831,46	1818,60
831,63	1718,25
831,80	1738,73
831,97	1634,28
832,14	1650,66
832,31	1714,15
832,48	1681,38
832,65	1697,77
832,82	1759,21
832,99	1695,72
833,17	1632,23
833,34	1787,88
833,51	1746,92
833,68	1568,74
833,85	1787,88
834,02	1640,42
834,19	1603,56
834,36	1662,95
834,53	1665,00
834,70	1800,16
834,87	1777,64
835,04	1734,63
835,22	1562,60
835,39	1640,42
835,56	1673,19
835,73	1693,67
835,90	1693,67
836,07	1681,38
836,24	1789,92
836,41	1673,19
836,58	1667,05
836,75	1787,88
836,92	1738,73
837,09	1650,66
837,26	1781,73
837,43	1714,15
837,60	1638,38
837,77	1732,58
837,94	1759,21
838,12	1763,30
838,29	1726,44
838,46	1638,38
838,63	1583,08
838,80	1804,26
838,97	1763,30
839,14	1726,44
839,31	1624,04
839,48	1730,53
839,65	1642,47
839,82	1763,30
839,99	1716,20
840,16	1751,01
840,33	1677,29
840,50	1722,34
840,67	1585,13
840,84	1640,42
841,01	1779,68
841,18	1662,95
841,35	1689,57
841,52	1662,95
841,69	1847,27
841,86	1705,96
842,03	1611,75
842,20	1705,96
842,37	1634,28
842,54	1685,48
842,71	1695,72
842,88	1615,85
843,05	1730,53
843,22	1662,95
843,39	1767,40
843,56	1617,90
843,73	1693,67
843,90	1714,15
844,07	1699,81
844,24	1685,48
844,41	1779,68
844,58	1734,63
844,75	1714,15
844,92	1722,34
845,09	1677,29
845,26	1701,86
845,43	1804,26
845,60	1695,72
845,77	1769,44
845,94	1730,53
846,10	1673,19
846,27	1601,51
846,44	1609,70
846,61	1673,19
846,78	1724,39
846,95	1718,25
847,12	1675,24
847,29	1705,96
847,46	1679,33
847,63	1720,29
847,80	1644,52
847,97	1681,38
848,14	1787,88
848,31	1687,53
848,48	1644,52
848,65	1746,92
848,82	1578,98
848,98	1945,57
849,15	1695,72
849,32	1839,08
849,49	1734,63
849,66	1726,44
849,83	1681,38
850,00	1624,04
850,17	1697,77
850,34	1665,00
850,51	1671,14
850,68	1679,33
850,85	1816,55
851,01	1730,53
851,18	1740,77
851,35	1691,62
851,52	1699,81
851,69	1746,92
851,86	1691,62
852,03	1785,83
852,20	1726,44
852,37	1714,15
852,53	1609,70
852,70	1753,06
852,87	1720,29
853,04	1779,68
853,21	1710,05
853,38	1769,44
853,55	1802,21
853,72	1759,21
853,89	1673,19
854,05	1669,09
854,22	1640,42
854,39	1611,75
854,56	1732,58
854,73	1740,77
854,90	1662,95
855,07	1740,77
855,23	1716,20
855,40	1656,81
855,57	1705,96
855,74	1648,61
855,91	1843,17
856,08	1634,28
856,25	1660,90
856,41	1718,25
856,58	1724,39
856,75	1685,48
856,92	1632,23
857,09	1710,05
857,26	1597,42
857,42	1671,14
857,59	1718,25
857,76	1710,05
857,93	1703,91
858,10	1796,07
858,27	1708,01
858,43	1691,62
858,60	1722,34
858,77	1566,70
858,94	1720,29
859,11	1718,25
859,27	1662,95
859,44	1685,48
859,61	1812,45
859,78	1712,10
859,95	1681,38
860,12	1609,70
860,28	1853,41
860,45	1890,28
860,62	1671,14
860,79	1638,38
860,95	1644,52
861,12	1734,63
861,29	1648,61
861,46	1679,33
861,63	1804,26
861,79	1685,48
861,96	1660,90
862,13	1689,57
862,30	1736,68
862,47	1708,01
862,63	1662,95
862,80	1703,91
862,97	1716,20
863,14	1710,05
863,30	1703,91
863,47	1718,25
863,64	1767,40
863,81	1751,01
863,97	1638,38
864,14	1722,34
864,31	1708,01
864,48	1789,92
864,65	1675,24
864,81	1791,97
864,98	1687,53
865,15	1718,25
865,32	1738,73
865,48	1718,25
865,65	1763,30
865,82	1642,47
865,98	1744,87
866,15	1738,73
866,32	1748,97
866,49	1746,92
866,65	1814,50
866,82	1708,01
866,99	1722,34
867,16	1628,14
867,32	1724,39
867,49	1656,81
867,66	1662,95
867,83	1705,96
867,99	1681,38
868,16	1708,01
868,33	1574,89
868,49	1693,67
868,66	1689,57
868,83	1658,85
868,99	1746,92
869,16	1730,53
869,33	1861,60
869,50	1759,21
869,66	1751,01
869,83	1652,71
870,00	1611,75
870,16	1748,97
870,33	1621,99
870,50	1761,25
870,66	1718,25
870,83	1839,08
871,00	1708,01
871,17	1708,01
871,33	1701,86
871,50	1716,20
871,67	1669,09
871,83	1763,30
872,00	1773,54
872,17	1658,85
872,33	1751,01
872,50	1730,53
872,67	1624,04
872,83	1718,25
873,00	1753,06
873,17	1652,71
873,33	1667,05
873,50	1826,79
873,67	1642,47
873,83	1730,53
874,00	1742,82
874,16	1810,40
874,33	1730,53
874,50	1681,38
874,66	1781,73
874,83	1728,49
875,00	1677,29
875,16	1816,55
875,33	1736,68
875,50	1656,81
875,66	1607,66
875,83	1732,58
875,99	1679,33
876,16	1689,57
876,33	1642,47
876,49	1697,77
876,66	1679,33
876,83	1701,86
876,99	1599,46
877,16	1656,81
877,32	1718,25
877,49	1753,06
877,66	1734,63
877,82	1816,55
877,99	1765,35
878,15	1791,97
878,32	1718,25
878,49	1789,92
878,65	1714,15
878,82	1796,07
878,98	1656,81
879,15	1787,88
879,32	1757,16
879,48	1796,07
879,65	1718,25
879,81	1679,33
879,98	1624,04
880,15	1744,87
880,31	1730,53
880,48	1720,29
880,64	1734,63
880,81	1765,35
880,97	1812,45
881,14	1703,91
881,31	1634,28
881,47	1828,84
881,64	1691,62
881,80	1685,48
881,97	1716,20
882,13	1746,92
882,30	1691,62
882,47	1644,52
882,63	1681,38
882,80	1685,48
882,96	1677,29
883,13	1775,59
883,29	1708,01
883,46	1748,97
883,62	1832,93
883,79	1796,07
883,95	1734,63
884,12	1665,00
884,29	1740,77
884,45	1701,86
884,62	1714,15
884,78	1705,96
884,95	1722,34
885,11	1728,49
885,28	1789,92
885,44	1677,29
885,61	1763,30
885,77	1810,40
885,94	1718,25
886,10	1669,09
886,27	1714,15
886,43	1812,45
886,60	1783,78
886,76	1734,63
886,93	1632,23
887,09	1775,59
887,26	1613,80
887,42	1761,25
887,59	1804,26
887,75	1806,31
887,92	1761,25
888,08	1712,10
888,25	1875,94
888,41	1798,12
888,58	1757,16
888,74	1628,14
888,91	1710,05
>>>>>End Processed Spectral Data<<<<<
