SpectraSuite Data File
++++++++++++++++++++++++++++++++++++
Date: Mon Jun 06 12:11:37 CEST 2016
User: root
Dark Spectrum Present: No
Reference Spectrum Present: No
Number of Sampled Component Spectra: 1
Spectrometers: USB4C02835
Integration Time (usec): 100000 (USB4C02835)
Spectra Averaged: 1 (USB4C02835)
Boxcar Smoothing: 0 (USB4C02835)
Correct for Electrical Dark: No (USB4C02835)
Strobe/Lamp Enabled: No (USB4C02835)
Correct for Detector Non-linearity: No (USB4C02835)
Correct for Stray Light: No (USB4C02835)
Number of Pixels in Processed Spectrum: 3648
>>>>>Begin Processed Spectral Data<<<<<
177,47	1452,01
177,69	1452,01
177,91	1452,01
178,13	1468,39
178,36	1421,29
178,58	1673,19
178,80	1705,96
179,02	1634,28
179,24	1632,23
179,46	1724,39
179,68	1683,43
179,90	1640,42
180,13	1703,91
180,35	1669,09
180,57	1650,66
180,79	1767,40
181,01	1685,48
181,23	1736,68
181,45	1759,21
181,67	1642,47
181,90	1673,19
182,12	1636,33
182,34	1621,99
182,56	1665,00
182,78	1695,72
183,00	1705,96
183,22	1679,33
183,44	1585,13
183,66	1771,49
183,89	1763,30
184,11	1746,92
184,33	1691,62
184,55	1740,77
184,77	1732,58
184,99	1699,81
185,21	1683,43
185,43	1755,11
185,65	1683,43
185,87	1652,71
186,10	1853,41
186,32	1783,78
186,54	1722,34
186,76	1662,95
186,98	1728,49
187,20	1638,38
187,42	1691,62
187,64	1677,29
187,86	1689,57
188,08	1710,05
188,30	1683,43
188,52	1642,47
188,75	1818,60
188,97	1738,73
189,19	1648,61
189,41	1656,81
189,63	1691,62
189,85	1601,51
190,07	1605,61
190,29	1675,24
190,51	1685,48
190,73	1640,42
190,95	1834,98
191,17	1654,76
191,39	1599,46
191,61	1626,09
191,84	1665,00
192,06	1701,86
192,28	1636,33
192,50	1834,98
192,72	1761,25
192,94	1683,43
193,16	1714,15
193,38	1701,86
193,60	1632,23
193,82	1607,66
194,04	1697,77
194,26	1681,38
194,48	1687,53
194,70	1697,77
194,92	1671,14
195,14	1728,49
195,36	1675,24
195,58	1689,57
195,80	1708,01
196,02	1679,33
196,24	1665,00
196,46	1714,15
196,69	1675,24
196,91	1873,89
197,13	1669,09
197,35	1642,47
197,57	1677,29
197,79	1708,01
198,01	1671,14
198,23	1699,81
198,45	1634,28
198,67	1619,94
198,89	1673,19
199,11	1783,78
199,33	1701,86
199,55	1593,32
199,77	1675,24
199,99	1660,90
200,21	1695,72
200,43	1708,01
200,65	1673,19
200,87	1552,36
201,09	1642,47
201,31	1689,57
201,53	1714,15
201,75	1736,68
201,97	1699,81
202,19	1730,53
202,41	1726,44
202,63	1734,63
202,85	1628,14
203,07	1726,44
203,29	1683,43
203,51	1685,48
203,73	1652,71
203,95	1853,41
204,17	1665,00
204,39	1781,73
204,61	1654,76
204,83	1675,24
205,05	1665,00
205,27	1767,40
205,49	1814,50
205,71	1681,38
205,93	1650,66
206,15	1648,61
206,37	1691,62
206,59	1626,09
206,81	1638,38
207,03	1708,01
207,25	1591,27
207,47	1800,16
207,69	1683,43
207,91	1785,83
208,13	1796,07
208,34	1677,29
208,56	1630,18
208,78	1734,63
209,00	1681,38
209,22	1669,09
209,44	1658,85
209,66	1613,80
209,88	1640,42
210,10	1658,85
210,32	1665,00
210,54	1779,68
210,76	1753,06
210,98	1810,40
211,20	1636,33
211,42	1714,15
211,64	1718,25
211,86	1753,06
212,08	1724,39
212,30	1720,29
212,52	1705,96
212,74	1714,15
212,96	1677,29
213,17	1789,92
213,39	1710,05
213,61	1847,27
213,83	1732,58
214,05	1646,57
214,27	1722,34
214,49	1656,81
214,71	1652,71
214,93	1708,01
215,15	1697,77
215,37	1783,78
215,59	1597,42
215,81	1693,67
216,03	1701,86
216,24	1699,81
216,46	1673,19
216,68	1724,39
216,90	1701,86
217,12	1738,73
217,34	1695,72
217,56	1677,29
217,78	1818,60
218,00	1734,63
218,22	1740,77
218,44	1736,68
218,66	1671,14
218,87	1730,53
219,09	1677,29
219,31	1677,29
219,53	1658,85
219,75	1681,38
219,97	1638,38
220,19	1775,59
220,41	1662,95
220,63	1736,68
220,85	1738,73
221,06	1712,10
221,28	1718,25
221,50	1695,72
221,72	1669,09
221,94	1734,63
222,16	1695,72
222,38	1671,14
222,60	1806,31
222,82	1601,51
223,03	1767,40
223,25	1658,85
223,47	1714,15
223,69	1843,17
223,91	1689,57
224,13	1681,38
224,35	1742,82
224,57	1798,12
224,78	1732,58
225,00	1640,42
225,22	1738,73
225,44	1703,91
225,66	1705,96
225,88	1648,61
226,10	1728,49
226,32	1771,49
226,53	1824,74
226,75	1654,76
226,97	1699,81
227,19	1650,66
227,41	1683,43
227,63	1617,90
227,85	1636,33
228,06	1714,15
228,28	1689,57
228,50	1746,92
228,72	1660,90
228,94	1759,21
229,16	1560,55
229,37	1642,47
229,59	1646,57
229,81	1759,21
230,03	1648,61
230,25	1601,51
230,47	1566,70
230,69	1677,29
230,90	1728,49
231,12	1634,28
231,34	1705,96
231,56	1775,59
231,78	1615,85
232,00	1738,73
232,21	1681,38
232,43	1681,38
232,65	1611,75
232,87	1697,77
233,09	1615,85
233,30	1632,23
233,52	1728,49
233,74	1712,10
233,96	1679,33
234,18	1746,92
234,40	1691,62
234,61	1804,26
234,83	1535,98
235,05	1624,04
235,27	1839,08
235,49	1722,34
235,70	1626,09
235,92	1736,68
236,14	1701,86
236,36	1853,41
236,58	1595,37
236,79	1755,11
237,01	1611,75
237,23	1710,05
237,45	1759,21
237,67	1710,05
237,88	1718,25
238,10	1853,41
238,32	1617,90
238,54	1621,99
238,76	1716,20
238,97	1671,14
239,19	1607,66
239,41	1746,92
239,63	1681,38
239,85	1662,95
240,06	1738,73
240,28	1642,47
240,50	1730,53
240,72	1703,91
240,93	1759,21
241,15	1699,81
241,37	1726,44
241,59	1736,68
241,81	1740,77
242,02	1703,91
242,24	1697,77
242,46	1730,53
242,68	1570,79
242,89	1779,68
243,11	1806,31
243,33	1689,57
243,55	1675,24
243,76	1728,49
243,98	1650,66
244,20	1714,15
244,42	1697,77
244,64	1656,81
244,85	1611,75
245,07	1681,38
245,29	1705,96
245,51	1658,85
245,72	1632,23
245,94	1685,48
246,16	1689,57
246,38	1716,20
246,59	1656,81
246,81	1697,77
247,03	1677,29
247,24	1628,14
247,46	1650,66
247,68	1681,38
247,90	1708,01
248,11	1667,05
248,33	1722,34
248,55	1675,24
248,77	1601,51
248,98	1738,73
249,20	1757,16
249,42	1665,00
249,64	1681,38
249,85	1716,20
250,07	1595,37
250,29	1730,53
250,50	1757,16
250,72	1583,08
250,94	1662,95
251,16	1779,68
251,37	1679,33
251,59	1765,35
251,81	1665,00
252,02	1783,78
252,24	1652,71
252,46	1734,63
252,68	1689,57
252,89	1665,00
253,11	1593,32
253,33	1732,58
253,54	1837,03
253,76	1587,18
253,98	1656,81
254,20	1617,90
254,41	1601,51
254,63	1671,14
254,85	1679,33
255,06	1619,94
255,28	1761,25
255,50	1628,14
255,71	1748,97
255,93	1609,70
256,15	1615,85
256,36	1718,25
256,58	1591,27
256,80	1677,29
257,02	1679,33
257,23	1673,19
257,45	1714,15
257,67	1769,44
257,88	1695,72
258,10	1732,58
258,32	1640,42
258,53	1714,15
258,75	1724,39
258,97	1656,81
259,18	1679,33
259,40	1687,53
259,62	1736,68
259,83	1820,64
260,05	1726,44
260,27	2017,25
260,48	1751,01
260,70	1634,28
260,92	1691,62
261,13	1667,05
261,35	1671,14
261,57	1673,19
261,78	1609,70
262,00	1599,46
262,22	1699,81
262,43	1755,11
262,65	1720,29
262,86	1677,29
263,08	1789,92
263,30	1738,73
263,51	1638,38
263,73	1695,72
263,95	1732,58
264,16	1671,14
264,38	1726,44
264,60	1708,01
264,81	1652,71
265,03	1697,77
265,25	1705,96
265,46	1665,00
265,68	1677,29
265,89	1796,07
266,11	1562,60
266,33	1724,39
266,54	1685,48
266,76	1722,34
266,98	1732,58
267,19	1730,53
267,41	1671,14
267,62	1730,53
267,84	1597,42
268,06	1689,57
268,27	1675,24
268,49	1687,53
268,70	1757,16
268,92	1781,73
269,14	1675,24
269,35	1630,18
269,57	1611,75
269,79	1691,62
270,00	1681,38
270,22	1695,72
270,43	1554,41
270,65	1587,18
270,87	1740,77
271,08	1714,15
271,30	1767,40
271,51	1701,86
271,73	1775,59
271,95	1736,68
272,16	1662,95
272,38	1673,19
272,59	1654,76
272,81	1691,62
273,02	1701,86
273,24	1722,34
273,46	1691,62
273,67	1669,09
273,89	1621,99
274,10	1671,14
274,32	1763,30
274,54	1724,39
274,75	1650,66
274,97	1646,57
275,18	1808,36
275,40	1705,96
275,61	1626,09
275,83	1730,53
276,05	1626,09
276,26	1605,61
276,48	1746,92
276,69	1685,48
276,91	1636,33
277,12	1820,64
277,34	1761,25
277,55	1726,44
277,77	1669,09
277,99	1705,96
278,20	1611,75
278,42	1611,75
278,63	1619,94
278,85	1638,38
279,06	1597,42
279,28	1769,44
279,49	1732,58
279,71	1746,92
279,93	1669,09
280,14	1609,70
280,36	1658,85
280,57	1791,97
280,79	1734,63
281,00	1570,79
281,22	1675,24
281,43	1720,29
281,65	1572,84
281,86	1634,28
282,08	1697,77
282,29	1769,44
282,51	1587,18
282,73	1550,31
282,94	1605,61
283,16	1757,16
283,37	1800,16
283,59	1621,99
283,80	1710,05
284,02	1705,96
284,23	1654,76
284,45	1617,90
284,66	1607,66
284,88	1695,72
285,09	1691,62
285,31	1794,02
285,52	1746,92
285,74	1566,70
285,95	1773,54
286,17	1796,07
286,38	1783,78
286,60	1677,29
286,81	1630,18
287,03	1708,01
287,24	1683,43
287,46	1710,05
287,67	1716,20
287,89	1748,97
288,10	1744,87
288,32	1662,95
288,53	1789,92
288,75	1701,86
288,96	1673,19
289,18	1607,66
289,39	1665,00
289,61	1791,97
289,82	1746,92
290,04	1728,49
290,25	1683,43
290,47	1724,39
290,68	1695,72
290,90	1738,73
291,11	1550,31
291,33	1726,44
291,54	1634,28
291,76	1636,33
291,97	1691,62
292,18	1781,73
292,40	1687,53
292,61	1656,81
292,83	1802,21
293,04	1751,01
293,26	1740,77
293,47	1685,48
293,69	1658,85
293,90	1673,19
294,12	1738,73
294,33	1636,33
294,55	1632,23
294,76	1732,58
294,97	1767,40
295,19	1832,93
295,40	1632,23
295,62	1736,68
295,83	1734,63
296,05	1697,77
296,26	1681,38
296,48	1665,00
296,69	1685,48
296,90	1667,05
297,12	1740,77
297,33	1716,20
297,55	1728,49
297,76	1699,81
297,98	1763,30
298,19	1640,42
298,41	1712,10
298,62	1751,01
298,83	1796,07
299,05	1708,01
299,26	1640,42
299,48	1689,57
299,69	1722,34
299,90	1681,38
300,12	1603,56
300,33	1791,97
300,55	1757,16
300,76	1763,30
300,98	1648,61
301,19	1685,48
301,40	1699,81
301,62	1730,53
301,83	1726,44
302,05	1691,62
302,26	1691,62
302,47	1763,30
302,69	1638,38
302,90	1679,33
303,12	1626,09
303,33	1724,39
303,54	1839,08
303,76	1718,25
303,97	1615,85
304,19	1814,50
304,40	1613,80
304,61	1757,16
304,83	1767,40
305,04	1648,61
305,26	1656,81
305,47	1701,86
305,68	1566,70
305,90	1609,70
306,11	1753,06
306,33	1650,66
306,54	1630,18
306,75	1673,19
306,97	1681,38
307,18	1630,18
307,39	1673,19
307,61	1685,48
307,82	1728,49
308,04	1630,18
308,25	1650,66
308,46	1681,38
308,68	1624,04
308,89	1691,62
309,10	1771,49
309,32	1746,92
309,53	1691,62
309,74	1705,96
309,96	1646,57
310,17	1755,11
310,39	1683,43
310,60	1712,10
310,81	1732,58
311,03	1648,61
311,24	1746,92
311,45	1632,23
311,67	1816,55
311,88	1742,82
312,09	1695,72
312,31	1705,96
312,52	1679,33
312,73	1673,19
312,95	1646,57
313,16	1695,72
313,37	1722,34
313,59	1742,82
313,80	1689,57
314,01	1773,54
314,23	1607,66
314,44	1638,38
314,65	1671,14
314,87	1646,57
315,08	1675,24
315,29	1681,38
315,51	1679,33
315,72	1630,18
315,93	1728,49
316,15	1710,05
316,36	1693,67
316,57	1667,05
316,79	1693,67
317,00	1632,23
317,21	1712,10
317,43	1689,57
317,64	1697,77
317,85	1662,95
318,07	1642,47
318,28	1753,06
318,49	1804,26
318,70	1877,99
318,92	1871,84
319,13	1855,46
319,34	1880,04
319,56	1732,58
319,77	1724,39
319,98	1773,54
320,20	1771,49
320,41	1705,96
320,62	1712,10
320,83	1656,81
321,05	1851,36
321,26	1660,90
321,47	1722,34
321,69	1681,38
321,90	1603,56
322,11	1660,90
322,32	1665,00
322,54	1837,03
322,75	1599,46
322,96	1800,16
323,18	1656,81
323,39	1568,74
323,60	1685,48
323,81	1728,49
324,03	1665,00
324,24	1697,77
324,45	1667,05
324,66	1699,81
324,88	1701,86
325,09	1802,21
325,30	1708,01
325,52	1722,34
325,73	1722,34
325,94	1671,14
326,15	1578,98
326,37	1603,56
326,58	1814,50
326,79	1751,01
327,00	1599,46
327,22	1697,77
327,43	1658,85
327,64	1642,47
327,85	1683,43
328,07	1724,39
328,28	1730,53
328,49	1697,77
328,70	1624,04
328,92	1695,72
329,13	1691,62
329,34	1683,43
329,55	1740,77
329,76	1798,12
329,98	1677,29
330,19	1783,78
330,40	1705,96
330,61	1781,73
330,83	1796,07
331,04	1701,86
331,25	1644,52
331,46	1644,52
331,68	1585,13
331,89	1705,96
332,10	1695,72
332,31	1628,14
332,52	1710,05
332,74	1804,26
332,95	1570,79
333,16	1681,38
333,37	1720,29
333,58	1689,57
333,80	1746,92
334,01	1574,89
334,22	1705,96
334,43	1679,33
334,64	1640,42
334,86	1574,89
335,07	1583,08
335,28	1806,31
335,49	1595,37
335,70	1742,82
335,92	1757,16
336,13	1828,84
336,34	1615,85
336,55	1640,42
336,76	1726,44
336,98	1609,70
337,19	1710,05
337,40	1783,78
337,61	1863,65
337,82	1652,71
338,04	1708,01
338,25	1636,33
338,46	1669,09
338,67	1720,29
338,88	1574,89
339,09	1576,94
339,31	1675,24
339,52	1624,04
339,73	1685,48
339,94	1642,47
340,15	1787,88
340,36	1697,77
340,58	1718,25
340,79	1658,85
341,00	1734,63
341,21	1691,62
341,42	1777,64
341,63	1722,34
341,85	1761,25
342,06	1728,49
342,27	1652,71
342,48	1767,40
342,69	1656,81
342,90	1728,49
343,12	1800,16
343,33	1671,14
343,54	1748,97
343,75	1820,64
343,96	1697,77
344,17	1665,00
344,38	1640,42
344,60	1673,19
344,81	1656,81
345,02	1687,53
345,23	1742,82
345,44	1714,15
345,65	1791,97
345,86	1708,01
346,07	1642,47
346,29	1652,71
346,50	1722,34
346,71	1730,53
346,92	1767,40
347,13	1789,92
347,34	1695,72
347,55	1701,86
347,76	1712,10
347,98	1660,90
348,19	1683,43
348,40	1755,11
348,61	1615,85
348,82	1828,84
349,03	1753,06
349,24	1615,85
349,45	1791,97
349,66	1652,71
349,88	1679,33
350,09	1669,09
350,30	1683,43
350,51	1710,05
350,72	1703,91
350,93	1703,91
351,14	1644,52
351,35	1710,05
351,56	1660,90
351,77	1640,42
351,99	1734,63
352,20	1736,68
352,41	1763,30
352,62	1581,03
352,83	1689,57
353,04	1732,58
353,25	1677,29
353,46	1781,73
353,67	1742,82
353,88	1611,75
354,09	1656,81
354,30	1773,54
354,52	1665,00
354,73	1708,01
354,94	1652,71
355,15	1740,77
355,36	1796,07
355,57	1718,25
355,78	1736,68
355,99	1570,79
356,20	1740,77
356,41	1773,54
356,62	1746,92
356,83	1689,57
357,04	1740,77
357,25	1640,42
357,46	1611,75
357,68	1531,88
357,89	1710,05
358,10	1691,62
358,31	1687,53
358,52	1712,10
358,73	1632,23
358,94	1597,42
359,15	1748,97
359,36	1683,43
359,57	1705,96
359,78	1689,57
359,99	1753,06
360,20	1621,99
360,41	1671,14
360,62	1726,44
360,83	1685,48
361,04	1716,20
361,25	1720,29
361,46	1740,77
361,67	1763,30
361,88	1691,62
362,09	1736,68
362,30	1722,34
362,51	1673,19
362,72	1726,44
362,93	1718,25
363,14	1712,10
363,35	1722,34
363,56	1671,14
363,78	1779,68
363,99	1796,07
364,20	1574,89
364,41	1740,77
364,62	1751,01
364,83	1738,73
365,04	1638,38
365,25	1642,47
365,46	1808,36
365,67	1593,32
365,88	1609,70
366,09	1585,13
366,30	1695,72
366,51	1740,77
366,72	1648,61
366,93	1724,39
367,14	1734,63
367,35	1742,82
367,56	1683,43
367,77	1701,86
367,98	1646,57
368,18	1685,48
368,39	1775,59
368,60	1615,85
368,81	1748,97
369,02	1716,20
369,23	1691,62
369,44	1718,25
369,65	1636,33
369,86	1730,53
370,07	1693,67
370,28	1634,28
370,49	1708,01
370,70	1681,38
370,91	1578,98
371,12	1617,90
371,33	1751,01
371,54	1771,49
371,75	1724,39
371,96	1523,69
372,17	1660,90
372,38	1697,77
372,59	1714,15
372,80	1609,70
373,01	1660,90
373,22	1638,38
373,43	1701,86
373,64	1679,33
373,85	1730,53
374,06	1787,88
374,26	1771,49
374,47	1699,81
374,68	1734,63
374,89	1712,10
375,10	1650,66
375,31	1806,31
375,52	1724,39
375,73	1724,39
375,94	1632,23
376,15	1791,97
376,36	1665,00
376,57	1589,22
376,78	1679,33
376,99	1683,43
377,20	1781,73
377,40	1687,53
377,61	1863,65
377,82	1714,15
378,03	1726,44
378,24	1714,15
378,45	1730,53
378,66	1656,81
378,87	1572,84
379,08	1701,86
379,29	1697,77
379,50	1777,64
379,71	1644,52
379,91	1734,63
380,12	1705,96
380,33	1634,28
380,54	1710,05
380,75	1648,61
380,96	1677,29
381,17	1679,33
381,38	1640,42
381,59	1724,39
381,80	1755,11
382,00	1818,60
382,21	1761,25
382,42	1771,49
382,63	1882,08
382,84	1791,97
383,05	1748,97
383,26	1746,92
383,47	1697,77
383,68	1736,68
383,88	1834,98
384,09	1683,43
384,30	1781,73
384,51	1679,33
384,72	1703,91
384,93	1665,00
385,14	1677,29
385,35	1656,81
385,55	1675,24
385,76	1736,68
385,97	1677,29
386,18	1658,85
386,39	1648,61
386,60	1714,15
386,81	1669,09
387,02	1619,94
387,22	1636,33
387,43	1738,73
387,64	1783,78
387,85	1822,69
388,06	2244,57
388,27	4132,80
388,48	6764,44
388,68	8144,77
388,89	9525,10
389,10	9881,45
389,31	8589,18
389,52	7659,40
389,73	6838,17
389,93	6303,65
390,14	5906,34
390,35	5226,42
390,56	4669,37
390,77	3809,22
390,98	3063,76
391,18	2486,23
391,39	2148,32
391,60	1804,26
391,81	1834,98
392,02	1648,61
392,23	1800,16
392,43	1738,73
392,64	1779,68
392,85	1693,67
393,06	1863,65
393,27	1677,29
393,47	1732,58
393,68	1718,25
393,89	1683,43
394,10	1767,40
394,31	1757,16
394,52	1644,52
394,72	1685,48
394,93	1779,68
395,14	1685,48
395,35	1685,48
395,56	1636,33
395,76	1667,05
395,97	1814,50
396,18	1757,16
396,39	1818,60
396,60	2033,63
396,80	1892,32
397,01	1847,27
397,22	1806,31
397,43	1841,12
397,64	1722,34
397,84	1806,31
398,05	1798,12
398,26	1691,62
398,47	1771,49
398,67	1810,40
398,88	1748,97
399,09	1646,57
399,30	1703,91
399,51	1748,97
399,71	1671,14
399,92	1689,57
400,13	1726,44
400,34	1667,05
400,54	1689,57
400,75	1783,78
400,96	1673,19
401,17	1759,21
401,37	1763,30
401,58	1669,09
401,79	1705,96
402,00	1830,88
402,21	1964,00
402,41	1939,43
402,62	2013,15
402,83	2035,68
403,04	2017,25
403,24	2080,74
403,45	1798,12
403,66	1902,56
403,87	1787,88
404,07	1812,45
404,28	1931,23
404,49	1828,84
404,70	1759,21
404,90	1724,39
405,11	1744,87
405,32	1734,63
405,52	1609,70
405,73	1656,81
405,94	1589,22
406,15	1720,29
406,35	1755,11
406,56	1732,58
406,77	1687,53
406,98	1689,57
407,18	1681,38
407,39	1783,78
407,60	1671,14
407,80	1730,53
408,01	1644,52
408,22	1705,96
408,43	1693,67
408,63	1734,63
408,84	1755,11
409,05	1763,30
409,25	1599,46
409,46	1697,77
409,67	1634,28
409,88	1646,57
410,08	1710,05
410,29	1705,96
410,50	1683,43
410,70	1757,16
410,91	1695,72
411,12	1728,49
411,32	1730,53
411,53	1718,25
411,74	1828,84
411,95	1695,72
412,15	1771,49
412,36	1800,16
412,57	1691,62
412,77	1837,03
412,98	1689,57
413,19	1630,18
413,39	1804,26
413,60	1736,68
413,81	1787,88
414,01	1656,81
414,22	1652,71
414,43	1734,63
414,63	1654,76
414,84	1781,73
415,05	1701,86
415,25	1714,15
415,46	1781,73
415,67	1746,92
415,87	1724,39
416,08	1753,06
416,29	1724,39
416,49	1730,53
416,70	1636,33
416,91	1675,24
417,11	1691,62
417,32	1718,25
417,53	1785,83
417,73	1738,73
417,94	1718,25
418,15	1701,86
418,35	1642,47
418,56	1646,57
418,77	1808,36
418,97	1636,33
419,18	1701,86
419,38	1632,23
419,59	1673,19
419,80	1724,39
420,00	1642,47
420,21	1656,81
420,42	1701,86
420,62	1693,67
420,83	1611,75
421,04	1665,00
421,24	1695,72
421,45	1712,10
421,65	1753,06
421,86	1695,72
422,07	1677,29
422,27	1767,40
422,48	1759,21
422,69	1648,61
422,89	1701,86
423,10	1753,06
423,30	1624,04
423,51	1701,86
423,72	1759,21
423,92	1650,66
424,13	1648,61
424,33	1703,91
424,54	1755,11
424,75	1773,54
424,95	1826,79
425,16	1691,62
425,36	1669,09
425,57	1742,82
425,78	1705,96
425,98	1714,15
426,19	1734,63
426,39	1619,94
426,60	1679,33
426,81	1730,53
427,01	1681,38
427,22	1671,14
427,42	1587,18
427,63	1671,14
427,83	1808,36
428,04	1740,77
428,25	1787,88
428,45	1802,21
428,66	1665,00
428,86	1687,53
429,07	1691,62
429,28	1769,44
429,48	1689,57
429,69	1710,05
429,89	1751,01
430,10	1603,56
430,30	1648,61
430,51	1691,62
430,71	1599,46
430,92	1734,63
431,13	1652,71
431,33	1708,01
431,54	1689,57
431,74	1804,26
431,95	1746,92
432,15	1605,61
432,36	1667,05
432,56	1849,32
432,77	1779,68
432,98	1789,92
433,18	1654,76
433,39	1695,72
433,59	1783,78
433,80	1818,60
434,00	1849,32
434,21	1673,19
434,41	1669,09
434,62	1837,03
434,82	1636,33
435,03	1615,85
435,23	1732,58
435,44	1624,04
435,64	1679,33
435,85	1720,29
436,06	1742,82
436,26	1771,49
436,47	1685,48
436,67	1632,23
436,88	1671,14
437,08	1685,48
437,29	1785,83
437,49	1718,25
437,70	1783,78
437,90	1681,38
438,11	1837,03
438,31	1812,45
438,52	1824,74
438,72	1865,70
438,93	1884,13
439,13	1837,03
439,34	1761,25
439,54	1748,97
439,75	1771,49
439,95	1708,01
440,16	1640,42
440,36	1744,87
440,57	1705,96
440,77	1705,96
440,98	1671,14
441,18	1677,29
441,39	1742,82
441,59	1724,39
441,80	1832,93
442,00	1755,11
442,21	1779,68
442,41	1650,66
442,62	1808,36
442,82	1654,76
443,02	1677,29
443,23	1802,21
443,43	1609,70
443,64	1771,49
443,84	1642,47
444,05	1761,25
444,25	1746,92
444,46	1740,77
444,66	1685,48
444,87	1763,30
445,07	1648,61
445,28	1714,15
445,48	1798,12
445,69	1697,77
445,89	1834,98
446,09	1665,00
446,30	2050,02
446,50	2613,21
446,71	3749,83
446,91	4210,62
447,12	4650,94
447,32	4890,55
447,53	4364,22
447,73	3848,13
447,93	3508,17
448,14	3389,39
448,34	3149,78
448,55	2867,16
448,75	2877,40
448,96	2664,41
449,16	2357,21
449,36	2320,35
449,57	2045,92
449,77	1935,33
449,98	1802,21
450,18	1812,45
450,39	1804,26
450,59	1703,91
450,79	1722,34
451,00	1710,05
451,20	1773,54
451,41	1673,19
451,61	1673,19
451,81	1705,96
452,02	1669,09
452,22	1705,96
452,43	1667,05
452,63	1685,48
452,84	1759,21
453,04	1714,15
453,24	1724,39
453,45	1675,24
453,65	1654,76
453,86	1748,97
454,06	1763,30
454,26	1658,85
454,47	1609,70
454,67	1767,40
454,87	1734,63
455,08	1755,11
455,28	1804,26
455,49	1751,01
455,69	1673,19
455,89	1873,89
456,10	1689,57
456,30	1720,29
456,51	1728,49
456,71	1742,82
456,91	1771,49
457,12	1705,96
457,32	1712,10
457,52	1693,67
457,73	1746,92
457,93	1794,02
458,14	1662,95
458,34	1681,38
458,54	1734,63
458,75	1736,68
458,95	1697,77
459,15	1755,11
459,36	1734,63
459,56	1742,82
459,76	1775,59
459,97	1730,53
460,17	1779,68
460,37	1732,58
460,58	1751,01
460,78	1753,06
460,99	1746,92
461,19	1718,25
461,39	1646,57
461,60	1771,49
461,80	1753,06
462,00	1615,85
462,21	1695,72
462,41	1671,14
462,61	1656,81
462,82	1665,00
463,02	1820,64
463,22	1667,05
463,43	1824,74
463,63	1708,01
463,83	1800,16
464,04	1800,16
464,24	1732,58
464,44	1689,57
464,64	1738,73
464,85	1773,54
465,05	1710,05
465,25	1673,19
465,46	1648,61
465,66	1763,30
465,86	1736,68
466,07	1705,96
466,27	1748,97
466,47	1665,00
466,68	1638,38
466,88	1857,51
467,08	1671,14
467,29	1738,73
467,49	1716,20
467,69	1699,81
467,89	1757,16
468,10	1611,75
468,30	1763,30
468,50	1839,08
468,71	1787,88
468,91	1652,71
469,11	1824,74
469,31	1738,73
469,52	1615,85
469,72	1783,78
469,92	1767,40
470,13	1712,10
470,33	1791,97
470,53	1849,32
470,73	2062,30
470,94	2246,62
471,14	2244,57
471,34	2525,15
471,54	2392,03
471,75	2168,80
471,95	2189,28
472,15	2021,35
472,36	2043,87
472,56	2037,73
472,76	2039,78
472,96	2025,44
473,17	1863,65
473,37	1884,13
473,57	1808,36
473,77	1787,88
473,98	1732,58
474,18	1691,62
474,38	1882,08
474,58	1619,94
474,79	1578,98
474,99	1753,06
475,19	1701,86
475,39	1638,38
475,60	1724,39
475,80	1689,57
476,00	1708,01
476,20	1697,77
476,41	1791,97
476,61	1705,96
476,81	1820,64
477,01	1691,62
477,21	1886,18
477,42	1785,83
477,62	1630,18
477,82	1751,01
478,02	1726,44
478,23	1697,77
478,43	1632,23
478,63	1734,63
478,83	1726,44
479,03	1742,82
479,24	1814,50
479,44	1695,72
479,64	1624,04
479,84	1632,23
480,04	1701,86
480,25	1759,21
480,45	1628,14
480,65	1677,29
480,85	1673,19
481,06	1609,70
481,26	1722,34
481,46	1757,16
481,66	1648,61
481,86	1665,00
482,06	1710,05
482,27	1671,14
482,47	1757,16
482,67	1656,81
482,87	1611,75
483,07	1708,01
483,28	1654,76
483,48	1621,99
483,68	1703,91
483,88	1685,48
484,08	1587,18
484,29	1611,75
484,49	1640,42
484,69	1656,81
484,89	1689,57
485,09	1761,25
485,29	1716,20
485,50	1773,54
485,70	1652,71
485,90	1746,92
486,10	1785,83
486,30	1779,68
486,50	1873,89
486,71	1712,10
486,91	1748,97
487,11	1789,92
487,31	1619,94
487,51	1730,53
487,71	1689,57
487,91	1683,43
488,12	1595,37
488,32	1624,04
488,52	1675,24
488,72	1593,32
488,92	1669,09
489,12	1755,11
489,32	1775,59
489,53	1730,53
489,73	1644,52
489,93	1726,44
490,13	1701,86
490,33	1613,80
490,53	1677,29
490,73	1759,21
490,94	1615,85
491,14	1730,53
491,34	1761,25
491,54	2115,55
491,74	2670,55
491,94	2863,06
492,14	3065,81
492,34	2930,64
492,54	2740,18
492,75	2525,15
492,95	2346,97
493,15	2299,87
493,35	2250,72
493,55	2303,96
493,75	2127,84
493,95	2172,89
494,15	2027,49
494,35	1910,75
494,56	1857,51
494,76	1777,64
494,96	1806,31
495,16	1794,02
495,36	1703,91
495,56	1746,92
495,76	1742,82
495,96	1683,43
496,16	1613,80
496,36	1871,84
496,56	1730,53
496,77	1675,24
496,97	1716,20
497,17	1800,16
497,37	1673,19
497,57	1738,73
497,77	1679,33
497,97	1560,55
498,17	1744,87
498,37	1710,05
498,57	1722,34
498,77	1669,09
498,97	1753,06
499,17	1785,83
499,38	1646,57
499,58	1740,77
499,78	1759,21
499,98	1810,40
500,18	1796,07
500,38	1736,68
500,58	1892,32
500,78	2541,53
500,98	4454,33
501,18	5859,24
501,38	6793,11
501,58	7305,10
501,78	6746,01
501,98	5490,60
502,18	4855,73
502,38	4435,90
502,58	4089,79
502,78	3665,86
502,98	3651,53
503,18	3424,20
503,38	3160,02
503,59	2844,63
503,79	2639,83
503,99	2478,04
504,19	2293,72
504,39	2197,47
504,59	2281,44
504,79	2123,74
504,99	2093,02
505,19	1906,66
505,39	1875,94
505,59	1902,56
505,79	1918,95
505,99	1828,84
506,19	1775,59
506,39	1812,45
506,59	1697,77
506,79	1771,49
506,99	1755,11
507,19	1753,06
507,39	1724,39
507,59	1714,15
507,79	1671,14
507,99	1679,33
508,19	1703,91
508,39	1753,06
508,59	1714,15
508,79	1791,97
508,99	1851,36
509,19	1695,72
509,39	1767,40
509,59	1669,09
509,79	1691,62
509,99	1787,88
510,19	1777,64
510,39	1816,55
510,59	1710,05
510,79	1681,38
510,99	1632,23
511,19	1841,12
511,39	1806,31
511,59	1718,25
511,79	1738,73
511,99	1740,77
512,19	1773,54
512,38	1806,31
512,58	1677,29
512,78	1736,68
512,98	1763,30
513,18	1775,59
513,38	1605,61
513,58	1732,58
513,78	1712,10
513,98	1718,25
514,18	1660,90
514,38	1689,57
514,58	1703,91
514,78	1677,29
514,98	1574,89
515,18	1691,62
515,38	1662,95
515,58	1837,03
515,78	1681,38
515,98	1701,86
516,18	1708,01
516,38	1802,21
516,57	1681,38
516,77	1685,48
516,97	1806,31
517,17	1726,44
517,37	1656,81
517,57	1724,39
517,77	1677,29
517,97	1638,38
518,17	1681,38
518,37	1626,09
518,57	1679,33
518,77	1642,47
518,97	1714,15
519,16	1775,59
519,36	1724,39
519,56	1683,43
519,76	1730,53
519,96	1740,77
520,16	1804,26
520,36	1665,00
520,56	1767,40
520,76	1687,53
520,96	1722,34
521,16	1804,26
521,35	1716,20
521,55	1877,99
521,75	1677,29
521,95	1648,61
522,15	1701,86
522,35	1726,44
522,55	1642,47
522,75	1798,12
522,95	1689,57
523,14	1746,92
523,34	1740,77
523,54	1708,01
523,74	1781,73
523,94	1724,39
524,14	1718,25
524,34	1673,19
524,54	1757,16
524,73	1691,62
524,93	1712,10
525,13	1728,49
525,33	1619,94
525,53	1894,37
525,73	1761,25
525,93	1759,21
526,13	1705,96
526,32	1759,21
526,52	1847,27
526,72	1740,77
526,92	1691,62
527,12	1726,44
527,32	1720,29
527,52	1714,15
527,71	1794,02
527,91	1685,48
528,11	1714,15
528,31	1726,44
528,51	1669,09
528,71	1796,07
528,90	1777,64
529,10	1828,84
529,30	1724,39
529,50	1609,70
529,70	1691,62
529,90	1720,29
530,09	1734,63
530,29	1587,18
530,49	1689,57
530,69	1820,64
530,89	1675,24
531,09	1751,01
531,28	1722,34
531,48	1724,39
531,68	1751,01
531,88	1779,68
532,08	1789,92
532,28	1652,71
532,47	1714,15
532,67	1740,77
532,87	1769,44
533,07	1699,81
533,27	1705,96
533,46	1740,77
533,66	1730,53
533,86	1728,49
534,06	1701,86
534,26	1667,05
534,45	1693,67
534,65	1763,30
534,85	1683,43
535,05	1736,68
535,25	1773,54
535,44	1638,38
535,64	1757,16
535,84	1669,09
536,04	1781,73
536,24	1669,09
536,43	1667,05
536,63	1720,29
536,83	1669,09
537,03	1693,67
537,22	1607,66
537,42	1675,24
537,62	1710,05
537,82	1705,96
538,02	1834,98
538,21	1763,30
538,41	1853,41
538,61	1697,77
538,81	1677,29
539,00	1705,96
539,20	1648,61
539,40	1697,77
539,60	1732,58
539,79	1738,73
539,99	1691,62
540,19	1748,97
540,39	1714,15
540,58	1673,19
540,78	1685,48
540,98	1708,01
541,18	1765,35
541,37	1785,83
541,57	1599,46
541,77	1757,16
541,97	1652,71
542,16	1603,56
542,36	1693,67
542,56	1845,22
542,76	1865,70
542,95	1746,92
543,15	1820,64
543,35	1746,92
543,54	1656,81
543,74	1691,62
543,94	1730,53
544,14	1689,57
544,33	1771,49
544,53	1677,29
544,73	1712,10
544,93	1566,70
545,12	1728,49
545,32	1648,61
545,52	1683,43
545,71	1720,29
545,91	1757,16
546,11	1722,34
546,30	1665,00
546,50	1640,42
546,70	1755,11
546,90	1683,43
547,09	1642,47
547,29	1667,05
547,49	1779,68
547,68	1748,97
547,88	1685,48
548,08	1779,68
548,27	2160,61
548,47	1710,05
548,67	1753,06
548,87	1761,25
549,06	1740,77
549,26	1773,54
549,46	1673,19
549,65	1683,43
549,85	1767,40
550,05	1771,49
550,24	1619,94
550,44	1748,97
550,64	1730,53
550,83	1726,44
551,03	1808,36
551,23	1769,44
551,42	1757,16
551,62	1722,34
551,82	1732,58
552,01	1742,82
552,21	1757,16
552,41	1728,49
552,60	1777,64
552,80	1777,64
553,00	1609,70
553,19	1724,39
553,39	1783,78
553,59	1628,14
553,78	1681,38
553,98	1736,68
554,17	1679,33
554,37	1703,91
554,57	1746,92
554,76	1628,14
554,96	1687,53
555,16	1708,01
555,35	1773,54
555,55	1834,98
555,75	1771,49
555,94	1796,07
556,14	1601,51
556,33	1769,44
556,53	1705,96
556,73	1685,48
556,92	1755,11
557,12	1787,88
557,32	1841,12
557,51	1816,55
557,71	1857,51
557,90	1820,64
558,10	1802,21
558,30	1642,47
558,49	1679,33
558,69	1734,63
558,88	1841,12
559,08	1746,92
559,28	1722,34
559,47	1689,57
559,67	1773,54
559,86	1744,87
560,06	1736,68
560,26	1693,67
560,45	1779,68
560,65	1800,16
560,84	1810,40
561,04	1730,53
561,24	1671,14
561,43	1660,90
561,63	1791,97
561,82	1720,29
562,02	1689,57
562,22	1753,06
562,41	1667,05
562,61	1708,01
562,80	1644,52
563,00	1859,56
563,19	1701,86
563,39	1810,40
563,59	1693,67
563,78	1654,76
563,98	1701,86
564,17	1658,85
564,37	1640,42
564,56	1710,05
564,76	1636,33
564,96	1798,12
565,15	1742,82
565,35	1884,13
565,54	1710,05
565,74	1718,25
565,93	1773,54
566,13	1654,76
566,32	1722,34
566,52	1755,11
566,71	1693,67
566,91	1855,46
567,11	1726,44
567,30	1673,19
567,50	1777,64
567,69	1744,87
567,89	1728,49
568,08	1714,15
568,28	1759,21
568,47	1705,96
568,67	1714,15
568,86	1785,83
569,06	1777,64
569,25	1724,39
569,45	1720,29
569,64	1732,58
569,84	1714,15
570,04	1660,90
570,23	1654,76
570,43	1675,24
570,62	1689,57
570,82	1871,84
571,01	1681,38
571,21	1673,19
571,40	1701,86
571,60	1771,49
571,79	1757,16
571,99	1685,48
572,18	1697,77
572,38	1730,53
572,57	1689,57
572,77	1806,31
572,96	1925,09
573,16	1738,73
573,35	1716,20
573,55	1880,04
573,74	1718,25
573,94	1746,92
574,13	1710,05
574,33	1757,16
574,52	1753,06
574,71	1642,47
574,91	1761,25
575,10	1662,95
575,30	1734,63
575,49	1599,46
575,69	1695,72
575,88	1763,30
576,08	1665,00
576,27	1796,07
576,47	1748,97
576,66	1822,69
576,86	1740,77
577,05	1767,40
577,25	1820,64
577,44	1810,40
577,64	1665,00
577,83	1757,16
578,02	1648,61
578,22	1773,54
578,41	1877,99
578,61	1624,04
578,80	1728,49
579,00	1796,07
579,19	1693,67
579,39	1783,78
579,58	1685,48
579,77	1781,73
579,97	1841,12
580,16	1765,35
580,36	1812,45
580,55	1808,36
580,75	1718,25
580,94	1728,49
581,13	1849,32
581,33	1808,36
581,52	1765,35
581,72	1804,26
581,91	1812,45
582,11	1751,01
582,30	1730,53
582,49	1740,77
582,69	1863,65
582,88	1816,55
583,08	1767,40
583,27	1767,40
583,47	1777,64
583,66	1675,24
583,85	1703,91
584,05	1710,05
584,24	1757,16
584,44	1812,45
584,63	1808,36
584,82	1810,40
585,02	1759,21
585,21	1810,40
585,41	1867,75
585,60	1802,21
585,79	1968,10
585,99	1826,79
586,18	1859,56
586,37	2166,75
586,57	3405,77
586,76	9989,99
586,96	24485,51
587,15	34524,66
587,34	40807,83
587,54	42370,43
587,73	37031,37
587,93	26441,32
588,12	21565,11
588,31	18319,08
588,51	16498,44
588,70	15097,63
588,89	14274,34
589,09	12631,87
589,28	11132,76
589,47	9373,55
589,67	7960,45
589,86	6553,50
590,06	5199,79
590,25	3891,14
590,44	3186,64
590,64	2586,58
590,83	2310,11
591,02	2060,26
591,22	1937,38
591,41	1927,14
591,60	1789,92
591,80	1904,61
591,99	1753,06
592,18	1742,82
592,38	1871,84
592,57	1738,73
592,76	1771,49
592,96	1755,11
593,15	1773,54
593,34	1816,55
593,54	1697,77
593,73	1789,92
593,92	1789,92
594,12	1759,21
594,31	1771,49
594,50	1830,88
594,70	1763,30
594,89	1857,51
595,08	1744,87
595,28	1740,77
595,47	1923,04
595,66	1783,78
595,86	1660,90
596,05	1734,63
596,24	1689,57
596,43	1855,46
596,63	1822,69
596,82	1763,30
597,01	1697,77
597,21	1730,53
597,40	1722,34
597,59	1718,25
597,79	1691,62
597,98	1773,54
598,17	1742,82
598,36	1740,77
598,56	1691,62
598,75	1673,19
598,94	1718,25
599,14	1789,92
599,33	1763,30
599,52	1804,26
599,71	1791,97
599,91	1804,26
600,10	1716,20
600,29	1779,68
600,48	1804,26
600,68	1763,30
600,87	1771,49
601,06	1687,53
601,26	1705,96
601,45	1810,40
601,64	1689,57
601,83	1781,73
602,03	1740,77
602,22	1669,09
602,41	1834,98
602,60	1837,03
602,80	1748,97
602,99	1812,45
603,18	1673,19
603,37	1759,21
603,57	1705,96
603,76	1697,77
603,95	1828,84
604,14	1730,53
604,34	1767,40
604,53	1660,90
604,72	1683,43
604,91	1748,97
605,10	1787,88
605,30	1648,61
605,49	1877,99
605,68	1744,87
605,87	1781,73
606,07	1673,19
606,26	1736,68
606,45	1738,73
606,64	1761,25
606,84	1779,68
607,03	1736,68
607,22	1644,52
607,41	1693,67
607,60	1644,52
607,80	1681,38
607,99	1705,96
608,18	1626,09
608,37	1765,35
608,56	1636,33
608,76	1843,17
608,95	1791,97
609,14	1738,73
609,33	1757,16
609,52	1734,63
609,72	1738,73
609,91	1787,88
610,10	1710,05
610,29	1746,92
610,48	1767,40
610,68	1728,49
610,87	1624,04
611,06	1746,92
611,25	1669,09
611,44	1814,50
611,63	1675,24
611,83	1822,69
612,02	1609,70
612,21	1787,88
612,40	1681,38
612,59	1611,75
612,79	1660,90
612,98	1722,34
613,17	1722,34
613,36	1732,58
613,55	1744,87
613,74	1724,39
613,93	1669,09
614,13	1714,15
614,32	1779,68
614,51	1724,39
614,70	1765,35
614,89	1658,85
615,08	1828,84
615,28	2062,30
615,47	1660,90
615,66	1722,34
615,85	1783,78
616,04	1779,68
616,23	1675,24
616,42	1691,62
616,62	1742,82
616,81	1753,06
617,00	1667,05
617,19	1746,92
617,38	1712,10
617,57	1767,40
617,76	1691,62
617,95	1777,64
618,15	1761,25
618,34	1845,22
618,53	1656,81
618,72	1816,55
618,91	1867,75
619,10	1775,59
619,29	1683,43
619,48	1656,81
619,68	1654,76
619,87	1724,39
620,06	1581,03
620,25	1796,07
620,44	1714,15
620,63	1703,91
620,82	1685,48
621,01	1781,73
621,20	1703,91
621,39	1759,21
621,59	1718,25
621,78	1740,77
621,97	1710,05
622,16	1798,12
622,35	1689,57
622,54	1746,92
622,73	1824,74
622,92	1658,85
623,11	1787,88
623,30	1697,77
623,49	1761,25
623,68	1691,62
623,88	1777,64
624,07	1691,62
624,26	1638,38
624,45	1722,34
624,64	1638,38
624,83	1714,15
625,02	1755,11
625,21	1751,01
625,40	1765,35
625,59	1779,68
625,78	1685,48
625,97	1783,78
626,16	1810,40
626,35	1751,01
626,54	1705,96
626,74	1705,96
626,93	1697,77
627,12	1679,33
627,31	1859,56
627,50	1826,79
627,69	1814,50
627,88	1640,42
628,07	1724,39
628,26	1681,38
628,45	1626,09
628,64	1689,57
628,83	1621,99
629,02	1591,27
629,21	1667,05
629,40	1746,92
629,59	1679,33
629,78	1693,67
629,97	1662,95
630,16	1785,83
630,35	1714,15
630,54	1632,23
630,73	1705,96
630,92	1732,58
631,11	1746,92
631,30	1773,54
631,49	1722,34
631,68	1722,34
631,87	1669,09
632,06	1691,62
632,25	1857,51
632,44	1736,68
632,63	1716,20
632,82	1703,91
633,01	1648,61
633,20	1646,57
633,39	1628,14
633,58	1660,90
633,77	1718,25
633,96	1746,92
634,15	1738,73
634,34	1689,57
634,53	1701,86
634,72	1654,76
634,91	1660,90
635,10	1677,29
635,29	1765,35
635,48	1755,11
635,67	1701,86
635,86	1701,86
636,05	1742,82
636,24	1634,28
636,43	1677,29
636,62	1791,97
636,81	1568,74
637,00	1730,53
637,19	1773,54
637,38	1734,63
637,57	1665,00
637,76	1763,30
637,95	1789,92
638,14	1632,23
638,33	1687,53
638,52	1708,01
638,71	1660,90
638,89	1642,47
639,08	1802,21
639,27	1744,87
639,46	1669,09
639,65	1796,07
639,84	1730,53
640,03	1699,81
640,22	1630,18
640,41	1789,92
640,60	1638,38
640,79	1679,33
640,98	1634,28
641,17	1716,20
641,36	1724,39
641,55	1695,72
641,74	1605,61
641,92	1619,94
642,11	1624,04
642,30	1636,33
642,49	1626,09
642,68	1722,34
642,87	1748,97
643,06	1755,11
643,25	1687,53
643,44	1681,38
643,63	1712,10
643,82	1687,53
644,00	1716,20
644,19	1755,11
644,38	1581,03
644,57	1732,58
644,76	1746,92
644,95	1710,05
645,14	1669,09
645,33	1677,29
645,52	1669,09
645,71	1617,90
645,89	1615,85
646,08	1769,44
646,27	1701,86
646,46	1796,07
646,65	1677,29
646,84	1636,33
647,03	1660,90
647,22	1746,92
647,40	1769,44
647,59	1626,09
647,78	1626,09
647,97	1656,81
648,16	1613,80
648,35	1773,54
648,54	1839,08
648,73	1720,29
648,91	1767,40
649,10	1720,29
649,29	1650,66
649,48	1712,10
649,67	1812,45
649,86	1673,19
650,05	1648,61
650,23	1730,53
650,42	1591,27
650,61	1781,73
650,80	1779,68
650,99	1697,77
651,18	1808,36
651,36	1761,25
651,55	1660,90
651,74	1685,48
651,93	1734,63
652,12	1691,62
652,31	1693,67
652,49	1644,52
652,68	1738,73
652,87	1759,21
653,06	1744,87
653,25	1757,16
653,44	1679,33
653,62	1777,64
653,81	1769,44
654,00	1710,05
654,19	1810,40
654,38	1806,31
654,56	1746,92
654,75	1654,76
654,94	1701,86
655,13	1748,97
655,32	1654,76
655,51	1757,16
655,69	1695,72
655,88	1736,68
656,07	1640,42
656,26	1658,85
656,45	1636,33
656,63	1734,63
656,82	1755,11
657,01	1718,25
657,20	1615,85
657,38	1806,31
657,57	1669,09
657,76	1705,96
657,95	1834,98
658,14	1662,95
658,32	1675,24
658,51	1611,75
658,70	1728,49
658,89	1695,72
659,08	1734,63
659,26	1804,26
659,45	1617,90
659,64	1671,14
659,83	1642,47
660,01	1949,67
660,20	1755,11
660,39	1863,65
660,58	1550,31
660,76	1816,55
660,95	1634,28
661,14	1804,26
661,33	1630,18
661,51	1603,56
661,70	1683,43
661,89	1722,34
662,08	1718,25
662,26	1642,47
662,45	1648,61
662,64	1781,73
662,83	1714,15
663,01	1671,14
663,20	1691,62
663,39	1726,44
663,58	1691,62
663,76	1673,19
663,95	1705,96
664,14	1605,61
664,32	1619,94
664,51	1648,61
664,70	1683,43
664,89	1703,91
665,07	1597,42
665,26	1746,92
665,45	1613,80
665,64	1757,16
665,82	1677,29
666,01	1724,39
666,20	1722,34
666,38	1763,30
666,57	1816,55
666,76	2240,48
666,95	4411,32
667,13	10573,66
667,32	15261,46
667,51	17856,24
667,69	19427,03
667,88	17688,31
668,07	12373,83
668,25	9533,29
668,44	8064,90
668,63	7387,02
668,81	6948,76
669,00	6227,87
669,19	5765,03
669,38	4995,00
669,56	4573,11
669,75	4032,45
669,94	3360,72
670,12	2940,88
670,31	2486,23
670,50	2240,48
670,68	2035,68
670,87	1986,53
671,06	1796,07
671,24	1761,25
671,43	1837,03
671,62	1753,06
671,80	1751,01
671,99	1734,63
672,18	1742,82
672,36	1798,12
672,55	1783,78
672,74	1691,62
672,92	1689,57
673,11	1794,02
673,29	1658,85
673,48	1755,11
673,67	1638,38
673,85	1763,30
674,04	1578,98
674,23	1714,15
674,41	1794,02
674,60	1628,14
674,79	1634,28
674,97	1615,85
675,16	1763,30
675,34	1785,83
675,53	1730,53
675,72	1701,86
675,90	1771,49
676,09	1665,00
676,28	1681,38
676,46	1712,10
676,65	1587,18
676,83	1677,29
677,02	1695,72
677,21	1650,66
677,39	1740,77
677,58	1632,23
677,77	1609,70
677,95	1654,76
678,14	1660,90
678,32	1675,24
678,51	1660,90
678,70	1812,45
678,88	1730,53
679,07	1697,77
679,25	1710,05
679,44	1693,67
679,63	1585,13
679,81	1765,35
680,00	1757,16
680,18	1746,92
680,37	1710,05
680,55	1669,09
680,74	1634,28
680,93	1589,22
681,11	1734,63
681,30	1734,63
681,48	1755,11
681,67	1632,23
681,85	1720,29
682,04	1693,67
682,23	1765,35
682,41	1640,42
682,60	1681,38
682,78	1654,76
682,97	1681,38
683,15	1718,25
683,34	1675,24
683,53	1820,64
683,71	1595,37
683,90	1775,59
684,08	1738,73
684,27	1734,63
684,45	1746,92
684,64	1714,15
684,82	1683,43
685,01	1714,15
685,19	1673,19
685,38	1769,44
685,57	1697,77
685,75	1660,90
685,94	1648,61
686,12	1679,33
686,31	1667,05
686,49	1808,36
686,68	1675,24
686,86	1685,48
687,05	1669,09
687,23	1841,12
687,42	1658,85
687,60	1617,90
687,79	1757,16
687,97	1791,97
688,16	1767,40
688,34	1763,30
688,53	1527,78
688,71	1740,77
688,90	1744,87
689,08	1710,05
689,27	1617,90
689,45	1728,49
689,64	1697,77
689,82	1734,63
690,01	1660,90
690,19	1681,38
690,38	1714,15
690,56	1818,60
690,75	1595,37
690,93	1716,20
691,12	1621,99
691,30	1591,27
691,49	1708,01
691,67	1746,92
691,86	1785,83
692,04	1644,52
692,23	1597,42
692,41	1695,72
692,60	1767,40
692,78	1675,24
692,97	1665,00
693,15	1742,82
693,34	1849,32
693,52	1724,39
693,71	1652,71
693,89	1613,80
694,08	1628,14
694,26	1720,29
694,44	1720,29
694,63	1687,53
694,81	1677,29
695,00	1636,33
695,18	1802,21
695,37	1810,40
695,55	1714,15
695,74	1689,57
695,92	1681,38
696,10	1787,88
696,29	1662,95
696,47	1720,29
696,66	1597,42
696,84	1621,99
697,03	1726,44
697,21	1798,12
697,40	2142,18
697,58	1744,87
697,76	1646,57
697,95	1722,34
698,13	1656,81
698,32	1724,39
698,50	1753,06
698,68	1648,61
698,87	1660,90
699,05	1742,82
699,24	1703,91
699,42	1675,24
699,61	1728,49
699,79	1775,59
699,97	1726,44
700,16	1605,61
700,34	1662,95
700,53	1708,01
700,71	1759,21
700,89	1732,58
701,08	1681,38
701,26	1697,77
701,45	2113,50
701,63	1632,23
701,81	1662,95
702,00	1656,81
702,18	1724,39
702,37	1683,43
702,55	1609,70
702,73	1724,39
702,92	1589,22
703,10	1759,21
703,28	1716,20
703,47	1646,57
703,65	1722,34
703,84	1738,73
704,02	1667,05
704,20	1738,73
704,39	1691,62
704,57	1697,77
704,75	1701,86
704,94	1718,25
705,12	1724,39
705,30	1802,21
705,49	2191,33
705,67	4470,72
705,86	9400,18
706,04	12578,62
706,22	14671,65
706,41	15632,15
706,59	14143,27
706,77	9797,48
706,96	7333,78
707,14	6686,62
707,32	5978,02
707,51	5640,11
707,69	5044,15
707,87	4171,71
708,06	3622,86
708,24	3051,47
708,42	2402,27
708,61	2230,24
708,79	1841,12
708,97	1818,60
709,16	1828,84
709,34	1763,30
709,52	1730,53
709,71	1718,25
709,89	1726,44
710,07	1689,57
710,26	1658,85
710,44	1699,81
710,62	1789,92
710,80	1658,85
710,99	1746,92
711,17	1767,40
711,35	1667,05
711,54	1583,08
711,72	1738,73
711,90	1789,92
712,09	1660,90
712,27	1667,05
712,45	1757,16
712,63	1615,85
712,82	1693,67
713,00	1697,77
713,18	1671,14
713,37	1769,44
713,55	1791,97
713,73	1673,19
713,91	1751,01
714,10	1642,47
714,28	1734,63
714,46	1710,05
714,65	1701,86
714,83	1642,47
715,01	1630,18
715,19	1708,01
715,38	1640,42
715,56	1681,38
715,74	1667,05
715,92	1671,14
716,11	1705,96
716,29	1546,22
716,47	1736,68
716,65	1697,77
716,84	1597,42
717,02	1800,16
717,20	1552,36
717,38	1656,81
717,57	1726,44
717,75	1751,01
717,93	1773,54
718,11	1660,90
718,30	1638,38
718,48	1630,18
718,66	1730,53
718,84	1769,44
719,03	1703,91
719,21	1658,85
719,39	1808,36
719,57	1759,21
719,75	1714,15
719,94	1673,19
720,12	1748,97
720,30	1746,92
720,48	1720,29
720,67	1628,14
720,85	1644,52
721,03	1705,96
721,21	1701,86
721,39	1720,29
721,58	1697,77
721,76	1675,24
721,94	1683,43
722,12	1632,23
722,30	1794,02
722,49	1689,57
722,67	1646,57
722,85	1714,15
723,03	1572,84
723,21	1681,38
723,40	1701,86
723,58	1742,82
723,76	1683,43
723,94	1738,73
724,12	1644,52
724,30	1705,96
724,49	1783,78
724,67	1626,09
724,85	1712,10
725,03	1609,70
725,21	1714,15
725,40	1714,15
725,58	1585,13
725,76	1734,63
725,94	1789,92
726,12	1699,81
726,30	1685,48
726,49	1767,40
726,67	1660,90
726,85	1757,16
727,03	1753,06
727,21	2127,84
727,39	2754,52
727,57	3786,69
727,76	4210,62
727,94	4444,09
728,12	4472,76
728,30	3643,34
728,48	2967,51
728,66	2789,33
728,84	2633,69
729,03	2287,58
729,21	2230,24
729,39	1970,15
729,57	1818,60
729,75	1869,80
729,93	1859,56
730,11	1705,96
730,30	1769,44
730,48	1712,10
730,66	1791,97
730,84	1742,82
731,02	1650,66
731,20	1648,61
731,38	1701,86
731,56	1624,04
731,74	1566,70
731,93	1748,97
732,11	1640,42
732,29	1705,96
732,47	1765,35
732,65	1679,33
732,83	1800,16
733,01	1712,10
733,19	1644,52
733,37	1740,77
733,56	1748,97
733,74	1595,37
733,92	1693,67
734,10	1689,57
734,28	1724,39
734,46	1560,55
734,64	1669,09
734,82	1689,57
735,00	1609,70
735,18	1710,05
735,36	1689,57
735,54	1628,14
735,73	1626,09
735,91	1677,29
736,09	1691,62
736,27	1730,53
736,45	1703,91
736,63	1599,46
736,81	1658,85
736,99	1810,40
737,17	1779,68
737,35	1646,57
737,53	1679,33
737,71	1675,24
737,89	1773,54
738,07	1646,57
738,25	1638,38
738,43	1587,18
738,61	1644,52
738,80	1630,18
738,98	1644,52
739,16	1722,34
739,34	1617,90
739,52	1701,86
739,70	1656,81
739,88	1673,19
740,06	1720,29
740,24	1558,50
740,42	1755,11
740,60	1570,79
740,78	1640,42
740,96	1597,42
741,14	1705,96
741,32	1703,91
741,50	1640,42
741,68	1771,49
741,86	1771,49
742,04	1699,81
742,22	1574,89
742,40	1742,82
742,58	1665,00
742,76	1632,23
742,94	1837,03
743,12	1705,96
743,30	1667,05
743,48	1673,19
743,66	1648,61
743,84	1761,25
744,02	1669,09
744,20	1722,34
744,38	1767,40
744,56	1701,86
744,74	1744,87
744,92	1681,38
745,10	1740,77
745,28	1771,49
745,46	1779,68
745,64	1673,19
745,82	1767,40
746,00	1759,21
746,18	1599,46
746,36	1730,53
746,54	1687,53
746,72	1652,71
746,90	1642,47
747,08	1701,86
747,26	1685,48
747,44	1808,36
747,62	1751,01
747,80	1669,09
747,98	1744,87
748,15	1654,76
748,33	1751,01
748,51	1705,96
748,69	1703,91
748,87	1710,05
749,05	1673,19
749,23	1708,01
749,41	1697,77
749,59	1658,85
749,77	1675,24
749,95	1716,20
750,13	1648,61
750,31	1726,44
750,49	1669,09
750,67	1685,48
750,85	1757,16
751,03	1693,67
751,20	1806,31
751,38	1728,49
751,56	1695,72
751,74	1710,05
751,92	1705,96
752,10	1626,09
752,28	1738,73
752,46	1634,28
752,64	1671,14
752,82	1740,77
753,00	1736,68
753,18	1685,48
753,35	1636,33
753,53	1640,42
753,71	1640,42
753,89	1714,15
754,07	1658,85
754,25	1775,59
754,43	1730,53
754,61	1566,70
754,79	1634,28
754,97	1714,15
755,14	1773,54
755,32	1679,33
755,50	1609,70
755,68	1710,05
755,86	1679,33
756,04	1675,24
756,22	1605,61
756,40	1726,44
756,57	1808,36
756,75	1654,76
756,93	1804,26
757,11	1722,34
757,29	1720,29
757,47	1624,04
757,65	1652,71
757,82	1646,57
758,00	1644,52
758,18	1658,85
758,36	1662,95
758,54	1769,44
758,72	1570,79
758,90	1816,55
759,07	1769,44
759,25	1656,81
759,43	1660,90
759,61	1589,22
759,79	2082,78
759,97	1626,09
760,15	1642,47
760,32	1714,15
760,50	1695,72
760,68	1802,21
760,86	1675,24
761,04	1691,62
761,22	1695,72
761,39	1624,04
761,57	1751,01
761,75	1697,77
761,93	1570,79
762,11	1705,96
762,28	1742,82
762,46	1656,81
762,64	1689,57
762,82	1603,56
763,00	1773,54
763,18	1738,73
763,35	1673,19
763,53	1712,10
763,71	1687,53
763,89	1802,21
764,07	1759,21
764,24	1644,52
764,42	1806,31
764,60	1748,97
764,78	1744,87
764,96	1740,77
765,13	1673,19
765,31	1685,48
765,49	1773,54
765,67	1638,38
765,84	1636,33
766,02	1638,38
766,20	1585,13
766,38	1748,97
766,56	1679,33
766,73	1751,01
766,91	1685,48
767,09	1787,88
767,27	1701,86
767,44	1572,84
767,62	1738,73
767,80	1771,49
767,98	1728,49
768,15	1681,38
768,33	1789,92
768,51	1724,39
768,69	1701,86
768,87	1683,43
769,04	1640,42
769,22	1894,37
769,40	1763,30
769,58	1859,56
769,75	1681,38
769,93	1757,16
770,11	1640,42
770,28	1689,57
770,46	1732,58
770,64	1697,77
770,82	1671,14
770,99	1705,96
771,17	1787,88
771,35	1632,23
771,53	1732,58
771,70	1652,71
771,88	1726,44
772,06	1740,77
772,23	1740,77
772,41	1656,81
772,59	1689,57
772,77	1652,71
772,94	1714,15
773,12	1736,68
773,30	1642,47
773,47	1708,01
773,65	1601,51
773,83	1783,78
774,01	1644,52
774,18	1679,33
774,36	1626,09
774,54	1615,85
774,71	1703,91
774,89	1603,56
775,07	1685,48
775,24	1646,57
775,42	1665,00
775,60	1814,50
775,78	1587,18
775,95	1656,81
776,13	1662,95
776,31	1628,14
776,48	1726,44
776,66	1621,99
776,84	1654,76
777,01	1628,14
777,19	1669,09
777,37	1644,52
777,54	1753,06
777,72	1904,61
777,90	1716,20
778,07	1695,72
778,25	1873,89
778,43	1714,15
778,60	1644,52
778,78	1734,63
778,96	1736,68
779,13	1587,18
779,31	1681,38
779,49	1726,44
779,66	1683,43
779,84	1626,09
780,01	1646,57
780,19	1681,38
780,37	1714,15
780,54	1681,38
780,72	1642,47
780,90	1615,85
781,07	1675,24
781,25	1621,99
781,43	1726,44
781,60	1605,61
781,78	1738,73
781,95	1675,24
782,13	1662,95
782,31	1679,33
782,48	1605,61
782,66	1660,90
782,83	1847,27
783,01	1669,09
783,19	1761,25
783,36	1667,05
783,54	1650,66
783,72	1779,68
783,89	1568,74
784,07	1681,38
784,24	1673,19
784,42	1757,16
784,60	1677,29
784,77	1728,49
784,95	1595,37
785,12	1642,47
785,30	1640,42
785,47	1652,71
785,65	1599,46
785,83	1656,81
786,00	1636,33
786,18	1648,61
786,35	1603,56
786,53	1652,71
786,71	1781,73
786,88	1669,09
787,06	1615,85
787,23	1683,43
787,41	1609,70
787,58	1617,90
787,76	1640,42
787,94	1710,05
788,11	1683,43
788,29	1712,10
788,46	1650,66
788,64	1650,66
788,81	1714,15
788,99	1658,85
789,16	1611,75
789,34	1681,38
789,52	1638,38
789,69	1589,22
789,87	1554,41
790,04	1660,90
790,22	1662,95
790,39	1806,31
790,57	1624,04
790,74	1654,76
790,92	1751,01
791,09	1654,76
791,27	1675,24
791,44	1673,19
791,62	1701,86
791,79	1716,20
791,97	1673,19
792,15	1896,42
792,32	1644,52
792,50	1732,58
792,67	1818,60
792,85	1773,54
793,02	1695,72
793,20	1624,04
793,37	1593,32
793,55	1683,43
793,72	1591,27
793,90	1701,86
794,07	1660,90
794,25	1693,67
794,42	1738,73
794,60	1669,09
794,77	1708,01
794,95	1722,34
795,12	1771,49
795,30	1687,53
795,47	1656,81
795,65	1808,36
795,82	1699,81
796,00	1767,40
796,17	1712,10
796,34	1730,53
796,52	1689,57
796,69	1689,57
796,87	1763,30
797,04	1755,11
797,22	1697,77
797,39	1636,33
797,57	1732,58
797,74	1701,86
797,92	1615,85
798,09	1673,19
798,27	1773,54
798,44	1658,85
798,62	1630,18
798,79	1648,61
798,96	1650,66
799,14	1587,18
799,31	1791,97
799,49	1609,70
799,66	1667,05
799,84	1667,05
800,01	1615,85
800,19	1679,33
800,36	1533,93
800,53	1689,57
800,71	1671,14
800,88	1767,40
801,06	1654,76
801,23	1628,14
801,41	1615,85
801,58	1636,33
801,75	1605,61
801,93	1724,39
802,10	1785,83
802,28	1708,01
802,45	1593,32
802,63	1740,77
802,80	1814,50
802,97	1638,38
803,15	1673,19
803,32	1636,33
803,50	1675,24
803,67	1665,00
803,84	1677,29
804,02	1708,01
804,19	1736,68
804,37	1531,88
804,54	1605,61
804,71	1652,71
804,89	1671,14
805,06	1650,66
805,24	1636,33
805,41	1560,55
805,58	1656,81
805,76	1791,97
805,93	1683,43
806,10	1738,73
806,28	1683,43
806,45	1671,14
806,63	1669,09
806,80	1710,05
806,97	1794,02
807,15	1673,19
807,32	1673,19
807,49	1660,90
807,67	1646,57
807,84	1732,58
808,01	1527,78
808,19	1796,07
808,36	1759,21
808,54	1701,86
808,71	1648,61
808,88	1716,20
809,06	1650,66
809,23	1697,77
809,40	1751,01
809,58	1710,05
809,75	1722,34
809,92	1656,81
810,10	1771,49
810,27	1714,15
810,44	1689,57
810,62	1765,35
810,79	1693,67
810,96	1677,29
811,14	1671,14
811,31	1734,63
811,48	1746,92
811,66	1746,92
811,83	1771,49
812,00	1634,28
812,18	1742,82
812,35	1802,21
812,52	1681,38
812,69	1673,19
812,87	1667,05
813,04	1652,71
813,21	1660,90
813,39	1624,04
813,56	1656,81
813,73	1720,29
813,91	1583,08
814,08	1728,49
814,25	1708,01
814,42	1648,61
814,60	1679,33
814,77	1679,33
814,94	1699,81
815,12	1679,33
815,29	1736,68
815,46	1681,38
815,63	1720,29
815,81	1667,05
815,98	1662,95
816,15	1626,09
816,33	1677,29
816,50	1681,38
816,67	1689,57
816,84	1685,48
817,02	1673,19
817,19	1652,71
817,36	1669,09
817,53	1744,87
817,71	1634,28
817,88	1691,62
818,05	1671,14
818,22	1607,66
818,40	1808,36
818,57	1658,85
818,74	1777,64
818,91	1693,67
819,09	1775,59
819,26	1697,77
819,43	1705,96
819,60	1615,85
819,78	1699,81
819,95	1699,81
820,12	1650,66
820,29	1798,12
820,47	1687,53
820,64	1628,14
820,81	1687,53
820,98	1708,01
821,15	1636,33
821,33	1757,16
821,50	1611,75
821,67	1720,29
821,84	1691,62
822,02	1724,39
822,19	1740,77
822,36	1662,95
822,53	1638,38
822,70	1611,75
822,88	1599,46
823,05	1802,21
823,22	1726,44
823,39	1673,19
823,56	1665,00
823,74	1765,35
823,91	1589,22
824,08	1624,04
824,25	1617,90
824,42	1816,55
824,60	1585,13
824,77	1701,86
824,94	1703,91
825,11	1656,81
825,28	1642,47
825,45	1679,33
825,63	1697,77
825,80	1730,53
825,97	1648,61
826,14	1687,53
826,31	1646,57
826,48	1767,40
826,66	1578,98
826,83	1673,19
827,00	1705,96
827,17	1662,95
827,34	1673,19
827,51	1697,77
827,69	1699,81
827,86	1568,74
828,03	1652,71
828,20	1710,05
828,37	1728,49
828,54	1671,14
828,71	1693,67
828,89	1712,10
829,06	1611,75
829,23	1730,53
829,40	1667,05
829,57	1632,23
829,74	1734,63
829,91	1628,14
830,09	1689,57
830,26	1714,15
830,43	1757,16
830,60	1656,81
830,77	1740,77
830,94	1771,49
831,11	1832,93
831,28	1656,81
831,46	1732,58
831,63	1685,48
831,80	1679,33
831,97	1611,75
832,14	1693,67
832,31	1730,53
832,48	1699,81
832,65	1716,20
832,82	1718,25
832,99	1714,15
833,17	1650,66
833,34	1703,91
833,51	1679,33
833,68	1593,32
833,85	1769,44
834,02	1605,61
834,19	1669,09
834,36	1669,09
834,53	1652,71
834,70	1736,68
834,87	1767,40
835,04	1642,47
835,22	1570,79
835,39	1722,34
835,56	1648,61
835,73	1646,57
835,90	1744,87
836,07	1576,94
836,24	1724,39
836,41	1607,66
836,58	1697,77
836,75	1812,45
836,92	1751,01
837,09	1652,71
837,26	1685,48
837,43	1689,57
837,60	1755,11
837,77	1607,66
837,94	1744,87
838,12	1796,07
838,29	1693,67
838,46	1636,33
838,63	1644,52
838,80	1755,11
838,97	1669,09
839,14	1726,44
839,31	1712,10
839,48	1716,20
839,65	1656,81
839,82	1673,19
839,99	1687,53
840,16	1634,28
840,33	1638,38
840,50	1638,38
840,67	1636,33
840,84	1568,74
841,01	1638,38
841,18	1640,42
841,35	1751,01
841,52	1773,54
841,69	1736,68
841,86	1665,00
842,03	1699,81
842,20	1775,59
842,37	1646,57
842,54	1634,28
842,71	1683,43
842,88	1501,16
843,05	1679,33
843,22	1667,05
843,39	1847,27
843,56	1710,05
843,73	1644,52
843,90	1751,01
844,07	1611,75
844,24	1734,63
844,41	1669,09
844,58	1665,00
844,75	1712,10
844,92	1662,95
845,09	1712,10
845,26	1646,57
845,43	1751,01
845,60	1695,72
845,77	1771,49
845,94	1626,09
846,10	1714,15
846,27	1650,66
846,44	1591,27
846,61	1617,90
846,78	1710,05
846,95	1736,68
847,12	1718,25
847,29	1638,38
847,46	1636,33
847,63	1787,88
847,80	1636,33
847,97	1701,86
848,14	1810,40
848,31	1638,38
848,48	1640,42
848,65	1671,14
848,82	1695,72
848,98	1763,30
849,15	1726,44
849,32	1740,77
849,49	1695,72
849,66	1642,47
849,83	1720,29
850,00	1671,14
850,17	1734,63
850,34	1681,38
850,51	1642,47
850,68	1679,33
850,85	1800,16
851,01	1665,00
851,18	1705,96
851,35	1603,56
851,52	1656,81
851,69	1730,53
851,86	1615,85
852,03	1597,42
852,20	1800,16
852,37	1683,43
852,53	1570,79
852,70	1708,01
852,87	1716,20
853,04	1712,10
853,21	1767,40
853,38	1718,25
853,55	1662,95
853,72	1789,92
853,89	1697,77
854,05	1640,42
854,22	1646,57
854,39	1705,96
854,56	1714,15
854,73	1794,02
854,90	1562,60
855,07	1681,38
855,23	1593,32
855,40	1744,87
855,57	1765,35
855,74	1587,18
855,91	1843,17
856,08	1648,61
856,25	1630,18
856,41	1699,81
856,58	1642,47
856,75	1673,19
856,92	1644,52
857,09	1781,73
857,26	1552,36
857,42	1654,76
857,59	1662,95
857,76	1691,62
857,93	1697,77
858,10	1746,92
858,27	1581,03
858,43	1673,19
858,60	1578,98
858,77	1603,56
858,94	1619,94
859,11	1718,25
859,27	1644,52
859,44	1714,15
859,61	1771,49
859,78	1634,28
859,95	1599,46
860,12	1675,24
860,28	1712,10
860,45	1738,73
860,62	1644,52
860,79	1705,96
860,95	1683,43
861,12	1679,33
861,29	1736,68
861,46	1634,28
861,63	1699,81
861,79	1691,62
861,96	1671,14
862,13	1691,62
862,30	1755,11
862,47	1673,19
862,63	1669,09
862,80	1736,68
862,97	1751,01
863,14	1753,06
863,30	1726,44
863,47	1597,42
863,64	1718,25
863,81	1681,38
863,97	1626,09
864,14	1644,52
864,31	1687,53
864,48	1744,87
864,65	1662,95
864,81	1681,38
864,98	1638,38
865,15	1660,90
865,32	1808,36
865,48	1755,11
865,65	1748,97
865,82	1624,04
865,98	1724,39
866,15	1779,68
866,32	1732,58
866,49	1667,05
866,65	1757,16
866,82	1687,53
866,99	1699,81
867,16	1697,77
867,32	1644,52
867,49	1646,57
867,66	1646,57
867,83	1624,04
867,99	1597,42
868,16	1705,96
868,33	1601,51
868,49	1689,57
868,66	1658,85
868,83	1720,29
868,99	1648,61
869,16	1609,70
869,33	1767,40
869,50	1746,92
869,66	1695,72
869,83	1685,48
870,00	1583,08
870,16	1755,11
870,33	1673,19
870,50	1683,43
870,66	1652,71
870,83	1783,78
871,00	1691,62
871,17	1689,57
871,33	1701,86
871,50	1656,81
871,67	1773,54
871,83	1578,98
872,00	1755,11
872,17	1634,28
872,33	1796,07
872,50	1716,20
872,67	1726,44
872,83	1650,66
873,00	1751,01
873,17	1626,09
873,33	1710,05
873,50	1714,15
873,67	1726,44
873,83	1624,04
874,00	1705,96
874,16	1736,68
874,33	1654,76
874,50	1675,24
874,66	1755,11
874,83	1656,81
875,00	1720,29
875,16	1722,34
875,33	1763,30
875,50	1503,21
875,66	1609,70
875,83	1722,34
875,99	1740,77
876,16	1634,28
876,33	1665,00
876,49	1667,05
876,66	1695,72
876,83	1675,24
876,99	1599,46
877,16	1632,23
877,32	1662,95
877,49	1791,97
877,66	1628,14
877,82	1691,62
877,99	1724,39
878,15	1738,73
878,32	1705,96
878,49	1669,09
878,65	1646,57
878,82	1746,92
878,98	1703,91
879,15	1767,40
879,32	1728,49
879,48	1724,39
879,65	1630,18
879,81	1691,62
879,98	1667,05
880,15	1603,56
880,31	1732,58
880,48	1568,74
880,64	1683,43
880,81	1771,49
880,97	1816,55
881,14	1732,58
881,31	1662,95
881,47	1820,64
881,64	1681,38
881,80	1609,70
881,97	1681,38
882,13	1746,92
882,30	1624,04
882,47	1693,67
882,63	1630,18
882,80	1667,05
882,96	1677,29
883,13	1695,72
883,29	1677,29
883,46	1671,14
883,62	1861,60
883,79	1673,19
883,95	1640,42
884,12	1667,05
884,29	1689,57
884,45	1679,33
884,62	1730,53
884,78	1691,62
884,95	1730,53
885,11	1556,46
885,28	1679,33
885,44	1703,91
885,61	1697,77
885,77	1701,86
885,94	1693,67
886,10	1669,09
886,27	1689,57
886,43	1732,58
886,60	1693,67
886,76	1687,53
886,93	1693,67
887,09	1669,09
887,26	1595,37
887,42	1644,52
887,59	1814,50
887,75	1701,86
887,92	1771,49
888,08	1718,25
888,25	1789,92
888,41	1730,53
888,58	1753,06
888,74	1665,00
888,91	1738,73
>>>>>End Processed Spectral Data<<<<<
