SpectraSuite Data File
++++++++++++++++++++++++++++++++++++
Date: Mon Jun 06 14:44:57 CEST 2016
User: root
Dark Spectrum Present: No
Reference Spectrum Present: No
Number of Sampled Component Spectra: 1
Spectrometers: USB4C02835
Integration Time (usec): 100000 (USB4C02835)
Spectra Averaged: 1 (USB4C02835)
Boxcar Smoothing: 0 (USB4C02835)
Correct for Electrical Dark: No (USB4C02835)
Strobe/Lamp Enabled: No (USB4C02835)
Correct for Detector Non-linearity: No (USB4C02835)
Correct for Stray Light: No (USB4C02835)
Number of Pixels in Processed Spectrum: 3648
>>>>>Begin Processed Spectral Data<<<<<
177,47	1468,39
177,69	1468,39
177,91	1468,39
178,13	1468,39
178,36	1456,11
178,58	1624,04
178,80	1771,49
179,02	1607,66
179,24	1671,14
179,46	1738,73
179,68	1773,54
179,90	1652,71
180,13	1691,62
180,35	1677,29
180,57	1742,82
180,79	1716,20
181,01	1732,58
181,23	1771,49
181,45	1738,73
181,67	1726,44
181,90	1746,92
182,12	1632,23
182,34	1644,52
182,56	1665,00
182,78	1740,77
183,00	1685,48
183,22	1701,86
183,44	1609,70
183,66	1837,03
183,89	1773,54
184,11	1650,66
184,33	1722,34
184,55	1787,88
184,77	1820,64
184,99	1710,05
185,21	1648,61
185,43	1873,89
185,65	1560,55
185,87	1697,77
186,10	1812,45
186,32	1839,08
186,54	1660,90
186,76	1722,34
186,98	1710,05
187,20	1650,66
187,42	1726,44
187,64	1689,57
187,86	1757,16
188,08	1777,64
188,30	1787,88
188,52	1681,38
188,75	1759,21
188,97	1787,88
189,19	1656,81
189,41	1722,34
189,63	1781,73
189,85	1656,81
190,07	1640,42
190,29	1503,21
190,51	1677,29
190,73	1673,19
190,95	1771,49
191,17	1681,38
191,39	1583,08
191,61	1751,01
191,84	1679,33
192,06	1726,44
192,28	1636,33
192,50	1853,41
192,72	1650,66
192,94	1624,04
193,16	1742,82
193,38	1779,68
193,60	1652,71
193,82	1609,70
194,04	1746,92
194,26	1705,96
194,48	1714,15
194,70	1671,14
194,92	1751,01
195,14	1791,97
195,36	1720,29
195,58	1728,49
195,80	1730,53
196,02	1601,51
196,24	1624,04
196,46	1691,62
196,69	1601,51
196,91	1873,89
197,13	1701,86
197,35	1638,38
197,57	1763,30
197,79	1740,77
198,01	1720,29
198,23	1859,56
198,45	1681,38
198,67	1699,81
198,89	1665,00
199,11	1669,09
199,33	1681,38
199,55	1578,98
199,77	1654,76
199,99	1740,77
200,21	1677,29
200,43	1796,07
200,65	1599,46
200,87	1478,63
201,09	1712,10
201,31	1714,15
201,53	1734,63
201,75	1685,48
201,97	1736,68
202,19	1665,00
202,41	1716,20
202,63	1806,31
202,85	1738,73
203,07	1710,05
203,29	1652,71
203,51	1617,90
203,73	1640,42
203,95	1902,56
204,17	1775,59
204,39	1732,58
204,61	1742,82
204,83	1673,19
205,05	1722,34
205,27	1767,40
205,49	1791,97
205,71	1722,34
205,93	1626,09
206,15	1656,81
206,37	1687,53
206,59	1681,38
206,81	1703,91
207,03	1644,52
207,25	1634,28
207,47	1724,39
207,69	1665,00
207,91	1832,93
208,13	1720,29
208,34	1757,16
208,56	1720,29
208,78	1738,73
209,00	1751,01
209,22	1656,81
209,44	1740,77
209,66	1658,85
209,88	1734,63
210,10	1630,18
210,32	1701,86
210,54	1796,07
210,76	1617,90
210,98	1798,12
211,20	1574,89
211,42	1671,14
211,64	1736,68
211,86	1697,77
212,08	1685,48
212,30	1630,18
212,52	1650,66
212,74	1701,86
212,96	1755,11
213,17	1738,73
213,39	1787,88
213,61	1818,60
213,83	1751,01
214,05	1624,04
214,27	1765,35
214,49	1591,27
214,71	1669,09
214,93	1773,54
215,15	1685,48
215,37	1796,07
215,59	1607,66
215,81	1730,53
216,03	1740,77
216,24	1726,44
216,46	1669,09
216,68	1644,52
216,90	1716,20
217,12	1771,49
217,34	1656,81
217,56	1718,25
217,78	1849,32
218,00	1753,06
218,22	1665,00
218,44	1691,62
218,66	1691,62
218,87	1726,44
219,09	1699,81
219,31	1734,63
219,53	1742,82
219,75	1648,61
219,97	1705,96
220,19	1710,05
220,41	1683,43
220,63	1761,25
220,85	1710,05
221,06	1673,19
221,28	1697,77
221,50	1730,53
221,72	1683,43
221,94	1705,96
222,16	1591,27
222,38	1695,72
222,60	1751,01
222,82	1675,24
223,03	1742,82
223,25	1646,57
223,47	1710,05
223,69	1796,07
223,91	1685,48
224,13	1675,24
224,35	1708,01
224,57	1722,34
224,78	1753,06
225,00	1656,81
225,22	1728,49
225,44	1687,53
225,66	1689,57
225,88	1591,27
226,10	1677,29
226,32	1681,38
226,53	1812,45
226,75	1687,53
226,97	1740,77
227,19	1658,85
227,41	1611,75
227,63	1662,95
227,85	1595,37
228,06	1673,19
228,28	1703,91
228,50	1765,35
228,72	1619,94
228,94	1671,14
229,16	1665,00
229,37	1648,61
229,59	1671,14
229,81	1794,02
230,03	1660,90
230,25	1658,85
230,47	1648,61
230,69	1710,05
230,90	1767,40
231,12	1607,66
231,34	1720,29
231,56	1697,77
231,78	1691,62
232,00	1679,33
232,21	1740,77
232,43	1652,71
232,65	1572,84
232,87	1665,00
233,09	1722,34
233,30	1665,00
233,52	1765,35
233,74	1722,34
233,96	1714,15
234,18	1740,77
234,40	1691,62
234,61	1845,22
234,83	1593,32
235,05	1619,94
235,27	1847,27
235,49	1734,63
235,70	1677,29
235,92	1730,53
236,14	1781,73
236,36	1877,99
236,58	1673,19
236,79	1740,77
237,01	1687,53
237,23	1734,63
237,45	1761,25
237,67	1644,52
237,88	1669,09
238,10	1759,21
238,32	1601,51
238,54	1656,81
238,76	1699,81
238,97	1642,47
239,19	1667,05
239,41	1773,54
239,63	1763,30
239,85	1679,33
240,06	1701,86
240,28	1640,42
240,50	1796,07
240,72	1710,05
240,93	1695,72
241,15	1767,40
241,37	1693,67
241,59	1687,53
241,81	1687,53
242,02	1644,52
242,24	1740,77
242,46	1656,81
242,68	1677,29
242,89	1775,59
243,11	1761,25
243,33	1718,25
243,55	1638,38
243,76	1710,05
243,98	1742,82
244,20	1783,78
244,42	1761,25
244,64	1683,43
244,85	1615,85
245,07	1626,09
245,29	1673,19
245,51	1765,35
245,72	1712,10
245,94	1765,35
246,16	1691,62
246,38	1751,01
246,59	1626,09
246,81	1634,28
247,03	1634,28
247,24	1650,66
247,46	1658,85
247,68	1648,61
247,90	1648,61
248,11	1665,00
248,33	1660,90
248,55	1753,06
248,77	1746,92
248,98	1685,48
249,20	1751,01
249,42	1722,34
249,64	1736,68
249,85	1718,25
250,07	1665,00
250,29	1691,62
250,50	1699,81
250,72	1613,80
250,94	1648,61
251,16	1834,98
251,37	1779,68
251,59	1710,05
251,81	1763,30
252,02	1667,05
252,24	1628,14
252,46	1816,55
252,68	1646,57
252,89	1656,81
253,11	1609,70
253,33	1779,68
253,54	1794,02
253,76	1626,09
253,98	1742,82
254,20	1646,57
254,41	1695,72
254,63	1708,01
254,85	1621,99
255,06	1683,43
255,28	1689,57
255,50	1660,90
255,71	1685,48
255,93	1683,43
256,15	1718,25
256,36	1734,63
256,58	1650,66
256,80	1708,01
257,02	1710,05
257,23	1685,48
257,45	1662,95
257,67	1722,34
257,88	1611,75
258,10	1701,86
258,32	1673,19
258,53	1728,49
258,75	1728,49
258,97	1689,57
259,18	1683,43
259,40	1730,53
259,62	1810,40
259,83	1800,16
260,05	1796,07
260,27	1992,67
260,48	1716,20
260,70	1691,62
260,92	1687,53
261,13	1740,77
261,35	1689,57
261,57	1703,91
261,78	1607,66
262,00	1638,38
262,22	1744,87
262,43	1583,08
262,65	1650,66
262,86	1689,57
263,08	1841,12
263,30	1693,67
263,51	1589,22
263,73	1638,38
263,95	1742,82
264,16	1673,19
264,38	1671,14
264,60	1644,52
264,81	1683,43
265,03	1742,82
265,25	1804,26
265,46	1675,24
265,68	1681,38
265,89	1689,57
266,11	1632,23
266,33	1744,87
266,54	1761,25
266,76	1675,24
266,98	1785,83
267,19	1775,59
267,41	1789,92
267,62	1771,49
267,84	1607,66
268,06	1734,63
268,27	1669,09
268,49	1779,68
268,70	1736,68
268,92	1701,86
269,14	1701,86
269,35	1585,13
269,57	1650,66
269,79	1734,63
270,00	1597,42
270,22	1837,03
270,43	1662,95
270,65	1527,78
270,87	1638,38
271,08	1738,73
271,30	1712,10
271,51	1763,30
271,73	1777,64
271,95	1726,44
272,16	1693,67
272,38	1730,53
272,59	1705,96
272,81	1689,57
273,02	1734,63
273,24	1683,43
273,46	1732,58
273,67	1589,22
273,89	1681,38
274,10	1673,19
274,32	1828,84
274,54	1755,11
274,75	1667,05
274,97	1675,24
275,18	1652,71
275,40	1748,97
275,61	1744,87
275,83	1611,75
276,05	1599,46
276,26	1621,99
276,48	1740,77
276,69	1683,43
276,91	1640,42
277,12	1763,30
277,34	1640,42
277,55	1730,53
277,77	1718,25
277,99	1710,05
278,20	1632,23
278,42	1624,04
278,63	1656,81
278,85	1714,15
279,06	1699,81
279,28	1732,58
279,49	1771,49
279,71	1722,34
279,93	1736,68
280,14	1710,05
280,36	1714,15
280,57	1673,19
280,79	1710,05
281,00	1669,09
281,22	1654,76
281,43	1722,34
281,65	1609,70
281,86	1609,70
282,08	1751,01
282,29	1748,97
282,51	1677,29
282,73	1640,42
282,94	1679,33
283,16	1740,77
283,37	1812,45
283,59	1726,44
283,80	1726,44
284,02	1689,57
284,23	1685,48
284,45	1691,62
284,66	1581,03
284,88	1720,29
285,09	1744,87
285,31	1693,67
285,52	1771,49
285,74	1568,74
285,95	1724,39
286,17	1714,15
286,38	1761,25
286,60	1652,71
286,81	1681,38
287,03	1710,05
287,24	1648,61
287,46	1665,00
287,67	1751,01
287,89	1820,64
288,10	1757,16
288,32	1665,00
288,53	1808,36
288,75	1685,48
288,96	1806,31
289,18	1701,86
289,39	1732,58
289,61	1716,20
289,82	1816,55
290,04	1736,68
290,25	1603,56
290,47	1738,73
290,68	1621,99
290,90	1759,21
291,11	1554,41
291,33	1736,68
291,54	1687,53
291,76	1638,38
291,97	1683,43
292,18	1685,48
292,40	1673,19
292,61	1669,09
292,83	1847,27
293,04	1744,87
293,26	1755,11
293,47	1613,80
293,69	1654,76
293,90	1652,71
294,12	1722,34
294,33	1689,57
294,55	1701,86
294,76	1753,06
294,97	1804,26
295,19	1873,89
295,40	1710,05
295,62	1746,92
295,83	1761,25
296,05	1646,57
296,26	1757,16
296,48	1660,90
296,69	1640,42
296,90	1665,00
297,12	1726,44
297,33	1748,97
297,55	1771,49
297,76	1732,58
297,98	1763,30
298,19	1683,43
298,41	1710,05
298,62	1736,68
298,83	1753,06
299,05	1800,16
299,26	1660,90
299,48	1705,96
299,69	1677,29
299,90	1685,48
300,12	1730,53
300,33	1755,11
300,55	1718,25
300,76	1726,44
300,98	1693,67
301,19	1699,81
301,40	1638,38
301,62	1673,19
301,83	1714,15
302,05	1630,18
302,26	1732,58
302,47	1681,38
302,69	1630,18
302,90	1677,29
303,12	1644,52
303,33	1742,82
303,54	1810,40
303,76	1732,58
303,97	1710,05
304,19	1820,64
304,40	1603,56
304,61	1691,62
304,83	1771,49
305,04	1773,54
305,26	1761,25
305,47	1632,23
305,68	1669,09
305,90	1634,28
306,11	1716,20
306,33	1740,77
306,54	1658,85
306,75	1665,00
306,97	1687,53
307,18	1619,94
307,39	1720,29
307,61	1742,82
307,82	1769,44
308,04	1763,30
308,25	1611,75
308,46	1650,66
308,68	1738,73
308,89	1695,72
309,10	1796,07
309,32	1746,92
309,53	1677,29
309,74	1652,71
309,96	1681,38
310,17	1724,39
310,39	1701,86
310,60	1755,11
310,81	1632,23
311,03	1650,66
311,24	1716,20
311,45	1705,96
311,67	1798,12
311,88	1705,96
312,09	1570,79
312,31	1632,23
312,52	1693,67
312,73	1652,71
312,95	1621,99
313,16	1697,77
313,37	1839,08
313,59	1796,07
313,80	1765,35
314,01	1767,40
314,23	1644,52
314,44	1687,53
314,65	1599,46
314,87	1708,01
315,08	1746,92
315,29	1699,81
315,51	1644,52
315,72	1632,23
315,93	1798,12
316,15	1779,68
316,36	1724,39
316,57	1705,96
316,79	1697,77
317,00	1685,48
317,21	1669,09
317,43	1656,81
317,64	1847,27
317,85	1648,61
318,07	1601,51
318,28	1728,49
318,49	1771,49
318,70	1884,13
318,92	1849,32
319,13	1789,92
319,34	1828,84
319,56	1746,92
319,77	1769,44
319,98	1773,54
320,20	1781,73
320,41	1775,59
320,62	1695,72
320,83	1648,61
321,05	1853,41
321,26	1675,24
321,47	1695,72
321,69	1740,77
321,90	1626,09
322,11	1626,09
322,32	1785,83
322,54	1765,35
322,75	1703,91
322,96	1740,77
323,18	1636,33
323,39	1632,23
323,60	1581,03
323,81	1748,97
324,03	1728,49
324,24	1738,73
324,45	1738,73
324,66	1716,20
324,88	1771,49
325,09	1789,92
325,30	1714,15
325,52	1755,11
325,73	1619,94
325,94	1679,33
326,15	1636,33
326,37	1632,23
326,58	1699,81
326,79	1888,23
327,00	1677,29
327,22	1751,01
327,43	1665,00
327,64	1638,38
327,85	1785,83
328,07	1685,48
328,28	1732,58
328,49	1607,66
328,70	1728,49
328,92	1730,53
329,13	1619,94
329,34	1728,49
329,55	1898,47
329,76	1800,16
329,98	1730,53
330,19	1738,73
330,40	1748,97
330,61	1718,25
330,83	1726,44
331,04	1705,96
331,25	1802,21
331,46	1722,34
331,68	1644,52
331,89	1732,58
332,10	1718,25
332,31	1603,56
332,52	1697,77
332,74	1726,44
332,95	1585,13
333,16	1738,73
333,37	1720,29
333,58	1652,71
333,80	1769,44
334,01	1638,38
334,22	1658,85
334,43	1593,32
334,64	1726,44
334,86	1714,15
335,07	1640,42
335,28	1769,44
335,49	1677,29
335,70	1722,34
335,92	1783,78
336,13	1789,92
336,34	1691,62
336,55	1685,48
336,76	1783,78
336,98	1615,85
337,19	1685,48
337,40	1791,97
337,61	1886,18
337,82	1675,24
338,04	1789,92
338,25	1578,98
338,46	1718,25
338,67	1716,20
338,88	1681,38
339,09	1568,74
339,31	1685,48
339,52	1591,27
339,73	1662,95
339,94	1689,57
340,15	1695,72
340,36	1681,38
340,58	1685,48
340,79	1687,53
341,00	1685,48
341,21	1636,33
341,42	1824,74
341,63	1652,71
341,85	1744,87
342,06	1767,40
342,27	1585,13
342,48	1796,07
342,69	1587,18
342,90	1728,49
343,12	1771,49
343,33	1693,67
343,54	1699,81
343,75	1724,39
343,96	1615,85
344,17	1697,77
344,38	1677,29
344,60	1667,05
344,81	1611,75
345,02	1617,90
345,23	1769,44
345,44	1773,54
345,65	1746,92
345,86	1732,58
346,07	1652,71
346,29	1593,32
346,50	1691,62
346,71	1722,34
346,92	1787,88
347,13	1791,97
347,34	1687,53
347,55	1650,66
347,76	1701,86
347,98	1599,46
348,19	1726,44
348,40	1832,93
348,61	1695,72
348,82	1755,11
349,03	1705,96
349,24	1718,25
349,45	1761,25
349,66	1595,37
349,88	1673,19
350,09	1722,34
350,30	1845,22
350,51	1828,84
350,72	1736,68
350,93	1654,76
351,14	1673,19
351,35	1783,78
351,56	1755,11
351,77	1624,04
351,99	1685,48
352,20	1814,50
352,41	1796,07
352,62	1656,81
352,83	1689,57
353,04	1673,19
353,25	1562,60
353,46	1669,09
353,67	1746,92
353,88	1576,94
354,09	1710,05
354,30	1771,49
354,52	1742,82
354,73	1724,39
354,94	1712,10
355,15	1722,34
355,36	1781,73
355,57	1730,53
355,78	1740,77
355,99	1675,24
356,20	1646,57
356,41	1771,49
356,62	1701,86
356,83	1720,29
357,04	1736,68
357,25	1574,89
357,46	1589,22
357,68	1648,61
357,89	1738,73
358,10	1685,48
358,31	1675,24
358,52	1656,81
358,73	1615,85
358,94	1587,18
359,15	1654,76
359,36	1818,60
359,57	1675,24
359,78	1701,86
359,99	1748,97
360,20	1701,86
360,41	1705,96
360,62	1734,63
360,83	1783,78
361,04	1720,29
361,25	1726,44
361,46	1837,03
361,67	1787,88
361,88	1736,68
362,09	1787,88
362,30	1779,68
362,51	1691,62
362,72	1712,10
362,93	1714,15
363,14	1738,73
363,35	1681,38
363,56	1591,27
363,78	1740,77
363,99	1699,81
364,20	1632,23
364,41	1720,29
364,62	1845,22
364,83	1685,48
365,04	1658,85
365,25	1667,05
365,46	1787,88
365,67	1617,90
365,88	1691,62
366,09	1736,68
366,30	1697,77
366,51	1720,29
366,72	1656,81
366,93	1738,73
367,14	1646,57
367,35	1787,88
367,56	1648,61
367,77	1757,16
367,98	1728,49
368,18	1697,77
368,39	1742,82
368,60	1673,19
368,81	1722,34
369,02	1685,48
369,23	1701,86
369,44	1548,26
369,65	1679,33
369,86	1746,92
370,07	1730,53
370,28	1689,57
370,49	1705,96
370,70	1703,91
370,91	1589,22
371,12	1619,94
371,33	1787,88
371,54	1628,14
371,75	1783,78
371,96	1570,79
372,17	1697,77
372,38	1701,86
372,59	1714,15
372,80	1734,63
373,01	1652,71
373,22	1677,29
373,43	1689,57
373,64	1599,46
373,85	1724,39
374,06	1822,69
374,26	1748,97
374,47	1781,73
374,68	1783,78
374,89	1660,90
375,10	1751,01
375,31	1740,77
375,52	1744,87
375,73	1693,67
375,94	1624,04
376,15	1765,35
376,36	1681,38
376,57	1714,15
376,78	1675,24
376,99	1724,39
377,20	1728,49
377,40	1685,48
377,61	1845,22
377,82	1687,53
378,03	1757,16
378,24	1791,97
378,45	1720,29
378,66	1724,39
378,87	1605,61
379,08	1703,91
379,29	1705,96
379,50	1773,54
379,71	1683,43
379,91	1751,01
380,12	1665,00
380,33	1742,82
380,54	1691,62
380,75	1728,49
380,96	1660,90
381,17	1800,16
381,38	1660,90
381,59	1771,49
381,80	1687,53
382,00	1837,03
382,21	1695,72
382,42	1859,56
382,63	1873,89
382,84	1798,12
383,05	1689,57
383,26	1789,92
383,47	1728,49
383,68	1804,26
383,88	1658,85
384,09	1712,10
384,30	1804,26
384,51	1787,88
384,72	1669,09
384,93	1679,33
385,14	1652,71
385,35	1757,16
385,55	1695,72
385,76	1763,30
385,97	1693,67
386,18	1660,90
386,39	1628,14
386,60	1683,43
386,81	1697,77
387,02	1646,57
387,22	1642,47
387,43	1759,21
387,64	1773,54
387,85	1845,22
388,06	2115,55
388,27	4415,42
388,48	6864,79
388,68	8241,03
388,89	9756,52
389,10	10086,25
389,31	8693,63
389,52	7786,38
389,73	6889,37
389,93	6317,98
390,14	6035,36
390,35	5259,18
390,56	4597,69
390,77	3815,37
390,98	3098,58
391,18	2609,11
391,39	2088,93
391,60	1902,56
391,81	1824,74
392,02	1779,68
392,23	1884,13
392,43	1755,11
392,64	1708,01
392,85	1665,00
393,06	1794,02
393,27	1755,11
393,47	1724,39
393,68	1728,49
393,89	1648,61
394,10	1798,12
394,31	1646,57
394,52	1628,14
394,72	1703,91
394,93	1791,97
395,14	1669,09
395,35	1722,34
395,56	1669,09
395,76	1738,73
395,97	1794,02
396,18	1757,16
396,39	1902,56
396,60	2007,01
396,80	1957,86
397,01	1855,46
397,22	1798,12
397,43	1839,08
397,64	1677,29
397,84	1830,88
398,05	1920,99
398,26	1703,91
398,47	1785,83
398,67	1722,34
398,88	1779,68
399,09	1771,49
399,30	1669,09
399,51	1699,81
399,71	1634,28
399,92	1681,38
400,13	1693,67
400,34	1681,38
400,54	1718,25
400,75	1779,68
400,96	1724,39
401,17	1822,69
401,37	1710,05
401,58	1697,77
401,79	1767,40
402,00	1863,65
402,21	1996,77
402,41	1931,23
402,62	1964,00
402,83	2013,15
403,04	2031,58
403,24	2076,64
403,45	1861,60
403,66	1929,19
403,87	1880,04
404,07	1839,08
404,28	2009,06
404,49	1826,79
404,70	1785,83
404,90	1751,01
405,11	1736,68
405,32	1695,72
405,52	1732,58
405,73	1634,28
405,94	1570,79
406,15	1689,57
406,35	1728,49
406,56	1751,01
406,77	1734,63
406,98	1751,01
407,18	1650,66
407,39	1761,25
407,60	1705,96
407,80	1730,53
408,01	1587,18
408,22	1742,82
408,43	1708,01
408,63	1738,73
408,84	1691,62
409,05	1808,36
409,25	1615,85
409,46	1730,53
409,67	1671,14
409,88	1751,01
410,08	1781,73
410,29	1652,71
410,50	1716,20
410,70	1685,48
410,91	1517,54
411,12	1705,96
411,32	1751,01
411,53	1716,20
411,74	1814,50
411,95	1744,87
412,15	1640,42
412,36	1728,49
412,57	1810,40
412,77	1757,16
412,98	1771,49
413,19	1675,24
413,39	1714,15
413,60	1757,16
413,81	1812,45
414,01	1751,01
414,22	1746,92
414,43	1693,67
414,63	1708,01
414,84	1730,53
415,05	1705,96
415,25	1624,04
415,46	1744,87
415,67	1699,81
415,87	1748,97
416,08	1726,44
416,29	1708,01
416,49	1705,96
416,70	1673,19
416,91	1656,81
417,11	1685,48
417,32	1744,87
417,53	1730,53
417,73	1701,86
417,94	1691,62
418,15	1650,66
418,35	1746,92
418,56	1691,62
418,77	1808,36
418,97	1714,15
419,18	1714,15
419,38	1587,18
419,59	1726,44
419,80	1753,06
420,00	1679,33
420,21	1732,58
420,42	1779,68
420,62	1748,97
420,83	1695,72
421,04	1677,29
421,24	1675,24
421,45	1691,62
421,65	1722,34
421,86	1687,53
422,07	1722,34
422,27	1748,97
422,48	1662,95
422,69	1667,05
422,89	1708,01
423,10	1791,97
423,30	1599,46
423,51	1699,81
423,72	1769,44
423,92	1742,82
424,13	1679,33
424,33	1689,57
424,54	1767,40
424,75	1650,66
424,95	1710,05
425,16	1689,57
425,36	1748,97
425,57	1736,68
425,78	1751,01
425,98	1689,57
426,19	1753,06
426,39	1734,63
426,60	1714,15
426,81	1796,07
427,01	1779,68
427,22	1642,47
427,42	1652,71
427,63	1558,50
427,83	1781,73
428,04	1791,97
428,25	1812,45
428,45	1804,26
428,66	1726,44
428,86	1689,57
429,07	1728,49
429,28	1685,48
429,48	1757,16
429,69	1595,37
429,89	1724,39
430,10	1658,85
430,30	1726,44
430,51	1703,91
430,71	1691,62
430,92	1685,48
431,13	1640,42
431,33	1701,86
431,54	1609,70
431,74	1824,74
431,95	1927,14
432,15	1626,09
432,36	1691,62
432,56	1771,49
432,77	1785,83
432,98	1738,73
433,18	1787,88
433,39	1703,91
433,59	1687,53
433,80	1806,31
434,00	1822,69
434,21	1652,71
434,41	1681,38
434,62	1808,36
434,82	1662,95
435,03	1705,96
435,23	1755,11
435,44	1583,08
435,64	1662,95
435,85	1705,96
436,06	1779,68
436,26	1824,74
436,47	1771,49
436,67	1593,32
436,88	1677,29
437,08	1720,29
437,29	1771,49
437,49	1742,82
437,70	1796,07
437,90	1691,62
438,11	1843,17
438,31	1796,07
438,52	1886,18
438,72	1900,52
438,93	1906,66
439,13	1796,07
439,34	1845,22
439,54	1695,72
439,75	1736,68
439,95	1665,00
440,16	1693,67
440,36	1765,35
440,57	1769,44
440,77	1781,73
440,98	1691,62
441,18	1767,40
441,39	1671,14
441,59	1738,73
441,80	1853,41
442,00	1716,20
442,21	1771,49
442,41	1658,85
442,62	1734,63
442,82	1708,01
443,02	1771,49
443,23	1683,43
443,43	1685,48
443,64	1841,12
443,84	1691,62
444,05	1834,98
444,25	1683,43
444,46	1710,05
444,66	1714,15
444,87	1861,60
445,07	1652,71
445,28	1796,07
445,48	1847,27
445,69	1716,20
445,89	1888,23
446,09	1765,35
446,30	2068,45
446,50	2721,75
446,71	3827,65
446,91	4376,51
447,12	4849,59
447,32	4958,13
447,53	4384,70
447,73	3915,72
447,93	3575,75
448,14	3327,95
448,34	3192,78
448,55	3051,47
448,75	2779,09
448,96	2789,33
449,16	2394,08
449,36	2295,77
449,57	2107,36
449,77	1857,51
449,98	1775,59
450,18	1781,73
450,39	1779,68
450,59	1771,49
450,79	1742,82
451,00	1630,18
451,20	1814,50
451,41	1683,43
451,61	1703,91
451,81	1724,39
452,02	1806,31
452,22	1742,82
452,43	1681,38
452,63	1699,81
452,84	1699,81
453,04	1683,43
453,24	1671,14
453,45	1761,25
453,65	1689,57
453,86	1753,06
454,06	1779,68
454,26	1710,05
454,47	1687,53
454,67	1824,74
454,87	1783,78
455,08	1753,06
455,28	1828,84
455,49	1693,67
455,69	1671,14
455,89	1851,36
456,10	1832,93
456,30	1710,05
456,51	1720,29
456,71	1791,97
456,91	1767,40
457,12	1746,92
457,32	1722,34
457,52	1691,62
457,73	1771,49
457,93	1804,26
458,14	1714,15
458,34	1732,58
458,54	1693,67
458,75	1753,06
458,95	1824,74
459,15	1748,97
459,36	1732,58
459,56	1822,69
459,76	1787,88
459,97	1748,97
460,17	1693,67
460,37	1755,11
460,58	1716,20
460,78	1681,38
460,99	1693,67
461,19	1689,57
461,39	1740,77
461,60	1716,20
461,80	1839,08
462,00	1724,39
462,21	1767,40
462,41	1675,24
462,61	1710,05
462,82	1624,04
463,02	1763,30
463,22	1767,40
463,43	1734,63
463,63	1726,44
463,83	1839,08
464,04	1716,20
464,24	1755,11
464,44	1660,90
464,64	1712,10
464,85	1736,68
465,05	1869,80
465,25	1632,23
465,46	1658,85
465,66	1798,12
465,86	1771,49
466,07	1742,82
466,27	1724,39
466,47	1665,00
466,68	1693,67
466,88	1853,41
467,08	1705,96
467,29	1763,30
467,49	1820,64
467,69	1757,16
467,89	1755,11
468,10	1654,76
468,30	1763,30
468,50	1832,93
468,71	1796,07
468,91	1662,95
469,11	1880,04
469,31	1716,20
469,52	1671,14
469,72	1841,12
469,92	1830,88
470,13	1748,97
470,33	1742,82
470,53	1826,79
470,73	2050,02
470,94	2308,06
471,14	2324,44
471,34	2519,00
471,54	2406,36
471,75	2234,33
471,95	2080,74
472,15	2054,11
472,36	2078,69
472,56	2095,07
472,76	2066,40
472,96	1959,91
473,17	1996,77
473,37	1947,62
473,57	1732,58
473,77	1753,06
473,98	1773,54
474,18	1650,66
474,38	1865,70
474,58	1738,73
474,79	1642,47
474,99	1746,92
475,19	1742,82
475,39	1681,38
475,60	1718,25
475,80	1724,39
476,00	1730,53
476,20	1722,34
476,41	1679,33
476,61	1798,12
476,81	1796,07
477,01	1716,20
477,21	1834,98
477,42	1828,84
477,62	1681,38
477,82	1818,60
478,02	1669,09
478,23	1771,49
478,43	1613,80
478,63	1697,77
478,83	1744,87
479,03	1607,66
479,24	1787,88
479,44	1785,83
479,64	1699,81
479,84	1632,23
480,04	1710,05
480,25	1767,40
480,45	1751,01
480,65	1751,01
480,85	1800,16
481,06	1646,57
481,26	1736,68
481,46	1748,97
481,66	1728,49
481,86	1603,56
482,06	1796,07
482,27	1708,01
482,47	1660,90
482,67	1705,96
482,87	1712,10
483,07	1746,92
483,28	1697,77
483,48	1669,09
483,68	1609,70
483,88	1642,47
484,08	1630,18
484,29	1632,23
484,49	1773,54
484,69	1609,70
484,89	1814,50
485,09	1841,12
485,29	1740,77
485,50	1828,84
485,70	1660,90
485,90	1777,64
486,10	1781,73
486,30	1734,63
486,50	1685,48
486,71	1759,21
486,91	1796,07
487,11	1787,88
487,31	1640,42
487,51	1730,53
487,71	1665,00
487,91	1716,20
488,12	1617,90
488,32	1634,28
488,52	1669,09
488,72	1646,57
488,92	1720,29
489,12	1775,59
489,32	1734,63
489,53	1732,58
489,73	1634,28
489,93	1828,84
490,13	1701,86
490,33	1650,66
490,53	1728,49
490,73	1681,38
490,94	1636,33
491,14	1734,63
491,34	1746,92
491,54	2095,07
491,74	2559,96
491,94	2996,18
492,14	3039,19
492,34	3035,09
492,54	2807,77
492,75	2551,77
492,95	2451,42
493,15	2373,60
493,35	2306,01
493,55	2174,94
493,75	2144,22
493,95	2109,41
494,15	2025,44
494,35	1880,04
494,56	1875,94
494,76	1808,36
494,96	1882,08
495,16	1751,01
495,36	1755,11
495,56	1736,68
495,76	1695,72
495,96	1705,96
496,16	1644,52
496,36	1796,07
496,56	1773,54
496,77	1794,02
496,97	1763,30
497,17	1777,64
497,37	1632,23
497,57	1779,68
497,77	1732,58
497,97	1638,38
498,17	1675,24
498,37	1730,53
498,57	1759,21
498,77	1716,20
498,97	1763,30
499,17	1867,75
499,38	1789,92
499,58	1798,12
499,78	1845,22
499,98	1834,98
500,18	1722,34
500,38	1644,52
500,58	1961,95
500,78	2650,07
500,98	4550,59
501,18	5861,29
501,38	6866,84
501,58	7212,95
501,78	6641,56
501,98	5601,19
502,18	5056,43
502,38	4444,09
502,58	4167,62
502,78	3798,98
502,98	3686,34
503,18	3542,99
503,38	3094,48
503,59	2793,43
503,79	2684,89
503,99	2371,55
504,19	2320,35
504,39	2103,26
504,59	2193,37
504,79	2078,69
504,99	2193,37
505,19	1955,81
505,39	1806,31
505,59	1982,43
505,79	1986,53
505,99	1830,88
506,19	1871,84
506,39	1818,60
506,59	1783,78
506,79	1779,68
506,99	1806,31
507,19	1810,40
507,39	1710,05
507,59	1691,62
507,79	1714,15
507,99	1677,29
508,19	1697,77
508,39	1656,81
508,59	1691,62
508,79	1808,36
508,99	1865,70
509,19	1724,39
509,39	1781,73
509,59	1693,67
509,79	1671,14
509,99	1697,77
510,19	1806,31
510,39	1773,54
510,59	1777,64
510,79	1658,85
510,99	1705,96
511,19	1685,48
511,39	1810,40
511,59	1767,40
511,79	1873,89
511,99	1746,92
512,19	1855,46
512,38	1693,67
512,58	1710,05
512,78	1685,48
512,98	1771,49
513,18	1773,54
513,38	1673,19
513,58	1748,97
513,78	1767,40
513,98	1705,96
514,18	1722,34
514,38	1730,53
514,58	1796,07
514,78	1730,53
514,98	1687,53
515,18	1738,73
515,38	1714,15
515,58	1845,22
515,78	1722,34
515,98	1796,07
516,18	1738,73
516,38	1791,97
516,57	1714,15
516,77	1701,86
516,97	1814,50
517,17	1693,67
517,37	1626,09
517,57	1810,40
517,77	1720,29
517,97	1654,76
518,17	1773,54
518,37	1738,73
518,57	1656,81
518,77	1656,81
518,97	1755,11
519,16	1763,30
519,36	1763,30
519,56	1679,33
519,76	1710,05
519,96	1722,34
520,16	1820,64
520,36	1687,53
520,56	1736,68
520,76	1695,72
520,96	1703,91
521,16	1804,26
521,35	1757,16
521,55	1791,97
521,75	1789,92
521,95	1740,77
522,15	1703,91
522,35	1726,44
522,55	1769,44
522,75	1781,73
522,95	1658,85
523,14	1753,06
523,34	1777,64
523,54	1720,29
523,74	1812,45
523,94	1773,54
524,14	1656,81
524,34	1785,83
524,54	1775,59
524,73	1665,00
524,93	1769,44
525,13	1783,78
525,33	1681,38
525,53	1843,17
525,73	1755,11
525,93	1767,40
526,13	1675,24
526,32	1763,30
526,52	1775,59
526,72	1716,20
526,92	1667,05
527,12	1738,73
527,32	1685,48
527,52	1755,11
527,71	1710,05
527,91	1675,24
528,11	1648,61
528,31	1634,28
528,51	1669,09
528,71	1712,10
528,90	1755,11
529,10	1845,22
529,30	1789,92
529,50	1599,46
529,70	1730,53
529,90	1665,00
530,09	1736,68
530,29	1697,77
530,49	1699,81
530,69	1902,56
530,89	1777,64
531,09	1800,16
531,28	1628,14
531,48	1824,74
531,68	1767,40
531,88	1828,84
532,08	1843,17
532,28	1732,58
532,47	1814,50
532,67	1755,11
532,87	1785,83
533,07	1665,00
533,27	1753,06
533,46	1689,57
533,66	1714,15
533,86	1738,73
534,06	1710,05
534,26	1744,87
534,45	1681,38
534,65	1771,49
534,85	1716,20
535,05	1654,76
535,25	1742,82
535,44	1648,61
535,64	1757,16
535,84	1720,29
536,04	1691,62
536,24	1673,19
536,43	1716,20
536,63	1751,01
536,83	1724,39
537,03	1755,11
537,22	1669,09
537,42	1648,61
537,62	1685,48
537,82	1640,42
538,02	1779,68
538,21	1802,21
538,41	1824,74
538,61	1740,77
538,81	1726,44
539,00	1726,44
539,20	1658,85
539,40	1677,29
539,60	1791,97
539,79	1783,78
539,99	1724,39
540,19	1638,38
540,39	1746,92
540,58	1761,25
540,78	1673,19
540,98	1693,67
541,18	1800,16
541,37	1755,11
541,57	1769,44
541,77	1697,77
541,97	1667,05
542,16	1714,15
542,36	1691,62
542,56	1632,23
542,76	1863,65
542,95	1753,06
543,15	1718,25
543,35	1824,74
543,54	1738,73
543,74	1746,92
543,94	1802,21
544,14	1679,33
544,33	1818,60
544,53	1683,43
544,73	1728,49
544,93	1730,53
545,12	1683,43
545,32	1669,09
545,52	1691,62
545,71	1701,86
545,91	1656,81
546,11	1708,01
546,30	1687,53
546,50	1738,73
546,70	1722,34
546,90	1800,16
547,09	1572,84
547,29	1740,77
547,49	1771,49
547,68	1769,44
547,88	1693,67
548,08	1779,68
548,27	2156,51
548,47	1708,01
548,67	1669,09
548,87	1785,83
549,06	1751,01
549,26	1742,82
549,46	1695,72
549,65	1744,87
549,85	1783,78
550,05	1802,21
550,24	1699,81
550,44	1669,09
550,64	1689,57
550,83	1691,62
551,03	1734,63
551,23	1804,26
551,42	1755,11
551,62	1716,20
551,82	1734,63
552,01	1697,77
552,21	1904,61
552,41	1665,00
552,60	1814,50
552,80	1730,53
553,00	1738,73
553,19	1716,20
553,39	1834,98
553,59	1617,90
553,78	1775,59
553,98	1716,20
554,17	1720,29
554,37	1687,53
554,57	1781,73
554,76	1652,71
554,96	1701,86
555,16	1734,63
555,35	1746,92
555,55	1763,30
555,75	1775,59
555,94	1757,16
556,14	1660,90
556,33	1720,29
556,53	1736,68
556,73	1763,30
556,92	1732,58
557,12	1869,80
557,32	1857,51
557,51	1789,92
557,71	1769,44
557,90	1828,84
558,10	1763,30
558,30	1671,14
558,49	1697,77
558,69	1777,64
558,88	1748,97
559,08	1775,59
559,28	1650,66
559,47	1759,21
559,67	1783,78
559,86	1853,41
560,06	1785,83
560,26	1695,72
560,45	1773,54
560,65	1724,39
560,84	1798,12
561,04	1642,47
561,24	1787,88
561,43	1632,23
561,63	1855,46
561,82	1724,39
562,02	1757,16
562,22	1712,10
562,41	1687,53
562,61	1705,96
562,80	1695,72
563,00	1869,80
563,19	1785,83
563,39	1724,39
563,59	1712,10
563,78	1624,04
563,98	1607,66
564,17	1634,28
564,37	1652,71
564,56	1777,64
564,76	1662,95
564,96	1802,21
565,15	1781,73
565,35	1857,51
565,54	1673,19
565,74	1732,58
565,93	1703,91
566,13	1728,49
566,32	1763,30
566,52	1748,97
566,71	1671,14
566,91	1847,27
567,11	1597,42
567,30	1693,67
567,50	1697,77
567,69	1710,05
567,89	1720,29
568,08	1693,67
568,28	1787,88
568,47	1689,57
568,67	1763,30
568,86	1679,33
569,06	1751,01
569,25	1822,69
569,45	1705,96
569,64	1710,05
569,84	1724,39
570,04	1767,40
570,23	1673,19
570,43	1714,15
570,62	1736,68
570,82	1830,88
571,01	1710,05
571,21	1697,77
571,40	1669,09
571,60	1751,01
571,79	1765,35
571,99	1736,68
572,18	1681,38
572,38	1779,68
572,57	1771,49
572,77	1746,92
572,96	1859,56
573,16	1771,49
573,35	1673,19
573,55	1814,50
573,74	1722,34
573,94	1769,44
574,13	1710,05
574,33	1783,78
574,52	1771,49
574,71	1710,05
574,91	1814,50
575,10	1648,61
575,30	1712,10
575,49	1681,38
575,69	1634,28
575,88	1742,82
576,08	1671,14
576,27	1785,83
576,47	1716,20
576,66	1789,92
576,86	1769,44
577,05	1755,11
577,25	1787,88
577,44	1902,56
577,64	1753,06
577,83	1748,97
578,02	1759,21
578,22	1906,66
578,41	1882,08
578,61	1740,77
578,80	1685,48
579,00	1765,35
579,19	1753,06
579,39	1783,78
579,58	1779,68
579,77	1724,39
579,97	1791,97
580,16	1781,73
580,36	1736,68
580,55	1816,55
580,75	1753,06
580,94	1785,83
581,13	1853,41
581,33	1810,40
581,52	1820,64
581,72	1812,45
581,91	1828,84
582,11	1759,21
582,30	1773,54
582,49	1781,73
582,69	1849,32
582,88	1818,60
583,08	1724,39
583,27	1802,21
583,47	1779,68
583,66	1689,57
583,85	1708,01
584,05	1724,39
584,24	1761,25
584,44	1765,35
584,63	1834,98
584,82	1759,21
585,02	1849,32
585,21	1814,50
585,41	1804,26
585,60	1820,64
585,79	1888,23
585,99	1957,86
586,18	1910,75
586,37	2248,67
586,57	3473,36
586,76	10127,21
586,96	24972,93
587,15	35059,18
587,34	41235,85
587,54	43148,65
587,73	37553,60
587,93	27342,43
588,12	22122,16
588,31	18597,60
588,51	16852,73
588,70	15513,36
588,89	14241,57
589,09	12881,72
589,28	11253,59
589,47	9734,00
589,67	8085,38
589,86	6539,16
590,06	5124,02
590,25	3897,28
590,44	3133,39
590,64	2625,50
590,83	2287,58
591,02	2187,23
591,22	1955,81
591,41	1863,65
591,60	1894,37
591,80	1978,34
591,99	1730,53
592,18	1839,08
592,38	1853,41
592,57	1771,49
592,76	1736,68
592,96	1763,30
593,15	1716,20
593,34	1800,16
593,54	1787,88
593,73	1816,55
593,92	1759,21
594,12	1740,77
594,31	1763,30
594,50	1822,69
594,70	1771,49
594,89	1828,84
595,08	1730,53
595,28	1767,40
595,47	1849,32
595,66	1812,45
595,86	1677,29
596,05	1722,34
596,24	1652,71
596,43	1851,36
596,63	1841,12
596,82	1775,59
597,01	1785,83
597,21	1855,46
597,40	1732,58
597,59	1767,40
597,79	1751,01
597,98	1765,35
598,17	1710,05
598,36	1783,78
598,56	1765,35
598,75	1667,05
598,94	1773,54
599,14	1783,78
599,33	1771,49
599,52	1710,05
599,71	1720,29
599,91	1832,93
600,10	1755,11
600,29	1736,68
600,48	1722,34
600,68	1742,82
600,87	1738,73
601,06	1742,82
601,26	1703,91
601,45	1691,62
601,64	1710,05
601,83	1775,59
602,03	1765,35
602,22	1697,77
602,41	1771,49
602,60	1767,40
602,80	1771,49
602,99	1705,96
603,18	1712,10
603,37	1753,06
603,57	1832,93
603,76	1828,84
603,95	1755,11
604,14	1714,15
604,34	1683,43
604,53	1802,21
604,72	1744,87
604,91	1714,15
605,10	1818,60
605,30	1646,57
605,49	1738,73
605,68	1701,86
605,87	1734,63
606,07	1701,86
606,26	1710,05
606,45	1720,29
606,64	1677,29
606,84	1638,38
607,03	1710,05
607,22	1855,46
607,41	1689,57
607,60	1734,63
607,80	1740,77
607,99	1771,49
608,18	1744,87
608,37	1701,86
608,56	1669,09
608,76	1785,83
608,95	1843,17
609,14	1683,43
609,33	1763,30
609,52	1755,11
609,72	1638,38
609,91	1742,82
610,10	1730,53
610,29	1849,32
610,48	1658,85
610,68	1693,67
610,87	1705,96
611,06	1726,44
611,25	1693,67
611,44	1798,12
611,63	1703,91
611,83	1746,92
612,02	1671,14
612,21	1705,96
612,40	1624,04
612,59	1658,85
612,79	1632,23
612,98	1753,06
613,17	1871,84
613,36	1728,49
613,55	1849,32
613,74	1675,24
613,93	1689,57
614,13	1738,73
614,32	1748,97
614,51	1724,39
614,70	1693,67
614,89	1687,53
615,08	1681,38
615,28	2090,98
615,47	1658,85
615,66	1787,88
615,85	1732,58
616,04	1789,92
616,23	1720,29
616,42	1724,39
616,62	1757,16
616,81	1757,16
617,00	1693,67
617,19	1724,39
617,38	1742,82
617,57	1732,58
617,76	1720,29
617,95	1761,25
618,15	1748,97
618,34	1861,60
618,53	1626,09
618,72	1781,73
618,91	1789,92
619,10	1873,89
619,29	1734,63
619,48	1746,92
619,68	1705,96
619,87	1798,12
620,06	1687,53
620,25	1824,74
620,44	1759,21
620,63	1712,10
620,82	1720,29
621,01	1699,81
621,20	1730,53
621,39	1763,30
621,59	1705,96
621,78	1757,16
621,97	1703,91
622,16	1691,62
622,35	1714,15
622,54	1703,91
622,73	1734,63
622,92	1603,56
623,11	1769,44
623,30	1677,29
623,49	1785,83
623,68	1714,15
623,88	1826,79
624,07	1683,43
624,26	1771,49
624,45	1761,25
624,64	1757,16
624,83	1730,53
625,02	1693,67
625,21	1714,15
625,40	1794,02
625,59	1777,64
625,78	1775,59
625,97	1800,16
626,16	1785,83
626,35	1736,68
626,54	1771,49
626,74	1765,35
626,93	1603,56
627,12	1716,20
627,31	1734,63
627,50	1714,15
627,69	1763,30
627,88	1703,91
628,07	1693,67
628,26	1624,04
628,45	1671,14
628,64	1691,62
628,83	1763,30
629,02	1636,33
629,21	1834,98
629,40	1699,81
629,59	1648,61
629,78	1658,85
629,97	1767,40
630,16	1689,57
630,35	1787,88
630,54	1722,34
630,73	1679,33
630,92	1738,73
631,11	1621,99
631,30	1789,92
631,49	1791,97
631,68	1751,01
631,87	1734,63
632,06	1605,61
632,25	1877,99
632,44	1744,87
632,63	1744,87
632,82	1673,19
633,01	1671,14
633,20	1703,91
633,39	1601,51
633,58	1568,74
633,77	1626,09
633,96	1705,96
634,15	1724,39
634,34	1708,01
634,53	1755,11
634,72	1634,28
634,91	1732,58
635,10	1748,97
635,29	1765,35
635,48	1677,29
635,67	1720,29
635,86	1689,57
636,05	1773,54
636,24	1679,33
636,43	1662,95
636,62	1740,77
636,81	1578,98
637,00	1665,00
637,19	1697,77
637,38	1802,21
637,57	1638,38
637,76	1716,20
637,95	1712,10
638,14	1650,66
638,33	1705,96
638,52	1714,15
638,71	1665,00
638,89	1689,57
639,08	1845,22
639,27	1759,21
639,46	1691,62
639,65	1839,08
639,84	1689,57
640,03	1779,68
640,22	1628,14
640,41	1902,56
640,60	1714,15
640,79	1724,39
640,98	1660,90
641,17	1773,54
641,36	1718,25
641,55	1701,86
641,74	1589,22
641,92	1699,81
642,11	1646,57
642,30	1667,05
642,49	1742,82
642,68	1677,29
642,87	1703,91
643,06	1759,21
643,25	1714,15
643,44	1583,08
643,63	1759,21
643,82	1757,16
644,00	1628,14
644,19	1691,62
644,38	1705,96
644,57	1699,81
644,76	1703,91
644,95	1701,86
645,14	1695,72
645,33	1714,15
645,52	1701,86
645,71	1667,05
645,89	1599,46
646,08	1660,90
646,27	1626,09
646,46	1740,77
646,65	1726,44
646,84	1785,83
647,03	1689,57
647,22	1734,63
647,40	1753,06
647,59	1667,05
647,78	1667,05
647,97	1607,66
648,16	1673,19
648,35	1794,02
648,54	1710,05
648,73	1656,81
648,91	1744,87
649,10	1722,34
649,29	1589,22
649,48	1685,48
649,67	1667,05
649,86	1632,23
650,05	1644,52
650,23	1789,92
650,42	1628,14
650,61	1701,86
650,80	1798,12
650,99	1837,03
651,18	1738,73
651,36	1730,53
651,55	1683,43
651,74	1751,01
651,93	1658,85
652,12	1703,91
652,31	1691,62
652,49	1695,72
652,68	1681,38
652,87	1746,92
653,06	1662,95
653,25	1683,43
653,44	1685,48
653,62	1806,31
653,81	1703,91
654,00	1710,05
654,19	1851,36
654,38	1923,04
654,56	1736,68
654,75	1699,81
654,94	1832,93
655,13	1742,82
655,32	1654,76
655,51	1734,63
655,69	1751,01
655,88	1761,25
656,07	1679,33
656,26	1705,96
656,45	1697,77
656,63	1726,44
656,82	1757,16
657,01	1773,54
657,20	1665,00
657,38	1746,92
657,57	1710,05
657,76	1673,19
657,95	1730,53
658,14	1710,05
658,32	1765,35
658,51	1642,47
658,70	1716,20
658,89	1714,15
659,08	1765,35
659,26	1787,88
659,45	1705,96
659,64	1751,01
659,83	1669,09
660,01	1912,80
660,20	1710,05
660,39	1791,97
660,58	1615,85
660,76	1796,07
660,95	1591,27
661,14	1701,86
661,33	1617,90
661,51	1755,11
661,70	1724,39
661,89	1705,96
662,08	1726,44
662,26	1613,80
662,45	1675,24
662,64	1859,56
662,83	1806,31
663,01	1669,09
663,20	1685,48
663,39	1841,12
663,58	1675,24
663,76	1708,01
663,95	1791,97
664,14	1607,66
664,32	1736,68
664,51	1642,47
664,70	1619,94
664,89	1771,49
665,07	1665,00
665,26	1734,63
665,45	1677,29
665,64	1837,03
665,82	1814,50
666,01	1787,88
666,20	1708,01
666,38	1826,79
666,57	1806,31
666,76	2213,85
666,95	4601,79
667,13	10610,53
667,32	15679,25
667,51	18274,03
667,69	19732,18
667,88	18026,22
668,07	12709,69
668,25	9811,82
668,44	8298,37
668,63	7489,42
668,81	6948,76
669,00	6414,24
669,19	5791,66
669,38	5222,32
669,56	4491,20
669,75	4091,84
669,94	3452,88
670,12	2963,41
670,31	2650,07
670,50	2285,53
670,68	2076,64
670,87	1925,09
671,06	1863,65
671,24	1755,11
671,43	1873,89
671,62	1650,66
671,80	1710,05
671,99	1660,90
672,18	1683,43
672,36	1730,53
672,55	1697,77
672,74	1703,91
672,92	1681,38
673,11	1681,38
673,29	1589,22
673,48	1740,77
673,67	1658,85
673,85	1742,82
674,04	1603,56
674,23	1767,40
674,41	1783,78
674,60	1615,85
674,79	1560,55
674,97	1705,96
675,16	1757,16
675,34	1791,97
675,53	1712,10
675,72	1789,92
675,90	1789,92
676,09	1748,97
676,28	1726,44
676,46	1554,41
676,65	1726,44
676,83	1726,44
677,02	1785,83
677,21	1673,19
677,39	1757,16
677,58	1665,00
677,77	1650,66
677,95	1785,83
678,14	1697,77
678,32	1730,53
678,51	1591,27
678,70	1880,04
678,88	1652,71
679,07	1775,59
679,25	1738,73
679,44	1669,09
679,63	1677,29
679,81	1710,05
680,00	1789,92
680,18	1757,16
680,37	1812,45
680,55	1746,92
680,74	1603,56
680,93	1611,75
681,11	1761,25
681,30	1724,39
681,48	1736,68
681,67	1734,63
681,85	1710,05
682,04	1705,96
682,23	1746,92
682,41	1726,44
682,60	1681,38
682,78	1767,40
682,97	1654,76
683,15	1632,23
683,34	1732,58
683,53	1849,32
683,71	1646,57
683,90	1740,77
684,08	1808,36
684,27	1744,87
684,45	1705,96
684,64	1814,50
684,82	1738,73
685,01	1748,97
685,19	1724,39
685,38	1798,12
685,57	1718,25
685,75	1656,81
685,94	1644,52
686,12	1710,05
686,31	1669,09
686,49	1830,88
686,68	1712,10
686,86	1744,87
687,05	1759,21
687,23	1802,21
687,42	1667,05
687,60	1658,85
687,79	1820,64
687,97	1806,31
688,16	1789,92
688,34	1773,54
688,53	1542,12
688,71	1748,97
688,90	1800,16
689,08	1693,67
689,27	1570,79
689,45	1685,48
689,64	1683,43
689,82	1738,73
690,01	1689,57
690,19	1804,26
690,38	1703,91
690,56	1724,39
690,75	1638,38
690,93	1679,33
691,12	1654,76
691,30	1771,49
691,49	1654,76
691,67	1716,20
691,86	1765,35
692,04	1714,15
692,23	1662,95
692,41	1691,62
692,60	1757,16
692,78	1691,62
692,97	1662,95
693,15	1773,54
693,34	1798,12
693,52	1724,39
693,71	1708,01
693,89	1708,01
694,08	1619,94
694,26	1738,73
694,44	1771,49
694,63	1738,73
694,81	1660,90
695,00	1640,42
695,18	1736,68
695,37	1867,75
695,55	1763,30
695,74	1665,00
695,92	1720,29
696,10	1718,25
696,29	1650,66
696,47	1718,25
696,66	1671,14
696,84	1654,76
697,03	1824,74
697,21	1880,04
697,40	2263,01
697,58	1771,49
697,76	1652,71
697,95	1671,14
698,13	1673,19
698,32	1675,24
698,50	1720,29
698,68	1669,09
698,87	1771,49
699,05	1771,49
699,24	1677,29
699,42	1697,77
699,61	1722,34
699,79	1642,47
699,97	1673,19
700,16	1679,33
700,34	1705,96
700,53	1613,80
700,71	1830,88
700,89	1753,06
701,08	1695,72
701,26	1726,44
701,45	2082,78
701,63	1566,70
701,81	1587,18
702,00	1568,74
702,18	1673,19
702,37	1689,57
702,55	1775,59
702,73	1710,05
702,92	1615,85
703,10	1687,53
703,28	1740,77
703,47	1638,38
703,65	1820,64
703,84	1671,14
704,02	1615,85
704,20	1783,78
704,39	1652,71
704,57	1691,62
704,75	1781,73
704,94	1646,57
705,12	1755,11
705,30	1765,35
705,49	2207,71
705,67	4417,47
705,86	9611,12
706,04	12812,09
706,22	14950,17
706,41	15720,21
706,59	14423,84
706,77	9832,30
706,96	7589,77
707,14	6770,58
707,32	6129,57
707,51	5863,33
707,69	5033,91
707,87	4296,64
708,06	3567,56
708,24	2977,75
708,42	2486,23
708,61	2320,35
708,79	1929,19
708,97	1777,64
709,16	1849,32
709,34	1759,21
709,52	1820,64
709,71	1724,39
709,89	1683,43
710,07	1765,35
710,26	1648,61
710,44	1699,81
710,62	1773,54
710,80	1755,11
710,99	1726,44
711,17	1746,92
711,35	1644,52
711,54	1687,53
711,72	1701,86
711,90	1759,21
712,09	1759,21
712,27	1722,34
712,45	1691,62
712,63	1638,38
712,82	1654,76
713,00	1656,81
713,18	1753,06
713,37	1751,01
713,55	1767,40
713,73	1722,34
713,91	1689,57
714,10	1634,28
714,28	1685,48
714,46	1738,73
714,65	1703,91
714,83	1701,86
715,01	1652,71
715,19	1681,38
715,38	1755,11
715,56	1720,29
715,74	1632,23
715,92	1593,32
716,11	1734,63
716,29	1572,84
716,47	1675,24
716,65	1673,19
716,84	1593,32
717,02	1779,68
717,20	1591,27
717,38	1701,86
717,57	1722,34
717,75	1796,07
717,93	1669,09
718,11	1726,44
718,30	1660,90
718,48	1748,97
718,66	1753,06
718,84	1726,44
719,03	1716,20
719,21	1591,27
719,39	1830,88
719,57	1755,11
719,75	1794,02
719,94	1648,61
720,12	1701,86
720,30	1714,15
720,48	1802,21
720,67	1671,14
720,85	1669,09
721,03	1593,32
721,21	1681,38
721,39	1787,88
721,58	1640,42
721,76	1671,14
721,94	1757,16
722,12	1746,92
722,30	1746,92
722,49	1660,90
722,67	1757,16
722,85	1701,86
723,03	1615,85
723,21	1693,67
723,40	1705,96
723,58	1751,01
723,76	1689,57
723,94	1703,91
724,12	1701,86
724,30	1765,35
724,49	1759,21
724,67	1597,42
724,85	1828,84
725,03	1613,80
725,21	1703,91
725,40	1773,54
725,58	1734,63
725,76	1742,82
725,94	1734,63
726,12	1689,57
726,30	1665,00
726,49	1669,09
726,67	1638,38
726,85	1693,67
727,03	1845,22
727,21	2160,61
727,39	2912,21
727,57	3841,99
727,76	4253,63
727,94	4546,49
728,12	4425,66
728,30	3782,60
728,48	2994,13
728,66	2701,27
728,84	2510,81
729,03	2310,11
729,21	2174,94
729,39	1994,72
729,57	1832,93
729,75	1828,84
729,93	1822,69
730,11	1716,20
730,30	1753,06
730,48	1705,96
730,66	1798,12
730,84	1777,64
731,02	1724,39
731,20	1665,00
731,38	1726,44
731,56	1624,04
731,74	1611,75
731,93	1705,96
732,11	1644,52
732,29	1646,57
732,47	1685,48
732,65	1777,64
732,83	1765,35
733,01	1804,26
733,19	1669,09
733,37	1718,25
733,56	1650,66
733,74	1716,20
733,92	1751,01
734,10	1699,81
734,28	1751,01
734,46	1615,85
734,64	1701,86
734,82	1728,49
735,00	1683,43
735,18	1683,43
735,36	1652,71
735,54	1728,49
735,73	1685,48
735,91	1708,01
736,09	1728,49
736,27	1730,53
736,45	1753,06
736,63	1591,27
736,81	1646,57
736,99	1746,92
737,17	1791,97
737,35	1640,42
737,53	1640,42
737,71	1677,29
737,89	1806,31
738,07	1660,90
738,25	1683,43
738,43	1628,14
738,61	1714,15
738,80	1597,42
738,98	1656,81
739,16	1734,63
739,34	1683,43
739,52	1804,26
739,70	1683,43
739,88	1714,15
740,06	1798,12
740,24	1556,46
740,42	1779,68
740,60	1640,42
740,78	1718,25
740,96	1574,89
741,14	1634,28
741,32	1689,57
741,50	1587,18
741,68	1796,07
741,86	1812,45
742,04	1689,57
742,22	1658,85
742,40	1751,01
742,58	1703,91
742,76	1697,77
742,94	1746,92
743,12	1652,71
743,30	1701,86
743,48	1765,35
743,66	1617,90
743,84	1699,81
744,02	1671,14
744,20	1669,09
744,38	1660,90
744,56	1656,81
744,74	1724,39
744,92	1763,30
745,10	1701,86
745,28	1748,97
745,46	1751,01
745,64	1650,66
745,82	1802,21
746,00	1685,48
746,18	1791,97
746,36	1609,70
746,54	1787,88
746,72	1626,09
746,90	1591,27
747,08	1746,92
747,26	1642,47
747,44	1693,67
747,62	1697,77
747,80	1708,01
747,98	1761,25
748,15	1636,33
748,33	1818,60
748,51	1744,87
748,69	1742,82
748,87	1675,24
749,05	1699,81
749,23	1660,90
749,41	1667,05
749,59	1693,67
749,77	1683,43
749,95	1624,04
750,13	1572,84
750,31	1751,01
750,49	1671,14
750,67	1671,14
750,85	1800,16
751,03	1742,82
751,20	1877,99
751,38	1681,38
751,56	1703,91
751,74	1718,25
751,92	1656,81
752,10	1644,52
752,28	1751,01
752,46	1621,99
752,64	1609,70
752,82	1630,18
753,00	1718,25
753,18	1626,09
753,35	1718,25
753,53	1665,00
753,71	1611,75
753,89	1755,11
754,07	1683,43
754,25	1722,34
754,43	1683,43
754,61	1669,09
754,79	1712,10
754,97	1673,19
755,14	1804,26
755,32	1654,76
755,50	1705,96
755,68	1660,90
755,86	1634,28
756,04	1701,86
756,22	1581,03
756,40	1722,34
756,57	1714,15
756,75	1669,09
756,93	1814,50
757,11	1761,25
757,29	1603,56
757,47	1644,52
757,65	1685,48
757,82	1552,36
758,00	1679,33
758,18	1699,81
758,36	1644,52
758,54	1718,25
758,72	1607,66
758,90	1820,64
759,07	1722,34
759,25	1656,81
759,43	1689,57
759,61	1665,00
759,79	2086,88
759,97	1693,67
760,15	1675,24
760,32	1630,18
760,50	1710,05
760,68	1828,84
760,86	1681,38
761,04	1732,58
761,22	1751,01
761,39	1695,72
761,57	1800,16
761,75	1689,57
761,93	1718,25
762,11	1720,29
762,28	1642,47
762,46	1716,20
762,64	1726,44
762,82	1591,27
763,00	1703,91
763,18	1806,31
763,35	1621,99
763,53	1703,91
763,71	1769,44
763,89	1648,61
764,07	1699,81
764,24	1652,71
764,42	1757,16
764,60	1728,49
764,78	1667,05
764,96	1718,25
765,13	1636,33
765,31	1716,20
765,49	1734,63
765,67	1718,25
765,84	1665,00
766,02	1673,19
766,20	1562,60
766,38	1675,24
766,56	1695,72
766,73	1787,88
766,91	1738,73
767,09	1751,01
767,27	1687,53
767,44	1673,19
767,62	1771,49
767,80	1746,92
767,98	1740,77
768,15	1736,68
768,33	1599,46
768,51	1742,82
768,69	1740,77
768,87	1724,39
769,04	1644,52
769,22	1873,89
769,40	1697,77
769,58	1822,69
769,75	1751,01
769,93	1753,06
770,11	1685,48
770,28	1695,72
770,46	1708,01
770,64	1800,16
770,82	1701,86
770,99	1671,14
771,17	1779,68
771,35	1632,23
771,53	1726,44
771,70	1705,96
771,88	1687,53
772,06	1638,38
772,23	1665,00
772,41	1708,01
772,59	1740,77
772,77	1695,72
772,94	1708,01
773,12	1767,40
773,30	1654,76
773,47	1683,43
773,65	1685,48
773,83	1791,97
774,01	1746,92
774,18	1589,22
774,36	1689,57
774,54	1607,66
774,71	1736,68
774,89	1632,23
775,07	1609,70
775,24	1667,05
775,42	1677,29
775,60	1748,97
775,78	1665,00
775,95	1599,46
776,13	1640,42
776,31	1591,27
776,48	1724,39
776,66	1738,73
776,84	1640,42
777,01	1640,42
777,19	1650,66
777,37	1628,14
777,54	1767,40
777,72	1757,16
777,90	1734,63
778,07	1654,76
778,25	1859,56
778,43	1689,57
778,60	1705,96
778,78	1724,39
778,96	1785,83
779,13	1642,47
779,31	1697,77
779,49	1656,81
779,66	1628,14
779,84	1693,67
780,01	1669,09
780,19	1722,34
780,37	1802,21
780,54	1810,40
780,72	1628,14
780,90	1681,38
781,07	1701,86
781,25	1656,81
781,43	1771,49
781,60	1693,67
781,78	1744,87
781,95	1720,29
782,13	1615,85
782,31	1654,76
782,48	1644,52
782,66	1714,15
782,83	1751,01
783,01	1738,73
783,19	1771,49
783,36	1748,97
783,54	1621,99
783,72	1728,49
783,89	1687,53
784,07	1708,01
784,24	1761,25
784,42	1767,40
784,60	1703,91
784,77	1665,00
784,95	1603,56
785,12	1728,49
785,30	1654,76
785,47	1634,28
785,65	1660,90
785,83	1716,20
786,00	1638,38
786,18	1703,91
786,35	1609,70
786,53	1607,66
786,71	1773,54
786,88	1730,53
787,06	1634,28
787,23	1740,77
787,41	1646,57
787,58	1746,92
787,76	1683,43
787,94	1748,97
788,11	1779,68
788,29	1583,08
788,46	1570,79
788,64	1624,04
788,81	1640,42
788,99	1710,05
789,16	1675,24
789,34	1736,68
789,52	1697,77
789,69	1753,06
789,87	1574,89
790,04	1617,90
790,22	1673,19
790,39	1796,07
790,57	1693,67
790,74	1679,33
790,92	1818,60
791,09	1652,71
791,27	1736,68
791,44	1708,01
791,62	1710,05
791,79	1746,92
791,97	1697,77
792,15	1765,35
792,32	1746,92
792,50	1816,55
792,67	1744,87
792,85	1753,06
793,02	1669,09
793,20	1656,81
793,37	1671,14
793,55	1718,25
793,72	1636,33
793,90	1767,40
794,07	1648,61
794,25	1642,47
794,42	1744,87
794,60	1675,24
794,77	1710,05
794,95	1726,44
795,12	1755,11
795,30	1740,77
795,47	1583,08
795,65	1902,56
795,82	1710,05
796,00	1681,38
796,17	1718,25
796,34	1740,77
796,52	1736,68
796,69	1691,62
796,87	1779,68
797,04	1705,96
797,22	1738,73
797,39	1759,21
797,57	1714,15
797,74	1701,86
797,92	1734,63
798,09	1718,25
798,27	1771,49
798,44	1732,58
798,62	1673,19
798,79	1675,24
798,96	1716,20
799,14	1640,42
799,31	1779,68
799,49	1675,24
799,66	1714,15
799,84	1751,01
800,01	1595,37
800,19	1751,01
800,36	1611,75
800,53	1695,72
800,71	1751,01
800,88	1796,07
801,06	1681,38
801,23	1742,82
801,41	1693,67
801,58	1675,24
801,75	1669,09
801,93	1773,54
802,10	1705,96
802,28	1697,77
802,45	1687,53
802,63	1748,97
802,80	1810,40
802,97	1705,96
803,15	1630,18
803,32	1638,38
803,50	1605,61
803,67	1658,85
803,84	1638,38
804,02	1677,29
804,19	1648,61
804,37	1574,89
804,54	1595,37
804,71	1644,52
804,89	1695,72
805,06	1662,95
805,24	1646,57
805,41	1705,96
805,58	1734,63
805,76	1814,50
805,93	1654,76
806,10	1746,92
806,28	1738,73
806,45	1656,81
806,63	1712,10
806,80	1791,97
806,97	1658,85
807,15	1724,39
807,32	1705,96
807,49	1742,82
807,67	1656,81
807,84	1691,62
808,01	1636,33
808,19	1820,64
808,36	1837,03
808,54	1714,15
808,71	1603,56
808,88	1687,53
809,06	1724,39
809,23	1828,84
809,40	1601,51
809,58	1714,15
809,75	1693,67
809,92	1705,96
810,10	1769,44
810,27	1681,38
810,44	1738,73
810,62	1761,25
810,79	1759,21
810,96	1689,57
811,14	1742,82
811,31	1781,73
811,48	1681,38
811,66	1697,77
811,83	1785,83
812,00	1775,59
812,18	1691,62
812,35	1830,88
812,52	1712,10
812,69	1708,01
812,87	1607,66
813,04	1683,43
813,21	1693,67
813,39	1724,39
813,56	1650,66
813,73	1753,06
813,91	1611,75
814,08	1771,49
814,25	1742,82
814,42	1644,52
814,60	1746,92
814,77	1683,43
814,94	1669,09
815,12	1722,34
815,29	1796,07
815,46	1722,34
815,63	1697,77
815,81	1697,77
815,98	1665,00
816,15	1701,86
816,33	1697,77
816,50	1646,57
816,67	1685,48
816,84	1714,15
817,02	1597,42
817,19	1718,25
817,36	1697,77
817,53	1773,54
817,71	1595,37
817,88	1791,97
818,05	1638,38
818,22	1685,48
818,40	1751,01
818,57	1656,81
818,74	1708,01
818,91	1675,24
819,09	1726,44
819,26	1742,82
819,43	1603,56
819,60	1630,18
819,78	1798,12
819,95	1761,25
820,12	1665,00
820,29	1693,67
820,47	1705,96
820,64	1767,40
820,81	1628,14
820,98	1656,81
821,15	1665,00
821,33	1787,88
821,50	1607,66
821,67	1714,15
821,84	1662,95
822,02	1759,21
822,19	1683,43
822,36	1710,05
822,53	1654,76
822,70	1665,00
822,88	1683,43
823,05	1734,63
823,22	1722,34
823,39	1755,11
823,56	1726,44
823,74	1867,75
823,91	1636,33
824,08	1652,71
824,25	1621,99
824,42	1763,30
824,60	1673,19
824,77	1667,05
824,94	1755,11
825,11	1755,11
825,28	1544,17
825,45	1720,29
825,63	1763,30
825,80	1685,48
825,97	1726,44
826,14	1654,76
826,31	1638,38
826,48	1755,11
826,66	1634,28
826,83	1593,32
827,00	1728,49
827,17	1677,29
827,34	1617,90
827,51	1728,49
827,69	1710,05
827,86	1644,52
828,03	1642,47
828,20	1710,05
828,37	1581,03
828,54	1669,09
828,71	1636,33
828,89	1781,73
829,06	1564,65
829,23	1787,88
829,40	1679,33
829,57	1626,09
829,74	1736,68
829,91	1656,81
830,09	1619,94
830,26	1720,29
830,43	1796,07
830,60	1703,91
830,77	1730,53
830,94	1730,53
831,11	1781,73
831,28	1748,97
831,46	1691,62
831,63	1634,28
831,80	1699,81
831,97	1558,50
832,14	1636,33
832,31	1789,92
832,48	1748,97
832,65	1734,63
832,82	1716,20
832,99	1796,07
833,17	1626,09
833,34	1861,60
833,51	1681,38
833,68	1583,08
833,85	1687,53
834,02	1689,57
834,19	1583,08
834,36	1615,85
834,53	1705,96
834,70	1757,16
834,87	1800,16
835,04	1699,81
835,22	1550,31
835,39	1576,94
835,56	1673,19
835,73	1677,29
835,90	1701,86
836,07	1677,29
836,24	1767,40
836,41	1671,14
836,58	1660,90
836,75	1748,97
836,92	1779,68
837,09	1638,38
837,26	1812,45
837,43	1695,72
837,60	1679,33
837,77	1656,81
837,94	1710,05
838,12	1794,02
838,29	1738,73
838,46	1650,66
838,63	1611,75
838,80	1775,59
838,97	1765,35
839,14	1763,30
839,31	1763,30
839,48	1644,52
839,65	1703,91
839,82	1705,96
839,99	1708,01
840,16	1683,43
840,33	1689,57
840,50	1701,86
840,67	1695,72
840,84	1523,69
841,01	1650,66
841,18	1650,66
841,35	1705,96
841,52	1761,25
841,69	1806,31
841,86	1677,29
842,03	1710,05
842,20	1765,35
842,37	1714,15
842,54	1599,46
842,71	1703,91
842,88	1599,46
843,05	1812,45
843,22	1683,43
843,39	1734,63
843,56	1652,71
843,73	1673,19
843,90	1714,15
844,07	1787,88
844,24	1744,87
844,41	1771,49
844,58	1720,29
844,75	1644,52
844,92	1714,15
845,09	1703,91
845,26	1675,24
845,43	1759,21
845,60	1730,53
845,77	1746,92
845,94	1656,81
846,10	1753,06
846,27	1599,46
846,44	1744,87
846,61	1636,33
846,78	1697,77
846,95	1699,81
847,12	1693,67
847,29	1724,39
847,46	1662,95
847,63	1734,63
847,80	1570,79
847,97	1578,98
848,14	1914,85
848,31	1617,90
848,48	1677,29
848,65	1646,57
848,82	1675,24
848,98	1820,64
849,15	1640,42
849,32	1810,40
849,49	1687,53
849,66	1681,38
849,83	1662,95
850,00	1591,27
850,17	1724,39
850,34	1691,62
850,51	1665,00
850,68	1689,57
850,85	1791,97
851,01	1701,86
851,18	1675,24
851,35	1634,28
851,52	1689,57
851,69	1757,16
851,86	1581,03
852,03	1667,05
852,20	1705,96
852,37	1746,92
852,53	1667,05
852,70	1722,34
852,87	1718,25
853,04	1722,34
853,21	1689,57
853,38	1732,58
853,55	1757,16
853,72	1791,97
853,89	1632,23
854,05	1695,72
854,22	1658,85
854,39	1740,77
854,56	1699,81
854,73	1763,30
854,90	1650,66
855,07	1753,06
855,23	1630,18
855,40	1699,81
855,57	1708,01
855,74	1615,85
855,91	1863,65
856,08	1675,24
856,25	1603,56
856,41	1681,38
856,58	1630,18
856,75	1652,71
856,92	1621,99
857,09	1677,29
857,26	1646,57
857,42	1660,90
857,59	1712,10
857,76	1712,10
857,93	1779,68
858,10	1748,97
858,27	1652,71
858,43	1695,72
858,60	1648,61
858,77	1615,85
858,94	1662,95
859,11	1814,50
859,27	1619,94
859,44	1701,86
859,61	1802,21
859,78	1683,43
859,95	1685,48
860,12	1685,48
860,28	1877,99
860,45	1826,79
860,62	1634,28
860,79	1687,53
860,95	1665,00
861,12	1638,38
861,29	1628,14
861,46	1632,23
861,63	1646,57
861,79	1720,29
861,96	1609,70
862,13	1685,48
862,30	1787,88
862,47	1726,44
862,63	1603,56
862,80	1771,49
862,97	1781,73
863,14	1767,40
863,30	1716,20
863,47	1673,19
863,64	1667,05
863,81	1716,20
863,97	1679,33
864,14	1718,25
864,31	1675,24
864,48	1718,25
864,65	1683,43
864,81	1755,11
864,98	1640,42
865,15	1779,68
865,32	1779,68
865,48	1732,58
865,65	1812,45
865,82	1665,00
865,98	1697,77
866,15	1726,44
866,32	1787,88
866,49	1626,09
866,65	1765,35
866,82	1669,09
866,99	1748,97
867,16	1771,49
867,32	1710,05
867,49	1673,19
867,66	1656,81
867,83	1708,01
867,99	1597,42
868,16	1652,71
868,33	1628,14
868,49	1675,24
868,66	1728,49
868,83	1769,44
868,99	1624,04
869,16	1648,61
869,33	1783,78
869,50	1685,48
869,66	1689,57
869,83	1691,62
870,00	1548,26
870,16	1740,77
870,33	1695,72
870,50	1761,25
870,66	1679,33
870,83	1847,27
871,00	1681,38
871,17	1712,10
871,33	1710,05
871,50	1660,90
871,67	1679,33
871,83	1656,81
872,00	1789,92
872,17	1660,90
872,33	1812,45
872,50	1738,73
872,67	1705,96
872,83	1660,90
873,00	1710,05
873,17	1699,81
873,33	1738,73
873,50	1736,68
873,67	1671,14
873,83	1685,48
874,00	1767,40
874,16	1726,44
874,33	1730,53
874,50	1628,14
874,66	1701,86
874,83	1662,95
875,00	1708,01
875,16	1794,02
875,33	1730,53
875,50	1554,41
875,66	1703,91
875,83	1669,09
875,99	1701,86
876,16	1632,23
876,33	1654,76
876,49	1638,38
876,66	1695,72
876,83	1691,62
876,99	1595,37
877,16	1689,57
877,32	1710,05
877,49	1675,24
877,66	1753,06
877,82	1794,02
877,99	1699,81
878,15	1673,19
878,32	1640,42
878,49	1724,39
878,65	1705,96
878,82	1779,68
878,98	1681,38
879,15	1710,05
879,32	1791,97
879,48	1710,05
879,65	1699,81
879,81	1658,85
879,98	1671,14
880,15	1705,96
880,31	1800,16
880,48	1689,57
880,64	1722,34
880,81	1748,97
880,97	1746,92
881,14	1800,16
881,31	1718,25
881,47	1789,92
881,64	1697,77
881,80	1665,00
881,97	1761,25
882,13	1845,22
882,30	1636,33
882,47	1599,46
882,63	1716,20
882,80	1675,24
882,96	1636,33
883,13	1779,68
883,29	1681,38
883,46	1703,91
883,62	1751,01
883,79	1619,94
883,95	1751,01
884,12	1671,14
884,29	1714,15
884,45	1742,82
884,62	1755,11
884,78	1679,33
884,95	1843,17
885,11	1646,57
885,28	1712,10
885,44	1615,85
885,61	1683,43
885,77	1824,74
885,94	1751,01
886,10	1644,52
886,27	1751,01
886,43	1742,82
886,60	1716,20
886,76	1628,14
886,93	1669,09
887,09	1656,81
887,26	1617,90
887,42	1728,49
887,59	1767,40
887,75	1826,79
887,92	1828,84
888,08	1777,64
888,25	1785,83
888,41	1697,77
888,58	1724,39
888,74	1648,61
888,91	1712,10
>>>>>End Processed Spectral Data<<<<<
