SpectraSuite Data File
++++++++++++++++++++++++++++++++++++
Date: Mon Jun 06 16:33:17 CEST 2016
User: root
Dark Spectrum Present: No
Reference Spectrum Present: No
Number of Sampled Component Spectra: 1
Spectrometers: USB4C02835
Integration Time (usec): 100000 (USB4C02835)
Spectra Averaged: 1 (USB4C02835)
Boxcar Smoothing: 0 (USB4C02835)
Correct for Electrical Dark: No (USB4C02835)
Strobe/Lamp Enabled: No (USB4C02835)
Correct for Detector Non-linearity: No (USB4C02835)
Correct for Stray Light: No (USB4C02835)
Number of Pixels in Processed Spectrum: 3648
>>>>>Begin Processed Spectral Data<<<<<
177,47	1482,73
177,69	1482,73
177,91	1482,73
178,13	1482,73
178,36	1468,39
178,58	1658,85
178,80	1724,39
179,02	1636,33
179,24	1673,19
179,46	1712,10
179,68	1681,38
179,90	1656,81
180,13	1689,57
180,35	1644,52
180,57	1640,42
180,79	1671,14
181,01	1705,96
181,23	1787,88
181,45	1718,25
181,67	1712,10
181,90	1699,81
182,12	1638,38
182,34	1628,14
182,56	1757,16
182,78	1718,25
183,00	1677,29
183,22	1755,11
183,44	1640,42
183,66	1888,23
183,89	1847,27
184,11	1759,21
184,33	1779,68
184,55	1697,77
184,77	1662,95
184,99	1779,68
185,21	1656,81
185,43	1902,56
185,65	1677,29
185,87	1685,48
186,10	1783,78
186,32	1925,09
186,54	1644,52
186,76	1712,10
186,98	1832,93
187,20	1660,90
187,42	1736,68
187,64	1820,64
187,86	1808,36
188,08	1701,86
188,30	1689,57
188,52	1660,90
188,75	1736,68
188,97	1818,60
189,19	1671,14
189,41	1724,39
189,63	1730,53
189,85	1746,92
190,07	1581,03
190,29	1705,96
190,51	1738,73
190,73	1605,61
190,95	1742,82
191,17	1726,44
191,39	1531,88
191,61	1699,81
191,84	1716,20
192,06	1734,63
192,28	1644,52
192,50	1871,84
192,72	1699,81
192,94	1714,15
193,16	1781,73
193,38	1755,11
193,60	1632,23
193,82	1644,52
194,04	1791,97
194,26	1755,11
194,48	1726,44
194,70	1681,38
194,92	1755,11
195,14	1804,26
195,36	1720,29
195,58	1818,60
195,80	1667,05
196,02	1697,77
196,24	1728,49
196,46	1748,97
196,69	1652,71
196,91	1929,19
197,13	1734,63
197,35	1716,20
197,57	1720,29
197,79	1751,01
198,01	1740,77
198,23	1677,29
198,45	1685,48
198,67	1595,37
198,89	1699,81
199,11	1726,44
199,33	1742,82
199,55	1607,66
199,77	1726,44
199,99	1681,38
200,21	1687,53
200,43	1681,38
200,65	1687,53
200,87	1550,31
201,09	1753,06
201,31	1708,01
201,53	1814,50
201,75	1744,87
201,97	1677,29
202,19	1628,14
202,41	1812,45
202,63	1812,45
202,85	1761,25
203,07	1732,58
203,29	1671,14
203,51	1705,96
203,73	1646,57
203,95	1861,60
204,17	1761,25
204,39	1857,51
204,61	1605,61
204,83	1718,25
205,05	1732,58
205,27	1757,16
205,49	1808,36
205,71	1693,67
205,93	1701,86
206,15	1693,67
206,37	1736,68
206,59	1740,77
206,81	1630,18
207,03	1615,85
207,25	1726,44
207,47	1689,57
207,69	1769,44
207,91	1802,21
208,13	1779,68
208,34	1679,33
208,56	1701,86
208,78	1755,11
209,00	1736,68
209,22	1726,44
209,44	1730,53
209,66	1662,95
209,88	1722,34
210,10	1593,32
210,32	1744,87
210,54	1740,77
210,76	1667,05
210,98	1837,03
211,20	1599,46
211,42	1726,44
211,64	1730,53
211,86	1734,63
212,08	1714,15
212,30	1708,01
212,52	1665,00
212,74	1789,92
212,96	1712,10
213,17	1679,33
213,39	1742,82
213,61	1759,21
213,83	1779,68
214,05	1685,48
214,27	1763,30
214,49	1708,01
214,71	1722,34
214,93	1742,82
215,15	1683,43
215,37	1783,78
215,59	1601,51
215,81	1781,73
216,03	1810,40
216,24	1773,54
216,46	1755,11
216,68	1673,19
216,90	1734,63
217,12	1794,02
217,34	1695,72
217,56	1726,44
217,78	1802,21
218,00	1787,88
218,22	1753,06
218,44	1722,34
218,66	1683,43
218,87	1800,16
219,09	1689,57
219,31	1845,22
219,53	1765,35
219,75	1617,90
219,97	1746,92
220,19	1798,12
220,41	1759,21
220,63	1796,07
220,85	1712,10
221,06	1630,18
221,28	1773,54
221,50	1755,11
221,72	1775,59
221,94	1714,15
222,16	1769,44
222,38	1652,71
222,60	1646,57
222,82	1673,19
223,03	1685,48
223,25	1708,01
223,47	1716,20
223,69	1828,84
223,91	1687,53
224,13	1687,53
224,35	1673,19
224,57	1777,64
224,78	1738,73
225,00	1624,04
225,22	1732,58
225,44	1732,58
225,66	1728,49
225,88	1617,90
226,10	1806,31
226,32	1693,67
226,53	1802,21
226,75	1695,72
226,97	1738,73
227,19	1742,82
227,41	1685,48
227,63	1699,81
227,85	1644,52
228,06	1677,29
228,28	1728,49
228,50	1744,87
228,72	1611,75
228,94	1669,09
229,16	1648,61
229,37	1665,00
229,59	1687,53
229,81	1773,54
230,03	1669,09
230,25	1634,28
230,47	1683,43
230,69	1650,66
230,90	1751,01
231,12	1689,57
231,34	1695,72
231,56	1736,68
231,78	1705,96
232,00	1681,38
232,21	1699,81
232,43	1562,60
232,65	1607,66
232,87	1810,40
233,09	1626,09
233,30	1679,33
233,52	1761,25
233,74	1708,01
233,96	1703,91
234,18	1728,49
234,40	1738,73
234,61	1855,46
234,83	1619,94
235,05	1701,86
235,27	1804,26
235,49	1837,03
235,70	1693,67
235,92	1740,77
236,14	1697,77
236,36	1841,12
236,58	1667,05
236,79	1751,01
237,01	1814,50
237,23	1677,29
237,45	1771,49
237,67	1677,29
237,88	1726,44
238,10	1748,97
238,32	1624,04
238,54	1638,38
238,76	1673,19
238,97	1634,28
239,19	1691,62
239,41	1697,77
239,63	1775,59
239,85	1689,57
240,06	1714,15
240,28	1677,29
240,50	1767,40
240,72	1769,44
240,93	1697,77
241,15	1767,40
241,37	1701,86
241,59	1804,26
241,81	1667,05
242,02	1673,19
242,24	1767,40
242,46	1714,15
242,68	1626,09
242,89	1740,77
243,11	1751,01
243,33	1716,20
243,55	1746,92
243,76	1751,01
243,98	1626,09
244,20	1675,24
244,42	1722,34
244,64	1748,97
244,85	1619,94
245,07	1669,09
245,29	1773,54
245,51	1691,62
245,72	1724,39
245,94	1761,25
246,16	1714,15
246,38	1765,35
246,59	1683,43
246,81	1693,67
247,03	1695,72
247,24	1628,14
247,46	1714,15
247,68	1740,77
247,90	1744,87
248,11	1665,00
248,33	1748,97
248,55	1687,53
248,77	1701,86
248,98	1763,30
249,20	1753,06
249,42	1689,57
249,64	1703,91
249,85	1726,44
250,07	1722,34
250,29	1703,91
250,50	1695,72
250,72	1617,90
250,94	1753,06
251,16	1859,56
251,37	1765,35
251,59	1687,53
251,81	1746,92
252,02	1794,02
252,24	1673,19
252,46	1732,58
252,68	1617,90
252,89	1695,72
253,11	1576,94
253,33	1798,12
253,54	1761,25
253,76	1626,09
253,98	1695,72
254,20	1667,05
254,41	1673,19
254,63	1724,39
254,85	1689,57
255,06	1650,66
255,28	1724,39
255,50	1755,11
255,71	1667,05
255,93	1609,70
256,15	1624,04
256,36	1701,86
256,58	1652,71
256,80	1716,20
257,02	1693,67
257,23	1708,01
257,45	1695,72
257,67	1769,44
257,88	1648,61
258,10	1673,19
258,32	1773,54
258,53	1658,85
258,75	1810,40
258,97	1712,10
259,18	1603,56
259,40	1714,15
259,62	1796,07
259,83	1855,46
260,05	1812,45
260,27	1986,53
260,48	1669,09
260,70	1673,19
260,92	1681,38
261,13	1787,88
261,35	1705,96
261,57	1708,01
261,78	1675,24
262,00	1712,10
262,22	1673,19
262,43	1708,01
262,65	1669,09
262,86	1701,86
263,08	1853,41
263,30	1685,48
263,51	1685,48
263,73	1578,98
263,95	1744,87
264,16	1642,47
264,38	1644,52
264,60	1708,01
264,81	1677,29
265,03	1718,25
265,25	1800,16
265,46	1681,38
265,68	1824,74
265,89	1740,77
266,11	1605,61
266,33	1712,10
266,54	1847,27
266,76	1740,77
266,98	1734,63
267,19	1771,49
267,41	1722,34
267,62	1718,25
267,84	1644,52
268,06	1730,53
268,27	1787,88
268,49	1814,50
268,70	1806,31
268,92	1736,68
269,14	1734,63
269,35	1576,94
269,57	1744,87
269,79	1738,73
270,00	1683,43
270,22	1841,12
270,43	1695,72
270,65	1642,47
270,87	1675,24
271,08	1691,62
271,30	1763,30
271,51	1679,33
271,73	1761,25
271,95	1777,64
272,16	1724,39
272,38	1800,16
272,59	1652,71
272,81	1726,44
273,02	1712,10
273,24	1675,24
273,46	1751,01
273,67	1632,23
273,89	1714,15
274,10	1714,15
274,32	1834,98
274,54	1732,58
274,75	1720,29
274,97	1646,57
275,18	1722,34
275,40	1753,06
275,61	1662,95
275,83	1701,86
276,05	1703,91
276,26	1665,00
276,48	1710,05
276,69	1681,38
276,91	1650,66
277,12	1777,64
277,34	1771,49
277,55	1726,44
277,77	1677,29
277,99	1724,39
278,20	1679,33
278,42	1724,39
278,63	1650,66
278,85	1632,23
279,06	1578,98
279,28	1765,35
279,49	1837,03
279,71	1732,58
279,93	1673,19
280,14	1761,25
280,36	1654,76
280,57	1771,49
280,79	1837,03
281,00	1624,04
281,22	1646,57
281,43	1798,12
281,65	1615,85
281,86	1679,33
282,08	1722,34
282,29	1826,79
282,51	1617,90
282,73	1677,29
282,94	1613,80
283,16	1771,49
283,37	1849,32
283,59	1732,58
283,80	1830,88
284,02	1697,77
284,23	1697,77
284,45	1714,15
284,66	1605,61
284,88	1705,96
285,09	1691,62
285,31	1777,64
285,52	1726,44
285,74	1615,85
285,95	1755,11
286,17	1714,15
286,38	1742,82
286,60	1734,63
286,81	1738,73
287,03	1705,96
287,24	1667,05
287,46	1748,97
287,67	1765,35
287,89	1808,36
288,10	1685,48
288,32	1775,59
288,53	1712,10
288,75	1689,57
288,96	1742,82
289,18	1624,04
289,39	1628,14
289,61	1740,77
289,82	1826,79
290,04	1798,12
290,25	1654,76
290,47	1642,47
290,68	1703,91
290,90	1816,55
291,11	1615,85
291,33	1742,82
291,54	1728,49
291,76	1658,85
291,97	1705,96
292,18	1742,82
292,40	1722,34
292,61	1800,16
292,83	1867,75
293,04	1728,49
293,26	1716,20
293,47	1724,39
293,69	1650,66
293,90	1796,07
294,12	1800,16
294,33	1746,92
294,55	1744,87
294,76	1710,05
294,97	1775,59
295,19	1814,50
295,40	1703,91
295,62	1785,83
295,83	1773,54
296,05	1701,86
296,26	1791,97
296,48	1679,33
296,69	1683,43
296,90	1624,04
297,12	1769,44
297,33	1785,83
297,55	1722,34
297,76	1697,77
297,98	1720,29
298,19	1730,53
298,41	1708,01
298,62	1712,10
298,83	1765,35
299,05	1767,40
299,26	1759,21
299,48	1687,53
299,69	1767,40
299,90	1699,81
300,12	1660,90
300,33	1714,15
300,55	1687,53
300,76	1722,34
300,98	1714,15
301,19	1716,20
301,40	1675,24
301,62	1701,86
301,83	1814,50
302,05	1652,71
302,26	1671,14
302,47	1746,92
302,69	1703,91
302,90	1701,86
303,12	1640,42
303,33	1705,96
303,54	1816,55
303,76	1748,97
303,97	1734,63
304,19	1767,40
304,40	1671,14
304,61	1730,53
304,83	1896,42
305,04	1781,73
305,26	1720,29
305,47	1728,49
305,68	1675,24
305,90	1726,44
306,11	1847,27
306,33	1673,19
306,54	1734,63
306,75	1734,63
306,97	1591,27
307,18	1605,61
307,39	1728,49
307,61	1802,21
307,82	1724,39
308,04	1712,10
308,25	1744,87
308,46	1748,97
308,68	1685,48
308,89	1734,63
309,10	1738,73
309,32	1722,34
309,53	1667,05
309,74	1826,79
309,96	1732,58
310,17	1775,59
310,39	1650,66
310,60	1734,63
310,81	1650,66
311,03	1763,30
311,24	1800,16
311,45	1697,77
311,67	1824,74
311,88	1720,29
312,09	1728,49
312,31	1685,48
312,52	1710,05
312,73	1730,53
312,95	1656,81
313,16	1722,34
313,37	1828,84
313,59	1716,20
313,80	1851,36
314,01	1757,16
314,23	1718,25
314,44	1656,81
314,65	1632,23
314,87	1634,28
315,08	1710,05
315,29	1632,23
315,51	1679,33
315,72	1652,71
315,93	1810,40
316,15	1689,57
316,36	1650,66
316,57	1751,01
316,79	1689,57
317,00	1755,11
317,21	1683,43
317,43	1607,66
317,64	1744,87
317,85	1669,09
318,07	1615,85
318,28	1765,35
318,49	1855,46
318,70	1947,62
318,92	1816,55
319,13	1789,92
319,34	1855,46
319,56	1800,16
319,77	1841,12
319,98	1800,16
320,20	1777,64
320,41	1755,11
320,62	1757,16
320,83	1644,52
321,05	1845,22
321,26	1656,81
321,47	1708,01
321,69	1802,21
321,90	1583,08
322,11	1665,00
322,32	1673,19
322,54	1783,78
322,75	1787,88
322,96	1830,88
323,18	1624,04
323,39	1638,38
323,60	1671,14
323,81	1785,83
324,03	1617,90
324,24	1714,15
324,45	1734,63
324,66	1718,25
324,88	1863,65
325,09	1812,45
325,30	1681,38
325,52	1675,24
325,73	1755,11
325,94	1685,48
326,15	1619,94
326,37	1695,72
326,58	1769,44
326,79	1742,82
327,00	1646,57
327,22	1632,23
327,43	1677,29
327,64	1671,14
327,85	1693,67
328,07	1671,14
328,28	1832,93
328,49	1751,01
328,70	1744,87
328,92	1724,39
329,13	1644,52
329,34	1755,11
329,55	1787,88
329,76	1716,20
329,98	1662,95
330,19	1779,68
330,40	1730,53
330,61	1718,25
330,83	1769,44
331,04	1656,81
331,25	1695,72
331,46	1685,48
331,68	1642,47
331,89	1798,12
332,10	1736,68
332,31	1634,28
332,52	1744,87
332,74	1753,06
332,95	1673,19
333,16	1742,82
333,37	1773,54
333,58	1658,85
333,80	1705,96
334,01	1636,33
334,22	1746,92
334,43	1738,73
334,64	1640,42
334,86	1619,94
335,07	1621,99
335,28	1841,12
335,49	1605,61
335,70	1728,49
335,92	1808,36
336,13	1832,93
336,34	1748,97
336,55	1732,58
336,76	1722,34
336,98	1601,51
337,19	1687,53
337,40	1843,17
337,61	1871,84
337,82	1773,54
338,04	1740,77
338,25	1650,66
338,46	1736,68
338,67	1689,57
338,88	1583,08
339,09	1654,76
339,31	1656,81
339,52	1660,90
339,73	1621,99
339,94	1710,05
340,15	1716,20
340,36	1740,77
340,58	1681,38
340,79	1615,85
341,00	1789,92
341,21	1660,90
341,42	1724,39
341,63	1708,01
341,85	1781,73
342,06	1761,25
342,27	1665,00
342,48	1771,49
342,69	1755,11
342,90	1806,31
343,12	1775,59
343,33	1667,05
343,54	1732,58
343,75	1857,51
343,96	1693,67
344,17	1755,11
344,38	1751,01
344,60	1654,76
344,81	1607,66
345,02	1746,92
345,23	1783,78
345,44	1839,08
345,65	1720,29
345,86	1771,49
346,07	1728,49
346,29	1628,14
346,50	1761,25
346,71	1744,87
346,92	1828,84
347,13	1845,22
347,34	1710,05
347,55	1691,62
347,76	1753,06
347,98	1605,61
348,19	1679,33
348,40	1816,55
348,61	1595,37
348,82	1789,92
349,03	1701,86
349,24	1705,96
349,45	1820,64
349,66	1566,70
349,88	1624,04
350,09	1710,05
350,30	1722,34
350,51	1744,87
350,72	1730,53
350,93	1771,49
351,14	1689,57
351,35	1755,11
351,56	1699,81
351,77	1693,67
351,99	1757,16
352,20	1796,07
352,41	1767,40
352,62	1599,46
352,83	1734,63
353,04	1716,20
353,25	1708,01
353,46	1800,16
353,67	1769,44
353,88	1607,66
354,09	1708,01
354,30	1665,00
354,52	1751,01
354,73	1771,49
354,94	1771,49
355,15	1724,39
355,36	1839,08
355,57	1705,96
355,78	1771,49
355,99	1675,24
356,20	1681,38
356,41	1751,01
356,62	1783,78
356,83	1714,15
357,04	1800,16
357,25	1634,28
357,46	1638,38
357,68	1601,51
357,89	1585,13
358,10	1734,63
358,31	1736,68
358,52	1742,82
358,73	1652,71
358,94	1712,10
359,15	1671,14
359,36	1751,01
359,57	1716,20
359,78	1624,04
359,99	1714,15
360,20	1648,61
360,41	1652,71
360,62	1673,19
360,83	1761,25
361,04	1759,21
361,25	1802,21
361,46	1679,33
361,67	1755,11
361,88	1726,44
362,09	1683,43
362,30	1800,16
362,51	1742,82
362,72	1742,82
362,93	1773,54
363,14	1744,87
363,35	1773,54
363,56	1568,74
363,78	1769,44
363,99	1798,12
364,20	1665,00
364,41	1705,96
364,62	1847,27
364,83	1824,74
365,04	1697,77
365,25	1722,34
365,46	1779,68
365,67	1665,00
365,88	1665,00
366,09	1699,81
366,30	1738,73
366,51	1712,10
366,72	1683,43
366,93	1748,97
367,14	1683,43
367,35	1714,15
367,56	1714,15
367,77	1746,92
367,98	1730,53
368,18	1691,62
368,39	1755,11
368,60	1673,19
368,81	1771,49
369,02	1708,01
369,23	1650,66
369,44	1570,79
369,65	1683,43
369,86	1716,20
370,07	1714,15
370,28	1632,23
370,49	1730,53
370,70	1701,86
370,91	1634,28
371,12	1648,61
371,33	1677,29
371,54	1669,09
371,75	1859,56
371,96	1632,23
372,17	1785,83
372,38	1724,39
372,59	1703,91
372,80	1677,29
373,01	1699,81
373,22	1722,34
373,43	1757,16
373,64	1656,81
373,85	1730,53
374,06	1837,03
374,26	1775,59
374,47	1718,25
374,68	1787,88
374,89	1775,59
375,10	1685,48
375,31	1681,38
375,52	1751,01
375,73	1722,34
375,94	1628,14
376,15	1867,75
376,36	1675,24
376,57	1705,96
376,78	1621,99
376,99	1845,22
377,20	1779,68
377,40	1634,28
377,61	1822,69
377,82	1693,67
378,03	1812,45
378,24	1753,06
378,45	1675,24
378,66	1798,12
378,87	1669,09
379,08	1648,61
379,29	1708,01
379,50	1796,07
379,71	1642,47
379,91	1708,01
380,12	1771,49
380,33	1685,48
380,54	1691,62
380,75	1693,67
380,96	1681,38
381,17	1761,25
381,38	1773,54
381,59	1705,96
381,80	1771,49
382,00	1851,36
382,21	1738,73
382,42	1824,74
382,63	1824,74
382,84	1783,78
383,05	1730,53
383,26	1822,69
383,47	1695,72
383,68	1730,53
383,88	1687,53
384,09	1755,11
384,30	1869,80
384,51	1710,05
384,72	1734,63
384,93	1667,05
385,14	1693,67
385,35	1740,77
385,55	1746,92
385,76	1757,16
385,97	1683,43
386,18	1687,53
386,39	1628,14
386,60	1660,90
386,81	1665,00
387,02	1652,71
387,22	1662,95
387,43	1787,88
387,64	1785,83
387,85	1886,18
388,06	2236,38
388,27	4149,18
388,48	6774,68
388,68	8169,35
388,89	9449,33
389,10	9795,43
389,31	8408,96
389,52	7526,29
389,73	6780,82
389,93	6205,35
390,14	5830,57
390,35	5091,25
390,56	4415,42
390,77	3798,98
390,98	3018,71
391,18	2494,43
391,39	2150,37
391,60	1826,79
391,81	1857,51
392,02	1775,59
392,23	1910,75
392,43	1779,68
392,64	1814,50
392,85	1765,35
393,06	1822,69
393,27	1703,91
393,47	1673,19
393,68	1697,77
393,89	1640,42
394,10	1816,55
394,31	1730,53
394,52	1634,28
394,72	1691,62
394,93	1769,44
395,14	1677,29
395,35	1806,31
395,56	1607,66
395,76	1740,77
395,97	1806,31
396,18	1806,31
396,39	1828,84
396,60	2117,60
396,80	1964,00
397,01	1804,26
397,22	1796,07
397,43	1804,26
397,64	1757,16
397,84	1787,88
398,05	1830,88
398,26	1763,30
398,47	1761,25
398,67	1837,03
398,88	1777,64
399,09	1759,21
399,30	1705,96
399,51	1771,49
399,71	1671,14
399,92	1771,49
400,13	1744,87
400,34	1695,72
400,54	1710,05
400,75	1755,11
400,96	1753,06
401,17	1855,46
401,37	1769,44
401,58	1703,91
401,79	1695,72
402,00	1873,89
402,21	1980,39
402,41	1865,70
402,62	1988,58
402,83	1996,77
403,04	2013,15
403,24	2095,07
403,45	1796,07
403,66	1896,42
403,87	1902,56
404,07	1902,56
404,28	1908,71
404,49	1908,71
404,70	1742,82
404,90	1818,60
405,11	1718,25
405,32	1728,49
405,52	1736,68
405,73	1681,38
405,94	1671,14
406,15	1730,53
406,35	1759,21
406,56	1769,44
406,77	1759,21
406,98	1800,16
407,18	1724,39
407,39	1796,07
407,60	1669,09
407,80	1775,59
408,01	1689,57
408,22	1822,69
408,43	1701,86
408,63	1720,29
408,84	1728,49
409,05	1824,74
409,25	1658,85
409,46	1646,57
409,67	1738,73
409,88	1687,53
410,08	1740,77
410,29	1697,77
410,50	1716,20
410,70	1744,87
410,91	1687,53
411,12	1791,97
411,32	1665,00
411,53	1673,19
411,74	1724,39
411,95	1857,51
412,15	1783,78
412,36	1775,59
412,57	1734,63
412,77	1832,93
412,98	1744,87
413,19	1650,66
413,39	1722,34
413,60	1724,39
413,81	1787,88
414,01	1714,15
414,22	1730,53
414,43	1728,49
414,63	1748,97
414,84	1779,68
415,05	1722,34
415,25	1581,03
415,46	1722,34
415,67	1718,25
415,87	1802,21
416,08	1736,68
416,29	1771,49
416,49	1767,40
416,70	1681,38
416,91	1724,39
417,11	1740,77
417,32	1779,68
417,53	1767,40
417,73	1757,16
417,94	1697,77
418,15	1693,67
418,35	1708,01
418,56	1656,81
418,77	1810,40
418,97	1716,20
419,18	1626,09
419,38	1558,50
419,59	1755,11
419,80	1884,13
420,00	1691,62
420,21	1763,30
420,42	1804,26
420,62	1781,73
420,83	1650,66
421,04	1767,40
421,24	1794,02
421,45	1681,38
421,65	1748,97
421,86	1675,24
422,07	1796,07
422,27	1763,30
422,48	1671,14
422,69	1646,57
422,89	1751,01
423,10	1673,19
423,30	1658,85
423,51	1638,38
423,72	1701,86
423,92	1798,12
424,13	1595,37
424,33	1722,34
424,54	1736,68
424,75	1802,21
424,95	1755,11
425,16	1716,20
425,36	1673,19
425,57	1708,01
425,78	1730,53
425,98	1791,97
426,19	1705,96
426,39	1626,09
426,60	1796,07
426,81	1832,93
427,01	1726,44
427,22	1722,34
427,42	1619,94
427,63	1697,77
427,83	1738,73
428,04	1746,92
428,25	1794,02
428,45	1802,21
428,66	1732,58
428,86	1685,48
429,07	1691,62
429,28	1726,44
429,48	1767,40
429,69	1658,85
429,89	1757,16
430,10	1636,33
430,30	1683,43
430,51	1683,43
430,71	1724,39
430,92	1626,09
431,13	1640,42
431,33	1738,73
431,54	1732,58
431,74	1808,36
431,95	1816,55
432,15	1626,09
432,36	1718,25
432,56	1818,60
432,77	1849,32
432,98	1832,93
433,18	1746,92
433,39	1691,62
433,59	1714,15
433,80	1861,60
434,00	1882,08
434,21	1740,77
434,41	1665,00
434,62	1863,65
434,82	1687,53
435,03	1695,72
435,23	1773,54
435,44	1640,42
435,64	1742,82
435,85	1755,11
436,06	1730,53
436,26	1853,41
436,47	1660,90
436,67	1699,81
436,88	1773,54
437,08	1724,39
437,29	1847,27
437,49	1738,73
437,70	1763,30
437,90	1681,38
438,11	1810,40
438,31	1808,36
438,52	1832,93
438,72	1804,26
438,93	1931,23
439,13	1826,79
439,34	1775,59
439,54	1746,92
439,75	1777,64
439,95	1789,92
440,16	1712,10
440,36	1769,44
440,57	1748,97
440,77	1697,77
440,98	1697,77
441,18	1716,20
441,39	1728,49
441,59	1640,42
441,80	1849,32
442,00	1744,87
442,21	1779,68
442,41	1748,97
442,62	1759,21
442,82	1656,81
443,02	1718,25
443,23	1748,97
443,43	1705,96
443,64	1861,60
443,84	1685,48
444,05	1742,82
444,25	1773,54
444,46	1685,48
444,66	1736,68
444,87	1855,46
445,07	1667,05
445,28	1671,14
445,48	1767,40
445,69	1810,40
445,89	1837,03
446,09	1818,60
446,30	2015,20
446,50	2641,88
446,71	3657,67
446,91	4253,63
447,12	4638,65
447,32	4880,31
447,53	4415,42
447,73	3837,89
447,93	3452,88
448,14	3358,67
448,34	3117,01
448,55	2922,45
448,75	2795,48
448,96	2686,94
449,16	2402,27
449,36	2320,35
449,57	1994,72
449,77	1837,03
449,98	1722,34
450,18	1839,08
450,39	1785,83
450,59	1714,15
450,79	1753,06
451,00	1681,38
451,20	1808,36
451,41	1687,53
451,61	1775,59
451,81	1759,21
452,02	1814,50
452,22	1730,53
452,43	1722,34
452,63	1728,49
452,84	1734,63
453,04	1769,44
453,24	1787,88
453,45	1787,88
453,65	1732,58
453,86	1738,73
454,06	1785,83
454,26	1818,60
454,47	1691,62
454,67	1902,56
454,87	1773,54
455,08	1767,40
455,28	1808,36
455,49	1763,30
455,69	1718,25
455,89	1789,92
456,10	1824,74
456,30	1800,16
456,51	1781,73
456,71	1763,30
456,91	1789,92
457,12	1693,67
457,32	1785,83
457,52	1722,34
457,73	1830,88
457,93	1789,92
458,14	1697,77
458,34	1671,14
458,54	1734,63
458,75	1722,34
458,95	1759,21
459,15	1693,67
459,36	1800,16
459,56	1763,30
459,76	1800,16
459,97	1652,71
460,17	1806,31
460,37	1828,84
460,58	1703,91
460,78	1722,34
460,99	1744,87
461,19	1753,06
461,39	1654,76
461,60	1691,62
461,80	1769,44
462,00	1685,48
462,21	1705,96
462,41	1710,05
462,61	1720,29
462,82	1693,67
463,02	1800,16
463,22	1718,25
463,43	1791,97
463,63	1701,86
463,83	1812,45
464,04	1730,53
464,24	1808,36
464,44	1619,94
464,64	1796,07
464,85	1794,02
465,05	1783,78
465,25	1724,39
465,46	1726,44
465,66	1730,53
465,86	1804,26
466,07	1802,21
466,27	1763,30
466,47	1660,90
466,68	1669,09
466,88	1853,41
467,08	1779,68
467,29	1767,40
467,49	1753,06
467,69	1785,83
467,89	1769,44
468,10	1730,53
468,30	1726,44
468,50	1779,68
468,71	1732,58
468,91	1665,00
469,11	1810,40
469,31	1687,53
469,52	1734,63
469,72	1865,70
469,92	1791,97
470,13	1712,10
470,33	1796,07
470,53	1841,12
470,73	2052,06
470,94	2234,33
471,14	2281,44
471,34	2602,97
471,54	2392,03
471,75	2263,01
471,95	2154,46
472,15	2074,59
472,36	2099,17
472,56	2084,83
472,76	2000,87
472,96	2068,45
473,17	1871,84
473,37	1865,70
473,57	1796,07
473,77	1814,50
473,98	1773,54
474,18	1753,06
474,38	1906,66
474,58	1755,11
474,79	1736,68
474,99	1708,01
475,19	1806,31
475,39	1658,85
475,60	1753,06
475,80	1685,48
476,00	1705,96
476,20	1736,68
476,41	1675,24
476,61	1714,15
476,81	1810,40
477,01	1667,05
477,21	1882,08
477,42	1824,74
477,62	1621,99
477,82	1761,25
478,02	1755,11
478,23	1748,97
478,43	1748,97
478,63	1710,05
478,83	1673,19
479,03	1705,96
479,24	1759,21
479,44	1894,37
479,64	1648,61
479,84	1693,67
480,04	1728,49
480,25	1851,36
480,45	1712,10
480,65	1689,57
480,85	1894,37
481,06	1708,01
481,26	1826,79
481,46	1710,05
481,66	1673,19
481,86	1748,97
482,06	1779,68
482,27	1693,67
482,47	1615,85
482,67	1771,49
482,87	1705,96
483,07	1763,30
483,28	1689,57
483,48	1751,01
483,68	1687,53
483,88	1689,57
484,08	1722,34
484,29	1642,47
484,49	1767,40
484,69	1685,48
484,89	1757,16
485,09	1740,77
485,29	1759,21
485,50	1667,05
485,70	1675,24
485,90	1869,80
486,10	1687,53
486,30	1759,21
486,50	1726,44
486,71	1734,63
486,91	1769,44
487,11	1787,88
487,31	1740,77
487,51	1701,86
487,71	1656,81
487,91	1613,80
488,12	1687,53
488,32	1601,51
488,52	1681,38
488,72	1685,48
488,92	1689,57
489,12	1812,45
489,32	1828,84
489,53	1834,98
489,73	1609,70
489,93	1761,25
490,13	1714,15
490,33	1603,56
490,53	1765,35
490,73	1691,62
490,94	1726,44
491,14	1759,21
491,34	1918,95
491,54	2117,60
491,74	2564,06
491,94	2901,97
492,14	2983,89
492,34	3028,95
492,54	2748,37
492,75	2500,57
492,95	2394,08
493,15	2199,52
493,35	2320,35
493,55	2369,50
493,75	2230,24
493,95	2166,75
494,15	1945,57
494,35	1892,32
494,56	1861,60
494,76	1837,03
494,96	1822,69
495,16	1818,60
495,36	1755,11
495,56	1828,84
495,76	1683,43
495,96	1716,20
496,16	1761,25
496,36	1816,55
496,56	1720,29
496,77	1783,78
496,97	1718,25
497,17	1744,87
497,37	1632,23
497,57	1785,83
497,77	1761,25
497,97	1652,71
498,17	1730,53
498,37	1634,28
498,57	1703,91
498,77	1763,30
498,97	1757,16
499,17	1853,41
499,38	1705,96
499,58	1759,21
499,78	1810,40
499,98	1810,40
500,18	1726,44
500,38	1818,60
500,58	1884,13
500,78	2512,86
500,98	4618,17
501,18	5836,71
501,38	6627,23
501,58	7063,44
501,78	6645,66
501,98	5445,55
502,18	4816,82
502,38	4378,56
502,58	4173,76
502,78	3753,93
502,98	3659,72
503,18	3344,33
503,38	3205,07
503,59	2781,14
503,79	2615,26
503,99	2459,61
504,19	2365,40
504,39	2258,91
504,59	2277,34
504,79	2140,13
504,99	2021,35
505,19	1937,38
505,39	1918,95
505,59	2045,92
505,79	1945,57
505,99	1820,64
506,19	1808,36
506,39	1841,12
506,59	1728,49
506,79	1730,53
506,99	1781,73
507,19	1783,78
507,39	1734,63
507,59	1624,04
507,79	1732,58
507,99	1679,33
508,19	1736,68
508,39	1724,39
508,59	1816,55
508,79	1783,78
508,99	1773,54
509,19	1732,58
509,39	1810,40
509,59	1656,81
509,79	1734,63
509,99	1718,25
510,19	1742,82
510,39	1759,21
510,59	1759,21
510,79	1701,86
510,99	1669,09
511,19	1691,62
511,39	1824,74
511,59	1781,73
511,79	1884,13
511,99	1720,29
512,19	1865,70
512,38	1740,77
512,58	1724,39
512,78	1691,62
512,98	1830,88
513,18	1863,65
513,38	1652,71
513,58	1712,10
513,78	1769,44
513,98	1726,44
514,18	1685,48
514,38	1779,68
514,58	1734,63
514,78	1767,40
514,98	1581,03
515,18	1695,72
515,38	1701,86
515,58	1847,27
515,78	1734,63
515,98	1734,63
516,18	1759,21
516,38	1693,67
516,57	1665,00
516,77	1771,49
516,97	1798,12
517,17	1755,11
517,37	1738,73
517,57	1773,54
517,77	1794,02
517,97	1728,49
518,17	1794,02
518,37	1726,44
518,57	1763,30
518,77	1783,78
518,97	1763,30
519,16	1808,36
519,36	1787,88
519,56	1726,44
519,76	1697,77
519,96	1697,77
520,16	1837,03
520,36	1626,09
520,56	1851,36
520,76	1701,86
520,96	1746,92
521,16	1814,50
521,35	1927,14
521,55	1798,12
521,75	1767,40
521,95	1728,49
522,15	1769,44
522,35	1648,61
522,55	1726,44
522,75	1681,38
522,95	1773,54
523,14	1638,38
523,34	1746,92
523,54	1705,96
523,74	1783,78
523,94	1816,55
524,14	1628,14
524,34	1828,84
524,54	1757,16
524,73	1687,53
524,93	1761,25
525,13	1794,02
525,33	1658,85
525,53	1920,99
525,73	1775,59
525,93	1722,34
526,13	1763,30
526,32	1734,63
526,52	1789,92
526,72	1763,30
526,92	1736,68
527,12	1724,39
527,32	1605,61
527,52	1783,78
527,71	1834,98
527,91	1699,81
528,11	1728,49
528,31	1753,06
528,51	1675,24
528,71	1763,30
528,90	1810,40
529,10	1863,65
529,30	1834,98
529,50	1642,47
529,70	1689,57
529,90	1697,77
530,09	1775,59
530,29	1724,39
530,49	1710,05
530,69	1890,28
530,89	1724,39
531,09	1738,73
531,28	1665,00
531,48	1779,68
531,68	1732,58
531,88	1724,39
532,08	1808,36
532,28	1714,15
532,47	1732,58
532,67	1779,68
532,87	1755,11
533,07	1738,73
533,27	1789,92
533,46	1830,88
533,66	1802,21
533,86	1738,73
534,06	1716,20
534,26	1810,40
534,45	1705,96
534,65	1722,34
534,85	1779,68
535,05	1705,96
535,25	1820,64
535,44	1613,80
535,64	1748,97
535,84	1718,25
536,04	1726,44
536,24	1744,87
536,43	1683,43
536,63	1798,12
536,83	1626,09
537,03	1734,63
537,22	1677,29
537,42	1677,29
537,62	1724,39
537,82	1751,01
538,02	1834,98
538,21	1810,40
538,41	1859,56
538,61	1763,30
538,81	1689,57
539,00	1773,54
539,20	1658,85
539,40	1724,39
539,60	1693,67
539,79	1873,89
539,99	1742,82
540,19	1714,15
540,39	1759,21
540,58	1757,16
540,78	1802,21
540,98	1828,84
541,18	1832,93
541,37	1769,44
541,57	1763,30
541,77	1755,11
541,97	1714,15
542,16	1761,25
542,36	1789,92
542,56	1824,74
542,76	1771,49
542,95	1730,53
543,15	1800,16
543,35	1710,05
543,54	1687,53
543,74	1732,58
543,94	1910,75
544,14	1757,16
544,33	1789,92
544,53	1736,68
544,73	1701,86
544,93	1708,01
545,12	1712,10
545,32	1681,38
545,52	1748,97
545,71	1703,91
545,91	1722,34
546,11	1738,73
546,30	1652,71
546,50	1771,49
546,70	1699,81
546,90	1669,09
547,09	1624,04
547,29	1632,23
547,49	1773,54
547,68	1783,78
547,88	1734,63
548,08	1822,69
548,27	2156,51
548,47	1699,81
548,67	1785,83
548,87	1882,08
549,06	1695,72
549,26	1771,49
549,46	1791,97
549,65	1697,77
549,85	1746,92
550,05	1736,68
550,24	1689,57
550,44	1742,82
550,64	1726,44
550,83	1761,25
551,03	1834,98
551,23	1785,83
551,42	1822,69
551,62	1705,96
551,82	1748,97
552,01	1787,88
552,21	1837,03
552,41	1767,40
552,60	1773,54
552,80	1800,16
553,00	1681,38
553,19	1705,96
553,39	1849,32
553,59	1697,77
553,78	1787,88
553,98	1742,82
554,17	1675,24
554,37	1818,60
554,57	1781,73
554,76	1691,62
554,96	1728,49
555,16	1732,58
555,35	1751,01
555,55	1783,78
555,75	1789,92
555,94	1777,64
556,14	1636,33
556,33	1744,87
556,53	1761,25
556,73	1675,24
556,92	1767,40
557,12	1796,07
557,32	1808,36
557,51	1861,60
557,71	1828,84
557,90	1808,36
558,10	1845,22
558,30	1679,33
558,49	1794,02
558,69	1660,90
558,88	1802,21
559,08	1775,59
559,28	1695,72
559,47	1724,39
559,67	1734,63
559,86	1845,22
560,06	1777,64
560,26	1787,88
560,45	1779,68
560,65	1714,15
560,84	1781,73
561,04	1732,58
561,24	1837,03
561,43	1697,77
561,63	1830,88
561,82	1751,01
562,02	1781,73
562,22	1695,72
562,41	1632,23
562,61	1697,77
562,80	1730,53
563,00	1888,23
563,19	1755,11
563,39	1898,47
563,59	1849,32
563,78	1662,95
563,98	1634,28
564,17	1759,21
564,37	1621,99
564,56	1794,02
564,76	1630,18
564,96	1834,98
565,15	1751,01
565,35	1802,21
565,54	1660,90
565,74	1816,55
565,93	1779,68
566,13	1693,67
566,32	1771,49
566,52	1794,02
566,71	1828,84
566,91	1783,78
567,11	1824,74
567,30	1665,00
567,50	1781,73
567,69	1785,83
567,89	1732,58
568,08	1691,62
568,28	1701,86
568,47	1673,19
568,67	1693,67
568,86	1683,43
569,06	1845,22
569,25	1753,06
569,45	1650,66
569,64	1656,81
569,84	1742,82
570,04	1742,82
570,23	1732,58
570,43	1660,90
570,62	1708,01
570,82	1787,88
571,01	1697,77
571,21	1687,53
571,40	1644,52
571,60	1773,54
571,79	1800,16
571,99	1732,58
572,18	1753,06
572,38	1785,83
572,57	1806,31
572,77	1724,39
572,96	1847,27
573,16	1851,36
573,35	1781,73
573,55	1814,50
573,74	1791,97
573,94	1675,24
574,13	1730,53
574,33	1753,06
574,52	1771,49
574,71	1744,87
574,91	1775,59
575,10	1699,81
575,30	1730,53
575,49	1718,25
575,69	1660,90
575,88	1740,77
576,08	1742,82
576,27	1779,68
576,47	1728,49
576,66	1869,80
576,86	1804,26
577,05	1703,91
577,25	1800,16
577,44	1818,60
577,64	1677,29
577,83	1830,88
578,02	1771,49
578,22	1791,97
578,41	1859,56
578,61	1656,81
578,80	1714,15
579,00	1869,80
579,19	1773,54
579,39	1777,64
579,58	1742,82
579,77	1748,97
579,97	1851,36
580,16	1853,41
580,36	1908,71
580,55	1814,50
580,75	1818,60
580,94	1787,88
581,13	1939,43
581,33	1828,84
581,52	1748,97
581,72	1886,18
581,91	1765,35
582,11	1746,92
582,30	1763,30
582,49	1794,02
582,69	1791,97
582,88	1769,44
583,08	1777,64
583,27	1880,04
583,47	1802,21
583,66	1730,53
583,85	1693,67
584,05	1742,82
584,24	1722,34
584,44	1800,16
584,63	1882,08
584,82	1837,03
585,02	1820,64
585,21	1796,07
585,41	1894,37
585,60	1804,26
585,79	1953,76
585,99	1937,38
586,18	1832,93
586,37	2181,09
586,57	3338,19
586,76	9727,85
586,96	23805,59
587,15	33756,67
587,34	39673,25
587,54	41805,19
587,73	36156,89
587,93	26025,59
588,12	21440,18
588,31	18065,13
588,51	15822,61
588,70	15034,14
588,89	13930,28
589,09	12300,10
589,28	10843,99
589,47	9277,30
589,67	8044,42
589,86	6305,70
590,06	4775,86
590,25	3841,99
590,44	3119,06
590,64	2564,06
590,83	2349,02
591,02	2050,02
591,22	2004,96
591,41	1939,43
591,60	1847,27
591,80	1927,14
591,99	1796,07
592,18	1851,36
592,38	1896,42
592,57	1726,44
592,76	1806,31
592,96	1802,21
593,15	1699,81
593,34	1834,98
593,54	1755,11
593,73	1675,24
593,92	1755,11
594,12	1775,59
594,31	1746,92
594,50	1884,13
594,70	1802,21
594,89	1935,33
595,08	1734,63
595,28	1806,31
595,47	1945,57
595,66	1828,84
595,86	1644,52
596,05	1722,34
596,24	1812,45
596,43	1861,60
596,63	1798,12
596,82	1755,11
597,01	1771,49
597,21	1884,13
597,40	1757,16
597,59	1695,72
597,79	1730,53
597,98	1865,70
598,17	1789,92
598,36	1691,62
598,56	1800,16
598,75	1673,19
598,94	1654,76
599,14	1751,01
599,33	1654,76
599,52	1796,07
599,71	1738,73
599,91	1773,54
600,10	1816,55
600,29	1667,05
600,48	1812,45
600,68	1722,34
600,87	1744,87
601,06	1755,11
601,26	1736,68
601,45	1791,97
601,64	1705,96
601,83	1773,54
602,03	1648,61
602,22	1781,73
602,41	1828,84
602,60	1785,83
602,80	1744,87
602,99	1753,06
603,18	1595,37
603,37	1744,87
603,57	1718,25
603,76	1861,60
603,95	1734,63
604,14	1638,38
604,34	1636,33
604,53	1783,78
604,72	1779,68
604,91	1796,07
605,10	1773,54
605,30	1613,80
605,49	1939,43
605,68	1746,92
605,87	1802,21
606,07	1753,06
606,26	1701,86
606,45	1796,07
606,64	1785,83
606,84	1673,19
607,03	1769,44
607,22	1736,68
607,41	1689,57
607,60	1671,14
607,80	1787,88
607,99	1763,30
608,18	1669,09
608,37	1765,35
608,56	1755,11
608,76	1703,91
608,95	1800,16
609,14	1697,77
609,33	1712,10
609,52	1779,68
609,72	1753,06
609,91	1865,70
610,10	1796,07
610,29	1755,11
610,48	1812,45
610,68	1800,16
610,87	1669,09
611,06	1705,96
611,25	1677,29
611,44	1855,46
611,63	1691,62
611,83	1845,22
612,02	1630,18
612,21	1806,31
612,40	1650,66
612,59	1691,62
612,79	1683,43
612,98	1755,11
613,17	1787,88
613,36	1708,01
613,55	1857,51
613,74	1677,29
613,93	1736,68
614,13	1744,87
614,32	1771,49
614,51	1830,88
614,70	1759,21
614,89	1789,92
615,08	1861,60
615,28	2056,16
615,47	1710,05
615,66	1738,73
615,85	1673,19
616,04	1734,63
616,23	1716,20
616,42	1755,11
616,62	1669,09
616,81	1816,55
617,00	1748,97
617,19	1746,92
617,38	1742,82
617,57	1716,20
617,76	1773,54
617,95	1757,16
618,15	1718,25
618,34	1800,16
618,53	1591,27
618,72	1812,45
618,91	1771,49
619,10	1804,26
619,29	1742,82
619,48	1755,11
619,68	1654,76
619,87	1705,96
620,06	1621,99
620,25	1746,92
620,44	1720,29
620,63	1634,28
620,82	1775,59
621,01	1691,62
621,20	1632,23
621,39	1794,02
621,59	1679,33
621,78	1759,21
621,97	1763,30
622,16	1755,11
622,35	1732,58
622,54	1726,44
622,73	1767,40
622,92	1583,08
623,11	1830,88
623,30	1734,63
623,49	1791,97
623,68	1742,82
623,88	1845,22
624,07	1679,33
624,26	1712,10
624,45	1781,73
624,64	1699,81
624,83	1787,88
625,02	1689,57
625,21	1669,09
625,40	1699,81
625,59	1806,31
625,78	1744,87
625,97	1724,39
626,16	1820,64
626,35	1746,92
626,54	1755,11
626,74	1849,32
626,93	1773,54
627,12	1710,05
627,31	1748,97
627,50	1820,64
627,69	1714,15
627,88	1615,85
628,07	1722,34
628,26	1644,52
628,45	1669,09
628,64	1718,25
628,83	1710,05
629,02	1691,62
629,21	1783,78
629,40	1697,77
629,59	1705,96
629,78	1662,95
629,97	1722,34
630,16	1712,10
630,35	1708,01
630,54	1638,38
630,73	1671,14
630,92	1681,38
631,11	1640,42
631,30	1728,49
631,49	1763,30
631,68	1689,57
631,87	1787,88
632,06	1712,10
632,25	1929,19
632,44	1755,11
632,63	1720,29
632,82	1710,05
633,01	1712,10
633,20	1718,25
633,39	1667,05
633,58	1701,86
633,77	1716,20
633,96	1740,77
634,15	1654,76
634,34	1736,68
634,53	1751,01
634,72	1605,61
634,91	1705,96
635,10	1775,59
635,29	1779,68
635,48	1736,68
635,67	1708,01
635,86	1689,57
636,05	1781,73
636,24	1757,16
636,43	1734,63
636,62	1738,73
636,81	1574,89
637,00	1691,62
637,19	1699,81
637,38	1683,43
637,57	1734,63
637,76	1820,64
637,95	1665,00
638,14	1720,29
638,33	1730,53
638,52	1699,81
638,71	1646,57
638,89	1626,09
639,08	1834,98
639,27	1767,40
639,46	1722,34
639,65	1767,40
639,84	1705,96
640,03	1742,82
640,22	1705,96
640,41	1759,21
640,60	1648,61
640,79	1779,68
640,98	1673,19
641,17	1650,66
641,36	1724,39
641,55	1771,49
641,74	1669,09
641,92	1667,05
642,11	1652,71
642,30	1728,49
642,49	1652,71
642,68	1675,24
642,87	1724,39
643,06	1779,68
643,25	1728,49
643,44	1751,01
643,63	1665,00
643,82	1779,68
644,00	1701,86
644,19	1798,12
644,38	1697,77
644,57	1861,60
644,76	1724,39
644,95	1757,16
645,14	1738,73
645,33	1783,78
645,52	1720,29
645,71	1650,66
645,89	1621,99
646,08	1748,97
646,27	1681,38
646,46	1886,18
646,65	1603,56
646,84	1703,91
647,03	1689,57
647,22	1761,25
647,40	1824,74
647,59	1777,64
647,78	1701,86
647,97	1636,33
648,16	1722,34
648,35	1781,73
648,54	1746,92
648,73	1710,05
648,91	1753,06
649,10	1697,77
649,29	1775,59
649,48	1716,20
649,67	1751,01
649,86	1724,39
650,05	1722,34
650,23	1746,92
650,42	1646,57
650,61	1724,39
650,80	1761,25
650,99	1875,94
651,18	1798,12
651,36	1804,26
651,55	1757,16
651,74	1746,92
651,93	1640,42
652,12	1712,10
652,31	1765,35
652,49	1681,38
652,68	1726,44
652,87	1777,64
653,06	1769,44
653,25	1849,32
653,44	1683,43
653,62	1730,53
653,81	1796,07
654,00	1683,43
654,19	1720,29
654,38	1894,37
654,56	1746,92
654,75	1677,29
654,94	1765,35
655,13	1708,01
655,32	1751,01
655,51	1751,01
655,69	1607,66
655,88	1724,39
656,07	1642,47
656,26	1732,58
656,45	1652,71
656,63	1728,49
656,82	1693,67
657,01	1763,30
657,20	1644,52
657,38	1830,88
657,57	1757,16
657,76	1619,94
657,95	1791,97
658,14	1681,38
658,32	1751,01
658,51	1656,81
658,70	1738,73
658,89	1781,73
659,08	1665,00
659,26	1730,53
659,45	1640,42
659,64	1783,78
659,83	1693,67
660,01	1929,19
660,20	1654,76
660,39	1767,40
660,58	1636,33
660,76	1779,68
660,95	1648,61
661,14	1716,20
661,33	1644,52
661,51	1652,71
661,70	1787,88
661,89	1708,01
662,08	1691,62
662,26	1646,57
662,45	1609,70
662,64	1843,17
662,83	1728,49
663,01	1642,47
663,20	1746,92
663,39	1837,03
663,58	1632,23
663,76	1777,64
663,95	1771,49
664,14	1681,38
664,32	1685,48
664,51	1673,19
664,70	1630,18
664,89	1757,16
665,07	1644,52
665,26	1808,36
665,45	1697,77
665,64	1816,55
665,82	1689,57
666,01	1804,26
666,20	1744,87
666,38	1826,79
666,57	1859,56
666,76	2101,22
666,95	4677,56
667,13	10309,47
667,32	15001,37
667,51	17704,69
667,69	18665,19
667,88	17354,49
668,07	12183,37
668,25	9391,98
668,44	8116,10
668,63	7368,59
668,81	6762,39
669,00	6301,60
669,19	5758,89
669,38	5058,48
669,56	4595,64
669,75	3870,66
669,94	3499,98
670,12	2922,45
670,31	2461,66
670,50	2271,20
670,68	2080,74
670,87	1945,57
671,06	1855,46
671,24	1853,41
671,43	1882,08
671,62	1740,77
671,80	1708,01
671,99	1746,92
672,18	1722,34
672,36	1722,34
672,55	1714,15
672,74	1726,44
672,92	1705,96
673,11	1779,68
673,29	1708,01
673,48	1720,29
673,67	1728,49
673,85	1828,84
674,04	1652,71
674,23	1705,96
674,41	1724,39
674,60	1624,04
674,79	1652,71
674,97	1699,81
675,16	1769,44
675,34	1785,83
675,53	1720,29
675,72	1746,92
675,90	1789,92
676,09	1673,19
676,28	1716,20
676,46	1732,58
676,65	1712,10
676,83	1765,35
677,02	1677,29
677,21	1693,67
677,39	1710,05
677,58	1669,09
677,77	1665,00
677,95	1699,81
678,14	1718,25
678,32	1720,29
678,51	1755,11
678,70	1820,64
678,88	1699,81
679,07	1746,92
679,25	1693,67
679,44	1691,62
679,63	1611,75
679,81	1744,87
680,00	1699,81
680,18	1730,53
680,37	1724,39
680,55	1685,48
680,74	1656,81
680,93	1638,38
681,11	1781,73
681,30	1697,77
681,48	1669,09
681,67	1675,24
681,85	1710,05
682,04	1658,85
682,23	1789,92
682,41	1718,25
682,60	1669,09
682,78	1724,39
682,97	1714,15
683,15	1701,86
683,34	1767,40
683,53	1810,40
683,71	1673,19
683,90	1834,98
684,08	1851,36
684,27	1628,14
684,45	1712,10
684,64	1789,92
684,82	1775,59
685,01	1748,97
685,19	1689,57
685,38	1861,60
685,57	1804,26
685,75	1771,49
685,94	1701,86
686,12	1708,01
686,31	1644,52
686,49	1869,80
686,68	1603,56
686,86	1746,92
687,05	1662,95
687,23	1826,79
687,42	1685,48
687,60	1665,00
687,79	1777,64
687,97	1732,58
688,16	1746,92
688,34	1849,32
688,53	1640,42
688,71	1861,60
688,90	1820,64
689,08	1757,16
689,27	1601,51
689,45	1755,11
689,64	1732,58
689,82	1783,78
690,01	1746,92
690,19	1712,10
690,38	1685,48
690,56	1839,08
690,75	1683,43
690,93	1677,29
691,12	1740,77
691,30	1732,58
691,49	1724,39
691,67	1687,53
691,86	1855,46
692,04	1718,25
692,23	1724,39
692,41	1705,96
692,60	1824,74
692,78	1705,96
692,97	1665,00
693,15	1724,39
693,34	1871,84
693,52	1769,44
693,71	1695,72
693,89	1705,96
694,08	1642,47
694,26	1789,92
694,44	1744,87
694,63	1779,68
694,81	1658,85
695,00	1654,76
695,18	1796,07
695,37	1898,47
695,55	1701,86
695,74	1705,96
695,92	1646,57
696,10	1783,78
696,29	1644,52
696,47	1662,95
696,66	1685,48
696,84	1693,67
697,03	1714,15
697,21	1814,50
697,40	2238,43
697,58	1828,84
697,76	1730,53
697,95	1650,66
698,13	1642,47
698,32	1671,14
698,50	1802,21
698,68	1791,97
698,87	1720,29
699,05	1841,12
699,24	1646,57
699,42	1748,97
699,61	1685,48
699,79	1751,01
699,97	1671,14
700,16	1644,52
700,34	1699,81
700,53	1722,34
700,71	1869,80
700,89	1771,49
701,08	1658,85
701,26	1769,44
701,45	2117,60
701,63	1736,68
701,81	1691,62
702,00	1632,23
702,18	1757,16
702,37	1677,29
702,55	1751,01
702,73	1746,92
702,92	1675,24
703,10	1691,62
703,28	1734,63
703,47	1732,58
703,65	1740,77
703,84	1794,02
704,02	1681,38
704,20	1857,51
704,39	1656,81
704,57	1679,33
704,75	1828,84
704,94	1773,54
705,12	1751,01
705,30	1812,45
705,49	2236,38
705,67	4321,21
705,86	9346,93
706,04	12111,69
706,22	14192,42
706,41	15345,43
706,59	13621,04
706,77	9422,70
706,96	7221,14
707,14	6588,32
707,32	5896,10
707,51	5468,08
707,69	4923,32
707,87	4270,01
708,06	3551,18
708,24	2951,12
708,42	2334,68
708,61	2293,72
708,79	1794,02
708,97	1812,45
709,16	1787,88
709,34	1753,06
709,52	1718,25
709,71	1722,34
709,89	1726,44
710,07	1726,44
710,26	1751,01
710,44	1681,38
710,62	1779,68
710,80	1744,87
710,99	1783,78
711,17	1771,49
711,35	1679,33
711,54	1693,67
711,72	1787,88
711,90	1699,81
712,09	1701,86
712,27	1738,73
712,45	1757,16
712,63	1714,15
712,82	1720,29
713,00	1703,91
713,18	1798,12
713,37	1724,39
713,55	1763,30
713,73	1710,05
713,91	1765,35
714,10	1724,39
714,28	1685,48
714,46	1740,77
714,65	1722,34
714,83	1734,63
715,01	1677,29
715,19	1751,01
715,38	1685,48
715,56	1703,91
715,74	1650,66
715,92	1724,39
716,11	1851,36
716,29	1656,81
716,47	1726,44
716,65	1699,81
716,84	1677,29
717,02	1769,44
717,20	1615,85
717,38	1720,29
717,57	1730,53
717,75	1716,20
717,93	1710,05
718,11	1761,25
718,30	1660,90
718,48	1724,39
718,66	1753,06
718,84	1775,59
719,03	1730,53
719,21	1624,04
719,39	1789,92
719,57	1757,16
719,75	1744,87
719,94	1642,47
720,12	1705,96
720,30	1689,57
720,48	1806,31
720,67	1611,75
720,85	1628,14
721,03	1691,62
721,21	1636,33
721,39	1755,11
721,58	1802,21
721,76	1660,90
721,94	1746,92
722,12	1716,20
722,30	1722,34
722,49	1710,05
722,67	1724,39
722,85	1689,57
723,03	1632,23
723,21	1675,24
723,40	1724,39
723,58	1775,59
723,76	1755,11
723,94	1748,97
724,12	1720,29
724,30	1757,16
724,49	1748,97
724,67	1683,43
724,85	1744,87
725,03	1669,09
725,21	1761,25
725,40	1734,63
725,58	1705,96
725,76	1822,69
725,94	1824,74
726,12	1705,96
726,30	1759,21
726,49	1734,63
726,67	1742,82
726,85	1654,76
727,03	1777,64
727,21	2205,66
727,39	2926,55
727,57	3696,58
727,76	4171,71
727,94	4483,00
728,12	4208,58
728,30	3731,40
728,48	2928,60
728,66	2639,83
728,84	2676,70
729,03	2265,05
729,21	2181,09
729,39	2050,02
729,57	1787,88
729,75	1822,69
729,93	1849,32
730,11	1703,91
730,30	1722,34
730,48	1761,25
730,66	1763,30
730,84	1701,86
731,02	1726,44
731,20	1732,58
731,38	1751,01
731,56	1675,24
731,74	1662,95
731,93	1705,96
732,11	1724,39
732,29	1714,15
732,47	1755,11
732,65	1753,06
732,83	1785,83
733,01	1726,44
733,19	1748,97
733,37	1718,25
733,56	1744,87
733,74	1716,20
733,92	1814,50
734,10	1728,49
734,28	1771,49
734,46	1677,29
734,64	1701,86
734,82	1646,57
735,00	1662,95
735,18	1669,09
735,36	1748,97
735,54	1726,44
735,73	1705,96
735,91	1708,01
736,09	1757,16
736,27	1755,11
736,45	1718,25
736,63	1640,42
736,81	1693,67
736,99	1738,73
737,17	1779,68
737,35	1662,95
737,53	1748,97
737,71	1697,77
737,89	1783,78
738,07	1699,81
738,25	1693,67
738,43	1624,04
738,61	1697,77
738,80	1564,65
738,98	1636,33
739,16	1724,39
739,34	1697,77
739,52	1767,40
739,70	1693,67
739,88	1759,21
740,06	1800,16
740,24	1646,57
740,42	1759,21
740,60	1615,85
740,78	1703,91
740,96	1574,89
741,14	1730,53
741,32	1658,85
741,50	1708,01
741,68	1830,88
741,86	1769,44
742,04	1619,94
742,22	1714,15
742,40	1673,19
742,58	1744,87
742,76	1673,19
742,94	1755,11
743,12	1609,70
743,30	1697,77
743,48	1689,57
743,66	1611,75
743,84	1769,44
744,02	1714,15
744,20	1755,11
744,38	1687,53
744,56	1724,39
744,74	1832,93
744,92	1722,34
745,10	1812,45
745,28	1783,78
745,46	1771,49
745,64	1705,96
745,82	1787,88
746,00	1697,77
746,18	1710,05
746,36	1652,71
746,54	1734,63
746,72	1779,68
746,90	1597,42
747,08	1763,30
747,26	1791,97
747,44	1748,97
747,62	1697,77
747,80	1759,21
747,98	1818,60
748,15	1644,52
748,33	1773,54
748,51	1732,58
748,69	1693,67
748,87	1689,57
749,05	1734,63
749,23	1617,90
749,41	1746,92
749,59	1740,77
749,77	1787,88
749,95	1710,05
750,13	1691,62
750,31	1820,64
750,49	1718,25
750,67	1759,21
750,85	1804,26
751,03	1798,12
751,20	1808,36
751,38	1617,90
751,56	1714,15
751,74	1718,25
751,92	1703,91
752,10	1581,03
752,28	1818,60
752,46	1693,67
752,64	1691,62
752,82	1687,53
753,00	1777,64
753,18	1779,68
753,35	1716,20
753,53	1736,68
753,71	1636,33
753,89	1652,71
754,07	1740,77
754,25	1712,10
754,43	1783,78
754,61	1581,03
754,79	1755,11
754,97	1585,13
755,14	1824,74
755,32	1634,28
755,50	1701,86
755,68	1710,05
755,86	1599,46
756,04	1757,16
756,22	1619,94
756,40	1716,20
756,57	1775,59
756,75	1652,71
756,93	1783,78
757,11	1726,44
757,29	1644,52
757,47	1658,85
757,65	1595,37
757,82	1621,99
758,00	1669,09
758,18	1705,96
758,36	1697,77
758,54	1734,63
758,72	1648,61
758,90	1738,73
759,07	1646,57
759,25	1705,96
759,43	1730,53
759,61	1624,04
759,79	2140,13
759,97	1787,88
760,15	1724,39
760,32	1722,34
760,50	1728,49
760,68	1798,12
760,86	1656,81
761,04	1744,87
761,22	1712,10
761,39	1705,96
761,57	1681,38
761,75	1665,00
761,93	1699,81
762,11	1742,82
762,28	1693,67
762,46	1624,04
762,64	1746,92
762,82	1572,84
763,00	1642,47
763,18	1855,46
763,35	1673,19
763,53	1730,53
763,71	1701,86
763,89	1759,21
764,07	1767,40
764,24	1669,09
764,42	1765,35
764,60	1671,14
764,78	1738,73
764,96	1746,92
765,13	1806,31
765,31	1699,81
765,49	1755,11
765,67	1642,47
765,84	1644,52
766,02	1640,42
766,20	1558,50
766,38	1695,72
766,56	1708,01
766,73	1828,84
766,91	1644,52
767,09	1718,25
767,27	1769,44
767,44	1572,84
767,62	1736,68
767,80	1718,25
767,98	1642,47
768,15	1759,21
768,33	1660,90
768,51	1685,48
768,69	1751,01
768,87	1699,81
769,04	1734,63
769,22	1804,26
769,40	1822,69
769,58	1867,75
769,75	1742,82
769,93	1853,41
770,11	1687,53
770,28	1667,05
770,46	1716,20
770,64	1769,44
770,82	1720,29
770,99	1736,68
771,17	1777,64
771,35	1718,25
771,53	1662,95
771,70	1712,10
771,88	1669,09
772,06	1650,66
772,23	1734,63
772,41	1789,92
772,59	1689,57
772,77	1695,72
772,94	1693,67
773,12	1689,57
773,30	1650,66
773,47	1732,58
773,65	1656,81
773,83	1734,63
774,01	1687,53
774,18	1665,00
774,36	1728,49
774,54	1605,61
774,71	1779,68
774,89	1673,19
775,07	1626,09
775,24	1695,72
775,42	1677,29
775,60	1841,12
775,78	1720,29
775,95	1607,66
776,13	1615,85
776,31	1529,83
776,48	1712,10
776,66	1812,45
776,84	1638,38
777,01	1652,71
777,19	1660,90
777,37	1691,62
777,54	1744,87
777,72	1865,70
777,90	1767,40
778,07	1693,67
778,25	1789,92
778,43	1804,26
778,60	1669,09
778,78	1794,02
778,96	1712,10
779,13	1705,96
779,31	1787,88
779,49	1673,19
779,66	1787,88
779,84	1734,63
780,01	1644,52
780,19	1687,53
780,37	1724,39
780,54	1806,31
780,72	1705,96
780,90	1728,49
781,07	1724,39
781,25	1634,28
781,43	1794,02
781,60	1748,97
781,78	1783,78
781,95	1730,53
782,13	1687,53
782,31	1705,96
782,48	1574,89
782,66	1658,85
782,83	1822,69
783,01	1748,97
783,19	1771,49
783,36	1679,33
783,54	1724,39
783,72	1767,40
783,89	1648,61
784,07	1730,53
784,24	1773,54
784,42	1808,36
784,60	1689,57
784,77	1748,97
784,95	1583,08
785,12	1665,00
785,30	1718,25
785,47	1650,66
785,65	1675,24
785,83	1701,86
786,00	1665,00
786,18	1701,86
786,35	1724,39
786,53	1728,49
786,71	1791,97
786,88	1710,05
787,06	1673,19
787,23	1697,77
787,41	1705,96
787,58	1675,24
787,76	1693,67
787,94	1708,01
788,11	1714,15
788,29	1705,96
788,46	1628,14
788,64	1646,57
788,81	1779,68
788,99	1667,05
789,16	1630,18
789,34	1755,11
789,52	1703,91
789,69	1695,72
789,87	1589,22
790,04	1626,09
790,22	1759,21
790,39	1798,12
790,57	1632,23
790,74	1660,90
790,92	1757,16
791,09	1583,08
791,27	1687,53
791,44	1775,59
791,62	1714,15
791,79	1703,91
791,97	1808,36
792,15	1794,02
792,32	1708,01
792,50	1781,73
792,67	1773,54
792,85	1714,15
793,02	1818,60
793,20	1648,61
793,37	1621,99
793,55	1691,62
793,72	1650,66
793,90	1718,25
794,07	1603,56
794,25	1669,09
794,42	1720,29
794,60	1689,57
794,77	1736,68
794,95	1787,88
795,12	1744,87
795,30	1714,15
795,47	1697,77
795,65	1873,89
795,82	1720,29
796,00	1671,14
796,17	1718,25
796,34	1695,72
796,52	1720,29
796,69	1783,78
796,87	1669,09
797,04	1701,86
797,22	1757,16
797,39	1699,81
797,57	1859,56
797,74	1738,73
797,92	1691,62
798,09	1675,24
798,27	1787,88
798,44	1722,34
798,62	1703,91
798,79	1714,15
798,96	1744,87
799,14	1744,87
799,31	1894,37
799,49	1632,23
799,66	1708,01
799,84	1699,81
800,01	1634,28
800,19	1751,01
800,36	1540,07
800,53	1626,09
800,71	1751,01
800,88	1816,55
801,06	1708,01
801,23	1710,05
801,41	1724,39
801,58	1710,05
801,75	1708,01
801,93	1697,77
802,10	1695,72
802,28	1705,96
802,45	1669,09
802,63	1718,25
802,80	1773,54
802,97	1732,58
803,15	1777,64
803,32	1734,63
803,50	1671,14
803,67	1681,38
803,84	1683,43
804,02	1751,01
804,19	1683,43
804,37	1636,33
804,54	1615,85
804,71	1679,33
804,89	1740,77
805,06	1677,29
805,24	1669,09
805,41	1667,05
805,58	1751,01
805,76	1800,16
805,93	1785,83
806,10	1806,31
806,28	1779,68
806,45	1697,77
806,63	1712,10
806,80	1759,21
806,97	1794,02
807,15	1734,63
807,32	1718,25
807,49	1681,38
807,67	1634,28
807,84	1703,91
808,01	1695,72
808,19	1857,51
808,36	1861,60
808,54	1644,52
808,71	1679,33
808,88	1734,63
809,06	1753,06
809,23	1812,45
809,40	1697,77
809,58	1722,34
809,75	1751,01
809,92	1681,38
810,10	1849,32
810,27	1705,96
810,44	1734,63
810,62	1789,92
810,79	1677,29
810,96	1640,42
811,14	1703,91
811,31	1708,01
811,48	1673,19
811,66	1673,19
811,83	1751,01
812,00	1677,29
812,18	1773,54
812,35	1824,74
812,52	1648,61
812,69	1648,61
812,87	1675,24
813,04	1634,28
813,21	1712,10
813,39	1644,52
813,56	1695,72
813,73	1812,45
813,91	1636,33
814,08	1667,05
814,25	1718,25
814,42	1720,29
814,60	1617,90
814,77	1759,21
814,94	1671,14
815,12	1705,96
815,29	1796,07
815,46	1718,25
815,63	1804,26
815,81	1687,53
815,98	1710,05
816,15	1755,11
816,33	1783,78
816,50	1732,58
816,67	1679,33
816,84	1697,77
817,02	1591,27
817,19	1695,72
817,36	1716,20
817,53	1722,34
817,71	1675,24
817,88	1746,92
818,05	1728,49
818,22	1708,01
818,40	1779,68
818,57	1652,71
818,74	1683,43
818,91	1673,19
819,09	1785,83
819,26	1724,39
819,43	1724,39
819,60	1667,05
819,78	1800,16
819,95	1781,73
820,12	1626,09
820,29	1771,49
820,47	1712,10
820,64	1673,19
820,81	1718,25
820,98	1642,47
821,15	1669,09
821,33	1796,07
821,50	1648,61
821,67	1759,21
821,84	1681,38
822,02	1738,73
822,19	1746,92
822,36	1673,19
822,53	1763,30
822,70	1708,01
822,88	1726,44
823,05	1789,92
823,22	1650,66
823,39	1708,01
823,56	1640,42
823,74	1798,12
823,91	1628,14
824,08	1648,61
824,25	1658,85
824,42	1791,97
824,60	1675,24
824,77	1736,68
824,94	1681,38
825,11	1656,81
825,28	1656,81
825,45	1724,39
825,63	1671,14
825,80	1658,85
825,97	1728,49
826,14	1703,91
826,31	1605,61
826,48	1751,01
826,66	1724,39
826,83	1767,40
827,00	1675,24
827,17	1609,70
827,34	1716,20
827,51	1681,38
827,69	1726,44
827,86	1681,38
828,03	1665,00
828,20	1722,34
828,37	1660,90
828,54	1822,69
828,71	1599,46
828,89	1828,84
829,06	1691,62
829,23	1783,78
829,40	1697,77
829,57	1638,38
829,74	1718,25
829,91	1708,01
830,09	1558,50
830,26	1812,45
830,43	1761,25
830,60	1689,57
830,77	1775,59
830,94	1746,92
831,11	1689,57
831,28	1695,72
831,46	1777,64
831,63	1716,20
831,80	1722,34
831,97	1705,96
832,14	1755,11
832,31	1669,09
832,48	1746,92
832,65	1744,87
832,82	1726,44
832,99	1708,01
833,17	1665,00
833,34	1804,26
833,51	1791,97
833,68	1660,90
833,85	1759,21
834,02	1669,09
834,19	1624,04
834,36	1712,10
834,53	1695,72
834,70	1865,70
834,87	1806,31
835,04	1724,39
835,22	1695,72
835,39	1621,99
835,56	1595,37
835,73	1665,00
835,90	1767,40
836,07	1685,48
836,24	1724,39
836,41	1662,95
836,58	1654,76
836,75	1798,12
836,92	1705,96
837,09	1699,81
837,26	1763,30
837,43	1675,24
837,60	1708,01
837,77	1533,93
837,94	1746,92
838,12	1806,31
838,29	1718,25
838,46	1628,14
838,63	1693,67
838,80	1859,56
838,97	1824,74
839,14	1763,30
839,31	1716,20
839,48	1724,39
839,65	1755,11
839,82	1712,10
839,99	1736,68
840,16	1652,71
840,33	1624,04
840,50	1755,11
840,67	1726,44
840,84	1591,27
841,01	1744,87
841,18	1708,01
841,35	1675,24
841,52	1820,64
841,69	1830,88
841,86	1736,68
842,03	1673,19
842,20	1763,30
842,37	1710,05
842,54	1665,00
842,71	1755,11
842,88	1626,09
843,05	1716,20
843,22	1677,29
843,39	1681,38
843,56	1746,92
843,73	1701,86
843,90	1699,81
844,07	1703,91
844,24	1791,97
844,41	1757,16
844,58	1720,29
844,75	1611,75
844,92	1724,39
845,09	1673,19
845,26	1609,70
845,43	1710,05
845,60	1708,01
845,77	1798,12
845,94	1712,10
846,10	1701,86
846,27	1660,90
846,44	1636,33
846,61	1654,76
846,78	1738,73
846,95	1791,97
847,12	1759,21
847,29	1689,57
847,46	1646,57
847,63	1746,92
847,80	1634,28
847,97	1751,01
848,14	1834,98
848,31	1710,05
848,48	1574,89
848,65	1689,57
848,82	1669,09
848,98	1867,75
849,15	1685,48
849,32	1763,30
849,49	1783,78
849,66	1722,34
849,83	1699,81
850,00	1722,34
850,17	1789,92
850,34	1636,33
850,51	1642,47
850,68	1669,09
850,85	1824,74
851,01	1673,19
851,18	1724,39
851,35	1724,39
851,52	1718,25
851,69	1755,11
851,86	1632,23
852,03	1701,86
852,20	1693,67
852,37	1683,43
852,53	1660,90
852,70	1658,85
852,87	1693,67
853,04	1720,29
853,21	1710,05
853,38	1781,73
853,55	1808,36
853,72	1806,31
853,89	1644,52
854,05	1722,34
854,22	1724,39
854,39	1679,33
854,56	1767,40
854,73	1759,21
854,90	1703,91
855,07	1660,90
855,23	1615,85
855,40	1705,96
855,57	1679,33
855,74	1583,08
855,91	1839,08
856,08	1656,81
856,25	1613,80
856,41	1626,09
856,58	1673,19
856,75	1683,43
856,92	1665,00
857,09	1722,34
857,26	1601,51
857,42	1742,82
857,59	1806,31
857,76	1705,96
857,93	1695,72
858,10	1708,01
858,27	1640,42
858,43	1701,86
858,60	1703,91
858,77	1621,99
858,94	1683,43
859,11	1765,35
859,27	1724,39
859,44	1708,01
859,61	1791,97
859,78	1742,82
859,95	1656,81
860,12	1656,81
860,28	1822,69
860,45	1771,49
860,62	1718,25
860,79	1669,09
860,95	1665,00
861,12	1695,72
861,29	1708,01
861,46	1617,90
861,63	1673,19
861,79	1777,64
861,96	1687,53
862,13	1746,92
862,30	1748,97
862,47	1665,00
862,63	1656,81
862,80	1708,01
862,97	1789,92
863,14	1759,21
863,30	1742,82
863,47	1644,52
863,64	1822,69
863,81	1759,21
863,97	1710,05
864,14	1689,57
864,31	1705,96
864,48	1701,86
864,65	1705,96
864,81	1779,68
864,98	1720,29
865,15	1751,01
865,32	1718,25
865,48	1736,68
865,65	1828,84
865,82	1646,57
865,98	1669,09
866,15	1724,39
866,32	1757,16
866,49	1716,20
866,65	1736,68
866,82	1716,20
866,99	1669,09
867,16	1644,52
867,32	1671,14
867,49	1699,81
867,66	1681,38
867,83	1732,58
867,99	1656,81
868,16	1753,06
868,33	1710,05
868,49	1691,62
868,66	1675,24
868,83	1771,49
868,99	1712,10
869,16	1683,43
869,33	1710,05
869,50	1783,78
869,66	1683,43
869,83	1728,49
870,00	1578,98
870,16	1765,35
870,33	1783,78
870,50	1705,96
870,66	1820,64
870,83	1837,03
871,00	1667,05
871,17	1701,86
871,33	1734,63
871,50	1708,01
871,67	1695,72
871,83	1585,13
872,00	1800,16
872,17	1699,81
872,33	1798,12
872,50	1708,01
872,67	1671,14
872,83	1667,05
873,00	1701,86
873,17	1716,20
873,33	1726,44
873,50	1701,86
873,67	1603,56
873,83	1656,81
874,00	1744,87
874,16	1767,40
874,33	1763,30
874,50	1654,76
874,66	1730,53
874,83	1734,63
875,00	1755,11
875,16	1683,43
875,33	1724,39
875,50	1535,98
875,66	1640,42
875,83	1650,66
875,99	1712,10
876,16	1675,24
876,33	1626,09
876,49	1683,43
876,66	1765,35
876,83	1724,39
876,99	1626,09
877,16	1689,57
877,32	1757,16
877,49	1705,96
877,66	1732,58
877,82	1751,01
877,99	1757,16
878,15	1712,10
878,32	1687,53
878,49	1710,05
878,65	1673,19
878,82	1761,25
878,98	1722,34
879,15	1779,68
879,32	1705,96
879,48	1701,86
879,65	1675,24
879,81	1611,75
879,98	1693,67
880,15	1654,76
880,31	1781,73
880,48	1685,48
880,64	1781,73
880,81	1740,77
880,97	1796,07
881,14	1837,03
881,31	1632,23
881,47	1806,31
881,64	1732,58
881,80	1605,61
881,97	1746,92
882,13	1781,73
882,30	1632,23
882,47	1712,10
882,63	1656,81
882,80	1714,15
882,96	1673,19
883,13	1773,54
883,29	1685,48
883,46	1730,53
883,62	1849,32
883,79	1660,90
883,95	1832,93
884,12	1646,57
884,29	1769,44
884,45	1722,34
884,62	1671,14
884,78	1734,63
884,95	1734,63
885,11	1714,15
885,28	1730,53
885,44	1695,72
885,61	1808,36
885,77	1761,25
885,94	1791,97
886,10	1744,87
886,27	1767,40
886,43	1839,08
886,60	1763,30
886,76	1662,95
886,93	1691,62
887,09	1736,68
887,26	1642,47
887,42	1671,14
887,59	1755,11
887,75	1912,80
887,92	1765,35
888,08	1871,84
888,25	1888,23
888,41	1794,02
888,58	1732,58
888,74	1656,81
888,91	1673,19
>>>>>End Processed Spectral Data<<<<<
