SpectraSuite Data File
++++++++++++++++++++++++++++++++++++
Date: Mon Jun 06 16:35:37 CEST 2016
User: root
Dark Spectrum Present: No
Reference Spectrum Present: No
Number of Sampled Component Spectra: 1
Spectrometers: USB4C02835
Integration Time (usec): 100000 (USB4C02835)
Spectra Averaged: 1 (USB4C02835)
Boxcar Smoothing: 0 (USB4C02835)
Correct for Electrical Dark: No (USB4C02835)
Strobe/Lamp Enabled: No (USB4C02835)
Correct for Detector Non-linearity: No (USB4C02835)
Correct for Stray Light: No (USB4C02835)
Number of Pixels in Processed Spectrum: 3648
>>>>>Begin Processed Spectral Data<<<<<
177,47	1474,54
177,69	1474,54
177,91	1474,54
178,13	1429,48
178,36	1497,07
178,58	1644,52
178,80	1753,06
179,02	1658,85
179,24	1673,19
179,46	1728,49
179,68	1769,44
179,90	1683,43
180,13	1644,52
180,35	1656,81
180,57	1720,29
180,79	1724,39
181,01	1695,72
181,23	1800,16
181,45	1783,78
181,67	1710,05
181,90	1789,92
182,12	1669,09
182,34	1638,38
182,56	1728,49
182,78	1767,40
183,00	1648,61
183,22	1757,16
183,44	1673,19
183,66	1863,65
183,89	1789,92
184,11	1724,39
184,33	1748,97
184,55	1822,69
184,77	1714,15
184,99	1763,30
185,21	1748,97
185,43	1843,17
185,65	1630,18
185,87	1728,49
186,10	1794,02
186,32	1859,56
186,54	1777,64
186,76	1697,77
186,98	1798,12
187,20	1726,44
187,42	1748,97
187,64	1710,05
187,86	1654,76
188,08	1751,01
188,30	1726,44
188,52	1759,21
188,75	1716,20
188,97	1777,64
189,19	1630,18
189,41	1740,77
189,63	1705,96
189,85	1658,85
190,07	1705,96
190,29	1693,67
190,51	1732,58
190,73	1644,52
190,95	1806,31
191,17	1699,81
191,39	1511,40
191,61	1656,81
191,84	1642,47
192,06	1667,05
192,28	1611,75
192,50	1853,41
192,72	1775,59
192,94	1720,29
193,16	1794,02
193,38	1740,77
193,60	1710,05
193,82	1779,68
194,04	1818,60
194,26	1728,49
194,48	1769,44
194,70	1644,52
194,92	1662,95
195,14	1755,11
195,36	1660,90
195,58	1742,82
195,80	1675,24
196,02	1665,00
196,24	1718,25
196,46	1687,53
196,69	1736,68
196,91	1873,89
197,13	1638,38
197,35	1621,99
197,57	1720,29
197,79	1804,26
198,01	1695,72
198,23	1726,44
198,45	1837,03
198,67	1665,00
198,89	1751,01
199,11	1734,63
199,33	1630,18
199,55	1597,42
199,77	1726,44
199,99	1665,00
200,21	1697,77
200,43	1718,25
200,65	1726,44
200,87	1634,28
201,09	1779,68
201,31	1669,09
201,53	1734,63
201,75	1771,49
201,97	1738,73
202,19	1742,82
202,41	1710,05
202,63	1888,23
202,85	1697,77
203,07	1687,53
203,29	1683,43
203,51	1689,57
203,73	1630,18
203,95	1904,61
204,17	1744,87
204,39	1746,92
204,61	1693,67
204,83	1648,61
205,05	1781,73
205,27	1734,63
205,49	1853,41
205,71	1619,94
205,93	1607,66
206,15	1630,18
206,37	1710,05
206,59	1656,81
206,81	1589,22
207,03	1599,46
207,25	1685,48
207,47	1708,01
207,69	1675,24
207,91	1794,02
208,13	1753,06
208,34	1748,97
208,56	1683,43
208,78	1785,83
209,00	1673,19
209,22	1748,97
209,44	1718,25
209,66	1730,53
209,88	1699,81
210,10	1656,81
210,32	1640,42
210,54	1710,05
210,76	1646,57
210,98	1751,01
211,20	1615,85
211,42	1705,96
211,64	1714,15
211,86	1689,57
212,08	1748,97
212,30	1775,59
212,52	1734,63
212,74	1746,92
212,96	1759,21
213,17	1791,97
213,39	1765,35
213,61	1722,34
213,83	1773,54
214,05	1640,42
214,27	1798,12
214,49	1714,15
214,71	1585,13
214,93	1787,88
215,15	1718,25
215,37	1796,07
215,59	1609,70
215,81	1724,39
216,03	1716,20
216,24	1699,81
216,46	1681,38
216,68	1734,63
216,90	1773,54
217,12	1818,60
217,34	1705,96
217,56	1748,97
217,78	1806,31
218,00	1679,33
218,22	1660,90
218,44	1777,64
218,66	1626,09
218,87	1802,21
219,09	1650,66
219,31	1763,30
219,53	1755,11
219,75	1710,05
219,97	1708,01
220,19	1765,35
220,41	1718,25
220,63	1751,01
220,85	1759,21
221,06	1581,03
221,28	1775,59
221,50	1724,39
221,72	1724,39
221,94	1785,83
222,16	1654,76
222,38	1755,11
222,60	1730,53
222,82	1759,21
223,03	1748,97
223,25	1585,13
223,47	1771,49
223,69	1841,12
223,91	1705,96
224,13	1738,73
224,35	1701,86
224,57	1779,68
224,78	1765,35
225,00	1667,05
225,22	1701,86
225,44	1658,85
225,66	1742,82
225,88	1673,19
226,10	1779,68
226,32	1658,85
226,53	1771,49
226,75	1654,76
226,97	1800,16
227,19	1681,38
227,41	1630,18
227,63	1787,88
227,85	1624,04
228,06	1740,77
228,28	1708,01
228,50	1812,45
228,72	1683,43
228,94	1720,29
229,16	1624,04
229,37	1615,85
229,59	1665,00
229,81	1779,68
230,03	1734,63
230,25	1656,81
230,47	1646,57
230,69	1607,66
230,90	1746,92
231,12	1624,04
231,34	1773,54
231,56	1708,01
231,78	1673,19
232,00	1746,92
232,21	1703,91
232,43	1658,85
232,65	1628,14
232,87	1718,25
233,09	1652,71
233,30	1646,57
233,52	1722,34
233,74	1751,01
233,96	1673,19
234,18	1746,92
234,40	1703,91
234,61	1904,61
234,83	1636,33
235,05	1675,24
235,27	1810,40
235,49	1851,36
235,70	1755,11
235,92	1777,64
236,14	1671,14
236,36	1869,80
236,58	1648,61
236,79	1746,92
237,01	1755,11
237,23	1703,91
237,45	1800,16
237,67	1636,33
237,88	1712,10
238,10	1798,12
238,32	1683,43
238,54	1681,38
238,76	1728,49
238,97	1720,29
239,19	1703,91
239,41	1705,96
239,63	1791,97
239,85	1626,09
240,06	1722,34
240,28	1732,58
240,50	1816,55
240,72	1675,24
240,93	1660,90
241,15	1718,25
241,37	1665,00
241,59	1785,83
241,81	1724,39
242,02	1740,77
242,24	1714,15
242,46	1736,68
242,68	1679,33
242,89	1763,30
243,11	1753,06
243,33	1736,68
243,55	1689,57
243,76	1710,05
243,98	1671,14
244,20	1716,20
244,42	1755,11
244,64	1708,01
244,85	1636,33
245,07	1679,33
245,29	1714,15
245,51	1763,30
245,72	1675,24
245,94	1783,78
246,16	1744,87
246,38	1701,86
246,59	1671,14
246,81	1648,61
247,03	1724,39
247,24	1662,95
247,46	1677,29
247,68	1701,86
247,90	1644,52
248,11	1689,57
248,33	1771,49
248,55	1724,39
248,77	1691,62
248,98	1771,49
249,20	1781,73
249,42	1681,38
249,64	1730,53
249,85	1714,15
250,07	1681,38
250,29	1746,92
250,50	1755,11
250,72	1652,71
250,94	1781,73
251,16	1798,12
251,37	1763,30
251,59	1708,01
251,81	1736,68
252,02	1816,55
252,24	1667,05
252,46	1826,79
252,68	1693,67
252,89	1648,61
253,11	1552,36
253,33	1763,30
253,54	1740,77
253,76	1638,38
253,98	1705,96
254,20	1726,44
254,41	1685,48
254,63	1691,62
254,85	1683,43
255,06	1734,63
255,28	1705,96
255,50	1703,91
255,71	1710,05
255,93	1658,85
256,15	1660,90
256,36	1806,31
256,58	1695,72
256,80	1763,30
257,02	1644,52
257,23	1658,85
257,45	1673,19
257,67	1695,72
257,88	1685,48
258,10	1724,39
258,32	1675,24
258,53	1730,53
258,75	1753,06
258,97	1712,10
259,18	1705,96
259,40	1710,05
259,62	1794,02
259,83	1763,30
260,05	1751,01
260,27	1939,43
260,48	1753,06
260,70	1624,04
260,92	1701,86
261,13	1757,16
261,35	1699,81
261,57	1761,25
261,78	1660,90
262,00	1613,80
262,22	1740,77
262,43	1648,61
262,65	1658,85
262,86	1685,48
263,08	1914,85
263,30	1771,49
263,51	1613,80
263,73	1621,99
263,95	1832,93
264,16	1656,81
264,38	1656,81
264,60	1722,34
264,81	1599,46
265,03	1783,78
265,25	1722,34
265,46	1642,47
265,68	1800,16
265,89	1757,16
266,11	1660,90
266,33	1742,82
266,54	1695,72
266,76	1726,44
266,98	1736,68
267,19	1765,35
267,41	1697,77
267,62	1779,68
267,84	1617,90
268,06	1714,15
268,27	1802,21
268,49	1744,87
268,70	1759,21
268,92	1724,39
269,14	1626,09
269,35	1681,38
269,57	1759,21
269,79	1730,53
270,00	1660,90
270,22	1781,73
270,43	1714,15
270,65	1576,94
270,87	1701,86
271,08	1759,21
271,30	1697,77
271,51	1767,40
271,73	1773,54
271,95	1779,68
272,16	1742,82
272,38	1773,54
272,59	1646,57
272,81	1796,07
273,02	1687,53
273,24	1746,92
273,46	1728,49
273,67	1632,23
273,89	1730,53
274,10	1685,48
274,32	1769,44
274,54	1796,07
274,75	1699,81
274,97	1673,19
275,18	1779,68
275,40	1789,92
275,61	1738,73
275,83	1665,00
276,05	1644,52
276,26	1726,44
276,48	1748,97
276,69	1832,93
276,91	1652,71
277,12	1787,88
277,34	1822,69
277,55	1765,35
277,77	1683,43
277,99	1726,44
278,20	1650,66
278,42	1695,72
278,63	1640,42
278,85	1646,57
279,06	1751,01
279,28	1802,21
279,49	1789,92
279,71	1757,16
279,93	1693,67
280,14	1683,43
280,36	1699,81
280,57	1695,72
280,79	1677,29
281,00	1722,34
281,22	1714,15
281,43	1800,16
281,65	1628,14
281,86	1650,66
282,08	1722,34
282,29	1843,17
282,51	1611,75
282,73	1689,57
282,94	1689,57
283,16	1693,67
283,37	1775,59
283,59	1722,34
283,80	1751,01
284,02	1677,29
284,23	1767,40
284,45	1714,15
284,66	1720,29
284,88	1679,33
285,09	1802,21
285,31	1724,39
285,52	1726,44
285,74	1660,90
285,95	1796,07
286,17	1740,77
286,38	1777,64
286,60	1665,00
286,81	1734,63
287,03	1699,81
287,24	1744,87
287,46	1722,34
287,67	1714,15
287,89	1849,32
288,10	1691,62
288,32	1714,15
288,53	1832,93
288,75	1730,53
288,96	1794,02
289,18	1691,62
289,39	1683,43
289,61	1710,05
289,82	1824,74
290,04	1826,79
290,25	1630,18
290,47	1742,82
290,68	1669,09
290,90	1730,53
291,11	1589,22
291,33	1753,06
291,54	1628,14
291,76	1710,05
291,97	1763,30
292,18	1683,43
292,40	1654,76
292,61	1689,57
292,83	1773,54
293,04	1701,86
293,26	1730,53
293,47	1681,38
293,69	1624,04
293,90	1687,53
294,12	1714,15
294,33	1701,86
294,55	1771,49
294,76	1806,31
294,97	1734,63
295,19	1789,92
295,40	1710,05
295,62	1773,54
295,83	1734,63
296,05	1689,57
296,26	1759,21
296,48	1667,05
296,69	1669,09
296,90	1665,00
297,12	1773,54
297,33	1804,26
297,55	1677,29
297,76	1644,52
297,98	1671,14
298,19	1742,82
298,41	1673,19
298,62	1685,48
298,83	1794,02
299,05	1791,97
299,26	1667,05
299,48	1710,05
299,69	1665,00
299,90	1806,31
300,12	1685,48
300,33	1785,83
300,55	1765,35
300,76	1714,15
300,98	1593,32
301,19	1763,30
301,40	1652,71
301,62	1675,24
301,83	1763,30
302,05	1695,72
302,26	1748,97
302,47	1718,25
302,69	1673,19
302,90	1726,44
303,12	1558,50
303,33	1763,30
303,54	1810,40
303,76	1697,77
303,97	1730,53
304,19	1818,60
304,40	1634,28
304,61	1781,73
304,83	1794,02
305,04	1757,16
305,26	1759,21
305,47	1673,19
305,68	1714,15
305,90	1656,81
306,11	1802,21
306,33	1697,77
306,54	1720,29
306,75	1689,57
306,97	1646,57
307,18	1699,81
307,39	1665,00
307,61	1742,82
307,82	1734,63
308,04	1763,30
308,25	1632,23
308,46	1714,15
308,68	1689,57
308,89	1734,63
309,10	1777,64
309,32	1724,39
309,53	1675,24
309,74	1689,57
309,96	1748,97
310,17	1695,72
310,39	1689,57
310,60	1779,68
310,81	1658,85
311,03	1570,79
311,24	1765,35
311,45	1755,11
311,67	1841,12
311,88	1656,81
312,09	1703,91
312,31	1736,68
312,52	1673,19
312,73	1689,57
312,95	1630,18
313,16	1652,71
313,37	1808,36
313,59	1714,15
313,80	1740,77
314,01	1814,50
314,23	1738,73
314,44	1675,24
314,65	1708,01
314,87	1673,19
315,08	1767,40
315,29	1673,19
315,51	1697,77
315,72	1617,90
315,93	1845,22
316,15	1732,58
316,36	1679,33
316,57	1716,20
316,79	1789,92
317,00	1681,38
317,21	1751,01
317,43	1712,10
317,64	1781,73
317,85	1607,66
318,07	1609,70
318,28	1769,44
318,49	1904,61
318,70	1875,94
318,92	1871,84
319,13	1865,70
319,34	1892,32
319,56	1781,73
319,77	1740,77
319,98	1779,68
320,20	1748,97
320,41	1773,54
320,62	1738,73
320,83	1656,81
321,05	1877,99
321,26	1771,49
321,47	1746,92
321,69	1714,15
321,90	1687,53
322,11	1693,67
322,32	1650,66
322,54	1785,83
322,75	1646,57
322,96	1861,60
323,18	1667,05
323,39	1656,81
323,60	1677,29
323,81	1738,73
324,03	1675,24
324,24	1695,72
324,45	1691,62
324,66	1667,05
324,88	1744,87
325,09	1830,88
325,30	1751,01
325,52	1689,57
325,73	1798,12
325,94	1689,57
326,15	1667,05
326,37	1638,38
326,58	1800,16
326,79	1763,30
327,00	1617,90
327,22	1736,68
327,43	1669,09
327,64	1656,81
327,85	1730,53
328,07	1716,20
328,28	1865,70
328,49	1724,39
328,70	1732,58
328,92	1675,24
329,13	1636,33
329,34	1705,96
329,55	1787,88
329,76	1728,49
329,98	1621,99
330,19	1796,07
330,40	1808,36
330,61	1767,40
330,83	1767,40
331,04	1642,47
331,25	1689,57
331,46	1685,48
331,68	1693,67
331,89	1757,16
332,10	1689,57
332,31	1648,61
332,52	1689,57
332,74	1744,87
332,95	1642,47
333,16	1722,34
333,37	1736,68
333,58	1691,62
333,80	1814,50
334,01	1652,71
334,22	1773,54
334,43	1636,33
334,64	1673,19
334,86	1587,18
335,07	1630,18
335,28	1771,49
335,49	1695,72
335,70	1738,73
335,92	1771,49
336,13	1816,55
336,34	1738,73
336,55	1718,25
336,76	1763,30
336,98	1578,98
337,19	1808,36
337,40	1796,07
337,61	1908,71
337,82	1652,71
338,04	1779,68
338,25	1568,74
338,46	1658,85
338,67	1675,24
338,88	1646,57
339,09	1648,61
339,31	1662,95
339,52	1617,90
339,73	1669,09
339,94	1740,77
340,15	1683,43
340,36	1734,63
340,58	1767,40
340,79	1681,38
341,00	1748,97
341,21	1642,47
341,42	1910,75
341,63	1755,11
341,85	1773,54
342,06	1675,24
342,27	1611,75
342,48	1755,11
342,69	1730,53
342,90	1728,49
343,12	1677,29
343,33	1599,46
343,54	1722,34
343,75	1880,04
343,96	1730,53
344,17	1626,09
344,38	1689,57
344,60	1601,51
344,81	1701,86
345,02	1701,86
345,23	1753,06
345,44	1816,55
345,65	1740,77
345,86	1740,77
346,07	1710,05
346,29	1640,42
346,50	1736,68
346,71	1728,49
346,92	1744,87
347,13	1802,21
347,34	1718,25
347,55	1656,81
347,76	1736,68
347,98	1566,70
348,19	1703,91
348,40	1767,40
348,61	1740,77
348,82	1748,97
349,03	1837,03
349,24	1714,15
349,45	1822,69
349,66	1691,62
349,88	1736,68
350,09	1685,48
350,30	1759,21
350,51	1796,07
350,72	1671,14
350,93	1779,68
351,14	1699,81
351,35	1771,49
351,56	1697,77
351,77	1703,91
351,99	1763,30
352,20	1771,49
352,41	1810,40
352,62	1583,08
352,83	1734,63
353,04	1685,48
353,25	1652,71
353,46	1763,30
353,67	1730,53
353,88	1708,01
354,09	1648,61
354,30	1712,10
354,52	1763,30
354,73	1740,77
354,94	1728,49
355,15	1708,01
355,36	1796,07
355,57	1728,49
355,78	1748,97
355,99	1683,43
356,20	1667,05
356,41	1738,73
356,62	1775,59
356,83	1683,43
357,04	1759,21
357,25	1513,45
357,46	1644,52
357,68	1665,00
357,89	1628,14
358,10	1697,77
358,31	1720,29
358,52	1665,00
358,73	1632,23
358,94	1671,14
359,15	1619,94
359,36	1716,20
359,57	1710,05
359,78	1734,63
359,99	1675,24
360,20	1681,38
360,41	1689,57
360,62	1783,78
360,83	1687,53
361,04	1714,15
361,25	1736,68
361,46	1841,12
361,67	1757,16
361,88	1701,86
362,09	1769,44
362,30	1705,96
362,51	1667,05
362,72	1689,57
362,93	1738,73
363,14	1691,62
363,35	1734,63
363,56	1640,42
363,78	1777,64
363,99	1775,59
364,20	1619,94
364,41	1765,35
364,62	1847,27
364,83	1720,29
365,04	1693,67
365,25	1693,67
365,46	1867,75
365,67	1632,23
365,88	1673,19
366,09	1751,01
366,30	1658,85
366,51	1693,67
366,72	1677,29
366,93	1697,77
367,14	1718,25
367,35	1841,12
367,56	1722,34
367,77	1746,92
367,98	1669,09
368,18	1685,48
368,39	1652,71
368,60	1638,38
368,81	1705,96
369,02	1767,40
369,23	1691,62
369,44	1705,96
369,65	1687,53
369,86	1693,67
370,07	1724,39
370,28	1683,43
370,49	1716,20
370,70	1722,34
370,91	1609,70
371,12	1669,09
371,33	1806,31
371,54	1701,86
371,75	1818,60
371,96	1613,80
372,17	1687,53
372,38	1603,56
372,59	1775,59
372,80	1712,10
373,01	1693,67
373,22	1685,48
373,43	1710,05
373,64	1589,22
373,85	1791,97
374,06	1888,23
374,26	1783,78
374,47	1730,53
374,68	1746,92
374,89	1662,95
375,10	1712,10
375,31	1681,38
375,52	1681,38
375,73	1757,16
375,94	1644,52
376,15	1837,03
376,36	1652,71
376,57	1701,86
376,78	1646,57
376,99	1726,44
377,20	1742,82
377,40	1636,33
377,61	1851,36
377,82	1685,48
378,03	1843,17
378,24	1755,11
378,45	1660,90
378,66	1695,72
378,87	1634,28
379,08	1644,52
379,29	1718,25
379,50	1841,12
379,71	1650,66
379,91	1724,39
380,12	1697,77
380,33	1791,97
380,54	1763,30
380,75	1658,85
380,96	1708,01
381,17	1796,07
381,38	1730,53
381,59	1738,73
381,80	1650,66
382,00	1845,22
382,21	1751,01
382,42	1857,51
382,63	1880,04
382,84	1757,16
383,05	1785,83
383,26	1808,36
383,47	1718,25
383,68	1781,73
383,88	1712,10
384,09	1783,78
384,30	1740,77
384,51	1781,73
384,72	1746,92
384,93	1642,47
385,14	1615,85
385,35	1761,25
385,55	1628,14
385,76	1751,01
385,97	1677,29
386,18	1691,62
386,39	1728,49
386,60	1751,01
386,81	1658,85
387,02	1642,47
387,22	1705,96
387,43	1753,06
387,64	1843,17
387,85	1834,98
388,06	2193,37
388,27	4151,23
388,48	6705,05
388,68	8304,51
388,89	9455,47
389,10	9813,87
389,31	8628,09
389,52	7440,27
389,73	6705,05
389,93	6322,08
390,14	5719,98
390,35	5183,41
390,56	4523,96
390,77	3807,17
390,98	3055,57
391,18	2459,61
391,39	2125,79
391,60	1898,47
391,81	1828,84
392,02	1697,77
392,23	1767,40
392,43	1720,29
392,64	1722,34
392,85	1677,29
393,06	1798,12
393,27	1695,72
393,47	1607,66
393,68	1755,11
393,89	1720,29
394,10	1806,31
394,31	1697,77
394,52	1703,91
394,72	1683,43
394,93	1847,27
395,14	1689,57
395,35	1746,92
395,56	1703,91
395,76	1759,21
395,97	1771,49
396,18	1822,69
396,39	1834,98
396,60	2009,06
396,80	1822,69
397,01	1834,98
397,22	1898,47
397,43	1816,55
397,64	1710,05
397,84	1816,55
398,05	1828,84
398,26	1685,48
398,47	1789,92
398,67	1783,78
398,88	1662,95
399,09	1796,07
399,30	1701,86
399,51	1740,77
399,71	1685,48
399,92	1673,19
400,13	1775,59
400,34	1687,53
400,54	1732,58
400,75	1787,88
400,96	1726,44
401,17	1816,55
401,37	1726,44
401,58	1794,02
401,79	1734,63
402,00	1892,32
402,21	1970,15
402,41	1918,95
402,62	1920,99
402,83	2033,63
403,04	1949,67
403,24	2060,26
403,45	1789,92
403,66	1947,62
403,87	1927,14
404,07	1910,75
404,28	1853,41
404,49	1939,43
404,70	1771,49
404,90	1828,84
405,11	1730,53
405,32	1812,45
405,52	1683,43
405,73	1656,81
405,94	1652,71
406,15	1697,77
406,35	1679,33
406,56	1730,53
406,77	1736,68
406,98	1751,01
407,18	1650,66
407,39	1718,25
407,60	1798,12
407,80	1771,49
408,01	1669,09
408,22	1748,97
408,43	1703,91
408,63	1755,11
408,84	1812,45
409,05	1736,68
409,25	1615,85
409,46	1724,39
409,67	1705,96
409,88	1662,95
410,08	1736,68
410,29	1681,38
410,50	1796,07
410,70	1720,29
410,91	1615,85
411,12	1787,88
411,32	1748,97
411,53	1677,29
411,74	1769,44
411,95	1722,34
412,15	1726,44
412,36	1712,10
412,57	1820,64
412,77	1810,40
412,98	1714,15
413,19	1726,44
413,39	1759,21
413,60	1728,49
413,81	1763,30
414,01	1630,18
414,22	1744,87
414,43	1755,11
414,63	1732,58
414,84	1683,43
415,05	1708,01
415,25	1634,28
415,46	1732,58
415,67	1677,29
415,87	1742,82
416,08	1767,40
416,29	1673,19
416,49	1705,96
416,70	1677,29
416,91	1740,77
417,11	1748,97
417,32	1751,01
417,53	1808,36
417,73	1746,92
417,94	1685,48
418,15	1746,92
418,35	1740,77
418,56	1718,25
418,77	1875,94
418,97	1726,44
419,18	1660,90
419,38	1673,19
419,59	1650,66
419,80	1730,53
420,00	1689,57
420,21	1726,44
420,42	1867,75
420,62	1669,09
420,83	1662,95
421,04	1687,53
421,24	1671,14
421,45	1728,49
421,65	1751,01
421,86	1687,53
422,07	1746,92
422,27	1755,11
422,48	1681,38
422,69	1630,18
422,89	1742,82
423,10	1712,10
423,30	1656,81
423,51	1769,44
423,72	1705,96
423,92	1710,05
424,13	1646,57
424,33	1660,90
424,54	1828,84
424,75	1675,24
424,95	1783,78
425,16	1810,40
425,36	1638,38
425,57	1726,44
425,78	1748,97
425,98	1773,54
426,19	1650,66
426,39	1667,05
426,60	1753,06
426,81	1775,59
427,01	1777,64
427,22	1632,23
427,42	1574,89
427,63	1673,19
427,83	1730,53
428,04	1740,77
428,25	1837,03
428,45	1720,29
428,66	1802,21
428,86	1722,34
429,07	1744,87
429,28	1738,73
429,48	1730,53
429,69	1652,71
429,89	1755,11
430,10	1632,23
430,30	1746,92
430,51	1755,11
430,71	1681,38
430,92	1718,25
431,13	1669,09
431,33	1722,34
431,54	1759,21
431,74	1775,59
431,95	1761,25
432,15	1669,09
432,36	1779,68
432,56	1812,45
432,77	1845,22
432,98	1865,70
433,18	1710,05
433,39	1744,87
433,59	1671,14
433,80	1834,98
434,00	1865,70
434,21	1626,09
434,41	1693,67
434,62	1914,85
434,82	1683,43
435,03	1615,85
435,23	1710,05
435,44	1601,51
435,64	1699,81
435,85	1718,25
436,06	1781,73
436,26	1775,59
436,47	1681,38
436,67	1691,62
436,88	1683,43
437,08	1724,39
437,29	1710,05
437,49	1771,49
437,70	1779,68
437,90	1697,77
438,11	1859,56
438,31	1716,20
438,52	1810,40
438,72	1839,08
438,93	1931,23
439,13	1753,06
439,34	1849,32
439,54	1763,30
439,75	1806,31
439,95	1812,45
440,16	1703,91
440,36	1708,01
440,57	1777,64
440,77	1806,31
440,98	1742,82
441,18	1787,88
441,39	1673,19
441,59	1691,62
441,80	1869,80
442,00	1740,77
442,21	1816,55
442,41	1656,81
442,62	1820,64
442,82	1679,33
443,02	1851,36
443,23	1748,97
443,43	1687,53
443,64	1751,01
443,84	1722,34
444,05	1837,03
444,25	1773,54
444,46	1638,38
444,66	1763,30
444,87	1755,11
445,07	1611,75
445,28	1726,44
445,48	1773,54
445,69	1732,58
445,89	1929,19
446,09	1742,82
446,30	1974,24
446,50	2598,87
446,71	3692,49
446,91	4270,01
447,12	4769,72
447,32	4917,17
447,53	4360,13
447,73	3860,42
447,93	3657,67
448,14	3295,18
448,34	3153,87
448,55	2844,63
448,75	2885,59
448,96	2703,32
449,16	2447,32
449,36	2310,11
449,57	2013,15
449,77	1927,14
449,98	1810,40
450,18	1853,41
450,39	1796,07
450,59	1787,88
450,79	1714,15
451,00	1669,09
451,20	1755,11
451,41	1767,40
451,61	1781,73
451,81	1779,68
452,02	1794,02
452,22	1671,14
452,43	1757,16
452,63	1679,33
452,84	1726,44
453,04	1738,73
453,24	1757,16
453,45	1675,24
453,65	1718,25
453,86	1751,01
454,06	1834,98
454,26	1765,35
454,47	1728,49
454,67	1716,20
454,87	1703,91
455,08	1728,49
455,28	1931,23
455,49	1724,39
455,69	1677,29
455,89	1875,94
456,10	1806,31
456,30	1712,10
456,51	1877,99
456,71	1722,34
456,91	1751,01
457,12	1732,58
457,32	1722,34
457,52	1640,42
457,73	1812,45
457,93	1769,44
458,14	1703,91
458,34	1636,33
458,54	1734,63
458,75	1732,58
458,95	1800,16
459,15	1726,44
459,36	1808,36
459,56	1789,92
459,76	1779,68
459,97	1765,35
460,17	1738,73
460,37	1837,03
460,58	1689,57
460,78	1798,12
460,99	1701,86
461,19	1734,63
461,39	1769,44
461,60	1736,68
461,80	1800,16
462,00	1705,96
462,21	1716,20
462,41	1658,85
462,61	1705,96
462,82	1591,27
463,02	1748,97
463,22	1763,30
463,43	1820,64
463,63	1730,53
463,83	1783,78
464,04	1742,82
464,24	1720,29
464,44	1671,14
464,64	1744,87
464,85	1755,11
465,05	1796,07
465,25	1763,30
465,46	1703,91
465,66	1761,25
465,86	1808,36
466,07	1693,67
466,27	1742,82
466,47	1671,14
466,68	1626,09
466,88	1742,82
467,08	1740,77
467,29	1722,34
467,49	1785,83
467,69	1697,77
467,89	1781,73
468,10	1689,57
468,30	1763,30
468,50	1847,27
468,71	1751,01
468,91	1667,05
469,11	1841,12
469,31	1757,16
469,52	1660,90
469,72	1798,12
469,92	1877,99
470,13	1771,49
470,33	1757,16
470,53	1847,27
470,73	2146,27
470,94	2340,83
471,14	2332,64
471,34	2535,39
471,54	2316,25
471,75	2226,14
471,95	2189,28
472,15	2043,87
472,36	2150,37
472,56	2101,22
472,76	2050,02
472,96	1980,39
473,17	1910,75
473,37	1806,31
473,57	1832,93
473,77	1816,55
473,98	1740,77
474,18	1695,72
474,38	1882,08
474,58	1746,92
474,79	1634,28
474,99	1812,45
475,19	1748,97
475,39	1691,62
475,60	1697,77
475,80	1726,44
476,00	1691,62
476,20	1681,38
476,41	1681,38
476,61	1812,45
476,81	1802,21
477,01	1611,75
477,21	1853,41
477,42	1853,41
477,62	1652,71
477,82	1814,50
478,02	1687,53
478,23	1763,30
478,43	1624,04
478,63	1806,31
478,83	1740,77
479,03	1695,72
479,24	1820,64
479,44	1859,56
479,64	1671,14
479,84	1595,37
480,04	1740,77
480,25	1755,11
480,45	1677,29
480,65	1722,34
480,85	1867,75
481,06	1644,52
481,26	1763,30
481,46	1783,78
481,66	1732,58
481,86	1693,67
482,06	1828,84
482,27	1714,15
482,47	1693,67
482,67	1814,50
482,87	1765,35
483,07	1710,05
483,28	1701,86
483,48	1744,87
483,68	1708,01
483,88	1650,66
484,08	1570,79
484,29	1624,04
484,49	1658,85
484,69	1665,00
484,89	1847,27
485,09	1699,81
485,29	1755,11
485,50	1769,44
485,70	1638,38
485,90	1839,08
486,10	1820,64
486,30	1781,73
486,50	1816,55
486,71	1710,05
486,91	1771,49
487,11	1767,40
487,31	1662,95
487,51	1732,58
487,71	1796,07
487,91	1662,95
488,12	1699,81
488,32	1669,09
488,52	1732,58
488,72	1583,08
488,92	1701,86
489,12	1779,68
489,32	1818,60
489,53	1755,11
489,73	1648,61
489,93	1816,55
490,13	1722,34
490,33	1701,86
490,53	1708,01
490,73	1777,64
490,94	1681,38
491,14	1787,88
491,34	1824,74
491,54	2172,89
491,74	2576,34
491,94	2942,93
492,14	3024,85
492,34	2996,18
492,54	2772,95
492,75	2461,66
492,95	2498,52
493,15	2291,68
493,35	2295,77
493,55	2291,68
493,75	2119,65
493,95	2131,94
494,15	2029,54
494,35	1937,38
494,56	1820,64
494,76	1755,11
494,96	1794,02
495,16	1800,16
495,36	1708,01
495,56	1841,12
495,76	1802,21
495,96	1816,55
496,16	1667,05
496,36	1847,27
496,56	1742,82
496,77	1812,45
496,97	1718,25
497,17	1853,41
497,37	1628,14
497,57	1769,44
497,77	1761,25
497,97	1673,19
498,17	1791,97
498,37	1714,15
498,57	1679,33
498,77	1755,11
498,97	1761,25
499,17	1877,99
499,38	1734,63
499,58	1712,10
499,78	1798,12
499,98	1765,35
500,18	1751,01
500,38	1726,44
500,58	1959,91
500,78	2639,83
500,98	4554,68
501,18	5914,53
501,38	6731,67
501,58	7135,12
501,78	6598,56
501,98	5466,03
502,18	4972,47
502,38	4499,39
502,58	4147,14
502,78	3772,36
502,98	3663,82
503,18	3497,93
503,38	3178,45
503,59	2840,53
503,79	2672,60
503,99	2484,19
504,19	2344,92
504,39	2215,90
504,59	2199,52
504,79	2127,84
504,99	2076,64
505,19	1890,28
505,39	1931,23
505,59	2011,11
505,79	1908,71
505,99	1798,12
506,19	1787,88
506,39	1859,56
506,59	1808,36
506,79	1759,21
506,99	1787,88
507,19	1724,39
507,39	1708,01
507,59	1697,77
507,79	1734,63
507,99	1732,58
508,19	1736,68
508,39	1665,00
508,59	1753,06
508,79	1855,46
508,99	1789,92
509,19	1611,75
509,39	1773,54
509,59	1744,87
509,79	1642,47
509,99	1810,40
510,19	1771,49
510,39	1818,60
510,59	1714,15
510,79	1751,01
510,99	1636,33
511,19	1730,53
511,39	1779,68
511,59	1779,68
511,79	1845,22
511,99	1714,15
512,19	1812,45
512,38	1691,62
512,58	1683,43
512,78	1689,57
512,98	1804,26
513,18	1832,93
513,38	1677,29
513,58	1779,68
513,78	1695,72
513,98	1718,25
514,18	1671,14
514,38	1710,05
514,58	1794,02
514,78	1681,38
514,98	1669,09
515,18	1689,57
515,38	1714,15
515,58	1875,94
515,78	1759,21
515,98	1730,53
516,18	1726,44
516,38	1779,68
516,57	1695,72
516,77	1660,90
516,97	1796,07
517,17	1683,43
517,37	1697,77
517,57	1779,68
517,77	1779,68
517,97	1648,61
518,17	1773,54
518,37	1757,16
518,57	1716,20
518,77	1716,20
518,97	1759,21
519,16	1877,99
519,36	1718,25
519,56	1699,81
519,76	1650,66
519,96	1677,29
520,16	1871,84
520,36	1730,53
520,56	1730,53
520,76	1708,01
520,96	1736,68
521,16	1814,50
521,35	1724,39
521,55	1777,64
521,75	1724,39
521,95	1710,05
522,15	1751,01
522,35	1609,70
522,55	1714,15
522,75	1796,07
522,95	1687,53
523,14	1662,95
523,34	1746,92
523,54	1683,43
523,74	1785,83
523,94	1775,59
524,14	1646,57
524,34	1726,44
524,54	1812,45
524,73	1714,15
524,93	1720,29
525,13	1755,11
525,33	1669,09
525,53	1822,69
525,73	1775,59
525,93	1685,48
526,13	1851,36
526,32	1794,02
526,52	1832,93
526,72	1806,31
526,92	1746,92
527,12	1650,66
527,32	1677,29
527,52	1796,07
527,71	1763,30
527,91	1781,73
528,11	1714,15
528,31	1759,21
528,51	1726,44
528,71	1820,64
528,90	1826,79
529,10	1843,17
529,30	1798,12
529,50	1665,00
529,70	1703,91
529,90	1656,81
530,09	1714,15
530,29	1603,56
530,49	1712,10
530,69	1880,04
530,89	1710,05
531,09	1816,55
531,28	1796,07
531,48	1839,08
531,68	1683,43
531,88	1724,39
532,08	1865,70
532,28	1681,38
532,47	1769,44
532,67	1796,07
532,87	1685,48
533,07	1642,47
533,27	1751,01
533,46	1718,25
533,66	1748,97
533,86	1726,44
534,06	1748,97
534,26	1720,29
534,45	1755,11
534,65	1832,93
534,85	1755,11
535,05	1767,40
535,25	1802,21
535,44	1695,72
535,64	1779,68
535,84	1712,10
536,04	1767,40
536,24	1681,38
536,43	1738,73
536,63	1726,44
536,83	1810,40
537,03	1710,05
537,22	1736,68
537,42	1701,86
537,62	1724,39
537,82	1730,53
538,02	1845,22
538,21	1775,59
538,41	1935,33
538,61	1785,83
538,81	1767,40
539,00	1765,35
539,20	1695,72
539,40	1779,68
539,60	1822,69
539,79	1804,26
539,99	1701,86
540,19	1748,97
540,39	1722,34
540,58	1783,78
540,78	1753,06
540,98	1765,35
541,18	1728,49
541,37	1730,53
541,57	1705,96
541,77	1767,40
541,97	1693,67
542,16	1646,57
542,36	1718,25
542,56	1837,03
542,76	1892,32
542,95	1767,40
543,15	1800,16
543,35	1828,84
543,54	1738,73
543,74	1734,63
543,94	1841,12
544,14	1742,82
544,33	1763,30
544,53	1736,68
544,73	1730,53
544,93	1710,05
545,12	1759,21
545,32	1730,53
545,52	1710,05
545,71	1683,43
545,91	1689,57
546,11	1755,11
546,30	1718,25
546,50	1726,44
546,70	1816,55
546,90	1732,58
547,09	1638,38
547,29	1726,44
547,49	1804,26
547,68	1751,01
547,88	1730,53
548,08	1826,79
548,27	2168,80
548,47	1703,91
548,67	1773,54
548,87	1736,68
549,06	1689,57
549,26	1814,50
549,46	1800,16
549,65	1710,05
549,85	1800,16
550,05	1765,35
550,24	1728,49
550,44	1755,11
550,64	1734,63
550,83	1738,73
551,03	1767,40
551,23	1763,30
551,42	1767,40
551,62	1753,06
551,82	1699,81
552,01	1705,96
552,21	1802,21
552,41	1703,91
552,60	1853,41
552,80	1757,16
553,00	1732,58
553,19	1789,92
553,39	1851,36
553,59	1689,57
553,78	1798,12
553,98	1740,77
554,17	1669,09
554,37	1806,31
554,57	1814,50
554,76	1724,39
554,96	1847,27
555,16	1763,30
555,35	1654,76
555,55	1748,97
555,75	1699,81
555,94	1806,31
556,14	1734,63
556,33	1763,30
556,53	1853,41
556,73	1808,36
556,92	1779,68
557,12	1781,73
557,32	1865,70
557,51	1779,68
557,71	1794,02
557,90	1798,12
558,10	1855,46
558,30	1757,16
558,49	1724,39
558,69	1695,72
558,88	1757,16
559,08	1763,30
559,28	1753,06
559,47	1828,84
559,67	1730,53
559,86	1804,26
560,06	1789,92
560,26	1718,25
560,45	1845,22
560,65	1763,30
560,84	1826,79
561,04	1703,91
561,24	1734,63
561,43	1765,35
561,63	1794,02
561,82	1736,68
562,02	1789,92
562,22	1769,44
562,41	1658,85
562,61	1728,49
562,80	1708,01
563,00	1937,38
563,19	1847,27
563,39	1783,78
563,59	1785,83
563,78	1746,92
563,98	1701,86
564,17	1714,15
564,37	1593,32
564,56	1724,39
564,76	1685,48
564,96	1837,03
565,15	1830,88
565,35	1937,38
565,54	1691,62
565,74	1763,30
565,93	1718,25
566,13	1705,96
566,32	1822,69
566,52	1820,64
566,71	1783,78
566,91	1828,84
567,11	1740,77
567,30	1755,11
567,50	1837,03
567,69	1773,54
567,89	1738,73
568,08	1724,39
568,28	1777,64
568,47	1742,82
568,67	1744,87
568,86	1740,77
569,06	1783,78
569,25	1708,01
569,45	1683,43
569,64	1714,15
569,84	1687,53
570,04	1765,35
570,23	1677,29
570,43	1679,33
570,62	1785,83
570,82	1888,23
571,01	1716,20
571,21	1722,34
571,40	1712,10
571,60	1822,69
571,79	1759,21
571,99	1822,69
572,18	1734,63
572,38	1765,35
572,57	1757,16
572,77	1802,21
572,96	1865,70
573,16	1771,49
573,35	1648,61
573,55	1830,88
573,74	1841,12
573,94	1652,71
574,13	1775,59
574,33	1779,68
574,52	1765,35
574,71	1726,44
574,91	1751,01
575,10	1681,38
575,30	1761,25
575,49	1675,24
575,69	1658,85
575,88	1779,68
576,08	1714,15
576,27	1804,26
576,47	1644,52
576,66	1787,88
576,86	1751,01
577,05	1800,16
577,25	1714,15
577,44	1877,99
577,64	1718,25
577,83	1843,17
578,02	1804,26
578,22	1759,21
578,41	1867,75
578,61	1816,55
578,80	1601,51
579,00	1775,59
579,19	1787,88
579,39	1771,49
579,58	1775,59
579,77	1736,68
579,97	1773,54
580,16	1816,55
580,36	1814,50
580,55	1779,68
580,75	1812,45
580,94	1730,53
581,13	1914,85
581,33	1816,55
581,52	1667,05
581,72	1843,17
581,91	1853,41
582,11	1734,63
582,30	1771,49
582,49	1681,38
582,69	1837,03
582,88	1751,01
583,08	1759,21
583,27	1830,88
583,47	1796,07
583,66	1757,16
583,85	1763,30
584,05	1714,15
584,24	1789,92
584,44	1828,84
584,63	1824,74
584,82	1814,50
585,02	1880,04
585,21	1820,64
585,41	1818,60
585,60	1798,12
585,79	1902,56
585,99	1951,71
586,18	1916,90
586,37	2203,61
586,57	3416,01
586,76	9971,56
586,96	24338,06
587,15	34274,80
587,34	40172,96
587,54	41676,16
587,73	36468,18
587,93	26224,24
588,12	21388,99
588,31	18083,56
588,51	16307,98
588,70	15101,72
588,89	14135,08
589,09	12599,10
589,28	10942,30
589,47	9531,25
589,67	7837,58
589,86	6285,22
590,06	5048,24
590,25	3901,38
590,44	3121,10
590,64	2654,17
590,83	2232,29
591,02	2238,43
591,22	1939,43
591,41	1920,99
591,60	1861,60
591,80	2033,63
591,99	1812,45
592,18	1757,16
592,38	1912,80
592,57	1748,97
592,76	1701,86
592,96	1839,08
593,15	1824,74
593,34	1812,45
593,54	1746,92
593,73	1791,97
593,92	1771,49
594,12	1701,86
594,31	1775,59
594,50	1779,68
594,70	1853,41
594,89	1939,43
595,08	1671,14
595,28	1808,36
595,47	1898,47
595,66	1773,54
595,86	1746,92
596,05	1708,01
596,24	1804,26
596,43	1882,08
596,63	1849,32
596,82	1710,05
597,01	1849,32
597,21	1804,26
597,40	1841,12
597,59	1742,82
597,79	1763,30
597,98	1789,92
598,17	1718,25
598,36	1681,38
598,56	1759,21
598,75	1724,39
598,94	1751,01
599,14	1773,54
599,33	1687,53
599,52	1802,21
599,71	1781,73
599,91	1808,36
600,10	1773,54
600,29	1798,12
600,48	1845,22
600,68	1812,45
600,87	1781,73
601,06	1667,05
601,26	1755,11
601,45	1839,08
601,64	1742,82
601,83	1834,98
602,03	1726,44
602,22	1656,81
602,41	1814,50
602,60	1884,13
602,80	1798,12
602,99	1798,12
603,18	1687,53
603,37	1812,45
603,57	1781,73
603,76	1751,01
603,95	1794,02
604,14	1824,74
604,34	1714,15
604,53	1753,06
604,72	1791,97
604,91	1775,59
605,10	1794,02
605,30	1617,90
605,49	1912,80
605,68	1732,58
605,87	1710,05
606,07	1724,39
606,26	1771,49
606,45	1759,21
606,64	1757,16
606,84	1777,64
607,03	1728,49
607,22	1775,59
607,41	1624,04
607,60	1740,77
607,80	1759,21
607,99	1718,25
608,18	1767,40
608,37	1722,34
608,56	1650,66
608,76	1746,92
608,95	1863,65
609,14	1730,53
609,33	1763,30
609,52	1734,63
609,72	1742,82
609,91	1812,45
610,10	1820,64
610,29	1824,74
610,48	1814,50
610,68	1732,58
610,87	1720,29
611,06	1755,11
611,25	1744,87
611,44	1845,22
611,63	1742,82
611,83	1724,39
612,02	1652,71
612,21	1802,21
612,40	1658,85
612,59	1648,61
612,79	1736,68
612,98	1724,39
613,17	1763,30
613,36	1779,68
613,55	1802,21
613,74	1665,00
613,93	1693,67
614,13	1761,25
614,32	1703,91
614,51	1781,73
614,70	1720,29
614,89	1714,15
615,08	1751,01
615,28	2111,46
615,47	1646,57
615,66	1685,48
615,85	1705,96
616,04	1806,31
616,23	1802,21
616,42	1789,92
616,62	1800,16
616,81	1734,63
617,00	1742,82
617,19	1904,61
617,38	1734,63
617,57	1781,73
617,76	1783,78
617,95	1757,16
618,15	1773,54
618,34	1849,32
618,53	1617,90
618,72	1853,41
618,91	1816,55
619,10	1796,07
619,29	1701,86
619,48	1802,21
619,68	1744,87
619,87	1691,62
620,06	1628,14
620,25	1779,68
620,44	1757,16
620,63	1685,48
620,82	1665,00
621,01	1773,54
621,20	1787,88
621,39	1736,68
621,59	1779,68
621,78	1705,96
621,97	1648,61
622,16	1708,01
622,35	1687,53
622,54	1755,11
622,73	1791,97
622,92	1693,67
623,11	1763,30
623,30	1748,97
623,49	1742,82
623,68	1689,57
623,88	1779,68
624,07	1654,76
624,26	1685,48
624,45	1730,53
624,64	1640,42
624,83	1681,38
625,02	1699,81
625,21	1744,87
625,40	1697,77
625,59	1812,45
625,78	1755,11
625,97	1841,12
626,16	1716,20
626,35	1759,21
626,54	1693,67
626,74	1873,89
626,93	1718,25
627,12	1699,81
627,31	1775,59
627,50	1736,68
627,69	1746,92
627,88	1716,20
628,07	1714,15
628,26	1609,70
628,45	1710,05
628,64	1673,19
628,83	1759,21
629,02	1705,96
629,21	1742,82
629,40	1751,01
629,59	1714,15
629,78	1738,73
629,97	1796,07
630,16	1710,05
630,35	1751,01
630,54	1765,35
630,73	1695,72
630,92	1736,68
631,11	1648,61
631,30	1779,68
631,49	1724,39
631,68	1703,91
631,87	1775,59
632,06	1654,76
632,25	1957,86
632,44	1689,57
632,63	1726,44
632,82	1656,81
633,01	1712,10
633,20	1695,72
633,39	1662,95
633,58	1652,71
633,77	1718,25
633,96	1722,34
634,15	1740,77
634,34	1677,29
634,53	1767,40
634,72	1703,91
634,91	1609,70
635,10	1767,40
635,29	1712,10
635,48	1705,96
635,67	1673,19
635,86	1615,85
636,05	1832,93
636,24	1652,71
636,43	1763,30
636,62	1804,26
636,81	1607,66
637,00	1718,25
637,19	1759,21
637,38	1681,38
637,57	1679,33
637,76	1746,92
637,95	1757,16
638,14	1751,01
638,33	1755,11
638,52	1697,77
638,71	1689,57
638,89	1632,23
639,08	1787,88
639,27	1781,73
639,46	1687,53
639,65	1796,07
639,84	1748,97
640,03	1773,54
640,22	1767,40
640,41	1828,84
640,60	1744,87
640,79	1759,21
640,98	1746,92
641,17	1800,16
641,36	1757,16
641,55	1748,97
641,74	1701,86
641,92	1751,01
642,11	1705,96
642,30	1699,81
642,49	1650,66
642,68	1671,14
642,87	1712,10
643,06	1767,40
643,25	1636,33
643,44	1671,14
643,63	1697,77
643,82	1804,26
644,00	1710,05
644,19	1703,91
644,38	1638,38
644,57	1751,01
644,76	1740,77
644,95	1718,25
645,14	1705,96
645,33	1705,96
645,52	1806,31
645,71	1669,09
645,89	1628,14
646,08	1732,58
646,27	1710,05
646,46	1871,84
646,65	1634,28
646,84	1746,92
647,03	1644,52
647,22	1877,99
647,40	1759,21
647,59	1630,18
647,78	1611,75
647,97	1765,35
648,16	1673,19
648,35	1859,56
648,54	1796,07
648,73	1658,85
648,91	1734,63
649,10	1683,43
649,29	1673,19
649,48	1736,68
649,67	1775,59
649,86	1751,01
650,05	1695,72
650,23	1783,78
650,42	1648,61
650,61	1802,21
650,80	1714,15
650,99	1873,89
651,18	1837,03
651,36	1730,53
651,55	1708,01
651,74	1771,49
651,93	1628,14
652,12	1669,09
652,31	1685,48
652,49	1722,34
652,68	1746,92
652,87	1798,12
653,06	1710,05
653,25	1900,52
653,44	1718,25
653,62	1877,99
653,81	1691,62
654,00	1703,91
654,19	1771,49
654,38	1882,08
654,56	1708,01
654,75	1722,34
654,94	1714,15
655,13	1691,62
655,32	1720,29
655,51	1742,82
655,69	1699,81
655,88	1808,36
656,07	1677,29
656,26	1755,11
656,45	1673,19
656,63	1677,29
656,82	1683,43
657,01	1824,74
657,20	1644,52
657,38	1855,46
657,57	1759,21
657,76	1677,29
657,95	1716,20
658,14	1705,96
658,32	1685,48
658,51	1648,61
658,70	1669,09
658,89	1726,44
659,08	1730,53
659,26	1855,46
659,45	1626,09
659,64	1734,63
659,83	1705,96
660,01	1902,56
660,20	1683,43
660,39	1789,92
660,58	1613,80
660,76	1781,73
660,95	1646,57
661,14	1656,81
661,33	1632,23
661,51	1691,62
661,70	1634,28
661,89	1697,77
662,08	1802,21
662,26	1658,85
662,45	1599,46
662,64	1728,49
662,83	1720,29
663,01	1673,19
663,20	1685,48
663,39	1810,40
663,58	1757,16
663,76	1742,82
663,95	1773,54
664,14	1665,00
664,32	1673,19
664,51	1697,77
664,70	1636,33
664,89	1800,16
665,07	1687,53
665,26	1781,73
665,45	1697,77
665,64	1767,40
665,82	1794,02
666,01	1886,18
666,20	1728,49
666,38	1746,92
666,57	1834,98
666,76	2168,80
666,95	4536,25
667,13	10354,53
667,32	15345,43
667,51	17667,83
667,69	19158,75
667,88	17700,59
668,07	12314,44
668,25	9647,98
668,44	8005,51
668,63	7432,08
668,81	6823,83
669,00	6254,50
669,19	5732,26
669,38	5085,11
669,56	4526,01
669,75	3917,76
669,94	3493,83
670,12	2977,75
670,31	2467,80
670,50	2310,11
670,68	2052,06
670,87	1925,09
671,06	1812,45
671,24	1734,63
671,43	1769,44
671,62	1732,58
671,80	1695,72
671,99	1710,05
672,18	1675,24
672,36	1771,49
672,55	1748,97
672,74	1732,58
672,92	1689,57
673,11	1722,34
673,29	1744,87
673,48	1855,46
673,67	1714,15
673,85	1724,39
674,04	1714,15
674,23	1699,81
674,41	1791,97
674,60	1689,57
674,79	1609,70
674,97	1714,15
675,16	1808,36
675,34	1851,36
675,53	1638,38
675,72	1816,55
675,90	1890,28
676,09	1652,71
676,28	1681,38
676,46	1644,52
676,65	1828,84
676,83	1681,38
677,02	1755,11
677,21	1703,91
677,39	1748,97
677,58	1656,81
677,77	1693,67
677,95	1626,09
678,14	1679,33
678,32	1728,49
678,51	1597,42
678,70	1908,71
678,88	1648,61
679,07	1734,63
679,25	1697,77
679,44	1755,11
679,63	1632,23
679,81	1638,38
680,00	1794,02
680,18	1755,11
680,37	1722,34
680,55	1783,78
680,74	1648,61
680,93	1634,28
681,11	1730,53
681,30	1740,77
681,48	1732,58
681,67	1669,09
681,85	1720,29
682,04	1687,53
682,23	1744,87
682,41	1738,73
682,60	1687,53
682,78	1687,53
682,97	1705,96
683,15	1689,57
683,34	1705,96
683,53	1751,01
683,71	1701,86
683,90	1794,02
684,08	1828,84
684,27	1658,85
684,45	1730,53
684,64	1732,58
684,82	1763,30
685,01	1746,92
685,19	1662,95
685,38	1767,40
685,57	1724,39
685,75	1656,81
685,94	1669,09
686,12	1632,23
686,31	1638,38
686,49	1816,55
686,68	1658,85
686,86	1695,72
687,05	1703,91
687,23	1771,49
687,42	1689,57
687,60	1621,99
687,79	1822,69
687,97	1806,31
688,16	1794,02
688,34	1777,64
688,53	1638,38
688,71	1710,05
688,90	1779,68
689,08	1724,39
689,27	1658,85
689,45	1685,48
689,64	1791,97
689,82	1697,77
690,01	1765,35
690,19	1751,01
690,38	1718,25
690,56	1802,21
690,75	1669,09
690,93	1705,96
691,12	1689,57
691,30	1689,57
691,49	1691,62
691,67	1740,77
691,86	1755,11
692,04	1724,39
692,23	1732,58
692,41	1626,09
692,60	1810,40
692,78	1804,26
692,97	1791,97
693,15	1755,11
693,34	1806,31
693,52	1796,07
693,71	1642,47
693,89	1632,23
694,08	1660,90
694,26	1763,30
694,44	1712,10
694,63	1757,16
694,81	1718,25
695,00	1640,42
695,18	1841,12
695,37	1800,16
695,55	1779,68
695,74	1699,81
695,92	1648,61
696,10	1777,64
696,29	1660,90
696,47	1740,77
696,66	1675,24
696,84	1652,71
697,03	1687,53
697,21	1863,65
697,40	2408,41
697,58	1789,92
697,76	1693,67
697,95	1687,53
698,13	1654,76
698,32	1628,14
698,50	1705,96
698,68	1710,05
698,87	1748,97
699,05	1751,01
699,24	1746,92
699,42	1730,53
699,61	1705,96
699,79	1740,77
699,97	1734,63
700,16	1630,18
700,34	1609,70
700,53	1718,25
700,71	1796,07
700,89	1708,01
701,08	1712,10
701,26	1675,24
701,45	2047,97
701,63	1701,86
701,81	1697,77
702,00	1611,75
702,18	1728,49
702,37	1681,38
702,55	1679,33
702,73	1722,34
702,92	1667,05
703,10	1802,21
703,28	1775,59
703,47	1656,81
703,65	1789,92
703,84	1773,54
704,02	1755,11
704,20	1865,70
704,39	1734,63
704,57	1648,61
704,75	1753,06
704,94	1789,92
705,12	1697,77
705,30	1789,92
705,49	2295,77
705,67	4394,94
705,86	9295,73
706,04	12402,50
706,22	14331,69
706,41	15216,41
706,59	13801,26
706,77	9535,34
706,96	7278,48
707,14	6592,41
707,32	5930,92
707,51	5459,88
707,69	4888,50
707,87	4145,09
708,06	3504,07
708,24	2996,18
708,42	2396,12
708,61	2291,68
708,79	1882,08
708,97	1853,41
709,16	1843,17
709,34	1753,06
709,52	1740,77
709,71	1751,01
709,89	1773,54
710,07	1724,39
710,26	1695,72
710,44	1718,25
710,62	1718,25
710,80	1746,92
710,99	1763,30
711,17	1730,53
711,35	1705,96
711,54	1683,43
711,72	1763,30
711,90	1771,49
712,09	1755,11
712,27	1689,57
712,45	1791,97
712,63	1755,11
712,82	1714,15
713,00	1751,01
713,18	1726,44
713,37	1841,12
713,55	1773,54
713,73	1785,83
713,91	1804,26
714,10	1681,38
714,28	1718,25
714,46	1691,62
714,65	1718,25
714,83	1775,59
715,01	1710,05
715,19	1714,15
715,38	1669,09
715,56	1716,20
715,74	1636,33
715,92	1646,57
716,11	1814,50
716,29	1615,85
716,47	1708,01
716,65	1755,11
716,84	1683,43
717,02	1708,01
717,20	1601,51
717,38	1722,34
717,57	1771,49
717,75	1679,33
717,93	1685,48
718,11	1755,11
718,30	1581,03
718,48	1744,87
718,66	1722,34
718,84	1742,82
719,03	1693,67
719,21	1675,24
719,39	1734,63
719,57	1746,92
719,75	1779,68
719,94	1671,14
720,12	1763,30
720,30	1789,92
720,48	1714,15
720,67	1595,37
720,85	1650,66
721,03	1763,30
721,21	1673,19
721,39	1777,64
721,58	1730,53
721,76	1708,01
721,94	1789,92
722,12	1755,11
722,30	1796,07
722,49	1734,63
722,67	1740,77
722,85	1769,44
723,03	1650,66
723,21	1675,24
723,40	1710,05
723,58	1738,73
723,76	1669,09
723,94	1787,88
724,12	1738,73
724,30	1853,41
724,49	1816,55
724,67	1646,57
724,85	1763,30
725,03	1667,05
725,21	1728,49
725,40	1787,88
725,58	1712,10
725,76	1814,50
725,94	1712,10
726,12	1757,16
726,30	1789,92
726,49	1716,20
726,67	1701,86
726,85	1703,91
727,03	1771,49
727,21	2215,90
727,39	2922,45
727,57	3676,10
727,76	4220,86
727,94	4440,00
728,12	4448,19
728,30	3631,05
728,48	2961,36
728,66	2822,10
728,84	2596,82
729,03	2310,11
729,21	2127,84
729,39	1966,05
729,57	1841,12
729,75	1804,26
729,93	1882,08
730,11	1705,96
730,30	1716,20
730,48	1691,62
730,66	1755,11
730,84	1767,40
731,02	1687,53
731,20	1710,05
731,38	1755,11
731,56	1607,66
731,74	1720,29
731,93	1693,67
732,11	1681,38
732,29	1658,85
732,47	1730,53
732,65	1681,38
732,83	1773,54
733,01	1769,44
733,19	1685,48
733,37	1699,81
733,56	1748,97
733,74	1705,96
733,92	1796,07
734,10	1769,44
734,28	1763,30
734,46	1665,00
734,64	1755,11
734,82	1798,12
735,00	1710,05
735,18	1652,71
735,36	1699,81
735,54	1646,57
735,73	1716,20
735,91	1738,73
736,09	1744,87
736,27	1755,11
736,45	1773,54
736,63	1611,75
736,81	1744,87
736,99	1798,12
737,17	1773,54
737,35	1687,53
737,53	1699,81
737,71	1785,83
737,89	1714,15
738,07	1621,99
738,25	1673,19
738,43	1601,51
738,61	1697,77
738,80	1699,81
738,98	1726,44
739,16	1742,82
739,34	1603,56
739,52	1857,51
739,70	1695,72
739,88	1740,77
740,06	1728,49
740,24	1669,09
740,42	1810,40
740,60	1658,85
740,78	1701,86
740,96	1685,48
741,14	1683,43
741,32	1789,92
741,50	1675,24
741,68	1855,46
741,86	1767,40
742,04	1656,81
742,22	1748,97
742,40	1642,47
742,58	1859,56
742,76	1648,61
742,94	1730,53
743,12	1581,03
743,30	1712,10
743,48	1685,48
743,66	1757,16
743,84	1730,53
744,02	1669,09
744,20	1662,95
744,38	1701,86
744,56	1693,67
744,74	1785,83
744,92	1677,29
745,10	1748,97
745,28	1755,11
745,46	1767,40
745,64	1742,82
745,82	1718,25
746,00	1662,95
746,18	1791,97
746,36	1656,81
746,54	1763,30
746,72	1617,90
746,90	1634,28
747,08	1845,22
747,26	1736,68
747,44	1679,33
747,62	1820,64
747,80	1755,11
747,98	1740,77
748,15	1722,34
748,33	1802,21
748,51	1673,19
748,69	1683,43
748,87	1624,04
749,05	1667,05
749,23	1738,73
749,41	1738,73
749,59	1703,91
749,77	1773,54
749,95	1740,77
750,13	1626,09
750,31	1761,25
750,49	1701,86
750,67	1820,64
750,85	1824,74
751,03	1845,22
751,20	1800,16
751,38	1718,25
751,56	1677,29
751,74	1667,05
751,92	1669,09
752,10	1705,96
752,28	1773,54
752,46	1650,66
752,64	1738,73
752,82	1748,97
753,00	1800,16
753,18	1675,24
753,35	1689,57
753,53	1640,42
753,71	1640,42
753,89	1798,12
754,07	1654,76
754,25	1798,12
754,43	1695,72
754,61	1632,23
754,79	1705,96
754,97	1642,47
755,14	1732,58
755,32	1578,98
755,50	1781,73
755,68	1783,78
755,86	1648,61
756,04	1673,19
756,22	1646,57
756,40	1751,01
756,57	1787,88
756,75	1634,28
756,93	1744,87
757,11	1804,26
757,29	1726,44
757,47	1640,42
757,65	1624,04
757,82	1609,70
758,00	1691,62
758,18	1660,90
758,36	1687,53
758,54	1740,77
758,72	1609,70
758,90	1796,07
759,07	1740,77
759,25	1671,14
759,43	1734,63
759,61	1656,81
759,79	2181,09
759,97	1708,01
760,15	1673,19
760,32	1724,39
760,50	1667,05
760,68	1806,31
760,86	1646,57
761,04	1775,59
761,22	1746,92
761,39	1736,68
761,57	1673,19
761,75	1673,19
761,93	1724,39
762,11	1695,72
762,28	1724,39
762,46	1652,71
762,64	1857,51
762,82	1638,38
763,00	1710,05
763,18	1796,07
763,35	1667,05
763,53	1718,25
763,71	1800,16
763,89	1705,96
764,07	1744,87
764,24	1734,63
764,42	1789,92
764,60	1722,34
764,78	1769,44
764,96	1779,68
765,13	1691,62
765,31	1685,48
765,49	1773,54
765,67	1646,57
765,84	1632,23
766,02	1697,77
766,20	1589,22
766,38	1765,35
766,56	1744,87
766,73	1763,30
766,91	1701,86
767,09	1656,81
767,27	1787,88
767,44	1697,77
767,62	1738,73
767,80	1703,91
767,98	1675,24
768,15	1710,05
768,33	1791,97
768,51	1822,69
768,69	1783,78
768,87	1714,15
769,04	1679,33
769,22	1863,65
769,40	1808,36
769,58	1853,41
769,75	1757,16
769,93	1755,11
770,11	1681,38
770,28	1667,05
770,46	1718,25
770,64	1691,62
770,82	1662,95
770,99	1705,96
771,17	1779,68
771,35	1689,57
771,53	1718,25
771,70	1662,95
771,88	1732,58
772,06	1658,85
772,23	1636,33
772,41	1771,49
772,59	1652,71
772,77	1654,76
772,94	1667,05
773,12	1736,68
773,30	1689,57
773,47	1724,39
773,65	1673,19
773,83	1822,69
774,01	1728,49
774,18	1667,05
774,36	1753,06
774,54	1568,74
774,71	1705,96
774,89	1701,86
775,07	1615,85
775,24	1687,53
775,42	1794,02
775,60	1796,07
775,78	1644,52
775,95	1679,33
776,13	1591,27
776,31	1505,26
776,48	1714,15
776,66	1789,92
776,84	1718,25
777,01	1601,51
777,19	1703,91
777,37	1685,48
777,54	1791,97
777,72	1787,88
777,90	1757,16
778,07	1667,05
778,25	1920,99
778,43	1828,84
778,60	1722,34
778,78	1681,38
778,96	1757,16
779,13	1648,61
779,31	1730,53
779,49	1697,77
779,66	1683,43
779,84	1746,92
780,01	1705,96
780,19	1705,96
780,37	1724,39
780,54	1775,59
780,72	1648,61
780,90	1755,11
781,07	1703,91
781,25	1701,86
781,43	1691,62
781,60	1767,40
781,78	1722,34
781,95	1665,00
782,13	1669,09
782,31	1779,68
782,48	1626,09
782,66	1759,21
782,83	1871,84
783,01	1648,61
783,19	1781,73
783,36	1691,62
783,54	1685,48
783,72	1748,97
783,89	1671,14
784,07	1742,82
784,24	1708,01
784,42	1787,88
784,60	1675,24
784,77	1771,49
784,95	1628,14
785,12	1697,77
785,30	1689,57
785,47	1695,72
785,65	1646,57
785,83	1718,25
786,00	1669,09
786,18	1718,25
786,35	1669,09
786,53	1716,20
786,71	1759,21
786,88	1845,22
787,06	1689,57
787,23	1675,24
787,41	1611,75
787,58	1660,90
787,76	1607,66
787,94	1699,81
788,11	1658,85
788,29	1724,39
788,46	1660,90
788,64	1630,18
788,81	1687,53
788,99	1740,77
789,16	1683,43
789,34	1689,57
789,52	1621,99
789,69	1697,77
789,87	1546,22
790,04	1736,68
790,22	1740,77
790,39	1867,75
790,57	1695,72
790,74	1665,00
790,92	1769,44
791,09	1597,42
791,27	1787,88
791,44	1724,39
791,62	1644,52
791,79	1800,16
791,97	1714,15
792,15	1882,08
792,32	1769,44
792,50	1681,38
792,67	1804,26
792,85	1746,92
793,02	1722,34
793,20	1787,88
793,37	1642,47
793,55	1695,72
793,72	1681,38
793,90	1759,21
794,07	1683,43
794,25	1642,47
794,42	1697,77
794,60	1710,05
794,77	1751,01
794,95	1697,77
795,12	1834,98
795,30	1710,05
795,47	1585,13
795,65	1843,17
795,82	1753,06
796,00	1636,33
796,17	1693,67
796,34	1744,87
796,52	1726,44
796,69	1726,44
796,87	1734,63
797,04	1755,11
797,22	1703,91
797,39	1740,77
797,57	1730,53
797,74	1714,15
797,92	1769,44
798,09	1681,38
798,27	1759,21
798,44	1753,06
798,62	1656,81
798,79	1734,63
798,96	1695,72
799,14	1660,90
799,31	1814,50
799,49	1755,11
799,66	1621,99
799,84	1746,92
800,01	1607,66
800,19	1681,38
800,36	1605,61
800,53	1710,05
800,71	1798,12
800,88	1753,06
801,06	1662,95
801,23	1712,10
801,41	1734,63
801,58	1720,29
801,75	1621,99
801,93	1746,92
802,10	1660,90
802,28	1683,43
802,45	1646,57
802,63	1789,92
802,80	1832,93
802,97	1626,09
803,15	1628,14
803,32	1697,77
803,50	1615,85
803,67	1624,04
803,84	1652,71
804,02	1703,91
804,19	1724,39
804,37	1509,35
804,54	1617,90
804,71	1722,34
804,89	1673,19
805,06	1683,43
805,24	1689,57
805,41	1574,89
805,58	1720,29
805,76	1757,16
805,93	1679,33
806,10	1796,07
806,28	1742,82
806,45	1708,01
806,63	1736,68
806,80	1716,20
806,97	1677,29
807,15	1724,39
807,32	1736,68
807,49	1693,67
807,67	1665,00
807,84	1763,30
808,01	1665,00
808,19	1837,03
808,36	1839,08
808,54	1724,39
808,71	1648,61
808,88	1683,43
809,06	1763,30
809,23	1763,30
809,40	1591,27
809,58	1755,11
809,75	1767,40
809,92	1736,68
810,10	1830,88
810,27	1679,33
810,44	1697,77
810,62	1851,36
810,79	1767,40
810,96	1626,09
811,14	1671,14
811,31	1722,34
811,48	1753,06
811,66	1632,23
811,83	1759,21
812,00	1759,21
812,18	1759,21
812,35	1834,98
812,52	1695,72
812,69	1648,61
812,87	1613,80
813,04	1689,57
813,21	1718,25
813,39	1650,66
813,56	1652,71
813,73	1851,36
813,91	1734,63
814,08	1626,09
814,25	1677,29
814,42	1603,56
814,60	1679,33
814,77	1681,38
814,94	1722,34
815,12	1779,68
815,29	1748,97
815,46	1748,97
815,63	1703,91
815,81	1626,09
815,98	1738,73
816,15	1746,92
816,33	1683,43
816,50	1726,44
816,67	1757,16
816,84	1753,06
817,02	1677,29
817,19	1679,33
817,36	1748,97
817,53	1787,88
817,71	1742,82
817,88	1804,26
818,05	1691,62
818,22	1701,86
818,40	1748,97
818,57	1679,33
818,74	1734,63
818,91	1619,94
819,09	1765,35
819,26	1828,84
819,43	1675,24
819,60	1699,81
819,78	1742,82
819,95	1789,92
820,12	1597,42
820,29	1791,97
820,47	1871,84
820,64	1644,52
820,81	1646,57
820,98	1683,43
821,15	1648,61
821,33	1798,12
821,50	1578,98
821,67	1726,44
821,84	1708,01
822,02	1658,85
822,19	1798,12
822,36	1718,25
822,53	1732,58
822,70	1640,42
822,88	1673,19
823,05	1824,74
823,22	1742,82
823,39	1730,53
823,56	1624,04
823,74	1746,92
823,91	1644,52
824,08	1691,62
824,25	1617,90
824,42	1814,50
824,60	1581,03
824,77	1714,15
824,94	1638,38
825,11	1726,44
825,28	1595,37
825,45	1718,25
825,63	1724,39
825,80	1732,58
825,97	1740,77
826,14	1728,49
826,31	1691,62
826,48	1724,39
826,66	1667,05
826,83	1757,16
827,00	1769,44
827,17	1667,05
827,34	1689,57
827,51	1705,96
827,69	1716,20
827,86	1652,71
828,03	1712,10
828,20	1724,39
828,37	1710,05
828,54	1703,91
828,71	1656,81
828,89	1765,35
829,06	1703,91
829,23	1757,16
829,40	1685,48
829,57	1755,11
829,74	1785,83
829,91	1613,80
830,09	1724,39
830,26	1722,34
830,43	1777,64
830,60	1673,19
830,77	1732,58
830,94	1746,92
831,11	1789,92
831,28	1744,87
831,46	1794,02
831,63	1673,19
831,80	1681,38
831,97	1660,90
832,14	1648,61
832,31	1712,10
832,48	1740,77
832,65	1808,36
832,82	1669,09
832,99	1728,49
833,17	1652,71
833,34	1789,92
833,51	1724,39
833,68	1679,33
833,85	1804,26
834,02	1650,66
834,19	1691,62
834,36	1626,09
834,53	1679,33
834,70	1736,68
834,87	1871,84
835,04	1691,62
835,22	1619,94
835,39	1636,33
835,56	1636,33
835,73	1621,99
835,90	1748,97
836,07	1654,76
836,24	1781,73
836,41	1603,56
836,58	1601,51
836,75	1710,05
836,92	1667,05
837,09	1710,05
837,26	1810,40
837,43	1669,09
837,60	1767,40
837,77	1748,97
837,94	1818,60
838,12	1703,91
838,29	1736,68
838,46	1642,47
838,63	1574,89
838,80	1773,54
838,97	1710,05
839,14	1716,20
839,31	1775,59
839,48	1722,34
839,65	1683,43
839,82	1689,57
839,99	1736,68
840,16	1695,72
840,33	1638,38
840,50	1689,57
840,67	1689,57
840,84	1560,55
841,01	1761,25
841,18	1656,81
841,35	1636,33
841,52	1740,77
841,69	1841,12
841,86	1675,24
842,03	1732,58
842,20	1724,39
842,37	1728,49
842,54	1732,58
842,71	1683,43
842,88	1570,79
843,05	1624,04
843,22	1701,86
843,39	1689,57
843,56	1648,61
843,73	1726,44
843,90	1679,33
844,07	1658,85
844,24	1755,11
844,41	1767,40
844,58	1701,86
844,75	1642,47
844,92	1755,11
845,09	1746,92
845,26	1662,95
845,43	1722,34
845,60	1632,23
845,77	1755,11
845,94	1689,57
846,10	1744,87
846,27	1675,24
846,44	1675,24
846,61	1685,48
846,78	1744,87
846,95	1726,44
847,12	1683,43
847,29	1675,24
847,46	1644,52
847,63	1771,49
847,80	1665,00
847,97	1728,49
848,14	1890,28
848,31	1705,96
848,48	1665,00
848,65	1640,42
848,82	1644,52
848,98	1857,51
849,15	1763,30
849,32	1775,59
849,49	1718,25
849,66	1685,48
849,83	1716,20
850,00	1658,85
850,17	1753,06
850,34	1675,24
850,51	1710,05
850,68	1624,04
850,85	1837,03
851,01	1763,30
851,18	1800,16
851,35	1742,82
851,52	1710,05
851,69	1751,01
851,86	1609,70
852,03	1705,96
852,20	1748,97
852,37	1726,44
852,53	1683,43
852,70	1765,35
852,87	1714,15
853,04	1714,15
853,21	1716,20
853,38	1658,85
853,55	1837,03
853,72	1798,12
853,89	1673,19
854,05	1701,86
854,22	1689,57
854,39	1734,63
854,56	1736,68
854,73	1744,87
854,90	1734,63
855,07	1667,05
855,23	1644,52
855,40	1652,71
855,57	1636,33
855,74	1624,04
855,91	1841,12
856,08	1683,43
856,25	1710,05
856,41	1658,85
856,58	1757,16
856,75	1714,15
856,92	1632,23
857,09	1767,40
857,26	1681,38
857,42	1761,25
857,59	1683,43
857,76	1730,53
857,93	1708,01
858,10	1748,97
858,27	1636,33
858,43	1673,19
858,60	1724,39
858,77	1621,99
858,94	1734,63
859,11	1769,44
859,27	1785,83
859,44	1714,15
859,61	1787,88
859,78	1767,40
859,95	1759,21
860,12	1656,81
860,28	1802,21
860,45	1834,98
860,62	1769,44
860,79	1759,21
860,95	1669,09
861,12	1683,43
861,29	1722,34
861,46	1699,81
861,63	1736,68
861,79	1656,81
861,96	1673,19
862,13	1558,50
862,30	1794,02
862,47	1667,05
862,63	1591,27
862,80	1734,63
862,97	1693,67
863,14	1757,16
863,30	1732,58
863,47	1617,90
863,64	1816,55
863,81	1832,93
863,97	1656,81
864,14	1714,15
864,31	1648,61
864,48	1714,15
864,65	1726,44
864,81	1728,49
864,98	1785,83
865,15	1773,54
865,32	1712,10
865,48	1777,64
865,65	1726,44
865,82	1718,25
865,98	1763,30
866,15	1787,88
866,32	1744,87
866,49	1732,58
866,65	1755,11
866,82	1636,33
866,99	1658,85
867,16	1644,52
867,32	1699,81
867,49	1681,38
867,66	1720,29
867,83	1669,09
867,99	1658,85
868,16	1656,81
868,33	1630,18
868,49	1669,09
868,66	1722,34
868,83	1681,38
868,99	1726,44
869,16	1667,05
869,33	1783,78
869,50	1675,24
869,66	1656,81
869,83	1738,73
870,00	1613,80
870,16	1740,77
870,33	1710,05
870,50	1822,69
870,66	1740,77
870,83	1783,78
871,00	1718,25
871,17	1708,01
871,33	1740,77
871,50	1699,81
871,67	1667,05
871,83	1615,85
872,00	1847,27
872,17	1708,01
872,33	1791,97
872,50	1798,12
872,67	1691,62
872,83	1675,24
873,00	1667,05
873,17	1675,24
873,33	1740,77
873,50	1699,81
873,67	1667,05
873,83	1683,43
874,00	1734,63
874,16	1791,97
874,33	1763,30
874,50	1695,72
874,66	1673,19
874,83	1630,18
875,00	1757,16
875,16	1818,60
875,33	1779,68
875,50	1601,51
875,66	1691,62
875,83	1771,49
875,99	1738,73
876,16	1615,85
876,33	1634,28
876,49	1703,91
876,66	1697,77
876,83	1718,25
876,99	1673,19
877,16	1683,43
877,32	1705,96
877,49	1656,81
877,66	1757,16
877,82	1716,20
877,99	1710,05
878,15	1888,23
878,32	1693,67
878,49	1755,11
878,65	1695,72
878,82	1794,02
878,98	1607,66
879,15	1773,54
879,32	1746,92
879,48	1800,16
879,65	1665,00
879,81	1705,96
879,98	1689,57
880,15	1673,19
880,31	1748,97
880,48	1671,14
880,64	1751,01
880,81	1683,43
880,97	1863,65
881,14	1701,86
881,31	1671,14
881,47	1814,50
881,64	1660,90
881,80	1583,08
881,97	1730,53
882,13	1730,53
882,30	1628,14
882,47	1632,23
882,63	1689,57
882,80	1779,68
882,96	1630,18
883,13	1757,16
883,29	1718,25
883,46	1703,91
883,62	1851,36
883,79	1730,53
883,95	1759,21
884,12	1583,08
884,29	1732,58
884,45	1636,33
884,62	1785,83
884,78	1669,09
884,95	1812,45
885,11	1701,86
885,28	1705,96
885,44	1757,16
885,61	1730,53
885,77	1812,45
885,94	1775,59
886,10	1699,81
886,27	1785,83
886,43	1820,64
886,60	1789,92
886,76	1599,46
886,93	1667,05
887,09	1791,97
887,26	1640,42
887,42	1683,43
887,59	1828,84
887,75	1841,12
887,92	1783,78
888,08	1820,64
888,25	1839,08
888,41	1716,20
888,58	1640,42
888,74	1689,57
888,91	1660,90
>>>>>End Processed Spectral Data<<<<<
