SpectraSuite Data File
++++++++++++++++++++++++++++++++++++
Date: Mon Jun 06 15:59:57 CEST 2016
User: root
Dark Spectrum Present: No
Reference Spectrum Present: No
Number of Sampled Component Spectra: 1
Spectrometers: USB4C02835
Integration Time (usec): 100000 (USB4C02835)
Spectra Averaged: 1 (USB4C02835)
Boxcar Smoothing: 0 (USB4C02835)
Correct for Electrical Dark: No (USB4C02835)
Strobe/Lamp Enabled: No (USB4C02835)
Correct for Detector Non-linearity: No (USB4C02835)
Correct for Stray Light: No (USB4C02835)
Number of Pixels in Processed Spectrum: 3648
>>>>>Begin Processed Spectral Data<<<<<
177,47	1476,59
177,69	1476,59
177,91	1476,59
178,13	1441,77
178,36	1462,25
178,58	1736,68
178,80	1740,77
179,02	1591,27
179,24	1642,47
179,46	1705,96
179,68	1796,07
179,90	1648,61
180,13	1710,05
180,35	1677,29
180,57	1759,21
180,79	1810,40
181,01	1681,38
181,23	1791,97
181,45	1751,01
181,67	1769,44
181,90	1832,93
182,12	1662,95
182,34	1632,23
182,56	1734,63
182,78	1740,77
183,00	1701,86
183,22	1708,01
183,44	1632,23
183,66	1839,08
183,89	1734,63
184,11	1671,14
184,33	1796,07
184,55	1800,16
184,77	1730,53
184,99	1748,97
185,21	1679,33
185,43	1830,88
185,65	1644,52
185,87	1701,86
186,10	1869,80
186,32	1937,38
186,54	1763,30
186,76	1869,80
186,98	1783,78
187,20	1667,05
187,42	1728,49
187,64	1724,39
187,86	1726,44
188,08	1699,81
188,30	1624,04
188,52	1748,97
188,75	1800,16
188,97	1826,79
189,19	1656,81
189,41	1658,85
189,63	1724,39
189,85	1665,00
190,07	1693,67
190,29	1603,56
190,51	1710,05
190,73	1628,14
190,95	1732,58
191,17	1660,90
191,39	1611,75
191,61	1695,72
191,84	1712,10
192,06	1716,20
192,28	1646,57
192,50	1918,95
192,72	1826,79
192,94	1714,15
193,16	1742,82
193,38	1740,77
193,60	1613,80
193,82	1701,86
194,04	1785,83
194,26	1712,10
194,48	1685,48
194,70	1701,86
194,92	1683,43
195,14	1771,49
195,36	1611,75
195,58	1679,33
195,80	1761,25
196,02	1701,86
196,24	1665,00
196,46	1712,10
196,69	1619,94
196,91	1830,88
197,13	1757,16
197,35	1621,99
197,57	1804,26
197,79	1812,45
198,01	1755,11
198,23	1800,16
198,45	1722,34
198,67	1687,53
198,89	1742,82
199,11	1775,59
199,33	1708,01
199,55	1615,85
199,77	1763,30
199,99	1738,73
200,21	1656,81
200,43	1697,77
200,65	1669,09
200,87	1542,12
201,09	1751,01
201,31	1726,44
201,53	1773,54
201,75	1765,35
201,97	1771,49
202,19	1640,42
202,41	1789,92
202,63	1791,97
202,85	1720,29
203,07	1726,44
203,29	1662,95
203,51	1628,14
203,73	1624,04
203,95	1898,47
204,17	1726,44
204,39	1783,78
204,61	1673,19
204,83	1714,15
205,05	1740,77
205,27	1765,35
205,49	1880,04
205,71	1695,72
205,93	1601,51
206,15	1734,63
206,37	1677,29
206,59	1728,49
206,81	1646,57
207,03	1677,29
207,25	1708,01
207,47	1742,82
207,69	1714,15
207,91	1736,68
208,13	1781,73
208,34	1693,67
208,56	1656,81
208,78	1787,88
209,00	1613,80
209,22	1759,21
209,44	1763,30
209,66	1640,42
209,88	1675,24
210,10	1669,09
210,32	1660,90
210,54	1855,46
210,76	1693,67
210,98	1767,40
211,20	1681,38
211,42	1738,73
211,64	1804,26
211,86	1757,16
212,08	1781,73
212,30	1726,44
212,52	1667,05
212,74	1746,92
212,96	1710,05
213,17	1748,97
213,39	1751,01
213,61	1798,12
213,83	1783,78
214,05	1546,22
214,27	1683,43
214,49	1648,61
214,71	1669,09
214,93	1765,35
215,15	1675,24
215,37	1791,97
215,59	1712,10
215,81	1804,26
216,03	1841,12
216,24	1685,48
216,46	1720,29
216,68	1732,58
216,90	1695,72
217,12	1755,11
217,34	1679,33
217,56	1728,49
217,78	1787,88
218,00	1755,11
218,22	1603,56
218,44	1683,43
218,66	1705,96
218,87	1828,84
219,09	1691,62
219,31	1822,69
219,53	1791,97
219,75	1722,34
219,97	1669,09
220,19	1734,63
220,41	1736,68
220,63	1740,77
220,85	1742,82
221,06	1662,95
221,28	1791,97
221,50	1722,34
221,72	1669,09
221,94	1728,49
222,16	1687,53
222,38	1791,97
222,60	1697,77
222,82	1742,82
223,03	1751,01
223,25	1646,57
223,47	1757,16
223,69	1826,79
223,91	1726,44
224,13	1708,01
224,35	1679,33
224,57	1791,97
224,78	1791,97
225,00	1681,38
225,22	1779,68
225,44	1687,53
225,66	1730,53
225,88	1638,38
226,10	1753,06
226,32	1720,29
226,53	1800,16
226,75	1679,33
226,97	1744,87
227,19	1656,81
227,41	1619,94
227,63	1689,57
227,85	1636,33
228,06	1726,44
228,28	1705,96
228,50	1708,01
228,72	1730,53
228,94	1724,39
229,16	1681,38
229,37	1656,81
229,59	1634,28
229,81	1869,80
230,03	1665,00
230,25	1591,27
230,47	1636,33
230,69	1652,71
230,90	1759,21
231,12	1693,67
231,34	1648,61
231,56	1718,25
231,78	1644,52
232,00	1798,12
232,21	1718,25
232,43	1701,86
232,65	1617,90
232,87	1791,97
233,09	1718,25
233,30	1738,73
233,52	1712,10
233,74	1693,67
233,96	1736,68
234,18	1746,92
234,40	1658,85
234,61	1861,60
234,83	1708,01
235,05	1603,56
235,27	1849,32
235,49	1814,50
235,70	1730,53
235,92	1806,31
236,14	1744,87
236,36	1847,27
236,58	1624,04
236,79	1763,30
237,01	1658,85
237,23	1671,14
237,45	1863,65
237,67	1681,38
237,88	1759,21
238,10	1775,59
238,32	1619,94
238,54	1699,81
238,76	1787,88
238,97	1695,72
239,19	1697,77
239,41	1726,44
239,63	1730,53
239,85	1665,00
240,06	1677,29
240,28	1687,53
240,50	1800,16
240,72	1730,53
240,93	1677,29
241,15	1824,74
241,37	1726,44
241,59	1740,77
241,81	1652,71
242,02	1708,01
242,24	1738,73
242,46	1769,44
242,68	1638,38
242,89	1695,72
243,11	1843,17
243,33	1650,66
243,55	1710,05
243,76	1607,66
243,98	1675,24
244,20	1660,90
244,42	1687,53
244,64	1779,68
244,85	1677,29
245,07	1675,24
245,29	1759,21
245,51	1689,57
245,72	1691,62
245,94	1763,30
246,16	1640,42
246,38	1744,87
246,59	1638,38
246,81	1683,43
247,03	1718,25
247,24	1650,66
247,46	1687,53
247,68	1744,87
247,90	1757,16
248,11	1730,53
248,33	1816,55
248,55	1736,68
248,77	1740,77
248,98	1853,41
249,20	1746,92
249,42	1734,63
249,64	1656,81
249,85	1667,05
250,07	1630,18
250,29	1759,21
250,50	1714,15
250,72	1626,09
250,94	1708,01
251,16	1800,16
251,37	1728,49
251,59	1683,43
251,81	1724,39
252,02	1757,16
252,24	1710,05
252,46	1779,68
252,68	1714,15
252,89	1656,81
253,11	1583,08
253,33	1812,45
253,54	1724,39
253,76	1667,05
253,98	1667,05
254,20	1705,96
254,41	1621,99
254,63	1681,38
254,85	1621,99
255,06	1736,68
255,28	1763,30
255,50	1652,71
255,71	1689,57
255,93	1677,29
256,15	1644,52
256,36	1820,64
256,58	1726,44
256,80	1708,01
257,02	1656,81
257,23	1718,25
257,45	1669,09
257,67	1734,63
257,88	1697,77
258,10	1671,14
258,32	1714,15
258,53	1720,29
258,75	1722,34
258,97	1646,57
259,18	1789,92
259,40	1701,86
259,62	1806,31
259,83	1755,11
260,05	1701,86
260,27	2025,44
260,48	1814,50
260,70	1679,33
260,92	1675,24
261,13	1730,53
261,35	1650,66
261,57	1677,29
261,78	1570,79
262,00	1712,10
262,22	1722,34
262,43	1652,71
262,65	1613,80
262,86	1759,21
263,08	1816,55
263,30	1779,68
263,51	1640,42
263,73	1687,53
263,95	1851,36
264,16	1605,61
264,38	1693,67
264,60	1701,86
264,81	1640,42
265,03	1810,40
265,25	1767,40
265,46	1724,39
265,68	1814,50
265,89	1748,97
266,11	1617,90
266,33	1771,49
266,54	1812,45
266,76	1759,21
266,98	1781,73
267,19	1830,88
267,41	1732,58
267,62	1710,05
267,84	1673,19
268,06	1742,82
268,27	1712,10
268,49	1853,41
268,70	1759,21
268,92	1759,21
269,14	1673,19
269,35	1599,46
269,57	1757,16
269,79	1703,91
270,00	1689,57
270,22	1877,99
270,43	1705,96
270,65	1634,28
270,87	1744,87
271,08	1724,39
271,30	1728,49
271,51	1742,82
271,73	1804,26
271,95	1753,06
272,16	1822,69
272,38	1767,40
272,59	1685,48
272,81	1734,63
273,02	1730,53
273,24	1742,82
273,46	1751,01
273,67	1703,91
273,89	1669,09
274,10	1691,62
274,32	1771,49
274,54	1789,92
274,75	1744,87
274,97	1669,09
275,18	1767,40
275,40	1712,10
275,61	1771,49
275,83	1677,29
276,05	1638,38
276,26	1814,50
276,48	1699,81
276,69	1679,33
276,91	1644,52
277,12	1824,74
277,34	1800,16
277,55	1740,77
277,77	1683,43
277,99	1712,10
278,20	1693,67
278,42	1658,85
278,63	1617,90
278,85	1605,61
279,06	1642,47
279,28	1787,88
279,49	1710,05
279,71	1732,58
279,93	1765,35
280,14	1642,47
280,36	1619,94
280,57	1804,26
280,79	1791,97
281,00	1656,81
281,22	1654,76
281,43	1757,16
281,65	1648,61
281,86	1615,85
282,08	1748,97
282,29	1781,73
282,51	1665,00
282,73	1658,85
282,94	1603,56
283,16	1787,88
283,37	1763,30
283,59	1742,82
283,80	1648,61
284,02	1689,57
284,23	1640,42
284,45	1789,92
284,66	1722,34
284,88	1708,01
285,09	1691,62
285,31	1669,09
285,52	1734,63
285,74	1669,09
285,95	1730,53
286,17	1718,25
286,38	1748,97
286,60	1738,73
286,81	1677,29
287,03	1642,47
287,24	1708,01
287,46	1656,81
287,67	1744,87
287,89	1804,26
288,10	1748,97
288,32	1730,53
288,53	1738,73
288,75	1701,86
288,96	1740,77
289,18	1712,10
289,39	1669,09
289,61	1789,92
289,82	1845,22
290,04	1789,92
290,25	1650,66
290,47	1755,11
290,68	1660,90
290,90	1796,07
291,11	1675,24
291,33	1744,87
291,54	1697,77
291,76	1634,28
291,97	1679,33
292,18	1767,40
292,40	1693,67
292,61	1621,99
292,83	1880,04
293,04	1763,30
293,26	1691,62
293,47	1703,91
293,69	1665,00
293,90	1642,47
294,12	1767,40
294,33	1738,73
294,55	1691,62
294,76	1746,92
294,97	1736,68
295,19	1814,50
295,40	1665,00
295,62	1669,09
295,83	1785,83
296,05	1691,62
296,26	1673,19
296,48	1695,72
296,69	1734,63
296,90	1677,29
297,12	1751,01
297,33	1837,03
297,55	1703,91
297,76	1679,33
297,98	1828,84
298,19	1689,57
298,41	1697,77
298,62	1611,75
298,83	1804,26
299,05	1718,25
299,26	1642,47
299,48	1705,96
299,69	1789,92
299,90	1787,88
300,12	1640,42
300,33	1763,30
300,55	1720,29
300,76	1767,40
300,98	1615,85
301,19	1757,16
301,40	1703,91
301,62	1671,14
301,83	1767,40
302,05	1736,68
302,26	1695,72
302,47	1759,21
302,69	1554,41
302,90	1652,71
303,12	1550,31
303,33	1716,20
303,54	1855,46
303,76	1658,85
303,97	1755,11
304,19	1826,79
304,40	1632,23
304,61	1695,72
304,83	1869,80
305,04	1857,51
305,26	1763,30
305,47	1687,53
305,68	1644,52
305,90	1685,48
306,11	1759,21
306,33	1751,01
306,54	1642,47
306,75	1701,86
306,97	1685,48
307,18	1640,42
307,39	1656,81
307,61	1656,81
307,82	1712,10
308,04	1794,02
308,25	1617,90
308,46	1732,58
308,68	1771,49
308,89	1757,16
309,10	1787,88
309,32	1697,77
309,53	1708,01
309,74	1755,11
309,96	1599,46
310,17	1751,01
310,39	1738,73
310,60	1748,97
310,81	1757,16
311,03	1632,23
311,24	1769,44
311,45	1718,25
311,67	1759,21
311,88	1679,33
312,09	1650,66
312,31	1701,86
312,52	1685,48
312,73	1710,05
312,95	1626,09
313,16	1710,05
313,37	1814,50
313,59	1779,68
313,80	1746,92
314,01	1804,26
314,23	1656,81
314,44	1685,48
314,65	1652,71
314,87	1708,01
315,08	1710,05
315,29	1718,25
315,51	1662,95
315,72	1624,04
315,93	1816,55
316,15	1730,53
316,36	1699,81
316,57	1763,30
316,79	1728,49
317,00	1665,00
317,21	1732,58
317,43	1742,82
317,64	1746,92
317,85	1699,81
318,07	1617,90
318,28	1718,25
318,49	1798,12
318,70	2007,01
318,92	1859,56
319,13	1857,51
319,34	1861,60
319,56	1810,40
319,77	1851,36
319,98	1775,59
320,20	1783,78
320,41	1718,25
320,62	1724,39
320,83	1636,33
321,05	1824,74
321,26	1665,00
321,47	1693,67
321,69	1697,77
321,90	1662,95
322,11	1714,15
322,32	1705,96
322,54	1675,24
322,75	1671,14
322,96	1822,69
323,18	1578,98
323,39	1617,90
323,60	1693,67
323,81	1787,88
324,03	1771,49
324,24	1693,67
324,45	1740,77
324,66	1667,05
324,88	1839,08
325,09	1824,74
325,30	1724,39
325,52	1716,20
325,73	1718,25
325,94	1687,53
326,15	1593,32
326,37	1744,87
326,58	1820,64
326,79	1832,93
327,00	1693,67
327,22	1650,66
327,43	1640,42
327,64	1744,87
327,85	1744,87
328,07	1748,97
328,28	1818,60
328,49	1689,57
328,70	1710,05
328,92	1708,01
329,13	1697,77
329,34	1693,67
329,55	1855,46
329,76	1755,11
329,98	1720,29
330,19	1777,64
330,40	1763,30
330,61	1730,53
330,83	1851,36
331,04	1779,68
331,25	1759,21
331,46	1785,83
331,68	1679,33
331,89	1785,83
332,10	1683,43
332,31	1667,05
332,52	1710,05
332,74	1708,01
332,95	1628,14
333,16	1732,58
333,37	1791,97
333,58	1650,66
333,80	1722,34
334,01	1615,85
334,22	1656,81
334,43	1667,05
334,64	1714,15
334,86	1669,09
335,07	1738,73
335,28	1867,75
335,49	1654,76
335,70	1771,49
335,92	1830,88
336,13	1869,80
336,34	1736,68
336,55	1697,77
336,76	1673,19
336,98	1574,89
337,19	1679,33
337,40	1861,60
337,61	1785,83
337,82	1669,09
338,04	1808,36
338,25	1689,57
338,46	1695,72
338,67	1712,10
338,88	1734,63
339,09	1691,62
339,31	1648,61
339,52	1621,99
339,73	1626,09
339,94	1716,20
340,15	1740,77
340,36	1746,92
340,58	1751,01
340,79	1697,77
341,00	1804,26
341,21	1691,62
341,42	1767,40
341,63	1699,81
341,85	1763,30
342,06	1755,11
342,27	1652,71
342,48	1740,77
342,69	1650,66
342,90	1742,82
343,12	1703,91
343,33	1701,86
343,54	1710,05
343,75	1791,97
343,96	1751,01
344,17	1712,10
344,38	1646,57
344,60	1654,76
344,81	1681,38
345,02	1718,25
345,23	1738,73
345,44	1812,45
345,65	1791,97
345,86	1722,34
346,07	1697,77
346,29	1644,52
346,50	1703,91
346,71	1697,77
346,92	1806,31
347,13	1785,83
347,34	1681,38
347,55	1652,71
347,76	1785,83
347,98	1642,47
348,19	1642,47
348,40	1720,29
348,61	1720,29
348,82	1830,88
349,03	1683,43
349,24	1677,29
349,45	1808,36
349,66	1585,13
349,88	1781,73
350,09	1720,29
350,30	1837,03
350,51	1796,07
350,72	1796,07
350,93	1689,57
351,14	1683,43
351,35	1767,40
351,56	1675,24
351,77	1665,00
351,99	1691,62
352,20	1738,73
352,41	1777,64
352,62	1583,08
352,83	1703,91
353,04	1724,39
353,25	1640,42
353,46	1787,88
353,67	1812,45
353,88	1615,85
354,09	1744,87
354,30	1722,34
354,52	1689,57
354,73	1718,25
354,94	1705,96
355,15	1740,77
355,36	1837,03
355,57	1738,73
355,78	1703,91
355,99	1689,57
356,20	1632,23
356,41	1726,44
356,62	1691,62
356,83	1742,82
357,04	1753,06
357,25	1626,09
357,46	1732,58
357,68	1603,56
357,89	1603,56
358,10	1710,05
358,31	1787,88
358,52	1691,62
358,73	1718,25
358,94	1689,57
359,15	1677,29
359,36	1732,58
359,57	1691,62
359,78	1632,23
359,99	1761,25
360,20	1630,18
360,41	1681,38
360,62	1826,79
360,83	1691,62
361,04	1746,92
361,25	1777,64
361,46	1802,21
361,67	1656,81
361,88	1771,49
362,09	1734,63
362,30	1697,77
362,51	1677,29
362,72	1607,66
362,93	1740,77
363,14	1730,53
363,35	1830,88
363,56	1738,73
363,78	1841,12
363,99	1822,69
364,20	1699,81
364,41	1724,39
364,62	1804,26
364,83	1708,01
365,04	1681,38
365,25	1767,40
365,46	1820,64
365,67	1691,62
365,88	1671,14
366,09	1626,09
366,30	1693,67
366,51	1724,39
366,72	1673,19
366,93	1705,96
367,14	1714,15
367,35	1789,92
367,56	1728,49
367,77	1726,44
367,98	1740,77
368,18	1769,44
368,39	1734,63
368,60	1615,85
368,81	1755,11
369,02	1845,22
369,23	1740,77
369,44	1624,04
369,65	1671,14
369,86	1757,16
370,07	1814,50
370,28	1662,95
370,49	1755,11
370,70	1787,88
370,91	1654,76
371,12	1607,66
371,33	1761,25
371,54	1652,71
371,75	1775,59
371,96	1628,14
372,17	1675,24
372,38	1726,44
372,59	1751,01
372,80	1636,33
373,01	1677,29
373,22	1742,82
373,43	1695,72
373,64	1648,61
373,85	1832,93
374,06	1814,50
374,26	1765,35
374,47	1794,02
374,68	1726,44
374,89	1765,35
375,10	1697,77
375,31	1736,68
375,52	1796,07
375,73	1685,48
375,94	1710,05
376,15	1740,77
376,36	1718,25
376,57	1691,62
376,78	1802,21
376,99	1765,35
377,20	1800,16
377,40	1779,68
377,61	1812,45
377,82	1665,00
378,03	1810,40
378,24	1771,49
378,45	1738,73
378,66	1687,53
378,87	1642,47
379,08	1632,23
379,29	1652,71
379,50	1785,83
379,71	1693,67
379,91	1791,97
380,12	1722,34
380,33	1791,97
380,54	1738,73
380,75	1658,85
380,96	1699,81
381,17	1732,58
381,38	1652,71
381,59	1839,08
381,80	1755,11
382,00	1869,80
382,21	1822,69
382,42	1896,42
382,63	1808,36
382,84	1724,39
383,05	1787,88
383,26	1826,79
383,47	1681,38
383,68	1769,44
383,88	1808,36
384,09	1753,06
384,30	1781,73
384,51	1804,26
384,72	1662,95
384,93	1654,76
385,14	1708,01
385,35	1726,44
385,55	1648,61
385,76	1767,40
385,97	1763,30
386,18	1660,90
386,39	1722,34
386,60	1654,76
386,81	1734,63
387,02	1638,38
387,22	1730,53
387,43	1796,07
387,64	1773,54
387,85	1890,28
388,06	2197,47
388,27	4210,62
388,48	6801,30
388,68	8069,00
388,89	9408,37
389,10	9635,69
389,31	8460,16
389,52	7458,70
389,73	6721,43
389,93	6098,85
390,14	5676,97
390,35	5185,46
390,56	4442,04
390,77	3706,82
390,98	2959,31
391,18	2428,89
391,39	2217,95
391,60	1853,41
391,81	1818,60
392,02	1712,10
392,23	1882,08
392,43	1712,10
392,64	1787,88
392,85	1732,58
393,06	1871,84
393,27	1748,97
393,47	1693,67
393,68	1753,06
393,89	1738,73
394,10	1742,82
394,31	1734,63
394,52	1665,00
394,72	1687,53
394,93	1765,35
395,14	1677,29
395,35	1763,30
395,56	1710,05
395,76	1716,20
395,97	1712,10
396,18	1845,22
396,39	1822,69
396,60	2031,58
396,80	1834,98
397,01	1794,02
397,22	1865,70
397,43	1857,51
397,64	1746,92
397,84	1841,12
398,05	1935,33
398,26	1765,35
398,47	1798,12
398,67	1802,21
398,88	1738,73
399,09	1779,68
399,30	1638,38
399,51	1789,92
399,71	1710,05
399,92	1638,38
400,13	1742,82
400,34	1734,63
400,54	1683,43
400,75	1814,50
400,96	1753,06
401,17	1806,31
401,37	1763,30
401,58	1708,01
401,79	1681,38
402,00	1845,22
402,21	2029,54
402,41	1970,15
402,62	1992,67
402,83	2031,58
403,04	2035,68
403,24	2056,16
403,45	1869,80
403,66	1886,18
403,87	1869,80
404,07	1888,23
404,28	1945,57
404,49	1839,08
404,70	1765,35
404,90	1767,40
405,11	1769,44
405,32	1767,40
405,52	1693,67
405,73	1640,42
405,94	1681,38
406,15	1732,58
406,35	1724,39
406,56	1742,82
406,77	1720,29
406,98	1779,68
407,18	1710,05
407,39	1859,56
407,60	1695,72
407,80	1773,54
408,01	1658,85
408,22	1714,15
408,43	1677,29
408,63	1677,29
408,84	1769,44
409,05	1771,49
409,25	1673,19
409,46	1695,72
409,67	1732,58
409,88	1714,15
410,08	1714,15
410,29	1714,15
410,50	1826,79
410,70	1773,54
410,91	1683,43
411,12	1734,63
411,32	1665,00
411,53	1716,20
411,74	1787,88
411,95	1810,40
412,15	1763,30
412,36	1773,54
412,57	1765,35
412,77	1738,73
412,98	1730,53
413,19	1632,23
413,39	1767,40
413,60	1744,87
413,81	1820,64
414,01	1718,25
414,22	1724,39
414,43	1722,34
414,63	1693,67
414,84	1804,26
415,05	1701,86
415,25	1599,46
415,46	1742,82
415,67	1679,33
415,87	1712,10
416,08	1712,10
416,29	1744,87
416,49	1724,39
416,70	1716,20
416,91	1609,70
417,11	1697,77
417,32	1771,49
417,53	1716,20
417,73	1736,68
417,94	1697,77
418,15	1742,82
418,35	1814,50
418,56	1802,21
418,77	1830,88
418,97	1714,15
419,18	1662,95
419,38	1503,21
419,59	1726,44
419,80	1812,45
420,00	1763,30
420,21	1701,86
420,42	1785,83
420,62	1714,15
420,83	1734,63
421,04	1732,58
421,24	1673,19
421,45	1800,16
421,65	1773,54
421,86	1632,23
422,07	1783,78
422,27	1767,40
422,48	1759,21
422,69	1705,96
422,89	1757,16
423,10	1748,97
423,30	1665,00
423,51	1699,81
423,72	1732,58
423,92	1789,92
424,13	1685,48
424,33	1773,54
424,54	1775,59
424,75	1773,54
424,95	1845,22
425,16	1808,36
425,36	1730,53
425,57	1771,49
425,78	1736,68
425,98	1730,53
426,19	1761,25
426,39	1642,47
426,60	1728,49
426,81	1771,49
427,01	1767,40
427,22	1665,00
427,42	1650,66
427,63	1691,62
427,83	1832,93
428,04	1853,41
428,25	1810,40
428,45	1820,64
428,66	1888,23
428,86	1755,11
429,07	1693,67
429,28	1763,30
429,48	1785,83
429,69	1726,44
429,89	1693,67
430,10	1654,76
430,30	1734,63
430,51	1736,68
430,71	1685,48
430,92	1720,29
431,13	1679,33
431,33	1761,25
431,54	1718,25
431,74	1834,98
431,95	1843,17
432,15	1697,77
432,36	1638,38
432,56	1755,11
432,77	1796,07
432,98	1804,26
433,18	1771,49
433,39	1689,57
433,59	1632,23
433,80	1791,97
434,00	1847,27
434,21	1708,01
434,41	1687,53
434,62	1837,03
434,82	1662,95
435,03	1689,57
435,23	1773,54
435,44	1650,66
435,64	1730,53
435,85	1822,69
436,06	1755,11
436,26	1814,50
436,47	1669,09
436,67	1710,05
436,88	1732,58
437,08	1734,63
437,29	1779,68
437,49	1755,11
437,70	1830,88
437,90	1765,35
438,11	1900,52
438,31	1796,07
438,52	1820,64
438,72	1880,04
438,93	1931,23
439,13	1785,83
439,34	1851,36
439,54	1718,25
439,75	1761,25
439,95	1757,16
440,16	1740,77
440,36	1757,16
440,57	1757,16
440,77	1757,16
440,98	1671,14
441,18	1763,30
441,39	1665,00
441,59	1722,34
441,80	1884,13
442,00	1730,53
442,21	1820,64
442,41	1634,28
442,62	1777,64
442,82	1736,68
443,02	1777,64
443,23	1763,30
443,43	1732,58
443,64	1767,40
443,84	1636,33
444,05	1820,64
444,25	1720,29
444,46	1730,53
444,66	1779,68
444,87	1830,88
445,07	1644,52
445,28	1746,92
445,48	1814,50
445,69	1777,64
445,89	1861,60
446,09	1738,73
446,30	2047,97
446,50	2576,34
446,71	3645,38
446,91	4319,17
447,12	4728,76
447,32	4745,14
447,53	4380,61
447,73	3839,94
447,93	3448,78
448,14	3321,81
448,34	3207,12
448,55	2861,01
448,75	2770,90
448,96	2617,30
449,16	2428,89
449,36	2224,09
449,57	2095,07
449,77	1908,71
449,98	1816,55
450,18	1820,64
450,39	1904,61
450,59	1818,60
450,79	1714,15
451,00	1691,62
451,20	1810,40
451,41	1728,49
451,61	1738,73
451,81	1681,38
452,02	1720,29
452,22	1734,63
452,43	1710,05
452,63	1693,67
452,84	1796,07
453,04	1714,15
453,24	1837,03
453,45	1771,49
453,65	1697,77
453,86	1765,35
454,06	1775,59
454,26	1775,59
454,47	1679,33
454,67	1779,68
454,87	1779,68
455,08	1810,40
455,28	1830,88
455,49	1755,11
455,69	1724,39
455,89	1894,37
456,10	1859,56
456,30	1712,10
456,51	1761,25
456,71	1730,53
456,91	1802,21
457,12	1685,48
457,32	1781,73
457,52	1726,44
457,73	1781,73
457,93	1753,06
458,14	1691,62
458,34	1648,61
458,54	1751,01
458,75	1724,39
458,95	1794,02
459,15	1742,82
459,36	1783,78
459,56	1806,31
459,76	1832,93
459,97	1798,12
460,17	1724,39
460,37	1791,97
460,58	1673,19
460,78	1791,97
460,99	1716,20
461,19	1746,92
461,39	1669,09
461,60	1689,57
461,80	1738,73
462,00	1716,20
462,21	1714,15
462,41	1677,29
462,61	1761,25
462,82	1644,52
463,02	1751,01
463,22	1701,86
463,43	1867,75
463,63	1691,62
463,83	1785,83
464,04	1877,99
464,24	1722,34
464,44	1695,72
464,64	1720,29
464,85	1730,53
465,05	1746,92
465,25	1732,58
465,46	1679,33
465,66	1691,62
465,86	1787,88
466,07	1742,82
466,27	1681,38
466,47	1714,15
466,68	1640,42
466,88	1781,73
467,08	1824,74
467,29	1779,68
467,49	1751,01
467,69	1748,97
467,89	1800,16
468,10	1755,11
468,30	1716,20
468,50	1808,36
468,71	1802,21
468,91	1667,05
469,11	1837,03
469,31	1732,58
469,52	1681,38
469,72	1810,40
469,92	1880,04
470,13	1724,39
470,33	1751,01
470,53	1781,73
470,73	2054,11
470,94	2256,86
471,14	2394,08
471,34	2463,71
471,54	2412,51
471,75	2199,52
471,95	2189,28
472,15	2138,08
472,36	2056,16
472,56	2066,40
472,76	1970,15
472,96	2000,87
473,17	1931,23
473,37	1914,85
473,57	1810,40
473,77	1824,74
473,98	1802,21
474,18	1708,01
474,38	1925,09
474,58	1677,29
474,79	1728,49
474,99	1740,77
475,19	1877,99
475,39	1681,38
475,60	1761,25
475,80	1742,82
476,00	1757,16
476,20	1724,39
476,41	1767,40
476,61	1765,35
476,81	1697,77
477,01	1724,39
477,21	1830,88
477,42	1777,64
477,62	1691,62
477,82	1691,62
478,02	1671,14
478,23	1763,30
478,43	1671,14
478,63	1738,73
478,83	1681,38
479,03	1665,00
479,24	1914,85
479,44	1794,02
479,64	1769,44
479,84	1652,71
480,04	1671,14
480,25	1789,92
480,45	1632,23
480,65	1789,92
480,85	1798,12
481,06	1730,53
481,26	1773,54
481,46	1763,30
481,66	1789,92
481,86	1753,06
482,06	1730,53
482,27	1740,77
482,47	1785,83
482,67	1722,34
482,87	1724,39
483,07	1775,59
483,28	1660,90
483,48	1720,29
483,68	1726,44
483,88	1738,73
484,08	1632,23
484,29	1681,38
484,49	1763,30
484,69	1613,80
484,89	1755,11
485,09	1779,68
485,29	1755,11
485,50	1759,21
485,70	1673,19
485,90	1851,36
486,10	1693,67
486,30	1763,30
486,50	1867,75
486,71	1761,25
486,91	1777,64
487,11	1816,55
487,31	1714,15
487,51	1798,12
487,71	1703,91
487,91	1640,42
488,12	1712,10
488,32	1642,47
488,52	1724,39
488,72	1665,00
488,92	1714,15
489,12	1785,83
489,32	1791,97
489,53	1738,73
489,73	1671,14
489,93	1791,97
490,13	1681,38
490,33	1671,14
490,53	1691,62
490,73	1804,26
490,94	1699,81
491,14	1755,11
491,34	1837,03
491,54	2160,61
491,74	2551,77
491,94	2873,30
492,14	2938,84
492,34	2885,59
492,54	2783,19
492,75	2416,60
492,95	2389,98
493,15	2324,44
493,35	2217,95
493,55	2172,89
493,75	2228,19
493,95	2045,92
494,15	1990,63
494,35	1929,19
494,56	1828,84
494,76	1783,78
494,96	1865,70
495,16	1837,03
495,36	1730,53
495,56	1767,40
495,76	1726,44
495,96	1740,77
496,16	1718,25
496,36	1816,55
496,56	1703,91
496,77	1802,21
496,97	1757,16
497,17	1816,55
497,37	1755,11
497,57	1791,97
497,77	1822,69
497,97	1636,33
498,17	1763,30
498,37	1740,77
498,57	1722,34
498,77	1720,29
498,97	1728,49
499,17	1775,59
499,38	1767,40
499,58	1781,73
499,78	1830,88
499,98	1761,25
500,18	1734,63
500,38	1775,59
500,58	1984,48
500,78	2508,76
500,98	4532,15
501,18	5767,08
501,38	6662,04
501,58	6811,54
501,78	6551,45
501,98	5523,37
502,18	4951,99
502,38	4442,04
502,58	4102,08
502,78	3903,43
502,98	3598,28
503,18	3469,26
503,38	3125,20
503,59	2867,16
503,79	2582,49
503,99	2494,43
504,19	2242,53
504,39	2213,85
504,59	2123,74
504,79	2078,69
504,99	2021,35
505,19	2056,16
505,39	1843,17
505,59	2019,30
505,79	1890,28
505,99	1904,61
506,19	1724,39
506,39	1859,56
506,59	1779,68
506,79	1734,63
506,99	1841,12
507,19	1798,12
507,39	1843,17
507,59	1609,70
507,79	1662,95
507,99	1730,53
508,19	1826,79
508,39	1765,35
508,59	1802,21
508,79	1908,71
508,99	1773,54
509,19	1744,87
509,39	1794,02
509,59	1693,67
509,79	1767,40
509,99	1699,81
510,19	1787,88
510,39	1832,93
510,59	1798,12
510,79	1732,58
510,99	1767,40
511,19	1730,53
511,39	1804,26
511,59	1845,22
511,79	1773,54
511,99	1763,30
512,19	1839,08
512,38	1781,73
512,58	1673,19
512,78	1769,44
512,98	1755,11
513,18	1855,46
513,38	1648,61
513,58	1847,27
513,78	1767,40
513,98	1658,85
514,18	1800,16
514,38	1720,29
514,58	1714,15
514,78	1783,78
514,98	1607,66
515,18	1789,92
515,38	1636,33
515,58	1914,85
515,78	1722,34
515,98	1804,26
516,18	1714,15
516,38	1769,44
516,57	1662,95
516,77	1746,92
516,97	1877,99
517,17	1724,39
517,37	1628,14
517,57	1781,73
517,77	1765,35
517,97	1751,01
518,17	1734,63
518,37	1763,30
518,57	1703,91
518,77	1746,92
518,97	1726,44
519,16	1875,94
519,36	1794,02
519,56	1628,14
519,76	1714,15
519,96	1834,98
520,16	1771,49
520,36	1624,04
520,56	1763,30
520,76	1714,15
520,96	1753,06
521,16	1853,41
521,35	1812,45
521,55	1931,23
521,75	1714,15
521,95	1796,07
522,15	1720,29
522,35	1730,53
522,55	1718,25
522,75	1830,88
522,95	1730,53
523,14	1677,29
523,34	1748,97
523,54	1705,96
523,74	1785,83
523,94	1693,67
524,14	1724,39
524,34	1730,53
524,54	1857,51
524,73	1740,77
524,93	1742,82
525,13	1781,73
525,33	1699,81
525,53	1880,04
525,73	1740,77
525,93	1699,81
526,13	1730,53
526,32	1687,53
526,52	1798,12
526,72	1787,88
526,92	1791,97
527,12	1773,54
527,32	1701,86
527,52	1761,25
527,71	1794,02
527,91	1775,59
528,11	1730,53
528,31	1771,49
528,51	1636,33
528,71	1794,02
528,90	1759,21
529,10	1796,07
529,30	1888,23
529,50	1681,38
529,70	1777,64
529,90	1734,63
530,09	1718,25
530,29	1791,97
530,49	1695,72
530,69	1814,50
530,89	1693,67
531,09	1742,82
531,28	1626,09
531,48	1845,22
531,68	1773,54
531,88	1693,67
532,08	1753,06
532,28	1699,81
532,47	1800,16
532,67	1869,80
532,87	1787,88
533,07	1654,76
533,27	1806,31
533,46	1685,48
533,66	1771,49
533,86	1687,53
534,06	1720,29
534,26	1732,58
534,45	1759,21
534,65	1791,97
534,85	1755,11
535,05	1683,43
535,25	1812,45
535,44	1693,67
535,64	1804,26
535,84	1712,10
536,04	1626,09
536,24	1769,44
536,43	1689,57
536,63	1791,97
536,83	1720,29
537,03	1763,30
537,22	1708,01
537,42	1630,18
537,62	1744,87
537,82	1714,15
538,02	1808,36
538,21	1779,68
538,41	1918,95
538,61	1783,78
538,81	1724,39
539,00	1773,54
539,20	1755,11
539,40	1775,59
539,60	1781,73
539,79	1785,83
539,99	1742,82
540,19	1685,48
540,39	1755,11
540,58	1744,87
540,78	1804,26
540,98	1806,31
541,18	1800,16
541,37	1724,39
541,57	1761,25
541,77	1722,34
541,97	1699,81
542,16	1652,71
542,36	1683,43
542,56	1665,00
542,76	1785,83
542,95	1783,78
543,15	1767,40
543,35	1845,22
543,54	1621,99
543,74	1716,20
543,94	1869,80
544,14	1738,73
544,33	1791,97
544,53	1714,15
544,73	1781,73
544,93	1648,61
545,12	1712,10
545,32	1755,11
545,52	1701,86
545,71	1671,14
545,91	1660,90
546,11	1705,96
546,30	1675,24
546,50	1716,20
546,70	1730,53
546,90	1634,28
547,09	1595,37
547,29	1710,05
547,49	1841,12
547,68	1742,82
547,88	1683,43
548,08	1771,49
548,27	2185,18
548,47	1720,29
548,67	1660,90
548,87	1751,01
549,06	1740,77
549,26	1722,34
549,46	1695,72
549,65	1687,53
549,85	1757,16
550,05	1818,60
550,24	1630,18
550,44	1751,01
550,64	1757,16
550,83	1761,25
551,03	1705,96
551,23	1789,92
551,42	1753,06
551,62	1716,20
551,82	1726,44
552,01	1718,25
552,21	1791,97
552,41	1789,92
552,60	1794,02
552,80	1806,31
553,00	1650,66
553,19	1753,06
553,39	1796,07
553,59	1685,48
553,78	1763,30
553,98	1800,16
554,17	1720,29
554,37	1718,25
554,57	1697,77
554,76	1738,73
554,96	1755,11
555,16	1712,10
555,35	1777,64
555,55	1769,44
555,75	1755,11
555,94	1810,40
556,14	1691,62
556,33	1652,71
556,53	1802,21
556,73	1767,40
556,92	1794,02
557,12	1818,60
557,32	1855,46
557,51	1843,17
557,71	1806,31
557,90	1791,97
558,10	1830,88
558,30	1751,01
558,49	1734,63
558,69	1708,01
558,88	1699,81
559,08	1771,49
559,28	1726,44
559,47	1830,88
559,67	1808,36
559,86	1877,99
560,06	1775,59
560,26	1742,82
560,45	1767,40
560,65	1697,77
560,84	1812,45
561,04	1705,96
561,24	1861,60
561,43	1667,05
561,63	1886,18
561,82	1808,36
562,02	1763,30
562,22	1730,53
562,41	1730,53
562,61	1654,76
562,80	1648,61
563,00	1892,32
563,19	1730,53
563,39	1861,60
563,59	1763,30
563,78	1626,09
563,98	1665,00
564,17	1728,49
564,37	1642,47
564,56	1742,82
564,76	1669,09
564,96	1787,88
565,15	1755,11
565,35	1923,04
565,54	1771,49
565,74	1755,11
565,93	1751,01
566,13	1683,43
566,32	1746,92
566,52	1773,54
566,71	1771,49
566,91	1837,03
567,11	1697,77
567,30	1751,01
567,50	1667,05
567,69	1810,40
567,89	1710,05
568,08	1730,53
568,28	1705,96
568,47	1710,05
568,67	1753,06
568,86	1648,61
569,06	1722,34
569,25	1710,05
569,45	1669,09
569,64	1701,86
569,84	1765,35
570,04	1820,64
570,23	1718,25
570,43	1789,92
570,62	1751,01
570,82	1886,18
571,01	1660,90
571,21	1757,16
571,40	1724,39
571,60	1755,11
571,79	1738,73
571,99	1736,68
572,18	1646,57
572,38	1845,22
572,57	1761,25
572,77	1808,36
572,96	1873,89
573,16	1689,57
573,35	1685,48
573,55	1802,21
573,74	1777,64
573,94	1751,01
574,13	1701,86
574,33	1812,45
574,52	1861,60
574,71	1820,64
574,91	1722,34
575,10	1691,62
575,30	1726,44
575,49	1738,73
575,69	1740,77
575,88	1773,54
576,08	1765,35
576,27	1845,22
576,47	1785,83
576,66	1873,89
576,86	1812,45
577,05	1705,96
577,25	1789,92
577,44	1882,08
577,64	1732,58
577,83	1761,25
578,02	1708,01
578,22	1834,98
578,41	1828,84
578,61	1724,39
578,80	1732,58
579,00	1740,77
579,19	1818,60
579,39	1806,31
579,58	1873,89
579,77	1769,44
579,97	1826,79
580,16	1853,41
580,36	1884,13
580,55	1880,04
580,75	1804,26
580,94	1794,02
581,13	1877,99
581,33	1820,64
581,52	1785,83
581,72	1908,71
581,91	1847,27
582,11	1757,16
582,30	1730,53
582,49	1738,73
582,69	1916,90
582,88	1877,99
583,08	1710,05
583,27	1787,88
583,47	1742,82
583,66	1658,85
583,85	1642,47
584,05	1683,43
584,24	1769,44
584,44	1761,25
584,63	1865,70
584,82	1830,88
585,02	1869,80
585,21	1806,31
585,41	1867,75
585,60	1834,98
585,79	1953,76
585,99	2037,73
586,18	1812,45
586,37	2240,48
586,57	3313,61
586,76	9832,30
586,96	24073,87
587,15	33598,98
587,34	39464,36
587,54	40816,02
587,73	35780,06
587,93	25726,58
588,12	20876,99
588,31	17932,01
588,51	15992,59
588,70	14919,45
588,89	13983,53
589,09	12201,80
589,28	10747,74
589,47	9111,41
589,67	7690,12
589,86	6207,39
590,06	4894,65
590,25	3930,05
590,44	3108,82
590,64	2502,62
590,83	2252,77
591,02	2082,78
591,22	1947,62
591,41	1972,19
591,60	1820,64
591,80	1918,95
591,99	1720,29
592,18	1761,25
592,38	1875,94
592,57	1859,56
592,76	1849,32
592,96	1824,74
593,15	1781,73
593,34	1771,49
593,54	1789,92
593,73	1791,97
593,92	1884,13
594,12	1755,11
594,31	1732,58
594,50	1828,84
594,70	1845,22
594,89	1828,84
595,08	1730,53
595,28	1769,44
595,47	1918,95
595,66	1787,88
595,86	1652,71
596,05	1708,01
596,24	1685,48
596,43	1880,04
596,63	1875,94
596,82	1779,68
597,01	1773,54
597,21	1857,51
597,40	1794,02
597,59	1773,54
597,79	1775,59
597,98	1794,02
598,17	1761,25
598,36	1738,73
598,56	1800,16
598,75	1759,21
598,94	1748,97
599,14	1767,40
599,33	1697,77
599,52	1804,26
599,71	1732,58
599,91	1865,70
600,10	1796,07
600,29	1746,92
600,48	1812,45
600,68	1781,73
600,87	1714,15
601,06	1734,63
601,26	1771,49
601,45	1697,77
601,64	1732,58
601,83	1867,75
602,03	1716,20
602,22	1609,70
602,41	1800,16
602,60	1800,16
602,80	1736,68
602,99	1763,30
603,18	1767,40
603,37	1761,25
603,57	1740,77
603,76	1816,55
603,95	1816,55
604,14	1716,20
604,34	1689,57
604,53	1775,59
604,72	1779,68
604,91	1701,86
605,10	1796,07
605,30	1691,62
605,49	1834,98
605,68	1775,59
605,87	1783,78
606,07	1742,82
606,26	1691,62
606,45	1763,30
606,64	1781,73
606,84	1648,61
607,03	1753,06
607,22	1765,35
607,41	1671,14
607,60	1785,83
607,80	1796,07
607,99	1738,73
608,18	1716,20
608,37	1791,97
608,56	1744,87
608,76	1697,77
608,95	1845,22
609,14	1691,62
609,33	1730,53
609,52	1814,50
609,72	1691,62
609,91	1839,08
610,10	1693,67
610,29	1822,69
610,48	1710,05
610,68	1781,73
610,87	1703,91
611,06	1779,68
611,25	1779,68
611,44	1722,34
611,63	1728,49
611,83	1787,88
612,02	1683,43
612,21	1869,80
612,40	1601,51
612,59	1632,23
612,79	1703,91
612,98	1714,15
613,17	1783,78
613,36	1761,25
613,55	1837,03
613,74	1689,57
613,93	1757,16
614,13	1691,62
614,32	1742,82
614,51	1738,73
614,70	1791,97
614,89	1703,91
615,08	1738,73
615,28	1986,53
615,47	1746,92
615,66	1781,73
615,85	1734,63
616,04	1884,13
616,23	1732,58
616,42	1759,21
616,62	1769,44
616,81	1705,96
617,00	1734,63
617,19	1777,64
617,38	1634,28
617,57	1763,30
617,76	1777,64
617,95	1820,64
618,15	1708,01
618,34	1763,30
618,53	1710,05
618,72	1761,25
618,91	1791,97
619,10	1724,39
619,29	1742,82
619,48	1710,05
619,68	1726,44
619,87	1712,10
620,06	1593,32
620,25	1705,96
620,44	1726,44
620,63	1681,38
620,82	1718,25
621,01	1734,63
621,20	1669,09
621,39	1751,01
621,59	1787,88
621,78	1734,63
621,97	1691,62
622,16	1771,49
622,35	1757,16
622,54	1734,63
622,73	1826,79
622,92	1667,05
623,11	1830,88
623,30	1828,84
623,49	1753,06
623,68	1648,61
623,88	1753,06
624,07	1720,29
624,26	1718,25
624,45	1753,06
624,64	1695,72
624,83	1771,49
625,02	1738,73
625,21	1728,49
625,40	1777,64
625,59	1804,26
625,78	1769,44
625,97	1771,49
626,16	1785,83
626,35	1755,11
626,54	1681,38
626,74	1748,97
626,93	1679,33
627,12	1699,81
627,31	1705,96
627,50	1783,78
627,69	1781,73
627,88	1695,72
628,07	1742,82
628,26	1724,39
628,45	1662,95
628,64	1615,85
628,83	1759,21
629,02	1712,10
629,21	1753,06
629,40	1738,73
629,59	1662,95
629,78	1781,73
629,97	1730,53
630,16	1748,97
630,35	1677,29
630,54	1777,64
630,73	1730,53
630,92	1728,49
631,11	1746,92
631,30	1732,58
631,49	1712,10
631,68	1736,68
631,87	1757,16
632,06	1626,09
632,25	1877,99
632,44	1732,58
632,63	1720,29
632,82	1705,96
633,01	1697,77
633,20	1636,33
633,39	1675,24
633,58	1652,71
633,77	1701,86
633,96	1753,06
634,15	1791,97
634,34	1806,31
634,53	1751,01
634,72	1621,99
634,91	1665,00
635,10	1794,02
635,29	1767,40
635,48	1794,02
635,67	1648,61
635,86	1638,38
636,05	1796,07
636,24	1757,16
636,43	1808,36
636,62	1824,74
636,81	1609,70
637,00	1806,31
637,19	1773,54
637,38	1738,73
637,57	1708,01
637,76	1757,16
637,95	1773,54
638,14	1724,39
638,33	1699,81
638,52	1814,50
638,71	1708,01
638,89	1644,52
639,08	1847,27
639,27	1712,10
639,46	1665,00
639,65	1824,74
639,84	1726,44
640,03	1796,07
640,22	1751,01
640,41	1787,88
640,60	1683,43
640,79	1691,62
640,98	1806,31
641,17	1761,25
641,36	1751,01
641,55	1665,00
641,74	1724,39
641,92	1648,61
642,11	1665,00
642,30	1681,38
642,49	1705,96
642,68	1671,14
642,87	1771,49
643,06	1720,29
643,25	1697,77
643,44	1640,42
643,63	1781,73
643,82	1732,58
644,00	1705,96
644,19	1736,68
644,38	1695,72
644,57	1791,97
644,76	1701,86
644,95	1728,49
645,14	1736,68
645,33	1808,36
645,52	1789,92
645,71	1607,66
645,89	1685,48
646,08	1738,73
646,27	1708,01
646,46	1920,99
646,65	1626,09
646,84	1751,01
647,03	1728,49
647,22	1822,69
647,40	1794,02
647,59	1738,73
647,78	1677,29
647,97	1673,19
648,16	1742,82
648,35	1806,31
648,54	1710,05
648,73	1699,81
648,91	1712,10
649,10	1730,53
649,29	1742,82
649,48	1816,55
649,67	1791,97
649,86	1695,72
650,05	1751,01
650,23	1669,09
650,42	1710,05
650,61	1732,58
650,80	1746,92
650,99	1882,08
651,18	1785,83
651,36	1791,97
651,55	1734,63
651,74	1751,01
651,93	1720,29
652,12	1658,85
652,31	1718,25
652,49	1660,90
652,68	1708,01
652,87	1789,92
653,06	1740,77
653,25	1787,88
653,44	1757,16
653,62	1822,69
653,81	1689,57
654,00	1673,19
654,19	1705,96
654,38	1787,88
654,56	1753,06
654,75	1656,81
654,94	1804,26
655,13	1748,97
655,32	1673,19
655,51	1830,88
655,69	1722,34
655,88	1783,78
656,07	1611,75
656,26	1810,40
656,45	1658,85
656,63	1769,44
656,82	1777,64
657,01	1734,63
657,20	1732,58
657,38	1804,26
657,57	1660,90
657,76	1687,53
657,95	1802,21
658,14	1695,72
658,32	1693,67
658,51	1634,28
658,70	1740,77
658,89	1798,12
659,08	1712,10
659,26	1769,44
659,45	1697,77
659,64	1753,06
659,83	1654,76
660,01	1834,98
660,20	1722,34
660,39	1814,50
660,58	1595,37
660,76	1722,34
660,95	1650,66
661,14	1814,50
661,33	1632,23
661,51	1697,77
661,70	1726,44
661,89	1775,59
662,08	1759,21
662,26	1673,19
662,45	1814,50
662,64	1843,17
662,83	1736,68
663,01	1636,33
663,20	1718,25
663,39	1746,92
663,58	1765,35
663,76	1734,63
663,95	1734,63
664,14	1693,67
664,32	1755,11
664,51	1658,85
664,70	1648,61
664,89	1705,96
665,07	1671,14
665,26	1794,02
665,45	1624,04
665,64	1822,69
665,82	1699,81
666,01	1775,59
666,20	1738,73
666,38	1755,11
666,57	1820,64
666,76	2160,61
666,95	4579,26
667,13	10327,91
667,32	15079,19
667,51	17581,81
667,69	18716,39
667,88	17229,56
668,07	12099,40
668,25	9193,33
668,44	7931,78
668,63	7327,63
668,81	6803,35
669,00	6176,67
669,19	5593,00
669,38	5132,21
669,56	4530,11
669,75	3909,57
669,94	3323,85
670,12	2869,20
670,31	2437,08
670,50	2271,20
670,68	2015,20
670,87	2000,87
671,06	1822,69
671,24	1820,64
671,43	1841,12
671,62	1728,49
671,80	1677,29
671,99	1783,78
672,18	1708,01
672,36	1814,50
672,55	1738,73
672,74	1710,05
672,92	1712,10
673,11	1738,73
673,29	1665,00
673,48	1726,44
673,67	1650,66
673,85	1818,60
674,04	1685,48
674,23	1787,88
674,41	1808,36
674,60	1746,92
674,79	1642,47
674,97	1689,57
675,16	1812,45
675,34	1841,12
675,53	1677,29
675,72	1757,16
675,90	1814,50
676,09	1705,96
676,28	1742,82
676,46	1654,76
676,65	1665,00
676,83	1660,90
677,02	1761,25
677,21	1714,15
677,39	1773,54
677,58	1677,29
677,77	1716,20
677,95	1697,77
678,14	1746,92
678,32	1648,61
678,51	1628,14
678,70	1800,16
678,88	1708,01
679,07	1695,72
679,25	1740,77
679,44	1738,73
679,63	1673,19
679,81	1712,10
680,00	1767,40
680,18	1738,73
680,37	1785,83
680,55	1779,68
680,74	1712,10
680,93	1605,61
681,11	1697,77
681,30	1673,19
681,48	1722,34
681,67	1656,81
681,85	1726,44
682,04	1671,14
682,23	1705,96
682,41	1746,92
682,60	1705,96
682,78	1748,97
682,97	1699,81
683,15	1738,73
683,34	1669,09
683,53	1748,97
683,71	1615,85
683,90	1757,16
684,08	1851,36
684,27	1617,90
684,45	1759,21
684,64	1783,78
684,82	1671,14
685,01	1761,25
685,19	1757,16
685,38	1871,84
685,57	1806,31
685,75	1683,43
685,94	1697,77
686,12	1667,05
686,31	1665,00
686,49	1871,84
686,68	1665,00
686,86	1746,92
687,05	1681,38
687,23	1728,49
687,42	1642,47
687,60	1669,09
687,79	1744,87
687,97	1818,60
688,16	1783,78
688,34	1748,97
688,53	1675,24
688,71	1738,73
688,90	1740,77
689,08	1671,14
689,27	1652,71
689,45	1771,49
689,64	1779,68
689,82	1726,44
690,01	1765,35
690,19	1796,07
690,38	1728,49
690,56	1759,21
690,75	1695,72
690,93	1683,43
691,12	1681,38
691,30	1738,73
691,49	1650,66
691,67	1765,35
691,86	1855,46
692,04	1744,87
692,23	1677,29
692,41	1753,06
692,60	1875,94
692,78	1740,77
692,97	1753,06
693,15	1804,26
693,34	1796,07
693,52	1800,16
693,71	1722,34
693,89	1689,57
694,08	1605,61
694,26	1804,26
694,44	1834,98
694,63	1814,50
694,81	1662,95
695,00	1699,81
695,18	1798,12
695,37	1847,27
695,55	1763,30
695,74	1699,81
695,92	1685,48
696,10	1806,31
696,29	1652,71
696,47	1673,19
696,66	1683,43
696,84	1669,09
697,03	1699,81
697,21	1865,70
697,40	2353,12
697,58	1751,01
697,76	1644,52
697,95	1693,67
698,13	1650,66
698,32	1773,54
698,50	1753,06
698,68	1757,16
698,87	1720,29
699,05	1898,47
699,24	1685,48
699,42	1652,71
699,61	1751,01
699,79	1773,54
699,97	1701,86
700,16	1673,19
700,34	1714,15
700,53	1718,25
700,71	1851,36
700,89	1767,40
701,08	1673,19
701,26	1710,05
701,45	2142,18
701,63	1609,70
701,81	1681,38
702,00	1654,76
702,18	1751,01
702,37	1720,29
702,55	1761,25
702,73	1656,81
702,92	1693,67
703,10	1714,15
703,28	1683,43
703,47	1662,95
703,65	1857,51
703,84	1757,16
704,02	1695,72
704,20	1818,60
704,39	1726,44
704,57	1662,95
704,75	1753,06
704,94	1775,59
705,12	1718,25
705,30	1742,82
705,49	2371,55
705,67	4440,00
705,86	9355,12
706,04	12322,63
706,22	14171,94
706,41	15068,95
706,59	13231,93
706,77	9326,45
706,96	7288,72
707,14	6510,49
707,32	5715,88
707,51	5511,08
707,69	4704,18
707,87	4130,75
708,06	3411,92
708,24	2875,35
708,42	2346,97
708,61	2197,47
708,79	1796,07
708,97	1783,78
709,16	1755,11
709,34	1845,22
709,52	1767,40
709,71	1748,97
709,89	1730,53
710,07	1738,73
710,26	1746,92
710,44	1716,20
710,62	1757,16
710,80	1705,96
710,99	1683,43
711,17	1857,51
711,35	1626,09
711,54	1673,19
711,72	1771,49
711,90	1769,44
712,09	1763,30
712,27	1714,15
712,45	1716,20
712,63	1712,10
712,82	1669,09
713,00	1753,06
713,18	1761,25
713,37	1832,93
713,55	1798,12
713,73	1669,09
713,91	1736,68
714,10	1621,99
714,28	1697,77
714,46	1746,92
714,65	1789,92
714,83	1638,38
715,01	1712,10
715,19	1710,05
715,38	1646,57
715,56	1736,68
715,74	1714,15
715,92	1648,61
716,11	1716,20
716,29	1624,04
716,47	1732,58
716,65	1669,09
716,84	1603,56
717,02	1765,35
717,20	1542,12
717,38	1689,57
717,57	1687,53
717,75	1650,66
717,93	1699,81
718,11	1779,68
718,30	1605,61
718,48	1726,44
718,66	1716,20
718,84	1822,69
719,03	1665,00
719,21	1646,57
719,39	1828,84
719,57	1738,73
719,75	1832,93
719,94	1722,34
720,12	1677,29
720,30	1732,58
720,48	1824,74
720,67	1658,85
720,85	1673,19
721,03	1708,01
721,21	1697,77
721,39	1730,53
721,58	1740,77
721,76	1728,49
721,94	1771,49
722,12	1742,82
722,30	1763,30
722,49	1746,92
722,67	1802,21
722,85	1691,62
723,03	1634,28
723,21	1691,62
723,40	1710,05
723,58	1708,01
723,76	1693,67
723,94	1798,12
724,12	1699,81
724,30	1841,12
724,49	1761,25
724,67	1628,14
724,85	1697,77
725,03	1667,05
725,21	1701,86
725,40	1841,12
725,58	1699,81
725,76	1740,77
725,94	1763,30
726,12	1673,19
726,30	1761,25
726,49	1701,86
726,67	1701,86
726,85	1734,63
727,03	1722,34
727,21	2197,47
727,39	2881,49
727,57	3868,61
727,76	4132,80
727,94	4382,65
728,12	4179,90
728,30	3669,96
728,48	2912,21
728,66	2777,05
728,84	2543,58
729,03	2291,68
729,21	2217,95
729,39	1984,48
729,57	1767,40
729,75	1794,02
729,93	1875,94
730,11	1685,48
730,30	1753,06
730,48	1693,67
730,66	1759,21
730,84	1787,88
731,02	1740,77
731,20	1683,43
731,38	1767,40
731,56	1609,70
731,74	1624,04
731,93	1771,49
732,11	1718,25
732,29	1656,81
732,47	1675,24
732,65	1699,81
732,83	1765,35
733,01	1757,16
733,19	1687,53
733,37	1767,40
733,56	1763,30
733,74	1634,28
733,92	1742,82
734,10	1640,42
734,28	1693,67
734,46	1621,99
734,64	1724,39
734,82	1652,71
735,00	1665,00
735,18	1644,52
735,36	1685,48
735,54	1726,44
735,73	1767,40
735,91	1746,92
736,09	1732,58
736,27	1665,00
736,45	1753,06
736,63	1568,74
736,81	1730,53
736,99	1722,34
737,17	1834,98
737,35	1593,32
737,53	1736,68
737,71	1675,24
737,89	1802,21
738,07	1669,09
738,25	1630,18
738,43	1624,04
738,61	1757,16
738,80	1673,19
738,98	1665,00
739,16	1689,57
739,34	1693,67
739,52	1773,54
739,70	1693,67
739,88	1779,68
740,06	1865,70
740,24	1644,52
740,42	1761,25
740,60	1593,32
740,78	1691,62
740,96	1599,46
741,14	1757,16
741,32	1769,44
741,50	1609,70
741,68	1826,79
741,86	1814,50
742,04	1648,61
742,22	1689,57
742,40	1687,53
742,58	1714,15
742,76	1748,97
742,94	1748,97
743,12	1642,47
743,30	1673,19
743,48	1767,40
743,66	1640,42
743,84	1751,01
744,02	1730,53
744,20	1736,68
744,38	1695,72
744,56	1660,90
744,74	1775,59
744,92	1744,87
745,10	1746,92
745,28	1837,03
745,46	1812,45
745,64	1781,73
745,82	1779,68
746,00	1718,25
746,18	1759,21
746,36	1675,24
746,54	1712,10
746,72	1638,38
746,90	1681,38
747,08	1798,12
747,26	1628,14
747,44	1705,96
747,62	1708,01
747,80	1751,01
747,98	1841,12
748,15	1697,77
748,33	1765,35
748,51	1751,01
748,69	1714,15
748,87	1724,39
749,05	1724,39
749,23	1736,68
749,41	1742,82
749,59	1685,48
749,77	1777,64
749,95	1789,92
750,13	1665,00
750,31	1748,97
750,49	1753,06
750,67	1753,06
750,85	1812,45
751,03	1716,20
751,20	1857,51
751,38	1697,77
751,56	1691,62
751,74	1683,43
751,92	1726,44
752,10	1640,42
752,28	1728,49
752,46	1685,48
752,64	1705,96
752,82	1710,05
753,00	1761,25
753,18	1642,47
753,35	1669,09
753,53	1673,19
753,71	1665,00
753,89	1765,35
754,07	1632,23
754,25	1765,35
754,43	1755,11
754,61	1632,23
754,79	1773,54
754,97	1738,73
755,14	1757,16
755,32	1671,14
755,50	1732,58
755,68	1712,10
755,86	1673,19
756,04	1685,48
756,22	1607,66
756,40	1804,26
756,57	1863,65
756,75	1736,68
756,93	1789,92
757,11	1728,49
757,29	1621,99
757,47	1624,04
757,65	1675,24
757,82	1574,89
758,00	1652,71
758,18	1710,05
758,36	1650,66
758,54	1816,55
758,72	1572,84
758,90	1781,73
759,07	1730,53
759,25	1708,01
759,43	1746,92
759,61	1601,51
759,79	2125,79
759,97	1777,64
760,15	1644,52
760,32	1660,90
760,50	1744,87
760,68	1837,03
760,86	1640,42
761,04	1753,06
761,22	1742,82
761,39	1722,34
761,57	1738,73
761,75	1755,11
761,93	1785,83
762,11	1691,62
762,28	1652,71
762,46	1730,53
762,64	1798,12
762,82	1673,19
763,00	1687,53
763,18	1769,44
763,35	1673,19
763,53	1769,44
763,71	1722,34
763,89	1740,77
764,07	1742,82
764,24	1724,39
764,42	1781,73
764,60	1689,57
764,78	1691,62
764,96	1769,44
765,13	1740,77
765,31	1644,52
765,49	1681,38
765,67	1615,85
765,84	1669,09
766,02	1665,00
766,20	1615,85
766,38	1746,92
766,56	1724,39
766,73	1722,34
766,91	1693,67
767,09	1624,04
767,27	1755,11
767,44	1687,53
767,62	1677,29
767,80	1724,39
767,98	1687,53
768,15	1691,62
768,33	1783,78
768,51	1757,16
768,69	1863,65
768,87	1689,57
769,04	1806,31
769,22	1839,08
769,40	1890,28
769,58	1865,70
769,75	1730,53
769,93	1837,03
770,11	1681,38
770,28	1669,09
770,46	1789,92
770,64	1800,16
770,82	1683,43
770,99	1683,43
771,17	1718,25
771,35	1714,15
771,53	1728,49
771,70	1734,63
771,88	1763,30
772,06	1720,29
772,23	1667,05
772,41	1796,07
772,59	1671,14
772,77	1701,86
772,94	1701,86
773,12	1810,40
773,30	1693,67
773,47	1693,67
773,65	1628,14
773,83	1759,21
774,01	1724,39
774,18	1544,17
774,36	1673,19
774,54	1634,28
774,71	1748,97
774,89	1650,66
775,07	1667,05
775,24	1701,86
775,42	1742,82
775,60	1888,23
775,78	1640,42
775,95	1646,57
776,13	1572,84
776,31	1619,94
776,48	1814,50
776,66	1781,73
776,84	1687,53
777,01	1681,38
777,19	1697,77
777,37	1673,19
777,54	1697,77
777,72	1863,65
777,90	1751,01
778,07	1720,29
778,25	1882,08
778,43	1759,21
778,60	1648,61
778,78	1765,35
778,96	1791,97
779,13	1665,00
779,31	1767,40
779,49	1726,44
779,66	1728,49
779,84	1669,09
780,01	1640,42
780,19	1732,58
780,37	1673,19
780,54	1761,25
780,72	1669,09
780,90	1708,01
781,07	1636,33
781,25	1693,67
781,43	1748,97
781,60	1636,33
781,78	1722,34
781,95	1685,48
782,13	1562,60
782,31	1714,15
782,48	1599,46
782,66	1662,95
782,83	1861,60
783,01	1701,86
783,19	1773,54
783,36	1769,44
783,54	1677,29
783,72	1738,73
783,89	1671,14
784,07	1638,38
784,24	1791,97
784,42	1791,97
784,60	1708,01
784,77	1726,44
784,95	1617,90
785,12	1687,53
785,30	1814,50
785,47	1695,72
785,65	1677,29
785,83	1738,73
786,00	1677,29
786,18	1683,43
786,35	1615,85
786,53	1716,20
786,71	1783,78
786,88	1746,92
787,06	1734,63
787,23	1732,58
787,41	1650,66
787,58	1683,43
787,76	1665,00
787,94	1744,87
788,11	1738,73
788,29	1607,66
788,46	1683,43
788,64	1689,57
788,81	1673,19
788,99	1685,48
789,16	1621,99
789,34	1722,34
789,52	1691,62
789,69	1683,43
789,87	1644,52
790,04	1679,33
790,22	1724,39
790,39	1804,26
790,57	1705,96
790,74	1654,76
790,92	1730,53
791,09	1687,53
791,27	1744,87
791,44	1783,78
791,62	1697,77
791,79	1695,72
791,97	1789,92
792,15	1880,04
792,32	1757,16
792,50	1718,25
792,67	1804,26
792,85	1751,01
793,02	1718,25
793,20	1671,14
793,37	1583,08
793,55	1701,86
793,72	1607,66
793,90	1673,19
794,07	1712,10
794,25	1695,72
794,42	1701,86
794,60	1755,11
794,77	1722,34
794,95	1779,68
795,12	1734,63
795,30	1683,43
795,47	1671,14
795,65	1861,60
795,82	1714,15
796,00	1648,61
796,17	1644,52
796,34	1603,56
796,52	1660,90
796,69	1751,01
796,87	1787,88
797,04	1714,15
797,22	1800,16
797,39	1660,90
797,57	1726,44
797,74	1742,82
797,92	1648,61
798,09	1726,44
798,27	1832,93
798,44	1726,44
798,62	1650,66
798,79	1705,96
798,96	1742,82
799,14	1757,16
799,31	1841,12
799,49	1652,71
799,66	1683,43
799,84	1791,97
800,01	1570,79
800,19	1730,53
800,36	1597,42
800,53	1716,20
800,71	1662,95
800,88	1751,01
801,06	1673,19
801,23	1615,85
801,41	1679,33
801,58	1632,23
801,75	1722,34
801,93	1736,68
802,10	1820,64
802,28	1722,34
802,45	1665,00
802,63	1783,78
802,80	1814,50
802,97	1746,92
803,15	1695,72
803,32	1710,05
803,50	1632,23
803,67	1701,86
803,84	1667,05
804,02	1701,86
804,19	1730,53
804,37	1691,62
804,54	1634,28
804,71	1740,77
804,89	1714,15
805,06	1738,73
805,24	1654,76
805,41	1693,67
805,58	1732,58
805,76	1888,23
805,93	1705,96
806,10	1845,22
806,28	1755,11
806,45	1730,53
806,63	1669,09
806,80	1771,49
806,97	1716,20
807,15	1763,30
807,32	1703,91
807,49	1691,62
807,67	1689,57
807,84	1824,74
808,01	1654,76
808,19	1804,26
808,36	1861,60
808,54	1693,67
808,71	1669,09
808,88	1759,21
809,06	1722,34
809,23	1802,21
809,40	1650,66
809,58	1746,92
809,75	1691,62
809,92	1576,94
810,10	1953,76
810,27	1710,05
810,44	1720,29
810,62	1812,45
810,79	1734,63
810,96	1722,34
811,14	1642,47
811,31	1740,77
811,48	1746,92
811,66	1691,62
811,83	1732,58
812,00	1832,93
812,18	1689,57
812,35	1904,61
812,52	1624,04
812,69	1691,62
812,87	1669,09
813,04	1673,19
813,21	1726,44
813,39	1667,05
813,56	1650,66
813,73	1775,59
813,91	1634,28
814,08	1738,73
814,25	1779,68
814,42	1607,66
814,60	1673,19
814,77	1689,57
814,94	1679,33
815,12	1617,90
815,29	1722,34
815,46	1751,01
815,63	1720,29
815,81	1669,09
815,98	1755,11
816,15	1734,63
816,33	1738,73
816,50	1660,90
816,67	1644,52
816,84	1699,81
817,02	1679,33
817,19	1695,72
817,36	1689,57
817,53	1679,33
817,71	1667,05
817,88	1740,77
818,05	1748,97
818,22	1648,61
818,40	1826,79
818,57	1689,57
818,74	1732,58
818,91	1755,11
819,09	1810,40
819,26	1660,90
819,43	1724,39
819,60	1740,77
819,78	1746,92
819,95	1816,55
820,12	1624,04
820,29	1816,55
820,47	1716,20
820,64	1757,16
820,81	1669,09
820,98	1679,33
821,15	1714,15
821,33	1755,11
821,50	1574,89
821,67	1746,92
821,84	1585,13
822,02	1720,29
822,19	1791,97
822,36	1722,34
822,53	1621,99
822,70	1652,71
822,88	1593,32
823,05	1808,36
823,22	1726,44
823,39	1718,25
823,56	1712,10
823,74	1841,12
823,91	1617,90
824,08	1685,48
824,25	1683,43
824,42	1796,07
824,60	1601,51
824,77	1814,50
824,94	1740,77
825,11	1753,06
825,28	1611,75
825,45	1718,25
825,63	1783,78
825,80	1716,20
825,97	1753,06
826,14	1658,85
826,31	1628,14
826,48	1724,39
826,66	1638,38
826,83	1695,72
827,00	1738,73
827,17	1619,94
827,34	1714,15
827,51	1607,66
827,69	1685,48
827,86	1687,53
828,03	1691,62
828,20	1691,62
828,37	1724,39
828,54	1714,15
828,71	1724,39
828,89	1746,92
829,06	1632,23
829,23	1820,64
829,40	1677,29
829,57	1677,29
829,74	1718,25
829,91	1644,52
830,09	1648,61
830,26	1804,26
830,43	1738,73
830,60	1701,86
830,77	1787,88
830,94	1755,11
831,11	1720,29
831,28	1656,81
831,46	1794,02
831,63	1652,71
831,80	1751,01
831,97	1693,67
832,14	1714,15
832,31	1703,91
832,48	1699,81
832,65	1757,16
832,82	1679,33
832,99	1781,73
833,17	1626,09
833,34	1753,06
833,51	1769,44
833,68	1677,29
833,85	1777,64
834,02	1656,81
834,19	1658,85
834,36	1619,94
834,53	1742,82
834,70	1722,34
834,87	1767,40
835,04	1757,16
835,22	1675,24
835,39	1712,10
835,56	1642,47
835,73	1701,86
835,90	1789,92
836,07	1654,76
836,24	1781,73
836,41	1677,29
836,58	1710,05
836,75	1775,59
836,92	1718,25
837,09	1677,29
837,26	1748,97
837,43	1673,19
837,60	1701,86
837,77	1671,14
837,94	1777,64
838,12	1781,73
838,29	1730,53
838,46	1630,18
838,63	1710,05
838,80	1748,97
838,97	1722,34
839,14	1632,23
839,31	1665,00
839,48	1732,58
839,65	1736,68
839,82	1769,44
839,99	1714,15
840,16	1681,38
840,33	1681,38
840,50	1654,76
840,67	1677,29
840,84	1601,51
841,01	1755,11
841,18	1728,49
841,35	1679,33
841,52	1845,22
841,69	1849,32
841,86	1679,33
842,03	1679,33
842,20	1765,35
842,37	1665,00
842,54	1691,62
842,71	1720,29
842,88	1669,09
843,05	1710,05
843,22	1681,38
843,39	1699,81
843,56	1697,77
843,73	1738,73
843,90	1771,49
844,07	1736,68
844,24	1732,58
844,41	1732,58
844,58	1736,68
844,75	1732,58
844,92	1761,25
845,09	1734,63
845,26	1650,66
845,43	1693,67
845,60	1730,53
845,77	1744,87
845,94	1718,25
846,10	1804,26
846,27	1640,42
846,44	1662,95
846,61	1665,00
846,78	1712,10
846,95	1773,54
847,12	1718,25
847,29	1708,01
847,46	1685,48
847,63	1851,36
847,80	1683,43
847,97	1746,92
848,14	1802,21
848,31	1667,05
848,48	1630,18
848,65	1652,71
848,82	1720,29
848,98	1939,43
849,15	1812,45
849,32	1826,79
849,49	1767,40
849,66	1710,05
849,83	1654,76
850,00	1617,90
850,17	1789,92
850,34	1740,77
850,51	1681,38
850,68	1632,23
850,85	1822,69
851,01	1708,01
851,18	1744,87
851,35	1697,77
851,52	1730,53
851,69	1775,59
851,86	1587,18
852,03	1636,33
852,20	1800,16
852,37	1662,95
852,53	1662,95
852,70	1691,62
852,87	1691,62
853,04	1779,68
853,21	1705,96
853,38	1796,07
853,55	1773,54
853,72	1787,88
853,89	1619,94
854,05	1732,58
854,22	1677,29
854,39	1628,14
854,56	1638,38
854,73	1828,84
854,90	1699,81
855,07	1718,25
855,23	1648,61
855,40	1648,61
855,57	1677,29
855,74	1660,90
855,91	1896,42
856,08	1632,23
856,25	1667,05
856,41	1669,09
856,58	1646,57
856,75	1660,90
856,92	1656,81
857,09	1787,88
857,26	1658,85
857,42	1710,05
857,59	1740,77
857,76	1681,38
857,93	1757,16
858,10	1751,01
858,27	1619,94
858,43	1701,86
858,60	1644,52
858,77	1591,27
858,94	1767,40
859,11	1777,64
859,27	1720,29
859,44	1683,43
859,61	1783,78
859,78	1748,97
859,95	1691,62
860,12	1642,47
860,28	1841,12
860,45	1849,32
860,62	1677,29
860,79	1755,11
860,95	1710,05
861,12	1656,81
861,29	1710,05
861,46	1656,81
861,63	1720,29
861,79	1781,73
861,96	1703,91
862,13	1665,00
862,30	1783,78
862,47	1691,62
862,63	1699,81
862,80	1718,25
862,97	1791,97
863,14	1724,39
863,30	1714,15
863,47	1599,46
863,64	1701,86
863,81	1751,01
863,97	1738,73
864,14	1685,48
864,31	1691,62
864,48	1675,24
864,65	1693,67
864,81	1718,25
864,98	1710,05
865,15	1775,59
865,32	1763,30
865,48	1718,25
865,65	1779,68
865,82	1640,42
865,98	1796,07
866,15	1734,63
866,32	1703,91
866,49	1638,38
866,65	1742,82
866,82	1695,72
866,99	1681,38
867,16	1726,44
867,32	1681,38
867,49	1701,86
867,66	1701,86
867,83	1585,13
867,99	1708,01
868,16	1699,81
868,33	1568,74
868,49	1679,33
868,66	1691,62
868,83	1738,73
868,99	1718,25
869,16	1763,30
869,33	1822,69
869,50	1732,58
869,66	1751,01
869,83	1730,53
870,00	1681,38
870,16	1724,39
870,33	1650,66
870,50	1710,05
870,66	1746,92
870,83	1789,92
871,00	1646,57
871,17	1722,34
871,33	1804,26
871,50	1714,15
871,67	1703,91
871,83	1624,04
872,00	1800,16
872,17	1685,48
872,33	1859,56
872,50	1789,92
872,67	1632,23
872,83	1654,76
873,00	1740,77
873,17	1720,29
873,33	1769,44
873,50	1746,92
873,67	1681,38
873,83	1673,19
874,00	1718,25
874,16	1773,54
874,33	1720,29
874,50	1609,70
874,66	1755,11
874,83	1693,67
875,00	1701,86
875,16	1705,96
875,33	1738,73
875,50	1624,04
875,66	1667,05
875,83	1665,00
875,99	1759,21
876,16	1742,82
876,33	1638,38
876,49	1718,25
876,66	1767,40
876,83	1671,14
876,99	1634,28
877,16	1708,01
877,32	1718,25
877,49	1675,24
877,66	1665,00
877,82	1785,83
877,99	1777,64
878,15	1738,73
878,32	1708,01
878,49	1712,10
878,65	1615,85
878,82	1888,23
878,98	1667,05
879,15	1826,79
879,32	1789,92
879,48	1654,76
879,65	1656,81
879,81	1607,66
879,98	1724,39
880,15	1724,39
880,31	1767,40
880,48	1716,20
880,64	1742,82
880,81	1652,71
880,97	1816,55
881,14	1718,25
881,31	1615,85
881,47	1806,31
881,64	1738,73
881,80	1630,18
881,97	1685,48
882,13	1783,78
882,30	1736,68
882,47	1558,50
882,63	1617,90
882,80	1632,23
882,96	1714,15
883,13	1763,30
883,29	1730,53
883,46	1779,68
883,62	1757,16
883,79	1755,11
883,95	1773,54
884,12	1724,39
884,29	1851,36
884,45	1673,19
884,62	1796,07
884,78	1656,81
884,95	1804,26
885,11	1691,62
885,28	1697,77
885,44	1656,81
885,61	1753,06
885,77	1802,21
885,94	1794,02
886,10	1697,77
886,27	1683,43
886,43	1718,25
886,60	1847,27
886,76	1697,77
886,93	1695,72
887,09	1718,25
887,26	1542,12
887,42	1585,13
887,59	1744,87
887,75	1806,31
887,92	1773,54
888,08	1763,30
888,25	1753,06
888,41	1767,40
888,58	1744,87
888,74	1654,76
888,91	1724,39
>>>>>End Processed Spectral Data<<<<<
