SpectraSuite Data File
++++++++++++++++++++++++++++++++++++
Date: Mon Jun 06 15:41:17 CEST 2016
User: root
Dark Spectrum Present: No
Reference Spectrum Present: No
Number of Sampled Component Spectra: 1
Spectrometers: USB4C02835
Integration Time (usec): 100000 (USB4C02835)
Spectra Averaged: 1 (USB4C02835)
Boxcar Smoothing: 0 (USB4C02835)
Correct for Electrical Dark: No (USB4C02835)
Strobe/Lamp Enabled: No (USB4C02835)
Correct for Detector Non-linearity: No (USB4C02835)
Correct for Stray Light: No (USB4C02835)
Number of Pixels in Processed Spectrum: 3648
>>>>>Begin Processed Spectral Data<<<<<
177,47	1437,67
177,69	1437,67
177,91	1437,67
178,13	1466,35
178,36	1542,12
178,58	1587,18
178,80	1703,91
179,02	1648,61
179,24	1679,33
179,46	1693,67
179,68	1759,21
179,90	1720,29
180,13	1720,29
180,35	1658,85
180,57	1814,50
180,79	1740,77
181,01	1683,43
181,23	1748,97
181,45	1822,69
181,67	1675,24
181,90	1742,82
182,12	1656,81
182,34	1628,14
182,56	1726,44
182,78	1769,44
183,00	1781,73
183,22	1722,34
183,44	1611,75
183,66	1927,14
183,89	1806,31
184,11	1720,29
184,33	1656,81
184,55	1763,30
184,77	1826,79
184,99	1708,01
185,21	1699,81
185,43	1808,36
185,65	1652,71
185,87	1738,73
186,10	1767,40
186,32	1755,11
186,54	1753,06
186,76	1744,87
186,98	1728,49
187,20	1681,38
187,42	1740,77
187,64	1689,57
187,86	1681,38
188,08	1714,15
188,30	1699,81
188,52	1681,38
188,75	1757,16
188,97	1744,87
189,19	1748,97
189,41	1667,05
189,63	1791,97
189,85	1632,23
190,07	1634,28
190,29	1581,03
190,51	1765,35
190,73	1662,95
190,95	1882,08
191,17	1681,38
191,39	1665,00
191,61	1648,61
191,84	1603,56
192,06	1693,67
192,28	1679,33
192,50	1832,93
192,72	1675,24
192,94	1638,38
193,16	1748,97
193,38	1714,15
193,60	1662,95
193,82	1728,49
194,04	1738,73
194,26	1716,20
194,48	1683,43
194,70	1677,29
194,92	1685,48
195,14	1671,14
195,36	1679,33
195,58	1736,68
195,80	1673,19
196,02	1658,85
196,24	1763,30
196,46	1691,62
196,69	1691,62
196,91	1806,31
197,13	1708,01
197,35	1585,13
197,57	1746,92
197,79	1763,30
198,01	1736,68
198,23	1726,44
198,45	1730,53
198,67	1718,25
198,89	1724,39
199,11	1714,15
199,33	1673,19
199,55	1665,00
199,77	1742,82
199,99	1699,81
200,21	1646,57
200,43	1710,05
200,65	1724,39
200,87	1609,70
201,09	1701,86
201,31	1697,77
201,53	1771,49
201,75	1718,25
201,97	1759,21
202,19	1697,77
202,41	1669,09
202,63	1832,93
202,85	1703,91
203,07	1796,07
203,29	1734,63
203,51	1628,14
203,73	1644,52
203,95	1929,19
204,17	1710,05
204,39	1673,19
204,61	1703,91
204,83	1685,48
205,05	1753,06
205,27	1783,78
205,49	1828,84
205,71	1669,09
205,93	1542,12
206,15	1640,42
206,37	1732,58
206,59	1787,88
206,81	1730,53
207,03	1628,14
207,25	1648,61
207,47	1693,67
207,69	1673,19
207,91	1748,97
208,13	1705,96
208,34	1634,28
208,56	1675,24
208,78	1746,92
209,00	1728,49
209,22	1656,81
209,44	1630,18
209,66	1662,95
209,88	1769,44
210,10	1642,47
210,32	1697,77
210,54	1775,59
210,76	1722,34
210,98	1748,97
211,20	1548,26
211,42	1689,57
211,64	1865,70
211,86	1748,97
212,08	1738,73
212,30	1736,68
212,52	1724,39
212,74	1716,20
212,96	1710,05
213,17	1755,11
213,39	1708,01
213,61	1837,03
213,83	1673,19
214,05	1583,08
214,27	1791,97
214,49	1566,70
214,71	1624,04
214,93	1820,64
215,15	1669,09
215,37	1740,77
215,59	1617,90
215,81	1734,63
216,03	1773,54
216,24	1617,90
216,46	1701,86
216,68	1695,72
216,90	1701,86
217,12	1779,68
217,34	1728,49
217,56	1732,58
217,78	1746,92
218,00	1681,38
218,22	1769,44
218,44	1722,34
218,66	1734,63
218,87	1855,46
219,09	1693,67
219,31	1730,53
219,53	1802,21
219,75	1576,94
219,97	1738,73
220,19	1673,19
220,41	1687,53
220,63	1855,46
220,85	1734,63
221,06	1712,10
221,28	1859,56
221,50	1769,44
221,72	1728,49
221,94	1667,05
222,16	1705,96
222,38	1714,15
222,60	1742,82
222,82	1683,43
223,03	1787,88
223,25	1640,42
223,47	1718,25
223,69	1845,22
223,91	1757,16
224,13	1705,96
224,35	1685,48
224,57	1742,82
224,78	1753,06
225,00	1621,99
225,22	1734,63
225,44	1771,49
225,66	1722,34
225,88	1667,05
226,10	1812,45
226,32	1753,06
226,53	1847,27
226,75	1687,53
226,97	1665,00
227,19	1738,73
227,41	1591,27
227,63	1697,77
227,85	1587,18
228,06	1767,40
228,28	1710,05
228,50	1722,34
228,72	1615,85
228,94	1687,53
229,16	1634,28
229,37	1662,95
229,59	1679,33
229,81	1720,29
230,03	1744,87
230,25	1648,61
230,47	1613,80
230,69	1665,00
230,90	1746,92
231,12	1603,56
231,34	1693,67
231,56	1722,34
231,78	1589,22
232,00	1673,19
232,21	1716,20
232,43	1718,25
232,65	1568,74
232,87	1787,88
233,09	1703,91
233,30	1640,42
233,52	1761,25
233,74	1714,15
233,96	1626,09
234,18	1712,10
234,40	1646,57
234,61	1802,21
234,83	1619,94
235,05	1648,61
235,27	1933,28
235,49	1822,69
235,70	1718,25
235,92	1812,45
236,14	1705,96
236,36	1861,60
236,58	1636,33
236,79	1689,57
237,01	1675,24
237,23	1767,40
237,45	1804,26
237,67	1718,25
237,88	1744,87
238,10	1812,45
238,32	1652,71
238,54	1714,15
238,76	1751,01
238,97	1650,66
239,19	1751,01
239,41	1734,63
239,63	1771,49
239,85	1642,47
240,06	1734,63
240,28	1732,58
240,50	1773,54
240,72	1703,91
240,93	1771,49
241,15	1806,31
241,37	1757,16
241,59	1773,54
241,81	1732,58
242,02	1650,66
242,24	1685,48
242,46	1800,16
242,68	1615,85
242,89	1773,54
243,11	1781,73
243,33	1724,39
243,55	1681,38
243,76	1716,20
243,98	1695,72
244,20	1638,38
244,42	1728,49
244,64	1613,80
244,85	1669,09
245,07	1660,90
245,29	1720,29
245,51	1740,77
245,72	1748,97
245,94	1767,40
246,16	1761,25
246,38	1667,05
246,59	1675,24
246,81	1714,15
247,03	1654,76
247,24	1587,18
247,46	1730,53
247,68	1714,15
247,90	1697,77
248,11	1691,62
248,33	1699,81
248,55	1687,53
248,77	1736,68
248,98	1810,40
249,20	1751,01
249,42	1695,72
249,64	1751,01
249,85	1648,61
250,07	1710,05
250,29	1851,36
250,50	1746,92
250,72	1636,33
250,94	1734,63
251,16	1808,36
251,37	1820,64
251,59	1736,68
251,81	1708,01
252,02	1857,51
252,24	1687,53
252,46	1810,40
252,68	1642,47
252,89	1693,67
253,11	1648,61
253,33	1791,97
253,54	1746,92
253,76	1648,61
253,98	1652,71
254,20	1771,49
254,41	1644,52
254,63	1689,57
254,85	1652,71
255,06	1738,73
255,28	1708,01
255,50	1724,39
255,71	1679,33
255,93	1587,18
256,15	1759,21
256,36	1787,88
256,58	1714,15
256,80	1759,21
257,02	1652,71
257,23	1730,53
257,45	1740,77
257,67	1736,68
257,88	1611,75
258,10	1751,01
258,32	1621,99
258,53	1802,21
258,75	1816,55
258,97	1640,42
259,18	1730,53
259,40	1693,67
259,62	1796,07
259,83	1841,12
260,05	1777,64
260,27	1994,72
260,48	1773,54
260,70	1646,57
260,92	1697,77
261,13	1753,06
261,35	1767,40
261,57	1791,97
261,78	1599,46
262,00	1587,18
262,22	1746,92
262,43	1701,86
262,65	1691,62
262,86	1669,09
263,08	1804,26
263,30	1708,01
263,51	1615,85
263,73	1665,00
263,95	1834,98
264,16	1697,77
264,38	1617,90
264,60	1794,02
264,81	1689,57
265,03	1787,88
265,25	1722,34
265,46	1746,92
265,68	1716,20
265,89	1724,39
266,11	1636,33
266,33	1746,92
266,54	1796,07
266,76	1726,44
266,98	1742,82
267,19	1744,87
267,41	1753,06
267,62	1718,25
267,84	1601,51
268,06	1728,49
268,27	1746,92
268,49	1718,25
268,70	1746,92
268,92	1701,86
269,14	1656,81
269,35	1662,95
269,57	1734,63
269,79	1736,68
270,00	1693,67
270,22	1812,45
270,43	1726,44
270,65	1556,46
270,87	1689,57
271,08	1673,19
271,30	1722,34
271,51	1738,73
271,73	1728,49
271,95	1890,28
272,16	1724,39
272,38	1691,62
272,59	1679,33
272,81	1732,58
273,02	1673,19
273,24	1720,29
273,46	1708,01
273,67	1619,94
273,89	1630,18
274,10	1705,96
274,32	1794,02
274,54	1773,54
274,75	1748,97
274,97	1665,00
275,18	1759,21
275,40	1712,10
275,61	1720,29
275,83	1689,57
276,05	1736,68
276,26	1708,01
276,48	1808,36
276,69	1716,20
276,91	1662,95
277,12	1740,77
277,34	1736,68
277,55	1757,16
277,77	1789,92
277,99	1765,35
278,20	1691,62
278,42	1712,10
278,63	1648,61
278,85	1722,34
279,06	1570,79
279,28	1689,57
279,49	1794,02
279,71	1701,86
279,93	1710,05
280,14	1662,95
280,36	1767,40
280,57	1769,44
280,79	1662,95
281,00	1681,38
281,22	1634,28
281,43	1806,31
281,65	1638,38
281,86	1722,34
282,08	1759,21
282,29	1859,56
282,51	1724,39
282,73	1628,14
282,94	1632,23
283,16	1751,01
283,37	1820,64
283,59	1791,97
283,80	1697,77
284,02	1765,35
284,23	1689,57
284,45	1716,20
284,66	1705,96
284,88	1712,10
285,09	1734,63
285,31	1732,58
285,52	1742,82
285,74	1634,28
285,95	1806,31
286,17	1697,77
286,38	1769,44
286,60	1683,43
286,81	1714,15
287,03	1681,38
287,24	1744,87
287,46	1775,59
287,67	1753,06
287,89	1834,98
288,10	1677,29
288,32	1720,29
288,53	1703,91
288,75	1681,38
288,96	1722,34
289,18	1710,05
289,39	1705,96
289,61	1767,40
289,82	1832,93
290,04	1812,45
290,25	1656,81
290,47	1771,49
290,68	1650,66
290,90	1808,36
291,11	1701,86
291,33	1730,53
291,54	1630,18
291,76	1626,09
291,97	1759,21
292,18	1798,12
292,40	1679,33
292,61	1667,05
292,83	1849,32
293,04	1722,34
293,26	1757,16
293,47	1742,82
293,69	1660,90
293,90	1781,73
294,12	1812,45
294,33	1638,38
294,55	1681,38
294,76	1755,11
294,97	1796,07
295,19	1834,98
295,40	1613,80
295,62	1734,63
295,83	1794,02
296,05	1685,48
296,26	1773,54
296,48	1603,56
296,69	1765,35
296,90	1636,33
297,12	1751,01
297,33	1785,83
297,55	1703,91
297,76	1726,44
297,98	1753,06
298,19	1773,54
298,41	1687,53
298,62	1646,57
298,83	1794,02
299,05	1662,95
299,26	1673,19
299,48	1656,81
299,69	1783,78
299,90	1673,19
300,12	1638,38
300,33	1677,29
300,55	1726,44
300,76	1751,01
300,98	1714,15
301,19	1767,40
301,40	1716,20
301,62	1615,85
301,83	1693,67
302,05	1644,52
302,26	1718,25
302,47	1824,74
302,69	1650,66
302,90	1720,29
303,12	1632,23
303,33	1761,25
303,54	1796,07
303,76	1589,22
303,97	1726,44
304,19	1771,49
304,40	1689,57
304,61	1738,73
304,83	1814,50
305,04	1742,82
305,26	1708,01
305,47	1669,09
305,68	1687,53
305,90	1679,33
306,11	1742,82
306,33	1669,09
306,54	1687,53
306,75	1669,09
306,97	1701,86
307,18	1687,53
307,39	1726,44
307,61	1708,01
307,82	1652,71
308,04	1740,77
308,25	1691,62
308,46	1708,01
308,68	1728,49
308,89	1691,62
309,10	1777,64
309,32	1718,25
309,53	1691,62
309,74	1755,11
309,96	1744,87
310,17	1810,40
310,39	1730,53
310,60	1812,45
310,81	1697,77
311,03	1665,00
311,24	1683,43
311,45	1697,77
311,67	1826,79
311,88	1708,01
312,09	1718,25
312,31	1703,91
312,52	1691,62
312,73	1665,00
312,95	1636,33
313,16	1728,49
313,37	1841,12
313,59	1763,30
313,80	1742,82
314,01	1697,77
314,23	1675,24
314,44	1732,58
314,65	1652,71
314,87	1691,62
315,08	1658,85
315,29	1658,85
315,51	1624,04
315,72	1634,28
315,93	1832,93
316,15	1796,07
316,36	1675,24
316,57	1740,77
316,79	1802,21
317,00	1640,42
317,21	1742,82
317,43	1650,66
317,64	1701,86
317,85	1685,48
318,07	1726,44
318,28	1728,49
318,49	1849,32
318,70	1851,36
318,92	1822,69
319,13	1810,40
319,34	1855,46
319,56	1767,40
319,77	1796,07
319,98	1781,73
320,20	1828,84
320,41	1693,67
320,62	1757,16
320,83	1662,95
321,05	1775,59
321,26	1683,43
321,47	1734,63
321,69	1837,03
321,90	1701,86
322,11	1669,09
322,32	1718,25
322,54	1785,83
322,75	1697,77
322,96	1812,45
323,18	1677,29
323,39	1572,84
323,60	1644,52
323,81	1767,40
324,03	1740,77
324,24	1677,29
324,45	1722,34
324,66	1609,70
324,88	1718,25
325,09	1791,97
325,30	1732,58
325,52	1742,82
325,73	1746,92
325,94	1697,77
326,15	1662,95
326,37	1699,81
326,58	1859,56
326,79	1841,12
327,00	1630,18
327,22	1728,49
327,43	1640,42
327,64	1646,57
327,85	1734,63
328,07	1742,82
328,28	1781,73
328,49	1644,52
328,70	1751,01
328,92	1640,42
329,13	1708,01
329,34	1689,57
329,55	1861,60
329,76	1796,07
329,98	1679,33
330,19	1843,17
330,40	1716,20
330,61	1738,73
330,83	1738,73
331,04	1638,38
331,25	1665,00
331,46	1710,05
331,68	1681,38
331,89	1751,01
332,10	1720,29
332,31	1667,05
332,52	1748,97
332,74	1779,68
332,95	1673,19
333,16	1757,16
333,37	1757,16
333,58	1730,53
333,80	1755,11
334,01	1611,75
334,22	1769,44
334,43	1662,95
334,64	1773,54
334,86	1644,52
335,07	1646,57
335,28	1830,88
335,49	1726,44
335,70	1765,35
335,92	1802,21
336,13	1873,89
336,34	1769,44
336,55	1724,39
336,76	1705,96
336,98	1662,95
337,19	1746,92
337,40	1789,92
337,61	1857,51
337,82	1701,86
338,04	1794,02
338,25	1624,04
338,46	1656,81
338,67	1734,63
338,88	1673,19
339,09	1671,14
339,31	1722,34
339,52	1691,62
339,73	1726,44
339,94	1728,49
340,15	1812,45
340,36	1675,24
340,58	1765,35
340,79	1646,57
341,00	1742,82
341,21	1665,00
341,42	1775,59
341,63	1748,97
341,85	1705,96
342,06	1724,39
342,27	1595,37
342,48	1759,21
342,69	1642,47
342,90	1681,38
343,12	1796,07
343,33	1619,94
343,54	1789,92
343,75	1832,93
343,96	1736,68
344,17	1677,29
344,38	1652,71
344,60	1677,29
344,81	1660,90
345,02	1730,53
345,23	1791,97
345,44	1771,49
345,65	1712,10
345,86	1695,72
346,07	1646,57
346,29	1695,72
346,50	1732,58
346,71	1689,57
346,92	1904,61
347,13	1904,61
347,34	1652,71
347,55	1689,57
347,76	1701,86
347,98	1560,55
348,19	1681,38
348,40	1812,45
348,61	1669,09
348,82	1736,68
349,03	1769,44
349,24	1685,48
349,45	1824,74
349,66	1667,05
349,88	1730,53
350,09	1708,01
350,30	1769,44
350,51	1777,64
350,72	1732,58
350,93	1765,35
351,14	1669,09
351,35	1783,78
351,56	1673,19
351,77	1734,63
351,99	1804,26
352,20	1810,40
352,41	1769,44
352,62	1603,56
352,83	1726,44
353,04	1824,74
353,25	1642,47
353,46	1705,96
353,67	1851,36
353,88	1615,85
354,09	1722,34
354,30	1681,38
354,52	1777,64
354,73	1724,39
354,94	1705,96
355,15	1687,53
355,36	1812,45
355,57	1726,44
355,78	1810,40
355,99	1648,61
356,20	1689,57
356,41	1714,15
356,62	1726,44
356,83	1744,87
357,04	1773,54
357,25	1732,58
357,46	1685,48
357,68	1617,90
357,89	1675,24
358,10	1746,92
358,31	1656,81
358,52	1777,64
358,73	1619,94
358,94	1621,99
359,15	1658,85
359,36	1734,63
359,57	1755,11
359,78	1689,57
359,99	1771,49
360,20	1708,01
360,41	1644,52
360,62	1853,41
360,83	1665,00
361,04	1646,57
361,25	1742,82
361,46	1785,83
361,67	1728,49
361,88	1716,20
362,09	1710,05
362,30	1767,40
362,51	1638,38
362,72	1726,44
362,93	1740,77
363,14	1724,39
363,35	1681,38
363,56	1665,00
363,78	1785,83
363,99	1734,63
364,20	1683,43
364,41	1685,48
364,62	1808,36
364,83	1753,06
365,04	1796,07
365,25	1617,90
365,46	1882,08
365,67	1705,96
365,88	1677,29
366,09	1677,29
366,30	1695,72
366,51	1748,97
366,72	1691,62
366,93	1732,58
367,14	1738,73
367,35	1820,64
367,56	1703,91
367,77	1853,41
367,98	1701,86
368,18	1761,25
368,39	1726,44
368,60	1687,53
368,81	1769,44
369,02	1769,44
369,23	1665,00
369,44	1611,75
369,65	1693,67
369,86	1769,44
370,07	1800,16
370,28	1673,19
370,49	1744,87
370,70	1855,46
370,91	1648,61
371,12	1648,61
371,33	1755,11
371,54	1777,64
371,75	1849,32
371,96	1644,52
372,17	1724,39
372,38	1648,61
372,59	1710,05
372,80	1691,62
373,01	1718,25
373,22	1728,49
373,43	1695,72
373,64	1724,39
373,85	1783,78
374,06	1787,88
374,26	1800,16
374,47	1705,96
374,68	1796,07
374,89	1730,53
375,10	1759,21
375,31	1767,40
375,52	1820,64
375,73	1703,91
375,94	1671,14
376,15	1769,44
376,36	1716,20
376,57	1638,38
376,78	1703,91
376,99	1730,53
377,20	1806,31
377,40	1662,95
377,61	1834,98
377,82	1689,57
378,03	1755,11
378,24	1781,73
378,45	1712,10
378,66	1789,92
378,87	1642,47
379,08	1636,33
379,29	1693,67
379,50	1697,77
379,71	1708,01
379,91	1771,49
380,12	1697,77
380,33	1767,40
380,54	1785,83
380,75	1730,53
380,96	1607,66
381,17	1802,21
381,38	1746,92
381,59	1748,97
381,80	1708,01
382,00	1910,75
382,21	1708,01
382,42	1814,50
382,63	1875,94
382,84	1716,20
383,05	1755,11
383,26	1861,60
383,47	1744,87
383,68	1761,25
383,88	1794,02
384,09	1720,29
384,30	1777,64
384,51	1736,68
384,72	1679,33
384,93	1679,33
385,14	1744,87
385,35	1734,63
385,55	1654,76
385,76	1761,25
385,97	1689,57
386,18	1675,24
386,39	1619,94
386,60	1665,00
386,81	1730,53
387,02	1660,90
387,22	1621,99
387,43	1806,31
387,64	1843,17
387,85	1820,64
388,06	2090,98
388,27	4208,58
388,48	6662,04
388,68	7892,87
388,89	9488,24
389,10	9789,29
389,31	8392,58
389,52	7503,76
389,73	6614,94
389,93	6203,30
390,14	5695,40
390,35	5062,58
390,56	4472,76
390,77	3780,55
390,98	3024,85
391,18	2555,86
391,39	2136,03
391,60	1820,64
391,81	1802,21
392,02	1722,34
392,23	1804,26
392,43	1806,31
392,64	1841,12
392,85	1748,97
393,06	1796,07
393,27	1685,48
393,47	1697,77
393,68	1677,29
393,89	1744,87
394,10	1734,63
394,31	1693,67
394,52	1705,96
394,72	1726,44
394,93	1712,10
395,14	1667,05
395,35	1718,25
395,56	1751,01
395,76	1714,15
395,97	1812,45
396,18	1902,56
396,39	1832,93
396,60	2045,92
396,80	1933,28
397,01	1824,74
397,22	1843,17
397,43	1804,26
397,64	1722,34
397,84	1812,45
398,05	1912,80
398,26	1773,54
398,47	1765,35
398,67	1802,21
398,88	1712,10
399,09	1777,64
399,30	1632,23
399,51	1734,63
399,71	1681,38
399,92	1697,77
400,13	1755,11
400,34	1712,10
400,54	1714,15
400,75	1841,12
400,96	1722,34
401,17	1863,65
401,37	1718,25
401,58	1748,97
401,79	1765,35
402,00	1828,84
402,21	1994,72
402,41	2035,68
402,62	1968,10
402,83	1996,77
403,04	1968,10
403,24	2093,02
403,45	1816,55
403,66	2009,06
403,87	1918,95
404,07	1796,07
404,28	1873,89
404,49	1853,41
404,70	1812,45
404,90	1802,21
405,11	1718,25
405,32	1732,58
405,52	1769,44
405,73	1658,85
405,94	1699,81
406,15	1742,82
406,35	1796,07
406,56	1662,95
406,77	1796,07
406,98	1748,97
407,18	1710,05
407,39	1806,31
407,60	1685,48
407,80	1716,20
408,01	1636,33
408,22	1699,81
408,43	1701,86
408,63	1738,73
408,84	1683,43
409,05	1802,21
409,25	1695,72
409,46	1603,56
409,67	1708,01
409,88	1697,77
410,08	1738,73
410,29	1712,10
410,50	1742,82
410,70	1740,77
410,91	1642,47
411,12	1771,49
411,32	1669,09
411,53	1685,48
411,74	1767,40
411,95	1757,16
412,15	1732,58
412,36	1757,16
412,57	1783,78
412,77	1830,88
412,98	1748,97
413,19	1705,96
413,39	1800,16
413,60	1806,31
413,81	1783,78
414,01	1718,25
414,22	1730,53
414,43	1812,45
414,63	1759,21
414,84	1771,49
415,05	1658,85
415,25	1697,77
415,46	1732,58
415,67	1669,09
415,87	1785,83
416,08	1699,81
416,29	1710,05
416,49	1777,64
416,70	1681,38
416,91	1648,61
417,11	1687,53
417,32	1771,49
417,53	1718,25
417,73	1716,20
417,94	1714,15
418,15	1746,92
418,35	1767,40
418,56	1658,85
418,77	1834,98
418,97	1681,38
419,18	1708,01
419,38	1621,99
419,59	1722,34
419,80	1761,25
420,00	1689,57
420,21	1775,59
420,42	1804,26
420,62	1708,01
420,83	1673,19
421,04	1685,48
421,24	1658,85
421,45	1722,34
421,65	1753,06
421,86	1687,53
422,07	1804,26
422,27	1722,34
422,48	1734,63
422,69	1665,00
422,89	1617,90
423,10	1673,19
423,30	1681,38
423,51	1705,96
423,72	1738,73
423,92	1763,30
424,13	1736,68
424,33	1699,81
424,54	1701,86
424,75	1779,68
424,95	1869,80
425,16	1767,40
425,36	1687,53
425,57	1791,97
425,78	1769,44
425,98	1818,60
426,19	1640,42
426,39	1665,00
426,60	1789,92
426,81	1763,30
427,01	1751,01
427,22	1716,20
427,42	1654,76
427,63	1654,76
427,83	1703,91
428,04	1822,69
428,25	1839,08
428,45	1767,40
428,66	1738,73
428,86	1648,61
429,07	1722,34
429,28	1730,53
429,48	1726,44
429,69	1708,01
429,89	1718,25
430,10	1738,73
430,30	1738,73
430,51	1798,12
430,71	1726,44
430,92	1742,82
431,13	1673,19
431,33	1703,91
431,54	1771,49
431,74	1863,65
431,95	1892,32
432,15	1615,85
432,36	1748,97
432,56	1775,59
432,77	1769,44
432,98	1900,52
433,18	1746,92
433,39	1708,01
433,59	1744,87
433,80	1845,22
434,00	1908,71
434,21	1701,86
434,41	1652,71
434,62	1910,75
434,82	1654,76
435,03	1679,33
435,23	1714,15
435,44	1660,90
435,64	1714,15
435,85	1783,78
436,06	1718,25
436,26	1804,26
436,47	1726,44
436,67	1701,86
436,88	1712,10
437,08	1781,73
437,29	1800,16
437,49	1695,72
437,70	1789,92
437,90	1755,11
438,11	1912,80
438,31	1804,26
438,52	1877,99
438,72	1767,40
438,93	1867,75
439,13	1796,07
439,34	1837,03
439,54	1845,22
439,75	1843,17
439,95	1773,54
440,16	1710,05
440,36	1832,93
440,57	1802,21
440,77	1814,50
440,98	1734,63
441,18	1667,05
441,39	1675,24
441,59	1681,38
441,80	1810,40
442,00	1705,96
442,21	1802,21
442,41	1640,42
442,62	1767,40
442,82	1748,97
443,02	1716,20
443,23	1767,40
443,43	1640,42
443,64	1824,74
443,84	1697,77
444,05	1806,31
444,25	1810,40
444,46	1826,79
444,66	1742,82
444,87	1828,84
445,07	1634,28
445,28	1806,31
445,48	1894,37
445,69	1845,22
445,89	1869,80
446,09	1705,96
446,30	1980,39
446,50	2574,30
446,71	3729,35
446,91	4300,73
447,12	4679,61
447,32	4790,20
447,53	4192,19
447,73	3786,69
447,93	3547,08
448,14	3338,19
448,34	3223,50
448,55	2901,97
448,75	2904,02
448,96	2709,46
449,16	2357,21
449,36	2287,58
449,57	2086,88
449,77	1933,28
449,98	1785,83
450,18	1791,97
450,39	1746,92
450,59	1771,49
450,79	1724,39
451,00	1679,33
451,20	1771,49
451,41	1656,81
451,61	1759,21
451,81	1724,39
452,02	1718,25
452,22	1685,48
452,43	1787,88
452,63	1671,14
452,84	1677,29
453,04	1771,49
453,24	1703,91
453,45	1759,21
453,65	1746,92
453,86	1785,83
454,06	1796,07
454,26	1800,16
454,47	1753,06
454,67	1828,84
454,87	1734,63
455,08	1744,87
455,28	1859,56
455,49	1820,64
455,69	1650,66
455,89	1902,56
456,10	1800,16
456,30	1808,36
456,51	1722,34
456,71	1773,54
456,91	1722,34
457,12	1804,26
457,32	1779,68
457,52	1718,25
457,73	1812,45
457,93	1787,88
458,14	1689,57
458,34	1689,57
458,54	1740,77
458,75	1748,97
458,95	1765,35
459,15	1767,40
459,36	1812,45
459,56	1806,31
459,76	1845,22
459,97	1714,15
460,17	1753,06
460,37	1834,98
460,58	1673,19
460,78	1787,88
460,99	1724,39
461,19	1689,57
461,39	1751,01
461,60	1687,53
461,80	1746,92
462,00	1679,33
462,21	1763,30
462,41	1662,95
462,61	1677,29
462,82	1726,44
463,02	1787,88
463,22	1714,15
463,43	1820,64
463,63	1751,01
463,83	1865,70
464,04	1812,45
464,24	1740,77
464,44	1740,77
464,64	1722,34
464,85	1779,68
465,05	1724,39
465,25	1755,11
465,46	1699,81
465,66	1789,92
465,86	1722,34
466,07	1761,25
466,27	1767,40
466,47	1660,90
466,68	1621,99
466,88	1834,98
467,08	1781,73
467,29	1740,77
467,49	1763,30
467,69	1781,73
467,89	1763,30
468,10	1621,99
468,30	1697,77
468,50	1849,32
468,71	1763,30
468,91	1662,95
469,11	1845,22
469,31	1789,92
469,52	1685,48
469,72	1787,88
469,92	1753,06
470,13	1673,19
470,33	1798,12
470,53	1806,31
470,73	2107,36
470,94	2265,05
471,14	2275,29
471,34	2525,15
471,54	2379,74
471,75	2213,85
471,95	2199,52
472,15	2064,35
472,36	2168,80
472,56	2093,02
472,76	2037,73
472,96	1964,00
473,17	1951,71
473,37	1935,33
473,57	1847,27
473,77	1849,32
473,98	1693,67
474,18	1716,20
474,38	1875,94
474,58	1751,01
474,79	1708,01
474,99	1773,54
475,19	1757,16
475,39	1734,63
475,60	1779,68
475,80	1732,58
476,00	1714,15
476,20	1755,11
476,41	1689,57
476,61	1806,31
476,81	1781,73
477,01	1744,87
477,21	1796,07
477,42	1906,66
477,62	1736,68
477,82	1732,58
478,02	1701,86
478,23	1736,68
478,43	1675,24
478,63	1681,38
478,83	1718,25
479,03	1732,58
479,24	1718,25
479,44	1871,84
479,64	1671,14
479,84	1656,81
480,04	1742,82
480,25	1783,78
480,45	1632,23
480,65	1791,97
480,85	1714,15
481,06	1802,21
481,26	1695,72
481,46	1779,68
481,66	1665,00
481,86	1648,61
482,06	1767,40
482,27	1705,96
482,47	1662,95
482,67	1841,12
482,87	1650,66
483,07	1708,01
483,28	1781,73
483,48	1714,15
483,68	1720,29
483,88	1701,86
484,08	1591,27
484,29	1740,77
484,49	1675,24
484,69	1667,05
484,89	1849,32
485,09	1765,35
485,29	1812,45
485,50	1746,92
485,70	1693,67
485,90	1804,26
486,10	1742,82
486,30	1806,31
486,50	1759,21
486,71	1683,43
486,91	1810,40
487,11	1789,92
487,31	1716,20
487,51	1699,81
487,71	1720,29
487,91	1693,67
488,12	1693,67
488,32	1695,72
488,52	1738,73
488,72	1716,20
488,92	1806,31
489,12	1726,44
489,32	1726,44
489,53	1742,82
489,73	1730,53
489,93	1798,12
490,13	1658,85
490,33	1632,23
490,53	1769,44
490,73	1757,16
490,94	1712,10
491,14	1767,40
491,34	1832,93
491,54	2127,84
491,74	2566,10
491,94	2930,64
492,14	2971,60
492,34	2926,55
492,54	2701,27
492,75	2508,76
492,95	2463,71
493,15	2215,90
493,35	2318,30
493,55	2248,67
493,75	2086,88
493,95	2138,08
494,15	2002,91
494,35	1937,38
494,56	1822,69
494,76	1783,78
494,96	1820,64
495,16	1832,93
495,36	1767,40
495,56	1730,53
495,76	1716,20
495,96	1742,82
496,16	1703,91
496,36	1839,08
496,56	1673,19
496,77	1759,21
496,97	1701,86
497,17	1802,21
497,37	1687,53
497,57	1775,59
497,77	1703,91
497,97	1714,15
498,17	1802,21
498,37	1732,58
498,57	1759,21
498,77	1703,91
498,97	1865,70
499,17	1820,64
499,38	1734,63
499,58	1748,97
499,78	1783,78
499,98	1816,55
500,18	1779,68
500,38	1734,63
500,58	1875,94
500,78	2508,76
500,98	4405,18
501,18	5762,98
501,38	6655,90
501,58	6973,33
501,78	6496,16
501,98	5523,37
502,18	5083,06
502,38	4276,16
502,58	4038,59
502,78	3690,44
502,98	3526,60
503,18	3411,92
503,38	3188,69
503,59	2863,06
503,79	2670,55
503,99	2498,52
504,19	2353,12
504,39	2213,85
504,59	2256,86
504,79	2144,22
504,99	2021,35
505,19	1855,46
505,39	1982,43
505,59	1863,65
505,79	1918,95
505,99	1798,12
506,19	1800,16
506,39	1873,89
506,59	1763,30
506,79	1732,58
506,99	1890,28
507,19	1763,30
507,39	1759,21
507,59	1701,86
507,79	1742,82
507,99	1740,77
508,19	1779,68
508,39	1724,39
508,59	1734,63
508,79	1804,26
508,99	1882,08
509,19	1740,77
509,39	1781,73
509,59	1748,97
509,79	1728,49
509,99	1740,77
510,19	1873,89
510,39	1765,35
510,59	1708,01
510,79	1701,86
510,99	1691,62
511,19	1744,87
511,39	1818,60
511,59	1783,78
511,79	1779,68
511,99	1648,61
512,19	1779,68
512,38	1816,55
512,58	1656,81
512,78	1761,25
512,98	1802,21
513,18	1796,07
513,38	1636,33
513,58	1916,90
513,78	1781,73
513,98	1755,11
514,18	1710,05
514,38	1751,01
514,58	1748,97
514,78	1681,38
514,98	1748,97
515,18	1708,01
515,38	1665,00
515,58	1804,26
515,78	1689,57
515,98	1738,73
516,18	1847,27
516,38	1732,58
516,57	1720,29
516,77	1742,82
516,97	1785,83
517,17	1748,97
517,37	1615,85
517,57	1794,02
517,77	1767,40
517,97	1652,71
518,17	1744,87
518,37	1730,53
518,57	1669,09
518,77	1736,68
518,97	1738,73
519,16	1751,01
519,36	1775,59
519,56	1734,63
519,76	1757,16
519,96	1779,68
520,16	1845,22
520,36	1677,29
520,56	1789,92
520,76	1693,67
520,96	1751,01
521,16	1869,80
521,35	1820,64
521,55	1857,51
521,75	1722,34
521,95	1650,66
522,15	1746,92
522,35	1658,85
522,55	1746,92
522,75	1789,92
522,95	1660,90
523,14	1683,43
523,34	1798,12
523,54	1830,88
523,74	1837,03
523,94	1847,27
524,14	1624,04
524,34	1710,05
524,54	1851,36
524,73	1708,01
524,93	1806,31
525,13	1787,88
525,33	1695,72
525,53	1841,12
525,73	1742,82
525,93	1851,36
526,13	1644,52
526,32	1757,16
526,52	1810,40
526,72	1767,40
526,92	1802,21
527,12	1681,38
527,32	1685,48
527,52	1734,63
527,71	1777,64
527,91	1775,59
528,11	1671,14
528,31	1687,53
528,51	1646,57
528,71	1755,11
528,90	1785,83
529,10	1775,59
529,30	1837,03
529,50	1636,33
529,70	1689,57
529,90	1765,35
530,09	1738,73
530,29	1632,23
530,49	1695,72
530,69	1894,37
530,89	1730,53
531,09	1824,74
531,28	1802,21
531,48	1794,02
531,68	1724,39
531,88	1740,77
532,08	1804,26
532,28	1773,54
532,47	1810,40
532,67	1918,95
532,87	1769,44
533,07	1685,48
533,27	1779,68
533,46	1783,78
533,66	1851,36
533,86	1744,87
534,06	1824,74
534,26	1767,40
534,45	1761,25
534,65	1779,68
534,85	1773,54
535,05	1738,73
535,25	1802,21
535,44	1628,14
535,64	1767,40
535,84	1751,01
536,04	1794,02
536,24	1789,92
536,43	1814,50
536,63	1791,97
536,83	1667,05
537,03	1763,30
537,22	1648,61
537,42	1619,94
537,62	1763,30
537,82	1691,62
538,02	1828,84
538,21	1828,84
538,41	1931,23
538,61	1787,88
538,81	1714,15
539,00	1708,01
539,20	1632,23
539,40	1769,44
539,60	1753,06
539,79	1767,40
539,99	1691,62
540,19	1732,58
540,39	1785,83
540,58	1802,21
540,78	1865,70
540,98	1736,68
541,18	1857,51
541,37	1751,01
541,57	1789,92
541,77	1837,03
541,97	1630,18
542,16	1691,62
542,36	1691,62
542,56	1693,67
542,76	1851,36
542,95	1855,46
543,15	1746,92
543,35	1716,20
543,54	1652,71
543,74	1732,58
543,94	1890,28
544,14	1726,44
544,33	1736,68
544,53	1779,68
544,73	1796,07
544,93	1681,38
545,12	1746,92
545,32	1732,58
545,52	1761,25
545,71	1687,53
545,91	1677,29
546,11	1724,39
546,30	1665,00
546,50	1773,54
546,70	1757,16
546,90	1746,92
547,09	1595,37
547,29	1812,45
547,49	1849,32
547,68	1746,92
547,88	1720,29
548,08	1849,32
548,27	2119,65
548,47	1748,97
548,67	1699,81
548,87	1804,26
549,06	1828,84
549,26	1830,88
549,46	1740,77
549,65	1742,82
549,85	1796,07
550,05	1841,12
550,24	1640,42
550,44	1738,73
550,64	1759,21
550,83	1789,92
551,03	1753,06
551,23	1740,77
551,42	1798,12
551,62	1773,54
551,82	1755,11
552,01	1720,29
552,21	1812,45
552,41	1755,11
552,60	1839,08
552,80	1847,27
553,00	1675,24
553,19	1714,15
553,39	1832,93
553,59	1685,48
553,78	1832,93
553,98	1816,55
554,17	1718,25
554,37	1765,35
554,57	1771,49
554,76	1679,33
554,96	1699,81
555,16	1751,01
555,35	1781,73
555,55	1759,21
555,75	1613,80
555,94	1771,49
556,14	1652,71
556,33	1802,21
556,53	1720,29
556,73	1681,38
556,92	1769,44
557,12	1853,41
557,32	1816,55
557,51	1865,70
557,71	1720,29
557,90	1837,03
558,10	1857,51
558,30	1708,01
558,49	1683,43
558,69	1736,68
558,88	1734,63
559,08	1765,35
559,28	1650,66
559,47	1689,57
559,67	1832,93
559,86	1937,38
560,06	1777,64
560,26	1722,34
560,45	1759,21
560,65	1685,48
560,84	1787,88
561,04	1697,77
561,24	1726,44
561,43	1683,43
561,63	1783,78
561,82	1746,92
562,02	1734,63
562,22	1699,81
562,41	1652,71
562,61	1800,16
562,80	1693,67
563,00	1830,88
563,19	1720,29
563,39	1748,97
563,59	1802,21
563,78	1736,68
563,98	1691,62
564,17	1708,01
564,37	1683,43
564,56	1759,21
564,76	1669,09
564,96	1796,07
565,15	1849,32
565,35	1906,66
565,54	1748,97
565,74	1808,36
565,93	1771,49
566,13	1771,49
566,32	1738,73
566,52	1722,34
566,71	1740,77
566,91	1849,32
567,11	1791,97
567,30	1673,19
567,50	1859,56
567,69	1767,40
567,89	1816,55
568,08	1648,61
568,28	1761,25
568,47	1652,71
568,67	1730,53
568,86	1714,15
569,06	1834,98
569,25	1730,53
569,45	1662,95
569,64	1779,68
569,84	1732,58
570,04	1724,39
570,23	1736,68
570,43	1722,34
570,62	1759,21
570,82	1861,60
571,01	1697,77
571,21	1732,58
571,40	1648,61
571,60	1755,11
571,79	1791,97
571,99	1810,40
572,18	1753,06
572,38	1785,83
572,57	1751,01
572,77	1757,16
572,96	1894,37
573,16	1806,31
573,35	1658,85
573,55	1859,56
573,74	1665,00
573,94	1689,57
574,13	1789,92
574,33	1824,74
574,52	1796,07
574,71	1773,54
574,91	1808,36
575,10	1712,10
575,30	1742,82
575,49	1744,87
575,69	1736,68
575,88	1705,96
576,08	1697,77
576,27	1748,97
576,47	1736,68
576,66	1734,63
576,86	1880,04
577,05	1765,35
577,25	1757,16
577,44	1961,95
577,64	1734,63
577,83	1785,83
578,02	1685,48
578,22	1699,81
578,41	1906,66
578,61	1742,82
578,80	1660,90
579,00	1775,59
579,19	1781,73
579,39	1732,58
579,58	1818,60
579,77	1839,08
579,97	1832,93
580,16	1902,56
580,36	1787,88
580,55	1789,92
580,75	1847,27
580,94	1779,68
581,13	1912,80
581,33	1880,04
581,52	1763,30
581,72	1824,74
581,91	1906,66
582,11	1681,38
582,30	1802,21
582,49	1726,44
582,69	1869,80
582,88	1779,68
583,08	1705,96
583,27	1773,54
583,47	1710,05
583,66	1673,19
583,85	1759,21
584,05	1781,73
584,24	1767,40
584,44	1869,80
584,63	1763,30
584,82	1927,14
585,02	1855,46
585,21	1773,54
585,41	1861,60
585,60	1820,64
585,79	1949,67
585,99	1935,33
586,18	1859,56
586,37	2228,19
586,57	3424,20
586,76	9801,58
586,96	23979,67
587,15	33566,21
587,34	39613,86
587,54	41201,04
587,73	35546,59
587,93	25601,66
588,12	20846,27
588,31	17620,72
588,51	15961,87
588,70	14716,70
588,89	13797,17
589,09	12087,11
589,28	10710,88
589,47	9295,73
589,67	7763,85
589,86	6254,50
590,06	4822,97
590,25	3817,41
590,44	3022,80
590,64	2516,95
590,83	2281,44
591,02	2095,07
591,22	1976,29
591,41	1888,23
591,60	1847,27
591,80	1988,58
591,99	1738,73
592,18	1890,28
592,38	1857,51
592,57	1779,68
592,76	1798,12
592,96	1839,08
593,15	1730,53
593,34	1812,45
593,54	1828,84
593,73	1820,64
593,92	1884,13
594,12	1742,82
594,31	1755,11
594,50	1832,93
594,70	1804,26
594,89	1898,47
595,08	1665,00
595,28	1775,59
595,47	1939,43
595,66	1834,98
595,86	1667,05
596,05	1775,59
596,24	1699,81
596,43	1804,26
596,63	1798,12
596,82	1779,68
597,01	1693,67
597,21	1877,99
597,40	1753,06
597,59	1736,68
597,79	1632,23
597,98	1730,53
598,17	1804,26
598,36	1771,49
598,56	1771,49
598,75	1699,81
598,94	1751,01
599,14	1714,15
599,33	1697,77
599,52	1800,16
599,71	1736,68
599,91	1732,58
600,10	1714,15
600,29	1740,77
600,48	1755,11
600,68	1830,88
600,87	1773,54
601,06	1761,25
601,26	1804,26
601,45	1787,88
601,64	1720,29
601,83	1828,84
602,03	1712,10
602,22	1660,90
602,41	1734,63
602,60	1912,80
602,80	1830,88
602,99	1804,26
603,18	1722,34
603,37	1767,40
603,57	1755,11
603,76	1828,84
603,95	1781,73
604,14	1755,11
604,34	1724,39
604,53	1695,72
604,72	1804,26
604,91	1787,88
605,10	1820,64
605,30	1722,34
605,49	1812,45
605,68	1716,20
605,87	1714,15
606,07	1675,24
606,26	1787,88
606,45	1718,25
606,64	1812,45
606,84	1738,73
607,03	1849,32
607,22	1738,73
607,41	1705,96
607,60	1654,76
607,80	1816,55
607,99	1683,43
608,18	1791,97
608,37	1761,25
608,56	1667,05
608,76	1767,40
608,95	1851,36
609,14	1732,58
609,33	1742,82
609,52	1865,70
609,72	1701,86
609,91	1847,27
610,10	1769,44
610,29	1753,06
610,48	1845,22
610,68	1761,25
610,87	1673,19
611,06	1794,02
611,25	1748,97
611,44	1785,83
611,63	1730,53
611,83	1798,12
612,02	1665,00
612,21	1849,32
612,40	1671,14
612,59	1632,23
612,79	1691,62
612,98	1730,53
613,17	1802,21
613,36	1673,19
613,55	1757,16
613,74	1720,29
613,93	1685,48
614,13	1691,62
614,32	1746,92
614,51	1710,05
614,70	1701,86
614,89	1722,34
615,08	1746,92
615,28	2074,59
615,47	1660,90
615,66	1771,49
615,85	1724,39
616,04	1834,98
616,23	1734,63
616,42	1744,87
616,62	1755,11
616,81	1775,59
617,00	1738,73
617,19	1783,78
617,38	1763,30
617,57	1816,55
617,76	1755,11
617,95	1837,03
618,15	1826,79
618,34	1855,46
618,53	1656,81
618,72	1785,83
618,91	1771,49
619,10	1888,23
619,29	1806,31
619,48	1736,68
619,68	1630,18
619,87	1671,14
620,06	1689,57
620,25	1818,60
620,44	1804,26
620,63	1763,30
620,82	1642,47
621,01	1783,78
621,20	1757,16
621,39	1789,92
621,59	1814,50
621,78	1708,01
621,97	1716,20
622,16	1777,64
622,35	1781,73
622,54	1779,68
622,73	1734,63
622,92	1662,95
623,11	1814,50
623,30	1691,62
623,49	1757,16
623,68	1714,15
623,88	1861,60
624,07	1800,16
624,26	1759,21
624,45	1806,31
624,64	1699,81
624,83	1789,92
625,02	1771,49
625,21	1673,19
625,40	1701,86
625,59	1837,03
625,78	1757,16
625,97	1853,41
626,16	1832,93
626,35	1789,92
626,54	1679,33
626,74	1808,36
626,93	1751,01
627,12	1714,15
627,31	1779,68
627,50	1810,40
627,69	1787,88
627,88	1757,16
628,07	1710,05
628,26	1691,62
628,45	1658,85
628,64	1621,99
628,83	1710,05
629,02	1681,38
629,21	1800,16
629,40	1773,54
629,59	1640,42
629,78	1751,01
629,97	1693,67
630,16	1761,25
630,35	1679,33
630,54	1718,25
630,73	1751,01
630,92	1675,24
631,11	1695,72
631,30	1759,21
631,49	1744,87
631,68	1671,14
631,87	1734,63
632,06	1691,62
632,25	1890,28
632,44	1757,16
632,63	1767,40
632,82	1751,01
633,01	1615,85
633,20	1685,48
633,39	1740,77
633,58	1654,76
633,77	1730,53
633,96	1740,77
634,15	1738,73
634,34	1757,16
634,53	1751,01
634,72	1691,62
634,91	1662,95
635,10	1753,06
635,29	1771,49
635,48	1744,87
635,67	1716,20
635,86	1648,61
636,05	1775,59
636,24	1669,09
636,43	1765,35
636,62	1781,73
636,81	1611,75
637,00	1736,68
637,19	1771,49
637,38	1665,00
637,57	1705,96
637,76	1789,92
637,95	1685,48
638,14	1697,77
638,33	1679,33
638,52	1658,85
638,71	1697,77
638,89	1681,38
639,08	1849,32
639,27	1751,01
639,46	1691,62
639,65	1816,55
639,84	1757,16
640,03	1800,16
640,22	1718,25
640,41	1810,40
640,60	1722,34
640,79	1742,82
640,98	1718,25
641,17	1769,44
641,36	1791,97
641,55	1796,07
641,74	1615,85
641,92	1703,91
642,11	1650,66
642,30	1757,16
642,49	1667,05
642,68	1677,29
642,87	1759,21
643,06	1751,01
643,25	1648,61
643,44	1665,00
643,63	1722,34
643,82	1753,06
644,00	1720,29
644,19	1669,09
644,38	1624,04
644,57	1798,12
644,76	1847,27
644,95	1775,59
645,14	1783,78
645,33	1736,68
645,52	1720,29
645,71	1632,23
645,89	1671,14
646,08	1660,90
646,27	1779,68
646,46	1839,08
646,65	1718,25
646,84	1822,69
647,03	1607,66
647,22	1837,03
647,40	1777,64
647,59	1699,81
647,78	1648,61
647,97	1685,48
648,16	1677,29
648,35	1812,45
648,54	1781,73
648,73	1730,53
648,91	1730,53
649,10	1722,34
649,29	1656,81
649,48	1652,71
649,67	1697,77
649,86	1599,46
650,05	1722,34
650,23	1808,36
650,42	1609,70
650,61	1724,39
650,80	1800,16
650,99	1861,60
651,18	1816,55
651,36	1673,19
651,55	1726,44
651,74	1810,40
651,93	1736,68
652,12	1701,86
652,31	1837,03
652,49	1658,85
652,68	1699,81
652,87	1808,36
653,06	1708,01
653,25	1820,64
653,44	1615,85
653,62	1818,60
653,81	1771,49
654,00	1730,53
654,19	1787,88
654,38	1785,83
654,56	1773,54
654,75	1753,06
654,94	1744,87
655,13	1779,68
655,32	1714,15
655,51	1740,77
655,69	1685,48
655,88	1804,26
656,07	1783,78
656,26	1720,29
656,45	1689,57
656,63	1746,92
656,82	1832,93
657,01	1794,02
657,20	1710,05
657,38	1785,83
657,57	1730,53
657,76	1691,62
657,95	1767,40
658,14	1677,29
658,32	1771,49
658,51	1671,14
658,70	1773,54
658,89	1771,49
659,08	1724,39
659,26	1822,69
659,45	1662,95
659,64	1759,21
659,83	1599,46
660,01	1918,95
660,20	1695,72
660,39	1845,22
660,58	1632,23
660,76	1738,73
660,95	1638,38
661,14	1763,30
661,33	1671,14
661,51	1699,81
661,70	1689,57
661,89	1746,92
662,08	1742,82
662,26	1697,77
662,45	1697,77
662,64	1908,71
662,83	1724,39
663,01	1638,38
663,20	1691,62
663,39	1802,21
663,58	1673,19
663,76	1626,09
663,95	1714,15
664,14	1695,72
664,32	1751,01
664,51	1716,20
664,70	1648,61
664,89	1673,19
665,07	1701,86
665,26	1818,60
665,45	1732,58
665,64	1710,05
665,82	1765,35
666,01	1808,36
666,20	1734,63
666,38	1828,84
666,57	1839,08
666,76	2195,42
666,95	4478,91
667,13	10299,23
667,32	15058,71
667,51	17471,22
667,69	18554,60
667,88	17141,50
668,07	12025,67
668,25	9430,90
668,44	7962,50
668,63	7098,26
668,81	6758,30
669,00	6195,11
669,19	5498,80
669,38	4966,32
669,56	4491,20
669,75	3952,58
669,94	3327,95
670,12	2844,63
670,31	2545,63
670,50	2242,53
670,68	2078,69
670,87	1968,10
671,06	1845,22
671,24	1816,55
671,43	1859,56
671,62	1769,44
671,80	1773,54
671,99	1849,32
672,18	1773,54
672,36	1830,88
672,55	1753,06
672,74	1800,16
672,92	1705,96
673,11	1794,02
673,29	1640,42
673,48	1708,01
673,67	1687,53
673,85	1832,93
674,04	1689,57
674,23	1695,72
674,41	1837,03
674,60	1636,33
674,79	1728,49
674,97	1714,15
675,16	1820,64
675,34	1808,36
675,53	1722,34
675,72	1748,97
675,90	1871,84
676,09	1646,57
676,28	1687,53
676,46	1671,14
676,65	1789,92
676,83	1624,04
677,02	1619,94
677,21	1751,01
677,39	1724,39
677,58	1671,14
677,77	1767,40
677,95	1675,24
678,14	1703,91
678,32	1665,00
678,51	1730,53
678,70	1742,82
678,88	1734,63
679,07	1724,39
679,25	1705,96
679,44	1687,53
679,63	1642,47
679,81	1765,35
680,00	1828,84
680,18	1685,48
680,37	1847,27
680,55	1818,60
680,74	1716,20
680,93	1636,33
681,11	1757,16
681,30	1751,01
681,48	1726,44
681,67	1744,87
681,85	1740,77
682,04	1683,43
682,23	1736,68
682,41	1773,54
682,60	1724,39
682,78	1738,73
682,97	1691,62
683,15	1814,50
683,34	1775,59
683,53	1816,55
683,71	1603,56
683,90	1791,97
684,08	1843,17
684,27	1759,21
684,45	1757,16
684,64	1812,45
684,82	1755,11
685,01	1771,49
685,19	1779,68
685,38	1810,40
685,57	1656,81
685,75	1675,24
685,94	1726,44
686,12	1755,11
686,31	1681,38
686,49	1796,07
686,68	1683,43
686,86	1808,36
687,05	1689,57
687,23	1841,12
687,42	1728,49
687,60	1640,42
687,79	1763,30
687,97	1761,25
688,16	1941,47
688,34	1685,48
688,53	1654,76
688,71	1746,92
688,90	1824,74
689,08	1775,59
689,27	1636,33
689,45	1818,60
689,64	1744,87
689,82	1701,86
690,01	1732,58
690,19	1755,11
690,38	1714,15
690,56	1771,49
690,75	1605,61
690,93	1689,57
691,12	1738,73
691,30	1699,81
691,49	1714,15
691,67	1769,44
691,86	1886,18
692,04	1691,62
692,23	1611,75
692,41	1658,85
692,60	1812,45
692,78	1794,02
692,97	1699,81
693,15	1701,86
693,34	1777,64
693,52	1779,68
693,71	1683,43
693,89	1656,81
694,08	1628,14
694,26	1736,68
694,44	1722,34
694,63	1748,97
694,81	1718,25
695,00	1650,66
695,18	1767,40
695,37	1882,08
695,55	1771,49
695,74	1636,33
695,92	1619,94
696,10	1730,53
696,29	1693,67
696,47	1658,85
696,66	1624,04
696,84	1673,19
697,03	1673,19
697,21	1773,54
697,40	2306,01
697,58	1746,92
697,76	1695,72
697,95	1701,86
698,13	1728,49
698,32	1705,96
698,50	1722,34
698,68	1812,45
698,87	1832,93
699,05	1828,84
699,24	1689,57
699,42	1679,33
699,61	1671,14
699,79	1753,06
699,97	1779,68
700,16	1689,57
700,34	1708,01
700,53	1775,59
700,71	1800,16
700,89	1822,69
701,08	1710,05
701,26	1703,91
701,45	2090,98
701,63	1753,06
701,81	1722,34
702,00	1716,20
702,18	1701,86
702,37	1574,89
702,55	1716,20
702,73	1798,12
702,92	1648,61
703,10	1785,83
703,28	1724,39
703,47	1691,62
703,65	1832,93
703,84	1791,97
704,02	1652,71
704,20	1892,32
704,39	1675,24
704,57	1708,01
704,75	1759,21
704,94	1812,45
705,12	1687,53
705,30	1828,84
705,49	2205,66
705,67	4536,25
705,86	9408,37
706,04	12371,78
706,22	14317,35
706,41	15019,80
706,59	13580,08
706,77	9254,77
706,96	7165,84
707,14	6367,13
707,32	5947,30
707,51	5545,90
707,69	4775,86
707,87	4173,76
708,06	3522,51
708,24	2861,01
708,42	2441,18
708,61	2254,81
708,79	1920,99
708,97	1820,64
709,16	1875,94
709,34	1845,22
709,52	1816,55
709,71	1718,25
709,89	1787,88
710,07	1642,47
710,26	1703,91
710,44	1771,49
710,62	1785,83
710,80	1697,77
710,99	1787,88
711,17	1757,16
711,35	1705,96
711,54	1712,10
711,72	1769,44
711,90	1691,62
712,09	1751,01
712,27	1660,90
712,45	1759,21
712,63	1632,23
712,82	1726,44
713,00	1697,77
713,18	1724,39
713,37	1732,58
713,55	1744,87
713,73	1806,31
713,91	1781,73
714,10	1660,90
714,28	1734,63
714,46	1701,86
714,65	1722,34
714,83	1820,64
715,01	1742,82
715,19	1660,90
715,38	1705,96
715,56	1626,09
715,74	1662,95
715,92	1613,80
716,11	1800,16
716,29	1626,09
716,47	1669,09
716,65	1683,43
716,84	1646,57
717,02	1769,44
717,20	1632,23
717,38	1679,33
717,57	1669,09
717,75	1755,11
717,93	1705,96
718,11	1691,62
718,30	1611,75
718,48	1771,49
718,66	1736,68
718,84	1777,64
719,03	1628,14
719,21	1646,57
719,39	1875,94
719,57	1765,35
719,75	1767,40
719,94	1718,25
720,12	1656,81
720,30	1746,92
720,48	1759,21
720,67	1681,38
720,85	1619,94
721,03	1621,99
721,21	1759,21
721,39	1812,45
721,58	1724,39
721,76	1671,14
721,94	1800,16
722,12	1789,92
722,30	1812,45
722,49	1781,73
722,67	1724,39
722,85	1755,11
723,03	1626,09
723,21	1679,33
723,40	1744,87
723,58	1740,77
723,76	1738,73
723,94	1708,01
724,12	1675,24
724,30	1757,16
724,49	1734,63
724,67	1634,28
724,85	1744,87
725,03	1615,85
725,21	1832,93
725,40	1722,34
725,58	1736,68
725,76	1710,05
725,94	1775,59
726,12	1632,23
726,30	1734,63
726,49	1755,11
726,67	1716,20
726,85	1779,68
727,03	1732,58
727,21	2105,31
727,39	2842,58
727,57	3729,35
727,76	4061,12
727,94	4437,95
728,12	4220,86
728,30	3667,91
728,48	2940,88
728,66	2680,79
728,84	2539,48
729,03	2320,35
729,21	2172,89
729,39	2017,25
729,57	1920,99
729,75	1861,60
729,93	1867,75
730,11	1724,39
730,30	1673,19
730,48	1763,30
730,66	1861,60
730,84	1763,30
731,02	1705,96
731,20	1667,05
731,38	1763,30
731,56	1714,15
731,74	1636,33
731,93	1669,09
732,11	1730,53
732,29	1679,33
732,47	1730,53
732,65	1787,88
732,83	1804,26
733,01	1720,29
733,19	1697,77
733,37	1800,16
733,56	1748,97
733,74	1716,20
733,92	1802,21
734,10	1685,48
734,28	1740,77
734,46	1626,09
734,64	1681,38
734,82	1703,91
735,00	1732,58
735,18	1652,71
735,36	1726,44
735,54	1675,24
735,73	1751,01
735,91	1697,77
736,09	1849,32
736,27	1726,44
736,45	1751,01
736,63	1601,51
736,81	1671,14
736,99	1742,82
737,17	1871,84
737,35	1681,38
737,53	1710,05
737,71	1746,92
737,89	1779,68
738,07	1636,33
738,25	1656,81
738,43	1576,94
738,61	1703,91
738,80	1597,42
738,98	1632,23
739,16	1611,75
739,34	1675,24
739,52	1755,11
739,70	1665,00
739,88	1751,01
740,06	1757,16
740,24	1656,81
740,42	1740,77
740,60	1595,37
740,78	1642,47
740,96	1636,33
741,14	1703,91
741,32	1755,11
741,50	1689,57
741,68	1818,60
741,86	1744,87
742,04	1560,55
742,22	1710,05
742,40	1738,73
742,58	1714,15
742,76	1669,09
742,94	1769,44
743,12	1611,75
743,30	1669,09
743,48	1767,40
743,66	1712,10
743,84	1705,96
744,02	1705,96
744,20	1683,43
744,38	1646,57
744,56	1703,91
744,74	1779,68
744,92	1705,96
745,10	1800,16
745,28	1748,97
745,46	1763,30
745,64	1650,66
745,82	1757,16
746,00	1751,01
746,18	1755,11
746,36	1658,85
746,54	1718,25
746,72	1654,76
746,90	1652,71
747,08	1796,07
747,26	1671,14
747,44	1775,59
747,62	1734,63
747,80	1759,21
747,98	1730,53
748,15	1687,53
748,33	1771,49
748,51	1640,42
748,69	1767,40
748,87	1630,18
749,05	1701,86
749,23	1761,25
749,41	1746,92
749,59	1703,91
749,77	1781,73
749,95	1740,77
750,13	1705,96
750,31	1738,73
750,49	1712,10
750,67	1781,73
750,85	1773,54
751,03	1714,15
751,20	1837,03
751,38	1705,96
751,56	1703,91
751,74	1652,71
751,92	1742,82
752,10	1621,99
752,28	1775,59
752,46	1669,09
752,64	1742,82
752,82	1685,48
753,00	1857,51
753,18	1621,99
753,35	1656,81
753,53	1687,53
753,71	1660,90
753,89	1675,24
754,07	1761,25
754,25	1777,64
754,43	1677,29
754,61	1669,09
754,79	1687,53
754,97	1681,38
755,14	1757,16
755,32	1681,38
755,50	1716,20
755,68	1716,20
755,86	1736,68
756,04	1714,15
756,22	1574,89
756,40	1781,73
756,57	1839,08
756,75	1695,72
756,93	1839,08
757,11	1769,44
757,29	1691,62
757,47	1734,63
757,65	1667,05
757,82	1595,37
758,00	1632,23
758,18	1667,05
758,36	1656,81
758,54	1767,40
758,72	1658,85
758,90	1705,96
759,07	1720,29
759,25	1624,04
759,43	1691,62
759,61	1656,81
759,79	2269,15
759,97	1761,25
760,15	1677,29
760,32	1662,95
760,50	1697,77
760,68	1810,40
760,86	1626,09
761,04	1738,73
761,22	1755,11
761,39	1767,40
761,57	1693,67
761,75	1724,39
761,93	1757,16
762,11	1753,06
762,28	1726,44
762,46	1755,11
762,64	1763,30
762,82	1638,38
763,00	1751,01
763,18	1791,97
763,35	1611,75
763,53	1794,02
763,71	1654,76
763,89	1783,78
764,07	1693,67
764,24	1753,06
764,42	1708,01
764,60	1714,15
764,78	1732,58
764,96	1705,96
765,13	1783,78
765,31	1665,00
765,49	1703,91
765,67	1701,86
765,84	1648,61
766,02	1718,25
766,20	1628,14
766,38	1714,15
766,56	1746,92
766,73	1783,78
766,91	1689,57
767,09	1767,40
767,27	1767,40
767,44	1693,67
767,62	1687,53
767,80	1761,25
767,98	1746,92
768,15	1773,54
768,33	1716,20
768,51	1822,69
768,69	1755,11
768,87	1652,71
769,04	1705,96
769,22	1841,12
769,40	1822,69
769,58	1869,80
769,75	1724,39
769,93	1789,92
770,11	1722,34
770,28	1626,09
770,46	1662,95
770,64	1816,55
770,82	1732,58
770,99	1714,15
771,17	1769,44
771,35	1667,05
771,53	1681,38
771,70	1746,92
771,88	1789,92
772,06	1683,43
772,23	1632,23
772,41	1685,48
772,59	1767,40
772,77	1642,47
772,94	1669,09
773,12	1796,07
773,30	1744,87
773,47	1722,34
773,65	1667,05
773,83	1779,68
774,01	1683,43
774,18	1642,47
774,36	1681,38
774,54	1677,29
774,71	1796,07
774,89	1619,94
775,07	1609,70
775,24	1662,95
775,42	1642,47
775,60	1869,80
775,78	1628,14
775,95	1722,34
776,13	1693,67
776,31	1630,18
776,48	1734,63
776,66	1755,11
776,84	1718,25
777,01	1636,33
777,19	1660,90
777,37	1716,20
777,54	1759,21
777,72	1837,03
777,90	1742,82
778,07	1714,15
778,25	1892,32
778,43	1761,25
778,60	1746,92
778,78	1740,77
778,96	1734,63
779,13	1644,52
779,31	1804,26
779,49	1687,53
779,66	1693,67
779,84	1675,24
780,01	1757,16
780,19	1624,04
780,37	1665,00
780,54	1724,39
780,72	1644,52
780,90	1763,30
781,07	1691,62
781,25	1759,21
781,43	1763,30
781,60	1640,42
781,78	1724,39
781,95	1626,09
782,13	1603,56
782,31	1646,57
782,48	1658,85
782,66	1718,25
782,83	1755,11
783,01	1773,54
783,19	1775,59
783,36	1714,15
783,54	1685,48
783,72	1783,78
783,89	1724,39
784,07	1662,95
784,24	1621,99
784,42	1841,12
784,60	1681,38
784,77	1765,35
784,95	1656,81
785,12	1691,62
785,30	1740,77
785,47	1687,53
785,65	1732,58
785,83	1601,51
786,00	1576,94
786,18	1630,18
786,35	1652,71
786,53	1675,24
786,71	1757,16
786,88	1726,44
787,06	1693,67
787,23	1679,33
787,41	1685,48
787,58	1765,35
787,76	1714,15
787,94	1740,77
788,11	1736,68
788,29	1671,14
788,46	1703,91
788,64	1712,10
788,81	1701,86
788,99	1683,43
789,16	1628,14
789,34	1765,35
789,52	1697,77
789,69	1740,77
789,87	1562,60
790,04	1724,39
790,22	1683,43
790,39	1800,16
790,57	1677,29
790,74	1677,29
790,92	1812,45
791,09	1609,70
791,27	1689,57
791,44	1806,31
791,62	1746,92
791,79	1810,40
791,97	1681,38
792,15	1933,28
792,32	1794,02
792,50	1746,92
792,67	1796,07
792,85	1804,26
793,02	1730,53
793,20	1761,25
793,37	1578,98
793,55	1791,97
793,72	1705,96
793,90	1722,34
794,07	1712,10
794,25	1665,00
794,42	1796,07
794,60	1761,25
794,77	1753,06
794,95	1722,34
795,12	1794,02
795,30	1656,81
795,47	1632,23
795,65	1855,46
795,82	1611,75
796,00	1728,49
796,17	1714,15
796,34	1630,18
796,52	1730,53
796,69	1718,25
796,87	1783,78
797,04	1689,57
797,22	1802,21
797,39	1779,68
797,57	1742,82
797,74	1708,01
797,92	1693,67
798,09	1730,53
798,27	1728,49
798,44	1703,91
798,62	1720,29
798,79	1744,87
798,96	1843,17
799,14	1705,96
799,31	1832,93
799,49	1699,81
799,66	1771,49
799,84	1740,77
800,01	1658,85
800,19	1775,59
800,36	1624,04
800,53	1714,15
800,71	1765,35
800,88	1771,49
801,06	1693,67
801,23	1693,67
801,41	1701,86
801,58	1638,38
801,75	1693,67
801,93	1724,39
802,10	1794,02
802,28	1708,01
802,45	1660,90
802,63	1665,00
802,80	1751,01
802,97	1716,20
803,15	1701,86
803,32	1697,77
803,50	1726,44
803,67	1689,57
803,84	1665,00
804,02	1736,68
804,19	1720,29
804,37	1603,56
804,54	1658,85
804,71	1708,01
804,89	1697,77
805,06	1611,75
805,24	1673,19
805,41	1693,67
805,58	1681,38
805,76	1845,22
805,93	1763,30
806,10	1816,55
806,28	1767,40
806,45	1738,73
806,63	1656,81
806,80	1697,77
806,97	1800,16
807,15	1716,20
807,32	1677,29
807,49	1722,34
807,67	1583,08
807,84	1763,30
808,01	1689,57
808,19	1847,27
808,36	1873,89
808,54	1665,00
808,71	1632,23
808,88	1675,24
809,06	1759,21
809,23	1808,36
809,40	1722,34
809,58	1767,40
809,75	1716,20
809,92	1656,81
810,10	1783,78
810,27	1769,44
810,44	1712,10
810,62	1781,73
810,79	1708,01
810,96	1732,58
811,14	1640,42
811,31	1748,97
811,48	1679,33
811,66	1687,53
811,83	1812,45
812,00	1755,11
812,18	1732,58
812,35	1771,49
812,52	1722,34
812,69	1769,44
812,87	1722,34
813,04	1675,24
813,21	1712,10
813,39	1685,48
813,56	1708,01
813,73	1785,83
813,91	1640,42
814,08	1722,34
814,25	1808,36
814,42	1599,46
814,60	1716,20
814,77	1650,66
814,94	1753,06
815,12	1785,83
815,29	1808,36
815,46	1693,67
815,63	1767,40
815,81	1720,29
815,98	1724,39
816,15	1730,53
816,33	1621,99
816,50	1658,85
816,67	1673,19
816,84	1656,81
817,02	1691,62
817,19	1662,95
817,36	1703,91
817,53	1773,54
817,71	1632,23
817,88	1771,49
818,05	1667,05
818,22	1732,58
818,40	1783,78
818,57	1730,53
818,74	1757,16
818,91	1722,34
819,09	1746,92
819,26	1759,21
819,43	1624,04
819,60	1691,62
819,78	1712,10
819,95	1824,74
820,12	1667,05
820,29	1744,87
820,47	1765,35
820,64	1673,19
820,81	1712,10
820,98	1701,86
821,15	1751,01
821,33	1781,73
821,50	1665,00
821,67	1673,19
821,84	1683,43
822,02	1744,87
822,19	1773,54
822,36	1740,77
822,53	1732,58
822,70	1689,57
822,88	1701,86
823,05	1751,01
823,22	1738,73
823,39	1734,63
823,56	1587,18
823,74	1826,79
823,91	1693,67
824,08	1679,33
824,25	1685,48
824,42	1845,22
824,60	1671,14
824,77	1791,97
824,94	1609,70
825,11	1722,34
825,28	1607,66
825,45	1716,20
825,63	1652,71
825,80	1652,71
825,97	1742,82
826,14	1755,11
826,31	1593,32
826,48	1800,16
826,66	1708,01
826,83	1685,48
827,00	1734,63
827,17	1677,29
827,34	1689,57
827,51	1679,33
827,69	1703,91
827,86	1658,85
828,03	1683,43
828,20	1732,58
828,37	1677,29
828,54	1732,58
828,71	1695,72
828,89	1867,75
829,06	1736,68
829,23	1783,78
829,40	1644,52
829,57	1675,24
829,74	1714,15
829,91	1718,25
830,09	1673,19
830,26	1759,21
830,43	1785,83
830,60	1681,38
830,77	1744,87
830,94	1820,64
831,11	1740,77
831,28	1740,77
831,46	1796,07
831,63	1681,38
831,80	1730,53
831,97	1724,39
832,14	1685,48
832,31	1759,21
832,48	1740,77
832,65	1742,82
832,82	1701,86
832,99	1685,48
833,17	1701,86
833,34	1791,97
833,51	1699,81
833,68	1591,27
833,85	1722,34
834,02	1710,05
834,19	1648,61
834,36	1619,94
834,53	1722,34
834,70	1736,68
834,87	1796,07
835,04	1660,90
835,22	1699,81
835,39	1705,96
835,56	1718,25
835,73	1679,33
835,90	1765,35
836,07	1697,77
836,24	1693,67
836,41	1648,61
836,58	1656,81
836,75	1779,68
836,92	1742,82
837,09	1675,24
837,26	1703,91
837,43	1820,64
837,60	1652,71
837,77	1673,19
837,94	1763,30
838,12	1779,68
838,29	1757,16
838,46	1656,81
838,63	1624,04
838,80	1832,93
838,97	1759,21
839,14	1787,88
839,31	1677,29
839,48	1726,44
839,65	1621,99
839,82	1705,96
839,99	1667,05
840,16	1763,30
840,33	1763,30
840,50	1636,33
840,67	1669,09
840,84	1626,09
841,01	1726,44
841,18	1716,20
841,35	1665,00
841,52	1851,36
841,69	1873,89
841,86	1714,15
842,03	1726,44
842,20	1751,01
842,37	1724,39
842,54	1689,57
842,71	1716,20
842,88	1597,42
843,05	1767,40
843,22	1714,15
843,39	1740,77
843,56	1617,90
843,73	1697,77
843,90	1740,77
844,07	1722,34
844,24	1699,81
844,41	1701,86
844,58	1757,16
844,75	1732,58
844,92	1769,44
845,09	1681,38
845,26	1660,90
845,43	1728,49
845,60	1724,39
845,77	1738,73
845,94	1699,81
846,10	1761,25
846,27	1626,09
846,44	1617,90
846,61	1646,57
846,78	1742,82
846,95	1789,92
847,12	1716,20
847,29	1667,05
847,46	1697,77
847,63	1730,53
847,80	1746,92
847,97	1755,11
848,14	1816,55
848,31	1714,15
848,48	1652,71
848,65	1751,01
848,82	1703,91
848,98	1882,08
849,15	1742,82
849,32	1779,68
849,49	1675,24
849,66	1734,63
849,83	1720,29
850,00	1648,61
850,17	1720,29
850,34	1652,71
850,51	1720,29
850,68	1744,87
850,85	1910,75
851,01	1796,07
851,18	1644,52
851,35	1617,90
851,52	1714,15
851,69	1785,83
851,86	1548,26
852,03	1724,39
852,20	1742,82
852,37	1714,15
852,53	1722,34
852,70	1695,72
852,87	1673,19
853,04	1740,77
853,21	1697,77
853,38	1742,82
853,55	1734,63
853,72	1708,01
853,89	1679,33
854,05	1615,85
854,22	1695,72
854,39	1740,77
854,56	1703,91
854,73	1830,88
854,90	1654,76
855,07	1673,19
855,23	1714,15
855,40	1720,29
855,57	1671,14
855,74	1556,46
855,91	1861,60
856,08	1648,61
856,25	1652,71
856,41	1751,01
856,58	1712,10
856,75	1744,87
856,92	1683,43
857,09	1767,40
857,26	1617,90
857,42	1697,77
857,59	1757,16
857,76	1671,14
857,93	1705,96
858,10	1781,73
858,27	1654,76
858,43	1746,92
858,60	1689,57
858,77	1640,42
858,94	1730,53
859,11	1767,40
859,27	1595,37
859,44	1714,15
859,61	1853,41
859,78	1751,01
859,95	1673,19
860,12	1624,04
860,28	1865,70
860,45	1890,28
860,62	1712,10
860,79	1708,01
860,95	1642,47
861,12	1732,58
861,29	1693,67
861,46	1650,66
861,63	1720,29
861,79	1712,10
861,96	1624,04
862,13	1677,29
862,30	1710,05
862,47	1615,85
862,63	1587,18
862,80	1785,83
862,97	1740,77
863,14	1724,39
863,30	1730,53
863,47	1728,49
863,64	1865,70
863,81	1679,33
863,97	1675,24
864,14	1755,11
864,31	1701,86
864,48	1726,44
864,65	1660,90
864,81	1673,19
864,98	1730,53
865,15	1742,82
865,32	1726,44
865,48	1837,03
865,65	1812,45
865,82	1697,77
865,98	1791,97
866,15	1777,64
866,32	1746,92
866,49	1724,39
866,65	1718,25
866,82	1652,71
866,99	1708,01
867,16	1665,00
867,32	1744,87
867,49	1722,34
867,66	1699,81
867,83	1757,16
867,99	1638,38
868,16	1677,29
868,33	1675,24
868,49	1675,24
868,66	1665,00
868,83	1701,86
868,99	1730,53
869,16	1779,68
869,33	1814,50
869,50	1828,84
869,66	1730,53
869,83	1720,29
870,00	1644,52
870,16	1779,68
870,33	1732,58
870,50	1751,01
870,66	1742,82
870,83	1771,49
871,00	1746,92
871,17	1724,39
871,33	1791,97
871,50	1673,19
871,67	1615,85
871,83	1714,15
872,00	1824,74
872,17	1789,92
872,33	1800,16
872,50	1773,54
872,67	1712,10
872,83	1710,05
873,00	1724,39
873,17	1738,73
873,33	1785,83
873,50	1703,91
873,67	1626,09
873,83	1697,77
874,00	1724,39
874,16	1783,78
874,33	1652,71
874,50	1693,67
874,66	1767,40
874,83	1705,96
875,00	1796,07
875,16	1767,40
875,33	1736,68
875,50	1656,81
875,66	1710,05
875,83	1804,26
875,99	1714,15
876,16	1730,53
876,33	1638,38
876,49	1751,01
876,66	1734,63
876,83	1710,05
876,99	1624,04
877,16	1642,47
877,32	1726,44
877,49	1738,73
877,66	1814,50
877,82	1837,03
877,99	1677,29
878,15	1708,01
878,32	1736,68
878,49	1701,86
878,65	1726,44
878,82	1830,88
878,98	1660,90
879,15	1763,30
879,32	1738,73
879,48	1730,53
879,65	1720,29
879,81	1648,61
879,98	1658,85
880,15	1681,38
880,31	1683,43
880,48	1687,53
880,64	1787,88
880,81	1734,63
880,97	1771,49
881,14	1716,20
881,31	1736,68
881,47	1857,51
881,64	1738,73
881,80	1640,42
881,97	1681,38
882,13	1718,25
882,30	1677,29
882,47	1669,09
882,63	1693,67
882,80	1728,49
882,96	1712,10
883,13	1826,79
883,29	1699,81
883,46	1718,25
883,62	1857,51
883,79	1730,53
883,95	1779,68
884,12	1785,83
884,29	1794,02
884,45	1742,82
884,62	1787,88
884,78	1617,90
884,95	1816,55
885,11	1607,66
885,28	1742,82
885,44	1728,49
885,61	1642,47
885,77	1783,78
885,94	1767,40
886,10	1636,33
886,27	1734,63
886,43	1796,07
886,60	1779,68
886,76	1626,09
886,93	1658,85
887,09	1732,58
887,26	1667,05
887,42	1671,14
887,59	1783,78
887,75	1757,16
887,92	1753,06
888,08	1740,77
888,25	1882,08
888,41	1755,11
888,58	1732,58
888,74	1640,42
888,91	1669,09
>>>>>End Processed Spectral Data<<<<<
