SpectraSuite Data File
++++++++++++++++++++++++++++++++++++
Date: Mon Jun 06 15:23:17 CEST 2016
User: root
Dark Spectrum Present: No
Reference Spectrum Present: No
Number of Sampled Component Spectra: 1
Spectrometers: USB4C02835
Integration Time (usec): 100000 (USB4C02835)
Spectra Averaged: 1 (USB4C02835)
Boxcar Smoothing: 0 (USB4C02835)
Correct for Electrical Dark: No (USB4C02835)
Strobe/Lamp Enabled: No (USB4C02835)
Correct for Detector Non-linearity: No (USB4C02835)
Correct for Stray Light: No (USB4C02835)
Number of Pixels in Processed Spectrum: 3648
>>>>>Begin Processed Spectral Data<<<<<
177,47	1501,16
177,69	1501,16
177,91	1501,16
178,13	1392,62
178,36	1480,68
178,58	1656,81
178,80	1728,49
179,02	1628,14
179,24	1638,38
179,46	1667,05
179,68	1714,15
179,90	1738,73
180,13	1771,49
180,35	1708,01
180,57	1759,21
180,79	1810,40
181,01	1716,20
181,23	1814,50
181,45	1808,36
181,67	1716,20
181,90	1724,39
182,12	1703,91
182,34	1640,42
182,56	1806,31
182,78	1697,77
183,00	1730,53
183,22	1716,20
183,44	1603,56
183,66	1896,42
183,89	1775,59
184,11	1705,96
184,33	1814,50
184,55	1755,11
184,77	1759,21
184,99	1771,49
185,21	1671,14
185,43	1873,89
185,65	1675,24
185,87	1673,19
186,10	1845,22
186,32	1843,17
186,54	1779,68
186,76	1863,65
186,98	1767,40
187,20	1660,90
187,42	1734,63
187,64	1751,01
187,86	1730,53
188,08	1751,01
188,30	1705,96
188,52	1734,63
188,75	1845,22
188,97	1789,92
189,19	1697,77
189,41	1767,40
189,63	1740,77
189,85	1705,96
190,07	1636,33
190,29	1683,43
190,51	1697,77
190,73	1681,38
190,95	1771,49
191,17	1765,35
191,39	1742,82
191,61	1667,05
191,84	1640,42
192,06	1755,11
192,28	1646,57
192,50	1880,04
192,72	1671,14
192,94	1703,91
193,16	1738,73
193,38	1699,81
193,60	1619,94
193,82	1705,96
194,04	1781,73
194,26	1771,49
194,48	1669,09
194,70	1660,90
194,92	1748,97
195,14	1763,30
195,36	1652,71
195,58	1765,35
195,80	1722,34
196,02	1712,10
196,24	1712,10
196,46	1755,11
196,69	1691,62
196,91	1869,80
197,13	1615,85
197,35	1728,49
197,57	1800,16
197,79	1720,29
198,01	1712,10
198,23	1732,58
198,45	1751,01
198,67	1683,43
198,89	1722,34
199,11	1728,49
199,33	1621,99
199,55	1589,22
199,77	1763,30
199,99	1724,39
200,21	1714,15
200,43	1730,53
200,65	1630,18
200,87	1576,94
201,09	1599,46
201,31	1710,05
201,53	1765,35
201,75	1744,87
201,97	1755,11
202,19	1722,34
202,41	1781,73
202,63	1851,36
202,85	1779,68
203,07	1675,24
203,29	1665,00
203,51	1648,61
203,73	1679,33
203,95	1916,90
204,17	1779,68
204,39	1726,44
204,61	1679,33
204,83	1716,20
205,05	1759,21
205,27	1773,54
205,49	1800,16
205,71	1714,15
205,93	1626,09
206,15	1722,34
206,37	1650,66
206,59	1732,58
206,81	1613,80
207,03	1632,23
207,25	1591,27
207,47	1712,10
207,69	1712,10
207,91	1802,21
208,13	1785,83
208,34	1615,85
208,56	1712,10
208,78	1746,92
209,00	1564,65
209,22	1695,72
209,44	1738,73
209,66	1648,61
209,88	1761,25
210,10	1712,10
210,32	1658,85
210,54	1718,25
210,76	1779,68
210,98	1832,93
211,20	1591,27
211,42	1761,25
211,64	1841,12
211,86	1738,73
212,08	1689,57
212,30	1652,71
212,52	1699,81
212,74	1755,11
212,96	1753,06
213,17	1785,83
213,39	1804,26
213,61	1740,77
213,83	1791,97
214,05	1677,29
214,27	1830,88
214,49	1667,05
214,71	1628,14
214,93	1820,64
215,15	1710,05
215,37	1763,30
215,59	1624,04
215,81	1681,38
216,03	1781,73
216,24	1685,48
216,46	1714,15
216,68	1689,57
216,90	1832,93
217,12	1824,74
217,34	1693,67
217,56	1740,77
217,78	1808,36
218,00	1783,78
218,22	1720,29
218,44	1697,77
218,66	1603,56
218,87	1798,12
219,09	1685,48
219,31	1718,25
219,53	1748,97
219,75	1583,08
219,97	1673,19
220,19	1730,53
220,41	1646,57
220,63	1828,84
220,85	1720,29
221,06	1705,96
221,28	1820,64
221,50	1830,88
221,72	1742,82
221,94	1689,57
222,16	1708,01
222,38	1767,40
222,60	1794,02
222,82	1734,63
223,03	1808,36
223,25	1667,05
223,47	1771,49
223,69	1847,27
223,91	1818,60
224,13	1695,72
224,35	1652,71
224,57	1759,21
224,78	1705,96
225,00	1656,81
225,22	1646,57
225,44	1779,68
225,66	1671,14
225,88	1718,25
226,10	1751,01
226,32	1689,57
226,53	1791,97
226,75	1671,14
226,97	1732,58
227,19	1660,90
227,41	1673,19
227,63	1761,25
227,85	1732,58
228,06	1826,79
228,28	1751,01
228,50	1669,09
228,72	1716,20
228,94	1703,91
229,16	1587,18
229,37	1634,28
229,59	1671,14
229,81	1716,20
230,03	1724,39
230,25	1619,94
230,47	1621,99
230,69	1605,61
230,90	1767,40
231,12	1697,77
231,34	1771,49
231,56	1759,21
231,78	1638,38
232,00	1689,57
232,21	1705,96
232,43	1628,14
232,65	1597,42
232,87	1722,34
233,09	1634,28
233,30	1722,34
233,52	1718,25
233,74	1648,61
233,96	1632,23
234,18	1720,29
234,40	1677,29
234,61	1832,93
234,83	1581,03
235,05	1658,85
235,27	1746,92
235,49	1728,49
235,70	1789,92
235,92	1816,55
236,14	1738,73
236,36	1820,64
236,58	1621,99
236,79	1689,57
237,01	1697,77
237,23	1755,11
237,45	1783,78
237,67	1644,52
237,88	1765,35
238,10	1843,17
238,32	1624,04
238,54	1615,85
238,76	1617,90
238,97	1648,61
239,19	1624,04
239,41	1763,30
239,63	1869,80
239,85	1619,94
240,06	1714,15
240,28	1736,68
240,50	1783,78
240,72	1687,53
240,93	1699,81
241,15	1800,16
241,37	1746,92
241,59	1791,97
241,81	1693,67
242,02	1681,38
242,24	1763,30
242,46	1673,19
242,68	1638,38
242,89	1658,85
243,11	1787,88
243,33	1677,29
243,55	1683,43
243,76	1775,59
243,98	1642,47
244,20	1677,29
244,42	1648,61
244,64	1642,47
244,85	1708,01
245,07	1677,29
245,29	1742,82
245,51	1734,63
245,72	1751,01
245,94	1783,78
246,16	1703,91
246,38	1779,68
246,59	1648,61
246,81	1656,81
247,03	1656,81
247,24	1585,13
247,46	1665,00
247,68	1699,81
247,90	1669,09
248,11	1667,05
248,33	1800,16
248,55	1714,15
248,77	1710,05
248,98	1779,68
249,20	1834,98
249,42	1642,47
249,64	1689,57
249,85	1714,15
250,07	1652,71
250,29	1789,92
250,50	1779,68
250,72	1705,96
250,94	1667,05
251,16	1888,23
251,37	1691,62
251,59	1689,57
251,81	1714,15
252,02	1753,06
252,24	1636,33
252,46	1834,98
252,68	1632,23
252,89	1652,71
253,11	1642,47
253,33	1841,12
253,54	1779,68
253,76	1630,18
253,98	1685,48
254,20	1667,05
254,41	1679,33
254,63	1716,20
254,85	1632,23
255,06	1712,10
255,28	1644,52
255,50	1667,05
255,71	1710,05
255,93	1621,99
256,15	1697,77
256,36	1693,67
256,58	1705,96
256,80	1693,67
257,02	1771,49
257,23	1689,57
257,45	1748,97
257,67	1751,01
257,88	1628,14
258,10	1732,58
258,32	1718,25
258,53	1665,00
258,75	1712,10
258,97	1697,77
259,18	1687,53
259,40	1748,97
259,62	1787,88
259,83	1818,60
260,05	1744,87
260,27	1980,39
260,48	1703,91
260,70	1640,42
260,92	1710,05
261,13	1751,01
261,35	1736,68
261,57	1759,21
261,78	1656,81
262,00	1619,94
262,22	1746,92
262,43	1667,05
262,65	1769,44
262,86	1621,99
263,08	1826,79
263,30	1742,82
263,51	1572,84
263,73	1712,10
263,95	1720,29
264,16	1583,08
264,38	1705,96
264,60	1732,58
264,81	1703,91
265,03	1781,73
265,25	1746,92
265,46	1636,33
265,68	1724,39
265,89	1755,11
266,11	1581,03
266,33	1781,73
266,54	1761,25
266,76	1712,10
266,98	1714,15
267,19	1730,53
267,41	1757,16
267,62	1699,81
267,84	1638,38
268,06	1781,73
268,27	1703,91
268,49	1791,97
268,70	1814,50
268,92	1699,81
269,14	1650,66
269,35	1683,43
269,57	1722,34
269,79	1687,53
270,00	1716,20
270,22	1763,30
270,43	1654,76
270,65	1556,46
270,87	1708,01
271,08	1724,39
271,30	1779,68
271,51	1665,00
271,73	1701,86
271,95	1740,77
272,16	1705,96
272,38	1783,78
272,59	1636,33
272,81	1730,53
273,02	1712,10
273,24	1800,16
273,46	1757,16
273,67	1732,58
273,89	1697,77
274,10	1673,19
274,32	1832,93
274,54	1665,00
274,75	1705,96
274,97	1710,05
275,18	1775,59
275,40	1796,07
275,61	1751,01
275,83	1730,53
276,05	1583,08
276,26	1669,09
276,48	1691,62
276,69	1730,53
276,91	1722,34
277,12	1808,36
277,34	1636,33
277,55	1814,50
277,77	1718,25
277,99	1658,85
278,20	1728,49
278,42	1703,91
278,63	1640,42
278,85	1691,62
279,06	1669,09
279,28	1697,77
279,49	1794,02
279,71	1724,39
279,93	1708,01
280,14	1781,73
280,36	1665,00
280,57	1779,68
280,79	1763,30
281,00	1673,19
281,22	1701,86
281,43	1785,83
281,65	1591,27
281,86	1705,96
282,08	1708,01
282,29	1855,46
282,51	1624,04
282,73	1675,24
282,94	1632,23
283,16	1746,92
283,37	1761,25
283,59	1730,53
283,80	1712,10
284,02	1740,77
284,23	1697,77
284,45	1697,77
284,66	1662,95
284,88	1638,38
285,09	1810,40
285,31	1718,25
285,52	1773,54
285,74	1716,20
285,95	1781,73
286,17	1779,68
286,38	1740,77
286,60	1689,57
286,81	1650,66
287,03	1724,39
287,24	1677,29
287,46	1740,77
287,67	1759,21
287,89	1841,12
288,10	1681,38
288,32	1671,14
288,53	1812,45
288,75	1660,90
288,96	1658,85
289,18	1755,11
289,39	1746,92
289,61	1691,62
289,82	1810,40
290,04	1847,27
290,25	1634,28
290,47	1740,77
290,68	1726,44
290,90	1763,30
291,11	1589,22
291,33	1746,92
291,54	1660,90
291,76	1667,05
291,97	1677,29
292,18	1783,78
292,40	1665,00
292,61	1603,56
292,83	1808,36
293,04	1814,50
293,26	1708,01
293,47	1601,51
293,69	1701,86
293,90	1681,38
294,12	1714,15
294,33	1693,67
294,55	1789,92
294,76	1853,41
294,97	1746,92
295,19	1837,03
295,40	1734,63
295,62	1744,87
295,83	1740,77
296,05	1638,38
296,26	1785,83
296,48	1701,86
296,69	1714,15
296,90	1691,62
297,12	1757,16
297,33	1796,07
297,55	1667,05
297,76	1746,92
297,98	1812,45
298,19	1705,96
298,41	1726,44
298,62	1693,67
298,83	1720,29
299,05	1705,96
299,26	1755,11
299,48	1730,53
299,69	1730,53
299,90	1730,53
300,12	1683,43
300,33	1779,68
300,55	1742,82
300,76	1769,44
300,98	1667,05
301,19	1761,25
301,40	1730,53
301,62	1701,86
301,83	1812,45
302,05	1748,97
302,26	1705,96
302,47	1806,31
302,69	1630,18
302,90	1714,15
303,12	1597,42
303,33	1722,34
303,54	1748,97
303,76	1677,29
303,97	1691,62
304,19	1816,55
304,40	1701,86
304,61	1748,97
304,83	1837,03
305,04	1808,36
305,26	1748,97
305,47	1646,57
305,68	1722,34
305,90	1609,70
306,11	1781,73
306,33	1638,38
306,54	1636,33
306,75	1716,20
306,97	1685,48
307,18	1638,38
307,39	1714,15
307,61	1771,49
307,82	1708,01
308,04	1658,85
308,25	1753,06
308,46	1740,77
308,68	1722,34
308,89	1738,73
309,10	1771,49
309,32	1738,73
309,53	1665,00
309,74	1724,39
309,96	1685,48
310,17	1753,06
310,39	1585,13
310,60	1691,62
310,81	1734,63
311,03	1654,76
311,24	1714,15
311,45	1697,77
311,67	1880,04
311,88	1726,44
312,09	1703,91
312,31	1656,81
312,52	1667,05
312,73	1617,90
312,95	1691,62
313,16	1654,76
313,37	1783,78
313,59	1677,29
313,80	1753,06
314,01	1781,73
314,23	1665,00
314,44	1714,15
314,65	1691,62
314,87	1716,20
315,08	1697,77
315,29	1654,76
315,51	1603,56
315,72	1669,09
315,93	1789,92
316,15	1744,87
316,36	1716,20
316,57	1712,10
316,79	1742,82
317,00	1708,01
317,21	1710,05
317,43	1728,49
317,64	1699,81
317,85	1628,14
318,07	1642,47
318,28	1675,24
318,49	1810,40
318,70	1877,99
318,92	1830,88
319,13	1773,54
319,34	1933,28
319,56	1822,69
319,77	1755,11
319,98	1810,40
320,20	1830,88
320,41	1830,88
320,62	1763,30
320,83	1648,61
321,05	1824,74
321,26	1681,38
321,47	1718,25
321,69	1722,34
321,90	1617,90
322,11	1818,60
322,32	1693,67
322,54	1720,29
322,75	1654,76
322,96	1843,17
323,18	1617,90
323,39	1697,77
323,60	1693,67
323,81	1775,59
324,03	1710,05
324,24	1714,15
324,45	1683,43
324,66	1695,72
324,88	1800,16
325,09	1822,69
325,30	1722,34
325,52	1781,73
325,73	1734,63
325,94	1689,57
326,15	1583,08
326,37	1708,01
326,58	1769,44
326,79	1818,60
327,00	1662,95
327,22	1732,58
327,43	1691,62
327,64	1701,86
327,85	1691,62
328,07	1644,52
328,28	1800,16
328,49	1615,85
328,70	1667,05
328,92	1640,42
329,13	1701,86
329,34	1769,44
329,55	1814,50
329,76	1783,78
329,98	1705,96
330,19	1738,73
330,40	1691,62
330,61	1810,40
330,83	1781,73
331,04	1673,19
331,25	1671,14
331,46	1732,58
331,68	1648,61
331,89	1820,64
332,10	1697,77
332,31	1724,39
332,52	1789,92
332,74	1751,01
332,95	1638,38
333,16	1771,49
333,37	1722,34
333,58	1697,77
333,80	1710,05
334,01	1644,52
334,22	1671,14
334,43	1691,62
334,64	1673,19
334,86	1609,70
335,07	1673,19
335,28	1773,54
335,49	1687,53
335,70	1726,44
335,92	1834,98
336,13	1816,55
336,34	1665,00
336,55	1726,44
336,76	1742,82
336,98	1624,04
337,19	1644,52
337,40	1757,16
337,61	1791,97
337,82	1728,49
338,04	1824,74
338,25	1646,57
338,46	1722,34
338,67	1675,24
338,88	1644,52
339,09	1644,52
339,31	1724,39
339,52	1601,51
339,73	1660,90
339,94	1738,73
340,15	1781,73
340,36	1665,00
340,58	1687,53
340,79	1601,51
341,00	1744,87
341,21	1646,57
341,42	1785,83
341,63	1734,63
341,85	1755,11
342,06	1761,25
342,27	1681,38
342,48	1785,83
342,69	1673,19
342,90	1822,69
343,12	1845,22
343,33	1728,49
343,54	1783,78
343,75	1812,45
343,96	1787,88
344,17	1701,86
344,38	1669,09
344,60	1734,63
344,81	1677,29
345,02	1740,77
345,23	1816,55
345,44	1783,78
345,65	1726,44
345,86	1740,77
346,07	1734,63
346,29	1685,48
346,50	1773,54
346,71	1751,01
346,92	1796,07
347,13	1861,60
347,34	1726,44
347,55	1683,43
347,76	1755,11
347,98	1624,04
348,19	1714,15
348,40	1814,50
348,61	1765,35
348,82	1789,92
349,03	1783,78
349,24	1712,10
349,45	1847,27
349,66	1535,98
349,88	1757,16
350,09	1712,10
350,30	1806,31
350,51	1812,45
350,72	1751,01
350,93	1714,15
351,14	1697,77
351,35	1699,81
351,56	1689,57
351,77	1716,20
351,99	1794,02
352,20	1904,61
352,41	1763,30
352,62	1605,61
352,83	1738,73
353,04	1736,68
353,25	1640,42
353,46	1839,08
353,67	1781,73
353,88	1572,84
354,09	1640,42
354,30	1753,06
354,52	1720,29
354,73	1714,15
354,94	1736,68
355,15	1728,49
355,36	1902,56
355,57	1632,23
355,78	1742,82
355,99	1724,39
356,20	1738,73
356,41	1779,68
356,62	1751,01
356,83	1726,44
357,04	1789,92
357,25	1583,08
357,46	1732,58
357,68	1621,99
357,89	1681,38
358,10	1689,57
358,31	1710,05
358,52	1761,25
358,73	1640,42
358,94	1665,00
359,15	1687,53
359,36	1740,77
359,57	1685,48
359,78	1703,91
359,99	1712,10
360,20	1646,57
360,41	1714,15
360,62	1757,16
360,83	1712,10
361,04	1773,54
361,25	1726,44
361,46	1796,07
361,67	1789,92
361,88	1767,40
362,09	1665,00
362,30	1669,09
362,51	1724,39
362,72	1695,72
362,93	1787,88
363,14	1785,83
363,35	1712,10
363,56	1665,00
363,78	1785,83
363,99	1767,40
364,20	1601,51
364,41	1718,25
364,62	1871,84
364,83	1728,49
365,04	1675,24
365,25	1673,19
365,46	1824,74
365,67	1724,39
365,88	1701,86
366,09	1699,81
366,30	1624,04
366,51	1675,24
366,72	1685,48
366,93	1708,01
367,14	1746,92
367,35	1806,31
367,56	1673,19
367,77	1757,16
367,98	1712,10
368,18	1796,07
368,39	1710,05
368,60	1607,66
368,81	1656,81
369,02	1714,15
369,23	1761,25
369,44	1648,61
369,65	1742,82
369,86	1691,62
370,07	1740,77
370,28	1683,43
370,49	1722,34
370,70	1693,67
370,91	1648,61
371,12	1636,33
371,33	1824,74
371,54	1636,33
371,75	1837,03
371,96	1568,74
372,17	1732,58
372,38	1708,01
372,59	1816,55
372,80	1767,40
373,01	1705,96
373,22	1755,11
373,43	1771,49
373,64	1677,29
373,85	1826,79
374,06	1853,41
374,26	1705,96
374,47	1732,58
374,68	1789,92
374,89	1718,25
375,10	1695,72
375,31	1779,68
375,52	1773,54
375,73	1759,21
375,94	1638,38
376,15	1861,60
376,36	1722,34
376,57	1705,96
376,78	1669,09
376,99	1720,29
377,20	1804,26
377,40	1728,49
377,61	1771,49
377,82	1656,81
378,03	1843,17
378,24	1757,16
378,45	1681,38
378,66	1748,97
378,87	1662,95
379,08	1648,61
379,29	1673,19
379,50	1787,88
379,71	1742,82
379,91	1699,81
380,12	1769,44
380,33	1695,72
380,54	1697,77
380,75	1720,29
380,96	1691,62
381,17	1742,82
381,38	1755,11
381,59	1771,49
381,80	1685,48
382,00	1859,56
382,21	1759,21
382,42	1759,21
382,63	1898,47
382,84	1783,78
383,05	1753,06
383,26	1843,17
383,47	1736,68
383,68	1769,44
383,88	1755,11
384,09	1660,90
384,30	1753,06
384,51	1716,20
384,72	1654,76
384,93	1718,25
385,14	1771,49
385,35	1773,54
385,55	1740,77
385,76	1763,30
385,97	1751,01
386,18	1673,19
386,39	1619,94
386,60	1669,09
386,81	1654,76
387,02	1638,38
387,22	1677,29
387,43	1781,73
387,64	1755,11
387,85	1849,32
388,06	2150,37
388,27	4229,06
388,48	6664,09
388,68	8109,96
388,89	9527,15
389,10	9666,41
389,31	8392,58
389,52	7427,98
389,73	6635,42
389,93	6068,13
390,14	5662,63
390,35	5081,01
390,56	4530,11
390,77	3751,88
390,98	2895,83
391,18	2502,62
391,39	2166,75
391,60	1851,36
391,81	1888,23
392,02	1667,05
392,23	1914,85
392,43	1751,01
392,64	1748,97
392,85	1781,73
393,06	1757,16
393,27	1796,07
393,47	1777,64
393,68	1802,21
393,89	1671,14
394,10	1734,63
394,31	1753,06
394,52	1728,49
394,72	1746,92
394,93	1771,49
395,14	1621,99
395,35	1689,57
395,56	1640,42
395,76	1777,64
395,97	1775,59
396,18	1814,50
396,39	1820,64
396,60	2023,39
396,80	1937,38
397,01	1845,22
397,22	1812,45
397,43	1808,36
397,64	1730,53
397,84	1873,89
398,05	1886,18
398,26	1759,21
398,47	1812,45
398,67	1814,50
398,88	1816,55
399,09	1757,16
399,30	1777,64
399,51	1697,77
399,71	1619,94
399,92	1787,88
400,13	1781,73
400,34	1767,40
400,54	1689,57
400,75	1730,53
400,96	1800,16
401,17	1892,32
401,37	1724,39
401,58	1697,77
401,79	1732,58
402,00	1816,55
402,21	2033,63
402,41	1935,33
402,62	1875,94
402,83	1996,77
403,04	1943,52
403,24	2133,98
403,45	1816,55
403,66	1941,47
403,87	1970,15
404,07	1853,41
404,28	1931,23
404,49	1888,23
404,70	1820,64
404,90	1781,73
405,11	1720,29
405,32	1740,77
405,52	1720,29
405,73	1789,92
405,94	1654,76
406,15	1669,09
406,35	1777,64
406,56	1757,16
406,77	1767,40
406,98	1746,92
407,18	1611,75
407,39	1908,71
407,60	1626,09
407,80	1751,01
408,01	1712,10
408,22	1748,97
408,43	1679,33
408,63	1767,40
408,84	1796,07
409,05	1796,07
409,25	1710,05
409,46	1746,92
409,67	1742,82
409,88	1691,62
410,08	1779,68
410,29	1728,49
410,50	1763,30
410,70	1767,40
410,91	1697,77
411,12	1681,38
411,32	1695,72
411,53	1658,85
411,74	1720,29
411,95	1738,73
412,15	1726,44
412,36	1777,64
412,57	1857,51
412,77	1763,30
412,98	1716,20
413,19	1693,67
413,39	1806,31
413,60	1716,20
413,81	1896,42
414,01	1714,15
414,22	1767,40
414,43	1763,30
414,63	1726,44
414,84	1705,96
415,05	1732,58
415,25	1673,19
415,46	1759,21
415,67	1642,47
415,87	1787,88
416,08	1710,05
416,29	1675,24
416,49	1779,68
416,70	1693,67
416,91	1652,71
417,11	1654,76
417,32	1785,83
417,53	1787,88
417,73	1658,85
417,94	1738,73
418,15	1779,68
418,35	1710,05
418,56	1695,72
418,77	1800,16
418,97	1785,83
419,18	1736,68
419,38	1691,62
419,59	1689,57
419,80	1773,54
420,00	1640,42
420,21	1660,90
420,42	1746,92
420,62	1710,05
420,83	1685,48
421,04	1730,53
421,24	1714,15
421,45	1742,82
421,65	1808,36
421,86	1734,63
422,07	1812,45
422,27	1726,44
422,48	1699,81
422,69	1716,20
422,89	1732,58
423,10	1689,57
423,30	1718,25
423,51	1669,09
423,72	1703,91
423,92	1785,83
424,13	1630,18
424,33	1673,19
424,54	1771,49
424,75	1667,05
424,95	1804,26
425,16	1701,86
425,36	1662,95
425,57	1775,59
425,78	1763,30
425,98	1779,68
426,19	1742,82
426,39	1699,81
426,60	1755,11
426,81	1857,51
427,01	1755,11
427,22	1722,34
427,42	1630,18
427,63	1681,38
427,83	1837,03
428,04	1759,21
428,25	1746,92
428,45	1724,39
428,66	1779,68
428,86	1673,19
429,07	1804,26
429,28	1714,15
429,48	1714,15
429,69	1687,53
429,89	1703,91
430,10	1683,43
430,30	1804,26
430,51	1871,84
430,71	1677,29
430,92	1615,85
431,13	1652,71
431,33	1751,01
431,54	1726,44
431,74	1783,78
431,95	1826,79
432,15	1734,63
432,36	1689,57
432,56	1699,81
432,77	1804,26
432,98	1814,50
433,18	1748,97
433,39	1734,63
433,59	1638,38
433,80	1789,92
434,00	1865,70
434,21	1736,68
434,41	1679,33
434,62	1804,26
434,82	1671,14
435,03	1677,29
435,23	1767,40
435,44	1691,62
435,64	1777,64
435,85	1671,14
436,06	1736,68
436,26	1736,68
436,47	1738,73
436,67	1667,05
436,88	1730,53
437,08	1730,53
437,29	1861,60
437,49	1683,43
437,70	1796,07
437,90	1746,92
438,11	1804,26
438,31	1736,68
438,52	1880,04
438,72	1849,32
438,93	1902,56
439,13	1853,41
439,34	1830,88
439,54	1708,01
439,75	1843,17
439,95	1755,11
440,16	1763,30
440,36	1791,97
440,57	1767,40
440,77	1740,77
440,98	1695,72
441,18	1771,49
441,39	1695,72
441,59	1607,66
441,80	1896,42
442,00	1837,03
442,21	1769,44
442,41	1656,81
442,62	1763,30
442,82	1732,58
443,02	1720,29
443,23	1763,30
443,43	1685,48
443,64	1873,89
443,84	1669,09
444,05	1830,88
444,25	1761,25
444,46	1667,05
444,66	1746,92
444,87	1800,16
445,07	1599,46
445,28	1765,35
445,48	1812,45
445,69	1771,49
445,89	1914,85
446,09	1746,92
446,30	2043,87
446,50	2600,92
446,71	3760,07
446,91	4188,10
447,12	4640,70
447,32	4831,16
447,53	4296,64
447,73	3805,13
447,93	3545,03
448,14	3252,17
448,34	3254,22
448,55	2875,35
448,75	2811,86
448,96	2697,17
449,16	2422,75
449,36	2289,63
449,57	2050,02
449,77	1918,95
449,98	1759,21
450,18	1767,40
450,39	1826,79
450,59	1796,07
450,79	1705,96
451,00	1730,53
451,20	1814,50
451,41	1693,67
451,61	1775,59
451,81	1722,34
452,02	1767,40
452,22	1714,15
452,43	1701,86
452,63	1746,92
452,84	1775,59
453,04	1787,88
453,24	1726,44
453,45	1703,91
453,65	1677,29
453,86	1740,77
454,06	1812,45
454,26	1816,55
454,47	1654,76
454,67	1777,64
454,87	1708,01
455,08	1755,11
455,28	1779,68
455,49	1781,73
455,69	1638,38
455,89	1882,08
456,10	1818,60
456,30	1634,28
456,51	1781,73
456,71	1761,25
456,91	1761,25
457,12	1742,82
457,32	1796,07
457,52	1673,19
457,73	1701,86
457,93	1802,21
458,14	1742,82
458,34	1685,48
458,54	1748,97
458,75	1796,07
458,95	1769,44
459,15	1763,30
459,36	1824,74
459,56	1740,77
459,76	1861,60
459,97	1738,73
460,17	1757,16
460,37	1812,45
460,58	1773,54
460,78	1746,92
460,99	1734,63
461,19	1689,57
461,39	1718,25
461,60	1708,01
461,80	1767,40
462,00	1632,23
462,21	1726,44
462,41	1699,81
462,61	1679,33
462,82	1605,61
463,02	1798,12
463,22	1652,71
463,43	1806,31
463,63	1761,25
463,83	1777,64
464,04	1785,83
464,24	1783,78
464,44	1691,62
464,64	1734,63
464,85	1740,77
465,05	1773,54
465,25	1765,35
465,46	1804,26
465,66	1726,44
465,86	1718,25
466,07	1714,15
466,27	1738,73
466,47	1697,77
466,68	1677,29
466,88	1818,60
467,08	1826,79
467,29	1665,00
467,49	1703,91
467,69	1804,26
467,89	1748,97
468,10	1724,39
468,30	1728,49
468,50	1820,64
468,71	1779,68
468,91	1609,70
469,11	1822,69
469,31	1781,73
469,52	1714,15
469,72	1806,31
469,92	1896,42
470,13	1695,72
470,33	1775,59
470,53	1890,28
470,73	2115,55
470,94	2250,72
471,14	2336,73
471,34	2557,91
471,54	2451,42
471,75	2172,89
471,95	2107,36
472,15	2115,55
472,36	2113,50
472,56	2117,60
472,76	2117,60
472,96	1935,33
473,17	1951,71
473,37	1947,62
473,57	1796,07
473,77	1765,35
473,98	1763,30
474,18	1742,82
474,38	1845,22
474,58	1800,16
474,79	1751,01
474,99	1730,53
475,19	1853,41
475,39	1714,15
475,60	1712,10
475,80	1837,03
476,00	1738,73
476,20	1730,53
476,41	1691,62
476,61	1806,31
476,81	1771,49
477,01	1746,92
477,21	1828,84
477,42	1781,73
477,62	1712,10
477,82	1722,34
478,02	1679,33
478,23	1705,96
478,43	1648,61
478,63	1673,19
478,83	1765,35
479,03	1673,19
479,24	1767,40
479,44	1839,08
479,64	1716,20
479,84	1665,00
480,04	1705,96
480,25	1787,88
480,45	1636,33
480,65	1767,40
480,85	1746,92
481,06	1695,72
481,26	1705,96
481,46	1685,48
481,66	1724,39
481,86	1699,81
482,06	1814,50
482,27	1748,97
482,47	1734,63
482,67	1742,82
482,87	1662,95
483,07	1853,41
483,28	1630,18
483,48	1640,42
483,68	1740,77
483,88	1695,72
484,08	1683,43
484,29	1615,85
484,49	1728,49
484,69	1685,48
484,89	1800,16
485,09	1812,45
485,29	1804,26
485,50	1775,59
485,70	1701,86
485,90	1787,88
486,10	1726,44
486,30	1777,64
486,50	1798,12
486,71	1728,49
486,91	1822,69
487,11	1816,55
487,31	1632,23
487,51	1742,82
487,71	1730,53
487,91	1660,90
488,12	1683,43
488,32	1644,52
488,52	1744,87
488,72	1601,51
488,92	1726,44
489,12	1759,21
489,32	1832,93
489,53	1740,77
489,73	1701,86
489,93	1857,51
490,13	1685,48
490,33	1757,16
490,53	1720,29
490,73	1779,68
490,94	1648,61
491,14	1820,64
491,34	1851,36
491,54	2148,32
491,74	2557,91
491,94	2930,64
492,14	2983,89
492,34	2916,31
492,54	2779,09
492,75	2441,18
492,95	2426,84
493,15	2242,53
493,35	2220,00
493,55	2222,05
493,75	2123,74
493,95	2099,17
494,15	1968,10
494,35	1880,04
494,56	1939,43
494,76	1787,88
494,96	1869,80
495,16	1787,88
495,36	1720,29
495,56	1728,49
495,76	1699,81
495,96	1724,39
496,16	1705,96
496,36	1882,08
496,56	1697,77
496,77	1728,49
496,97	1769,44
497,17	1853,41
497,37	1726,44
497,57	1791,97
497,77	1716,20
497,97	1609,70
498,17	1736,68
498,37	1691,62
498,57	1777,64
498,77	1724,39
498,97	1753,06
499,17	1894,37
499,38	1693,67
499,58	1708,01
499,78	1798,12
499,98	1794,02
500,18	1753,06
500,38	1648,61
500,58	1902,56
500,78	2564,06
500,98	4454,33
501,18	5744,55
501,38	6680,47
501,58	6940,57
501,78	6500,25
501,98	5373,87
502,18	4956,08
502,38	4480,96
502,58	4057,03
502,78	3792,84
502,98	3661,77
503,18	3407,82
503,38	3069,91
503,59	2891,73
503,79	2656,22
503,99	2469,85
504,19	2359,26
504,39	2277,34
504,59	2109,41
504,79	2088,93
504,99	1957,86
505,19	1964,00
505,39	1902,56
505,59	1980,39
505,79	1994,72
505,99	1896,42
506,19	1853,41
506,39	1886,18
506,59	1775,59
506,79	1757,16
506,99	1757,16
507,19	1730,53
507,39	1689,57
507,59	1701,86
507,79	1669,09
507,99	1746,92
508,19	1705,96
508,39	1691,62
508,59	1767,40
508,79	1808,36
508,99	1834,98
509,19	1726,44
509,39	1822,69
509,59	1732,58
509,79	1748,97
509,99	1759,21
510,19	1812,45
510,39	1806,31
510,59	1742,82
510,79	1673,19
510,99	1726,44
511,19	1789,92
511,39	1841,12
511,59	1791,97
511,79	1814,50
511,99	1771,49
512,19	1877,99
512,38	1724,39
512,58	1660,90
512,78	1820,64
512,98	1861,60
513,18	1920,99
513,38	1703,91
513,58	1769,44
513,78	1755,11
513,98	1708,01
514,18	1689,57
514,38	1740,77
514,58	1810,40
514,78	1679,33
514,98	1636,33
515,18	1703,91
515,38	1720,29
515,58	1832,93
515,78	1677,29
515,98	1656,81
516,18	1726,44
516,38	1785,83
516,57	1712,10
516,77	1714,15
516,97	1720,29
517,17	1701,86
517,37	1667,05
517,57	1800,16
517,77	1757,16
517,97	1751,01
518,17	1781,73
518,37	1648,61
518,57	1675,24
518,77	1701,86
518,97	1712,10
519,16	1732,58
519,36	1744,87
519,56	1708,01
519,76	1785,83
519,96	1779,68
520,16	1826,79
520,36	1617,90
520,56	1734,63
520,76	1714,15
520,96	1751,01
521,16	1761,25
521,35	1865,70
521,55	1783,78
521,75	1718,25
521,95	1771,49
522,15	1710,05
522,35	1665,00
522,55	1650,66
522,75	1806,31
522,95	1718,25
523,14	1662,95
523,34	1765,35
523,54	1705,96
523,74	1746,92
523,94	1730,53
524,14	1648,61
524,34	1830,88
524,54	1855,46
524,73	1757,16
524,93	1755,11
525,13	1800,16
525,33	1689,57
525,53	1857,51
525,73	1714,15
525,93	1798,12
526,13	1736,68
526,32	1714,15
526,52	1789,92
526,72	1791,97
526,92	1746,92
527,12	1755,11
527,32	1634,28
527,52	1757,16
527,71	1808,36
527,91	1748,97
528,11	1744,87
528,31	1773,54
528,51	1658,85
528,71	1755,11
528,90	1701,86
529,10	1804,26
529,30	1849,32
529,50	1613,80
529,70	1738,73
529,90	1730,53
530,09	1718,25
530,29	1605,61
530,49	1691,62
530,69	1855,46
530,89	1853,41
531,09	1814,50
531,28	1648,61
531,48	1869,80
531,68	1740,77
531,88	1845,22
532,08	1779,68
532,28	1796,07
532,47	1789,92
532,67	1798,12
532,87	1759,21
533,07	1695,72
533,27	1716,20
533,46	1830,88
533,66	1730,53
533,86	1746,92
534,06	1675,24
534,26	1685,48
534,45	1693,67
534,65	1841,12
534,85	1742,82
535,05	1730,53
535,25	1742,82
535,44	1703,91
535,64	1783,78
535,84	1703,91
536,04	1734,63
536,24	1722,34
536,43	1673,19
536,63	1806,31
536,83	1728,49
537,03	1789,92
537,22	1689,57
537,42	1632,23
537,62	1763,30
537,82	1746,92
538,02	1810,40
538,21	1806,31
538,41	1957,86
538,61	1787,88
538,81	1718,25
539,00	1824,74
539,20	1652,71
539,40	1728,49
539,60	1759,21
539,79	1822,69
539,99	1755,11
540,19	1710,05
540,39	1798,12
540,58	1716,20
540,78	1822,69
540,98	1708,01
541,18	1697,77
541,37	1812,45
541,57	1761,25
541,77	1806,31
541,97	1720,29
542,16	1662,95
542,36	1681,38
542,56	1697,77
542,76	1832,93
542,95	1755,11
543,15	1740,77
543,35	1839,08
543,54	1738,73
543,74	1738,73
543,94	1837,03
544,14	1724,39
544,33	1775,59
544,53	1648,61
544,73	1683,43
544,93	1689,57
545,12	1718,25
545,32	1710,05
545,52	1732,58
545,71	1665,00
545,91	1683,43
546,11	1841,12
546,30	1730,53
546,50	1712,10
546,70	1742,82
546,90	1775,59
547,09	1599,46
547,29	1718,25
547,49	1789,92
547,68	1722,34
547,88	1703,91
548,08	1753,06
548,27	2254,81
548,47	1652,71
548,67	1738,73
548,87	1798,12
549,06	1685,48
549,26	1773,54
549,46	1791,97
549,65	1779,68
549,85	1748,97
550,05	1695,72
550,24	1685,48
550,44	1718,25
550,64	1718,25
550,83	1791,97
551,03	1837,03
551,23	1783,78
551,42	1834,98
551,62	1800,16
551,82	1818,60
552,01	1712,10
552,21	1877,99
552,41	1716,20
552,60	1873,89
552,80	1777,64
553,00	1755,11
553,19	1712,10
553,39	1959,91
553,59	1691,62
553,78	1716,20
553,98	1757,16
554,17	1728,49
554,37	1724,39
554,57	1755,11
554,76	1642,47
554,96	1708,01
555,16	1849,32
555,35	1720,29
555,55	1832,93
555,75	1769,44
555,94	1744,87
556,14	1734,63
556,33	1751,01
556,53	1732,58
556,73	1765,35
556,92	1820,64
557,12	1804,26
557,32	1865,70
557,51	1800,16
557,71	1773,54
557,90	1920,99
558,10	1820,64
558,30	1675,24
558,49	1777,64
558,69	1812,45
558,88	1796,07
559,08	1773,54
559,28	1710,05
559,47	1800,16
559,67	1775,59
559,86	1890,28
560,06	1751,01
560,26	1785,83
560,45	1843,17
560,65	1671,14
560,84	1789,92
561,04	1722,34
561,24	1773,54
561,43	1736,68
561,63	1871,84
561,82	1720,29
562,02	1783,78
562,22	1695,72
562,41	1738,73
562,61	1736,68
562,80	1660,90
563,00	1830,88
563,19	1732,58
563,39	1834,98
563,59	1779,68
563,78	1755,11
563,98	1589,22
564,17	1710,05
564,37	1591,27
564,56	1748,97
564,76	1695,72
564,96	1796,07
565,15	1783,78
565,35	1877,99
565,54	1718,25
565,74	1740,77
565,93	1798,12
566,13	1808,36
566,32	1783,78
566,52	1746,92
566,71	1746,92
566,91	1839,08
567,11	1744,87
567,30	1710,05
567,50	1763,30
567,69	1810,40
567,89	1656,81
568,08	1732,58
568,28	1677,29
568,47	1744,87
568,67	1763,30
568,86	1746,92
569,06	1769,44
569,25	1675,24
569,45	1746,92
569,64	1714,15
569,84	1746,92
570,04	1775,59
570,23	1658,85
570,43	1716,20
570,62	1816,55
570,82	1859,56
571,01	1644,52
571,21	1734,63
571,40	1726,44
571,60	1816,55
571,79	1738,73
571,99	1769,44
572,18	1728,49
572,38	1773,54
572,57	1708,01
572,77	1849,32
572,96	1923,04
573,16	1771,49
573,35	1724,39
573,55	1916,90
573,74	1755,11
573,94	1771,49
574,13	1775,59
574,33	1839,08
574,52	1746,92
574,71	1775,59
574,91	1720,29
575,10	1640,42
575,30	1789,92
575,49	1812,45
575,69	1673,19
575,88	1761,25
576,08	1714,15
576,27	1832,93
576,47	1720,29
576,66	1861,60
576,86	1785,83
577,05	1839,08
577,25	1761,25
577,44	1902,56
577,64	1771,49
577,83	1800,16
578,02	1705,96
578,22	1861,60
578,41	1789,92
578,61	1781,73
578,80	1677,29
579,00	1738,73
579,19	1826,79
579,39	1789,92
579,58	1804,26
579,77	1703,91
579,97	1834,98
580,16	1890,28
580,36	1859,56
580,55	1769,44
580,75	1748,97
580,94	1849,32
581,13	1814,50
581,33	1890,28
581,52	1740,77
581,72	1894,37
581,91	1828,84
582,11	1708,01
582,30	1830,88
582,49	1812,45
582,69	1834,98
582,88	1843,17
583,08	1783,78
583,27	1781,73
583,47	1777,64
583,66	1708,01
583,85	1785,83
584,05	1828,84
584,24	1810,40
584,44	1777,64
584,63	1769,44
584,82	1820,64
585,02	1820,64
585,21	1828,84
585,41	1791,97
585,60	1834,98
585,79	1902,56
585,99	1902,56
586,18	1880,04
586,37	2213,85
586,57	3313,61
586,76	9846,63
586,96	23774,87
587,15	33594,88
587,34	39417,25
587,54	40785,30
587,73	35743,20
587,93	25769,59
588,12	21038,78
588,31	17749,75
588,51	15996,68
588,70	14849,82
588,89	13797,17
589,09	12072,78
589,28	10841,95
589,47	9316,21
589,67	7604,11
589,86	6301,60
590,06	4782,01
590,25	3682,25
590,44	3065,81
590,64	2539,48
590,83	2172,89
591,02	2174,94
591,22	1990,63
591,41	1912,80
591,60	1857,51
591,80	2025,44
591,99	1695,72
592,18	1794,02
592,38	1787,88
592,57	1755,11
592,76	1751,01
592,96	1861,60
593,15	1714,15
593,34	1978,34
593,54	1753,06
593,73	1818,60
593,92	1765,35
594,12	1736,68
594,31	1804,26
594,50	1853,41
594,70	1783,78
594,89	1877,99
595,08	1742,82
595,28	1783,78
595,47	1955,81
595,66	1863,65
595,86	1675,24
596,05	1783,78
596,24	1789,92
596,43	1830,88
596,63	1787,88
596,82	1783,78
597,01	1820,64
597,21	1824,74
597,40	1759,21
597,59	1781,73
597,79	1787,88
597,98	1767,40
598,17	1828,84
598,36	1755,11
598,56	1884,13
598,75	1734,63
598,94	1662,95
599,14	1738,73
599,33	1705,96
599,52	1763,30
599,71	1726,44
599,91	1798,12
600,10	1800,16
600,29	1738,73
600,48	1769,44
600,68	1771,49
600,87	1757,16
601,06	1718,25
601,26	1751,01
601,45	1753,06
601,64	1650,66
601,83	1845,22
602,03	1710,05
602,22	1671,14
602,41	1818,60
602,60	1824,74
602,80	1751,01
602,99	1769,44
603,18	1714,15
603,37	1806,31
603,57	1773,54
603,76	1818,60
603,95	1787,88
604,14	1787,88
604,34	1703,91
604,53	1777,64
604,72	1746,92
604,91	1710,05
605,10	1789,92
605,30	1642,47
605,49	1933,28
605,68	1816,55
605,87	1851,36
606,07	1722,34
606,26	1787,88
606,45	1720,29
606,64	1765,35
606,84	1781,73
607,03	1740,77
607,22	1746,92
607,41	1718,25
607,60	1669,09
607,80	1798,12
607,99	1726,44
608,18	1828,84
608,37	1787,88
608,56	1636,33
608,76	1882,08
608,95	1828,84
609,14	1769,44
609,33	1849,32
609,52	1785,83
609,72	1853,41
609,91	1849,32
610,10	1771,49
610,29	1898,47
610,48	1734,63
610,68	1841,12
610,87	1703,91
611,06	1785,83
611,25	1671,14
611,44	1714,15
611,63	1779,68
611,83	1863,65
612,02	1652,71
612,21	1781,73
612,40	1626,09
612,59	1671,14
612,79	1683,43
612,98	1742,82
613,17	1775,59
613,36	1654,76
613,55	1773,54
613,74	1728,49
613,93	1660,90
614,13	1746,92
614,32	1724,39
614,51	1757,16
614,70	1736,68
614,89	1652,71
615,08	1705,96
615,28	2138,08
615,47	1738,73
615,66	1726,44
615,85	1710,05
616,04	1800,16
616,23	1675,24
616,42	1767,40
616,62	1753,06
616,81	1671,14
617,00	1732,58
617,19	1746,92
617,38	1773,54
617,57	1804,26
617,76	1775,59
617,95	1763,30
618,15	1683,43
618,34	1855,46
618,53	1714,15
618,72	1789,92
618,91	1828,84
619,10	1849,32
619,29	1673,19
619,48	1761,25
619,68	1671,14
619,87	1697,77
620,06	1753,06
620,25	1714,15
620,44	1662,95
620,63	1757,16
620,82	1685,48
621,01	1742,82
621,20	1732,58
621,39	1787,88
621,59	1755,11
621,78	1695,72
621,97	1724,39
622,16	1761,25
622,35	1701,86
622,54	1845,22
622,73	1796,07
622,92	1619,94
623,11	1761,25
623,30	1708,01
623,49	1761,25
623,68	1656,81
623,88	1830,88
624,07	1667,05
624,26	1720,29
624,45	1761,25
624,64	1779,68
624,83	1734,63
625,02	1736,68
625,21	1712,10
625,40	1771,49
625,59	1730,53
625,78	1720,29
625,97	1767,40
626,16	1820,64
626,35	1675,24
626,54	1744,87
626,74	1830,88
626,93	1751,01
627,12	1714,15
627,31	1705,96
627,50	1722,34
627,69	1787,88
627,88	1638,38
628,07	1728,49
628,26	1648,61
628,45	1714,15
628,64	1703,91
628,83	1718,25
629,02	1755,11
629,21	1726,44
629,40	1751,01
629,59	1689,57
629,78	1726,44
629,97	1738,73
630,16	1738,73
630,35	1736,68
630,54	1695,72
630,73	1673,19
630,92	1701,86
631,11	1730,53
631,30	1791,97
631,49	1789,92
631,68	1724,39
631,87	1724,39
632,06	1632,23
632,25	1826,79
632,44	1742,82
632,63	1740,77
632,82	1714,15
633,01	1658,85
633,20	1718,25
633,39	1718,25
633,58	1660,90
633,77	1736,68
633,96	1812,45
634,15	1802,21
634,34	1734,63
634,53	1742,82
634,72	1726,44
634,91	1681,38
635,10	1755,11
635,29	1798,12
635,48	1667,05
635,67	1615,85
635,86	1714,15
636,05	1849,32
636,24	1722,34
636,43	1771,49
636,62	1769,44
636,81	1632,23
637,00	1701,86
637,19	1755,11
637,38	1755,11
637,57	1716,20
637,76	1646,57
637,95	1753,06
638,14	1644,52
638,33	1757,16
638,52	1677,29
638,71	1716,20
638,89	1597,42
639,08	1888,23
639,27	1779,68
639,46	1720,29
639,65	1771,49
639,84	1689,57
640,03	1779,68
640,22	1714,15
640,41	1898,47
640,60	1730,53
640,79	1759,21
640,98	1734,63
641,17	1699,81
641,36	1841,12
641,55	1755,11
641,74	1744,87
641,92	1705,96
642,11	1738,73
642,30	1705,96
642,49	1652,71
642,68	1671,14
642,87	1734,63
643,06	1746,92
643,25	1675,24
643,44	1699,81
643,63	1744,87
643,82	1724,39
644,00	1621,99
644,19	1681,38
644,38	1718,25
644,57	1769,44
644,76	1708,01
644,95	1697,77
645,14	1703,91
645,33	1751,01
645,52	1722,34
645,71	1753,06
645,89	1673,19
646,08	1763,30
646,27	1718,25
646,46	1796,07
646,65	1665,00
646,84	1783,78
647,03	1730,53
647,22	1828,84
647,40	1714,15
647,59	1646,57
647,78	1613,80
647,97	1681,38
648,16	1660,90
648,35	1822,69
648,54	1812,45
648,73	1705,96
648,91	1812,45
649,10	1783,78
649,29	1656,81
649,48	1726,44
649,67	1669,09
649,86	1755,11
650,05	1718,25
650,23	1804,26
650,42	1632,23
650,61	1859,56
650,80	1751,01
650,99	1871,84
651,18	1705,96
651,36	1746,92
651,55	1699,81
651,74	1789,92
651,93	1697,77
652,12	1744,87
652,31	1724,39
652,49	1652,71
652,68	1646,57
652,87	1804,26
653,06	1724,39
653,25	1806,31
653,44	1730,53
653,62	1728,49
653,81	1695,72
654,00	1634,28
654,19	1753,06
654,38	1894,37
654,56	1734,63
654,75	1695,72
654,94	1845,22
655,13	1767,40
655,32	1787,88
655,51	1705,96
655,69	1718,25
655,88	1847,27
656,07	1617,90
656,26	1732,58
656,45	1671,14
656,63	1685,48
656,82	1818,60
657,01	1765,35
657,20	1722,34
657,38	1849,32
657,57	1685,48
657,76	1755,11
657,95	1761,25
658,14	1695,72
658,32	1658,85
658,51	1720,29
658,70	1757,16
658,89	1703,91
659,08	1701,86
659,26	1789,92
659,45	1726,44
659,64	1773,54
659,83	1724,39
660,01	1947,62
660,20	1757,16
660,39	1816,55
660,58	1650,66
660,76	1771,49
660,95	1759,21
661,14	1738,73
661,33	1585,13
661,51	1619,94
661,70	1697,77
661,89	1800,16
662,08	1724,39
662,26	1716,20
662,45	1669,09
662,64	1763,30
662,83	1734,63
663,01	1648,61
663,20	1794,02
663,39	1841,12
663,58	1705,96
663,76	1779,68
663,95	1789,92
664,14	1675,24
664,32	1708,01
664,51	1746,92
664,70	1574,89
664,89	1724,39
665,07	1683,43
665,26	1734,63
665,45	1701,86
665,64	1671,14
665,82	1816,55
666,01	1822,69
666,20	1720,29
666,38	1814,50
666,57	1902,56
666,76	2256,86
666,95	4495,29
667,13	10309,47
667,32	15052,57
667,51	17610,48
667,69	18734,82
667,88	17155,83
668,07	12029,77
668,25	9308,02
668,44	7767,95
668,63	7002,01
668,81	6649,75
669,00	6061,99
669,19	5646,25
669,38	5019,57
669,56	4413,37
669,75	3827,65
669,94	3401,68
670,12	2801,62
670,31	2457,56
670,50	2256,86
670,68	2062,30
670,87	1912,80
671,06	1800,16
671,24	1777,64
671,43	1869,80
671,62	1667,05
671,80	1751,01
671,99	1773,54
672,18	1822,69
672,36	1714,15
672,55	1691,62
672,74	1734,63
672,92	1718,25
673,11	1724,39
673,29	1695,72
673,48	1920,99
673,67	1681,38
673,85	1773,54
674,04	1722,34
674,23	1763,30
674,41	1742,82
674,60	1691,62
674,79	1630,18
674,97	1667,05
675,16	1769,44
675,34	1759,21
675,53	1662,95
675,72	1753,06
675,90	1814,50
676,09	1697,77
676,28	1671,14
676,46	1638,38
676,65	1789,92
676,83	1615,85
677,02	1730,53
677,21	1687,53
677,39	1732,58
677,58	1710,05
677,77	1728,49
677,95	1708,01
678,14	1648,61
678,32	1718,25
678,51	1650,66
678,70	1785,83
678,88	1705,96
679,07	1761,25
679,25	1660,90
679,44	1783,78
679,63	1720,29
679,81	1734,63
680,00	1804,26
680,18	1724,39
680,37	1755,11
680,55	1775,59
680,74	1619,94
680,93	1689,57
681,11	1726,44
681,30	1728,49
681,48	1777,64
681,67	1679,33
681,85	1693,67
682,04	1759,21
682,23	1812,45
682,41	1757,16
682,60	1720,29
682,78	1716,20
682,97	1724,39
683,15	1781,73
683,34	1730,53
683,53	1787,88
683,71	1662,95
683,90	1779,68
684,08	1857,51
684,27	1673,19
684,45	1777,64
684,64	1761,25
684,82	1783,78
685,01	1708,01
685,19	1640,42
685,38	1861,60
685,57	1724,39
685,75	1675,24
685,94	1697,77
686,12	1718,25
686,31	1673,19
686,49	1779,68
686,68	1603,56
686,86	1783,78
687,05	1677,29
687,23	1824,74
687,42	1714,15
687,60	1615,85
687,79	1728,49
687,97	1828,84
688,16	1718,25
688,34	1738,73
688,53	1615,85
688,71	1718,25
688,90	1677,29
689,08	1679,33
689,27	1644,52
689,45	1732,58
689,64	1777,64
689,82	1732,58
690,01	1730,53
690,19	1757,16
690,38	1712,10
690,56	1787,88
690,75	1708,01
690,93	1697,77
691,12	1662,95
691,30	1722,34
691,49	1712,10
691,67	1644,52
691,86	1832,93
692,04	1658,85
692,23	1650,66
692,41	1669,09
692,60	1857,51
692,78	1810,40
692,97	1665,00
693,15	1744,87
693,34	1787,88
693,52	1794,02
693,71	1675,24
693,89	1681,38
694,08	1607,66
694,26	1761,25
694,44	1810,40
694,63	1718,25
694,81	1681,38
695,00	1683,43
695,18	1892,32
695,37	1859,56
695,55	1722,34
695,74	1693,67
695,92	1652,71
696,10	1751,01
696,29	1716,20
696,47	1656,81
696,66	1613,80
696,84	1722,34
697,03	1679,33
697,21	1810,40
697,40	2279,39
697,58	1775,59
697,76	1703,91
697,95	1685,48
698,13	1667,05
698,32	1779,68
698,50	1736,68
698,68	1822,69
698,87	1708,01
699,05	1746,92
699,24	1757,16
699,42	1697,77
699,61	1740,77
699,79	1714,15
699,97	1765,35
700,16	1716,20
700,34	1654,76
700,53	1708,01
700,71	1859,56
700,89	1816,55
701,08	1697,77
701,26	1667,05
701,45	2146,27
701,63	1710,05
701,81	1730,53
702,00	1640,42
702,18	1769,44
702,37	1687,53
702,55	1779,68
702,73	1728,49
702,92	1761,25
703,10	1742,82
703,28	1734,63
703,47	1654,76
703,65	1822,69
703,84	1691,62
704,02	1796,07
704,20	1804,26
704,39	1681,38
704,57	1673,19
704,75	1777,64
704,94	1816,55
705,12	1593,32
705,30	1679,33
705,49	2230,24
705,67	4554,68
705,86	9336,69
706,04	12343,11
706,22	14098,22
706,41	15071,00
706,59	13340,47
706,77	9328,50
706,96	7204,75
707,14	6533,02
707,32	5816,23
707,51	5490,60
707,69	4841,40
707,87	4112,32
708,06	3475,40
708,24	2920,40
708,42	2379,74
708,61	2285,53
708,79	1918,95
708,97	1982,43
709,16	1853,41
709,34	1794,02
709,52	1746,92
709,71	1757,16
709,89	1847,27
710,07	1634,28
710,26	1660,90
710,44	1714,15
710,62	1755,11
710,80	1697,77
710,99	1816,55
711,17	1787,88
711,35	1716,20
711,54	1796,07
711,72	1767,40
711,90	1730,53
712,09	1718,25
712,27	1708,01
712,45	1755,11
712,63	1689,57
712,82	1746,92
713,00	1716,20
713,18	1785,83
713,37	1767,40
713,55	1748,97
713,73	1669,09
713,91	1703,91
714,10	1767,40
714,28	1726,44
714,46	1660,90
714,65	1800,16
714,83	1757,16
715,01	1724,39
715,19	1708,01
715,38	1728,49
715,56	1677,29
715,74	1607,66
715,92	1742,82
716,11	1882,08
716,29	1595,37
716,47	1617,90
716,65	1748,97
716,84	1550,31
717,02	1757,16
717,20	1634,28
717,38	1673,19
717,57	1665,00
717,75	1771,49
717,93	1640,42
718,11	1718,25
718,30	1599,46
718,48	1759,21
718,66	1732,58
718,84	1724,39
719,03	1755,11
719,21	1626,09
719,39	1787,88
719,57	1806,31
719,75	1720,29
719,94	1691,62
720,12	1716,20
720,30	1720,29
720,48	1748,97
720,67	1613,80
720,85	1667,05
721,03	1675,24
721,21	1693,67
721,39	1722,34
721,58	1757,16
721,76	1703,91
721,94	1763,30
722,12	1742,82
722,30	1787,88
722,49	1658,85
722,67	1740,77
722,85	1718,25
723,03	1687,53
723,21	1675,24
723,40	1742,82
723,58	1759,21
723,76	1718,25
723,94	1812,45
724,12	1761,25
724,30	1734,63
724,49	1746,92
724,67	1607,66
724,85	1800,16
725,03	1689,57
725,21	1757,16
725,40	1773,54
725,58	1638,38
725,76	1736,68
725,94	1716,20
726,12	1583,08
726,30	1689,57
726,49	1746,92
726,67	1691,62
726,85	1769,44
727,03	1765,35
727,21	2111,46
727,39	2883,54
727,57	3784,65
727,76	4122,56
727,94	4409,28
728,12	4323,26
728,30	3493,83
728,48	2875,35
728,66	2709,46
728,84	2551,77
729,03	2295,77
729,21	2172,89
729,39	1951,71
729,57	1923,04
729,75	1726,44
729,93	1804,26
730,11	1630,18
730,30	1695,72
730,48	1636,33
730,66	1791,97
730,84	1822,69
731,02	1716,20
731,20	1644,52
731,38	1671,14
731,56	1662,95
731,74	1673,19
731,93	1757,16
732,11	1675,24
732,29	1746,92
732,47	1748,97
732,65	1736,68
732,83	1787,88
733,01	1775,59
733,19	1626,09
733,37	1748,97
733,56	1787,88
733,74	1714,15
733,92	1873,89
734,10	1763,30
734,28	1763,30
734,46	1607,66
734,64	1636,33
734,82	1640,42
735,00	1789,92
735,18	1744,87
735,36	1708,01
735,54	1701,86
735,73	1701,86
735,91	1730,53
736,09	1742,82
736,27	1785,83
736,45	1767,40
736,63	1656,81
736,81	1718,25
736,99	1730,53
737,17	1845,22
737,35	1701,86
737,53	1781,73
737,71	1724,39
737,89	1736,68
738,07	1687,53
738,25	1691,62
738,43	1558,50
738,61	1681,38
738,80	1669,09
738,98	1693,67
739,16	1665,00
739,34	1703,91
739,52	1796,07
739,70	1748,97
739,88	1822,69
740,06	1761,25
740,24	1609,70
740,42	1693,67
740,60	1624,04
740,78	1695,72
740,96	1617,90
741,14	1578,98
741,32	1728,49
741,50	1742,82
741,68	1783,78
741,86	1800,16
742,04	1634,28
742,22	1685,48
742,40	1689,57
742,58	1783,78
742,76	1712,10
742,94	1697,77
743,12	1638,38
743,30	1695,72
743,48	1730,53
743,66	1658,85
743,84	1775,59
744,02	1712,10
744,20	1775,59
744,38	1619,94
744,56	1712,10
744,74	1769,44
744,92	1771,49
745,10	1841,12
745,28	1701,86
745,46	1794,02
745,64	1593,32
745,82	1773,54
746,00	1708,01
746,18	1685,48
746,36	1652,71
746,54	1785,83
746,72	1679,33
746,90	1708,01
747,08	1759,21
747,26	1634,28
747,44	1712,10
747,62	1751,01
747,80	1765,35
747,98	1746,92
748,15	1726,44
748,33	1738,73
748,51	1718,25
748,69	1724,39
748,87	1697,77
749,05	1781,73
749,23	1751,01
749,41	1785,83
749,59	1724,39
749,77	1714,15
749,95	1689,57
750,13	1650,66
750,31	1759,21
750,49	1630,18
750,67	1708,01
750,85	1841,12
751,03	1753,06
751,20	1794,02
751,38	1728,49
751,56	1679,33
751,74	1705,96
751,92	1787,88
752,10	1626,09
752,28	1796,07
752,46	1665,00
752,64	1730,53
752,82	1710,05
753,00	1757,16
753,18	1671,14
753,35	1650,66
753,53	1771,49
753,71	1648,61
753,89	1724,39
754,07	1726,44
754,25	1783,78
754,43	1708,01
754,61	1636,33
754,79	1787,88
754,97	1738,73
755,14	1785,83
755,32	1691,62
755,50	1673,19
755,68	1742,82
755,86	1683,43
756,04	1667,05
756,22	1638,38
756,40	1818,60
756,57	1789,92
756,75	1701,86
756,93	1777,64
757,11	1808,36
757,29	1697,77
757,47	1644,52
757,65	1677,29
757,82	1630,18
758,00	1665,00
758,18	1660,90
758,36	1693,67
758,54	1816,55
758,72	1646,57
758,90	1755,11
759,07	1806,31
759,25	1730,53
759,43	1789,92
759,61	1720,29
759,79	2197,47
759,97	1804,26
760,15	1701,86
760,32	1712,10
760,50	1714,15
760,68	1767,40
760,86	1644,52
761,04	1759,21
761,22	1718,25
761,39	1771,49
761,57	1732,58
761,75	1738,73
761,93	1742,82
762,11	1742,82
762,28	1734,63
762,46	1650,66
762,64	1816,55
762,82	1650,66
763,00	1687,53
763,18	1812,45
763,35	1665,00
763,53	1761,25
763,71	1689,57
763,89	1705,96
764,07	1763,30
764,24	1699,81
764,42	1763,30
764,60	1669,09
764,78	1742,82
764,96	1779,68
765,13	1753,06
765,31	1775,59
765,49	1791,97
765,67	1628,14
765,84	1646,57
766,02	1667,05
766,20	1566,70
766,38	1738,73
766,56	1787,88
766,73	1746,92
766,91	1701,86
767,09	1732,58
767,27	1800,16
767,44	1669,09
767,62	1724,39
767,80	1806,31
767,98	1650,66
768,15	1660,90
768,33	1742,82
768,51	1732,58
768,69	1669,09
768,87	1742,82
769,04	1712,10
769,22	1800,16
769,40	1789,92
769,58	1871,84
769,75	1767,40
769,93	1787,88
770,11	1652,71
770,28	1689,57
770,46	1730,53
770,64	1798,12
770,82	1710,05
770,99	1705,96
771,17	1691,62
771,35	1689,57
771,53	1665,00
771,70	1671,14
771,88	1722,34
772,06	1730,53
772,23	1765,35
772,41	1685,48
772,59	1716,20
772,77	1636,33
772,94	1703,91
773,12	1791,97
773,30	1640,42
773,47	1632,23
773,65	1654,76
773,83	1820,64
774,01	1656,81
774,18	1683,43
774,36	1742,82
774,54	1705,96
774,71	1763,30
774,89	1671,14
775,07	1658,85
775,24	1730,53
775,42	1681,38
775,60	1787,88
775,78	1660,90
775,95	1642,47
776,13	1683,43
776,31	1554,41
776,48	1773,54
776,66	1845,22
776,84	1693,67
777,01	1632,23
777,19	1759,21
777,37	1748,97
777,54	1671,14
777,72	1832,93
777,90	1767,40
778,07	1669,09
778,25	1951,71
778,43	1728,49
778,60	1626,09
778,78	1708,01
778,96	1800,16
779,13	1638,38
779,31	1755,11
779,49	1722,34
779,66	1734,63
779,84	1787,88
780,01	1681,38
780,19	1726,44
780,37	1802,21
780,54	1740,77
780,72	1699,81
780,90	1722,34
781,07	1742,82
781,25	1703,91
781,43	1787,88
781,60	1730,53
781,78	1789,92
781,95	1732,58
782,13	1638,38
782,31	1708,01
782,48	1589,22
782,66	1714,15
782,83	1732,58
783,01	1685,48
783,19	1763,30
783,36	1693,67
783,54	1636,33
783,72	1724,39
783,89	1773,54
784,07	1761,25
784,24	1759,21
784,42	1738,73
784,60	1685,48
784,77	1726,44
784,95	1650,66
785,12	1675,24
785,30	1800,16
785,47	1626,09
785,65	1693,67
785,83	1658,85
786,00	1626,09
786,18	1718,25
786,35	1607,66
786,53	1665,00
786,71	1796,07
786,88	1718,25
787,06	1767,40
787,23	1746,92
787,41	1693,67
787,58	1732,58
787,76	1685,48
787,94	1746,92
788,11	1730,53
788,29	1640,42
788,46	1671,14
788,64	1581,03
788,81	1710,05
788,99	1624,04
789,16	1646,57
789,34	1714,15
789,52	1744,87
789,69	1742,82
789,87	1640,42
790,04	1751,01
790,22	1671,14
790,39	1837,03
790,57	1693,67
790,74	1609,70
790,92	1757,16
791,09	1621,99
791,27	1781,73
791,44	1734,63
791,62	1720,29
791,79	1759,21
791,97	1624,04
792,15	1783,78
792,32	1789,92
792,50	1763,30
792,67	1773,54
792,85	1818,60
793,02	1769,44
793,20	1708,01
793,37	1685,48
793,55	1714,15
793,72	1538,02
793,90	1759,21
794,07	1648,61
794,25	1660,90
794,42	1574,89
794,60	1808,36
794,77	1685,48
794,95	1736,68
795,12	1740,77
795,30	1689,57
795,47	1640,42
795,65	1898,47
795,82	1693,67
796,00	1662,95
796,17	1677,29
796,34	1624,04
796,52	1744,87
796,69	1888,23
796,87	1746,92
797,04	1701,86
797,22	1699,81
797,39	1714,15
797,57	1847,27
797,74	1712,10
797,92	1736,68
798,09	1654,76
798,27	1736,68
798,44	1699,81
798,62	1660,90
798,79	1665,00
798,96	1761,25
799,14	1615,85
799,31	1812,45
799,49	1658,85
799,66	1599,46
799,84	1824,74
800,01	1576,94
800,19	1710,05
800,36	1581,03
800,53	1699,81
800,71	1773,54
800,88	1771,49
801,06	1652,71
801,23	1683,43
801,41	1775,59
801,58	1722,34
801,75	1656,81
801,93	1665,00
802,10	1701,86
802,28	1634,28
802,45	1654,76
802,63	1775,59
802,80	1705,96
802,97	1679,33
803,15	1730,53
803,32	1673,19
803,50	1660,90
803,67	1675,24
803,84	1626,09
804,02	1708,01
804,19	1728,49
804,37	1607,66
804,54	1597,42
804,71	1677,29
804,89	1673,19
805,06	1640,42
805,24	1669,09
805,41	1615,85
805,58	1761,25
805,76	1832,93
805,93	1736,68
806,10	1755,11
806,28	1769,44
806,45	1769,44
806,63	1675,24
806,80	1718,25
806,97	1722,34
807,15	1734,63
807,32	1724,39
807,49	1738,73
807,67	1675,24
807,84	1714,15
808,01	1599,46
808,19	1765,35
808,36	1761,25
808,54	1701,86
808,71	1683,43
808,88	1699,81
809,06	1738,73
809,23	1730,53
809,40	1697,77
809,58	1726,44
809,75	1734,63
809,92	1728,49
810,10	1863,65
810,27	1689,57
810,44	1685,48
810,62	1724,39
810,79	1724,39
810,96	1771,49
811,14	1697,77
811,31	1761,25
811,48	1738,73
811,66	1730,53
811,83	1724,39
812,00	1732,58
812,18	1732,58
812,35	1853,41
812,52	1642,47
812,69	1712,10
812,87	1730,53
813,04	1751,01
813,21	1699,81
813,39	1742,82
813,56	1695,72
813,73	1800,16
813,91	1642,47
814,08	1703,91
814,25	1689,57
814,42	1683,43
814,60	1683,43
814,77	1708,01
814,94	1765,35
815,12	1726,44
815,29	1744,87
815,46	1720,29
815,63	1679,33
815,81	1708,01
815,98	1697,77
816,15	1708,01
816,33	1718,25
816,50	1691,62
816,67	1699,81
816,84	1736,68
817,02	1701,86
817,19	1773,54
817,36	1751,01
817,53	1716,20
817,71	1626,09
817,88	1775,59
818,05	1705,96
818,22	1660,90
818,40	1875,94
818,57	1669,09
818,74	1773,54
818,91	1656,81
819,09	1658,85
819,26	1722,34
819,43	1650,66
819,60	1732,58
819,78	1720,29
819,95	1863,65
820,12	1673,19
820,29	1785,83
820,47	1800,16
820,64	1703,91
820,81	1648,61
820,98	1642,47
821,15	1687,53
821,33	1742,82
821,50	1644,52
821,67	1767,40
821,84	1669,09
822,02	1886,18
822,19	1794,02
822,36	1697,77
822,53	1673,19
822,70	1628,14
822,88	1658,85
823,05	1771,49
823,22	1761,25
823,39	1722,34
823,56	1734,63
823,74	1783,78
823,91	1697,77
824,08	1650,66
824,25	1671,14
824,42	1789,92
824,60	1605,61
824,77	1693,67
824,94	1718,25
825,11	1738,73
825,28	1626,09
825,45	1724,39
825,63	1732,58
825,80	1681,38
825,97	1710,05
826,14	1683,43
826,31	1673,19
826,48	1726,44
826,66	1716,20
826,83	1681,38
827,00	1783,78
827,17	1613,80
827,34	1710,05
827,51	1626,09
827,69	1748,97
827,86	1642,47
828,03	1748,97
828,20	1683,43
828,37	1669,09
828,54	1759,21
828,71	1685,48
828,89	1794,02
829,06	1697,77
829,23	1726,44
829,40	1636,33
829,57	1624,04
829,74	1779,68
829,91	1722,34
830,09	1714,15
830,26	1779,68
830,43	1816,55
830,60	1689,57
830,77	1724,39
830,94	1761,25
831,11	1746,92
831,28	1695,72
831,46	1859,56
831,63	1720,29
831,80	1722,34
831,97	1578,98
832,14	1699,81
832,31	1755,11
832,48	1621,99
832,65	1804,26
832,82	1734,63
832,99	1722,34
833,17	1644,52
833,34	1834,98
833,51	1724,39
833,68	1652,71
833,85	1734,63
834,02	1644,52
834,19	1574,89
834,36	1566,70
834,53	1685,48
834,70	1804,26
834,87	1791,97
835,04	1740,77
835,22	1679,33
835,39	1642,47
835,56	1671,14
835,73	1671,14
835,90	1787,88
836,07	1671,14
836,24	1781,73
836,41	1617,90
836,58	1675,24
836,75	1824,74
836,92	1636,33
837,09	1642,47
837,26	1740,77
837,43	1677,29
837,60	1744,87
837,77	1716,20
837,94	1751,01
838,12	1714,15
838,29	1755,11
838,46	1687,53
838,63	1652,71
838,80	1794,02
838,97	1701,86
839,14	1728,49
839,31	1683,43
839,48	1748,97
839,65	1734,63
839,82	1781,73
839,99	1654,76
840,16	1673,19
840,33	1656,81
840,50	1744,87
840,67	1656,81
840,84	1593,32
841,01	1716,20
841,18	1689,57
841,35	1658,85
841,52	1685,48
841,69	1779,68
841,86	1648,61
842,03	1689,57
842,20	1779,68
842,37	1697,77
842,54	1656,81
842,71	1728,49
842,88	1591,27
843,05	1761,25
843,22	1693,67
843,39	1824,74
843,56	1656,81
843,73	1761,25
843,90	1728,49
844,07	1708,01
844,24	1710,05
844,41	1677,29
844,58	1759,21
844,75	1734,63
844,92	1771,49
845,09	1665,00
845,26	1642,47
845,43	1771,49
845,60	1650,66
845,77	1769,44
845,94	1732,58
846,10	1886,18
846,27	1576,94
846,44	1652,71
846,61	1654,76
846,78	1683,43
846,95	1779,68
847,12	1705,96
847,29	1617,90
847,46	1646,57
847,63	1732,58
847,80	1658,85
847,97	1728,49
848,14	1820,64
848,31	1789,92
848,48	1716,20
848,65	1761,25
848,82	1675,24
848,98	1914,85
849,15	1714,15
849,32	1714,15
849,49	1796,07
849,66	1652,71
849,83	1755,11
850,00	1669,09
850,17	1730,53
850,34	1611,75
850,51	1703,91
850,68	1734,63
850,85	1875,94
851,01	1708,01
851,18	1714,15
851,35	1695,72
851,52	1791,97
851,69	1732,58
851,86	1636,33
852,03	1703,91
852,20	1716,20
852,37	1724,39
852,53	1636,33
852,70	1748,97
852,87	1746,92
853,04	1808,36
853,21	1726,44
853,38	1732,58
853,55	1798,12
853,72	1757,16
853,89	1658,85
854,05	1560,55
854,22	1714,15
854,39	1712,10
854,56	1683,43
854,73	1736,68
854,90	1669,09
855,07	1648,61
855,23	1681,38
855,40	1705,96
855,57	1609,70
855,74	1687,53
855,91	1908,71
856,08	1632,23
856,25	1720,29
856,41	1705,96
856,58	1718,25
856,75	1724,39
856,92	1644,52
857,09	1763,30
857,26	1681,38
857,42	1665,00
857,59	1779,68
857,76	1712,10
857,93	1724,39
858,10	1667,05
858,27	1695,72
858,43	1744,87
858,60	1607,66
858,77	1617,90
858,94	1681,38
859,11	1800,16
859,27	1724,39
859,44	1722,34
859,61	1812,45
859,78	1693,67
859,95	1679,33
860,12	1628,14
860,28	1845,22
860,45	1804,26
860,62	1714,15
860,79	1732,58
860,95	1679,33
861,12	1679,33
861,29	1638,38
861,46	1691,62
861,63	1714,15
861,79	1730,53
861,96	1685,48
862,13	1693,67
862,30	1806,31
862,47	1683,43
862,63	1673,19
862,80	1804,26
862,97	1699,81
863,14	1763,30
863,30	1720,29
863,47	1712,10
863,64	1814,50
863,81	1763,30
863,97	1677,29
864,14	1732,58
864,31	1705,96
864,48	1734,63
864,65	1689,57
864,81	1841,12
864,98	1683,43
865,15	1755,11
865,32	1773,54
865,48	1769,44
865,65	1775,59
865,82	1681,38
865,98	1673,19
866,15	1716,20
866,32	1685,48
866,49	1710,05
866,65	1744,87
866,82	1716,20
866,99	1718,25
867,16	1671,14
867,32	1755,11
867,49	1701,86
867,66	1712,10
867,83	1667,05
867,99	1636,33
868,16	1765,35
868,33	1675,24
868,49	1671,14
868,66	1691,62
868,83	1691,62
868,99	1732,58
869,16	1703,91
869,33	1761,25
869,50	1728,49
869,66	1687,53
869,83	1677,29
870,00	1677,29
870,16	1787,88
870,33	1710,05
870,50	1828,84
870,66	1685,48
870,83	1839,08
871,00	1710,05
871,17	1689,57
871,33	1650,66
871,50	1681,38
871,67	1705,96
871,83	1597,42
872,00	1837,03
872,17	1677,29
872,33	1765,35
872,50	1798,12
872,67	1640,42
872,83	1705,96
873,00	1701,86
873,17	1716,20
873,33	1746,92
873,50	1730,53
873,67	1648,61
873,83	1693,67
874,00	1697,77
874,16	1820,64
874,33	1732,58
874,50	1693,67
874,66	1691,62
874,83	1734,63
875,00	1789,92
875,16	1757,16
875,33	1791,97
875,50	1642,47
875,66	1660,90
875,83	1708,01
875,99	1732,58
876,16	1724,39
876,33	1675,24
876,49	1665,00
876,66	1744,87
876,83	1716,20
876,99	1650,66
877,16	1724,39
877,32	1716,20
877,49	1714,15
877,66	1714,15
877,82	1814,50
877,99	1669,09
878,15	1765,35
878,32	1742,82
878,49	1744,87
878,65	1699,81
878,82	1779,68
878,98	1599,46
879,15	1693,67
879,32	1779,68
879,48	1699,81
879,65	1675,24
879,81	1701,86
879,98	1722,34
880,15	1691,62
880,31	1695,72
880,48	1650,66
880,64	1699,81
880,81	1734,63
880,97	1853,41
881,14	1816,55
881,31	1648,61
881,47	1796,07
881,64	1695,72
881,80	1648,61
881,97	1693,67
882,13	1798,12
882,30	1630,18
882,47	1654,76
882,63	1658,85
882,80	1736,68
882,96	1693,67
883,13	1857,51
883,29	1746,92
883,46	1705,96
883,62	1800,16
883,79	1722,34
883,95	1746,92
884,12	1667,05
884,29	1789,92
884,45	1757,16
884,62	1736,68
884,78	1660,90
884,95	1753,06
885,11	1673,19
885,28	1738,73
885,44	1679,33
885,61	1665,00
885,77	1798,12
885,94	1753,06
886,10	1691,62
886,27	1673,19
886,43	1742,82
886,60	1732,58
886,76	1646,57
886,93	1691,62
887,09	1697,77
887,26	1576,94
887,42	1658,85
887,59	1726,44
887,75	1800,16
887,92	1812,45
888,08	1740,77
888,25	1787,88
888,41	1769,44
888,58	1714,15
888,74	1652,71
888,91	1697,77
>>>>>End Processed Spectral Data<<<<<
