SpectraSuite Data File
++++++++++++++++++++++++++++++++++++
Date: Mon Jun 06 12:20:17 CEST 2016
User: root
Dark Spectrum Present: No
Reference Spectrum Present: No
Number of Sampled Component Spectra: 1
Spectrometers: USB4C02835
Integration Time (usec): 100000 (USB4C02835)
Spectra Averaged: 1 (USB4C02835)
Boxcar Smoothing: 0 (USB4C02835)
Correct for Electrical Dark: No (USB4C02835)
Strobe/Lamp Enabled: No (USB4C02835)
Correct for Detector Non-linearity: No (USB4C02835)
Correct for Stray Light: No (USB4C02835)
Number of Pixels in Processed Spectrum: 3648
>>>>>Begin Processed Spectral Data<<<<<
177,47	1456,11
177,69	1456,11
177,91	1456,11
178,13	1435,63
178,36	1476,59
178,58	1628,14
178,80	1734,63
179,02	1693,67
179,24	1677,29
179,46	1669,09
179,68	1732,58
179,90	1681,38
180,13	1705,96
180,35	1624,04
180,57	1679,33
180,79	1683,43
181,01	1669,09
181,23	1742,82
181,45	1679,33
181,67	1660,90
181,90	1714,15
182,12	1675,24
182,34	1669,09
182,56	1716,20
182,78	1683,43
183,00	1748,97
183,22	1665,00
183,44	1583,08
183,66	1863,65
183,89	1769,44
184,11	1708,01
184,33	1722,34
184,55	1761,25
184,77	1722,34
184,99	1738,73
185,21	1619,94
185,43	1851,36
185,65	1665,00
185,87	1751,01
186,10	1814,50
186,32	1796,07
186,54	1718,25
186,76	1667,05
186,98	1724,39
187,20	1589,22
187,42	1681,38
187,64	1714,15
187,86	1701,86
188,08	1697,77
188,30	1673,19
188,52	1652,71
188,75	1753,06
188,97	1738,73
189,19	1609,70
189,41	1648,61
189,63	1734,63
189,85	1728,49
190,07	1589,22
190,29	1648,61
190,51	1660,90
190,73	1626,09
190,95	1738,73
191,17	1689,57
191,39	1589,22
191,61	1617,90
191,84	1638,38
192,06	1785,83
192,28	1636,33
192,50	1894,37
192,72	1697,77
192,94	1669,09
193,16	1791,97
193,38	1689,57
193,60	1605,61
193,82	1669,09
194,04	1757,16
194,26	1701,86
194,48	1669,09
194,70	1726,44
194,92	1732,58
195,14	1746,92
195,36	1712,10
195,58	1708,01
195,80	1597,42
196,02	1562,60
196,24	1683,43
196,46	1697,77
196,69	1654,76
196,91	1800,16
197,13	1732,58
197,35	1626,09
197,57	1755,11
197,79	1656,81
198,01	1677,29
198,23	1701,86
198,45	1751,01
198,67	1658,85
198,89	1716,20
199,11	1705,96
199,33	1656,81
199,55	1548,26
199,77	1683,43
199,99	1789,92
200,21	1638,38
200,43	1646,57
200,65	1576,94
200,87	1548,26
201,09	1687,53
201,31	1669,09
201,53	1787,88
201,75	1771,49
201,97	1730,53
202,19	1697,77
202,41	1695,72
202,63	1785,83
202,85	1681,38
203,07	1683,43
203,29	1658,85
203,51	1753,06
203,73	1656,81
203,95	1757,16
204,17	1716,20
204,39	1665,00
204,61	1728,49
204,83	1675,24
205,05	1738,73
205,27	1779,68
205,49	1818,60
205,71	1646,57
205,93	1621,99
206,15	1691,62
206,37	1695,72
206,59	1644,52
206,81	1660,90
207,03	1677,29
207,25	1640,42
207,47	1734,63
207,69	1669,09
207,91	1839,08
208,13	1753,06
208,34	1671,14
208,56	1710,05
208,78	1626,09
209,00	1693,67
209,22	1753,06
209,44	1665,00
209,66	1697,77
209,88	1718,25
210,10	1644,52
210,32	1677,29
210,54	1761,25
210,76	1628,14
210,98	1773,54
211,20	1574,89
211,42	1685,48
211,64	1794,02
211,86	1787,88
212,08	1832,93
212,30	1722,34
212,52	1677,29
212,74	1796,07
212,96	1665,00
213,17	1804,26
213,39	1662,95
213,61	1687,53
213,83	1714,15
214,05	1613,80
214,27	1771,49
214,49	1642,47
214,71	1671,14
214,93	1798,12
215,15	1638,38
215,37	1730,53
215,59	1640,42
215,81	1771,49
216,03	1779,68
216,24	1714,15
216,46	1732,58
216,68	1624,04
216,90	1785,83
217,12	1751,01
217,34	1693,67
217,56	1683,43
217,78	1671,14
218,00	1736,68
218,22	1679,33
218,44	1654,76
218,66	1658,85
218,87	1691,62
219,09	1624,04
219,31	1677,29
219,53	1699,81
219,75	1699,81
219,97	1636,33
220,19	1757,16
220,41	1570,79
220,63	1757,16
220,85	1767,40
221,06	1681,38
221,28	1736,68
221,50	1779,68
221,72	1669,09
221,94	1759,21
222,16	1732,58
222,38	1714,15
222,60	1757,16
222,82	1712,10
223,03	1734,63
223,25	1662,95
223,47	1748,97
223,69	1812,45
223,91	1834,98
224,13	1640,42
224,35	1720,29
224,57	1742,82
224,78	1710,05
225,00	1681,38
225,22	1691,62
225,44	1703,91
225,66	1718,25
225,88	1650,66
226,10	1732,58
226,32	1716,20
226,53	1726,44
226,75	1714,15
226,97	1621,99
227,19	1689,57
227,41	1619,94
227,63	1708,01
227,85	1544,17
228,06	1677,29
228,28	1683,43
228,50	1734,63
228,72	1644,52
228,94	1615,85
229,16	1478,63
229,37	1609,70
229,59	1662,95
229,81	1787,88
230,03	1697,77
230,25	1630,18
230,47	1619,94
230,69	1615,85
230,90	1679,33
231,12	1642,47
231,34	1722,34
231,56	1751,01
231,78	1621,99
232,00	1665,00
232,21	1644,52
232,43	1603,56
232,65	1566,70
232,87	1683,43
233,09	1562,60
233,30	1638,38
233,52	1753,06
233,74	1703,91
233,96	1671,14
234,18	1675,24
234,40	1619,94
234,61	1775,59
234,83	1658,85
235,05	1615,85
235,27	1923,04
235,49	1775,59
235,70	1718,25
235,92	1740,77
236,14	1732,58
236,36	1837,03
236,58	1574,89
236,79	1730,53
237,01	1710,05
237,23	1648,61
237,45	1765,35
237,67	1732,58
237,88	1658,85
238,10	1830,88
238,32	1650,66
238,54	1658,85
238,76	1714,15
238,97	1601,51
239,19	1566,70
239,41	1751,01
239,63	1689,57
239,85	1712,10
240,06	1693,67
240,28	1656,81
240,50	1693,67
240,72	1665,00
240,93	1720,29
241,15	1808,36
241,37	1705,96
241,59	1787,88
241,81	1695,72
242,02	1607,66
242,24	1726,44
242,46	1730,53
242,68	1660,90
242,89	1740,77
243,11	1734,63
243,33	1683,43
243,55	1669,09
243,76	1732,58
243,98	1609,70
244,20	1669,09
244,42	1722,34
244,64	1648,61
244,85	1673,19
245,07	1632,23
245,29	1722,34
245,51	1689,57
245,72	1595,37
245,94	1763,30
246,16	1685,48
246,38	1722,34
246,59	1677,29
246,81	1658,85
247,03	1748,97
247,24	1562,60
247,46	1589,22
247,68	1773,54
247,90	1697,77
248,11	1691,62
248,33	1712,10
248,55	1576,94
248,77	1652,71
248,98	1654,76
249,20	1802,21
249,42	1697,77
249,64	1589,22
249,85	1683,43
250,07	1705,96
250,29	1712,10
250,50	1722,34
250,72	1646,57
250,94	1695,72
251,16	1796,07
251,37	1751,01
251,59	1701,86
251,81	1753,06
252,02	1789,92
252,24	1675,24
252,46	1687,53
252,68	1587,18
252,89	1667,05
253,11	1619,94
253,33	1794,02
253,54	1701,86
253,76	1595,37
253,98	1662,95
254,20	1617,90
254,41	1644,52
254,63	1609,70
254,85	1642,47
255,06	1710,05
255,28	1812,45
255,50	1656,81
255,71	1714,15
255,93	1599,46
256,15	1642,47
256,36	1755,11
256,58	1679,33
256,80	1671,14
257,02	1722,34
257,23	1714,15
257,45	1662,95
257,67	1679,33
257,88	1644,52
258,10	1722,34
258,32	1665,00
258,53	1673,19
258,75	1806,31
258,97	1632,23
259,18	1728,49
259,40	1683,43
259,62	1720,29
259,83	1800,16
260,05	1726,44
260,27	1986,53
260,48	1761,25
260,70	1615,85
260,92	1624,04
261,13	1724,39
261,35	1665,00
261,57	1699,81
261,78	1548,26
262,00	1619,94
262,22	1720,29
262,43	1652,71
262,65	1650,66
262,86	1695,72
263,08	1894,37
263,30	1716,20
263,51	1617,90
263,73	1667,05
263,95	1763,30
264,16	1638,38
264,38	1753,06
264,60	1667,05
264,81	1691,62
265,03	1781,73
265,25	1777,64
265,46	1689,57
265,68	1726,44
265,89	1732,58
266,11	1578,98
266,33	1746,92
266,54	1730,53
266,76	1769,44
266,98	1705,96
267,19	1830,88
267,41	1757,16
267,62	1710,05
267,84	1683,43
268,06	1712,10
268,27	1662,95
268,49	1769,44
268,70	1826,79
268,92	1689,57
269,14	1669,09
269,35	1675,24
269,57	1644,52
269,79	1812,45
270,00	1660,90
270,22	1748,97
270,43	1662,95
270,65	1609,70
270,87	1710,05
271,08	1708,01
271,30	1785,83
271,51	1632,23
271,73	1724,39
271,95	1755,11
272,16	1693,67
272,38	1736,68
272,59	1677,29
272,81	1789,92
273,02	1681,38
273,24	1720,29
273,46	1791,97
273,67	1673,19
273,89	1665,00
274,10	1619,94
274,32	1765,35
274,54	1658,85
274,75	1791,97
274,97	1642,47
275,18	1744,87
275,40	1714,15
275,61	1691,62
275,83	1761,25
276,05	1587,18
276,26	1724,39
276,48	1740,77
276,69	1662,95
276,91	1677,29
277,12	1767,40
277,34	1785,83
277,55	1757,16
277,77	1763,30
277,99	1689,57
278,20	1591,27
278,42	1615,85
278,63	1601,51
278,85	1726,44
279,06	1652,71
279,28	1703,91
279,49	1705,96
279,71	1748,97
279,93	1796,07
280,14	1742,82
280,36	1669,09
280,57	1759,21
280,79	1830,88
281,00	1593,32
281,22	1648,61
281,43	1681,38
281,65	1550,31
281,86	1638,38
282,08	1712,10
282,29	1830,88
282,51	1658,85
282,73	1630,18
282,94	1662,95
283,16	1697,77
283,37	1847,27
283,59	1724,39
283,80	1681,38
284,02	1646,57
284,23	1660,90
284,45	1726,44
284,66	1601,51
284,88	1677,29
285,09	1720,29
285,31	1648,61
285,52	1585,13
285,74	1626,09
285,95	1759,21
286,17	1697,77
286,38	1699,81
286,60	1626,09
286,81	1714,15
287,03	1619,94
287,24	1693,67
287,46	1789,92
287,67	1697,77
287,89	1810,40
288,10	1693,67
288,32	1695,72
288,53	1699,81
288,75	1783,78
288,96	1677,29
289,18	1621,99
289,39	1722,34
289,61	1714,15
289,82	1787,88
290,04	1800,16
290,25	1673,19
290,47	1732,58
290,68	1710,05
290,90	1697,77
291,11	1587,18
291,33	1839,08
291,54	1605,61
291,76	1615,85
291,97	1730,53
292,18	1734,63
292,40	1677,29
292,61	1662,95
292,83	1783,78
293,04	1714,15
293,26	1724,39
293,47	1726,44
293,69	1546,22
293,90	1689,57
294,12	1802,21
294,33	1714,15
294,55	1632,23
294,76	1726,44
294,97	1751,01
295,19	1771,49
295,40	1599,46
295,62	1757,16
295,83	1753,06
296,05	1626,09
296,26	1701,86
296,48	1578,98
296,69	1705,96
296,90	1652,71
297,12	1740,77
297,33	1755,11
297,55	1654,76
297,76	1652,71
297,98	1720,29
298,19	1656,81
298,41	1708,01
298,62	1757,16
298,83	1722,34
299,05	1800,16
299,26	1691,62
299,48	1673,19
299,69	1722,34
299,90	1693,67
300,12	1732,58
300,33	1687,53
300,55	1652,71
300,76	1734,63
300,98	1644,52
301,19	1740,77
301,40	1621,99
301,62	1724,39
301,83	1662,95
302,05	1761,25
302,26	1705,96
302,47	1658,85
302,69	1650,66
302,90	1734,63
303,12	1591,27
303,33	1746,92
303,54	1673,19
303,76	1746,92
303,97	1722,34
304,19	1773,54
304,40	1683,43
304,61	1724,39
304,83	1757,16
305,04	1771,49
305,26	1777,64
305,47	1626,09
305,68	1667,05
305,90	1632,23
306,11	1730,53
306,33	1724,39
306,54	1687,53
306,75	1671,14
306,97	1626,09
307,18	1632,23
307,39	1685,48
307,61	1665,00
307,82	1726,44
308,04	1767,40
308,25	1675,24
308,46	1648,61
308,68	1730,53
308,89	1656,81
309,10	1695,72
309,32	1705,96
309,53	1636,33
309,74	1679,33
309,96	1634,28
310,17	1753,06
310,39	1667,05
310,60	1808,36
310,81	1701,86
311,03	1587,18
311,24	1714,15
311,45	1732,58
311,67	1773,54
311,88	1748,97
312,09	1650,66
312,31	1679,33
312,52	1656,81
312,73	1755,11
312,95	1681,38
313,16	1714,15
313,37	1722,34
313,59	1675,24
313,80	1691,62
314,01	1730,53
314,23	1615,85
314,44	1624,04
314,65	1703,91
314,87	1765,35
315,08	1667,05
315,29	1720,29
315,51	1644,52
315,72	1650,66
315,93	1845,22
316,15	1726,44
316,36	1619,94
316,57	1714,15
316,79	1693,67
317,00	1642,47
317,21	1660,90
317,43	1624,04
317,64	1734,63
317,85	1710,05
318,07	1607,66
318,28	1730,53
318,49	1804,26
318,70	1929,19
318,92	1800,16
319,13	1779,68
319,34	1816,55
319,56	1771,49
319,77	1773,54
319,98	1851,36
320,20	1834,98
320,41	1697,77
320,62	1720,29
320,83	1650,66
321,05	1822,69
321,26	1720,29
321,47	1726,44
321,69	1787,88
321,90	1720,29
322,11	1730,53
322,32	1703,91
322,54	1779,68
322,75	1630,18
322,96	1810,40
323,18	1656,81
323,39	1572,84
323,60	1646,57
323,81	1751,01
324,03	1656,81
324,24	1593,32
324,45	1724,39
324,66	1738,73
324,88	1718,25
325,09	1677,29
325,30	1665,00
325,52	1669,09
325,73	1708,01
325,94	1601,51
326,15	1634,28
326,37	1626,09
326,58	1771,49
326,79	1832,93
327,00	1603,56
327,22	1638,38
327,43	1640,42
327,64	1615,85
327,85	1730,53
328,07	1613,80
328,28	1806,31
328,49	1685,48
328,70	1697,77
328,92	1699,81
329,13	1654,76
329,34	1730,53
329,55	1722,34
329,76	1746,92
329,98	1685,48
330,19	1796,07
330,40	1697,77
330,61	1722,34
330,83	1701,86
331,04	1667,05
331,25	1751,01
331,46	1689,57
331,68	1597,42
331,89	1753,06
332,10	1687,53
332,31	1683,43
332,52	1703,91
332,74	1808,36
332,95	1609,70
333,16	1658,85
333,37	1785,83
333,58	1693,67
333,80	1767,40
334,01	1671,14
334,22	1673,19
334,43	1671,14
334,64	1812,45
334,86	1654,76
335,07	1621,99
335,28	1740,77
335,49	1640,42
335,70	1669,09
335,92	1724,39
336,13	1824,74
336,34	1740,77
336,55	1607,66
336,76	1675,24
336,98	1605,61
337,19	1728,49
337,40	1742,82
337,61	1834,98
337,82	1613,80
338,04	1765,35
338,25	1583,08
338,46	1626,09
338,67	1648,61
338,88	1613,80
339,09	1617,90
339,31	1583,08
339,52	1609,70
339,73	1605,61
339,94	1648,61
340,15	1640,42
340,36	1716,20
340,58	1728,49
340,79	1601,51
341,00	1691,62
341,21	1617,90
341,42	1787,88
341,63	1634,28
341,85	1748,97
342,06	1695,72
342,27	1640,42
342,48	1710,05
342,69	1652,71
342,90	1650,66
343,12	1683,43
343,33	1767,40
343,54	1757,16
343,75	1828,84
343,96	1679,33
344,17	1708,01
344,38	1710,05
344,60	1683,43
344,81	1705,96
345,02	1656,81
345,23	1820,64
345,44	1730,53
345,65	1812,45
345,86	1669,09
346,07	1650,66
346,29	1642,47
346,50	1712,10
346,71	1746,92
346,92	1757,16
347,13	1781,73
347,34	1699,81
347,55	1771,49
347,76	1695,72
347,98	1654,76
348,19	1650,66
348,40	1773,54
348,61	1558,50
348,82	1755,11
349,03	1669,09
349,24	1681,38
349,45	1785,83
349,66	1613,80
349,88	1697,77
350,09	1740,77
350,30	1759,21
350,51	1779,68
350,72	1640,42
350,93	1699,81
351,14	1683,43
351,35	1724,39
351,56	1703,91
351,77	1689,57
351,99	1662,95
352,20	1751,01
352,41	1751,01
352,62	1628,14
352,83	1669,09
353,04	1726,44
353,25	1630,18
353,46	1712,10
353,67	1769,44
353,88	1523,69
354,09	1714,15
354,30	1714,15
354,52	1714,15
354,73	1640,42
354,94	1646,57
355,15	1665,00
355,36	1816,55
355,57	1703,91
355,78	1724,39
355,99	1626,09
356,20	1677,29
356,41	1740,77
356,62	1693,67
356,83	1652,71
357,04	1683,43
357,25	1572,84
357,46	1644,52
357,68	1605,61
357,89	1665,00
358,10	1736,68
358,31	1744,87
358,52	1632,23
358,73	1581,03
358,94	1665,00
359,15	1699,81
359,36	1746,92
359,57	1718,25
359,78	1675,24
359,99	1708,01
360,20	1689,57
360,41	1677,29
360,62	1724,39
360,83	1710,05
361,04	1626,09
361,25	1755,11
361,46	1759,21
361,67	1771,49
361,88	1728,49
362,09	1765,35
362,30	1714,15
362,51	1689,57
362,72	1685,48
362,93	1779,68
363,14	1806,31
363,35	1767,40
363,56	1605,61
363,78	1730,53
363,99	1740,77
364,20	1660,90
364,41	1640,42
364,62	1820,64
364,83	1675,24
365,04	1718,25
365,25	1738,73
365,46	1765,35
365,67	1619,94
365,88	1595,37
366,09	1734,63
366,30	1642,47
366,51	1619,94
366,72	1685,48
366,93	1644,52
367,14	1767,40
367,35	1812,45
367,56	1705,96
367,77	1800,16
367,98	1642,47
368,18	1701,86
368,39	1710,05
368,60	1687,53
368,81	1769,44
369,02	1703,91
369,23	1654,76
369,44	1619,94
369,65	1675,24
369,86	1689,57
370,07	1691,62
370,28	1652,71
370,49	1718,25
370,70	1763,30
370,91	1599,46
371,12	1607,66
371,33	1777,64
371,54	1691,62
371,75	1769,44
371,96	1566,70
372,17	1705,96
372,38	1675,24
372,59	1660,90
372,80	1599,46
373,01	1699,81
373,22	1734,63
373,43	1720,29
373,64	1642,47
373,85	1796,07
374,06	1798,12
374,26	1751,01
374,47	1736,68
374,68	1724,39
374,89	1744,87
375,10	1691,62
375,31	1806,31
375,52	1718,25
375,73	1677,29
375,94	1595,37
376,15	1761,25
376,36	1662,95
376,57	1658,85
376,78	1681,38
376,99	1732,58
377,20	1851,36
377,40	1652,71
377,61	1730,53
377,82	1656,81
378,03	1722,34
378,24	1730,53
378,45	1720,29
378,66	1726,44
378,87	1603,56
379,08	1658,85
379,29	1621,99
379,50	1740,77
379,71	1660,90
379,91	1804,26
380,12	1718,25
380,33	1712,10
380,54	1691,62
380,75	1697,77
380,96	1720,29
381,17	1746,92
381,38	1703,91
381,59	1697,77
381,80	1771,49
382,00	1826,79
382,21	1662,95
382,42	1853,41
382,63	1871,84
382,84	1822,69
383,05	1769,44
383,26	1837,03
383,47	1751,01
383,68	1738,73
383,88	1675,24
384,09	1742,82
384,30	1791,97
384,51	1697,77
384,72	1626,09
384,93	1671,14
385,14	1650,66
385,35	1736,68
385,55	1617,90
385,76	1740,77
385,97	1660,90
386,18	1564,65
386,39	1619,94
386,60	1671,14
386,81	1675,24
387,02	1665,00
387,22	1648,61
387,43	1804,26
387,64	1802,21
387,85	1882,08
388,06	2260,96
388,27	4257,73
388,48	6909,85
388,68	8343,42
388,89	9650,03
389,10	9860,97
389,31	8699,77
389,52	7583,63
389,73	6746,01
389,93	6354,85
390,14	5998,50
390,35	5416,88
390,56	4626,36
390,77	3770,31
390,98	3080,14
391,18	2484,19
391,39	2162,66
391,60	1789,92
391,81	1830,88
392,02	1701,86
392,23	1859,56
392,43	1724,39
392,64	1822,69
392,85	1683,43
393,06	1826,79
393,27	1652,71
393,47	1703,91
393,68	1742,82
393,89	1693,67
394,10	1726,44
394,31	1646,57
394,52	1587,18
394,72	1716,20
394,93	1804,26
395,14	1595,37
395,35	1771,49
395,56	1603,56
395,76	1751,01
395,97	1828,84
396,18	1755,11
396,39	1796,07
396,60	1970,15
396,80	1826,79
397,01	1824,74
397,22	1773,54
397,43	1804,26
397,64	1736,68
397,84	1769,44
398,05	1912,80
398,26	1751,01
398,47	1753,06
398,67	1734,63
398,88	1738,73
399,09	1804,26
399,30	1712,10
399,51	1763,30
399,71	1810,40
399,92	1705,96
400,13	1712,10
400,34	1677,29
400,54	1628,14
400,75	1810,40
400,96	1689,57
401,17	1806,31
401,37	1722,34
401,58	1673,19
401,79	1705,96
402,00	1830,88
402,21	1951,71
402,41	1964,00
402,62	1998,82
402,83	2039,78
403,04	2023,39
403,24	2117,60
403,45	1787,88
403,66	1845,22
403,87	1927,14
404,07	1837,03
404,28	1839,08
404,49	1794,02
404,70	1751,01
404,90	1820,64
405,11	1712,10
405,32	1789,92
405,52	1708,01
405,73	1650,66
405,94	1697,77
406,15	1644,52
406,35	1689,57
406,56	1697,77
406,77	1714,15
406,98	1644,52
407,18	1648,61
407,39	1783,78
407,60	1662,95
407,80	1787,88
408,01	1642,47
408,22	1705,96
408,43	1673,19
408,63	1755,11
408,84	1771,49
409,05	1794,02
409,25	1669,09
409,46	1705,96
409,67	1658,85
409,88	1654,76
410,08	1843,17
410,29	1681,38
410,50	1806,31
410,70	1710,05
410,91	1636,33
411,12	1697,77
411,32	1722,34
411,53	1732,58
411,74	1777,64
411,95	1812,45
412,15	1744,87
412,36	1781,73
412,57	1695,72
412,77	1820,64
412,98	1736,68
413,19	1705,96
413,39	1730,53
413,60	1771,49
413,81	1800,16
414,01	1617,90
414,22	1791,97
414,43	1714,15
414,63	1609,70
414,84	1796,07
415,05	1689,57
415,25	1593,32
415,46	1691,62
415,67	1662,95
415,87	1716,20
416,08	1646,57
416,29	1687,53
416,49	1751,01
416,70	1712,10
416,91	1716,20
417,11	1665,00
417,32	1679,33
417,53	1726,44
417,73	1730,53
417,94	1656,81
418,15	1705,96
418,35	1800,16
418,56	1697,77
418,77	1865,70
418,97	1708,01
419,18	1669,09
419,38	1587,18
419,59	1693,67
419,80	1873,89
420,00	1662,95
420,21	1691,62
420,42	1708,01
420,62	1740,77
420,83	1705,96
421,04	1697,77
421,24	1636,33
421,45	1755,11
421,65	1777,64
421,86	1660,90
422,07	1703,91
422,27	1691,62
422,48	1697,77
422,69	1638,38
422,89	1691,62
423,10	1648,61
423,30	1605,61
423,51	1683,43
423,72	1736,68
423,92	1773,54
424,13	1619,94
424,33	1736,68
424,54	1732,58
424,75	1800,16
424,95	1771,49
425,16	1646,57
425,36	1718,25
425,57	1763,30
425,78	1718,25
425,98	1755,11
426,19	1693,67
426,39	1613,80
426,60	1714,15
426,81	1804,26
427,01	1685,48
427,22	1632,23
427,42	1583,08
427,63	1656,81
427,83	1783,78
428,04	1779,68
428,25	1789,92
428,45	1769,44
428,66	1693,67
428,86	1619,94
429,07	1636,33
429,28	1701,86
429,48	1683,43
429,69	1714,15
429,89	1738,73
430,10	1697,77
430,30	1722,34
430,51	1683,43
430,71	1624,04
430,92	1722,34
431,13	1648,61
431,33	1714,15
431,54	1789,92
431,74	1783,78
431,95	1814,50
432,15	1695,72
432,36	1759,21
432,56	1751,01
432,77	1857,51
432,98	1777,64
433,18	1708,01
433,39	1693,67
433,59	1646,57
433,80	1785,83
434,00	1834,98
434,21	1728,49
434,41	1566,70
434,62	1798,12
434,82	1644,52
435,03	1660,90
435,23	1662,95
435,44	1597,42
435,64	1714,15
435,85	1638,38
436,06	1755,11
436,26	1761,25
436,47	1656,81
436,67	1714,15
436,88	1607,66
437,08	1730,53
437,29	1738,73
437,49	1712,10
437,70	1742,82
437,90	1691,62
438,11	1902,56
438,31	1791,97
438,52	1832,93
438,72	1794,02
438,93	1906,66
439,13	1742,82
439,34	1771,49
439,54	1730,53
439,75	1804,26
439,95	1806,31
440,16	1677,29
440,36	1708,01
440,57	1761,25
440,77	1746,92
440,98	1769,44
441,18	1710,05
441,39	1730,53
441,59	1650,66
441,80	1763,30
442,00	1740,77
442,21	1732,58
442,41	1648,61
442,62	1781,73
442,82	1658,85
443,02	1683,43
443,23	1769,44
443,43	1689,57
443,64	1767,40
443,84	1646,57
444,05	1808,36
444,25	1697,77
444,46	1751,01
444,66	1699,81
444,87	1839,08
445,07	1695,72
445,28	1697,77
445,48	1720,29
445,69	1828,84
445,89	1910,75
446,09	1697,77
446,30	1996,77
446,50	2693,08
446,71	3712,97
446,91	4341,69
447,12	4655,03
447,32	4900,79
447,53	4341,69
447,73	3919,81
447,93	3520,46
448,14	3256,27
448,34	3164,11
448,55	2969,55
448,75	2852,82
448,96	2652,12
449,16	2463,71
449,36	2293,72
449,57	2066,40
449,77	1923,04
449,98	1748,97
450,18	1796,07
450,39	1818,60
450,59	1796,07
450,79	1708,01
451,00	1656,81
451,20	1834,98
451,41	1789,92
451,61	1789,92
451,81	1796,07
452,02	1644,52
452,22	1734,63
452,43	1726,44
452,63	1716,20
452,84	1718,25
453,04	1712,10
453,24	1736,68
453,45	1771,49
453,65	1736,68
453,86	1724,39
454,06	1740,77
454,26	1708,01
454,47	1693,67
454,67	1824,74
454,87	1753,06
455,08	1732,58
455,28	1863,65
455,49	1636,33
455,69	1667,05
455,89	1845,22
456,10	1841,12
456,30	1714,15
456,51	1763,30
456,71	1775,59
456,91	1765,35
457,12	1738,73
457,32	1726,44
457,52	1601,51
457,73	1742,82
457,93	1681,38
458,14	1654,76
458,34	1710,05
458,54	1697,77
458,75	1710,05
458,95	1746,92
459,15	1740,77
459,36	1755,11
459,56	1685,48
459,76	1789,92
459,97	1697,77
460,17	1812,45
460,37	1755,11
460,58	1687,53
460,78	1755,11
460,99	1628,14
461,19	1681,38
461,39	1701,86
461,60	1716,20
461,80	1724,39
462,00	1673,19
462,21	1650,66
462,41	1619,94
462,61	1689,57
462,82	1634,28
463,02	1808,36
463,22	1679,33
463,43	1806,31
463,63	1724,39
463,83	1728,49
464,04	1763,30
464,24	1675,24
464,44	1656,81
464,64	1755,11
464,85	1753,06
465,05	1832,93
465,25	1763,30
465,46	1693,67
465,66	1730,53
465,86	1730,53
466,07	1785,83
466,27	1644,52
466,47	1640,42
466,68	1648,61
466,88	1796,07
467,08	1781,73
467,29	1771,49
467,49	1665,00
467,69	1736,68
467,89	1732,58
468,10	1736,68
468,30	1660,90
468,50	1798,12
468,71	1724,39
468,91	1576,94
469,11	1773,54
469,31	1736,68
469,52	1714,15
469,72	1861,60
469,92	1806,31
470,13	1699,81
470,33	1728,49
470,53	1794,02
470,73	2117,60
470,94	2299,87
471,14	2351,07
471,34	2521,05
471,54	2410,46
471,75	2217,95
471,95	2121,70
472,15	2095,07
472,36	2064,35
472,56	2052,06
472,76	1972,19
472,96	1937,38
473,17	1902,56
473,37	1945,57
473,57	1718,25
473,77	1734,63
473,98	1734,63
474,18	1712,10
474,38	1873,89
474,58	1665,00
474,79	1630,18
474,99	1800,16
475,19	1734,63
475,39	1708,01
475,60	1775,59
475,80	1734,63
476,00	1681,38
476,20	1591,27
476,41	1697,77
476,61	1845,22
476,81	1720,29
477,01	1681,38
477,21	1875,94
477,42	1791,97
477,62	1656,81
477,82	1744,87
478,02	1703,91
478,23	1728,49
478,43	1642,47
478,63	1708,01
478,83	1699,81
479,03	1636,33
479,24	1773,54
479,44	1765,35
479,64	1679,33
479,84	1648,61
480,04	1613,80
480,25	1757,16
480,45	1695,72
480,65	1697,77
480,85	1773,54
481,06	1652,71
481,26	1757,16
481,46	1697,77
481,66	1710,05
481,86	1736,68
482,06	1783,78
482,27	1691,62
482,47	1740,77
482,67	1667,05
482,87	1683,43
483,07	1732,58
483,28	1710,05
483,48	1634,28
483,68	1701,86
483,88	1587,18
484,08	1630,18
484,29	1705,96
484,49	1720,29
484,69	1630,18
484,89	1798,12
485,09	1683,43
485,29	1751,01
485,50	1722,34
485,70	1636,33
485,90	1787,88
486,10	1732,58
486,30	1771,49
486,50	1708,01
486,71	1708,01
486,91	1773,54
487,11	1775,59
487,31	1742,82
487,51	1658,85
487,71	1611,75
487,91	1638,38
488,12	1689,57
488,32	1560,55
488,52	1726,44
488,72	1648,61
488,92	1761,25
489,12	1785,83
489,32	1710,05
489,53	1665,00
489,73	1658,85
489,93	1755,11
490,13	1628,14
490,33	1599,46
490,53	1802,21
490,73	1832,93
490,94	1619,94
491,14	1759,21
491,34	1851,36
491,54	2133,98
491,74	2547,67
491,94	2852,82
492,14	3053,52
492,34	3002,32
492,54	2779,09
492,75	2529,24
492,95	2447,32
493,15	2252,77
493,35	2242,53
493,55	2189,28
493,75	2164,70
493,95	2121,70
494,15	2060,26
494,35	1923,04
494,56	1818,60
494,76	1730,53
494,96	1800,16
495,16	1785,83
495,36	1701,86
495,56	1712,10
495,76	1732,58
495,96	1650,66
496,16	1732,58
496,36	1914,85
496,56	1642,47
496,77	1765,35
496,97	1660,90
497,17	1775,59
497,37	1599,46
497,57	1849,32
497,77	1689,57
497,97	1640,42
498,17	1748,97
498,37	1681,38
498,57	1761,25
498,77	1724,39
498,97	1783,78
499,17	1761,25
499,38	1738,73
499,58	1775,59
499,78	1828,84
499,98	1812,45
500,18	1708,01
500,38	1652,71
500,58	1920,99
500,78	2533,34
500,98	4624,31
501,18	5818,28
501,38	6772,63
501,58	7133,08
501,78	6553,50
501,98	5576,62
502,18	5113,78
502,38	4437,95
502,58	4175,81
502,78	3839,94
502,98	3731,40
503,18	3471,31
503,38	3129,30
503,59	2791,38
503,79	2670,55
503,99	2473,95
504,19	2254,81
504,39	2246,62
504,59	2179,04
504,79	2107,36
504,99	2031,58
505,19	1951,71
505,39	1869,80
505,59	1912,80
505,79	1880,04
505,99	1855,46
506,19	1730,53
506,39	1863,65
506,59	1728,49
506,79	1708,01
506,99	1787,88
507,19	1701,86
507,39	1798,12
507,59	1701,86
507,79	1689,57
507,99	1642,47
508,19	1644,52
508,39	1669,09
508,59	1779,68
508,79	1730,53
508,99	1828,84
509,19	1714,15
509,39	1802,21
509,59	1742,82
509,79	1738,73
509,99	1689,57
510,19	1730,53
510,39	1746,92
510,59	1673,19
510,79	1617,90
510,99	1628,14
511,19	1810,40
511,39	1783,78
511,59	1798,12
511,79	1730,53
511,99	1781,73
512,19	1859,56
512,38	1748,97
512,58	1632,23
512,78	1656,81
512,98	1738,73
513,18	1779,68
513,38	1603,56
513,58	1789,92
513,78	1757,16
513,98	1724,39
514,18	1640,42
514,38	1736,68
514,58	1787,88
514,78	1744,87
514,98	1720,29
515,18	1783,78
515,38	1687,53
515,58	1820,64
515,78	1693,67
515,98	1687,53
516,18	1771,49
516,38	1665,00
516,57	1679,33
516,77	1681,38
516,97	1757,16
517,17	1671,14
517,37	1615,85
517,57	1738,73
517,77	1736,68
517,97	1785,83
518,17	1730,53
518,37	1685,48
518,57	1642,47
518,77	1722,34
518,97	1636,33
519,16	1769,44
519,36	1787,88
519,56	1634,28
519,76	1701,86
519,96	1716,20
520,16	1781,73
520,36	1642,47
520,56	1814,50
520,76	1714,15
520,96	1681,38
521,16	1718,25
521,35	1828,84
521,55	1820,64
521,75	1796,07
521,95	1736,68
522,15	1710,05
522,35	1595,37
522,55	1708,01
522,75	1777,64
522,95	1683,43
523,14	1628,14
523,34	1669,09
523,54	1687,53
523,74	1834,98
523,94	1710,05
524,14	1619,94
524,34	1773,54
524,54	1765,35
524,73	1761,25
524,93	1716,20
525,13	1779,68
525,33	1714,15
525,53	1927,14
525,73	1765,35
525,93	1771,49
526,13	1736,68
526,32	1812,45
526,52	1794,02
526,72	1755,11
526,92	1710,05
527,12	1681,38
527,32	1546,22
527,52	1685,48
527,71	1763,30
527,91	1675,24
528,11	1726,44
528,31	1636,33
528,51	1714,15
528,71	1722,34
528,90	1681,38
529,10	1763,30
529,30	1757,16
529,50	1585,13
529,70	1679,33
529,90	1681,38
530,09	1771,49
530,29	1662,95
530,49	1613,80
530,69	1877,99
530,89	1679,33
531,09	1787,88
531,28	1644,52
531,48	1791,97
531,68	1722,34
531,88	1734,63
532,08	1708,01
532,28	1673,19
532,47	1755,11
532,67	1769,44
532,87	1753,06
533,07	1701,86
533,27	1773,54
533,46	1748,97
533,66	1796,07
533,86	1705,96
534,06	1796,07
534,26	1701,86
534,45	1748,97
534,65	1773,54
534,85	1816,55
535,05	1691,62
535,25	1744,87
535,44	1701,86
535,64	1675,24
535,84	1691,62
536,04	1738,73
536,24	1681,38
536,43	1689,57
536,63	1767,40
536,83	1740,77
537,03	1722,34
537,22	1671,14
537,42	1689,57
537,62	1785,83
537,82	1753,06
538,02	1740,77
538,21	1816,55
538,41	1935,33
538,61	1787,88
538,81	1730,53
539,00	1798,12
539,20	1708,01
539,40	1646,57
539,60	1763,30
539,79	1773,54
539,99	1617,90
540,19	1695,72
540,39	1751,01
540,58	1779,68
540,78	1767,40
540,98	1705,96
541,18	1705,96
541,37	1746,92
541,57	1685,48
541,77	1765,35
541,97	1677,29
542,16	1605,61
542,36	1667,05
542,56	1712,10
542,76	1806,31
542,95	1791,97
543,15	1746,92
543,35	1753,06
543,54	1673,19
543,74	1710,05
543,94	1751,01
544,14	1615,85
544,33	1771,49
544,53	1658,85
544,73	1669,09
544,93	1691,62
545,12	1646,57
545,32	1722,34
545,52	1755,11
545,71	1658,85
545,91	1683,43
546,11	1744,87
546,30	1677,29
546,50	1732,58
546,70	1765,35
546,90	1763,30
547,09	1660,90
547,29	1759,21
547,49	1699,81
547,68	1824,74
547,88	1718,25
548,08	1763,30
548,27	2172,89
548,47	1699,81
548,67	1685,48
548,87	1732,58
549,06	1695,72
549,26	1677,29
549,46	1779,68
549,65	1648,61
549,85	1701,86
550,05	1773,54
550,24	1662,95
550,44	1736,68
550,64	1757,16
550,83	1720,29
551,03	1834,98
551,23	1726,44
551,42	1804,26
551,62	1650,66
551,82	1640,42
552,01	1748,97
552,21	1785,83
552,41	1673,19
552,60	1812,45
552,80	1710,05
553,00	1691,62
553,19	1767,40
553,39	1834,98
553,59	1697,77
553,78	1679,33
553,98	1732,58
554,17	1652,71
554,37	1726,44
554,57	1751,01
554,76	1656,81
554,96	1724,39
555,16	1751,01
555,35	1791,97
555,55	1740,77
555,75	1787,88
555,94	1720,29
556,14	1613,80
556,33	1785,83
556,53	1679,33
556,73	1730,53
556,92	1791,97
557,12	1814,50
557,32	1820,64
557,51	1789,92
557,71	1775,59
557,90	1855,46
558,10	1787,88
558,30	1722,34
558,49	1714,15
558,69	1710,05
558,88	1748,97
559,08	1675,24
559,28	1712,10
559,47	1779,68
559,67	1757,16
559,86	1841,12
560,06	1744,87
560,26	1763,30
560,45	1669,09
560,65	1683,43
560,84	1804,26
561,04	1660,90
561,24	1677,29
561,43	1624,04
561,63	1857,51
561,82	1796,07
562,02	1763,30
562,22	1652,71
562,41	1675,24
562,61	1691,62
562,80	1703,91
563,00	1906,66
563,19	1740,77
563,39	1699,81
563,59	1757,16
563,78	1687,53
563,98	1574,89
564,17	1656,81
564,37	1593,32
564,56	1705,96
564,76	1636,33
564,96	1820,64
565,15	1665,00
565,35	1877,99
565,54	1781,73
565,74	1787,88
565,93	1806,31
566,13	1767,40
566,32	1771,49
566,52	1767,40
566,71	1765,35
566,91	1783,78
567,11	1843,17
567,30	1648,61
567,50	1724,39
567,69	1796,07
567,89	1687,53
568,08	1697,77
568,28	1691,62
568,47	1634,28
568,67	1794,02
568,86	1744,87
569,06	1802,21
569,25	1716,20
569,45	1710,05
569,64	1775,59
569,84	1720,29
570,04	1748,97
570,23	1718,25
570,43	1730,53
570,62	1718,25
570,82	1763,30
571,01	1595,37
571,21	1640,42
571,40	1619,94
571,60	1732,58
571,79	1701,86
571,99	1708,01
572,18	1615,85
572,38	1667,05
572,57	1648,61
572,77	1775,59
572,96	1851,36
573,16	1701,86
573,35	1738,73
573,55	1820,64
573,74	1734,63
573,94	1732,58
574,13	1732,58
574,33	1796,07
574,52	1820,64
574,71	1757,16
574,91	1761,25
575,10	1679,33
575,30	1732,58
575,49	1697,77
575,69	1687,53
575,88	1736,68
576,08	1691,62
576,27	1837,03
576,47	1654,76
576,66	1839,08
576,86	1705,96
577,05	1654,76
577,25	1751,01
577,44	1804,26
577,64	1687,53
577,83	1810,40
578,02	1781,73
578,22	1812,45
578,41	1785,83
578,61	1759,21
578,80	1646,57
579,00	1755,11
579,19	1701,86
579,39	1779,68
579,58	1791,97
579,77	1796,07
579,97	1837,03
580,16	1691,62
580,36	1841,12
580,55	1767,40
580,75	1794,02
580,94	1828,84
581,13	1851,36
581,33	1812,45
581,52	1658,85
581,72	1832,93
581,91	1806,31
582,11	1769,44
582,30	1724,39
582,49	1742,82
582,69	1787,88
582,88	1751,01
583,08	1812,45
583,27	1861,60
583,47	1732,58
583,66	1689,57
583,85	1660,90
584,05	1732,58
584,24	1740,77
584,44	1796,07
584,63	1841,12
584,82	1767,40
585,02	1779,68
585,21	1796,07
585,41	1736,68
585,60	1808,36
585,79	1810,40
585,99	1828,84
586,18	1908,71
586,37	2160,61
586,57	3499,98
586,76	10100,58
586,96	24972,93
587,15	35038,70
587,34	40947,09
587,54	42630,52
587,73	36822,48
587,93	26740,33
588,12	21677,75
588,31	18595,56
588,51	16609,03
588,70	15413,01
588,89	14317,35
589,09	12750,65
589,28	11106,13
589,47	9635,69
589,67	8050,57
589,86	6553,50
590,06	4904,89
590,25	3985,35
590,44	3024,85
590,64	2578,39
590,83	2324,44
591,02	2090,98
591,22	1974,24
591,41	1828,84
591,60	1853,41
591,80	1906,66
591,99	1736,68
592,18	1779,68
592,38	1734,63
592,57	1806,31
592,76	1740,77
592,96	1777,64
593,15	1763,30
593,34	1853,41
593,54	1755,11
593,73	1828,84
593,92	1681,38
594,12	1714,15
594,31	1744,87
594,50	1820,64
594,70	1808,36
594,89	1834,98
595,08	1630,18
595,28	1724,39
595,47	1859,56
595,66	1800,16
595,86	1658,85
596,05	1705,96
596,24	1677,29
596,43	1875,94
596,63	1804,26
596,82	1763,30
597,01	1691,62
597,21	1849,32
597,40	1812,45
597,59	1755,11
597,79	1740,77
597,98	1763,30
598,17	1691,62
598,36	1779,68
598,56	1734,63
598,75	1703,91
598,94	1744,87
599,14	1744,87
599,33	1630,18
599,52	1759,21
599,71	1769,44
599,91	1724,39
600,10	1789,92
600,29	1718,25
600,48	1718,25
600,68	1708,01
600,87	1755,11
601,06	1642,47
601,26	1710,05
601,45	1689,57
601,64	1689,57
601,83	1781,73
602,03	1720,29
602,22	1652,71
602,41	1800,16
602,60	1865,70
602,80	1789,92
602,99	1746,92
603,18	1646,57
603,37	1769,44
603,57	1738,73
603,76	1751,01
603,95	1767,40
604,14	1673,19
604,34	1761,25
604,53	1785,83
604,72	1748,97
604,91	1732,58
605,10	1759,21
605,30	1673,19
605,49	1916,90
605,68	1796,07
605,87	1785,83
606,07	1615,85
606,26	1654,76
606,45	1722,34
606,64	1740,77
606,84	1714,15
607,03	1677,29
607,22	1763,30
607,41	1652,71
607,60	1726,44
607,80	1759,21
607,99	1681,38
608,18	1722,34
608,37	1714,15
608,56	1685,48
608,76	1796,07
608,95	1757,16
609,14	1763,30
609,33	1767,40
609,52	1748,97
609,72	1763,30
609,91	1703,91
610,10	1781,73
610,29	1791,97
610,48	1789,92
610,68	1703,91
610,87	1751,01
611,06	1753,06
611,25	1636,33
611,44	1816,55
611,63	1763,30
611,83	1789,92
612,02	1621,99
612,21	1759,21
612,40	1658,85
612,59	1607,66
612,79	1722,34
612,98	1734,63
613,17	1740,77
613,36	1656,81
613,55	1826,79
613,74	1730,53
613,93	1679,33
614,13	1697,77
614,32	1722,34
614,51	1693,67
614,70	1648,61
614,89	1634,28
615,08	1726,44
615,28	2021,35
615,47	1703,91
615,66	1714,15
615,85	1740,77
616,04	1857,51
616,23	1689,57
616,42	1705,96
616,62	1748,97
616,81	1765,35
617,00	1791,97
617,19	1652,71
617,38	1701,86
617,57	1734,63
617,76	1779,68
617,95	1779,68
618,15	1734,63
618,34	1783,78
618,53	1632,23
618,72	1722,34
618,91	1806,31
619,10	1832,93
619,29	1703,91
619,48	1677,29
619,68	1617,90
619,87	1722,34
620,06	1642,47
620,25	1734,63
620,44	1628,14
620,63	1708,01
620,82	1761,25
621,01	1738,73
621,20	1724,39
621,39	1718,25
621,59	1775,59
621,78	1736,68
621,97	1720,29
622,16	1730,53
622,35	1726,44
622,54	1724,39
622,73	1757,16
622,92	1558,50
623,11	1785,83
623,30	1800,16
623,49	1773,54
623,68	1603,56
623,88	1710,05
624,07	1681,38
624,26	1722,34
624,45	1701,86
624,64	1685,48
624,83	1689,57
625,02	1710,05
625,21	1718,25
625,40	1734,63
625,59	1771,49
625,78	1615,85
625,97	1771,49
626,16	1701,86
626,35	1738,73
626,54	1732,58
626,74	1738,73
626,93	1630,18
627,12	1683,43
627,31	1841,12
627,50	1693,67
627,69	1785,83
627,88	1667,05
628,07	1767,40
628,26	1607,66
628,45	1669,09
628,64	1652,71
628,83	1665,00
629,02	1751,01
629,21	1775,59
629,40	1732,58
629,59	1744,87
629,78	1771,49
629,97	1679,33
630,16	1699,81
630,35	1779,68
630,54	1748,97
630,73	1763,30
630,92	1658,85
631,11	1619,94
631,30	1755,11
631,49	1724,39
631,68	1691,62
631,87	1701,86
632,06	1714,15
632,25	1822,69
632,44	1716,20
632,63	1738,73
632,82	1689,57
633,01	1632,23
633,20	1724,39
633,39	1763,30
633,58	1662,95
633,77	1716,20
633,96	1728,49
634,15	1720,29
634,34	1822,69
634,53	1775,59
634,72	1705,96
634,91	1609,70
635,10	1712,10
635,29	1708,01
635,48	1677,29
635,67	1671,14
635,86	1632,23
636,05	1832,93
636,24	1714,15
636,43	1697,77
636,62	1734,63
636,81	1554,41
637,00	1738,73
637,19	1673,19
637,38	1689,57
637,57	1673,19
637,76	1624,04
637,95	1654,76
638,14	1699,81
638,33	1697,77
638,52	1691,62
638,71	1624,04
638,89	1675,24
639,08	1855,46
639,27	1716,20
639,46	1597,42
639,65	1773,54
639,84	1812,45
640,03	1796,07
640,22	1660,90
640,41	1853,41
640,60	1724,39
640,79	1730,53
640,98	1689,57
641,17	1753,06
641,36	1689,57
641,55	1708,01
641,74	1660,90
641,92	1687,53
642,11	1716,20
642,30	1656,81
642,49	1681,38
642,68	1601,51
642,87	1728,49
643,06	1656,81
643,25	1673,19
643,44	1748,97
643,63	1671,14
643,82	1806,31
644,00	1658,85
644,19	1738,73
644,38	1613,80
644,57	1689,57
644,76	1722,34
644,95	1746,92
645,14	1691,62
645,33	1675,24
645,52	1730,53
645,71	1720,29
645,89	1646,57
646,08	1642,47
646,27	1771,49
646,46	1861,60
646,65	1669,09
646,84	1773,54
647,03	1665,00
647,22	1718,25
647,40	1695,72
647,59	1585,13
647,78	1642,47
647,97	1603,56
648,16	1691,62
648,35	1783,78
648,54	1703,91
648,73	1718,25
648,91	1779,68
649,10	1765,35
649,29	1662,95
649,48	1658,85
649,67	1710,05
649,86	1703,91
650,05	1703,91
650,23	1789,92
650,42	1640,42
650,61	1730,53
650,80	1697,77
650,99	1808,36
651,18	1744,87
651,36	1808,36
651,55	1671,14
651,74	1718,25
651,93	1691,62
652,12	1744,87
652,31	1734,63
652,49	1648,61
652,68	1656,81
652,87	1810,40
653,06	1638,38
653,25	1785,83
653,44	1703,91
653,62	1763,30
653,81	1730,53
654,00	1755,11
654,19	1689,57
654,38	1804,26
654,56	1744,87
654,75	1691,62
654,94	1826,79
655,13	1771,49
655,32	1705,96
655,51	1751,01
655,69	1705,96
655,88	1724,39
656,07	1685,48
656,26	1779,68
656,45	1687,53
656,63	1675,24
656,82	1761,25
657,01	1783,78
657,20	1681,38
657,38	1726,44
657,57	1667,05
657,76	1648,61
657,95	1748,97
658,14	1640,42
658,32	1781,73
658,51	1634,28
658,70	1650,66
658,89	1734,63
659,08	1677,29
659,26	1738,73
659,45	1671,14
659,64	1722,34
659,83	1648,61
660,01	1869,80
660,20	1716,20
660,39	1796,07
660,58	1585,13
660,76	1732,58
660,95	1597,42
661,14	1726,44
661,33	1611,75
661,51	1652,71
661,70	1718,25
661,89	1697,77
662,08	1773,54
662,26	1656,81
662,45	1597,42
662,64	1791,97
662,83	1724,39
663,01	1691,62
663,20	1646,57
663,39	1781,73
663,58	1673,19
663,76	1669,09
663,95	1808,36
664,14	1658,85
664,32	1662,95
664,51	1673,19
664,70	1640,42
664,89	1675,24
665,07	1660,90
665,26	1751,01
665,45	1722,34
665,64	1773,54
665,82	1763,30
666,01	1701,86
666,20	1621,99
666,38	1847,27
666,57	1802,21
666,76	2156,51
666,95	4360,13
667,13	10289,00
667,32	15222,55
667,51	17968,88
667,69	19424,98
667,88	17682,16
668,07	12574,53
668,25	9660,27
668,44	8130,44
668,63	7350,16
668,81	6850,46
669,00	6324,13
669,19	5801,90
669,38	5142,45
669,56	4628,41
669,75	4044,74
669,94	3467,21
670,12	2822,10
670,31	2582,49
670,50	2222,05
670,68	2043,87
670,87	1918,95
671,06	1837,03
671,24	1779,68
671,43	1787,88
671,62	1722,34
671,80	1757,16
671,99	1712,10
672,18	1763,30
672,36	1837,03
672,55	1710,05
672,74	1732,58
672,92	1607,66
673,11	1701,86
673,29	1642,47
673,48	1714,15
673,67	1669,09
673,85	1746,92
674,04	1667,05
674,23	1744,87
674,41	1837,03
674,60	1689,57
674,79	1581,03
674,97	1636,33
675,16	1748,97
675,34	1816,55
675,53	1619,94
675,72	1712,10
675,90	1802,21
676,09	1748,97
676,28	1667,05
676,46	1566,70
676,65	1748,97
676,83	1671,14
677,02	1761,25
677,21	1673,19
677,39	1687,53
677,58	1636,33
677,77	1693,67
677,95	1630,18
678,14	1716,20
678,32	1771,49
678,51	1654,76
678,70	1791,97
678,88	1671,14
679,07	1728,49
679,25	1697,77
679,44	1753,06
679,63	1658,85
679,81	1740,77
680,00	1787,88
680,18	1759,21
680,37	1755,11
680,55	1685,48
680,74	1658,85
680,93	1599,46
681,11	1673,19
681,30	1714,15
681,48	1687,53
681,67	1630,18
681,85	1738,73
682,04	1665,00
682,23	1734,63
682,41	1697,77
682,60	1628,14
682,78	1640,42
682,97	1650,66
683,15	1667,05
683,34	1755,11
683,53	1783,78
683,71	1611,75
683,90	1781,73
684,08	1814,50
684,27	1728,49
684,45	1636,33
684,64	1755,11
684,82	1671,14
685,01	1677,29
685,19	1761,25
685,38	1755,11
685,57	1710,05
685,75	1695,72
685,94	1650,66
686,12	1673,19
686,31	1648,61
686,49	1791,97
686,68	1617,90
686,86	1693,67
687,05	1697,77
687,23	1806,31
687,42	1642,47
687,60	1607,66
687,79	1660,90
687,97	1748,97
688,16	1861,60
688,34	1763,30
688,53	1615,85
688,71	1748,97
688,90	1753,06
689,08	1699,81
689,27	1605,61
689,45	1714,15
689,64	1677,29
689,82	1734,63
690,01	1728,49
690,19	1642,47
690,38	1660,90
690,56	1789,92
690,75	1636,33
690,93	1662,95
691,12	1734,63
691,30	1644,52
691,49	1652,71
691,67	1673,19
691,86	1783,78
692,04	1640,42
692,23	1695,72
692,41	1660,90
692,60	1791,97
692,78	1732,58
692,97	1736,68
693,15	1783,78
693,34	1765,35
693,52	1779,68
693,71	1765,35
693,89	1675,24
694,08	1611,75
694,26	1791,97
694,44	1769,44
694,63	1812,45
694,81	1601,51
695,00	1671,14
695,18	1804,26
695,37	1806,31
695,55	1673,19
695,74	1716,20
695,92	1675,24
696,10	1755,11
696,29	1695,72
696,47	1701,86
696,66	1640,42
696,84	1609,70
697,03	1673,19
697,21	1812,45
697,40	2279,39
697,58	1726,44
697,76	1644,52
697,95	1738,73
698,13	1578,98
698,32	1665,00
698,50	1775,59
698,68	1712,10
698,87	1775,59
699,05	1730,53
699,24	1642,47
699,42	1656,81
699,61	1775,59
699,79	1728,49
699,97	1720,29
700,16	1621,99
700,34	1640,42
700,53	1724,39
700,71	1787,88
700,89	1728,49
701,08	1652,71
701,26	1638,38
701,45	2140,13
701,63	1642,47
701,81	1728,49
702,00	1683,43
702,18	1699,81
702,37	1693,67
702,55	1691,62
702,73	1734,63
702,92	1581,03
703,10	1699,81
703,28	1734,63
703,47	1632,23
703,65	1714,15
703,84	1755,11
704,02	1701,86
704,20	1783,78
704,39	1640,42
704,57	1705,96
704,75	1710,05
704,94	1816,55
705,12	1744,87
705,30	1812,45
705,49	2179,04
705,67	4423,61
705,86	9762,67
706,04	12961,59
706,22	14544,67
706,41	15574,80
706,59	13965,10
706,77	9953,13
706,96	7350,16
707,14	6776,73
707,32	5935,01
707,51	5760,94
707,69	5046,20
707,87	4255,68
708,06	3497,93
708,24	2977,75
708,42	2410,46
708,61	2244,57
708,79	2000,87
708,97	1853,41
709,16	1814,50
709,34	1740,77
709,52	1632,23
709,71	1667,05
709,89	1730,53
710,07	1650,66
710,26	1570,79
710,44	1722,34
710,62	1734,63
710,80	1755,11
710,99	1806,31
711,17	1789,92
711,35	1677,29
711,54	1701,86
711,72	1726,44
711,90	1728,49
712,09	1734,63
712,27	1683,43
712,45	1679,33
712,63	1681,38
712,82	1730,53
713,00	1648,61
713,18	1802,21
713,37	1791,97
713,55	1757,16
713,73	1689,57
713,91	1777,64
714,10	1624,04
714,28	1714,15
714,46	1705,96
714,65	1742,82
714,83	1642,47
715,01	1705,96
715,19	1718,25
715,38	1660,90
715,56	1691,62
715,74	1703,91
715,92	1640,42
716,11	1769,44
716,29	1695,72
716,47	1712,10
716,65	1689,57
716,84	1650,66
717,02	1701,86
717,20	1632,23
717,38	1697,77
717,57	1736,68
717,75	1705,96
717,93	1626,09
718,11	1740,77
718,30	1648,61
718,48	1730,53
718,66	1794,02
718,84	1705,96
719,03	1718,25
719,21	1634,28
719,39	1822,69
719,57	1748,97
719,75	1781,73
719,94	1656,81
720,12	1609,70
720,30	1654,76
720,48	1691,62
720,67	1691,62
720,85	1613,80
721,03	1683,43
721,21	1621,99
721,39	1757,16
721,58	1716,20
721,76	1628,14
721,94	1724,39
722,12	1710,05
722,30	1839,08
722,49	1689,57
722,67	1697,77
722,85	1695,72
723,03	1644,52
723,21	1691,62
723,40	1677,29
723,58	1742,82
723,76	1605,61
723,94	1722,34
724,12	1787,88
724,30	1722,34
724,49	1779,68
724,67	1632,23
724,85	1755,11
725,03	1611,75
725,21	1738,73
725,40	1701,86
725,58	1671,14
725,76	1802,21
725,94	1755,11
726,12	1697,77
726,30	1722,34
726,49	1701,86
726,67	1626,09
726,85	1802,21
727,03	1691,62
727,21	2101,22
727,39	2904,02
727,57	3803,08
727,76	4048,83
727,94	4491,20
728,12	4298,69
728,30	3794,89
728,48	2979,79
728,66	2834,39
728,84	2545,63
729,03	2377,69
729,21	2154,46
729,39	2009,06
729,57	1834,98
729,75	1742,82
729,93	1828,84
730,11	1693,67
730,30	1716,20
730,48	1718,25
730,66	1714,15
730,84	1794,02
731,02	1681,38
731,20	1683,43
731,38	1728,49
731,56	1658,85
731,74	1630,18
731,93	1755,11
732,11	1667,05
732,29	1675,24
732,47	1761,25
732,65	1755,11
732,83	1732,58
733,01	1714,15
733,19	1665,00
733,37	1787,88
733,56	1775,59
733,74	1634,28
733,92	1814,50
734,10	1652,71
734,28	1712,10
734,46	1605,61
734,64	1673,19
734,82	1742,82
735,00	1642,47
735,18	1624,04
735,36	1605,61
735,54	1675,24
735,73	1718,25
735,91	1710,05
736,09	1703,91
736,27	1624,04
736,45	1763,30
736,63	1568,74
736,81	1658,85
736,99	1757,16
737,17	1744,87
737,35	1767,40
737,53	1615,85
737,71	1734,63
737,89	1718,25
738,07	1699,81
738,25	1710,05
738,43	1527,78
738,61	1636,33
738,80	1619,94
738,98	1611,75
739,16	1658,85
739,34	1648,61
739,52	1671,14
739,70	1716,20
739,88	1726,44
740,06	1751,01
740,24	1636,33
740,42	1755,11
740,60	1621,99
740,78	1665,00
740,96	1626,09
741,14	1677,29
741,32	1722,34
741,50	1671,14
741,68	1841,12
741,86	1789,92
742,04	1671,14
742,22	1660,90
742,40	1718,25
742,58	1744,87
742,76	1617,90
742,94	1769,44
743,12	1628,14
743,30	1681,38
743,48	1689,57
743,66	1665,00
743,84	1697,77
744,02	1632,23
744,20	1730,53
744,38	1716,20
744,56	1632,23
744,74	1738,73
744,92	1724,39
745,10	1857,51
745,28	1701,86
745,46	1787,88
745,64	1701,86
745,82	1740,77
746,00	1681,38
746,18	1714,15
746,36	1656,81
746,54	1683,43
746,72	1730,53
746,90	1581,03
747,08	1734,63
747,26	1697,77
747,44	1781,73
747,62	1621,99
747,80	1740,77
747,98	1738,73
748,15	1665,00
748,33	1767,40
748,51	1619,94
748,69	1775,59
748,87	1665,00
749,05	1638,38
749,23	1617,90
749,41	1675,24
749,59	1708,01
749,77	1753,06
749,95	1624,04
750,13	1638,38
750,31	1703,91
750,49	1689,57
750,67	1734,63
750,85	1812,45
751,03	1734,63
751,20	1742,82
751,38	1796,07
751,56	1695,72
751,74	1671,14
751,92	1671,14
752,10	1601,51
752,28	1779,68
752,46	1634,28
752,64	1603,56
752,82	1691,62
753,00	1759,21
753,18	1636,33
753,35	1691,62
753,53	1652,71
753,71	1679,33
753,89	1740,77
754,07	1726,44
754,25	1683,43
754,43	1751,01
754,61	1646,57
754,79	1681,38
754,97	1685,48
755,14	1802,21
755,32	1554,41
755,50	1705,96
755,68	1720,29
755,86	1601,51
756,04	1691,62
756,22	1574,89
756,40	1671,14
756,57	1814,50
756,75	1705,96
756,93	1767,40
757,11	1828,84
757,29	1574,89
757,47	1613,80
757,65	1648,61
757,82	1656,81
758,00	1662,95
758,18	1679,33
758,36	1654,76
758,54	1818,60
758,72	1638,38
758,90	1753,06
759,07	1652,71
759,25	1673,19
759,43	1744,87
759,61	1570,79
759,79	2142,18
759,97	1785,83
760,15	1710,05
760,32	1667,05
760,50	1697,77
760,68	1849,32
760,86	1662,95
761,04	1826,79
761,22	1701,86
761,39	1746,92
761,57	1689,57
761,75	1634,28
761,93	1724,39
762,11	1621,99
762,28	1712,10
762,46	1599,46
762,64	1724,39
762,82	1576,94
763,00	1681,38
763,18	1767,40
763,35	1591,27
763,53	1726,44
763,71	1669,09
763,89	1697,77
764,07	1689,57
764,24	1732,58
764,42	1738,73
764,60	1701,86
764,78	1755,11
764,96	1636,33
765,13	1705,96
765,31	1681,38
765,49	1767,40
765,67	1630,18
765,84	1654,76
766,02	1708,01
766,20	1675,24
766,38	1652,71
766,56	1800,16
766,73	1775,59
766,91	1630,18
767,09	1675,24
767,27	1675,24
767,44	1615,85
767,62	1753,06
767,80	1710,05
767,98	1697,77
768,15	1671,14
768,33	1708,01
768,51	1800,16
768,69	1691,62
768,87	1671,14
769,04	1732,58
769,22	1771,49
769,40	1683,43
769,58	1826,79
769,75	1730,53
769,93	1769,44
770,11	1720,29
770,28	1630,18
770,46	1689,57
770,64	1679,33
770,82	1652,71
770,99	1656,81
771,17	1726,44
771,35	1642,47
771,53	1699,81
771,70	1697,77
771,88	1710,05
772,06	1695,72
772,23	1624,04
772,41	1669,09
772,59	1658,85
772,77	1624,04
772,94	1619,94
773,12	1738,73
773,30	1697,77
773,47	1759,21
773,65	1615,85
773,83	1751,01
774,01	1619,94
774,18	1581,03
774,36	1679,33
774,54	1576,94
774,71	1693,67
774,89	1583,08
775,07	1716,20
775,24	1667,05
775,42	1617,90
775,60	1736,68
775,78	1562,60
775,95	1638,38
776,13	1695,72
776,31	1533,93
776,48	1730,53
776,66	1763,30
776,84	1634,28
777,01	1646,57
777,19	1722,34
777,37	1644,52
777,54	1718,25
777,72	1781,73
777,90	1681,38
778,07	1619,94
778,25	1816,55
778,43	1751,01
778,60	1609,70
778,78	1699,81
778,96	1712,10
779,13	1691,62
779,31	1658,85
779,49	1732,58
779,66	1644,52
779,84	1677,29
780,01	1681,38
780,19	1626,09
780,37	1703,91
780,54	1681,38
780,72	1640,42
780,90	1718,25
781,07	1722,34
781,25	1646,57
781,43	1761,25
781,60	1583,08
781,78	1773,54
781,95	1705,96
782,13	1587,18
782,31	1619,94
782,48	1611,75
782,66	1669,09
782,83	1773,54
783,01	1697,77
783,19	1818,60
783,36	1699,81
783,54	1681,38
783,72	1748,97
783,89	1624,04
784,07	1640,42
784,24	1695,72
784,42	1751,01
784,60	1767,40
784,77	1712,10
784,95	1538,02
785,12	1773,54
785,30	1667,05
785,47	1716,20
785,65	1679,33
785,83	1681,38
786,00	1722,34
786,18	1648,61
786,35	1634,28
786,53	1636,33
786,71	1671,14
786,88	1685,48
787,06	1777,64
787,23	1626,09
787,41	1609,70
787,58	1724,39
787,76	1667,05
787,94	1650,66
788,11	1687,53
788,29	1642,47
788,46	1621,99
788,64	1566,70
788,81	1720,29
788,99	1640,42
789,16	1599,46
789,34	1742,82
789,52	1648,61
789,69	1640,42
789,87	1628,14
790,04	1714,15
790,22	1619,94
790,39	1773,54
790,57	1667,05
790,74	1642,47
790,92	1685,48
791,09	1619,94
791,27	1660,90
791,44	1753,06
791,62	1695,72
791,79	1759,21
791,97	1648,61
792,15	1824,74
792,32	1767,40
792,50	1689,57
792,67	1748,97
792,85	1775,59
793,02	1746,92
793,20	1644,52
793,37	1611,75
793,55	1722,34
793,72	1630,18
793,90	1718,25
794,07	1640,42
794,25	1673,19
794,42	1802,21
794,60	1742,82
794,77	1679,33
794,95	1714,15
795,12	1705,96
795,30	1662,95
795,47	1523,69
795,65	1789,92
795,82	1734,63
796,00	1607,66
796,17	1710,05
796,34	1738,73
796,52	1703,91
796,69	1744,87
796,87	1746,92
797,04	1681,38
797,22	1734,63
797,39	1755,11
797,57	1730,53
797,74	1705,96
797,92	1632,23
798,09	1615,85
798,27	1734,63
798,44	1708,01
798,62	1636,33
798,79	1777,64
798,96	1767,40
799,14	1646,57
799,31	1812,45
799,49	1701,86
799,66	1695,72
799,84	1724,39
800,01	1574,89
800,19	1712,10
800,36	1613,80
800,53	1714,15
800,71	1658,85
800,88	1736,68
801,06	1716,20
801,23	1718,25
801,41	1681,38
801,58	1548,26
801,75	1679,33
801,93	1687,53
802,10	1755,11
802,28	1779,68
802,45	1734,63
802,63	1712,10
802,80	1742,82
802,97	1662,95
803,15	1714,15
803,32	1628,14
803,50	1630,18
803,67	1613,80
803,84	1632,23
804,02	1613,80
804,19	1722,34
804,37	1634,28
804,54	1675,24
804,71	1708,01
804,89	1724,39
805,06	1656,81
805,24	1681,38
805,41	1638,38
805,58	1609,70
805,76	1796,07
805,93	1621,99
806,10	1722,34
806,28	1724,39
806,45	1720,29
806,63	1730,53
806,80	1763,30
806,97	1675,24
807,15	1761,25
807,32	1667,05
807,49	1697,77
807,67	1654,76
807,84	1636,33
808,01	1505,26
808,19	1845,22
808,36	1800,16
808,54	1677,29
808,71	1595,37
808,88	1675,24
809,06	1810,40
809,23	1763,30
809,40	1632,23
809,58	1771,49
809,75	1705,96
809,92	1607,66
810,10	1818,60
810,27	1724,39
810,44	1761,25
810,62	1716,20
810,79	1716,20
810,96	1640,42
811,14	1636,33
811,31	1708,01
811,48	1726,44
811,66	1681,38
811,83	1744,87
812,00	1714,15
812,18	1697,77
812,35	1794,02
812,52	1597,42
812,69	1628,14
812,87	1703,91
813,04	1708,01
813,21	1751,01
813,39	1628,14
813,56	1630,18
813,73	1687,53
813,91	1640,42
814,08	1736,68
814,25	1683,43
814,42	1640,42
814,60	1603,56
814,77	1681,38
814,94	1607,66
815,12	1654,76
815,29	1794,02
815,46	1638,38
815,63	1701,86
815,81	1642,47
815,98	1615,85
816,15	1642,47
816,33	1697,77
816,50	1681,38
816,67	1654,76
816,84	1705,96
817,02	1638,38
817,19	1726,44
817,36	1689,57
817,53	1705,96
817,71	1591,27
817,88	1693,67
818,05	1613,80
818,22	1701,86
818,40	1785,83
818,57	1679,33
818,74	1675,24
818,91	1656,81
819,09	1746,92
819,26	1687,53
819,43	1634,28
819,60	1628,14
819,78	1722,34
819,95	1767,40
820,12	1607,66
820,29	1748,97
820,47	1748,97
820,64	1619,94
820,81	1609,70
820,98	1576,94
821,15	1675,24
821,33	1660,90
821,50	1587,18
821,67	1703,91
821,84	1621,99
822,02	1732,58
822,19	1736,68
822,36	1650,66
822,53	1685,48
822,70	1585,13
822,88	1642,47
823,05	1765,35
823,22	1656,81
823,39	1718,25
823,56	1646,57
823,74	1808,36
823,91	1632,23
824,08	1648,61
824,25	1617,90
824,42	1744,87
824,60	1605,61
824,77	1730,53
824,94	1636,33
825,11	1712,10
825,28	1615,85
825,45	1693,67
825,63	1677,29
825,80	1665,00
825,97	1654,76
826,14	1695,72
826,31	1599,46
826,48	1703,91
826,66	1658,85
826,83	1693,67
827,00	1662,95
827,17	1675,24
827,34	1673,19
827,51	1634,28
827,69	1734,63
827,86	1607,66
828,03	1675,24
828,20	1726,44
828,37	1714,15
828,54	1683,43
828,71	1734,63
828,89	1798,12
829,06	1712,10
829,23	1697,77
829,40	1689,57
829,57	1642,47
829,74	1683,43
829,91	1621,99
830,09	1673,19
830,26	1667,05
830,43	1724,39
830,60	1703,91
830,77	1712,10
830,94	1736,68
831,11	1738,73
831,28	1712,10
831,46	1742,82
831,63	1699,81
831,80	1763,30
831,97	1607,66
832,14	1669,09
832,31	1714,15
832,48	1693,67
832,65	1765,35
832,82	1705,96
832,99	1695,72
833,17	1662,95
833,34	1718,25
833,51	1703,91
833,68	1593,32
833,85	1736,68
834,02	1605,61
834,19	1621,99
834,36	1603,56
834,53	1683,43
834,70	1708,01
834,87	1777,64
835,04	1673,19
835,22	1646,57
835,39	1714,15
835,56	1683,43
835,73	1642,47
835,90	1687,53
836,07	1697,77
836,24	1767,40
836,41	1611,75
836,58	1646,57
836,75	1730,53
836,92	1763,30
837,09	1669,09
837,26	1812,45
837,43	1724,39
837,60	1714,15
837,77	1646,57
837,94	1665,00
838,12	1759,21
838,29	1705,96
838,46	1640,42
838,63	1626,09
838,80	1769,44
838,97	1654,76
839,14	1683,43
839,31	1675,24
839,48	1732,58
839,65	1599,46
839,82	1724,39
839,99	1720,29
840,16	1658,85
840,33	1697,77
840,50	1669,09
840,67	1621,99
840,84	1548,26
841,01	1798,12
841,18	1703,91
841,35	1718,25
841,52	1742,82
841,69	1775,59
841,86	1611,75
842,03	1581,03
842,20	1728,49
842,37	1673,19
842,54	1718,25
842,71	1689,57
842,88	1605,61
843,05	1769,44
843,22	1689,57
843,39	1728,49
843,56	1693,67
843,73	1718,25
843,90	1722,34
844,07	1644,52
844,24	1673,19
844,41	1722,34
844,58	1705,96
844,75	1640,42
844,92	1679,33
845,09	1677,29
845,26	1699,81
845,43	1740,77
845,60	1675,24
845,77	1701,86
845,94	1667,05
846,10	1716,20
846,27	1613,80
846,44	1632,23
846,61	1615,85
846,78	1701,86
846,95	1798,12
847,12	1673,19
847,29	1662,95
847,46	1609,70
847,63	1751,01
847,80	1730,53
847,97	1732,58
848,14	1800,16
848,31	1714,15
848,48	1665,00
848,65	1718,25
848,82	1624,04
848,98	1783,78
849,15	1724,39
849,32	1773,54
849,49	1775,59
849,66	1720,29
849,83	1681,38
850,00	1607,66
850,17	1763,30
850,34	1607,66
850,51	1648,61
850,68	1630,18
850,85	1820,64
851,01	1732,58
851,18	1701,86
851,35	1652,71
851,52	1755,11
851,69	1785,83
851,86	1626,09
852,03	1683,43
852,20	1710,05
852,37	1742,82
852,53	1624,04
852,70	1689,57
852,87	1662,95
853,04	1689,57
853,21	1703,91
853,38	1695,72
853,55	1746,92
853,72	1771,49
853,89	1669,09
854,05	1615,85
854,22	1755,11
854,39	1671,14
854,56	1728,49
854,73	1712,10
854,90	1660,90
855,07	1748,97
855,23	1650,66
855,40	1667,05
855,57	1646,57
855,74	1650,66
855,91	1865,70
856,08	1648,61
856,25	1611,75
856,41	1650,66
856,58	1746,92
856,75	1722,34
856,92	1650,66
857,09	1726,44
857,26	1626,09
857,42	1667,05
857,59	1742,82
857,76	1677,29
857,93	1701,86
858,10	1728,49
858,27	1624,04
858,43	1722,34
858,60	1669,09
858,77	1660,90
858,94	1675,24
859,11	1755,11
859,27	1673,19
859,44	1722,34
859,61	1740,77
859,78	1810,40
859,95	1681,38
860,12	1634,28
860,28	1691,62
860,45	1685,48
860,62	1595,37
860,79	1777,64
860,95	1646,57
861,12	1634,28
861,29	1626,09
861,46	1638,38
861,63	1701,86
861,79	1617,90
861,96	1617,90
862,13	1615,85
862,30	1718,25
862,47	1734,63
862,63	1615,85
862,80	1726,44
862,97	1787,88
863,14	1789,92
863,30	1671,14
863,47	1613,80
863,64	1759,21
863,81	1697,77
863,97	1720,29
864,14	1734,63
864,31	1624,04
864,48	1632,23
864,65	1679,33
864,81	1714,15
864,98	1699,81
865,15	1804,26
865,32	1679,33
865,48	1765,35
865,65	1800,16
865,82	1585,13
865,98	1699,81
866,15	1710,05
866,32	1681,38
866,49	1685,48
866,65	1703,91
866,82	1607,66
866,99	1673,19
867,16	1634,28
867,32	1644,52
867,49	1658,85
867,66	1708,01
867,83	1642,47
867,99	1630,18
868,16	1722,34
868,33	1640,42
868,49	1701,86
868,66	1681,38
868,83	1755,11
868,99	1751,01
869,16	1724,39
869,33	1685,48
869,50	1771,49
869,66	1591,27
869,83	1671,14
870,00	1671,14
870,16	1685,48
870,33	1636,33
870,50	1771,49
870,66	1652,71
870,83	1822,69
871,00	1742,82
871,17	1722,34
871,33	1699,81
871,50	1734,63
871,67	1630,18
871,83	1665,00
872,00	1708,01
872,17	1689,57
872,33	1703,91
872,50	1740,77
872,67	1718,25
872,83	1746,92
873,00	1673,19
873,17	1695,72
873,33	1693,67
873,50	1712,10
873,67	1667,05
873,83	1638,38
874,00	1677,29
874,16	1744,87
874,33	1730,53
874,50	1763,30
874,66	1746,92
874,83	1712,10
875,00	1736,68
875,16	1728,49
875,33	1726,44
875,50	1472,49
875,66	1658,85
875,83	1757,16
875,99	1757,16
876,16	1621,99
876,33	1652,71
876,49	1689,57
876,66	1814,50
876,83	1650,66
876,99	1638,38
877,16	1599,46
877,32	1640,42
877,49	1722,34
877,66	1804,26
877,82	1732,58
877,99	1738,73
878,15	1675,24
878,32	1673,19
878,49	1671,14
878,65	1705,96
878,82	1806,31
878,98	1642,47
879,15	1697,77
879,32	1722,34
879,48	1724,39
879,65	1734,63
879,81	1662,95
879,98	1679,33
880,15	1636,33
880,31	1693,67
880,48	1599,46
880,64	1765,35
880,81	1751,01
880,97	1775,59
881,14	1763,30
881,31	1603,56
881,47	1826,79
881,64	1734,63
881,80	1558,50
881,97	1738,73
882,13	1699,81
882,30	1665,00
882,47	1621,99
882,63	1640,42
882,80	1679,33
882,96	1603,56
883,13	1730,53
883,29	1656,81
883,46	1693,67
883,62	1824,74
883,79	1640,42
883,95	1746,92
884,12	1718,25
884,29	1736,68
884,45	1734,63
884,62	1714,15
884,78	1640,42
884,95	1791,97
885,11	1554,41
885,28	1699,81
885,44	1697,77
885,61	1642,47
885,77	1730,53
885,94	1656,81
886,10	1748,97
886,27	1759,21
886,43	1767,40
886,60	1728,49
886,76	1624,04
886,93	1640,42
887,09	1714,15
887,26	1597,42
887,42	1728,49
887,59	1689,57
887,75	1796,07
887,92	1834,98
888,08	1841,12
888,25	1814,50
888,41	1642,47
888,58	1683,43
888,74	1695,72
888,91	1652,71
>>>>>End Processed Spectral Data<<<<<
