SpectraSuite Data File
++++++++++++++++++++++++++++++++++++
Date: Mon Jun 06 14:57:57 CEST 2016
User: root
Dark Spectrum Present: No
Reference Spectrum Present: No
Number of Sampled Component Spectra: 1
Spectrometers: USB4C02835
Integration Time (usec): 100000 (USB4C02835)
Spectra Averaged: 1 (USB4C02835)
Boxcar Smoothing: 0 (USB4C02835)
Correct for Electrical Dark: No (USB4C02835)
Strobe/Lamp Enabled: No (USB4C02835)
Correct for Detector Non-linearity: No (USB4C02835)
Correct for Stray Light: No (USB4C02835)
Number of Pixels in Processed Spectrum: 3648
>>>>>Begin Processed Spectral Data<<<<<
177,47	1441,77
177,69	1441,77
177,91	1441,77
178,13	1431,53
178,36	1492,97
178,58	1642,47
178,80	1720,29
179,02	1691,62
179,24	1665,00
179,46	1685,48
179,68	1744,87
179,90	1660,90
180,13	1671,14
180,35	1662,95
180,57	1611,75
180,79	1757,16
181,01	1730,53
181,23	1701,86
181,45	1804,26
181,67	1773,54
181,90	1763,30
182,12	1648,61
182,34	1595,37
182,56	1679,33
182,78	1673,19
183,00	1695,72
183,22	1697,77
183,44	1568,74
183,66	1873,89
183,89	1777,64
184,11	1738,73
184,33	1751,01
184,55	1712,10
184,77	1705,96
184,99	1673,19
185,21	1626,09
185,43	1822,69
185,65	1583,08
185,87	1718,25
186,10	1779,68
186,32	1851,36
186,54	1701,86
186,76	1751,01
186,98	1728,49
187,20	1728,49
187,42	1673,19
187,64	1683,43
187,86	1667,05
188,08	1755,11
188,30	1681,38
188,52	1662,95
188,75	1708,01
188,97	1763,30
189,19	1681,38
189,41	1642,47
189,63	1730,53
189,85	1673,19
190,07	1630,18
190,29	1632,23
190,51	1771,49
190,73	1607,66
190,95	1802,21
191,17	1703,91
191,39	1634,28
191,61	1650,66
191,84	1658,85
192,06	1697,77
192,28	1611,75
192,50	1843,17
192,72	1740,77
192,94	1724,39
193,16	1718,25
193,38	1734,63
193,60	1652,71
193,82	1658,85
194,04	1806,31
194,26	1687,53
194,48	1714,15
194,70	1673,19
194,92	1650,66
195,14	1744,87
195,36	1738,73
195,58	1714,15
195,80	1705,96
196,02	1601,51
196,24	1695,72
196,46	1689,57
196,69	1677,29
196,91	1800,16
197,13	1691,62
197,35	1710,05
197,57	1888,23
197,79	1732,58
198,01	1718,25
198,23	1763,30
198,45	1648,61
198,67	1667,05
198,89	1660,90
199,11	1718,25
199,33	1650,66
199,55	1609,70
199,77	1732,58
199,99	1724,39
200,21	1638,38
200,43	1775,59
200,65	1572,84
200,87	1607,66
201,09	1742,82
201,31	1714,15
201,53	1714,15
201,75	1730,53
201,97	1708,01
202,19	1746,92
202,41	1679,33
202,63	1775,59
202,85	1701,86
203,07	1656,81
203,29	1570,79
203,51	1658,85
203,73	1658,85
203,95	1910,75
204,17	1697,77
204,39	1753,06
204,61	1667,05
204,83	1728,49
205,05	1753,06
205,27	1693,67
205,49	1886,18
205,71	1742,82
205,93	1578,98
206,15	1781,73
206,37	1667,05
206,59	1701,86
206,81	1671,14
207,03	1718,25
207,25	1640,42
207,47	1871,84
207,69	1630,18
207,91	1714,15
208,13	1685,48
208,34	1689,57
208,56	1687,53
208,78	1783,78
209,00	1730,53
209,22	1746,92
209,44	1683,43
209,66	1716,20
209,88	1669,09
210,10	1677,29
210,32	1677,29
210,54	1794,02
210,76	1681,38
210,98	1673,19
211,20	1601,51
211,42	1728,49
211,64	1779,68
211,86	1755,11
212,08	1746,92
212,30	1777,64
212,52	1697,77
212,74	1681,38
212,96	1726,44
213,17	1783,78
213,39	1746,92
213,61	1779,68
213,83	1617,90
214,05	1718,25
214,27	1753,06
214,49	1607,66
214,71	1685,48
214,93	1734,63
215,15	1677,29
215,37	1724,39
215,59	1591,27
215,81	1755,11
216,03	1738,73
216,24	1708,01
216,46	1699,81
216,68	1720,29
216,90	1798,12
217,12	1726,44
217,34	1658,85
217,56	1628,14
217,78	1824,74
218,00	1728,49
218,22	1771,49
218,44	1730,53
218,66	1669,09
218,87	1855,46
219,09	1701,86
219,31	1714,15
219,53	1728,49
219,75	1660,90
219,97	1722,34
220,19	1718,25
220,41	1650,66
220,63	1865,70
220,85	1701,86
221,06	1665,00
221,28	1724,39
221,50	1724,39
221,72	1771,49
221,94	1695,72
222,16	1699,81
222,38	1781,73
222,60	1751,01
222,82	1679,33
223,03	1796,07
223,25	1632,23
223,47	1679,33
223,69	1691,62
223,91	1712,10
224,13	1691,62
224,35	1665,00
224,57	1716,20
224,78	1773,54
225,00	1660,90
225,22	1667,05
225,44	1730,53
225,66	1632,23
225,88	1718,25
226,10	1726,44
226,32	1726,44
226,53	1814,50
226,75	1681,38
226,97	1697,77
227,19	1681,38
227,41	1683,43
227,63	1640,42
227,85	1662,95
228,06	1779,68
228,28	1705,96
228,50	1720,29
228,72	1669,09
228,94	1699,81
229,16	1634,28
229,37	1671,14
229,59	1607,66
229,81	1777,64
230,03	1695,72
230,25	1640,42
230,47	1632,23
230,69	1652,71
230,90	1687,53
231,12	1656,81
231,34	1714,15
231,56	1699,81
231,78	1621,99
232,00	1716,20
232,21	1619,94
232,43	1673,19
232,65	1617,90
232,87	1679,33
233,09	1695,72
233,30	1642,47
233,52	1767,40
233,74	1689,57
233,96	1609,70
234,18	1718,25
234,40	1775,59
234,61	1855,46
234,83	1689,57
235,05	1621,99
235,27	1822,69
235,49	1804,26
235,70	1697,77
235,92	1822,69
236,14	1773,54
236,36	1816,55
236,58	1621,99
236,79	1802,21
237,01	1675,24
237,23	1720,29
237,45	1804,26
237,67	1683,43
237,88	1718,25
238,10	1748,97
238,32	1671,14
238,54	1624,04
238,76	1646,57
238,97	1660,90
239,19	1689,57
239,41	1763,30
239,63	1800,16
239,85	1691,62
240,06	1703,91
240,28	1687,53
240,50	1716,20
240,72	1681,38
240,93	1722,34
241,15	1757,16
241,37	1681,38
241,59	1769,44
241,81	1703,91
242,02	1673,19
242,24	1746,92
242,46	1746,92
242,68	1656,81
242,89	1736,68
243,11	1763,30
243,33	1701,86
243,55	1710,05
243,76	1732,58
243,98	1658,85
244,20	1695,72
244,42	1714,15
244,64	1685,48
244,85	1621,99
245,07	1679,33
245,29	1769,44
245,51	1601,51
245,72	1687,53
245,94	1796,07
246,16	1738,73
246,38	1767,40
246,59	1675,24
246,81	1599,46
247,03	1744,87
247,24	1665,00
247,46	1673,19
247,68	1705,96
247,90	1708,01
248,11	1685,48
248,33	1691,62
248,55	1685,48
248,77	1673,19
248,98	1669,09
249,20	1834,98
249,42	1759,21
249,64	1726,44
249,85	1683,43
250,07	1568,74
250,29	1689,57
250,50	1783,78
250,72	1673,19
250,94	1708,01
251,16	1830,88
251,37	1742,82
251,59	1703,91
251,81	1718,25
252,02	1777,64
252,24	1660,90
252,46	1689,57
252,68	1687,53
252,89	1654,76
253,11	1665,00
253,33	1785,83
253,54	1812,45
253,76	1648,61
253,98	1687,53
254,20	1679,33
254,41	1591,27
254,63	1701,86
254,85	1615,85
255,06	1673,19
255,28	1695,72
255,50	1722,34
255,71	1656,81
255,93	1683,43
256,15	1611,75
256,36	1730,53
256,58	1642,47
256,80	1714,15
257,02	1687,53
257,23	1675,24
257,45	1689,57
257,67	1738,73
257,88	1701,86
258,10	1738,73
258,32	1765,35
258,53	1648,61
258,75	1703,91
258,97	1751,01
259,18	1669,09
259,40	1695,72
259,62	1769,44
259,83	1796,07
260,05	1767,40
260,27	2035,68
260,48	1763,30
260,70	1591,27
260,92	1708,01
261,13	1714,15
261,35	1724,39
261,57	1847,27
261,78	1626,09
262,00	1671,14
262,22	1775,59
262,43	1671,14
262,65	1685,48
262,86	1699,81
263,08	1822,69
263,30	1730,53
263,51	1632,23
263,73	1687,53
263,95	1787,88
264,16	1654,76
264,38	1701,86
264,60	1738,73
264,81	1710,05
265,03	1716,20
265,25	1781,73
265,46	1710,05
265,68	1746,92
265,89	1697,77
266,11	1540,07
266,33	1765,35
266,54	1732,58
266,76	1705,96
266,98	1734,63
267,19	1847,27
267,41	1791,97
267,62	1697,77
267,84	1650,66
268,06	1658,85
268,27	1722,34
268,49	1765,35
268,70	1757,16
268,92	1693,67
269,14	1658,85
269,35	1697,77
269,57	1656,81
269,79	1699,81
270,00	1658,85
270,22	1853,41
270,43	1681,38
270,65	1603,56
270,87	1708,01
271,08	1718,25
271,30	1759,21
271,51	1585,13
271,73	1708,01
271,95	1798,12
272,16	1679,33
272,38	1660,90
272,59	1683,43
272,81	1705,96
273,02	1718,25
273,24	1820,64
273,46	1683,43
273,67	1652,71
273,89	1660,90
274,10	1662,95
274,32	1794,02
274,54	1726,44
274,75	1746,92
274,97	1712,10
275,18	1759,21
275,40	1675,24
275,61	1703,91
275,83	1816,55
276,05	1630,18
276,26	1683,43
276,48	1683,43
276,69	1656,81
276,91	1669,09
277,12	1828,84
277,34	1779,68
277,55	1748,97
277,77	1757,16
277,99	1654,76
278,20	1634,28
278,42	1632,23
278,63	1624,04
278,85	1636,33
279,06	1619,94
279,28	1699,81
279,49	1705,96
279,71	1720,29
279,93	1740,77
280,14	1673,19
280,36	1660,90
280,57	1763,30
280,79	1726,44
281,00	1632,23
281,22	1634,28
281,43	1798,12
281,65	1642,47
281,86	1695,72
282,08	1699,81
282,29	1787,88
282,51	1701,86
282,73	1691,62
282,94	1624,04
283,16	1710,05
283,37	1753,06
283,59	1808,36
283,80	1703,91
284,02	1722,34
284,23	1691,62
284,45	1683,43
284,66	1677,29
284,88	1726,44
285,09	1712,10
285,31	1708,01
285,52	1738,73
285,74	1615,85
285,95	1693,67
286,17	1718,25
286,38	1746,92
286,60	1701,86
286,81	1615,85
287,03	1675,24
287,24	1736,68
287,46	1742,82
287,67	1685,48
287,89	1845,22
288,10	1736,68
288,32	1765,35
288,53	1796,07
288,75	1701,86
288,96	1708,01
289,18	1718,25
289,39	1654,76
289,61	1744,87
289,82	1771,49
290,04	1802,21
290,25	1697,77
290,47	1730,53
290,68	1693,67
290,90	1658,85
291,11	1626,09
291,33	1687,53
291,54	1646,57
291,76	1624,04
291,97	1726,44
292,18	1740,77
292,40	1697,77
292,61	1656,81
292,83	1814,50
293,04	1812,45
293,26	1736,68
293,47	1697,77
293,69	1671,14
293,90	1605,61
294,12	1796,07
294,33	1718,25
294,55	1697,77
294,76	1753,06
294,97	1781,73
295,19	1736,68
295,40	1714,15
295,62	1703,91
295,83	1771,49
296,05	1640,42
296,26	1710,05
296,48	1646,57
296,69	1695,72
296,90	1722,34
297,12	1796,07
297,33	1751,01
297,55	1658,85
297,76	1746,92
297,98	1761,25
298,19	1695,72
298,41	1771,49
298,62	1570,79
298,83	1816,55
299,05	1695,72
299,26	1648,61
299,48	1671,14
299,69	1705,96
299,90	1701,86
300,12	1599,46
300,33	1740,77
300,55	1703,91
300,76	1761,25
300,98	1630,18
301,19	1787,88
301,40	1730,53
301,62	1628,14
301,83	1685,48
302,05	1757,16
302,26	1671,14
302,47	1722,34
302,69	1636,33
302,90	1687,53
303,12	1630,18
303,33	1744,87
303,54	1824,74
303,76	1697,77
303,97	1736,68
304,19	1736,68
304,40	1615,85
304,61	1730,53
304,83	1759,21
305,04	1705,96
305,26	1736,68
305,47	1712,10
305,68	1699,81
305,90	1738,73
306,11	1757,16
306,33	1632,23
306,54	1650,66
306,75	1710,05
306,97	1601,51
307,18	1662,95
307,39	1691,62
307,61	1648,61
307,82	1658,85
308,04	1710,05
308,25	1626,09
308,46	1767,40
308,68	1777,64
308,89	1671,14
309,10	1763,30
309,32	1693,67
309,53	1665,00
309,74	1710,05
309,96	1740,77
310,17	1757,16
310,39	1675,24
310,60	1679,33
310,81	1714,15
311,03	1656,81
311,24	1740,77
311,45	1685,48
311,67	1710,05
311,88	1744,87
312,09	1656,81
312,31	1669,09
312,52	1697,77
312,73	1722,34
312,95	1634,28
313,16	1673,19
313,37	1734,63
313,59	1697,77
313,80	1665,00
314,01	1761,25
314,23	1703,91
314,44	1714,15
314,65	1591,27
314,87	1656,81
315,08	1669,09
315,29	1708,01
315,51	1681,38
315,72	1675,24
315,93	1849,32
316,15	1775,59
316,36	1660,90
316,57	1771,49
316,79	1658,85
317,00	1662,95
317,21	1738,73
317,43	1683,43
317,64	1685,48
317,85	1701,86
318,07	1665,00
318,28	1720,29
318,49	1751,01
318,70	1904,61
318,92	1824,74
319,13	1847,27
319,34	1830,88
319,56	1763,30
319,77	1812,45
319,98	1796,07
320,20	1755,11
320,41	1710,05
320,62	1681,38
320,83	1705,96
321,05	1804,26
321,26	1726,44
321,47	1693,67
321,69	1761,25
321,90	1677,29
322,11	1662,95
322,32	1757,16
322,54	1867,75
322,75	1673,19
322,96	1820,64
323,18	1689,57
323,39	1642,47
323,60	1691,62
323,81	1753,06
324,03	1712,10
324,24	1710,05
324,45	1689,57
324,66	1669,09
324,88	1656,81
325,09	1775,59
325,30	1687,53
325,52	1798,12
325,73	1607,66
325,94	1671,14
326,15	1599,46
326,37	1714,15
326,58	1746,92
326,79	1777,64
327,00	1605,61
327,22	1695,72
327,43	1705,96
327,64	1634,28
327,85	1783,78
328,07	1677,29
328,28	1804,26
328,49	1609,70
328,70	1695,72
328,92	1701,86
329,13	1673,19
329,34	1665,00
329,55	1765,35
329,76	1705,96
329,98	1578,98
330,19	1771,49
330,40	1742,82
330,61	1796,07
330,83	1714,15
331,04	1714,15
331,25	1628,14
331,46	1683,43
331,68	1613,80
331,89	1804,26
332,10	1734,63
332,31	1712,10
332,52	1697,77
332,74	1820,64
332,95	1644,52
333,16	1662,95
333,37	1720,29
333,58	1615,85
333,80	1767,40
334,01	1574,89
334,22	1687,53
334,43	1710,05
334,64	1667,05
334,86	1640,42
335,07	1681,38
335,28	1814,50
335,49	1658,85
335,70	1679,33
335,92	1765,35
336,13	1853,41
336,34	1757,16
336,55	1652,71
336,76	1632,23
336,98	1566,70
337,19	1695,72
337,40	1828,84
337,61	1914,85
337,82	1740,77
338,04	1763,30
338,25	1601,51
338,46	1728,49
338,67	1626,09
338,88	1638,38
339,09	1636,33
339,31	1644,52
339,52	1619,94
339,73	1632,23
339,94	1621,99
340,15	1718,25
340,36	1667,05
340,58	1718,25
340,79	1675,24
341,00	1738,73
341,21	1628,14
341,42	1730,53
341,63	1607,66
341,85	1726,44
342,06	1736,68
342,27	1710,05
342,48	1783,78
342,69	1630,18
342,90	1726,44
343,12	1740,77
343,33	1720,29
343,54	1771,49
343,75	1730,53
343,96	1705,96
344,17	1693,67
344,38	1714,15
344,60	1632,23
344,81	1720,29
345,02	1699,81
345,23	1718,25
345,44	1789,92
345,65	1701,86
345,86	1671,14
346,07	1740,77
346,29	1703,91
346,50	1724,39
346,71	1705,96
346,92	1787,88
347,13	1814,50
347,34	1675,24
347,55	1673,19
347,76	1638,38
347,98	1613,80
348,19	1665,00
348,40	1736,68
348,61	1781,73
348,82	1771,49
349,03	1646,57
349,24	1685,48
349,45	1767,40
349,66	1585,13
349,88	1677,29
350,09	1736,68
350,30	1808,36
350,51	1708,01
350,72	1628,14
350,93	1679,33
351,14	1701,86
351,35	1742,82
351,56	1710,05
351,77	1673,19
351,99	1742,82
352,20	1859,56
352,41	1742,82
352,62	1540,07
352,83	1658,85
353,04	1693,67
353,25	1646,57
353,46	1830,88
353,67	1839,08
353,88	1640,42
354,09	1636,33
354,30	1665,00
354,52	1777,64
354,73	1726,44
354,94	1691,62
355,15	1732,58
355,36	1759,21
355,57	1699,81
355,78	1716,20
355,99	1689,57
356,20	1640,42
356,41	1714,15
356,62	1705,96
356,83	1636,33
357,04	1759,21
357,25	1619,94
357,46	1699,81
357,68	1605,61
357,89	1626,09
358,10	1642,47
358,31	1730,53
358,52	1714,15
358,73	1646,57
358,94	1607,66
359,15	1644,52
359,36	1734,63
359,57	1671,14
359,78	1708,01
359,99	1708,01
360,20	1603,56
360,41	1708,01
360,62	1687,53
360,83	1716,20
361,04	1742,82
361,25	1669,09
361,46	1691,62
361,67	1722,34
361,88	1634,28
362,09	1767,40
362,30	1771,49
362,51	1652,71
362,72	1722,34
362,93	1789,92
363,14	1603,56
363,35	1716,20
363,56	1607,66
363,78	1714,15
363,99	1806,31
364,20	1681,38
364,41	1748,97
364,62	1767,40
364,83	1726,44
365,04	1705,96
365,25	1746,92
365,46	1888,23
365,67	1714,15
365,88	1658,85
366,09	1632,23
366,30	1681,38
366,51	1665,00
366,72	1665,00
366,93	1746,92
367,14	1691,62
367,35	1787,88
367,56	1693,67
367,77	1837,03
367,98	1648,61
368,18	1681,38
368,39	1722,34
368,60	1632,23
368,81	1701,86
369,02	1662,95
369,23	1689,57
369,44	1650,66
369,65	1703,91
369,86	1712,10
370,07	1701,86
370,28	1638,38
370,49	1773,54
370,70	1712,10
370,91	1605,61
371,12	1644,52
371,33	1699,81
371,54	1724,39
371,75	1791,97
371,96	1587,18
372,17	1703,91
372,38	1699,81
372,59	1783,78
372,80	1662,95
373,01	1726,44
373,22	1728,49
373,43	1708,01
373,64	1671,14
373,85	1734,63
374,06	1806,31
374,26	1740,77
374,47	1669,09
374,68	1830,88
374,89	1691,62
375,10	1744,87
375,31	1853,41
375,52	1728,49
375,73	1699,81
375,94	1648,61
376,15	1767,40
376,36	1710,05
376,57	1677,29
376,78	1742,82
376,99	1656,81
377,20	1791,97
377,40	1679,33
377,61	1810,40
377,82	1640,42
378,03	1761,25
378,24	1705,96
378,45	1654,76
378,66	1681,38
378,87	1720,29
379,08	1644,52
379,29	1730,53
379,50	1757,16
379,71	1656,81
379,91	1697,77
380,12	1746,92
380,33	1642,47
380,54	1669,09
380,75	1791,97
380,96	1755,11
381,17	1779,68
381,38	1714,15
381,59	1679,33
381,80	1718,25
382,00	1785,83
382,21	1730,53
382,42	1783,78
382,63	1918,95
382,84	1804,26
383,05	1806,31
383,26	1726,44
383,47	1710,05
383,68	1742,82
383,88	1669,09
384,09	1732,58
384,30	1783,78
384,51	1742,82
384,72	1669,09
384,93	1634,28
385,14	1748,97
385,35	1783,78
385,55	1624,04
385,76	1808,36
385,97	1689,57
386,18	1619,94
386,39	1708,01
386,60	1679,33
386,81	1699,81
387,02	1613,80
387,22	1646,57
387,43	1761,25
387,64	1738,73
387,85	1888,23
388,06	2154,46
388,27	4313,02
388,48	6551,45
388,68	7915,40
388,89	9469,81
389,10	9383,79
389,31	8537,98
389,52	7540,62
389,73	6559,64
389,93	6119,33
390,14	5644,20
390,35	5191,60
390,56	4405,18
390,77	3710,92
390,98	2983,89
391,18	2545,63
391,39	2117,60
391,60	1757,16
391,81	1781,73
392,02	1802,21
392,23	1959,91
392,43	1779,68
392,64	1755,11
392,85	1669,09
393,06	1804,26
393,27	1667,05
393,47	1708,01
393,68	1701,86
393,89	1705,96
394,10	1736,68
394,31	1642,47
394,52	1615,85
394,72	1646,57
394,93	1763,30
395,14	1642,47
395,35	1720,29
395,56	1712,10
395,76	1654,76
395,97	1814,50
396,18	1843,17
396,39	1853,41
396,60	2054,11
396,80	1873,89
397,01	1751,01
397,22	1802,21
397,43	1853,41
397,64	1619,94
397,84	1787,88
398,05	1857,51
398,26	1742,82
398,47	1691,62
398,67	1769,44
398,88	1699,81
399,09	1732,58
399,30	1660,90
399,51	1708,01
399,71	1652,71
399,92	1744,87
400,13	1742,82
400,34	1697,77
400,54	1677,29
400,75	1814,50
400,96	1695,72
401,17	1830,88
401,37	1662,95
401,58	1800,16
401,79	1716,20
402,00	1800,16
402,21	2033,63
402,41	1959,91
402,62	2009,06
402,83	2076,64
403,04	1966,05
403,24	2078,69
403,45	1824,74
403,66	1812,45
403,87	1810,40
404,07	1873,89
404,28	1916,90
404,49	1869,80
404,70	1757,16
404,90	1703,91
405,11	1806,31
405,32	1759,21
405,52	1705,96
405,73	1671,14
405,94	1708,01
406,15	1699,81
406,35	1705,96
406,56	1800,16
406,77	1705,96
406,98	1826,79
407,18	1699,81
407,39	1705,96
407,60	1648,61
407,80	1748,97
408,01	1675,24
408,22	1681,38
408,43	1755,11
408,63	1734,63
408,84	1730,53
409,05	1767,40
409,25	1667,05
409,46	1665,00
409,67	1660,90
409,88	1689,57
410,08	1732,58
410,29	1624,04
410,50	1751,01
410,70	1744,87
410,91	1683,43
411,12	1744,87
411,32	1679,33
411,53	1722,34
411,74	1773,54
411,95	1789,92
412,15	1763,30
412,36	1734,63
412,57	1671,14
412,77	1748,97
412,98	1648,61
413,19	1699,81
413,39	1808,36
413,60	1740,77
413,81	1800,16
414,01	1665,00
414,22	1718,25
414,43	1669,09
414,63	1640,42
414,84	1761,25
415,05	1740,77
415,25	1699,81
415,46	1742,82
415,67	1681,38
415,87	1683,43
416,08	1685,48
416,29	1681,38
416,49	1667,05
416,70	1671,14
416,91	1654,76
417,11	1640,42
417,32	1712,10
417,53	1787,88
417,73	1757,16
417,94	1677,29
418,15	1683,43
418,35	1789,92
418,56	1732,58
418,77	1820,64
418,97	1748,97
419,18	1763,30
419,38	1517,54
419,59	1679,33
419,80	1775,59
420,00	1677,29
420,21	1714,15
420,42	1714,15
420,62	1665,00
420,83	1640,42
421,04	1693,67
421,24	1679,33
421,45	1785,83
421,65	1740,77
421,86	1617,90
422,07	1757,16
422,27	1734,63
422,48	1701,86
422,69	1611,75
422,89	1746,92
423,10	1695,72
423,30	1619,94
423,51	1740,77
423,72	1685,48
423,92	1722,34
424,13	1609,70
424,33	1708,01
424,54	1726,44
424,75	1669,09
424,95	1771,49
425,16	1804,26
425,36	1685,48
425,57	1697,77
425,78	1714,15
425,98	1718,25
426,19	1636,33
426,39	1671,14
426,60	1691,62
426,81	1738,73
427,01	1728,49
427,22	1628,14
427,42	1665,00
427,63	1665,00
427,83	1744,87
428,04	1826,79
428,25	1757,16
428,45	1785,83
428,66	1689,57
428,86	1730,53
429,07	1685,48
429,28	1740,77
429,48	1685,48
429,69	1675,24
429,89	1724,39
430,10	1597,42
430,30	1714,15
430,51	1794,02
430,71	1673,19
430,92	1761,25
431,13	1650,66
431,33	1808,36
431,54	1757,16
431,74	1816,55
431,95	1857,51
432,15	1617,90
432,36	1683,43
432,56	1736,68
432,77	1826,79
432,98	1789,92
433,18	1787,88
433,39	1681,38
433,59	1634,28
433,80	1796,07
434,00	1783,78
434,21	1681,38
434,41	1662,95
434,62	1906,66
434,82	1687,53
435,03	1648,61
435,23	1759,21
435,44	1566,70
435,64	1732,58
435,85	1726,44
436,06	1730,53
436,26	1744,87
436,47	1687,53
436,67	1734,63
436,88	1705,96
437,08	1794,02
437,29	1898,47
437,49	1738,73
437,70	1789,92
437,90	1742,82
438,11	1822,69
438,31	1789,92
438,52	1832,93
438,72	1824,74
438,93	1826,79
439,13	1724,39
439,34	1837,03
439,54	1755,11
439,75	1789,92
439,95	1769,44
440,16	1681,38
440,36	1789,92
440,57	1787,88
440,77	1753,06
440,98	1673,19
441,18	1732,58
441,39	1665,00
441,59	1689,57
441,80	1843,17
442,00	1714,15
442,21	1843,17
442,41	1626,09
442,62	1755,11
442,82	1675,24
443,02	1724,39
443,23	1759,21
443,43	1697,77
443,64	1728,49
443,84	1640,42
444,05	1695,72
444,25	1781,73
444,46	1697,77
444,66	1734,63
444,87	1871,84
445,07	1636,33
445,28	1783,78
445,48	1779,68
445,69	1738,73
445,89	1775,59
446,09	1730,53
446,30	2041,82
446,50	2703,32
446,71	3690,44
446,91	4134,85
447,12	4646,84
447,32	4741,05
447,53	4192,19
447,73	3755,97
447,93	3553,23
448,14	3350,48
448,34	3215,31
448,55	2854,87
448,75	2799,57
448,96	2664,41
449,16	2408,41
449,36	2238,43
449,57	2019,30
449,77	1912,80
449,98	1812,45
450,18	1837,03
450,39	1832,93
450,59	1744,87
450,79	1753,06
451,00	1665,00
451,20	1753,06
451,41	1783,78
451,61	1705,96
451,81	1722,34
452,02	1779,68
452,22	1773,54
452,43	1689,57
452,63	1626,09
452,84	1751,01
453,04	1658,85
453,24	1746,92
453,45	1757,16
453,65	1726,44
453,86	1738,73
454,06	1695,72
454,26	1693,67
454,47	1679,33
454,67	1814,50
454,87	1757,16
455,08	1705,96
455,28	1771,49
455,49	1734,63
455,69	1660,90
455,89	1845,22
456,10	1890,28
456,30	1683,43
456,51	1769,44
456,71	1718,25
456,91	1781,73
457,12	1763,30
457,32	1714,15
457,52	1736,68
457,73	1802,21
457,93	1787,88
458,14	1671,14
458,34	1671,14
458,54	1734,63
458,75	1689,57
458,95	1761,25
459,15	1703,91
459,36	1748,97
459,56	1781,73
459,76	1853,41
459,97	1755,11
460,17	1718,25
460,37	1828,84
460,58	1708,01
460,78	1837,03
460,99	1689,57
461,19	1755,11
461,39	1638,38
461,60	1755,11
461,80	1767,40
462,00	1769,44
462,21	1712,10
462,41	1681,38
462,61	1589,22
462,82	1630,18
463,02	1804,26
463,22	1691,62
463,43	1779,68
463,63	1755,11
463,83	1814,50
464,04	1763,30
464,24	1638,38
464,44	1724,39
464,64	1738,73
464,85	1763,30
465,05	1806,31
465,25	1732,58
465,46	1615,85
465,66	1761,25
465,86	1755,11
466,07	1767,40
466,27	1732,58
466,47	1660,90
466,68	1597,42
466,88	1794,02
467,08	1695,72
467,29	1853,41
467,49	1746,92
467,69	1755,11
467,89	1763,30
468,10	1716,20
468,30	1714,15
468,50	1816,55
468,71	1787,88
468,91	1669,09
469,11	1877,99
469,31	1824,74
469,52	1667,05
469,72	1812,45
469,92	1822,69
470,13	1656,81
470,33	1789,92
470,53	1851,36
470,73	2127,84
470,94	2172,89
471,14	2394,08
471,34	2527,19
471,54	2338,78
471,75	2220,00
471,95	2086,88
472,15	2041,82
472,36	2041,82
472,56	2019,30
472,76	2031,58
472,96	1984,48
473,17	1945,57
473,37	1949,67
473,57	1871,84
473,77	1808,36
473,98	1804,26
474,18	1708,01
474,38	1890,28
474,58	1691,62
474,79	1619,94
474,99	1740,77
475,19	1841,12
475,39	1679,33
475,60	1710,05
475,80	1759,21
476,00	1712,10
476,20	1689,57
476,41	1646,57
476,61	1802,21
476,81	1753,06
477,01	1642,47
477,21	1873,89
477,42	1816,55
477,62	1619,94
477,82	1671,14
478,02	1742,82
478,23	1783,78
478,43	1673,19
478,63	1687,53
478,83	1642,47
479,03	1667,05
479,24	1845,22
479,44	1845,22
479,64	1595,37
479,84	1593,32
480,04	1675,24
480,25	1757,16
480,45	1683,43
480,65	1691,62
480,85	1832,93
481,06	1712,10
481,26	1716,20
481,46	1781,73
481,66	1742,82
481,86	1691,62
482,06	1804,26
482,27	1710,05
482,47	1691,62
482,67	1748,97
482,87	1724,39
483,07	1806,31
483,28	1638,38
483,48	1679,33
483,68	1697,77
483,88	1640,42
484,08	1613,80
484,29	1619,94
484,49	1798,12
484,69	1656,81
484,89	1830,88
485,09	1769,44
485,29	1779,68
485,50	1697,77
485,70	1720,29
485,90	1810,40
486,10	1701,86
486,30	1775,59
486,50	1728,49
486,71	1581,03
486,91	1769,44
487,11	1773,54
487,31	1656,81
487,51	1748,97
487,71	1648,61
487,91	1624,04
488,12	1644,52
488,32	1595,37
488,52	1683,43
488,72	1679,33
488,92	1781,73
489,12	1787,88
489,32	1777,64
489,53	1779,68
489,73	1642,47
489,93	1814,50
490,13	1660,90
490,33	1720,29
490,53	1814,50
490,73	1791,97
490,94	1640,42
491,14	1738,73
491,34	1789,92
491,54	2060,26
491,74	2437,08
491,94	2910,16
492,14	2922,45
492,34	2887,64
492,54	2707,41
492,75	2480,09
492,95	2424,80
493,15	2199,52
493,35	2248,67
493,55	2189,28
493,75	2119,65
493,95	2160,61
494,15	2007,01
494,35	1941,47
494,56	1843,17
494,76	1695,72
494,96	1800,16
495,16	1783,78
495,36	1679,33
495,56	1787,88
495,76	1787,88
495,96	1744,87
496,16	1677,29
496,36	1808,36
496,56	1796,07
496,77	1753,06
496,97	1734,63
497,17	1775,59
497,37	1634,28
497,57	1789,92
497,77	1720,29
497,97	1656,81
498,17	1744,87
498,37	1712,10
498,57	1759,21
498,77	1744,87
498,97	1804,26
499,17	1853,41
499,38	1753,06
499,58	1761,25
499,78	1740,77
499,98	1783,78
500,18	1724,39
500,38	1689,57
500,58	1904,61
500,78	2412,51
500,98	4399,04
501,18	5740,46
501,38	6467,49
501,58	7083,92
501,78	6473,63
501,98	5334,96
502,18	4886,45
502,38	4245,44
502,58	3977,16
502,78	3751,88
502,98	3575,75
503,18	3454,92
503,38	3147,73
503,59	2856,92
503,79	2754,52
503,99	2492,38
504,19	2193,37
504,39	2203,61
504,59	2183,13
504,79	2133,98
504,99	2082,78
505,19	1927,14
505,39	1920,99
505,59	2002,91
505,79	1855,46
505,99	1783,78
506,19	1834,98
506,39	1884,13
506,59	1720,29
506,79	1701,86
506,99	1791,97
507,19	1796,07
507,39	1775,59
507,59	1658,85
507,79	1626,09
507,99	1611,75
508,19	1654,76
508,39	1597,42
508,59	1712,10
508,79	1804,26
508,99	1859,56
509,19	1681,38
509,39	1748,97
509,59	1730,53
509,79	1675,24
509,99	1746,92
510,19	1818,60
510,39	1785,83
510,59	1693,67
510,79	1640,42
510,99	1671,14
511,19	1718,25
511,39	1806,31
511,59	1763,30
511,79	1785,83
511,99	1761,25
512,19	1714,15
512,38	1781,73
512,58	1716,20
512,78	1769,44
512,98	1779,68
513,18	1699,81
513,38	1667,05
513,58	1812,45
513,78	1742,82
513,98	1779,68
514,18	1736,68
514,38	1693,67
514,58	1703,91
514,78	1665,00
514,98	1736,68
515,18	1724,39
515,38	1681,38
515,58	1867,75
515,78	1681,38
515,98	1796,07
516,18	1722,34
516,38	1787,88
516,57	1681,38
516,77	1675,24
516,97	1828,84
517,17	1718,25
517,37	1538,02
517,57	1783,78
517,77	1728,49
517,97	1724,39
518,17	1865,70
518,37	1681,38
518,57	1732,58
518,77	1759,21
518,97	1714,15
519,16	1798,12
519,36	1816,55
519,56	1736,68
519,76	1673,19
519,96	1748,97
520,16	1781,73
520,36	1652,71
520,56	1730,53
520,76	1681,38
520,96	1787,88
521,16	1767,40
521,35	1847,27
521,55	1824,74
521,75	1691,62
521,95	1667,05
522,15	1708,01
522,35	1650,66
522,55	1685,48
522,75	1775,59
522,95	1681,38
523,14	1730,53
523,34	1826,79
523,54	1744,87
523,74	1710,05
523,94	1785,83
524,14	1679,33
524,34	1769,44
524,54	1802,21
524,73	1677,29
524,93	1781,73
525,13	1708,01
525,33	1716,20
525,53	1847,27
525,73	1787,88
525,93	1773,54
526,13	1695,72
526,32	1771,49
526,52	1769,44
526,72	1779,68
526,92	1724,39
527,12	1708,01
527,32	1701,86
527,52	1718,25
527,71	1748,97
527,91	1728,49
528,11	1771,49
528,31	1740,77
528,51	1658,85
528,71	1751,01
528,90	1642,47
529,10	1806,31
529,30	1857,51
529,50	1665,00
529,70	1759,21
529,90	1714,15
530,09	1763,30
530,29	1703,91
530,49	1687,53
530,69	1820,64
530,89	1724,39
531,09	1744,87
531,28	1746,92
531,48	1861,60
531,68	1689,57
531,88	1722,34
532,08	1751,01
532,28	1732,58
532,47	1716,20
532,67	1832,93
532,87	1648,61
533,07	1636,33
533,27	1804,26
533,46	1806,31
533,66	1701,86
533,86	1738,73
534,06	1728,49
534,26	1695,72
534,45	1697,77
534,65	1800,16
534,85	1755,11
535,05	1662,95
535,25	1710,05
535,44	1701,86
535,64	1726,44
535,84	1708,01
536,04	1703,91
536,24	1716,20
536,43	1683,43
536,63	1742,82
536,83	1701,86
537,03	1746,92
537,22	1695,72
537,42	1603,56
537,62	1748,97
537,82	1699,81
538,02	1820,64
538,21	1816,55
538,41	1820,64
538,61	1765,35
538,81	1753,06
539,00	1789,92
539,20	1712,10
539,40	1689,57
539,60	1759,21
539,79	1771,49
539,99	1677,29
540,19	1673,19
540,39	1769,44
540,58	1753,06
540,78	1789,92
540,98	1724,39
541,18	1695,72
541,37	1877,99
541,57	1693,67
541,77	1732,58
541,97	1665,00
542,16	1605,61
542,36	1726,44
542,56	1652,71
542,76	1812,45
542,95	1683,43
543,15	1757,16
543,35	1761,25
543,54	1724,39
543,74	1669,09
543,94	1857,51
544,14	1697,77
544,33	1781,73
544,53	1714,15
544,73	1724,39
544,93	1699,81
545,12	1697,77
545,32	1755,11
545,52	1736,68
545,71	1689,57
545,91	1648,61
546,11	1796,07
546,30	1720,29
546,50	1722,34
546,70	1761,25
546,90	1822,69
547,09	1568,74
547,29	1718,25
547,49	1765,35
547,68	1732,58
547,88	1660,90
548,08	1775,59
548,27	2162,66
548,47	1691,62
548,67	1689,57
548,87	1755,11
549,06	1689,57
549,26	1787,88
549,46	1769,44
549,65	1748,97
549,85	1708,01
550,05	1798,12
550,24	1685,48
550,44	1794,02
550,64	1689,57
550,83	1701,86
551,03	1804,26
551,23	1820,64
551,42	1814,50
551,62	1718,25
551,82	1775,59
552,01	1779,68
552,21	1759,21
552,41	1746,92
552,60	1853,41
552,80	1798,12
553,00	1660,90
553,19	1697,77
553,39	1843,17
553,59	1681,38
553,78	1734,63
553,98	1779,68
554,17	1671,14
554,37	1759,21
554,57	1685,48
554,76	1628,14
554,96	1658,85
555,16	1722,34
555,35	1820,64
555,55	1791,97
555,75	1787,88
555,94	1693,67
556,14	1658,85
556,33	1771,49
556,53	1736,68
556,73	1658,85
556,92	1755,11
557,12	1822,69
557,32	1820,64
557,51	1847,27
557,71	1736,68
557,90	1841,12
558,10	1771,49
558,30	1734,63
558,49	1734,63
558,69	1722,34
558,88	1765,35
559,08	1697,77
559,28	1753,06
559,47	1746,92
559,67	1763,30
559,86	1830,88
560,06	1804,26
560,26	1699,81
560,45	1751,01
560,65	1748,97
560,84	1781,73
561,04	1693,67
561,24	1710,05
561,43	1667,05
561,63	1802,21
561,82	1783,78
562,02	1804,26
562,22	1665,00
562,41	1593,32
562,61	1806,31
562,80	1632,23
563,00	1902,56
563,19	1820,64
563,39	1828,84
563,59	1767,40
563,78	1669,09
563,98	1697,77
564,17	1689,57
564,37	1658,85
564,56	1685,48
564,76	1665,00
564,96	1769,44
565,15	1814,50
565,35	1875,94
565,54	1738,73
565,74	1738,73
565,93	1748,97
566,13	1759,21
566,32	1824,74
566,52	1740,77
566,71	1710,05
566,91	1767,40
567,11	1726,44
567,30	1724,39
567,50	1789,92
567,69	1665,00
567,89	1724,39
568,08	1660,90
568,28	1699,81
568,47	1718,25
568,67	1800,16
568,86	1773,54
569,06	1773,54
569,25	1734,63
569,45	1673,19
569,64	1691,62
569,84	1677,29
570,04	1757,16
570,23	1607,66
570,43	1718,25
570,62	1753,06
570,82	1804,26
571,01	1722,34
571,21	1714,15
571,40	1665,00
571,60	1847,27
571,79	1746,92
571,99	1757,16
572,18	1656,81
572,38	1771,49
572,57	1810,40
572,77	1798,12
572,96	1908,71
573,16	1738,73
573,35	1742,82
573,55	1828,84
573,74	1794,02
573,94	1753,06
574,13	1767,40
574,33	1828,84
574,52	1802,21
574,71	1748,97
574,91	1794,02
575,10	1734,63
575,30	1671,14
575,49	1630,18
575,69	1705,96
575,88	1806,31
576,08	1699,81
576,27	1853,41
576,47	1775,59
576,66	1898,47
576,86	1757,16
577,05	1736,68
577,25	1781,73
577,44	1871,84
577,64	1720,29
577,83	1738,73
578,02	1744,87
578,22	1816,55
578,41	1830,88
578,61	1708,01
578,80	1734,63
579,00	1744,87
579,19	1761,25
579,39	1804,26
579,58	1830,88
579,77	1722,34
579,97	1867,75
580,16	1791,97
580,36	1742,82
580,55	1839,08
580,75	1826,79
580,94	1693,67
581,13	1888,23
581,33	1814,50
581,52	1755,11
581,72	1845,22
581,91	1853,41
582,11	1781,73
582,30	1841,12
582,49	1724,39
582,69	1873,89
582,88	1814,50
583,08	1718,25
583,27	1845,22
583,47	1845,22
583,66	1722,34
583,85	1730,53
584,05	1611,75
584,24	1734,63
584,44	1775,59
584,63	1791,97
584,82	1775,59
585,02	1820,64
585,21	1828,84
585,41	1757,16
585,60	1820,64
585,79	1898,47
585,99	1916,90
586,18	1843,17
586,37	2144,22
586,57	3282,89
586,76	9570,16
586,96	23672,47
587,15	33160,71
587,34	39353,77
587,54	41164,17
587,73	35685,86
587,93	25310,85
588,12	21130,94
588,31	17673,97
588,51	15709,97
588,70	14712,61
588,89	13696,82
589,09	12445,51
589,28	10776,41
589,47	9279,35
589,67	7686,03
589,86	6367,13
590,06	4822,97
590,25	3858,37
590,44	3055,57
590,64	2656,22
590,83	2287,58
591,02	2129,89
591,22	1974,24
591,41	1918,95
591,60	1832,93
591,80	1898,47
591,99	1730,53
592,18	1804,26
592,38	1751,01
592,57	1757,16
592,76	1791,97
592,96	1767,40
593,15	1722,34
593,34	1767,40
593,54	1718,25
593,73	1753,06
593,92	1748,97
594,12	1699,81
594,31	1783,78
594,50	1851,36
594,70	1871,84
594,89	1894,37
595,08	1681,38
595,28	1894,37
595,47	2035,68
595,66	1757,16
595,86	1746,92
596,05	1753,06
596,24	1671,14
596,43	1867,75
596,63	1746,92
596,82	1779,68
597,01	1771,49
597,21	1808,36
597,40	1755,11
597,59	1767,40
597,79	1722,34
597,98	1730,53
598,17	1804,26
598,36	1703,91
598,56	1767,40
598,75	1671,14
598,94	1705,96
599,14	1701,86
599,33	1708,01
599,52	1796,07
599,71	1742,82
599,91	1757,16
600,10	1769,44
600,29	1687,53
600,48	1769,44
600,68	1759,21
600,87	1769,44
601,06	1746,92
601,26	1767,40
601,45	1839,08
601,64	1810,40
601,83	1789,92
602,03	1677,29
602,22	1648,61
602,41	1791,97
602,60	1839,08
602,80	1818,60
602,99	1791,97
603,18	1722,34
603,37	1718,25
603,57	1800,16
603,76	1816,55
603,95	1861,60
604,14	1759,21
604,34	1667,05
604,53	1679,33
604,72	1652,71
604,91	1830,88
605,10	1859,56
605,30	1677,29
605,49	1718,25
605,68	1708,01
605,87	1699,81
606,07	1677,29
606,26	1705,96
606,45	1744,87
606,64	1726,44
606,84	1656,81
607,03	1683,43
607,22	1736,68
607,41	1665,00
607,60	1714,15
607,80	1820,64
607,99	1710,05
608,18	1763,30
608,37	1814,50
608,56	1753,06
608,76	1779,68
608,95	1832,93
609,14	1730,53
609,33	1748,97
609,52	1841,12
609,72	1697,77
609,91	1753,06
610,10	1742,82
610,29	1748,97
610,48	1796,07
610,68	1716,20
610,87	1703,91
611,06	1730,53
611,25	1742,82
611,44	1880,04
611,63	1730,53
611,83	1798,12
612,02	1675,24
612,21	1779,68
612,40	1630,18
612,59	1734,63
612,79	1646,57
612,98	1757,16
613,17	1789,92
613,36	1705,96
613,55	1787,88
613,74	1671,14
613,93	1757,16
614,13	1732,58
614,32	1732,58
614,51	1798,12
614,70	1757,16
614,89	1708,01
615,08	1691,62
615,28	2021,35
615,47	1712,10
615,66	1734,63
615,85	1755,11
616,04	1761,25
616,23	1705,96
616,42	1724,39
616,62	1687,53
616,81	1681,38
617,00	1798,12
617,19	1753,06
617,38	1718,25
617,57	1730,53
617,76	1785,83
617,95	1783,78
618,15	1708,01
618,34	1742,82
618,53	1681,38
618,72	1830,88
618,91	1839,08
619,10	1777,64
619,29	1746,92
619,48	1751,01
619,68	1671,14
619,87	1714,15
620,06	1642,47
620,25	1767,40
620,44	1695,72
620,63	1679,33
620,82	1714,15
621,01	1804,26
621,20	1675,24
621,39	1734,63
621,59	1722,34
621,78	1771,49
621,97	1699,81
622,16	1701,86
622,35	1744,87
622,54	1697,77
622,73	1724,39
622,92	1671,14
623,11	1748,97
623,30	1665,00
623,49	1742,82
623,68	1757,16
623,88	1744,87
624,07	1687,53
624,26	1718,25
624,45	1810,40
624,64	1734,63
624,83	1761,25
625,02	1708,01
625,21	1699,81
625,40	1746,92
625,59	1839,08
625,78	1757,16
625,97	1777,64
626,16	1810,40
626,35	1765,35
626,54	1673,19
626,74	1834,98
626,93	1705,96
627,12	1699,81
627,31	1791,97
627,50	1693,67
627,69	1863,65
627,88	1638,38
628,07	1671,14
628,26	1601,51
628,45	1611,75
628,64	1648,61
628,83	1681,38
629,02	1718,25
629,21	1746,92
629,40	1751,01
629,59	1667,05
629,78	1705,96
629,97	1761,25
630,16	1730,53
630,35	1763,30
630,54	1681,38
630,73	1726,44
630,92	1779,68
631,11	1763,30
631,30	1746,92
631,49	1751,01
631,68	1675,24
631,87	1771,49
632,06	1632,23
632,25	1851,36
632,44	1699,81
632,63	1665,00
632,82	1648,61
633,01	1667,05
633,20	1705,96
633,39	1701,86
633,58	1632,23
633,77	1726,44
633,96	1726,44
634,15	1783,78
634,34	1861,60
634,53	1746,92
634,72	1671,14
634,91	1593,32
635,10	1781,73
635,29	1806,31
635,48	1708,01
635,67	1710,05
635,86	1632,23
636,05	1740,77
636,24	1636,33
636,43	1701,86
636,62	1693,67
636,81	1558,50
637,00	1710,05
637,19	1689,57
637,38	1685,48
637,57	1730,53
637,76	1738,73
637,95	1773,54
638,14	1615,85
638,33	1720,29
638,52	1691,62
638,71	1677,29
638,89	1640,42
639,08	1783,78
639,27	1714,15
639,46	1714,15
639,65	1779,68
639,84	1746,92
640,03	1736,68
640,22	1632,23
640,41	1787,88
640,60	1763,30
640,79	1728,49
640,98	1732,58
641,17	1791,97
641,36	1675,24
641,55	1822,69
641,74	1619,94
641,92	1593,32
642,11	1642,47
642,30	1742,82
642,49	1734,63
642,68	1699,81
642,87	1732,58
643,06	1714,15
643,25	1601,51
643,44	1671,14
643,63	1726,44
643,82	1736,68
644,00	1656,81
644,19	1751,01
644,38	1669,09
644,57	1732,58
644,76	1710,05
644,95	1697,77
645,14	1748,97
645,33	1697,77
645,52	1662,95
645,71	1648,61
645,89	1601,51
646,08	1769,44
646,27	1671,14
646,46	1765,35
646,65	1576,94
646,84	1757,16
647,03	1615,85
647,22	1796,07
647,40	1720,29
647,59	1652,71
647,78	1660,90
647,97	1634,28
648,16	1644,52
648,35	1853,41
648,54	1800,16
648,73	1632,23
648,91	1861,60
649,10	1632,23
649,29	1738,73
649,48	1738,73
649,67	1761,25
649,86	1697,77
650,05	1667,05
650,23	1812,45
650,42	1669,09
650,61	1751,01
650,80	1753,06
650,99	1892,32
651,18	1765,35
651,36	1783,78
651,55	1667,05
651,74	1736,68
651,93	1609,70
652,12	1740,77
652,31	1728,49
652,49	1738,73
652,68	1679,33
652,87	1759,21
653,06	1771,49
653,25	1861,60
653,44	1728,49
653,62	1841,12
653,81	1687,53
654,00	1724,39
654,19	1724,39
654,38	1789,92
654,56	1763,30
654,75	1730,53
654,94	1708,01
655,13	1705,96
655,32	1757,16
655,51	1779,68
655,69	1628,14
655,88	1753,06
656,07	1611,75
656,26	1746,92
656,45	1665,00
656,63	1693,67
656,82	1828,84
657,01	1740,77
657,20	1759,21
657,38	1720,29
657,57	1652,71
657,76	1613,80
657,95	1724,39
658,14	1658,85
658,32	1724,39
658,51	1681,38
658,70	1660,90
658,89	1740,77
659,08	1652,71
659,26	1785,83
659,45	1640,42
659,64	1789,92
659,83	1714,15
660,01	1890,28
660,20	1714,15
660,39	1789,92
660,58	1654,76
660,76	1775,59
660,95	1630,18
661,14	1779,68
661,33	1683,43
661,51	1654,76
661,70	1677,29
661,89	1732,58
662,08	1662,95
662,26	1591,27
662,45	1708,01
662,64	1820,64
662,83	1730,53
663,01	1574,89
663,20	1730,53
663,39	1744,87
663,58	1609,70
663,76	1724,39
663,95	1681,38
664,14	1730,53
664,32	1720,29
664,51	1699,81
664,70	1611,75
664,89	1763,30
665,07	1669,09
665,26	1783,78
665,45	1660,90
665,64	1736,68
665,82	1736,68
666,01	1654,76
666,20	1599,46
666,38	1871,84
666,57	1802,21
666,76	2183,13
666,95	4521,92
667,13	10000,23
667,32	15111,96
667,51	17174,27
667,69	18568,93
667,88	17291,00
668,07	11970,38
668,25	9312,11
668,44	8005,51
668,63	7192,47
668,81	6639,51
669,00	6135,71
669,19	5463,98
669,38	5062,58
669,56	4485,05
669,75	3895,24
669,94	3325,90
670,12	2861,01
670,31	2504,67
670,50	2193,37
670,68	2047,97
670,87	1964,00
671,06	1820,64
671,24	1767,40
671,43	1804,26
671,62	1726,44
671,80	1636,33
671,99	1730,53
672,18	1763,30
672,36	1769,44
672,55	1740,77
672,74	1746,92
672,92	1656,81
673,11	1761,25
673,29	1673,19
673,48	1748,97
673,67	1724,39
673,85	1691,62
674,04	1648,61
674,23	1662,95
674,41	1814,50
674,60	1593,32
674,79	1615,85
674,97	1646,57
675,16	1712,10
675,34	1804,26
675,53	1679,33
675,72	1748,97
675,90	1771,49
676,09	1665,00
676,28	1738,73
676,46	1697,77
676,65	1730,53
676,83	1708,01
677,02	1683,43
677,21	1611,75
677,39	1722,34
677,58	1722,34
677,77	1685,48
677,95	1689,57
678,14	1740,77
678,32	1718,25
678,51	1693,67
678,70	1910,75
678,88	1648,61
679,07	1695,72
679,25	1673,19
679,44	1728,49
679,63	1656,81
679,81	1705,96
680,00	1767,40
680,18	1742,82
680,37	1744,87
680,55	1751,01
680,74	1619,94
680,93	1648,61
681,11	1712,10
681,30	1667,05
681,48	1728,49
681,67	1693,67
681,85	1611,75
682,04	1701,86
682,23	1728,49
682,41	1779,68
682,60	1673,19
682,78	1693,67
682,97	1640,42
683,15	1746,92
683,34	1705,96
683,53	1855,46
683,71	1677,29
683,90	1800,16
684,08	1861,60
684,27	1708,01
684,45	1724,39
684,64	1767,40
684,82	1701,86
685,01	1691,62
685,19	1689,57
685,38	1804,26
685,57	1677,29
685,75	1660,90
685,94	1677,29
686,12	1673,19
686,31	1660,90
686,49	1791,97
686,68	1564,65
686,86	1771,49
687,05	1722,34
687,23	1796,07
687,42	1597,42
687,60	1669,09
687,79	1710,05
687,97	1767,40
688,16	1791,97
688,34	1777,64
688,53	1619,94
688,71	1740,77
688,90	1779,68
689,08	1671,14
689,27	1589,22
689,45	1796,07
689,64	1697,77
689,82	1662,95
690,01	1806,31
690,19	1806,31
690,38	1718,25
690,56	1824,74
690,75	1576,94
690,93	1665,00
691,12	1640,42
691,30	1710,05
691,49	1642,47
691,67	1677,29
691,86	1806,31
692,04	1701,86
692,23	1644,52
692,41	1667,05
692,60	1802,21
692,78	1767,40
692,97	1708,01
693,15	1804,26
693,34	1755,11
693,52	1818,60
693,71	1648,61
693,89	1681,38
694,08	1628,14
694,26	1830,88
694,44	1742,82
694,63	1787,88
694,81	1621,99
695,00	1730,53
695,18	1808,36
695,37	1834,98
695,55	1757,16
695,74	1681,38
695,92	1679,33
696,10	1689,57
696,29	1593,32
696,47	1685,48
696,66	1677,29
696,84	1626,09
697,03	1693,67
697,21	1824,74
697,40	2256,86
697,58	1771,49
697,76	1644,52
697,95	1703,91
698,13	1724,39
698,32	1669,09
698,50	1703,91
698,68	1724,39
698,87	1720,29
699,05	1834,98
699,24	1675,24
699,42	1687,53
699,61	1640,42
699,79	1685,48
699,97	1660,90
700,16	1652,71
700,34	1658,85
700,53	1789,92
700,71	1726,44
700,89	1689,57
701,08	1658,85
701,26	1740,77
701,45	2119,65
701,63	1626,09
701,81	1714,15
702,00	1613,80
702,18	1712,10
702,37	1742,82
702,55	1689,57
702,73	1665,00
702,92	1677,29
703,10	1777,64
703,28	1691,62
703,47	1658,85
703,65	1734,63
703,84	1755,11
704,02	1632,23
704,20	1837,03
704,39	1701,86
704,57	1724,39
704,75	1746,92
704,94	1722,34
705,12	1740,77
705,30	1816,55
705,49	2246,62
705,67	4302,78
705,86	9174,90
706,04	12402,50
706,22	13934,38
706,41	14792,48
706,59	13537,07
706,77	9447,28
706,96	7184,27
707,14	6500,25
707,32	5928,87
707,51	5416,88
707,69	4782,01
707,87	4212,67
708,06	3489,74
708,24	2885,59
708,42	2408,41
708,61	2336,73
708,79	1943,52
708,97	1875,94
709,16	1771,49
709,34	1783,78
709,52	1724,39
709,71	1742,82
709,89	1796,07
710,07	1677,29
710,26	1619,94
710,44	1789,92
710,62	1775,59
710,80	1724,39
710,99	1759,21
711,17	1798,12
711,35	1632,23
711,54	1665,00
711,72	1804,26
711,90	1738,73
712,09	1658,85
712,27	1632,23
712,45	1751,01
712,63	1640,42
712,82	1685,48
713,00	1689,57
713,18	1761,25
713,37	1763,30
713,55	1775,59
713,73	1781,73
713,91	1808,36
714,10	1675,24
714,28	1701,86
714,46	1681,38
714,65	1695,72
714,83	1722,34
715,01	1675,24
715,19	1763,30
715,38	1607,66
715,56	1802,21
715,74	1724,39
715,92	1671,14
716,11	1757,16
716,29	1585,13
716,47	1730,53
716,65	1689,57
716,84	1642,47
717,02	1804,26
717,20	1652,71
717,38	1732,58
717,57	1722,34
717,75	1681,38
717,93	1755,11
718,11	1703,91
718,30	1605,61
718,48	1744,87
718,66	1808,36
718,84	1751,01
719,03	1667,05
719,21	1615,85
719,39	1816,55
719,57	1763,30
719,75	1748,97
719,94	1632,23
720,12	1697,77
720,30	1714,15
720,48	1783,78
720,67	1699,81
720,85	1611,75
721,03	1767,40
721,21	1578,98
721,39	1751,01
721,58	1796,07
721,76	1722,34
721,94	1783,78
722,12	1652,71
722,30	1738,73
722,49	1626,09
722,67	1710,05
722,85	1712,10
723,03	1652,71
723,21	1665,00
723,40	1705,96
723,58	1779,68
723,76	1691,62
723,94	1728,49
724,12	1673,19
724,30	1767,40
724,49	1746,92
724,67	1585,13
724,85	1785,83
725,03	1710,05
725,21	1748,97
725,40	1796,07
725,58	1714,15
725,76	1705,96
725,94	1705,96
726,12	1656,81
726,30	1761,25
726,49	1681,38
726,67	1679,33
726,85	1773,54
727,03	1736,68
727,21	2088,93
727,39	2828,24
727,57	3745,73
727,76	4075,46
727,94	4378,56
728,12	4235,20
728,30	3481,55
728,48	3014,61
728,66	2762,71
728,84	2469,85
729,03	2205,66
729,21	2193,37
729,39	1978,34
729,57	1781,73
729,75	1800,16
729,93	1873,89
730,11	1753,06
730,30	1699,81
730,48	1814,50
730,66	1820,64
730,84	1773,54
731,02	1667,05
731,20	1560,55
731,38	1763,30
731,56	1656,81
731,74	1632,23
731,93	1685,48
732,11	1697,77
732,29	1648,61
732,47	1753,06
732,65	1771,49
732,83	1746,92
733,01	1658,85
733,19	1673,19
733,37	1712,10
733,56	1720,29
733,74	1718,25
733,92	1791,97
734,10	1662,95
734,28	1767,40
734,46	1615,85
734,64	1646,57
734,82	1675,24
735,00	1683,43
735,18	1708,01
735,36	1699,81
735,54	1685,48
735,73	1667,05
735,91	1738,73
736,09	1736,68
736,27	1726,44
736,45	1796,07
736,63	1642,47
736,81	1714,15
736,99	1781,73
737,17	1693,67
737,35	1658,85
737,53	1650,66
737,71	1718,25
737,89	1773,54
738,07	1632,23
738,25	1632,23
738,43	1648,61
738,61	1726,44
738,80	1665,00
738,98	1701,86
739,16	1703,91
739,34	1683,43
739,52	1783,78
739,70	1632,23
739,88	1746,92
740,06	1812,45
740,24	1607,66
740,42	1796,07
740,60	1591,27
740,78	1574,89
740,96	1626,09
741,14	1644,52
741,32	1630,18
741,50	1619,94
741,68	1849,32
741,86	1804,26
742,04	1671,14
742,22	1722,34
742,40	1722,34
742,58	1759,21
742,76	1644,52
742,94	1732,58
743,12	1660,90
743,30	1677,29
743,48	1767,40
743,66	1560,55
743,84	1781,73
744,02	1667,05
744,20	1705,96
744,38	1710,05
744,56	1630,18
744,74	1771,49
744,92	1732,58
745,10	1789,92
745,28	1714,15
745,46	1845,22
745,64	1720,29
745,82	1787,88
746,00	1667,05
746,18	1660,90
746,36	1718,25
746,54	1765,35
746,72	1705,96
746,90	1609,70
747,08	1759,21
747,26	1634,28
747,44	1718,25
747,62	1818,60
747,80	1726,44
747,98	1765,35
748,15	1699,81
748,33	1771,49
748,51	1646,57
748,69	1644,52
748,87	1673,19
749,05	1697,77
749,23	1642,47
749,41	1705,96
749,59	1736,68
749,77	1740,77
749,95	1708,01
750,13	1607,66
750,31	1740,77
750,49	1755,11
750,67	1763,30
750,85	1855,46
751,03	1701,86
751,20	1744,87
751,38	1689,57
751,56	1685,48
751,74	1714,15
751,92	1703,91
752,10	1669,09
752,28	1826,79
752,46	1697,77
752,64	1685,48
752,82	1601,51
753,00	1699,81
753,18	1679,33
753,35	1746,92
753,53	1689,57
753,71	1619,94
753,89	1763,30
754,07	1685,48
754,25	1787,88
754,43	1726,44
754,61	1583,08
754,79	1761,25
754,97	1607,66
755,14	1746,92
755,32	1632,23
755,50	1640,42
755,68	1650,66
755,86	1613,80
756,04	1660,90
756,22	1634,28
756,40	1816,55
756,57	1738,73
756,75	1693,67
756,93	1753,06
757,11	1787,88
757,29	1665,00
757,47	1705,96
757,65	1675,24
757,82	1599,46
758,00	1728,49
758,18	1705,96
758,36	1621,99
758,54	1761,25
758,72	1656,81
758,90	1785,83
759,07	1744,87
759,25	1632,23
759,43	1660,90
759,61	1662,95
759,79	2150,37
759,97	1783,78
760,15	1652,71
760,32	1732,58
760,50	1732,58
760,68	1753,06
760,86	1644,52
761,04	1734,63
761,22	1761,25
761,39	1728,49
761,57	1693,67
761,75	1660,90
761,93	1740,77
762,11	1681,38
762,28	1716,20
762,46	1611,75
762,64	1814,50
762,82	1605,61
763,00	1673,19
763,18	1757,16
763,35	1593,32
763,53	1716,20
763,71	1763,30
763,89	1632,23
764,07	1681,38
764,24	1732,58
764,42	1695,72
764,60	1671,14
764,78	1767,40
764,96	1763,30
765,13	1791,97
765,31	1710,05
765,49	1716,20
765,67	1601,51
765,84	1617,90
766,02	1697,77
766,20	1578,98
766,38	1699,81
766,56	1751,01
766,73	1787,88
766,91	1634,28
767,09	1665,00
767,27	1736,68
767,44	1652,71
767,62	1708,01
767,80	1740,77
767,98	1640,42
768,15	1671,14
768,33	1640,42
768,51	1820,64
768,69	1712,10
768,87	1759,21
769,04	1615,85
769,22	1810,40
769,40	1765,35
769,58	1910,75
769,75	1740,77
769,93	1753,06
770,11	1677,29
770,28	1593,32
770,46	1757,16
770,64	1652,71
770,82	1685,48
770,99	1712,10
771,17	1742,82
771,35	1734,63
771,53	1630,18
771,70	1650,66
771,88	1730,53
772,06	1687,53
772,23	1646,57
772,41	1726,44
772,59	1624,04
772,77	1562,60
772,94	1628,14
773,12	1732,58
773,30	1669,09
773,47	1761,25
773,65	1644,52
773,83	1796,07
774,01	1628,14
774,18	1566,70
774,36	1675,24
774,54	1599,46
774,71	1716,20
774,89	1617,90
775,07	1624,04
775,24	1652,71
775,42	1693,67
775,60	1787,88
775,78	1634,28
775,95	1619,94
776,13	1609,70
776,31	1568,74
776,48	1656,81
776,66	1714,15
776,84	1748,97
777,01	1660,90
777,19	1673,19
777,37	1640,42
777,54	1751,01
777,72	1839,08
777,90	1683,43
778,07	1632,23
778,25	1808,36
778,43	1705,96
778,60	1658,85
778,78	1759,21
778,96	1763,30
779,13	1654,76
779,31	1730,53
779,49	1701,86
779,66	1769,44
779,84	1667,05
780,01	1630,18
780,19	1656,81
780,37	1740,77
780,54	1771,49
780,72	1675,24
780,90	1576,94
781,07	1722,34
781,25	1667,05
781,43	1761,25
781,60	1718,25
781,78	1820,64
781,95	1689,57
782,13	1726,44
782,31	1748,97
782,48	1587,18
782,66	1665,00
782,83	1755,11
783,01	1738,73
783,19	1722,34
783,36	1611,75
783,54	1624,04
783,72	1701,86
783,89	1601,51
784,07	1746,92
784,24	1738,73
784,42	1742,82
784,60	1710,05
784,77	1740,77
784,95	1578,98
785,12	1705,96
785,30	1728,49
785,47	1660,90
785,65	1697,77
785,83	1693,67
786,00	1691,62
786,18	1726,44
786,35	1617,90
786,53	1660,90
786,71	1794,02
786,88	1763,30
787,06	1683,43
787,23	1718,25
787,41	1699,81
787,58	1699,81
787,76	1615,85
787,94	1640,42
788,11	1710,05
788,29	1685,48
788,46	1675,24
788,64	1603,56
788,81	1632,23
788,99	1611,75
789,16	1646,57
789,34	1617,90
789,52	1767,40
789,69	1660,90
789,87	1574,89
790,04	1701,86
790,22	1769,44
790,39	1771,49
790,57	1611,75
790,74	1662,95
790,92	1759,21
791,09	1681,38
791,27	1689,57
791,44	1761,25
791,62	1705,96
791,79	1755,11
791,97	1695,72
792,15	1882,08
792,32	1714,15
792,50	1699,81
792,67	1802,21
792,85	1761,25
793,02	1728,49
793,20	1671,14
793,37	1650,66
793,55	1675,24
793,72	1636,33
793,90	1748,97
794,07	1615,85
794,25	1683,43
794,42	1755,11
794,60	1732,58
794,77	1726,44
794,95	1697,77
795,12	1761,25
795,30	1576,94
795,47	1585,13
795,65	1869,80
795,82	1673,19
796,00	1708,01
796,17	1697,77
796,34	1722,34
796,52	1638,38
796,69	1787,88
796,87	1763,30
797,04	1763,30
797,22	1775,59
797,39	1722,34
797,57	1705,96
797,74	1648,61
797,92	1734,63
798,09	1679,33
798,27	1746,92
798,44	1740,77
798,62	1683,43
798,79	1673,19
798,96	1734,63
799,14	1708,01
799,31	1808,36
799,49	1648,61
799,66	1628,14
799,84	1726,44
800,01	1665,00
800,19	1697,77
800,36	1562,60
800,53	1665,00
800,71	1679,33
800,88	1818,60
801,06	1660,90
801,23	1621,99
801,41	1665,00
801,58	1654,76
801,75	1662,95
801,93	1628,14
802,10	1746,92
802,28	1628,14
802,45	1695,72
802,63	1751,01
802,80	1718,25
802,97	1681,38
803,15	1665,00
803,32	1576,94
803,50	1714,15
803,67	1656,81
803,84	1603,56
804,02	1710,05
804,19	1691,62
804,37	1570,79
804,54	1671,14
804,71	1695,72
804,89	1611,75
805,06	1648,61
805,24	1589,22
805,41	1697,77
805,58	1601,51
805,76	1812,45
805,93	1699,81
806,10	1742,82
806,28	1765,35
806,45	1656,81
806,63	1736,68
806,80	1703,91
806,97	1767,40
807,15	1712,10
807,32	1708,01
807,49	1671,14
807,67	1621,99
807,84	1740,77
808,01	1640,42
808,19	1859,56
808,36	1820,64
808,54	1617,90
808,71	1673,19
808,88	1765,35
809,06	1724,39
809,23	1746,92
809,40	1716,20
809,58	1718,25
809,75	1613,80
809,92	1660,90
810,10	1873,89
810,27	1730,53
810,44	1679,33
810,62	1720,29
810,79	1689,57
810,96	1720,29
811,14	1583,08
811,31	1751,01
811,48	1671,14
811,66	1718,25
811,83	1746,92
812,00	1658,85
812,18	1763,30
812,35	1787,88
812,52	1671,14
812,69	1640,42
812,87	1671,14
813,04	1640,42
813,21	1724,39
813,39	1699,81
813,56	1628,14
813,73	1834,98
813,91	1642,47
814,08	1665,00
814,25	1665,00
814,42	1529,83
814,60	1656,81
814,77	1679,33
814,94	1679,33
815,12	1673,19
815,29	1722,34
815,46	1683,43
815,63	1693,67
815,81	1724,39
815,98	1648,61
816,15	1671,14
816,33	1701,86
816,50	1708,01
816,67	1597,42
816,84	1759,21
817,02	1581,03
817,19	1656,81
817,36	1714,15
817,53	1746,92
817,71	1628,14
817,88	1710,05
818,05	1658,85
818,22	1607,66
818,40	1720,29
818,57	1640,42
818,74	1759,21
818,91	1677,29
819,09	1779,68
819,26	1679,33
819,43	1667,05
819,60	1703,91
819,78	1779,68
819,95	1767,40
820,12	1609,70
820,29	1847,27
820,47	1738,73
820,64	1695,72
820,81	1619,94
820,98	1656,81
821,15	1683,43
821,33	1722,34
821,50	1638,38
821,67	1665,00
821,84	1779,68
822,02	1708,01
822,19	1751,01
822,36	1675,24
822,53	1632,23
822,70	1710,05
822,88	1638,38
823,05	1755,11
823,22	1710,05
823,39	1796,07
823,56	1740,77
823,74	1685,48
823,91	1644,52
824,08	1693,67
824,25	1609,70
824,42	1834,98
824,60	1699,81
824,77	1710,05
824,94	1669,09
825,11	1695,72
825,28	1628,14
825,45	1714,15
825,63	1693,67
825,80	1607,66
825,97	1703,91
826,14	1648,61
826,31	1585,13
826,48	1722,34
826,66	1710,05
826,83	1658,85
827,00	1732,58
827,17	1644,52
827,34	1687,53
827,51	1611,75
827,69	1701,86
827,86	1591,27
828,03	1740,77
828,20	1740,77
828,37	1638,38
828,54	1791,97
828,71	1669,09
828,89	1806,31
829,06	1648,61
829,23	1804,26
829,40	1656,81
829,57	1658,85
829,74	1658,85
829,91	1695,72
830,09	1693,67
830,26	1738,73
830,43	1759,21
830,60	1675,24
830,77	1783,78
830,94	1732,58
831,11	1763,30
831,28	1699,81
831,46	1812,45
831,63	1646,57
831,80	1732,58
831,97	1710,05
832,14	1660,90
832,31	1763,30
832,48	1667,05
832,65	1775,59
832,82	1736,68
832,99	1708,01
833,17	1603,56
833,34	1718,25
833,51	1693,67
833,68	1574,89
833,85	1675,24
834,02	1642,47
834,19	1726,44
834,36	1632,23
834,53	1734,63
834,70	1806,31
834,87	1728,49
835,04	1763,30
835,22	1677,29
835,39	1691,62
835,56	1572,84
835,73	1658,85
835,90	1736,68
836,07	1665,00
836,24	1667,05
836,41	1621,99
836,58	1646,57
836,75	1775,59
836,92	1662,95
837,09	1646,57
837,26	1734,63
837,43	1691,62
837,60	1683,43
837,77	1652,71
837,94	1742,82
838,12	1806,31
838,29	1671,14
838,46	1660,90
838,63	1671,14
838,80	1771,49
838,97	1783,78
839,14	1718,25
839,31	1689,57
839,48	1763,30
839,65	1675,24
839,82	1757,16
839,99	1681,38
840,16	1681,38
840,33	1667,05
840,50	1732,58
840,67	1685,48
840,84	1605,61
841,01	1677,29
841,18	1708,01
841,35	1683,43
841,52	1746,92
841,69	1828,84
841,86	1677,29
842,03	1697,77
842,20	1712,10
842,37	1693,67
842,54	1787,88
842,71	1679,33
842,88	1644,52
843,05	1767,40
843,22	1810,40
843,39	1665,00
843,56	1710,05
843,73	1705,96
843,90	1716,20
844,07	1681,38
844,24	1808,36
844,41	1761,25
844,58	1675,24
844,75	1667,05
844,92	1746,92
845,09	1613,80
845,26	1703,91
845,43	1617,90
845,60	1636,33
845,77	1775,59
845,94	1679,33
846,10	1841,12
846,27	1624,04
846,44	1656,81
846,61	1683,43
846,78	1701,86
846,95	1734,63
847,12	1697,77
847,29	1656,81
847,46	1656,81
847,63	1726,44
847,80	1648,61
847,97	1687,53
848,14	1880,04
848,31	1632,23
848,48	1644,52
848,65	1640,42
848,82	1671,14
848,98	1804,26
849,15	1734,63
849,32	1746,92
849,49	1734,63
849,66	1730,53
849,83	1742,82
850,00	1697,77
850,17	1785,83
850,34	1714,15
850,51	1621,99
850,68	1646,57
850,85	1808,36
851,01	1724,39
851,18	1710,05
851,35	1615,85
851,52	1740,77
851,69	1755,11
851,86	1626,09
852,03	1648,61
852,20	1763,30
852,37	1693,67
852,53	1513,45
852,70	1658,85
852,87	1658,85
853,04	1708,01
853,21	1705,96
853,38	1767,40
853,55	1763,30
853,72	1740,77
853,89	1626,09
854,05	1642,47
854,22	1667,05
854,39	1660,90
854,56	1759,21
854,73	1783,78
854,90	1689,57
855,07	1693,67
855,23	1697,77
855,40	1740,77
855,57	1710,05
855,74	1593,32
855,91	1873,89
856,08	1587,18
856,25	1697,77
856,41	1722,34
856,58	1685,48
856,75	1669,09
856,92	1650,66
857,09	1656,81
857,26	1619,94
857,42	1712,10
857,59	1767,40
857,76	1722,34
857,93	1724,39
858,10	1681,38
858,27	1671,14
858,43	1697,77
858,60	1589,22
858,77	1595,37
858,94	1660,90
859,11	1716,20
859,27	1759,21
859,44	1718,25
859,61	1753,06
859,78	1728,49
859,95	1648,61
860,12	1654,76
860,28	1775,59
860,45	1730,53
860,62	1658,85
860,79	1673,19
860,95	1755,11
861,12	1705,96
861,29	1705,96
861,46	1718,25
861,63	1701,86
861,79	1714,15
861,96	1689,57
862,13	1748,97
862,30	1785,83
862,47	1748,97
862,63	1697,77
862,80	1806,31
862,97	1718,25
863,14	1691,62
863,30	1677,29
863,47	1662,95
863,64	1808,36
863,81	1755,11
863,97	1669,09
864,14	1710,05
864,31	1642,47
864,48	1789,92
864,65	1734,63
864,81	1675,24
864,98	1757,16
865,15	1773,54
865,32	1771,49
865,48	1722,34
865,65	1689,57
865,82	1673,19
865,98	1665,00
866,15	1800,16
866,32	1665,00
866,49	1675,24
866,65	1769,44
866,82	1710,05
866,99	1669,09
867,16	1677,29
867,32	1617,90
867,49	1746,92
867,66	1609,70
867,83	1662,95
867,99	1626,09
868,16	1675,24
868,33	1658,85
868,49	1695,72
868,66	1724,39
868,83	1716,20
868,99	1714,15
869,16	1697,77
869,33	1734,63
869,50	1777,64
869,66	1724,39
869,83	1673,19
870,00	1642,47
870,16	1769,44
870,33	1718,25
870,50	1773,54
870,66	1738,73
870,83	1775,59
871,00	1722,34
871,17	1773,54
871,33	1763,30
871,50	1714,15
871,67	1671,14
871,83	1654,76
872,00	1703,91
872,17	1697,77
872,33	1818,60
872,50	1757,16
872,67	1687,53
872,83	1681,38
873,00	1710,05
873,17	1628,14
873,33	1746,92
873,50	1650,66
873,67	1615,85
873,83	1683,43
874,00	1699,81
874,16	1777,64
874,33	1671,14
874,50	1662,95
874,66	1673,19
874,83	1667,05
875,00	1779,68
875,16	1677,29
875,33	1779,68
875,50	1662,95
875,66	1624,04
875,83	1699,81
875,99	1710,05
876,16	1689,57
876,33	1710,05
876,49	1748,97
876,66	1767,40
876,83	1638,38
876,99	1677,29
877,16	1744,87
877,32	1755,11
877,49	1660,90
877,66	1740,77
877,82	1728,49
877,99	1656,81
878,15	1679,33
878,32	1738,73
878,49	1714,15
878,65	1644,52
878,82	1804,26
878,98	1683,43
879,15	1757,16
879,32	1621,99
879,48	1671,14
879,65	1712,10
879,81	1695,72
879,98	1691,62
880,15	1662,95
880,31	1734,63
880,48	1658,85
880,64	1732,58
880,81	1718,25
880,97	1763,30
881,14	1685,48
881,31	1589,22
881,47	1740,77
881,64	1716,20
881,80	1634,28
881,97	1748,97
882,13	1738,73
882,30	1665,00
882,47	1681,38
882,63	1636,33
882,80	1648,61
882,96	1689,57
883,13	1812,45
883,29	1660,90
883,46	1673,19
883,62	1785,83
883,79	1761,25
883,95	1763,30
884,12	1642,47
884,29	1685,48
884,45	1679,33
884,62	1736,68
884,78	1566,70
884,95	1724,39
885,11	1689,57
885,28	1726,44
885,44	1677,29
885,61	1814,50
885,77	1722,34
885,94	1738,73
886,10	1746,92
886,27	1734,63
886,43	1771,49
886,60	1740,77
886,76	1677,29
886,93	1683,43
887,09	1830,88
887,26	1673,19
887,42	1669,09
887,59	1791,97
887,75	1796,07
887,92	1798,12
888,08	1773,54
888,25	1837,03
888,41	1736,68
888,58	1677,29
888,74	1593,32
888,91	1638,38
>>>>>End Processed Spectral Data<<<<<
