SpectraSuite Data File
++++++++++++++++++++++++++++++++++++
Date: Mon Jun 06 15:12:57 CEST 2016
User: root
Dark Spectrum Present: No
Reference Spectrum Present: No
Number of Sampled Component Spectra: 1
Spectrometers: USB4C02835
Integration Time (usec): 100000 (USB4C02835)
Spectra Averaged: 1 (USB4C02835)
Boxcar Smoothing: 0 (USB4C02835)
Correct for Electrical Dark: No (USB4C02835)
Strobe/Lamp Enabled: No (USB4C02835)
Correct for Detector Non-linearity: No (USB4C02835)
Correct for Stray Light: No (USB4C02835)
Number of Pixels in Processed Spectrum: 3648
>>>>>Begin Processed Spectral Data<<<<<
177,47	1472,49
177,69	1472,49
177,91	1472,49
178,13	1425,39
178,36	1447,91
178,58	1607,66
178,80	1767,40
179,02	1628,14
179,24	1703,91
179,46	1714,15
179,68	1804,26
179,90	1687,53
180,13	1669,09
180,35	1677,29
180,57	1669,09
180,79	1765,35
181,01	1703,91
181,23	1681,38
181,45	1781,73
181,67	1779,68
181,90	1730,53
182,12	1769,44
182,34	1603,56
182,56	1730,53
182,78	1628,14
183,00	1669,09
183,22	1732,58
183,44	1576,94
183,66	1837,03
183,89	1732,58
184,11	1675,24
184,33	1710,05
184,55	1765,35
184,77	1728,49
184,99	1765,35
185,21	1640,42
185,43	1818,60
185,65	1619,94
185,87	1720,29
186,10	1775,59
186,32	1841,12
186,54	1679,33
186,76	1708,01
186,98	1759,21
187,20	1791,97
187,42	1685,48
187,64	1679,33
187,86	1714,15
188,08	1791,97
188,30	1665,00
188,52	1689,57
188,75	1751,01
188,97	1794,02
189,19	1658,85
189,41	1712,10
189,63	1824,74
189,85	1673,19
190,07	1697,77
190,29	1679,33
190,51	1671,14
190,73	1665,00
190,95	1808,36
191,17	1636,33
191,39	1671,14
191,61	1630,18
191,84	1660,90
192,06	1734,63
192,28	1613,80
192,50	1877,99
192,72	1695,72
192,94	1673,19
193,16	1794,02
193,38	1732,58
193,60	1581,03
193,82	1705,96
194,04	1763,30
194,26	1769,44
194,48	1708,01
194,70	1656,81
194,92	1607,66
195,14	1753,06
195,36	1701,86
195,58	1748,97
195,80	1751,01
196,02	1738,73
196,24	1728,49
196,46	1724,39
196,69	1646,57
196,91	1839,08
197,13	1681,38
197,35	1667,05
197,57	1818,60
197,79	1779,68
198,01	1742,82
198,23	1755,11
198,45	1771,49
198,67	1619,94
198,89	1779,68
199,11	1683,43
199,33	1624,04
199,55	1591,27
199,77	1669,09
199,99	1734,63
200,21	1679,33
200,43	1708,01
200,65	1640,42
200,87	1591,27
201,09	1669,09
201,31	1685,48
201,53	1744,87
201,75	1724,39
201,97	1728,49
202,19	1816,55
202,41	1777,64
202,63	1804,26
202,85	1769,44
203,07	1685,48
203,29	1683,43
203,51	1681,38
203,73	1669,09
203,95	1884,13
204,17	1699,81
204,39	1669,09
204,61	1697,77
204,83	1689,57
205,05	1718,25
205,27	1738,73
205,49	1822,69
205,71	1720,29
205,93	1636,33
206,15	1697,77
206,37	1632,23
206,59	1640,42
206,81	1609,70
207,03	1599,46
207,25	1624,04
207,47	1718,25
207,69	1687,53
207,91	1769,44
208,13	1847,27
208,34	1703,91
208,56	1679,33
208,78	1736,68
209,00	1695,72
209,22	1691,62
209,44	1732,58
209,66	1685,48
209,88	1699,81
210,10	1673,19
210,32	1669,09
210,54	1800,16
210,76	1763,30
210,98	1744,87
211,20	1683,43
211,42	1740,77
211,64	1746,92
211,86	1675,24
212,08	1652,71
212,30	1767,40
212,52	1689,57
212,74	1667,05
212,96	1722,34
213,17	1767,40
213,39	1669,09
213,61	1726,44
213,83	1755,11
214,05	1656,81
214,27	1712,10
214,49	1560,55
214,71	1667,05
214,93	1736,68
215,15	1665,00
215,37	1681,38
215,59	1576,94
215,81	1751,01
216,03	1777,64
216,24	1701,86
216,46	1691,62
216,68	1738,73
216,90	1785,83
217,12	1785,83
217,34	1714,15
217,56	1675,24
217,78	1783,78
218,00	1769,44
218,22	1710,05
218,44	1703,91
218,66	1746,92
218,87	1763,30
219,09	1701,86
219,31	1732,58
219,53	1685,48
219,75	1699,81
219,97	1757,16
220,19	1783,78
220,41	1665,00
220,63	1785,83
220,85	1740,77
221,06	1679,33
221,28	1880,04
221,50	1736,68
221,72	1634,28
221,94	1708,01
222,16	1716,20
222,38	1796,07
222,60	1714,15
222,82	1681,38
223,03	1755,11
223,25	1611,75
223,47	1730,53
223,69	1800,16
223,91	1853,41
224,13	1683,43
224,35	1691,62
224,57	1773,54
224,78	1701,86
225,00	1693,67
225,22	1687,53
225,44	1746,92
225,66	1718,25
225,88	1705,96
226,10	1751,01
226,32	1732,58
226,53	1730,53
226,75	1624,04
226,97	1701,86
227,19	1673,19
227,41	1681,38
227,63	1669,09
227,85	1673,19
228,06	1769,44
228,28	1765,35
228,50	1726,44
228,72	1609,70
228,94	1703,91
229,16	1564,65
229,37	1640,42
229,59	1671,14
229,81	1818,60
230,03	1703,91
230,25	1587,18
230,47	1730,53
230,69	1619,94
230,90	1695,72
231,12	1689,57
231,34	1736,68
231,56	1742,82
231,78	1665,00
232,00	1695,72
232,21	1759,21
232,43	1716,20
232,65	1624,04
232,87	1728,49
233,09	1708,01
233,30	1710,05
233,52	1722,34
233,74	1691,62
233,96	1681,38
234,18	1710,05
234,40	1652,71
234,61	1779,68
234,83	1619,94
235,05	1683,43
235,27	1808,36
235,49	1839,08
235,70	1705,96
235,92	1859,56
236,14	1714,15
236,36	1886,18
236,58	1685,48
236,79	1751,01
237,01	1771,49
237,23	1695,72
237,45	1859,56
237,67	1667,05
237,88	1789,92
238,10	1830,88
238,32	1669,09
238,54	1697,77
238,76	1738,73
238,97	1669,09
239,19	1683,43
239,41	1783,78
239,63	1781,73
239,85	1722,34
240,06	1712,10
240,28	1699,81
240,50	1873,89
240,72	1689,57
240,93	1777,64
241,15	1814,50
241,37	1640,42
241,59	1773,54
241,81	1777,64
242,02	1689,57
242,24	1722,34
242,46	1830,88
242,68	1632,23
242,89	1699,81
243,11	1761,25
243,33	1662,95
243,55	1738,73
243,76	1763,30
243,98	1576,94
244,20	1718,25
244,42	1658,85
244,64	1791,97
244,85	1636,33
245,07	1673,19
245,29	1730,53
245,51	1701,86
245,72	1683,43
245,94	1779,68
246,16	1693,67
246,38	1759,21
246,59	1734,63
246,81	1722,34
247,03	1681,38
247,24	1640,42
247,46	1658,85
247,68	1736,68
247,90	1677,29
248,11	1687,53
248,33	1818,60
248,55	1722,34
248,77	1677,29
248,98	1753,06
249,20	1759,21
249,42	1687,53
249,64	1746,92
249,85	1738,73
250,07	1755,11
250,29	1734,63
250,50	1755,11
250,72	1630,18
250,94	1757,16
251,16	1832,93
251,37	1779,68
251,59	1791,97
251,81	1718,25
252,02	1791,97
252,24	1671,14
252,46	1791,97
252,68	1685,48
252,89	1720,29
253,11	1509,35
253,33	1738,73
253,54	1822,69
253,76	1603,56
253,98	1630,18
254,20	1703,91
254,41	1703,91
254,63	1667,05
254,85	1597,42
255,06	1673,19
255,28	1662,95
255,50	1716,20
255,71	1599,46
255,93	1626,09
256,15	1646,57
256,36	1773,54
256,58	1638,38
256,80	1697,77
257,02	1673,19
257,23	1683,43
257,45	1703,91
257,67	1865,70
257,88	1617,90
258,10	1738,73
258,32	1734,63
258,53	1708,01
258,75	1804,26
258,97	1667,05
259,18	1761,25
259,40	1742,82
259,62	1810,40
259,83	1746,92
260,05	1753,06
260,27	1959,91
260,48	1763,30
260,70	1640,42
260,92	1724,39
261,13	1796,07
261,35	1710,05
261,57	1736,68
261,78	1603,56
262,00	1675,24
262,22	1765,35
262,43	1705,96
262,65	1714,15
262,86	1701,86
263,08	1820,64
263,30	1695,72
263,51	1660,90
263,73	1677,29
263,95	1761,25
264,16	1673,19
264,38	1689,57
264,60	1722,34
264,81	1703,91
265,03	1812,45
265,25	1736,68
265,46	1755,11
265,68	1751,01
265,89	1738,73
266,11	1564,65
266,33	1779,68
266,54	1785,83
266,76	1669,09
266,98	1714,15
267,19	1837,03
267,41	1755,11
267,62	1724,39
267,84	1556,46
268,06	1703,91
268,27	1744,87
268,49	1787,88
268,70	1701,86
268,92	1714,15
269,14	1730,53
269,35	1662,95
269,57	1712,10
269,79	1769,44
270,00	1658,85
270,22	1728,49
270,43	1671,14
270,65	1636,33
270,87	1826,79
271,08	1789,92
271,30	1753,06
271,51	1714,15
271,73	1751,01
271,95	1828,84
272,16	1718,25
272,38	1699,81
272,59	1660,90
272,81	1765,35
273,02	1675,24
273,24	1748,97
273,46	1746,92
273,67	1710,05
273,89	1701,86
274,10	1632,23
274,32	1834,98
274,54	1683,43
274,75	1785,83
274,97	1740,77
275,18	1740,77
275,40	1703,91
275,61	1679,33
275,83	1677,29
276,05	1687,53
276,26	1683,43
276,48	1699,81
276,69	1589,22
276,91	1740,77
277,12	1767,40
277,34	1826,79
277,55	1794,02
277,77	1677,29
277,99	1646,57
278,20	1648,61
278,42	1587,18
278,63	1689,57
278,85	1681,38
279,06	1646,57
279,28	1726,44
279,49	1767,40
279,71	1757,16
279,93	1808,36
280,14	1781,73
280,36	1626,09
280,57	1724,39
280,79	1683,43
281,00	1693,67
281,22	1710,05
281,43	1755,11
281,65	1517,54
281,86	1673,19
282,08	1765,35
282,29	1880,04
282,51	1636,33
282,73	1611,75
282,94	1605,61
283,16	1701,86
283,37	1777,64
283,59	1656,81
283,80	1753,06
284,02	1703,91
284,23	1642,47
284,45	1693,67
284,66	1630,18
284,88	1683,43
285,09	1650,66
285,31	1755,11
285,52	1687,53
285,74	1640,42
285,95	1689,57
286,17	1722,34
286,38	1830,88
286,60	1699,81
286,81	1640,42
287,03	1720,29
287,24	1712,10
287,46	1802,21
287,67	1699,81
287,89	1796,07
288,10	1665,00
288,32	1738,73
288,53	1697,77
288,75	1728,49
288,96	1783,78
289,18	1667,05
289,39	1738,73
289,61	1746,92
289,82	1816,55
290,04	1822,69
290,25	1660,90
290,47	1712,10
290,68	1681,38
290,90	1808,36
291,11	1646,57
291,33	1720,29
291,54	1669,09
291,76	1724,39
291,97	1716,20
292,18	1708,01
292,40	1730,53
292,61	1654,76
292,83	1814,50
293,04	1716,20
293,26	1660,90
293,47	1714,15
293,69	1624,04
293,90	1734,63
294,12	1777,64
294,33	1656,81
294,55	1693,67
294,76	1742,82
294,97	1779,68
295,19	1855,46
295,40	1605,61
295,62	1720,29
295,83	1769,44
296,05	1667,05
296,26	1744,87
296,48	1632,23
296,69	1693,67
296,90	1720,29
297,12	1662,95
297,33	1722,34
297,55	1757,16
297,76	1742,82
297,98	1830,88
298,19	1738,73
298,41	1751,01
298,62	1712,10
298,83	1808,36
299,05	1730,53
299,26	1701,86
299,48	1615,85
299,69	1785,83
299,90	1751,01
300,12	1679,33
300,33	1699,81
300,55	1744,87
300,76	1779,68
300,98	1671,14
301,19	1779,68
301,40	1769,44
301,62	1705,96
301,83	1722,34
302,05	1705,96
302,26	1716,20
302,47	1695,72
302,69	1630,18
302,90	1710,05
303,12	1560,55
303,33	1671,14
303,54	1791,97
303,76	1644,52
303,97	1685,48
304,19	1775,59
304,40	1683,43
304,61	1765,35
304,83	1832,93
305,04	1742,82
305,26	1787,88
305,47	1689,57
305,68	1701,86
305,90	1591,27
306,11	1769,44
306,33	1693,67
306,54	1734,63
306,75	1732,58
306,97	1574,89
307,18	1712,10
307,39	1718,25
307,61	1734,63
307,82	1632,23
308,04	1816,55
308,25	1671,14
308,46	1718,25
308,68	1726,44
308,89	1769,44
309,10	1816,55
309,32	1699,81
309,53	1693,67
309,74	1742,82
309,96	1640,42
310,17	1798,12
310,39	1691,62
310,60	1746,92
310,81	1677,29
311,03	1681,38
311,24	1703,91
311,45	1718,25
311,67	1869,80
311,88	1699,81
312,09	1708,01
312,31	1628,14
312,52	1650,66
312,73	1675,24
312,95	1695,72
313,16	1681,38
313,37	1869,80
313,59	1740,77
313,80	1714,15
314,01	1857,51
314,23	1705,96
314,44	1636,33
314,65	1703,91
314,87	1665,00
315,08	1687,53
315,29	1638,38
315,51	1656,81
315,72	1667,05
315,93	1783,78
316,15	1814,50
316,36	1714,15
316,57	1720,29
316,79	1787,88
317,00	1654,76
317,21	1705,96
317,43	1640,42
317,64	1681,38
317,85	1634,28
318,07	1703,91
318,28	1748,97
318,49	1806,31
318,70	1871,84
318,92	1830,88
319,13	1767,40
319,34	1865,70
319,56	1785,83
319,77	1843,17
319,98	1753,06
320,20	1783,78
320,41	1742,82
320,62	1730,53
320,83	1640,42
321,05	1810,40
321,26	1716,20
321,47	1710,05
321,69	1812,45
321,90	1646,57
322,11	1681,38
322,32	1785,83
322,54	1814,50
322,75	1736,68
322,96	1849,32
323,18	1634,28
323,39	1691,62
323,60	1621,99
323,81	1695,72
324,03	1738,73
324,24	1638,38
324,45	1759,21
324,66	1716,20
324,88	1738,73
325,09	1697,77
325,30	1667,05
325,52	1761,25
325,73	1638,38
325,94	1650,66
326,15	1578,98
326,37	1726,44
326,58	1736,68
326,79	1794,02
327,00	1695,72
327,22	1714,15
327,43	1679,33
327,64	1619,94
327,85	1675,24
328,07	1757,16
328,28	1775,59
328,49	1628,14
328,70	1701,86
328,92	1677,29
329,13	1689,57
329,34	1726,44
329,55	1755,11
329,76	1722,34
329,98	1708,01
330,19	1746,92
330,40	1736,68
330,61	1677,29
330,83	1656,81
331,04	1677,29
331,25	1771,49
331,46	1710,05
331,68	1585,13
331,89	1714,15
332,10	1742,82
332,31	1570,79
332,52	1681,38
332,74	1800,16
332,95	1665,00
333,16	1652,71
333,37	1742,82
333,58	1677,29
333,80	1720,29
334,01	1685,48
334,22	1638,38
334,43	1624,04
334,64	1714,15
334,86	1667,05
335,07	1691,62
335,28	1781,73
335,49	1662,95
335,70	1742,82
335,92	1759,21
336,13	1853,41
336,34	1783,78
336,55	1665,00
336,76	1755,11
336,98	1624,04
337,19	1746,92
337,40	1742,82
337,61	1814,50
337,82	1624,04
338,04	1777,64
338,25	1626,09
338,46	1703,91
338,67	1722,34
338,88	1619,94
339,09	1667,05
339,31	1574,89
339,52	1630,18
339,73	1638,38
339,94	1673,19
340,15	1757,16
340,36	1722,34
340,58	1718,25
340,79	1652,71
341,00	1759,21
341,21	1621,99
341,42	1785,83
341,63	1689,57
341,85	1748,97
342,06	1759,21
342,27	1681,38
342,48	1619,94
342,69	1632,23
342,90	1740,77
343,12	1769,44
343,33	1701,86
343,54	1832,93
343,75	1816,55
343,96	1697,77
344,17	1679,33
344,38	1701,86
344,60	1601,51
344,81	1710,05
345,02	1763,30
345,23	1705,96
345,44	1847,27
345,65	1730,53
345,86	1732,58
346,07	1640,42
346,29	1708,01
346,50	1734,63
346,71	1712,10
346,92	1746,92
347,13	1843,17
347,34	1613,80
347,55	1689,57
347,76	1773,54
347,98	1560,55
348,19	1687,53
348,40	1728,49
348,61	1671,14
348,82	1789,92
349,03	1814,50
349,24	1636,33
349,45	1767,40
349,66	1572,84
349,88	1744,87
350,09	1687,53
350,30	1730,53
350,51	1898,47
350,72	1705,96
350,93	1714,15
351,14	1660,90
351,35	1787,88
351,56	1722,34
351,77	1710,05
351,99	1697,77
352,20	1742,82
352,41	1753,06
352,62	1542,12
352,83	1695,72
353,04	1722,34
353,25	1703,91
353,46	1689,57
353,67	1742,82
353,88	1599,46
354,09	1779,68
354,30	1642,47
354,52	1685,48
354,73	1726,44
354,94	1671,14
355,15	1687,53
355,36	1826,79
355,57	1718,25
355,78	1732,58
355,99	1621,99
356,20	1701,86
356,41	1818,60
356,62	1669,09
356,83	1660,90
357,04	1794,02
357,25	1648,61
357,46	1701,86
357,68	1574,89
357,89	1634,28
358,10	1708,01
358,31	1656,81
358,52	1679,33
358,73	1732,58
358,94	1636,33
359,15	1669,09
359,36	1673,19
359,57	1665,00
359,78	1734,63
359,99	1599,46
360,20	1693,67
360,41	1710,05
360,62	1740,77
360,83	1710,05
361,04	1710,05
361,25	1736,68
361,46	1781,73
361,67	1742,82
361,88	1712,10
362,09	1759,21
362,30	1775,59
362,51	1685,48
362,72	1701,86
362,93	1771,49
363,14	1730,53
363,35	1619,94
363,56	1697,77
363,78	1818,60
363,99	1796,07
364,20	1648,61
364,41	1724,39
364,62	1728,49
364,83	1712,10
365,04	1665,00
365,25	1712,10
365,46	1855,46
365,67	1675,24
365,88	1701,86
366,09	1679,33
366,30	1736,68
366,51	1730,53
366,72	1626,09
366,93	1683,43
367,14	1705,96
367,35	1783,78
367,56	1665,00
367,77	1871,84
367,98	1705,96
368,18	1775,59
368,39	1720,29
368,60	1644,52
368,81	1763,30
369,02	1718,25
369,23	1681,38
369,44	1646,57
369,65	1726,44
369,86	1755,11
370,07	1689,57
370,28	1708,01
370,49	1701,86
370,70	1751,01
370,91	1650,66
371,12	1656,81
371,33	1818,60
371,54	1636,33
371,75	1800,16
371,96	1576,94
372,17	1679,33
372,38	1687,53
372,59	1746,92
372,80	1617,90
373,01	1720,29
373,22	1669,09
373,43	1683,43
373,64	1728,49
373,85	1701,86
374,06	1755,11
374,26	1777,64
374,47	1730,53
374,68	1761,25
374,89	1775,59
375,10	1767,40
375,31	1769,44
375,52	1710,05
375,73	1701,86
375,94	1675,24
376,15	1808,36
376,36	1662,95
376,57	1705,96
376,78	1746,92
376,99	1619,94
377,20	1812,45
377,40	1722,34
377,61	1775,59
377,82	1583,08
378,03	1849,32
378,24	1804,26
378,45	1755,11
378,66	1685,48
378,87	1624,04
379,08	1714,15
379,29	1740,77
379,50	1779,68
379,71	1757,16
379,91	1732,58
380,12	1708,01
380,33	1716,20
380,54	1693,67
380,75	1697,77
380,96	1687,53
381,17	1759,21
381,38	1714,15
381,59	1759,21
381,80	1669,09
382,00	1849,32
382,21	1826,79
382,42	1779,68
382,63	1810,40
382,84	1718,25
383,05	1791,97
383,26	1755,11
383,47	1781,73
383,68	1722,34
383,88	1736,68
384,09	1763,30
384,30	1767,40
384,51	1748,97
384,72	1673,19
384,93	1660,90
385,14	1671,14
385,35	1787,88
385,55	1656,81
385,76	1798,12
385,97	1701,86
386,18	1662,95
386,39	1738,73
386,60	1634,28
386,81	1734,63
387,02	1538,02
387,22	1656,81
387,43	1818,60
387,64	1779,68
387,85	1818,60
388,06	2179,04
388,27	4202,43
388,48	6698,91
388,68	8208,26
388,89	9461,62
389,10	9858,92
389,31	8490,88
389,52	7423,89
389,73	6498,20
389,93	6268,83
390,14	5803,94
390,35	5179,31
390,56	4521,92
390,77	3712,97
390,98	3002,32
391,18	2525,15
391,39	2066,40
391,60	1871,84
391,81	1818,60
392,02	1732,58
392,23	1796,07
392,43	1869,80
392,64	1755,11
392,85	1714,15
393,06	1822,69
393,27	1669,09
393,47	1724,39
393,68	1753,06
393,89	1693,67
394,10	1787,88
394,31	1679,33
394,52	1693,67
394,72	1730,53
394,93	1814,50
395,14	1595,37
395,35	1726,44
395,56	1683,43
395,76	1746,92
395,97	1824,74
396,18	1837,03
396,39	1873,89
396,60	2007,01
396,80	1920,99
397,01	1867,75
397,22	1861,60
397,43	1773,54
397,64	1746,92
397,84	1800,16
398,05	1906,66
398,26	1701,86
398,47	1789,92
398,67	1744,87
398,88	1757,16
399,09	1693,67
399,30	1705,96
399,51	1753,06
399,71	1671,14
399,92	1744,87
400,13	1814,50
400,34	1660,90
400,54	1746,92
400,75	1751,01
400,96	1732,58
401,17	1789,92
401,37	1791,97
401,58	1722,34
401,79	1755,11
402,00	1839,08
402,21	1923,04
402,41	1910,75
402,62	1912,80
402,83	2029,54
403,04	1992,67
403,24	2066,40
403,45	1857,51
403,66	1908,71
403,87	1884,13
404,07	1906,66
404,28	1882,08
404,49	1880,04
404,70	1757,16
404,90	1851,36
405,11	1728,49
405,32	1714,15
405,52	1703,91
405,73	1689,57
405,94	1654,76
406,15	1697,77
406,35	1720,29
406,56	1701,86
406,77	1667,05
406,98	1804,26
407,18	1675,24
407,39	1791,97
407,60	1701,86
407,80	1724,39
408,01	1656,81
408,22	1832,93
408,43	1634,28
408,63	1798,12
408,84	1736,68
409,05	1812,45
409,25	1601,51
409,46	1705,96
409,67	1638,38
409,88	1656,81
410,08	1769,44
410,29	1736,68
410,50	1730,53
410,70	1748,97
410,91	1693,67
411,12	1724,39
411,32	1769,44
411,53	1685,48
411,74	1869,80
411,95	1859,56
412,15	1740,77
412,36	1888,23
412,57	1746,92
412,77	1812,45
412,98	1683,43
413,19	1681,38
413,39	1830,88
413,60	1769,44
413,81	1822,69
414,01	1742,82
414,22	1773,54
414,43	1814,50
414,63	1734,63
414,84	1769,44
415,05	1751,01
415,25	1642,47
415,46	1736,68
415,67	1759,21
415,87	1714,15
416,08	1738,73
416,29	1669,09
416,49	1755,11
416,70	1687,53
416,91	1730,53
417,11	1640,42
417,32	1689,57
417,53	1804,26
417,73	1681,38
417,94	1761,25
418,15	1804,26
418,35	1753,06
418,56	1650,66
418,77	1806,31
418,97	1693,67
419,18	1691,62
419,38	1605,61
419,59	1722,34
419,80	1746,92
420,00	1728,49
420,21	1687,53
420,42	1798,12
420,62	1730,53
420,83	1701,86
421,04	1679,33
421,24	1751,01
421,45	1708,01
421,65	1763,30
421,86	1679,33
422,07	1791,97
422,27	1718,25
422,48	1720,29
422,69	1683,43
422,89	1708,01
423,10	1667,05
423,30	1685,48
423,51	1687,53
423,72	1738,73
423,92	1802,21
424,13	1701,86
424,33	1648,61
424,54	1738,73
424,75	1705,96
424,95	1814,50
425,16	1701,86
425,36	1716,20
425,57	1804,26
425,78	1683,43
425,98	1791,97
426,19	1773,54
426,39	1636,33
426,60	1738,73
426,81	1798,12
427,01	1660,90
427,22	1644,52
427,42	1685,48
427,63	1675,24
427,83	1777,64
428,04	1824,74
428,25	1865,70
428,45	1814,50
428,66	1773,54
428,86	1763,30
429,07	1701,86
429,28	1722,34
429,48	1630,18
429,69	1685,48
429,89	1773,54
430,10	1617,90
430,30	1781,73
430,51	1820,64
430,71	1697,77
430,92	1777,64
431,13	1591,27
431,33	1798,12
431,54	1718,25
431,74	1794,02
431,95	1845,22
432,15	1685,48
432,36	1755,11
432,56	1783,78
432,77	1820,64
432,98	1832,93
433,18	1730,53
433,39	1665,00
433,59	1662,95
433,80	1808,36
434,00	1890,28
434,21	1673,19
434,41	1722,34
434,62	1814,50
434,82	1714,15
435,03	1728,49
435,23	1753,06
435,44	1667,05
435,64	1730,53
435,85	1789,92
436,06	1732,58
436,26	1806,31
436,47	1722,34
436,67	1724,39
436,88	1705,96
437,08	1738,73
437,29	1888,23
437,49	1744,87
437,70	1798,12
437,90	1681,38
438,11	1873,89
438,31	1798,12
438,52	1886,18
438,72	1828,84
438,93	1880,04
439,13	1820,64
439,34	1849,32
439,54	1722,34
439,75	1859,56
439,95	1859,56
440,16	1675,24
440,36	1791,97
440,57	1753,06
440,77	1771,49
440,98	1798,12
441,18	1796,07
441,39	1720,29
441,59	1667,05
441,80	1771,49
442,00	1718,25
442,21	1847,27
442,41	1697,77
442,62	1794,02
442,82	1755,11
443,02	1777,64
443,23	1718,25
443,43	1751,01
443,64	1855,46
443,84	1644,52
444,05	1798,12
444,25	1757,16
444,46	1652,71
444,66	1693,67
444,87	1794,02
445,07	1667,05
445,28	1714,15
445,48	1685,48
445,69	1689,57
445,89	1916,90
446,09	1761,25
446,30	1988,58
446,50	2611,16
446,71	3784,65
446,91	4399,04
447,12	4745,14
447,32	4945,84
447,53	4296,64
447,73	3805,13
447,93	3575,75
448,14	3194,83
448,34	3237,84
448,55	2811,86
448,75	2797,53
448,96	2668,50
449,16	2402,27
449,36	2232,29
449,57	2013,15
449,77	1890,28
449,98	1751,01
450,18	1830,88
450,39	1810,40
450,59	1820,64
450,79	1732,58
451,00	1714,15
451,20	1818,60
451,41	1767,40
451,61	1783,78
451,81	1773,54
452,02	1693,67
452,22	1777,64
452,43	1771,49
452,63	1716,20
452,84	1781,73
453,04	1755,11
453,24	1787,88
453,45	1685,48
453,65	1730,53
453,86	1742,82
454,06	1714,15
454,26	1763,30
454,47	1660,90
454,67	1806,31
454,87	1789,92
455,08	1804,26
455,28	1851,36
455,49	1689,57
455,69	1660,90
455,89	1832,93
456,10	1845,22
456,30	1714,15
456,51	1810,40
456,71	1677,29
456,91	1695,72
457,12	1802,21
457,32	1773,54
457,52	1705,96
457,73	1800,16
457,93	1728,49
458,14	1624,04
458,34	1689,57
458,54	1736,68
458,75	1730,53
458,95	1820,64
459,15	1732,58
459,36	1703,91
459,56	1775,59
459,76	1865,70
459,97	1740,77
460,17	1662,95
460,37	1791,97
460,58	1710,05
460,78	1796,07
460,99	1718,25
461,19	1722,34
461,39	1722,34
461,60	1673,19
461,80	1724,39
462,00	1660,90
462,21	1722,34
462,41	1681,38
462,61	1673,19
462,82	1646,57
463,02	1841,12
463,22	1798,12
463,43	1716,20
463,63	1742,82
463,83	1802,21
464,04	1714,15
464,24	1708,01
464,44	1689,57
464,64	1673,19
464,85	1806,31
465,05	1810,40
465,25	1677,29
465,46	1656,81
465,66	1730,53
465,86	1816,55
466,07	1746,92
466,27	1720,29
466,47	1669,09
466,68	1640,42
466,88	1716,20
467,08	1796,07
467,29	1808,36
467,49	1767,40
467,69	1718,25
467,89	1732,58
468,10	1685,48
468,30	1697,77
468,50	1763,30
468,71	1798,12
468,91	1658,85
469,11	1763,30
469,31	1740,77
469,52	1718,25
469,72	1834,98
469,92	1920,99
470,13	1701,86
470,33	1798,12
470,53	1830,88
470,73	2131,94
470,94	2318,30
471,14	2353,12
471,34	2437,08
471,54	2361,31
471,75	2238,43
471,95	2037,73
472,15	2019,30
472,36	2031,58
472,56	2019,30
472,76	2095,07
472,96	1953,76
473,17	1906,66
473,37	1923,04
473,57	1763,30
473,77	1761,25
473,98	1791,97
474,18	1693,67
474,38	1945,57
474,58	1712,10
474,79	1656,81
474,99	1746,92
475,19	1726,44
475,39	1689,57
475,60	1769,44
475,80	1701,86
476,00	1716,20
476,20	1691,62
476,41	1753,06
476,61	1779,68
476,81	1779,68
477,01	1667,05
477,21	1880,04
477,42	1802,21
477,62	1556,46
477,82	1763,30
478,02	1775,59
478,23	1671,14
478,43	1681,38
478,63	1701,86
478,83	1667,05
479,03	1744,87
479,24	1791,97
479,44	1863,65
479,64	1677,29
479,84	1593,32
480,04	1636,33
480,25	1728,49
480,45	1675,24
480,65	1734,63
480,85	1804,26
481,06	1708,01
481,26	1765,35
481,46	1779,68
481,66	1757,16
481,86	1703,91
482,06	1789,92
482,27	1687,53
482,47	1650,66
482,67	1652,71
482,87	1730,53
483,07	1761,25
483,28	1703,91
483,48	1642,47
483,68	1736,68
483,88	1624,04
484,08	1521,64
484,29	1673,19
484,49	1767,40
484,69	1656,81
484,89	1781,73
485,09	1853,41
485,29	1785,83
485,50	1744,87
485,70	1687,53
485,90	1781,73
486,10	1740,77
486,30	1746,92
486,50	1812,45
486,71	1728,49
486,91	1820,64
487,11	1783,78
487,31	1636,33
487,51	1705,96
487,71	1648,61
487,91	1710,05
488,12	1621,99
488,32	1619,94
488,52	1689,57
488,72	1638,38
488,92	1753,06
489,12	1730,53
489,32	1812,45
489,53	1732,58
489,73	1624,04
489,93	1765,35
490,13	1697,77
490,33	1648,61
490,53	1783,78
490,73	1789,92
490,94	1572,84
491,14	1814,50
491,34	1933,28
491,54	2138,08
491,74	2568,15
491,94	2987,99
492,14	2979,79
492,34	3024,85
492,54	2803,67
492,75	2389,98
492,95	2435,03
493,15	2308,06
493,35	2201,57
493,55	2277,34
493,75	2201,57
493,95	2123,74
494,15	2002,91
494,35	1896,42
494,56	1845,22
494,76	1763,30
494,96	1767,40
495,16	1867,75
495,36	1738,73
495,56	1720,29
495,76	1769,44
495,96	1638,38
496,16	1689,57
496,36	1832,93
496,56	1646,57
496,77	1710,05
496,97	1734,63
497,17	1804,26
497,37	1691,62
497,57	1689,57
497,77	1720,29
497,97	1607,66
498,17	1710,05
498,37	1773,54
498,57	1767,40
498,77	1671,14
498,97	1787,88
499,17	1865,70
499,38	1769,44
499,58	1785,83
499,78	1773,54
499,98	1785,83
500,18	1769,44
500,38	1679,33
500,58	1955,81
500,78	2496,47
500,98	4536,25
501,18	5769,13
501,38	6762,39
501,58	7188,37
501,78	6655,90
501,98	5492,65
502,18	4865,97
502,38	4339,65
502,58	3989,44
502,78	3708,87
502,98	3483,59
503,18	3577,80
503,38	3254,22
503,59	2799,57
503,79	2564,06
503,99	2467,80
504,19	2238,43
504,39	2215,90
504,59	2156,51
504,79	2043,87
504,99	1990,63
505,19	1853,41
505,39	1906,66
505,59	1927,14
505,79	1951,71
505,99	1789,92
506,19	1771,49
506,39	1896,42
506,59	1753,06
506,79	1800,16
506,99	1822,69
507,19	1660,90
507,39	1800,16
507,59	1665,00
507,79	1765,35
507,99	1662,95
508,19	1710,05
508,39	1697,77
508,59	1679,33
508,79	1757,16
508,99	1849,32
509,19	1648,61
509,39	1763,30
509,59	1697,77
509,79	1695,72
509,99	1742,82
510,19	1761,25
510,39	1773,54
510,59	1740,77
510,79	1814,50
510,99	1638,38
511,19	1777,64
511,39	1822,69
511,59	1785,83
511,79	1886,18
511,99	1724,39
512,19	1839,08
512,38	1757,16
512,58	1691,62
512,78	1710,05
512,98	1800,16
513,18	1775,59
513,38	1617,90
513,58	1730,53
513,78	1726,44
513,98	1716,20
514,18	1701,86
514,38	1683,43
514,58	1777,64
514,78	1740,77
514,98	1683,43
515,18	1705,96
515,38	1726,44
515,58	1806,31
515,78	1816,55
515,98	1730,53
516,18	1722,34
516,38	1738,73
516,57	1685,48
516,77	1679,33
516,97	1736,68
517,17	1675,24
517,37	1574,89
517,57	1742,82
517,77	1697,77
517,97	1748,97
518,17	1765,35
518,37	1685,48
518,57	1734,63
518,77	1708,01
518,97	1673,19
519,16	1845,22
519,36	1787,88
519,56	1662,95
519,76	1683,43
519,96	1714,15
520,16	1808,36
520,36	1736,68
520,56	1757,16
520,76	1714,15
520,96	1761,25
521,16	1738,73
521,35	1781,73
521,55	1701,86
521,75	1701,86
521,95	1697,77
522,15	1701,86
522,35	1689,57
522,55	1730,53
522,75	1779,68
522,95	1730,53
523,14	1650,66
523,34	1783,78
523,54	1671,14
523,74	1787,88
523,94	1783,78
524,14	1673,19
524,34	1773,54
524,54	1814,50
524,73	1662,95
524,93	1865,70
525,13	1697,77
525,33	1665,00
525,53	1826,79
525,73	1824,74
525,93	1742,82
526,13	1646,57
526,32	1701,86
526,52	1740,77
526,72	1814,50
526,92	1683,43
527,12	1683,43
527,32	1624,04
527,52	1791,97
527,71	1720,29
527,91	1771,49
528,11	1734,63
528,31	1755,11
528,51	1763,30
528,71	1734,63
528,90	1724,39
529,10	1755,11
529,30	1847,27
529,50	1626,09
529,70	1712,10
529,90	1755,11
530,09	1656,81
530,29	1640,42
530,49	1712,10
530,69	1929,19
530,89	1748,97
531,09	1748,97
531,28	1665,00
531,48	1841,12
531,68	1810,40
531,88	1738,73
532,08	1767,40
532,28	1751,01
532,47	1826,79
532,67	1816,55
532,87	1705,96
533,07	1617,90
533,27	1738,73
533,46	1796,07
533,66	1742,82
533,86	1611,75
534,06	1708,01
534,26	1869,80
534,45	1705,96
534,65	1849,32
534,85	1728,49
535,05	1726,44
535,25	1804,26
535,44	1591,27
535,64	1740,77
535,84	1708,01
536,04	1701,86
536,24	1757,16
536,43	1732,58
536,63	1787,88
536,83	1683,43
537,03	1708,01
537,22	1628,14
537,42	1665,00
537,62	1718,25
537,82	1724,39
538,02	1802,21
538,21	1830,88
538,41	1847,27
538,61	1779,68
538,81	1732,58
539,00	1822,69
539,20	1638,38
539,40	1705,96
539,60	1671,14
539,79	1892,32
539,99	1736,68
540,19	1753,06
540,39	1783,78
540,58	1730,53
540,78	1769,44
540,98	1828,84
541,18	1759,21
541,37	1841,12
541,57	1726,44
541,77	1773,54
541,97	1689,57
542,16	1724,39
542,36	1701,86
542,56	1789,92
542,76	1794,02
542,95	1834,98
543,15	1826,79
543,35	1773,54
543,54	1689,57
543,74	1660,90
543,94	1763,30
544,14	1701,86
544,33	1779,68
544,53	1796,07
544,73	1746,92
544,93	1773,54
545,12	1767,40
545,32	1828,84
545,52	1759,21
545,71	1675,24
545,91	1769,44
546,11	1724,39
546,30	1716,20
546,50	1753,06
546,70	1796,07
546,90	1726,44
547,09	1701,86
547,29	1855,46
547,49	1775,59
547,68	1777,64
547,88	1738,73
548,08	1759,21
548,27	2191,33
548,47	1701,86
548,67	1755,11
548,87	1783,78
549,06	1734,63
549,26	1744,87
549,46	1738,73
549,65	1718,25
549,85	1736,68
550,05	1791,97
550,24	1671,14
550,44	1699,81
550,64	1779,68
550,83	1740,77
551,03	1851,36
551,23	1777,64
551,42	1796,07
551,62	1769,44
551,82	1820,64
552,01	1751,01
552,21	1761,25
552,41	1740,77
552,60	1884,13
552,80	1791,97
553,00	1626,09
553,19	1753,06
553,39	1781,73
553,59	1730,53
553,78	1742,82
553,98	1757,16
554,17	1740,77
554,37	1800,16
554,57	1814,50
554,76	1755,11
554,96	1720,29
555,16	1714,15
555,35	1724,39
555,55	1810,40
555,75	1695,72
555,94	1783,78
556,14	1695,72
556,33	1732,58
556,53	1755,11
556,73	1701,86
556,92	1806,31
557,12	1834,98
557,32	1791,97
557,51	1746,92
557,71	1791,97
557,90	1855,46
558,10	1783,78
558,30	1714,15
558,49	1687,53
558,69	1665,00
558,88	1734,63
559,08	1775,59
559,28	1789,92
559,47	1746,92
559,67	1777,64
559,86	1816,55
560,06	1781,73
560,26	1722,34
560,45	1808,36
560,65	1673,19
560,84	1865,70
561,04	1669,09
561,24	1761,25
561,43	1648,61
561,63	1771,49
561,82	1767,40
562,02	1683,43
562,22	1681,38
562,41	1677,29
562,61	1765,35
562,80	1693,67
563,00	1894,37
563,19	1779,68
563,39	1755,11
563,59	1734,63
563,78	1695,72
563,98	1650,66
564,17	1714,15
564,37	1605,61
564,56	1722,34
564,76	1656,81
564,96	1794,02
565,15	1785,83
565,35	1863,65
565,54	1744,87
565,74	1796,07
565,93	1794,02
566,13	1665,00
566,32	1806,31
566,52	1681,38
566,71	1814,50
566,91	1806,31
567,11	1808,36
567,30	1748,97
567,50	1837,03
567,69	1787,88
567,89	1738,73
568,08	1740,77
568,28	1769,44
568,47	1703,91
568,67	1759,21
568,86	1755,11
569,06	1781,73
569,25	1734,63
569,45	1683,43
569,64	1744,87
569,84	1673,19
570,04	1732,58
570,23	1705,96
570,43	1777,64
570,62	1759,21
570,82	1857,51
571,01	1669,09
571,21	1675,24
571,40	1787,88
571,60	1894,37
571,79	1810,40
571,99	1654,76
572,18	1714,15
572,38	1769,44
572,57	1712,10
572,77	1822,69
572,96	1867,75
573,16	1736,68
573,35	1738,73
573,55	1834,98
573,74	1746,92
573,94	1734,63
574,13	1746,92
574,33	1808,36
574,52	1755,11
574,71	1773,54
574,91	1832,93
575,10	1705,96
575,30	1724,39
575,49	1652,71
575,69	1751,01
575,88	1767,40
576,08	1617,90
576,27	1877,99
576,47	1757,16
576,66	1820,64
576,86	1771,49
577,05	1755,11
577,25	1722,34
577,44	1834,98
577,64	1673,19
577,83	1847,27
578,02	1781,73
578,22	1746,92
578,41	1853,41
578,61	1777,64
578,80	1669,09
579,00	1771,49
579,19	1691,62
579,39	1755,11
579,58	1783,78
579,77	1822,69
579,97	1828,84
580,16	1869,80
580,36	1865,70
580,55	1861,60
580,75	1853,41
580,94	1767,40
581,13	1796,07
581,33	1882,08
581,52	1691,62
581,72	1804,26
581,91	1871,84
582,11	1732,58
582,30	1857,51
582,49	1808,36
582,69	1789,92
582,88	1820,64
583,08	1859,56
583,27	1869,80
583,47	1689,57
583,66	1808,36
583,85	1701,86
584,05	1710,05
584,24	1802,21
584,44	1783,78
584,63	1824,74
584,82	1787,88
585,02	1796,07
585,21	1802,21
585,41	1818,60
585,60	1853,41
585,79	1882,08
585,99	1935,33
586,18	1773,54
586,37	2170,85
586,57	3409,87
586,76	9879,40
586,96	24108,69
587,15	34096,63
587,34	40187,29
587,54	41334,15
587,73	36031,96
587,93	26068,59
588,12	21001,92
588,31	17813,23
588,51	16344,84
588,70	15077,15
588,89	13852,46
589,09	12431,17
589,28	10676,06
589,47	9011,06
589,67	7849,86
589,86	6240,16
590,06	4849,59
590,25	3833,80
590,44	3016,66
590,64	2533,34
590,83	2224,09
591,02	2090,98
591,22	1869,80
591,41	1875,94
591,60	1900,52
591,80	1877,99
591,99	1800,16
592,18	1763,30
592,38	1740,77
592,57	1732,58
592,76	1783,78
592,96	1865,70
593,15	1771,49
593,34	1802,21
593,54	1767,40
593,73	1869,80
593,92	1740,77
594,12	1785,83
594,31	1746,92
594,50	1845,22
594,70	1834,98
594,89	1918,95
595,08	1636,33
595,28	1771,49
595,47	1892,32
595,66	1800,16
595,86	1693,67
596,05	1746,92
596,24	1744,87
596,43	1839,08
596,63	1861,60
596,82	1683,43
597,01	1722,34
597,21	1869,80
597,40	1779,68
597,59	1732,58
597,79	1736,68
597,98	1804,26
598,17	1873,89
598,36	1726,44
598,56	1769,44
598,75	1697,77
598,94	1798,12
599,14	1812,45
599,33	1601,51
599,52	1894,37
599,71	1714,15
599,91	1796,07
600,10	1804,26
600,29	1742,82
600,48	1746,92
600,68	1746,92
600,87	1716,20
601,06	1712,10
601,26	1640,42
601,45	1789,92
601,64	1695,72
601,83	1839,08
602,03	1724,39
602,22	1628,14
602,41	1779,68
602,60	1894,37
602,80	1794,02
602,99	1789,92
603,18	1677,29
603,37	1724,39
603,57	1734,63
603,76	1802,21
603,95	1789,92
604,14	1757,16
604,34	1703,91
604,53	1771,49
604,72	1726,44
604,91	1814,50
605,10	1800,16
605,30	1585,13
605,49	1869,80
605,68	1701,86
605,87	1765,35
606,07	1654,76
606,26	1716,20
606,45	1802,21
606,64	1820,64
606,84	1712,10
607,03	1755,11
607,22	1798,12
607,41	1681,38
607,60	1751,01
607,80	1787,88
607,99	1767,40
608,18	1738,73
608,37	1697,77
608,56	1767,40
608,76	1738,73
608,95	1843,17
609,14	1755,11
609,33	1810,40
609,52	1869,80
609,72	1742,82
609,91	1755,11
610,10	1724,39
610,29	1767,40
610,48	1751,01
610,68	1732,58
610,87	1744,87
611,06	1728,49
611,25	1853,41
611,44	1822,69
611,63	1736,68
611,83	1761,25
612,02	1624,04
612,21	1832,93
612,40	1703,91
612,59	1632,23
612,79	1708,01
612,98	1832,93
613,17	1794,02
613,36	1767,40
613,55	1818,60
613,74	1718,25
613,93	1640,42
614,13	1746,92
614,32	1775,59
614,51	1722,34
614,70	1689,57
614,89	1632,23
615,08	1800,16
615,28	2076,64
615,47	1691,62
615,66	1742,82
615,85	1687,53
616,04	1837,03
616,23	1708,01
616,42	1699,81
616,62	1742,82
616,81	1769,44
617,00	1779,68
617,19	1777,64
617,38	1738,73
617,57	1755,11
617,76	1734,63
617,95	1826,79
618,15	1710,05
618,34	1865,70
618,53	1640,42
618,72	1701,86
618,91	1785,83
619,10	1726,44
619,29	1757,16
619,48	1757,16
619,68	1632,23
619,87	1724,39
620,06	1734,63
620,25	1773,54
620,44	1710,05
620,63	1753,06
620,82	1789,92
621,01	1810,40
621,20	1720,29
621,39	1759,21
621,59	1728,49
621,78	1757,16
621,97	1789,92
622,16	1787,88
622,35	1697,77
622,54	1800,16
622,73	1798,12
622,92	1642,47
623,11	1726,44
623,30	1720,29
623,49	1658,85
623,68	1677,29
623,88	1804,26
624,07	1718,25
624,26	1748,97
624,45	1736,68
624,64	1703,91
624,83	1761,25
625,02	1712,10
625,21	1652,71
625,40	1744,87
625,59	1773,54
625,78	1769,44
625,97	1832,93
626,16	1746,92
626,35	1732,58
626,54	1701,86
626,74	1826,79
626,93	1621,99
627,12	1748,97
627,31	1755,11
627,50	1712,10
627,69	1910,75
627,88	1697,77
628,07	1685,48
628,26	1662,95
628,45	1710,05
628,64	1705,96
628,83	1722,34
629,02	1681,38
629,21	1697,77
629,40	1802,21
629,59	1667,05
629,78	1751,01
629,97	1693,67
630,16	1787,88
630,35	1703,91
630,54	1718,25
630,73	1617,90
630,92	1650,66
631,11	1644,52
631,30	1796,07
631,49	1746,92
631,68	1716,20
631,87	1714,15
632,06	1613,80
632,25	1818,60
632,44	1746,92
632,63	1693,67
632,82	1656,81
633,01	1718,25
633,20	1748,97
633,39	1683,43
633,58	1677,29
633,77	1759,21
633,96	1796,07
634,15	1781,73
634,34	1742,82
634,53	1638,38
634,72	1640,42
634,91	1607,66
635,10	1781,73
635,29	1777,64
635,48	1718,25
635,67	1695,72
635,86	1705,96
636,05	1755,11
636,24	1669,09
636,43	1738,73
636,62	1763,30
636,81	1636,33
637,00	1820,64
637,19	1669,09
637,38	1691,62
637,57	1650,66
637,76	1701,86
637,95	1726,44
638,14	1734,63
638,33	1734,63
638,52	1621,99
638,71	1615,85
638,89	1648,61
639,08	1820,64
639,27	1820,64
639,46	1757,16
639,65	1875,94
639,84	1673,19
640,03	1806,31
640,22	1628,14
640,41	1818,60
640,60	1701,86
640,79	1753,06
640,98	1689,57
641,17	1742,82
641,36	1693,67
641,55	1699,81
641,74	1728,49
641,92	1689,57
642,11	1712,10
642,30	1744,87
642,49	1656,81
642,68	1689,57
642,87	1751,01
643,06	1654,76
643,25	1691,62
643,44	1697,77
643,63	1703,91
643,82	1730,53
644,00	1662,95
644,19	1685,48
644,38	1615,85
644,57	1781,73
644,76	1755,11
644,95	1703,91
645,14	1681,38
645,33	1638,38
645,52	1654,76
645,71	1671,14
645,89	1638,38
646,08	1736,68
646,27	1712,10
646,46	1828,84
646,65	1611,75
646,84	1683,43
647,03	1703,91
647,22	1775,59
647,40	1699,81
647,59	1675,24
647,78	1654,76
647,97	1679,33
648,16	1703,91
648,35	1789,92
648,54	1775,59
648,73	1728,49
648,91	1798,12
649,10	1667,05
649,29	1650,66
649,48	1765,35
649,67	1753,06
649,86	1746,92
650,05	1617,90
650,23	1732,58
650,42	1640,42
650,61	1763,30
650,80	1771,49
650,99	1894,37
651,18	1814,50
651,36	1783,78
651,55	1742,82
651,74	1794,02
651,93	1617,90
652,12	1703,91
652,31	1742,82
652,49	1699,81
652,68	1624,04
652,87	1791,97
653,06	1730,53
653,25	1820,64
653,44	1671,14
653,62	1753,06
653,81	1705,96
654,00	1748,97
654,19	1796,07
654,38	1916,90
654,56	1718,25
654,75	1660,90
654,94	1728,49
655,13	1765,35
655,32	1695,72
655,51	1855,46
655,69	1728,49
655,88	1665,00
656,07	1640,42
656,26	1763,30
656,45	1665,00
656,63	1697,77
656,82	1771,49
657,01	1779,68
657,20	1677,29
657,38	1796,07
657,57	1636,33
657,76	1613,80
657,95	1755,11
658,14	1675,24
658,32	1656,81
658,51	1677,29
658,70	1746,92
658,89	1744,87
659,08	1699,81
659,26	1765,35
659,45	1685,48
659,64	1781,73
659,83	1671,14
660,01	1853,41
660,20	1722,34
660,39	1804,26
660,58	1589,22
660,76	1724,39
660,95	1689,57
661,14	1720,29
661,33	1662,95
661,51	1701,86
661,70	1736,68
661,89	1693,67
662,08	1710,05
662,26	1638,38
662,45	1679,33
662,64	1783,78
662,83	1738,73
663,01	1734,63
663,20	1708,01
663,39	1744,87
663,58	1734,63
663,76	1679,33
663,95	1798,12
664,14	1695,72
664,32	1710,05
664,51	1667,05
664,70	1628,14
664,89	1767,40
665,07	1621,99
665,26	1796,07
665,45	1689,57
665,64	1794,02
665,82	1728,49
666,01	1730,53
666,20	1665,00
666,38	1820,64
666,57	1787,88
666,76	2238,43
666,95	4499,39
667,13	10413,92
667,32	15027,99
667,51	17499,89
667,69	18767,59
667,88	17368,82
668,07	12152,65
668,25	9340,79
668,44	8077,19
668,63	7143,32
668,81	6717,34
669,00	6281,12
669,19	5658,54
669,38	4988,85
669,56	4521,92
669,75	3930,05
669,94	3409,87
670,12	2824,15
670,31	2582,49
670,50	2273,25
670,68	2025,44
670,87	1908,71
671,06	1828,84
671,24	1818,60
671,43	1783,78
671,62	1800,16
671,80	1769,44
671,99	1708,01
672,18	1720,29
672,36	1746,92
672,55	1738,73
672,74	1716,20
672,92	1675,24
673,11	1771,49
673,29	1617,90
673,48	1699,81
673,67	1699,81
673,85	1824,74
674,04	1644,52
674,23	1837,03
674,41	1761,25
674,60	1722,34
674,79	1681,38
674,97	1689,57
675,16	1791,97
675,34	1810,40
675,53	1757,16
675,72	1679,33
675,90	1834,98
676,09	1699,81
676,28	1744,87
676,46	1660,90
676,65	1738,73
676,83	1718,25
677,02	1730,53
677,21	1675,24
677,39	1708,01
677,58	1736,68
677,77	1724,39
677,95	1660,90
678,14	1771,49
678,32	1679,33
678,51	1654,76
678,70	1806,31
678,88	1654,76
679,07	1824,74
679,25	1673,19
679,44	1714,15
679,63	1675,24
679,81	1714,15
680,00	1742,82
680,18	1777,64
680,37	1773,54
680,55	1710,05
680,74	1703,91
680,93	1667,05
681,11	1759,21
681,30	1818,60
681,48	1748,97
681,67	1675,24
681,85	1779,68
682,04	1601,51
682,23	1777,64
682,41	1636,33
682,60	1736,68
682,78	1708,01
682,97	1701,86
683,15	1742,82
683,34	1789,92
683,53	1804,26
683,71	1634,28
683,90	1834,98
684,08	1867,75
684,27	1687,53
684,45	1673,19
684,64	1810,40
684,82	1794,02
685,01	1695,72
685,19	1740,77
685,38	1859,56
685,57	1689,57
685,75	1697,77
685,94	1710,05
686,12	1699,81
686,31	1683,43
686,49	1775,59
686,68	1585,13
686,86	1726,44
687,05	1710,05
687,23	1820,64
687,42	1716,20
687,60	1605,61
687,79	1732,58
687,97	1726,44
688,16	1820,64
688,34	1714,15
688,53	1683,43
688,71	1789,92
688,90	1791,97
689,08	1705,96
689,27	1605,61
689,45	1712,10
689,64	1787,88
689,82	1769,44
690,01	1701,86
690,19	1689,57
690,38	1773,54
690,56	1755,11
690,75	1615,85
690,93	1767,40
691,12	1654,76
691,30	1728,49
691,49	1669,09
691,67	1699,81
691,86	1796,07
692,04	1624,04
692,23	1634,28
692,41	1759,21
692,60	1851,36
692,78	1767,40
692,97	1761,25
693,15	1759,21
693,34	1839,08
693,52	1724,39
693,71	1642,47
693,89	1615,85
694,08	1644,52
694,26	1738,73
694,44	1740,77
694,63	1720,29
694,81	1730,53
695,00	1667,05
695,18	1738,73
695,37	1834,98
695,55	1753,06
695,74	1693,67
695,92	1656,81
696,10	1765,35
696,29	1632,23
696,47	1714,15
696,66	1646,57
696,84	1626,09
697,03	1642,47
697,21	1837,03
697,40	2299,87
697,58	1814,50
697,76	1712,10
697,95	1755,11
698,13	1636,33
698,32	1652,71
698,50	1701,86
698,68	1738,73
698,87	1759,21
699,05	1814,50
699,24	1761,25
699,42	1642,47
699,61	1718,25
699,79	1679,33
699,97	1673,19
700,16	1578,98
700,34	1640,42
700,53	1703,91
700,71	1710,05
700,89	1763,30
701,08	1730,53
701,26	1685,48
701,45	2111,46
701,63	1673,19
701,81	1669,09
702,00	1638,38
702,18	1755,11
702,37	1652,71
702,55	1736,68
702,73	1781,73
702,92	1626,09
703,10	1765,35
703,28	1800,16
703,47	1642,47
703,65	1812,45
703,84	1738,73
704,02	1710,05
704,20	1855,46
704,39	1630,18
704,57	1701,86
704,75	1779,68
704,94	1791,97
705,12	1697,77
705,30	1787,88
705,49	2256,86
705,67	4462,52
705,86	9412,46
706,04	12486,47
706,22	14313,25
706,41	15177,50
706,59	13481,78
706,77	9398,13
706,96	7339,92
707,14	6463,39
707,32	5916,58
707,51	5466,03
707,69	4857,78
707,87	4155,33
708,06	3538,89
708,24	2908,12
708,42	2473,95
708,61	2273,25
708,79	1832,93
708,97	1839,08
709,16	1847,27
709,34	1777,64
709,52	1683,43
709,71	1720,29
709,89	1691,62
710,07	1632,23
710,26	1691,62
710,44	1708,01
710,62	1830,88
710,80	1718,25
710,99	1769,44
711,17	1755,11
711,35	1679,33
711,54	1714,15
711,72	1800,16
711,90	1759,21
712,09	1771,49
712,27	1640,42
712,45	1740,77
712,63	1607,66
712,82	1783,78
713,00	1689,57
713,18	1650,66
713,37	1740,77
713,55	1761,25
713,73	1787,88
713,91	1693,67
714,10	1691,62
714,28	1658,85
714,46	1728,49
714,65	1683,43
714,83	1789,92
715,01	1736,68
715,19	1726,44
715,38	1662,95
715,56	1691,62
715,74	1667,05
715,92	1630,18
716,11	1818,60
716,29	1601,51
716,47	1632,23
716,65	1699,81
716,84	1691,62
717,02	1740,77
717,20	1574,89
717,38	1687,53
717,57	1734,63
717,75	1695,72
717,93	1703,91
718,11	1763,30
718,30	1640,42
718,48	1726,44
718,66	1757,16
718,84	1787,88
719,03	1665,00
719,21	1583,08
719,39	1785,83
719,57	1689,57
719,75	1789,92
719,94	1662,95
720,12	1683,43
720,30	1667,05
720,48	1781,73
720,67	1667,05
720,85	1619,94
721,03	1673,19
721,21	1636,33
721,39	1775,59
721,58	1701,86
721,76	1658,85
721,94	1714,15
722,12	1718,25
722,30	1796,07
722,49	1646,57
722,67	1662,95
722,85	1728,49
723,03	1671,14
723,21	1687,53
723,40	1712,10
723,58	1693,67
723,76	1708,01
723,94	1798,12
724,12	1648,61
724,30	1693,67
724,49	1789,92
724,67	1697,77
724,85	1730,53
725,03	1630,18
725,21	1742,82
725,40	1804,26
725,58	1595,37
725,76	1771,49
725,94	1675,24
726,12	1665,00
726,30	1720,29
726,49	1718,25
726,67	1658,85
726,85	1730,53
727,03	1751,01
727,21	2174,94
727,39	2908,12
727,57	3827,65
727,76	4235,20
727,94	4360,13
728,12	4284,35
728,30	3610,57
728,48	2949,08
728,66	2729,94
728,84	2615,26
729,03	2289,63
729,21	2156,51
729,39	2052,06
729,57	1763,30
729,75	1834,98
729,93	1757,16
730,11	1763,30
730,30	1673,19
730,48	1742,82
730,66	1800,16
730,84	1841,12
731,02	1677,29
731,20	1691,62
731,38	1751,01
731,56	1740,77
731,74	1683,43
731,93	1771,49
732,11	1718,25
732,29	1746,92
732,47	1681,38
732,65	1705,96
732,83	1751,01
733,01	1761,25
733,19	1658,85
733,37	1734,63
733,56	1751,01
733,74	1779,68
733,92	1800,16
734,10	1695,72
734,28	1806,31
734,46	1617,90
734,64	1744,87
734,82	1765,35
735,00	1671,14
735,18	1718,25
735,36	1613,80
735,54	1718,25
735,73	1761,25
735,91	1718,25
736,09	1814,50
736,27	1685,48
736,45	1703,91
736,63	1669,09
736,81	1720,29
736,99	1644,52
737,17	1755,11
737,35	1695,72
737,53	1751,01
737,71	1634,28
737,89	1726,44
738,07	1691,62
738,25	1656,81
738,43	1714,15
738,61	1650,66
738,80	1630,18
738,98	1642,47
739,16	1685,48
739,34	1660,90
739,52	1779,68
739,70	1673,19
739,88	1781,73
740,06	1824,74
740,24	1640,42
740,42	1767,40
740,60	1597,42
740,78	1634,28
740,96	1554,41
741,14	1662,95
741,32	1695,72
741,50	1652,71
741,68	1847,27
741,86	1843,17
742,04	1748,97
742,22	1669,09
742,40	1691,62
742,58	1654,76
742,76	1677,29
742,94	1730,53
743,12	1544,17
743,30	1738,73
743,48	1710,05
743,66	1642,47
743,84	1789,92
744,02	1687,53
744,20	1691,62
744,38	1644,52
744,56	1601,51
744,74	1843,17
744,92	1785,83
745,10	1841,12
745,28	1759,21
745,46	1853,41
745,64	1632,23
745,82	1755,11
746,00	1724,39
746,18	1742,82
746,36	1705,96
746,54	1722,34
746,72	1796,07
746,90	1656,81
747,08	1839,08
747,26	1658,85
747,44	1732,58
747,62	1767,40
747,80	1716,20
747,98	1667,05
748,15	1714,15
748,33	1757,16
748,51	1697,77
748,69	1732,58
748,87	1644,52
749,05	1687,53
749,23	1718,25
749,41	1689,57
749,59	1753,06
749,77	1767,40
749,95	1648,61
750,13	1705,96
750,31	1740,77
750,49	1734,63
750,67	1800,16
750,85	1808,36
751,03	1722,34
751,20	1738,73
751,38	1751,01
751,56	1685,48
751,74	1699,81
751,92	1708,01
752,10	1652,71
752,28	1785,83
752,46	1679,33
752,64	1695,72
752,82	1763,30
753,00	1726,44
753,18	1726,44
753,35	1630,18
753,53	1687,53
753,71	1603,56
753,89	1824,74
754,07	1673,19
754,25	1796,07
754,43	1693,67
754,61	1662,95
754,79	1693,67
754,97	1667,05
755,14	1701,86
755,32	1671,14
755,50	1746,92
755,68	1679,33
755,86	1701,86
756,04	1728,49
756,22	1656,81
756,40	1783,78
756,57	1820,64
756,75	1652,71
756,93	1787,88
757,11	1728,49
757,29	1642,47
757,47	1642,47
757,65	1591,27
757,82	1685,48
758,00	1648,61
758,18	1648,61
758,36	1677,29
758,54	1863,65
758,72	1624,04
758,90	1714,15
759,07	1794,02
759,25	1701,86
759,43	1757,16
759,61	1576,94
759,79	2133,98
759,97	1744,87
760,15	1699,81
760,32	1736,68
760,50	1757,16
760,68	1832,93
760,86	1632,23
761,04	1759,21
761,22	1732,58
761,39	1689,57
761,57	1701,86
761,75	1724,39
761,93	1734,63
762,11	1662,95
762,28	1667,05
762,46	1585,13
762,64	1783,78
762,82	1646,57
763,00	1697,77
763,18	1689,57
763,35	1585,13
763,53	1742,82
763,71	1724,39
763,89	1730,53
764,07	1751,01
764,24	1636,33
764,42	1744,87
764,60	1710,05
764,78	1746,92
764,96	1689,57
765,13	1724,39
765,31	1730,53
765,49	1738,73
765,67	1599,46
765,84	1689,57
766,02	1646,57
766,20	1597,42
766,38	1753,06
766,56	1673,19
766,73	1812,45
766,91	1763,30
767,09	1693,67
767,27	1697,77
767,44	1656,81
767,62	1617,90
767,80	1755,11
767,98	1728,49
768,15	1675,24
768,33	1771,49
768,51	1812,45
768,69	1689,57
768,87	1705,96
769,04	1710,05
769,22	1834,98
769,40	1816,55
769,58	1849,32
769,75	1789,92
769,93	1718,25
770,11	1759,21
770,28	1638,38
770,46	1726,44
770,64	1718,25
770,82	1660,90
770,99	1648,61
771,17	1808,36
771,35	1683,43
771,53	1648,61
771,70	1628,14
771,88	1665,00
772,06	1630,18
772,23	1738,73
772,41	1699,81
772,59	1673,19
772,77	1642,47
772,94	1654,76
773,12	1751,01
773,30	1679,33
773,47	1656,81
773,65	1636,33
773,83	1759,21
774,01	1638,38
774,18	1642,47
774,36	1689,57
774,54	1624,04
774,71	1687,53
774,89	1597,42
775,07	1691,62
775,24	1587,18
775,42	1673,19
775,60	1857,51
775,78	1681,38
775,95	1605,61
776,13	1601,51
776,31	1587,18
776,48	1687,53
776,66	1734,63
776,84	1728,49
777,01	1679,33
777,19	1746,92
777,37	1615,85
777,54	1703,91
777,72	1806,31
777,90	1718,25
778,07	1650,66
778,25	1873,89
778,43	1761,25
778,60	1689,57
778,78	1755,11
778,96	1761,25
779,13	1603,56
779,31	1796,07
779,49	1626,09
779,66	1685,48
779,84	1681,38
780,01	1673,19
780,19	1642,47
780,37	1787,88
780,54	1708,01
780,72	1681,38
780,90	1695,72
781,07	1728,49
781,25	1693,67
781,43	1744,87
781,60	1689,57
781,78	1826,79
781,95	1710,05
782,13	1689,57
782,31	1695,72
782,48	1687,53
782,66	1687,53
782,83	1800,16
783,01	1736,68
783,19	1669,09
783,36	1660,90
783,54	1671,14
783,72	1751,01
783,89	1691,62
784,07	1742,82
784,24	1705,96
784,42	1665,00
784,60	1802,21
784,77	1791,97
784,95	1517,54
785,12	1658,85
785,30	1730,53
785,47	1693,67
785,65	1652,71
785,83	1710,05
786,00	1675,24
786,18	1642,47
786,35	1634,28
786,53	1624,04
786,71	1685,48
786,88	1781,73
787,06	1751,01
787,23	1705,96
787,41	1587,18
787,58	1628,14
787,76	1683,43
787,94	1757,16
788,11	1761,25
788,29	1585,13
788,46	1689,57
788,64	1634,28
788,81	1695,72
788,99	1626,09
789,16	1675,24
789,34	1642,47
789,52	1740,77
789,69	1759,21
789,87	1560,55
790,04	1712,10
790,22	1689,57
790,39	1830,88
790,57	1656,81
790,74	1652,71
790,92	1775,59
791,09	1617,90
791,27	1779,68
791,44	1804,26
791,62	1703,91
791,79	1685,48
791,97	1677,29
792,15	1908,71
792,32	1738,73
792,50	1705,96
792,67	1814,50
792,85	1783,78
793,02	1714,15
793,20	1642,47
793,37	1667,05
793,55	1710,05
793,72	1673,19
793,90	1751,01
794,07	1642,47
794,25	1642,47
794,42	1718,25
794,60	1677,29
794,77	1773,54
794,95	1779,68
795,12	1710,05
795,30	1685,48
795,47	1650,66
795,65	1888,23
795,82	1656,81
796,00	1630,18
796,17	1736,68
796,34	1638,38
796,52	1734,63
796,69	1783,78
796,87	1677,29
797,04	1785,83
797,22	1730,53
797,39	1712,10
797,57	1781,73
797,74	1705,96
797,92	1718,25
798,09	1693,67
798,27	1718,25
798,44	1656,81
798,62	1730,53
798,79	1691,62
798,96	1744,87
799,14	1710,05
799,31	1828,84
799,49	1755,11
799,66	1656,81
799,84	1701,86
800,01	1665,00
800,19	1718,25
800,36	1636,33
800,53	1812,45
800,71	1718,25
800,88	1800,16
801,06	1654,76
801,23	1656,81
801,41	1673,19
801,58	1687,53
801,75	1701,86
801,93	1685,48
802,10	1730,53
802,28	1734,63
802,45	1648,61
802,63	1744,87
802,80	1822,69
802,97	1705,96
803,15	1617,90
803,32	1724,39
803,50	1640,42
803,67	1669,09
803,84	1650,66
804,02	1677,29
804,19	1656,81
804,37	1640,42
804,54	1650,66
804,71	1665,00
804,89	1697,77
805,06	1636,33
805,24	1695,72
805,41	1607,66
805,58	1656,81
805,76	1804,26
805,93	1695,72
806,10	1734,63
806,28	1699,81
806,45	1671,14
806,63	1705,96
806,80	1732,58
806,97	1712,10
807,15	1753,06
807,32	1689,57
807,49	1705,96
807,67	1683,43
807,84	1638,38
808,01	1615,85
808,19	1810,40
808,36	1851,36
808,54	1611,75
808,71	1697,77
808,88	1757,16
809,06	1691,62
809,23	1830,88
809,40	1652,71
809,58	1765,35
809,75	1730,53
809,92	1632,23
810,10	1775,59
810,27	1746,92
810,44	1728,49
810,62	1763,30
810,79	1736,68
810,96	1632,23
811,14	1617,90
811,31	1757,16
811,48	1683,43
811,66	1699,81
811,83	1798,12
812,00	1757,16
812,18	1697,77
812,35	1863,65
812,52	1636,33
812,69	1640,42
812,87	1691,62
813,04	1644,52
813,21	1730,53
813,39	1708,01
813,56	1626,09
813,73	1779,68
813,91	1585,13
814,08	1746,92
814,25	1652,71
814,42	1611,75
814,60	1722,34
814,77	1744,87
814,94	1648,61
815,12	1724,39
815,29	1824,74
815,46	1718,25
815,63	1675,24
815,81	1687,53
815,98	1677,29
816,15	1691,62
816,33	1736,68
816,50	1699,81
816,67	1658,85
816,84	1648,61
817,02	1673,19
817,19	1656,81
817,36	1712,10
817,53	1705,96
817,71	1617,90
817,88	1769,44
818,05	1673,19
818,22	1591,27
818,40	1828,84
818,57	1677,29
818,74	1708,01
818,91	1695,72
819,09	1765,35
819,26	1728,49
819,43	1624,04
819,60	1615,85
819,78	1814,50
819,95	1796,07
820,12	1685,48
820,29	1701,86
820,47	1789,92
820,64	1650,66
820,81	1718,25
820,98	1710,05
821,15	1671,14
821,33	1730,53
821,50	1644,52
821,67	1712,10
821,84	1691,62
822,02	1705,96
822,19	1705,96
822,36	1710,05
822,53	1667,05
822,70	1681,38
822,88	1705,96
823,05	1757,16
823,22	1689,57
823,39	1714,15
823,56	1691,62
823,74	1800,16
823,91	1644,52
824,08	1634,28
824,25	1654,76
824,42	1865,70
824,60	1630,18
824,77	1712,10
824,94	1652,71
825,11	1730,53
825,28	1730,53
825,45	1759,21
825,63	1660,90
825,80	1722,34
825,97	1644,52
826,14	1650,66
826,31	1621,99
826,48	1716,20
826,66	1624,04
826,83	1673,19
827,00	1673,19
827,17	1640,42
827,34	1691,62
827,51	1581,03
827,69	1648,61
827,86	1593,32
828,03	1712,10
828,20	1703,91
828,37	1675,24
828,54	1736,68
828,71	1730,53
828,89	1824,74
829,06	1683,43
829,23	1734,63
829,40	1738,73
829,57	1675,24
829,74	1718,25
829,91	1628,14
830,09	1687,53
830,26	1691,62
830,43	1781,73
830,60	1718,25
830,77	1751,01
830,94	1759,21
831,11	1845,22
831,28	1701,86
831,46	1693,67
831,63	1599,46
831,80	1791,97
831,97	1695,72
832,14	1689,57
832,31	1746,92
832,48	1738,73
832,65	1806,31
832,82	1724,39
832,99	1763,30
833,17	1685,48
833,34	1771,49
833,51	1726,44
833,68	1601,51
833,85	1796,07
834,02	1714,15
834,19	1660,90
834,36	1689,57
834,53	1712,10
834,70	1722,34
834,87	1742,82
835,04	1708,01
835,22	1644,52
835,39	1734,63
835,56	1599,46
835,73	1722,34
835,90	1783,78
836,07	1673,19
836,24	1771,49
836,41	1654,76
836,58	1681,38
836,75	1685,48
836,92	1775,59
837,09	1708,01
837,26	1691,62
837,43	1689,57
837,60	1708,01
837,77	1681,38
837,94	1761,25
838,12	1802,21
838,29	1775,59
838,46	1554,41
838,63	1630,18
838,80	1753,06
838,97	1771,49
839,14	1697,77
839,31	1708,01
839,48	1720,29
839,65	1671,14
839,82	1757,16
839,99	1710,05
840,16	1689,57
840,33	1742,82
840,50	1624,04
840,67	1705,96
840,84	1636,33
841,01	1712,10
841,18	1636,33
841,35	1744,87
841,52	1738,73
841,69	1822,69
841,86	1667,05
842,03	1716,20
842,20	1712,10
842,37	1662,95
842,54	1751,01
842,71	1726,44
842,88	1599,46
843,05	1701,86
843,22	1724,39
843,39	1771,49
843,56	1693,67
843,73	1724,39
843,90	1687,53
844,07	1703,91
844,24	1783,78
844,41	1724,39
844,58	1728,49
844,75	1759,21
844,92	1695,72
845,09	1683,43
845,26	1619,94
845,43	1761,25
845,60	1685,48
845,77	1689,57
845,94	1632,23
846,10	1757,16
846,27	1689,57
846,44	1669,09
846,61	1679,33
846,78	1738,73
846,95	1708,01
847,12	1626,09
847,29	1699,81
847,46	1746,92
847,63	1765,35
847,80	1701,86
847,97	1734,63
848,14	1763,30
848,31	1753,06
848,48	1695,72
848,65	1705,96
848,82	1603,56
848,98	1767,40
849,15	1802,21
849,32	1820,64
849,49	1740,77
849,66	1746,92
849,83	1693,67
850,00	1576,94
850,17	1822,69
850,34	1679,33
850,51	1667,05
850,68	1669,09
850,85	1746,92
851,01	1734,63
851,18	1685,48
851,35	1654,76
851,52	1740,77
851,69	1767,40
851,86	1619,94
852,03	1640,42
852,20	1722,34
852,37	1779,68
852,53	1599,46
852,70	1732,58
852,87	1671,14
853,04	1746,92
853,21	1718,25
853,38	1834,98
853,55	1814,50
853,72	1732,58
853,89	1759,21
854,05	1607,66
854,22	1675,24
854,39	1732,58
854,56	1755,11
854,73	1785,83
854,90	1665,00
855,07	1685,48
855,23	1669,09
855,40	1738,73
855,57	1804,26
855,74	1578,98
855,91	1869,80
856,08	1650,66
856,25	1673,19
856,41	1675,24
856,58	1636,33
856,75	1734,63
856,92	1656,81
857,09	1708,01
857,26	1642,47
857,42	1630,18
857,59	1753,06
857,76	1732,58
857,93	1757,16
858,10	1665,00
858,27	1689,57
858,43	1671,14
858,60	1734,63
858,77	1578,98
858,94	1660,90
859,11	1748,97
859,27	1619,94
859,44	1658,85
859,61	1763,30
859,78	1738,73
859,95	1611,75
860,12	1775,59
860,28	1726,44
860,45	1759,21
860,62	1658,85
860,79	1734,63
860,95	1658,85
861,12	1615,85
861,29	1617,90
861,46	1642,47
861,63	1744,87
861,79	1667,05
861,96	1628,14
862,13	1679,33
862,30	1794,02
862,47	1667,05
862,63	1634,28
862,80	1781,73
862,97	1765,35
863,14	1599,46
863,30	1759,21
863,47	1667,05
863,64	1798,12
863,81	1730,53
863,97	1662,95
864,14	1724,39
864,31	1779,68
864,48	1736,68
864,65	1669,09
864,81	1722,34
864,98	1734,63
865,15	1751,01
865,32	1708,01
865,48	1742,82
865,65	1755,11
865,82	1716,20
865,98	1734,63
866,15	1740,77
866,32	1673,19
866,49	1662,95
866,65	1759,21
866,82	1652,71
866,99	1673,19
867,16	1730,53
867,32	1660,90
867,49	1742,82
867,66	1671,14
867,83	1658,85
867,99	1730,53
868,16	1695,72
868,33	1742,82
868,49	1744,87
868,66	1718,25
868,83	1773,54
868,99	1687,53
869,16	1587,18
869,33	1779,68
869,50	1804,26
869,66	1748,97
869,83	1716,20
870,00	1677,29
870,16	1708,01
870,33	1697,77
870,50	1832,93
870,66	1714,15
870,83	1865,70
871,00	1726,44
871,17	1814,50
871,33	1753,06
871,50	1689,57
871,67	1742,82
871,83	1578,98
872,00	1746,92
872,17	1669,09
872,33	1798,12
872,50	1681,38
872,67	1617,90
872,83	1632,23
873,00	1769,44
873,17	1734,63
873,33	1742,82
873,50	1730,53
873,67	1615,85
873,83	1679,33
874,00	1673,19
874,16	1732,58
874,33	1714,15
874,50	1619,94
874,66	1740,77
874,83	1716,20
875,00	1796,07
875,16	1808,36
875,33	1691,62
875,50	1638,38
875,66	1656,81
875,83	1757,16
875,99	1734,63
876,16	1742,82
876,33	1601,51
876,49	1712,10
876,66	1736,68
876,83	1742,82
876,99	1599,46
877,16	1759,21
877,32	1722,34
877,49	1667,05
877,66	1646,57
877,82	1714,15
877,99	1689,57
878,15	1777,64
878,32	1724,39
878,49	1742,82
878,65	1630,18
878,82	1794,02
878,98	1652,71
879,15	1699,81
879,32	1751,01
879,48	1640,42
879,65	1671,14
879,81	1693,67
879,98	1726,44
880,15	1705,96
880,31	1734,63
880,48	1644,52
880,64	1742,82
880,81	1775,59
880,97	1767,40
881,14	1722,34
881,31	1712,10
881,47	1812,45
881,64	1695,72
881,80	1677,29
881,97	1695,72
882,13	1744,87
882,30	1595,37
882,47	1712,10
882,63	1624,04
882,80	1697,77
882,96	1658,85
883,13	1732,58
883,29	1726,44
883,46	1667,05
883,62	1886,18
883,79	1763,30
883,95	1761,25
884,12	1662,95
884,29	1652,71
884,45	1654,76
884,62	1728,49
884,78	1677,29
884,95	1794,02
885,11	1638,38
885,28	1742,82
885,44	1714,15
885,61	1701,86
885,77	1705,96
885,94	1728,49
886,10	1689,57
886,27	1710,05
886,43	1785,83
886,60	1837,03
886,76	1697,77
886,93	1658,85
887,09	1722,34
887,26	1615,85
887,42	1703,91
887,59	1736,68
887,75	1789,92
887,92	1667,05
888,08	1757,16
888,25	1800,16
888,41	1789,92
888,58	1742,82
888,74	1687,53
888,91	1650,66
>>>>>End Processed Spectral Data<<<<<
