SpectraSuite Data File
++++++++++++++++++++++++++++++++++++
Date: Mon Jun 06 14:50:37 CEST 2016
User: root
Dark Spectrum Present: No
Reference Spectrum Present: No
Number of Sampled Component Spectra: 1
Spectrometers: USB4C02835
Integration Time (usec): 100000 (USB4C02835)
Spectra Averaged: 1 (USB4C02835)
Boxcar Smoothing: 0 (USB4C02835)
Correct for Electrical Dark: No (USB4C02835)
Strobe/Lamp Enabled: No (USB4C02835)
Correct for Detector Non-linearity: No (USB4C02835)
Correct for Stray Light: No (USB4C02835)
Number of Pixels in Processed Spectrum: 3648
>>>>>Begin Processed Spectral Data<<<<<
177,47	1427,43
177,69	1427,43
177,91	1427,43
178,13	1503,21
178,36	1497,07
178,58	1644,52
178,80	1710,05
179,02	1619,94
179,24	1511,40
179,46	1671,14
179,68	1728,49
179,90	1705,96
180,13	1742,82
180,35	1638,38
180,57	1722,34
180,79	1734,63
181,01	1628,14
181,23	1767,40
181,45	1783,78
181,67	1751,01
181,90	1734,63
182,12	1667,05
182,34	1679,33
182,56	1734,63
182,78	1683,43
183,00	1699,81
183,22	1640,42
183,44	1576,94
183,66	1894,37
183,89	1832,93
184,11	1640,42
184,33	1697,77
184,55	1689,57
184,77	1712,10
184,99	1751,01
185,21	1607,66
185,43	1839,08
185,65	1638,38
185,87	1685,48
186,10	1759,21
186,32	1959,91
186,54	1691,62
186,76	1753,06
186,98	1712,10
187,20	1646,57
187,42	1705,96
187,64	1687,53
187,86	1708,01
188,08	1703,91
188,30	1667,05
188,52	1699,81
188,75	1730,53
188,97	1828,84
189,19	1697,77
189,41	1609,70
189,63	1695,72
189,85	1730,53
190,07	1683,43
190,29	1599,46
190,51	1775,59
190,73	1638,38
190,95	1787,88
191,17	1765,35
191,39	1628,14
191,61	1675,24
191,84	1646,57
192,06	1791,97
192,28	1558,50
192,50	1871,84
192,72	1587,18
192,94	1669,09
193,16	1755,11
193,38	1746,92
193,60	1685,48
193,82	1626,09
194,04	1722,34
194,26	1763,30
194,48	1701,86
194,70	1615,85
194,92	1722,34
195,14	1744,87
195,36	1691,62
195,58	1757,16
195,80	1699,81
196,02	1734,63
196,24	1632,23
196,46	1808,36
196,69	1646,57
196,91	1824,74
197,13	1660,90
197,35	1714,15
197,57	1839,08
197,79	1691,62
198,01	1697,77
198,23	1781,73
198,45	1697,77
198,67	1605,61
198,89	1677,29
199,11	1693,67
199,33	1675,24
199,55	1615,85
199,77	1650,66
199,99	1738,73
200,21	1662,95
200,43	1718,25
200,65	1597,42
200,87	1560,55
201,09	1714,15
201,31	1703,91
201,53	1810,40
201,75	1804,26
201,97	1714,15
202,19	1669,09
202,41	1726,44
202,63	1814,50
202,85	1685,48
203,07	1728,49
203,29	1644,52
203,51	1624,04
203,73	1630,18
203,95	1857,51
204,17	1720,29
204,39	1751,01
204,61	1665,00
204,83	1654,76
205,05	1718,25
205,27	1814,50
205,49	1783,78
205,71	1665,00
205,93	1597,42
206,15	1667,05
206,37	1734,63
206,59	1648,61
206,81	1576,94
207,03	1644,52
207,25	1693,67
207,47	1779,68
207,69	1712,10
207,91	1751,01
208,13	1736,68
208,34	1687,53
208,56	1564,65
208,78	1791,97
209,00	1679,33
209,22	1662,95
209,44	1677,29
209,66	1677,29
209,88	1759,21
210,10	1732,58
210,32	1669,09
210,54	1769,44
210,76	1781,73
210,98	1718,25
211,20	1679,33
211,42	1681,38
211,64	1697,77
211,86	1693,67
212,08	1736,68
212,30	1718,25
212,52	1677,29
212,74	1718,25
212,96	1755,11
213,17	1714,15
213,39	1740,77
213,61	1767,40
213,83	1693,67
214,05	1638,38
214,27	1681,38
214,49	1597,42
214,71	1679,33
214,93	1763,30
215,15	1726,44
215,37	1783,78
215,59	1652,71
215,81	1730,53
216,03	1779,68
216,24	1691,62
216,46	1761,25
216,68	1755,11
216,90	1761,25
217,12	1728,49
217,34	1726,44
217,56	1675,24
217,78	1757,16
218,00	1693,67
218,22	1722,34
218,44	1658,85
218,66	1673,19
218,87	1929,19
219,09	1689,57
219,31	1701,86
219,53	1744,87
219,75	1697,77
219,97	1683,43
220,19	1804,26
220,41	1720,29
220,63	1761,25
220,85	1677,29
221,06	1693,67
221,28	1814,50
221,50	1746,92
221,72	1732,58
221,94	1689,57
222,16	1683,43
222,38	1726,44
222,60	1718,25
222,82	1677,29
223,03	1691,62
223,25	1669,09
223,47	1738,73
223,69	1820,64
223,91	1753,06
224,13	1708,01
224,35	1701,86
224,57	1753,06
224,78	1746,92
225,00	1630,18
225,22	1681,38
225,44	1722,34
225,66	1724,39
225,88	1607,66
226,10	1789,92
226,32	1691,62
226,53	1732,58
226,75	1742,82
226,97	1697,77
227,19	1683,43
227,41	1705,96
227,63	1660,90
227,85	1656,81
228,06	1787,88
228,28	1728,49
228,50	1744,87
228,72	1667,05
228,94	1683,43
229,16	1581,03
229,37	1619,94
229,59	1636,33
229,81	1763,30
230,03	1634,28
230,25	1630,18
230,47	1619,94
230,69	1662,95
230,90	1744,87
231,12	1662,95
231,34	1765,35
231,56	1789,92
231,78	1587,18
232,00	1691,62
232,21	1757,16
232,43	1681,38
232,65	1581,03
232,87	1652,71
233,09	1632,23
233,30	1654,76
233,52	1781,73
233,74	1775,59
233,96	1564,65
234,18	1716,20
234,40	1615,85
234,61	1841,12
234,83	1660,90
235,05	1714,15
235,27	1765,35
235,49	1755,11
235,70	1761,25
235,92	1808,36
236,14	1759,21
236,36	1851,36
236,58	1640,42
236,79	1761,25
237,01	1619,94
237,23	1681,38
237,45	1837,03
237,67	1640,42
237,88	1746,92
238,10	1740,77
238,32	1691,62
238,54	1669,09
238,76	1673,19
238,97	1691,62
239,19	1607,66
239,41	1771,49
239,63	1718,25
239,85	1648,61
240,06	1720,29
240,28	1601,51
240,50	1714,15
240,72	1658,85
240,93	1724,39
241,15	1710,05
241,37	1742,82
241,59	1718,25
241,81	1673,19
242,02	1671,14
242,24	1705,96
242,46	1722,34
242,68	1648,61
242,89	1746,92
243,11	1759,21
243,33	1705,96
243,55	1660,90
243,76	1720,29
243,98	1705,96
244,20	1697,77
244,42	1734,63
244,64	1751,01
244,85	1667,05
245,07	1597,42
245,29	1806,31
245,51	1697,77
245,72	1740,77
245,94	1802,21
246,16	1691,62
246,38	1775,59
246,59	1628,14
246,81	1681,38
247,03	1642,47
247,24	1556,46
247,46	1648,61
247,68	1699,81
247,90	1699,81
248,11	1646,57
248,33	1716,20
248,55	1716,20
248,77	1658,85
248,98	1679,33
249,20	1730,53
249,42	1722,34
249,64	1708,01
249,85	1748,97
250,07	1708,01
250,29	1701,86
250,50	1722,34
250,72	1599,46
250,94	1665,00
251,16	1820,64
251,37	1781,73
251,59	1732,58
251,81	1660,90
252,02	1718,25
252,24	1611,75
252,46	1806,31
252,68	1699,81
252,89	1665,00
253,11	1642,47
253,33	1832,93
253,54	1802,21
253,76	1624,04
253,98	1597,42
254,20	1605,61
254,41	1701,86
254,63	1658,85
254,85	1597,42
255,06	1634,28
255,28	1714,15
255,50	1669,09
255,71	1679,33
255,93	1650,66
256,15	1695,72
256,36	1576,94
256,58	1705,96
256,80	1791,97
257,02	1714,15
257,23	1681,38
257,45	1693,67
257,67	1781,73
257,88	1673,19
258,10	1765,35
258,32	1695,72
258,53	1691,62
258,75	1785,83
258,97	1611,75
259,18	1767,40
259,40	1648,61
259,62	1767,40
259,83	1789,92
260,05	1738,73
260,27	1945,57
260,48	1816,55
260,70	1675,24
260,92	1726,44
261,13	1640,42
261,35	1669,09
261,57	1757,16
261,78	1654,76
262,00	1714,15
262,22	1751,01
262,43	1701,86
262,65	1683,43
262,86	1740,77
263,08	1787,88
263,30	1755,11
263,51	1654,76
263,73	1689,57
263,95	1701,86
264,16	1695,72
264,38	1714,15
264,60	1779,68
264,81	1697,77
265,03	1757,16
265,25	1779,68
265,46	1677,29
265,68	1781,73
265,89	1671,14
266,11	1574,89
266,33	1796,07
266,54	1777,64
266,76	1751,01
266,98	1683,43
267,19	1751,01
267,41	1789,92
267,62	1640,42
267,84	1632,23
268,06	1802,21
268,27	1669,09
268,49	1753,06
268,70	1732,58
268,92	1714,15
269,14	1619,94
269,35	1632,23
269,57	1681,38
269,79	1761,25
270,00	1642,47
270,22	1783,78
270,43	1662,95
270,65	1634,28
270,87	1703,91
271,08	1779,68
271,30	1746,92
271,51	1718,25
271,73	1738,73
271,95	1773,54
272,16	1714,15
272,38	1765,35
272,59	1716,20
272,81	1759,21
273,02	1716,20
273,24	1761,25
273,46	1789,92
273,67	1665,00
273,89	1628,14
274,10	1638,38
274,32	1787,88
274,54	1802,21
274,75	1720,29
274,97	1673,19
275,18	1818,60
275,40	1689,57
275,61	1658,85
275,83	1673,19
276,05	1593,32
276,26	1748,97
276,48	1652,71
276,69	1755,11
276,91	1689,57
277,12	1732,58
277,34	1757,16
277,55	1746,92
277,77	1734,63
277,99	1607,66
278,20	1703,91
278,42	1685,48
278,63	1665,00
278,85	1652,71
279,06	1634,28
279,28	1783,78
279,49	1746,92
279,71	1708,01
279,93	1746,92
280,14	1667,05
280,36	1665,00
280,57	1753,06
280,79	1759,21
281,00	1585,13
281,22	1665,00
281,43	1710,05
281,65	1576,94
281,86	1660,90
282,08	1748,97
282,29	1796,07
282,51	1648,61
282,73	1630,18
282,94	1632,23
283,16	1834,98
283,37	1828,84
283,59	1761,25
283,80	1765,35
284,02	1667,05
284,23	1687,53
284,45	1683,43
284,66	1689,57
284,88	1615,85
285,09	1656,81
285,31	1736,68
285,52	1697,77
285,74	1662,95
285,95	1785,83
286,17	1726,44
286,38	1710,05
286,60	1617,90
286,81	1648,61
287,03	1744,87
287,24	1685,48
287,46	1710,05
287,67	1738,73
287,89	1791,97
288,10	1669,09
288,32	1765,35
288,53	1796,07
288,75	1794,02
288,96	1763,30
289,18	1708,01
289,39	1693,67
289,61	1779,68
289,82	1834,98
290,04	1789,92
290,25	1697,77
290,47	1683,43
290,68	1771,49
290,90	1732,58
291,11	1617,90
291,33	1736,68
291,54	1626,09
291,76	1695,72
291,97	1687,53
292,18	1681,38
292,40	1650,66
292,61	1611,75
292,83	1865,70
293,04	1751,01
293,26	1740,77
293,47	1689,57
293,69	1640,42
293,90	1656,81
294,12	1732,58
294,33	1708,01
294,55	1656,81
294,76	1705,96
294,97	1742,82
295,19	1851,36
295,40	1650,66
295,62	1769,44
295,83	1712,10
296,05	1728,49
296,26	1699,81
296,48	1685,48
296,69	1695,72
296,90	1730,53
297,12	1691,62
297,33	1744,87
297,55	1691,62
297,76	1720,29
297,98	1796,07
298,19	1626,09
298,41	1669,09
298,62	1660,90
298,83	1742,82
299,05	1701,86
299,26	1654,76
299,48	1583,08
299,69	1689,57
299,90	1675,24
300,12	1726,44
300,33	1712,10
300,55	1708,01
300,76	1708,01
300,98	1671,14
301,19	1789,92
301,40	1714,15
301,62	1673,19
301,83	1722,34
302,05	1810,40
302,26	1626,09
302,47	1767,40
302,69	1705,96
302,90	1689,57
303,12	1605,61
303,33	1650,66
303,54	1740,77
303,76	1621,99
303,97	1740,77
304,19	1789,92
304,40	1644,52
304,61	1738,73
304,83	1746,92
305,04	1740,77
305,26	1804,26
305,47	1683,43
305,68	1759,21
305,90	1677,29
306,11	1757,16
306,33	1658,85
306,54	1740,77
306,75	1656,81
306,97	1656,81
307,18	1624,04
307,39	1656,81
307,61	1759,21
307,82	1787,88
308,04	1708,01
308,25	1662,95
308,46	1681,38
308,68	1685,48
308,89	1710,05
309,10	1777,64
309,32	1744,87
309,53	1708,01
309,74	1722,34
309,96	1671,14
310,17	1705,96
310,39	1697,77
310,60	1724,39
310,81	1732,58
311,03	1617,90
311,24	1759,21
311,45	1791,97
311,67	1787,88
311,88	1654,76
312,09	1683,43
312,31	1667,05
312,52	1718,25
312,73	1705,96
312,95	1597,42
313,16	1669,09
313,37	1773,54
313,59	1798,12
313,80	1757,16
314,01	1757,16
314,23	1554,41
314,44	1673,19
314,65	1593,32
314,87	1638,38
315,08	1730,53
315,29	1658,85
315,51	1624,04
315,72	1712,10
315,93	1814,50
316,15	1693,67
316,36	1628,14
316,57	1691,62
316,79	1677,29
317,00	1646,57
317,21	1689,57
317,43	1632,23
317,64	1660,90
317,85	1630,18
318,07	1708,01
318,28	1736,68
318,49	1800,16
318,70	1896,42
318,92	1814,50
319,13	1785,83
319,34	1849,32
319,56	1806,31
319,77	1798,12
319,98	1730,53
320,20	1822,69
320,41	1763,30
320,62	1734,63
320,83	1685,48
321,05	1847,27
321,26	1650,66
321,47	1613,80
321,69	1802,21
321,90	1681,38
322,11	1673,19
322,32	1703,91
322,54	1798,12
322,75	1685,48
322,96	1755,11
323,18	1597,42
323,39	1576,94
323,60	1648,61
323,81	1697,77
324,03	1617,90
324,24	1751,01
324,45	1708,01
324,66	1667,05
324,88	1691,62
325,09	1683,43
325,30	1673,19
325,52	1662,95
325,73	1724,39
325,94	1617,90
326,15	1603,56
326,37	1667,05
326,58	1708,01
326,79	1748,97
327,00	1691,62
327,22	1779,68
327,43	1662,95
327,64	1624,04
327,85	1710,05
328,07	1699,81
328,28	1783,78
328,49	1685,48
328,70	1636,33
328,92	1761,25
329,13	1722,34
329,34	1740,77
329,55	1789,92
329,76	1683,43
329,98	1660,90
330,19	1732,58
330,40	1746,92
330,61	1746,92
330,83	1736,68
331,04	1583,08
331,25	1660,90
331,46	1624,04
331,68	1681,38
331,89	1767,40
332,10	1722,34
332,31	1607,66
332,52	1665,00
332,74	1855,46
332,95	1638,38
333,16	1710,05
333,37	1687,53
333,58	1650,66
333,80	1734,63
334,01	1638,38
334,22	1665,00
334,43	1718,25
334,64	1730,53
334,86	1617,90
335,07	1687,53
335,28	1847,27
335,49	1667,05
335,70	1740,77
335,92	1759,21
336,13	1820,64
336,34	1738,73
336,55	1773,54
336,76	1701,86
336,98	1591,27
337,19	1683,43
337,40	1826,79
337,61	1841,12
337,82	1660,90
338,04	1781,73
338,25	1621,99
338,46	1697,77
338,67	1673,19
338,88	1638,38
339,09	1658,85
339,31	1677,29
339,52	1695,72
339,73	1695,72
339,94	1685,48
340,15	1718,25
340,36	1699,81
340,58	1734,63
340,79	1689,57
341,00	1759,21
341,21	1712,10
341,42	1765,35
341,63	1697,77
341,85	1751,01
342,06	1669,09
342,27	1652,71
342,48	1775,59
342,69	1601,51
342,90	1789,92
343,12	1677,29
343,33	1689,57
343,54	1781,73
343,75	1738,73
343,96	1734,63
344,17	1525,74
344,38	1773,54
344,60	1638,38
344,81	1636,33
345,02	1703,91
345,23	1732,58
345,44	1751,01
345,65	1646,57
345,86	1736,68
346,07	1695,72
346,29	1677,29
346,50	1705,96
346,71	1722,34
346,92	1781,73
347,13	1843,17
347,34	1687,53
347,55	1665,00
347,76	1689,57
347,98	1710,05
348,19	1687,53
348,40	1740,77
348,61	1730,53
348,82	1820,64
349,03	1720,29
349,24	1626,09
349,45	1791,97
349,66	1585,13
349,88	1738,73
350,09	1716,20
350,30	1769,44
350,51	1796,07
350,72	1697,77
350,93	1716,20
351,14	1710,05
351,35	1843,17
351,56	1697,77
351,77	1644,52
351,99	1800,16
352,20	1755,11
352,41	1767,40
352,62	1499,11
352,83	1730,53
353,04	1748,97
353,25	1701,86
353,46	1753,06
353,67	1728,49
353,88	1632,23
354,09	1679,33
354,30	1660,90
354,52	1781,73
354,73	1685,48
354,94	1726,44
355,15	1730,53
355,36	1794,02
355,57	1769,44
355,78	1687,53
355,99	1720,29
356,20	1595,37
356,41	1810,40
356,62	1728,49
356,83	1650,66
357,04	1742,82
357,25	1667,05
357,46	1671,14
357,68	1648,61
357,89	1681,38
358,10	1699,81
358,31	1675,24
358,52	1746,92
358,73	1554,41
358,94	1591,27
359,15	1615,85
359,36	1740,77
359,57	1638,38
359,78	1628,14
359,99	1753,06
360,20	1615,85
360,41	1720,29
360,62	1740,77
360,83	1685,48
361,04	1800,16
361,25	1699,81
361,46	1802,21
361,67	1722,34
361,88	1710,05
362,09	1734,63
362,30	1691,62
362,51	1693,67
362,72	1738,73
362,93	1775,59
363,14	1753,06
363,35	1736,68
363,56	1599,46
363,78	1779,68
363,99	1839,08
364,20	1693,67
364,41	1765,35
364,62	1783,78
364,83	1722,34
365,04	1673,19
365,25	1720,29
365,46	1761,25
365,67	1632,23
365,88	1652,71
366,09	1675,24
366,30	1660,90
366,51	1665,00
366,72	1658,85
366,93	1656,81
367,14	1761,25
367,35	1806,31
367,56	1714,15
367,77	1773,54
367,98	1677,29
368,18	1703,91
368,39	1712,10
368,60	1652,71
368,81	1810,40
369,02	1669,09
369,23	1740,77
369,44	1572,84
369,65	1624,04
369,86	1761,25
370,07	1689,57
370,28	1669,09
370,49	1746,92
370,70	1677,29
370,91	1599,46
371,12	1640,42
371,33	1761,25
371,54	1626,09
371,75	1816,55
371,96	1669,09
372,17	1705,96
372,38	1697,77
372,59	1777,64
372,80	1673,19
373,01	1660,90
373,22	1708,01
373,43	1775,59
373,64	1589,22
373,85	1810,40
374,06	1808,36
374,26	1783,78
374,47	1726,44
374,68	1804,26
374,89	1634,28
375,10	1648,61
375,31	1777,64
375,52	1697,77
375,73	1665,00
375,94	1673,19
376,15	1806,31
376,36	1693,67
376,57	1742,82
376,78	1652,71
376,99	1658,85
377,20	1744,87
377,40	1757,16
377,61	1771,49
377,82	1665,00
378,03	1832,93
378,24	1751,01
378,45	1644,52
378,66	1679,33
378,87	1611,75
379,08	1617,90
379,29	1753,06
379,50	1691,62
379,71	1669,09
379,91	1718,25
380,12	1783,78
380,33	1691,62
380,54	1693,67
380,75	1660,90
380,96	1699,81
381,17	1714,15
381,38	1738,73
381,59	1740,77
381,80	1728,49
382,00	1871,84
382,21	1714,15
382,42	1822,69
382,63	1814,50
382,84	1785,83
383,05	1775,59
383,26	1828,84
383,47	1746,92
383,68	1693,67
383,88	1675,24
384,09	1720,29
384,30	1814,50
384,51	1705,96
384,72	1683,43
384,93	1583,08
385,14	1732,58
385,35	1800,16
385,55	1621,99
385,76	1779,68
385,97	1746,92
386,18	1646,57
386,39	1636,33
386,60	1751,01
386,81	1677,29
387,02	1619,94
387,22	1787,88
387,43	1777,64
387,64	1765,35
387,85	1851,36
388,06	2166,75
388,27	4366,27
388,48	6821,78
388,68	8304,51
388,89	9709,42
389,10	10057,57
389,31	8828,79
389,52	7921,54
389,73	6682,52
389,93	6469,53
390,14	5941,16
390,35	5083,06
390,56	4657,08
390,77	3805,13
390,98	3098,58
391,18	2445,27
391,39	2176,99
391,60	1830,88
391,81	1806,31
392,02	1775,59
392,23	1851,36
392,43	1697,77
392,64	1787,88
392,85	1695,72
393,06	1775,59
393,27	1699,81
393,47	1697,77
393,68	1673,19
393,89	1714,15
394,10	1652,71
394,31	1634,28
394,52	1632,23
394,72	1708,01
394,93	1763,30
395,14	1660,90
395,35	1730,53
395,56	1648,61
395,76	1691,62
395,97	1796,07
396,18	1828,84
396,39	1871,84
396,60	2146,27
396,80	1896,42
397,01	1845,22
397,22	1738,73
397,43	1857,51
397,64	1751,01
397,84	1796,07
398,05	1896,42
398,26	1744,87
398,47	1714,15
398,67	1751,01
398,88	1728,49
399,09	1746,92
399,30	1753,06
399,51	1697,77
399,71	1656,81
399,92	1748,97
400,13	1736,68
400,34	1681,38
400,54	1673,19
400,75	1736,68
400,96	1742,82
401,17	1847,27
401,37	1730,53
401,58	1718,25
401,79	1746,92
402,00	1814,50
402,21	2095,07
402,41	1931,23
402,62	2009,06
402,83	2017,25
403,04	1906,66
403,24	2129,89
403,45	1826,79
403,66	1920,99
403,87	1832,93
404,07	1961,95
404,28	1918,95
404,49	1875,94
404,70	1769,44
404,90	1779,68
405,11	1837,03
405,32	1789,92
405,52	1685,48
405,73	1708,01
405,94	1603,56
406,15	1665,00
406,35	1683,43
406,56	1744,87
406,77	1705,96
406,98	1730,53
407,18	1609,70
407,39	1802,21
407,60	1624,04
407,80	1671,14
408,01	1572,84
408,22	1767,40
408,43	1708,01
408,63	1779,68
408,84	1779,68
409,05	1794,02
409,25	1783,78
409,46	1675,24
409,67	1697,77
409,88	1691,62
410,08	1722,34
410,29	1720,29
410,50	1685,48
410,70	1677,29
410,91	1628,14
411,12	1738,73
411,32	1650,66
411,53	1705,96
411,74	1839,08
411,95	1791,97
412,15	1642,47
412,36	1732,58
412,57	1761,25
412,77	1820,64
412,98	1751,01
413,19	1693,67
413,39	1822,69
413,60	1761,25
413,81	1722,34
414,01	1662,95
414,22	1730,53
414,43	1755,11
414,63	1658,85
414,84	1820,64
415,05	1728,49
415,25	1638,38
415,46	1740,77
415,67	1820,64
415,87	1718,25
416,08	1665,00
416,29	1714,15
416,49	1710,05
416,70	1687,53
416,91	1669,09
417,11	1671,14
417,32	1746,92
417,53	1771,49
417,73	1728,49
417,94	1710,05
418,15	1685,48
418,35	1718,25
418,56	1753,06
418,77	1828,84
418,97	1697,77
419,18	1710,05
419,38	1644,52
419,59	1677,29
419,80	1845,22
420,00	1689,57
420,21	1759,21
420,42	1734,63
420,62	1742,82
420,83	1687,53
421,04	1648,61
421,24	1689,57
421,45	1736,68
421,65	1765,35
421,86	1742,82
422,07	1681,38
422,27	1691,62
422,48	1677,29
422,69	1675,24
422,89	1597,42
423,10	1705,96
423,30	1654,76
423,51	1703,91
423,72	1638,38
423,92	1794,02
424,13	1630,18
424,33	1744,87
424,54	1734,63
424,75	1730,53
424,95	1777,64
425,16	1781,73
425,36	1736,68
425,57	1697,77
425,78	1691,62
425,98	1773,54
426,19	1652,71
426,39	1632,23
426,60	1738,73
426,81	1775,59
427,01	1728,49
427,22	1624,04
427,42	1562,60
427,63	1685,48
427,83	1740,77
428,04	1830,88
428,25	1703,91
428,45	1832,93
428,66	1794,02
428,86	1675,24
429,07	1640,42
429,28	1665,00
429,48	1619,94
429,69	1677,29
429,89	1677,29
430,10	1648,61
430,30	1787,88
430,51	1820,64
430,71	1724,39
430,92	1660,90
431,13	1632,23
431,33	1744,87
431,54	1722,34
431,74	1771,49
431,95	1832,93
432,15	1624,04
432,36	1746,92
432,56	1746,92
432,77	1765,35
432,98	1800,16
433,18	1732,58
433,39	1738,73
433,59	1685,48
433,80	1802,21
434,00	1855,46
434,21	1722,34
434,41	1646,57
434,62	1892,32
434,82	1642,47
435,03	1681,38
435,23	1642,47
435,44	1589,22
435,64	1718,25
435,85	1722,34
436,06	1808,36
436,26	1781,73
436,47	1677,29
436,67	1662,95
436,88	1708,01
437,08	1744,87
437,29	1773,54
437,49	1814,50
437,70	1771,49
437,90	1703,91
438,11	1855,46
438,31	1781,73
438,52	1871,84
438,72	1871,84
438,93	1910,75
439,13	1738,73
439,34	1787,88
439,54	1771,49
439,75	1812,45
439,95	1822,69
440,16	1683,43
440,36	1724,39
440,57	1820,64
440,77	1779,68
440,98	1761,25
441,18	1806,31
441,39	1705,96
441,59	1656,81
441,80	1841,12
442,00	1714,15
442,21	1798,12
442,41	1660,90
442,62	1773,54
442,82	1714,15
443,02	1740,77
443,23	1738,73
443,43	1734,63
443,64	1796,07
443,84	1652,71
444,05	1798,12
444,25	1751,01
444,46	1621,99
444,66	1755,11
444,87	1843,17
445,07	1703,91
445,28	1783,78
445,48	1845,22
445,69	1796,07
445,89	1912,80
446,09	1777,64
446,30	2041,82
446,50	2611,16
446,71	3841,99
446,91	4427,71
447,12	4730,81
447,32	4855,73
447,53	4308,93
447,73	3907,52
447,93	3565,51
448,14	3311,57
448,34	3151,82
448,55	2807,77
448,75	2912,21
448,96	2740,18
449,16	2414,56
449,36	2250,72
449,57	2002,91
449,77	1871,84
449,98	1849,32
450,18	1812,45
450,39	1769,44
450,59	1777,64
450,79	1761,25
451,00	1689,57
451,20	1748,97
451,41	1724,39
451,61	1781,73
451,81	1751,01
452,02	1683,43
452,22	1679,33
452,43	1685,48
452,63	1730,53
452,84	1775,59
453,04	1767,40
453,24	1779,68
453,45	1718,25
453,65	1742,82
453,86	1679,33
454,06	1742,82
454,26	1724,39
454,47	1701,86
454,67	1867,75
454,87	1748,97
455,08	1755,11
455,28	1826,79
455,49	1669,09
455,69	1720,29
455,89	1890,28
456,10	1869,80
456,30	1724,39
456,51	1808,36
456,71	1775,59
456,91	1777,64
457,12	1767,40
457,32	1783,78
457,52	1671,14
457,73	1710,05
457,93	1775,59
458,14	1720,29
458,34	1624,04
458,54	1716,20
458,75	1746,92
458,95	1755,11
459,15	1759,21
459,36	1859,56
459,56	1820,64
459,76	1914,85
459,97	1742,82
460,17	1648,61
460,37	1849,32
460,58	1722,34
460,78	1777,64
460,99	1626,09
461,19	1742,82
461,39	1716,20
461,60	1697,77
461,80	1767,40
462,00	1679,33
462,21	1734,63
462,41	1699,81
462,61	1695,72
462,82	1718,25
463,02	1744,87
463,22	1734,63
463,43	1769,44
463,63	1671,14
463,83	1779,68
464,04	1789,92
464,24	1757,16
464,44	1656,81
464,64	1759,21
464,85	1724,39
465,05	1730,53
465,25	1705,96
465,46	1708,01
465,66	1783,78
465,86	1734,63
466,07	1804,26
466,27	1665,00
466,47	1710,05
466,68	1726,44
466,88	1785,83
467,08	1718,25
467,29	1822,69
467,49	1726,44
467,69	1744,87
467,89	1746,92
468,10	1675,24
468,30	1718,25
468,50	1796,07
468,71	1681,38
468,91	1621,99
469,11	1845,22
469,31	1701,86
469,52	1705,96
469,72	1812,45
469,92	1845,22
470,13	1673,19
470,33	1765,35
470,53	1830,88
470,73	2119,65
470,94	2291,68
471,14	2373,60
471,34	2459,61
471,54	2406,36
471,75	2195,42
471,95	2127,84
472,15	2166,75
472,36	2131,94
472,56	2109,41
472,76	2050,02
472,96	1949,67
473,17	1937,38
473,37	1871,84
473,57	1763,30
473,77	1796,07
473,98	1806,31
474,18	1671,14
474,38	1845,22
474,58	1724,39
474,79	1689,57
474,99	1730,53
475,19	1751,01
475,39	1665,00
475,60	1748,97
475,80	1665,00
476,00	1726,44
476,20	1755,11
476,41	1710,05
476,61	1789,92
476,81	1787,88
477,01	1708,01
477,21	1914,85
477,42	1753,06
477,62	1642,47
477,82	1798,12
478,02	1601,51
478,23	1697,77
478,43	1679,33
478,63	1648,61
478,83	1654,76
479,03	1705,96
479,24	1789,92
479,44	1822,69
479,64	1705,96
479,84	1583,08
480,04	1691,62
480,25	1732,58
480,45	1669,09
480,65	1796,07
480,85	1734,63
481,06	1681,38
481,26	1724,39
481,46	1673,19
481,66	1716,20
481,86	1718,25
482,06	1828,84
482,27	1677,29
482,47	1697,77
482,67	1695,72
482,87	1695,72
483,07	1845,22
483,28	1628,14
483,48	1656,81
483,68	1703,91
483,88	1628,14
484,08	1574,89
484,29	1636,33
484,49	1683,43
484,69	1589,22
484,89	1761,25
485,09	1759,21
485,29	1654,76
485,50	1751,01
485,70	1746,92
485,90	1773,54
486,10	1734,63
486,30	1744,87
486,50	1734,63
486,71	1703,91
486,91	1710,05
487,11	1847,27
487,31	1669,09
487,51	1734,63
487,71	1695,72
487,91	1638,38
488,12	1683,43
488,32	1646,57
488,52	1603,56
488,72	1540,07
488,92	1710,05
489,12	1785,83
489,32	1791,97
489,53	1777,64
489,73	1697,77
489,93	1818,60
490,13	1716,20
490,33	1662,95
490,53	1761,25
490,73	1767,40
490,94	1617,90
491,14	1699,81
491,34	1824,74
491,54	2099,17
491,74	2600,92
491,94	2828,24
492,14	2996,18
492,34	2981,84
492,54	2850,77
492,75	2559,96
492,95	2371,55
493,15	2332,64
493,35	2279,39
493,55	2254,81
493,75	2148,32
493,95	2125,79
494,15	1929,19
494,35	1904,61
494,56	1869,80
494,76	1759,21
494,96	1808,36
495,16	1783,78
495,36	1757,16
495,56	1691,62
495,76	1742,82
495,96	1705,96
496,16	1683,43
496,36	1880,04
496,56	1767,40
496,77	1736,68
496,97	1753,06
497,17	1730,53
497,37	1660,90
497,57	1742,82
497,77	1791,97
497,97	1687,53
498,17	1675,24
498,37	1748,97
498,57	1734,63
498,77	1658,85
498,97	1755,11
499,17	1769,44
499,38	1701,86
499,58	1771,49
499,78	1734,63
499,98	1777,64
500,18	1675,24
500,38	1689,57
500,58	1941,47
500,78	2557,91
500,98	4583,35
501,18	5900,20
501,38	6731,67
501,58	7278,48
501,78	6739,87
501,98	5652,39
502,18	5070,77
502,38	4599,74
502,58	4208,58
502,78	3786,69
502,98	3708,87
503,18	3631,05
503,38	3168,21
503,59	2807,77
503,79	2729,94
503,99	2416,60
504,19	2228,19
504,39	2220,00
504,59	2136,03
504,79	2146,27
504,99	2099,17
505,19	1902,56
505,39	1892,32
505,59	1920,99
505,79	1957,86
505,99	1806,31
506,19	1746,92
506,39	1859,56
506,59	1738,73
506,79	1738,73
506,99	1779,68
507,19	1746,92
507,39	1716,20
507,59	1636,33
507,79	1708,01
507,99	1701,86
508,19	1748,97
508,39	1697,77
508,59	1763,30
508,79	1714,15
508,99	1802,21
509,19	1683,43
509,39	1701,86
509,59	1693,67
509,79	1751,01
509,99	1718,25
510,19	1779,68
510,39	1738,73
510,59	1693,67
510,79	1724,39
510,99	1687,53
511,19	1730,53
511,39	1826,79
511,59	1767,40
511,79	1820,64
511,99	1697,77
512,19	1806,31
512,38	1728,49
512,58	1734,63
512,78	1775,59
512,98	1834,98
513,18	1742,82
513,38	1675,24
513,58	1748,97
513,78	1689,57
513,98	1699,81
514,18	1703,91
514,38	1722,34
514,58	1777,64
514,78	1595,37
514,98	1703,91
515,18	1738,73
515,38	1624,04
515,58	1814,50
515,78	1742,82
515,98	1685,48
516,18	1714,15
516,38	1716,20
516,57	1720,29
516,77	1767,40
516,97	1757,16
517,17	1697,77
517,37	1601,51
517,57	1738,73
517,77	1687,53
517,97	1718,25
518,17	1773,54
518,37	1599,46
518,57	1687,53
518,77	1759,21
518,97	1757,16
519,16	1761,25
519,36	1845,22
519,56	1714,15
519,76	1804,26
519,96	1730,53
520,16	1896,42
520,36	1730,53
520,56	1810,40
520,76	1667,05
520,96	1658,85
521,16	1814,50
521,35	1757,16
521,55	1777,64
521,75	1777,64
521,95	1669,09
522,15	1685,48
522,35	1611,75
522,55	1677,29
522,75	1771,49
522,95	1699,81
523,14	1755,11
523,34	1724,39
523,54	1738,73
523,74	1775,59
523,94	1783,78
524,14	1624,04
524,34	1765,35
524,54	1796,07
524,73	1681,38
524,93	1767,40
525,13	1787,88
525,33	1656,81
525,53	1855,46
525,73	1759,21
525,93	1765,35
526,13	1726,44
526,32	1716,20
526,52	1794,02
526,72	1798,12
526,92	1724,39
527,12	1753,06
527,32	1689,57
527,52	1738,73
527,71	1722,34
527,91	1738,73
528,11	1650,66
528,31	1669,09
528,51	1652,71
528,71	1789,92
528,90	1814,50
529,10	1755,11
529,30	1834,98
529,50	1660,90
529,70	1800,16
529,90	1720,29
530,09	1798,12
530,29	1673,19
530,49	1728,49
530,69	1869,80
530,89	1730,53
531,09	1796,07
531,28	1740,77
531,48	1783,78
531,68	1712,10
531,88	1691,62
532,08	1748,97
532,28	1679,33
532,47	1767,40
532,67	1812,45
532,87	1798,12
533,07	1660,90
533,27	1763,30
533,46	1753,06
533,66	1755,11
533,86	1699,81
534,06	1742,82
534,26	1699,81
534,45	1767,40
534,65	1771,49
534,85	1683,43
535,05	1714,15
535,25	1783,78
535,44	1640,42
535,64	1777,64
535,84	1748,97
536,04	1683,43
536,24	1722,34
536,43	1677,29
536,63	1789,92
536,83	1785,83
537,03	1744,87
537,22	1607,66
537,42	1675,24
537,62	1787,88
537,82	1789,92
538,02	1791,97
538,21	1808,36
538,41	1925,09
538,61	1726,44
538,81	1683,43
539,00	1798,12
539,20	1601,51
539,40	1699,81
539,60	1738,73
539,79	1781,73
539,99	1742,82
540,19	1755,11
540,39	1738,73
540,58	1773,54
540,78	1771,49
540,98	1718,25
541,18	1722,34
541,37	1759,21
541,57	1740,77
541,77	1722,34
541,97	1738,73
542,16	1669,09
542,36	1826,79
542,56	1703,91
542,76	1843,17
542,95	1806,31
543,15	1701,86
543,35	1855,46
543,54	1677,29
543,74	1660,90
543,94	1808,36
544,14	1753,06
544,33	1767,40
544,53	1757,16
544,73	1759,21
544,93	1677,29
545,12	1759,21
545,32	1738,73
545,52	1687,53
545,71	1671,14
545,91	1665,00
546,11	1667,05
546,30	1689,57
546,50	1742,82
546,70	1746,92
546,90	1748,97
547,09	1652,71
547,29	1675,24
547,49	1746,92
547,68	1761,25
547,88	1740,77
548,08	1779,68
548,27	2187,23
548,47	1667,05
548,67	1726,44
548,87	1771,49
549,06	1689,57
549,26	1691,62
549,46	1755,11
549,65	1687,53
549,85	1734,63
550,05	1744,87
550,24	1722,34
550,44	1742,82
550,64	1800,16
550,83	1730,53
551,03	1775,59
551,23	1734,63
551,42	1759,21
551,62	1695,72
551,82	1691,62
552,01	1767,40
552,21	1816,55
552,41	1771,49
552,60	1783,78
552,80	1746,92
553,00	1656,81
553,19	1716,20
553,39	1759,21
553,59	1746,92
553,78	1783,78
553,98	1714,15
554,17	1648,61
554,37	1773,54
554,57	1822,69
554,76	1583,08
554,96	1665,00
555,16	1765,35
555,35	1740,77
555,55	1791,97
555,75	1703,91
555,94	1841,12
556,14	1638,38
556,33	1828,84
556,53	1708,01
556,73	1726,44
556,92	1732,58
557,12	1806,31
557,32	1853,41
557,51	1863,65
557,71	1787,88
557,90	1855,46
558,10	1787,88
558,30	1771,49
558,49	1679,33
558,69	1718,25
558,88	1787,88
559,08	1689,57
559,28	1726,44
559,47	1742,82
559,67	1683,43
559,86	1751,01
560,06	1658,85
560,26	1712,10
560,45	1804,26
560,65	1755,11
560,84	1796,07
561,04	1695,72
561,24	1765,35
561,43	1658,85
561,63	1800,16
561,82	1677,29
562,02	1720,29
562,22	1679,33
562,41	1667,05
562,61	1724,39
562,80	1714,15
563,00	1943,52
563,19	1746,92
563,39	1736,68
563,59	1734,63
563,78	1665,00
563,98	1667,05
564,17	1697,77
564,37	1687,53
564,56	1722,34
564,76	1738,73
564,96	1796,07
565,15	1728,49
565,35	1853,41
565,54	1697,77
565,74	1822,69
565,93	1699,81
566,13	1759,21
566,32	1746,92
566,52	1744,87
566,71	1705,96
566,91	1773,54
567,11	1732,58
567,30	1712,10
567,50	1800,16
567,69	1691,62
567,89	1724,39
568,08	1705,96
568,28	1791,97
568,47	1697,77
568,67	1734,63
568,86	1716,20
569,06	1816,55
569,25	1724,39
569,45	1658,85
569,64	1748,97
569,84	1667,05
570,04	1789,92
570,23	1652,71
570,43	1771,49
570,62	1796,07
570,82	1818,60
571,01	1656,81
571,21	1724,39
571,40	1681,38
571,60	1791,97
571,79	1759,21
571,99	1701,86
572,18	1695,72
572,38	1783,78
572,57	1693,67
572,77	1779,68
572,96	1923,04
573,16	1746,92
573,35	1775,59
573,55	1765,35
573,74	1736,68
573,94	1822,69
574,13	1744,87
574,33	1734,63
574,52	1902,56
574,71	1777,64
574,91	1748,97
575,10	1665,00
575,30	1718,25
575,49	1732,58
575,69	1701,86
575,88	1806,31
576,08	1740,77
576,27	1781,73
576,47	1769,44
576,66	1746,92
576,86	1800,16
577,05	1718,25
577,25	1763,30
577,44	1880,04
577,64	1751,01
577,83	1800,16
578,02	1794,02
578,22	1853,41
578,41	1802,21
578,61	1726,44
578,80	1722,34
579,00	1759,21
579,19	1798,12
579,39	1730,53
579,58	1785,83
579,77	1710,05
579,97	1736,68
580,16	1814,50
580,36	1853,41
580,55	1847,27
580,75	1800,16
580,94	1740,77
581,13	1873,89
581,33	1853,41
581,52	1771,49
581,72	1900,52
581,91	1773,54
582,11	1679,33
582,30	1755,11
582,49	1779,68
582,69	1837,03
582,88	1796,07
583,08	1744,87
583,27	1880,04
583,47	1736,68
583,66	1681,38
583,85	1746,92
584,05	1751,01
584,24	1769,44
584,44	1806,31
584,63	1857,51
584,82	1855,46
585,02	1769,44
585,21	1779,68
585,41	1900,52
585,60	1857,51
585,79	1904,61
585,99	1927,14
586,18	1830,88
586,37	2226,14
586,57	3327,95
586,76	10233,70
586,96	24751,75
587,15	35163,62
587,34	41219,47
587,54	43165,04
587,73	37604,80
587,93	26584,68
588,12	21927,60
588,31	18697,95
588,51	16633,60
588,70	15572,75
588,89	14325,54
589,09	12916,54
589,28	11249,49
589,47	9678,70
589,67	8054,66
589,86	6424,48
590,06	5109,68
590,25	3973,06
590,44	3151,82
590,64	2742,23
590,83	2369,50
591,02	2107,36
591,22	1935,33
591,41	1953,76
591,60	1814,50
591,80	2009,06
591,99	1742,82
592,18	1873,89
592,38	1886,18
592,57	1755,11
592,76	1791,97
592,96	1746,92
593,15	1789,92
593,34	1794,02
593,54	1751,01
593,73	1822,69
593,92	1763,30
594,12	1716,20
594,31	1673,19
594,50	1857,51
594,70	1804,26
594,89	1894,37
595,08	1681,38
595,28	1777,64
595,47	1943,52
595,66	1763,30
595,86	1648,61
596,05	1691,62
596,24	1748,97
596,43	1923,04
596,63	1824,74
596,82	1769,44
597,01	1794,02
597,21	1925,09
597,40	1773,54
597,59	1742,82
597,79	1785,83
597,98	1746,92
598,17	1781,73
598,36	1800,16
598,56	1816,55
598,75	1660,90
598,94	1812,45
599,14	1699,81
599,33	1736,68
599,52	1722,34
599,71	1767,40
599,91	1834,98
600,10	1789,92
600,29	1746,92
600,48	1810,40
600,68	1814,50
600,87	1753,06
601,06	1746,92
601,26	1769,44
601,45	1751,01
601,64	1677,29
601,83	1820,64
602,03	1791,97
602,22	1681,38
602,41	1757,16
602,60	1910,75
602,80	1791,97
602,99	1771,49
603,18	1636,33
603,37	1755,11
603,57	1677,29
603,76	1785,83
603,95	1746,92
604,14	1720,29
604,34	1718,25
604,53	1773,54
604,72	1798,12
604,91	1802,21
605,10	1710,05
605,30	1615,85
605,49	1869,80
605,68	1769,44
605,87	1755,11
606,07	1673,19
606,26	1832,93
606,45	1746,92
606,64	1736,68
606,84	1701,86
607,03	1738,73
607,22	1763,30
607,41	1697,77
607,60	1695,72
607,80	1662,95
607,99	1810,40
608,18	1761,25
608,37	1755,11
608,56	1697,77
608,76	1824,74
608,95	1898,47
609,14	1773,54
609,33	1746,92
609,52	1748,97
609,72	1728,49
609,91	1806,31
610,10	1777,64
610,29	1767,40
610,48	1755,11
610,68	1716,20
610,87	1691,62
611,06	1779,68
611,25	1689,57
611,44	1794,02
611,63	1656,81
611,83	1718,25
612,02	1673,19
612,21	1808,36
612,40	1634,28
612,59	1710,05
612,79	1634,28
612,98	1642,47
613,17	1812,45
613,36	1736,68
613,55	1910,75
613,74	1681,38
613,93	1665,00
614,13	1716,20
614,32	1806,31
614,51	1730,53
614,70	1734,63
614,89	1705,96
615,08	1763,30
615,28	2045,92
615,47	1613,80
615,66	1619,94
615,85	1691,62
616,04	1839,08
616,23	1683,43
616,42	1794,02
616,62	1705,96
616,81	1669,09
617,00	1710,05
617,19	1669,09
617,38	1726,44
617,57	1748,97
617,76	1765,35
617,95	1787,88
618,15	1742,82
618,34	1757,16
618,53	1716,20
618,72	1783,78
618,91	1845,22
619,10	1738,73
619,29	1728,49
619,48	1722,34
619,68	1667,05
619,87	1681,38
620,06	1683,43
620,25	1742,82
620,44	1644,52
620,63	1689,57
620,82	1722,34
621,01	1763,30
621,20	1728,49
621,39	1640,42
621,59	1763,30
621,78	1779,68
621,97	1693,67
622,16	1783,78
622,35	1738,73
622,54	1818,60
622,73	1816,55
622,92	1673,19
623,11	1759,21
623,30	1693,67
623,49	1791,97
623,68	1726,44
623,88	1783,78
624,07	1685,48
624,26	1671,14
624,45	1605,61
624,64	1748,97
624,83	1697,77
625,02	1796,07
625,21	1730,53
625,40	1734,63
625,59	1746,92
625,78	1724,39
625,97	1726,44
626,16	1773,54
626,35	1796,07
626,54	1675,24
626,74	1740,77
626,93	1689,57
627,12	1724,39
627,31	1777,64
627,50	1738,73
627,69	1734,63
627,88	1673,19
628,07	1669,09
628,26	1736,68
628,45	1736,68
628,64	1687,53
628,83	1642,47
629,02	1644,52
629,21	1683,43
629,40	1738,73
629,59	1650,66
629,78	1648,61
629,97	1693,67
630,16	1818,60
630,35	1730,53
630,54	1695,72
630,73	1634,28
630,92	1724,39
631,11	1642,47
631,30	1753,06
631,49	1734,63
631,68	1742,82
631,87	1767,40
632,06	1656,81
632,25	1865,70
632,44	1722,34
632,63	1773,54
632,82	1658,85
633,01	1628,14
633,20	1638,38
633,39	1632,23
633,58	1632,23
633,77	1662,95
633,96	1693,67
634,15	1820,64
634,34	1796,07
634,53	1689,57
634,72	1710,05
634,91	1597,42
635,10	1746,92
635,29	1761,25
635,48	1746,92
635,67	1689,57
635,86	1679,33
636,05	1800,16
636,24	1703,91
636,43	1755,11
636,62	1744,87
636,81	1609,70
637,00	1699,81
637,19	1808,36
637,38	1679,33
637,57	1667,05
637,76	1681,38
637,95	1736,68
638,14	1636,33
638,33	1705,96
638,52	1738,73
638,71	1763,30
638,89	1644,52
639,08	1855,46
639,27	1791,97
639,46	1660,90
639,65	1820,64
639,84	1650,66
640,03	1779,68
640,22	1634,28
640,41	1757,16
640,60	1701,86
640,79	1728,49
640,98	1757,16
641,17	1724,39
641,36	1818,60
641,55	1779,68
641,74	1691,62
641,92	1630,18
642,11	1720,29
642,30	1720,29
642,49	1675,24
642,68	1695,72
642,87	1679,33
643,06	1753,06
643,25	1656,81
643,44	1742,82
643,63	1722,34
643,82	1710,05
644,00	1626,09
644,19	1751,01
644,38	1675,24
644,57	1800,16
644,76	1744,87
644,95	1705,96
645,14	1685,48
645,33	1667,05
645,52	1718,25
645,71	1705,96
645,89	1595,37
646,08	1697,77
646,27	1689,57
646,46	1832,93
646,65	1638,38
646,84	1759,21
647,03	1595,37
647,22	1820,64
647,40	1742,82
647,59	1699,81
647,78	1665,00
647,97	1755,11
648,16	1716,20
648,35	1810,40
648,54	1798,12
648,73	1691,62
648,91	1697,77
649,10	1796,07
649,29	1613,80
649,48	1701,86
649,67	1771,49
649,86	1712,10
650,05	1644,52
650,23	1771,49
650,42	1734,63
650,61	1771,49
650,80	1740,77
650,99	1839,08
651,18	1779,68
651,36	1763,30
651,55	1740,77
651,74	1814,50
651,93	1677,29
652,12	1667,05
652,31	1693,67
652,49	1775,59
652,68	1673,19
652,87	1742,82
653,06	1703,91
653,25	1839,08
653,44	1728,49
653,62	1802,21
653,81	1689,57
654,00	1714,15
654,19	1771,49
654,38	1849,32
654,56	1699,81
654,75	1765,35
654,94	1677,29
655,13	1679,33
655,32	1755,11
655,51	1732,58
655,69	1753,06
655,88	1679,33
656,07	1742,82
656,26	1806,31
656,45	1671,14
656,63	1708,01
656,82	1697,77
657,01	1783,78
657,20	1714,15
657,38	1816,55
657,57	1683,43
657,76	1683,43
657,95	1724,39
658,14	1693,67
658,32	1626,09
658,51	1621,99
658,70	1773,54
658,89	1701,86
659,08	1640,42
659,26	1869,80
659,45	1652,71
659,64	1769,44
659,83	1693,67
660,01	1994,72
660,20	1783,78
660,39	1761,25
660,58	1673,19
660,76	1798,12
660,95	1654,76
661,14	1699,81
661,33	1605,61
661,51	1701,86
661,70	1665,00
661,89	1812,45
662,08	1738,73
662,26	1650,66
662,45	1728,49
662,64	1753,06
662,83	1751,01
663,01	1626,09
663,20	1697,77
663,39	1855,46
663,58	1662,95
663,76	1699,81
663,95	1730,53
664,14	1658,85
664,32	1787,88
664,51	1685,48
664,70	1621,99
664,89	1755,11
665,07	1597,42
665,26	1757,16
665,45	1630,18
665,64	1779,68
665,82	1681,38
666,01	1855,46
666,20	1650,66
666,38	1830,88
666,57	1746,92
666,76	2211,81
666,95	4552,63
667,13	10473,31
667,32	15597,33
667,51	18247,40
667,69	19564,25
667,88	17975,02
668,07	12488,51
668,25	9645,93
668,44	8374,14
668,63	7491,47
668,81	7049,11
669,00	6248,35
669,19	5736,36
669,38	5185,46
669,56	4691,90
669,75	4024,26
669,94	3446,73
670,12	2779,09
670,31	2510,81
670,50	2293,72
670,68	2074,59
670,87	1918,95
671,06	1800,16
671,24	1875,94
671,43	1757,16
671,62	1796,07
671,80	1728,49
671,99	1810,40
672,18	1722,34
672,36	1716,20
672,55	1738,73
672,74	1759,21
672,92	1732,58
673,11	1783,78
673,29	1703,91
673,48	1732,58
673,67	1650,66
673,85	1763,30
674,04	1726,44
674,23	1712,10
674,41	1845,22
674,60	1673,19
674,79	1636,33
674,97	1685,48
675,16	1681,38
675,34	1781,73
675,53	1667,05
675,72	1845,22
675,90	1771,49
676,09	1742,82
676,28	1703,91
676,46	1640,42
676,65	1691,62
676,83	1708,01
677,02	1695,72
677,21	1714,15
677,39	1710,05
677,58	1646,57
677,77	1705,96
677,95	1615,85
678,14	1669,09
678,32	1710,05
678,51	1662,95
678,70	1832,93
678,88	1730,53
679,07	1746,92
679,25	1693,67
679,44	1701,86
679,63	1650,66
679,81	1705,96
680,00	1796,07
680,18	1740,77
680,37	1855,46
680,55	1705,96
680,74	1578,98
680,93	1607,66
681,11	1748,97
681,30	1658,85
681,48	1767,40
681,67	1667,05
681,85	1748,97
682,04	1708,01
682,23	1802,21
682,41	1744,87
682,60	1601,51
682,78	1619,94
682,97	1615,85
683,15	1708,01
683,34	1638,38
683,53	1755,11
683,71	1667,05
683,90	1810,40
684,08	1720,29
684,27	1656,81
684,45	1755,11
684,64	1775,59
684,82	1621,99
685,01	1728,49
685,19	1787,88
685,38	1773,54
685,57	1658,85
685,75	1640,42
685,94	1691,62
686,12	1628,14
686,31	1693,67
686,49	1697,77
686,68	1624,04
686,86	1714,15
687,05	1740,77
687,23	1734,63
687,42	1660,90
687,60	1634,28
687,79	1775,59
687,97	1767,40
688,16	1697,77
688,34	1730,53
688,53	1585,13
688,71	1726,44
688,90	1708,01
689,08	1708,01
689,27	1613,80
689,45	1722,34
689,64	1832,93
689,82	1734,63
690,01	1738,73
690,19	1685,48
690,38	1767,40
690,56	1765,35
690,75	1697,77
690,93	1712,10
691,12	1683,43
691,30	1697,77
691,49	1619,94
691,67	1730,53
691,86	1791,97
692,04	1703,91
692,23	1599,46
692,41	1662,95
692,60	1783,78
692,78	1822,69
692,97	1691,62
693,15	1771,49
693,34	1861,60
693,52	1740,77
693,71	1720,29
693,89	1693,67
694,08	1601,51
694,26	1794,02
694,44	1714,15
694,63	1638,38
694,81	1699,81
695,00	1613,80
695,18	1685,48
695,37	1777,64
695,55	1734,63
695,74	1703,91
695,92	1699,81
696,10	1810,40
696,29	1691,62
696,47	1699,81
696,66	1640,42
696,84	1675,24
697,03	1679,33
697,21	1871,84
697,40	2351,07
697,58	1824,74
697,76	1644,52
697,95	1628,14
698,13	1673,19
698,32	1624,04
698,50	1738,73
698,68	1705,96
698,87	1695,72
699,05	1839,08
699,24	1697,77
699,42	1671,14
699,61	1656,81
699,79	1730,53
699,97	1855,46
700,16	1621,99
700,34	1665,00
700,53	1718,25
700,71	1751,01
700,89	1765,35
701,08	1656,81
701,26	1751,01
701,45	2045,92
701,63	1601,51
701,81	1687,53
702,00	1673,19
702,18	1665,00
702,37	1634,28
702,55	1763,30
702,73	1755,11
702,92	1611,75
703,10	1759,21
703,28	1722,34
703,47	1736,68
703,65	1710,05
703,84	1837,03
704,02	1646,57
704,20	1804,26
704,39	1675,24
704,57	1683,43
704,75	1794,02
704,94	1759,21
705,12	1726,44
705,30	1783,78
705,49	2195,42
705,67	4448,19
705,86	9480,05
706,04	12635,97
706,22	14516,00
706,41	15728,40
706,59	14292,77
706,77	9906,02
706,96	7378,83
707,14	6690,71
707,32	6098,85
707,51	5638,06
707,69	4794,29
707,87	4245,44
708,06	3594,19
708,24	2981,84
708,42	2467,80
708,61	2295,77
708,79	1875,94
708,97	1828,84
709,16	1777,64
709,34	1779,68
709,52	1730,53
709,71	1759,21
709,89	1761,25
710,07	1716,20
710,26	1652,71
710,44	1781,73
710,62	1779,68
710,80	1755,11
710,99	1689,57
711,17	1746,92
711,35	1677,29
711,54	1720,29
711,72	1773,54
711,90	1796,07
712,09	1619,94
712,27	1617,90
712,45	1685,48
712,63	1703,91
712,82	1677,29
713,00	1722,34
713,18	1697,77
713,37	1779,68
713,55	1734,63
713,73	1755,11
713,91	1660,90
714,10	1738,73
714,28	1732,58
714,46	1773,54
714,65	1697,77
714,83	1763,30
715,01	1755,11
715,19	1615,85
715,38	1609,70
715,56	1703,91
715,74	1708,01
715,92	1665,00
716,11	1742,82
716,29	1656,81
716,47	1728,49
716,65	1685,48
716,84	1677,29
717,02	1765,35
717,20	1685,48
717,38	1658,85
717,57	1736,68
717,75	1742,82
717,93	1642,47
718,11	1662,95
718,30	1652,71
718,48	1777,64
718,66	1767,40
718,84	1736,68
719,03	1732,58
719,21	1636,33
719,39	1781,73
719,57	1732,58
719,75	1748,97
719,94	1705,96
720,12	1650,66
720,30	1710,05
720,48	1787,88
720,67	1665,00
720,85	1632,23
721,03	1650,66
721,21	1607,66
721,39	1665,00
721,58	1763,30
721,76	1710,05
721,94	1669,09
722,12	1779,68
722,30	1804,26
722,49	1626,09
722,67	1753,06
722,85	1652,71
723,03	1656,81
723,21	1617,90
723,40	1730,53
723,58	1785,83
723,76	1777,64
723,94	1691,62
724,12	1667,05
724,30	1712,10
724,49	1683,43
724,67	1630,18
724,85	1730,53
725,03	1679,33
725,21	1726,44
725,40	1716,20
725,58	1617,90
725,76	1806,31
725,94	1724,39
726,12	1572,84
726,30	1636,33
726,49	1705,96
726,67	1687,53
726,85	1742,82
727,03	1785,83
727,21	2170,85
727,39	2906,07
727,57	3876,80
727,76	4169,66
727,94	4503,48
728,12	4356,03
728,30	3594,19
728,48	3067,86
728,66	2736,09
728,84	2527,19
729,03	2308,06
729,21	2220,00
729,39	1978,34
729,57	1910,75
729,75	1857,51
729,93	1775,59
730,11	1650,66
730,30	1626,09
730,48	1759,21
730,66	1757,16
730,84	1779,68
731,02	1644,52
731,20	1710,05
731,38	1744,87
731,56	1605,61
731,74	1681,38
731,93	1746,92
732,11	1744,87
732,29	1679,33
732,47	1802,21
732,65	1730,53
732,83	1785,83
733,01	1693,67
733,19	1636,33
733,37	1751,01
733,56	1736,68
733,74	1681,38
733,92	1779,68
734,10	1679,33
734,28	1834,98
734,46	1644,52
734,64	1712,10
734,82	1710,05
735,00	1673,19
735,18	1710,05
735,36	1669,09
735,54	1734,63
735,73	1751,01
735,91	1650,66
736,09	1802,21
736,27	1671,14
736,45	1726,44
736,63	1634,28
736,81	1669,09
736,99	1779,68
737,17	1767,40
737,35	1667,05
737,53	1697,77
737,71	1689,57
737,89	1693,67
738,07	1644,52
738,25	1644,52
738,43	1572,84
738,61	1722,34
738,80	1599,46
738,98	1648,61
739,16	1624,04
739,34	1759,21
739,52	1744,87
739,70	1628,14
739,88	1699,81
740,06	1769,44
740,24	1640,42
740,42	1724,39
740,60	1566,70
740,78	1609,70
740,96	1607,66
741,14	1636,33
741,32	1650,66
741,50	1673,19
741,68	1834,98
741,86	1751,01
742,04	1685,48
742,22	1712,10
742,40	1673,19
742,58	1695,72
742,76	1624,04
742,94	1705,96
743,12	1593,32
743,30	1730,53
743,48	1705,96
743,66	1654,76
743,84	1773,54
744,02	1650,66
744,20	1693,67
744,38	1621,99
744,56	1640,42
744,74	1787,88
744,92	1675,24
745,10	1771,49
745,28	1748,97
745,46	1789,92
745,64	1677,29
745,82	1734,63
746,00	1597,42
746,18	1626,09
746,36	1712,10
746,54	1662,95
746,72	1691,62
746,90	1677,29
747,08	1785,83
747,26	1726,44
747,44	1783,78
747,62	1722,34
747,80	1714,15
747,98	1755,11
748,15	1679,33
748,33	1757,16
748,51	1708,01
748,69	1779,68
748,87	1632,23
749,05	1638,38
749,23	1687,53
749,41	1683,43
749,59	1697,77
749,77	1759,21
749,95	1671,14
750,13	1705,96
750,31	1751,01
750,49	1728,49
750,67	1724,39
750,85	1796,07
751,03	1755,11
751,20	1775,59
751,38	1689,57
751,56	1669,09
751,74	1701,86
751,92	1691,62
752,10	1619,94
752,28	1820,64
752,46	1636,33
752,64	1748,97
752,82	1689,57
753,00	1675,24
753,18	1638,38
753,35	1779,68
753,53	1677,29
753,71	1667,05
753,89	1724,39
754,07	1716,20
754,25	1736,68
754,43	1716,20
754,61	1615,85
754,79	1716,20
754,97	1689,57
755,14	1757,16
755,32	1619,94
755,50	1714,15
755,68	1687,53
755,86	1648,61
756,04	1714,15
756,22	1585,13
756,40	1722,34
756,57	1812,45
756,75	1683,43
756,93	1726,44
757,11	1806,31
757,29	1646,57
757,47	1626,09
757,65	1638,38
757,82	1556,46
758,00	1673,19
758,18	1628,14
758,36	1685,48
758,54	1839,08
758,72	1615,85
758,90	1744,87
759,07	1667,05
759,25	1595,37
759,43	1695,72
759,61	1595,37
759,79	2152,42
759,97	1708,01
760,15	1665,00
760,32	1765,35
760,50	1689,57
760,68	1822,69
760,86	1638,38
761,04	1767,40
761,22	1742,82
761,39	1697,77
761,57	1650,66
761,75	1769,44
761,93	1732,58
762,11	1681,38
762,28	1742,82
762,46	1644,52
762,64	1736,68
762,82	1673,19
763,00	1734,63
763,18	1796,07
763,35	1677,29
763,53	1667,05
763,71	1744,87
763,89	1748,97
764,07	1705,96
764,24	1722,34
764,42	1757,16
764,60	1650,66
764,78	1718,25
764,96	1712,10
765,13	1712,10
765,31	1718,25
765,49	1789,92
765,67	1585,13
765,84	1640,42
766,02	1677,29
766,20	1658,85
766,38	1771,49
766,56	1802,21
766,73	1800,16
766,91	1648,61
767,09	1732,58
767,27	1808,36
767,44	1640,42
767,62	1775,59
767,80	1746,92
767,98	1646,57
768,15	1757,16
768,33	1730,53
768,51	1779,68
768,69	1738,73
768,87	1714,15
769,04	1816,55
769,22	1794,02
769,40	1755,11
769,58	1773,54
769,75	1716,20
769,93	1765,35
770,11	1710,05
770,28	1626,09
770,46	1746,92
770,64	1806,31
770,82	1712,10
770,99	1734,63
771,17	1785,83
771,35	1693,67
771,53	1685,48
771,70	1687,53
771,88	1753,06
772,06	1775,59
772,23	1748,97
772,41	1691,62
772,59	1695,72
772,77	1648,61
772,94	1679,33
773,12	1644,52
773,30	1695,72
773,47	1634,28
773,65	1615,85
773,83	1755,11
774,01	1636,33
774,18	1591,27
774,36	1656,81
774,54	1558,50
774,71	1705,96
774,89	1648,61
775,07	1617,90
775,24	1691,62
775,42	1632,23
775,60	1751,01
775,78	1642,47
775,95	1619,94
776,13	1624,04
776,31	1609,70
776,48	1665,00
776,66	1761,25
776,84	1701,86
777,01	1701,86
777,19	1665,00
777,37	1716,20
777,54	1734,63
777,72	1779,68
777,90	1742,82
778,07	1683,43
778,25	1912,80
778,43	1683,43
778,60	1632,23
778,78	1783,78
778,96	1724,39
779,13	1554,41
779,31	1730,53
779,49	1677,29
779,66	1720,29
779,84	1617,90
780,01	1785,83
780,19	1656,81
780,37	1753,06
780,54	1744,87
780,72	1621,99
780,90	1638,38
781,07	1722,34
781,25	1744,87
781,43	1757,16
781,60	1640,42
781,78	1853,41
781,95	1763,30
782,13	1660,90
782,31	1701,86
782,48	1533,93
782,66	1656,81
782,83	1718,25
783,01	1769,44
783,19	1779,68
783,36	1699,81
783,54	1607,66
783,72	1712,10
783,89	1662,95
784,07	1638,38
784,24	1687,53
784,42	1705,96
784,60	1607,66
784,77	1763,30
784,95	1619,94
785,12	1648,61
785,30	1740,77
785,47	1658,85
785,65	1662,95
785,83	1671,14
786,00	1669,09
786,18	1652,71
786,35	1628,14
786,53	1691,62
786,71	1742,82
786,88	1751,01
787,06	1693,67
787,23	1744,87
787,41	1607,66
787,58	1681,38
787,76	1640,42
787,94	1658,85
788,11	1710,05
788,29	1640,42
788,46	1708,01
788,64	1574,89
788,81	1691,62
788,99	1650,66
789,16	1613,80
789,34	1712,10
789,52	1648,61
789,69	1646,57
789,87	1593,32
790,04	1617,90
790,22	1697,77
790,39	1812,45
790,57	1656,81
790,74	1724,39
790,92	1755,11
791,09	1591,27
791,27	1638,38
791,44	1822,69
791,62	1689,57
791,79	1773,54
791,97	1755,11
792,15	1937,38
792,32	1769,44
792,50	1687,53
792,67	1734,63
792,85	1804,26
793,02	1775,59
793,20	1708,01
793,37	1638,38
793,55	1718,25
793,72	1591,27
793,90	1742,82
794,07	1644,52
794,25	1654,76
794,42	1687,53
794,60	1660,90
794,77	1689,57
794,95	1665,00
795,12	1703,91
795,30	1642,47
795,47	1685,48
795,65	1808,36
795,82	1652,71
796,00	1650,66
796,17	1634,28
796,34	1648,61
796,52	1669,09
796,69	1738,73
796,87	1705,96
797,04	1687,53
797,22	1771,49
797,39	1787,88
797,57	1640,42
797,74	1722,34
797,92	1755,11
798,09	1755,11
798,27	1767,40
798,44	1734,63
798,62	1673,19
798,79	1697,77
798,96	1734,63
799,14	1628,14
799,31	1814,50
799,49	1681,38
799,66	1650,66
799,84	1771,49
800,01	1609,70
800,19	1669,09
800,36	1587,18
800,53	1716,20
800,71	1718,25
800,88	1765,35
801,06	1699,81
801,23	1720,29
801,41	1671,14
801,58	1626,09
801,75	1675,24
801,93	1732,58
802,10	1687,53
802,28	1615,85
802,45	1677,29
802,63	1714,15
802,80	1734,63
802,97	1681,38
803,15	1742,82
803,32	1681,38
803,50	1671,14
803,67	1626,09
803,84	1640,42
804,02	1734,63
804,19	1691,62
804,37	1552,36
804,54	1683,43
804,71	1714,15
804,89	1722,34
805,06	1615,85
805,24	1658,85
805,41	1689,57
805,58	1611,75
805,76	1785,83
805,93	1605,61
806,10	1794,02
806,28	1753,06
806,45	1794,02
806,63	1734,63
806,80	1642,47
806,97	1787,88
807,15	1681,38
807,32	1677,29
807,49	1587,18
807,67	1617,90
807,84	1712,10
808,01	1621,99
808,19	1830,88
808,36	1839,08
808,54	1701,86
808,71	1685,48
808,88	1691,62
809,06	1667,05
809,23	1779,68
809,40	1746,92
809,58	1769,44
809,75	1730,53
809,92	1683,43
810,10	1787,88
810,27	1628,14
810,44	1669,09
810,62	1751,01
810,79	1675,24
810,96	1677,29
811,14	1656,81
811,31	1722,34
811,48	1671,14
811,66	1748,97
811,83	1763,30
812,00	1712,10
812,18	1658,85
812,35	1857,51
812,52	1656,81
812,69	1712,10
812,87	1701,86
813,04	1693,67
813,21	1722,34
813,39	1730,53
813,56	1640,42
813,73	1794,02
813,91	1574,89
814,08	1675,24
814,25	1648,61
814,42	1576,94
814,60	1589,22
814,77	1697,77
814,94	1654,76
815,12	1685,48
815,29	1761,25
815,46	1687,53
815,63	1617,90
815,81	1730,53
815,98	1695,72
816,15	1697,77
816,33	1728,49
816,50	1648,61
816,67	1660,90
816,84	1693,67
817,02	1656,81
817,19	1660,90
817,36	1636,33
817,53	1730,53
817,71	1642,47
817,88	1748,97
818,05	1714,15
818,22	1656,81
818,40	1773,54
818,57	1638,38
818,74	1726,44
818,91	1636,33
819,09	1746,92
819,26	1845,22
819,43	1607,66
819,60	1685,48
819,78	1734,63
819,95	1789,92
820,12	1675,24
820,29	1699,81
820,47	1716,20
820,64	1660,90
820,81	1640,42
820,98	1656,81
821,15	1617,90
821,33	1697,77
821,50	1648,61
821,67	1658,85
821,84	1632,23
822,02	1619,94
822,19	1761,25
822,36	1628,14
822,53	1695,72
822,70	1687,53
822,88	1761,25
823,05	1746,92
823,22	1724,39
823,39	1761,25
823,56	1791,97
823,74	1751,01
823,91	1628,14
824,08	1640,42
824,25	1630,18
824,42	1763,30
824,60	1669,09
824,77	1722,34
824,94	1687,53
825,11	1746,92
825,28	1560,55
825,45	1675,24
825,63	1701,86
825,80	1660,90
825,97	1701,86
826,14	1685,48
826,31	1593,32
826,48	1703,91
826,66	1703,91
826,83	1708,01
827,00	1710,05
827,17	1673,19
827,34	1679,33
827,51	1660,90
827,69	1603,56
827,86	1601,51
828,03	1691,62
828,20	1695,72
828,37	1714,15
828,54	1705,96
828,71	1685,48
828,89	1783,78
829,06	1726,44
829,23	1851,36
829,40	1626,09
829,57	1621,99
829,74	1783,78
829,91	1644,52
830,09	1640,42
830,26	1771,49
830,43	1796,07
830,60	1693,67
830,77	1781,73
830,94	1779,68
831,11	1685,48
831,28	1714,15
831,46	1746,92
831,63	1658,85
831,80	1699,81
831,97	1662,95
832,14	1624,04
832,31	1693,67
832,48	1767,40
832,65	1779,68
832,82	1736,68
832,99	1757,16
833,17	1734,63
833,34	1818,60
833,51	1695,72
833,68	1595,37
833,85	1761,25
834,02	1640,42
834,19	1681,38
834,36	1636,33
834,53	1708,01
834,70	1740,77
834,87	1720,29
835,04	1708,01
835,22	1710,05
835,39	1656,81
835,56	1603,56
835,73	1640,42
835,90	1665,00
836,07	1626,09
836,24	1738,73
836,41	1656,81
836,58	1640,42
836,75	1712,10
836,92	1761,25
837,09	1656,81
837,26	1703,91
837,43	1738,73
837,60	1730,53
837,77	1685,48
837,94	1771,49
838,12	1753,06
838,29	1677,29
838,46	1665,00
838,63	1583,08
838,80	1775,59
838,97	1728,49
839,14	1679,33
839,31	1689,57
839,48	1730,53
839,65	1677,29
839,82	1732,58
839,99	1691,62
840,16	1667,05
840,33	1656,81
840,50	1626,09
840,67	1646,57
840,84	1572,84
841,01	1789,92
841,18	1617,90
841,35	1681,38
841,52	1771,49
841,69	1796,07
841,86	1708,01
842,03	1777,64
842,20	1777,64
842,37	1718,25
842,54	1714,15
842,71	1742,82
842,88	1617,90
843,05	1730,53
843,22	1660,90
843,39	1695,72
843,56	1667,05
843,73	1714,15
843,90	1654,76
844,07	1703,91
844,24	1701,86
844,41	1740,77
844,58	1705,96
844,75	1675,24
844,92	1751,01
845,09	1716,20
845,26	1621,99
845,43	1697,77
845,60	1591,27
845,77	1783,78
845,94	1720,29
846,10	1740,77
846,27	1681,38
846,44	1658,85
846,61	1624,04
846,78	1671,14
846,95	1816,55
847,12	1640,42
847,29	1732,58
847,46	1701,86
847,63	1667,05
847,80	1646,57
847,97	1714,15
848,14	1765,35
848,31	1685,48
848,48	1628,14
848,65	1681,38
848,82	1662,95
848,98	1863,65
849,15	1714,15
849,32	1898,47
849,49	1730,53
849,66	1660,90
849,83	1767,40
850,00	1572,84
850,17	1751,01
850,34	1650,66
850,51	1640,42
850,68	1650,66
850,85	1789,92
851,01	1734,63
851,18	1732,58
851,35	1671,14
851,52	1804,26
851,69	1751,01
851,86	1607,66
852,03	1609,70
852,20	1779,68
852,37	1679,33
852,53	1609,70
852,70	1660,90
852,87	1789,92
853,04	1810,40
853,21	1665,00
853,38	1703,91
853,55	1708,01
853,72	1728,49
853,89	1599,46
854,05	1634,28
854,22	1724,39
854,39	1634,28
854,56	1667,05
854,73	1751,01
854,90	1669,09
855,07	1697,77
855,23	1710,05
855,40	1712,10
855,57	1732,58
855,74	1552,36
855,91	1740,77
856,08	1626,09
856,25	1648,61
856,41	1658,85
856,58	1689,57
856,75	1726,44
856,92	1701,86
857,09	1759,21
857,26	1714,15
857,42	1656,81
857,59	1677,29
857,76	1691,62
857,93	1662,95
858,10	1705,96
858,27	1621,99
858,43	1732,58
858,60	1619,94
858,77	1630,18
858,94	1742,82
859,11	1783,78
859,27	1734,63
859,44	1675,24
859,61	1767,40
859,78	1740,77
859,95	1695,72
860,12	1677,29
860,28	1824,74
860,45	1810,40
860,62	1638,38
860,79	1718,25
860,95	1693,67
861,12	1642,47
861,29	1671,14
861,46	1607,66
861,63	1697,77
861,79	1656,81
861,96	1630,18
862,13	1624,04
862,30	1775,59
862,47	1673,19
862,63	1665,00
862,80	1693,67
862,97	1693,67
863,14	1705,96
863,30	1693,67
863,47	1681,38
863,64	1726,44
863,81	1751,01
863,97	1603,56
864,14	1675,24
864,31	1730,53
864,48	1738,73
864,65	1667,05
864,81	1724,39
864,98	1726,44
865,15	1810,40
865,32	1681,38
865,48	1757,16
865,65	1779,68
865,82	1671,14
865,98	1681,38
866,15	1791,97
866,32	1621,99
866,49	1662,95
866,65	1769,44
866,82	1599,46
866,99	1710,05
867,16	1621,99
867,32	1628,14
867,49	1712,10
867,66	1640,42
867,83	1650,66
867,99	1658,85
868,16	1738,73
868,33	1632,23
868,49	1673,19
868,66	1669,09
868,83	1724,39
868,99	1730,53
869,16	1673,19
869,33	1683,43
869,50	1753,06
869,66	1714,15
869,83	1665,00
870,00	1636,33
870,16	1746,92
870,33	1808,36
870,50	1746,92
870,66	1687,53
870,83	1820,64
871,00	1642,47
871,17	1734,63
871,33	1701,86
871,50	1726,44
871,67	1652,71
871,83	1607,66
872,00	1773,54
872,17	1693,67
872,33	1804,26
872,50	1699,81
872,67	1697,77
872,83	1689,57
873,00	1703,91
873,17	1685,48
873,33	1771,49
873,50	1738,73
873,67	1738,73
873,83	1656,81
874,00	1650,66
874,16	1712,10
874,33	1814,50
874,50	1646,57
874,66	1738,73
874,83	1656,81
875,00	1728,49
875,16	1783,78
875,33	1777,64
875,50	1615,85
875,66	1644,52
875,83	1691,62
875,99	1796,07
876,16	1714,15
876,33	1611,75
876,49	1683,43
876,66	1722,34
876,83	1669,09
876,99	1607,66
877,16	1697,77
877,32	1667,05
877,49	1699,81
877,66	1644,52
877,82	1800,16
877,99	1716,20
878,15	1734,63
878,32	1691,62
878,49	1671,14
878,65	1642,47
878,82	1726,44
878,98	1646,57
879,15	1746,92
879,32	1665,00
879,48	1810,40
879,65	1675,24
879,81	1728,49
879,98	1658,85
880,15	1601,51
880,31	1703,91
880,48	1708,01
880,64	1748,97
880,81	1699,81
880,97	1771,49
881,14	1722,34
881,31	1611,75
881,47	1839,08
881,64	1679,33
881,80	1607,66
881,97	1679,33
882,13	1718,25
882,30	1570,79
882,47	1667,05
882,63	1679,33
882,80	1658,85
882,96	1665,00
883,13	1759,21
883,29	1671,14
883,46	1681,38
883,62	1789,92
883,79	1687,53
883,95	1730,53
884,12	1705,96
884,29	1703,91
884,45	1675,24
884,62	1769,44
884,78	1587,18
884,95	1744,87
885,11	1720,29
885,28	1771,49
885,44	1683,43
885,61	1755,11
885,77	1724,39
885,94	1742,82
886,10	1738,73
886,27	1646,57
886,43	1810,40
886,60	1662,95
886,76	1714,15
886,93	1687,53
887,09	1697,77
887,26	1589,22
887,42	1708,01
887,59	1683,43
887,75	1796,07
887,92	1665,00
888,08	1748,97
888,25	1777,64
888,41	1710,05
888,58	1744,87
888,74	1605,61
888,91	1624,04
>>>>>End Processed Spectral Data<<<<<
