SpectraSuite Data File
++++++++++++++++++++++++++++++++++++
Date: Mon Jun 06 17:23:17 CEST 2016
User: root
Dark Spectrum Present: No
Reference Spectrum Present: No
Number of Sampled Component Spectra: 1
Spectrometers: USB4C02835
Integration Time (usec): 100000 (USB4C02835)
Spectra Averaged: 1 (USB4C02835)
Boxcar Smoothing: 0 (USB4C02835)
Correct for Electrical Dark: No (USB4C02835)
Strobe/Lamp Enabled: No (USB4C02835)
Correct for Detector Non-linearity: No (USB4C02835)
Correct for Stray Light: No (USB4C02835)
Number of Pixels in Processed Spectrum: 3648
>>>>>Begin Processed Spectral Data<<<<<
177,47	1478,63
177,69	1478,63
177,91	1478,63
178,13	1505,26
178,36	1517,54
178,58	1695,72
178,80	1695,72
179,02	1615,85
179,24	1695,72
179,46	1660,90
179,68	1773,54
179,90	1726,44
180,13	1697,77
180,35	1599,46
180,57	1732,58
180,79	1681,38
181,01	1681,38
181,23	1839,08
181,45	1804,26
181,67	1755,11
181,90	1767,40
182,12	1624,04
182,34	1634,28
182,56	1800,16
182,78	1810,40
183,00	1701,86
183,22	1751,01
183,44	1665,00
183,66	1800,16
183,89	1785,83
184,11	1691,62
184,33	1718,25
184,55	1830,88
184,77	1755,11
184,99	1699,81
185,21	1681,38
185,43	1818,60
185,65	1644,52
185,87	1695,72
186,10	1816,55
186,32	1845,22
186,54	1751,01
186,76	1705,96
186,98	1779,68
187,20	1640,42
187,42	1769,44
187,64	1757,16
187,86	1775,59
188,08	1656,81
188,30	1703,91
188,52	1665,00
188,75	1736,68
188,97	1800,16
189,19	1671,14
189,41	1722,34
189,63	1718,25
189,85	1665,00
190,07	1693,67
190,29	1705,96
190,51	1722,34
190,73	1677,29
190,95	1763,30
191,17	1730,53
191,39	1644,52
191,61	1660,90
191,84	1656,81
192,06	1691,62
192,28	1681,38
192,50	1818,60
192,72	1689,57
192,94	1671,14
193,16	1787,88
193,38	1791,97
193,60	1751,01
193,82	1724,39
194,04	1849,32
194,26	1730,53
194,48	1746,92
194,70	1628,14
194,92	1675,24
195,14	1718,25
195,36	1685,48
195,58	1673,19
195,80	1693,67
196,02	1648,61
196,24	1748,97
196,46	1652,71
196,69	1726,44
196,91	1908,71
197,13	1685,48
197,35	1705,96
197,57	1810,40
197,79	1705,96
198,01	1746,92
198,23	1796,07
198,45	1720,29
198,67	1681,38
198,89	1705,96
199,11	1783,78
199,33	1662,95
199,55	1609,70
199,77	1722,34
199,99	1794,02
200,21	1667,05
200,43	1787,88
200,65	1654,76
200,87	1585,13
201,09	1746,92
201,31	1695,72
201,53	1779,68
201,75	1798,12
201,97	1716,20
202,19	1648,61
202,41	1701,86
202,63	1861,60
202,85	1716,20
203,07	1720,29
203,29	1648,61
203,51	1619,94
203,73	1681,38
203,95	1853,41
204,17	1708,01
204,39	1755,11
204,61	1685,48
204,83	1671,14
205,05	1728,49
205,27	1724,39
205,49	1810,40
205,71	1718,25
205,93	1615,85
206,15	1730,53
206,37	1642,47
206,59	1736,68
206,81	1654,76
207,03	1652,71
207,25	1679,33
207,47	1734,63
207,69	1699,81
207,91	1818,60
208,13	1730,53
208,34	1687,53
208,56	1720,29
208,78	1722,34
209,00	1665,00
209,22	1730,53
209,44	1734,63
209,66	1689,57
209,88	1722,34
210,10	1615,85
210,32	1656,81
210,54	1832,93
210,76	1736,68
210,98	1726,44
211,20	1615,85
211,42	1722,34
211,64	1794,02
211,86	1753,06
212,08	1689,57
212,30	1687,53
212,52	1718,25
212,74	1685,48
212,96	1708,01
213,17	1779,68
213,39	1730,53
213,61	1794,02
213,83	1716,20
214,05	1640,42
214,27	1763,30
214,49	1617,90
214,71	1693,67
214,93	1730,53
215,15	1771,49
215,37	1763,30
215,59	1652,71
215,81	1806,31
216,03	1759,21
216,24	1681,38
216,46	1794,02
216,68	1751,01
216,90	1748,97
217,12	1742,82
217,34	1726,44
217,56	1804,26
217,78	1800,16
218,00	1673,19
218,22	1687,53
218,44	1730,53
218,66	1667,05
218,87	1771,49
219,09	1685,48
219,31	1779,68
219,53	1742,82
219,75	1624,04
219,97	1705,96
220,19	1751,01
220,41	1689,57
220,63	1779,68
220,85	1732,58
221,06	1718,25
221,28	1775,59
221,50	1720,29
221,72	1660,90
221,94	1734,63
222,16	1748,97
222,38	1794,02
222,60	1761,25
222,82	1644,52
223,03	1720,29
223,25	1669,09
223,47	1693,67
223,69	1853,41
223,91	1685,48
224,13	1667,05
224,35	1679,33
224,57	1773,54
224,78	1740,77
225,00	1677,29
225,22	1730,53
225,44	1740,77
225,66	1767,40
225,88	1697,77
226,10	1757,16
226,32	1693,67
226,53	1773,54
226,75	1714,15
226,97	1695,72
227,19	1748,97
227,41	1710,05
227,63	1755,11
227,85	1710,05
228,06	1744,87
228,28	1624,04
228,50	1771,49
228,72	1630,18
228,94	1759,21
229,16	1583,08
229,37	1662,95
229,59	1746,92
229,81	1789,92
230,03	1740,77
230,25	1634,28
230,47	1613,80
230,69	1677,29
230,90	1796,07
231,12	1671,14
231,34	1724,39
231,56	1816,55
231,78	1615,85
232,00	1679,33
232,21	1658,85
232,43	1667,05
232,65	1570,79
232,87	1781,73
233,09	1677,29
233,30	1701,86
233,52	1775,59
233,74	1634,28
233,96	1654,76
234,18	1738,73
234,40	1742,82
234,61	1824,74
234,83	1669,09
235,05	1617,90
235,27	1877,99
235,49	1763,30
235,70	1744,87
235,92	1812,45
236,14	1763,30
236,36	1869,80
236,58	1697,77
236,79	1757,16
237,01	1730,53
237,23	1675,24
237,45	1804,26
237,67	1646,57
237,88	1671,14
238,10	1824,74
238,32	1695,72
238,54	1722,34
238,76	1744,87
238,97	1699,81
239,19	1699,81
239,41	1746,92
239,63	1814,50
239,85	1712,10
240,06	1716,20
240,28	1738,73
240,50	1691,62
240,72	1683,43
240,93	1718,25
241,15	1789,92
241,37	1722,34
241,59	1796,07
241,81	1708,01
242,02	1681,38
242,24	1728,49
242,46	1730,53
242,68	1753,06
242,89	1748,97
243,11	1742,82
243,33	1728,49
243,55	1644,52
243,76	1748,97
243,98	1566,70
244,20	1742,82
244,42	1681,38
244,64	1671,14
244,85	1652,71
245,07	1691,62
245,29	1769,44
245,51	1722,34
245,72	1730,53
245,94	1822,69
246,16	1720,29
246,38	1732,58
246,59	1787,88
246,81	1708,01
247,03	1781,73
247,24	1624,04
247,46	1673,19
247,68	1716,20
247,90	1722,34
248,11	1677,29
248,33	1791,97
248,55	1714,15
248,77	1683,43
248,98	1785,83
249,20	1757,16
249,42	1720,29
249,64	1714,15
249,85	1691,62
250,07	1728,49
250,29	1816,55
250,50	1759,21
250,72	1603,56
250,94	1806,31
251,16	1800,16
251,37	1800,16
251,59	1722,34
251,81	1677,29
252,02	1781,73
252,24	1689,57
252,46	1800,16
252,68	1630,18
252,89	1650,66
253,11	1607,66
253,33	1773,54
253,54	1738,73
253,76	1656,81
253,98	1724,39
254,20	1705,96
254,41	1675,24
254,63	1669,09
254,85	1628,14
255,06	1742,82
255,28	1777,64
255,50	1724,39
255,71	1789,92
255,93	1660,90
256,15	1755,11
256,36	1755,11
256,58	1675,24
256,80	1808,36
257,02	1689,57
257,23	1787,88
257,45	1724,39
257,67	1701,86
257,88	1626,09
258,10	1710,05
258,32	1755,11
258,53	1755,11
258,75	1771,49
258,97	1671,14
259,18	1730,53
259,40	1796,07
259,62	1816,55
259,83	1787,88
260,05	1710,05
260,27	1970,15
260,48	1775,59
260,70	1701,86
260,92	1722,34
261,13	1734,63
261,35	1726,44
261,57	1710,05
261,78	1605,61
262,00	1701,86
262,22	1710,05
262,43	1726,44
262,65	1662,95
262,86	1746,92
263,08	1861,60
263,30	1722,34
263,51	1660,90
263,73	1728,49
263,95	1773,54
264,16	1689,57
264,38	1687,53
264,60	1691,62
264,81	1738,73
265,03	1718,25
265,25	1751,01
265,46	1744,87
265,68	1787,88
265,89	1839,08
266,11	1675,24
266,33	1746,92
266,54	1816,55
266,76	1718,25
266,98	1800,16
267,19	1808,36
267,41	1712,10
267,62	1759,21
267,84	1585,13
268,06	1763,30
268,27	1724,39
268,49	1791,97
268,70	1789,92
268,92	1687,53
269,14	1636,33
269,35	1626,09
269,57	1656,81
269,79	1699,81
270,00	1650,66
270,22	1771,49
270,43	1689,57
270,65	1624,04
270,87	1662,95
271,08	1679,33
271,30	1744,87
271,51	1722,34
271,73	1742,82
271,95	1785,83
272,16	1726,44
272,38	1660,90
272,59	1681,38
272,81	1722,34
273,02	1818,60
273,24	1708,01
273,46	1712,10
273,67	1642,47
273,89	1656,81
274,10	1722,34
274,32	1732,58
274,54	1738,73
274,75	1736,68
274,97	1763,30
275,18	1716,20
275,40	1812,45
275,61	1705,96
275,83	1693,67
276,05	1736,68
276,26	1693,67
276,48	1681,38
276,69	1642,47
276,91	1708,01
277,12	1783,78
277,34	1722,34
277,55	1746,92
277,77	1757,16
277,99	1728,49
278,20	1660,90
278,42	1685,48
278,63	1628,14
278,85	1656,81
279,06	1632,23
279,28	1705,96
279,49	1744,87
279,71	1728,49
279,93	1755,11
280,14	1779,68
280,36	1642,47
280,57	1646,57
280,79	1787,88
281,00	1783,78
281,22	1662,95
281,43	1820,64
281,65	1542,12
281,86	1658,85
282,08	1800,16
282,29	1765,35
282,51	1695,72
282,73	1693,67
282,94	1619,94
283,16	1714,15
283,37	1802,21
283,59	1685,48
283,80	1773,54
284,02	1644,52
284,23	1765,35
284,45	1640,42
284,66	1705,96
284,88	1699,81
285,09	1689,57
285,31	1656,81
285,52	1675,24
285,74	1683,43
285,95	1751,01
286,17	1730,53
286,38	1830,88
286,60	1703,91
286,81	1746,92
287,03	1753,06
287,24	1673,19
287,46	1767,40
287,67	1742,82
287,89	1806,31
288,10	1742,82
288,32	1665,00
288,53	1820,64
288,75	1687,53
288,96	1775,59
289,18	1691,62
289,39	1628,14
289,61	1775,59
289,82	1812,45
290,04	1867,75
290,25	1705,96
290,47	1738,73
290,68	1650,66
290,90	1873,89
291,11	1603,56
291,33	1748,97
291,54	1681,38
291,76	1650,66
291,97	1708,01
292,18	1728,49
292,40	1667,05
292,61	1722,34
292,83	1849,32
293,04	1763,30
293,26	1796,07
293,47	1705,96
293,69	1603,56
293,90	1691,62
294,12	1851,36
294,33	1724,39
294,55	1683,43
294,76	1804,26
294,97	1816,55
295,19	1818,60
295,40	1689,57
295,62	1734,63
295,83	1693,67
296,05	1660,90
296,26	1753,06
296,48	1720,29
296,69	1718,25
296,90	1742,82
297,12	1716,20
297,33	1796,07
297,55	1761,25
297,76	1806,31
297,98	1732,58
298,19	1730,53
298,41	1730,53
298,62	1667,05
298,83	1751,01
299,05	1738,73
299,26	1656,81
299,48	1642,47
299,69	1773,54
299,90	1724,39
300,12	1669,09
300,33	1773,54
300,55	1699,81
300,76	1742,82
300,98	1660,90
301,19	1728,49
301,40	1703,91
301,62	1761,25
301,83	1728,49
302,05	1785,83
302,26	1695,72
302,47	1783,78
302,69	1574,89
302,90	1691,62
303,12	1652,71
303,33	1724,39
303,54	1841,12
303,76	1621,99
303,97	1687,53
304,19	1785,83
304,40	1671,14
304,61	1718,25
304,83	1794,02
305,04	1734,63
305,26	1722,34
305,47	1636,33
305,68	1716,20
305,90	1718,25
306,11	1755,11
306,33	1710,05
306,54	1656,81
306,75	1654,76
306,97	1607,66
307,18	1734,63
307,39	1755,11
307,61	1753,06
307,82	1691,62
308,04	1794,02
308,25	1701,86
308,46	1726,44
308,68	1744,87
308,89	1708,01
309,10	1751,01
309,32	1710,05
309,53	1740,77
309,74	1683,43
309,96	1738,73
310,17	1796,07
310,39	1626,09
310,60	1714,15
310,81	1699,81
311,03	1660,90
311,24	1759,21
311,45	1656,81
311,67	1787,88
311,88	1722,34
312,09	1683,43
312,31	1671,14
312,52	1744,87
312,73	1724,39
312,95	1626,09
313,16	1665,00
313,37	1834,98
313,59	1812,45
313,80	1738,73
314,01	1794,02
314,23	1710,05
314,44	1628,14
314,65	1632,23
314,87	1701,86
315,08	1730,53
315,29	1671,14
315,51	1703,91
315,72	1691,62
315,93	1898,47
316,15	1771,49
316,36	1671,14
316,57	1740,77
316,79	1736,68
317,00	1763,30
317,21	1796,07
317,43	1662,95
317,64	1673,19
317,85	1726,44
318,07	1687,53
318,28	1804,26
318,49	1816,55
318,70	1886,18
318,92	1869,80
319,13	1812,45
319,34	1873,89
319,56	1808,36
319,77	1812,45
319,98	1779,68
320,20	1791,97
320,41	1722,34
320,62	1767,40
320,83	1691,62
321,05	1880,04
321,26	1804,26
321,47	1724,39
321,69	1781,73
321,90	1570,79
322,11	1697,77
322,32	1701,86
322,54	1806,31
322,75	1671,14
322,96	1902,56
323,18	1669,09
323,39	1529,83
323,60	1681,38
323,81	1755,11
324,03	1708,01
324,24	1728,49
324,45	1773,54
324,66	1705,96
324,88	1789,92
325,09	1869,80
325,30	1732,58
325,52	1718,25
325,73	1720,29
325,94	1714,15
326,15	1677,29
326,37	1679,33
326,58	1714,15
326,79	1802,21
327,00	1738,73
327,22	1767,40
327,43	1667,05
327,64	1705,96
327,85	1779,68
328,07	1685,48
328,28	1824,74
328,49	1722,34
328,70	1705,96
328,92	1755,11
329,13	1648,61
329,34	1742,82
329,55	1804,26
329,76	1730,53
329,98	1671,14
330,19	1667,05
330,40	1746,92
330,61	1712,10
330,83	1759,21
331,04	1652,71
331,25	1755,11
331,46	1681,38
331,68	1714,15
331,89	1771,49
332,10	1746,92
332,31	1687,53
332,52	1726,44
332,74	1763,30
332,95	1675,24
333,16	1773,54
333,37	1744,87
333,58	1695,72
333,80	1683,43
334,01	1718,25
334,22	1714,15
334,43	1669,09
334,64	1613,80
334,86	1679,33
335,07	1642,47
335,28	1806,31
335,49	1648,61
335,70	1804,26
335,92	1828,84
336,13	1822,69
336,34	1759,21
336,55	1685,48
336,76	1767,40
336,98	1550,31
337,19	1693,67
337,40	1826,79
337,61	1818,60
337,82	1701,86
338,04	1699,81
338,25	1597,42
338,46	1744,87
338,67	1699,81
338,88	1689,57
339,09	1648,61
339,31	1650,66
339,52	1634,28
339,73	1644,52
339,94	1656,81
340,15	1736,68
340,36	1634,28
340,58	1773,54
340,79	1656,81
341,00	1677,29
341,21	1593,32
341,42	1855,46
341,63	1691,62
341,85	1763,30
342,06	1732,58
342,27	1695,72
342,48	1810,40
342,69	1669,09
342,90	1816,55
343,12	1806,31
343,33	1675,24
343,54	1718,25
343,75	1800,16
343,96	1777,64
344,17	1632,23
344,38	1701,86
344,60	1677,29
344,81	1636,33
345,02	1695,72
345,23	1748,97
345,44	1820,64
345,65	1722,34
345,86	1751,01
346,07	1705,96
346,29	1677,29
346,50	1761,25
346,71	1746,92
346,92	1871,84
347,13	1853,41
347,34	1779,68
347,55	1685,48
347,76	1669,09
347,98	1619,94
348,19	1681,38
348,40	1834,98
348,61	1646,57
348,82	1812,45
349,03	1820,64
349,24	1632,23
349,45	1826,79
349,66	1587,18
349,88	1701,86
350,09	1632,23
350,30	1808,36
350,51	1824,74
350,72	1693,67
350,93	1691,62
351,14	1665,00
351,35	1730,53
351,56	1695,72
351,77	1763,30
351,99	1736,68
352,20	1857,51
352,41	1783,78
352,62	1654,76
352,83	1738,73
353,04	1681,38
353,25	1716,20
353,46	1824,74
353,67	1814,50
353,88	1675,24
354,09	1671,14
354,30	1789,92
354,52	1744,87
354,73	1736,68
354,94	1671,14
355,15	1773,54
355,36	1763,30
355,57	1689,57
355,78	1763,30
355,99	1714,15
356,20	1660,90
356,41	1824,74
356,62	1755,11
356,83	1701,86
357,04	1748,97
357,25	1673,19
357,46	1730,53
357,68	1601,51
357,89	1656,81
358,10	1679,33
358,31	1681,38
358,52	1654,76
358,73	1595,37
358,94	1689,57
359,15	1667,05
359,36	1716,20
359,57	1691,62
359,78	1685,48
359,99	1699,81
360,20	1632,23
360,41	1708,01
360,62	1824,74
360,83	1734,63
361,04	1751,01
361,25	1736,68
361,46	1775,59
361,67	1753,06
361,88	1785,83
362,09	1744,87
362,30	1855,46
362,51	1656,81
362,72	1656,81
362,93	1773,54
363,14	1796,07
363,35	1705,96
363,56	1687,53
363,78	1765,35
363,99	1751,01
364,20	1681,38
364,41	1781,73
364,62	1849,32
364,83	1658,85
365,04	1767,40
365,25	1755,11
365,46	1839,08
365,67	1691,62
365,88	1689,57
366,09	1697,77
366,30	1683,43
366,51	1708,01
366,72	1630,18
366,93	1693,67
367,14	1751,01
367,35	1804,26
367,56	1673,19
367,77	1783,78
367,98	1724,39
368,18	1755,11
368,39	1710,05
368,60	1722,34
368,81	1791,97
369,02	1693,67
369,23	1710,05
369,44	1624,04
369,65	1722,34
369,86	1769,44
370,07	1724,39
370,28	1683,43
370,49	1753,06
370,70	1767,40
370,91	1697,77
371,12	1691,62
371,33	1724,39
371,54	1701,86
371,75	1763,30
371,96	1538,02
372,17	1650,66
372,38	1755,11
372,59	1781,73
372,80	1703,91
373,01	1693,67
373,22	1769,44
373,43	1720,29
373,64	1685,48
373,85	1787,88
374,06	1888,23
374,26	1794,02
374,47	1720,29
374,68	1796,07
374,89	1662,95
375,10	1636,33
375,31	1744,87
375,52	1697,77
375,73	1689,57
375,94	1652,71
376,15	1714,15
376,36	1658,85
376,57	1693,67
376,78	1693,67
376,99	1742,82
377,20	1744,87
377,40	1619,94
377,61	1816,55
377,82	1710,05
378,03	1818,60
378,24	1796,07
378,45	1728,49
378,66	1681,38
378,87	1642,47
379,08	1632,23
379,29	1734,63
379,50	1736,68
379,71	1714,15
379,91	1740,77
380,12	1699,81
380,33	1730,53
380,54	1718,25
380,75	1761,25
380,96	1732,58
381,17	1791,97
381,38	1738,73
381,59	1808,36
381,80	1726,44
382,00	1828,84
382,21	1765,35
382,42	1814,50
382,63	1857,51
382,84	1812,45
383,05	1810,40
383,26	1832,93
383,47	1683,43
383,68	1796,07
383,88	1755,11
384,09	1716,20
384,30	1800,16
384,51	1783,78
384,72	1675,24
384,93	1638,38
385,14	1728,49
385,35	1708,01
385,55	1568,74
385,76	1798,12
385,97	1693,67
386,18	1687,53
386,39	1683,43
386,60	1691,62
386,81	1726,44
387,02	1681,38
387,22	1685,48
387,43	1804,26
387,64	1779,68
387,85	1855,46
388,06	2236,38
388,27	4237,25
388,48	6746,01
388,68	8210,31
388,89	9623,41
389,10	9826,15
389,31	8669,05
389,52	7669,64
389,73	6754,20
389,93	6231,97
390,14	6010,79
390,35	5351,34
390,56	4720,57
390,77	3786,69
390,98	2975,70
391,18	2484,19
391,39	2131,94
391,60	1861,60
391,81	1822,69
392,02	1703,91
392,23	1822,69
392,43	1693,67
392,64	1775,59
392,85	1687,53
393,06	1816,55
393,27	1777,64
393,47	1716,20
393,68	1714,15
393,89	1675,24
394,10	1716,20
394,31	1617,90
394,52	1644,52
394,72	1705,96
394,93	1810,40
395,14	1634,28
395,35	1755,11
395,56	1724,39
395,76	1757,16
395,97	1751,01
396,18	1849,32
396,39	1847,27
396,60	1980,39
396,80	1918,95
397,01	1832,93
397,22	1896,42
397,43	1837,03
397,64	1708,01
397,84	1783,78
398,05	1886,18
398,26	1744,87
398,47	1871,84
398,67	1796,07
398,88	1775,59
399,09	1732,58
399,30	1621,99
399,51	1724,39
399,71	1675,24
399,92	1724,39
400,13	1757,16
400,34	1742,82
400,54	1773,54
400,75	1828,84
400,96	1718,25
401,17	1820,64
401,37	1740,77
401,58	1669,09
401,79	1802,21
402,00	1898,47
402,21	2041,82
402,41	1986,53
402,62	1988,58
402,83	2090,98
403,04	1943,52
403,24	2029,54
403,45	1818,60
403,66	1992,67
403,87	1841,12
404,07	1855,46
404,28	1832,93
404,49	1894,37
404,70	1705,96
404,90	1751,01
405,11	1798,12
405,32	1736,68
405,52	1726,44
405,73	1640,42
405,94	1742,82
406,15	1751,01
406,35	1683,43
406,56	1693,67
406,77	1734,63
406,98	1726,44
407,18	1730,53
407,39	1720,29
407,60	1755,11
407,80	1699,81
408,01	1724,39
408,22	1732,58
408,43	1779,68
408,63	1710,05
408,84	1736,68
409,05	1789,92
409,25	1687,53
409,46	1746,92
409,67	1611,75
409,88	1714,15
410,08	1791,97
410,29	1662,95
410,50	1689,57
410,70	1771,49
410,91	1667,05
411,12	1728,49
411,32	1816,55
411,53	1683,43
411,74	1773,54
411,95	1779,68
412,15	1736,68
412,36	1851,36
412,57	1761,25
412,77	1857,51
412,98	1718,25
413,19	1697,77
413,39	1777,64
413,60	1777,64
413,81	1783,78
414,01	1593,32
414,22	1753,06
414,43	1820,64
414,63	1740,77
414,84	1748,97
415,05	1757,16
415,25	1648,61
415,46	1789,92
415,67	1705,96
415,87	1812,45
416,08	1714,15
416,29	1626,09
416,49	1726,44
416,70	1703,91
416,91	1677,29
417,11	1732,58
417,32	1871,84
417,53	1736,68
417,73	1724,39
417,94	1654,76
418,15	1710,05
418,35	1665,00
418,56	1771,49
418,77	1859,56
418,97	1673,19
419,18	1703,91
419,38	1630,18
419,59	1685,48
419,80	1794,02
420,00	1742,82
420,21	1724,39
420,42	1714,15
420,62	1732,58
420,83	1644,52
421,04	1716,20
421,24	1718,25
421,45	1771,49
421,65	1777,64
421,86	1685,48
422,07	1744,87
422,27	1701,86
422,48	1845,22
422,69	1644,52
422,89	1681,38
423,10	1656,81
423,30	1724,39
423,51	1724,39
423,72	1712,10
423,92	1708,01
424,13	1710,05
424,33	1716,20
424,54	1722,34
424,75	1728,49
424,95	1912,80
425,16	1755,11
425,36	1742,82
425,57	1779,68
425,78	1708,01
425,98	1798,12
426,19	1712,10
426,39	1621,99
426,60	1732,58
426,81	1769,44
427,01	1708,01
427,22	1708,01
427,42	1605,61
427,63	1632,23
427,83	1785,83
428,04	1814,50
428,25	1820,64
428,45	1804,26
428,66	1804,26
428,86	1804,26
429,07	1742,82
429,28	1732,58
429,48	1683,43
429,69	1722,34
429,89	1728,49
430,10	1794,02
430,30	1738,73
430,51	1767,40
430,71	1662,95
430,92	1718,25
431,13	1722,34
431,33	1763,30
431,54	1679,33
431,74	1816,55
431,95	1875,94
432,15	1638,38
432,36	1730,53
432,56	1791,97
432,77	1861,60
432,98	1861,60
433,18	1769,44
433,39	1691,62
433,59	1701,86
433,80	1779,68
434,00	1910,75
434,21	1726,44
434,41	1701,86
434,62	1830,88
434,82	1613,80
435,03	1587,18
435,23	1728,49
435,44	1593,32
435,64	1640,42
435,85	1791,97
436,06	1808,36
436,26	1765,35
436,47	1699,81
436,67	1722,34
436,88	1734,63
437,08	1751,01
437,29	1765,35
437,49	1734,63
437,70	1689,57
437,90	1740,77
438,11	1839,08
438,31	1779,68
438,52	1857,51
438,72	1869,80
438,93	1880,04
439,13	1847,27
439,34	1800,16
439,54	1781,73
439,75	1851,36
439,95	1763,30
440,16	1714,15
440,36	1769,44
440,57	1744,87
440,77	1732,58
440,98	1744,87
441,18	1773,54
441,39	1716,20
441,59	1630,18
441,80	1886,18
442,00	1738,73
442,21	1865,70
442,41	1708,01
442,62	1785,83
442,82	1675,24
443,02	1800,16
443,23	1728,49
443,43	1734,63
443,64	1779,68
443,84	1619,94
444,05	1863,65
444,25	1775,59
444,46	1738,73
444,66	1773,54
444,87	1732,58
445,07	1740,77
445,28	1738,73
445,48	1765,35
445,69	1808,36
445,89	1947,62
446,09	1732,58
446,30	2058,21
446,50	2660,31
446,71	3708,87
446,91	4417,47
447,12	4677,56
447,32	4892,60
447,53	4358,08
447,73	3870,66
447,93	3567,56
448,14	3190,74
448,34	3182,54
448,55	2934,74
448,75	2928,60
448,96	2707,41
449,16	2398,17
449,36	2316,25
449,57	2111,46
449,77	1931,23
449,98	1802,21
450,18	1789,92
450,39	1816,55
450,59	1808,36
450,79	1701,86
451,00	1757,16
451,20	1773,54
451,41	1710,05
451,61	1802,21
451,81	1728,49
452,02	1755,11
452,22	1765,35
452,43	1726,44
452,63	1734,63
452,84	1755,11
453,04	1650,66
453,24	1732,58
453,45	1730,53
453,65	1699,81
453,86	1718,25
454,06	1837,03
454,26	1755,11
454,47	1708,01
454,67	1826,79
454,87	1781,73
455,08	1791,97
455,28	1882,08
455,49	1783,78
455,69	1736,68
455,89	1855,46
456,10	1777,64
456,30	1734,63
456,51	1808,36
456,71	1757,16
456,91	1763,30
457,12	1685,48
457,32	1718,25
457,52	1685,48
457,73	1812,45
457,93	1773,54
458,14	1720,29
458,34	1677,29
458,54	1742,82
458,75	1720,29
458,95	1783,78
459,15	1759,21
459,36	1701,86
459,56	1806,31
459,76	1841,12
459,97	1779,68
460,17	1695,72
460,37	1828,84
460,58	1705,96
460,78	1771,49
460,99	1708,01
461,19	1705,96
461,39	1724,39
461,60	1751,01
461,80	1822,69
462,00	1650,66
462,21	1757,16
462,41	1679,33
462,61	1671,14
462,82	1703,91
463,02	1755,11
463,22	1800,16
463,43	1806,31
463,63	1777,64
463,83	1796,07
464,04	1796,07
464,24	1765,35
464,44	1755,11
464,64	1822,69
464,85	1734,63
465,05	1781,73
465,25	1810,40
465,46	1679,33
465,66	1765,35
465,86	1771,49
466,07	1753,06
466,27	1748,97
466,47	1671,14
466,68	1748,97
466,88	1871,84
467,08	1796,07
467,29	1802,21
467,49	1794,02
467,69	1667,05
467,89	1751,01
468,10	1701,86
468,30	1775,59
468,50	1869,80
468,71	1767,40
468,91	1748,97
469,11	1810,40
469,31	1695,72
469,52	1724,39
469,72	1851,36
469,92	1900,52
470,13	1751,01
470,33	1779,68
470,53	1863,65
470,73	2076,64
470,94	2332,64
471,14	2465,75
471,34	2488,28
471,54	2336,73
471,75	2207,71
471,95	2095,07
472,15	2138,08
472,36	2115,55
472,56	2078,69
472,76	2011,11
472,96	1996,77
473,17	1904,61
473,37	1908,71
473,57	1791,97
473,77	1824,74
473,98	1814,50
474,18	1726,44
474,38	1927,14
474,58	1714,15
474,79	1742,82
474,99	1746,92
475,19	1816,55
475,39	1619,94
475,60	1708,01
475,80	1744,87
476,00	1650,66
476,20	1755,11
476,41	1728,49
476,61	1902,56
476,81	1843,17
477,01	1740,77
477,21	1908,71
477,42	1837,03
477,62	1693,67
477,82	1898,47
478,02	1732,58
478,23	1781,73
478,43	1734,63
478,63	1710,05
478,83	1738,73
479,03	1744,87
479,24	1753,06
479,44	1777,64
479,64	1716,20
479,84	1574,89
480,04	1703,91
480,25	1781,73
480,45	1687,53
480,65	1660,90
480,85	1791,97
481,06	1681,38
481,26	1714,15
481,46	1763,30
481,66	1812,45
481,86	1652,71
482,06	1794,02
482,27	1761,25
482,47	1720,29
482,67	1732,58
482,87	1757,16
483,07	1759,21
483,28	1746,92
483,48	1724,39
483,68	1742,82
483,88	1607,66
484,08	1628,14
484,29	1669,09
484,49	1728,49
484,69	1595,37
484,89	1791,97
485,09	1822,69
485,29	1791,97
485,50	1697,77
485,70	1771,49
485,90	1763,30
486,10	1724,39
486,30	1720,29
486,50	1738,73
486,71	1775,59
486,91	1869,80
487,11	1875,94
487,31	1632,23
487,51	1808,36
487,71	1716,20
487,91	1656,81
488,12	1675,24
488,32	1693,67
488,52	1683,43
488,72	1656,81
488,92	1746,92
489,12	1875,94
489,32	1830,88
489,53	1802,21
489,73	1662,95
489,93	1789,92
490,13	1701,86
490,33	1679,33
490,53	1671,14
490,73	1847,27
490,94	1662,95
491,14	1710,05
491,34	1839,08
491,54	2148,32
491,74	2516,95
491,94	2955,22
492,14	3067,86
492,34	2994,13
492,54	2781,14
492,75	2562,01
492,95	2578,39
493,15	2357,21
493,35	2349,02
493,55	2213,85
493,75	2160,61
493,95	2119,65
494,15	1931,23
494,35	1949,67
494,56	1869,80
494,76	1806,31
494,96	1748,97
495,16	1834,98
495,36	1683,43
495,56	1765,35
495,76	1763,30
495,96	1767,40
496,16	1689,57
496,36	1751,01
496,56	1759,21
496,77	1818,60
496,97	1722,34
497,17	1787,88
497,37	1673,19
497,57	1722,34
497,77	1753,06
497,97	1728,49
498,17	1771,49
498,37	1660,90
498,57	1744,87
498,77	1728,49
498,97	1742,82
499,17	1830,88
499,38	1789,92
499,58	1734,63
499,78	1781,73
499,98	1800,16
500,18	1718,25
500,38	1771,49
500,58	1947,62
500,78	2570,20
500,98	4534,20
501,18	5769,13
501,38	6780,82
501,58	7171,99
501,78	6700,95
501,98	5767,08
502,18	5078,96
502,38	4521,92
502,58	4079,55
502,78	3811,27
502,98	3792,84
503,18	3473,36
503,38	3209,17
503,59	2885,59
503,79	2654,17
503,99	2535,39
504,19	2277,34
504,39	2248,67
504,59	2111,46
504,79	2160,61
504,99	2011,11
505,19	1914,85
505,39	1898,47
505,59	2031,58
505,79	1908,71
505,99	1804,26
506,19	1789,92
506,39	1867,75
506,59	1800,16
506,79	1800,16
506,99	1845,22
507,19	1802,21
507,39	1753,06
507,59	1665,00
507,79	1679,33
507,99	1697,77
508,19	1787,88
508,39	1722,34
508,59	1763,30
508,79	1826,79
508,99	1896,42
509,19	1601,51
509,39	1759,21
509,59	1720,29
509,79	1794,02
509,99	1763,30
510,19	1738,73
510,39	1798,12
510,59	1751,01
510,79	1724,39
510,99	1744,87
511,19	1783,78
511,39	1849,32
511,59	1841,12
511,79	1789,92
511,99	1751,01
512,19	1853,41
512,38	1701,86
512,58	1636,33
512,78	1693,67
512,98	1839,08
513,18	1837,03
513,38	1683,43
513,58	1753,06
513,78	1708,01
513,98	1708,01
514,18	1738,73
514,38	1732,58
514,58	1816,55
514,78	1710,05
514,98	1734,63
515,18	1712,10
515,38	1716,20
515,58	1837,03
515,78	1740,77
515,98	1765,35
516,18	1736,68
516,38	1755,11
516,57	1724,39
516,77	1748,97
516,97	1812,45
517,17	1740,77
517,37	1646,57
517,57	1812,45
517,77	1759,21
517,97	1677,29
518,17	1753,06
518,37	1730,53
518,57	1669,09
518,77	1652,71
518,97	1732,58
519,16	1769,44
519,36	1890,28
519,56	1644,52
519,76	1699,81
519,96	1722,34
520,16	1841,12
520,36	1757,16
520,56	1771,49
520,76	1646,57
520,96	1722,34
521,16	1824,74
521,35	1769,44
521,55	1757,16
521,75	1728,49
521,95	1683,43
522,15	1718,25
522,35	1714,15
522,55	1693,67
522,75	1800,16
522,95	1710,05
523,14	1734,63
523,34	1783,78
523,54	1705,96
523,74	1787,88
523,94	1726,44
524,14	1753,06
524,34	1787,88
524,54	1863,65
524,73	1718,25
524,93	1783,78
525,13	1794,02
525,33	1673,19
525,53	1871,84
525,73	1769,44
525,93	1697,77
526,13	1658,85
526,32	1718,25
526,52	1783,78
526,72	1822,69
526,92	1712,10
527,12	1699,81
527,32	1703,91
527,52	1710,05
527,71	1779,68
527,91	1701,86
528,11	1665,00
528,31	1765,35
528,51	1720,29
528,71	1724,39
528,90	1744,87
529,10	1796,07
529,30	1779,68
529,50	1587,18
529,70	1765,35
529,90	1800,16
530,09	1708,01
530,29	1685,48
530,49	1658,85
530,69	1859,56
530,89	1730,53
531,09	1785,83
531,28	1738,73
531,48	1832,93
531,68	1724,39
531,88	1794,02
532,08	1748,97
532,28	1685,48
532,47	1742,82
532,67	1783,78
532,87	1779,68
533,07	1634,28
533,27	1808,36
533,46	1755,11
533,66	1742,82
533,86	1728,49
534,06	1718,25
534,26	1796,07
534,45	1787,88
534,65	1791,97
534,85	1738,73
535,05	1779,68
535,25	1779,68
535,44	1634,28
535,64	1800,16
535,84	1687,53
536,04	1675,24
536,24	1718,25
536,43	1701,86
536,63	1757,16
536,83	1800,16
537,03	1785,83
537,22	1669,09
537,42	1673,19
537,62	1746,92
537,82	1730,53
538,02	1808,36
538,21	1830,88
538,41	1957,86
538,61	1742,82
538,81	1832,93
539,00	1822,69
539,20	1673,19
539,40	1800,16
539,60	1757,16
539,79	1810,40
539,99	1730,53
540,19	1683,43
540,39	1783,78
540,58	1785,83
540,78	1861,60
540,98	1804,26
541,18	1839,08
541,37	1779,68
541,57	1783,78
541,77	1720,29
541,97	1691,62
542,16	1634,28
542,36	1748,97
542,56	1705,96
542,76	1927,14
542,95	1779,68
543,15	1787,88
543,35	1875,94
543,54	1689,57
543,74	1724,39
543,94	1703,91
544,14	1763,30
544,33	1810,40
544,53	1789,92
544,73	1755,11
544,93	1744,87
545,12	1777,64
545,32	1757,16
545,52	1759,21
545,71	1697,77
545,91	1662,95
546,11	1660,90
546,30	1710,05
546,50	1771,49
546,70	1683,43
546,90	1796,07
547,09	1656,81
547,29	1765,35
547,49	1748,97
547,68	1789,92
547,88	1689,57
548,08	1830,88
548,27	2195,42
548,47	1775,59
548,67	1761,25
548,87	1822,69
549,06	1730,53
549,26	1703,91
549,46	1763,30
549,65	1718,25
549,85	1779,68
550,05	1769,44
550,24	1718,25
550,44	1720,29
550,64	1734,63
550,83	1728,49
551,03	1832,93
551,23	1794,02
551,42	1798,12
551,62	1796,07
551,82	1769,44
552,01	1814,50
552,21	1851,36
552,41	1787,88
552,60	1853,41
552,80	1781,73
553,00	1757,16
553,19	1734,63
553,39	1892,32
553,59	1736,68
553,78	1769,44
553,98	1697,77
554,17	1705,96
554,37	1744,87
554,57	1837,03
554,76	1685,48
554,96	1785,83
555,16	1738,73
555,35	1740,77
555,55	1773,54
555,75	1722,34
555,94	1769,44
556,14	1689,57
556,33	1779,68
556,53	1732,58
556,73	1767,40
556,92	1800,16
557,12	1886,18
557,32	1837,03
557,51	1896,42
557,71	1757,16
557,90	1877,99
558,10	1867,75
558,30	1779,68
558,49	1822,69
558,69	1730,53
558,88	1789,92
559,08	1789,92
559,28	1716,20
559,47	1757,16
559,67	1814,50
559,86	1894,37
560,06	1812,45
560,26	1714,15
560,45	1748,97
560,65	1701,86
560,84	1718,25
561,04	1736,68
561,24	1818,60
561,43	1726,44
561,63	1812,45
561,82	1693,67
562,02	1834,98
562,22	1689,57
562,41	1648,61
562,61	1746,92
562,80	1744,87
563,00	1959,91
563,19	1822,69
563,39	1855,46
563,59	1791,97
563,78	1683,43
563,98	1710,05
564,17	1787,88
564,37	1656,81
564,56	1765,35
564,76	1710,05
564,96	1730,53
565,15	1746,92
565,35	1916,90
565,54	1669,09
565,74	1728,49
565,93	1716,20
566,13	1769,44
566,32	1771,49
566,52	1820,64
566,71	1785,83
566,91	1748,97
567,11	1753,06
567,30	1714,15
567,50	1718,25
567,69	1734,63
567,89	1701,86
568,08	1732,58
568,28	1839,08
568,47	1677,29
568,67	1777,64
568,86	1779,68
569,06	1777,64
569,25	1775,59
569,45	1744,87
569,64	1693,67
569,84	1726,44
570,04	1771,49
570,23	1759,21
570,43	1759,21
570,62	1828,84
570,82	1877,99
571,01	1677,29
571,21	1769,44
571,40	1599,46
571,60	1841,12
571,79	1812,45
571,99	1722,34
572,18	1683,43
572,38	1775,59
572,57	1708,01
572,77	1767,40
572,96	1943,52
573,16	1705,96
573,35	1746,92
573,55	1832,93
573,74	1800,16
573,94	1779,68
574,13	1703,91
574,33	1802,21
574,52	1822,69
574,71	1781,73
574,91	1798,12
575,10	1708,01
575,30	1800,16
575,49	1755,11
575,69	1771,49
575,88	1791,97
576,08	1697,77
576,27	1775,59
576,47	1748,97
576,66	1822,69
576,86	1802,21
577,05	1769,44
577,25	1812,45
577,44	1818,60
577,64	1683,43
577,83	1834,98
578,02	1720,29
578,22	1837,03
578,41	1929,19
578,61	1730,53
578,80	1673,19
579,00	1839,08
579,19	1771,49
579,39	1794,02
579,58	1847,27
579,77	1814,50
579,97	1855,46
580,16	1867,75
580,36	1716,20
580,55	1847,27
580,75	1826,79
580,94	1710,05
581,13	1937,38
581,33	1884,13
581,52	1781,73
581,72	1923,04
581,91	1871,84
582,11	1744,87
582,30	1826,79
582,49	1738,73
582,69	1877,99
582,88	1789,92
583,08	1796,07
583,27	1828,84
583,47	1765,35
583,66	1720,29
583,85	1726,44
584,05	1785,83
584,24	1697,77
584,44	1830,88
584,63	1906,66
584,82	1935,33
585,02	1730,53
585,21	1865,70
585,41	1740,77
585,60	1781,73
585,79	1947,62
585,99	1898,47
586,18	1861,60
586,37	2181,09
586,57	3581,90
586,76	9897,83
586,96	24544,91
587,15	34418,16
587,34	40183,19
587,54	42589,56
587,73	36890,06
587,93	26289,77
588,12	21677,75
588,31	18384,62
588,51	16420,61
588,70	15257,37
588,89	14083,88
589,09	12750,65
589,28	10948,44
589,47	9367,41
589,67	7769,99
589,86	6420,38
590,06	4951,99
590,25	3868,61
590,44	3155,92
590,64	2648,02
590,83	2328,54
591,02	2164,70
591,22	2013,15
591,41	1970,15
591,60	1877,99
591,80	1920,99
591,99	1796,07
592,18	1877,99
592,38	1910,75
592,57	1755,11
592,76	1820,64
592,96	1779,68
593,15	1828,84
593,34	1828,84
593,54	1843,17
593,73	1832,93
593,92	1744,87
594,12	1789,92
594,31	1775,59
594,50	1892,32
594,70	1855,46
594,89	1888,23
595,08	1665,00
595,28	1849,32
595,47	1945,57
595,66	1806,31
595,86	1728,49
596,05	1753,06
596,24	1759,21
596,43	1796,07
596,63	1812,45
596,82	1877,99
597,01	1773,54
597,21	1847,27
597,40	1791,97
597,59	1787,88
597,79	1779,68
597,98	1748,97
598,17	1824,74
598,36	1763,30
598,56	1822,69
598,75	1691,62
598,94	1757,16
599,14	1759,21
599,33	1736,68
599,52	1789,92
599,71	1837,03
599,91	1822,69
600,10	1851,36
600,29	1695,72
600,48	1763,30
600,68	1873,89
600,87	1863,65
601,06	1732,58
601,26	1683,43
601,45	1757,16
601,64	1720,29
601,83	1839,08
602,03	1679,33
602,22	1693,67
602,41	1826,79
602,60	1904,61
602,80	1830,88
602,99	1845,22
603,18	1726,44
603,37	1808,36
603,57	1775,59
603,76	1820,64
603,95	1822,69
604,14	1751,01
604,34	1726,44
604,53	1728,49
604,72	1720,29
604,91	1781,73
605,10	1771,49
605,30	1648,61
605,49	1845,22
605,68	1748,97
605,87	1810,40
606,07	1736,68
606,26	1794,02
606,45	1783,78
606,64	1757,16
606,84	1767,40
607,03	1740,77
607,22	1773,54
607,41	1652,71
607,60	1779,68
607,80	1728,49
607,99	1689,57
608,18	1771,49
608,37	1714,15
608,56	1755,11
608,76	1791,97
608,95	1787,88
609,14	1759,21
609,33	1751,01
609,52	1769,44
609,72	1769,44
609,91	1765,35
610,10	1753,06
610,29	1839,08
610,48	1771,49
610,68	1748,97
610,87	1746,92
611,06	1859,56
611,25	1751,01
611,44	1746,92
611,63	1662,95
611,83	1845,22
612,02	1646,57
612,21	1855,46
612,40	1718,25
612,59	1652,71
612,79	1730,53
612,98	1746,92
613,17	1892,32
613,36	1771,49
613,55	1847,27
613,74	1632,23
613,93	1783,78
614,13	1732,58
614,32	1726,44
614,51	1804,26
614,70	1722,34
614,89	1703,91
615,08	1783,78
615,28	2013,15
615,47	1665,00
615,66	1746,92
615,85	1777,64
616,04	1830,88
616,23	1736,68
616,42	1734,63
616,62	1746,92
616,81	1748,97
617,00	1669,09
617,19	1773,54
617,38	1708,01
617,57	1763,30
617,76	1867,75
617,95	1730,53
618,15	1701,86
618,34	1820,64
618,53	1644,52
618,72	1748,97
618,91	1787,88
619,10	1849,32
619,29	1763,30
619,48	1751,01
619,68	1669,09
619,87	1718,25
620,06	1658,85
620,25	1751,01
620,44	1734,63
620,63	1742,82
620,82	1798,12
621,01	1773,54
621,20	1734,63
621,39	1660,90
621,59	1748,97
621,78	1796,07
621,97	1775,59
622,16	1783,78
622,35	1712,10
622,54	1828,84
622,73	1777,64
622,92	1626,09
623,11	1726,44
623,30	1738,73
623,49	1775,59
623,68	1687,53
623,88	1845,22
624,07	1697,77
624,26	1755,11
624,45	1722,34
624,64	1748,97
624,83	1738,73
625,02	1734,63
625,21	1716,20
625,40	1669,09
625,59	1771,49
625,78	1765,35
625,97	1865,70
626,16	1822,69
626,35	1761,25
626,54	1710,05
626,74	1861,60
626,93	1656,81
627,12	1660,90
627,31	1800,16
627,50	1757,16
627,69	1800,16
627,88	1703,91
628,07	1738,73
628,26	1697,77
628,45	1685,48
628,64	1673,19
628,83	1736,68
629,02	1738,73
629,21	1767,40
629,40	1718,25
629,59	1654,76
629,78	1779,68
629,97	1714,15
630,16	1732,58
630,35	1777,64
630,54	1744,87
630,73	1687,53
630,92	1748,97
631,11	1673,19
631,30	1746,92
631,49	1734,63
631,68	1744,87
631,87	1744,87
632,06	1650,66
632,25	1857,51
632,44	1726,44
632,63	1757,16
632,82	1687,53
633,01	1705,96
633,20	1683,43
633,39	1726,44
633,58	1617,90
633,77	1720,29
633,96	1753,06
634,15	1806,31
634,34	1779,68
634,53	1714,15
634,72	1687,53
634,91	1667,05
635,10	1757,16
635,29	1841,12
635,48	1806,31
635,67	1658,85
635,86	1681,38
636,05	1779,68
636,24	1748,97
636,43	1759,21
636,62	1806,31
636,81	1529,83
637,00	1765,35
637,19	1734,63
637,38	1730,53
637,57	1685,48
637,76	1730,53
637,95	1732,58
638,14	1687,53
638,33	1656,81
638,52	1724,39
638,71	1736,68
638,89	1701,86
639,08	1865,70
639,27	1697,77
639,46	1777,64
639,65	1783,78
639,84	1744,87
640,03	1751,01
640,22	1701,86
640,41	1791,97
640,60	1726,44
640,79	1738,73
640,98	1720,29
641,17	1751,01
641,36	1779,68
641,55	1771,49
641,74	1621,99
641,92	1685,48
642,11	1701,86
642,30	1763,30
642,49	1714,15
642,68	1675,24
642,87	1798,12
643,06	1751,01
643,25	1671,14
643,44	1757,16
643,63	1718,25
643,82	1773,54
644,00	1617,90
644,19	1800,16
644,38	1673,19
644,57	1771,49
644,76	1751,01
644,95	1708,01
645,14	1761,25
645,33	1761,25
645,52	1746,92
645,71	1667,05
645,89	1607,66
646,08	1724,39
646,27	1712,10
646,46	1773,54
646,65	1656,81
646,84	1802,21
647,03	1734,63
647,22	1828,84
647,40	1675,24
647,59	1615,85
647,78	1693,67
647,97	1662,95
648,16	1673,19
648,35	1806,31
648,54	1777,64
648,73	1748,97
648,91	1777,64
649,10	1767,40
649,29	1681,38
649,48	1806,31
649,67	1742,82
649,86	1734,63
650,05	1675,24
650,23	1839,08
650,42	1679,33
650,61	1748,97
650,80	1796,07
650,99	1898,47
651,18	1757,16
651,36	1814,50
651,55	1660,90
651,74	1732,58
651,93	1701,86
652,12	1742,82
652,31	1660,90
652,49	1746,92
652,68	1726,44
652,87	1828,84
653,06	1726,44
653,25	1843,17
653,44	1708,01
653,62	1761,25
653,81	1757,16
654,00	1744,87
654,19	1755,11
654,38	1910,75
654,56	1701,86
654,75	1701,86
654,94	1675,24
655,13	1767,40
655,32	1763,30
655,51	1814,50
655,69	1681,38
655,88	1783,78
656,07	1681,38
656,26	1789,92
656,45	1720,29
656,63	1732,58
656,82	1751,01
657,01	1839,08
657,20	1669,09
657,38	1826,79
657,57	1746,92
657,76	1689,57
657,95	1767,40
658,14	1675,24
658,32	1710,05
658,51	1650,66
658,70	1673,19
658,89	1726,44
659,08	1789,92
659,26	1767,40
659,45	1665,00
659,64	1773,54
659,83	1626,09
660,01	1851,36
660,20	1695,72
660,39	1755,11
660,58	1613,80
660,76	1759,21
660,95	1634,28
661,14	1738,73
661,33	1658,85
661,51	1755,11
661,70	1671,14
661,89	1763,30
662,08	1728,49
662,26	1683,43
662,45	1693,67
662,64	1816,55
662,83	1771,49
663,01	1675,24
663,20	1718,25
663,39	1890,28
663,58	1673,19
663,76	1748,97
663,95	1820,64
664,14	1712,10
664,32	1724,39
664,51	1755,11
664,70	1736,68
664,89	1746,92
665,07	1689,57
665,26	1767,40
665,45	1640,42
665,64	1781,73
665,82	1798,12
666,01	1683,43
666,20	1673,19
666,38	1798,12
666,57	1837,03
666,76	2088,93
666,95	4646,84
667,13	10432,35
667,32	15527,70
667,51	18329,32
667,69	19150,56
667,88	18011,89
668,07	12422,98
668,25	9750,38
668,44	8124,29
668,63	7376,78
668,81	6805,40
669,00	6320,03
669,19	5640,11
669,38	5193,65
669,56	4612,03
669,75	4057,03
669,94	3383,24
670,12	2912,21
670,31	2502,62
670,50	2355,16
670,68	2060,26
670,87	1968,10
671,06	1808,36
671,24	1751,01
671,43	1796,07
671,62	1832,93
671,80	1671,14
671,99	1851,36
672,18	1755,11
672,36	1808,36
672,55	1736,68
672,74	1740,77
672,92	1798,12
673,11	1796,07
673,29	1665,00
673,48	1757,16
673,67	1722,34
673,85	1804,26
674,04	1634,28
674,23	1744,87
674,41	1845,22
674,60	1677,29
674,79	1619,94
674,97	1699,81
675,16	1771,49
675,34	1779,68
675,53	1673,19
675,72	1699,81
675,90	1834,98
676,09	1755,11
676,28	1740,77
676,46	1660,90
676,65	1712,10
676,83	1667,05
677,02	1755,11
677,21	1689,57
677,39	1671,14
677,58	1640,42
677,77	1646,57
677,95	1607,66
678,14	1689,57
678,32	1781,73
678,51	1695,72
678,70	1789,92
678,88	1679,33
679,07	1748,97
679,25	1718,25
679,44	1748,97
679,63	1665,00
679,81	1701,86
680,00	1777,64
680,18	1796,07
680,37	1779,68
680,55	1726,44
680,74	1632,23
680,93	1587,18
681,11	1714,15
681,30	1646,57
681,48	1779,68
681,67	1634,28
681,85	1728,49
682,04	1746,92
682,23	1742,82
682,41	1765,35
682,60	1650,66
682,78	1695,72
682,97	1740,77
683,15	1765,35
683,34	1677,29
683,53	1791,97
683,71	1601,51
683,90	1812,45
684,08	1845,22
684,27	1753,06
684,45	1722,34
684,64	1818,60
684,82	1624,04
685,01	1738,73
685,19	1755,11
685,38	1802,21
685,57	1763,30
685,75	1652,71
685,94	1691,62
686,12	1683,43
686,31	1724,39
686,49	1920,99
686,68	1658,85
686,86	1769,44
687,05	1681,38
687,23	1845,22
687,42	1748,97
687,60	1603,56
687,79	1810,40
687,97	1751,01
688,16	1769,44
688,34	1818,60
688,53	1673,19
688,71	1726,44
688,90	1837,03
689,08	1693,67
689,27	1753,06
689,45	1736,68
689,64	1785,83
689,82	1736,68
690,01	1718,25
690,19	1738,73
690,38	1730,53
690,56	1820,64
690,75	1691,62
690,93	1687,53
691,12	1746,92
691,30	1701,86
691,49	1697,77
691,67	1681,38
691,86	1890,28
692,04	1665,00
692,23	1640,42
692,41	1673,19
692,60	1826,79
692,78	1824,74
692,97	1611,75
693,15	1771,49
693,34	1849,32
693,52	1789,92
693,71	1722,34
693,89	1712,10
694,08	1611,75
694,26	1738,73
694,44	1740,77
694,63	1791,97
694,81	1624,04
695,00	1691,62
695,18	1814,50
695,37	1830,88
695,55	1742,82
695,74	1685,48
695,92	1734,63
696,10	1875,94
696,29	1669,09
696,47	1728,49
696,66	1679,33
696,84	1640,42
697,03	1734,63
697,21	1796,07
697,40	2308,06
697,58	1810,40
697,76	1667,05
697,95	1619,94
698,13	1683,43
698,32	1685,48
698,50	1730,53
698,68	1775,59
698,87	1771,49
699,05	1740,77
699,24	1716,20
699,42	1644,52
699,61	1728,49
699,79	1714,15
699,97	1763,30
700,16	1628,14
700,34	1708,01
700,53	1734,63
700,71	1800,16
700,89	1703,91
701,08	1726,44
701,26	1804,26
701,45	2090,98
701,63	1662,95
701,81	1763,30
702,00	1605,61
702,18	1644,52
702,37	1669,09
702,55	1771,49
702,73	1669,09
702,92	1648,61
703,10	1751,01
703,28	1699,81
703,47	1634,28
703,65	1736,68
703,84	1771,49
704,02	1648,61
704,20	1722,34
704,39	1736,68
704,57	1658,85
704,75	1732,58
704,94	1748,97
705,12	1724,39
705,30	1787,88
705,49	2279,39
705,67	4417,47
705,86	9703,28
706,04	12595,01
706,22	14481,19
706,41	15370,01
706,59	13819,69
706,77	9568,11
706,96	7432,08
707,14	6522,78
707,32	5994,40
707,51	5662,63
707,69	4900,79
707,87	4034,50
708,06	3536,84
708,24	3024,85
708,42	2502,62
708,61	2250,72
708,79	1851,36
708,97	1796,07
709,16	1902,56
709,34	1798,12
709,52	1708,01
709,71	1757,16
709,89	1791,97
710,07	1677,29
710,26	1689,57
710,44	1720,29
710,62	1755,11
710,80	1757,16
710,99	1773,54
711,17	1724,39
711,35	1665,00
711,54	1609,70
711,72	1849,32
711,90	1748,97
712,09	1753,06
712,27	1740,77
712,45	1755,11
712,63	1710,05
712,82	1761,25
713,00	1720,29
713,18	1714,15
713,37	1822,69
713,55	1771,49
713,73	1665,00
713,91	1677,29
714,10	1679,33
714,28	1675,24
714,46	1732,58
714,65	1699,81
714,83	1763,30
715,01	1734,63
715,19	1710,05
715,38	1636,33
715,56	1757,16
715,74	1726,44
715,92	1660,90
716,11	1796,07
716,29	1626,09
716,47	1691,62
716,65	1767,40
716,84	1636,33
717,02	1787,88
717,20	1615,85
717,38	1667,05
717,57	1669,09
717,75	1746,92
717,93	1685,48
718,11	1724,39
718,30	1667,05
718,48	1732,58
718,66	1843,17
718,84	1777,64
719,03	1751,01
719,21	1746,92
719,39	1841,12
719,57	1734,63
719,75	1742,82
719,94	1748,97
720,12	1691,62
720,30	1665,00
720,48	1728,49
720,67	1732,58
720,85	1673,19
721,03	1703,91
721,21	1662,95
721,39	1781,73
721,58	1667,05
721,76	1724,39
721,94	1783,78
722,12	1710,05
722,30	1765,35
722,49	1681,38
722,67	1779,68
722,85	1785,83
723,03	1621,99
723,21	1726,44
723,40	1714,15
723,58	1691,62
723,76	1753,06
723,94	1746,92
724,12	1767,40
724,30	1796,07
724,49	1724,39
724,67	1714,15
724,85	1798,12
725,03	1603,56
725,21	1746,92
725,40	1845,22
725,58	1751,01
725,76	1738,73
725,94	1695,72
726,12	1615,85
726,30	1734,63
726,49	1742,82
726,67	1656,81
726,85	1746,92
727,03	1824,74
727,21	2205,66
727,39	2910,16
727,57	3839,94
727,76	4294,59
727,94	4407,23
728,12	4366,27
728,30	3809,22
728,48	3000,27
728,66	2668,50
728,84	2547,67
729,03	2396,12
729,21	2203,61
729,39	2009,06
729,57	1873,89
729,75	1914,85
729,93	1818,60
730,11	1773,54
730,30	1732,58
730,48	1781,73
730,66	1853,41
730,84	1783,78
731,02	1767,40
731,20	1673,19
731,38	1742,82
731,56	1701,86
731,74	1648,61
731,93	1685,48
732,11	1708,01
732,29	1726,44
732,47	1744,87
732,65	1720,29
732,83	1779,68
733,01	1681,38
733,19	1648,61
733,37	1796,07
733,56	1755,11
733,74	1642,47
733,92	1818,60
734,10	1677,29
734,28	1720,29
734,46	1632,23
734,64	1734,63
734,82	1738,73
735,00	1697,77
735,18	1746,92
735,36	1656,81
735,54	1712,10
735,73	1673,19
735,91	1626,09
736,09	1740,77
736,27	1800,16
736,45	1808,36
736,63	1615,85
736,81	1673,19
736,99	1789,92
737,17	1916,90
737,35	1648,61
737,53	1710,05
737,71	1732,58
737,89	1753,06
738,07	1669,09
738,25	1665,00
738,43	1665,00
738,61	1759,21
738,80	1591,27
738,98	1576,94
739,16	1693,67
739,34	1718,25
739,52	1820,64
739,70	1691,62
739,88	1689,57
740,06	1765,35
740,24	1648,61
740,42	1806,31
740,60	1550,31
740,78	1652,71
740,96	1607,66
741,14	1687,53
741,32	1675,24
741,50	1734,63
741,68	1869,80
741,86	1808,36
742,04	1673,19
742,22	1656,81
742,40	1765,35
742,58	1791,97
742,76	1697,77
742,94	1767,40
743,12	1615,85
743,30	1646,57
743,48	1751,01
743,66	1626,09
743,84	1787,88
744,02	1734,63
744,20	1708,01
744,38	1720,29
744,56	1714,15
744,74	1785,83
744,92	1724,39
745,10	1755,11
745,28	1839,08
745,46	1847,27
745,64	1689,57
745,82	1814,50
746,00	1796,07
746,18	1703,91
746,36	1615,85
746,54	1775,59
746,72	1701,86
746,90	1681,38
747,08	1832,93
747,26	1714,15
747,44	1753,06
747,62	1775,59
747,80	1761,25
747,98	1796,07
748,15	1705,96
748,33	1841,12
748,51	1740,77
748,69	1685,48
748,87	1679,33
749,05	1667,05
749,23	1669,09
749,41	1783,78
749,59	1708,01
749,77	1820,64
749,95	1642,47
750,13	1695,72
750,31	1701,86
750,49	1617,90
750,67	1808,36
750,85	1791,97
751,03	1720,29
751,20	1818,60
751,38	1705,96
751,56	1636,33
751,74	1705,96
751,92	1652,71
752,10	1656,81
752,28	1843,17
752,46	1630,18
752,64	1701,86
752,82	1751,01
753,00	1728,49
753,18	1742,82
753,35	1751,01
753,53	1705,96
753,71	1652,71
753,89	1771,49
754,07	1648,61
754,25	1775,59
754,43	1746,92
754,61	1607,66
754,79	1742,82
754,97	1724,39
755,14	1779,68
755,32	1605,61
755,50	1757,16
755,68	1699,81
755,86	1660,90
756,04	1705,96
756,22	1615,85
756,40	1759,21
756,57	1755,11
756,75	1677,29
756,93	1759,21
757,11	1791,97
757,29	1681,38
757,47	1726,44
757,65	1613,80
757,82	1576,94
758,00	1681,38
758,18	1658,85
758,36	1640,42
758,54	1828,84
758,72	1640,42
758,90	1734,63
759,07	1759,21
759,25	1689,57
759,43	1742,82
759,61	1673,19
759,79	2181,09
759,97	1697,77
760,15	1673,19
760,32	1751,01
760,50	1751,01
760,68	1839,08
760,86	1619,94
761,04	1771,49
761,22	1814,50
761,39	1658,85
761,57	1814,50
761,75	1705,96
761,93	1724,39
762,11	1705,96
762,28	1751,01
762,46	1691,62
762,64	1744,87
762,82	1626,09
763,00	1703,91
763,18	1808,36
763,35	1609,70
763,53	1742,82
763,71	1705,96
763,89	1683,43
764,07	1794,02
764,24	1728,49
764,42	1759,21
764,60	1781,73
764,78	1673,19
764,96	1812,45
765,13	1734,63
765,31	1718,25
765,49	1767,40
765,67	1597,42
765,84	1687,53
766,02	1728,49
766,20	1640,42
766,38	1822,69
766,56	1767,40
766,73	1796,07
766,91	1714,15
767,09	1787,88
767,27	1714,15
767,44	1775,59
767,62	1812,45
767,80	1720,29
767,98	1738,73
768,15	1675,24
768,33	1837,03
768,51	1738,73
768,69	1740,77
768,87	1669,09
769,04	1798,12
769,22	1787,88
769,40	1880,04
769,58	1853,41
769,75	1748,97
769,93	1705,96
770,11	1708,01
770,28	1644,52
770,46	1673,19
770,64	1712,10
770,82	1656,81
770,99	1658,85
771,17	1791,97
771,35	1654,76
771,53	1783,78
771,70	1667,05
771,88	1769,44
772,06	1683,43
772,23	1722,34
772,41	1757,16
772,59	1685,48
772,77	1603,56
772,94	1693,67
773,12	1822,69
773,30	1617,90
773,47	1689,57
773,65	1624,04
773,83	1806,31
774,01	1617,90
774,18	1544,17
774,36	1771,49
774,54	1662,95
774,71	1753,06
774,89	1638,38
775,07	1632,23
775,24	1677,29
775,42	1714,15
775,60	1773,54
775,78	1646,57
775,95	1644,52
776,13	1667,05
776,31	1593,32
776,48	1667,05
776,66	1791,97
776,84	1677,29
777,01	1609,70
777,19	1679,33
777,37	1724,39
777,54	1763,30
777,72	1849,32
777,90	1669,09
778,07	1681,38
778,25	1886,18
778,43	1830,88
778,60	1724,39
778,78	1687,53
778,96	1759,21
779,13	1738,73
779,31	1781,73
779,49	1650,66
779,66	1708,01
779,84	1705,96
780,01	1689,57
780,19	1669,09
780,37	1730,53
780,54	1738,73
780,72	1636,33
780,90	1726,44
781,07	1767,40
781,25	1626,09
781,43	1775,59
781,60	1730,53
781,78	1736,68
781,95	1726,44
782,13	1771,49
782,31	1740,77
782,48	1652,71
782,66	1722,34
782,83	1834,98
783,01	1677,29
783,19	1742,82
783,36	1724,39
783,54	1699,81
783,72	1863,65
783,89	1722,34
784,07	1734,63
784,24	1763,30
784,42	1779,68
784,60	1779,68
784,77	1773,54
784,95	1603,56
785,12	1597,42
785,30	1699,81
785,47	1677,29
785,65	1656,81
785,83	1718,25
786,00	1642,47
786,18	1761,25
786,35	1546,22
786,53	1757,16
786,71	1687,53
786,88	1740,77
787,06	1691,62
787,23	1683,43
787,41	1685,48
787,58	1695,72
787,76	1734,63
787,94	1777,64
788,11	1695,72
788,29	1642,47
788,46	1718,25
788,64	1646,57
788,81	1679,33
788,99	1638,38
789,16	1644,52
789,34	1693,67
789,52	1634,28
789,69	1665,00
789,87	1611,75
790,04	1679,33
790,22	1798,12
790,39	1832,93
790,57	1624,04
790,74	1685,48
790,92	1755,11
791,09	1652,71
791,27	1701,86
791,44	1802,21
791,62	1730,53
791,79	1699,81
791,97	1748,97
792,15	1920,99
792,32	1701,86
792,50	1798,12
792,67	1839,08
792,85	1861,60
793,02	1730,53
793,20	1648,61
793,37	1644,52
793,55	1746,92
793,72	1525,74
793,90	1728,49
794,07	1648,61
794,25	1746,92
794,42	1742,82
794,60	1683,43
794,77	1773,54
794,95	1699,81
795,12	1775,59
795,30	1685,48
795,47	1636,33
795,65	1867,75
795,82	1808,36
796,00	1652,71
796,17	1720,29
796,34	1630,18
796,52	1773,54
796,69	1796,07
796,87	1701,86
797,04	1710,05
797,22	1658,85
797,39	1722,34
797,57	1779,68
797,74	1722,34
797,92	1726,44
798,09	1630,18
798,27	1681,38
798,44	1714,15
798,62	1705,96
798,79	1705,96
798,96	1720,29
799,14	1724,39
799,31	1855,46
799,49	1705,96
799,66	1617,90
799,84	1726,44
800,01	1597,42
800,19	1746,92
800,36	1691,62
800,53	1742,82
800,71	1695,72
800,88	1861,60
801,06	1642,47
801,23	1669,09
801,41	1726,44
801,58	1691,62
801,75	1757,16
801,93	1728,49
802,10	1787,88
802,28	1695,72
802,45	1695,72
802,63	1742,82
802,80	1785,83
802,97	1724,39
803,15	1730,53
803,32	1734,63
803,50	1757,16
803,67	1687,53
803,84	1613,80
804,02	1724,39
804,19	1673,19
804,37	1644,52
804,54	1685,48
804,71	1699,81
804,89	1785,83
805,06	1665,00
805,24	1642,47
805,41	1689,57
805,58	1705,96
805,76	1785,83
805,93	1597,42
806,10	1789,92
806,28	1726,44
806,45	1673,19
806,63	1746,92
806,80	1697,77
806,97	1695,72
807,15	1783,78
807,32	1673,19
807,49	1794,02
807,67	1673,19
807,84	1697,77
808,01	1681,38
808,19	1853,41
808,36	1785,83
808,54	1701,86
808,71	1568,74
808,88	1763,30
809,06	1773,54
809,23	1769,44
809,40	1710,05
809,58	1742,82
809,75	1718,25
809,92	1599,46
810,10	1845,22
810,27	1693,67
810,44	1679,33
810,62	1816,55
810,79	1748,97
810,96	1640,42
811,14	1644,52
811,31	1718,25
811,48	1675,24
811,66	1730,53
811,83	1775,59
812,00	1746,92
812,18	1724,39
812,35	1828,84
812,52	1687,53
812,69	1652,71
812,87	1658,85
813,04	1675,24
813,21	1712,10
813,39	1691,62
813,56	1677,29
813,73	1810,40
813,91	1636,33
814,08	1720,29
814,25	1759,21
814,42	1593,32
814,60	1732,58
814,77	1744,87
814,94	1683,43
815,12	1683,43
815,29	1728,49
815,46	1722,34
815,63	1693,67
815,81	1658,85
815,98	1681,38
816,15	1708,01
816,33	1679,33
816,50	1669,09
816,67	1742,82
816,84	1673,19
817,02	1689,57
817,19	1734,63
817,36	1675,24
817,53	1669,09
817,71	1652,71
817,88	1744,87
818,05	1710,05
818,22	1703,91
818,40	1814,50
818,57	1699,81
818,74	1736,68
818,91	1748,97
819,09	1705,96
819,26	1775,59
819,43	1624,04
819,60	1691,62
819,78	1726,44
819,95	1765,35
820,12	1703,91
820,29	1734,63
820,47	1841,12
820,64	1652,71
820,81	1642,47
820,98	1603,56
821,15	1703,91
821,33	1714,15
821,50	1599,46
821,67	1740,77
821,84	1720,29
822,02	1751,01
822,19	1785,83
822,36	1724,39
822,53	1736,68
822,70	1665,00
822,88	1656,81
823,05	1812,45
823,22	1685,48
823,39	1675,24
823,56	1675,24
823,74	1839,08
823,91	1607,66
824,08	1611,75
824,25	1619,94
824,42	1755,11
824,60	1630,18
824,77	1757,16
824,94	1603,56
825,11	1769,44
825,28	1650,66
825,45	1730,53
825,63	1708,01
825,80	1728,49
825,97	1714,15
826,14	1626,09
826,31	1638,38
826,48	1701,86
826,66	1595,37
826,83	1744,87
827,00	1738,73
827,17	1626,09
827,34	1726,44
827,51	1595,37
827,69	1712,10
827,86	1632,23
828,03	1597,42
828,20	1742,82
828,37	1656,81
828,54	1720,29
828,71	1673,19
828,89	1791,97
829,06	1722,34
829,23	1779,68
829,40	1615,85
829,57	1654,76
829,74	1767,40
829,91	1697,77
830,09	1654,76
830,26	1773,54
830,43	1783,78
830,60	1636,33
830,77	1720,29
830,94	1806,31
831,11	1720,29
831,28	1660,90
831,46	1716,20
831,63	1683,43
831,80	1689,57
831,97	1689,57
832,14	1708,01
832,31	1804,26
832,48	1714,15
832,65	1765,35
832,82	1722,34
832,99	1738,73
833,17	1638,38
833,34	1789,92
833,51	1695,72
833,68	1658,85
833,85	1812,45
834,02	1646,57
834,19	1576,94
834,36	1658,85
834,53	1701,86
834,70	1685,48
834,87	1773,54
835,04	1755,11
835,22	1646,57
835,39	1710,05
835,56	1640,42
835,73	1732,58
835,90	1738,73
836,07	1673,19
836,24	1732,58
836,41	1701,86
836,58	1679,33
836,75	1800,16
836,92	1722,34
837,09	1615,85
837,26	1722,34
837,43	1746,92
837,60	1636,33
837,77	1714,15
837,94	1771,49
838,12	1763,30
838,29	1710,05
838,46	1609,70
838,63	1705,96
838,80	1789,92
838,97	1744,87
839,14	1683,43
839,31	1695,72
839,48	1779,68
839,65	1765,35
839,82	1732,58
839,99	1689,57
840,16	1628,14
840,33	1710,05
840,50	1689,57
840,67	1609,70
840,84	1675,24
841,01	1697,77
841,18	1687,53
841,35	1665,00
841,52	1679,33
841,69	1769,44
841,86	1693,67
842,03	1746,92
842,20	1734,63
842,37	1652,71
842,54	1763,30
842,71	1603,56
842,88	1648,61
843,05	1769,44
843,22	1714,15
843,39	1742,82
843,56	1714,15
843,73	1644,52
843,90	1775,59
844,07	1726,44
844,24	1787,88
844,41	1753,06
844,58	1712,10
844,75	1673,19
844,92	1755,11
845,09	1722,34
845,26	1595,37
845,43	1773,54
845,60	1687,53
845,77	1716,20
845,94	1789,92
846,10	1775,59
846,27	1621,99
846,44	1669,09
846,61	1718,25
846,78	1769,44
846,95	1726,44
847,12	1650,66
847,29	1646,57
847,46	1654,76
847,63	1650,66
847,80	1687,53
847,97	1744,87
848,14	1834,98
848,31	1710,05
848,48	1654,76
848,65	1746,92
848,82	1673,19
848,98	1800,16
849,15	1687,53
849,32	1730,53
849,49	1818,60
849,66	1761,25
849,83	1708,01
850,00	1626,09
850,17	1785,83
850,34	1685,48
850,51	1673,19
850,68	1656,81
850,85	1798,12
851,01	1753,06
851,18	1763,30
851,35	1722,34
851,52	1726,44
851,69	1869,80
851,86	1615,85
852,03	1665,00
852,20	1669,09
852,37	1712,10
852,53	1685,48
852,70	1689,57
852,87	1712,10
853,04	1781,73
853,21	1667,05
853,38	1800,16
853,55	1849,32
853,72	1779,68
853,89	1648,61
854,05	1644,52
854,22	1716,20
854,39	1695,72
854,56	1818,60
854,73	1802,21
854,90	1656,81
855,07	1746,92
855,23	1671,14
855,40	1710,05
855,57	1662,95
855,74	1648,61
855,91	1845,22
856,08	1669,09
856,25	1605,61
856,41	1636,33
856,58	1679,33
856,75	1673,19
856,92	1581,03
857,09	1798,12
857,26	1646,57
857,42	1757,16
857,59	1740,77
857,76	1679,33
857,93	1742,82
858,10	1679,33
858,27	1630,18
858,43	1738,73
858,60	1656,81
858,77	1599,46
858,94	1724,39
859,11	1796,07
859,27	1671,14
859,44	1699,81
859,61	1810,40
859,78	1771,49
859,95	1730,53
860,12	1734,63
860,28	1769,44
860,45	1732,58
860,62	1742,82
860,79	1726,44
860,95	1642,47
861,12	1685,48
861,29	1648,61
861,46	1665,00
861,63	1691,62
861,79	1775,59
861,96	1607,66
862,13	1718,25
862,30	1775,59
862,47	1603,56
862,63	1630,18
862,80	1748,97
862,97	1824,74
863,14	1755,11
863,30	1744,87
863,47	1667,05
863,64	1808,36
863,81	1748,97
863,97	1662,95
864,14	1755,11
864,31	1787,88
864,48	1697,77
864,65	1681,38
864,81	1771,49
864,98	1742,82
865,15	1708,01
865,32	1708,01
865,48	1734,63
865,65	1769,44
865,82	1636,33
865,98	1765,35
866,15	1759,21
866,32	1712,10
866,49	1681,38
866,65	1763,30
866,82	1667,05
866,99	1714,15
867,16	1783,78
867,32	1636,33
867,49	1658,85
867,66	1665,00
867,83	1615,85
867,99	1636,33
868,16	1601,51
868,33	1644,52
868,49	1746,92
868,66	1761,25
868,83	1773,54
868,99	1689,57
869,16	1726,44
869,33	1806,31
869,50	1798,12
869,66	1753,06
869,83	1794,02
870,00	1630,18
870,16	1800,16
870,33	1652,71
870,50	1728,49
870,66	1720,29
870,83	1779,68
871,00	1720,29
871,17	1800,16
871,33	1779,68
871,50	1689,57
871,67	1736,68
871,83	1708,01
872,00	1751,01
872,17	1675,24
872,33	1771,49
872,50	1748,97
872,67	1689,57
872,83	1718,25
873,00	1695,72
873,17	1734,63
873,33	1718,25
873,50	1746,92
873,67	1726,44
873,83	1720,29
874,00	1751,01
874,16	1765,35
874,33	1742,82
874,50	1624,04
874,66	1779,68
874,83	1697,77
875,00	1765,35
875,16	1742,82
875,33	1791,97
875,50	1595,37
875,66	1718,25
875,83	1685,48
875,99	1732,58
876,16	1699,81
876,33	1607,66
876,49	1714,15
876,66	1718,25
876,83	1689,57
876,99	1636,33
877,16	1724,39
877,32	1730,53
877,49	1710,05
877,66	1834,98
877,82	1773,54
877,99	1740,77
878,15	1751,01
878,32	1693,67
878,49	1675,24
878,65	1669,09
878,82	1808,36
878,98	1632,23
879,15	1783,78
879,32	1687,53
879,48	1691,62
879,65	1697,77
879,81	1771,49
879,98	1669,09
880,15	1740,77
880,31	1732,58
880,48	1691,62
880,64	1726,44
880,81	1794,02
880,97	1843,17
881,14	1796,07
881,31	1677,29
881,47	1892,32
881,64	1701,86
881,80	1648,61
881,97	1761,25
882,13	1744,87
882,30	1697,77
882,47	1669,09
882,63	1683,43
882,80	1697,77
882,96	1693,67
883,13	1755,11
883,29	1726,44
883,46	1740,77
883,62	1771,49
883,79	1685,48
883,95	1736,68
884,12	1658,85
884,29	1765,35
884,45	1716,20
884,62	1769,44
884,78	1703,91
884,95	1808,36
885,11	1644,52
885,28	1767,40
885,44	1683,43
885,61	1697,77
885,77	1832,93
885,94	1781,73
886,10	1753,06
886,27	1671,14
886,43	1841,12
886,60	1755,11
886,76	1654,76
886,93	1644,52
887,09	1691,62
887,26	1587,18
887,42	1757,16
887,59	1806,31
887,75	1839,08
887,92	1832,93
888,08	1710,05
888,25	1785,83
888,41	1738,73
888,58	1775,59
888,74	1689,57
888,91	1687,53
>>>>>End Processed Spectral Data<<<<<
