SpectraSuite Data File
++++++++++++++++++++++++++++++++++++
Date: Mon Jun 06 16:20:17 CEST 2016
User: root
Dark Spectrum Present: No
Reference Spectrum Present: No
Number of Sampled Component Spectra: 1
Spectrometers: USB4C02835
Integration Time (usec): 100000 (USB4C02835)
Spectra Averaged: 1 (USB4C02835)
Boxcar Smoothing: 0 (USB4C02835)
Correct for Electrical Dark: No (USB4C02835)
Strobe/Lamp Enabled: No (USB4C02835)
Correct for Detector Non-linearity: No (USB4C02835)
Correct for Stray Light: No (USB4C02835)
Number of Pixels in Processed Spectrum: 3648
>>>>>Begin Processed Spectral Data<<<<<
177,47	1427,43
177,69	1427,43
177,91	1427,43
178,13	1460,20
178,36	1480,68
178,58	1718,25
178,80	1738,73
179,02	1669,09
179,24	1560,55
179,46	1712,10
179,68	1710,05
179,90	1738,73
180,13	1769,44
180,35	1691,62
180,57	1712,10
180,79	1726,44
181,01	1748,97
181,23	1751,01
181,45	1822,69
181,67	1724,39
181,90	1779,68
182,12	1673,19
182,34	1566,70
182,56	1781,73
182,78	1675,24
183,00	1671,14
183,22	1712,10
183,44	1609,70
183,66	1828,84
183,89	1830,88
184,11	1730,53
184,33	1806,31
184,55	1761,25
184,77	1728,49
184,99	1716,20
185,21	1714,15
185,43	1847,27
185,65	1679,33
185,87	1714,15
186,10	1802,21
186,32	1863,65
186,54	1714,15
186,76	1701,86
186,98	1701,86
187,20	1699,81
187,42	1648,61
187,64	1734,63
187,86	1675,24
188,08	1738,73
188,30	1697,77
188,52	1724,39
188,75	1855,46
188,97	1806,31
189,19	1673,19
189,41	1652,71
189,63	1726,44
189,85	1695,72
190,07	1716,20
190,29	1591,27
190,51	1751,01
190,73	1628,14
190,95	1794,02
191,17	1642,47
191,39	1632,23
191,61	1746,92
191,84	1722,34
192,06	1769,44
192,28	1685,48
192,50	1920,99
192,72	1712,10
192,94	1693,67
193,16	1787,88
193,38	1740,77
193,60	1660,90
193,82	1724,39
194,04	1810,40
194,26	1755,11
194,48	1726,44
194,70	1705,96
194,92	1769,44
195,14	1736,68
195,36	1701,86
195,58	1697,77
195,80	1683,43
196,02	1705,96
196,24	1794,02
196,46	1720,29
196,69	1695,72
196,91	1867,75
197,13	1699,81
197,35	1644,52
197,57	1732,58
197,79	1775,59
198,01	1787,88
198,23	1734,63
198,45	1697,77
198,67	1617,90
198,89	1738,73
199,11	1800,16
199,33	1601,51
199,55	1621,99
199,77	1660,90
199,99	1740,77
200,21	1703,91
200,43	1751,01
200,65	1673,19
200,87	1599,46
201,09	1699,81
201,31	1720,29
201,53	1703,91
201,75	1724,39
201,97	1720,29
202,19	1671,14
202,41	1769,44
202,63	1859,56
202,85	1705,96
203,07	1812,45
203,29	1730,53
203,51	1593,32
203,73	1728,49
203,95	1929,19
204,17	1656,81
204,39	1685,48
204,61	1701,86
204,83	1759,21
205,05	1789,92
205,27	1771,49
205,49	1769,44
205,71	1853,41
205,93	1648,61
206,15	1675,24
206,37	1740,77
206,59	1701,86
206,81	1697,77
207,03	1624,04
207,25	1615,85
207,47	1708,01
207,69	1732,58
207,91	1837,03
208,13	1802,21
208,34	1683,43
208,56	1638,38
208,78	1791,97
209,00	1609,70
209,22	1652,71
209,44	1714,15
209,66	1681,38
209,88	1734,63
210,10	1681,38
210,32	1736,68
210,54	1789,92
210,76	1771,49
210,98	1753,06
211,20	1599,46
211,42	1722,34
211,64	1773,54
211,86	1759,21
212,08	1771,49
212,30	1660,90
212,52	1689,57
212,74	1736,68
212,96	1689,57
213,17	1703,91
213,39	1783,78
213,61	1773,54
213,83	1781,73
214,05	1726,44
214,27	1828,84
214,49	1646,57
214,71	1691,62
214,93	1763,30
215,15	1716,20
215,37	1753,06
215,59	1665,00
215,81	1802,21
216,03	1767,40
216,24	1710,05
216,46	1652,71
216,68	1814,50
216,90	1708,01
217,12	1771,49
217,34	1748,97
217,56	1828,84
217,78	1871,84
218,00	1777,64
218,22	1703,91
218,44	1712,10
218,66	1697,77
218,87	1839,08
219,09	1617,90
219,31	1812,45
219,53	1673,19
219,75	1607,66
219,97	1703,91
220,19	1720,29
220,41	1632,23
220,63	1777,64
220,85	1767,40
221,06	1693,67
221,28	1808,36
221,50	1773,54
221,72	1671,14
221,94	1675,24
222,16	1724,39
222,38	1667,05
222,60	1787,88
222,82	1607,66
223,03	1759,21
223,25	1646,57
223,47	1765,35
223,69	1773,54
223,91	1693,67
224,13	1720,29
224,35	1746,92
224,57	1796,07
224,78	1773,54
225,00	1701,86
225,22	1722,34
225,44	1705,96
225,66	1687,53
225,88	1624,04
226,10	1763,30
226,32	1757,16
226,53	1675,24
226,75	1693,67
226,97	1689,57
227,19	1697,77
227,41	1705,96
227,63	1710,05
227,85	1583,08
228,06	1767,40
228,28	1718,25
228,50	1722,34
228,72	1695,72
228,94	1621,99
229,16	1691,62
229,37	1626,09
229,59	1673,19
229,81	1775,59
230,03	1652,71
230,25	1671,14
230,47	1646,57
230,69	1646,57
230,90	1714,15
231,12	1720,29
231,34	1665,00
231,56	1816,55
231,78	1599,46
232,00	1701,86
232,21	1712,10
232,43	1701,86
232,65	1646,57
232,87	1781,73
233,09	1644,52
233,30	1630,18
233,52	1712,10
233,74	1652,71
233,96	1675,24
234,18	1763,30
234,40	1683,43
234,61	1767,40
234,83	1587,18
235,05	1638,38
235,27	1918,95
235,49	1796,07
235,70	1712,10
235,92	1742,82
236,14	1734,63
236,36	1871,84
236,58	1624,04
236,79	1755,11
237,01	1738,73
237,23	1660,90
237,45	1818,60
237,67	1681,38
237,88	1751,01
238,10	1773,54
238,32	1718,25
238,54	1779,68
238,76	1597,42
238,97	1751,01
239,19	1728,49
239,41	1720,29
239,63	1771,49
239,85	1675,24
240,06	1705,96
240,28	1644,52
240,50	1726,44
240,72	1677,29
240,93	1650,66
241,15	1808,36
241,37	1732,58
241,59	1798,12
241,81	1654,76
242,02	1763,30
242,24	1665,00
242,46	1763,30
242,68	1644,52
242,89	1724,39
243,11	1804,26
243,33	1710,05
243,55	1765,35
243,76	1740,77
243,98	1724,39
244,20	1681,38
244,42	1679,33
244,64	1708,01
244,85	1652,71
245,07	1607,66
245,29	1791,97
245,51	1765,35
245,72	1681,38
245,94	1779,68
246,16	1716,20
246,38	1763,30
246,59	1712,10
246,81	1716,20
247,03	1689,57
247,24	1642,47
247,46	1755,11
247,68	1710,05
247,90	1730,53
248,11	1679,33
248,33	1794,02
248,55	1691,62
248,77	1800,16
248,98	1748,97
249,20	1781,73
249,42	1697,77
249,64	1722,34
249,85	1665,00
250,07	1740,77
250,29	1724,39
250,50	1734,63
250,72	1669,09
250,94	1757,16
251,16	1800,16
251,37	1759,21
251,59	1769,44
251,81	1665,00
252,02	1773,54
252,24	1687,53
252,46	1800,16
252,68	1722,34
252,89	1642,47
253,11	1636,33
253,33	1863,65
253,54	1701,86
253,76	1685,48
253,98	1761,25
254,20	1669,09
254,41	1693,67
254,63	1746,92
254,85	1658,85
255,06	1656,81
255,28	1689,57
255,50	1699,81
255,71	1691,62
255,93	1615,85
256,15	1705,96
256,36	1777,64
256,58	1734,63
256,80	1697,77
257,02	1695,72
257,23	1759,21
257,45	1742,82
257,67	1783,78
257,88	1685,48
258,10	1761,25
258,32	1638,38
258,53	1705,96
258,75	1781,73
258,97	1650,66
259,18	1746,92
259,40	1744,87
259,62	1773,54
259,83	1800,16
260,05	1669,09
260,27	1966,05
260,48	1802,21
260,70	1603,56
260,92	1818,60
261,13	1779,68
261,35	1746,92
261,57	1689,57
261,78	1634,28
262,00	1669,09
262,22	1751,01
262,43	1689,57
262,65	1644,52
262,86	1685,48
263,08	1847,27
263,30	1730,53
263,51	1626,09
263,73	1722,34
263,95	1806,31
264,16	1665,00
264,38	1718,25
264,60	1718,25
264,81	1609,70
265,03	1732,58
265,25	1771,49
265,46	1744,87
265,68	1794,02
265,89	1742,82
266,11	1593,32
266,33	1720,29
266,54	1777,64
266,76	1751,01
266,98	1769,44
267,19	1779,68
267,41	1765,35
267,62	1742,82
267,84	1644,52
268,06	1734,63
268,27	1763,30
268,49	1796,07
268,70	1851,36
268,92	1718,25
269,14	1667,05
269,35	1599,46
269,57	1714,15
269,79	1769,44
270,00	1681,38
270,22	1837,03
270,43	1699,81
270,65	1617,90
270,87	1761,25
271,08	1796,07
271,30	1765,35
271,51	1687,53
271,73	1722,34
271,95	1767,40
272,16	1667,05
272,38	1789,92
272,59	1699,81
272,81	1820,64
273,02	1769,44
273,24	1689,57
273,46	1789,92
273,67	1619,94
273,89	1697,77
274,10	1705,96
274,32	1757,16
274,54	1705,96
274,75	1710,05
274,97	1701,86
275,18	1695,72
275,40	1753,06
275,61	1697,77
275,83	1730,53
276,05	1607,66
276,26	1710,05
276,48	1732,58
276,69	1652,71
276,91	1708,01
277,12	1718,25
277,34	1781,73
277,55	1697,77
277,77	1691,62
277,99	1736,68
278,20	1687,53
278,42	1648,61
278,63	1654,76
278,85	1646,57
279,06	1656,81
279,28	1724,39
279,49	1759,21
279,71	1802,21
279,93	1665,00
280,14	1755,11
280,36	1632,23
280,57	1753,06
280,79	1712,10
281,00	1673,19
281,22	1685,48
281,43	1679,33
281,65	1669,09
281,86	1611,75
282,08	1730,53
282,29	1771,49
282,51	1648,61
282,73	1658,85
282,94	1654,76
283,16	1773,54
283,37	1796,07
283,59	1708,01
283,80	1738,73
284,02	1732,58
284,23	1718,25
284,45	1753,06
284,66	1720,29
284,88	1636,33
285,09	1744,87
285,31	1708,01
285,52	1726,44
285,74	1697,77
285,95	1787,88
286,17	1705,96
286,38	1761,25
286,60	1626,09
286,81	1697,77
287,03	1660,90
287,24	1720,29
287,46	1720,29
287,67	1726,44
287,89	1777,64
288,10	1699,81
288,32	1740,77
288,53	1773,54
288,75	1806,31
288,96	1687,53
289,18	1656,81
289,39	1724,39
289,61	1746,92
289,82	1804,26
290,04	1796,07
290,25	1644,52
290,47	1708,01
290,68	1654,76
290,90	1798,12
291,11	1628,14
291,33	1703,91
291,54	1636,33
291,76	1626,09
291,97	1660,90
292,18	1656,81
292,40	1624,04
292,61	1681,38
292,83	1861,60
293,04	1824,74
293,26	1705,96
293,47	1689,57
293,69	1597,42
293,90	1726,44
294,12	1773,54
294,33	1712,10
294,55	1665,00
294,76	1796,07
294,97	1824,74
295,19	1877,99
295,40	1677,29
295,62	1658,85
295,83	1746,92
296,05	1658,85
296,26	1769,44
296,48	1718,25
296,69	1714,15
296,90	1658,85
297,12	1734,63
297,33	1771,49
297,55	1738,73
297,76	1781,73
297,98	1759,21
298,19	1677,29
298,41	1726,44
298,62	1679,33
298,83	1814,50
299,05	1744,87
299,26	1722,34
299,48	1673,19
299,69	1728,49
299,90	1791,97
300,12	1617,90
300,33	1720,29
300,55	1675,24
300,76	1730,53
300,98	1638,38
301,19	1736,68
301,40	1728,49
301,62	1773,54
301,83	1742,82
302,05	1728,49
302,26	1728,49
302,47	1755,11
302,69	1716,20
302,90	1705,96
303,12	1583,08
303,33	1746,92
303,54	1886,18
303,76	1705,96
303,97	1712,10
304,19	1724,39
304,40	1648,61
304,61	1789,92
304,83	1865,70
305,04	1857,51
305,26	1742,82
305,47	1644,52
305,68	1742,82
305,90	1593,32
306,11	1773,54
306,33	1626,09
306,54	1687,53
306,75	1744,87
306,97	1695,72
307,18	1691,62
307,39	1667,05
307,61	1845,22
307,82	1683,43
308,04	1759,21
308,25	1646,57
308,46	1683,43
308,68	1683,43
308,89	1781,73
309,10	1742,82
309,32	1814,50
309,53	1755,11
309,74	1755,11
309,96	1638,38
310,17	1753,06
310,39	1689,57
310,60	1701,86
310,81	1679,33
311,03	1568,74
311,24	1855,46
311,45	1753,06
311,67	1828,84
311,88	1714,15
312,09	1734,63
312,31	1640,42
312,52	1722,34
312,73	1757,16
312,95	1566,70
313,16	1640,42
313,37	1777,64
313,59	1746,92
313,80	1773,54
314,01	1841,12
314,23	1716,20
314,44	1695,72
314,65	1714,15
314,87	1615,85
315,08	1644,52
315,29	1767,40
315,51	1648,61
315,72	1626,09
315,93	1751,01
316,15	1746,92
316,36	1673,19
316,57	1742,82
316,79	1757,16
317,00	1687,53
317,21	1746,92
317,43	1624,04
317,64	1697,77
317,85	1736,68
318,07	1673,19
318,28	1681,38
318,49	1746,92
318,70	2002,91
318,92	1828,84
319,13	1798,12
319,34	1914,85
319,56	1785,83
319,77	1808,36
319,98	1837,03
320,20	1771,49
320,41	1679,33
320,62	1740,77
320,83	1724,39
321,05	1888,23
321,26	1773,54
321,47	1732,58
321,69	1820,64
321,90	1683,43
322,11	1695,72
322,32	1759,21
322,54	1740,77
322,75	1648,61
322,96	1849,32
323,18	1619,94
323,39	1660,90
323,60	1638,38
323,81	1839,08
324,03	1740,77
324,24	1636,33
324,45	1648,61
324,66	1667,05
324,88	1734,63
325,09	1832,93
325,30	1695,72
325,52	1701,86
325,73	1734,63
325,94	1624,04
326,15	1626,09
326,37	1644,52
326,58	1818,60
326,79	1828,84
327,00	1644,52
327,22	1675,24
327,43	1628,14
327,64	1798,12
327,85	1777,64
328,07	1689,57
328,28	1863,65
328,49	1691,62
328,70	1687,53
328,92	1738,73
329,13	1669,09
329,34	1734,63
329,55	1820,64
329,76	1746,92
329,98	1695,72
330,19	1767,40
330,40	1785,83
330,61	1728,49
330,83	1783,78
331,04	1652,71
331,25	1726,44
331,46	1705,96
331,68	1640,42
331,89	1736,68
332,10	1761,25
332,31	1665,00
332,52	1740,77
332,74	1773,54
332,95	1673,19
333,16	1712,10
333,37	1726,44
333,58	1681,38
333,80	1701,86
334,01	1656,81
334,22	1695,72
334,43	1673,19
334,64	1726,44
334,86	1716,20
335,07	1728,49
335,28	1806,31
335,49	1658,85
335,70	1728,49
335,92	1759,21
336,13	1800,16
336,34	1761,25
336,55	1779,68
336,76	1697,77
336,98	1621,99
337,19	1757,16
337,40	1820,64
337,61	1892,32
337,82	1648,61
338,04	1695,72
338,25	1660,90
338,46	1730,53
338,67	1691,62
338,88	1609,70
339,09	1734,63
339,31	1679,33
339,52	1636,33
339,73	1708,01
339,94	1689,57
340,15	1738,73
340,36	1695,72
340,58	1681,38
340,79	1665,00
341,00	1871,84
341,21	1656,81
341,42	1832,93
341,63	1734,63
341,85	1740,77
342,06	1681,38
342,27	1591,27
342,48	1751,01
342,69	1681,38
342,90	1675,24
343,12	1726,44
343,33	1665,00
343,54	1775,59
343,75	1789,92
343,96	1748,97
344,17	1642,47
344,38	1720,29
344,60	1665,00
344,81	1683,43
345,02	1708,01
345,23	1791,97
345,44	1806,31
345,65	1691,62
345,86	1746,92
346,07	1607,66
346,29	1710,05
346,50	1818,60
346,71	1724,39
346,92	1779,68
347,13	1818,60
347,34	1767,40
347,55	1613,80
347,76	1744,87
347,98	1615,85
348,19	1763,30
348,40	1804,26
348,61	1652,71
348,82	1796,07
349,03	1697,77
349,24	1615,85
349,45	1849,32
349,66	1562,60
349,88	1740,77
350,09	1644,52
350,30	1738,73
350,51	1728,49
350,72	1728,49
350,93	1650,66
351,14	1710,05
351,35	1701,86
351,56	1808,36
351,77	1642,47
351,99	1691,62
352,20	1914,85
352,41	1777,64
352,62	1638,38
352,83	1701,86
353,04	1705,96
353,25	1751,01
353,46	1751,01
353,67	1826,79
353,88	1652,71
354,09	1732,58
354,30	1667,05
354,52	1693,67
354,73	1697,77
354,94	1716,20
355,15	1644,52
355,36	1814,50
355,57	1726,44
355,78	1730,53
355,99	1720,29
356,20	1671,14
356,41	1769,44
356,62	1718,25
356,83	1724,39
357,04	1796,07
357,25	1636,33
357,46	1699,81
357,68	1624,04
357,89	1646,57
358,10	1738,73
358,31	1626,09
358,52	1652,71
358,73	1673,19
358,94	1691,62
359,15	1687,53
359,36	1748,97
359,57	1714,15
359,78	1705,96
359,99	1720,29
360,20	1593,32
360,41	1744,87
360,62	1708,01
360,83	1748,97
361,04	1669,09
361,25	1775,59
361,46	1767,40
361,67	1679,33
361,88	1789,92
362,09	1765,35
362,30	1695,72
362,51	1673,19
362,72	1812,45
362,93	1779,68
363,14	1705,96
363,35	1714,15
363,56	1624,04
363,78	1763,30
363,99	1777,64
364,20	1720,29
364,41	1705,96
364,62	1802,21
364,83	1736,68
365,04	1751,01
365,25	1693,67
365,46	1818,60
365,67	1671,14
365,88	1681,38
366,09	1665,00
366,30	1726,44
366,51	1757,16
366,72	1662,95
366,93	1669,09
367,14	1789,92
367,35	1753,06
367,56	1726,44
367,77	1845,22
367,98	1736,68
368,18	1734,63
368,39	1767,40
368,60	1708,01
368,81	1824,74
369,02	1777,64
369,23	1748,97
369,44	1642,47
369,65	1759,21
369,86	1722,34
370,07	1769,44
370,28	1718,25
370,49	1669,09
370,70	1789,92
370,91	1699,81
371,12	1650,66
371,33	1820,64
371,54	1701,86
371,75	1841,12
371,96	1648,61
372,17	1693,67
372,38	1740,77
372,59	1744,87
372,80	1691,62
373,01	1667,05
373,22	1746,92
373,43	1724,39
373,64	1669,09
373,85	1828,84
374,06	1751,01
374,26	1832,93
374,47	1730,53
374,68	1861,60
374,89	1736,68
375,10	1716,20
375,31	1796,07
375,52	1736,68
375,73	1724,39
375,94	1654,76
376,15	1785,83
376,36	1638,38
376,57	1679,33
376,78	1703,91
376,99	1726,44
377,20	1810,40
377,40	1667,05
377,61	1759,21
377,82	1652,71
378,03	1796,07
378,24	1796,07
378,45	1732,58
378,66	1748,97
378,87	1589,22
379,08	1693,67
379,29	1714,15
379,50	1830,88
379,71	1757,16
379,91	1787,88
380,12	1726,44
380,33	1751,01
380,54	1683,43
380,75	1679,33
380,96	1660,90
381,17	1728,49
381,38	1753,06
381,59	1771,49
381,80	1671,14
382,00	1875,94
382,21	1789,92
382,42	1841,12
382,63	1814,50
382,84	1765,35
383,05	1769,44
383,26	1771,49
383,47	1763,30
383,68	1716,20
383,88	1808,36
384,09	1716,20
384,30	1841,12
384,51	1716,20
384,72	1697,77
384,93	1609,70
385,14	1701,86
385,35	1777,64
385,55	1687,53
385,76	1812,45
385,97	1662,95
386,18	1669,09
386,39	1722,34
386,60	1685,48
386,81	1710,05
387,02	1718,25
387,22	1609,70
387,43	1775,59
387,64	1791,97
387,85	1849,32
388,06	2265,05
388,27	4259,78
388,48	6637,47
388,68	8216,45
388,89	9654,12
389,10	9820,01
389,31	8408,96
389,52	7460,75
389,73	6635,42
389,93	6078,37
390,14	5867,43
390,35	5111,73
390,56	4650,94
390,77	3760,07
390,98	2922,45
391,18	2459,61
391,39	2203,61
391,60	1910,75
391,81	1742,82
392,02	1773,54
392,23	1857,51
392,43	1843,17
392,64	1837,03
392,85	1755,11
393,06	1791,97
393,27	1775,59
393,47	1638,38
393,68	1720,29
393,89	1740,77
394,10	1761,25
394,31	1720,29
394,52	1689,57
394,72	1753,06
394,93	1785,83
395,14	1636,33
395,35	1732,58
395,56	1658,85
395,76	1763,30
395,97	1771,49
396,18	1871,84
396,39	1826,79
396,60	2088,93
396,80	1892,32
397,01	1779,68
397,22	1814,50
397,43	1828,84
397,64	1701,86
397,84	1935,33
398,05	1849,32
398,26	1808,36
398,47	1814,50
398,67	1796,07
398,88	1761,25
399,09	1789,92
399,30	1650,66
399,51	1648,61
399,71	1634,28
399,92	1654,76
400,13	1771,49
400,34	1650,66
400,54	1730,53
400,75	1746,92
400,96	1779,68
401,17	1796,07
401,37	1740,77
401,58	1710,05
401,79	1665,00
402,00	1910,75
402,21	2031,58
402,41	1951,71
402,62	1916,90
402,83	2068,45
403,04	2015,20
403,24	2064,35
403,45	1816,55
403,66	1904,61
403,87	1947,62
404,07	1900,52
404,28	1892,32
404,49	1953,76
404,70	1714,15
404,90	1796,07
405,11	1730,53
405,32	1662,95
405,52	1673,19
405,73	1712,10
405,94	1673,19
406,15	1826,79
406,35	1669,09
406,56	1740,77
406,77	1693,67
406,98	1740,77
407,18	1638,38
407,39	1800,16
407,60	1730,53
407,80	1851,36
408,01	1646,57
408,22	1726,44
408,43	1722,34
408,63	1755,11
408,84	1738,73
409,05	1751,01
409,25	1759,21
409,46	1652,71
409,67	1761,25
409,88	1677,29
410,08	1732,58
410,29	1685,48
410,50	1812,45
410,70	1730,53
410,91	1787,88
411,12	1769,44
411,32	1697,77
411,53	1714,15
411,74	1771,49
411,95	1724,39
412,15	1738,73
412,36	1779,68
412,57	1816,55
412,77	1824,74
412,98	1773,54
413,19	1687,53
413,39	1800,16
413,60	1724,39
413,81	1763,30
414,01	1720,29
414,22	1771,49
414,43	1718,25
414,63	1779,68
414,84	1806,31
415,05	1720,29
415,25	1644,52
415,46	1683,43
415,67	1656,81
415,87	1705,96
416,08	1794,02
416,29	1726,44
416,49	1759,21
416,70	1744,87
416,91	1703,91
417,11	1634,28
417,32	1832,93
417,53	1744,87
417,73	1732,58
417,94	1671,14
418,15	1730,53
418,35	1763,30
418,56	1757,16
418,77	1769,44
418,97	1673,19
419,18	1708,01
419,38	1542,12
419,59	1662,95
419,80	1755,11
420,00	1701,86
420,21	1705,96
420,42	1761,25
420,62	1755,11
420,83	1759,21
421,04	1695,72
421,24	1712,10
421,45	1751,01
421,65	1728,49
421,86	1703,91
422,07	1775,59
422,27	1640,42
422,48	1638,38
422,69	1642,47
422,89	1708,01
423,10	1703,91
423,30	1660,90
423,51	1691,62
423,72	1691,62
423,92	1728,49
424,13	1705,96
424,33	1734,63
424,54	1787,88
424,75	1705,96
424,95	1880,04
425,16	1738,73
425,36	1738,73
425,57	1769,44
425,78	1761,25
425,98	1767,40
426,19	1648,61
426,39	1681,38
426,60	1755,11
426,81	1730,53
427,01	1763,30
427,22	1656,81
427,42	1619,94
427,63	1775,59
427,83	1791,97
428,04	1849,32
428,25	1714,15
428,45	1740,77
428,66	1748,97
428,86	1730,53
429,07	1695,72
429,28	1703,91
429,48	1718,25
429,69	1638,38
429,89	1669,09
430,10	1673,19
430,30	1814,50
430,51	1820,64
430,71	1644,52
430,92	1757,16
431,13	1634,28
431,33	1714,15
431,54	1695,72
431,74	1839,08
431,95	1855,46
432,15	1585,13
432,36	1751,01
432,56	1746,92
432,77	1802,21
432,98	1798,12
433,18	1718,25
433,39	1699,81
433,59	1769,44
433,80	1806,31
434,00	1884,13
434,21	1751,01
434,41	1621,99
434,62	1822,69
434,82	1720,29
435,03	1656,81
435,23	1656,81
435,44	1714,15
435,64	1660,90
435,85	1726,44
436,06	1755,11
436,26	1812,45
436,47	1650,66
436,67	1603,56
436,88	1773,54
437,08	1751,01
437,29	1820,64
437,49	1703,91
437,70	1804,26
437,90	1779,68
438,11	1855,46
438,31	1804,26
438,52	1816,55
438,72	1857,51
438,93	1894,37
439,13	1853,41
439,34	1777,64
439,54	1779,68
439,75	1877,99
439,95	1763,30
440,16	1771,49
440,36	1732,58
440,57	1693,67
440,77	1716,20
440,98	1736,68
441,18	1769,44
441,39	1681,38
441,59	1675,24
441,80	1830,88
442,00	1720,29
442,21	1880,04
442,41	1642,47
442,62	1812,45
442,82	1708,01
443,02	1761,25
443,23	1865,70
443,43	1757,16
443,64	1843,17
443,84	1693,67
444,05	1759,21
444,25	1806,31
444,46	1718,25
444,66	1796,07
444,87	1808,36
445,07	1679,33
445,28	1701,86
445,48	1826,79
445,69	1728,49
445,89	1873,89
446,09	1746,92
446,30	2050,02
446,50	2566,10
446,71	3706,82
446,91	4356,03
447,12	4822,97
447,32	4812,73
447,53	4208,58
447,73	3788,74
447,93	3561,42
448,14	3405,77
448,34	3209,17
448,55	2934,74
448,75	2867,16
448,96	2744,28
449,16	2416,60
449,36	2344,92
449,57	2080,74
449,77	1925,09
449,98	1800,16
450,18	1802,21
450,39	1796,07
450,59	1763,30
450,79	1744,87
451,00	1763,30
451,20	1800,16
451,41	1689,57
451,61	1769,44
451,81	1720,29
452,02	1726,44
452,22	1714,15
452,43	1703,91
452,63	1722,34
452,84	1824,74
453,04	1673,19
453,24	1726,44
453,45	1789,92
453,65	1732,58
453,86	1755,11
454,06	1787,88
454,26	1755,11
454,47	1708,01
454,67	1812,45
454,87	1738,73
455,08	1689,57
455,28	1886,18
455,49	1730,53
455,69	1642,47
455,89	1931,23
456,10	1820,64
456,30	1736,68
456,51	1783,78
456,71	1746,92
456,91	1810,40
457,12	1804,26
457,32	1722,34
457,52	1665,00
457,73	1808,36
457,93	1812,45
458,14	1701,86
458,34	1669,09
458,54	1677,29
458,75	1689,57
458,95	1820,64
459,15	1763,30
459,36	1718,25
459,56	1671,14
459,76	1857,51
459,97	1687,53
460,17	1742,82
460,37	1863,65
460,58	1724,39
460,78	1849,32
460,99	1722,34
461,19	1730,53
461,39	1650,66
461,60	1779,68
461,80	1722,34
462,00	1716,20
462,21	1718,25
462,41	1718,25
462,61	1685,48
462,82	1632,23
463,02	1787,88
463,22	1742,82
463,43	1845,22
463,63	1742,82
463,83	1822,69
464,04	1828,84
464,24	1742,82
464,44	1718,25
464,64	1722,34
464,85	1718,25
465,05	1806,31
465,25	1695,72
465,46	1720,29
465,66	1796,07
465,86	1814,50
466,07	1744,87
466,27	1677,29
466,47	1710,05
466,68	1681,38
466,88	1791,97
467,08	1845,22
467,29	1744,87
467,49	1783,78
467,69	1716,20
467,89	1759,21
468,10	1701,86
468,30	1769,44
468,50	1775,59
468,71	1804,26
468,91	1638,38
469,11	1918,95
469,31	1839,08
469,52	1648,61
469,72	1859,56
469,92	1886,18
470,13	1826,79
470,33	1710,05
470,53	1746,92
470,73	2164,70
470,94	2265,05
471,14	2275,29
471,34	2566,10
471,54	2418,65
471,75	2215,90
471,95	2107,36
472,15	2129,89
472,36	2138,08
472,56	2084,83
472,76	2103,26
472,96	1996,77
473,17	1957,86
473,37	1886,18
473,57	1800,16
473,77	1834,98
473,98	1724,39
474,18	1771,49
474,38	1906,66
474,58	1740,77
474,79	1722,34
474,99	1722,34
475,19	1779,68
475,39	1701,86
475,60	1710,05
475,80	1757,16
476,00	1712,10
476,20	1636,33
476,41	1777,64
476,61	1880,04
476,81	1783,78
477,01	1599,46
477,21	1816,55
477,42	1791,97
477,62	1671,14
477,82	1708,01
478,02	1642,47
478,23	1804,26
478,43	1767,40
478,63	1681,38
478,83	1785,83
479,03	1769,44
479,24	1798,12
479,44	1857,51
479,64	1665,00
479,84	1660,90
480,04	1689,57
480,25	1761,25
480,45	1738,73
480,65	1662,95
480,85	1822,69
481,06	1722,34
481,26	1710,05
481,46	1705,96
481,66	1736,68
481,86	1742,82
482,06	1785,83
482,27	1724,39
482,47	1783,78
482,67	1722,34
482,87	1732,58
483,07	1820,64
483,28	1648,61
483,48	1675,24
483,68	1697,77
483,88	1665,00
484,08	1611,75
484,29	1621,99
484,49	1746,92
484,69	1650,66
484,89	1818,60
485,09	1800,16
485,29	1726,44
485,50	1802,21
485,70	1724,39
485,90	1738,73
486,10	1871,84
486,30	1738,73
486,50	1744,87
486,71	1789,92
486,91	1832,93
487,11	1789,92
487,31	1621,99
487,51	1757,16
487,71	1736,68
487,91	1636,33
488,12	1726,44
488,32	1603,56
488,52	1656,81
488,72	1585,13
488,92	1677,29
489,12	1779,68
489,32	1771,49
489,53	1736,68
489,73	1654,76
489,93	1855,46
490,13	1673,19
490,33	1665,00
490,53	1716,20
490,73	1863,65
490,94	1660,90
491,14	1773,54
491,34	1851,36
491,54	2199,52
491,74	2553,82
491,94	2795,48
492,14	3012,56
492,34	2990,03
492,54	2645,98
492,75	2426,84
492,95	2424,80
493,15	2349,02
493,35	2258,91
493,55	2207,71
493,75	2142,18
493,95	2195,42
494,15	2064,35
494,35	1906,66
494,56	1871,84
494,76	1820,64
494,96	1814,50
495,16	1800,16
495,36	1880,04
495,56	1783,78
495,76	1724,39
495,96	1861,60
496,16	1665,00
496,36	1873,89
496,56	1769,44
496,77	1785,83
496,97	1669,09
497,17	1851,36
497,37	1628,14
497,57	1800,16
497,77	1779,68
497,97	1681,38
498,17	1779,68
498,37	1730,53
498,57	1769,44
498,77	1718,25
498,97	1857,51
499,17	1839,08
499,38	1716,20
499,58	1798,12
499,78	1783,78
499,98	1812,45
500,18	1652,71
500,38	1730,53
500,58	1961,95
500,78	2531,29
500,98	4534,20
501,18	5810,09
501,38	6807,45
501,58	7114,64
501,78	6588,32
501,98	5517,23
502,18	4972,47
502,38	4437,95
502,58	4177,86
502,78	3844,04
502,98	3649,48
503,18	3330,00
503,38	3121,10
503,59	2772,95
503,79	2537,43
503,99	2566,10
504,19	2291,68
504,39	2230,24
504,59	2193,37
504,79	2146,27
504,99	2117,60
505,19	2025,44
505,39	1847,27
505,59	1951,71
505,79	1974,24
505,99	1902,56
506,19	1834,98
506,39	1972,19
506,59	1708,01
506,79	1748,97
506,99	1849,32
507,19	1751,01
507,39	1843,17
507,59	1722,34
507,79	1785,83
507,99	1755,11
508,19	1679,33
508,39	1705,96
508,59	1679,33
508,79	1890,28
508,99	1808,36
509,19	1636,33
509,39	1806,31
509,59	1773,54
509,79	1671,14
509,99	1669,09
510,19	1791,97
510,39	1800,16
510,59	1804,26
510,79	1765,35
510,99	1738,73
511,19	1769,44
511,39	1761,25
511,59	1724,39
511,79	1757,16
511,99	1718,25
512,19	1861,60
512,38	1718,25
512,58	1771,49
512,78	1787,88
512,98	1888,23
513,18	1869,80
513,38	1638,38
513,58	1710,05
513,78	1775,59
513,98	1771,49
514,18	1673,19
514,38	1697,77
514,58	1767,40
514,78	1697,77
514,98	1742,82
515,18	1695,72
515,38	1691,62
515,58	1894,37
515,78	1773,54
515,98	1710,05
516,18	1724,39
516,38	1728,49
516,57	1724,39
516,77	1865,70
516,97	1755,11
517,17	1785,83
517,37	1671,14
517,57	1779,68
517,77	1722,34
517,97	1691,62
518,17	1722,34
518,37	1732,58
518,57	1746,92
518,77	1734,63
518,97	1763,30
519,16	1744,87
519,36	1822,69
519,56	1738,73
519,76	1714,15
519,96	1705,96
520,16	1843,17
520,36	1677,29
520,56	1916,90
520,76	1740,77
520,96	1775,59
521,16	1773,54
521,35	1830,88
521,55	1861,60
521,75	1740,77
521,95	1771,49
522,15	1718,25
522,35	1693,67
522,55	1695,72
522,75	1814,50
522,95	1689,57
523,14	1757,16
523,34	1781,73
523,54	1718,25
523,74	1794,02
523,94	1796,07
524,14	1685,48
524,34	1794,02
524,54	1828,84
524,73	1679,33
524,93	1759,21
525,13	1718,25
525,33	1689,57
525,53	1890,28
525,73	1783,78
525,93	1771,49
526,13	1738,73
526,32	1755,11
526,52	1812,45
526,72	1738,73
526,92	1687,53
527,12	1691,62
527,32	1632,23
527,52	1720,29
527,71	1808,36
527,91	1714,15
528,11	1746,92
528,31	1763,30
528,51	1703,91
528,71	1777,64
528,90	1697,77
529,10	1787,88
529,30	1748,97
529,50	1652,71
529,70	1677,29
529,90	1720,29
530,09	1740,77
530,29	1685,48
530,49	1624,04
530,69	1822,69
530,89	1800,16
531,09	1779,68
531,28	1755,11
531,48	1826,79
531,68	1718,25
531,88	1791,97
532,08	1880,04
532,28	1722,34
532,47	1837,03
532,67	1791,97
532,87	1759,21
533,07	1781,73
533,27	1767,40
533,46	1777,64
533,66	1800,16
533,86	1718,25
534,06	1751,01
534,26	1708,01
534,45	1767,40
534,65	1720,29
534,85	1714,15
535,05	1722,34
535,25	1814,50
535,44	1658,85
535,64	1814,50
535,84	1746,92
536,04	1695,72
536,24	1753,06
536,43	1667,05
536,63	1691,62
536,83	1693,67
537,03	1787,88
537,22	1609,70
537,42	1697,77
537,62	1777,64
537,82	1726,44
538,02	1751,01
538,21	1873,89
538,41	1902,56
538,61	1812,45
538,81	1755,11
539,00	1843,17
539,20	1726,44
539,40	1730,53
539,60	1763,30
539,79	1757,16
539,99	1724,39
540,19	1722,34
540,39	1757,16
540,58	1779,68
540,78	1812,45
540,98	1796,07
541,18	1697,77
541,37	1806,31
541,57	1787,88
541,77	1722,34
541,97	1765,35
542,16	1689,57
542,36	1705,96
542,56	1845,22
542,76	1814,50
542,95	1787,88
543,15	1738,73
543,35	1755,11
543,54	1787,88
543,74	1746,92
543,94	1800,16
544,14	1753,06
544,33	1740,77
544,53	1771,49
544,73	1701,86
544,93	1675,24
545,12	1722,34
545,32	1773,54
545,52	1763,30
545,71	1621,99
545,91	1681,38
546,11	1765,35
546,30	1683,43
546,50	1746,92
546,70	1755,11
546,90	1767,40
547,09	1697,77
547,29	1781,73
547,49	1755,11
547,68	1693,67
547,88	1710,05
548,08	1740,77
548,27	2099,17
548,47	1665,00
548,67	1771,49
548,87	1849,32
549,06	1732,58
549,26	1757,16
549,46	1742,82
549,65	1757,16
549,85	1738,73
550,05	1775,59
550,24	1728,49
550,44	1759,21
550,64	1712,10
550,83	1710,05
551,03	1834,98
551,23	1783,78
551,42	1697,77
551,62	1806,31
551,82	1738,73
552,01	1845,22
552,21	1773,54
552,41	1802,21
552,60	1808,36
552,80	1796,07
553,00	1785,83
553,19	1773,54
553,39	1888,23
553,59	1705,96
553,78	1744,87
553,98	1716,20
554,17	1687,53
554,37	1798,12
554,57	1830,88
554,76	1634,28
554,96	1691,62
555,16	1783,78
555,35	1742,82
555,55	1734,63
555,75	1748,97
555,94	1834,98
556,14	1708,01
556,33	1849,32
556,53	1746,92
556,73	1773,54
556,92	1808,36
557,12	1896,42
557,32	1843,17
557,51	1822,69
557,71	1798,12
557,90	1865,70
558,10	1908,71
558,30	1746,92
558,49	1716,20
558,69	1728,49
558,88	1748,97
559,08	1794,02
559,28	1732,58
559,47	1785,83
559,67	1853,41
559,86	1857,51
560,06	1820,64
560,26	1777,64
560,45	1824,74
560,65	1681,38
560,84	1880,04
561,04	1619,94
561,24	1781,73
561,43	1677,29
561,63	1841,12
561,82	1810,40
562,02	1796,07
562,22	1691,62
562,41	1693,67
562,61	1697,77
562,80	1665,00
563,00	1937,38
563,19	1777,64
563,39	1826,79
563,59	1683,43
563,78	1669,09
563,98	1677,29
564,17	1759,21
564,37	1613,80
564,56	1753,06
564,76	1693,67
564,96	1748,97
565,15	1769,44
565,35	1920,99
565,54	1734,63
565,74	1710,05
565,93	1695,72
566,13	1859,56
566,32	1785,83
566,52	1779,68
566,71	1759,21
566,91	1822,69
567,11	1753,06
567,30	1742,82
567,50	1841,12
567,69	1722,34
567,89	1705,96
568,08	1695,72
568,28	1791,97
568,47	1673,19
568,67	1765,35
568,86	1802,21
569,06	1728,49
569,25	1730,53
569,45	1646,57
569,64	1746,92
569,84	1677,29
570,04	1796,07
570,23	1746,92
570,43	1753,06
570,62	1796,07
570,82	1869,80
571,01	1691,62
571,21	1755,11
571,40	1734,63
571,60	1763,30
571,79	1804,26
571,99	1800,16
572,18	1654,76
572,38	1777,64
572,57	1785,83
572,77	1779,68
572,96	1912,80
573,16	1748,97
573,35	1755,11
573,55	1869,80
573,74	1818,60
573,94	1796,07
574,13	1669,09
574,33	1877,99
574,52	1783,78
574,71	1701,86
574,91	1796,07
575,10	1732,58
575,30	1771,49
575,49	1642,47
575,69	1736,68
575,88	1697,77
576,08	1726,44
576,27	1783,78
576,47	1718,25
576,66	1910,75
576,86	1783,78
577,05	1779,68
577,25	1802,21
577,44	1869,80
577,64	1724,39
577,83	1789,92
578,02	1691,62
578,22	1814,50
578,41	1896,42
578,61	1697,77
578,80	1660,90
579,00	1746,92
579,19	1800,16
579,39	1789,92
579,58	1794,02
579,77	1658,85
579,97	1814,50
580,16	1916,90
580,36	1773,54
580,55	1900,52
580,75	1785,83
580,94	1748,97
581,13	1902,56
581,33	1816,55
581,52	1800,16
581,72	1822,69
581,91	1849,32
582,11	1759,21
582,30	1843,17
582,49	1771,49
582,69	1925,09
582,88	1839,08
583,08	1837,03
583,27	1800,16
583,47	1734,63
583,66	1728,49
583,85	1669,09
584,05	1789,92
584,24	1775,59
584,44	1802,21
584,63	1826,79
584,82	1847,27
585,02	1834,98
585,21	1861,60
585,41	1820,64
585,60	1910,75
585,79	1900,52
585,99	1941,47
586,18	1920,99
586,37	2240,48
586,57	3413,96
586,76	9777,00
586,96	24211,09
587,15	33803,77
587,34	40103,32
587,54	41674,12
587,73	36365,78
587,93	25839,22
588,12	21419,71
588,31	18231,02
588,51	16156,43
588,70	14976,80
588,89	13928,24
589,09	12486,47
589,28	11095,89
589,47	9332,59
589,67	7907,21
589,86	6379,42
590,06	4902,84
590,25	3870,66
590,44	3026,90
590,64	2619,35
590,83	2263,01
591,02	2127,84
591,22	1955,81
591,41	1871,84
591,60	1834,98
591,80	1955,81
591,99	1759,21
592,18	1746,92
592,38	1865,70
592,57	1712,10
592,76	1841,12
592,96	1791,97
593,15	1708,01
593,34	1861,60
593,54	1742,82
593,73	1773,54
593,92	1777,64
594,12	1722,34
594,31	1787,88
594,50	1861,60
594,70	1863,65
594,89	1875,94
595,08	1759,21
595,28	1783,78
595,47	1918,95
595,66	1808,36
595,86	1654,76
596,05	1746,92
596,24	1681,38
596,43	1925,09
596,63	1834,98
596,82	1689,57
597,01	1804,26
597,21	1822,69
597,40	1826,79
597,59	1654,76
597,79	1656,81
597,98	1740,77
598,17	1789,92
598,36	1705,96
598,56	1804,26
598,75	1705,96
598,94	1763,30
599,14	1683,43
599,33	1660,90
599,52	1812,45
599,71	1783,78
599,91	1798,12
600,10	1742,82
600,29	1712,10
600,48	1779,68
600,68	1777,64
600,87	1693,67
601,06	1648,61
601,26	1738,73
601,45	1697,77
601,64	1695,72
601,83	1775,59
602,03	1734,63
602,22	1697,77
602,41	1789,92
602,60	1863,65
602,80	1779,68
602,99	1751,01
603,18	1708,01
603,37	1748,97
603,57	1816,55
603,76	1789,92
603,95	1781,73
604,14	1693,67
604,34	1767,40
604,53	1753,06
604,72	1732,58
604,91	1781,73
605,10	1789,92
605,30	1621,99
605,49	1877,99
605,68	1759,21
605,87	1753,06
606,07	1646,57
606,26	1740,77
606,45	1806,31
606,64	1818,60
606,84	1726,44
607,03	1734,63
607,22	1746,92
607,41	1695,72
607,60	1697,77
607,80	1810,40
607,99	1722,34
608,18	1775,59
608,37	1763,30
608,56	1675,24
608,76	1810,40
608,95	1828,84
609,14	1824,74
609,33	1787,88
609,52	1740,77
609,72	1744,87
609,91	1847,27
610,10	1748,97
610,29	1865,70
610,48	1818,60
610,68	1769,44
610,87	1689,57
611,06	1787,88
611,25	1718,25
611,44	1775,59
611,63	1769,44
611,83	1800,16
612,02	1740,77
612,21	1798,12
612,40	1591,27
612,59	1624,04
612,79	1648,61
612,98	1734,63
613,17	1861,60
613,36	1757,16
613,55	1810,40
613,74	1693,67
613,93	1722,34
614,13	1757,16
614,32	1724,39
614,51	1720,29
614,70	1708,01
614,89	1697,77
615,08	1845,22
615,28	2123,74
615,47	1646,57
615,66	1705,96
615,85	1712,10
616,04	1834,98
616,23	1732,58
616,42	1783,78
616,62	1802,21
616,81	1742,82
617,00	1708,01
617,19	1785,83
617,38	1732,58
617,57	1804,26
617,76	1705,96
617,95	1767,40
618,15	1787,88
618,34	1771,49
618,53	1628,14
618,72	1726,44
618,91	1787,88
619,10	1832,93
619,29	1839,08
619,48	1710,05
619,68	1714,15
619,87	1697,77
620,06	1691,62
620,25	1757,16
620,44	1728,49
620,63	1724,39
620,82	1738,73
621,01	1734,63
621,20	1769,44
621,39	1656,81
621,59	1716,20
621,78	1800,16
621,97	1814,50
622,16	1697,77
622,35	1714,15
622,54	1730,53
622,73	1773,54
622,92	1648,61
623,11	1796,07
623,30	1640,42
623,49	1837,03
623,68	1699,81
623,88	1884,13
624,07	1705,96
624,26	1748,97
624,45	1802,21
624,64	1701,86
624,83	1753,06
625,02	1628,14
625,21	1701,86
625,40	1746,92
625,59	1783,78
625,78	1744,87
625,97	1742,82
626,16	1853,41
626,35	1728,49
626,54	1763,30
626,74	1751,01
626,93	1748,97
627,12	1671,14
627,31	1734,63
627,50	1722,34
627,69	1703,91
627,88	1646,57
628,07	1748,97
628,26	1689,57
628,45	1722,34
628,64	1681,38
628,83	1779,68
629,02	1662,95
629,21	1751,01
629,40	1728,49
629,59	1681,38
629,78	1738,73
629,97	1710,05
630,16	1718,25
630,35	1736,68
630,54	1701,86
630,73	1656,81
630,92	1730,53
631,11	1705,96
631,30	1687,53
631,49	1789,92
631,68	1712,10
631,87	1722,34
632,06	1636,33
632,25	1898,47
632,44	1720,29
632,63	1740,77
632,82	1691,62
633,01	1646,57
633,20	1705,96
633,39	1617,90
633,58	1691,62
633,77	1794,02
633,96	1779,68
634,15	1791,97
634,34	1742,82
634,53	1738,73
634,72	1652,71
634,91	1701,86
635,10	1757,16
635,29	1730,53
635,48	1806,31
635,67	1718,25
635,86	1650,66
636,05	1746,92
636,24	1753,06
636,43	1740,77
636,62	1798,12
636,81	1574,89
637,00	1656,81
637,19	1718,25
637,38	1763,30
637,57	1712,10
637,76	1746,92
637,95	1724,39
638,14	1751,01
638,33	1720,29
638,52	1658,85
638,71	1675,24
638,89	1714,15
639,08	1894,37
639,27	1791,97
639,46	1722,34
639,65	1787,88
639,84	1683,43
640,03	1738,73
640,22	1730,53
640,41	1892,32
640,60	1624,04
640,79	1708,01
640,98	1679,33
641,17	1755,11
641,36	1781,73
641,55	1763,30
641,74	1693,67
641,92	1705,96
642,11	1640,42
642,30	1689,57
642,49	1695,72
642,68	1783,78
642,87	1755,11
643,06	1853,41
643,25	1697,77
643,44	1677,29
643,63	1796,07
643,82	1751,01
644,00	1640,42
644,19	1759,21
644,38	1683,43
644,57	1757,16
644,76	1781,73
644,95	1691,62
645,14	1710,05
645,33	1732,58
645,52	1748,97
645,71	1644,52
645,89	1646,57
646,08	1695,72
646,27	1646,57
646,46	1849,32
646,65	1611,75
646,84	1703,91
647,03	1718,25
647,22	1828,84
647,40	1794,02
647,59	1718,25
647,78	1642,47
647,97	1712,10
648,16	1732,58
648,35	1753,06
648,54	1736,68
648,73	1716,20
648,91	1781,73
649,10	1716,20
649,29	1716,20
649,48	1748,97
649,67	1722,34
649,86	1705,96
650,05	1699,81
650,23	1798,12
650,42	1650,66
650,61	1761,25
650,80	1697,77
650,99	1822,69
651,18	1822,69
651,36	1851,36
651,55	1685,48
651,74	1841,12
651,93	1722,34
652,12	1736,68
652,31	1794,02
652,49	1671,14
652,68	1738,73
652,87	1740,77
653,06	1665,00
653,25	1841,12
653,44	1728,49
653,62	1820,64
653,81	1738,73
654,00	1728,49
654,19	1773,54
654,38	1773,54
654,56	1742,82
654,75	1712,10
654,94	1699,81
655,13	1767,40
655,32	1687,53
655,51	1759,21
655,69	1748,97
655,88	1785,83
656,07	1718,25
656,26	1775,59
656,45	1646,57
656,63	1697,77
656,82	1755,11
657,01	1763,30
657,20	1781,73
657,38	1773,54
657,57	1783,78
657,76	1656,81
657,95	1718,25
658,14	1738,73
658,32	1716,20
658,51	1728,49
658,70	1660,90
658,89	1810,40
659,08	1685,48
659,26	1779,68
659,45	1681,38
659,64	1730,53
659,83	1681,38
660,01	1910,75
660,20	1775,59
660,39	1857,51
660,58	1705,96
660,76	1767,40
660,95	1669,09
661,14	1800,16
661,33	1615,85
661,51	1718,25
661,70	1728,49
661,89	1708,01
662,08	1796,07
662,26	1744,87
662,45	1628,14
662,64	1734,63
662,83	1736,68
663,01	1650,66
663,20	1630,18
663,39	1806,31
663,58	1665,00
663,76	1699,81
663,95	1787,88
664,14	1726,44
664,32	1689,57
664,51	1648,61
664,70	1673,19
664,89	1751,01
665,07	1681,38
665,26	1824,74
665,45	1675,24
665,64	1767,40
665,82	1714,15
666,01	1781,73
666,20	1658,85
666,38	1787,88
666,57	1822,69
666,76	2193,37
666,95	4458,43
667,13	10405,73
667,32	15253,27
667,51	17790,70
667,69	18953,95
667,88	17843,95
668,07	12203,85
668,25	9310,07
668,44	8150,92
668,63	7366,54
668,81	6703,00
669,00	6293,41
669,19	5609,39
669,38	4976,56
669,56	4515,77
669,75	3966,92
669,94	3291,09
670,12	2891,73
670,31	2533,34
670,50	2336,73
670,68	2035,68
670,87	1916,90
671,06	1812,45
671,24	1830,88
671,43	1834,98
671,62	1708,01
671,80	1787,88
671,99	1757,16
672,18	1683,43
672,36	1798,12
672,55	1734,63
672,74	1658,85
672,92	1744,87
673,11	1755,11
673,29	1665,00
673,48	1755,11
673,67	1669,09
673,85	1812,45
674,04	1699,81
674,23	1669,09
674,41	1794,02
674,60	1648,61
674,79	1681,38
674,97	1689,57
675,16	1683,43
675,34	1810,40
675,53	1656,81
675,72	1732,58
675,90	1843,17
676,09	1687,53
676,28	1716,20
676,46	1634,28
676,65	1734,63
676,83	1757,16
677,02	1748,97
677,21	1816,55
677,39	1742,82
677,58	1654,76
677,77	1718,25
677,95	1681,38
678,14	1669,09
678,32	1755,11
678,51	1705,96
678,70	1812,45
678,88	1710,05
679,07	1681,38
679,25	1740,77
679,44	1652,71
679,63	1615,85
679,81	1742,82
680,00	1837,03
680,18	1779,68
680,37	1730,53
680,55	1722,34
680,74	1632,23
680,93	1607,66
681,11	1685,48
681,30	1701,86
681,48	1714,15
681,67	1687,53
681,85	1683,43
682,04	1685,48
682,23	1796,07
682,41	1708,01
682,60	1660,90
682,78	1740,77
682,97	1613,80
683,15	1718,25
683,34	1687,53
683,53	1765,35
683,71	1632,23
683,90	1755,11
684,08	1843,17
684,27	1689,57
684,45	1722,34
684,64	1730,53
684,82	1722,34
685,01	1771,49
685,19	1730,53
685,38	1789,92
685,57	1710,05
685,75	1689,57
685,94	1683,43
686,12	1638,38
686,31	1726,44
686,49	1828,84
686,68	1652,71
686,86	1732,58
687,05	1695,72
687,23	1849,32
687,42	1660,90
687,60	1576,94
687,79	1765,35
687,97	1798,12
688,16	1841,12
688,34	1826,79
688,53	1656,81
688,71	1732,58
688,90	1746,92
689,08	1650,66
689,27	1691,62
689,45	1798,12
689,64	1740,77
689,82	1740,77
690,01	1665,00
690,19	1716,20
690,38	1705,96
690,56	1798,12
690,75	1677,29
690,93	1648,61
691,12	1751,01
691,30	1757,16
691,49	1650,66
691,67	1757,16
691,86	1787,88
692,04	1675,24
692,23	1677,29
692,41	1705,96
692,60	1748,97
692,78	1759,21
692,97	1703,91
693,15	1714,15
693,34	1808,36
693,52	1824,74
693,71	1644,52
693,89	1654,76
694,08	1724,39
694,26	1830,88
694,44	1732,58
694,63	1753,06
694,81	1662,95
695,00	1660,90
695,18	1820,64
695,37	1861,60
695,55	1740,77
695,74	1705,96
695,92	1654,76
696,10	1814,50
696,29	1656,81
696,47	1669,09
696,66	1660,90
696,84	1732,58
697,03	1722,34
697,21	1808,36
697,40	2435,03
697,58	1849,32
697,76	1705,96
697,95	1748,97
698,13	1603,56
698,32	1687,53
698,50	1765,35
698,68	1791,97
698,87	1769,44
699,05	1777,64
699,24	1687,53
699,42	1757,16
699,61	1781,73
699,79	1697,77
699,97	1785,83
700,16	1703,91
700,34	1701,86
700,53	1732,58
700,71	1824,74
700,89	1806,31
701,08	1673,19
701,26	1746,92
701,45	2127,84
701,63	1720,29
701,81	1748,97
702,00	1609,70
702,18	1726,44
702,37	1710,05
702,55	1787,88
702,73	1785,83
702,92	1648,61
703,10	1724,39
703,28	1722,34
703,47	1632,23
703,65	1763,30
703,84	1779,68
704,02	1728,49
704,20	1798,12
704,39	1705,96
704,57	1697,77
704,75	1800,16
704,94	1759,21
705,12	1730,53
705,30	1794,02
705,49	2285,53
705,67	4323,26
705,86	9248,63
706,04	12683,07
706,22	14395,17
706,41	15314,71
706,59	13496,11
706,77	9418,61
706,96	7258,00
707,14	6502,30
707,32	5795,75
707,51	5451,69
707,69	4736,95
707,87	4188,10
708,06	3440,59
708,24	2959,31
708,42	2430,94
708,61	2199,52
708,79	1880,04
708,97	1904,61
709,16	1832,93
709,34	1816,55
709,52	1759,21
709,71	1775,59
709,89	1718,25
710,07	1699,81
710,26	1722,34
710,44	1738,73
710,62	1802,21
710,80	1732,58
710,99	1779,68
711,17	1783,78
711,35	1730,53
711,54	1736,68
711,72	1765,35
711,90	1718,25
712,09	1757,16
712,27	1708,01
712,45	1728,49
712,63	1693,67
712,82	1761,25
713,00	1722,34
713,18	1728,49
713,37	1708,01
713,55	1796,07
713,73	1746,92
713,91	1751,01
714,10	1689,57
714,28	1673,19
714,46	1738,73
714,65	1738,73
714,83	1767,40
715,01	1746,92
715,19	1685,48
715,38	1689,57
715,56	1798,12
715,74	1660,90
715,92	1628,14
716,11	1871,84
716,29	1681,38
716,47	1677,29
716,65	1771,49
716,84	1595,37
717,02	1816,55
717,20	1599,46
717,38	1751,01
717,57	1689,57
717,75	1718,25
717,93	1695,72
718,11	1740,77
718,30	1667,05
718,48	1742,82
718,66	1796,07
718,84	1814,50
719,03	1730,53
719,21	1771,49
719,39	1720,29
719,57	1757,16
719,75	1820,64
719,94	1781,73
720,12	1734,63
720,30	1732,58
720,48	1732,58
720,67	1710,05
720,85	1697,77
721,03	1703,91
721,21	1611,75
721,39	1738,73
721,58	1767,40
721,76	1708,01
721,94	1691,62
722,12	1705,96
722,30	1832,93
722,49	1665,00
722,67	1703,91
722,85	1671,14
723,03	1671,14
723,21	1767,40
723,40	1791,97
723,58	1769,44
723,76	1767,40
723,94	1781,73
724,12	1746,92
724,30	1791,97
724,49	1765,35
724,67	1648,61
724,85	1810,40
725,03	1677,29
725,21	1748,97
725,40	1830,88
725,58	1665,00
725,76	1787,88
725,94	1771,49
726,12	1640,42
726,30	1714,15
726,49	1726,44
726,67	1744,87
726,85	1726,44
727,03	1814,50
727,21	2222,05
727,39	2908,12
727,57	3758,02
727,76	4208,58
727,94	4341,69
728,12	4413,37
728,30	3837,89
728,48	2947,03
728,66	2699,22
728,84	2496,47
729,03	2342,88
729,21	2136,03
729,39	2027,49
729,57	1808,36
729,75	1867,75
729,93	1763,30
730,11	1708,01
730,30	1773,54
730,48	1761,25
730,66	1855,46
730,84	1763,30
731,02	1695,72
731,20	1720,29
731,38	1683,43
731,56	1677,29
731,74	1697,77
731,93	1755,11
732,11	1697,77
732,29	1769,44
732,47	1781,73
732,65	1714,15
732,83	1869,80
733,01	1787,88
733,19	1697,77
733,37	1658,85
733,56	1638,38
733,74	1705,96
733,92	1777,64
734,10	1697,77
734,28	1794,02
734,46	1644,52
734,64	1640,42
734,82	1675,24
735,00	1701,86
735,18	1662,95
735,36	1771,49
735,54	1806,31
735,73	1714,15
735,91	1744,87
736,09	1777,64
736,27	1794,02
736,45	1730,53
736,63	1644,52
736,81	1654,76
736,99	1794,02
737,17	1804,26
737,35	1695,72
737,53	1742,82
737,71	1730,53
737,89	1820,64
738,07	1662,95
738,25	1638,38
738,43	1638,38
738,61	1705,96
738,80	1646,57
738,98	1673,19
739,16	1628,14
739,34	1640,42
739,52	1820,64
739,70	1746,92
739,88	1751,01
740,06	1736,68
740,24	1669,09
740,42	1843,17
740,60	1648,61
740,78	1673,19
740,96	1685,48
741,14	1728,49
741,32	1695,72
741,50	1558,50
741,68	1820,64
741,86	1812,45
742,04	1710,05
742,22	1628,14
742,40	1710,05
742,58	1771,49
742,76	1726,44
742,94	1736,68
743,12	1630,18
743,30	1683,43
743,48	1724,39
743,66	1640,42
743,84	1732,58
744,02	1705,96
744,20	1689,57
744,38	1714,15
744,56	1632,23
744,74	1834,98
744,92	1746,92
745,10	1798,12
745,28	1716,20
745,46	1808,36
745,64	1689,57
745,82	1708,01
746,00	1687,53
746,18	1738,73
746,36	1697,77
746,54	1740,77
746,72	1720,29
746,90	1712,10
747,08	1771,49
747,26	1767,40
747,44	1755,11
747,62	1783,78
747,80	1802,21
747,98	1808,36
748,15	1667,05
748,33	1796,07
748,51	1708,01
748,69	1763,30
748,87	1720,29
749,05	1642,47
749,23	1712,10
749,41	1632,23
749,59	1677,29
749,77	1712,10
749,95	1693,67
750,13	1636,33
750,31	1722,34
750,49	1742,82
750,67	1734,63
750,85	1814,50
751,03	1644,52
751,20	1800,16
751,38	1777,64
751,56	1701,86
751,74	1640,42
751,92	1753,06
752,10	1648,61
752,28	1810,40
752,46	1667,05
752,64	1708,01
752,82	1744,87
753,00	1722,34
753,18	1601,51
753,35	1708,01
753,53	1757,16
753,71	1710,05
753,89	1777,64
754,07	1751,01
754,25	1806,31
754,43	1689,57
754,61	1703,91
754,79	1679,33
754,97	1644,52
755,14	1697,77
755,32	1601,51
755,50	1726,44
755,68	1728,49
755,86	1705,96
756,04	1671,14
756,22	1589,22
756,40	1691,62
756,57	1796,07
756,75	1673,19
756,93	1753,06
757,11	1779,68
757,29	1624,04
757,47	1681,38
757,65	1646,57
757,82	1640,42
758,00	1595,37
758,18	1689,57
758,36	1636,33
758,54	1791,97
758,72	1638,38
758,90	1738,73
759,07	1658,85
759,25	1691,62
759,43	1685,48
759,61	1724,39
759,79	2203,61
759,97	1714,15
760,15	1736,68
760,32	1701,86
760,50	1730,53
760,68	1816,55
760,86	1656,81
761,04	1757,16
761,22	1744,87
761,39	1759,21
761,57	1714,15
761,75	1710,05
761,93	1712,10
762,11	1636,33
762,28	1716,20
762,46	1740,77
762,64	1757,16
762,82	1632,23
763,00	1683,43
763,18	1765,35
763,35	1654,76
763,53	1701,86
763,71	1730,53
763,89	1753,06
764,07	1644,52
764,24	1744,87
764,42	1769,44
764,60	1697,77
764,78	1740,77
764,96	1744,87
765,13	1824,74
765,31	1697,77
765,49	1724,39
765,67	1587,18
765,84	1617,90
766,02	1675,24
766,20	1589,22
766,38	1812,45
766,56	1738,73
766,73	1794,02
766,91	1642,47
767,09	1710,05
767,27	1712,10
767,44	1607,66
767,62	1773,54
767,80	1718,25
767,98	1636,33
768,15	1710,05
768,33	1806,31
768,51	1843,17
768,69	1783,78
768,87	1787,88
769,04	1744,87
769,22	1832,93
769,40	1812,45
769,58	1927,14
769,75	1724,39
769,93	1751,01
770,11	1724,39
770,28	1751,01
770,46	1679,33
770,64	1771,49
770,82	1683,43
770,99	1673,19
771,17	1710,05
771,35	1710,05
771,53	1736,68
771,70	1656,81
771,88	1742,82
772,06	1685,48
772,23	1755,11
772,41	1761,25
772,59	1677,29
772,77	1648,61
772,94	1722,34
773,12	1738,73
773,30	1722,34
773,47	1738,73
773,65	1646,57
773,83	1791,97
774,01	1716,20
774,18	1593,32
774,36	1671,14
774,54	1710,05
774,71	1701,86
774,89	1585,13
775,07	1714,15
775,24	1693,67
775,42	1693,67
775,60	1843,17
775,78	1656,81
775,95	1669,09
776,13	1603,56
776,31	1624,04
776,48	1677,29
776,66	1755,11
776,84	1681,38
777,01	1665,00
777,19	1619,94
777,37	1695,72
777,54	1695,72
777,72	1863,65
777,90	1695,72
778,07	1658,85
778,25	1875,94
778,43	1757,16
778,60	1677,29
778,78	1742,82
778,96	1826,79
779,13	1652,71
779,31	1800,16
779,49	1714,15
779,66	1734,63
779,84	1673,19
780,01	1662,95
780,19	1677,29
780,37	1718,25
780,54	1720,29
780,72	1585,13
780,90	1730,53
781,07	1734,63
781,25	1714,15
781,43	1796,07
781,60	1738,73
781,78	1773,54
781,95	1777,64
782,13	1677,29
782,31	1687,53
782,48	1621,99
782,66	1708,01
782,83	1830,88
783,01	1710,05
783,19	1826,79
783,36	1677,29
783,54	1662,95
783,72	1783,78
783,89	1732,58
784,07	1761,25
784,24	1671,14
784,42	1806,31
784,60	1705,96
784,77	1730,53
784,95	1615,85
785,12	1712,10
785,30	1718,25
785,47	1722,34
785,65	1642,47
785,83	1730,53
786,00	1710,05
786,18	1697,77
786,35	1619,94
786,53	1636,33
786,71	1779,68
786,88	1771,49
787,06	1738,73
787,23	1630,18
787,41	1693,67
787,58	1771,49
787,76	1656,81
787,94	1712,10
788,11	1673,19
788,29	1665,00
788,46	1658,85
788,64	1669,09
788,81	1708,01
788,99	1634,28
789,16	1560,55
789,34	1718,25
789,52	1673,19
789,69	1644,52
789,87	1640,42
790,04	1681,38
790,22	1626,09
790,39	1804,26
790,57	1648,61
790,74	1714,15
790,92	1753,06
791,09	1677,29
791,27	1779,68
791,44	1775,59
791,62	1685,48
791,79	1759,21
791,97	1673,19
792,15	1863,65
792,32	1785,83
792,50	1806,31
792,67	1826,79
792,85	1820,64
793,02	1724,39
793,20	1757,16
793,37	1615,85
793,55	1755,11
793,72	1687,53
793,90	1820,64
794,07	1662,95
794,25	1634,28
794,42	1808,36
794,60	1705,96
794,77	1689,57
794,95	1714,15
795,12	1761,25
795,30	1691,62
795,47	1554,41
795,65	1886,18
795,82	1751,01
796,00	1648,61
796,17	1671,14
796,34	1753,06
796,52	1746,92
796,69	1761,25
796,87	1755,11
797,04	1728,49
797,22	1744,87
797,39	1742,82
797,57	1710,05
797,74	1677,29
797,92	1738,73
798,09	1712,10
798,27	1892,32
798,44	1634,28
798,62	1738,73
798,79	1656,81
798,96	1646,57
799,14	1732,58
799,31	1873,89
799,49	1730,53
799,66	1636,33
799,84	1656,81
800,01	1662,95
800,19	1714,15
800,36	1636,33
800,53	1714,15
800,71	1679,33
800,88	1794,02
801,06	1736,68
801,23	1681,38
801,41	1687,53
801,58	1730,53
801,75	1665,00
801,93	1771,49
802,10	1746,92
802,28	1593,32
802,45	1759,21
802,63	1828,84
802,80	1779,68
802,97	1701,86
803,15	1744,87
803,32	1699,81
803,50	1689,57
803,67	1660,90
803,84	1654,76
804,02	1720,29
804,19	1660,90
804,37	1650,66
804,54	1712,10
804,71	1656,81
804,89	1746,92
805,06	1705,96
805,24	1679,33
805,41	1607,66
805,58	1660,90
805,76	1820,64
805,93	1667,05
806,10	1765,35
806,28	1683,43
806,45	1751,01
806,63	1763,30
806,80	1693,67
806,97	1656,81
807,15	1759,21
807,32	1787,88
807,49	1660,90
807,67	1630,18
807,84	1677,29
808,01	1646,57
808,19	1853,41
808,36	1824,74
808,54	1671,14
808,71	1681,38
808,88	1697,77
809,06	1685,48
809,23	1763,30
809,40	1728,49
809,58	1826,79
809,75	1724,39
809,92	1675,24
810,10	1828,84
810,27	1673,19
810,44	1734,63
810,62	1751,01
810,79	1730,53
810,96	1646,57
811,14	1718,25
811,31	1689,57
811,48	1798,12
811,66	1697,77
811,83	1718,25
812,00	1742,82
812,18	1722,34
812,35	1816,55
812,52	1757,16
812,69	1679,33
812,87	1732,58
813,04	1705,96
813,21	1689,57
813,39	1703,91
813,56	1648,61
813,73	1753,06
813,91	1609,70
814,08	1665,00
814,25	1757,16
814,42	1689,57
814,60	1701,86
814,77	1691,62
814,94	1742,82
815,12	1699,81
815,29	1693,67
815,46	1656,81
815,63	1736,68
815,81	1783,78
815,98	1703,91
816,15	1775,59
816,33	1673,19
816,50	1769,44
816,67	1710,05
816,84	1779,68
817,02	1673,19
817,19	1701,86
817,36	1794,02
817,53	1787,88
817,71	1658,85
817,88	1740,77
818,05	1722,34
818,22	1640,42
818,40	1871,84
818,57	1648,61
818,74	1656,81
818,91	1697,77
819,09	1787,88
819,26	1673,19
819,43	1671,14
819,60	1714,15
819,78	1796,07
819,95	1748,97
820,12	1697,77
820,29	1751,01
820,47	1791,97
820,64	1667,05
820,81	1636,33
820,98	1634,28
821,15	1753,06
821,33	1798,12
821,50	1634,28
821,67	1755,11
821,84	1693,67
822,02	1740,77
822,19	1804,26
822,36	1724,39
822,53	1679,33
822,70	1658,85
822,88	1673,19
823,05	1783,78
823,22	1677,29
823,39	1748,97
823,56	1667,05
823,74	1757,16
823,91	1722,34
824,08	1628,14
824,25	1652,71
824,42	1800,16
824,60	1611,75
824,77	1740,77
824,94	1679,33
825,11	1595,37
825,28	1667,05
825,45	1638,38
825,63	1718,25
825,80	1640,42
825,97	1648,61
826,14	1736,68
826,31	1652,71
826,48	1755,11
826,66	1607,66
826,83	1648,61
827,00	1728,49
827,17	1710,05
827,34	1642,47
827,51	1656,81
827,69	1636,33
827,86	1603,56
828,03	1658,85
828,20	1705,96
828,37	1585,13
828,54	1808,36
828,71	1689,57
828,89	1810,40
829,06	1724,39
829,23	1781,73
829,40	1689,57
829,57	1656,81
829,74	1740,77
829,91	1636,33
830,09	1617,90
830,26	1718,25
830,43	1765,35
830,60	1671,14
830,77	1718,25
830,94	1724,39
831,11	1765,35
831,28	1718,25
831,46	1769,44
831,63	1648,61
831,80	1773,54
831,97	1693,67
832,14	1669,09
832,31	1751,01
832,48	1781,73
832,65	1751,01
832,82	1665,00
832,99	1798,12
833,17	1615,85
833,34	1812,45
833,51	1744,87
833,68	1656,81
833,85	1738,73
834,02	1648,61
834,19	1677,29
834,36	1658,85
834,53	1701,86
834,70	1699,81
834,87	1796,07
835,04	1765,35
835,22	1638,38
835,39	1732,58
835,56	1648,61
835,73	1738,73
835,90	1775,59
836,07	1656,81
836,24	1744,87
836,41	1681,38
836,58	1708,01
836,75	1724,39
836,92	1726,44
837,09	1675,24
837,26	1732,58
837,43	1724,39
837,60	1755,11
837,77	1697,77
837,94	1757,16
838,12	1744,87
838,29	1814,50
838,46	1685,48
838,63	1611,75
838,80	1839,08
838,97	1701,86
839,14	1755,11
839,31	1779,68
839,48	1703,91
839,65	1669,09
839,82	1789,92
839,99	1736,68
840,16	1746,92
840,33	1669,09
840,50	1769,44
840,67	1673,19
840,84	1619,94
841,01	1736,68
841,18	1656,81
841,35	1720,29
841,52	1718,25
841,69	1839,08
841,86	1626,09
842,03	1742,82
842,20	1773,54
842,37	1705,96
842,54	1667,05
842,71	1722,34
842,88	1660,90
843,05	1767,40
843,22	1687,53
843,39	1693,67
843,56	1640,42
843,73	1724,39
843,90	1699,81
844,07	1812,45
844,24	1734,63
844,41	1695,72
844,58	1744,87
844,75	1673,19
844,92	1751,01
845,09	1748,97
845,26	1710,05
845,43	1748,97
845,60	1689,57
845,77	1759,21
845,94	1804,26
846,10	1712,10
846,27	1648,61
846,44	1679,33
846,61	1626,09
846,78	1732,58
846,95	1724,39
847,12	1714,15
847,29	1705,96
847,46	1660,90
847,63	1785,83
847,80	1705,96
847,97	1701,86
848,14	1824,74
848,31	1765,35
848,48	1679,33
848,65	1673,19
848,82	1628,14
848,98	1812,45
849,15	1744,87
849,32	1730,53
849,49	1744,87
849,66	1667,05
849,83	1777,64
850,00	1703,91
850,17	1693,67
850,34	1701,86
850,51	1675,24
850,68	1642,47
850,85	1837,03
851,01	1716,20
851,18	1738,73
851,35	1699,81
851,52	1742,82
851,69	1730,53
851,86	1722,34
852,03	1701,86
852,20	1728,49
852,37	1703,91
852,53	1667,05
852,70	1742,82
852,87	1714,15
853,04	1740,77
853,21	1703,91
853,38	1675,24
853,55	1714,15
853,72	1779,68
853,89	1646,57
854,05	1642,47
854,22	1671,14
854,39	1669,09
854,56	1710,05
854,73	1701,86
854,90	1650,66
855,07	1726,44
855,23	1761,25
855,40	1656,81
855,57	1662,95
855,74	1593,32
855,91	1886,18
856,08	1683,43
856,25	1626,09
856,41	1728,49
856,58	1671,14
856,75	1658,85
856,92	1630,18
857,09	1779,68
857,26	1638,38
857,42	1699,81
857,59	1673,19
857,76	1740,77
857,93	1740,77
858,10	1703,91
858,27	1708,01
858,43	1705,96
858,60	1703,91
858,77	1691,62
858,94	1628,14
859,11	1783,78
859,27	1695,72
859,44	1785,83
859,61	1824,74
859,78	1685,48
859,95	1695,72
860,12	1710,05
860,28	1806,31
860,45	1769,44
860,62	1650,66
860,79	1685,48
860,95	1720,29
861,12	1765,35
861,29	1669,09
861,46	1673,19
861,63	1675,24
861,79	1746,92
861,96	1660,90
862,13	1646,57
862,30	1779,68
862,47	1732,58
862,63	1660,90
862,80	1738,73
862,97	1708,01
863,14	1732,58
863,30	1724,39
863,47	1660,90
863,64	1787,88
863,81	1691,62
863,97	1691,62
864,14	1775,59
864,31	1665,00
864,48	1761,25
864,65	1714,15
864,81	1710,05
864,98	1814,50
865,15	1748,97
865,32	1734,63
865,48	1761,25
865,65	1808,36
865,82	1665,00
865,98	1775,59
866,15	1720,29
866,32	1587,18
866,49	1742,82
866,65	1783,78
866,82	1671,14
866,99	1693,67
867,16	1662,95
867,32	1603,56
867,49	1732,58
867,66	1736,68
867,83	1658,85
867,99	1652,71
868,16	1699,81
868,33	1652,71
868,49	1621,99
868,66	1710,05
868,83	1767,40
868,99	1791,97
869,16	1794,02
869,33	1718,25
869,50	1789,92
869,66	1720,29
869,83	1746,92
870,00	1669,09
870,16	1708,01
870,33	1798,12
870,50	1785,83
870,66	1714,15
870,83	1814,50
871,00	1667,05
871,17	1738,73
871,33	1708,01
871,50	1710,05
871,67	1660,90
871,83	1740,77
872,00	1791,97
872,17	1662,95
872,33	1814,50
872,50	1732,58
872,67	1740,77
872,83	1710,05
873,00	1728,49
873,17	1677,29
873,33	1728,49
873,50	1705,96
873,67	1626,09
873,83	1595,37
874,00	1712,10
874,16	1791,97
874,33	1755,11
874,50	1632,23
874,66	1726,44
874,83	1669,09
875,00	1697,77
875,16	1738,73
875,33	1798,12
875,50	1640,42
875,66	1722,34
875,83	1687,53
875,99	1697,77
876,16	1683,43
876,33	1714,15
876,49	1681,38
876,66	1773,54
876,83	1675,24
876,99	1646,57
877,16	1689,57
877,32	1660,90
877,49	1648,61
877,66	1798,12
877,82	1771,49
877,99	1775,59
878,15	1771,49
878,32	1753,06
878,49	1697,77
878,65	1697,77
878,82	1783,78
878,98	1689,57
879,15	1775,59
879,32	1751,01
879,48	1740,77
879,65	1665,00
879,81	1626,09
879,98	1703,91
880,15	1695,72
880,31	1744,87
880,48	1667,05
880,64	1761,25
880,81	1648,61
880,97	1773,54
881,14	1773,54
881,31	1705,96
881,47	1837,03
881,64	1757,16
881,80	1585,13
881,97	1699,81
882,13	1763,30
882,30	1632,23
882,47	1701,86
882,63	1693,67
882,80	1767,40
882,96	1726,44
883,13	1812,45
883,29	1683,43
883,46	1798,12
883,62	1753,06
883,79	1730,53
883,95	1765,35
884,12	1671,14
884,29	1753,06
884,45	1775,59
884,62	1744,87
884,78	1714,15
884,95	1765,35
885,11	1671,14
885,28	1777,64
885,44	1691,62
885,61	1757,16
885,77	1775,59
885,94	1783,78
886,10	1699,81
886,27	1859,56
886,43	1830,88
886,60	1785,83
886,76	1640,42
886,93	1716,20
887,09	1748,97
887,26	1648,61
887,42	1726,44
887,59	1767,40
887,75	1779,68
887,92	1767,40
888,08	1808,36
888,25	1826,79
888,41	1689,57
888,58	1712,10
888,74	1644,52
888,91	1650,66
>>>>>End Processed Spectral Data<<<<<
