SpectraSuite Data File
++++++++++++++++++++++++++++++++++++
Date: Mon Jun 06 15:30:57 CEST 2016
User: root
Dark Spectrum Present: No
Reference Spectrum Present: No
Number of Sampled Component Spectra: 1
Spectrometers: USB4C02835
Integration Time (usec): 100000 (USB4C02835)
Spectra Averaged: 1 (USB4C02835)
Boxcar Smoothing: 0 (USB4C02835)
Correct for Electrical Dark: No (USB4C02835)
Strobe/Lamp Enabled: No (USB4C02835)
Correct for Detector Non-linearity: No (USB4C02835)
Correct for Stray Light: No (USB4C02835)
Number of Pixels in Processed Spectrum: 3648
>>>>>Begin Processed Spectral Data<<<<<
177,47	1525,74
177,69	1525,74
177,91	1525,74
178,13	1482,73
178,36	1548,26
178,58	1697,77
178,80	1722,34
179,02	1617,90
179,24	1667,05
179,46	1714,15
179,68	1751,01
179,90	1732,58
180,13	1730,53
180,35	1744,87
180,57	1691,62
180,79	1808,36
181,01	1779,68
181,23	1751,01
181,45	1755,11
181,67	1841,12
181,90	1724,39
182,12	1699,81
182,34	1640,42
182,56	1738,73
182,78	1701,86
183,00	1730,53
183,22	1742,82
183,44	1595,37
183,66	1839,08
183,89	1714,15
184,11	1761,25
184,33	1787,88
184,55	1708,01
184,77	1828,84
184,99	1740,77
185,21	1695,72
185,43	1816,55
185,65	1669,09
185,87	1701,86
186,10	1824,74
186,32	1863,65
186,54	1685,48
186,76	1738,73
186,98	1794,02
187,20	1742,82
187,42	1744,87
187,64	1773,54
187,86	1714,15
188,08	1746,92
188,30	1656,81
188,52	1617,90
188,75	1789,92
188,97	1812,45
189,19	1712,10
189,41	1640,42
189,63	1785,83
189,85	1718,25
190,07	1585,13
190,29	1650,66
190,51	1771,49
190,73	1660,90
190,95	1773,54
191,17	1640,42
191,39	1603,56
191,61	1695,72
191,84	1683,43
192,06	1695,72
192,28	1550,31
192,50	1865,70
192,72	1742,82
192,94	1656,81
193,16	1757,16
193,38	1748,97
193,60	1695,72
193,82	1642,47
194,04	1738,73
194,26	1705,96
194,48	1691,62
194,70	1701,86
194,92	1640,42
195,14	1730,53
195,36	1667,05
195,58	1804,26
195,80	1730,53
196,02	1658,85
196,24	1699,81
196,46	1656,81
196,69	1632,23
196,91	1845,22
197,13	1748,97
197,35	1656,81
197,57	1771,49
197,79	1726,44
198,01	1714,15
198,23	1746,92
198,45	1652,71
198,67	1605,61
198,89	1705,96
199,11	1746,92
199,33	1599,46
199,55	1583,08
199,77	1710,05
199,99	1843,17
200,21	1718,25
200,43	1773,54
200,65	1601,51
200,87	1609,70
201,09	1677,29
201,31	1714,15
201,53	1855,46
201,75	1746,92
201,97	1716,20
202,19	1634,28
202,41	1744,87
202,63	1771,49
202,85	1736,68
203,07	1714,15
203,29	1642,47
203,51	1646,57
203,73	1673,19
203,95	1855,46
204,17	1705,96
204,39	1732,58
204,61	1714,15
204,83	1773,54
205,05	1820,64
205,27	1804,26
205,49	1812,45
205,71	1720,29
205,93	1591,27
206,15	1681,38
206,37	1734,63
206,59	1705,96
206,81	1654,76
207,03	1679,33
207,25	1630,18
207,47	1724,39
207,69	1648,61
207,91	1708,01
208,13	1785,83
208,34	1673,19
208,56	1628,14
208,78	1720,29
209,00	1665,00
209,22	1677,29
209,44	1738,73
209,66	1730,53
209,88	1710,05
210,10	1665,00
210,32	1681,38
210,54	1843,17
210,76	1683,43
210,98	1763,30
211,20	1685,48
211,42	1636,33
211,64	1761,25
211,86	1685,48
212,08	1701,86
212,30	1751,01
212,52	1683,43
212,74	1763,30
212,96	1775,59
213,17	1675,24
213,39	1767,40
213,61	1847,27
213,83	1669,09
214,05	1689,57
214,27	1748,97
214,49	1705,96
214,71	1632,23
214,93	1839,08
215,15	1718,25
215,37	1859,56
215,59	1609,70
215,81	1806,31
216,03	1804,26
216,24	1705,96
216,46	1775,59
216,68	1763,30
216,90	1724,39
217,12	1796,07
217,34	1746,92
217,56	1748,97
217,78	1783,78
218,00	1724,39
218,22	1705,96
218,44	1732,58
218,66	1755,11
218,87	1779,68
219,09	1685,48
219,31	1740,77
219,53	1757,16
219,75	1644,52
219,97	1730,53
220,19	1769,44
220,41	1691,62
220,63	1802,21
220,85	1757,16
221,06	1748,97
221,28	1777,64
221,50	1761,25
221,72	1691,62
221,94	1722,34
222,16	1734,63
222,38	1763,30
222,60	1736,68
222,82	1685,48
223,03	1804,26
223,25	1677,29
223,47	1744,87
223,69	1828,84
223,91	1814,50
224,13	1748,97
224,35	1695,72
224,57	1828,84
224,78	1755,11
225,00	1722,34
225,22	1693,67
225,44	1683,43
225,66	1746,92
225,88	1642,47
226,10	1769,44
226,32	1716,20
226,53	1826,79
226,75	1738,73
226,97	1705,96
227,19	1755,11
227,41	1734,63
227,63	1730,53
227,85	1662,95
228,06	1751,01
228,28	1701,86
228,50	1783,78
228,72	1665,00
228,94	1644,52
229,16	1642,47
229,37	1669,09
229,59	1681,38
229,81	1820,64
230,03	1689,57
230,25	1621,99
230,47	1691,62
230,69	1630,18
230,90	1824,74
231,12	1619,94
231,34	1783,78
231,56	1759,21
231,78	1665,00
232,00	1691,62
232,21	1710,05
232,43	1701,86
232,65	1583,08
232,87	1673,19
233,09	1665,00
233,30	1689,57
233,52	1722,34
233,74	1755,11
233,96	1669,09
234,18	1697,77
234,40	1673,19
234,61	1853,41
234,83	1648,61
235,05	1667,05
235,27	1798,12
235,49	1757,16
235,70	1701,86
235,92	1767,40
236,14	1671,14
236,36	1886,18
236,58	1712,10
236,79	1755,11
237,01	1718,25
237,23	1689,57
237,45	1865,70
237,67	1703,91
237,88	1638,38
238,10	1695,72
238,32	1656,81
238,54	1740,77
238,76	1648,61
238,97	1685,48
239,19	1669,09
239,41	1755,11
239,63	1681,38
239,85	1705,96
240,06	1673,19
240,28	1675,24
240,50	1865,70
240,72	1628,14
240,93	1673,19
241,15	1816,55
241,37	1783,78
241,59	1824,74
241,81	1744,87
242,02	1714,15
242,24	1730,53
242,46	1667,05
242,68	1669,09
242,89	1710,05
243,11	1738,73
243,33	1685,48
243,55	1744,87
243,76	1802,21
243,98	1695,72
244,20	1826,79
244,42	1679,33
244,64	1662,95
244,85	1576,94
245,07	1685,48
245,29	1779,68
245,51	1703,91
245,72	1740,77
245,94	1742,82
246,16	1751,01
246,38	1748,97
246,59	1705,96
246,81	1603,56
247,03	1699,81
247,24	1628,14
247,46	1675,24
247,68	1732,58
247,90	1716,20
248,11	1673,19
248,33	1798,12
248,55	1728,49
248,77	1761,25
248,98	1769,44
249,20	1742,82
249,42	1677,29
249,64	1791,97
249,85	1759,21
250,07	1652,71
250,29	1757,16
250,50	1785,83
250,72	1712,10
250,94	1703,91
251,16	1869,80
251,37	1785,83
251,59	1785,83
251,81	1697,77
252,02	1757,16
252,24	1712,10
252,46	1775,59
252,68	1675,24
252,89	1761,25
253,11	1656,81
253,33	1873,89
253,54	1791,97
253,76	1648,61
253,98	1679,33
254,20	1798,12
254,41	1660,90
254,63	1673,19
254,85	1683,43
255,06	1734,63
255,28	1728,49
255,50	1673,19
255,71	1621,99
255,93	1654,76
256,15	1708,01
256,36	1781,73
256,58	1693,67
256,80	1726,44
257,02	1683,43
257,23	1695,72
257,45	1697,77
257,67	1736,68
257,88	1687,53
258,10	1796,07
258,32	1740,77
258,53	1703,91
258,75	1800,16
258,97	1624,04
259,18	1636,33
259,40	1755,11
259,62	1710,05
259,83	1755,11
260,05	1781,73
260,27	2052,06
260,48	1755,11
260,70	1593,32
260,92	1615,85
261,13	1708,01
261,35	1650,66
261,57	1804,26
261,78	1613,80
262,00	1724,39
262,22	1660,90
262,43	1732,58
262,65	1716,20
262,86	1621,99
263,08	1816,55
263,30	1734,63
263,51	1630,18
263,73	1728,49
263,95	1812,45
264,16	1675,24
264,38	1660,90
264,60	1744,87
264,81	1708,01
265,03	1708,01
265,25	1812,45
265,46	1744,87
265,68	1853,41
265,89	1798,12
266,11	1703,91
266,33	1814,50
266,54	1787,88
266,76	1830,88
266,98	1708,01
267,19	1740,77
267,41	1800,16
267,62	1726,44
267,84	1681,38
268,06	1783,78
268,27	1689,57
268,49	1759,21
268,70	1759,21
268,92	1734,63
269,14	1710,05
269,35	1660,90
269,57	1705,96
269,79	1771,49
270,00	1642,47
270,22	1839,08
270,43	1658,85
270,65	1599,46
270,87	1685,48
271,08	1716,20
271,30	1771,49
271,51	1710,05
271,73	1748,97
271,95	1736,68
272,16	1714,15
272,38	1640,42
272,59	1636,33
272,81	1783,78
273,02	1759,21
273,24	1732,58
273,46	1767,40
273,67	1652,71
273,89	1701,86
274,10	1679,33
274,32	1730,53
274,54	1689,57
274,75	1683,43
274,97	1683,43
275,18	1775,59
275,40	1763,30
275,61	1693,67
275,83	1712,10
276,05	1652,71
276,26	1695,72
276,48	1798,12
276,69	1691,62
276,91	1601,51
277,12	1773,54
277,34	1777,64
277,55	1730,53
277,77	1742,82
277,99	1746,92
278,20	1714,15
278,42	1685,48
278,63	1701,86
278,85	1669,09
279,06	1673,19
279,28	1714,15
279,49	1820,64
279,71	1722,34
279,93	1667,05
280,14	1714,15
280,36	1632,23
280,57	1761,25
280,79	1783,78
281,00	1662,95
281,22	1650,66
281,43	1787,88
281,65	1576,94
281,86	1652,71
282,08	1759,21
282,29	1845,22
282,51	1619,94
282,73	1667,05
282,94	1660,90
283,16	1767,40
283,37	1841,12
283,59	1779,68
283,80	1751,01
284,02	1746,92
284,23	1728,49
284,45	1662,95
284,66	1611,75
284,88	1693,67
285,09	1755,11
285,31	1714,15
285,52	1683,43
285,74	1675,24
285,95	1736,68
286,17	1720,29
286,38	1767,40
286,60	1746,92
286,81	1640,42
287,03	1677,29
287,24	1724,39
287,46	1679,33
287,67	1722,34
287,89	1882,08
288,10	1734,63
288,32	1744,87
288,53	1771,49
288,75	1665,00
288,96	1714,15
289,18	1691,62
289,39	1650,66
289,61	1804,26
289,82	1808,36
290,04	1779,68
290,25	1607,66
290,47	1697,77
290,68	1705,96
290,90	1834,98
291,11	1605,61
291,33	1763,30
291,54	1710,05
291,76	1703,91
291,97	1755,11
292,18	1740,77
292,40	1667,05
292,61	1693,67
292,83	1865,70
293,04	1738,73
293,26	1740,77
293,47	1636,33
293,69	1695,72
293,90	1777,64
294,12	1697,77
294,33	1732,58
294,55	1736,68
294,76	1746,92
294,97	1734,63
295,19	1832,93
295,40	1656,81
295,62	1755,11
295,83	1783,78
296,05	1669,09
296,26	1718,25
296,48	1626,09
296,69	1669,09
296,90	1708,01
297,12	1834,98
297,33	1822,69
297,55	1732,58
297,76	1710,05
297,98	1804,26
298,19	1712,10
298,41	1755,11
298,62	1628,14
298,83	1785,83
299,05	1736,68
299,26	1716,20
299,48	1656,81
299,69	1796,07
299,90	1656,81
300,12	1708,01
300,33	1791,97
300,55	1779,68
300,76	1691,62
300,98	1642,47
301,19	1830,88
301,40	1687,53
301,62	1705,96
301,83	1791,97
302,05	1738,73
302,26	1703,91
302,47	1757,16
302,69	1615,85
302,90	1705,96
303,12	1611,75
303,33	1738,73
303,54	1873,89
303,76	1624,04
303,97	1759,21
304,19	1791,97
304,40	1613,80
304,61	1751,01
304,83	1816,55
305,04	1738,73
305,26	1744,87
305,47	1677,29
305,68	1785,83
305,90	1685,48
306,11	1783,78
306,33	1648,61
306,54	1660,90
306,75	1755,11
306,97	1581,03
307,18	1708,01
307,39	1589,22
307,61	1724,39
307,82	1679,33
308,04	1746,92
308,25	1675,24
308,46	1708,01
308,68	1714,15
308,89	1755,11
309,10	1787,88
309,32	1763,30
309,53	1710,05
309,74	1712,10
309,96	1689,57
310,17	1771,49
310,39	1654,76
310,60	1751,01
310,81	1687,53
311,03	1638,38
311,24	1746,92
311,45	1763,30
311,67	1814,50
311,88	1767,40
312,09	1681,38
312,31	1751,01
312,52	1693,67
312,73	1714,15
312,95	1624,04
313,16	1671,14
313,37	1867,75
313,59	1765,35
313,80	1837,03
314,01	1701,86
314,23	1626,09
314,44	1679,33
314,65	1644,52
314,87	1656,81
315,08	1656,81
315,29	1693,67
315,51	1753,06
315,72	1632,23
315,93	1787,88
316,15	1787,88
316,36	1669,09
316,57	1753,06
316,79	1753,06
317,00	1648,61
317,21	1701,86
317,43	1751,01
317,64	1693,67
317,85	1656,81
318,07	1693,67
318,28	1765,35
318,49	1853,41
318,70	1871,84
318,92	1859,56
319,13	1791,97
319,34	1880,04
319,56	1761,25
319,77	1822,69
319,98	1787,88
320,20	1841,12
320,41	1759,21
320,62	1714,15
320,83	1689,57
321,05	1853,41
321,26	1744,87
321,47	1718,25
321,69	1804,26
321,90	1603,56
322,11	1685,48
322,32	1773,54
322,54	1800,16
322,75	1660,90
322,96	1804,26
323,18	1689,57
323,39	1708,01
323,60	1697,77
323,81	1697,77
324,03	1660,90
324,24	1738,73
324,45	1636,33
324,66	1724,39
324,88	1761,25
325,09	1800,16
325,30	1710,05
325,52	1771,49
325,73	1746,92
325,94	1705,96
326,15	1656,81
326,37	1679,33
326,58	1785,83
326,79	1816,55
327,00	1626,09
327,22	1734,63
327,43	1624,04
327,64	1595,37
327,85	1712,10
328,07	1783,78
328,28	1800,16
328,49	1691,62
328,70	1751,01
328,92	1617,90
329,13	1689,57
329,34	1751,01
329,55	1810,40
329,76	1763,30
329,98	1705,96
330,19	1865,70
330,40	1748,97
330,61	1730,53
330,83	1726,44
331,04	1609,70
331,25	1746,92
331,46	1685,48
331,68	1634,28
331,89	1656,81
332,10	1736,68
332,31	1656,81
332,52	1662,95
332,74	1656,81
332,95	1617,90
333,16	1679,33
333,37	1767,40
333,58	1587,18
333,80	1716,20
334,01	1654,76
334,22	1730,53
334,43	1669,09
334,64	1724,39
334,86	1644,52
335,07	1718,25
335,28	1759,21
335,49	1689,57
335,70	1767,40
335,92	1787,88
336,13	1877,99
336,34	1722,34
336,55	1730,53
336,76	1728,49
336,98	1589,22
337,19	1761,25
337,40	1757,16
337,61	1947,62
337,82	1634,28
338,04	1742,82
338,25	1691,62
338,46	1714,15
338,67	1738,73
338,88	1699,81
339,09	1697,77
339,31	1701,86
339,52	1734,63
339,73	1669,09
339,94	1609,70
340,15	1753,06
340,36	1722,34
340,58	1683,43
340,79	1638,38
341,00	1744,87
341,21	1669,09
341,42	1847,27
341,63	1771,49
341,85	1742,82
342,06	1730,53
342,27	1665,00
342,48	1685,48
342,69	1669,09
342,90	1730,53
343,12	1765,35
343,33	1712,10
343,54	1748,97
343,75	1728,49
343,96	1697,77
344,17	1648,61
344,38	1673,19
344,60	1632,23
344,81	1683,43
345,02	1630,18
345,23	1771,49
345,44	1871,84
345,65	1710,05
345,86	1699,81
346,07	1800,16
346,29	1665,00
346,50	1810,40
346,71	1763,30
346,92	1763,30
347,13	1804,26
347,34	1648,61
347,55	1705,96
347,76	1736,68
347,98	1642,47
348,19	1673,19
348,40	1769,44
348,61	1701,86
348,82	1771,49
349,03	1736,68
349,24	1728,49
349,45	1828,84
349,66	1574,89
349,88	1708,01
350,09	1722,34
350,30	1861,60
350,51	1728,49
350,72	1732,58
350,93	1724,39
351,14	1718,25
351,35	1755,11
351,56	1701,86
351,77	1755,11
351,99	1722,34
352,20	1845,22
352,41	1761,25
352,62	1609,70
352,83	1753,06
353,04	1771,49
353,25	1687,53
353,46	1742,82
353,67	1800,16
353,88	1621,99
354,09	1726,44
354,30	1726,44
354,52	1753,06
354,73	1742,82
354,94	1673,19
355,15	1593,32
355,36	1814,50
355,57	1693,67
355,78	1714,15
355,99	1681,38
356,20	1800,16
356,41	1761,25
356,62	1732,58
356,83	1662,95
357,04	1814,50
357,25	1646,57
357,46	1685,48
357,68	1683,43
357,89	1642,47
358,10	1646,57
358,31	1695,72
358,52	1671,14
358,73	1636,33
358,94	1748,97
359,15	1675,24
359,36	1726,44
359,57	1718,25
359,78	1730,53
359,99	1765,35
360,20	1644,52
360,41	1710,05
360,62	1808,36
360,83	1736,68
361,04	1738,73
361,25	1671,14
361,46	1779,68
361,67	1769,44
361,88	1791,97
362,09	1748,97
362,30	1648,61
362,51	1687,53
362,72	1689,57
362,93	1769,44
363,14	1718,25
363,35	1771,49
363,56	1642,47
363,78	1746,92
363,99	1759,21
364,20	1621,99
364,41	1757,16
364,62	1765,35
364,83	1769,44
365,04	1742,82
365,25	1730,53
365,46	1816,55
365,67	1689,57
365,88	1646,57
366,09	1712,10
366,30	1685,48
366,51	1736,68
366,72	1662,95
366,93	1828,84
367,14	1671,14
367,35	1771,49
367,56	1730,53
367,77	1779,68
367,98	1726,44
368,18	1744,87
368,39	1757,16
368,60	1691,62
368,81	1751,01
369,02	1718,25
369,23	1662,95
369,44	1726,44
369,65	1705,96
369,86	1728,49
370,07	1763,30
370,28	1662,95
370,49	1665,00
370,70	1662,95
370,91	1679,33
371,12	1648,61
371,33	1730,53
371,54	1746,92
371,75	1910,75
371,96	1560,55
372,17	1720,29
372,38	1687,53
372,59	1722,34
372,80	1656,81
373,01	1746,92
373,22	1759,21
373,43	1701,86
373,64	1673,19
373,85	1783,78
374,06	1806,31
374,26	1785,83
374,47	1814,50
374,68	1824,74
374,89	1665,00
375,10	1673,19
375,31	1724,39
375,52	1681,38
375,73	1736,68
375,94	1679,33
376,15	1853,41
376,36	1667,05
376,57	1789,92
376,78	1710,05
376,99	1728,49
377,20	1822,69
377,40	1724,39
377,61	1837,03
377,82	1630,18
378,03	1787,88
378,24	1751,01
378,45	1736,68
378,66	1683,43
378,87	1558,50
379,08	1615,85
379,29	1695,72
379,50	1773,54
379,71	1687,53
379,91	1757,16
380,12	1697,77
380,33	1728,49
380,54	1773,54
380,75	1665,00
380,96	1740,77
381,17	1796,07
381,38	1742,82
381,59	1798,12
381,80	1712,10
382,00	1806,31
382,21	1710,05
382,42	1886,18
382,63	1824,74
382,84	1814,50
383,05	1837,03
383,26	1746,92
383,47	1708,01
383,68	1779,68
383,88	1814,50
384,09	1689,57
384,30	1929,19
384,51	1726,44
384,72	1693,67
384,93	1613,80
385,14	1708,01
385,35	1740,77
385,55	1650,66
385,76	1804,26
385,97	1716,20
386,18	1685,48
386,39	1667,05
386,60	1761,25
386,81	1728,49
387,02	1632,23
387,22	1751,01
387,43	1775,59
387,64	1744,87
387,85	1843,17
388,06	2195,42
388,27	4046,79
388,48	6479,77
388,68	7763,85
388,89	9461,62
389,10	9576,30
389,31	8179,59
389,52	7399,31
389,73	6492,06
389,93	6016,93
390,14	5771,18
390,35	5076,91
390,56	4503,48
390,77	3723,21
390,98	2906,07
391,18	2551,77
391,39	2111,46
391,60	1820,64
391,81	1857,51
392,02	1683,43
392,23	1828,84
392,43	1705,96
392,64	1808,36
392,85	1669,09
393,06	1818,60
393,27	1712,10
393,47	1611,75
393,68	1791,97
393,89	1665,00
394,10	1839,08
394,31	1726,44
394,52	1712,10
394,72	1693,67
394,93	1785,83
395,14	1677,29
395,35	1748,97
395,56	1644,52
395,76	1806,31
395,97	1820,64
396,18	1845,22
396,39	1902,56
396,60	2027,49
396,80	1955,81
397,01	1849,32
397,22	1777,64
397,43	1830,88
397,64	1722,34
397,84	1841,12
398,05	1871,84
398,26	1796,07
398,47	1781,73
398,67	1783,78
398,88	1753,06
399,09	1771,49
399,30	1722,34
399,51	1783,78
399,71	1667,05
399,92	1714,15
400,13	1779,68
400,34	1701,86
400,54	1712,10
400,75	1832,93
400,96	1775,59
401,17	1912,80
401,37	1761,25
401,58	1662,95
401,79	1775,59
402,00	1847,27
402,21	2052,06
402,41	1904,61
402,62	1994,72
402,83	1986,53
403,04	2039,78
403,24	2029,54
403,45	1834,98
403,66	1910,75
403,87	1923,04
404,07	1955,81
404,28	1890,28
404,49	1826,79
404,70	1781,73
404,90	1767,40
405,11	1769,44
405,32	1746,92
405,52	1718,25
405,73	1734,63
405,94	1685,48
406,15	1673,19
406,35	1703,91
406,56	1863,65
406,77	1712,10
406,98	1800,16
407,18	1687,53
407,39	1839,08
407,60	1705,96
407,80	1796,07
408,01	1673,19
408,22	1775,59
408,43	1705,96
408,63	1730,53
408,84	1744,87
409,05	1816,55
409,25	1751,01
409,46	1701,86
409,67	1714,15
409,88	1689,57
410,08	1689,57
410,29	1644,52
410,50	1744,87
410,70	1773,54
410,91	1671,14
411,12	1738,73
411,32	1746,92
411,53	1712,10
411,74	1742,82
411,95	1787,88
412,15	1677,29
412,36	1734,63
412,57	1769,44
412,77	1779,68
412,98	1785,83
413,19	1626,09
413,39	1800,16
413,60	1802,21
413,81	1791,97
414,01	1566,70
414,22	1761,25
414,43	1742,82
414,63	1662,95
414,84	1789,92
415,05	1738,73
415,25	1640,42
415,46	1769,44
415,67	1658,85
415,87	1783,78
416,08	1675,24
416,29	1763,30
416,49	1683,43
416,70	1728,49
416,91	1705,96
417,11	1701,86
417,32	1755,11
417,53	1734,63
417,73	1773,54
417,94	1650,66
418,15	1820,64
418,35	1779,68
418,56	1687,53
418,77	1830,88
418,97	1740,77
419,18	1679,33
419,38	1677,29
419,59	1683,43
419,80	1738,73
420,00	1740,77
420,21	1761,25
420,42	1765,35
420,62	1716,20
420,83	1718,25
421,04	1738,73
421,24	1689,57
421,45	1728,49
421,65	1742,82
421,86	1722,34
422,07	1843,17
422,27	1701,86
422,48	1753,06
422,69	1630,18
422,89	1671,14
423,10	1738,73
423,30	1654,76
423,51	1710,05
423,72	1695,72
423,92	1730,53
424,13	1626,09
424,33	1695,72
424,54	1773,54
424,75	1746,92
424,95	1757,16
425,16	1732,58
425,36	1652,71
425,57	1822,69
425,78	1720,29
425,98	1824,74
426,19	1740,77
426,39	1650,66
426,60	1726,44
426,81	1837,03
427,01	1730,53
427,22	1681,38
427,42	1593,32
427,63	1603,56
427,83	1708,01
428,04	1771,49
428,25	1814,50
428,45	1775,59
428,66	1767,40
428,86	1771,49
429,07	1769,44
429,28	1697,77
429,48	1660,90
429,69	1648,61
429,89	1771,49
430,10	1654,76
430,30	1705,96
430,51	1802,21
430,71	1683,43
430,92	1761,25
431,13	1753,06
431,33	1714,15
431,54	1753,06
431,74	1794,02
431,95	1785,83
432,15	1740,77
432,36	1740,77
432,56	1722,34
432,77	1834,98
432,98	1855,46
433,18	1755,11
433,39	1697,77
433,59	1759,21
433,80	1902,56
434,00	1892,32
434,21	1681,38
434,41	1585,13
434,62	1845,22
434,82	1644,52
435,03	1607,66
435,23	1722,34
435,44	1611,75
435,64	1695,72
435,85	1710,05
436,06	1730,53
436,26	1767,40
436,47	1656,81
436,67	1724,39
436,88	1691,62
437,08	1748,97
437,29	1773,54
437,49	1783,78
437,70	1763,30
437,90	1648,61
438,11	1822,69
438,31	1810,40
438,52	1845,22
438,72	1820,64
438,93	1912,80
439,13	1751,01
439,34	1781,73
439,54	1742,82
439,75	1781,73
439,95	1820,64
440,16	1785,83
440,36	1751,01
440,57	1781,73
440,77	1843,17
440,98	1787,88
441,18	1763,30
441,39	1705,96
441,59	1681,38
441,80	1853,41
442,00	1783,78
442,21	1798,12
442,41	1722,34
442,62	1781,73
442,82	1652,71
443,02	1726,44
443,23	1714,15
443,43	1714,15
443,64	1777,64
443,84	1728,49
444,05	1808,36
444,25	1734,63
444,46	1722,34
444,66	1751,01
444,87	1796,07
445,07	1630,18
445,28	1775,59
445,48	1777,64
445,69	1628,14
445,89	1920,99
446,09	1806,31
446,30	2080,74
446,50	2605,02
446,71	3717,06
446,91	4290,49
447,12	4628,41
447,32	4667,32
447,53	4159,42
447,73	3796,93
447,93	3510,22
448,14	3233,74
448,34	3108,82
448,55	2861,01
448,75	2830,29
448,96	2674,65
449,16	2451,42
449,36	2211,81
449,57	2068,45
449,77	1927,14
449,98	1767,40
450,18	1736,68
450,39	1748,97
450,59	1814,50
450,79	1726,44
451,00	1730,53
451,20	1767,40
451,41	1808,36
451,61	1740,77
451,81	1691,62
452,02	1724,39
452,22	1685,48
452,43	1689,57
452,63	1712,10
452,84	1693,67
453,04	1722,34
453,24	1673,19
453,45	1726,44
453,65	1785,83
453,86	1742,82
454,06	1837,03
454,26	1787,88
454,47	1746,92
454,67	1853,41
454,87	1703,91
455,08	1703,91
455,28	1927,14
455,49	1759,21
455,69	1619,94
455,89	1832,93
456,10	1748,97
456,30	1658,85
456,51	1828,84
456,71	1765,35
456,91	1759,21
457,12	1822,69
457,32	1763,30
457,52	1773,54
457,73	1791,97
457,93	1837,03
458,14	1730,53
458,34	1703,91
458,54	1685,48
458,75	1708,01
458,95	1851,36
459,15	1783,78
459,36	1712,10
459,56	1724,39
459,76	1873,89
459,97	1679,33
460,17	1796,07
460,37	1822,69
460,58	1724,39
460,78	1816,55
460,99	1710,05
461,19	1673,19
461,39	1722,34
461,60	1697,77
461,80	1781,73
462,00	1640,42
462,21	1697,77
462,41	1759,21
462,61	1693,67
462,82	1560,55
463,02	1673,19
463,22	1771,49
463,43	1798,12
463,63	1701,86
463,83	1789,92
464,04	1732,58
464,24	1779,68
464,44	1683,43
464,64	1761,25
464,85	1828,84
465,05	1804,26
465,25	1720,29
465,46	1677,29
465,66	1796,07
465,86	1718,25
466,07	1779,68
466,27	1699,81
466,47	1681,38
466,68	1658,85
466,88	1841,12
467,08	1718,25
467,29	1832,93
467,49	1759,21
467,69	1703,91
467,89	1716,20
468,10	1822,69
468,30	1757,16
468,50	1791,97
468,71	1695,72
468,91	1628,14
469,11	1800,16
469,31	1791,97
469,52	1634,28
469,72	1861,60
469,92	1890,28
470,13	1802,21
470,33	1728,49
470,53	1943,52
470,73	2058,21
470,94	2285,53
471,14	2338,78
471,34	2572,25
471,54	2312,16
471,75	2205,66
471,95	2072,54
472,15	2045,92
472,36	2164,70
472,56	2099,17
472,76	2029,54
472,96	1982,43
473,17	1974,24
473,37	1918,95
473,57	1845,22
473,77	1791,97
473,98	1773,54
474,18	1710,05
474,38	1865,70
474,58	1728,49
474,79	1621,99
474,99	1791,97
475,19	1755,11
475,39	1759,21
475,60	1642,47
475,80	1761,25
476,00	1763,30
476,20	1671,14
476,41	1751,01
476,61	1822,69
476,81	1798,12
477,01	1673,19
477,21	1857,51
477,42	1857,51
477,62	1644,52
477,82	1884,13
478,02	1720,29
478,23	1759,21
478,43	1728,49
478,63	1710,05
478,83	1775,59
479,03	1703,91
479,24	1800,16
479,44	1841,12
479,64	1685,48
479,84	1644,52
480,04	1748,97
480,25	1800,16
480,45	1634,28
480,65	1679,33
480,85	1820,64
481,06	1703,91
481,26	1757,16
481,46	1701,86
481,66	1757,16
481,86	1652,71
482,06	1855,46
482,27	1685,48
482,47	1658,85
482,67	1779,68
482,87	1724,39
483,07	1794,02
483,28	1748,97
483,48	1675,24
483,68	1724,39
483,88	1695,72
484,08	1611,75
484,29	1730,53
484,49	1791,97
484,69	1679,33
484,89	1834,98
485,09	1834,98
485,29	1730,53
485,50	1767,40
485,70	1681,38
485,90	1798,12
486,10	1710,05
486,30	1822,69
486,50	1791,97
486,71	1685,48
486,91	1849,32
487,11	1791,97
487,31	1720,29
487,51	1744,87
487,71	1701,86
487,91	1650,66
488,12	1691,62
488,32	1634,28
488,52	1675,24
488,72	1662,95
488,92	1679,33
489,12	1705,96
489,32	1822,69
489,53	1705,96
489,73	1656,81
489,93	1873,89
490,13	1740,77
490,33	1697,77
490,53	1783,78
490,73	1742,82
490,94	1621,99
491,14	1777,64
491,34	1753,06
491,54	2064,35
491,74	2484,19
491,94	2891,73
492,14	2994,13
492,34	3012,56
492,54	2731,99
492,75	2568,15
492,95	2314,20
493,15	2301,92
493,35	2371,55
493,55	2254,81
493,75	2072,54
493,95	2011,11
494,15	2082,78
494,35	1916,90
494,56	1859,56
494,76	1841,12
494,96	1800,16
495,16	1890,28
495,36	1724,39
495,56	1771,49
495,76	1873,89
495,96	1660,90
496,16	1697,77
496,36	1880,04
496,56	1751,01
496,77	1761,25
496,97	1832,93
497,17	1849,32
497,37	1724,39
497,57	1677,29
497,77	1794,02
497,97	1693,67
498,17	1712,10
498,37	1679,33
498,57	1712,10
498,77	1757,16
498,97	1832,93
499,17	1769,44
499,38	1779,68
499,58	1755,11
499,78	1826,79
499,98	1800,16
500,18	1771,49
500,38	1746,92
500,58	1998,82
500,78	2623,45
500,98	4433,85
501,18	5633,96
501,38	6672,28
501,58	6930,33
501,78	6326,18
501,98	5386,16
502,18	4798,39
502,38	4384,70
502,58	4016,07
502,78	3663,82
502,98	3440,59
503,18	3319,76
503,38	3135,44
503,59	2789,33
503,79	2680,79
503,99	2416,60
504,19	2217,95
504,39	2228,19
504,59	2217,95
504,79	2121,70
504,99	2004,96
505,19	1939,43
505,39	1920,99
505,59	1976,29
505,79	1900,52
505,99	1863,65
506,19	1814,50
506,39	1851,36
506,59	1759,21
506,79	1738,73
506,99	1773,54
507,19	1773,54
507,39	1755,11
507,59	1673,19
507,79	1722,34
507,99	1675,24
508,19	1773,54
508,39	1740,77
508,59	1798,12
508,79	1861,60
508,99	1814,50
509,19	1714,15
509,39	1877,99
509,59	1718,25
509,79	1642,47
509,99	1796,07
510,19	1796,07
510,39	1822,69
510,59	1783,78
510,79	1802,21
510,99	1669,09
511,19	1740,77
511,39	1834,98
511,59	1779,68
511,79	1861,60
511,99	1730,53
512,19	1808,36
512,38	1755,11
512,58	1654,76
512,78	1730,53
512,98	1761,25
513,18	1863,65
513,38	1636,33
513,58	1810,40
513,78	1748,97
513,98	1802,21
514,18	1753,06
514,38	1748,97
514,58	1697,77
514,78	1746,92
514,98	1691,62
515,18	1699,81
515,38	1738,73
515,58	1841,12
515,78	1755,11
515,98	1746,92
516,18	1728,49
516,38	1845,22
516,57	1705,96
516,77	1759,21
516,97	1732,58
517,17	1771,49
517,37	1636,33
517,57	1816,55
517,77	1728,49
517,97	1617,90
518,17	1763,30
518,37	1718,25
518,57	1744,87
518,77	1710,05
518,97	1808,36
519,16	1759,21
519,36	1726,44
519,56	1746,92
519,76	1708,01
519,96	1738,73
520,16	1841,12
520,36	1718,25
520,56	1828,84
520,76	1697,77
520,96	1650,66
521,16	1822,69
521,35	1800,16
521,55	1847,27
521,75	1703,91
521,95	1730,53
522,15	1783,78
522,35	1640,42
522,55	1695,72
522,75	1834,98
522,95	1757,16
523,14	1830,88
523,34	1724,39
523,54	1703,91
523,74	1773,54
523,94	1820,64
524,14	1669,09
524,34	1855,46
524,54	1824,74
524,73	1759,21
524,93	1789,92
525,13	1644,52
525,33	1699,81
525,53	1918,95
525,73	1853,41
525,93	1777,64
526,13	1757,16
526,32	1728,49
526,52	1769,44
526,72	1810,40
526,92	1689,57
527,12	1681,38
527,32	1705,96
527,52	1726,44
527,71	1779,68
527,91	1861,60
528,11	1716,20
528,31	1773,54
528,51	1748,97
528,71	1771,49
528,90	1734,63
529,10	1828,84
529,30	1902,56
529,50	1677,29
529,70	1808,36
529,90	1785,83
530,09	1796,07
530,29	1662,95
530,49	1763,30
530,69	1882,08
530,89	1816,55
531,09	1814,50
531,28	1759,21
531,48	1730,53
531,68	1783,78
531,88	1781,73
532,08	1869,80
532,28	1720,29
532,47	1822,69
532,67	1753,06
532,87	1781,73
533,07	1753,06
533,27	1761,25
533,46	1753,06
533,66	1753,06
533,86	1759,21
534,06	1712,10
534,26	1740,77
534,45	1714,15
534,65	1738,73
534,85	1683,43
535,05	1755,11
535,25	1816,55
535,44	1656,81
535,64	1800,16
535,84	1753,06
536,04	1808,36
536,24	1669,09
536,43	1716,20
536,63	1765,35
536,83	1677,29
537,03	1724,39
537,22	1626,09
537,42	1615,85
537,62	1736,68
537,82	1689,57
538,02	1857,51
538,21	1837,03
538,41	1853,41
538,61	1730,53
538,81	1808,36
539,00	1757,16
539,20	1638,38
539,40	1677,29
539,60	1834,98
539,79	1751,01
539,99	1703,91
540,19	1714,15
540,39	1681,38
540,58	1701,86
540,78	1685,48
540,98	1757,16
541,18	1791,97
541,37	1914,85
541,57	1742,82
541,77	1748,97
541,97	1722,34
542,16	1720,29
542,36	1665,00
542,56	1728,49
542,76	1816,55
542,95	1820,64
543,15	1757,16
543,35	1783,78
543,54	1712,10
543,74	1703,91
543,94	1789,92
544,14	1726,44
544,33	1814,50
544,53	1748,97
544,73	1753,06
544,93	1818,60
545,12	1738,73
545,32	1804,26
545,52	1722,34
545,71	1710,05
545,91	1789,92
546,11	1697,77
546,30	1697,77
546,50	1798,12
546,70	1746,92
546,90	1812,45
547,09	1570,79
547,29	1669,09
547,49	1730,53
547,68	1804,26
547,88	1710,05
548,08	1849,32
548,27	2197,47
548,47	1730,53
548,67	1712,10
548,87	1839,08
549,06	1708,01
549,26	1800,16
549,46	1724,39
549,65	1720,29
549,85	1775,59
550,05	1814,50
550,24	1687,53
550,44	1757,16
550,64	1798,12
550,83	1714,15
551,03	1841,12
551,23	1730,53
551,42	1800,16
551,62	1738,73
551,82	1718,25
552,01	1748,97
552,21	1789,92
552,41	1757,16
552,60	1877,99
552,80	1783,78
553,00	1710,05
553,19	1740,77
553,39	1810,40
553,59	1679,33
553,78	1816,55
553,98	1812,45
554,17	1646,57
554,37	1779,68
554,57	1781,73
554,76	1679,33
554,96	1644,52
555,16	1681,38
555,35	1789,92
555,55	1753,06
555,75	1839,08
555,94	1759,21
556,14	1646,57
556,33	1761,25
556,53	1734,63
556,73	1697,77
556,92	1759,21
557,12	1816,55
557,32	1837,03
557,51	1800,16
557,71	1814,50
557,90	1898,47
558,10	1820,64
558,30	1746,92
558,49	1736,68
558,69	1656,81
558,88	1769,44
559,08	1671,14
559,28	1720,29
559,47	1714,15
559,67	1810,40
559,86	1822,69
560,06	1816,55
560,26	1712,10
560,45	1736,68
560,65	1722,34
560,84	1787,88
561,04	1710,05
561,24	1806,31
561,43	1697,77
561,63	1884,13
561,82	1767,40
562,02	1781,73
562,22	1679,33
562,41	1646,57
562,61	1753,06
562,80	1691,62
563,00	1871,84
563,19	1761,25
563,39	1804,26
563,59	1724,39
563,78	1677,29
563,98	1705,96
564,17	1806,31
564,37	1712,10
564,56	1712,10
564,76	1644,52
564,96	1845,22
565,15	1748,97
565,35	1857,51
565,54	1779,68
565,74	1804,26
565,93	1742,82
566,13	1712,10
566,32	1794,02
566,52	1720,29
566,71	1732,58
566,91	1742,82
567,11	1718,25
567,30	1665,00
567,50	1734,63
567,69	1736,68
567,89	1726,44
568,08	1699,81
568,28	1734,63
568,47	1757,16
568,67	1693,67
568,86	1654,76
569,06	1753,06
569,25	1708,01
569,45	1693,67
569,64	1722,34
569,84	1697,77
570,04	1828,84
570,23	1767,40
570,43	1742,82
570,62	1781,73
570,82	1820,64
571,01	1728,49
571,21	1816,55
571,40	1634,28
571,60	1783,78
571,79	1746,92
571,99	1726,44
572,18	1730,53
572,38	1740,77
572,57	1662,95
572,77	1765,35
572,96	1902,56
573,16	1779,68
573,35	1654,76
573,55	1796,07
573,74	1771,49
573,94	1730,53
574,13	1730,53
574,33	1832,93
574,52	1812,45
574,71	1796,07
574,91	1851,36
575,10	1603,56
575,30	1761,25
575,49	1708,01
575,69	1693,67
575,88	1863,65
576,08	1757,16
576,27	1781,73
576,47	1759,21
576,66	1824,74
576,86	1822,69
577,05	1728,49
577,25	1789,92
577,44	1918,95
577,64	1734,63
577,83	1789,92
578,02	1742,82
578,22	1857,51
578,41	1832,93
578,61	1751,01
578,80	1726,44
579,00	1693,67
579,19	1675,24
579,39	1804,26
579,58	1839,08
579,77	1708,01
579,97	1853,41
580,16	1892,32
580,36	1853,41
580,55	1798,12
580,75	1781,73
580,94	1736,68
581,13	1906,66
581,33	1769,44
581,52	1738,73
581,72	1912,80
581,91	1843,17
582,11	1748,97
582,30	1808,36
582,49	1802,21
582,69	1802,21
582,88	1777,64
583,08	1781,73
583,27	1812,45
583,47	1777,64
583,66	1806,31
583,85	1712,10
584,05	1771,49
584,24	1798,12
584,44	1810,40
584,63	1794,02
584,82	1796,07
585,02	1918,95
585,21	1730,53
585,41	1837,03
585,60	1798,12
585,79	1902,56
585,99	1953,76
586,18	1812,45
586,37	2199,52
586,57	3264,46
586,76	9617,26
586,96	23983,76
587,15	33496,58
587,34	39159,21
587,54	40609,17
587,73	35093,99
587,93	25124,48
588,12	20733,64
588,31	17622,77
588,51	15681,30
588,70	14659,36
588,89	13547,31
589,09	12048,20
589,28	10700,64
589,47	8953,72
589,67	7673,74
589,86	6104,99
590,06	4812,73
590,25	3835,85
590,44	3049,43
590,64	2553,82
590,83	2236,38
591,02	2146,27
591,22	1927,14
591,41	1902,56
591,60	1867,75
591,80	2033,63
591,99	1710,05
592,18	1726,44
592,38	1759,21
592,57	1794,02
592,76	1841,12
592,96	1787,88
593,15	1818,60
593,34	1828,84
593,54	1722,34
593,73	1767,40
593,92	1734,63
594,12	1822,69
594,31	1720,29
594,50	1759,21
594,70	1738,73
594,89	1984,48
595,08	1689,57
595,28	1877,99
595,47	1994,72
595,66	1777,64
595,86	1794,02
596,05	1779,68
596,24	1746,92
596,43	1867,75
596,63	1849,32
596,82	1751,01
597,01	1753,06
597,21	1820,64
597,40	1775,59
597,59	1740,77
597,79	1736,68
597,98	1798,12
598,17	1753,06
598,36	1730,53
598,56	1712,10
598,75	1718,25
598,94	1773,54
599,14	1732,58
599,33	1648,61
599,52	1771,49
599,71	1740,77
599,91	1773,54
600,10	1748,97
600,29	1738,73
600,48	1796,07
600,68	1849,32
600,87	1751,01
601,06	1763,30
601,26	1722,34
601,45	1734,63
601,64	1814,50
601,83	1843,17
602,03	1710,05
602,22	1681,38
602,41	1806,31
602,60	1839,08
602,80	1759,21
602,99	1789,92
603,18	1660,90
603,37	1755,11
603,57	1796,07
603,76	1830,88
603,95	1769,44
604,14	1726,44
604,34	1689,57
604,53	1781,73
604,72	1791,97
604,91	1828,84
605,10	1787,88
605,30	1703,91
605,49	1857,51
605,68	1806,31
605,87	1740,77
606,07	1609,70
606,26	1791,97
606,45	1812,45
606,64	1826,79
606,84	1699,81
607,03	1726,44
607,22	1814,50
607,41	1730,53
607,60	1656,81
607,80	1847,27
607,99	1748,97
608,18	1738,73
608,37	1701,86
608,56	1693,67
608,76	1802,21
608,95	1814,50
609,14	1742,82
609,33	1812,45
609,52	1746,92
609,72	1734,63
609,91	1830,88
610,10	1802,21
610,29	1812,45
610,48	1820,64
610,68	1769,44
610,87	1628,14
611,06	1820,64
611,25	1796,07
611,44	1802,21
611,63	1753,06
611,83	1767,40
612,02	1763,30
612,21	1816,55
612,40	1671,14
612,59	1648,61
612,79	1693,67
612,98	1705,96
613,17	1849,32
613,36	1738,73
613,55	1849,32
613,74	1652,71
613,93	1751,01
614,13	1769,44
614,32	1693,67
614,51	1796,07
614,70	1742,82
614,89	1757,16
615,08	1775,59
615,28	2045,92
615,47	1708,01
615,66	1789,92
615,85	1673,19
616,04	1882,08
616,23	1757,16
616,42	1791,97
616,62	1736,68
616,81	1765,35
617,00	1705,96
617,19	1740,77
617,38	1701,86
617,57	1783,78
617,76	1751,01
617,95	1722,34
618,15	1828,84
618,34	1759,21
618,53	1677,29
618,72	1851,36
618,91	1847,27
619,10	1837,03
619,29	1761,25
619,48	1710,05
619,68	1652,71
619,87	1724,39
620,06	1726,44
620,25	1783,78
620,44	1695,72
620,63	1794,02
620,82	1748,97
621,01	1767,40
621,20	1730,53
621,39	1748,97
621,59	1722,34
621,78	1705,96
621,97	1751,01
622,16	1722,34
622,35	1746,92
622,54	1728,49
622,73	1800,16
622,92	1662,95
623,11	1804,26
623,30	1669,09
623,49	1806,31
623,68	1714,15
623,88	1779,68
624,07	1714,15
624,26	1650,66
624,45	1701,86
624,64	1744,87
624,83	1691,62
625,02	1744,87
625,21	1693,67
625,40	1785,83
625,59	1783,78
625,78	1769,44
625,97	1804,26
626,16	1730,53
626,35	1738,73
626,54	1714,15
626,74	1804,26
626,93	1685,48
627,12	1730,53
627,31	1746,92
627,50	1787,88
627,69	1703,91
627,88	1693,67
628,07	1755,11
628,26	1628,14
628,45	1734,63
628,64	1667,05
628,83	1683,43
629,02	1576,94
629,21	1681,38
629,40	1730,53
629,59	1697,77
629,78	1767,40
629,97	1783,78
630,16	1773,54
630,35	1718,25
630,54	1726,44
630,73	1822,69
630,92	1724,39
631,11	1761,25
631,30	1730,53
631,49	1742,82
631,68	1732,58
631,87	1744,87
632,06	1624,04
632,25	1918,95
632,44	1636,33
632,63	1681,38
632,82	1718,25
633,01	1716,20
633,20	1734,63
633,39	1619,94
633,58	1607,66
633,77	1748,97
633,96	1687,53
634,15	1765,35
634,34	1804,26
634,53	1708,01
634,72	1691,62
634,91	1724,39
635,10	1757,16
635,29	1783,78
635,48	1755,11
635,67	1691,62
635,86	1642,47
636,05	1769,44
636,24	1775,59
636,43	1742,82
636,62	1724,39
636,81	1597,42
637,00	1732,58
637,19	1771,49
637,38	1796,07
637,57	1636,33
637,76	1730,53
637,95	1724,39
638,14	1667,05
638,33	1728,49
638,52	1658,85
638,71	1695,72
638,89	1667,05
639,08	1943,52
639,27	1820,64
639,46	1662,95
639,65	1796,07
639,84	1699,81
640,03	1796,07
640,22	1708,01
640,41	1851,36
640,60	1701,86
640,79	1742,82
640,98	1722,34
641,17	1763,30
641,36	1703,91
641,55	1716,20
641,74	1599,46
641,92	1697,77
642,11	1710,05
642,30	1714,15
642,49	1722,34
642,68	1640,42
642,87	1779,68
643,06	1783,78
643,25	1660,90
643,44	1658,85
643,63	1712,10
643,82	1812,45
644,00	1697,77
644,19	1734,63
644,38	1615,85
644,57	1812,45
644,76	1621,99
644,95	1689,57
645,14	1791,97
645,33	1701,86
645,52	1724,39
645,71	1605,61
645,89	1685,48
646,08	1671,14
646,27	1783,78
646,46	1843,17
646,65	1617,90
646,84	1767,40
647,03	1650,66
647,22	1783,78
647,40	1798,12
647,59	1693,67
647,78	1599,46
647,97	1708,01
648,16	1646,57
648,35	1857,51
648,54	1732,58
648,73	1712,10
648,91	1761,25
649,10	1734,63
649,29	1714,15
649,48	1806,31
649,67	1748,97
649,86	1769,44
650,05	1703,91
650,23	1769,44
650,42	1720,29
650,61	1837,03
650,80	1703,91
650,99	1914,85
651,18	1769,44
651,36	1701,86
651,55	1728,49
651,74	1804,26
651,93	1656,81
652,12	1693,67
652,31	1767,40
652,49	1740,77
652,68	1699,81
652,87	1796,07
653,06	1689,57
653,25	1775,59
653,44	1714,15
653,62	1816,55
653,81	1740,77
654,00	1673,19
654,19	1800,16
654,38	1910,75
654,56	1722,34
654,75	1748,97
654,94	1779,68
655,13	1794,02
655,32	1779,68
655,51	1773,54
655,69	1708,01
655,88	1732,58
656,07	1638,38
656,26	1730,53
656,45	1636,33
656,63	1757,16
656,82	1816,55
657,01	1808,36
657,20	1703,91
657,38	1808,36
657,57	1736,68
657,76	1648,61
657,95	1814,50
658,14	1652,71
658,32	1685,48
658,51	1667,05
658,70	1681,38
658,89	1800,16
659,08	1767,40
659,26	1837,03
659,45	1744,87
659,64	1785,83
659,83	1656,81
660,01	1943,52
660,20	1683,43
660,39	1832,93
660,58	1599,46
660,76	1828,84
660,95	1693,67
661,14	1761,25
661,33	1722,34
661,51	1732,58
661,70	1671,14
661,89	1785,83
662,08	1748,97
662,26	1734,63
662,45	1689,57
662,64	1863,65
662,83	1796,07
663,01	1714,15
663,20	1683,43
663,39	1755,11
663,58	1728,49
663,76	1710,05
663,95	1755,11
664,14	1607,66
664,32	1755,11
664,51	1667,05
664,70	1665,00
664,89	1748,97
665,07	1644,52
665,26	1810,40
665,45	1626,09
665,64	1796,07
665,82	1697,77
666,01	1822,69
666,20	1613,80
666,38	1800,16
666,57	1861,60
666,76	2252,77
666,95	4421,56
667,13	10131,30
667,32	14577,44
667,51	17168,12
667,69	18509,54
667,88	17016,57
668,07	11865,93
668,25	9080,69
668,44	7800,71
668,63	7147,41
668,81	6610,84
669,00	6086,56
669,19	5484,46
669,38	4841,40
669,56	4480,96
669,75	3895,24
669,94	3323,85
670,12	2748,37
670,31	2482,14
670,50	2166,75
670,68	2027,49
670,87	1964,00
671,06	1824,74
671,24	1818,60
671,43	1779,68
671,62	1761,25
671,80	1695,72
671,99	1761,25
672,18	1839,08
672,36	1769,44
672,55	1755,11
672,74	1691,62
672,92	1695,72
673,11	1800,16
673,29	1759,21
673,48	1769,44
673,67	1791,97
673,85	1851,36
674,04	1689,57
674,23	1755,11
674,41	1808,36
674,60	1665,00
674,79	1667,05
674,97	1660,90
675,16	1763,30
675,34	1837,03
675,53	1599,46
675,72	1765,35
675,90	1843,17
676,09	1677,29
676,28	1773,54
676,46	1632,23
676,65	1769,44
676,83	1609,70
677,02	1759,21
677,21	1755,11
677,39	1783,78
677,58	1642,47
677,77	1728,49
677,95	1701,86
678,14	1650,66
678,32	1755,11
678,51	1751,01
678,70	1794,02
678,88	1656,81
679,07	1726,44
679,25	1665,00
679,44	1757,16
679,63	1683,43
679,81	1730,53
680,00	1798,12
680,18	1796,07
680,37	1787,88
680,55	1718,25
680,74	1675,24
680,93	1650,66
681,11	1665,00
681,30	1736,68
681,48	1720,29
681,67	1675,24
681,85	1705,96
682,04	1660,90
682,23	1812,45
682,41	1802,21
682,60	1767,40
682,78	1665,00
682,97	1634,28
683,15	1761,25
683,34	1763,30
683,53	1806,31
683,71	1671,14
683,90	1693,67
684,08	1857,51
684,27	1675,24
684,45	1748,97
684,64	1800,16
684,82	1677,29
685,01	1693,67
685,19	1726,44
685,38	1765,35
685,57	1705,96
685,75	1703,91
685,94	1628,14
686,12	1722,34
686,31	1759,21
686,49	1812,45
686,68	1626,09
686,86	1695,72
687,05	1728,49
687,23	1791,97
687,42	1669,09
687,60	1687,53
687,79	1769,44
687,97	1785,83
688,16	1810,40
688,34	1845,22
688,53	1595,37
688,71	1683,43
688,90	1843,17
689,08	1626,09
689,27	1628,14
689,45	1779,68
689,64	1775,59
689,82	1804,26
690,01	1822,69
690,19	1785,83
690,38	1691,62
690,56	1787,88
690,75	1665,00
690,93	1665,00
691,12	1734,63
691,30	1714,15
691,49	1632,23
691,67	1738,73
691,86	1851,36
692,04	1705,96
692,23	1703,91
692,41	1730,53
692,60	1861,60
692,78	1773,54
692,97	1691,62
693,15	1742,82
693,34	1794,02
693,52	1736,68
693,71	1667,05
693,89	1708,01
694,08	1712,10
694,26	1742,82
694,44	1765,35
694,63	1757,16
694,81	1685,48
695,00	1673,19
695,18	1785,83
695,37	1837,03
695,55	1800,16
695,74	1671,14
695,92	1640,42
696,10	1681,38
696,29	1572,84
696,47	1685,48
696,66	1763,30
696,84	1681,38
697,03	1720,29
697,21	1927,14
697,40	2363,36
697,58	1740,77
697,76	1687,53
697,95	1642,47
698,13	1689,57
698,32	1648,61
698,50	1744,87
698,68	1730,53
698,87	1810,40
699,05	1783,78
699,24	1759,21
699,42	1681,38
699,61	1755,11
699,79	1783,78
699,97	1767,40
700,16	1679,33
700,34	1681,38
700,53	1794,02
700,71	1867,75
700,89	1746,92
701,08	1755,11
701,26	1681,38
701,45	2078,69
701,63	1667,05
701,81	1785,83
702,00	1615,85
702,18	1675,24
702,37	1656,81
702,55	1769,44
702,73	1783,78
702,92	1603,56
703,10	1812,45
703,28	1701,86
703,47	1617,90
703,65	1783,78
703,84	1798,12
704,02	1689,57
704,20	1822,69
704,39	1677,29
704,57	1697,77
704,75	1763,30
704,94	1796,07
705,12	1722,34
705,30	1855,46
705,49	2260,96
705,67	4411,32
705,86	9256,82
706,04	12259,14
706,22	14030,63
706,41	14718,75
706,59	13076,28
706,77	9113,46
706,96	7258,00
707,14	6391,71
707,32	5896,10
707,51	5453,74
707,69	4736,95
707,87	4014,02
708,06	3465,16
708,24	2926,55
708,42	2334,68
708,61	2187,23
708,79	1886,18
708,97	1882,08
709,16	1910,75
709,34	1779,68
709,52	1708,01
709,71	1742,82
709,89	1771,49
710,07	1724,39
710,26	1716,20
710,44	1761,25
710,62	1771,49
710,80	1781,73
710,99	1798,12
711,17	1763,30
711,35	1697,77
711,54	1691,62
711,72	1767,40
711,90	1710,05
712,09	1789,92
712,27	1703,91
712,45	1701,86
712,63	1724,39
712,82	1718,25
713,00	1705,96
713,18	1744,87
713,37	1746,92
713,55	1753,06
713,73	1716,20
713,91	1763,30
714,10	1710,05
714,28	1736,68
714,46	1718,25
714,65	1720,29
714,83	1738,73
715,01	1759,21
715,19	1675,24
715,38	1654,76
715,56	1798,12
715,74	1691,62
715,92	1621,99
716,11	1863,65
716,29	1632,23
716,47	1734,63
716,65	1720,29
716,84	1636,33
717,02	1755,11
717,20	1566,70
717,38	1572,84
717,57	1761,25
717,75	1699,81
717,93	1697,77
718,11	1748,97
718,30	1708,01
718,48	1775,59
718,66	1734,63
718,84	1796,07
719,03	1667,05
719,21	1695,72
719,39	1769,44
719,57	1775,59
719,75	1695,72
719,94	1693,67
720,12	1705,96
720,30	1796,07
720,48	1785,83
720,67	1738,73
720,85	1679,33
721,03	1685,48
721,21	1685,48
721,39	1744,87
721,58	1728,49
721,76	1708,01
721,94	1720,29
722,12	1652,71
722,30	1802,21
722,49	1685,48
722,67	1771,49
722,85	1771,49
723,03	1648,61
723,21	1779,68
723,40	1708,01
723,58	1814,50
723,76	1738,73
723,94	1746,92
724,12	1677,29
724,30	1755,11
724,49	1734,63
724,67	1630,18
724,85	1798,12
725,03	1640,42
725,21	1665,00
725,40	1789,92
725,58	1667,05
725,76	1730,53
725,94	1687,53
726,12	1658,85
726,30	1726,44
726,49	1755,11
726,67	1652,71
726,85	1732,58
727,03	1814,50
727,21	2258,91
727,39	3012,56
727,57	3776,45
727,76	4118,47
727,94	4272,06
728,12	4212,67
728,30	3524,55
728,48	2897,88
728,66	2791,38
728,84	2510,81
729,03	2291,68
729,21	2074,59
729,39	1945,57
729,57	1814,50
729,75	1808,36
729,93	1904,61
730,11	1720,29
730,30	1744,87
730,48	1736,68
730,66	1851,36
730,84	1808,36
731,02	1746,92
731,20	1714,15
731,38	1753,06
731,56	1648,61
731,74	1681,38
731,93	1755,11
732,11	1689,57
732,29	1656,81
732,47	1785,83
732,65	1701,86
732,83	1753,06
733,01	1732,58
733,19	1681,38
733,37	1724,39
733,56	1796,07
733,74	1669,09
733,92	1712,10
734,10	1656,81
734,28	1716,20
734,46	1552,36
734,64	1687,53
734,82	1689,57
735,00	1693,67
735,18	1714,15
735,36	1728,49
735,54	1765,35
735,73	1714,15
735,91	1726,44
736,09	1714,15
736,27	1732,58
736,45	1665,00
736,63	1669,09
736,81	1660,90
736,99	1781,73
737,17	1828,84
737,35	1695,72
737,53	1763,30
737,71	1712,10
737,89	1806,31
738,07	1714,15
738,25	1652,71
738,43	1619,94
738,61	1779,68
738,80	1697,77
738,98	1603,56
739,16	1665,00
739,34	1654,76
739,52	1738,73
739,70	1783,78
739,88	1789,92
740,06	1734,63
740,24	1599,46
740,42	1712,10
740,60	1669,09
740,78	1710,05
740,96	1615,85
741,14	1644,52
741,32	1681,38
741,50	1730,53
741,68	1837,03
741,86	1726,44
742,04	1660,90
742,22	1650,66
742,40	1689,57
742,58	1693,67
742,76	1679,33
742,94	1716,20
743,12	1611,75
743,30	1716,20
743,48	1736,68
743,66	1681,38
743,84	1667,05
744,02	1710,05
744,20	1701,86
744,38	1660,90
744,56	1652,71
744,74	1806,31
744,92	1683,43
745,10	1834,98
745,28	1779,68
745,46	1822,69
745,64	1691,62
745,82	1636,33
746,00	1777,64
746,18	1742,82
746,36	1650,66
746,54	1757,16
746,72	1708,01
746,90	1705,96
747,08	1765,35
747,26	1718,25
747,44	1763,30
747,62	1681,38
747,80	1740,77
747,98	1728,49
748,15	1654,76
748,33	1865,70
748,51	1712,10
748,69	1701,86
748,87	1671,14
749,05	1689,57
749,23	1673,19
749,41	1751,01
749,59	1740,77
749,77	1824,74
749,95	1687,53
750,13	1705,96
750,31	1888,23
750,49	1703,91
750,67	1798,12
750,85	1863,65
751,03	1742,82
751,20	1849,32
751,38	1667,05
751,56	1617,90
751,74	1755,11
751,92	1722,34
752,10	1626,09
752,28	1722,34
752,46	1679,33
752,64	1695,72
752,82	1736,68
753,00	1740,77
753,18	1697,77
753,35	1732,58
753,53	1714,15
753,71	1673,19
753,89	1763,30
754,07	1691,62
754,25	1691,62
754,43	1695,72
754,61	1656,81
754,79	1712,10
754,97	1755,11
755,14	1837,03
755,32	1683,43
755,50	1701,86
755,68	1724,39
755,86	1718,25
756,04	1652,71
756,22	1660,90
756,40	1808,36
756,57	1855,46
756,75	1648,61
756,93	1783,78
757,11	1730,53
757,29	1619,94
757,47	1724,39
757,65	1531,88
757,82	1615,85
758,00	1628,14
758,18	1683,43
758,36	1656,81
758,54	1814,50
758,72	1624,04
758,90	1804,26
759,07	1693,67
759,25	1615,85
759,43	1755,11
759,61	1685,48
759,79	2168,80
759,97	1740,77
760,15	1652,71
760,32	1658,85
760,50	1748,97
760,68	1816,55
760,86	1665,00
761,04	1732,58
761,22	1769,44
761,39	1689,57
761,57	1697,77
761,75	1812,45
761,93	1841,12
762,11	1640,42
762,28	1800,16
762,46	1574,89
762,64	1724,39
762,82	1662,95
763,00	1716,20
763,18	1777,64
763,35	1558,50
763,53	1708,01
763,71	1697,77
763,89	1701,86
764,07	1765,35
764,24	1734,63
764,42	1687,53
764,60	1665,00
764,78	1701,86
764,96	1812,45
765,13	1734,63
765,31	1708,01
765,49	1712,10
765,67	1685,48
765,84	1654,76
766,02	1675,24
766,20	1621,99
766,38	1761,25
766,56	1757,16
766,73	1748,97
766,91	1722,34
767,09	1761,25
767,27	1720,29
767,44	1689,57
767,62	1689,57
767,80	1599,46
767,98	1669,09
768,15	1705,96
768,33	1767,40
768,51	1783,78
768,69	1775,59
768,87	1667,05
769,04	1714,15
769,22	1951,71
769,40	1787,88
769,58	1832,93
769,75	1716,20
769,93	1763,30
770,11	1648,61
770,28	1669,09
770,46	1726,44
770,64	1769,44
770,82	1800,16
770,99	1671,14
771,17	1753,06
771,35	1718,25
771,53	1701,86
771,70	1708,01
771,88	1708,01
772,06	1720,29
772,23	1722,34
772,41	1728,49
772,59	1685,48
772,77	1628,14
772,94	1660,90
773,12	1730,53
773,30	1734,63
773,47	1701,86
773,65	1675,24
773,83	1697,77
774,01	1687,53
774,18	1638,38
774,36	1673,19
774,54	1619,94
774,71	1693,67
774,89	1589,22
775,07	1621,99
775,24	1699,81
775,42	1648,61
775,60	1824,74
775,78	1636,33
775,95	1656,81
776,13	1693,67
776,31	1552,36
776,48	1720,29
776,66	1783,78
776,84	1656,81
777,01	1677,29
777,19	1607,66
777,37	1697,77
777,54	1732,58
777,72	1816,55
777,90	1767,40
778,07	1736,68
778,25	1877,99
778,43	1755,11
778,60	1638,38
778,78	1820,64
778,96	1804,26
779,13	1615,85
779,31	1718,25
779,49	1677,29
779,66	1697,77
779,84	1699,81
780,01	1726,44
780,19	1732,58
780,37	1728,49
780,54	1783,78
780,72	1685,48
780,90	1689,57
781,07	1619,94
781,25	1726,44
781,43	1765,35
781,60	1730,53
781,78	1718,25
781,95	1691,62
782,13	1722,34
782,31	1687,53
782,48	1683,43
782,66	1687,53
782,83	1863,65
783,01	1718,25
783,19	1814,50
783,36	1710,05
783,54	1638,38
783,72	1736,68
783,89	1718,25
784,07	1708,01
784,24	1728,49
784,42	1759,21
784,60	1722,34
784,77	1796,07
784,95	1566,70
785,12	1671,14
785,30	1810,40
785,47	1597,42
785,65	1677,29
785,83	1613,80
786,00	1701,86
786,18	1755,11
786,35	1624,04
786,53	1677,29
786,71	1736,68
786,88	1751,01
787,06	1710,05
787,23	1730,53
787,41	1568,74
787,58	1660,90
787,76	1679,33
787,94	1714,15
788,11	1787,88
788,29	1728,49
788,46	1699,81
788,64	1619,94
788,81	1648,61
788,99	1685,48
789,16	1771,49
789,34	1724,39
789,52	1619,94
789,69	1611,75
789,87	1521,64
790,04	1705,96
790,22	1669,09
790,39	1822,69
790,57	1646,57
790,74	1673,19
790,92	1773,54
791,09	1691,62
791,27	1726,44
791,44	1839,08
791,62	1708,01
791,79	1736,68
791,97	1708,01
792,15	1845,22
792,32	1800,16
792,50	1738,73
792,67	1806,31
792,85	1796,07
793,02	1701,86
793,20	1705,96
793,37	1656,81
793,55	1751,01
793,72	1609,70
793,90	1714,15
794,07	1730,53
794,25	1699,81
794,42	1781,73
794,60	1716,20
794,77	1757,16
794,95	1755,11
795,12	1673,19
795,30	1665,00
795,47	1607,66
795,65	1855,46
795,82	1740,77
796,00	1667,05
796,17	1593,32
796,34	1683,43
796,52	1763,30
796,69	1673,19
796,87	1734,63
797,04	1816,55
797,22	1771,49
797,39	1748,97
797,57	1751,01
797,74	1773,54
797,92	1763,30
798,09	1673,19
798,27	1708,01
798,44	1816,55
798,62	1662,95
798,79	1769,44
798,96	1695,72
799,14	1646,57
799,31	1800,16
799,49	1691,62
799,66	1718,25
799,84	1759,21
800,01	1619,94
800,19	1658,85
800,36	1591,27
800,53	1685,48
800,71	1730,53
800,88	1804,26
801,06	1648,61
801,23	1681,38
801,41	1630,18
801,58	1656,81
801,75	1685,48
801,93	1730,53
802,10	1689,57
802,28	1757,16
802,45	1689,57
802,63	1759,21
802,80	1841,12
802,97	1761,25
803,15	1765,35
803,32	1695,72
803,50	1695,72
803,67	1699,81
803,84	1669,09
804,02	1724,39
804,19	1667,05
804,37	1601,51
804,54	1642,47
804,71	1648,61
804,89	1712,10
805,06	1708,01
805,24	1673,19
805,41	1687,53
805,58	1646,57
805,76	1839,08
805,93	1777,64
806,10	1804,26
806,28	1787,88
806,45	1677,29
806,63	1687,53
806,80	1658,85
806,97	1691,62
807,15	1671,14
807,32	1681,38
807,49	1730,53
807,67	1636,33
807,84	1697,77
808,01	1634,28
808,19	1763,30
808,36	1769,44
808,54	1685,48
808,71	1681,38
808,88	1720,29
809,06	1765,35
809,23	1761,25
809,40	1658,85
809,58	1800,16
809,75	1753,06
809,92	1724,39
810,10	1832,93
810,27	1646,57
810,44	1763,30
810,62	1679,33
810,79	1796,07
810,96	1691,62
811,14	1701,86
811,31	1794,02
811,48	1757,16
811,66	1699,81
811,83	1761,25
812,00	1736,68
812,18	1726,44
812,35	1826,79
812,52	1691,62
812,69	1693,67
812,87	1660,90
813,04	1640,42
813,21	1687,53
813,39	1720,29
813,56	1624,04
813,73	1740,77
813,91	1667,05
814,08	1708,01
814,25	1722,34
814,42	1673,19
814,60	1736,68
814,77	1681,38
814,94	1697,77
815,12	1681,38
815,29	1802,21
815,46	1718,25
815,63	1748,97
815,81	1667,05
815,98	1708,01
816,15	1740,77
816,33	1757,16
816,50	1701,86
816,67	1722,34
816,84	1720,29
817,02	1634,28
817,19	1642,47
817,36	1705,96
817,53	1667,05
817,71	1693,67
817,88	1738,73
818,05	1734,63
818,22	1714,15
818,40	1785,83
818,57	1703,91
818,74	1718,25
818,91	1685,48
819,09	1740,77
819,26	1781,73
819,43	1716,20
819,60	1642,47
819,78	1777,64
819,95	1757,16
820,12	1683,43
820,29	1746,92
820,47	1738,73
820,64	1624,04
820,81	1667,05
820,98	1673,19
821,15	1726,44
821,33	1751,01
821,50	1621,99
821,67	1781,73
821,84	1603,56
822,02	1724,39
822,19	1751,01
822,36	1757,16
822,53	1748,97
822,70	1724,39
822,88	1757,16
823,05	1775,59
823,22	1642,47
823,39	1669,09
823,56	1703,91
823,74	1865,70
823,91	1748,97
824,08	1681,38
824,25	1624,04
824,42	1890,28
824,60	1652,71
824,77	1777,64
824,94	1660,90
825,11	1812,45
825,28	1644,52
825,45	1671,14
825,63	1708,01
825,80	1681,38
825,97	1671,14
826,14	1757,16
826,31	1630,18
826,48	1734,63
826,66	1621,99
826,83	1730,53
827,00	1740,77
827,17	1705,96
827,34	1765,35
827,51	1718,25
827,69	1685,48
827,86	1679,33
828,03	1634,28
828,20	1669,09
828,37	1689,57
828,54	1687,53
828,71	1712,10
828,89	1779,68
829,06	1738,73
829,23	1826,79
829,40	1701,86
829,57	1697,77
829,74	1726,44
829,91	1748,97
830,09	1660,90
830,26	1769,44
830,43	1759,21
830,60	1710,05
830,77	1726,44
830,94	1724,39
831,11	1800,16
831,28	1636,33
831,46	1812,45
831,63	1630,18
831,80	1775,59
831,97	1660,90
832,14	1695,72
832,31	1787,88
832,48	1687,53
832,65	1693,67
832,82	1708,01
832,99	1722,34
833,17	1669,09
833,34	1824,74
833,51	1669,09
833,68	1681,38
833,85	1742,82
834,02	1730,53
834,19	1615,85
834,36	1603,56
834,53	1763,30
834,70	1806,31
834,87	1718,25
835,04	1671,14
835,22	1677,29
835,39	1746,92
835,56	1621,99
835,73	1697,77
835,90	1781,73
836,07	1673,19
836,24	1787,88
836,41	1697,77
836,58	1703,91
836,75	1767,40
836,92	1751,01
837,09	1759,21
837,26	1722,34
837,43	1755,11
837,60	1703,91
837,77	1695,72
837,94	1714,15
838,12	1810,40
838,29	1677,29
838,46	1570,79
838,63	1603,56
838,80	1755,11
838,97	1728,49
839,14	1746,92
839,31	1736,68
839,48	1693,67
839,65	1734,63
839,82	1746,92
839,99	1730,53
840,16	1724,39
840,33	1693,67
840,50	1673,19
840,67	1648,61
840,84	1619,94
841,01	1804,26
841,18	1675,24
841,35	1654,76
841,52	1839,08
841,69	1820,64
841,86	1728,49
842,03	1708,01
842,20	1753,06
842,37	1679,33
842,54	1693,67
842,71	1677,29
842,88	1687,53
843,05	1744,87
843,22	1746,92
843,39	1777,64
843,56	1689,57
843,73	1742,82
843,90	1751,01
844,07	1757,16
844,24	1763,30
844,41	1787,88
844,58	1777,64
844,75	1779,68
844,92	1804,26
845,09	1609,70
845,26	1716,20
845,43	1746,92
845,60	1675,24
845,77	1652,71
845,94	1761,25
846,10	1742,82
846,27	1615,85
846,44	1603,56
846,61	1603,56
846,78	1742,82
846,95	1777,64
847,12	1736,68
847,29	1773,54
847,46	1699,81
847,63	1800,16
847,80	1681,38
847,97	1736,68
848,14	1894,37
848,31	1677,29
848,48	1703,91
848,65	1671,14
848,82	1693,67
848,98	1828,84
849,15	1789,92
849,32	1746,92
849,49	1746,92
849,66	1761,25
849,83	1699,81
850,00	1621,99
850,17	1779,68
850,34	1669,09
850,51	1738,73
850,68	1656,81
850,85	1759,21
851,01	1687,53
851,18	1785,83
851,35	1689,57
851,52	1773,54
851,69	1769,44
851,86	1634,28
852,03	1599,46
852,20	1767,40
852,37	1675,24
852,53	1654,76
852,70	1730,53
852,87	1789,92
853,04	1808,36
853,21	1644,52
853,38	1722,34
853,55	1820,64
853,72	1783,78
853,89	1699,81
854,05	1658,85
854,22	1710,05
854,39	1656,81
854,56	1740,77
854,73	1742,82
854,90	1665,00
855,07	1701,86
855,23	1677,29
855,40	1740,77
855,57	1683,43
855,74	1550,31
855,91	1834,98
856,08	1677,29
856,25	1656,81
856,41	1708,01
856,58	1697,77
856,75	1748,97
856,92	1665,00
857,09	1755,11
857,26	1669,09
857,42	1767,40
857,59	1787,88
857,76	1697,77
857,93	1695,72
858,10	1679,33
858,27	1656,81
858,43	1734,63
858,60	1675,24
858,77	1630,18
858,94	1716,20
859,11	1736,68
859,27	1712,10
859,44	1748,97
859,61	1857,51
859,78	1699,81
859,95	1626,09
860,12	1716,20
860,28	1845,22
860,45	1763,30
860,62	1697,77
860,79	1744,87
860,95	1669,09
861,12	1699,81
861,29	1665,00
861,46	1671,14
861,63	1708,01
861,79	1773,54
861,96	1701,86
862,13	1632,23
862,30	1748,97
862,47	1697,77
862,63	1665,00
862,80	1773,54
862,97	1681,38
863,14	1710,05
863,30	1712,10
863,47	1642,47
863,64	1738,73
863,81	1726,44
863,97	1720,29
864,14	1658,85
864,31	1683,43
864,48	1724,39
864,65	1751,01
864,81	1808,36
864,98	1730,53
865,15	1736,68
865,32	1763,30
865,48	1759,21
865,65	1691,62
865,82	1656,81
865,98	1636,33
866,15	1820,64
866,32	1675,24
866,49	1652,71
866,65	1771,49
866,82	1648,61
866,99	1710,05
867,16	1697,77
867,32	1671,14
867,49	1687,53
867,66	1712,10
867,83	1574,89
867,99	1652,71
868,16	1722,34
868,33	1621,99
868,49	1685,48
868,66	1708,01
868,83	1789,92
868,99	1697,77
869,16	1685,48
869,33	1765,35
869,50	1779,68
869,66	1708,01
869,83	1677,29
870,00	1636,33
870,16	1757,16
870,33	1703,91
870,50	1767,40
870,66	1726,44
870,83	1853,41
871,00	1718,25
871,17	1718,25
871,33	1857,51
871,50	1734,63
871,67	1744,87
871,83	1728,49
872,00	1892,32
872,17	1769,44
872,33	1761,25
872,50	1746,92
872,67	1705,96
872,83	1759,21
873,00	1763,30
873,17	1646,57
873,33	1726,44
873,50	1740,77
873,67	1699,81
873,83	1574,89
874,00	1691,62
874,16	1773,54
874,33	1755,11
874,50	1697,77
874,66	1839,08
874,83	1730,53
875,00	1738,73
875,16	1705,96
875,33	1746,92
875,50	1621,99
875,66	1697,77
875,83	1679,33
875,99	1783,78
876,16	1718,25
876,33	1626,09
876,49	1718,25
876,66	1763,30
876,83	1708,01
876,99	1615,85
877,16	1710,05
877,32	1695,72
877,49	1648,61
877,66	1701,86
877,82	1763,30
877,99	1789,92
878,15	1763,30
878,32	1748,97
878,49	1669,09
878,65	1705,96
878,82	1748,97
878,98	1693,67
879,15	1730,53
879,32	1814,50
879,48	1697,77
879,65	1716,20
879,81	1697,77
879,98	1732,58
880,15	1701,86
880,31	1748,97
880,48	1630,18
880,64	1818,60
880,81	1671,14
880,97	1757,16
881,14	1744,87
881,31	1695,72
881,47	1841,12
881,64	1742,82
881,80	1599,46
881,97	1671,14
882,13	1714,15
882,30	1642,47
882,47	1681,38
882,63	1638,38
882,80	1671,14
882,96	1679,33
883,13	1730,53
883,29	1744,87
883,46	1710,05
883,62	1742,82
883,79	1734,63
883,95	1667,05
884,12	1738,73
884,29	1716,20
884,45	1730,53
884,62	1818,60
884,78	1685,48
884,95	1773,54
885,11	1712,10
885,28	1642,47
885,44	1693,67
885,61	1738,73
885,77	1728,49
885,94	1730,53
886,10	1675,24
886,27	1765,35
886,43	1808,36
886,60	1769,44
886,76	1617,90
886,93	1644,52
887,09	1742,82
887,26	1691,62
887,42	1734,63
887,59	1753,06
887,75	1865,70
887,92	1736,68
888,08	1746,92
888,25	1783,78
888,41	1761,25
888,58	1763,30
888,74	1712,10
888,91	1658,85
>>>>>End Processed Spectral Data<<<<<
