SpectraSuite Data File
++++++++++++++++++++++++++++++++++++
Date: Mon Jun 06 14:05:57 CEST 2016
User: root
Dark Spectrum Present: No
Reference Spectrum Present: No
Number of Sampled Component Spectra: 1
Spectrometers: USB4C02835
Integration Time (usec): 100000 (USB4C02835)
Spectra Averaged: 1 (USB4C02835)
Boxcar Smoothing: 0 (USB4C02835)
Correct for Electrical Dark: No (USB4C02835)
Strobe/Lamp Enabled: No (USB4C02835)
Correct for Detector Non-linearity: No (USB4C02835)
Correct for Stray Light: No (USB4C02835)
Number of Pixels in Processed Spectrum: 3648
>>>>>Begin Processed Spectral Data<<<<<
177,47	1443,82
177,69	1443,82
177,91	1443,82
178,13	1497,07
178,36	1445,87
178,58	1673,19
178,80	1685,48
179,02	1566,70
179,24	1624,04
179,46	1671,14
179,68	1779,68
179,90	1671,14
180,13	1642,47
180,35	1736,68
180,57	1705,96
180,79	1767,40
181,01	1726,44
181,23	1730,53
181,45	1785,83
181,67	1738,73
181,90	1783,78
182,12	1632,23
182,34	1675,24
182,56	1718,25
182,78	1714,15
183,00	1673,19
183,22	1710,05
183,44	1544,17
183,66	1873,89
183,89	1796,07
184,11	1697,77
184,33	1744,87
184,55	1742,82
184,77	1738,73
184,99	1800,16
185,21	1718,25
185,43	1808,36
185,65	1695,72
185,87	1722,34
186,10	1794,02
186,32	1800,16
186,54	1732,58
186,76	1726,44
186,98	1738,73
187,20	1714,15
187,42	1708,01
187,64	1742,82
187,86	1693,67
188,08	1755,11
188,30	1632,23
188,52	1716,20
188,75	1779,68
188,97	1722,34
189,19	1677,29
189,41	1720,29
189,63	1689,57
189,85	1624,04
190,07	1691,62
190,29	1593,32
190,51	1695,72
190,73	1695,72
190,95	1708,01
191,17	1738,73
191,39	1660,90
191,61	1716,20
191,84	1630,18
192,06	1699,81
192,28	1603,56
192,50	1861,60
192,72	1740,77
192,94	1632,23
193,16	1753,06
193,38	1732,58
193,60	1695,72
193,82	1658,85
194,04	1757,16
194,26	1734,63
194,48	1662,95
194,70	1644,52
194,92	1609,70
195,14	1720,29
195,36	1732,58
195,58	1665,00
195,80	1677,29
196,02	1621,99
196,24	1607,66
196,46	1730,53
196,69	1701,86
196,91	1806,31
197,13	1681,38
197,35	1714,15
197,57	1773,54
197,79	1785,83
198,01	1683,43
198,23	1726,44
198,45	1671,14
198,67	1689,57
198,89	1705,96
199,11	1689,57
199,33	1679,33
199,55	1687,53
199,77	1720,29
199,99	1757,16
200,21	1652,71
200,43	1681,38
200,65	1671,14
200,87	1599,46
201,09	1736,68
201,31	1714,15
201,53	1720,29
201,75	1673,19
201,97	1730,53
202,19	1667,05
202,41	1722,34
202,63	1871,84
202,85	1767,40
203,07	1755,11
203,29	1753,06
203,51	1574,89
203,73	1636,33
203,95	1937,38
204,17	1734,63
204,39	1740,77
204,61	1697,77
204,83	1718,25
205,05	1767,40
205,27	1751,01
205,49	1765,35
205,71	1769,44
205,93	1617,90
206,15	1722,34
206,37	1685,48
206,59	1697,77
206,81	1607,66
207,03	1646,57
207,25	1585,13
207,47	1732,58
207,69	1681,38
207,91	1783,78
208,13	1751,01
208,34	1642,47
208,56	1716,20
208,78	1771,49
209,00	1703,91
209,22	1724,39
209,44	1681,38
209,66	1656,81
209,88	1779,68
210,10	1628,14
210,32	1710,05
210,54	1832,93
210,76	1732,58
210,98	1789,92
211,20	1556,46
211,42	1751,01
211,64	1755,11
211,86	1677,29
212,08	1695,72
212,30	1673,19
212,52	1648,61
212,74	1714,15
212,96	1669,09
213,17	1732,58
213,39	1710,05
213,61	1789,92
213,83	1720,29
214,05	1640,42
214,27	1757,16
214,49	1687,53
214,71	1660,90
214,93	1816,55
215,15	1603,56
215,37	1771,49
215,59	1705,96
215,81	1646,57
216,03	1748,97
216,24	1705,96
216,46	1712,10
216,68	1769,44
216,90	1722,34
217,12	1710,05
217,34	1712,10
217,56	1712,10
217,78	1779,68
218,00	1710,05
218,22	1669,09
218,44	1806,31
218,66	1685,48
218,87	1822,69
219,09	1650,66
219,31	1751,01
219,53	1636,33
219,75	1787,88
219,97	1796,07
220,19	1732,58
220,41	1662,95
220,63	1798,12
220,85	1773,54
221,06	1648,61
221,28	1759,21
221,50	1730,53
221,72	1597,42
221,94	1660,90
222,16	1662,95
222,38	1685,48
222,60	1689,57
222,82	1693,67
223,03	1761,25
223,25	1673,19
223,47	1751,01
223,69	1806,31
223,91	1726,44
224,13	1734,63
224,35	1648,61
224,57	1681,38
224,78	1738,73
225,00	1677,29
225,22	1742,82
225,44	1718,25
225,66	1757,16
225,88	1718,25
226,10	1806,31
226,32	1662,95
226,53	1800,16
226,75	1681,38
226,97	1609,70
227,19	1673,19
227,41	1634,28
227,63	1701,86
227,85	1560,55
228,06	1740,77
228,28	1665,00
228,50	1742,82
228,72	1632,23
228,94	1697,77
229,16	1636,33
229,37	1677,29
229,59	1660,90
229,81	1804,26
230,03	1679,33
230,25	1626,09
230,47	1671,14
230,69	1564,65
230,90	1763,30
231,12	1656,81
231,34	1705,96
231,56	1779,68
231,78	1675,24
232,00	1716,20
232,21	1628,14
232,43	1718,25
232,65	1652,71
232,87	1660,90
233,09	1673,19
233,30	1691,62
233,52	1685,48
233,74	1734,63
233,96	1687,53
234,18	1669,09
234,40	1703,91
234,61	1869,80
234,83	1591,27
235,05	1624,04
235,27	1859,56
235,49	1724,39
235,70	1730,53
235,92	1726,44
236,14	1724,39
236,36	1920,99
236,58	1617,90
236,79	1695,72
237,01	1644,52
237,23	1689,57
237,45	1820,64
237,67	1634,28
237,88	1687,53
238,10	1812,45
238,32	1642,47
238,54	1689,57
238,76	1675,24
238,97	1648,61
239,19	1658,85
239,41	1746,92
239,63	1789,92
239,85	1671,14
240,06	1609,70
240,28	1656,81
240,50	1742,82
240,72	1722,34
240,93	1634,28
241,15	1757,16
241,37	1667,05
241,59	1800,16
241,81	1710,05
242,02	1724,39
242,24	1710,05
242,46	1722,34
242,68	1687,53
242,89	1722,34
243,11	1673,19
243,33	1669,09
243,55	1761,25
243,76	1695,72
243,98	1679,33
244,20	1740,77
244,42	1716,20
244,64	1740,77
244,85	1722,34
245,07	1658,85
245,29	1753,06
245,51	1726,44
245,72	1722,34
245,94	1763,30
246,16	1746,92
246,38	1824,74
246,59	1687,53
246,81	1640,42
247,03	1773,54
247,24	1599,46
247,46	1720,29
247,68	1648,61
247,90	1650,66
248,11	1601,51
248,33	1722,34
248,55	1656,81
248,77	1769,44
248,98	1767,40
249,20	1781,73
249,42	1697,77
249,64	1671,14
249,85	1708,01
250,07	1648,61
250,29	1714,15
250,50	1730,53
250,72	1677,29
250,94	1755,11
251,16	1724,39
251,37	1787,88
251,59	1689,57
251,81	1732,58
252,02	1753,06
252,24	1656,81
252,46	1771,49
252,68	1640,42
252,89	1708,01
253,11	1697,77
253,33	1814,50
253,54	1806,31
253,76	1636,33
253,98	1660,90
254,20	1705,96
254,41	1691,62
254,63	1671,14
254,85	1585,13
255,06	1673,19
255,28	1705,96
255,50	1763,30
255,71	1716,20
255,93	1601,51
256,15	1683,43
256,36	1724,39
256,58	1644,52
256,80	1708,01
257,02	1675,24
257,23	1658,85
257,45	1771,49
257,67	1748,97
257,88	1644,52
258,10	1742,82
258,32	1683,43
258,53	1687,53
258,75	1804,26
258,97	1665,00
259,18	1677,29
259,40	1722,34
259,62	1810,40
259,83	1751,01
260,05	1722,34
260,27	1902,56
260,48	1687,53
260,70	1701,86
260,92	1697,77
261,13	1703,91
261,35	1697,77
261,57	1722,34
261,78	1595,37
262,00	1679,33
262,22	1738,73
262,43	1671,14
262,65	1701,86
262,86	1722,34
263,08	1822,69
263,30	1697,77
263,51	1685,48
263,73	1740,77
263,95	1703,91
264,16	1714,15
264,38	1662,95
264,60	1800,16
264,81	1705,96
265,03	1722,34
265,25	1730,53
265,46	1665,00
265,68	1800,16
265,89	1804,26
266,11	1591,27
266,33	1681,38
266,54	1753,06
266,76	1777,64
266,98	1726,44
267,19	1810,40
267,41	1785,83
267,62	1640,42
267,84	1658,85
268,06	1712,10
268,27	1654,76
268,49	1757,16
268,70	1783,78
268,92	1673,19
269,14	1693,67
269,35	1626,09
269,57	1712,10
269,79	1710,05
270,00	1650,66
270,22	1837,03
270,43	1675,24
270,65	1544,17
270,87	1783,78
271,08	1765,35
271,30	1677,29
271,51	1695,72
271,73	1718,25
271,95	1730,53
272,16	1716,20
272,38	1695,72
272,59	1695,72
272,81	1732,58
273,02	1677,29
273,24	1683,43
273,46	1734,63
273,67	1726,44
273,89	1644,52
274,10	1589,22
274,32	1722,34
274,54	1605,61
274,75	1703,91
274,97	1722,34
275,18	1708,01
275,40	1757,16
275,61	1705,96
275,83	1740,77
276,05	1599,46
276,26	1660,90
276,48	1697,77
276,69	1691,62
276,91	1609,70
277,12	1695,72
277,34	1796,07
277,55	1705,96
277,77	1736,68
277,99	1695,72
278,20	1654,76
278,42	1652,71
278,63	1677,29
278,85	1673,19
279,06	1650,66
279,28	1677,29
279,49	1763,30
279,71	1730,53
279,93	1708,01
280,14	1767,40
280,36	1636,33
280,57	1732,58
280,79	1746,92
281,00	1662,95
281,22	1654,76
281,43	1832,93
281,65	1564,65
281,86	1660,90
282,08	1720,29
282,29	1787,88
282,51	1613,80
282,73	1609,70
282,94	1644,52
283,16	1699,81
283,37	1757,16
283,59	1697,77
283,80	1791,97
284,02	1699,81
284,23	1759,21
284,45	1638,38
284,66	1652,71
284,88	1644,52
285,09	1757,16
285,31	1787,88
285,52	1716,20
285,74	1634,28
285,95	1685,48
286,17	1644,52
286,38	1783,78
286,60	1697,77
286,81	1701,86
287,03	1703,91
287,24	1617,90
287,46	1708,01
287,67	1689,57
287,89	1724,39
288,10	1679,33
288,32	1716,20
288,53	1787,88
288,75	1714,15
288,96	1691,62
289,18	1685,48
289,39	1718,25
289,61	1794,02
289,82	1755,11
290,04	1826,79
290,25	1636,33
290,47	1656,81
290,68	1660,90
290,90	1697,77
291,11	1589,22
291,33	1781,73
291,54	1691,62
291,76	1708,01
291,97	1789,92
292,18	1736,68
292,40	1675,24
292,61	1640,42
292,83	1810,40
293,04	1732,58
293,26	1769,44
293,47	1693,67
293,69	1607,66
293,90	1662,95
294,12	1771,49
294,33	1675,24
294,55	1720,29
294,76	1734,63
294,97	1775,59
295,19	1880,04
295,40	1685,48
295,62	1765,35
295,83	1736,68
296,05	1642,47
296,26	1691,62
296,48	1730,53
296,69	1730,53
296,90	1722,34
297,12	1695,72
297,33	1763,30
297,55	1732,58
297,76	1714,15
297,98	1861,60
298,19	1779,68
298,41	1730,53
298,62	1658,85
298,83	1787,88
299,05	1699,81
299,26	1751,01
299,48	1648,61
299,69	1744,87
299,90	1617,90
300,12	1628,14
300,33	1767,40
300,55	1744,87
300,76	1787,88
300,98	1630,18
301,19	1740,77
301,40	1695,72
301,62	1697,77
301,83	1740,77
302,05	1648,61
302,26	1636,33
302,47	1734,63
302,69	1581,03
302,90	1763,30
303,12	1589,22
303,33	1691,62
303,54	1820,64
303,76	1701,86
303,97	1738,73
304,19	1791,97
304,40	1665,00
304,61	1732,58
304,83	1869,80
305,04	1816,55
305,26	1705,96
305,47	1667,05
305,68	1726,44
305,90	1701,86
306,11	1726,44
306,33	1648,61
306,54	1634,28
306,75	1658,85
306,97	1642,47
307,18	1640,42
307,39	1624,04
307,61	1763,30
307,82	1738,73
308,04	1748,97
308,25	1574,89
308,46	1701,86
308,68	1697,77
308,89	1761,25
309,10	1783,78
309,32	1720,29
309,53	1646,57
309,74	1697,77
309,96	1640,42
310,17	1779,68
310,39	1644,52
310,60	1691,62
310,81	1681,38
311,03	1611,75
311,24	1693,67
311,45	1753,06
311,67	1806,31
311,88	1667,05
312,09	1636,33
312,31	1665,00
312,52	1693,67
312,73	1753,06
312,95	1581,03
313,16	1710,05
313,37	1757,16
313,59	1732,58
313,80	1718,25
314,01	1816,55
314,23	1636,33
314,44	1705,96
314,65	1675,24
314,87	1701,86
315,08	1732,58
315,29	1677,29
315,51	1640,42
315,72	1603,56
315,93	1804,26
316,15	1699,81
316,36	1695,72
316,57	1699,81
316,79	1708,01
317,00	1658,85
317,21	1736,68
317,43	1613,80
317,64	1669,09
317,85	1640,42
318,07	1634,28
318,28	1689,57
318,49	1771,49
318,70	1912,80
318,92	1853,41
319,13	1904,61
319,34	1869,80
319,56	1771,49
319,77	1808,36
319,98	1779,68
320,20	1794,02
320,41	1761,25
320,62	1757,16
320,83	1681,38
321,05	1871,84
321,26	1771,49
321,47	1695,72
321,69	1742,82
321,90	1675,24
322,11	1701,86
322,32	1638,38
322,54	1748,97
322,75	1732,58
322,96	1822,69
323,18	1576,94
323,39	1613,80
323,60	1652,71
323,81	1781,73
324,03	1730,53
324,24	1740,77
324,45	1683,43
324,66	1697,77
324,88	1685,48
325,09	1773,54
325,30	1677,29
325,52	1785,83
325,73	1748,97
325,94	1669,09
326,15	1677,29
326,37	1730,53
326,58	1742,82
326,79	1716,20
327,00	1648,61
327,22	1697,77
327,43	1634,28
327,64	1689,57
327,85	1736,68
328,07	1673,19
328,28	1808,36
328,49	1710,05
328,70	1644,52
328,92	1771,49
329,13	1677,29
329,34	1720,29
329,55	1800,16
329,76	1685,48
329,98	1685,48
330,19	1746,92
330,40	1691,62
330,61	1673,19
330,83	1746,92
331,04	1691,62
331,25	1730,53
331,46	1724,39
331,68	1652,71
331,89	1759,21
332,10	1695,72
332,31	1652,71
332,52	1681,38
332,74	1726,44
332,95	1593,32
333,16	1681,38
333,37	1736,68
333,58	1669,09
333,80	1671,14
334,01	1634,28
334,22	1705,96
334,43	1654,76
334,64	1699,81
334,86	1615,85
335,07	1634,28
335,28	1777,64
335,49	1646,57
335,70	1689,57
335,92	1816,55
336,13	1822,69
336,34	1742,82
336,55	1689,57
336,76	1757,16
336,98	1603,56
337,19	1763,30
337,40	1779,68
337,61	1853,41
337,82	1689,57
338,04	1665,00
338,25	1628,14
338,46	1720,29
338,67	1648,61
338,88	1654,76
339,09	1640,42
339,31	1605,61
339,52	1638,38
339,73	1609,70
339,94	1699,81
340,15	1716,20
340,36	1701,86
340,58	1734,63
340,79	1689,57
341,00	1761,25
341,21	1667,05
341,42	1841,12
341,63	1619,94
341,85	1787,88
342,06	1701,86
342,27	1617,90
342,48	1830,88
342,69	1624,04
342,90	1740,77
343,12	1730,53
343,33	1673,19
343,54	1751,01
343,75	1779,68
343,96	1714,15
344,17	1685,48
344,38	1683,43
344,60	1669,09
344,81	1640,42
345,02	1740,77
345,23	1810,40
345,44	1734,63
345,65	1701,86
345,86	1697,77
346,07	1656,81
346,29	1638,38
346,50	1714,15
346,71	1757,16
346,92	1816,55
347,13	1775,59
347,34	1697,77
347,55	1570,79
347,76	1738,73
347,98	1675,24
348,19	1675,24
348,40	1773,54
348,61	1652,71
348,82	1789,92
349,03	1824,74
349,24	1597,42
349,45	1804,26
349,66	1572,84
349,88	1720,29
350,09	1685,48
350,30	1767,40
350,51	1710,05
350,72	1736,68
350,93	1738,73
351,14	1646,57
351,35	1775,59
351,56	1708,01
351,77	1816,55
351,99	1695,72
352,20	1832,93
352,41	1765,35
352,62	1619,94
352,83	1699,81
353,04	1710,05
353,25	1638,38
353,46	1789,92
353,67	1789,92
353,88	1603,56
354,09	1732,58
354,30	1665,00
354,52	1681,38
354,73	1665,00
354,94	1562,60
355,15	1722,34
355,36	1740,77
355,57	1681,38
355,78	1699,81
355,99	1591,27
356,20	1775,59
356,41	1738,73
356,62	1722,34
356,83	1720,29
357,04	1804,26
357,25	1615,85
357,46	1644,52
357,68	1593,32
357,89	1624,04
358,10	1665,00
358,31	1638,38
358,52	1722,34
358,73	1585,13
358,94	1581,03
359,15	1665,00
359,36	1753,06
359,57	1697,77
359,78	1744,87
359,99	1665,00
360,20	1679,33
360,41	1673,19
360,62	1691,62
360,83	1785,83
361,04	1718,25
361,25	1699,81
361,46	1771,49
361,67	1724,39
361,88	1724,39
362,09	1734,63
362,30	1767,40
362,51	1703,91
362,72	1699,81
362,93	1761,25
363,14	1763,30
363,35	1710,05
363,56	1714,15
363,78	1710,05
363,99	1771,49
364,20	1595,37
364,41	1773,54
364,62	1841,12
364,83	1669,09
365,04	1679,33
365,25	1710,05
365,46	1765,35
365,67	1630,18
365,88	1705,96
366,09	1714,15
366,30	1716,20
366,51	1679,33
366,72	1624,04
366,93	1763,30
367,14	1734,63
367,35	1800,16
367,56	1697,77
367,77	1748,97
367,98	1662,95
368,18	1757,16
368,39	1757,16
368,60	1632,23
368,81	1755,11
369,02	1697,77
369,23	1695,72
369,44	1601,51
369,65	1687,53
369,86	1726,44
370,07	1746,92
370,28	1701,86
370,49	1693,67
370,70	1781,73
370,91	1640,42
371,12	1693,67
371,33	1796,07
371,54	1619,94
371,75	1832,93
371,96	1658,85
372,17	1734,63
372,38	1703,91
372,59	1757,16
372,80	1652,71
373,01	1718,25
373,22	1648,61
373,43	1703,91
373,64	1621,99
373,85	1810,40
374,06	1755,11
374,26	1738,73
374,47	1785,83
374,68	1724,39
374,89	1714,15
375,10	1665,00
375,31	1763,30
375,52	1650,66
375,73	1746,92
375,94	1724,39
376,15	1781,73
376,36	1679,33
376,57	1699,81
376,78	1724,39
376,99	1734,63
377,20	1787,88
377,40	1669,09
377,61	1765,35
377,82	1710,05
378,03	1808,36
378,24	1740,77
378,45	1734,63
378,66	1767,40
378,87	1611,75
379,08	1585,13
379,29	1550,31
379,50	1751,01
379,71	1650,66
379,91	1724,39
380,12	1660,90
380,33	1800,16
380,54	1734,63
380,75	1746,92
380,96	1701,86
381,17	1746,92
381,38	1736,68
381,59	1718,25
381,80	1740,77
382,00	1898,47
382,21	1783,78
382,42	1849,32
382,63	1802,21
382,84	1818,60
383,05	1720,29
383,26	1820,64
383,47	1775,59
383,68	1703,91
383,88	1718,25
384,09	1748,97
384,30	1814,50
384,51	1716,20
384,72	1632,23
384,93	1681,38
385,14	1736,68
385,35	1814,50
385,55	1679,33
385,76	1751,01
385,97	1654,76
386,18	1665,00
386,39	1691,62
386,60	1705,96
386,81	1773,54
387,02	1615,85
387,22	1656,81
387,43	1837,03
387,64	1781,73
387,85	1869,80
388,06	2281,44
388,27	4224,96
388,48	6760,34
388,68	8198,02
388,89	9639,79
389,10	9824,11
389,31	8650,62
389,52	7487,37
389,73	6713,24
389,93	6266,78
390,14	5869,48
390,35	5253,04
390,56	4648,89
390,77	3827,65
390,98	2930,64
391,18	2529,24
391,39	2109,41
391,60	1841,12
391,81	1882,08
392,02	1710,05
392,23	1802,21
392,43	1787,88
392,64	1769,44
392,85	1689,57
393,06	1783,78
393,27	1699,81
393,47	1699,81
393,68	1730,53
393,89	1681,38
394,10	1781,73
394,31	1748,97
394,52	1630,18
394,72	1648,61
394,93	1800,16
395,14	1492,97
395,35	1701,86
395,56	1652,71
395,76	1781,73
395,97	1871,84
396,18	1789,92
396,39	1859,56
396,60	2052,06
396,80	1834,98
397,01	1773,54
397,22	1800,16
397,43	1849,32
397,64	1728,49
397,84	1773,54
398,05	1886,18
398,26	1775,59
398,47	1818,60
398,67	1687,53
398,88	1695,72
399,09	1728,49
399,30	1751,01
399,51	1687,53
399,71	1591,27
399,92	1718,25
400,13	1734,63
400,34	1746,92
400,54	1740,77
400,75	1759,21
400,96	1734,63
401,17	1726,44
401,37	1665,00
401,58	1726,44
401,79	1693,67
402,00	1859,56
402,21	1964,00
402,41	2000,87
402,62	2023,39
402,83	2041,82
403,04	2080,74
403,24	1986,53
403,45	1869,80
403,66	1834,98
403,87	1845,22
404,07	1863,65
404,28	1916,90
404,49	1783,78
404,70	1771,49
404,90	1777,64
405,11	1722,34
405,32	1710,05
405,52	1652,71
405,73	1687,53
405,94	1605,61
406,15	1705,96
406,35	1714,15
406,56	1691,62
406,77	1748,97
406,98	1761,25
407,18	1669,09
407,39	1781,73
407,60	1710,05
407,80	1753,06
408,01	1669,09
408,22	1781,73
408,43	1662,95
408,63	1679,33
408,84	1763,30
409,05	1859,56
409,25	1642,47
409,46	1648,61
409,67	1630,18
409,88	1724,39
410,08	1759,21
410,29	1753,06
410,50	1632,23
410,70	1708,01
410,91	1681,38
411,12	1759,21
411,32	1773,54
411,53	1685,48
411,74	1796,07
411,95	1710,05
412,15	1783,78
412,36	1781,73
412,57	1730,53
412,77	1830,88
412,98	1669,09
413,19	1726,44
413,39	1751,01
413,60	1701,86
413,81	1845,22
414,01	1665,00
414,22	1669,09
414,43	1693,67
414,63	1693,67
414,84	1708,01
415,05	1712,10
415,25	1665,00
415,46	1742,82
415,67	1730,53
415,87	1785,83
416,08	1675,24
416,29	1605,61
416,49	1746,92
416,70	1615,85
416,91	1691,62
417,11	1708,01
417,32	1757,16
417,53	1796,07
417,73	1710,05
417,94	1650,66
418,15	1746,92
418,35	1687,53
418,56	1716,20
418,77	1894,37
418,97	1671,14
419,18	1783,78
419,38	1599,46
419,59	1734,63
419,80	1826,79
420,00	1689,57
420,21	1751,01
420,42	1755,11
420,62	1771,49
420,83	1671,14
421,04	1720,29
421,24	1734,63
421,45	1794,02
421,65	1773,54
421,86	1746,92
422,07	1789,92
422,27	1759,21
422,48	1669,09
422,69	1712,10
422,89	1755,11
423,10	1748,97
423,30	1791,97
423,51	1718,25
423,72	1787,88
423,92	1834,98
424,13	1644,52
424,33	1714,15
424,54	1759,21
424,75	1697,77
424,95	1826,79
425,16	1648,61
425,36	1699,81
425,57	1814,50
425,78	1748,97
425,98	1818,60
426,19	1658,85
426,39	1636,33
426,60	1683,43
426,81	1796,07
427,01	1748,97
427,22	1714,15
427,42	1615,85
427,63	1640,42
427,83	1712,10
428,04	1777,64
428,25	1744,87
428,45	1763,30
428,66	1748,97
428,86	1656,81
429,07	1687,53
429,28	1810,40
429,48	1705,96
429,69	1624,04
429,89	1734,63
430,10	1628,14
430,30	1769,44
430,51	1718,25
430,71	1665,00
430,92	1701,86
431,13	1613,80
431,33	1742,82
431,54	1757,16
431,74	1830,88
431,95	1853,41
432,15	1701,86
432,36	1744,87
432,56	1763,30
432,77	1779,68
432,98	1869,80
433,18	1726,44
433,39	1638,38
433,59	1611,75
433,80	1812,45
434,00	1916,90
434,21	1712,10
434,41	1759,21
434,62	1943,52
434,82	1605,61
435,03	1642,47
435,23	1720,29
435,44	1595,37
435,64	1736,68
435,85	1779,68
436,06	1806,31
436,26	1787,88
436,47	1689,57
436,67	1660,90
436,88	1757,16
437,08	1779,68
437,29	1753,06
437,49	1718,25
437,70	1771,49
437,90	1781,73
438,11	1832,93
438,31	1742,82
438,52	1810,40
438,72	1843,17
438,93	1916,90
439,13	1830,88
439,34	1837,03
439,54	1738,73
439,75	1787,88
439,95	1828,84
440,16	1726,44
440,36	1787,88
440,57	1734,63
440,77	1742,82
440,98	1755,11
441,18	1834,98
441,39	1662,95
441,59	1656,81
441,80	1855,46
442,00	1640,42
442,21	1791,97
442,41	1669,09
442,62	1830,88
442,82	1714,15
443,02	1751,01
443,23	1699,81
443,43	1665,00
443,64	1771,49
443,84	1724,39
444,05	1791,97
444,25	1720,29
444,46	1691,62
444,66	1759,21
444,87	1828,84
445,07	1658,85
445,28	1691,62
445,48	1830,88
445,69	1830,88
445,89	1820,64
446,09	1710,05
446,30	2033,63
446,50	2609,11
446,71	3794,89
446,91	4347,84
447,12	4732,86
447,32	4777,91
447,53	4310,97
447,73	3876,80
447,93	3551,18
448,14	3168,21
448,34	3246,03
448,55	2881,49
448,75	2865,11
448,96	2697,17
449,16	2363,36
449,36	2287,58
449,57	2082,78
449,77	1898,47
449,98	1843,17
450,18	1839,08
450,39	1798,12
450,59	1828,84
450,79	1701,86
451,00	1716,20
451,20	1791,97
451,41	1703,91
451,61	1783,78
451,81	1720,29
452,02	1722,34
452,22	1726,44
452,43	1738,73
452,63	1665,00
452,84	1689,57
453,04	1679,33
453,24	1718,25
453,45	1677,29
453,65	1718,25
453,86	1732,58
454,06	1800,16
454,26	1720,29
454,47	1701,86
454,67	1837,03
454,87	1796,07
455,08	1671,14
455,28	1818,60
455,49	1742,82
455,69	1673,19
455,89	1787,88
456,10	1775,59
456,30	1665,00
456,51	1748,97
456,71	1732,58
456,91	1759,21
457,12	1742,82
457,32	1734,63
457,52	1642,47
457,73	1763,30
457,93	1783,78
458,14	1742,82
458,34	1669,09
458,54	1720,29
458,75	1732,58
458,95	1773,54
459,15	1769,44
459,36	1796,07
459,56	1800,16
459,76	1910,75
459,97	1769,44
460,17	1691,62
460,37	1773,54
460,58	1753,06
460,78	1779,68
460,99	1669,09
461,19	1775,59
461,39	1751,01
461,60	1685,48
461,80	1675,24
462,00	1644,52
462,21	1712,10
462,41	1673,19
462,61	1650,66
462,82	1673,19
463,02	1712,10
463,22	1714,15
463,43	1828,84
463,63	1767,40
463,83	1796,07
464,04	1761,25
464,24	1738,73
464,44	1699,81
464,64	1724,39
464,85	1746,92
465,05	1732,58
465,25	1650,66
465,46	1630,18
465,66	1730,53
465,86	1789,92
466,07	1775,59
466,27	1765,35
466,47	1599,46
466,68	1665,00
466,88	1755,11
467,08	1769,44
467,29	1710,05
467,49	1755,11
467,69	1671,14
467,89	1777,64
468,10	1703,91
468,30	1761,25
468,50	1806,31
468,71	1763,30
468,91	1656,81
469,11	1918,95
469,31	1724,39
469,52	1697,77
469,72	1794,02
469,92	1814,50
470,13	1718,25
470,33	1726,44
470,53	1822,69
470,73	2068,45
470,94	2320,35
471,14	2308,06
471,34	2596,82
471,54	2381,79
471,75	2269,15
471,95	2164,70
472,15	2095,07
472,36	2131,94
472,56	2129,89
472,76	2025,44
472,96	2017,25
473,17	1961,95
473,37	1871,84
473,57	1808,36
473,77	1867,75
473,98	1716,20
474,18	1716,20
474,38	1865,70
474,58	1687,53
474,79	1697,77
474,99	1716,20
475,19	1777,64
475,39	1683,43
475,60	1773,54
475,80	1757,16
476,00	1744,87
476,20	1724,39
476,41	1685,48
476,61	1837,03
476,81	1796,07
477,01	1658,85
477,21	1806,31
477,42	1865,70
477,62	1705,96
477,82	1761,25
478,02	1691,62
478,23	1816,55
478,43	1665,00
478,63	1683,43
478,83	1669,09
479,03	1681,38
479,24	1828,84
479,44	1828,84
479,64	1689,57
479,84	1628,14
480,04	1665,00
480,25	1812,45
480,45	1638,38
480,65	1732,58
480,85	1849,32
481,06	1740,77
481,26	1734,63
481,46	1716,20
481,66	1761,25
481,86	1656,81
482,06	1746,92
482,27	1703,91
482,47	1763,30
482,67	1742,82
482,87	1718,25
483,07	1800,16
483,28	1701,86
483,48	1683,43
483,68	1714,15
483,88	1740,77
484,08	1593,32
484,29	1630,18
484,49	1705,96
484,69	1648,61
484,89	1738,73
485,09	1794,02
485,29	1746,92
485,50	1763,30
485,70	1804,26
485,90	1798,12
486,10	1701,86
486,30	1830,88
486,50	1759,21
486,71	1783,78
486,91	1736,68
487,11	1755,11
487,31	1697,77
487,51	1705,96
487,71	1687,53
487,91	1738,73
488,12	1732,58
488,32	1562,60
488,52	1691,62
488,72	1656,81
488,92	1759,21
489,12	1755,11
489,32	1775,59
489,53	1656,81
489,73	1611,75
489,93	1906,66
490,13	1722,34
490,33	1646,57
490,53	1783,78
490,73	1824,74
490,94	1679,33
491,14	1806,31
491,34	1814,50
491,54	2064,35
491,74	2551,77
491,94	2963,41
492,14	3008,47
492,34	3016,66
492,54	2815,96
492,75	2492,38
492,95	2445,27
493,15	2254,81
493,35	2267,10
493,55	2246,62
493,75	2076,64
493,95	2154,46
494,15	2021,35
494,35	1855,46
494,56	1875,94
494,76	1812,45
494,96	1695,72
495,16	1796,07
495,36	1714,15
495,56	1673,19
495,76	1693,67
495,96	1722,34
496,16	1742,82
496,36	1849,32
496,56	1730,53
496,77	1773,54
496,97	1716,20
497,17	1728,49
497,37	1665,00
497,57	1677,29
497,77	1685,48
497,97	1675,24
498,17	1621,99
498,37	1705,96
498,57	1714,15
498,77	1767,40
498,97	1808,36
499,17	1853,41
499,38	1730,53
499,58	1779,68
499,78	1716,20
499,98	1755,11
500,18	1677,29
500,38	1757,16
500,58	1918,95
500,78	2588,63
500,98	4595,64
501,18	5920,68
501,38	6870,94
501,58	7274,38
501,78	6623,13
501,98	5449,64
502,18	5011,38
502,38	4427,71
502,58	4126,66
502,78	3790,79
502,98	3655,62
503,18	3422,16
503,38	3123,15
503,59	2740,18
503,79	2752,47
503,99	2559,96
504,19	2228,19
504,39	2125,79
504,59	2267,10
504,79	2144,22
504,99	2070,50
505,19	1992,67
505,39	1904,61
505,59	2031,58
505,79	1867,75
505,99	1822,69
506,19	1808,36
506,39	1906,66
506,59	1763,30
506,79	1730,53
506,99	1806,31
507,19	1705,96
507,39	1679,33
507,59	1689,57
507,79	1679,33
507,99	1648,61
508,19	1697,77
508,39	1722,34
508,59	1751,01
508,79	1867,75
508,99	1832,93
509,19	1675,24
509,39	1775,59
509,59	1679,33
509,79	1669,09
509,99	1787,88
510,19	1806,31
510,39	1722,34
510,59	1755,11
510,79	1710,05
510,99	1669,09
511,19	1771,49
511,39	1841,12
511,59	1751,01
511,79	1757,16
511,99	1783,78
512,19	1798,12
512,38	1675,24
512,58	1644,52
512,78	1753,06
512,98	1826,79
513,18	1771,49
513,38	1685,48
513,58	1740,77
513,78	1638,38
513,98	1708,01
514,18	1775,59
514,38	1738,73
514,58	1718,25
514,78	1798,12
514,98	1701,86
515,18	1759,21
515,38	1718,25
515,58	1837,03
515,78	1753,06
515,98	1738,73
516,18	1767,40
516,38	1703,91
516,57	1656,81
516,77	1775,59
516,97	1742,82
517,17	1699,81
517,37	1605,61
517,57	1845,22
517,77	1796,07
517,97	1695,72
518,17	1734,63
518,37	1599,46
518,57	1665,00
518,77	1660,90
518,97	1665,00
519,16	1775,59
519,36	1834,98
519,56	1679,33
519,76	1730,53
519,96	1718,25
520,16	1871,84
520,36	1671,14
520,56	1738,73
520,76	1708,01
520,96	1716,20
521,16	1802,21
521,35	1746,92
521,55	1822,69
521,75	1689,57
521,95	1705,96
522,15	1748,97
522,35	1613,80
522,55	1689,57
522,75	1783,78
522,95	1699,81
523,14	1650,66
523,34	1810,40
523,54	1705,96
523,74	1798,12
523,94	1763,30
524,14	1671,14
524,34	1779,68
524,54	1769,44
524,73	1699,81
524,93	1791,97
525,13	1767,40
525,33	1671,14
525,53	1884,13
525,73	1779,68
525,93	1765,35
526,13	1722,34
526,32	1728,49
526,52	1751,01
526,72	1767,40
526,92	1710,05
527,12	1685,48
527,32	1681,38
527,52	1763,30
527,71	1742,82
527,91	1724,39
528,11	1699,81
528,31	1771,49
528,51	1665,00
528,71	1751,01
528,90	1773,54
529,10	1779,68
529,30	1804,26
529,50	1615,85
529,70	1681,38
529,90	1714,15
530,09	1701,86
530,29	1665,00
530,49	1701,86
530,69	1943,52
530,89	1691,62
531,09	1720,29
531,28	1771,49
531,48	1726,44
531,68	1775,59
531,88	1703,91
532,08	1859,56
532,28	1691,62
532,47	1738,73
532,67	1787,88
532,87	1781,73
533,07	1667,05
533,27	1720,29
533,46	1802,21
533,66	1761,25
533,86	1742,82
534,06	1701,86
534,26	1710,05
534,45	1761,25
534,65	1812,45
534,85	1763,30
535,05	1767,40
535,25	1759,21
535,44	1685,48
535,64	1748,97
535,84	1728,49
536,04	1699,81
536,24	1705,96
536,43	1716,20
536,63	1724,39
536,83	1708,01
537,03	1685,48
537,22	1619,94
537,42	1621,99
537,62	1626,09
537,82	1701,86
538,02	1882,08
538,21	1794,02
538,41	1902,56
538,61	1796,07
538,81	1767,40
539,00	1779,68
539,20	1693,67
539,40	1763,30
539,60	1820,64
539,79	1832,93
539,99	1693,67
540,19	1730,53
540,39	1720,29
540,58	1705,96
540,78	1802,21
540,98	1720,29
541,18	1753,06
541,37	1810,40
541,57	1714,15
541,77	1757,16
541,97	1675,24
542,16	1693,67
542,36	1796,07
542,56	1615,85
542,76	1814,50
542,95	1722,34
543,15	1738,73
543,35	1769,44
543,54	1640,42
543,74	1722,34
543,94	1771,49
544,14	1730,53
544,33	1730,53
544,53	1720,29
544,73	1560,55
544,93	1769,44
545,12	1718,25
545,32	1695,72
545,52	1701,86
545,71	1679,33
545,91	1753,06
546,11	1730,53
546,30	1748,97
546,50	1703,91
546,70	1804,26
546,90	1755,11
547,09	1673,19
547,29	1730,53
547,49	1763,30
547,68	1773,54
547,88	1650,66
548,08	1691,62
548,27	2199,52
548,47	1683,43
548,67	1730,53
548,87	1714,15
549,06	1699,81
549,26	1748,97
549,46	1779,68
549,65	1652,71
549,85	1730,53
550,05	1718,25
550,24	1644,52
550,44	1810,40
550,64	1755,11
550,83	1738,73
551,03	1687,53
551,23	1812,45
551,42	1718,25
551,62	1748,97
551,82	1732,58
552,01	1728,49
552,21	1822,69
552,41	1759,21
552,60	1779,68
552,80	1834,98
553,00	1720,29
553,19	1738,73
553,39	1738,73
553,59	1724,39
553,78	1806,31
553,98	1697,77
554,17	1636,33
554,37	1716,20
554,57	1773,54
554,76	1695,72
554,96	1748,97
555,16	1740,77
555,35	1757,16
555,55	1730,53
555,75	1812,45
555,94	1728,49
556,14	1642,47
556,33	1755,11
556,53	1712,10
556,73	1761,25
556,92	1689,57
557,12	1755,11
557,32	1918,95
557,51	1837,03
557,71	1716,20
557,90	1748,97
558,10	1830,88
558,30	1742,82
558,49	1726,44
558,69	1652,71
558,88	1789,92
559,08	1763,30
559,28	1734,63
559,47	1714,15
559,67	1806,31
559,86	1845,22
560,06	1779,68
560,26	1646,57
560,45	1742,82
560,65	1665,00
560,84	1761,25
561,04	1724,39
561,24	1705,96
561,43	1634,28
561,63	1658,85
561,82	1718,25
562,02	1685,48
562,22	1628,14
562,41	1699,81
562,61	1728,49
562,80	1638,38
563,00	1869,80
563,19	1779,68
563,39	1798,12
563,59	1812,45
563,78	1591,27
563,98	1683,43
564,17	1718,25
564,37	1648,61
564,56	1740,77
564,76	1583,08
564,96	1785,83
565,15	1677,29
565,35	1935,33
565,54	1695,72
565,74	1746,92
565,93	1779,68
566,13	1697,77
566,32	1783,78
566,52	1802,21
566,71	1714,15
566,91	1806,31
567,11	1787,88
567,30	1710,05
567,50	1796,07
567,69	1697,77
567,89	1765,35
568,08	1732,58
568,28	1687,53
568,47	1722,34
568,67	1822,69
568,86	1724,39
569,06	1853,41
569,25	1751,01
569,45	1712,10
569,64	1757,16
569,84	1695,72
570,04	1763,30
570,23	1679,33
570,43	1658,85
570,62	1746,92
570,82	1824,74
571,01	1611,75
571,21	1675,24
571,40	1705,96
571,60	1789,92
571,79	1722,34
571,99	1798,12
572,18	1669,09
572,38	1789,92
572,57	1748,97
572,77	1755,11
572,96	1841,12
573,16	1738,73
573,35	1746,92
573,55	1822,69
573,74	1804,26
573,94	1671,14
574,13	1742,82
574,33	1779,68
574,52	1697,77
574,71	1720,29
574,91	1769,44
575,10	1626,09
575,30	1753,06
575,49	1757,16
575,69	1697,77
575,88	1718,25
576,08	1755,11
576,27	1720,29
576,47	1669,09
576,66	1867,75
576,86	1779,68
577,05	1720,29
577,25	1759,21
577,44	1828,84
577,64	1730,53
577,83	1712,10
578,02	1699,81
578,22	1771,49
578,41	1892,32
578,61	1714,15
578,80	1642,47
579,00	1726,44
579,19	1742,82
579,39	1804,26
579,58	1794,02
579,77	1785,83
579,97	1769,44
580,16	1781,73
580,36	1771,49
580,55	1822,69
580,75	1794,02
580,94	1724,39
581,13	1800,16
581,33	1859,56
581,52	1767,40
581,72	1896,42
581,91	1791,97
582,11	1777,64
582,30	1791,97
582,49	1738,73
582,69	1720,29
582,88	1798,12
583,08	1828,84
583,27	1728,49
583,47	1740,77
583,66	1740,77
583,85	1697,77
584,05	1722,34
584,24	1779,68
584,44	1742,82
584,63	1853,41
584,82	1800,16
585,02	1845,22
585,21	1837,03
585,41	1791,97
585,60	1851,36
585,79	1959,91
585,99	1925,09
586,18	1873,89
586,37	2226,14
586,57	3434,44
586,76	9875,31
586,96	24458,89
587,15	34426,35
587,34	40910,22
587,54	42231,16
587,73	36986,32
587,93	26517,10
588,12	21659,32
588,31	18415,34
588,51	16420,61
588,70	15204,12
588,89	14235,43
589,09	12683,07
589,28	11169,62
589,47	9369,46
589,67	7980,93
589,86	6506,40
590,06	5027,76
590,25	3979,20
590,44	3084,24
590,64	2551,77
590,83	2230,24
591,02	2031,58
591,22	2015,20
591,41	1923,04
591,60	1849,32
591,80	1867,75
591,99	1755,11
592,18	1763,30
592,38	1867,75
592,57	1808,36
592,76	1767,40
592,96	1800,16
593,15	1816,55
593,34	1726,44
593,54	1771,49
593,73	1720,29
593,92	1845,22
594,12	1800,16
594,31	1796,07
594,50	1816,55
594,70	1822,69
594,89	1820,64
595,08	1730,53
595,28	1767,40
595,47	1914,85
595,66	1802,21
595,86	1650,66
596,05	1740,77
596,24	1736,68
596,43	1830,88
596,63	1839,08
596,82	1824,74
597,01	1722,34
597,21	1804,26
597,40	1710,05
597,59	1751,01
597,79	1746,92
597,98	1736,68
598,17	1759,21
598,36	1759,21
598,56	1800,16
598,75	1667,05
598,94	1785,83
599,14	1710,05
599,33	1708,01
599,52	1839,08
599,71	1730,53
599,91	1830,88
600,10	1830,88
600,29	1734,63
600,48	1767,40
600,68	1791,97
600,87	1787,88
601,06	1710,05
601,26	1787,88
601,45	1787,88
601,64	1746,92
601,83	1775,59
602,03	1771,49
602,22	1665,00
602,41	1847,27
602,60	1877,99
602,80	1779,68
602,99	1755,11
603,18	1757,16
603,37	1708,01
603,57	1794,02
603,76	1755,11
603,95	1783,78
604,14	1705,96
604,34	1654,76
604,53	1714,15
604,72	1765,35
604,91	1732,58
605,10	1740,77
605,30	1689,57
605,49	1839,08
605,68	1767,40
605,87	1705,96
606,07	1779,68
606,26	1693,67
606,45	1773,54
606,64	1699,81
606,84	1626,09
607,03	1759,21
607,22	1699,81
607,41	1685,48
607,60	1767,40
607,80	1714,15
607,99	1744,87
608,18	1722,34
608,37	1732,58
608,56	1648,61
608,76	1722,34
608,95	1908,71
609,14	1716,20
609,33	1830,88
609,52	1767,40
609,72	1701,86
609,91	1771,49
610,10	1724,39
610,29	1757,16
610,48	1855,46
610,68	1779,68
610,87	1761,25
611,06	1734,63
611,25	1757,16
611,44	1775,59
611,63	1660,90
611,83	1755,11
612,02	1619,94
612,21	1785,83
612,40	1601,51
612,59	1710,05
612,79	1572,84
612,98	1691,62
613,17	1732,58
613,36	1724,39
613,55	1830,88
613,74	1673,19
613,93	1638,38
614,13	1695,72
614,32	1769,44
614,51	1724,39
614,70	1640,42
614,89	1804,26
615,08	1695,72
615,28	2052,06
615,47	1716,20
615,66	1656,81
615,85	1642,47
616,04	1787,88
616,23	1693,67
616,42	1767,40
616,62	1771,49
616,81	1783,78
617,00	1708,01
617,19	1753,06
617,38	1669,09
617,57	1738,73
617,76	1697,77
617,95	1746,92
618,15	1691,62
618,34	1742,82
618,53	1646,57
618,72	1714,15
618,91	1787,88
619,10	1900,52
619,29	1710,05
619,48	1722,34
619,68	1617,90
619,87	1716,20
620,06	1652,71
620,25	1777,64
620,44	1761,25
620,63	1736,68
620,82	1722,34
621,01	1716,20
621,20	1761,25
621,39	1722,34
621,59	1777,64
621,78	1658,85
621,97	1677,29
622,16	1775,59
622,35	1648,61
622,54	1722,34
622,73	1773,54
622,92	1617,90
623,11	1718,25
623,30	1716,20
623,49	1802,21
623,68	1710,05
623,88	1843,17
624,07	1773,54
624,26	1679,33
624,45	1675,24
624,64	1697,77
624,83	1765,35
625,02	1724,39
625,21	1705,96
625,40	1748,97
625,59	1765,35
625,78	1710,05
625,97	1804,26
626,16	1712,10
626,35	1699,81
626,54	1744,87
626,74	1783,78
626,93	1626,09
627,12	1646,57
627,31	1720,29
627,50	1722,34
627,69	1742,82
627,88	1675,24
628,07	1701,86
628,26	1609,70
628,45	1689,57
628,64	1679,33
628,83	1644,52
629,02	1671,14
629,21	1732,58
629,40	1802,21
629,59	1640,42
629,78	1636,33
629,97	1712,10
630,16	1748,97
630,35	1726,44
630,54	1710,05
630,73	1791,97
630,92	1720,29
631,11	1748,97
631,30	1718,25
631,49	1726,44
631,68	1773,54
631,87	1742,82
632,06	1650,66
632,25	1791,97
632,44	1730,53
632,63	1697,77
632,82	1667,05
633,01	1660,90
633,20	1677,29
633,39	1619,94
633,58	1636,33
633,77	1751,01
633,96	1751,01
634,15	1697,77
634,34	1728,49
634,53	1751,01
634,72	1695,72
634,91	1665,00
635,10	1714,15
635,29	1759,21
635,48	1759,21
635,67	1740,77
635,86	1589,22
636,05	1820,64
636,24	1746,92
636,43	1722,34
636,62	1767,40
636,81	1650,66
637,00	1699,81
637,19	1777,64
637,38	1726,44
637,57	1685,48
637,76	1628,14
637,95	1662,95
638,14	1648,61
638,33	1726,44
638,52	1744,87
638,71	1621,99
638,89	1722,34
639,08	1828,84
639,27	1759,21
639,46	1710,05
639,65	1755,11
639,84	1609,70
640,03	1746,92
640,22	1644,52
640,41	1761,25
640,60	1667,05
640,79	1757,16
640,98	1716,20
641,17	1800,16
641,36	1761,25
641,55	1791,97
641,74	1572,84
641,92	1615,85
642,11	1697,77
642,30	1679,33
642,49	1660,90
642,68	1640,42
642,87	1701,86
643,06	1701,86
643,25	1640,42
643,44	1617,90
643,63	1697,77
643,82	1722,34
644,00	1667,05
644,19	1710,05
644,38	1642,47
644,57	1757,16
644,76	1781,73
644,95	1730,53
645,14	1693,67
645,33	1736,68
645,52	1624,04
645,71	1701,86
645,89	1701,86
646,08	1691,62
646,27	1714,15
646,46	1785,83
646,65	1728,49
646,84	1746,92
647,03	1689,57
647,22	1828,84
647,40	1740,77
647,59	1730,53
647,78	1576,94
647,97	1665,00
648,16	1716,20
648,35	1765,35
648,54	1816,55
648,73	1671,14
648,91	1705,96
649,10	1728,49
649,29	1691,62
649,48	1673,19
649,67	1765,35
649,86	1718,25
650,05	1697,77
650,23	1697,77
650,42	1683,43
650,61	1640,42
650,80	1720,29
650,99	1863,65
651,18	1777,64
651,36	1794,02
651,55	1683,43
651,74	1789,92
651,93	1714,15
652,12	1697,77
652,31	1687,53
652,49	1697,77
652,68	1650,66
652,87	1789,92
653,06	1732,58
653,25	1794,02
653,44	1730,53
653,62	1773,54
653,81	1763,30
654,00	1724,39
654,19	1800,16
654,38	1890,28
654,56	1746,92
654,75	1689,57
654,94	1757,16
655,13	1773,54
655,32	1660,90
655,51	1748,97
655,69	1722,34
655,88	1767,40
656,07	1718,25
656,26	1779,68
656,45	1695,72
656,63	1705,96
656,82	1763,30
657,01	1777,64
657,20	1714,15
657,38	1775,59
657,57	1769,44
657,76	1626,09
657,95	1800,16
658,14	1671,14
658,32	1740,77
658,51	1652,71
658,70	1777,64
658,89	1730,53
659,08	1677,29
659,26	1757,16
659,45	1691,62
659,64	1771,49
659,83	1689,57
660,01	1837,03
660,20	1734,63
660,39	1779,68
660,58	1654,76
660,76	1718,25
660,95	1624,04
661,14	1720,29
661,33	1595,37
661,51	1665,00
661,70	1677,29
661,89	1783,78
662,08	1738,73
662,26	1630,18
662,45	1644,52
662,64	1798,12
662,83	1718,25
663,01	1673,19
663,20	1693,67
663,39	1816,55
663,58	1644,52
663,76	1742,82
663,95	1763,30
664,14	1701,86
664,32	1691,62
664,51	1632,23
664,70	1601,51
664,89	1771,49
665,07	1710,05
665,26	1796,07
665,45	1691,62
665,64	1777,64
665,82	1763,30
666,01	1771,49
666,20	1685,48
666,38	1802,21
666,57	1824,74
666,76	2226,14
666,95	4659,13
667,13	10420,06
667,32	15496,98
667,51	17911,53
667,69	19044,06
667,88	17561,33
668,07	12220,23
668,25	9627,50
668,44	8091,52
668,63	7305,10
668,81	6893,46
669,00	6131,62
669,19	5679,02
669,38	5040,05
669,56	4650,94
669,75	3995,59
669,94	3409,87
670,12	2912,21
670,31	2598,87
670,50	2308,06
670,68	2164,70
670,87	1916,90
671,06	1898,47
671,24	1798,12
671,43	1841,12
671,62	1796,07
671,80	1638,38
671,99	1751,01
672,18	1701,86
672,36	1742,82
672,55	1763,30
672,74	1677,29
672,92	1671,14
673,11	1761,25
673,29	1611,75
673,48	1726,44
673,67	1662,95
673,85	1720,29
674,04	1638,38
674,23	1744,87
674,41	1871,84
674,60	1689,57
674,79	1673,19
674,97	1615,85
675,16	1763,30
675,34	1761,25
675,53	1656,81
675,72	1771,49
675,90	1775,59
676,09	1689,57
676,28	1722,34
676,46	1615,85
676,65	1705,96
676,83	1662,95
677,02	1724,39
677,21	1675,24
677,39	1814,50
677,58	1685,48
677,77	1648,61
677,95	1763,30
678,14	1691,62
678,32	1648,61
678,51	1595,37
678,70	1779,68
678,88	1746,92
679,07	1783,78
679,25	1681,38
679,44	1683,43
679,63	1662,95
679,81	1648,61
680,00	1761,25
680,18	1722,34
680,37	1769,44
680,55	1714,15
680,74	1630,18
680,93	1554,41
681,11	1728,49
681,30	1662,95
681,48	1673,19
681,67	1708,01
681,85	1679,33
682,04	1652,71
682,23	1759,21
682,41	1732,58
682,60	1714,15
682,78	1609,70
682,97	1662,95
683,15	1755,11
683,34	1701,86
683,53	1759,21
683,71	1662,95
683,90	1718,25
684,08	1806,31
684,27	1724,39
684,45	1755,11
684,64	1785,83
684,82	1683,43
685,01	1681,38
685,19	1740,77
685,38	1753,06
685,57	1767,40
685,75	1699,81
685,94	1685,48
686,12	1624,04
686,31	1658,85
686,49	1804,26
686,68	1615,85
686,86	1716,20
687,05	1654,76
687,23	1748,97
687,42	1687,53
687,60	1601,51
687,79	1800,16
687,97	1757,16
688,16	1746,92
688,34	1753,06
688,53	1642,47
688,71	1755,11
688,90	1812,45
689,08	1736,68
689,27	1603,56
689,45	1767,40
689,64	1765,35
689,82	1736,68
690,01	1742,82
690,19	1783,78
690,38	1767,40
690,56	1861,60
690,75	1685,48
690,93	1718,25
691,12	1642,47
691,30	1658,85
691,49	1638,38
691,67	1708,01
691,86	1873,89
692,04	1669,09
692,23	1648,61
692,41	1669,09
692,60	1785,83
692,78	1789,92
692,97	1705,96
693,15	1740,77
693,34	1748,97
693,52	1716,20
693,71	1730,53
693,89	1603,56
694,08	1554,41
694,26	1722,34
694,44	1726,44
694,63	1806,31
694,81	1705,96
695,00	1675,24
695,18	1761,25
695,37	1773,54
695,55	1732,58
695,74	1695,72
695,92	1656,81
696,10	1740,77
696,29	1611,75
696,47	1642,47
696,66	1638,38
696,84	1705,96
697,03	1673,19
697,21	1763,30
697,40	2340,83
697,58	1748,97
697,76	1642,47
697,95	1656,81
698,13	1640,42
698,32	1689,57
698,50	1693,67
698,68	1744,87
698,87	1695,72
699,05	1736,68
699,24	1769,44
699,42	1660,90
699,61	1683,43
699,79	1730,53
699,97	1771,49
700,16	1583,08
700,34	1687,53
700,53	1738,73
700,71	1753,06
700,89	1769,44
701,08	1693,67
701,26	1734,63
701,45	2082,78
701,63	1636,33
701,81	1673,19
702,00	1671,14
702,18	1685,48
702,37	1624,04
702,55	1740,77
702,73	1751,01
702,92	1650,66
703,10	1761,25
703,28	1710,05
703,47	1658,85
703,65	1830,88
703,84	1796,07
704,02	1662,95
704,20	1789,92
704,39	1673,19
704,57	1697,77
704,75	1796,07
704,94	1812,45
705,12	1679,33
705,30	1796,07
705,49	2267,10
705,67	4394,94
705,86	9457,52
706,04	12769,09
706,22	14634,78
706,41	15288,09
706,59	13840,17
706,77	9635,69
706,96	7354,26
707,14	6631,32
707,32	5955,49
707,51	5629,87
707,69	4992,95
707,87	4272,06
708,06	3553,23
708,24	2944,98
708,42	2572,25
708,61	2336,73
708,79	1839,08
708,97	1865,70
709,16	1935,33
709,34	1769,44
709,52	1699,81
709,71	1746,92
709,89	1794,02
710,07	1708,01
710,26	1730,53
710,44	1742,82
710,62	1828,84
710,80	1730,53
710,99	1775,59
711,17	1763,30
711,35	1714,15
711,54	1611,75
711,72	1800,16
711,90	1677,29
712,09	1716,20
712,27	1665,00
712,45	1755,11
712,63	1728,49
712,82	1722,34
713,00	1681,38
713,18	1738,73
713,37	1808,36
713,55	1730,53
713,73	1712,10
713,91	1703,91
714,10	1675,24
714,28	1673,19
714,46	1679,33
714,65	1728,49
714,83	1665,00
715,01	1718,25
715,19	1705,96
715,38	1695,72
715,56	1751,01
715,74	1693,67
715,92	1576,94
716,11	1787,88
716,29	1605,61
716,47	1714,15
716,65	1693,67
716,84	1644,52
717,02	1691,62
717,20	1621,99
717,38	1695,72
717,57	1724,39
717,75	1755,11
717,93	1667,05
718,11	1712,10
718,30	1687,53
718,48	1697,77
718,66	1859,56
718,84	1794,02
719,03	1689,57
719,21	1619,94
719,39	1843,17
719,57	1722,34
719,75	1783,78
719,94	1669,09
720,12	1732,58
720,30	1716,20
720,48	1804,26
720,67	1626,09
720,85	1648,61
721,03	1771,49
721,21	1638,38
721,39	1873,89
721,58	1695,72
721,76	1781,73
721,94	1748,97
722,12	1705,96
722,30	1834,98
722,49	1607,66
722,67	1671,14
722,85	1689,57
723,03	1562,60
723,21	1677,29
723,40	1681,38
723,58	1753,06
723,76	1722,34
723,94	1796,07
724,12	1695,72
724,30	1718,25
724,49	1699,81
724,67	1591,27
724,85	1671,14
725,03	1665,00
725,21	1769,44
725,40	1759,21
725,58	1687,53
725,76	1798,12
725,94	1632,23
726,12	1742,82
726,30	1662,95
726,49	1697,77
726,67	1681,38
726,85	1671,14
727,03	1734,63
727,21	2213,85
727,39	2912,21
727,57	3827,65
727,76	4095,94
727,94	4401,08
728,12	4302,78
728,30	3616,71
728,48	3002,32
728,66	2766,81
728,84	2609,11
729,03	2246,62
729,21	2172,89
729,39	2017,25
729,57	1841,12
729,75	1800,16
729,93	1894,37
730,11	1683,43
730,30	1642,47
730,48	1677,29
730,66	1740,77
730,84	1728,49
731,02	1697,77
731,20	1689,57
731,38	1675,24
731,56	1652,71
731,74	1662,95
731,93	1759,21
732,11	1763,30
732,29	1689,57
732,47	1765,35
732,65	1642,47
732,83	1722,34
733,01	1683,43
733,19	1701,86
733,37	1714,15
733,56	1740,77
733,74	1607,66
733,92	1802,21
734,10	1710,05
734,28	1724,39
734,46	1681,38
734,64	1636,33
734,82	1619,94
735,00	1693,67
735,18	1689,57
735,36	1720,29
735,54	1712,10
735,73	1705,96
735,91	1763,30
736,09	1689,57
736,27	1718,25
736,45	1785,83
736,63	1626,09
736,81	1689,57
736,99	1787,88
737,17	1779,68
737,35	1671,14
737,53	1681,38
737,71	1732,58
737,89	1761,25
738,07	1605,61
738,25	1703,91
738,43	1587,18
738,61	1583,08
738,80	1654,76
738,98	1703,91
739,16	1718,25
739,34	1673,19
739,52	1738,73
739,70	1677,29
739,88	1730,53
740,06	1777,64
740,24	1615,85
740,42	1732,58
740,60	1624,04
740,78	1675,24
740,96	1603,56
741,14	1710,05
741,32	1757,16
741,50	1644,52
741,68	1802,21
741,86	1763,30
742,04	1654,76
742,22	1660,90
742,40	1710,05
742,58	1738,73
742,76	1722,34
742,94	1697,77
743,12	1609,70
743,30	1638,38
743,48	1777,64
743,66	1724,39
743,84	1769,44
744,02	1710,05
744,20	1712,10
744,38	1628,14
744,56	1644,52
744,74	1863,65
744,92	1738,73
745,10	1787,88
745,28	1748,97
745,46	1859,56
745,64	1773,54
745,82	1769,44
746,00	1796,07
746,18	1736,68
746,36	1607,66
746,54	1714,15
746,72	1675,24
746,90	1648,61
747,08	1798,12
747,26	1677,29
747,44	1734,63
747,62	1744,87
747,80	1644,52
747,98	1724,39
748,15	1697,77
748,33	1804,26
748,51	1777,64
748,69	1812,45
748,87	1640,42
749,05	1693,67
749,23	1718,25
749,41	1699,81
749,59	1775,59
749,77	1779,68
749,95	1630,18
750,13	1685,48
750,31	1685,48
750,49	1675,24
750,67	1724,39
750,85	1767,40
751,03	1630,18
751,20	1839,08
751,38	1630,18
751,56	1726,44
751,74	1697,77
751,92	1734,63
752,10	1626,09
752,28	1751,01
752,46	1667,05
752,64	1798,12
752,82	1701,86
753,00	1771,49
753,18	1642,47
753,35	1626,09
753,53	1703,91
753,71	1701,86
753,89	1744,87
754,07	1705,96
754,25	1783,78
754,43	1708,01
754,61	1587,18
754,79	1681,38
754,97	1689,57
755,14	1781,73
755,32	1638,38
755,50	1652,71
755,68	1714,15
755,86	1648,61
756,04	1689,57
756,22	1562,60
756,40	1703,91
756,57	1751,01
756,75	1640,42
756,93	1763,30
757,11	1798,12
757,29	1681,38
757,47	1619,94
757,65	1599,46
757,82	1644,52
758,00	1636,33
758,18	1628,14
758,36	1695,72
758,54	1767,40
758,72	1628,14
758,90	1785,83
759,07	1730,53
759,25	1626,09
759,43	1687,53
759,61	1683,43
759,79	2252,77
759,97	1738,73
760,15	1662,95
760,32	1665,00
760,50	1705,96
760,68	1779,68
760,86	1617,90
761,04	1818,60
761,22	1751,01
761,39	1671,14
761,57	1748,97
761,75	1718,25
761,93	1742,82
762,11	1691,62
762,28	1710,05
762,46	1624,04
762,64	1759,21
762,82	1589,22
763,00	1794,02
763,18	1761,25
763,35	1646,57
763,53	1810,40
763,71	1679,33
763,89	1662,95
764,07	1722,34
764,24	1759,21
764,42	1687,53
764,60	1712,10
764,78	1732,58
764,96	1771,49
765,13	1771,49
765,31	1718,25
765,49	1710,05
765,67	1632,23
765,84	1673,19
766,02	1634,28
766,20	1679,33
766,38	1710,05
766,56	1679,33
766,73	1798,12
766,91	1794,02
767,09	1748,97
767,27	1746,92
767,44	1751,01
767,62	1771,49
767,80	1697,77
767,98	1665,00
768,15	1683,43
768,33	1726,44
768,51	1722,34
768,69	1734,63
768,87	1724,39
769,04	1697,77
769,22	1789,92
769,40	1773,54
769,58	1785,83
769,75	1699,81
769,93	1652,71
770,11	1677,29
770,28	1685,48
770,46	1730,53
770,64	1714,15
770,82	1714,15
770,99	1693,67
771,17	1724,39
771,35	1679,33
771,53	1732,58
771,70	1669,09
771,88	1703,91
772,06	1732,58
772,23	1681,38
772,41	1753,06
772,59	1638,38
772,77	1642,47
772,94	1722,34
773,12	1740,77
773,30	1662,95
773,47	1730,53
773,65	1656,81
773,83	1773,54
774,01	1634,28
774,18	1566,70
774,36	1724,39
774,54	1667,05
774,71	1726,44
774,89	1656,81
775,07	1652,71
775,24	1607,66
775,42	1730,53
775,60	1806,31
775,78	1568,74
775,95	1697,77
776,13	1611,75
776,31	1589,22
776,48	1718,25
776,66	1814,50
776,84	1703,91
777,01	1656,81
777,19	1646,57
777,37	1714,15
777,54	1746,92
777,72	1853,41
777,90	1697,77
778,07	1748,97
778,25	1873,89
778,43	1738,73
778,60	1646,57
778,78	1781,73
778,96	1779,68
779,13	1632,23
779,31	1720,29
779,49	1697,77
779,66	1677,29
779,84	1708,01
780,01	1701,86
780,19	1650,66
780,37	1753,06
780,54	1730,53
780,72	1548,26
780,90	1679,33
781,07	1714,15
781,25	1693,67
781,43	1738,73
781,60	1656,81
781,78	1738,73
781,95	1771,49
782,13	1673,19
782,31	1765,35
782,48	1548,26
782,66	1654,76
782,83	1763,30
783,01	1718,25
783,19	1714,15
783,36	1689,57
783,54	1705,96
783,72	1734,63
783,89	1693,67
784,07	1691,62
784,24	1697,77
784,42	1859,56
784,60	1720,29
784,77	1724,39
784,95	1613,80
785,12	1683,43
785,30	1720,29
785,47	1638,38
785,65	1730,53
785,83	1689,57
786,00	1740,77
786,18	1697,77
786,35	1624,04
786,53	1677,29
786,71	1703,91
786,88	1632,23
787,06	1738,73
787,23	1671,14
787,41	1617,90
787,58	1677,29
787,76	1597,42
787,94	1738,73
788,11	1753,06
788,29	1626,09
788,46	1656,81
788,64	1617,90
788,81	1683,43
788,99	1621,99
789,16	1566,70
789,34	1685,48
789,52	1724,39
789,69	1660,90
789,87	1648,61
790,04	1726,44
790,22	1691,62
790,39	1859,56
790,57	1640,42
790,74	1634,28
790,92	1708,01
791,09	1708,01
791,27	1656,81
791,44	1757,16
791,62	1732,58
791,79	1738,73
791,97	1638,38
792,15	1873,89
792,32	1669,09
792,50	1705,96
792,67	1732,58
792,85	1755,11
793,02	1759,21
793,20	1787,88
793,37	1658,85
793,55	1712,10
793,72	1617,90
793,90	1777,64
794,07	1626,09
794,25	1583,08
794,42	1759,21
794,60	1642,47
794,77	1726,44
794,95	1718,25
795,12	1654,76
795,30	1697,77
795,47	1624,04
795,65	1783,78
795,82	1728,49
796,00	1671,14
796,17	1703,91
796,34	1669,09
796,52	1701,86
796,69	1796,07
796,87	1767,40
797,04	1718,25
797,22	1699,81
797,39	1683,43
797,57	1738,73
797,74	1693,67
797,92	1763,30
798,09	1669,09
798,27	1722,34
798,44	1730,53
798,62	1681,38
798,79	1708,01
798,96	1683,43
799,14	1650,66
799,31	1767,40
799,49	1656,81
799,66	1685,48
799,84	1789,92
800,01	1607,66
800,19	1689,57
800,36	1611,75
800,53	1695,72
800,71	1697,77
800,88	1744,87
801,06	1716,20
801,23	1675,24
801,41	1673,19
801,58	1640,42
801,75	1677,29
801,93	1648,61
802,10	1699,81
802,28	1681,38
802,45	1673,19
802,63	1638,38
802,80	1708,01
802,97	1773,54
803,15	1662,95
803,32	1640,42
803,50	1722,34
803,67	1699,81
803,84	1665,00
804,02	1724,39
804,19	1685,48
804,37	1599,46
804,54	1665,00
804,71	1642,47
804,89	1714,15
805,06	1703,91
805,24	1624,04
805,41	1689,57
805,58	1636,33
805,76	1796,07
805,93	1665,00
806,10	1806,31
806,28	1771,49
806,45	1746,92
806,63	1714,15
806,80	1730,53
806,97	1640,42
807,15	1718,25
807,32	1730,53
807,49	1740,77
807,67	1667,05
807,84	1593,32
808,01	1628,14
808,19	1837,03
808,36	1812,45
808,54	1660,90
808,71	1581,03
808,88	1755,11
809,06	1681,38
809,23	1746,92
809,40	1710,05
809,58	1701,86
809,75	1599,46
809,92	1611,75
810,10	1826,79
810,27	1718,25
810,44	1689,57
810,62	1718,25
810,79	1783,78
810,96	1648,61
811,14	1677,29
811,31	1683,43
811,48	1716,20
811,66	1683,43
811,83	1763,30
812,00	1732,58
812,18	1662,95
812,35	1861,60
812,52	1662,95
812,69	1675,24
812,87	1617,90
813,04	1632,23
813,21	1679,33
813,39	1800,16
813,56	1687,53
813,73	1736,68
813,91	1599,46
814,08	1744,87
814,25	1730,53
814,42	1640,42
814,60	1656,81
814,77	1685,48
814,94	1648,61
815,12	1703,91
815,29	1740,77
815,46	1665,00
815,63	1708,01
815,81	1722,34
815,98	1701,86
816,15	1708,01
816,33	1724,39
816,50	1714,15
816,67	1677,29
816,84	1687,53
817,02	1593,32
817,19	1687,53
817,36	1742,82
817,53	1730,53
817,71	1619,94
817,88	1720,29
818,05	1662,95
818,22	1699,81
818,40	1882,08
818,57	1626,09
818,74	1751,01
818,91	1658,85
819,09	1722,34
819,26	1730,53
819,43	1683,43
819,60	1587,18
819,78	1710,05
819,95	1798,12
820,12	1611,75
820,29	1787,88
820,47	1849,32
820,64	1640,42
820,81	1609,70
820,98	1607,66
821,15	1718,25
821,33	1808,36
821,50	1533,93
821,67	1701,86
821,84	1671,14
822,02	1767,40
822,19	1751,01
822,36	1695,72
822,53	1650,66
822,70	1691,62
822,88	1630,18
823,05	1671,14
823,22	1650,66
823,39	1767,40
823,56	1658,85
823,74	1802,21
823,91	1615,85
824,08	1636,33
824,25	1662,95
824,42	1812,45
824,60	1712,10
824,77	1683,43
824,94	1722,34
825,11	1728,49
825,28	1581,03
825,45	1652,71
825,63	1691,62
825,80	1599,46
825,97	1722,34
826,14	1675,24
826,31	1624,04
826,48	1771,49
826,66	1642,47
826,83	1685,48
827,00	1773,54
827,17	1679,33
827,34	1734,63
827,51	1683,43
827,69	1728,49
827,86	1611,75
828,03	1638,38
828,20	1691,62
828,37	1714,15
828,54	1777,64
828,71	1724,39
828,89	1787,88
829,06	1712,10
829,23	1701,86
829,40	1732,58
829,57	1617,90
829,74	1740,77
829,91	1603,56
830,09	1722,34
830,26	1734,63
830,43	1738,73
830,60	1683,43
830,77	1724,39
830,94	1720,29
831,11	1806,31
831,28	1665,00
831,46	1761,25
831,63	1705,96
831,80	1759,21
831,97	1636,33
832,14	1732,58
832,31	1740,77
832,48	1724,39
832,65	1736,68
832,82	1685,48
832,99	1703,91
833,17	1697,77
833,34	1882,08
833,51	1679,33
833,68	1601,51
833,85	1779,68
834,02	1703,91
834,19	1689,57
834,36	1636,33
834,53	1695,72
834,70	1710,05
834,87	1703,91
835,04	1726,44
835,22	1665,00
835,39	1720,29
835,56	1615,85
835,73	1740,77
835,90	1703,91
836,07	1595,37
836,24	1759,21
836,41	1726,44
836,58	1656,81
836,75	1708,01
836,92	1722,34
837,09	1648,61
837,26	1804,26
837,43	1779,68
837,60	1763,30
837,77	1705,96
837,94	1685,48
838,12	1710,05
838,29	1640,42
838,46	1595,37
838,63	1638,38
838,80	1787,88
838,97	1640,42
839,14	1683,43
839,31	1640,42
839,48	1734,63
839,65	1679,33
839,82	1714,15
839,99	1718,25
840,16	1695,72
840,33	1621,99
840,50	1751,01
840,67	1699,81
840,84	1578,98
841,01	1646,57
841,18	1677,29
841,35	1638,38
841,52	1697,77
841,69	1824,74
841,86	1685,48
842,03	1640,42
842,20	1761,25
842,37	1685,48
842,54	1740,77
842,71	1677,29
842,88	1632,23
843,05	1802,21
843,22	1656,81
843,39	1732,58
843,56	1708,01
843,73	1685,48
843,90	1681,38
844,07	1671,14
844,24	1773,54
844,41	1740,77
844,58	1646,57
844,75	1650,66
844,92	1791,97
845,09	1714,15
845,26	1603,56
845,43	1722,34
845,60	1656,81
845,77	1720,29
845,94	1742,82
846,10	1773,54
846,27	1583,08
846,44	1662,95
846,61	1642,47
846,78	1705,96
846,95	1773,54
847,12	1724,39
847,29	1693,67
847,46	1669,09
847,63	1701,86
847,80	1724,39
847,97	1640,42
848,14	1845,22
848,31	1632,23
848,48	1683,43
848,65	1687,53
848,82	1632,23
848,98	1785,83
849,15	1755,11
849,32	1669,09
849,49	1718,25
849,66	1746,92
849,83	1705,96
850,00	1632,23
850,17	1765,35
850,34	1751,01
850,51	1630,18
850,68	1640,42
850,85	1789,92
851,01	1665,00
851,18	1732,58
851,35	1648,61
851,52	1703,91
851,69	1789,92
851,86	1636,33
852,03	1619,94
852,20	1720,29
852,37	1638,38
852,53	1689,57
852,70	1701,86
852,87	1689,57
853,04	1765,35
853,21	1697,77
853,38	1796,07
853,55	1832,93
853,72	1738,73
853,89	1572,84
854,05	1617,90
854,22	1732,58
854,39	1687,53
854,56	1673,19
854,73	1761,25
854,90	1681,38
855,07	1667,05
855,23	1646,57
855,40	1634,28
855,57	1689,57
855,74	1646,57
855,91	1832,93
856,08	1581,03
856,25	1648,61
856,41	1652,71
856,58	1607,66
856,75	1728,49
856,92	1683,43
857,09	1763,30
857,26	1656,81
857,42	1697,77
857,59	1699,81
857,76	1656,81
857,93	1699,81
858,10	1660,90
858,27	1726,44
858,43	1630,18
858,60	1693,67
858,77	1615,85
858,94	1628,14
859,11	1773,54
859,27	1660,90
859,44	1814,50
859,61	1779,68
859,78	1742,82
859,95	1689,57
860,12	1658,85
860,28	1794,02
860,45	1804,26
860,62	1679,33
860,79	1691,62
860,95	1681,38
861,12	1591,27
861,29	1697,77
861,46	1669,09
861,63	1630,18
861,79	1685,48
861,96	1642,47
862,13	1669,09
862,30	1769,44
862,47	1646,57
862,63	1681,38
862,80	1769,44
862,97	1720,29
863,14	1722,34
863,30	1705,96
863,47	1642,47
863,64	1763,30
863,81	1689,57
863,97	1656,81
864,14	1646,57
864,31	1679,33
864,48	1742,82
864,65	1626,09
864,81	1744,87
864,98	1742,82
865,15	1705,96
865,32	1759,21
865,48	1783,78
865,65	1761,25
865,82	1644,52
865,98	1656,81
866,15	1789,92
866,32	1656,81
866,49	1576,94
866,65	1779,68
866,82	1636,33
866,99	1695,72
867,16	1722,34
867,32	1689,57
867,49	1740,77
867,66	1642,47
867,83	1591,27
867,99	1578,98
868,16	1617,90
868,33	1673,19
868,49	1615,85
868,66	1681,38
868,83	1765,35
868,99	1710,05
869,16	1740,77
869,33	1761,25
869,50	1716,20
869,66	1621,99
869,83	1681,38
870,00	1609,70
870,16	1781,73
870,33	1732,58
870,50	1714,15
870,66	1697,77
870,83	1800,16
871,00	1726,44
871,17	1757,16
871,33	1718,25
871,50	1671,14
871,67	1619,94
871,83	1679,33
872,00	1843,17
872,17	1697,77
872,33	1787,88
872,50	1738,73
872,67	1595,37
872,83	1642,47
873,00	1705,96
873,17	1753,06
873,33	1769,44
873,50	1837,03
873,67	1677,29
873,83	1675,24
874,00	1685,48
874,16	1691,62
874,33	1720,29
874,50	1566,70
874,66	1738,73
874,83	1712,10
875,00	1714,15
875,16	1796,07
875,33	1748,97
875,50	1589,22
875,66	1701,86
875,83	1656,81
875,99	1775,59
876,16	1656,81
876,33	1683,43
876,49	1685,48
876,66	1794,02
876,83	1685,48
876,99	1642,47
877,16	1728,49
877,32	1673,19
877,49	1669,09
877,66	1734,63
877,82	1787,88
877,99	1611,75
878,15	1722,34
878,32	1689,57
878,49	1781,73
878,65	1646,57
878,82	1761,25
878,98	1728,49
879,15	1714,15
879,32	1763,30
879,48	1716,20
879,65	1708,01
879,81	1667,05
879,98	1761,25
880,15	1695,72
880,31	1734,63
880,48	1693,67
880,64	1783,78
880,81	1689,57
880,97	1796,07
881,14	1734,63
881,31	1677,29
881,47	1796,07
881,64	1708,01
881,80	1554,41
881,97	1662,95
882,13	1771,49
882,30	1695,72
882,47	1656,81
882,63	1660,90
882,80	1658,85
882,96	1636,33
883,13	1732,58
883,29	1681,38
883,46	1693,67
883,62	1777,64
883,79	1603,56
883,95	1701,86
884,12	1697,77
884,29	1787,88
884,45	1722,34
884,62	1775,59
884,78	1714,15
884,95	1814,50
885,11	1677,29
885,28	1701,86
885,44	1675,24
885,61	1726,44
885,77	1609,70
885,94	1746,92
886,10	1636,33
886,27	1716,20
886,43	1822,69
886,60	1798,12
886,76	1644,52
886,93	1611,75
887,09	1738,73
887,26	1601,51
887,42	1785,83
887,59	1728,49
887,75	1785,83
887,92	1763,30
888,08	1703,91
888,25	1724,39
888,41	1771,49
888,58	1720,29
888,74	1632,23
888,91	1699,81
>>>>>End Processed Spectral Data<<<<<
