SpectraSuite Data File
++++++++++++++++++++++++++++++++++++
Date: Mon Jun 06 17:33:37 CEST 2016
User: root
Dark Spectrum Present: No
Reference Spectrum Present: No
Number of Sampled Component Spectra: 1
Spectrometers: USB4C02835
Integration Time (usec): 100000 (USB4C02835)
Spectra Averaged: 1 (USB4C02835)
Boxcar Smoothing: 0 (USB4C02835)
Correct for Electrical Dark: No (USB4C02835)
Strobe/Lamp Enabled: No (USB4C02835)
Correct for Detector Non-linearity: No (USB4C02835)
Correct for Stray Light: No (USB4C02835)
Number of Pixels in Processed Spectrum: 3648
>>>>>Begin Processed Spectral Data<<<<<
177,47	1527,78
177,69	1527,78
177,91	1527,78
178,13	1581,03
178,36	1517,54
178,58	1753,06
178,80	1804,26
179,02	1564,65
179,24	1681,38
179,46	1638,38
179,68	1746,92
179,90	1724,39
180,13	1726,44
180,35	1671,14
180,57	1726,44
180,79	1724,39
181,01	1791,97
181,23	1718,25
181,45	1755,11
181,67	1705,96
181,90	1759,21
182,12	1705,96
182,34	1673,19
182,56	1683,43
182,78	1732,58
183,00	1669,09
183,22	1783,78
183,44	1626,09
183,66	1902,56
183,89	1818,60
184,11	1710,05
184,33	1783,78
184,55	1779,68
184,77	1740,77
184,99	1730,53
185,21	1738,73
185,43	1914,85
185,65	1703,91
185,87	1773,54
186,10	1794,02
186,32	1816,55
186,54	1740,77
186,76	1742,82
186,98	1708,01
187,20	1712,10
187,42	1656,81
187,64	1718,25
187,86	1736,68
188,08	1726,44
188,30	1783,78
188,52	1724,39
188,75	1824,74
188,97	1808,36
189,19	1683,43
189,41	1800,16
189,63	1720,29
189,85	1697,77
190,07	1722,34
190,29	1628,14
190,51	1812,45
190,73	1636,33
190,95	1708,01
191,17	1677,29
191,39	1611,75
191,61	1693,67
191,84	1710,05
192,06	1816,55
192,28	1632,23
192,50	1892,32
192,72	1691,62
192,94	1734,63
193,16	1755,11
193,38	1787,88
193,60	1667,05
193,82	1710,05
194,04	1738,73
194,26	1734,63
194,48	1742,82
194,70	1746,92
194,92	1669,09
195,14	1730,53
195,36	1644,52
195,58	1722,34
195,80	1767,40
196,02	1601,51
196,24	1662,95
196,46	1746,92
196,69	1767,40
196,91	1900,52
197,13	1724,39
197,35	1701,86
197,57	1832,93
197,79	1771,49
198,01	1812,45
198,23	1658,85
198,45	1757,16
198,67	1566,70
198,89	1712,10
199,11	1746,92
199,33	1677,29
199,55	1574,89
199,77	1697,77
199,99	1791,97
200,21	1615,85
200,43	1738,73
200,65	1640,42
200,87	1581,03
201,09	1753,06
201,31	1738,73
201,53	1808,36
201,75	1685,48
201,97	1697,77
202,19	1726,44
202,41	1757,16
202,63	1886,18
202,85	1693,67
203,07	1708,01
203,29	1632,23
203,51	1697,77
203,73	1701,86
203,95	1849,32
204,17	1771,49
204,39	1734,63
204,61	1595,37
204,83	1734,63
205,05	1714,15
205,27	1781,73
205,49	1871,84
205,71	1681,38
205,93	1630,18
206,15	1710,05
206,37	1732,58
206,59	1701,86
206,81	1626,09
207,03	1689,57
207,25	1638,38
207,47	1824,74
207,69	1624,04
207,91	1740,77
208,13	1746,92
208,34	1740,77
208,56	1650,66
208,78	1753,06
209,00	1679,33
209,22	1687,53
209,44	1744,87
209,66	1705,96
209,88	1802,21
210,10	1703,91
210,32	1736,68
210,54	1824,74
210,76	1785,83
210,98	1794,02
211,20	1615,85
211,42	1724,39
211,64	1806,31
211,86	1789,92
212,08	1705,96
212,30	1724,39
212,52	1728,49
212,74	1783,78
212,96	1751,01
213,17	1779,68
213,39	1734,63
213,61	1804,26
213,83	1787,88
214,05	1634,28
214,27	1742,82
214,49	1751,01
214,71	1630,18
214,93	1791,97
215,15	1720,29
215,37	1755,11
215,59	1632,23
215,81	1798,12
216,03	1832,93
216,24	1720,29
216,46	1744,87
216,68	1763,30
216,90	1806,31
217,12	1794,02
217,34	1751,01
217,56	1730,53
217,78	1847,27
218,00	1773,54
218,22	1710,05
218,44	1785,83
218,66	1759,21
218,87	1742,82
219,09	1728,49
219,31	1767,40
219,53	1669,09
219,75	1669,09
219,97	1703,91
220,19	1705,96
220,41	1703,91
220,63	1748,97
220,85	1722,34
221,06	1759,21
221,28	1773,54
221,50	1697,77
221,72	1738,73
221,94	1728,49
222,16	1699,81
222,38	1773,54
222,60	1757,16
222,82	1720,29
223,03	1767,40
223,25	1691,62
223,47	1734,63
223,69	1841,12
223,91	1724,39
224,13	1691,62
224,35	1728,49
224,57	1822,69
224,78	1822,69
225,00	1648,61
225,22	1695,72
225,44	1665,00
225,66	1751,01
225,88	1636,33
226,10	1726,44
226,32	1712,10
226,53	1789,92
226,75	1734,63
226,97	1730,53
227,19	1730,53
227,41	1701,86
227,63	1662,95
227,85	1632,23
228,06	1789,92
228,28	1650,66
228,50	1755,11
228,72	1681,38
228,94	1660,90
229,16	1689,57
229,37	1665,00
229,59	1658,85
229,81	1789,92
230,03	1677,29
230,25	1665,00
230,47	1634,28
230,69	1695,72
230,90	1779,68
231,12	1740,77
231,34	1718,25
231,56	1675,24
231,78	1587,18
232,00	1701,86
232,21	1650,66
232,43	1736,68
232,65	1593,32
232,87	1681,38
233,09	1718,25
233,30	1736,68
233,52	1753,06
233,74	1736,68
233,96	1753,06
234,18	1693,67
234,40	1746,92
234,61	1791,97
234,83	1626,09
235,05	1642,47
235,27	1834,98
235,49	1824,74
235,70	1779,68
235,92	1777,64
236,14	1800,16
236,36	1863,65
236,58	1669,09
236,79	1781,73
237,01	1705,96
237,23	1753,06
237,45	1816,55
237,67	1703,91
237,88	1710,05
238,10	1824,74
238,32	1626,09
238,54	1705,96
238,76	1705,96
238,97	1644,52
239,19	1644,52
239,41	1783,78
239,63	1746,92
239,85	1726,44
240,06	1685,48
240,28	1677,29
240,50	1837,03
240,72	1783,78
240,93	1763,30
241,15	1800,16
241,37	1796,07
241,59	1826,79
241,81	1660,90
242,02	1681,38
242,24	1767,40
242,46	1769,44
242,68	1662,95
242,89	1759,21
243,11	1757,16
243,33	1720,29
243,55	1724,39
243,76	1769,44
243,98	1693,67
244,20	1714,15
244,42	1689,57
244,64	1810,40
244,85	1701,86
245,07	1687,53
245,29	1804,26
245,51	1751,01
245,72	1718,25
245,94	1839,08
246,16	1701,86
246,38	1757,16
246,59	1687,53
246,81	1710,05
247,03	1722,34
247,24	1595,37
247,46	1748,97
247,68	1732,58
247,90	1757,16
248,11	1716,20
248,33	1785,83
248,55	1658,85
248,77	1662,95
248,98	1732,58
249,20	1847,27
249,42	1755,11
249,64	1751,01
249,85	1621,99
250,07	1665,00
250,29	1787,88
250,50	1705,96
250,72	1630,18
250,94	1708,01
251,16	1894,37
251,37	1748,97
251,59	1757,16
251,81	1744,87
252,02	1773,54
252,24	1673,19
252,46	1830,88
252,68	1681,38
252,89	1646,57
253,11	1607,66
253,33	1812,45
253,54	1748,97
253,76	1660,90
253,98	1646,57
254,20	1716,20
254,41	1630,18
254,63	1673,19
254,85	1662,95
255,06	1755,11
255,28	1759,21
255,50	1652,71
255,71	1646,57
255,93	1667,05
256,15	1597,42
256,36	1697,77
256,58	1714,15
256,80	1738,73
257,02	1767,40
257,23	1656,81
257,45	1734,63
257,67	1703,91
257,88	1681,38
258,10	1779,68
258,32	1751,01
258,53	1665,00
258,75	1841,12
258,97	1675,24
259,18	1701,86
259,40	1677,29
259,62	1830,88
259,83	1837,03
260,05	1818,60
260,27	1976,29
260,48	1705,96
260,70	1642,47
260,92	1722,34
261,13	1695,72
261,35	1695,72
261,57	1722,34
261,78	1634,28
262,00	1667,05
262,22	1794,02
262,43	1669,09
262,65	1632,23
262,86	1722,34
263,08	1959,91
263,30	1812,45
263,51	1705,96
263,73	1744,87
263,95	1783,78
264,16	1656,81
264,38	1660,90
264,60	1775,59
264,81	1740,77
265,03	1767,40
265,25	1763,30
265,46	1726,44
265,68	1798,12
265,89	1740,77
266,11	1662,95
266,33	1763,30
266,54	1781,73
266,76	1703,91
266,98	1781,73
267,19	1804,26
267,41	1818,60
267,62	1673,19
267,84	1714,15
268,06	1738,73
268,27	1693,67
268,49	1794,02
268,70	1738,73
268,92	1699,81
269,14	1648,61
269,35	1671,14
269,57	1607,66
269,79	1667,05
270,00	1718,25
270,22	1843,17
270,43	1714,15
270,65	1578,98
270,87	1734,63
271,08	1716,20
271,30	1748,97
271,51	1814,50
271,73	1759,21
271,95	1787,88
272,16	1705,96
272,38	1736,68
272,59	1685,48
272,81	1730,53
273,02	1781,73
273,24	1740,77
273,46	1832,93
273,67	1658,85
273,89	1724,39
274,10	1640,42
274,32	1765,35
274,54	1722,34
274,75	1714,15
274,97	1714,15
275,18	1757,16
275,40	1701,86
275,61	1800,16
275,83	1734,63
276,05	1646,57
276,26	1689,57
276,48	1722,34
276,69	1722,34
276,91	1679,33
277,12	1656,81
277,34	1810,40
277,55	1789,92
277,77	1695,72
277,99	1697,77
278,20	1708,01
278,42	1665,00
278,63	1740,77
278,85	1648,61
279,06	1603,56
279,28	1712,10
279,49	1804,26
279,71	1789,92
279,93	1796,07
280,14	1810,40
280,36	1693,67
280,57	1816,55
280,79	1822,69
281,00	1685,48
281,22	1689,57
281,43	1779,68
281,65	1601,51
281,86	1681,38
282,08	1804,26
282,29	1867,75
282,51	1585,13
282,73	1640,42
282,94	1646,57
283,16	1785,83
283,37	1822,69
283,59	1701,86
283,80	1761,25
284,02	1722,34
284,23	1685,48
284,45	1777,64
284,66	1701,86
284,88	1699,81
285,09	1763,30
285,31	1757,16
285,52	1703,91
285,74	1597,42
285,95	1742,82
286,17	1638,38
286,38	1742,82
286,60	1751,01
286,81	1665,00
287,03	1695,72
287,24	1738,73
287,46	1732,58
287,67	1693,67
287,89	1839,08
288,10	1638,38
288,32	1769,44
288,53	1783,78
288,75	1644,52
288,96	1699,81
289,18	1679,33
289,39	1740,77
289,61	1759,21
289,82	1826,79
290,04	1877,99
290,25	1650,66
290,47	1742,82
290,68	1710,05
290,90	1789,92
291,11	1662,95
291,33	1755,11
291,54	1697,77
291,76	1665,00
291,97	1742,82
292,18	1767,40
292,40	1687,53
292,61	1710,05
292,83	1767,40
293,04	1742,82
293,26	1748,97
293,47	1755,11
293,69	1632,23
293,90	1701,86
294,12	1777,64
294,33	1710,05
294,55	1810,40
294,76	1738,73
294,97	1789,92
295,19	1863,65
295,40	1673,19
295,62	1757,16
295,83	1761,25
296,05	1677,29
296,26	1763,30
296,48	1675,24
296,69	1798,12
296,90	1757,16
297,12	1718,25
297,33	1742,82
297,55	1757,16
297,76	1722,34
297,98	1728,49
298,19	1751,01
298,41	1677,29
298,62	1689,57
298,83	1865,70
299,05	1695,72
299,26	1708,01
299,48	1667,05
299,69	1744,87
299,90	1740,77
300,12	1689,57
300,33	1718,25
300,55	1683,43
300,76	1775,59
300,98	1632,23
301,19	1763,30
301,40	1722,34
301,62	1638,38
301,83	1732,58
302,05	1656,81
302,26	1744,87
302,47	1744,87
302,69	1689,57
302,90	1783,78
303,12	1599,46
303,33	1742,82
303,54	1798,12
303,76	1681,38
303,97	1734,63
304,19	1810,40
304,40	1644,52
304,61	1728,49
304,83	1824,74
305,04	1730,53
305,26	1781,73
305,47	1738,73
305,68	1626,09
305,90	1615,85
306,11	1826,79
306,33	1679,33
306,54	1675,24
306,75	1693,67
306,97	1662,95
307,18	1591,27
307,39	1691,62
307,61	1800,16
307,82	1716,20
308,04	1710,05
308,25	1736,68
308,46	1669,09
308,68	1798,12
308,89	1691,62
309,10	1791,97
309,32	1679,33
309,53	1677,29
309,74	1822,69
309,96	1742,82
310,17	1757,16
310,39	1685,48
310,60	1769,44
310,81	1720,29
311,03	1703,91
311,24	1779,68
311,45	1701,86
311,67	1816,55
311,88	1722,34
312,09	1660,90
312,31	1775,59
312,52	1738,73
312,73	1718,25
312,95	1638,38
313,16	1703,91
313,37	1736,68
313,59	1757,16
313,80	1798,12
314,01	1837,03
314,23	1714,15
314,44	1642,47
314,65	1665,00
314,87	1695,72
315,08	1703,91
315,29	1699,81
315,51	1624,04
315,72	1632,23
315,93	1802,21
316,15	1714,15
316,36	1710,05
316,57	1705,96
316,79	1732,58
317,00	1734,63
317,21	1773,54
317,43	1675,24
317,64	1751,01
317,85	1705,96
318,07	1740,77
318,28	1771,49
318,49	1882,08
318,70	1849,32
318,92	1814,50
319,13	1839,08
319,34	1912,80
319,56	1695,72
319,77	1826,79
319,98	1761,25
320,20	1791,97
320,41	1734,63
320,62	1773,54
320,83	1642,47
321,05	1849,32
321,26	1828,84
321,47	1656,81
321,69	1789,92
321,90	1632,23
322,11	1677,29
322,32	1771,49
322,54	1845,22
322,75	1632,23
322,96	1820,64
323,18	1624,04
323,39	1662,95
323,60	1679,33
323,81	1785,83
324,03	1712,10
324,24	1708,01
324,45	1691,62
324,66	1724,39
324,88	1767,40
325,09	1775,59
325,30	1703,91
325,52	1730,53
325,73	1753,06
325,94	1628,14
326,15	1634,28
326,37	1724,39
326,58	1765,35
326,79	1781,73
327,00	1753,06
327,22	1722,34
327,43	1722,34
327,64	1695,72
327,85	1710,05
328,07	1734,63
328,28	1857,51
328,49	1685,48
328,70	1769,44
328,92	1718,25
329,13	1738,73
329,34	1724,39
329,55	1845,22
329,76	1806,31
329,98	1646,57
330,19	1730,53
330,40	1777,64
330,61	1779,68
330,83	1689,57
331,04	1658,85
331,25	1699,81
331,46	1777,64
331,68	1650,66
331,89	1697,77
332,10	1773,54
332,31	1732,58
332,52	1642,47
332,74	1832,93
332,95	1695,72
333,16	1705,96
333,37	1789,92
333,58	1744,87
333,80	1746,92
334,01	1669,09
334,22	1794,02
334,43	1726,44
334,64	1675,24
334,86	1658,85
335,07	1648,61
335,28	1748,97
335,49	1658,85
335,70	1718,25
335,92	1740,77
336,13	1877,99
336,34	1740,77
336,55	1681,38
336,76	1689,57
336,98	1640,42
337,19	1724,39
337,40	1853,41
337,61	1865,70
337,82	1691,62
338,04	1751,01
338,25	1652,71
338,46	1746,92
338,67	1738,73
338,88	1644,52
339,09	1626,09
339,31	1591,27
339,52	1619,94
339,73	1667,05
339,94	1703,91
340,15	1718,25
340,36	1703,91
340,58	1734,63
340,79	1646,57
341,00	1744,87
341,21	1712,10
341,42	1751,01
341,63	1642,47
341,85	1742,82
342,06	1708,01
342,27	1691,62
342,48	1873,89
342,69	1689,57
342,90	1771,49
343,12	1708,01
343,33	1722,34
343,54	1714,15
343,75	1820,64
343,96	1765,35
344,17	1662,95
344,38	1703,91
344,60	1718,25
344,81	1695,72
345,02	1767,40
345,23	1777,64
345,44	1728,49
345,65	1777,64
345,86	1677,29
346,07	1767,40
346,29	1712,10
346,50	1791,97
346,71	1796,07
346,92	1759,21
347,13	1877,99
347,34	1738,73
347,55	1730,53
347,76	1791,97
347,98	1685,48
348,19	1734,63
348,40	1773,54
348,61	1669,09
348,82	1804,26
349,03	1736,68
349,24	1773,54
349,45	1748,97
349,66	1638,38
349,88	1757,16
350,09	1662,95
350,30	1785,83
350,51	1794,02
350,72	1679,33
350,93	1798,12
351,14	1697,77
351,35	1763,30
351,56	1759,21
351,77	1679,33
351,99	1714,15
352,20	1806,31
352,41	1839,08
352,62	1628,14
352,83	1662,95
353,04	1705,96
353,25	1718,25
353,46	1806,31
353,67	1767,40
353,88	1654,76
354,09	1796,07
354,30	1689,57
354,52	1800,16
354,73	1736,68
354,94	1757,16
355,15	1746,92
355,36	1929,19
355,57	1652,71
355,78	1736,68
355,99	1728,49
356,20	1708,01
356,41	1865,70
356,62	1703,91
356,83	1765,35
357,04	1810,40
357,25	1644,52
357,46	1779,68
357,68	1642,47
357,89	1691,62
358,10	1675,24
358,31	1791,97
358,52	1748,97
358,73	1656,81
358,94	1675,24
359,15	1585,13
359,36	1687,53
359,57	1767,40
359,78	1738,73
359,99	1789,92
360,20	1697,77
360,41	1689,57
360,62	1744,87
360,83	1757,16
361,04	1763,30
361,25	1785,83
361,46	1804,26
361,67	1746,92
361,88	1841,12
362,09	1769,44
362,30	1787,88
362,51	1701,86
362,72	1740,77
362,93	1779,68
363,14	1806,31
363,35	1697,77
363,56	1605,61
363,78	1781,73
363,99	1757,16
364,20	1675,24
364,41	1652,71
364,62	1791,97
364,83	1800,16
365,04	1722,34
365,25	1757,16
365,46	1818,60
365,67	1665,00
365,88	1628,14
366,09	1671,14
366,30	1638,38
366,51	1705,96
366,72	1628,14
366,93	1689,57
367,14	1714,15
367,35	1755,11
367,56	1675,24
367,77	1755,11
367,98	1736,68
368,18	1728,49
368,39	1826,79
368,60	1744,87
368,81	1771,49
369,02	1767,40
369,23	1697,77
369,44	1667,05
369,65	1607,66
369,86	1806,31
370,07	1773,54
370,28	1667,05
370,49	1800,16
370,70	1724,39
370,91	1710,05
371,12	1679,33
371,33	1802,21
371,54	1658,85
371,75	1814,50
371,96	1505,26
372,17	1712,10
372,38	1767,40
372,59	1751,01
372,80	1703,91
373,01	1726,44
373,22	1746,92
373,43	1718,25
373,64	1695,72
373,85	1783,78
374,06	1894,37
374,26	1767,40
374,47	1689,57
374,68	1767,40
374,89	1681,38
375,10	1701,86
375,31	1800,16
375,52	1738,73
375,73	1705,96
375,94	1681,38
376,15	1822,69
376,36	1673,19
376,57	1660,90
376,78	1708,01
376,99	1734,63
377,20	1796,07
377,40	1730,53
377,61	1855,46
377,82	1673,19
378,03	1877,99
378,24	1820,64
378,45	1726,44
378,66	1759,21
378,87	1648,61
379,08	1658,85
379,29	1718,25
379,50	1761,25
379,71	1712,10
379,91	1748,97
380,12	1769,44
380,33	1691,62
380,54	1744,87
380,75	1667,05
380,96	1708,01
381,17	1773,54
381,38	1708,01
381,59	1763,30
381,80	1642,47
382,00	1892,32
382,21	1861,60
382,42	1861,60
382,63	1896,42
382,84	1748,97
383,05	1847,27
383,26	1847,27
383,47	1744,87
383,68	1816,55
383,88	1763,30
384,09	1812,45
384,30	1802,21
384,51	1759,21
384,72	1685,48
384,93	1630,18
385,14	1671,14
385,35	1816,55
385,55	1595,37
385,76	1808,36
385,97	1748,97
386,18	1640,42
386,39	1662,95
386,60	1650,66
386,81	1722,34
387,02	1607,66
387,22	1675,24
387,43	1818,60
387,64	1814,50
387,85	1851,36
388,06	2195,42
388,27	4220,86
388,48	6813,59
388,68	8191,88
388,89	9690,99
389,10	9711,47
389,31	8652,67
389,52	7507,85
389,73	6690,71
389,93	6272,93
390,14	5851,05
390,35	5369,77
390,56	4460,48
390,77	3794,89
390,98	3069,91
391,18	2525,15
391,39	2056,16
391,60	1826,79
391,81	1871,84
392,02	1767,40
392,23	1814,50
392,43	1755,11
392,64	1812,45
392,85	1751,01
393,06	1828,84
393,27	1673,19
393,47	1740,77
393,68	1710,05
393,89	1734,63
394,10	1834,98
394,31	1701,86
394,52	1718,25
394,72	1720,29
394,93	1783,78
395,14	1683,43
395,35	1769,44
395,56	1624,04
395,76	1787,88
395,97	1812,45
396,18	1808,36
396,39	1828,84
396,60	2054,11
396,80	1931,23
397,01	1902,56
397,22	1812,45
397,43	1785,83
397,64	1781,73
397,84	1826,79
398,05	1857,51
398,26	1726,44
398,47	1847,27
398,67	1763,30
398,88	1748,97
399,09	1724,39
399,30	1632,23
399,51	1755,11
399,71	1714,15
399,92	1744,87
400,13	1789,92
400,34	1675,24
400,54	1691,62
400,75	1822,69
400,96	1648,61
401,17	1753,06
401,37	1720,29
401,58	1757,16
401,79	1849,32
402,00	1871,84
402,21	2105,31
402,41	2025,44
402,62	1992,67
402,83	1972,19
403,04	1990,63
403,24	2138,08
403,45	1849,32
403,66	1925,09
403,87	1912,80
404,07	1888,23
404,28	1920,99
404,49	1884,13
404,70	1816,55
404,90	1769,44
405,11	1775,59
405,32	1777,64
405,52	1726,44
405,73	1667,05
405,94	1718,25
406,15	1705,96
406,35	1748,97
406,56	1765,35
406,77	1824,74
406,98	1732,58
407,18	1658,85
407,39	1820,64
407,60	1697,77
407,80	1724,39
408,01	1658,85
408,22	1695,72
408,43	1705,96
408,63	1738,73
408,84	1712,10
409,05	1886,18
409,25	1665,00
409,46	1634,28
409,67	1687,53
409,88	1669,09
410,08	1779,68
410,29	1693,67
410,50	1767,40
410,70	1722,34
410,91	1613,80
411,12	1744,87
411,32	1763,30
411,53	1705,96
411,74	1884,13
411,95	1859,56
412,15	1705,96
412,36	1738,73
412,57	1705,96
412,77	1705,96
412,98	1755,11
413,19	1763,30
413,39	1748,97
413,60	1755,11
413,81	1787,88
414,01	1722,34
414,22	1828,84
414,43	1736,68
414,63	1718,25
414,84	1714,15
415,05	1703,91
415,25	1708,01
415,46	1710,05
415,67	1755,11
415,87	1744,87
416,08	1652,71
416,29	1673,19
416,49	1763,30
416,70	1681,38
416,91	1744,87
417,11	1705,96
417,32	1691,62
417,53	1787,88
417,73	1738,73
417,94	1716,20
418,15	1652,71
418,35	1699,81
418,56	1755,11
418,77	1849,32
418,97	1722,34
419,18	1705,96
419,38	1632,23
419,59	1728,49
419,80	1732,58
420,00	1693,67
420,21	1763,30
420,42	1701,86
420,62	1740,77
420,83	1689,57
421,04	1785,83
421,24	1730,53
421,45	1806,31
421,65	1742,82
421,86	1644,52
422,07	1804,26
422,27	1773,54
422,48	1669,09
422,69	1673,19
422,89	1691,62
423,10	1650,66
423,30	1589,22
423,51	1738,73
423,72	1701,86
423,92	1724,39
424,13	1695,72
424,33	1765,35
424,54	1712,10
424,75	1689,57
424,95	1877,99
425,16	1695,72
425,36	1751,01
425,57	1804,26
425,78	1775,59
425,98	1796,07
426,19	1695,72
426,39	1710,05
426,60	1761,25
426,81	1841,12
427,01	1726,44
427,22	1705,96
427,42	1656,81
427,63	1685,48
427,83	1810,40
428,04	1820,64
428,25	1769,44
428,45	1837,03
428,66	1773,54
428,86	1751,01
429,07	1726,44
429,28	1742,82
429,48	1689,57
429,69	1689,57
429,89	1683,43
430,10	1638,38
430,30	1808,36
430,51	1744,87
430,71	1710,05
430,92	1658,85
431,13	1619,94
431,33	1810,40
431,54	1794,02
431,74	1841,12
431,95	1775,59
432,15	1626,09
432,36	1742,82
432,56	1781,73
432,77	1753,06
432,98	1826,79
433,18	1763,30
433,39	1708,01
433,59	1765,35
433,80	1789,92
434,00	1861,60
434,21	1658,85
434,41	1685,48
434,62	1902,56
434,82	1601,51
435,03	1624,04
435,23	1781,73
435,44	1691,62
435,64	1687,53
435,85	1693,67
436,06	1771,49
436,26	1693,67
436,47	1724,39
436,67	1738,73
436,88	1703,91
437,08	1783,78
437,29	1763,30
437,49	1855,46
437,70	1751,01
437,90	1753,06
438,11	1910,75
438,31	1804,26
438,52	1828,84
438,72	1834,98
438,93	1906,66
439,13	1783,78
439,34	1767,40
439,54	1796,07
439,75	1837,03
439,95	1789,92
440,16	1742,82
440,36	1800,16
440,57	1794,02
440,77	1771,49
440,98	1783,78
441,18	1726,44
441,39	1685,48
441,59	1669,09
441,80	1832,93
442,00	1732,58
442,21	1865,70
442,41	1751,01
442,62	1810,40
442,82	1683,43
443,02	1718,25
443,23	1726,44
443,43	1697,77
443,64	1757,16
443,84	1703,91
444,05	1798,12
444,25	1771,49
444,46	1730,53
444,66	1675,24
444,87	1841,12
445,07	1759,21
445,28	1775,59
445,48	1888,23
445,69	1779,68
445,89	1904,61
446,09	1759,21
446,30	1994,72
446,50	2684,89
446,71	3723,21
446,91	4321,21
447,12	4845,49
447,32	4802,49
447,53	4384,70
447,73	4034,50
447,93	3471,31
448,14	3377,10
448,34	3303,37
448,55	2936,79
448,75	2768,85
448,96	2617,30
449,16	2418,65
449,36	2269,15
449,57	2160,61
449,77	1882,08
449,98	1867,75
450,18	1804,26
450,39	1765,35
450,59	1798,12
450,79	1722,34
451,00	1644,52
451,20	1816,55
451,41	1699,81
451,61	1779,68
451,81	1787,88
452,02	1730,53
452,22	1691,62
452,43	1708,01
452,63	1695,72
452,84	1791,97
453,04	1705,96
453,24	1701,86
453,45	1652,71
453,65	1728,49
453,86	1796,07
454,06	1796,07
454,26	1812,45
454,47	1724,39
454,67	1771,49
454,87	1769,44
455,08	1687,53
455,28	1777,64
455,49	1746,92
455,69	1724,39
455,89	1857,51
456,10	1830,88
456,30	1789,92
456,51	1720,29
456,71	1779,68
456,91	1740,77
457,12	1763,30
457,32	1820,64
457,52	1699,81
457,73	1779,68
457,93	1789,92
458,14	1738,73
458,34	1703,91
458,54	1697,77
458,75	1751,01
458,95	1826,79
459,15	1734,63
459,36	1746,92
459,56	1742,82
459,76	1787,88
459,97	1724,39
460,17	1720,29
460,37	1837,03
460,58	1697,77
460,78	1773,54
460,99	1746,92
461,19	1765,35
461,39	1671,14
461,60	1736,68
461,80	1742,82
462,00	1630,18
462,21	1728,49
462,41	1689,57
462,61	1677,29
462,82	1730,53
463,02	1796,07
463,22	1708,01
463,43	1753,06
463,63	1730,53
463,83	1843,17
464,04	1740,77
464,24	1757,16
464,44	1658,85
464,64	1722,34
464,85	1765,35
465,05	1802,21
465,25	1736,68
465,46	1693,67
465,66	1773,54
465,86	1839,08
466,07	1791,97
466,27	1767,40
466,47	1599,46
466,68	1669,09
466,88	1886,18
467,08	1812,45
467,29	1804,26
467,49	1726,44
467,69	1701,86
467,89	1650,66
468,10	1748,97
468,30	1763,30
468,50	1789,92
468,71	1671,14
468,91	1650,66
469,11	1964,00
469,31	1736,68
469,52	1679,33
469,72	1859,56
469,92	1839,08
470,13	1746,92
470,33	1779,68
470,53	1886,18
470,73	2052,06
470,94	2283,49
471,14	2324,44
471,34	2531,29
471,54	2451,42
471,75	2254,81
471,95	2140,13
472,15	2164,70
472,36	2107,36
472,56	1935,33
472,76	2060,26
472,96	2121,70
473,17	1957,86
473,37	1892,32
473,57	1816,55
473,77	1834,98
473,98	1755,11
474,18	1662,95
474,38	1914,85
474,58	1705,96
474,79	1701,86
474,99	1746,92
475,19	1783,78
475,39	1701,86
475,60	1701,86
475,80	1701,86
476,00	1748,97
476,20	1746,92
476,41	1730,53
476,61	1763,30
476,81	1828,84
477,01	1751,01
477,21	1914,85
477,42	1861,60
477,62	1669,09
477,82	1791,97
478,02	1691,62
478,23	1777,64
478,43	1667,05
478,63	1740,77
478,83	1689,57
479,03	1693,67
479,24	1847,27
479,44	1849,32
479,64	1685,48
479,84	1626,09
480,04	1656,81
480,25	1732,58
480,45	1726,44
480,65	1734,63
480,85	1794,02
481,06	1634,28
481,26	1769,44
481,46	1730,53
481,66	1734,63
481,86	1591,27
482,06	1798,12
482,27	1746,92
482,47	1716,20
482,67	1730,53
482,87	1648,61
483,07	1849,32
483,28	1687,53
483,48	1642,47
483,68	1621,99
483,88	1671,14
484,08	1591,27
484,29	1667,05
484,49	1783,78
484,69	1689,57
484,89	1791,97
485,09	1812,45
485,29	1826,79
485,50	1705,96
485,70	1712,10
485,90	1834,98
486,10	1679,33
486,30	1800,16
486,50	1830,88
486,71	1699,81
486,91	1806,31
487,11	1705,96
487,31	1712,10
487,51	1714,15
487,71	1669,09
487,91	1652,71
488,12	1662,95
488,32	1634,28
488,52	1646,57
488,72	1576,94
488,92	1730,53
489,12	1898,47
489,32	1824,74
489,53	1789,92
489,73	1640,42
489,93	1791,97
490,13	1691,62
490,33	1675,24
490,53	1742,82
490,73	1783,78
490,94	1669,09
491,14	1828,84
491,34	1818,60
491,54	2066,40
491,74	2625,50
491,94	2963,41
492,14	3102,67
492,34	3131,34
492,54	2781,14
492,75	2488,28
492,95	2496,47
493,15	2254,81
493,35	2289,63
493,55	2230,24
493,75	2160,61
493,95	2238,43
494,15	2047,97
494,35	1968,10
494,56	1796,07
494,76	1789,92
494,96	1757,16
495,16	1861,60
495,36	1798,12
495,56	1712,10
495,76	1751,01
495,96	1818,60
496,16	1675,24
496,36	1877,99
496,56	1808,36
496,77	1722,34
496,97	1718,25
497,17	1808,36
497,37	1646,57
497,57	1718,25
497,77	1767,40
497,97	1640,42
498,17	1748,97
498,37	1771,49
498,57	1773,54
498,77	1759,21
498,97	1820,64
499,17	1828,84
499,38	1804,26
499,58	1740,77
499,78	1767,40
499,98	1812,45
500,18	1722,34
500,38	1716,20
500,58	1935,33
500,78	2512,86
500,98	4589,50
501,18	5947,30
501,38	6735,77
501,58	7141,27
501,78	6786,97
501,98	5543,85
502,18	5072,82
502,38	4440,00
502,58	4231,10
502,78	3801,03
502,98	3641,29
503,18	3401,68
503,38	3166,16
503,59	2809,81
503,79	2648,02
503,99	2478,04
504,19	2369,50
504,39	2150,37
504,59	2215,90
504,79	2060,26
504,99	2093,02
505,19	1906,66
505,39	1947,62
505,59	1968,10
505,79	1959,91
505,99	1824,74
506,19	1783,78
506,39	1896,42
506,59	1720,29
506,79	1763,30
506,99	1789,92
507,19	1773,54
507,39	1720,29
507,59	1660,90
507,79	1736,68
507,99	1638,38
508,19	1785,83
508,39	1722,34
508,59	1763,30
508,79	1931,23
508,99	1832,93
509,19	1691,62
509,39	1812,45
509,59	1685,48
509,79	1671,14
509,99	1796,07
510,19	1884,13
510,39	1796,07
510,59	1734,63
510,79	1730,53
510,99	1697,77
511,19	1705,96
511,39	1816,55
511,59	1843,17
511,79	1855,46
511,99	1716,20
512,19	1861,60
512,38	1806,31
512,58	1687,53
512,78	1773,54
512,98	1765,35
513,18	1837,03
513,38	1609,70
513,58	1820,64
513,78	1744,87
513,98	1740,77
514,18	1718,25
514,38	1771,49
514,58	1763,30
514,78	1671,14
514,98	1712,10
515,18	1728,49
515,38	1708,01
515,58	1890,28
515,78	1828,84
515,98	1816,55
516,18	1824,74
516,38	1738,73
516,57	1763,30
516,77	1699,81
516,97	1683,43
517,17	1712,10
517,37	1619,94
517,57	1882,08
517,77	1808,36
517,97	1761,25
518,17	1730,53
518,37	1699,81
518,57	1791,97
518,77	1712,10
518,97	1763,30
519,16	1777,64
519,36	1746,92
519,56	1783,78
519,76	1724,39
519,96	1802,21
520,16	1841,12
520,36	1681,38
520,56	1796,07
520,76	1669,09
520,96	1757,16
521,16	1886,18
521,35	1748,97
521,55	1882,08
521,75	1710,05
521,95	1689,57
522,15	1689,57
522,35	1710,05
522,55	1718,25
522,75	1767,40
522,95	1751,01
523,14	1669,09
523,34	1681,38
523,54	1705,96
523,74	1806,31
523,94	1791,97
524,14	1697,77
524,34	1763,30
524,54	1779,68
524,73	1757,16
524,93	1742,82
525,13	1824,74
525,33	1636,33
525,53	1839,08
525,73	1806,31
525,93	1714,15
526,13	1775,59
526,32	1783,78
526,52	1734,63
526,72	1722,34
526,92	1726,44
527,12	1812,45
527,32	1716,20
527,52	1818,60
527,71	1818,60
527,91	1732,58
528,11	1832,93
528,31	1767,40
528,51	1718,25
528,71	1728,49
528,90	1791,97
529,10	1787,88
529,30	1877,99
529,50	1665,00
529,70	1757,16
529,90	1697,77
530,09	1785,83
530,29	1687,53
530,49	1738,73
530,69	1884,13
530,89	1718,25
531,09	1824,74
531,28	1677,29
531,48	1806,31
531,68	1634,28
531,88	1806,31
532,08	1812,45
532,28	1759,21
532,47	1763,30
532,67	1820,64
532,87	1785,83
533,07	1714,15
533,27	1718,25
533,46	1777,64
533,66	1761,25
533,86	1789,92
534,06	1689,57
534,26	1775,59
534,45	1701,86
534,65	1753,06
534,85	1734,63
535,05	1628,14
535,25	1837,03
535,44	1656,81
535,64	1753,06
535,84	1748,97
536,04	1726,44
536,24	1673,19
536,43	1677,29
536,63	1771,49
536,83	1722,34
537,03	1787,88
537,22	1656,81
537,42	1685,48
537,62	1763,30
537,82	1656,81
538,02	1826,79
538,21	1894,37
538,41	1892,32
538,61	1814,50
538,81	1742,82
539,00	1865,70
539,20	1644,52
539,40	1804,26
539,60	1748,97
539,79	1761,25
539,99	1726,44
540,19	1681,38
540,39	1740,77
540,58	1751,01
540,78	1736,68
540,98	1798,12
541,18	1687,53
541,37	1757,16
541,57	1779,68
541,77	1765,35
541,97	1722,34
542,16	1648,61
542,36	1675,24
542,56	1753,06
542,76	1847,27
542,95	1746,92
543,15	1777,64
543,35	1787,88
543,54	1712,10
543,74	1753,06
543,94	1820,64
544,14	1689,57
544,33	1710,05
544,53	1757,16
544,73	1675,24
544,93	1755,11
545,12	1695,72
545,32	1779,68
545,52	1689,57
545,71	1691,62
545,91	1761,25
546,11	1724,39
546,30	1726,44
546,50	1806,31
546,70	1740,77
546,90	1759,21
547,09	1669,09
547,29	1689,57
547,49	1865,70
547,68	1724,39
547,88	1675,24
548,08	1818,60
548,27	2144,22
548,47	1697,77
548,67	1714,15
548,87	1785,83
549,06	1779,68
549,26	1783,78
549,46	1740,77
549,65	1705,96
549,85	1763,30
550,05	1830,88
550,24	1669,09
550,44	1757,16
550,64	1726,44
550,83	1734,63
551,03	1794,02
551,23	1783,78
551,42	1847,27
551,62	1703,91
551,82	1701,86
552,01	1738,73
552,21	1869,80
552,41	1822,69
552,60	1779,68
552,80	1763,30
553,00	1744,87
553,19	1732,58
553,39	1808,36
553,59	1558,50
553,78	1796,07
553,98	1751,01
554,17	1671,14
554,37	1783,78
554,57	1759,21
554,76	1771,49
554,96	1626,09
555,16	1724,39
555,35	1812,45
555,55	1755,11
555,75	1734,63
555,94	1783,78
556,14	1636,33
556,33	1816,55
556,53	1759,21
556,73	1746,92
556,92	1767,40
557,12	1843,17
557,32	1937,38
557,51	1863,65
557,71	1773,54
557,90	1914,85
558,10	1828,84
558,30	1652,71
558,49	1730,53
558,69	1728,49
558,88	1832,93
559,08	1759,21
559,28	1691,62
559,47	1751,01
559,67	1732,58
559,86	1916,90
560,06	1791,97
560,26	1779,68
560,45	1796,07
560,65	1796,07
560,84	1769,44
561,04	1804,26
561,24	1738,73
561,43	1773,54
561,63	1826,79
561,82	1724,39
562,02	1804,26
562,22	1695,72
562,41	1781,73
562,61	1730,53
562,80	1746,92
563,00	1927,14
563,19	1777,64
563,39	1761,25
563,59	1798,12
563,78	1716,20
563,98	1628,14
564,17	1701,86
564,37	1703,91
564,56	1755,11
564,76	1714,15
564,96	1853,41
565,15	1734,63
565,35	1877,99
565,54	1773,54
565,74	1804,26
565,93	1787,88
566,13	1732,58
566,32	1781,73
566,52	1796,07
566,71	1757,16
566,91	1796,07
567,11	1718,25
567,30	1767,40
567,50	1773,54
567,69	1787,88
567,89	1812,45
568,08	1769,44
568,28	1806,31
568,47	1632,23
568,67	1791,97
568,86	1693,67
569,06	1771,49
569,25	1775,59
569,45	1679,33
569,64	1728,49
569,84	1689,57
570,04	1777,64
570,23	1660,90
570,43	1781,73
570,62	1681,38
570,82	1724,39
571,01	1675,24
571,21	1685,48
571,40	1681,38
571,60	1783,78
571,79	1730,53
571,99	1728,49
572,18	1742,82
572,38	1742,82
572,57	1734,63
572,77	1804,26
572,96	1939,43
573,16	1802,21
573,35	1789,92
573,55	1791,97
573,74	1796,07
573,94	1728,49
574,13	1695,72
574,33	1816,55
574,52	1857,51
574,71	1837,03
574,91	1816,55
575,10	1716,20
575,30	1703,91
575,49	1722,34
575,69	1701,86
575,88	1816,55
576,08	1753,06
576,27	1865,70
576,47	1718,25
576,66	1800,16
576,86	1787,88
577,05	1787,88
577,25	1843,17
577,44	1912,80
577,64	1693,67
577,83	1755,11
578,02	1742,82
578,22	1765,35
578,41	1845,22
578,61	1716,20
578,80	1624,04
579,00	1822,69
579,19	1748,97
579,39	1830,88
579,58	1828,84
579,77	1794,02
579,97	1785,83
580,16	1822,69
580,36	1851,36
580,55	1880,04
580,75	1761,25
580,94	1796,07
581,13	1863,65
581,33	1820,64
581,52	1785,83
581,72	1847,27
581,91	1867,75
582,11	1884,13
582,30	1837,03
582,49	1820,64
582,69	1863,65
582,88	1787,88
583,08	1718,25
583,27	1837,03
583,47	1777,64
583,66	1726,44
583,85	1791,97
584,05	1796,07
584,24	1806,31
584,44	1783,78
584,63	1800,16
584,82	1849,32
585,02	1826,79
585,21	1920,99
585,41	1863,65
585,60	1855,46
585,79	1998,82
585,99	1961,95
586,18	1894,37
586,37	2238,43
586,57	3243,98
586,76	9955,18
586,96	24493,71
587,15	34680,30
587,34	40768,91
587,54	42540,41
587,73	36627,92
587,93	26527,34
588,12	21397,18
588,31	18378,47
588,51	16457,48
588,70	15173,40
588,89	14364,45
589,09	12625,73
589,28	11046,74
589,47	9217,91
589,67	7989,13
589,86	6399,90
590,06	4960,18
590,25	3846,09
590,44	3084,24
590,64	2512,86
590,83	2273,25
591,02	2166,75
591,22	1998,82
591,41	1867,75
591,60	1849,32
591,80	1972,19
591,99	1822,69
592,18	1763,30
592,38	1886,18
592,57	1814,50
592,76	1728,49
592,96	1734,63
593,15	1789,92
593,34	1802,21
593,54	1800,16
593,73	1828,84
593,92	1810,40
594,12	1728,49
594,31	1699,81
594,50	1843,17
594,70	1812,45
594,89	1947,62
595,08	1699,81
595,28	1853,41
595,47	1939,43
595,66	1894,37
595,86	1771,49
596,05	1681,38
596,24	1759,21
596,43	1925,09
596,63	1798,12
596,82	1775,59
597,01	1748,97
597,21	1818,60
597,40	1818,60
597,59	1742,82
597,79	1761,25
597,98	1773,54
598,17	1734,63
598,36	1740,77
598,56	1861,60
598,75	1683,43
598,94	1767,40
599,14	1789,92
599,33	1771,49
599,52	1798,12
599,71	1730,53
599,91	1791,97
600,10	1791,97
600,29	1740,77
600,48	1771,49
600,68	1775,59
600,87	1738,73
601,06	1728,49
601,26	1746,92
601,45	1734,63
601,64	1779,68
601,83	1755,11
602,03	1748,97
602,22	1660,90
602,41	1853,41
602,60	1884,13
602,80	1746,92
602,99	1777,64
603,18	1771,49
603,37	1757,16
603,57	1759,21
603,76	1832,93
603,95	1863,65
604,14	1869,80
604,34	1689,57
604,53	1779,68
604,72	1753,06
604,91	1783,78
605,10	1800,16
605,30	1703,91
605,49	1886,18
605,68	1738,73
605,87	1906,66
606,07	1646,57
606,26	1802,21
606,45	1798,12
606,64	1716,20
606,84	1712,10
607,03	1712,10
607,22	1802,21
607,41	1644,52
607,60	1785,83
607,80	1796,07
607,99	1755,11
608,18	1753,06
608,37	1751,01
608,56	1705,96
608,76	1806,31
608,95	1841,12
609,14	1779,68
609,33	1783,78
609,52	1783,78
609,72	1742,82
609,91	1804,26
610,10	1798,12
610,29	1820,64
610,48	1787,88
610,68	1789,92
610,87	1708,01
611,06	1816,55
611,25	1681,38
611,44	1765,35
611,63	1679,33
611,83	1791,97
612,02	1607,66
612,21	1759,21
612,40	1748,97
612,59	1718,25
612,79	1615,85
612,98	1748,97
613,17	1923,04
613,36	1665,00
613,55	1824,74
613,74	1693,67
613,93	1710,05
614,13	1630,18
614,32	1716,20
614,51	1787,88
614,70	1658,85
614,89	1746,92
615,08	1777,64
615,28	2111,46
615,47	1746,92
615,66	1791,97
615,85	1748,97
616,04	1798,12
616,23	1705,96
616,42	1794,02
616,62	1757,16
616,81	1804,26
617,00	1701,86
617,19	1757,16
617,38	1697,77
617,57	1720,29
617,76	1767,40
617,95	1798,12
618,15	1769,44
618,34	1798,12
618,53	1669,09
618,72	1812,45
618,91	1781,73
619,10	1865,70
619,29	1742,82
619,48	1738,73
619,68	1691,62
619,87	1789,92
620,06	1685,48
620,25	1814,50
620,44	1716,20
620,63	1761,25
620,82	1722,34
621,01	1779,68
621,20	1732,58
621,39	1759,21
621,59	1779,68
621,78	1746,92
621,97	1726,44
622,16	1767,40
622,35	1740,77
622,54	1757,16
622,73	1822,69
622,92	1687,53
623,11	1775,59
623,30	1705,96
623,49	1755,11
623,68	1683,43
623,88	1820,64
624,07	1726,44
624,26	1769,44
624,45	1837,03
624,64	1744,87
624,83	1759,21
625,02	1730,53
625,21	1724,39
625,40	1685,48
625,59	1806,31
625,78	1775,59
625,97	1800,16
626,16	1867,75
626,35	1734,63
626,54	1685,48
626,74	1751,01
626,93	1703,91
627,12	1718,25
627,31	1742,82
627,50	1814,50
627,69	1722,34
627,88	1734,63
628,07	1689,57
628,26	1740,77
628,45	1710,05
628,64	1691,62
628,83	1662,95
629,02	1671,14
629,21	1724,39
629,40	1714,15
629,59	1617,90
629,78	1738,73
629,97	1701,86
630,16	1726,44
630,35	1703,91
630,54	1714,15
630,73	1693,67
630,92	1736,68
631,11	1708,01
631,30	1791,97
631,49	1812,45
631,68	1705,96
631,87	1732,58
632,06	1583,08
632,25	1880,04
632,44	1683,43
632,63	1787,88
632,82	1652,71
633,01	1685,48
633,20	1697,77
633,39	1742,82
633,58	1695,72
633,77	1757,16
633,96	1763,30
634,15	1787,88
634,34	1732,58
634,53	1714,15
634,72	1712,10
634,91	1679,33
635,10	1710,05
635,29	1714,15
635,48	1695,72
635,67	1681,38
635,86	1646,57
636,05	1820,64
636,24	1742,82
636,43	1794,02
636,62	1791,97
636,81	1732,58
637,00	1695,72
637,19	1767,40
637,38	1730,53
637,57	1671,14
637,76	1673,19
637,95	1740,77
638,14	1746,92
638,33	1710,05
638,52	1679,33
638,71	1644,52
638,89	1644,52
639,08	1794,02
639,27	1822,69
639,46	1751,01
639,65	1767,40
639,84	1751,01
640,03	1693,67
640,22	1781,73
640,41	1785,83
640,60	1671,14
640,79	1771,49
640,98	1697,77
641,17	1767,40
641,36	1648,61
641,55	1789,92
641,74	1615,85
641,92	1771,49
642,11	1734,63
642,30	1691,62
642,49	1761,25
642,68	1742,82
642,87	1726,44
643,06	1708,01
643,25	1722,34
643,44	1746,92
643,63	1697,77
643,82	1853,41
644,00	1646,57
644,19	1771,49
644,38	1724,39
644,57	1767,40
644,76	1789,92
644,95	1701,86
645,14	1691,62
645,33	1775,59
645,52	1773,54
645,71	1687,53
645,89	1585,13
646,08	1701,86
646,27	1689,57
646,46	1869,80
646,65	1632,23
646,84	1697,77
647,03	1679,33
647,22	1789,92
647,40	1800,16
647,59	1708,01
647,78	1652,71
647,97	1710,05
648,16	1736,68
648,35	1832,93
648,54	1765,35
648,73	1632,23
648,91	1777,64
649,10	1789,92
649,29	1695,72
649,48	1763,30
649,67	1794,02
649,86	1722,34
650,05	1693,67
650,23	1736,68
650,42	1632,23
650,61	1769,44
650,80	1652,71
650,99	1873,89
651,18	1785,83
651,36	1808,36
651,55	1697,77
651,74	1791,97
651,93	1767,40
652,12	1691,62
652,31	1791,97
652,49	1748,97
652,68	1675,24
652,87	1839,08
653,06	1798,12
653,25	1886,18
653,44	1675,24
653,62	1853,41
653,81	1710,05
654,00	1767,40
654,19	1759,21
654,38	1914,85
654,56	1746,92
654,75	1697,77
654,94	1806,31
655,13	1824,74
655,32	1781,73
655,51	1787,88
655,69	1722,34
655,88	1845,22
656,07	1699,81
656,26	1820,64
656,45	1683,43
656,63	1757,16
656,82	1748,97
657,01	1837,03
657,20	1673,19
657,38	1873,89
657,57	1665,00
657,76	1648,61
657,95	1732,58
658,14	1765,35
658,32	1669,09
658,51	1740,77
658,70	1755,11
658,89	1746,92
659,08	1708,01
659,26	1808,36
659,45	1683,43
659,64	1746,92
659,83	1693,67
660,01	1941,47
660,20	1742,82
660,39	1783,78
660,58	1638,38
660,76	1794,02
660,95	1648,61
661,14	1697,77
661,33	1636,33
661,51	1738,73
661,70	1675,24
661,89	1847,27
662,08	1714,15
662,26	1648,61
662,45	1669,09
662,64	1834,98
662,83	1740,77
663,01	1671,14
663,20	1669,09
663,39	1742,82
663,58	1755,11
663,76	1699,81
663,95	1818,60
664,14	1712,10
664,32	1732,58
664,51	1667,05
664,70	1677,29
664,89	1732,58
665,07	1654,76
665,26	1798,12
665,45	1687,53
665,64	1796,07
665,82	1806,31
666,01	1886,18
666,20	1648,61
666,38	1808,36
666,57	1886,18
666,76	2367,45
666,95	4591,55
667,13	10725,21
667,32	15386,39
667,51	18167,53
667,69	19496,66
667,88	17637,11
668,07	12457,79
668,25	9779,05
668,44	8136,58
668,63	7419,79
668,81	6827,93
669,00	6131,62
669,19	5801,90
669,38	4992,95
669,56	4542,39
669,75	3971,01
669,94	3446,73
670,12	2904,02
670,31	2609,11
670,50	2320,35
670,68	2115,55
670,87	1839,08
671,06	1849,32
671,24	1830,88
671,43	1865,70
671,62	1808,36
671,80	1716,20
671,99	1783,78
672,18	1728,49
672,36	1777,64
672,55	1708,01
672,74	1777,64
672,92	1771,49
673,11	1734,63
673,29	1710,05
673,48	1839,08
673,67	1701,86
673,85	1753,06
674,04	1693,67
674,23	1783,78
674,41	1818,60
674,60	1734,63
674,79	1685,48
674,97	1677,29
675,16	1806,31
675,34	1726,44
675,53	1767,40
675,72	1787,88
675,90	1800,16
676,09	1769,44
676,28	1689,57
676,46	1734,63
676,65	1763,30
676,83	1734,63
677,02	1646,57
677,21	1714,15
677,39	1748,97
677,58	1761,25
677,77	1740,77
677,95	1601,51
678,14	1658,85
678,32	1730,53
678,51	1763,30
678,70	1828,84
678,88	1671,14
679,07	1769,44
679,25	1693,67
679,44	1697,77
679,63	1646,57
679,81	1818,60
680,00	1751,01
680,18	1667,05
680,37	1830,88
680,55	1779,68
680,74	1599,46
680,93	1667,05
681,11	1722,34
681,30	1697,77
681,48	1757,16
681,67	1738,73
681,85	1708,01
682,04	1730,53
682,23	1751,01
682,41	1757,16
682,60	1767,40
682,78	1751,01
682,97	1703,91
683,15	1738,73
683,34	1751,01
683,53	1859,56
683,71	1619,94
683,90	1789,92
684,08	1777,64
684,27	1714,15
684,45	1669,09
684,64	1814,50
684,82	1757,16
685,01	1773,54
685,19	1746,92
685,38	1849,32
685,57	1724,39
685,75	1718,25
685,94	1730,53
686,12	1636,33
686,31	1607,66
686,49	1839,08
686,68	1665,00
686,86	1837,03
687,05	1757,16
687,23	1939,43
687,42	1675,24
687,60	1595,37
687,79	1716,20
687,97	1716,20
688,16	1800,16
688,34	1765,35
688,53	1691,62
688,71	1714,15
688,90	1695,72
689,08	1722,34
689,27	1638,38
689,45	1763,30
689,64	1751,01
689,82	1703,91
690,01	1755,11
690,19	1699,81
690,38	1746,92
690,56	1814,50
690,75	1718,25
690,93	1644,52
691,12	1665,00
691,30	1660,90
691,49	1665,00
691,67	1734,63
691,86	1832,93
692,04	1652,71
692,23	1650,66
692,41	1681,38
692,60	1869,80
692,78	1777,64
692,97	1691,62
693,15	1746,92
693,34	1890,28
693,52	1767,40
693,71	1671,14
693,89	1759,21
694,08	1646,57
694,26	1806,31
694,44	1771,49
694,63	1708,01
694,81	1683,43
695,00	1648,61
695,18	1800,16
695,37	1816,55
695,55	1748,97
695,74	1648,61
695,92	1656,81
696,10	1820,64
696,29	1609,70
696,47	1708,01
696,66	1595,37
696,84	1669,09
697,03	1736,68
697,21	1765,35
697,40	2260,96
697,58	1789,92
697,76	1689,57
697,95	1742,82
698,13	1687,53
698,32	1740,77
698,50	1687,53
698,68	1798,12
698,87	1800,16
699,05	1748,97
699,24	1771,49
699,42	1667,05
699,61	1771,49
699,79	1710,05
699,97	1738,73
700,16	1714,15
700,34	1619,94
700,53	1689,57
700,71	1769,44
700,89	1771,49
701,08	1701,86
701,26	1828,84
701,45	2076,64
701,63	1755,11
701,81	1753,06
702,00	1656,81
702,18	1763,30
702,37	1685,48
702,55	1751,01
702,73	1701,86
702,92	1693,67
703,10	1757,16
703,28	1742,82
703,47	1730,53
703,65	1796,07
703,84	1738,73
704,02	1732,58
704,20	1832,93
704,39	1683,43
704,57	1712,10
704,75	1734,63
704,94	1724,39
705,12	1740,77
705,30	1804,26
705,49	2238,43
705,67	4595,64
705,86	9709,42
706,04	12687,17
706,22	14673,70
706,41	15447,83
706,59	13694,77
706,77	9545,58
706,96	7399,31
707,14	6543,26
707,32	5961,64
707,51	5482,41
707,69	4833,21
707,87	4204,48
708,06	3585,99
708,24	2830,29
708,42	2381,79
708,61	2150,37
708,79	1970,15
708,97	1880,04
709,16	1769,44
709,34	1769,44
709,52	1695,72
709,71	1753,06
709,89	1742,82
710,07	1724,39
710,26	1722,34
710,44	1691,62
710,62	1794,02
710,80	1757,16
710,99	1802,21
711,17	1755,11
711,35	1681,38
711,54	1724,39
711,72	1830,88
711,90	1742,82
712,09	1746,92
712,27	1595,37
712,45	1757,16
712,63	1677,29
712,82	1732,58
713,00	1658,85
713,18	1789,92
713,37	1820,64
713,55	1798,12
713,73	1755,11
713,91	1765,35
714,10	1763,30
714,28	1720,29
714,46	1828,84
714,65	1800,16
714,83	1699,81
715,01	1718,25
715,19	1701,86
715,38	1705,96
715,56	1705,96
715,74	1656,81
715,92	1705,96
716,11	1818,60
716,29	1703,91
716,47	1736,68
716,65	1669,09
716,84	1734,63
717,02	1761,25
717,20	1601,51
717,38	1683,43
717,57	1724,39
717,75	1734,63
717,93	1742,82
718,11	1726,44
718,30	1648,61
718,48	1681,38
718,66	1773,54
718,84	1757,16
719,03	1681,38
719,21	1693,67
719,39	1804,26
719,57	1755,11
719,75	1708,01
719,94	1705,96
720,12	1722,34
720,30	1718,25
720,48	1783,78
720,67	1726,44
720,85	1705,96
721,03	1695,72
721,21	1671,14
721,39	1808,36
721,58	1685,48
721,76	1714,15
721,94	1748,97
722,12	1724,39
722,30	1832,93
722,49	1673,19
722,67	1761,25
722,85	1701,86
723,03	1589,22
723,21	1730,53
723,40	1775,59
723,58	1751,01
723,76	1759,21
723,94	1777,64
724,12	1755,11
724,30	1736,68
724,49	1820,64
724,67	1673,19
724,85	1800,16
725,03	1658,85
725,21	1757,16
725,40	1783,78
725,58	1650,66
725,76	1794,02
725,94	1791,97
726,12	1720,29
726,30	1771,49
726,49	1794,02
726,67	1660,90
726,85	1738,73
727,03	1890,28
727,21	2195,42
727,39	2942,93
727,57	3897,28
727,76	4313,02
727,94	4401,08
728,12	4374,46
728,30	3770,31
728,48	3022,80
728,66	2725,85
728,84	2553,82
729,03	2308,06
729,21	2127,84
729,39	1994,72
729,57	1906,66
729,75	1853,41
729,93	1822,69
730,11	1703,91
730,30	1732,58
730,48	1789,92
730,66	1695,72
730,84	1759,21
731,02	1726,44
731,20	1644,52
731,38	1683,43
731,56	1640,42
731,74	1658,85
731,93	1732,58
732,11	1695,72
732,29	1636,33
732,47	1781,73
732,65	1728,49
732,83	1834,98
733,01	1757,16
733,19	1658,85
733,37	1771,49
733,56	1787,88
733,74	1691,62
733,92	1771,49
734,10	1675,24
734,28	1730,53
734,46	1669,09
734,64	1738,73
734,82	1695,72
735,00	1693,67
735,18	1642,47
735,36	1665,00
735,54	1632,23
735,73	1724,39
735,91	1701,86
736,09	1748,97
736,27	1701,86
736,45	1753,06
736,63	1628,14
736,81	1718,25
736,99	1806,31
737,17	1736,68
737,35	1703,91
737,53	1763,30
737,71	1726,44
737,89	1812,45
738,07	1718,25
738,25	1701,86
738,43	1667,05
738,61	1730,53
738,80	1605,61
738,98	1646,57
739,16	1763,30
739,34	1669,09
739,52	1800,16
739,70	1720,29
739,88	1753,06
740,06	1748,97
740,24	1609,70
740,42	1849,32
740,60	1654,76
740,78	1683,43
740,96	1665,00
741,14	1761,25
741,32	1769,44
741,50	1673,19
741,68	1857,51
741,86	1763,30
742,04	1681,38
742,22	1685,48
742,40	1691,62
742,58	1720,29
742,76	1730,53
742,94	1773,54
743,12	1632,23
743,30	1734,63
743,48	1781,73
743,66	1652,71
743,84	1759,21
744,02	1699,81
744,20	1667,05
744,38	1708,01
744,56	1732,58
744,74	1832,93
744,92	1802,21
745,10	1814,50
745,28	1746,92
745,46	1837,03
745,64	1734,63
745,82	1759,21
746,00	1808,36
746,18	1687,53
746,36	1613,80
746,54	1744,87
746,72	1736,68
746,90	1675,24
747,08	1765,35
747,26	1734,63
747,44	1841,12
747,62	1753,06
747,80	1748,97
747,98	1765,35
748,15	1828,84
748,33	1834,98
748,51	1722,34
748,69	1720,29
748,87	1689,57
749,05	1673,19
749,23	1726,44
749,41	1726,44
749,59	1701,86
749,77	1814,50
749,95	1648,61
750,13	1630,18
750,31	1794,02
750,49	1693,67
750,67	1773,54
750,85	1787,88
751,03	1708,01
751,20	1902,56
751,38	1689,57
751,56	1746,92
751,74	1724,39
751,92	1710,05
752,10	1689,57
752,28	1755,11
752,46	1658,85
752,64	1746,92
752,82	1730,53
753,00	1738,73
753,18	1712,10
753,35	1634,28
753,53	1654,76
753,71	1658,85
753,89	1753,06
754,07	1789,92
754,25	1816,55
754,43	1777,64
754,61	1675,24
754,79	1789,92
754,97	1740,77
755,14	1814,50
755,32	1634,28
755,50	1701,86
755,68	1740,77
755,86	1675,24
756,04	1738,73
756,22	1712,10
756,40	1834,98
756,57	1849,32
756,75	1642,47
756,93	1822,69
757,11	1800,16
757,29	1699,81
757,47	1619,94
757,65	1640,42
757,82	1654,76
758,00	1683,43
758,18	1736,68
758,36	1613,80
758,54	1720,29
758,72	1681,38
758,90	1769,44
759,07	1767,40
759,25	1658,85
759,43	1818,60
759,61	1634,28
759,79	2191,33
759,97	1726,44
760,15	1710,05
760,32	1714,15
760,50	1751,01
760,68	1884,13
760,86	1701,86
761,04	1849,32
761,22	1765,35
761,39	1699,81
761,57	1673,19
761,75	1732,58
761,93	1710,05
762,11	1705,96
762,28	1804,26
762,46	1705,96
762,64	1791,97
762,82	1642,47
763,00	1755,11
763,18	1802,21
763,35	1689,57
763,53	1816,55
763,71	1638,38
763,89	1744,87
764,07	1732,58
764,24	1730,53
764,42	1763,30
764,60	1687,53
764,78	1716,20
764,96	1785,83
765,13	1767,40
765,31	1685,48
765,49	1783,78
765,67	1677,29
765,84	1714,15
766,02	1775,59
766,20	1621,99
766,38	1751,01
766,56	1753,06
766,73	1738,73
766,91	1716,20
767,09	1736,68
767,27	1783,78
767,44	1691,62
767,62	1773,54
767,80	1691,62
767,98	1730,53
768,15	1701,86
768,33	1773,54
768,51	1822,69
768,69	1740,77
768,87	1761,25
769,04	1679,33
769,22	1845,22
769,40	1841,12
769,58	1935,33
769,75	1718,25
769,93	1775,59
770,11	1753,06
770,28	1701,86
770,46	1748,97
770,64	1751,01
770,82	1730,53
770,99	1675,24
771,17	1759,21
771,35	1611,75
771,53	1783,78
771,70	1689,57
771,88	1748,97
772,06	1742,82
772,23	1714,15
772,41	1738,73
772,59	1701,86
772,77	1609,70
772,94	1765,35
773,12	1834,98
773,30	1669,09
773,47	1830,88
773,65	1681,38
773,83	1830,88
774,01	1701,86
774,18	1611,75
774,36	1708,01
774,54	1693,67
774,71	1683,43
774,89	1671,14
775,07	1556,46
775,24	1728,49
775,42	1732,58
775,60	1820,64
775,78	1681,38
775,95	1617,90
776,13	1603,56
776,31	1646,57
776,48	1738,73
776,66	1755,11
776,84	1689,57
777,01	1699,81
777,19	1660,90
777,37	1640,42
777,54	1734,63
777,72	1804,26
777,90	1738,73
778,07	1689,57
778,25	1886,18
778,43	1765,35
778,60	1683,43
778,78	1744,87
778,96	1777,64
779,13	1632,23
779,31	1791,97
779,49	1736,68
779,66	1687,53
779,84	1730,53
780,01	1720,29
780,19	1714,15
780,37	1724,39
780,54	1720,29
780,72	1705,96
780,90	1660,90
781,07	1675,24
781,25	1710,05
781,43	1834,98
781,60	1658,85
781,78	1802,21
781,95	1677,29
782,13	1609,70
782,31	1679,33
782,48	1687,53
782,66	1695,72
782,83	1820,64
783,01	1695,72
783,19	1726,44
783,36	1710,05
783,54	1714,15
783,72	1710,05
783,89	1671,14
784,07	1714,15
784,24	1656,81
784,42	1783,78
784,60	1720,29
784,77	1783,78
784,95	1603,56
785,12	1642,47
785,30	1675,24
785,47	1650,66
785,65	1734,63
785,83	1636,33
786,00	1708,01
786,18	1689,57
786,35	1660,90
786,53	1621,99
786,71	1738,73
786,88	1728,49
787,06	1748,97
787,23	1705,96
787,41	1597,42
787,58	1755,11
787,76	1673,19
787,94	1730,53
788,11	1820,64
788,29	1603,56
788,46	1677,29
788,64	1611,75
788,81	1654,76
788,99	1675,24
789,16	1681,38
789,34	1789,92
789,52	1669,09
789,69	1742,82
789,87	1689,57
790,04	1751,01
790,22	1669,09
790,39	1875,94
790,57	1679,33
790,74	1609,70
790,92	1789,92
791,09	1599,46
791,27	1693,67
791,44	1828,84
791,62	1757,16
791,79	1781,73
791,97	1726,44
792,15	1929,19
792,32	1877,99
792,50	1775,59
792,67	1890,28
792,85	1746,92
793,02	1734,63
793,20	1654,76
793,37	1636,33
793,55	1724,39
793,72	1699,81
793,90	1751,01
794,07	1654,76
794,25	1695,72
794,42	1837,03
794,60	1695,72
794,77	1738,73
794,95	1697,77
795,12	1785,83
795,30	1652,71
795,47	1601,51
795,65	1925,09
795,82	1744,87
796,00	1650,66
796,17	1728,49
796,34	1681,38
796,52	1751,01
796,69	1828,84
796,87	1810,40
797,04	1736,68
797,22	1765,35
797,39	1708,01
797,57	1759,21
797,74	1716,20
797,92	1789,92
798,09	1712,10
798,27	1755,11
798,44	1656,81
798,62	1697,77
798,79	1773,54
798,96	1726,44
799,14	1681,38
799,31	1867,75
799,49	1718,25
799,66	1755,11
799,84	1843,17
800,01	1628,14
800,19	1751,01
800,36	1589,22
800,53	1685,48
800,71	1742,82
800,88	1789,92
801,06	1691,62
801,23	1644,52
801,41	1779,68
801,58	1708,01
801,75	1699,81
801,93	1740,77
802,10	1804,26
802,28	1800,16
802,45	1710,05
802,63	1738,73
802,80	1800,16
802,97	1787,88
803,15	1714,15
803,32	1718,25
803,50	1683,43
803,67	1658,85
803,84	1660,90
804,02	1728,49
804,19	1724,39
804,37	1615,85
804,54	1626,09
804,71	1724,39
804,89	1714,15
805,06	1642,47
805,24	1712,10
805,41	1648,61
805,58	1671,14
805,76	1820,64
805,93	1771,49
806,10	1845,22
806,28	1828,84
806,45	1724,39
806,63	1722,34
806,80	1642,47
806,97	1722,34
807,15	1726,44
807,32	1767,40
807,49	1744,87
807,67	1660,90
807,84	1701,86
808,01	1646,57
808,19	1826,79
808,36	1744,87
808,54	1677,29
808,71	1624,04
808,88	1726,44
809,06	1779,68
809,23	1751,01
809,40	1720,29
809,58	1796,07
809,75	1691,62
809,92	1691,62
810,10	1900,52
810,27	1763,30
810,44	1703,91
810,62	1738,73
810,79	1771,49
810,96	1626,09
811,14	1705,96
811,31	1710,05
811,48	1671,14
811,66	1736,68
811,83	1728,49
812,00	1744,87
812,18	1812,45
812,35	1847,27
812,52	1644,52
812,69	1777,64
812,87	1669,09
813,04	1710,05
813,21	1669,09
813,39	1722,34
813,56	1628,14
813,73	1722,34
813,91	1681,38
814,08	1708,01
814,25	1701,86
814,42	1673,19
814,60	1679,33
814,77	1726,44
814,94	1703,91
815,12	1726,44
815,29	1730,53
815,46	1665,00
815,63	1703,91
815,81	1753,06
815,98	1697,77
816,15	1695,72
816,33	1681,38
816,50	1718,25
816,67	1683,43
816,84	1753,06
817,02	1718,25
817,19	1755,11
817,36	1726,44
817,53	1681,38
817,71	1665,00
817,88	1746,92
818,05	1697,77
818,22	1667,05
818,40	1841,12
818,57	1722,34
818,74	1705,96
818,91	1691,62
819,09	1798,12
819,26	1791,97
819,43	1652,71
819,60	1726,44
819,78	1722,34
819,95	1716,20
820,12	1548,26
820,29	1779,68
820,47	1787,88
820,64	1697,77
820,81	1603,56
820,98	1652,71
821,15	1693,67
821,33	1738,73
821,50	1619,94
821,67	1771,49
821,84	1685,48
822,02	1734,63
822,19	1820,64
822,36	1656,81
822,53	1710,05
822,70	1736,68
822,88	1701,86
823,05	1783,78
823,22	1736,68
823,39	1759,21
823,56	1740,77
823,74	1787,88
823,91	1654,76
824,08	1607,66
824,25	1677,29
824,42	1779,68
824,60	1646,57
824,77	1710,05
824,94	1654,76
825,11	1767,40
825,28	1595,37
825,45	1703,91
825,63	1740,77
825,80	1626,09
825,97	1708,01
826,14	1708,01
826,31	1613,80
826,48	1714,15
826,66	1613,80
826,83	1710,05
827,00	1779,68
827,17	1685,48
827,34	1681,38
827,51	1648,61
827,69	1705,96
827,86	1583,08
828,03	1630,18
828,20	1689,57
828,37	1671,14
828,54	1775,59
828,71	1708,01
828,89	1808,36
829,06	1787,88
829,23	1767,40
829,40	1628,14
829,57	1667,05
829,74	1777,64
829,91	1730,53
830,09	1640,42
830,26	1740,77
830,43	1785,83
830,60	1738,73
830,77	1728,49
830,94	1791,97
831,11	1804,26
831,28	1671,14
831,46	1751,01
831,63	1667,05
831,80	1742,82
831,97	1675,24
832,14	1665,00
832,31	1673,19
832,48	1757,16
832,65	1740,77
832,82	1736,68
832,99	1761,25
833,17	1751,01
833,34	1730,53
833,51	1708,01
833,68	1644,52
833,85	1789,92
834,02	1673,19
834,19	1619,94
834,36	1708,01
834,53	1746,92
834,70	1783,78
834,87	1841,12
835,04	1746,92
835,22	1712,10
835,39	1701,86
835,56	1636,33
835,73	1689,57
835,90	1677,29
836,07	1683,43
836,24	1769,44
836,41	1648,61
836,58	1748,97
836,75	1755,11
836,92	1697,77
837,09	1658,85
837,26	1843,17
837,43	1738,73
837,60	1746,92
837,77	1746,92
837,94	1761,25
838,12	1738,73
838,29	1755,11
838,46	1591,27
838,63	1595,37
838,80	1855,46
838,97	1787,88
839,14	1751,01
839,31	1746,92
839,48	1730,53
839,65	1660,90
839,82	1714,15
839,99	1630,18
840,16	1718,25
840,33	1667,05
840,50	1701,86
840,67	1677,29
840,84	1607,66
841,01	1785,83
841,18	1705,96
841,35	1744,87
841,52	1787,88
841,69	1824,74
841,86	1806,31
842,03	1699,81
842,20	1689,57
842,37	1681,38
842,54	1718,25
842,71	1757,16
842,88	1632,23
843,05	1820,64
843,22	1650,66
843,39	1714,15
843,56	1689,57
843,73	1710,05
843,90	1789,92
844,07	1722,34
844,24	1759,21
844,41	1710,05
844,58	1767,40
844,75	1771,49
844,92	1689,57
845,09	1658,85
845,26	1640,42
845,43	1724,39
845,60	1722,34
845,77	1841,12
845,94	1726,44
846,10	1771,49
846,27	1656,81
846,44	1677,29
846,61	1656,81
846,78	1746,92
846,95	1748,97
847,12	1693,67
847,29	1701,86
847,46	1650,66
847,63	1734,63
847,80	1636,33
847,97	1730,53
848,14	1857,51
848,31	1712,10
848,48	1656,81
848,65	1744,87
848,82	1648,61
848,98	1882,08
849,15	1779,68
849,32	1716,20
849,49	1738,73
849,66	1757,16
849,83	1720,29
850,00	1669,09
850,17	1732,58
850,34	1757,16
850,51	1669,09
850,68	1681,38
850,85	1820,64
851,01	1767,40
851,18	1695,72
851,35	1718,25
851,52	1771,49
851,69	1837,03
851,86	1632,23
852,03	1718,25
852,20	1718,25
852,37	1699,81
852,53	1642,47
852,70	1665,00
852,87	1722,34
853,04	1748,97
853,21	1697,77
853,38	1789,92
853,55	1763,30
853,72	1787,88
853,89	1689,57
854,05	1626,09
854,22	1705,96
854,39	1701,86
854,56	1667,05
854,73	1806,31
854,90	1636,33
855,07	1738,73
855,23	1683,43
855,40	1693,67
855,57	1740,77
855,74	1593,32
855,91	1845,22
856,08	1693,67
856,25	1642,47
856,41	1697,77
856,58	1730,53
856,75	1701,86
856,92	1638,38
857,09	1765,35
857,26	1632,23
857,42	1781,73
857,59	1779,68
857,76	1740,77
857,93	1742,82
858,10	1710,05
858,27	1705,96
858,43	1769,44
858,60	1667,05
858,77	1599,46
858,94	1636,33
859,11	1765,35
859,27	1755,11
859,44	1634,28
859,61	1830,88
859,78	1738,73
859,95	1677,29
860,12	1720,29
860,28	1728,49
860,45	1800,16
860,62	1701,86
860,79	1779,68
860,95	1673,19
861,12	1628,14
861,29	1740,77
861,46	1656,81
861,63	1679,33
861,79	1732,58
861,96	1665,00
862,13	1640,42
862,30	1769,44
862,47	1607,66
862,63	1644,52
862,80	1769,44
862,97	1789,92
863,14	1769,44
863,30	1734,63
863,47	1691,62
863,64	1828,84
863,81	1781,73
863,97	1632,23
864,14	1703,91
864,31	1619,94
864,48	1722,34
864,65	1701,86
864,81	1710,05
864,98	1755,11
865,15	1724,39
865,32	1769,44
865,48	1720,29
865,65	1812,45
865,82	1642,47
865,98	1724,39
866,15	1830,88
866,32	1705,96
866,49	1675,24
866,65	1828,84
866,82	1626,09
866,99	1734,63
867,16	1681,38
867,32	1636,33
867,49	1683,43
867,66	1667,05
867,83	1644,52
867,99	1638,38
868,16	1587,18
868,33	1705,96
868,49	1730,53
868,66	1560,55
868,83	1832,93
868,99	1796,07
869,16	1763,30
869,33	1771,49
869,50	1828,84
869,66	1763,30
869,83	1775,59
870,00	1615,85
870,16	1738,73
870,33	1701,86
870,50	1796,07
870,66	1763,30
870,83	1796,07
871,00	1718,25
871,17	1757,16
871,33	1767,40
871,50	1667,05
871,67	1675,24
871,83	1744,87
872,00	1773,54
872,17	1667,05
872,33	1755,11
872,50	1800,16
872,67	1748,97
872,83	1624,04
873,00	1740,77
873,17	1779,68
873,33	1824,74
873,50	1828,84
873,67	1644,52
873,83	1665,00
874,00	1695,72
874,16	1787,88
874,33	1779,68
874,50	1714,15
874,66	1726,44
874,83	1681,38
875,00	1720,29
875,16	1746,92
875,33	1773,54
875,50	1554,41
875,66	1662,95
875,83	1736,68
875,99	1755,11
876,16	1720,29
876,33	1648,61
876,49	1685,48
876,66	1775,59
876,83	1642,47
876,99	1683,43
877,16	1714,15
877,32	1685,48
877,49	1689,57
877,66	1683,43
877,82	1759,21
877,99	1742,82
878,15	1791,97
878,32	1740,77
878,49	1689,57
878,65	1679,33
878,82	1787,88
878,98	1658,85
879,15	1738,73
879,32	1800,16
879,48	1697,77
879,65	1699,81
879,81	1677,29
879,98	1744,87
880,15	1701,86
880,31	1771,49
880,48	1726,44
880,64	1751,01
880,81	1685,48
880,97	1732,58
881,14	1781,73
881,31	1636,33
881,47	1855,46
881,64	1626,09
881,80	1509,35
881,97	1787,88
882,13	1886,18
882,30	1644,52
882,47	1753,06
882,63	1648,61
882,80	1617,90
882,96	1681,38
883,13	1816,55
883,29	1636,33
883,46	1765,35
883,62	1787,88
883,79	1669,09
883,95	1734,63
884,12	1697,77
884,29	1763,30
884,45	1652,71
884,62	1783,78
884,78	1712,10
884,95	1818,60
885,11	1755,11
885,28	1699,81
885,44	1671,14
885,61	1748,97
885,77	1822,69
885,94	1787,88
886,10	1648,61
886,27	1757,16
886,43	1781,73
886,60	1857,51
886,76	1730,53
886,93	1601,51
887,09	1726,44
887,26	1683,43
887,42	1755,11
887,59	1800,16
887,75	1820,64
887,92	1802,21
888,08	1746,92
888,25	1757,16
888,41	1740,77
888,58	1738,73
888,74	1695,72
888,91	1699,81
>>>>>End Processed Spectral Data<<<<<
