SpectraSuite Data File
++++++++++++++++++++++++++++++++++++
Date: Mon Jun 06 15:08:37 CEST 2016
User: root
Dark Spectrum Present: No
Reference Spectrum Present: No
Number of Sampled Component Spectra: 1
Spectrometers: USB4C02835
Integration Time (usec): 100000 (USB4C02835)
Spectra Averaged: 1 (USB4C02835)
Boxcar Smoothing: 0 (USB4C02835)
Correct for Electrical Dark: No (USB4C02835)
Strobe/Lamp Enabled: No (USB4C02835)
Correct for Detector Non-linearity: No (USB4C02835)
Correct for Stray Light: No (USB4C02835)
Number of Pixels in Processed Spectrum: 3648
>>>>>Begin Processed Spectral Data<<<<<
177,47	1488,87
177,69	1488,87
177,91	1488,87
178,13	1443,82
178,36	1533,93
178,58	1646,57
178,80	1730,53
179,02	1621,99
179,24	1658,85
179,46	1705,96
179,68	1800,16
179,90	1652,71
180,13	1769,44
180,35	1593,32
180,57	1708,01
180,79	1746,92
181,01	1730,53
181,23	1796,07
181,45	1759,21
181,67	1718,25
181,90	1759,21
182,12	1624,04
182,34	1669,09
182,56	1660,90
182,78	1634,28
183,00	1775,59
183,22	1687,53
183,44	1562,60
183,66	1869,80
183,89	1767,40
184,11	1714,15
184,33	1732,58
184,55	1783,78
184,77	1875,94
184,99	1761,25
185,21	1675,24
185,43	1839,08
185,65	1742,82
185,87	1689,57
186,10	1837,03
186,32	1779,68
186,54	1650,66
186,76	1693,67
186,98	1714,15
187,20	1753,06
187,42	1744,87
187,64	1716,20
187,86	1718,25
188,08	1712,10
188,30	1656,81
188,52	1697,77
188,75	1738,73
188,97	1800,16
189,19	1673,19
189,41	1669,09
189,63	1796,07
189,85	1665,00
190,07	1636,33
190,29	1724,39
190,51	1767,40
190,73	1611,75
190,95	1804,26
191,17	1693,67
191,39	1665,00
191,61	1705,96
191,84	1646,57
192,06	1814,50
192,28	1652,71
192,50	1896,42
192,72	1710,05
192,94	1730,53
193,16	1736,68
193,38	1710,05
193,60	1712,10
193,82	1699,81
194,04	1781,73
194,26	1722,34
194,48	1755,11
194,70	1691,62
194,92	1671,14
195,14	1710,05
195,36	1687,53
195,58	1697,77
195,80	1679,33
196,02	1652,71
196,24	1736,68
196,46	1705,96
196,69	1636,33
196,91	1857,51
197,13	1675,24
197,35	1665,00
197,57	1753,06
197,79	1751,01
198,01	1695,72
198,23	1781,73
198,45	1765,35
198,67	1646,57
198,89	1669,09
199,11	1689,57
199,33	1640,42
199,55	1607,66
199,77	1705,96
199,99	1734,63
200,21	1722,34
200,43	1810,40
200,65	1558,50
200,87	1601,51
201,09	1732,58
201,31	1673,19
201,53	1748,97
201,75	1775,59
201,97	1730,53
202,19	1744,87
202,41	1697,77
202,63	1783,78
202,85	1703,91
203,07	1746,92
203,29	1626,09
203,51	1650,66
203,73	1640,42
203,95	1849,32
204,17	1712,10
204,39	1757,16
204,61	1611,75
204,83	1615,85
205,05	1734,63
205,27	1742,82
205,49	1837,03
205,71	1726,44
205,93	1626,09
206,15	1689,57
206,37	1738,73
206,59	1726,44
206,81	1642,47
207,03	1673,19
207,25	1634,28
207,47	1783,78
207,69	1705,96
207,91	1738,73
208,13	1800,16
208,34	1615,85
208,56	1742,82
208,78	1751,01
209,00	1642,47
209,22	1671,14
209,44	1724,39
209,66	1728,49
209,88	1681,38
210,10	1697,77
210,32	1726,44
210,54	1755,11
210,76	1687,53
210,98	1755,11
211,20	1570,79
211,42	1634,28
211,64	1812,45
211,86	1699,81
212,08	1703,91
212,30	1714,15
212,52	1693,67
212,74	1769,44
212,96	1761,25
213,17	1794,02
213,39	1705,96
213,61	1722,34
213,83	1695,72
214,05	1642,47
214,27	1796,07
214,49	1665,00
214,71	1665,00
214,93	1798,12
215,15	1695,72
215,37	1777,64
215,59	1617,90
215,81	1679,33
216,03	1730,53
216,24	1720,29
216,46	1726,44
216,68	1757,16
216,90	1693,67
217,12	1744,87
217,34	1640,42
217,56	1658,85
217,78	1783,78
218,00	1730,53
218,22	1673,19
218,44	1701,86
218,66	1714,15
218,87	1804,26
219,09	1599,46
219,31	1697,77
219,53	1705,96
219,75	1642,47
219,97	1669,09
220,19	1742,82
220,41	1669,09
220,63	1699,81
220,85	1736,68
221,06	1691,62
221,28	1775,59
221,50	1705,96
221,72	1708,01
221,94	1693,67
222,16	1714,15
222,38	1738,73
222,60	1718,25
222,82	1703,91
223,03	1712,10
223,25	1628,14
223,47	1771,49
223,69	1775,59
223,91	1759,21
224,13	1765,35
224,35	1703,91
224,57	1804,26
224,78	1751,01
225,00	1658,85
225,22	1630,18
225,44	1785,83
225,66	1677,29
225,88	1714,15
226,10	1802,21
226,32	1755,11
226,53	1802,21
226,75	1673,19
226,97	1652,71
227,19	1744,87
227,41	1669,09
227,63	1574,89
227,85	1650,66
228,06	1699,81
228,28	1689,57
228,50	1705,96
228,72	1652,71
228,94	1681,38
229,16	1624,04
229,37	1595,37
229,59	1632,23
229,81	1804,26
230,03	1683,43
230,25	1720,29
230,47	1667,05
230,69	1611,75
230,90	1742,82
231,12	1646,57
231,34	1730,53
231,56	1816,55
231,78	1681,38
232,00	1751,01
232,21	1710,05
232,43	1763,30
232,65	1578,98
232,87	1689,57
233,09	1685,48
233,30	1771,49
233,52	1757,16
233,74	1638,38
233,96	1695,72
234,18	1736,68
234,40	1605,61
234,61	1832,93
234,83	1626,09
235,05	1607,66
235,27	1771,49
235,49	1806,31
235,70	1708,01
235,92	1736,68
236,14	1722,34
236,36	1806,31
236,58	1615,85
236,79	1765,35
237,01	1679,33
237,23	1771,49
237,45	1853,41
237,67	1603,56
237,88	1744,87
238,10	1804,26
238,32	1699,81
238,54	1667,05
238,76	1677,29
238,97	1681,38
239,19	1722,34
239,41	1730,53
239,63	1753,06
239,85	1671,14
240,06	1701,86
240,28	1673,19
240,50	1875,94
240,72	1669,09
240,93	1683,43
241,15	1794,02
241,37	1615,85
241,59	1826,79
241,81	1710,05
242,02	1656,81
242,24	1742,82
242,46	1732,58
242,68	1705,96
242,89	1767,40
243,11	1757,16
243,33	1726,44
243,55	1701,86
243,76	1746,92
243,98	1679,33
244,20	1673,19
244,42	1708,01
244,64	1714,15
244,85	1632,23
245,07	1607,66
245,29	1765,35
245,51	1681,38
245,72	1767,40
245,94	1781,73
246,16	1705,96
246,38	1654,76
246,59	1691,62
246,81	1718,25
247,03	1691,62
247,24	1591,27
247,46	1646,57
247,68	1746,92
247,90	1738,73
248,11	1695,72
248,33	1685,48
248,55	1779,68
248,77	1656,81
248,98	1712,10
249,20	1820,64
249,42	1816,55
249,64	1726,44
249,85	1658,85
250,07	1658,85
250,29	1751,01
250,50	1730,53
250,72	1654,76
250,94	1703,91
251,16	1841,12
251,37	1724,39
251,59	1703,91
251,81	1787,88
252,02	1740,77
252,24	1611,75
252,46	1710,05
252,68	1624,04
252,89	1656,81
253,11	1621,99
253,33	1789,92
253,54	1755,11
253,76	1675,24
253,98	1640,42
254,20	1619,94
254,41	1656,81
254,63	1652,71
254,85	1658,85
255,06	1691,62
255,28	1791,97
255,50	1693,67
255,71	1685,48
255,93	1550,31
256,15	1648,61
256,36	1726,44
256,58	1636,33
256,80	1689,57
257,02	1751,01
257,23	1677,29
257,45	1761,25
257,67	1697,77
257,88	1675,24
258,10	1763,30
258,32	1669,09
258,53	1720,29
258,75	1755,11
258,97	1714,15
259,18	1609,70
259,40	1712,10
259,62	1824,74
259,83	1865,70
260,05	1812,45
260,27	1945,57
260,48	1787,88
260,70	1613,80
260,92	1710,05
261,13	1699,81
261,35	1712,10
261,57	1665,00
261,78	1589,22
262,00	1689,57
262,22	1748,97
262,43	1695,72
262,65	1638,38
262,86	1652,71
263,08	1757,16
263,30	1705,96
263,51	1556,46
263,73	1665,00
263,95	1740,77
264,16	1658,85
264,38	1671,14
264,60	1710,05
264,81	1697,77
265,03	1828,84
265,25	1724,39
265,46	1724,39
265,68	1806,31
265,89	1802,21
266,11	1638,38
266,33	1701,86
266,54	1789,92
266,76	1781,73
266,98	1697,77
267,19	1818,60
267,41	1759,21
267,62	1695,72
267,84	1648,61
268,06	1763,30
268,27	1757,16
268,49	1820,64
268,70	1746,92
268,92	1708,01
269,14	1636,33
269,35	1652,71
269,57	1708,01
269,79	1697,77
270,00	1791,97
270,22	1814,50
270,43	1658,85
270,65	1667,05
270,87	1667,05
271,08	1683,43
271,30	1732,58
271,51	1673,19
271,73	1732,58
271,95	1712,10
272,16	1710,05
272,38	1722,34
272,59	1677,29
272,81	1714,15
273,02	1714,15
273,24	1740,77
273,46	1746,92
273,67	1687,53
273,89	1630,18
274,10	1724,39
274,32	1820,64
274,54	1695,72
274,75	1775,59
274,97	1695,72
275,18	1748,97
275,40	1710,05
275,61	1712,10
275,83	1775,59
276,05	1710,05
276,26	1712,10
276,48	1710,05
276,69	1720,29
276,91	1718,25
277,12	1759,21
277,34	1718,25
277,55	1648,61
277,77	1714,15
277,99	1644,52
278,20	1654,76
278,42	1640,42
278,63	1689,57
278,85	1658,85
279,06	1675,24
279,28	1722,34
279,49	1761,25
279,71	1744,87
279,93	1738,73
280,14	1724,39
280,36	1712,10
280,57	1728,49
280,79	1763,30
281,00	1671,14
281,22	1619,94
281,43	1662,95
281,65	1566,70
281,86	1732,58
282,08	1716,20
282,29	1783,78
282,51	1593,32
282,73	1687,53
282,94	1669,09
283,16	1744,87
283,37	1753,06
283,59	1730,53
283,80	1748,97
284,02	1763,30
284,23	1720,29
284,45	1724,39
284,66	1712,10
284,88	1775,59
285,09	1699,81
285,31	1775,59
285,52	1771,49
285,74	1697,77
285,95	1662,95
286,17	1734,63
286,38	1755,11
286,60	1603,56
286,81	1642,47
287,03	1699,81
287,24	1656,81
287,46	1814,50
287,67	1738,73
287,89	1847,27
288,10	1691,62
288,32	1775,59
288,53	1746,92
288,75	1708,01
288,96	1689,57
289,18	1773,54
289,39	1710,05
289,61	1796,07
289,82	1751,01
290,04	1738,73
290,25	1593,32
290,47	1710,05
290,68	1613,80
290,90	1765,35
291,11	1599,46
291,33	1746,92
291,54	1640,42
291,76	1601,51
291,97	1708,01
292,18	1763,30
292,40	1658,85
292,61	1695,72
292,83	1826,79
293,04	1740,77
293,26	1669,09
293,47	1642,47
293,69	1634,28
293,90	1724,39
294,12	1746,92
294,33	1689,57
294,55	1714,15
294,76	1728,49
294,97	1722,34
295,19	1824,74
295,40	1656,81
295,62	1685,48
295,83	1722,34
296,05	1675,24
296,26	1769,44
296,48	1665,00
296,69	1730,53
296,90	1671,14
297,12	1736,68
297,33	1746,92
297,55	1662,95
297,76	1726,44
297,98	1691,62
298,19	1744,87
298,41	1609,70
298,62	1621,99
298,83	1845,22
299,05	1718,25
299,26	1679,33
299,48	1730,53
299,69	1781,73
299,90	1658,85
300,12	1669,09
300,33	1722,34
300,55	1714,15
300,76	1761,25
300,98	1708,01
301,19	1820,64
301,40	1697,77
301,62	1644,52
301,83	1714,15
302,05	1708,01
302,26	1677,29
302,47	1701,86
302,69	1619,94
302,90	1724,39
303,12	1615,85
303,33	1757,16
303,54	1812,45
303,76	1636,33
303,97	1755,11
304,19	1796,07
304,40	1675,24
304,61	1746,92
304,83	1763,30
305,04	1767,40
305,26	1798,12
305,47	1650,66
305,68	1689,57
305,90	1605,61
306,11	1699,81
306,33	1652,71
306,54	1716,20
306,75	1626,09
306,97	1560,55
307,18	1718,25
307,39	1683,43
307,61	1783,78
307,82	1679,33
308,04	1685,48
308,25	1671,14
308,46	1701,86
308,68	1705,96
308,89	1650,66
309,10	1837,03
309,32	1722,34
309,53	1710,05
309,74	1812,45
309,96	1716,20
310,17	1699,81
310,39	1605,61
310,60	1751,01
310,81	1718,25
311,03	1679,33
311,24	1728,49
311,45	1716,20
311,67	1800,16
311,88	1732,58
312,09	1603,56
312,31	1675,24
312,52	1681,38
312,73	1683,43
312,95	1644,52
313,16	1673,19
313,37	1695,72
313,59	1662,95
313,80	1759,21
314,01	1734,63
314,23	1634,28
314,44	1673,19
314,65	1677,29
314,87	1724,39
315,08	1732,58
315,29	1660,90
315,51	1671,14
315,72	1638,38
315,93	1834,98
316,15	1753,06
316,36	1644,52
316,57	1722,34
316,79	1681,38
317,00	1744,87
317,21	1675,24
317,43	1718,25
317,64	1777,64
317,85	1640,42
318,07	1724,39
318,28	1748,97
318,49	1820,64
318,70	1843,17
318,92	1865,70
319,13	1779,68
319,34	1847,27
319,56	1781,73
319,77	1814,50
319,98	1818,60
320,20	1744,87
320,41	1798,12
320,62	1632,23
320,83	1746,92
321,05	1898,47
321,26	1667,05
321,47	1675,24
321,69	1771,49
321,90	1603,56
322,11	1708,01
322,32	1703,91
322,54	1828,84
322,75	1763,30
322,96	1751,01
323,18	1630,18
323,39	1581,03
323,60	1644,52
323,81	1779,68
324,03	1652,71
324,24	1689,57
324,45	1714,15
324,66	1665,00
324,88	1691,62
325,09	1783,78
325,30	1806,31
325,52	1720,29
325,73	1773,54
325,94	1646,57
326,15	1591,27
326,37	1650,66
326,58	1800,16
326,79	1732,58
327,00	1701,86
327,22	1732,58
327,43	1757,16
327,64	1626,09
327,85	1705,96
328,07	1667,05
328,28	1714,15
328,49	1714,15
328,70	1708,01
328,92	1703,91
329,13	1638,38
329,34	1728,49
329,55	1830,88
329,76	1728,49
329,98	1660,90
330,19	1734,63
330,40	1720,29
330,61	1724,39
330,83	1746,92
331,04	1669,09
331,25	1724,39
331,46	1697,77
331,68	1650,66
331,89	1714,15
332,10	1703,91
332,31	1658,85
332,52	1685,48
332,74	1806,31
332,95	1611,75
333,16	1718,25
333,37	1660,90
333,58	1697,77
333,80	1781,73
334,01	1609,70
334,22	1667,05
334,43	1632,23
334,64	1660,90
334,86	1609,70
335,07	1611,75
335,28	1787,88
335,49	1603,56
335,70	1675,24
335,92	1751,01
336,13	1787,88
336,34	1722,34
336,55	1771,49
336,76	1781,73
336,98	1628,14
337,19	1665,00
337,40	1816,55
337,61	1875,94
337,82	1755,11
338,04	1656,81
338,25	1626,09
338,46	1736,68
338,67	1671,14
338,88	1669,09
339,09	1683,43
339,31	1660,90
339,52	1566,70
339,73	1619,94
339,94	1699,81
340,15	1771,49
340,36	1681,38
340,58	1718,25
340,79	1644,52
341,00	1767,40
341,21	1628,14
341,42	1863,65
341,63	1773,54
341,85	1779,68
342,06	1705,96
342,27	1693,67
342,48	1759,21
342,69	1669,09
342,90	1748,97
343,12	1814,50
343,33	1691,62
343,54	1701,86
343,75	1748,97
343,96	1705,96
344,17	1632,23
344,38	1703,91
344,60	1550,31
344,81	1597,42
345,02	1732,58
345,23	1773,54
345,44	1865,70
345,65	1718,25
345,86	1740,77
346,07	1730,53
346,29	1734,63
346,50	1740,77
346,71	1718,25
346,92	1689,57
347,13	1855,46
347,34	1701,86
347,55	1728,49
347,76	1751,01
347,98	1669,09
348,19	1681,38
348,40	1789,92
348,61	1705,96
348,82	1861,60
349,03	1681,38
349,24	1654,76
349,45	1828,84
349,66	1581,03
349,88	1703,91
350,09	1691,62
350,30	1800,16
350,51	1777,64
350,72	1755,11
350,93	1718,25
351,14	1681,38
351,35	1714,15
351,56	1644,52
351,77	1648,61
351,99	1716,20
352,20	1724,39
352,41	1734,63
352,62	1650,66
352,83	1730,53
353,04	1740,77
353,25	1578,98
353,46	1740,77
353,67	1759,21
353,88	1611,75
354,09	1736,68
354,30	1681,38
354,52	1757,16
354,73	1720,29
354,94	1693,67
355,15	1669,09
355,36	1810,40
355,57	1705,96
355,78	1732,58
355,99	1634,28
356,20	1683,43
356,41	1785,83
356,62	1691,62
356,83	1673,19
357,04	1832,93
357,25	1615,85
357,46	1761,25
357,68	1675,24
357,89	1705,96
358,10	1681,38
358,31	1671,14
358,52	1736,68
358,73	1654,76
358,94	1697,77
359,15	1728,49
359,36	1794,02
359,57	1681,38
359,78	1714,15
359,99	1777,64
360,20	1605,61
360,41	1699,81
360,62	1724,39
360,83	1740,77
361,04	1658,85
361,25	1796,07
361,46	1783,78
361,67	1755,11
361,88	1761,25
362,09	1769,44
362,30	1771,49
362,51	1710,05
362,72	1685,48
362,93	1724,39
363,14	1783,78
363,35	1724,39
363,56	1722,34
363,78	1791,97
363,99	1839,08
364,20	1671,14
364,41	1722,34
364,62	1845,22
364,83	1716,20
365,04	1714,15
365,25	1732,58
365,46	1794,02
365,67	1716,20
365,88	1667,05
366,09	1656,81
366,30	1720,29
366,51	1703,91
366,72	1626,09
366,93	1656,81
367,14	1695,72
367,35	1746,92
367,56	1669,09
367,77	1804,26
367,98	1693,67
368,18	1732,58
368,39	1732,58
368,60	1746,92
368,81	1724,39
369,02	1689,57
369,23	1699,81
369,44	1607,66
369,65	1697,77
369,86	1742,82
370,07	1748,97
370,28	1722,34
370,49	1791,97
370,70	1791,97
370,91	1730,53
371,12	1665,00
371,33	1759,21
371,54	1652,71
371,75	1800,16
371,96	1638,38
372,17	1697,77
372,38	1640,42
372,59	1689,57
372,80	1701,86
373,01	1695,72
373,22	1705,96
373,43	1720,29
373,64	1658,85
373,85	1757,16
374,06	1785,83
374,26	1734,63
374,47	1675,24
374,68	1730,53
374,89	1691,62
375,10	1689,57
375,31	1705,96
375,52	1724,39
375,73	1732,58
375,94	1638,38
376,15	1855,46
376,36	1669,09
376,57	1624,04
376,78	1710,05
376,99	1714,15
377,20	1800,16
377,40	1669,09
377,61	1771,49
377,82	1665,00
378,03	1814,50
378,24	1703,91
378,45	1679,33
378,66	1734,63
378,87	1748,97
379,08	1638,38
379,29	1701,86
379,50	1814,50
379,71	1726,44
379,91	1705,96
380,12	1634,28
380,33	1691,62
380,54	1660,90
380,75	1736,68
380,96	1753,06
381,17	1705,96
381,38	1757,16
381,59	1728,49
381,80	1736,68
382,00	1861,60
382,21	1730,53
382,42	1818,60
382,63	1820,64
382,84	1763,30
383,05	1746,92
383,26	1855,46
383,47	1722,34
383,68	1759,21
383,88	1726,44
384,09	1757,16
384,30	1820,64
384,51	1777,64
384,72	1640,42
384,93	1583,08
385,14	1687,53
385,35	1769,44
385,55	1652,71
385,76	1808,36
385,97	1740,77
386,18	1697,77
386,39	1681,38
386,60	1748,97
386,81	1744,87
387,02	1730,53
387,22	1716,20
387,43	1794,02
387,64	1746,92
387,85	1798,12
388,06	2152,42
388,27	4149,18
388,48	6520,73
388,68	7954,31
388,89	9271,15
389,10	9389,94
389,31	8374,14
389,52	7452,56
389,73	6514,59
389,93	5949,35
390,14	5654,44
390,35	4988,85
390,56	4513,72
390,77	3604,42
390,98	3041,23
391,18	2484,19
391,39	2066,40
391,60	1902,56
391,81	1804,26
392,02	1705,96
392,23	1873,89
392,43	1685,48
392,64	1816,55
392,85	1769,44
393,06	1781,73
393,27	1642,47
393,47	1736,68
393,68	1742,82
393,89	1716,20
394,10	1779,68
394,31	1671,14
394,52	1648,61
394,72	1654,76
394,93	1851,36
395,14	1671,14
395,35	1755,11
395,56	1671,14
395,76	1720,29
395,97	1841,12
396,18	1812,45
396,39	1851,36
396,60	1976,29
396,80	1880,04
397,01	1861,60
397,22	1763,30
397,43	1859,56
397,64	1738,73
397,84	1742,82
398,05	1941,47
398,26	1800,16
398,47	1810,40
398,67	1781,73
398,88	1626,09
399,09	1751,01
399,30	1660,90
399,51	1718,25
399,71	1679,33
399,92	1736,68
400,13	1791,97
400,34	1705,96
400,54	1730,53
400,75	1822,69
400,96	1748,97
401,17	1865,70
401,37	1687,53
401,58	1773,54
401,79	1658,85
402,00	1812,45
402,21	2041,82
402,41	1937,38
402,62	1918,95
402,83	2035,68
403,04	2025,44
403,24	2023,39
403,45	1828,84
403,66	1947,62
403,87	1867,75
404,07	1816,55
404,28	1886,18
404,49	1880,04
404,70	1771,49
404,90	1789,92
405,11	1746,92
405,32	1757,16
405,52	1656,81
405,73	1677,29
405,94	1644,52
406,15	1732,58
406,35	1714,15
406,56	1775,59
406,77	1703,91
406,98	1708,01
407,18	1644,52
407,39	1828,84
407,60	1681,38
407,80	1732,58
408,01	1679,33
408,22	1738,73
408,43	1632,23
408,63	1748,97
408,84	1763,30
409,05	1773,54
409,25	1767,40
409,46	1533,93
409,67	1656,81
409,88	1638,38
410,08	1726,44
410,29	1697,77
410,50	1693,67
410,70	1724,39
410,91	1665,00
411,12	1728,49
411,32	1677,29
411,53	1632,23
411,74	1869,80
411,95	1748,97
412,15	1738,73
412,36	1781,73
412,57	1761,25
412,77	1822,69
412,98	1689,57
413,19	1691,62
413,39	1767,40
413,60	1765,35
413,81	1794,02
414,01	1689,57
414,22	1789,92
414,43	1789,92
414,63	1652,71
414,84	1720,29
415,05	1744,87
415,25	1632,23
415,46	1751,01
415,67	1660,90
415,87	1755,11
416,08	1734,63
416,29	1677,29
416,49	1681,38
416,70	1667,05
416,91	1697,77
417,11	1810,40
417,32	1769,44
417,53	1810,40
417,73	1806,31
417,94	1734,63
418,15	1695,72
418,35	1685,48
418,56	1691,62
418,77	1755,11
418,97	1740,77
419,18	1654,76
419,38	1642,47
419,59	1748,97
419,80	1812,45
420,00	1710,05
420,21	1738,73
420,42	1785,83
420,62	1740,77
420,83	1624,04
421,04	1671,14
421,24	1603,56
421,45	1718,25
421,65	1748,97
421,86	1691,62
422,07	1703,91
422,27	1771,49
422,48	1712,10
422,69	1642,47
422,89	1781,73
423,10	1736,68
423,30	1576,94
423,51	1712,10
423,72	1693,67
423,92	1685,48
424,13	1619,94
424,33	1714,15
424,54	1673,19
424,75	1755,11
424,95	1861,60
425,16	1775,59
425,36	1693,67
425,57	1718,25
425,78	1691,62
425,98	1798,12
426,19	1652,71
426,39	1619,94
426,60	1656,81
426,81	1781,73
427,01	1710,05
427,22	1587,18
427,42	1613,80
427,63	1703,91
427,83	1822,69
428,04	1832,93
428,25	1796,07
428,45	1787,88
428,66	1771,49
428,86	1789,92
429,07	1691,62
429,28	1753,06
429,48	1714,15
429,69	1687,53
429,89	1751,01
430,10	1619,94
430,30	1726,44
430,51	1751,01
430,71	1654,76
430,92	1730,53
431,13	1671,14
431,33	1810,40
431,54	1701,86
431,74	1800,16
431,95	1873,89
432,15	1636,33
432,36	1714,15
432,56	1759,21
432,77	1869,80
432,98	1796,07
433,18	1652,71
433,39	1683,43
433,59	1695,72
433,80	1740,77
434,00	1865,70
434,21	1718,25
434,41	1621,99
434,62	1804,26
434,82	1601,51
435,03	1640,42
435,23	1716,20
435,44	1660,90
435,64	1720,29
435,85	1697,77
436,06	1722,34
436,26	1808,36
436,47	1656,81
436,67	1626,09
436,88	1681,38
437,08	1796,07
437,29	1796,07
437,49	1671,14
437,70	1744,87
437,90	1734,63
438,11	1818,60
438,31	1824,74
438,52	1867,75
438,72	1927,14
438,93	1898,47
439,13	1810,40
439,34	1789,92
439,54	1734,63
439,75	1777,64
439,95	1845,22
440,16	1685,48
440,36	1775,59
440,57	1865,70
440,77	1765,35
440,98	1746,92
441,18	1796,07
441,39	1765,35
441,59	1685,48
441,80	1794,02
442,00	1765,35
442,21	1785,83
442,41	1701,86
442,62	1777,64
442,82	1767,40
443,02	1744,87
443,23	1773,54
443,43	1728,49
443,64	1787,88
443,84	1775,59
444,05	1775,59
444,25	1748,97
444,46	1669,09
444,66	1705,96
444,87	1894,37
445,07	1628,14
445,28	1720,29
445,48	1820,64
445,69	1802,21
445,89	1765,35
446,09	1734,63
446,30	2045,92
446,50	2639,83
446,71	3559,37
446,91	4087,75
447,12	4679,61
447,32	4784,06
447,53	4173,76
447,73	3803,08
447,93	3397,58
448,14	3155,92
448,34	3260,37
448,55	2813,91
448,75	2775,00
448,96	2623,45
449,16	2324,44
449,36	2242,53
449,57	2068,45
449,77	1937,38
449,98	1738,73
450,18	1757,16
450,39	1843,17
450,59	1804,26
450,79	1773,54
451,00	1751,01
451,20	1783,78
451,41	1738,73
451,61	1761,25
451,81	1673,19
452,02	1712,10
452,22	1665,00
452,43	1720,29
452,63	1673,19
452,84	1736,68
453,04	1701,86
453,24	1769,44
453,45	1701,86
453,65	1779,68
453,86	1732,58
454,06	1759,21
454,26	1755,11
454,47	1632,23
454,67	1855,46
454,87	1740,77
455,08	1730,53
455,28	1820,64
455,49	1728,49
455,69	1644,52
455,89	1918,95
456,10	1789,92
456,30	1640,42
456,51	1763,30
456,71	1787,88
456,91	1763,30
457,12	1673,19
457,32	1785,83
457,52	1703,91
457,73	1730,53
457,93	1779,68
458,14	1734,63
458,34	1638,38
458,54	1751,01
458,75	1705,96
458,95	1818,60
459,15	1763,30
459,36	1716,20
459,56	1705,96
459,76	1920,99
459,97	1712,10
460,17	1703,91
460,37	1812,45
460,58	1783,78
460,78	1808,36
460,99	1705,96
461,19	1738,73
461,39	1728,49
461,60	1730,53
461,80	1751,01
462,00	1689,57
462,21	1679,33
462,41	1716,20
462,61	1679,33
462,82	1667,05
463,02	1675,24
463,22	1732,58
463,43	1834,98
463,63	1796,07
463,83	1763,30
464,04	1791,97
464,24	1654,76
464,44	1708,01
464,64	1755,11
464,85	1771,49
465,05	1830,88
465,25	1669,09
465,46	1662,95
465,66	1740,77
465,86	1744,87
466,07	1705,96
466,27	1728,49
466,47	1755,11
466,68	1718,25
466,88	1810,40
467,08	1775,59
467,29	1767,40
467,49	1771,49
467,69	1716,20
467,89	1736,68
468,10	1683,43
468,30	1767,40
468,50	1828,84
468,71	1798,12
468,91	1634,28
469,11	1755,11
469,31	1734,63
469,52	1619,94
469,72	1839,08
469,92	1845,22
470,13	1720,29
470,33	1708,01
470,53	1824,74
470,73	2072,54
470,94	2256,86
471,14	2383,84
471,34	2408,41
471,54	2351,07
471,75	2185,18
471,95	2150,37
472,15	2035,68
472,36	2023,39
472,56	2072,54
472,76	2060,26
472,96	2050,02
473,17	1875,94
473,37	1894,37
473,57	1759,21
473,77	1830,88
473,98	1716,20
474,18	1669,09
474,38	1861,60
474,58	1755,11
474,79	1632,23
474,99	1767,40
475,19	1736,68
475,39	1712,10
475,60	1779,68
475,80	1683,43
476,00	1660,90
476,20	1724,39
476,41	1722,34
476,61	1828,84
476,81	1855,46
477,01	1681,38
477,21	1740,77
477,42	1830,88
477,62	1757,16
477,82	1716,20
478,02	1714,15
478,23	1695,72
478,43	1648,61
478,63	1783,78
478,83	1755,11
479,03	1640,42
479,24	1791,97
479,44	1834,98
479,64	1689,57
479,84	1644,52
480,04	1677,29
480,25	1773,54
480,45	1714,15
480,65	1699,81
480,85	1814,50
481,06	1691,62
481,26	1767,40
481,46	1716,20
481,66	1744,87
481,86	1679,33
482,06	1851,36
482,27	1662,95
482,47	1775,59
482,67	1667,05
482,87	1662,95
483,07	1769,44
483,28	1675,24
483,48	1648,61
483,68	1703,91
483,88	1570,79
484,08	1654,76
484,29	1679,33
484,49	1771,49
484,69	1650,66
484,89	1800,16
485,09	1703,91
485,29	1787,88
485,50	1775,59
485,70	1708,01
485,90	1796,07
486,10	1681,38
486,30	1738,73
486,50	1789,92
486,71	1701,86
486,91	1730,53
487,11	1814,50
487,31	1671,14
487,51	1779,68
487,71	1581,03
487,91	1646,57
488,12	1665,00
488,32	1574,89
488,52	1681,38
488,72	1650,66
488,92	1783,78
489,12	1822,69
489,32	1785,83
489,53	1789,92
489,73	1619,94
489,93	1875,94
490,13	1677,29
490,33	1673,19
490,53	1708,01
490,73	1861,60
490,94	1761,25
491,14	1789,92
491,34	1832,93
491,54	2107,36
491,74	2463,71
491,94	2772,95
492,14	2951,12
492,34	2953,17
492,54	2734,04
492,75	2406,36
492,95	2353,12
493,15	2310,11
493,35	2172,89
493,55	2181,09
493,75	2084,83
493,95	2111,46
494,15	2023,39
494,35	1906,66
494,56	1875,94
494,76	1763,30
494,96	1845,22
495,16	1804,26
495,36	1730,53
495,56	1757,16
495,76	1656,81
495,96	1759,21
496,16	1644,52
496,36	1882,08
496,56	1779,68
496,77	1746,92
496,97	1767,40
497,17	1804,26
497,37	1626,09
497,57	1806,31
497,77	1667,05
497,97	1697,77
498,17	1779,68
498,37	1697,77
498,57	1675,24
498,77	1714,15
498,97	1767,40
499,17	1773,54
499,38	1740,77
499,58	1761,25
499,78	1732,58
499,98	1775,59
500,18	1779,68
500,38	1732,58
500,58	1880,04
500,78	2426,84
500,98	4417,47
501,18	5633,96
501,38	6490,01
501,58	6815,64
501,78	6373,28
501,98	5294,00
502,18	4896,69
502,38	4259,78
502,58	4022,21
502,78	3717,06
502,98	3551,18
503,18	3303,37
503,38	3123,15
503,59	2803,67
503,79	2613,21
503,99	2461,66
504,19	2199,52
504,39	2172,89
504,59	2222,05
504,79	2154,46
504,99	2150,37
505,19	1927,14
505,39	1865,70
505,59	2011,11
505,79	1964,00
505,99	1781,73
506,19	1791,97
506,39	1828,84
506,59	1726,44
506,79	1775,59
506,99	1802,21
507,19	1757,16
507,39	1828,84
507,59	1679,33
507,79	1734,63
507,99	1736,68
508,19	1748,97
508,39	1748,97
508,59	1724,39
508,79	1769,44
508,99	1873,89
509,19	1675,24
509,39	1757,16
509,59	1648,61
509,79	1646,57
509,99	1740,77
510,19	1812,45
510,39	1771,49
510,59	1779,68
510,79	1712,10
510,99	1697,77
511,19	1757,16
511,39	1814,50
511,59	1839,08
511,79	1779,68
511,99	1687,53
512,19	1857,51
512,38	1691,62
512,58	1624,04
512,78	1761,25
512,98	1777,64
513,18	1783,78
513,38	1708,01
513,58	1787,88
513,78	1769,44
513,98	1730,53
514,18	1755,11
514,38	1699,81
514,58	1771,49
514,78	1710,05
514,98	1748,97
515,18	1736,68
515,38	1703,91
515,58	1847,27
515,78	1669,09
515,98	1734,63
516,18	1791,97
516,38	1714,15
516,57	1656,81
516,77	1703,91
516,97	1734,63
517,17	1656,81
517,37	1609,70
517,57	1828,84
517,77	1757,16
517,97	1673,19
518,17	1751,01
518,37	1636,33
518,57	1691,62
518,77	1728,49
518,97	1703,91
519,16	1808,36
519,36	1806,31
519,56	1751,01
519,76	1736,68
519,96	1738,73
520,16	1800,16
520,36	1650,66
520,56	1748,97
520,76	1675,24
520,96	1675,24
521,16	1789,92
521,35	1806,31
521,55	1806,31
521,75	1716,20
521,95	1634,28
522,15	1720,29
522,35	1630,18
522,55	1656,81
522,75	1728,49
522,95	1759,21
523,14	1675,24
523,34	1724,39
523,54	1689,57
523,74	1701,86
523,94	1828,84
524,14	1738,73
524,34	1714,15
524,54	1806,31
524,73	1789,92
524,93	1765,35
525,13	1730,53
525,33	1613,80
525,53	1947,62
525,73	1708,01
525,93	1787,88
526,13	1775,59
526,32	1779,68
526,52	1802,21
526,72	1755,11
526,92	1665,00
527,12	1685,48
527,32	1644,52
527,52	1746,92
527,71	1744,87
527,91	1718,25
528,11	1679,33
528,31	1775,59
528,51	1636,33
528,71	1783,78
528,90	1781,73
529,10	1771,49
529,30	1771,49
529,50	1624,04
529,70	1757,16
529,90	1716,20
530,09	1683,43
530,29	1695,72
530,49	1675,24
530,69	1847,27
530,89	1794,02
531,09	1765,35
531,28	1720,29
531,48	1798,12
531,68	1691,62
531,88	1777,64
532,08	1837,03
532,28	1671,14
532,47	1759,21
532,67	1796,07
532,87	1697,77
533,07	1665,00
533,27	1806,31
533,46	1738,73
533,66	1740,77
533,86	1646,57
534,06	1691,62
534,26	1744,87
534,45	1777,64
534,65	1753,06
534,85	1820,64
535,05	1675,24
535,25	1824,74
535,44	1673,19
535,64	1714,15
535,84	1714,15
536,04	1689,57
536,24	1771,49
536,43	1568,74
536,63	1748,97
536,83	1683,43
537,03	1691,62
537,22	1660,90
537,42	1736,68
537,62	1734,63
537,82	1650,66
538,02	1808,36
538,21	1802,21
538,41	1882,08
538,61	1814,50
538,81	1779,68
539,00	1773,54
539,20	1589,22
539,40	1697,77
539,60	1730,53
539,79	1724,39
539,99	1722,34
540,19	1677,29
540,39	1654,76
540,58	1742,82
540,78	1800,16
540,98	1767,40
541,18	1755,11
541,37	1804,26
541,57	1691,62
541,77	1722,34
541,97	1667,05
542,16	1640,42
542,36	1703,91
542,56	1802,21
542,76	1873,89
542,95	1755,11
543,15	1695,72
543,35	1734,63
543,54	1691,62
543,74	1748,97
543,94	1810,40
544,14	1734,63
544,33	1794,02
544,53	1785,83
544,73	1722,34
544,93	1697,77
545,12	1714,15
545,32	1722,34
545,52	1714,15
545,71	1742,82
545,91	1687,53
546,11	1720,29
546,30	1667,05
546,50	1800,16
546,70	1740,77
546,90	1849,32
547,09	1675,24
547,29	1794,02
547,49	1771,49
547,68	1744,87
547,88	1697,77
548,08	1765,35
548,27	2193,37
548,47	1697,77
548,67	1705,96
548,87	1726,44
549,06	1718,25
549,26	1681,38
549,46	1742,82
549,65	1767,40
549,85	1757,16
550,05	1759,21
550,24	1648,61
550,44	1736,68
550,64	1759,21
550,83	1705,96
551,03	1834,98
551,23	1769,44
551,42	1818,60
551,62	1767,40
551,82	1740,77
552,01	1726,44
552,21	1779,68
552,41	1755,11
552,60	1806,31
552,80	1734,63
553,00	1685,48
553,19	1728,49
553,39	1802,21
553,59	1705,96
553,78	1757,16
553,98	1830,88
554,17	1646,57
554,37	1748,97
554,57	1806,31
554,76	1642,47
554,96	1753,06
555,16	1771,49
555,35	1746,92
555,55	1748,97
555,75	1738,73
555,94	1728,49
556,14	1650,66
556,33	1796,07
556,53	1748,97
556,73	1669,09
556,92	1834,98
557,12	1839,08
557,32	1753,06
557,51	1816,55
557,71	1734,63
557,90	1796,07
558,10	1890,28
558,30	1691,62
558,49	1734,63
558,69	1718,25
558,88	1808,36
559,08	1808,36
559,28	1812,45
559,47	1695,72
559,67	1779,68
559,86	1871,84
560,06	1769,44
560,26	1718,25
560,45	1873,89
560,65	1763,30
560,84	1781,73
561,04	1718,25
561,24	1787,88
561,43	1691,62
561,63	1814,50
561,82	1763,30
562,02	1771,49
562,22	1693,67
562,41	1675,24
562,61	1732,58
562,80	1669,09
563,00	1912,80
563,19	1765,35
563,39	1796,07
563,59	1800,16
563,78	1632,23
563,98	1603,56
564,17	1687,53
564,37	1665,00
564,56	1728,49
564,76	1701,86
564,96	1777,64
565,15	1722,34
565,35	1808,36
565,54	1681,38
565,74	1861,60
565,93	1785,83
566,13	1734,63
566,32	1771,49
566,52	1746,92
566,71	1740,77
566,91	1789,92
567,11	1791,97
567,30	1642,47
567,50	1804,26
567,69	1742,82
567,89	1751,01
568,08	1701,86
568,28	1757,16
568,47	1693,67
568,67	1734,63
568,86	1685,48
569,06	1763,30
569,25	1783,78
569,45	1708,01
569,64	1685,48
569,84	1708,01
570,04	1720,29
570,23	1742,82
570,43	1759,21
570,62	1796,07
570,82	1873,89
571,01	1683,43
571,21	1740,77
571,40	1730,53
571,60	1787,88
571,79	1718,25
571,99	1744,87
572,18	1695,72
572,38	1763,30
572,57	1701,86
572,77	1814,50
572,96	1845,22
573,16	1714,15
573,35	1767,40
573,55	1871,84
573,74	1720,29
573,94	1685,48
574,13	1697,77
574,33	1736,68
574,52	1847,27
574,71	1781,73
574,91	1728,49
575,10	1595,37
575,30	1726,44
575,49	1773,54
575,69	1718,25
575,88	1826,79
576,08	1744,87
576,27	1759,21
576,47	1755,11
576,66	1841,12
576,86	1773,54
577,05	1746,92
577,25	1755,11
577,44	1845,22
577,64	1724,39
577,83	1847,27
578,02	1824,74
578,22	1853,41
578,41	1832,93
578,61	1751,01
578,80	1626,09
579,00	1767,40
579,19	1761,25
579,39	1806,31
579,58	1804,26
579,77	1767,40
579,97	1783,78
580,16	1847,27
580,36	1845,22
580,55	1853,41
580,75	1736,68
580,94	1734,63
581,13	1888,23
581,33	1837,03
581,52	1798,12
581,72	1863,65
581,91	1785,83
582,11	1746,92
582,30	1755,11
582,49	1779,68
582,69	1826,79
582,88	1826,79
583,08	1763,30
583,27	1839,08
583,47	1757,16
583,66	1730,53
583,85	1708,01
584,05	1738,73
584,24	1804,26
584,44	1798,12
584,63	1808,36
584,82	1800,16
585,02	1802,21
585,21	1863,65
585,41	1769,44
585,60	1865,70
585,79	1884,13
585,99	1910,75
586,18	1859,56
586,37	2009,06
586,57	3270,61
586,76	9543,53
586,96	23293,60
587,15	33097,22
587,34	38673,84
587,54	40471,96
587,73	35022,31
587,93	25302,65
588,12	20752,07
588,31	17692,40
588,51	15976,20
588,70	14397,22
588,89	13553,46
589,09	12218,18
589,28	10493,79
589,47	9066,36
589,67	7866,25
589,86	6182,82
590,06	4825,01
590,25	3733,45
590,44	3035,09
590,64	2539,48
590,83	2185,18
591,02	2050,02
591,22	1929,19
591,41	1925,09
591,60	1880,04
591,80	1945,57
591,99	1746,92
592,18	1822,69
592,38	1898,47
592,57	1714,15
592,76	1763,30
592,96	1808,36
593,15	1740,77
593,34	1828,84
593,54	1748,97
593,73	1748,97
593,92	1746,92
594,12	1812,45
594,31	1746,92
594,50	1861,60
594,70	1771,49
594,89	1914,85
595,08	1734,63
595,28	1814,50
595,47	1937,38
595,66	1738,73
595,86	1693,67
596,05	1738,73
596,24	1808,36
596,43	1832,93
596,63	1802,21
596,82	1818,60
597,01	1771,49
597,21	1820,64
597,40	1802,21
597,59	1742,82
597,79	1751,01
597,98	1796,07
598,17	1763,30
598,36	1800,16
598,56	1742,82
598,75	1710,05
598,94	1777,64
599,14	1759,21
599,33	1714,15
599,52	1769,44
599,71	1804,26
599,91	1832,93
600,10	1714,15
600,29	1796,07
600,48	1765,35
600,68	1791,97
600,87	1787,88
601,06	1685,48
601,26	1726,44
601,45	1742,82
601,64	1716,20
601,83	1771,49
602,03	1689,57
602,22	1681,38
602,41	1800,16
602,60	1845,22
602,80	1779,68
602,99	1794,02
603,18	1689,57
603,37	1767,40
603,57	1757,16
603,76	1880,04
603,95	1855,46
604,14	1687,53
604,34	1705,96
604,53	1751,01
604,72	1726,44
604,91	1689,57
605,10	1699,81
605,30	1687,53
605,49	1853,41
605,68	1779,68
605,87	1787,88
606,07	1665,00
606,26	1757,16
606,45	1812,45
606,64	1703,91
606,84	1667,05
607,03	1814,50
607,22	1787,88
607,41	1685,48
607,60	1746,92
607,80	1800,16
607,99	1810,40
608,18	1787,88
608,37	1755,11
608,56	1644,52
608,76	1787,88
608,95	1898,47
609,14	1603,56
609,33	1802,21
609,52	1765,35
609,72	1703,91
609,91	1789,92
610,10	1794,02
610,29	1796,07
610,48	1769,44
610,68	1730,53
610,87	1771,49
611,06	1787,88
611,25	1677,29
611,44	1775,59
611,63	1689,57
611,83	1761,25
612,02	1669,09
612,21	1796,07
612,40	1667,05
612,59	1703,91
612,79	1650,66
612,98	1695,72
613,17	1902,56
613,36	1773,54
613,55	1783,78
613,74	1689,57
613,93	1767,40
614,13	1734,63
614,32	1730,53
614,51	1738,73
614,70	1730,53
614,89	1669,09
615,08	1787,88
615,28	2076,64
615,47	1642,47
615,66	1810,40
615,85	1744,87
616,04	1820,64
616,23	1656,81
616,42	1679,33
616,62	1779,68
616,81	1746,92
617,00	1681,38
617,19	1763,30
617,38	1697,77
617,57	1724,39
617,76	1748,97
617,95	1736,68
618,15	1742,82
618,34	1824,74
618,53	1658,85
618,72	1763,30
618,91	1769,44
619,10	1826,79
619,29	1685,48
619,48	1734,63
619,68	1730,53
619,87	1640,42
620,06	1636,33
620,25	1748,97
620,44	1697,77
620,63	1712,10
620,82	1789,92
621,01	1779,68
621,20	1648,61
621,39	1761,25
621,59	1701,86
621,78	1656,81
621,97	1708,01
622,16	1783,78
622,35	1769,44
622,54	1763,30
622,73	1771,49
622,92	1695,72
623,11	1738,73
623,30	1751,01
623,49	1710,05
623,68	1726,44
623,88	1783,78
624,07	1691,62
624,26	1728,49
624,45	1738,73
624,64	1716,20
624,83	1699,81
625,02	1671,14
625,21	1634,28
625,40	1710,05
625,59	1857,51
625,78	1757,16
625,97	1759,21
626,16	1781,73
626,35	1755,11
626,54	1765,35
626,74	1830,88
626,93	1726,44
627,12	1740,77
627,31	1791,97
627,50	1732,58
627,69	1771,49
627,88	1691,62
628,07	1703,91
628,26	1638,38
628,45	1722,34
628,64	1658,85
628,83	1798,12
629,02	1650,66
629,21	1771,49
629,40	1701,86
629,59	1636,33
629,78	1710,05
629,97	1714,15
630,16	1708,01
630,35	1708,01
630,54	1779,68
630,73	1701,86
630,92	1681,38
631,11	1685,48
631,30	1789,92
631,49	1740,77
631,68	1724,39
631,87	1765,35
632,06	1646,57
632,25	1875,94
632,44	1742,82
632,63	1738,73
632,82	1714,15
633,01	1660,90
633,20	1763,30
633,39	1744,87
633,58	1675,24
633,77	1669,09
633,96	1742,82
634,15	1710,05
634,34	1779,68
634,53	1767,40
634,72	1787,88
634,91	1615,85
635,10	1812,45
635,29	1714,15
635,48	1658,85
635,67	1683,43
635,86	1626,09
636,05	1753,06
636,24	1671,14
636,43	1785,83
636,62	1718,25
636,81	1613,80
637,00	1652,71
637,19	1806,31
637,38	1675,24
637,57	1689,57
637,76	1662,95
637,95	1714,15
638,14	1673,19
638,33	1699,81
638,52	1796,07
638,71	1613,80
638,89	1720,29
639,08	1875,94
639,27	1802,21
639,46	1697,77
639,65	1779,68
639,84	1738,73
640,03	1781,73
640,22	1781,73
640,41	1804,26
640,60	1650,66
640,79	1628,14
640,98	1738,73
641,17	1789,92
641,36	1714,15
641,55	1675,24
641,74	1601,51
641,92	1687,53
642,11	1685,48
642,30	1667,05
642,49	1714,15
642,68	1632,23
642,87	1775,59
643,06	1742,82
643,25	1718,25
643,44	1691,62
643,63	1703,91
643,82	1744,87
644,00	1640,42
644,19	1714,15
644,38	1728,49
644,57	1820,64
644,76	1722,34
644,95	1701,86
645,14	1744,87
645,33	1624,04
645,52	1738,73
645,71	1673,19
645,89	1628,14
646,08	1767,40
646,27	1748,97
646,46	1775,59
646,65	1667,05
646,84	1691,62
647,03	1718,25
647,22	1763,30
647,40	1722,34
647,59	1751,01
647,78	1615,85
647,97	1656,81
648,16	1669,09
648,35	1771,49
648,54	1787,88
648,73	1718,25
648,91	1742,82
649,10	1671,14
649,29	1654,76
649,48	1693,67
649,67	1679,33
649,86	1701,86
650,05	1605,61
650,23	1763,30
650,42	1703,91
650,61	1783,78
650,80	1746,92
650,99	1855,46
651,18	1806,31
651,36	1708,01
651,55	1660,90
651,74	1773,54
651,93	1665,00
652,12	1738,73
652,31	1730,53
652,49	1681,38
652,68	1652,71
652,87	1763,30
653,06	1726,44
653,25	1826,79
653,44	1746,92
653,62	1800,16
653,81	1675,24
654,00	1722,34
654,19	1689,57
654,38	1920,99
654,56	1744,87
654,75	1746,92
654,94	1806,31
655,13	1689,57
655,32	1738,73
655,51	1806,31
655,69	1626,09
655,88	1816,55
656,07	1656,81
656,26	1755,11
656,45	1603,56
656,63	1744,87
656,82	1765,35
657,01	1775,59
657,20	1734,63
657,38	1787,88
657,57	1697,77
657,76	1632,23
657,95	1757,16
658,14	1689,57
658,32	1712,10
658,51	1662,95
658,70	1744,87
658,89	1687,53
659,08	1693,67
659,26	1765,35
659,45	1656,81
659,64	1777,64
659,83	1648,61
660,01	1871,84
660,20	1667,05
660,39	1763,30
660,58	1607,66
660,76	1716,20
660,95	1654,76
661,14	1697,77
661,33	1636,33
661,51	1689,57
661,70	1683,43
661,89	1705,96
662,08	1751,01
662,26	1785,83
662,45	1624,04
662,64	1857,51
662,83	1730,53
663,01	1689,57
663,20	1740,77
663,39	1771,49
663,58	1742,82
663,76	1791,97
663,95	1744,87
664,14	1677,29
664,32	1683,43
664,51	1714,15
664,70	1665,00
664,89	1742,82
665,07	1677,29
665,26	1814,50
665,45	1701,86
665,64	1710,05
665,82	1812,45
666,01	1796,07
666,20	1638,38
666,38	1863,65
666,57	1877,99
666,76	2166,75
666,95	4503,48
667,13	10014,57
667,32	14980,89
667,51	17194,75
667,69	18222,83
667,88	16961,28
668,07	11753,29
668,25	9332,59
668,44	7882,63
668,63	7026,58
668,81	6576,03
669,00	5851,05
669,19	5629,87
669,38	4956,08
669,56	4360,13
669,75	3925,96
669,94	3348,43
670,12	2877,40
670,31	2502,62
670,50	2263,01
670,68	2056,16
670,87	1857,51
671,06	1865,70
671,24	1867,75
671,43	1802,21
671,62	1779,68
671,80	1716,20
671,99	1724,39
672,18	1816,55
672,36	1761,25
672,55	1767,40
672,74	1613,80
672,92	1701,86
673,11	1720,29
673,29	1658,85
673,48	1740,77
673,67	1781,73
673,85	1773,54
674,04	1703,91
674,23	1755,11
674,41	1757,16
674,60	1685,48
674,79	1581,03
674,97	1730,53
675,16	1691,62
675,34	1787,88
675,53	1626,09
675,72	1734,63
675,90	1808,36
676,09	1757,16
676,28	1777,64
676,46	1652,71
676,65	1724,39
676,83	1697,77
677,02	1714,15
677,21	1716,20
677,39	1683,43
677,58	1583,08
677,77	1683,43
677,95	1751,01
678,14	1712,10
678,32	1742,82
678,51	1607,66
678,70	1923,04
678,88	1648,61
679,07	1814,50
679,25	1748,97
679,44	1724,39
679,63	1679,33
679,81	1705,96
680,00	1669,09
680,18	1691,62
680,37	1744,87
680,55	1691,62
680,74	1681,38
680,93	1591,27
681,11	1732,58
681,30	1771,49
681,48	1728,49
681,67	1751,01
681,85	1630,18
682,04	1759,21
682,23	1746,92
682,41	1654,76
682,60	1761,25
682,78	1660,90
682,97	1593,32
683,15	1742,82
683,34	1785,83
683,53	1783,78
683,71	1701,86
683,90	1787,88
684,08	1863,65
684,27	1665,00
684,45	1744,87
684,64	1828,84
684,82	1761,25
685,01	1699,81
685,19	1708,01
685,38	1832,93
685,57	1660,90
685,75	1673,19
685,94	1687,53
686,12	1695,72
686,31	1701,86
686,49	1865,70
686,68	1624,04
686,86	1705,96
687,05	1656,81
687,23	1812,45
687,42	1689,57
687,60	1665,00
687,79	1724,39
687,97	1789,92
688,16	1767,40
688,34	1777,64
688,53	1611,75
688,71	1693,67
688,90	1853,41
689,08	1699,81
689,27	1632,23
689,45	1804,26
689,64	1730,53
689,82	1798,12
690,01	1757,16
690,19	1708,01
690,38	1703,91
690,56	1771,49
690,75	1601,51
690,93	1710,05
691,12	1656,81
691,30	1775,59
691,49	1669,09
691,67	1593,32
691,86	1851,36
692,04	1624,04
692,23	1662,95
692,41	1722,34
692,60	1853,41
692,78	1755,11
692,97	1644,52
693,15	1779,68
693,34	1806,31
693,52	1751,01
693,71	1722,34
693,89	1656,81
694,08	1644,52
694,26	1718,25
694,44	1724,39
694,63	1763,30
694,81	1648,61
695,00	1640,42
695,18	1789,92
695,37	1794,02
695,55	1673,19
695,74	1669,09
695,92	1648,61
696,10	1832,93
696,29	1658,85
696,47	1673,19
696,66	1642,47
696,84	1701,86
697,03	1609,70
697,21	1806,31
697,40	2303,96
697,58	1791,97
697,76	1669,09
697,95	1697,77
698,13	1681,38
698,32	1632,23
698,50	1712,10
698,68	1699,81
698,87	1650,66
699,05	1767,40
699,24	1691,62
699,42	1703,91
699,61	1726,44
699,79	1687,53
699,97	1677,29
700,16	1675,24
700,34	1615,85
700,53	1742,82
700,71	1794,02
700,89	1824,74
701,08	1683,43
701,26	1718,25
701,45	2090,98
701,63	1654,76
701,81	1660,90
702,00	1705,96
702,18	1701,86
702,37	1689,57
702,55	1744,87
702,73	1726,44
702,92	1687,53
703,10	1746,92
703,28	1744,87
703,47	1621,99
703,65	1748,97
703,84	1722,34
704,02	1679,33
704,20	1798,12
704,39	1714,15
704,57	1718,25
704,75	1716,20
704,94	1732,58
705,12	1683,43
705,30	1867,75
705,49	2183,13
705,67	4345,79
705,86	9189,24
706,04	12275,52
706,22	14024,49
706,41	14890,78
706,59	13227,83
706,77	9224,05
706,96	6997,91
707,14	6420,38
707,32	5885,86
707,51	5427,12
707,69	4761,53
707,87	4126,66
708,06	3454,92
708,24	2844,63
708,42	2422,75
708,61	2222,05
708,79	1945,57
708,97	1861,60
709,16	1789,92
709,34	1757,16
709,52	1736,68
709,71	1681,38
709,89	1800,16
710,07	1691,62
710,26	1619,94
710,44	1716,20
710,62	1775,59
710,80	1730,53
710,99	1714,15
711,17	1806,31
711,35	1722,34
711,54	1638,38
711,72	1755,11
711,90	1701,86
712,09	1722,34
712,27	1656,81
712,45	1710,05
712,63	1718,25
712,82	1744,87
713,00	1773,54
713,18	1748,97
713,37	1726,44
713,55	1722,34
713,73	1787,88
713,91	1800,16
714,10	1683,43
714,28	1705,96
714,46	1763,30
714,65	1777,64
714,83	1751,01
715,01	1681,38
715,19	1740,77
715,38	1644,52
715,56	1685,48
715,74	1679,33
715,92	1708,01
716,11	1759,21
716,29	1615,85
716,47	1675,24
716,65	1650,66
716,84	1642,47
717,02	1708,01
717,20	1591,27
717,38	1650,66
717,57	1732,58
717,75	1779,68
717,93	1718,25
718,11	1753,06
718,30	1748,97
718,48	1652,71
718,66	1712,10
718,84	1775,59
719,03	1796,07
719,21	1599,46
719,39	1898,47
719,57	1767,40
719,75	1800,16
719,94	1652,71
720,12	1621,99
720,30	1703,91
720,48	1802,21
720,67	1695,72
720,85	1716,20
721,03	1628,14
721,21	1687,53
721,39	1787,88
721,58	1777,64
721,76	1708,01
721,94	1748,97
722,12	1742,82
722,30	1726,44
722,49	1691,62
722,67	1632,23
722,85	1738,73
723,03	1628,14
723,21	1673,19
723,40	1697,77
723,58	1757,16
723,76	1736,68
723,94	1699,81
724,12	1728,49
724,30	1734,63
724,49	1748,97
724,67	1652,71
724,85	1789,92
725,03	1667,05
725,21	1765,35
725,40	1722,34
725,58	1765,35
725,76	1744,87
725,94	1779,68
726,12	1728,49
726,30	1742,82
726,49	1710,05
726,67	1654,76
726,85	1806,31
727,03	1777,64
727,21	2138,08
727,39	2838,48
727,57	3715,02
727,76	4157,38
727,94	4343,74
728,12	4251,58
728,30	3729,35
728,48	2953,17
728,66	2725,85
728,84	2533,34
729,03	2283,49
729,21	2041,82
729,39	1933,28
729,57	1857,51
729,75	1800,16
729,93	1873,89
730,11	1757,16
730,30	1705,96
730,48	1658,85
730,66	1751,01
730,84	1787,88
731,02	1646,57
731,20	1724,39
731,38	1683,43
731,56	1615,85
731,74	1685,48
731,93	1642,47
732,11	1689,57
732,29	1650,66
732,47	1744,87
732,65	1728,49
732,83	1794,02
733,01	1763,30
733,19	1617,90
733,37	1808,36
733,56	1728,49
733,74	1732,58
733,92	1732,58
734,10	1718,25
734,28	1794,02
734,46	1624,04
734,64	1685,48
734,82	1636,33
735,00	1699,81
735,18	1675,24
735,36	1658,85
735,54	1673,19
735,73	1763,30
735,91	1748,97
736,09	1757,16
736,27	1695,72
736,45	1738,73
736,63	1607,66
736,81	1697,77
736,99	1746,92
737,17	1828,84
737,35	1603,56
737,53	1730,53
737,71	1818,60
737,89	1796,07
738,07	1644,52
738,25	1589,22
738,43	1642,47
738,61	1748,97
738,80	1677,29
738,98	1697,77
739,16	1701,86
739,34	1669,09
739,52	1794,02
739,70	1652,71
739,88	1763,30
740,06	1806,31
740,24	1583,08
740,42	1650,66
740,60	1621,99
740,78	1665,00
740,96	1667,05
741,14	1660,90
741,32	1656,81
741,50	1642,47
741,68	1853,41
741,86	1769,44
742,04	1665,00
742,22	1656,81
742,40	1730,53
742,58	1763,30
742,76	1638,38
742,94	1787,88
743,12	1630,18
743,30	1689,57
743,48	1648,61
743,66	1755,11
743,84	1806,31
744,02	1728,49
744,20	1708,01
744,38	1658,85
744,56	1703,91
744,74	1902,56
744,92	1710,05
745,10	1771,49
745,28	1757,16
745,46	1789,92
745,64	1673,19
745,82	1779,68
746,00	1742,82
746,18	1732,58
746,36	1673,19
746,54	1710,05
746,72	1628,14
746,90	1695,72
747,08	1822,69
747,26	1712,10
747,44	1726,44
747,62	1771,49
747,80	1685,48
747,98	1726,44
748,15	1722,34
748,33	1861,60
748,51	1708,01
748,69	1691,62
748,87	1656,81
749,05	1660,90
749,23	1660,90
749,41	1708,01
749,59	1681,38
749,77	1791,97
749,95	1667,05
750,13	1716,20
750,31	1699,81
750,49	1769,44
750,67	1742,82
750,85	1787,88
751,03	1693,67
751,20	1730,53
751,38	1736,68
751,56	1689,57
751,74	1738,73
751,92	1650,66
752,10	1671,14
752,28	1814,50
752,46	1658,85
752,64	1753,06
752,82	1716,20
753,00	1808,36
753,18	1681,38
753,35	1665,00
753,53	1710,05
753,71	1673,19
753,89	1744,87
754,07	1681,38
754,25	1753,06
754,43	1665,00
754,61	1605,61
754,79	1703,91
754,97	1734,63
755,14	1796,07
755,32	1648,61
755,50	1718,25
755,68	1701,86
755,86	1609,70
756,04	1636,33
756,22	1570,79
756,40	1800,16
756,57	1816,55
756,75	1658,85
756,93	1755,11
757,11	1810,40
757,29	1640,42
757,47	1685,48
757,65	1660,90
757,82	1591,27
758,00	1675,24
758,18	1589,22
758,36	1662,95
758,54	1736,68
758,72	1644,52
758,90	1773,54
759,07	1798,12
759,25	1648,61
759,43	1763,30
759,61	1607,66
759,79	2213,85
759,97	1732,58
760,15	1685,48
760,32	1736,68
760,50	1656,81
760,68	1740,77
760,86	1722,34
761,04	1796,07
761,22	1705,96
761,39	1796,07
761,57	1656,81
761,75	1744,87
761,93	1693,67
762,11	1650,66
762,28	1656,81
762,46	1587,18
762,64	1746,92
762,82	1671,14
763,00	1660,90
763,18	1802,21
763,35	1675,24
763,53	1751,01
763,71	1644,52
763,89	1708,01
764,07	1730,53
764,24	1644,52
764,42	1775,59
764,60	1626,09
764,78	1744,87
764,96	1787,88
765,13	1773,54
765,31	1755,11
765,49	1712,10
765,67	1728,49
765,84	1673,19
766,02	1697,77
766,20	1599,46
766,38	1703,91
766,56	1662,95
766,73	1765,35
766,91	1685,48
767,09	1730,53
767,27	1730,53
767,44	1708,01
767,62	1648,61
767,80	1685,48
767,98	1671,14
768,15	1740,77
768,33	1685,48
768,51	1689,57
768,69	1697,77
768,87	1759,21
769,04	1710,05
769,22	1869,80
769,40	1748,97
769,58	1847,27
769,75	1742,82
769,93	1798,12
770,11	1683,43
770,28	1679,33
770,46	1804,26
770,64	1738,73
770,82	1751,01
770,99	1662,95
771,17	1687,53
771,35	1740,77
771,53	1650,66
771,70	1695,72
771,88	1695,72
772,06	1669,09
772,23	1701,86
772,41	1757,16
772,59	1722,34
772,77	1619,94
772,94	1652,71
773,12	1712,10
773,30	1640,42
773,47	1734,63
773,65	1665,00
773,83	1755,11
774,01	1667,05
774,18	1628,14
774,36	1677,29
774,54	1730,53
774,71	1791,97
774,89	1572,84
775,07	1685,48
775,24	1746,92
775,42	1691,62
775,60	1822,69
775,78	1691,62
775,95	1599,46
776,13	1599,46
776,31	1658,85
776,48	1703,91
776,66	1712,10
776,84	1644,52
777,01	1746,92
777,19	1685,48
777,37	1716,20
777,54	1691,62
777,72	1884,13
777,90	1640,42
778,07	1617,90
778,25	1816,55
778,43	1789,92
778,60	1675,24
778,78	1722,34
778,96	1822,69
779,13	1658,85
779,31	1714,15
779,49	1728,49
779,66	1677,29
779,84	1720,29
780,01	1677,29
780,19	1599,46
780,37	1697,77
780,54	1742,82
780,72	1648,61
780,90	1689,57
781,07	1697,77
781,25	1617,90
781,43	1705,96
781,60	1648,61
781,78	1808,36
781,95	1613,80
782,13	1693,67
782,31	1724,39
782,48	1589,22
782,66	1703,91
782,83	1798,12
783,01	1730,53
783,19	1748,97
783,36	1662,95
783,54	1701,86
783,72	1726,44
783,89	1677,29
784,07	1705,96
784,24	1724,39
784,42	1818,60
784,60	1787,88
784,77	1734,63
784,95	1634,28
785,12	1728,49
785,30	1728,49
785,47	1708,01
785,65	1648,61
785,83	1624,04
786,00	1730,53
786,18	1718,25
786,35	1658,85
786,53	1603,56
786,71	1738,73
786,88	1724,39
787,06	1746,92
787,23	1710,05
787,41	1538,02
787,58	1640,42
787,76	1722,34
787,94	1628,14
788,11	1771,49
788,29	1693,67
788,46	1671,14
788,64	1574,89
788,81	1718,25
788,99	1646,57
789,16	1681,38
789,34	1650,66
789,52	1658,85
789,69	1615,85
789,87	1599,46
790,04	1667,05
790,22	1689,57
790,39	1794,02
790,57	1701,86
790,74	1728,49
790,92	1724,39
791,09	1632,23
791,27	1716,20
791,44	1810,40
791,62	1761,25
791,79	1753,06
791,97	1771,49
792,15	1806,31
792,32	1757,16
792,50	1726,44
792,67	1791,97
792,85	1853,41
793,02	1667,05
793,20	1722,34
793,37	1601,51
793,55	1632,23
793,72	1634,28
793,90	1763,30
794,07	1626,09
794,25	1662,95
794,42	1724,39
794,60	1705,96
794,77	1705,96
794,95	1806,31
795,12	1798,12
795,30	1714,15
795,47	1599,46
795,65	1812,45
795,82	1683,43
796,00	1677,29
796,17	1720,29
796,34	1681,38
796,52	1722,34
796,69	1794,02
796,87	1753,06
797,04	1621,99
797,22	1718,25
797,39	1675,24
797,57	1765,35
797,74	1746,92
797,92	1785,83
798,09	1632,23
798,27	1767,40
798,44	1783,78
798,62	1660,90
798,79	1751,01
798,96	1746,92
799,14	1677,29
799,31	1791,97
799,49	1683,43
799,66	1730,53
799,84	1816,55
800,01	1687,53
800,19	1751,01
800,36	1646,57
800,53	1683,43
800,71	1685,48
800,88	1740,77
801,06	1724,39
801,23	1638,38
801,41	1679,33
801,58	1615,85
801,75	1624,04
801,93	1687,53
802,10	1785,83
802,28	1708,01
802,45	1685,48
802,63	1787,88
802,80	1785,83
802,97	1718,25
803,15	1708,01
803,32	1619,94
803,50	1656,81
803,67	1597,42
803,84	1644,52
804,02	1732,58
804,19	1615,85
804,37	1556,46
804,54	1691,62
804,71	1675,24
804,89	1699,81
805,06	1683,43
805,24	1705,96
805,41	1640,42
805,58	1665,00
805,76	1845,22
805,93	1748,97
806,10	1755,11
806,28	1771,49
806,45	1748,97
806,63	1695,72
806,80	1673,19
806,97	1751,01
807,15	1681,38
807,32	1665,00
807,49	1720,29
807,67	1578,98
807,84	1714,15
808,01	1689,57
808,19	1894,37
808,36	1855,46
808,54	1691,62
808,71	1699,81
808,88	1724,39
809,06	1755,11
809,23	1800,16
809,40	1650,66
809,58	1710,05
809,75	1716,20
809,92	1683,43
810,10	1812,45
810,27	1710,05
810,44	1726,44
810,62	1693,67
810,79	1708,01
810,96	1667,05
811,14	1662,95
811,31	1730,53
811,48	1773,54
811,66	1673,19
811,83	1796,07
812,00	1714,15
812,18	1691,62
812,35	1826,79
812,52	1607,66
812,69	1718,25
812,87	1675,24
813,04	1665,00
813,21	1710,05
813,39	1640,42
813,56	1605,61
813,73	1781,73
813,91	1626,09
814,08	1710,05
814,25	1671,14
814,42	1634,28
814,60	1691,62
814,77	1662,95
814,94	1650,66
815,12	1705,96
815,29	1757,16
815,46	1720,29
815,63	1689,57
815,81	1632,23
815,98	1656,81
816,15	1677,29
816,33	1798,12
816,50	1636,33
816,67	1712,10
816,84	1687,53
817,02	1632,23
817,19	1648,61
817,36	1681,38
817,53	1765,35
817,71	1683,43
817,88	1705,96
818,05	1734,63
818,22	1658,85
818,40	1748,97
818,57	1710,05
818,74	1820,64
818,91	1656,81
819,09	1677,29
819,26	1718,25
819,43	1636,33
819,60	1601,51
819,78	1744,87
819,95	1759,21
820,12	1662,95
820,29	1773,54
820,47	1740,77
820,64	1689,57
820,81	1642,47
820,98	1658,85
821,15	1648,61
821,33	1804,26
821,50	1632,23
821,67	1738,73
821,84	1685,48
822,02	1669,09
822,19	1697,77
822,36	1587,18
822,53	1714,15
822,70	1587,18
822,88	1671,14
823,05	1814,50
823,22	1683,43
823,39	1796,07
823,56	1636,33
823,74	1853,41
823,91	1665,00
824,08	1701,86
824,25	1621,99
824,42	1794,02
824,60	1646,57
824,77	1722,34
824,94	1730,53
825,11	1720,29
825,28	1669,09
825,45	1726,44
825,63	1726,44
825,80	1699,81
825,97	1665,00
826,14	1689,57
826,31	1613,80
826,48	1734,63
826,66	1617,90
826,83	1755,11
827,00	1761,25
827,17	1648,61
827,34	1718,25
827,51	1685,48
827,69	1728,49
827,86	1673,19
828,03	1644,52
828,20	1728,49
828,37	1654,76
828,54	1736,68
828,71	1673,19
828,89	1775,59
829,06	1658,85
829,23	1726,44
829,40	1658,85
829,57	1718,25
829,74	1738,73
829,91	1656,81
830,09	1693,67
830,26	1701,86
830,43	1785,83
830,60	1669,09
830,77	1773,54
830,94	1757,16
831,11	1775,59
831,28	1662,95
831,46	1714,15
831,63	1773,54
831,80	1703,91
831,97	1667,05
832,14	1652,71
832,31	1685,48
832,48	1783,78
832,65	1757,16
832,82	1740,77
832,99	1728,49
833,17	1578,98
833,34	1785,83
833,51	1746,92
833,68	1650,66
833,85	1806,31
834,02	1646,57
834,19	1746,92
834,36	1632,23
834,53	1753,06
834,70	1851,36
834,87	1658,85
835,04	1763,30
835,22	1701,86
835,39	1720,29
835,56	1611,75
835,73	1607,66
835,90	1718,25
836,07	1624,04
836,24	1718,25
836,41	1671,14
836,58	1642,47
836,75	1685,48
836,92	1728,49
837,09	1769,44
837,26	1683,43
837,43	1718,25
837,60	1751,01
837,77	1673,19
837,94	1708,01
838,12	1806,31
838,29	1648,61
838,46	1665,00
838,63	1660,90
838,80	1791,97
838,97	1724,39
839,14	1738,73
839,31	1662,95
839,48	1740,77
839,65	1679,33
839,82	1718,25
839,99	1744,87
840,16	1644,52
840,33	1667,05
840,50	1748,97
840,67	1585,13
840,84	1566,70
841,01	1718,25
841,18	1705,96
841,35	1654,76
841,52	1740,77
841,69	1816,55
841,86	1726,44
842,03	1652,71
842,20	1746,92
842,37	1642,47
842,54	1771,49
842,71	1699,81
842,88	1599,46
843,05	1751,01
843,22	1658,85
843,39	1712,10
843,56	1689,57
843,73	1730,53
843,90	1689,57
844,07	1665,00
844,24	1746,92
844,41	1753,06
844,58	1708,01
844,75	1736,68
844,92	1806,31
845,09	1695,72
845,26	1685,48
845,43	1732,58
845,60	1703,91
845,77	1673,19
845,94	1697,77
846,10	1732,58
846,27	1634,28
846,44	1675,24
846,61	1603,56
846,78	1732,58
846,95	1679,33
847,12	1773,54
847,29	1691,62
847,46	1599,46
847,63	1724,39
847,80	1705,96
847,97	1695,72
848,14	1804,26
848,31	1714,15
848,48	1689,57
848,65	1689,57
848,82	1640,42
848,98	1871,84
849,15	1767,40
849,32	1732,58
849,49	1716,20
849,66	1732,58
849,83	1701,86
850,00	1587,18
850,17	1753,06
850,34	1714,15
850,51	1638,38
850,68	1628,14
850,85	1880,04
851,01	1742,82
851,18	1785,83
851,35	1658,85
851,52	1705,96
851,69	1806,31
851,86	1628,14
852,03	1714,15
852,20	1734,63
852,37	1728,49
852,53	1650,66
852,70	1701,86
852,87	1726,44
853,04	1763,30
853,21	1652,71
853,38	1691,62
853,55	1755,11
853,72	1785,83
853,89	1697,77
854,05	1640,42
854,22	1662,95
854,39	1693,67
854,56	1724,39
854,73	1746,92
854,90	1656,81
855,07	1710,05
855,23	1607,66
855,40	1673,19
855,57	1705,96
855,74	1624,04
855,91	1947,62
856,08	1619,94
856,25	1691,62
856,41	1654,76
856,58	1656,81
856,75	1755,11
856,92	1656,81
857,09	1767,40
857,26	1593,32
857,42	1732,58
857,59	1744,87
857,76	1640,42
857,93	1761,25
858,10	1685,48
858,27	1583,08
858,43	1669,09
858,60	1708,01
858,77	1611,75
858,94	1626,09
859,11	1771,49
859,27	1648,61
859,44	1701,86
859,61	1832,93
859,78	1728,49
859,95	1718,25
860,12	1677,29
860,28	1890,28
860,45	1777,64
860,62	1705,96
860,79	1667,05
860,95	1742,82
861,12	1648,61
861,29	1638,38
861,46	1650,66
861,63	1585,13
861,79	1734,63
861,96	1615,85
862,13	1628,14
862,30	1744,87
862,47	1675,24
862,63	1591,27
862,80	1796,07
862,97	1691,62
863,14	1660,90
863,30	1662,95
863,47	1705,96
863,64	1738,73
863,81	1765,35
863,97	1644,52
864,14	1611,75
864,31	1601,51
864,48	1665,00
864,65	1730,53
864,81	1726,44
864,98	1724,39
865,15	1785,83
865,32	1787,88
865,48	1798,12
865,65	1796,07
865,82	1705,96
865,98	1712,10
866,15	1773,54
866,32	1644,52
866,49	1712,10
866,65	1724,39
866,82	1687,53
866,99	1759,21
867,16	1634,28
867,32	1734,63
867,49	1679,33
867,66	1712,10
867,83	1673,19
867,99	1722,34
868,16	1714,15
868,33	1632,23
868,49	1732,58
868,66	1648,61
868,83	1744,87
868,99	1718,25
869,16	1767,40
869,33	1800,16
869,50	1765,35
869,66	1609,70
869,83	1691,62
870,00	1634,28
870,16	1732,58
870,33	1697,77
870,50	1755,11
870,66	1705,96
870,83	1824,74
871,00	1685,48
871,17	1705,96
871,33	1753,06
871,50	1630,18
871,67	1648,61
871,83	1636,33
872,00	1822,69
872,17	1613,80
872,33	1796,07
872,50	1716,20
872,67	1740,77
872,83	1615,85
873,00	1771,49
873,17	1695,72
873,33	1720,29
873,50	1675,24
873,67	1628,14
873,83	1601,51
874,00	1720,29
874,16	1744,87
874,33	1697,77
874,50	1642,47
874,66	1847,27
874,83	1701,86
875,00	1740,77
875,16	1816,55
875,33	1753,06
875,50	1636,33
875,66	1587,18
875,83	1746,92
875,99	1724,39
876,16	1673,19
876,33	1646,57
876,49	1738,73
876,66	1699,81
876,83	1665,00
876,99	1660,90
877,16	1744,87
877,32	1708,01
877,49	1636,33
877,66	1742,82
877,82	1810,40
877,99	1730,53
878,15	1796,07
878,32	1734,63
878,49	1705,96
878,65	1644,52
878,82	1746,92
878,98	1705,96
879,15	1755,11
879,32	1687,53
879,48	1767,40
879,65	1669,09
879,81	1613,80
879,98	1679,33
880,15	1628,14
880,31	1644,52
880,48	1712,10
880,64	1828,84
880,81	1679,33
880,97	1751,01
881,14	1771,49
881,31	1683,43
881,47	1832,93
881,64	1665,00
881,80	1560,55
881,97	1699,81
882,13	1724,39
882,30	1605,61
882,47	1609,70
882,63	1685,48
882,80	1650,66
882,96	1648,61
883,13	1746,92
883,29	1681,38
883,46	1685,48
883,62	1826,79
883,79	1640,42
883,95	1800,16
884,12	1736,68
884,29	1773,54
884,45	1732,58
884,62	1679,33
884,78	1718,25
884,95	1814,50
885,11	1652,71
885,28	1722,34
885,44	1675,24
885,61	1673,19
885,77	1800,16
885,94	1673,19
886,10	1648,61
886,27	1656,81
886,43	1777,64
886,60	1787,88
886,76	1626,09
886,93	1636,33
887,09	1685,48
887,26	1581,03
887,42	1708,01
887,59	1804,26
887,75	1853,41
887,92	1757,16
888,08	1791,97
888,25	1812,45
888,41	1718,25
888,58	1685,48
888,74	1708,01
888,91	1681,38
>>>>>End Processed Spectral Data<<<<<
