SpectraSuite Data File
++++++++++++++++++++++++++++++++++++
Date: Mon Jun 06 15:37:37 CEST 2016
User: root
Dark Spectrum Present: No
Reference Spectrum Present: No
Number of Sampled Component Spectra: 1
Spectrometers: USB4C02835
Integration Time (usec): 100000 (USB4C02835)
Spectra Averaged: 1 (USB4C02835)
Boxcar Smoothing: 0 (USB4C02835)
Correct for Electrical Dark: No (USB4C02835)
Strobe/Lamp Enabled: No (USB4C02835)
Correct for Detector Non-linearity: No (USB4C02835)
Correct for Stray Light: No (USB4C02835)
Number of Pixels in Processed Spectrum: 3648
>>>>>Begin Processed Spectral Data<<<<<
177,47	1431,53
177,69	1431,53
177,91	1431,53
178,13	1460,20
178,36	1517,54
178,58	1658,85
178,80	1796,07
179,02	1685,48
179,24	1742,82
179,46	1705,96
179,68	1757,16
179,90	1705,96
180,13	1693,67
180,35	1646,57
180,57	1714,15
180,79	1804,26
181,01	1722,34
181,23	1832,93
181,45	1775,59
181,67	1687,53
181,90	1667,05
182,12	1640,42
182,34	1648,61
182,56	1759,21
182,78	1669,09
183,00	1689,57
183,22	1757,16
183,44	1634,28
183,66	1849,32
183,89	1783,78
184,11	1699,81
184,33	1769,44
184,55	1796,07
184,77	1740,77
184,99	1738,73
185,21	1671,14
185,43	1843,17
185,65	1691,62
185,87	1699,81
186,10	1847,27
186,32	1775,59
186,54	1800,16
186,76	1755,11
186,98	1763,30
187,20	1716,20
187,42	1599,46
187,64	1658,85
187,86	1785,83
188,08	1740,77
188,30	1703,91
188,52	1738,73
188,75	1710,05
188,97	1710,05
189,19	1662,95
189,41	1689,57
189,63	1746,92
189,85	1728,49
190,07	1638,38
190,29	1714,15
190,51	1736,68
190,73	1621,99
190,95	1767,40
191,17	1685,48
191,39	1591,27
191,61	1703,91
191,84	1648,61
192,06	1681,38
192,28	1636,33
192,50	1875,94
192,72	1720,29
192,94	1771,49
193,16	1785,83
193,38	1703,91
193,60	1595,37
193,82	1669,09
194,04	1753,06
194,26	1675,24
194,48	1665,00
194,70	1621,99
194,92	1742,82
195,14	1718,25
195,36	1665,00
195,58	1773,54
195,80	1701,86
196,02	1660,90
196,24	1726,44
196,46	1712,10
196,69	1667,05
196,91	1798,12
197,13	1775,59
197,35	1667,05
197,57	1861,60
197,79	1751,01
198,01	1683,43
198,23	1675,24
198,45	1751,01
198,67	1665,00
198,89	1675,24
199,11	1730,53
199,33	1685,48
199,55	1613,80
199,77	1677,29
199,99	1804,26
200,21	1691,62
200,43	1683,43
200,65	1650,66
200,87	1564,65
201,09	1763,30
201,31	1691,62
201,53	1779,68
201,75	1681,38
201,97	1761,25
202,19	1718,25
202,41	1757,16
202,63	1847,27
202,85	1798,12
203,07	1796,07
203,29	1697,77
203,51	1714,15
203,73	1722,34
203,95	1843,17
204,17	1789,92
204,39	1800,16
204,61	1673,19
204,83	1646,57
205,05	1845,22
205,27	1863,65
205,49	1837,03
205,71	1632,23
205,93	1607,66
206,15	1634,28
206,37	1691,62
206,59	1640,42
206,81	1583,08
207,03	1689,57
207,25	1718,25
207,47	1785,83
207,69	1683,43
207,91	1837,03
208,13	1744,87
208,34	1673,19
208,56	1685,48
208,78	1808,36
209,00	1757,16
209,22	1708,01
209,44	1665,00
209,66	1669,09
209,88	1679,33
210,10	1656,81
210,32	1677,29
210,54	1808,36
210,76	1693,67
210,98	1810,40
211,20	1619,94
211,42	1730,53
211,64	1818,60
211,86	1701,86
212,08	1751,01
212,30	1626,09
212,52	1728,49
212,74	1808,36
212,96	1798,12
213,17	1845,22
213,39	1730,53
213,61	1798,12
213,83	1695,72
214,05	1685,48
214,27	1726,44
214,49	1667,05
214,71	1648,61
214,93	1828,84
215,15	1726,44
215,37	1736,68
215,59	1730,53
215,81	1689,57
216,03	1779,68
216,24	1665,00
216,46	1681,38
216,68	1697,77
216,90	1771,49
217,12	1671,14
217,34	1736,68
217,56	1744,87
217,78	1818,60
218,00	1755,11
218,22	1716,20
218,44	1703,91
218,66	1677,29
218,87	1767,40
219,09	1576,94
219,31	1773,54
219,53	1763,30
219,75	1738,73
219,97	1769,44
220,19	1710,05
220,41	1771,49
220,63	1791,97
220,85	1724,39
221,06	1714,15
221,28	1716,20
221,50	1751,01
221,72	1699,81
221,94	1751,01
222,16	1738,73
222,38	1777,64
222,60	1683,43
222,82	1708,01
223,03	1718,25
223,25	1644,52
223,47	1769,44
223,69	1824,74
223,91	1736,68
224,13	1695,72
224,35	1691,62
224,57	1751,01
224,78	1691,62
225,00	1705,96
225,22	1748,97
225,44	1687,53
225,66	1665,00
225,88	1685,48
226,10	1755,11
226,32	1738,73
226,53	1806,31
226,75	1613,80
226,97	1611,75
227,19	1722,34
227,41	1665,00
227,63	1669,09
227,85	1691,62
228,06	1746,92
228,28	1714,15
228,50	1751,01
228,72	1710,05
228,94	1632,23
229,16	1603,56
229,37	1673,19
229,59	1665,00
229,81	1755,11
230,03	1722,34
230,25	1660,90
230,47	1667,05
230,69	1656,81
230,90	1783,78
231,12	1720,29
231,34	1658,85
231,56	1789,92
231,78	1660,90
232,00	1712,10
232,21	1748,97
232,43	1697,77
232,65	1640,42
232,87	1773,54
233,09	1632,23
233,30	1656,81
233,52	1736,68
233,74	1738,73
233,96	1710,05
234,18	1804,26
234,40	1779,68
234,61	1701,86
234,83	1611,75
235,05	1656,81
235,27	1867,75
235,49	1845,22
235,70	1728,49
235,92	1845,22
236,14	1718,25
236,36	1814,50
236,58	1675,24
236,79	1796,07
237,01	1810,40
237,23	1718,25
237,45	1806,31
237,67	1591,27
237,88	1726,44
238,10	1789,92
238,32	1763,30
238,54	1667,05
238,76	1699,81
238,97	1605,61
239,19	1691,62
239,41	1761,25
239,63	1773,54
239,85	1695,72
240,06	1675,24
240,28	1658,85
240,50	1822,69
240,72	1712,10
240,93	1724,39
241,15	1796,07
241,37	1712,10
241,59	1773,54
241,81	1650,66
242,02	1775,59
242,24	1740,77
242,46	1699,81
242,68	1701,86
242,89	1714,15
243,11	1787,88
243,33	1681,38
243,55	1697,77
243,76	1755,11
243,98	1593,32
244,20	1726,44
244,42	1742,82
244,64	1724,39
244,85	1689,57
245,07	1689,57
245,29	1705,96
245,51	1812,45
245,72	1767,40
245,94	1761,25
246,16	1683,43
246,38	1755,11
246,59	1671,14
246,81	1699,81
247,03	1726,44
247,24	1525,74
247,46	1644,52
247,68	1759,21
247,90	1675,24
248,11	1689,57
248,33	1781,73
248,55	1691,62
248,77	1757,16
248,98	1785,83
249,20	1824,74
249,42	1763,30
249,64	1791,97
249,85	1699,81
250,07	1695,72
250,29	1769,44
250,50	1712,10
250,72	1642,47
250,94	1736,68
251,16	1834,98
251,37	1740,77
251,59	1712,10
251,81	1769,44
252,02	1873,89
252,24	1691,62
252,46	1812,45
252,68	1695,72
252,89	1667,05
253,11	1591,27
253,33	1798,12
253,54	1771,49
253,76	1636,33
253,98	1697,77
254,20	1742,82
254,41	1607,66
254,63	1685,48
254,85	1642,47
255,06	1712,10
255,28	1701,86
255,50	1738,73
255,71	1695,72
255,93	1609,70
256,15	1652,71
256,36	1705,96
256,58	1699,81
256,80	1693,67
257,02	1689,57
257,23	1732,58
257,45	1761,25
257,67	1755,11
257,88	1716,20
258,10	1763,30
258,32	1656,81
258,53	1705,96
258,75	1777,64
258,97	1650,66
259,18	1667,05
259,40	1691,62
259,62	1816,55
259,83	1787,88
260,05	1683,43
260,27	2023,39
260,48	1783,78
260,70	1589,22
260,92	1720,29
261,13	1697,77
261,35	1650,66
261,57	1708,01
261,78	1726,44
262,00	1662,95
262,22	1777,64
262,43	1648,61
262,65	1662,95
262,86	1669,09
263,08	1853,41
263,30	1705,96
263,51	1652,71
263,73	1679,33
263,95	1824,74
264,16	1691,62
264,38	1738,73
264,60	1701,86
264,81	1695,72
265,03	1808,36
265,25	1757,16
265,46	1665,00
265,68	1740,77
265,89	1761,25
266,11	1660,90
266,33	1724,39
266,54	1832,93
266,76	1765,35
266,98	1808,36
267,19	1789,92
267,41	1683,43
267,62	1667,05
267,84	1667,05
268,06	1775,59
268,27	1669,09
268,49	1775,59
268,70	1771,49
268,92	1636,33
269,14	1687,53
269,35	1662,95
269,57	1724,39
269,79	1830,88
270,00	1595,37
270,22	1837,03
270,43	1705,96
270,65	1566,70
270,87	1763,30
271,08	1734,63
271,30	1785,83
271,51	1746,92
271,73	1685,48
271,95	1820,64
272,16	1738,73
272,38	1728,49
272,59	1667,05
272,81	1781,73
273,02	1708,01
273,24	1724,39
273,46	1705,96
273,67	1662,95
273,89	1675,24
274,10	1740,77
274,32	1824,74
274,54	1769,44
274,75	1748,97
274,97	1724,39
275,18	1761,25
275,40	1691,62
275,61	1691,62
275,83	1691,62
276,05	1603,56
276,26	1658,85
276,48	1800,16
276,69	1708,01
276,91	1677,29
277,12	1753,06
277,34	1753,06
277,55	1673,19
277,77	1697,77
277,99	1714,15
278,20	1673,19
278,42	1675,24
278,63	1660,90
278,85	1642,47
279,06	1658,85
279,28	1714,15
279,49	1794,02
279,71	1746,92
279,93	1703,91
280,14	1681,38
280,36	1660,90
280,57	1740,77
280,79	1759,21
281,00	1695,72
281,22	1691,62
281,43	1705,96
281,65	1611,75
281,86	1581,03
282,08	1791,97
282,29	1877,99
282,51	1589,22
282,73	1665,00
282,94	1689,57
283,16	1775,59
283,37	1722,34
283,59	1728,49
283,80	1705,96
284,02	1712,10
284,23	1816,55
284,45	1693,67
284,66	1681,38
284,88	1716,20
285,09	1724,39
285,31	1783,78
285,52	1785,83
285,74	1660,90
285,95	1818,60
286,17	1726,44
286,38	1734,63
286,60	1619,94
286,81	1732,58
287,03	1650,66
287,24	1738,73
287,46	1687,53
287,67	1736,68
287,89	1869,80
288,10	1697,77
288,32	1648,61
288,53	1775,59
288,75	1746,92
288,96	1759,21
289,18	1656,81
289,39	1712,10
289,61	1753,06
289,82	1834,98
290,04	1837,03
290,25	1693,67
290,47	1697,77
290,68	1710,05
290,90	1718,25
291,11	1611,75
291,33	1767,40
291,54	1673,19
291,76	1751,01
291,97	1701,86
292,18	1656,81
292,40	1671,14
292,61	1677,29
292,83	1855,46
293,04	1722,34
293,26	1746,92
293,47	1710,05
293,69	1658,85
293,90	1697,77
294,12	1734,63
294,33	1761,25
294,55	1710,05
294,76	1789,92
294,97	1734,63
295,19	1818,60
295,40	1681,38
295,62	1824,74
295,83	1757,16
296,05	1636,33
296,26	1736,68
296,48	1681,38
296,69	1712,10
296,90	1783,78
297,12	1714,15
297,33	1671,14
297,55	1699,81
297,76	1720,29
297,98	1820,64
298,19	1775,59
298,41	1714,15
298,62	1675,24
298,83	1796,07
299,05	1669,09
299,26	1662,95
299,48	1626,09
299,69	1714,15
299,90	1673,19
300,12	1642,47
300,33	1693,67
300,55	1728,49
300,76	1738,73
300,98	1662,95
301,19	1740,77
301,40	1619,94
301,62	1708,01
301,83	1728,49
302,05	1714,15
302,26	1738,73
302,47	1810,40
302,69	1710,05
302,90	1773,54
303,12	1628,14
303,33	1832,93
303,54	1837,03
303,76	1683,43
303,97	1722,34
304,19	1800,16
304,40	1683,43
304,61	1740,77
304,83	1865,70
305,04	1806,31
305,26	1722,34
305,47	1685,48
305,68	1630,18
305,90	1689,57
306,11	1785,83
306,33	1652,71
306,54	1683,43
306,75	1665,00
306,97	1693,67
307,18	1744,87
307,39	1708,01
307,61	1785,83
307,82	1769,44
308,04	1740,77
308,25	1665,00
308,46	1791,97
308,68	1740,77
308,89	1724,39
309,10	1746,92
309,32	1732,58
309,53	1665,00
309,74	1796,07
309,96	1742,82
310,17	1763,30
310,39	1681,38
310,60	1714,15
310,81	1787,88
311,03	1644,52
311,24	1755,11
311,45	1732,58
311,67	1873,89
311,88	1703,91
312,09	1712,10
312,31	1695,72
312,52	1736,68
312,73	1683,43
312,95	1632,23
313,16	1640,42
313,37	1708,01
313,59	1740,77
313,80	1660,90
314,01	1779,68
314,23	1781,73
314,44	1638,38
314,65	1656,81
314,87	1677,29
315,08	1730,53
315,29	1669,09
315,51	1667,05
315,72	1677,29
315,93	1763,30
316,15	1726,44
316,36	1687,53
316,57	1716,20
316,79	1746,92
317,00	1765,35
317,21	1687,53
317,43	1632,23
317,64	1671,14
317,85	1662,95
318,07	1665,00
318,28	1744,87
318,49	1816,55
318,70	1933,28
318,92	1828,84
319,13	1828,84
319,34	1800,16
319,56	1738,73
319,77	1837,03
319,98	1818,60
320,20	1828,84
320,41	1804,26
320,62	1687,53
320,83	1652,71
321,05	1882,08
321,26	1751,01
321,47	1724,39
321,69	1791,97
321,90	1652,71
322,11	1619,94
322,32	1705,96
322,54	1810,40
322,75	1722,34
322,96	1830,88
323,18	1603,56
323,39	1685,48
323,60	1636,33
323,81	1701,86
324,03	1701,86
324,24	1679,33
324,45	1705,96
324,66	1646,57
324,88	1771,49
325,09	1783,78
325,30	1701,86
325,52	1720,29
325,73	1722,34
325,94	1683,43
326,15	1587,18
326,37	1652,71
326,58	1732,58
326,79	1810,40
327,00	1665,00
327,22	1755,11
327,43	1687,53
327,64	1732,58
327,85	1755,11
328,07	1679,33
328,28	1781,73
328,49	1624,04
328,70	1779,68
328,92	1714,15
329,13	1636,33
329,34	1728,49
329,55	1812,45
329,76	1718,25
329,98	1683,43
330,19	1748,97
330,40	1761,25
330,61	1734,63
330,83	1769,44
331,04	1677,29
331,25	1748,97
331,46	1699,81
331,68	1681,38
331,89	1818,60
332,10	1746,92
332,31	1611,75
332,52	1693,67
332,74	1800,16
332,95	1595,37
333,16	1716,20
333,37	1832,93
333,58	1730,53
333,80	1744,87
334,01	1646,57
334,22	1714,15
334,43	1703,91
334,64	1677,29
334,86	1708,01
335,07	1675,24
335,28	1822,69
335,49	1658,85
335,70	1763,30
335,92	1779,68
336,13	1849,32
336,34	1679,33
336,55	1705,96
336,76	1720,29
336,98	1505,26
337,19	1714,15
337,40	1765,35
337,61	1949,67
337,82	1656,81
338,04	1775,59
338,25	1685,48
338,46	1726,44
338,67	1718,25
338,88	1665,00
339,09	1613,80
339,31	1718,25
339,52	1665,00
339,73	1675,24
339,94	1708,01
340,15	1720,29
340,36	1759,21
340,58	1714,15
340,79	1574,89
341,00	1738,73
341,21	1609,70
341,42	1767,40
341,63	1736,68
341,85	1691,62
342,06	1775,59
342,27	1662,95
342,48	1642,47
342,69	1689,57
342,90	1738,73
343,12	1740,77
343,33	1665,00
343,54	1767,40
343,75	1722,34
343,96	1748,97
344,17	1687,53
344,38	1708,01
344,60	1689,57
344,81	1658,85
345,02	1724,39
345,23	1785,83
345,44	1783,78
345,65	1710,05
345,86	1724,39
346,07	1673,19
346,29	1722,34
346,50	1796,07
346,71	1714,15
346,92	1769,44
347,13	1798,12
347,34	1726,44
347,55	1732,58
347,76	1746,92
347,98	1734,63
348,19	1755,11
348,40	1818,60
348,61	1730,53
348,82	1853,41
349,03	1728,49
349,24	1681,38
349,45	1796,07
349,66	1609,70
349,88	1679,33
350,09	1689,57
350,30	1871,84
350,51	1763,30
350,72	1667,05
350,93	1794,02
351,14	1763,30
351,35	1779,68
351,56	1716,20
351,77	1710,05
351,99	1857,51
352,20	1751,01
352,41	1761,25
352,62	1597,42
352,83	1744,87
353,04	1677,29
353,25	1644,52
353,46	1769,44
353,67	1744,87
353,88	1552,36
354,09	1734,63
354,30	1699,81
354,52	1675,24
354,73	1681,38
354,94	1693,67
355,15	1736,68
355,36	1763,30
355,57	1781,73
355,78	1728,49
355,99	1730,53
356,20	1630,18
356,41	1716,20
356,62	1771,49
356,83	1726,44
357,04	1828,84
357,25	1685,48
357,46	1724,39
357,68	1640,42
357,89	1621,99
358,10	1685,48
358,31	1658,85
358,52	1701,86
358,73	1656,81
358,94	1667,05
359,15	1640,42
359,36	1710,05
359,57	1744,87
359,78	1673,19
359,99	1816,55
360,20	1636,33
360,41	1697,77
360,62	1757,16
360,83	1722,34
361,04	1740,77
361,25	1730,53
361,46	1806,31
361,67	1689,57
361,88	1662,95
362,09	1734,63
362,30	1716,20
362,51	1701,86
362,72	1722,34
362,93	1798,12
363,14	1785,83
363,35	1728,49
363,56	1646,57
363,78	1767,40
363,99	1759,21
364,20	1712,10
364,41	1775,59
364,62	1847,27
364,83	1724,39
365,04	1693,67
365,25	1671,14
365,46	1769,44
365,67	1640,42
365,88	1652,71
366,09	1738,73
366,30	1761,25
366,51	1699,81
366,72	1599,46
366,93	1701,86
367,14	1710,05
367,35	1730,53
367,56	1734,63
367,77	1789,92
367,98	1720,29
368,18	1714,15
368,39	1763,30
368,60	1644,52
368,81	1791,97
369,02	1773,54
369,23	1718,25
369,44	1658,85
369,65	1716,20
369,86	1761,25
370,07	1765,35
370,28	1665,00
370,49	1751,01
370,70	1728,49
370,91	1746,92
371,12	1689,57
371,33	1767,40
371,54	1677,29
371,75	1779,68
371,96	1562,60
372,17	1724,39
372,38	1763,30
372,59	1742,82
372,80	1726,44
373,01	1650,66
373,22	1705,96
373,43	1724,39
373,64	1665,00
373,85	1779,68
374,06	1820,64
374,26	1652,71
374,47	1710,05
374,68	1683,43
374,89	1806,31
375,10	1644,52
375,31	1732,58
375,52	1728,49
375,73	1683,43
375,94	1650,66
376,15	1841,12
376,36	1675,24
376,57	1738,73
376,78	1732,58
376,99	1712,10
377,20	1841,12
377,40	1632,23
377,61	1808,36
377,82	1716,20
378,03	1814,50
378,24	1748,97
378,45	1640,42
378,66	1720,29
378,87	1648,61
379,08	1646,57
379,29	1665,00
379,50	1822,69
379,71	1697,77
379,91	1777,64
380,12	1679,33
380,33	1789,92
380,54	1646,57
380,75	1673,19
380,96	1685,48
381,17	1818,60
381,38	1773,54
381,59	1767,40
381,80	1734,63
382,00	1871,84
382,21	1779,68
382,42	1843,17
382,63	1832,93
382,84	1736,68
383,05	1677,29
383,26	1771,49
383,47	1710,05
383,68	1730,53
383,88	1755,11
384,09	1734,63
384,30	1812,45
384,51	1783,78
384,72	1767,40
384,93	1683,43
385,14	1703,91
385,35	1839,08
385,55	1660,90
385,76	1730,53
385,97	1652,71
386,18	1675,24
386,39	1683,43
386,60	1726,44
386,81	1660,90
387,02	1646,57
387,22	1767,40
387,43	1728,49
387,64	1789,92
387,85	1865,70
388,06	2256,86
388,27	4235,20
388,48	6682,52
388,68	7999,37
388,89	9553,77
389,10	9848,68
389,31	8658,81
389,52	7473,04
389,73	6563,74
389,93	6141,86
390,14	5652,39
390,35	5095,35
390,56	4480,96
390,77	3774,41
390,98	2973,65
391,18	2451,42
391,39	2127,84
391,60	1839,08
391,81	1869,80
392,02	1742,82
392,23	1871,84
392,43	1677,29
392,64	1775,59
392,85	1755,11
393,06	1767,40
393,27	1687,53
393,47	1683,43
393,68	1699,81
393,89	1658,85
394,10	1718,25
394,31	1673,19
394,52	1685,48
394,72	1753,06
394,93	1785,83
395,14	1669,09
395,35	1673,19
395,56	1689,57
395,76	1705,96
395,97	1820,64
396,18	1806,31
396,39	1834,98
396,60	1992,67
396,80	1943,52
397,01	1857,51
397,22	1834,98
397,43	1849,32
397,64	1734,63
397,84	1808,36
398,05	1875,94
398,26	1755,11
398,47	1773,54
398,67	1830,88
398,88	1769,44
399,09	1720,29
399,30	1779,68
399,51	1728,49
399,71	1607,66
399,92	1671,14
400,13	1820,64
400,34	1738,73
400,54	1722,34
400,75	1773,54
400,96	1765,35
401,17	1771,49
401,37	1804,26
401,58	1675,24
401,79	1662,95
402,00	1918,95
402,21	2011,11
402,41	1970,15
402,62	1972,19
402,83	1957,86
403,04	2013,15
403,24	2009,06
403,45	1845,22
403,66	1916,90
403,87	1863,65
404,07	1869,80
404,28	1888,23
404,49	1916,90
404,70	1830,88
404,90	1771,49
405,11	1744,87
405,32	1796,07
405,52	1634,28
405,73	1703,91
405,94	1740,77
406,15	1613,80
406,35	1714,15
406,56	1779,68
406,77	1732,58
406,98	1667,05
407,18	1738,73
407,39	1763,30
407,60	1705,96
407,80	1687,53
408,01	1746,92
408,22	1769,44
408,43	1710,05
408,63	1826,79
408,84	1794,02
409,05	1824,74
409,25	1662,95
409,46	1685,48
409,67	1742,82
409,88	1566,70
410,08	1748,97
410,29	1679,33
410,50	1755,11
410,70	1660,90
410,91	1736,68
411,12	1755,11
411,32	1701,86
411,53	1730,53
411,74	1810,40
411,95	1812,45
412,15	1775,59
412,36	1832,93
412,57	1742,82
412,77	1814,50
412,98	1654,76
413,19	1730,53
413,39	1775,59
413,60	1718,25
413,81	1738,73
414,01	1658,85
414,22	1732,58
414,43	1777,64
414,63	1644,52
414,84	1802,21
415,05	1759,21
415,25	1619,94
415,46	1712,10
415,67	1660,90
415,87	1847,27
416,08	1660,90
416,29	1624,04
416,49	1736,68
416,70	1611,75
416,91	1732,58
417,11	1705,96
417,32	1857,51
417,53	1781,73
417,73	1755,11
417,94	1701,86
418,15	1640,42
418,35	1748,97
418,56	1687,53
418,77	1845,22
418,97	1705,96
419,18	1646,57
419,38	1636,33
419,59	1726,44
419,80	1765,35
420,00	1667,05
420,21	1722,34
420,42	1828,84
420,62	1669,09
420,83	1656,81
421,04	1712,10
421,24	1712,10
421,45	1769,44
421,65	1744,87
421,86	1714,15
422,07	1785,83
422,27	1787,88
422,48	1748,97
422,69	1685,48
422,89	1677,29
423,10	1650,66
423,30	1705,96
423,51	1697,77
423,72	1695,72
423,92	1701,86
424,13	1615,85
424,33	1746,92
424,54	1853,41
424,75	1699,81
424,95	1843,17
425,16	1761,25
425,36	1650,66
425,57	1761,25
425,78	1816,55
425,98	1765,35
426,19	1658,85
426,39	1640,42
426,60	1753,06
426,81	1839,08
427,01	1753,06
427,22	1708,01
427,42	1681,38
427,63	1755,11
427,83	1728,49
428,04	1773,54
428,25	1812,45
428,45	1896,42
428,66	1777,64
428,86	1738,73
429,07	1665,00
429,28	1742,82
429,48	1703,91
429,69	1703,91
429,89	1710,05
430,10	1615,85
430,30	1767,40
430,51	1796,07
430,71	1646,57
430,92	1732,58
431,13	1693,67
431,33	1705,96
431,54	1697,77
431,74	1820,64
431,95	1773,54
432,15	1689,57
432,36	1720,29
432,56	1796,07
432,77	1753,06
432,98	1865,70
433,18	1671,14
433,39	1660,90
433,59	1681,38
433,80	1875,94
434,00	1869,80
434,21	1683,43
434,41	1751,01
434,62	1853,41
434,82	1662,95
435,03	1701,86
435,23	1796,07
435,44	1634,28
435,64	1822,69
435,85	1714,15
436,06	1794,02
436,26	1738,73
436,47	1691,62
436,67	1675,24
436,88	1716,20
437,08	1800,16
437,29	1818,60
437,49	1730,53
437,70	1789,92
437,90	1757,16
438,11	1837,03
438,31	1779,68
438,52	1816,55
438,72	1894,37
438,93	1910,75
439,13	1746,92
439,34	1841,12
439,54	1691,62
439,75	1791,97
439,95	1779,68
440,16	1777,64
440,36	1826,79
440,57	1740,77
440,77	1726,44
440,98	1728,49
441,18	1691,62
441,39	1767,40
441,59	1703,91
441,80	1877,99
442,00	1748,97
442,21	1884,13
442,41	1669,09
442,62	1748,97
442,82	1701,86
443,02	1783,78
443,23	1675,24
443,43	1677,29
443,64	1834,98
443,84	1628,14
444,05	1798,12
444,25	1714,15
444,46	1714,15
444,66	1751,01
444,87	1851,36
445,07	1607,66
445,28	1802,21
445,48	1873,89
445,69	1755,11
445,89	1859,56
446,09	1701,86
446,30	2013,15
446,50	2635,74
446,71	3635,14
446,91	4317,12
447,12	4521,92
447,32	4804,53
447,53	4292,54
447,73	3833,80
447,93	3534,79
448,14	3241,93
448,34	3360,72
448,55	2963,41
448,75	2801,62
448,96	2736,09
449,16	2453,47
449,36	2385,88
449,57	2076,64
449,77	1939,43
449,98	1810,40
450,18	1761,25
450,39	1832,93
450,59	1804,26
450,79	1773,54
451,00	1734,63
451,20	1812,45
451,41	1751,01
451,61	1806,31
451,81	1734,63
452,02	1720,29
452,22	1773,54
452,43	1685,48
452,63	1738,73
452,84	1656,81
453,04	1699,81
453,24	1714,15
453,45	1761,25
453,65	1650,66
453,86	1748,97
454,06	1742,82
454,26	1710,05
454,47	1576,94
454,67	1822,69
454,87	1761,25
455,08	1636,33
455,28	1828,84
455,49	1783,78
455,69	1728,49
455,89	1847,27
456,10	1794,02
456,30	1744,87
456,51	1787,88
456,71	1755,11
456,91	1744,87
457,12	1759,21
457,32	1779,68
457,52	1685,48
457,73	1763,30
457,93	1794,02
458,14	1703,91
458,34	1644,52
458,54	1673,19
458,75	1822,69
458,95	1785,83
459,15	1796,07
459,36	1781,73
459,56	1806,31
459,76	1804,26
459,97	1798,12
460,17	1761,25
460,37	1765,35
460,58	1800,16
460,78	1769,44
460,99	1742,82
461,19	1718,25
461,39	1773,54
461,60	1769,44
461,80	1736,68
462,00	1693,67
462,21	1681,38
462,41	1722,34
462,61	1630,18
462,82	1656,81
463,02	1791,97
463,22	1726,44
463,43	1769,44
463,63	1693,67
463,83	1830,88
464,04	1777,64
464,24	1701,86
464,44	1665,00
464,64	1730,53
464,85	1798,12
465,05	1787,88
465,25	1671,14
465,46	1726,44
465,66	1755,11
465,86	1759,21
466,07	1802,21
466,27	1748,97
466,47	1662,95
466,68	1697,77
466,88	1785,83
467,08	1781,73
467,29	1695,72
467,49	1767,40
467,69	1691,62
467,89	1863,65
468,10	1759,21
468,30	1755,11
468,50	1738,73
468,71	1837,03
468,91	1671,14
469,11	1925,09
469,31	1722,34
469,52	1699,81
469,72	1808,36
469,92	1791,97
470,13	1716,20
470,33	1742,82
470,53	1830,88
470,73	2084,83
470,94	2303,96
471,14	2287,58
471,34	2498,52
471,54	2435,03
471,75	2238,43
471,95	2117,60
472,15	2119,65
472,36	2084,83
472,56	2052,06
472,76	2097,12
472,96	2029,54
473,17	1966,05
473,37	1994,72
473,57	1798,12
473,77	1902,56
473,98	1708,01
474,18	1720,29
474,38	1953,76
474,58	1722,34
474,79	1675,24
474,99	1746,92
475,19	1785,83
475,39	1689,57
475,60	1648,61
475,80	1794,02
476,00	1736,68
476,20	1730,53
476,41	1734,63
476,61	1918,95
476,81	1796,07
477,01	1722,34
477,21	1820,64
477,42	1822,69
477,62	1683,43
477,82	1753,06
478,02	1689,57
478,23	1730,53
478,43	1716,20
478,63	1724,39
478,83	1708,01
479,03	1648,61
479,24	1769,44
479,44	1906,66
479,64	1658,85
479,84	1654,76
480,04	1683,43
480,25	1708,01
480,45	1665,00
480,65	1751,01
480,85	1796,07
481,06	1683,43
481,26	1771,49
481,46	1681,38
481,66	1761,25
481,86	1697,77
482,06	1839,08
482,27	1734,63
482,47	1662,95
482,67	1673,19
482,87	1699,81
483,07	1800,16
483,28	1681,38
483,48	1724,39
483,68	1708,01
483,88	1720,29
484,08	1660,90
484,29	1646,57
484,49	1693,67
484,69	1724,39
484,89	1783,78
485,09	1804,26
485,29	1755,11
485,50	1746,92
485,70	1740,77
485,90	1882,08
486,10	1673,19
486,30	1777,64
486,50	1834,98
486,71	1740,77
486,91	1773,54
487,11	1875,94
487,31	1718,25
487,51	1736,68
487,71	1681,38
487,91	1599,46
488,12	1730,53
488,32	1699,81
488,52	1718,25
488,72	1628,14
488,92	1755,11
489,12	1771,49
489,32	1808,36
489,53	1753,06
489,73	1632,23
489,93	1859,56
490,13	1681,38
490,33	1689,57
490,53	1730,53
490,73	1789,92
490,94	1712,10
491,14	1783,78
491,34	1904,61
491,54	2199,52
491,74	2516,95
491,94	2926,55
492,14	3086,29
492,34	3008,47
492,54	2715,61
492,75	2586,58
492,95	2383,84
493,15	2369,50
493,35	2365,40
493,55	2250,72
493,75	2113,50
493,95	2185,18
494,15	1986,53
494,35	1882,08
494,56	1812,45
494,76	1722,34
494,96	1830,88
495,16	1808,36
495,36	1771,49
495,56	1710,05
495,76	1759,21
495,96	1691,62
496,16	1695,72
496,36	1830,88
496,56	1791,97
496,77	1759,21
496,97	1757,16
497,17	1767,40
497,37	1624,04
497,57	1712,10
497,77	1722,34
497,97	1757,16
498,17	1765,35
498,37	1587,18
498,57	1794,02
498,77	1730,53
498,97	1720,29
499,17	1777,64
499,38	1726,44
499,58	1726,44
499,78	1796,07
499,98	1800,16
500,18	1753,06
500,38	1693,67
500,58	1886,18
500,78	2461,66
500,98	4614,07
501,18	5826,47
501,38	6762,39
501,58	6934,42
501,78	6729,63
501,98	5359,53
502,18	4995,00
502,38	4448,19
502,58	4071,36
502,78	3749,83
502,98	3733,45
503,18	3456,97
503,38	3117,01
503,59	2822,10
503,79	2648,02
503,99	2508,76
504,19	2312,16
504,39	2269,15
504,59	2226,14
504,79	2162,66
504,99	2066,40
505,19	1953,76
505,39	1861,60
505,59	2019,30
505,79	1931,23
505,99	1849,32
506,19	1877,99
506,39	1865,70
506,59	1787,88
506,79	1781,73
506,99	1837,03
507,19	1769,44
507,39	1865,70
507,59	1722,34
507,79	1701,86
507,99	1726,44
508,19	1724,39
508,39	1714,15
508,59	1689,57
508,79	1845,22
508,99	1892,32
509,19	1714,15
509,39	1804,26
509,59	1685,48
509,79	1740,77
509,99	1789,92
510,19	1845,22
510,39	1722,34
510,59	1691,62
510,79	1816,55
510,99	1734,63
511,19	1800,16
511,39	1863,65
511,59	1798,12
511,79	1865,70
511,99	1818,60
512,19	1767,40
512,38	1753,06
512,58	1746,92
512,78	1796,07
512,98	1806,31
513,18	1820,64
513,38	1660,90
513,58	1773,54
513,78	1710,05
513,98	1861,60
514,18	1634,28
514,38	1644,52
514,58	1736,68
514,78	1726,44
514,98	1650,66
515,18	1662,95
515,38	1687,53
515,58	1873,89
515,78	1824,74
515,98	1757,16
516,18	1822,69
516,38	1751,01
516,57	1705,96
516,77	1677,29
516,97	1791,97
517,17	1685,48
517,37	1630,18
517,57	1800,16
517,77	1824,74
517,97	1738,73
518,17	1785,83
518,37	1640,42
518,57	1740,77
518,77	1681,38
518,97	1738,73
519,16	1714,15
519,36	1761,25
519,56	1777,64
519,76	1738,73
519,96	1685,48
520,16	1791,97
520,36	1669,09
520,56	1755,11
520,76	1724,39
520,96	1722,34
521,16	1800,16
521,35	1859,56
521,55	1814,50
521,75	1785,83
521,95	1665,00
522,15	1708,01
522,35	1656,81
522,55	1726,44
522,75	1726,44
522,95	1746,92
523,14	1718,25
523,34	1753,06
523,54	1697,77
523,74	1757,16
523,94	1761,25
524,14	1681,38
524,34	1796,07
524,54	1826,79
524,73	1681,38
524,93	1757,16
525,13	1718,25
525,33	1665,00
525,53	1914,85
525,73	1771,49
525,93	1748,97
526,13	1691,62
526,32	1753,06
526,52	1769,44
526,72	1845,22
526,92	1759,21
527,12	1755,11
527,32	1746,92
527,52	1812,45
527,71	1806,31
527,91	1730,53
528,11	1671,14
528,31	1683,43
528,51	1703,91
528,71	1763,30
528,90	1763,30
529,10	1808,36
529,30	1894,37
529,50	1628,14
529,70	1685,48
529,90	1730,53
530,09	1796,07
530,29	1732,58
530,49	1654,76
530,69	1920,99
530,89	1751,01
531,09	1787,88
531,28	1730,53
531,48	1820,64
531,68	1775,59
531,88	1734,63
532,08	1796,07
532,28	1783,78
532,47	1773,54
532,67	1830,88
532,87	1740,77
533,07	1728,49
533,27	1779,68
533,46	1839,08
533,66	1751,01
533,86	1783,78
534,06	1757,16
534,26	1787,88
534,45	1746,92
534,65	1828,84
534,85	1773,54
535,05	1759,21
535,25	1748,97
535,44	1681,38
535,64	1734,63
535,84	1724,39
536,04	1710,05
536,24	1730,53
536,43	1665,00
536,63	1810,40
536,83	1751,01
537,03	1740,77
537,22	1652,71
537,42	1712,10
537,62	1777,64
537,82	1718,25
538,02	1791,97
538,21	1779,68
538,41	1914,85
538,61	1710,05
538,81	1708,01
539,00	1853,41
539,20	1738,73
539,40	1763,30
539,60	1720,29
539,79	1812,45
539,99	1740,77
540,19	1701,86
540,39	1767,40
540,58	1720,29
540,78	1861,60
540,98	1730,53
541,18	1738,73
541,37	1824,74
541,57	1759,21
541,77	1730,53
541,97	1697,77
542,16	1646,57
542,36	1814,50
542,56	1734,63
542,76	1777,64
542,95	1785,83
543,15	1779,68
543,35	1818,60
543,54	1724,39
543,74	1718,25
543,94	1888,23
544,14	1667,05
544,33	1828,84
544,53	1728,49
544,73	1744,87
544,93	1722,34
545,12	1658,85
545,32	1751,01
545,52	1644,52
545,71	1720,29
545,91	1734,63
546,11	1761,25
546,30	1671,14
546,50	1761,25
546,70	1753,06
546,90	1816,55
547,09	1683,43
547,29	1781,73
547,49	1759,21
547,68	1759,21
547,88	1738,73
548,08	1765,35
548,27	2170,85
548,47	1787,88
548,67	1755,11
548,87	1763,30
549,06	1761,25
549,26	1777,64
549,46	1732,58
549,65	1728,49
549,85	1681,38
550,05	1806,31
550,24	1689,57
550,44	1763,30
550,64	1734,63
550,83	1728,49
551,03	1855,46
551,23	1808,36
551,42	1775,59
551,62	1746,92
551,82	1763,30
552,01	1636,33
552,21	1857,51
552,41	1800,16
552,60	1773,54
552,80	1730,53
553,00	1734,63
553,19	1759,21
553,39	1865,70
553,59	1722,34
553,78	1738,73
553,98	1761,25
554,17	1761,25
554,37	1800,16
554,57	1820,64
554,76	1679,33
554,96	1701,86
555,16	1705,96
555,35	1781,73
555,55	1773,54
555,75	1857,51
555,94	1800,16
556,14	1626,09
556,33	1734,63
556,53	1687,53
556,73	1832,93
556,92	1787,88
557,12	1787,88
557,32	1865,70
557,51	1802,21
557,71	1753,06
557,90	1810,40
558,10	1820,64
558,30	1740,77
558,49	1728,49
558,69	1742,82
558,88	1714,15
559,08	1722,34
559,28	1714,15
559,47	1705,96
559,67	1761,25
559,86	1826,79
560,06	1738,73
560,26	1724,39
560,45	1800,16
560,65	1691,62
560,84	1785,83
561,04	1693,67
561,24	1791,97
561,43	1697,77
561,63	1822,69
561,82	1775,59
562,02	1767,40
562,22	1787,88
562,41	1722,34
562,61	1738,73
562,80	1677,29
563,00	1853,41
563,19	1732,58
563,39	1746,92
563,59	1830,88
563,78	1687,53
563,98	1693,67
564,17	1726,44
564,37	1615,85
564,56	1769,44
564,76	1683,43
564,96	1814,50
565,15	1796,07
565,35	1869,80
565,54	1720,29
565,74	1800,16
565,93	1783,78
566,13	1695,72
566,32	1800,16
566,52	1759,21
566,71	1746,92
566,91	1765,35
567,11	1806,31
567,30	1777,64
567,50	1732,58
567,69	1816,55
567,89	1779,68
568,08	1738,73
568,28	1744,87
568,47	1695,72
568,67	1714,15
568,86	1765,35
569,06	1806,31
569,25	1673,19
569,45	1677,29
569,64	1626,09
569,84	1689,57
570,04	1865,70
570,23	1697,77
570,43	1703,91
570,62	1800,16
570,82	1832,93
571,01	1710,05
571,21	1697,77
571,40	1679,33
571,60	1804,26
571,79	1765,35
571,99	1785,83
572,18	1728,49
572,38	1763,30
572,57	1705,96
572,77	1757,16
572,96	1900,52
573,16	1834,98
573,35	1681,38
573,55	1886,18
573,74	1826,79
573,94	1779,68
574,13	1699,81
574,33	1841,12
574,52	1787,88
574,71	1763,30
574,91	1775,59
575,10	1615,85
575,30	1675,24
575,49	1720,29
575,69	1677,29
575,88	1796,07
576,08	1724,39
576,27	1816,55
576,47	1728,49
576,66	1763,30
576,86	1822,69
577,05	1710,05
577,25	1798,12
577,44	1791,97
577,64	1673,19
577,83	1804,26
578,02	1775,59
578,22	1855,46
578,41	1914,85
578,61	1714,15
578,80	1736,68
579,00	1751,01
579,19	1765,35
579,39	1808,36
579,58	1789,92
579,77	1722,34
579,97	1855,46
580,16	1775,59
580,36	1841,12
580,55	1822,69
580,75	1763,30
580,94	1783,78
581,13	1937,38
581,33	1859,56
581,52	1765,35
581,72	1968,10
581,91	1810,40
582,11	1867,75
582,30	1789,92
582,49	1765,35
582,69	1955,81
582,88	1767,40
583,08	1753,06
583,27	1794,02
583,47	1734,63
583,66	1783,78
583,85	1677,29
584,05	1771,49
584,24	1804,26
584,44	1783,78
584,63	1834,98
584,82	1800,16
585,02	1828,84
585,21	1779,68
585,41	1757,16
585,60	1849,32
585,79	1984,48
585,99	1992,67
586,18	1875,94
586,37	2127,84
586,57	3422,16
586,76	9697,13
586,96	24274,57
587,15	34010,62
587,34	39898,53
587,54	41975,17
587,73	36357,59
587,93	25955,96
588,12	21329,59
588,31	17872,62
588,51	16267,02
588,70	14815,01
588,89	13928,24
589,09	12437,31
589,28	10858,33
589,47	9123,70
589,67	7884,68
589,86	6432,67
590,06	4872,12
590,25	3874,76
590,44	3160,02
590,64	2525,15
590,83	2357,21
591,02	2125,79
591,22	1920,99
591,41	1982,43
591,60	1841,12
591,80	1964,00
591,99	1738,73
592,18	1824,74
592,38	1873,89
592,57	1789,92
592,76	1853,41
592,96	1857,51
593,15	1816,55
593,34	1892,32
593,54	1773,54
593,73	1845,22
593,92	1693,67
594,12	1730,53
594,31	1695,72
594,50	1796,07
594,70	1796,07
594,89	1912,80
595,08	1742,82
595,28	1826,79
595,47	1961,95
595,66	1781,73
595,86	1669,09
596,05	1755,11
596,24	1736,68
596,43	1865,70
596,63	1839,08
596,82	1708,01
597,01	1806,31
597,21	1869,80
597,40	1726,44
597,59	1714,15
597,79	1740,77
597,98	1767,40
598,17	1763,30
598,36	1847,27
598,56	1796,07
598,75	1660,90
598,94	1755,11
599,14	1718,25
599,33	1718,25
599,52	1753,06
599,71	1753,06
599,91	1746,92
600,10	1804,26
600,29	1738,73
600,48	1812,45
600,68	1757,16
600,87	1759,21
601,06	1701,86
601,26	1734,63
601,45	1818,60
601,64	1767,40
601,83	1871,84
602,03	1744,87
602,22	1701,86
602,41	1740,77
602,60	1873,89
602,80	1802,21
602,99	1832,93
603,18	1761,25
603,37	1771,49
603,57	1738,73
603,76	1779,68
603,95	1785,83
604,14	1767,40
604,34	1693,67
604,53	1794,02
604,72	1789,92
604,91	1748,97
605,10	1794,02
605,30	1748,97
605,49	1781,73
605,68	1777,64
605,87	1775,59
606,07	1712,10
606,26	1785,83
606,45	1765,35
606,64	1748,97
606,84	1742,82
607,03	1763,30
607,22	1806,31
607,41	1710,05
607,60	1730,53
607,80	1724,39
607,99	1751,01
608,18	1695,72
608,37	1718,25
608,56	1669,09
608,76	1822,69
608,95	1820,64
609,14	1703,91
609,33	1775,59
609,52	1822,69
609,72	1740,77
609,91	1773,54
610,10	1794,02
610,29	1777,64
610,48	1767,40
610,68	1771,49
610,87	1757,16
611,06	1761,25
611,25	1779,68
611,44	1806,31
611,63	1675,24
611,83	1767,40
612,02	1695,72
612,21	1738,73
612,40	1675,24
612,59	1669,09
612,79	1773,54
612,98	1683,43
613,17	1751,01
613,36	1738,73
613,55	1873,89
613,74	1732,58
613,93	1728,49
614,13	1705,96
614,32	1689,57
614,51	1722,34
614,70	1724,39
614,89	1734,63
615,08	1773,54
615,28	2099,17
615,47	1669,09
615,66	1695,72
615,85	1730,53
616,04	1873,89
616,23	1689,57
616,42	1783,78
616,62	1769,44
616,81	1773,54
617,00	1697,77
617,19	1769,44
617,38	1677,29
617,57	1679,33
617,76	1779,68
617,95	1779,68
618,15	1781,73
618,34	1816,55
618,53	1652,71
618,72	1773,54
618,91	1800,16
619,10	1826,79
619,29	1755,11
619,48	1781,73
619,68	1701,86
619,87	1849,32
620,06	1624,04
620,25	1730,53
620,44	1732,58
620,63	1740,77
620,82	1736,68
621,01	1775,59
621,20	1685,48
621,39	1744,87
621,59	1828,84
621,78	1767,40
621,97	1757,16
622,16	1787,88
622,35	1759,21
622,54	1744,87
622,73	1794,02
622,92	1671,14
623,11	1830,88
623,30	1677,29
623,49	1732,58
623,68	1746,92
623,88	1771,49
624,07	1652,71
624,26	1759,21
624,45	1722,34
624,64	1726,44
624,83	1730,53
625,02	1730,53
625,21	1798,12
625,40	1759,21
625,59	1791,97
625,78	1751,01
625,97	1783,78
626,16	1701,86
626,35	1785,83
626,54	1738,73
626,74	1787,88
626,93	1728,49
627,12	1705,96
627,31	1710,05
627,50	1804,26
627,69	1796,07
627,88	1665,00
628,07	1689,57
628,26	1679,33
628,45	1628,14
628,64	1669,09
628,83	1818,60
629,02	1710,05
629,21	1746,92
629,40	1800,16
629,59	1738,73
629,78	1681,38
629,97	1779,68
630,16	1734,63
630,35	1734,63
630,54	1785,83
630,73	1724,39
630,92	1755,11
631,11	1722,34
631,30	1705,96
631,49	1851,36
631,68	1779,68
631,87	1763,30
632,06	1697,77
632,25	1869,80
632,44	1722,34
632,63	1791,97
632,82	1716,20
633,01	1787,88
633,20	1800,16
633,39	1701,86
633,58	1689,57
633,77	1714,15
633,96	1763,30
634,15	1798,12
634,34	1730,53
634,53	1746,92
634,72	1660,90
634,91	1628,14
635,10	1722,34
635,29	1765,35
635,48	1820,64
635,67	1726,44
635,86	1679,33
636,05	1882,08
636,24	1652,71
636,43	1714,15
636,62	1789,92
636,81	1572,84
637,00	1738,73
637,19	1718,25
637,38	1800,16
637,57	1753,06
637,76	1683,43
637,95	1726,44
638,14	1685,48
638,33	1689,57
638,52	1681,38
638,71	1626,09
638,89	1708,01
639,08	1918,95
639,27	1789,92
639,46	1736,68
639,65	1791,97
639,84	1759,21
640,03	1804,26
640,22	1703,91
640,41	1806,31
640,60	1654,76
640,79	1769,44
640,98	1675,24
641,17	1742,82
641,36	1722,34
641,55	1763,30
641,74	1667,05
641,92	1720,29
642,11	1617,90
642,30	1673,19
642,49	1683,43
642,68	1673,19
642,87	1751,01
643,06	1697,77
643,25	1638,38
643,44	1628,14
643,63	1656,81
643,82	1812,45
644,00	1665,00
644,19	1755,11
644,38	1691,62
644,57	1755,11
644,76	1722,34
644,95	1716,20
645,14	1726,44
645,33	1722,34
645,52	1791,97
645,71	1679,33
645,89	1660,90
646,08	1718,25
646,27	1722,34
646,46	1828,84
646,65	1710,05
646,84	1728,49
647,03	1689,57
647,22	1781,73
647,40	1726,44
647,59	1722,34
647,78	1648,61
647,97	1734,63
648,16	1697,77
648,35	1785,83
648,54	1783,78
648,73	1646,57
648,91	1787,88
649,10	1742,82
649,29	1626,09
649,48	1748,97
649,67	1683,43
649,86	1644,52
650,05	1669,09
650,23	1798,12
650,42	1710,05
650,61	1746,92
650,80	1818,60
650,99	1796,07
651,18	1845,22
651,36	1708,01
651,55	1734,63
651,74	1697,77
651,93	1685,48
652,12	1726,44
652,31	1685,48
652,49	1730,53
652,68	1640,42
652,87	1816,55
653,06	1730,53
653,25	1826,79
653,44	1681,38
653,62	1785,83
653,81	1679,33
654,00	1753,06
654,19	1771,49
654,38	1886,18
654,56	1679,33
654,75	1765,35
654,94	1732,58
655,13	1716,20
655,32	1687,53
655,51	1736,68
655,69	1683,43
655,88	1773,54
656,07	1689,57
656,26	1708,01
656,45	1744,87
656,63	1742,82
656,82	1787,88
657,01	1802,21
657,20	1652,71
657,38	1877,99
657,57	1716,20
657,76	1646,57
657,95	1724,39
658,14	1660,90
658,32	1816,55
658,51	1667,05
658,70	1685,48
658,89	1783,78
659,08	1730,53
659,26	1761,25
659,45	1646,57
659,64	1693,67
659,83	1679,33
660,01	1959,91
660,20	1730,53
660,39	1746,92
660,58	1638,38
660,76	1736,68
660,95	1538,02
661,14	1689,57
661,33	1660,90
661,51	1748,97
661,70	1669,09
661,89	1771,49
662,08	1744,87
662,26	1626,09
662,45	1583,08
662,64	1929,19
662,83	1834,98
663,01	1685,48
663,20	1699,81
663,39	1822,69
663,58	1734,63
663,76	1783,78
663,95	1708,01
664,14	1656,81
664,32	1689,57
664,51	1773,54
664,70	1634,28
664,89	1748,97
665,07	1677,29
665,26	1742,82
665,45	1689,57
665,64	1771,49
665,82	1769,44
666,01	1824,74
666,20	1726,44
666,38	1804,26
666,57	1841,12
666,76	2185,18
666,95	4425,66
667,13	10325,86
667,32	15327,00
667,51	17940,21
667,69	18771,68
667,88	17444,60
668,07	12273,48
668,25	9443,18
668,44	8101,76
668,63	7456,65
668,81	6703,00
669,00	6104,99
669,19	5576,62
669,38	5005,24
669,56	4478,91
669,75	3893,19
669,94	3373,00
670,12	2934,74
670,31	2504,67
670,50	2238,43
670,68	2121,70
670,87	1882,08
671,06	1814,50
671,24	1761,25
671,43	1832,93
671,62	1699,81
671,80	1726,44
671,99	1714,15
672,18	1722,34
672,36	1728,49
672,55	1769,44
672,74	1742,82
672,92	1714,15
673,11	1789,92
673,29	1587,18
673,48	1699,81
673,67	1650,66
673,85	1783,78
674,04	1660,90
674,23	1699,81
674,41	1918,95
674,60	1646,57
674,79	1660,90
674,97	1667,05
675,16	1781,73
675,34	1753,06
675,53	1701,86
675,72	1714,15
675,90	1824,74
676,09	1689,57
676,28	1689,57
676,46	1564,65
676,65	1734,63
676,83	1759,21
677,02	1722,34
677,21	1730,53
677,39	1730,53
677,58	1673,19
677,77	1759,21
677,95	1744,87
678,14	1718,25
678,32	1689,57
678,51	1660,90
678,70	1839,08
678,88	1718,25
679,07	1746,92
679,25	1681,38
679,44	1703,91
679,63	1728,49
679,81	1736,68
680,00	1783,78
680,18	1748,97
680,37	1761,25
680,55	1658,85
680,74	1703,91
680,93	1621,99
681,11	1748,97
681,30	1787,88
681,48	1716,20
681,67	1675,24
681,85	1722,34
682,04	1722,34
682,23	1802,21
682,41	1775,59
682,60	1736,68
682,78	1722,34
682,97	1648,61
683,15	1740,77
683,34	1734,63
683,53	1740,77
683,71	1667,05
683,90	1751,01
684,08	1806,31
684,27	1710,05
684,45	1730,53
684,64	1785,83
684,82	1724,39
685,01	1763,30
685,19	1705,96
685,38	1705,96
685,57	1669,09
685,75	1628,14
685,94	1718,25
686,12	1646,57
686,31	1699,81
686,49	1824,74
686,68	1638,38
686,86	1791,97
687,05	1710,05
687,23	1781,73
687,42	1769,44
687,60	1662,95
687,79	1726,44
687,97	1708,01
688,16	1755,11
688,34	1775,59
688,53	1624,04
688,71	1771,49
688,90	1771,49
689,08	1724,39
689,27	1671,14
689,45	1794,02
689,64	1675,24
689,82	1665,00
690,01	1794,02
690,19	1716,20
690,38	1767,40
690,56	1767,40
690,75	1736,68
690,93	1710,05
691,12	1699,81
691,30	1705,96
691,49	1628,14
691,67	1685,48
691,86	1806,31
692,04	1667,05
692,23	1753,06
692,41	1718,25
692,60	1714,15
692,78	1726,44
692,97	1708,01
693,15	1718,25
693,34	1837,03
693,52	1814,50
693,71	1677,29
693,89	1714,15
694,08	1705,96
694,26	1710,05
694,44	1802,21
694,63	1765,35
694,81	1708,01
695,00	1634,28
695,18	1748,97
695,37	1865,70
695,55	1773,54
695,74	1722,34
695,92	1716,20
696,10	1742,82
696,29	1708,01
696,47	1697,77
696,66	1650,66
696,84	1705,96
697,03	1753,06
697,21	1816,55
697,40	2377,69
697,58	1742,82
697,76	1691,62
697,95	1751,01
698,13	1617,90
698,32	1689,57
698,50	1794,02
698,68	1775,59
698,87	1701,86
699,05	1814,50
699,24	1708,01
699,42	1656,81
699,61	1695,72
699,79	1718,25
699,97	1705,96
700,16	1630,18
700,34	1693,67
700,53	1728,49
700,71	1810,40
700,89	1689,57
701,08	1683,43
701,26	1798,12
701,45	2123,74
701,63	1697,77
701,81	1669,09
702,00	1683,43
702,18	1720,29
702,37	1687,53
702,55	1740,77
702,73	1736,68
702,92	1619,94
703,10	1767,40
703,28	1675,24
703,47	1679,33
703,65	1808,36
703,84	1767,40
704,02	1710,05
704,20	1820,64
704,39	1712,10
704,57	1716,20
704,75	1824,74
704,94	1804,26
705,12	1677,29
705,30	1822,69
705,49	2320,35
705,67	4405,18
705,86	9490,29
706,04	12318,53
706,22	14133,03
706,41	15046,43
706,59	13668,14
706,77	9377,65
706,96	7350,16
707,14	6592,41
707,32	5865,38
707,51	5484,46
707,69	4663,22
707,87	4073,41
708,06	3528,65
708,24	2979,79
708,42	2377,69
708,61	2197,47
708,79	1800,16
708,97	1884,13
709,16	1785,83
709,34	1771,49
709,52	1761,25
709,71	1783,78
709,89	1761,25
710,07	1767,40
710,26	1634,28
710,44	1769,44
710,62	1740,77
710,80	1734,63
710,99	1712,10
711,17	1839,08
711,35	1744,87
711,54	1683,43
711,72	1779,68
711,90	1763,30
712,09	1798,12
712,27	1681,38
712,45	1708,01
712,63	1708,01
712,82	1689,57
713,00	1650,66
713,18	1763,30
713,37	1783,78
713,55	1730,53
713,73	1755,11
713,91	1783,78
714,10	1730,53
714,28	1714,15
714,46	1789,92
714,65	1779,68
714,83	1720,29
715,01	1712,10
715,19	1794,02
715,38	1708,01
715,56	1734,63
715,74	1656,81
715,92	1710,05
716,11	1802,21
716,29	1593,32
716,47	1736,68
716,65	1761,25
716,84	1630,18
717,02	1804,26
717,20	1677,29
717,38	1679,33
717,57	1714,15
717,75	1677,29
717,93	1699,81
718,11	1765,35
718,30	1687,53
718,48	1751,01
718,66	1791,97
718,84	1681,38
719,03	1703,91
719,21	1644,52
719,39	1796,07
719,57	1744,87
719,75	1783,78
719,94	1613,80
720,12	1748,97
720,30	1638,38
720,48	1677,29
720,67	1632,23
720,85	1665,00
721,03	1730,53
721,21	1667,05
721,39	1775,59
721,58	1724,39
721,76	1804,26
721,94	1781,73
722,12	1656,81
722,30	1800,16
722,49	1703,91
722,67	1759,21
722,85	1751,01
723,03	1617,90
723,21	1656,81
723,40	1650,66
723,58	1753,06
723,76	1730,53
723,94	1779,68
724,12	1677,29
724,30	1910,75
724,49	1800,16
724,67	1689,57
724,85	1794,02
725,03	1656,81
725,21	1826,79
725,40	1742,82
725,58	1601,51
725,76	1771,49
725,94	1775,59
726,12	1728,49
726,30	1665,00
726,49	1718,25
726,67	1726,44
726,85	1701,86
727,03	1771,49
727,21	2158,56
727,39	2916,31
727,57	3753,93
727,76	4313,02
727,94	4526,01
728,12	4265,92
728,30	3692,49
728,48	2904,02
728,66	2705,37
728,84	2549,72
729,03	2322,40
729,21	2156,51
729,39	1998,82
729,57	1832,93
729,75	1855,46
729,93	1798,12
730,11	1732,58
730,30	1730,53
730,48	1724,39
730,66	1822,69
730,84	1765,35
731,02	1800,16
731,20	1734,63
731,38	1624,04
731,56	1634,28
731,74	1626,09
731,93	1769,44
732,11	1773,54
732,29	1673,19
732,47	1777,64
732,65	1714,15
732,83	1841,12
733,01	1746,92
733,19	1687,53
733,37	1744,87
733,56	1814,50
733,74	1755,11
733,92	1771,49
734,10	1730,53
734,28	1767,40
734,46	1681,38
734,64	1699,81
734,82	1691,62
735,00	1693,67
735,18	1718,25
735,36	1697,77
735,54	1705,96
735,73	1710,05
735,91	1691,62
736,09	1736,68
736,27	1726,44
736,45	1726,44
736,63	1656,81
736,81	1697,77
736,99	1728,49
737,17	1785,83
737,35	1757,16
737,53	1669,09
737,71	1681,38
737,89	1773,54
738,07	1677,29
738,25	1652,71
738,43	1642,47
738,61	1673,19
738,80	1650,66
738,98	1693,67
739,16	1621,99
739,34	1646,57
739,52	1808,36
739,70	1695,72
739,88	1734,63
740,06	1740,77
740,24	1736,68
740,42	1753,06
740,60	1609,70
740,78	1638,38
740,96	1599,46
741,14	1662,95
741,32	1734,63
741,50	1665,00
741,68	1779,68
741,86	1722,34
742,04	1621,99
742,22	1587,18
742,40	1611,75
742,58	1738,73
742,76	1677,29
742,94	1828,84
743,12	1634,28
743,30	1722,34
743,48	1730,53
743,66	1632,23
743,84	1693,67
744,02	1728,49
744,20	1724,39
744,38	1677,29
744,56	1765,35
744,74	1767,40
744,92	1722,34
745,10	1796,07
745,28	1806,31
745,46	1738,73
745,64	1669,09
745,82	1714,15
746,00	1710,05
746,18	1730,53
746,36	1697,77
746,54	1697,77
746,72	1705,96
746,90	1617,90
747,08	1767,40
747,26	1712,10
747,44	1736,68
747,62	1708,01
747,80	1847,27
747,98	1761,25
748,15	1665,00
748,33	1738,73
748,51	1718,25
748,69	1791,97
748,87	1742,82
749,05	1697,77
749,23	1744,87
749,41	1724,39
749,59	1714,15
749,77	1761,25
749,95	1734,63
750,13	1705,96
750,31	1718,25
750,49	1828,84
750,67	1822,69
750,85	1771,49
751,03	1757,16
751,20	1839,08
751,38	1656,81
751,56	1689,57
751,74	1716,20
751,92	1697,77
752,10	1648,61
752,28	1773,54
752,46	1705,96
752,64	1697,77
752,82	1648,61
753,00	1746,92
753,18	1691,62
753,35	1710,05
753,53	1656,81
753,71	1671,14
753,89	1781,73
754,07	1693,67
754,25	1761,25
754,43	1671,14
754,61	1648,61
754,79	1726,44
754,97	1673,19
755,14	1724,39
755,32	1722,34
755,50	1755,11
755,68	1697,77
755,86	1591,27
756,04	1671,14
756,22	1628,14
756,40	1798,12
756,57	1832,93
756,75	1624,04
756,93	1742,82
757,11	1800,16
757,29	1626,09
757,47	1656,81
757,65	1652,71
757,82	1605,61
758,00	1644,52
758,18	1730,53
758,36	1626,09
758,54	1718,25
758,72	1597,42
758,90	1720,29
759,07	1775,59
759,25	1714,15
759,43	1673,19
759,61	1658,85
759,79	2160,61
759,97	1779,68
760,15	1724,39
760,32	1714,15
760,50	1767,40
760,68	1849,32
760,86	1656,81
761,04	1787,88
761,22	1718,25
761,39	1656,81
761,57	1746,92
761,75	1726,44
761,93	1708,01
762,11	1677,29
762,28	1751,01
762,46	1708,01
762,64	1761,25
762,82	1718,25
763,00	1619,94
763,18	1771,49
763,35	1681,38
763,53	1738,73
763,71	1701,86
763,89	1785,83
764,07	1691,62
764,24	1718,25
764,42	1730,53
764,60	1621,99
764,78	1771,49
764,96	1710,05
765,13	1769,44
765,31	1675,24
765,49	1783,78
765,67	1552,36
765,84	1636,33
766,02	1660,90
766,20	1595,37
766,38	1679,33
766,56	1738,73
766,73	1765,35
766,91	1755,11
767,09	1777,64
767,27	1742,82
767,44	1615,85
767,62	1697,77
767,80	1714,15
767,98	1683,43
768,15	1744,87
768,33	1753,06
768,51	1773,54
768,69	1734,63
768,87	1748,97
769,04	1724,39
769,22	1830,88
769,40	1785,83
769,58	1839,08
769,75	1779,68
769,93	1775,59
770,11	1681,38
770,28	1652,71
770,46	1773,54
770,64	1699,81
770,82	1679,33
770,99	1708,01
771,17	1718,25
771,35	1730,53
771,53	1751,01
771,70	1757,16
771,88	1718,25
772,06	1742,82
772,23	1701,86
772,41	1679,33
772,59	1738,73
772,77	1665,00
772,94	1740,77
773,12	1746,92
773,30	1734,63
773,47	1777,64
773,65	1703,91
773,83	1849,32
774,01	1689,57
774,18	1658,85
774,36	1755,11
774,54	1732,58
774,71	1722,34
774,89	1603,56
775,07	1677,29
775,24	1685,48
775,42	1726,44
775,60	1781,73
775,78	1654,76
775,95	1646,57
776,13	1603,56
776,31	1593,32
776,48	1722,34
776,66	1767,40
776,84	1662,95
777,01	1640,42
777,19	1669,09
777,37	1701,86
777,54	1734,63
777,72	1828,84
777,90	1806,31
778,07	1705,96
778,25	1877,99
778,43	1816,55
778,60	1648,61
778,78	1720,29
778,96	1785,83
779,13	1609,70
779,31	1773,54
779,49	1722,34
779,66	1687,53
779,84	1693,67
780,01	1712,10
780,19	1652,71
780,37	1759,21
780,54	1740,77
780,72	1640,42
780,90	1738,73
781,07	1724,39
781,25	1681,38
781,43	1771,49
781,60	1722,34
781,78	1791,97
781,95	1697,77
782,13	1681,38
782,31	1730,53
782,48	1789,92
782,66	1660,90
782,83	1816,55
783,01	1765,35
783,19	1742,82
783,36	1660,90
783,54	1648,61
783,72	1779,68
783,89	1771,49
784,07	1665,00
784,24	1755,11
784,42	1710,05
784,60	1695,72
784,77	1699,81
784,95	1669,09
785,12	1687,53
785,30	1804,26
785,47	1640,42
785,65	1730,53
785,83	1751,01
786,00	1673,19
786,18	1710,05
786,35	1660,90
786,53	1617,90
786,71	1816,55
786,88	1701,86
787,06	1658,85
787,23	1748,97
787,41	1624,04
787,58	1722,34
787,76	1669,09
787,94	1716,20
788,11	1789,92
788,29	1638,38
788,46	1689,57
788,64	1669,09
788,81	1654,76
788,99	1683,43
789,16	1597,42
789,34	1681,38
789,52	1646,57
789,69	1660,90
789,87	1626,09
790,04	1656,81
790,22	1681,38
790,39	1871,84
790,57	1718,25
790,74	1732,58
790,92	1798,12
791,09	1605,61
791,27	1648,61
791,44	1714,15
791,62	1767,40
791,79	1726,44
791,97	1789,92
792,15	1920,99
792,32	1693,67
792,50	1716,20
792,67	1800,16
792,85	1673,19
793,02	1757,16
793,20	1714,15
793,37	1650,66
793,55	1695,72
793,72	1656,81
793,90	1695,72
794,07	1593,32
794,25	1656,81
794,42	1652,71
794,60	1757,16
794,77	1677,29
794,95	1718,25
795,12	1736,68
795,30	1697,77
795,47	1632,23
795,65	1806,31
795,82	1755,11
796,00	1708,01
796,17	1685,48
796,34	1687,53
796,52	1658,85
796,69	1794,02
796,87	1812,45
797,04	1720,29
797,22	1822,69
797,39	1785,83
797,57	1748,97
797,74	1716,20
797,92	1748,97
798,09	1728,49
798,27	1671,14
798,44	1722,34
798,62	1699,81
798,79	1757,16
798,96	1744,87
799,14	1679,33
799,31	1855,46
799,49	1665,00
799,66	1605,61
799,84	1705,96
800,01	1613,80
800,19	1722,34
800,36	1628,14
800,53	1710,05
800,71	1720,29
800,88	1787,88
801,06	1703,91
801,23	1718,25
801,41	1703,91
801,58	1626,09
801,75	1695,72
801,93	1765,35
802,10	1791,97
802,28	1728,49
802,45	1718,25
802,63	1769,44
802,80	1845,22
802,97	1703,91
803,15	1740,77
803,32	1691,62
803,50	1597,42
803,67	1665,00
803,84	1673,19
804,02	1634,28
804,19	1640,42
804,37	1628,14
804,54	1658,85
804,71	1681,38
804,89	1730,53
805,06	1624,04
805,24	1636,33
805,41	1693,67
805,58	1650,66
805,76	1877,99
805,93	1771,49
806,10	1787,88
806,28	1765,35
806,45	1687,53
806,63	1744,87
806,80	1724,39
806,97	1763,30
807,15	1693,67
807,32	1675,24
807,49	1695,72
807,67	1595,37
807,84	1718,25
808,01	1599,46
808,19	1781,73
808,36	1865,70
808,54	1673,19
808,71	1683,43
808,88	1718,25
809,06	1794,02
809,23	1802,21
809,40	1636,33
809,58	1734,63
809,75	1712,10
809,92	1660,90
810,10	1843,17
810,27	1720,29
810,44	1689,57
810,62	1798,12
810,79	1779,68
810,96	1699,81
811,14	1648,61
811,31	1734,63
811,48	1771,49
811,66	1734,63
811,83	1798,12
812,00	1722,34
812,18	1689,57
812,35	1853,41
812,52	1720,29
812,69	1714,15
812,87	1716,20
813,04	1658,85
813,21	1687,53
813,39	1665,00
813,56	1599,46
813,73	1773,54
813,91	1697,77
814,08	1755,11
814,25	1753,06
814,42	1638,38
814,60	1630,18
814,77	1724,39
814,94	1785,83
815,12	1675,24
815,29	1769,44
815,46	1705,96
815,63	1697,77
815,81	1685,48
815,98	1728,49
816,15	1777,64
816,33	1660,90
816,50	1660,90
816,67	1699,81
816,84	1767,40
817,02	1611,75
817,19	1714,15
817,36	1691,62
817,53	1712,10
817,71	1648,61
817,88	1753,06
818,05	1693,67
818,22	1705,96
818,40	1834,98
818,57	1708,01
818,74	1638,38
818,91	1720,29
819,09	1806,31
819,26	1837,03
819,43	1710,05
819,60	1689,57
819,78	1716,20
819,95	1822,69
820,12	1687,53
820,29	1783,78
820,47	1757,16
820,64	1669,09
820,81	1644,52
820,98	1640,42
821,15	1656,81
821,33	1753,06
821,50	1621,99
821,67	1783,78
821,84	1632,23
822,02	1763,30
822,19	1714,15
822,36	1667,05
822,53	1710,05
822,70	1628,14
822,88	1757,16
823,05	1695,72
823,22	1646,57
823,39	1718,25
823,56	1689,57
823,74	1798,12
823,91	1605,61
824,08	1636,33
824,25	1738,73
824,42	1804,26
824,60	1656,81
824,77	1744,87
824,94	1669,09
825,11	1716,20
825,28	1660,90
825,45	1687,53
825,63	1628,14
825,80	1669,09
825,97	1687,53
826,14	1787,88
826,31	1607,66
826,48	1751,01
826,66	1695,72
826,83	1693,67
827,00	1755,11
827,17	1671,14
827,34	1685,48
827,51	1656,81
827,69	1708,01
827,86	1665,00
828,03	1660,90
828,20	1705,96
828,37	1628,14
828,54	1693,67
828,71	1673,19
828,89	1789,92
829,06	1714,15
829,23	1763,30
829,40	1648,61
829,57	1744,87
829,74	1740,77
829,91	1691,62
830,09	1613,80
830,26	1660,90
830,43	1814,50
830,60	1687,53
830,77	1732,58
830,94	1820,64
831,11	1765,35
831,28	1705,96
831,46	1736,68
831,63	1716,20
831,80	1806,31
831,97	1689,57
832,14	1712,10
832,31	1746,92
832,48	1759,21
832,65	1732,58
832,82	1693,67
832,99	1677,29
833,17	1589,22
833,34	1843,17
833,51	1746,92
833,68	1675,24
833,85	1730,53
834,02	1591,27
834,19	1626,09
834,36	1669,09
834,53	1763,30
834,70	1732,58
834,87	1798,12
835,04	1722,34
835,22	1671,14
835,39	1732,58
835,56	1595,37
835,73	1589,22
835,90	1738,73
836,07	1609,70
836,24	1791,97
836,41	1646,57
836,58	1638,38
836,75	1744,87
836,92	1716,20
837,09	1617,90
837,26	1818,60
837,43	1699,81
837,60	1761,25
837,77	1697,77
837,94	1738,73
838,12	1783,78
838,29	1712,10
838,46	1650,66
838,63	1624,04
838,80	1740,77
838,97	1814,50
839,14	1662,95
839,31	1734,63
839,48	1785,83
839,65	1673,19
839,82	1683,43
839,99	1675,24
840,16	1718,25
840,33	1693,67
840,50	1685,48
840,67	1703,91
840,84	1533,93
841,01	1818,60
841,18	1648,61
841,35	1642,47
841,52	1755,11
841,69	1808,36
841,86	1628,14
842,03	1724,39
842,20	1769,44
842,37	1691,62
842,54	1781,73
842,71	1634,28
842,88	1648,61
843,05	1673,19
843,22	1761,25
843,39	1796,07
843,56	1644,52
843,73	1753,06
843,90	1800,16
844,07	1693,67
844,24	1710,05
844,41	1755,11
844,58	1722,34
844,75	1658,85
844,92	1738,73
845,09	1765,35
845,26	1630,18
845,43	1708,01
845,60	1662,95
845,77	1810,40
845,94	1656,81
846,10	1783,78
846,27	1634,28
846,44	1607,66
846,61	1710,05
846,78	1716,20
846,95	1755,11
847,12	1628,14
847,29	1714,15
847,46	1658,85
847,63	1789,92
847,80	1660,90
847,97	1714,15
848,14	1787,88
848,31	1712,10
848,48	1644,52
848,65	1683,43
848,82	1689,57
848,98	1847,27
849,15	1730,53
849,32	1794,02
849,49	1822,69
849,66	1693,67
849,83	1687,53
850,00	1609,70
850,17	1765,35
850,34	1751,01
850,51	1671,14
850,68	1679,33
850,85	1902,56
851,01	1699,81
851,18	1773,54
851,35	1765,35
851,52	1683,43
851,69	1781,73
851,86	1619,94
852,03	1746,92
852,20	1740,77
852,37	1689,57
852,53	1648,61
852,70	1687,53
852,87	1708,01
853,04	1736,68
853,21	1675,24
853,38	1708,01
853,55	1763,30
853,72	1775,59
853,89	1624,04
854,05	1701,86
854,22	1705,96
854,39	1630,18
854,56	1705,96
854,73	1769,44
854,90	1609,70
855,07	1787,88
855,23	1701,86
855,40	1656,81
855,57	1695,72
855,74	1564,65
855,91	1865,70
856,08	1628,14
856,25	1644,52
856,41	1632,23
856,58	1732,58
856,75	1697,77
856,92	1701,86
857,09	1728,49
857,26	1660,90
857,42	1708,01
857,59	1787,88
857,76	1658,85
857,93	1785,83
858,10	1751,01
858,27	1638,38
858,43	1691,62
858,60	1724,39
858,77	1619,94
858,94	1626,09
859,11	1804,26
859,27	1705,96
859,44	1689,57
859,61	1828,84
859,78	1746,92
859,95	1722,34
860,12	1701,86
860,28	1828,84
860,45	1787,88
860,62	1667,05
860,79	1748,97
860,95	1656,81
861,12	1603,56
861,29	1626,09
861,46	1652,71
861,63	1697,77
861,79	1726,44
861,96	1656,81
862,13	1722,34
862,30	1751,01
862,47	1759,21
862,63	1689,57
862,80	1765,35
862,97	1753,06
863,14	1720,29
863,30	1695,72
863,47	1712,10
863,64	1763,30
863,81	1753,06
863,97	1697,77
864,14	1748,97
864,31	1628,14
864,48	1726,44
864,65	1669,09
864,81	1773,54
864,98	1675,24
865,15	1734,63
865,32	1800,16
865,48	1708,01
865,65	1746,92
865,82	1607,66
865,98	1636,33
866,15	1765,35
866,32	1619,94
866,49	1662,95
866,65	1732,58
866,82	1669,09
866,99	1716,20
867,16	1660,90
867,32	1642,47
867,49	1734,63
867,66	1650,66
867,83	1710,05
867,99	1650,66
868,16	1665,00
868,33	1621,99
868,49	1695,72
868,66	1738,73
868,83	1718,25
868,99	1634,28
869,16	1667,05
869,33	1773,54
869,50	1810,40
869,66	1658,85
869,83	1728,49
870,00	1619,94
870,16	1804,26
870,33	1703,91
870,50	1787,88
870,66	1703,91
870,83	1855,46
871,00	1679,33
871,17	1726,44
871,33	1716,20
871,50	1724,39
871,67	1646,57
871,83	1609,70
872,00	1785,83
872,17	1705,96
872,33	1783,78
872,50	1794,02
872,67	1665,00
872,83	1767,40
873,00	1708,01
873,17	1656,81
873,33	1769,44
873,50	1716,20
873,67	1712,10
873,83	1642,47
874,00	1636,33
874,16	1761,25
874,33	1685,48
874,50	1650,66
874,66	1656,81
874,83	1660,90
875,00	1773,54
875,16	1751,01
875,33	1810,40
875,50	1613,80
875,66	1697,77
875,83	1751,01
875,99	1736,68
876,16	1730,53
876,33	1638,38
876,49	1626,09
876,66	1765,35
876,83	1669,09
876,99	1699,81
877,16	1650,66
877,32	1662,95
877,49	1714,15
877,66	1693,67
877,82	1718,25
877,99	1710,05
878,15	1701,86
878,32	1699,81
878,49	1685,48
878,65	1638,38
878,82	1773,54
878,98	1710,05
879,15	1746,92
879,32	1712,10
879,48	1675,24
879,65	1656,81
879,81	1624,04
879,98	1724,39
880,15	1728,49
880,31	1804,26
880,48	1634,28
880,64	1820,64
880,81	1689,57
880,97	1763,30
881,14	1804,26
881,31	1718,25
881,47	1845,22
881,64	1671,14
881,80	1611,75
881,97	1724,39
882,13	1763,30
882,30	1646,57
882,47	1730,53
882,63	1542,12
882,80	1716,20
882,96	1748,97
883,13	1751,01
883,29	1638,38
883,46	1800,16
883,62	1796,07
883,79	1699,81
883,95	1794,02
884,12	1734,63
884,29	1689,57
884,45	1705,96
884,62	1794,02
884,78	1652,71
884,95	1837,03
885,11	1675,24
885,28	1738,73
885,44	1697,77
885,61	1779,68
885,77	1834,98
885,94	1748,97
886,10	1726,44
886,27	1769,44
886,43	1759,21
886,60	1806,31
886,76	1654,76
886,93	1652,71
887,09	1703,91
887,26	1613,80
887,42	1669,09
887,59	1767,40
887,75	1820,64
887,92	1753,06
888,08	1830,88
888,25	1791,97
888,41	1748,97
888,58	1671,14
888,74	1646,57
888,91	1605,61
>>>>>End Processed Spectral Data<<<<<
