SpectraSuite Data File
++++++++++++++++++++++++++++++++++++
Date: Mon Jun 06 14:47:37 CEST 2016
User: root
Dark Spectrum Present: No
Reference Spectrum Present: No
Number of Sampled Component Spectra: 1
Spectrometers: USB4C02835
Integration Time (usec): 100000 (USB4C02835)
Spectra Averaged: 1 (USB4C02835)
Boxcar Smoothing: 0 (USB4C02835)
Correct for Electrical Dark: No (USB4C02835)
Strobe/Lamp Enabled: No (USB4C02835)
Correct for Detector Non-linearity: No (USB4C02835)
Correct for Stray Light: No (USB4C02835)
Number of Pixels in Processed Spectrum: 3648
>>>>>Begin Processed Spectral Data<<<<<
177,47	1425,39
177,69	1425,39
177,91	1425,39
178,13	1523,69
178,36	1468,39
178,58	1636,33
178,80	1675,24
179,02	1667,05
179,24	1716,20
179,46	1753,06
179,68	1689,57
179,90	1693,67
180,13	1705,96
180,35	1689,57
180,57	1673,19
180,79	1701,86
181,01	1724,39
181,23	1714,15
181,45	1769,44
181,67	1771,49
181,90	1732,58
182,12	1681,38
182,34	1554,41
182,56	1703,91
182,78	1705,96
183,00	1695,72
183,22	1632,23
183,44	1689,57
183,66	1847,27
183,89	1822,69
184,11	1701,86
184,33	1759,21
184,55	1716,20
184,77	1650,66
184,99	1730,53
185,21	1644,52
185,43	1787,88
185,65	1673,19
185,87	1746,92
186,10	1785,83
186,32	1832,93
186,54	1671,14
186,76	1714,15
186,98	1738,73
187,20	1669,09
187,42	1667,05
187,64	1712,10
187,86	1783,78
188,08	1742,82
188,30	1673,19
188,52	1724,39
188,75	1798,12
188,97	1722,34
189,19	1681,38
189,41	1691,62
189,63	1783,78
189,85	1697,77
190,07	1697,77
190,29	1667,05
190,51	1712,10
190,73	1636,33
190,95	1724,39
191,17	1689,57
191,39	1689,57
191,61	1703,91
191,84	1714,15
192,06	1691,62
192,28	1570,79
192,50	1953,76
192,72	1738,73
192,94	1730,53
193,16	1796,07
193,38	1732,58
193,60	1638,38
193,82	1640,42
194,04	1714,15
194,26	1746,92
194,48	1701,86
194,70	1650,66
194,92	1699,81
195,14	1769,44
195,36	1673,19
195,58	1648,61
195,80	1703,91
196,02	1665,00
196,24	1695,72
196,46	1734,63
196,69	1636,33
196,91	1871,84
197,13	1722,34
197,35	1630,18
197,57	1794,02
197,79	1677,29
198,01	1791,97
198,23	1718,25
198,45	1701,86
198,67	1644,52
198,89	1687,53
199,11	1701,86
199,33	1611,75
199,55	1605,61
199,77	1730,53
199,99	1736,68
200,21	1683,43
200,43	1738,73
200,65	1687,53
200,87	1542,12
201,09	1732,58
201,31	1708,01
201,53	1720,29
201,75	1714,15
201,97	1761,25
202,19	1714,15
202,41	1726,44
202,63	1808,36
202,85	1710,05
203,07	1765,35
203,29	1695,72
203,51	1646,57
203,73	1640,42
203,95	1849,32
204,17	1701,86
204,39	1691,62
204,61	1705,96
204,83	1626,09
205,05	1730,53
205,27	1738,73
205,49	1814,50
205,71	1685,48
205,93	1724,39
206,15	1658,85
206,37	1734,63
206,59	1751,01
206,81	1662,95
207,03	1665,00
207,25	1636,33
207,47	1761,25
207,69	1636,33
207,91	1816,55
208,13	1716,20
208,34	1660,90
208,56	1687,53
208,78	1740,77
209,00	1677,29
209,22	1687,53
209,44	1646,57
209,66	1675,24
209,88	1730,53
210,10	1695,72
210,32	1656,81
210,54	1798,12
210,76	1673,19
210,98	1746,92
211,20	1544,17
211,42	1777,64
211,64	1734,63
211,86	1744,87
212,08	1658,85
212,30	1751,01
212,52	1667,05
212,74	1732,58
212,96	1732,58
213,17	1732,58
213,39	1812,45
213,61	1808,36
213,83	1693,67
214,05	1673,19
214,27	1771,49
214,49	1644,52
214,71	1667,05
214,93	1746,92
215,15	1734,63
215,37	1746,92
215,59	1640,42
215,81	1728,49
216,03	1759,21
216,24	1697,77
216,46	1703,91
216,68	1679,33
216,90	1785,83
217,12	1740,77
217,34	1683,43
217,56	1744,87
217,78	1718,25
218,00	1779,68
218,22	1751,01
218,44	1695,72
218,66	1732,58
218,87	1687,53
219,09	1669,09
219,31	1693,67
219,53	1693,67
219,75	1712,10
219,97	1650,66
220,19	1710,05
220,41	1714,15
220,63	1738,73
220,85	1759,21
221,06	1652,71
221,28	1738,73
221,50	1742,82
221,72	1710,05
221,94	1738,73
222,16	1699,81
222,38	1839,08
222,60	1691,62
222,82	1658,85
223,03	1724,39
223,25	1722,34
223,47	1703,91
223,69	1832,93
223,91	1718,25
224,13	1744,87
224,35	1646,57
224,57	1818,60
224,78	1712,10
225,00	1613,80
225,22	1632,23
225,44	1689,57
225,66	1759,21
225,88	1685,48
226,10	1794,02
226,32	1685,48
226,53	1751,01
226,75	1691,62
226,97	1669,09
227,19	1679,33
227,41	1689,57
227,63	1705,96
227,85	1589,22
228,06	1718,25
228,28	1705,96
228,50	1765,35
228,72	1574,89
228,94	1671,14
229,16	1599,46
229,37	1681,38
229,59	1636,33
229,81	1748,97
230,03	1636,33
230,25	1652,71
230,47	1628,14
230,69	1697,77
230,90	1761,25
231,12	1617,90
231,34	1730,53
231,56	1759,21
231,78	1607,66
232,00	1748,97
232,21	1673,19
232,43	1679,33
232,65	1603,56
232,87	1697,77
233,09	1636,33
233,30	1697,77
233,52	1665,00
233,74	1644,52
233,96	1652,71
234,18	1708,01
234,40	1624,04
234,61	1781,73
234,83	1669,09
235,05	1611,75
235,27	1837,03
235,49	1794,02
235,70	1753,06
235,92	1714,15
236,14	1695,72
236,36	1812,45
236,58	1611,75
236,79	1675,24
237,01	1759,21
237,23	1810,40
237,45	1791,97
237,67	1699,81
237,88	1697,77
238,10	1779,68
238,32	1691,62
238,54	1658,85
238,76	1648,61
238,97	1605,61
239,19	1624,04
239,41	1740,77
239,63	1744,87
239,85	1689,57
240,06	1658,85
240,28	1765,35
240,50	1769,44
240,72	1779,68
240,93	1595,37
241,15	1771,49
241,37	1732,58
241,59	1732,58
241,81	1660,90
242,02	1699,81
242,24	1738,73
242,46	1689,57
242,68	1679,33
242,89	1732,58
243,11	1718,25
243,33	1732,58
243,55	1714,15
243,76	1703,91
243,98	1611,75
244,20	1726,44
244,42	1734,63
244,64	1726,44
244,85	1595,37
245,07	1607,66
245,29	1796,07
245,51	1644,52
245,72	1701,86
245,94	1748,97
246,16	1800,16
246,38	1710,05
246,59	1642,47
246,81	1660,90
247,03	1644,52
247,24	1597,42
247,46	1669,09
247,68	1642,47
247,90	1753,06
248,11	1724,39
248,33	1822,69
248,55	1685,48
248,77	1734,63
248,98	1712,10
249,20	1834,98
249,42	1755,11
249,64	1705,96
249,85	1714,15
250,07	1720,29
250,29	1722,34
250,50	1738,73
250,72	1714,15
250,94	1734,63
251,16	1869,80
251,37	1753,06
251,59	1699,81
251,81	1716,20
252,02	1763,30
252,24	1691,62
252,46	1794,02
252,68	1603,56
252,89	1665,00
253,11	1607,66
253,33	1814,50
253,54	1734,63
253,76	1640,42
253,98	1724,39
254,20	1699,81
254,41	1665,00
254,63	1693,67
254,85	1650,66
255,06	1748,97
255,28	1699,81
255,50	1673,19
255,71	1691,62
255,93	1607,66
256,15	1708,01
256,36	1763,30
256,58	1677,29
256,80	1761,25
257,02	1660,90
257,23	1660,90
257,45	1726,44
257,67	1724,39
257,88	1660,90
258,10	1626,09
258,32	1611,75
258,53	1705,96
258,75	1742,82
258,97	1595,37
259,18	1673,19
259,40	1691,62
259,62	1789,92
259,83	1710,05
260,05	1691,62
260,27	1843,17
260,48	1755,11
260,70	1701,86
260,92	1710,05
261,13	1701,86
261,35	1683,43
261,57	1722,34
261,78	1634,28
262,00	1619,94
262,22	1693,67
262,43	1691,62
262,65	1736,68
262,86	1626,09
263,08	1724,39
263,30	1607,66
263,51	1603,56
263,73	1589,22
263,95	1855,46
264,16	1638,38
264,38	1734,63
264,60	1748,97
264,81	1697,77
265,03	1789,92
265,25	1675,24
265,46	1818,60
265,68	1714,15
265,89	1701,86
266,11	1578,98
266,33	1748,97
266,54	1777,64
266,76	1722,34
266,98	1716,20
267,19	1751,01
267,41	1724,39
267,62	1699,81
267,84	1611,75
268,06	1712,10
268,27	1646,57
268,49	1728,49
268,70	1771,49
268,92	1685,48
269,14	1650,66
269,35	1597,42
269,57	1705,96
269,79	1701,86
270,00	1554,41
270,22	1800,16
270,43	1583,08
270,65	1636,33
270,87	1695,72
271,08	1724,39
271,30	1796,07
271,51	1718,25
271,73	1710,05
271,95	1718,25
272,16	1654,76
272,38	1722,34
272,59	1640,42
272,81	1714,15
273,02	1708,01
273,24	1730,53
273,46	1718,25
273,67	1640,42
273,89	1636,33
274,10	1665,00
274,32	1755,11
274,54	1714,15
274,75	1675,24
274,97	1755,11
275,18	1789,92
275,40	1755,11
275,61	1648,61
275,83	1652,71
276,05	1660,90
276,26	1632,23
276,48	1583,08
276,69	1683,43
276,91	1742,82
277,12	1724,39
277,34	1730,53
277,55	1814,50
277,77	1710,05
277,99	1665,00
278,20	1665,00
278,42	1630,18
278,63	1636,33
278,85	1697,77
279,06	1677,29
279,28	1697,77
279,49	1726,44
279,71	1714,15
279,93	1693,67
280,14	1673,19
280,36	1667,05
280,57	1757,16
280,79	1746,92
281,00	1658,85
281,22	1660,90
281,43	1705,96
281,65	1597,42
281,86	1642,47
282,08	1665,00
282,29	1787,88
282,51	1681,38
282,73	1648,61
282,94	1648,61
283,16	1693,67
283,37	1771,49
283,59	1730,53
283,80	1689,57
284,02	1740,77
284,23	1738,73
284,45	1687,53
284,66	1701,86
284,88	1687,53
285,09	1689,57
285,31	1746,92
285,52	1761,25
285,74	1591,27
285,95	1708,01
286,17	1730,53
286,38	1755,11
286,60	1603,56
286,81	1646,57
287,03	1660,90
287,24	1677,29
287,46	1767,40
287,67	1742,82
287,89	1906,66
288,10	1644,52
288,32	1701,86
288,53	1794,02
288,75	1720,29
288,96	1705,96
289,18	1671,14
289,39	1671,14
289,61	1728,49
289,82	1789,92
290,04	1744,87
290,25	1628,14
290,47	1728,49
290,68	1771,49
290,90	1783,78
291,11	1593,32
291,33	1681,38
291,54	1626,09
291,76	1621,99
291,97	1755,11
292,18	1691,62
292,40	1617,90
292,61	1681,38
292,83	1839,08
293,04	1789,92
293,26	1648,61
293,47	1601,51
293,69	1615,85
293,90	1710,05
294,12	1785,83
294,33	1730,53
294,55	1701,86
294,76	1775,59
294,97	1740,77
295,19	1804,26
295,40	1738,73
295,62	1779,68
295,83	1677,29
296,05	1710,05
296,26	1810,40
296,48	1660,90
296,69	1714,15
296,90	1662,95
297,12	1718,25
297,33	1767,40
297,55	1681,38
297,76	1779,68
297,98	1839,08
298,19	1722,34
298,41	1705,96
298,62	1628,14
298,83	1802,21
299,05	1630,18
299,26	1732,58
299,48	1681,38
299,69	1755,11
299,90	1738,73
300,12	1693,67
300,33	1779,68
300,55	1751,01
300,76	1724,39
300,98	1640,42
301,19	1738,73
301,40	1640,42
301,62	1691,62
301,83	1736,68
302,05	1693,67
302,26	1689,57
302,47	1734,63
302,69	1691,62
302,90	1689,57
303,12	1548,26
303,33	1751,01
303,54	1724,39
303,76	1757,16
303,97	1699,81
304,19	1771,49
304,40	1630,18
304,61	1726,44
304,83	1757,16
305,04	1755,11
305,26	1779,68
305,47	1675,24
305,68	1703,91
305,90	1683,43
306,11	1712,10
306,33	1669,09
306,54	1746,92
306,75	1683,43
306,97	1570,79
307,18	1695,72
307,39	1685,48
307,61	1691,62
307,82	1681,38
308,04	1697,77
308,25	1667,05
308,46	1738,73
308,68	1601,51
308,89	1732,58
309,10	1820,64
309,32	1734,63
309,53	1759,21
309,74	1751,01
309,96	1722,34
310,17	1808,36
310,39	1613,80
310,60	1689,57
310,81	1648,61
311,03	1521,64
311,24	1617,90
311,45	1724,39
311,67	1773,54
311,88	1699,81
312,09	1652,71
312,31	1716,20
312,52	1673,19
312,73	1689,57
312,95	1630,18
313,16	1644,52
313,37	1802,21
313,59	1677,29
313,80	1730,53
314,01	1726,44
314,23	1626,09
314,44	1652,71
314,65	1566,70
314,87	1656,81
315,08	1701,86
315,29	1660,90
315,51	1597,42
315,72	1662,95
315,93	1818,60
316,15	1693,67
316,36	1712,10
316,57	1716,20
316,79	1794,02
317,00	1638,38
317,21	1734,63
317,43	1619,94
317,64	1642,47
317,85	1673,19
318,07	1714,15
318,28	1746,92
318,49	1748,97
318,70	1918,95
318,92	1779,68
319,13	1808,36
319,34	1759,21
319,56	1732,58
319,77	1832,93
319,98	1789,92
320,20	1738,73
320,41	1732,58
320,62	1708,01
320,83	1591,27
321,05	1861,60
321,26	1720,29
321,47	1718,25
321,69	1791,97
321,90	1601,51
322,11	1685,48
322,32	1642,47
322,54	1753,06
322,75	1652,71
322,96	1822,69
323,18	1636,33
323,39	1613,80
323,60	1658,85
323,81	1693,67
324,03	1693,67
324,24	1738,73
324,45	1796,07
324,66	1654,76
324,88	1755,11
325,09	1791,97
325,30	1703,91
325,52	1691,62
325,73	1769,44
325,94	1638,38
326,15	1734,63
326,37	1642,47
326,58	1751,01
326,79	1748,97
327,00	1595,37
327,22	1681,38
327,43	1683,43
327,64	1673,19
327,85	1718,25
328,07	1796,07
328,28	1890,28
328,49	1603,56
328,70	1669,09
328,92	1667,05
329,13	1685,48
329,34	1718,25
329,55	1810,40
329,76	1722,34
329,98	1669,09
330,19	1812,45
330,40	1734,63
330,61	1775,59
330,83	1746,92
331,04	1693,67
331,25	1605,61
331,46	1634,28
331,68	1609,70
331,89	1773,54
332,10	1650,66
332,31	1677,29
332,52	1677,29
332,74	1730,53
332,95	1617,90
333,16	1742,82
333,37	1712,10
333,58	1648,61
333,80	1705,96
334,01	1634,28
334,22	1683,43
334,43	1683,43
334,64	1705,96
334,86	1638,38
335,07	1652,71
335,28	1730,53
335,49	1640,42
335,70	1683,43
335,92	1705,96
336,13	1787,88
336,34	1697,77
336,55	1773,54
336,76	1710,05
336,98	1585,13
337,19	1708,01
337,40	1728,49
337,61	1767,40
337,82	1597,42
338,04	1781,73
338,25	1599,46
338,46	1722,34
338,67	1632,23
338,88	1677,29
339,09	1710,05
339,31	1695,72
339,52	1607,66
339,73	1712,10
339,94	1687,53
340,15	1693,67
340,36	1644,52
340,58	1695,72
340,79	1644,52
341,00	1771,49
341,21	1619,94
341,42	1806,31
341,63	1751,01
341,85	1751,01
342,06	1705,96
342,27	1638,38
342,48	1730,53
342,69	1609,70
342,90	1703,91
343,12	1800,16
343,33	1783,78
343,54	1779,68
343,75	1818,60
343,96	1679,33
344,17	1607,66
344,38	1691,62
344,60	1658,85
344,81	1578,98
345,02	1636,33
345,23	1710,05
345,44	1779,68
345,65	1769,44
345,86	1703,91
346,07	1687,53
346,29	1695,72
346,50	1720,29
346,71	1695,72
346,92	1701,86
347,13	1808,36
347,34	1740,77
347,55	1656,81
347,76	1712,10
347,98	1613,80
348,19	1718,25
348,40	1751,01
348,61	1699,81
348,82	1759,21
349,03	1771,49
349,24	1650,66
349,45	1761,25
349,66	1603,56
349,88	1728,49
350,09	1646,57
350,30	1691,62
350,51	1757,16
350,72	1681,38
350,93	1705,96
351,14	1681,38
351,35	1716,20
351,56	1744,87
351,77	1722,34
351,99	1708,01
352,20	1814,50
352,41	1806,31
352,62	1572,84
352,83	1753,06
353,04	1763,30
353,25	1656,81
353,46	1714,15
353,67	1761,25
353,88	1533,93
354,09	1712,10
354,30	1642,47
354,52	1751,01
354,73	1728,49
354,94	1656,81
355,15	1730,53
355,36	1824,74
355,57	1734,63
355,78	1732,58
355,99	1626,09
356,20	1669,09
356,41	1759,21
356,62	1640,42
356,83	1718,25
357,04	1822,69
357,25	1624,04
357,46	1619,94
357,68	1595,37
357,89	1640,42
358,10	1583,08
358,31	1554,41
358,52	1708,01
358,73	1658,85
358,94	1695,72
359,15	1578,98
359,36	1744,87
359,57	1683,43
359,78	1695,72
359,99	1761,25
360,20	1685,48
360,41	1701,86
360,62	1736,68
360,83	1718,25
361,04	1708,01
361,25	1714,15
361,46	1804,26
361,67	1779,68
361,88	1742,82
362,09	1777,64
362,30	1773,54
362,51	1669,09
362,72	1679,33
362,93	1693,67
363,14	1705,96
363,35	1712,10
363,56	1669,09
363,78	1828,84
363,99	1757,16
364,20	1658,85
364,41	1718,25
364,62	1841,12
364,83	1681,38
365,04	1675,24
365,25	1695,72
365,46	1755,11
365,67	1669,09
365,88	1732,58
366,09	1730,53
366,30	1656,81
366,51	1734,63
366,72	1597,42
366,93	1748,97
367,14	1689,57
367,35	1763,30
367,56	1740,77
367,77	1810,40
367,98	1671,14
368,18	1761,25
368,39	1742,82
368,60	1628,14
368,81	1697,77
369,02	1710,05
369,23	1691,62
369,44	1611,75
369,65	1644,52
369,86	1712,10
370,07	1742,82
370,28	1681,38
370,49	1812,45
370,70	1671,14
370,91	1701,86
371,12	1574,89
371,33	1740,77
371,54	1640,42
371,75	1824,74
371,96	1617,90
372,17	1654,76
372,38	1722,34
372,59	1742,82
372,80	1648,61
373,01	1654,76
373,22	1644,52
373,43	1642,47
373,64	1648,61
373,85	1712,10
374,06	1765,35
374,26	1802,21
374,47	1767,40
374,68	1740,77
374,89	1751,01
375,10	1626,09
375,31	1708,01
375,52	1695,72
375,73	1738,73
375,94	1654,76
376,15	1789,92
376,36	1673,19
376,57	1624,04
376,78	1697,77
376,99	1728,49
377,20	1785,83
377,40	1660,90
377,61	1765,35
377,82	1660,90
378,03	1834,98
378,24	1681,38
378,45	1677,29
378,66	1650,66
378,87	1681,38
379,08	1660,90
379,29	1787,88
379,50	1730,53
379,71	1753,06
379,91	1748,97
380,12	1665,00
380,33	1699,81
380,54	1712,10
380,75	1587,18
380,96	1689,57
381,17	1796,07
381,38	1650,66
381,59	1791,97
381,80	1691,62
382,00	1861,60
382,21	1716,20
382,42	1757,16
382,63	1839,08
382,84	1796,07
383,05	1691,62
383,26	1841,12
383,47	1763,30
383,68	1767,40
383,88	1716,20
384,09	1685,48
384,30	1769,44
384,51	1726,44
384,72	1613,80
384,93	1703,91
385,14	1695,72
385,35	1775,59
385,55	1628,14
385,76	1802,21
385,97	1701,86
386,18	1718,25
386,39	1605,61
386,60	1712,10
386,81	1669,09
387,02	1720,29
387,22	1673,19
387,43	1728,49
387,64	1771,49
387,85	1845,22
388,06	2189,28
388,27	4384,70
388,48	6881,18
388,68	8226,69
388,89	9824,11
389,10	9824,11
389,31	8656,76
389,52	7657,36
389,73	6784,92
389,93	6285,22
390,14	5910,44
390,35	5218,22
390,56	4513,72
390,77	3821,51
390,98	2957,27
391,18	2525,15
391,39	2119,65
391,60	1816,55
391,81	1834,98
392,02	1742,82
392,23	1783,78
392,43	1677,29
392,64	1789,92
392,85	1734,63
393,06	1812,45
393,27	1679,33
393,47	1691,62
393,68	1683,43
393,89	1648,61
394,10	1818,60
394,31	1642,47
394,52	1665,00
394,72	1607,66
394,93	1816,55
395,14	1701,86
395,35	1789,92
395,56	1712,10
395,76	1789,92
395,97	1802,21
396,18	1871,84
396,39	1890,28
396,60	1964,00
396,80	1853,41
397,01	1808,36
397,22	1865,70
397,43	1871,84
397,64	1726,44
397,84	1787,88
398,05	1861,60
398,26	1767,40
398,47	1771,49
398,67	1755,11
398,88	1701,86
399,09	1697,77
399,30	1673,19
399,51	1791,97
399,71	1628,14
399,92	1675,24
400,13	1685,48
400,34	1685,48
400,54	1681,38
400,75	1759,21
400,96	1710,05
401,17	1783,78
401,37	1650,66
401,58	1759,21
401,79	1726,44
402,00	1845,22
402,21	2056,16
402,41	1980,39
402,62	2023,39
402,83	2023,39
403,04	1996,77
403,24	2111,46
403,45	1804,26
403,66	1920,99
403,87	1886,18
404,07	1886,18
404,28	1849,32
404,49	1810,40
404,70	1824,74
404,90	1775,59
405,11	1660,90
405,32	1769,44
405,52	1654,76
405,73	1662,95
405,94	1679,33
406,15	1638,38
406,35	1767,40
406,56	1808,36
406,77	1775,59
406,98	1767,40
407,18	1691,62
407,39	1822,69
407,60	1638,38
407,80	1775,59
408,01	1708,01
408,22	1691,62
408,43	1722,34
408,63	1798,12
408,84	1748,97
409,05	1775,59
409,25	1687,53
409,46	1677,29
409,67	1581,03
409,88	1755,11
410,08	1716,20
410,29	1705,96
410,50	1687,53
410,70	1667,05
410,91	1697,77
411,12	1650,66
411,32	1701,86
411,53	1701,86
411,74	1765,35
411,95	1748,97
412,15	1720,29
412,36	1736,68
412,57	1789,92
412,77	1779,68
412,98	1746,92
413,19	1636,33
413,39	1746,92
413,60	1683,43
413,81	1865,70
414,01	1697,77
414,22	1701,86
414,43	1689,57
414,63	1693,67
414,84	1763,30
415,05	1654,76
415,25	1638,38
415,46	1775,59
415,67	1619,94
415,87	1773,54
416,08	1783,78
416,29	1683,43
416,49	1759,21
416,70	1654,76
416,91	1693,67
417,11	1742,82
417,32	1718,25
417,53	1728,49
417,73	1787,88
417,94	1701,86
418,15	1732,58
418,35	1710,05
418,56	1712,10
418,77	1880,04
418,97	1843,17
419,18	1748,97
419,38	1626,09
419,59	1673,19
419,80	1771,49
420,00	1703,91
420,21	1701,86
420,42	1767,40
420,62	1632,23
420,83	1693,67
421,04	1673,19
421,24	1773,54
421,45	1779,68
421,65	1779,68
421,86	1755,11
422,07	1730,53
422,27	1720,29
422,48	1744,87
422,69	1595,37
422,89	1681,38
423,10	1669,09
423,30	1679,33
423,51	1710,05
423,72	1695,72
423,92	1722,34
424,13	1601,51
424,33	1716,20
424,54	1775,59
424,75	1671,14
424,95	1798,12
425,16	1740,77
425,36	1679,33
425,57	1789,92
425,78	1730,53
425,98	1751,01
426,19	1695,72
426,39	1718,25
426,60	1738,73
426,81	1875,94
427,01	1689,57
427,22	1578,98
427,42	1566,70
427,63	1607,66
427,83	1681,38
428,04	1804,26
428,25	1798,12
428,45	1746,92
428,66	1763,30
428,86	1759,21
429,07	1671,14
429,28	1759,21
429,48	1699,81
429,69	1671,14
429,89	1685,48
430,10	1656,81
430,30	1757,16
430,51	1689,57
430,71	1677,29
430,92	1685,48
431,13	1650,66
431,33	1744,87
431,54	1757,16
431,74	1814,50
431,95	1832,93
432,15	1667,05
432,36	1742,82
432,56	1748,97
432,77	1828,84
432,98	1820,64
433,18	1763,30
433,39	1689,57
433,59	1609,70
433,80	1839,08
434,00	1873,89
434,21	1718,25
434,41	1634,28
434,62	1800,16
434,82	1658,85
435,03	1714,15
435,23	1722,34
435,44	1595,37
435,64	1669,09
435,85	1699,81
436,06	1718,25
436,26	1759,21
436,47	1728,49
436,67	1763,30
436,88	1732,58
437,08	1720,29
437,29	1912,80
437,49	1669,09
437,70	1783,78
437,90	1712,10
438,11	1888,23
438,31	1751,01
438,52	1964,00
438,72	1828,84
438,93	1918,95
439,13	1806,31
439,34	1804,26
439,54	1718,25
439,75	1744,87
439,95	1796,07
440,16	1708,01
440,36	1740,77
440,57	1775,59
440,77	1757,16
440,98	1691,62
441,18	1697,77
441,39	1652,71
441,59	1656,81
441,80	1761,25
442,00	1783,78
442,21	1808,36
442,41	1691,62
442,62	1732,58
442,82	1734,63
443,02	1710,05
443,23	1746,92
443,43	1708,01
443,64	1773,54
443,84	1636,33
444,05	1843,17
444,25	1689,57
444,46	1800,16
444,66	1679,33
444,87	1824,74
445,07	1611,75
445,28	1693,67
445,48	1824,74
445,69	1701,86
445,89	1875,94
446,09	1773,54
446,30	2050,02
446,50	2734,04
446,71	3762,12
446,91	4413,37
447,12	4898,74
447,32	4855,73
447,53	4386,75
447,73	3846,09
447,93	3522,51
448,14	3309,52
448,34	3168,21
448,55	2881,49
448,75	2830,29
448,96	2691,03
449,16	2461,66
449,36	2254,81
449,57	2037,73
449,77	1914,85
449,98	1785,83
450,18	1843,17
450,39	1845,22
450,59	1779,68
450,79	1667,05
451,00	1787,88
451,20	1814,50
451,41	1714,15
451,61	1759,21
451,81	1775,59
452,02	1714,15
452,22	1693,67
452,43	1724,39
452,63	1677,29
452,84	1738,73
453,04	1718,25
453,24	1677,29
453,45	1650,66
453,65	1726,44
453,86	1708,01
454,06	1742,82
454,26	1746,92
454,47	1705,96
454,67	1765,35
454,87	1726,44
455,08	1767,40
455,28	1861,60
455,49	1765,35
455,69	1691,62
455,89	1859,56
456,10	1796,07
456,30	1734,63
456,51	1763,30
456,71	1822,69
456,91	1775,59
457,12	1771,49
457,32	1771,49
457,52	1705,96
457,73	1804,26
457,93	1775,59
458,14	1757,16
458,34	1632,23
458,54	1742,82
458,75	1724,39
458,95	1814,50
459,15	1716,20
459,36	1751,01
459,56	1763,30
459,76	1781,73
459,97	1705,96
460,17	1699,81
460,37	1785,83
460,58	1708,01
460,78	1789,92
460,99	1718,25
461,19	1767,40
461,39	1687,53
461,60	1677,29
461,80	1804,26
462,00	1687,53
462,21	1738,73
462,41	1708,01
462,61	1724,39
462,82	1632,23
463,02	1757,16
463,22	1816,55
463,43	1773,54
463,63	1681,38
463,83	1800,16
464,04	1748,97
464,24	1683,43
464,44	1748,97
464,64	1726,44
464,85	1755,11
465,05	1734,63
465,25	1730,53
465,46	1679,33
465,66	1755,11
465,86	1802,21
466,07	1824,74
466,27	1675,24
466,47	1628,14
466,68	1615,85
466,88	1791,97
467,08	1716,20
467,29	1771,49
467,49	1701,86
467,69	1673,19
467,89	1746,92
468,10	1767,40
468,30	1783,78
468,50	1775,59
468,71	1832,93
468,91	1636,33
469,11	1843,17
469,31	1748,97
469,52	1683,43
469,72	1796,07
469,92	1918,95
470,13	1716,20
470,33	1775,59
470,53	1808,36
470,73	2142,18
470,94	2340,83
471,14	2371,55
471,34	2562,01
471,54	2377,69
471,75	2279,39
471,95	2176,99
472,15	2084,83
472,36	2041,82
472,56	2033,63
472,76	2052,06
472,96	2021,35
473,17	1953,76
473,37	1867,75
473,57	1726,44
473,77	1877,99
473,98	1822,69
474,18	1712,10
474,38	1882,08
474,58	1767,40
474,79	1744,87
474,99	1724,39
475,19	1667,05
475,39	1636,33
475,60	1744,87
475,80	1746,92
476,00	1708,01
476,20	1650,66
476,41	1665,00
476,61	1787,88
476,81	1777,64
477,01	1642,47
477,21	1808,36
477,42	1839,08
477,62	1636,33
477,82	1773,54
478,02	1720,29
478,23	1746,92
478,43	1710,05
478,63	1718,25
478,83	1724,39
479,03	1628,14
479,24	1742,82
479,44	1769,44
479,64	1658,85
479,84	1589,22
480,04	1669,09
480,25	1806,31
480,45	1701,86
480,65	1714,15
480,85	1818,60
481,06	1767,40
481,26	1636,33
481,46	1759,21
481,66	1718,25
481,86	1681,38
482,06	1791,97
482,27	1675,24
482,47	1744,87
482,67	1697,77
482,87	1705,96
483,07	1773,54
483,28	1667,05
483,48	1634,28
483,68	1679,33
483,88	1681,38
484,08	1601,51
484,29	1626,09
484,49	1722,34
484,69	1677,29
484,89	1804,26
485,09	1734,63
485,29	1732,58
485,50	1757,16
485,70	1710,05
485,90	1787,88
486,10	1744,87
486,30	1777,64
486,50	1716,20
486,71	1708,01
486,91	1863,65
487,11	1746,92
487,31	1665,00
487,51	1742,82
487,71	1732,58
487,91	1708,01
488,12	1722,34
488,32	1615,85
488,52	1660,90
488,72	1671,14
488,92	1791,97
489,12	1759,21
489,32	1783,78
489,53	1804,26
489,73	1630,18
489,93	1771,49
490,13	1703,91
490,33	1681,38
490,53	1660,90
490,73	1740,77
490,94	1630,18
491,14	1820,64
491,34	1769,44
491,54	2082,78
491,74	2592,73
491,94	2961,36
492,14	3076,05
492,34	3016,66
492,54	2688,98
492,75	2535,39
492,95	2455,51
493,15	2340,83
493,35	2344,92
493,55	2246,62
493,75	2142,18
493,95	2160,61
494,15	1935,33
494,35	1955,81
494,56	1875,94
494,76	1767,40
494,96	1824,74
495,16	1777,64
495,36	1757,16
495,56	1759,21
495,76	1763,30
495,96	1701,86
496,16	1673,19
496,36	1777,64
496,56	1794,02
496,77	1783,78
496,97	1724,39
497,17	1794,02
497,37	1662,95
497,57	1834,98
497,77	1763,30
497,97	1697,77
498,17	1726,44
498,37	1777,64
498,57	1687,53
498,77	1746,92
498,97	1716,20
499,17	1810,40
499,38	1751,01
499,58	1658,85
499,78	1828,84
499,98	1853,41
500,18	1660,90
500,38	1726,44
500,58	1865,70
500,78	2506,71
500,98	4597,69
501,18	5877,67
501,38	6858,65
501,58	7210,90
501,78	6703,00
501,98	5570,48
502,18	5025,72
502,38	4417,47
502,58	3942,34
502,78	3807,17
502,98	3622,86
503,18	3459,02
503,38	3313,61
503,59	2899,92
503,79	2652,12
503,99	2480,09
504,19	2297,82
504,39	2170,85
504,59	2058,21
504,79	2224,09
504,99	2052,06
505,19	1908,71
505,39	1845,22
505,59	1951,71
505,79	1972,19
505,99	1822,69
506,19	1730,53
506,39	1814,50
506,59	1757,16
506,79	1814,50
506,99	1828,84
507,19	1791,97
507,39	1730,53
507,59	1601,51
507,79	1628,14
507,99	1699,81
508,19	1710,05
508,39	1708,01
508,59	1751,01
508,79	1765,35
508,99	1789,92
509,19	1697,77
509,39	1791,97
509,59	1677,29
509,79	1726,44
509,99	1742,82
510,19	1826,79
510,39	1681,38
510,59	1703,91
510,79	1720,29
510,99	1609,70
511,19	1710,05
511,39	1837,03
511,59	1824,74
511,79	1880,04
511,99	1738,73
512,19	1843,17
512,38	1732,58
512,58	1689,57
512,78	1718,25
512,98	1796,07
513,18	1796,07
513,38	1644,52
513,58	1779,68
513,78	1705,96
513,98	1701,86
514,18	1718,25
514,38	1679,33
514,58	1783,78
514,78	1630,18
514,98	1761,25
515,18	1755,11
515,38	1746,92
515,58	1865,70
515,78	1730,53
515,98	1722,34
516,18	1683,43
516,38	1665,00
516,57	1615,85
516,77	1742,82
516,97	1773,54
517,17	1662,95
517,37	1632,23
517,57	1791,97
517,77	1667,05
517,97	1710,05
518,17	1767,40
518,37	1693,67
518,57	1665,00
518,77	1757,16
518,97	1701,86
519,16	1740,77
519,36	1773,54
519,56	1726,44
519,76	1730,53
519,96	1818,60
520,16	1779,68
520,36	1746,92
520,56	1791,97
520,76	1732,58
520,96	1669,09
521,16	1769,44
521,35	1748,97
521,55	1820,64
521,75	1755,11
521,95	1716,20
522,15	1693,67
522,35	1685,48
522,55	1701,86
522,75	1798,12
522,95	1615,85
523,14	1636,33
523,34	1843,17
523,54	1712,10
523,74	1718,25
523,94	1701,86
524,14	1595,37
524,34	1726,44
524,54	1808,36
524,73	1687,53
524,93	1742,82
525,13	1761,25
525,33	1658,85
525,53	1789,92
525,73	1783,78
525,93	1796,07
526,13	1630,18
526,32	1662,95
526,52	1734,63
526,72	1804,26
526,92	1718,25
527,12	1740,77
527,32	1689,57
527,52	1779,68
527,71	1767,40
527,91	1742,82
528,11	1687,53
528,31	1753,06
528,51	1648,61
528,71	1703,91
528,90	1781,73
529,10	1757,16
529,30	1824,74
529,50	1632,23
529,70	1703,91
529,90	1697,77
530,09	1677,29
530,29	1693,67
530,49	1697,77
530,69	1894,37
530,89	1722,34
531,09	1779,68
531,28	1673,19
531,48	1763,30
531,68	1748,97
531,88	1726,44
532,08	1791,97
532,28	1671,14
532,47	1775,59
532,67	1779,68
532,87	1740,77
533,07	1677,29
533,27	1724,39
533,46	1802,21
533,66	1712,10
533,86	1710,05
534,06	1701,86
534,26	1695,72
534,45	1677,29
534,65	1804,26
534,85	1783,78
535,05	1705,96
535,25	1732,58
535,44	1626,09
535,64	1791,97
535,84	1703,91
536,04	1693,67
536,24	1697,77
536,43	1761,25
536,63	1734,63
536,83	1726,44
537,03	1742,82
537,22	1652,71
537,42	1656,81
537,62	1812,45
537,82	1697,77
538,02	1847,27
538,21	1789,92
538,41	1808,36
538,61	1865,70
538,81	1681,38
539,00	1804,26
539,20	1632,23
539,40	1656,81
539,60	1716,20
539,79	1863,65
539,99	1761,25
540,19	1621,99
540,39	1677,29
540,58	1724,39
540,78	1755,11
540,98	1708,01
541,18	1738,73
541,37	1734,63
541,57	1714,15
541,77	1722,34
541,97	1632,23
542,16	1609,70
542,36	1718,25
542,56	1732,58
542,76	1837,03
542,95	1724,39
543,15	1734,63
543,35	1796,07
543,54	1650,66
543,74	1658,85
543,94	1820,64
544,14	1705,96
544,33	1765,35
544,53	1683,43
544,73	1708,01
544,93	1685,48
545,12	1734,63
545,32	1765,35
545,52	1763,30
545,71	1554,41
545,91	1714,15
546,11	1718,25
546,30	1677,29
546,50	1685,48
546,70	1689,57
546,90	1794,02
547,09	1705,96
547,29	1662,95
547,49	1757,16
547,68	1781,73
547,88	1603,56
548,08	1771,49
548,27	2185,18
548,47	1652,71
548,67	1820,64
548,87	1769,44
549,06	1783,78
549,26	1765,35
549,46	1779,68
549,65	1769,44
549,85	1769,44
550,05	1703,91
550,24	1677,29
550,44	1751,01
550,64	1734,63
550,83	1724,39
551,03	1794,02
551,23	1828,84
551,42	1798,12
551,62	1783,78
551,82	1695,72
552,01	1677,29
552,21	1796,07
552,41	1734,63
552,60	1812,45
552,80	1753,06
553,00	1710,05
553,19	1718,25
553,39	1832,93
553,59	1689,57
553,78	1783,78
553,98	1771,49
554,17	1693,67
554,37	1742,82
554,57	1812,45
554,76	1646,57
554,96	1671,14
555,16	1804,26
555,35	1746,92
555,55	1767,40
555,75	1777,64
555,94	1759,21
556,14	1677,29
556,33	1765,35
556,53	1726,44
556,73	1665,00
556,92	1744,87
557,12	1718,25
557,32	1834,98
557,51	1834,98
557,71	1710,05
557,90	1884,13
558,10	1742,82
558,30	1693,67
558,49	1728,49
558,69	1685,48
558,88	1791,97
559,08	1742,82
559,28	1695,72
559,47	1763,30
559,67	1791,97
559,86	1818,60
560,06	1791,97
560,26	1724,39
560,45	1697,77
560,65	1683,43
560,84	1890,28
561,04	1695,72
561,24	1839,08
561,43	1714,15
561,63	1816,55
561,82	1708,01
562,02	1816,55
562,22	1703,91
562,41	1722,34
562,61	1703,91
562,80	1751,01
563,00	1888,23
563,19	1687,53
563,39	1728,49
563,59	1730,53
563,78	1660,90
563,98	1624,04
564,17	1611,75
564,37	1667,05
564,56	1785,83
564,76	1665,00
564,96	1853,41
565,15	1708,01
565,35	1867,75
565,54	1710,05
565,74	1773,54
565,93	1708,01
566,13	1722,34
566,32	1738,73
566,52	1779,68
566,71	1710,05
566,91	1732,58
567,11	1714,15
567,30	1718,25
567,50	1810,40
567,69	1740,77
567,89	1732,58
568,08	1652,71
568,28	1716,20
568,47	1705,96
568,67	1748,97
568,86	1730,53
569,06	1740,77
569,25	1734,63
569,45	1656,81
569,64	1746,92
569,84	1667,05
570,04	1738,73
570,23	1712,10
570,43	1734,63
570,62	1753,06
570,82	1796,07
571,01	1734,63
571,21	1726,44
571,40	1689,57
571,60	1742,82
571,79	1730,53
571,99	1701,86
572,18	1624,04
572,38	1746,92
572,57	1751,01
572,77	1767,40
572,96	1869,80
573,16	1763,30
573,35	1757,16
573,55	1791,97
573,74	1787,88
573,94	1695,72
574,13	1712,10
574,33	1847,27
574,52	1689,57
574,71	1714,15
574,91	1714,15
575,10	1701,86
575,30	1806,31
575,49	1744,87
575,69	1710,05
575,88	1796,07
576,08	1701,86
576,27	1837,03
576,47	1677,29
576,66	1732,58
576,86	1814,50
577,05	1611,75
577,25	1851,36
577,44	1853,41
577,64	1646,57
577,83	1755,11
578,02	1708,01
578,22	1791,97
578,41	1863,65
578,61	1652,71
578,80	1669,09
579,00	1699,81
579,19	1734,63
579,39	1701,86
579,58	1796,07
579,77	1757,16
579,97	1830,88
580,16	1857,51
580,36	1841,12
580,55	1853,41
580,75	1740,77
580,94	1744,87
581,13	1832,93
581,33	1773,54
581,52	1755,11
581,72	1830,88
581,91	1847,27
582,11	1703,91
582,30	1732,58
582,49	1746,92
582,69	1869,80
582,88	1787,88
583,08	1820,64
583,27	1867,75
583,47	1689,57
583,66	1751,01
583,85	1726,44
584,05	1824,74
584,24	1767,40
584,44	1804,26
584,63	1824,74
584,82	1812,45
585,02	1798,12
585,21	1861,60
585,41	1820,64
585,60	1812,45
585,79	1914,85
585,99	1970,15
586,18	1882,08
586,37	2238,43
586,57	3321,81
586,76	9992,04
586,96	24893,06
587,15	34684,40
587,34	41155,98
587,54	42657,14
587,73	37268,94
587,93	26941,03
588,12	22050,48
588,31	18626,28
588,51	16570,12
588,70	15433,49
588,89	14526,24
589,09	12779,32
589,28	11261,78
589,47	9596,78
589,67	8163,20
589,86	6447,01
590,06	5091,25
590,25	4014,02
590,44	3268,56
590,64	2664,41
590,83	2265,05
591,02	2021,35
591,22	1953,76
591,41	1841,12
591,60	1816,55
591,80	1957,86
591,99	1701,86
592,18	1826,79
592,38	1847,27
592,57	1691,62
592,76	1824,74
592,96	1783,78
593,15	1779,68
593,34	1875,94
593,54	1744,87
593,73	1845,22
593,92	1732,58
594,12	1783,78
594,31	1685,48
594,50	1767,40
594,70	1828,84
594,89	1783,78
595,08	1695,72
595,28	1765,35
595,47	2031,58
595,66	1820,64
595,86	1679,33
596,05	1740,77
596,24	1742,82
596,43	1832,93
596,63	1808,36
596,82	1689,57
597,01	1701,86
597,21	1796,07
597,40	1796,07
597,59	1753,06
597,79	1773,54
597,98	1806,31
598,17	1683,43
598,36	1740,77
598,56	1789,92
598,75	1781,73
598,94	1812,45
599,14	1714,15
599,33	1710,05
599,52	1824,74
599,71	1765,35
599,91	1732,58
600,10	1759,21
600,29	1767,40
600,48	1738,73
600,68	1695,72
600,87	1751,01
601,06	1683,43
601,26	1761,25
601,45	1765,35
601,64	1710,05
601,83	1769,44
602,03	1718,25
602,22	1642,47
602,41	1744,87
602,60	1873,89
602,80	1777,64
602,99	1728,49
603,18	1765,35
603,37	1767,40
603,57	1734,63
603,76	1824,74
603,95	1781,73
604,14	1738,73
604,34	1689,57
604,53	1746,92
604,72	1710,05
604,91	1761,25
605,10	1794,02
605,30	1609,70
605,49	1853,41
605,68	1742,82
605,87	1777,64
606,07	1638,38
606,26	1726,44
606,45	1726,44
606,64	1738,73
606,84	1587,18
607,03	1755,11
607,22	1753,06
607,41	1701,86
607,60	1716,20
607,80	1755,11
607,99	1732,58
608,18	1716,20
608,37	1763,30
608,56	1708,01
608,76	1781,73
608,95	1787,88
609,14	1726,44
609,33	1753,06
609,52	1791,97
609,72	1599,46
609,91	1691,62
610,10	1720,29
610,29	1757,16
610,48	1712,10
610,68	1685,48
610,87	1785,83
611,06	1763,30
611,25	1628,14
611,44	1787,88
611,63	1667,05
611,83	1894,37
612,02	1673,19
612,21	1767,40
612,40	1648,61
612,59	1697,77
612,79	1689,57
612,98	1718,25
613,17	1783,78
613,36	1757,16
613,55	1759,21
613,74	1599,46
613,93	1787,88
614,13	1683,43
614,32	1820,64
614,51	1746,92
614,70	1765,35
614,89	1656,81
615,08	1740,77
615,28	2146,27
615,47	1581,03
615,66	1777,64
615,85	1722,34
616,04	1794,02
616,23	1671,14
616,42	1662,95
616,62	1769,44
616,81	1722,34
617,00	1705,96
617,19	1755,11
617,38	1761,25
617,57	1757,16
617,76	1728,49
617,95	1722,34
618,15	1693,67
618,34	1822,69
618,53	1662,95
618,72	1724,39
618,91	1828,84
619,10	1777,64
619,29	1722,34
619,48	1806,31
619,68	1667,05
619,87	1771,49
620,06	1665,00
620,25	1755,11
620,44	1703,91
620,63	1755,11
620,82	1724,39
621,01	1783,78
621,20	1644,52
621,39	1757,16
621,59	1808,36
621,78	1658,85
621,97	1724,39
622,16	1759,21
622,35	1687,53
622,54	1783,78
622,73	1814,50
622,92	1628,14
623,11	1773,54
623,30	1685,48
623,49	1744,87
623,68	1767,40
623,88	1824,74
624,07	1642,47
624,26	1683,43
624,45	1789,92
624,64	1716,20
624,83	1722,34
625,02	1603,56
625,21	1724,39
625,40	1691,62
625,59	1818,60
625,78	1722,34
625,97	1775,59
626,16	1796,07
626,35	1796,07
626,54	1759,21
626,74	1775,59
626,93	1697,77
627,12	1693,67
627,31	1734,63
627,50	1802,21
627,69	1734,63
627,88	1695,72
628,07	1710,05
628,26	1665,00
628,45	1728,49
628,64	1679,33
628,83	1740,77
629,02	1656,81
629,21	1763,30
629,40	1800,16
629,59	1671,14
629,78	1648,61
629,97	1689,57
630,16	1730,53
630,35	1710,05
630,54	1710,05
630,73	1691,62
630,92	1755,11
631,11	1693,67
631,30	1677,29
631,49	1779,68
631,68	1710,05
631,87	1736,68
632,06	1746,92
632,25	1814,50
632,44	1714,15
632,63	1722,34
632,82	1699,81
633,01	1675,24
633,20	1734,63
633,39	1576,94
633,58	1632,23
633,77	1705,96
633,96	1773,54
634,15	1736,68
634,34	1740,77
634,53	1675,24
634,72	1626,09
634,91	1667,05
635,10	1722,34
635,29	1773,54
635,48	1751,01
635,67	1771,49
635,86	1667,05
636,05	1798,12
636,24	1744,87
636,43	1740,77
636,62	1726,44
636,81	1538,02
637,00	1724,39
637,19	1630,18
637,38	1673,19
637,57	1650,66
637,76	1624,04
637,95	1779,68
638,14	1685,48
638,33	1783,78
638,52	1738,73
638,71	1720,29
638,89	1642,47
639,08	1867,75
639,27	1642,47
639,46	1722,34
639,65	1834,98
639,84	1761,25
640,03	1800,16
640,22	1669,09
640,41	1812,45
640,60	1624,04
640,79	1689,57
640,98	1781,73
641,17	1736,68
641,36	1626,09
641,55	1761,25
641,74	1685,48
641,92	1644,52
642,11	1689,57
642,30	1720,29
642,49	1683,43
642,68	1671,14
642,87	1699,81
643,06	1736,68
643,25	1699,81
643,44	1691,62
643,63	1697,77
643,82	1755,11
644,00	1728,49
644,19	1675,24
644,38	1568,74
644,57	1734,63
644,76	1718,25
644,95	1726,44
645,14	1824,74
645,33	1671,14
645,52	1687,53
645,71	1712,10
645,89	1683,43
646,08	1701,86
646,27	1671,14
646,46	1865,70
646,65	1644,52
646,84	1665,00
647,03	1671,14
647,22	1783,78
647,40	1771,49
647,59	1716,20
647,78	1607,66
647,97	1581,03
648,16	1648,61
648,35	1761,25
648,54	1667,05
648,73	1624,04
648,91	1791,97
649,10	1691,62
649,29	1734,63
649,48	1744,87
649,67	1695,72
649,86	1742,82
650,05	1656,81
650,23	1761,25
650,42	1595,37
650,61	1740,77
650,80	1730,53
650,99	1798,12
651,18	1675,24
651,36	1791,97
651,55	1697,77
651,74	1726,44
651,93	1640,42
652,12	1691,62
652,31	1699,81
652,49	1695,72
652,68	1667,05
652,87	1765,35
653,06	1738,73
653,25	1820,64
653,44	1738,73
653,62	1710,05
653,81	1710,05
654,00	1669,09
654,19	1777,64
654,38	1904,61
654,56	1720,29
654,75	1607,66
654,94	1765,35
655,13	1705,96
655,32	1720,29
655,51	1708,01
655,69	1716,20
655,88	1761,25
656,07	1693,67
656,26	1755,11
656,45	1665,00
656,63	1708,01
656,82	1697,77
657,01	1726,44
657,20	1701,86
657,38	1771,49
657,57	1744,87
657,76	1572,84
657,95	1742,82
658,14	1705,96
658,32	1720,29
658,51	1697,77
658,70	1757,16
658,89	1769,44
659,08	1685,48
659,26	1753,06
659,45	1671,14
659,64	1763,30
659,83	1705,96
660,01	1828,84
660,20	1757,16
660,39	1794,02
660,58	1712,10
660,76	1779,68
660,95	1640,42
661,14	1728,49
661,33	1652,71
661,51	1687,53
661,70	1693,67
661,89	1783,78
662,08	1630,18
662,26	1656,81
662,45	1570,79
662,64	1880,04
662,83	1814,50
663,01	1660,90
663,20	1720,29
663,39	1855,46
663,58	1687,53
663,76	1757,16
663,95	1714,15
664,14	1636,33
664,32	1652,71
664,51	1638,38
664,70	1685,48
664,89	1800,16
665,07	1656,81
665,26	1796,07
665,45	1662,95
665,64	1705,96
665,82	1755,11
666,01	1853,41
666,20	1710,05
666,38	1847,27
666,57	1798,12
666,76	2117,60
666,95	4511,68
667,13	10440,54
667,32	15378,20
667,51	18011,89
667,69	19410,65
667,88	18022,12
668,07	12588,86
668,25	9645,93
668,44	8312,71
668,63	7325,58
668,81	7038,87
669,00	6436,77
669,19	5767,08
669,38	5253,04
669,56	4679,61
669,75	4003,78
669,94	3405,77
670,12	2920,40
670,31	2582,49
670,50	2293,72
670,68	2004,96
670,87	1923,04
671,06	1777,64
671,24	1796,07
671,43	1800,16
671,62	1712,10
671,80	1697,77
671,99	1757,16
672,18	1714,15
672,36	1775,59
672,55	1720,29
672,74	1714,15
672,92	1724,39
673,11	1742,82
673,29	1708,01
673,48	1779,68
673,67	1714,15
673,85	1689,57
674,04	1693,67
674,23	1736,68
674,41	1853,41
674,60	1607,66
674,79	1634,28
674,97	1673,19
675,16	1781,73
675,34	1779,68
675,53	1613,80
675,72	1765,35
675,90	1886,18
676,09	1646,57
676,28	1681,38
676,46	1669,09
676,65	1656,81
676,83	1710,05
677,02	1705,96
677,21	1757,16
677,39	1744,87
677,58	1701,86
677,77	1703,91
677,95	1724,39
678,14	1748,97
678,32	1693,67
678,51	1640,42
678,70	1798,12
678,88	1675,24
679,07	1650,66
679,25	1716,20
679,44	1732,58
679,63	1636,33
679,81	1744,87
680,00	1773,54
680,18	1673,19
680,37	1712,10
680,55	1681,38
680,74	1673,19
680,93	1693,67
681,11	1665,00
681,30	1746,92
681,48	1824,74
681,67	1703,91
681,85	1626,09
682,04	1669,09
682,23	1753,06
682,41	1601,51
682,60	1779,68
682,78	1740,77
682,97	1646,57
683,15	1738,73
683,34	1703,91
683,53	1818,60
683,71	1738,73
683,90	1839,08
684,08	1832,93
684,27	1669,09
684,45	1787,88
684,64	1769,44
684,82	1759,21
685,01	1746,92
685,19	1632,23
685,38	1847,27
685,57	1740,77
685,75	1624,04
685,94	1705,96
686,12	1687,53
686,31	1665,00
686,49	1822,69
686,68	1638,38
686,86	1710,05
687,05	1656,81
687,23	1777,64
687,42	1695,72
687,60	1642,47
687,79	1804,26
687,97	1800,16
688,16	1804,26
688,34	1714,15
688,53	1693,67
688,71	1744,87
688,90	1767,40
689,08	1665,00
689,27	1597,42
689,45	1730,53
689,64	1810,40
689,82	1697,77
690,01	1744,87
690,19	1681,38
690,38	1654,76
690,56	1753,06
690,75	1705,96
690,93	1626,09
691,12	1642,47
691,30	1708,01
691,49	1689,57
691,67	1724,39
691,86	1849,32
692,04	1783,78
692,23	1740,77
692,41	1748,97
692,60	1724,39
692,78	1783,78
692,97	1681,38
693,15	1779,68
693,34	1783,78
693,52	1736,68
693,71	1644,52
693,89	1679,33
694,08	1595,37
694,26	1761,25
694,44	1761,25
694,63	1738,73
694,81	1603,56
695,00	1681,38
695,18	1761,25
695,37	1804,26
695,55	1812,45
695,74	1691,62
695,92	1675,24
696,10	1716,20
696,29	1658,85
696,47	1736,68
696,66	1669,09
696,84	1683,43
697,03	1703,91
697,21	1880,04
697,40	2263,01
697,58	1751,01
697,76	1669,09
697,95	1697,77
698,13	1591,27
698,32	1683,43
698,50	1689,57
698,68	1765,35
698,87	1783,78
699,05	1746,92
699,24	1701,86
699,42	1560,55
699,61	1744,87
699,79	1757,16
699,97	1804,26
700,16	1589,22
700,34	1548,26
700,53	1746,92
700,71	1742,82
700,89	1773,54
701,08	1646,57
701,26	1773,54
701,45	2095,07
701,63	1693,67
701,81	1640,42
702,00	1665,00
702,18	1681,38
702,37	1662,95
702,55	1882,08
702,73	1765,35
702,92	1640,42
703,10	1845,22
703,28	1734,63
703,47	1640,42
703,65	1669,09
703,84	1773,54
704,02	1699,81
704,20	1804,26
704,39	1660,90
704,57	1689,57
704,75	1791,97
704,94	1763,30
705,12	1689,57
705,30	1730,53
705,49	2258,91
705,67	4536,25
705,86	9461,62
706,04	12447,55
706,22	14528,29
706,41	15634,19
706,59	14063,40
706,77	9727,85
706,96	7462,80
707,14	6743,96
707,32	6023,08
707,51	5603,24
707,69	4992,95
707,87	4282,30
708,06	3588,04
708,24	2920,40
708,42	2488,28
708,61	2224,09
708,79	1884,13
708,97	1763,30
709,16	1845,22
709,34	1816,55
709,52	1720,29
709,71	1714,15
709,89	1826,79
710,07	1730,53
710,26	1658,85
710,44	1742,82
710,62	1751,01
710,80	1648,61
710,99	1732,58
711,17	1697,77
711,35	1640,42
711,54	1679,33
711,72	1734,63
711,90	1779,68
712,09	1708,01
712,27	1656,81
712,45	1753,06
712,63	1669,09
712,82	1638,38
713,00	1718,25
713,18	1775,59
713,37	1714,15
713,55	1734,63
713,73	1662,95
713,91	1720,29
714,10	1697,77
714,28	1726,44
714,46	1722,34
714,65	1644,52
714,83	1652,71
715,01	1685,48
715,19	1705,96
715,38	1689,57
715,56	1736,68
715,74	1691,62
715,92	1624,04
716,11	1806,31
716,29	1611,75
716,47	1656,81
716,65	1714,15
716,84	1697,77
717,02	1783,78
717,20	1558,50
717,38	1652,71
717,57	1660,90
717,75	1705,96
717,93	1650,66
718,11	1730,53
718,30	1628,14
718,48	1603,56
718,66	1640,42
718,84	1796,07
719,03	1742,82
719,21	1722,34
719,39	1812,45
719,57	1757,16
719,75	1765,35
719,94	1624,04
720,12	1695,72
720,30	1771,49
720,48	1699,81
720,67	1724,39
720,85	1695,72
721,03	1720,29
721,21	1607,66
721,39	1802,21
721,58	1703,91
721,76	1751,01
721,94	1755,11
722,12	1748,97
722,30	1781,73
722,49	1693,67
722,67	1734,63
722,85	1726,44
723,03	1624,04
723,21	1705,96
723,40	1738,73
723,58	1773,54
723,76	1716,20
723,94	1773,54
724,12	1755,11
724,30	1841,12
724,49	1740,77
724,67	1650,66
724,85	1826,79
725,03	1550,31
725,21	1755,11
725,40	1839,08
725,58	1679,33
725,76	1759,21
725,94	1736,68
726,12	1589,22
726,30	1755,11
726,49	1728,49
726,67	1603,56
726,85	1757,16
727,03	1748,97
727,21	2060,26
727,39	2918,36
727,57	3786,69
727,76	4212,67
727,94	4448,19
728,12	4530,11
728,30	3798,98
728,48	2928,60
728,66	2701,27
728,84	2519,00
729,03	2310,11
729,21	2119,65
729,39	1959,91
729,57	1740,77
729,75	1755,11
729,93	1800,16
730,11	1667,05
730,30	1681,38
730,48	1656,81
730,66	1800,16
730,84	1794,02
731,02	1640,42
731,20	1742,82
731,38	1718,25
731,56	1585,13
731,74	1630,18
731,93	1761,25
732,11	1646,57
732,29	1665,00
732,47	1732,58
732,65	1705,96
732,83	1818,60
733,01	1808,36
733,19	1714,15
733,37	1724,39
733,56	1742,82
733,74	1665,00
733,92	1755,11
734,10	1683,43
734,28	1779,68
734,46	1599,46
734,64	1712,10
734,82	1697,77
735,00	1671,14
735,18	1660,90
735,36	1732,58
735,54	1751,01
735,73	1665,00
735,91	1722,34
736,09	1765,35
736,27	1712,10
736,45	1744,87
736,63	1624,04
736,81	1691,62
736,99	1746,92
737,17	1781,73
737,35	1634,28
737,53	1755,11
737,71	1738,73
737,89	1832,93
738,07	1669,09
738,25	1611,75
738,43	1646,57
738,61	1677,29
738,80	1642,47
738,98	1603,56
739,16	1671,14
739,34	1595,37
739,52	1767,40
739,70	1665,00
739,88	1785,83
740,06	1785,83
740,24	1538,02
740,42	1775,59
740,60	1626,09
740,78	1718,25
740,96	1585,13
741,14	1724,39
741,32	1685,48
741,50	1581,03
741,68	1822,69
741,86	1839,08
742,04	1607,66
742,22	1656,81
742,40	1701,86
742,58	1673,19
742,76	1681,38
742,94	1814,50
743,12	1648,61
743,30	1699,81
743,48	1691,62
743,66	1710,05
743,84	1744,87
744,02	1693,67
744,20	1730,53
744,38	1724,39
744,56	1601,51
744,74	1726,44
744,92	1736,68
745,10	1806,31
745,28	1761,25
745,46	1791,97
745,64	1710,05
745,82	1720,29
746,00	1761,25
746,18	1703,91
746,36	1665,00
746,54	1699,81
746,72	1681,38
746,90	1617,90
747,08	1755,11
747,26	1705,96
747,44	1791,97
747,62	1669,09
747,80	1738,73
747,98	1781,73
748,15	1708,01
748,33	1773,54
748,51	1667,05
748,69	1779,68
748,87	1648,61
749,05	1615,85
749,23	1710,05
749,41	1757,16
749,59	1789,92
749,77	1708,01
749,95	1679,33
750,13	1632,23
750,31	1658,85
750,49	1679,33
750,67	1691,62
750,85	1771,49
751,03	1716,20
751,20	1796,07
751,38	1669,09
751,56	1673,19
751,74	1791,97
751,92	1837,03
752,10	1652,71
752,28	1740,77
752,46	1720,29
752,64	1683,43
752,82	1771,49
753,00	1693,67
753,18	1658,85
753,35	1697,77
753,53	1718,25
753,71	1667,05
753,89	1757,16
754,07	1621,99
754,25	1781,73
754,43	1703,91
754,61	1683,43
754,79	1781,73
754,97	1660,90
755,14	1841,12
755,32	1568,74
755,50	1681,38
755,68	1759,21
755,86	1671,14
756,04	1669,09
756,22	1599,46
756,40	1716,20
756,57	1818,60
756,75	1693,67
756,93	1718,25
757,11	1787,88
757,29	1611,75
757,47	1642,47
757,65	1632,23
757,82	1632,23
758,00	1654,76
758,18	1695,72
758,36	1665,00
758,54	1714,15
758,72	1759,21
758,90	1718,25
759,07	1705,96
759,25	1638,38
759,43	1734,63
759,61	1626,09
759,79	2234,33
759,97	1716,20
760,15	1703,91
760,32	1683,43
760,50	1685,48
760,68	1724,39
760,86	1615,85
761,04	1767,40
761,22	1830,88
761,39	1689,57
761,57	1656,81
761,75	1630,18
761,93	1748,97
762,11	1677,29
762,28	1687,53
762,46	1675,24
762,64	1669,09
762,82	1632,23
763,00	1730,53
763,18	1761,25
763,35	1599,46
763,53	1718,25
763,71	1718,25
763,89	1671,14
764,07	1767,40
764,24	1703,91
764,42	1777,64
764,60	1624,04
764,78	1611,75
764,96	1744,87
765,13	1699,81
765,31	1705,96
765,49	1697,77
765,67	1665,00
765,84	1638,38
766,02	1677,29
766,20	1578,98
766,38	1710,05
766,56	1697,77
766,73	1771,49
766,91	1689,57
767,09	1665,00
767,27	1701,86
767,44	1640,42
767,62	1689,57
767,80	1697,77
767,98	1679,33
768,15	1746,92
768,33	1708,01
768,51	1714,15
768,69	1751,01
768,87	1796,07
769,04	1683,43
769,22	1814,50
769,40	1834,98
769,58	1861,60
769,75	1732,58
769,93	1738,73
770,11	1714,15
770,28	1728,49
770,46	1853,41
770,64	1705,96
770,82	1691,62
770,99	1566,70
771,17	1669,09
771,35	1699,81
771,53	1740,77
771,70	1716,20
771,88	1665,00
772,06	1734,63
772,23	1665,00
772,41	1720,29
772,59	1712,10
772,77	1665,00
772,94	1761,25
773,12	1671,14
773,30	1654,76
773,47	1744,87
773,65	1656,81
773,83	1767,40
774,01	1667,05
774,18	1628,14
774,36	1691,62
774,54	1642,47
774,71	1742,82
774,89	1626,09
775,07	1718,25
775,24	1703,91
775,42	1652,71
775,60	1781,73
775,78	1591,27
775,95	1642,47
776,13	1570,79
776,31	1595,37
776,48	1728,49
776,66	1708,01
776,84	1652,71
777,01	1720,29
777,19	1652,71
777,37	1687,53
777,54	1673,19
777,72	1753,06
777,90	1689,57
778,07	1691,62
778,25	1804,26
778,43	1736,68
778,60	1679,33
778,78	1796,07
778,96	1761,25
779,13	1636,33
779,31	1767,40
779,49	1665,00
779,66	1744,87
779,84	1800,16
780,01	1652,71
780,19	1714,15
780,37	1734,63
780,54	1753,06
780,72	1669,09
780,90	1638,38
781,07	1685,48
781,25	1609,70
781,43	1691,62
781,60	1599,46
781,78	1779,68
781,95	1716,20
782,13	1650,66
782,31	1665,00
782,48	1583,08
782,66	1718,25
782,83	1808,36
783,01	1658,85
783,19	1685,48
783,36	1673,19
783,54	1632,23
783,72	1748,97
783,89	1652,71
784,07	1710,05
784,24	1748,97
784,42	1828,84
784,60	1679,33
784,77	1675,24
784,95	1640,42
785,12	1755,11
785,30	1759,21
785,47	1574,89
785,65	1665,00
785,83	1748,97
786,00	1658,85
786,18	1683,43
786,35	1671,14
786,53	1624,04
786,71	1775,59
786,88	1699,81
787,06	1746,92
787,23	1638,38
787,41	1581,03
787,58	1736,68
787,76	1658,85
787,94	1720,29
788,11	1683,43
788,29	1642,47
788,46	1718,25
788,64	1650,66
788,81	1587,18
788,99	1701,86
789,16	1662,95
789,34	1714,15
789,52	1685,48
789,69	1714,15
789,87	1642,47
790,04	1695,72
790,22	1665,00
790,39	1755,11
790,57	1642,47
790,74	1591,27
790,92	1724,39
791,09	1613,80
791,27	1759,21
791,44	1755,11
791,62	1693,67
791,79	1781,73
791,97	1697,77
792,15	1867,75
792,32	1701,86
792,50	1779,68
792,67	1781,73
792,85	1751,01
793,02	1804,26
793,20	1689,57
793,37	1593,32
793,55	1720,29
793,72	1675,24
793,90	1652,71
794,07	1585,13
794,25	1679,33
794,42	1751,01
794,60	1689,57
794,77	1736,68
794,95	1714,15
795,12	1726,44
795,30	1708,01
795,47	1613,80
795,65	1841,12
795,82	1767,40
796,00	1656,81
796,17	1671,14
796,34	1685,48
796,52	1718,25
796,69	1728,49
796,87	1746,92
797,04	1648,61
797,22	1701,86
797,39	1660,90
797,57	1724,39
797,74	1703,91
797,92	1804,26
798,09	1679,33
798,27	1812,45
798,44	1689,57
798,62	1673,19
798,79	1730,53
798,96	1701,86
799,14	1693,67
799,31	1759,21
799,49	1701,86
799,66	1658,85
799,84	1677,29
800,01	1667,05
800,19	1632,23
800,36	1634,28
800,53	1779,68
800,71	1671,14
800,88	1738,73
801,06	1599,46
801,23	1730,53
801,41	1669,09
801,58	1691,62
801,75	1656,81
801,93	1724,39
802,10	1816,55
802,28	1646,57
802,45	1673,19
802,63	1742,82
802,80	1853,41
802,97	1673,19
803,15	1660,90
803,32	1730,53
803,50	1599,46
803,67	1667,05
803,84	1550,31
804,02	1665,00
804,19	1671,14
804,37	1611,75
804,54	1595,37
804,71	1656,81
804,89	1644,52
805,06	1640,42
805,24	1605,61
805,41	1607,66
805,58	1693,67
805,76	1869,80
805,93	1720,29
806,10	1718,25
806,28	1697,77
806,45	1769,44
806,63	1695,72
806,80	1683,43
806,97	1703,91
807,15	1740,77
807,32	1650,66
807,49	1730,53
807,67	1615,85
807,84	1699,81
808,01	1646,57
808,19	1851,36
808,36	1796,07
808,54	1679,33
808,71	1679,33
808,88	1701,86
809,06	1699,81
809,23	1785,83
809,40	1619,94
809,58	1769,44
809,75	1687,53
809,92	1599,46
810,10	1865,70
810,27	1681,38
810,44	1734,63
810,62	1687,53
810,79	1806,31
810,96	1697,77
811,14	1677,29
811,31	1722,34
811,48	1685,48
811,66	1753,06
811,83	1697,77
812,00	1726,44
812,18	1783,78
812,35	1808,36
812,52	1662,95
812,69	1656,81
812,87	1697,77
813,04	1685,48
813,21	1753,06
813,39	1628,14
813,56	1595,37
813,73	1669,09
813,91	1673,19
814,08	1712,10
814,25	1699,81
814,42	1681,38
814,60	1693,67
814,77	1763,30
814,94	1732,58
815,12	1654,76
815,29	1767,40
815,46	1624,04
815,63	1734,63
815,81	1722,34
815,98	1736,68
816,15	1726,44
816,33	1744,87
816,50	1691,62
816,67	1677,29
816,84	1673,19
817,02	1619,94
817,19	1660,90
817,36	1640,42
817,53	1746,92
817,71	1667,05
817,88	1748,97
818,05	1693,67
818,22	1605,61
818,40	1814,50
818,57	1714,15
818,74	1773,54
818,91	1710,05
819,09	1683,43
819,26	1742,82
819,43	1701,86
819,60	1634,28
819,78	1757,16
819,95	1810,40
820,12	1660,90
820,29	1812,45
820,47	1791,97
820,64	1751,01
820,81	1716,20
820,98	1695,72
821,15	1697,77
821,33	1746,92
821,50	1675,24
821,67	1683,43
821,84	1632,23
822,02	1693,67
822,19	1740,77
822,36	1599,46
822,53	1662,95
822,70	1644,52
822,88	1656,81
823,05	1812,45
823,22	1705,96
823,39	1755,11
823,56	1742,82
823,74	1789,92
823,91	1615,85
824,08	1591,27
824,25	1624,04
824,42	1742,82
824,60	1628,14
824,77	1673,19
824,94	1744,87
825,11	1740,77
825,28	1583,08
825,45	1802,21
825,63	1726,44
825,80	1589,22
825,97	1785,83
826,14	1630,18
826,31	1587,18
826,48	1726,44
826,66	1683,43
826,83	1638,38
827,00	1683,43
827,17	1691,62
827,34	1699,81
827,51	1703,91
827,69	1679,33
827,86	1589,22
828,03	1638,38
828,20	1691,62
828,37	1732,58
828,54	1697,77
828,71	1656,81
828,89	1828,84
829,06	1648,61
829,23	1699,81
829,40	1665,00
829,57	1689,57
829,74	1697,77
829,91	1642,47
830,09	1640,42
830,26	1791,97
830,43	1781,73
830,60	1634,28
830,77	1679,33
830,94	1740,77
831,11	1751,01
831,28	1640,42
831,46	1685,48
831,63	1638,38
831,80	1806,31
831,97	1667,05
832,14	1703,91
832,31	1769,44
832,48	1757,16
832,65	1832,93
832,82	1775,59
832,99	1773,54
833,17	1673,19
833,34	1791,97
833,51	1726,44
833,68	1632,23
833,85	1742,82
834,02	1589,22
834,19	1695,72
834,36	1605,61
834,53	1714,15
834,70	1791,97
834,87	1794,02
835,04	1693,67
835,22	1689,57
835,39	1736,68
835,56	1550,31
835,73	1673,19
835,90	1644,52
836,07	1652,71
836,24	1757,16
836,41	1685,48
836,58	1601,51
836,75	1687,53
836,92	1712,10
837,09	1654,76
837,26	1718,25
837,43	1751,01
837,60	1753,06
837,77	1654,76
837,94	1705,96
838,12	1779,68
838,29	1728,49
838,46	1550,31
838,63	1601,51
838,80	1789,92
838,97	1736,68
839,14	1685,48
839,31	1675,24
839,48	1716,20
839,65	1689,57
839,82	1691,62
839,99	1708,01
840,16	1759,21
840,33	1665,00
840,50	1712,10
840,67	1669,09
840,84	1560,55
841,01	1718,25
841,18	1605,61
841,35	1673,19
841,52	1746,92
841,69	1722,34
841,86	1685,48
842,03	1660,90
842,20	1742,82
842,37	1722,34
842,54	1744,87
842,71	1773,54
842,88	1638,38
843,05	1761,25
843,22	1712,10
843,39	1794,02
843,56	1687,53
843,73	1687,53
843,90	1714,15
844,07	1689,57
844,24	1681,38
844,41	1716,20
844,58	1755,11
844,75	1716,20
844,92	1689,57
845,09	1638,38
845,26	1640,42
845,43	1710,05
845,60	1691,62
845,77	1744,87
845,94	1773,54
846,10	1742,82
846,27	1546,22
846,44	1654,76
846,61	1642,47
846,78	1689,57
846,95	1757,16
847,12	1712,10
847,29	1708,01
847,46	1648,61
847,63	1708,01
847,80	1634,28
847,97	1705,96
848,14	1863,65
848,31	1701,86
848,48	1656,81
848,65	1687,53
848,82	1665,00
848,98	1830,88
849,15	1671,14
849,32	1757,16
849,49	1703,91
849,66	1759,21
849,83	1673,19
850,00	1597,42
850,17	1796,07
850,34	1746,92
850,51	1685,48
850,68	1675,24
850,85	1783,78
851,01	1718,25
851,18	1755,11
851,35	1646,57
851,52	1681,38
851,69	1843,17
851,86	1533,93
852,03	1693,67
852,20	1751,01
852,37	1685,48
852,53	1597,42
852,70	1685,48
852,87	1654,76
853,04	1744,87
853,21	1728,49
853,38	1769,44
853,55	1740,77
853,72	1759,21
853,89	1697,77
854,05	1665,00
854,22	1708,01
854,39	1689,57
854,56	1701,86
854,73	1734,63
854,90	1656,81
855,07	1673,19
855,23	1654,76
855,40	1677,29
855,57	1689,57
855,74	1583,08
855,91	1845,22
856,08	1646,57
856,25	1574,89
856,41	1673,19
856,58	1656,81
856,75	1691,62
856,92	1626,09
857,09	1728,49
857,26	1632,23
857,42	1617,90
857,59	1714,15
857,76	1599,46
857,93	1665,00
858,10	1701,86
858,27	1636,33
858,43	1738,73
858,60	1621,99
858,77	1574,89
858,94	1685,48
859,11	1779,68
859,27	1691,62
859,44	1738,73
859,61	1822,69
859,78	1728,49
859,95	1730,53
860,12	1570,79
860,28	1857,51
860,45	1771,49
860,62	1669,09
860,79	1722,34
860,95	1744,87
861,12	1658,85
861,29	1671,14
861,46	1650,66
861,63	1718,25
861,79	1744,87
861,96	1583,08
862,13	1574,89
862,30	1751,01
862,47	1677,29
862,63	1617,90
862,80	1773,54
862,97	1806,31
863,14	1722,34
863,30	1701,86
863,47	1671,14
863,64	1771,49
863,81	1738,73
863,97	1642,47
864,14	1695,72
864,31	1656,81
864,48	1755,11
864,65	1615,85
864,81	1722,34
864,98	1769,44
865,15	1656,81
865,32	1665,00
865,48	1763,30
865,65	1796,07
865,82	1730,53
865,98	1726,44
866,15	1896,42
866,32	1710,05
866,49	1669,09
866,65	1724,39
866,82	1681,38
866,99	1722,34
867,16	1718,25
867,32	1673,19
867,49	1638,38
867,66	1712,10
867,83	1671,14
867,99	1611,75
868,16	1730,53
868,33	1640,42
868,49	1660,90
868,66	1621,99
868,83	1753,06
868,99	1714,15
869,16	1699,81
869,33	1755,11
869,50	1740,77
869,66	1763,30
869,83	1667,05
870,00	1624,04
870,16	1669,09
870,33	1742,82
870,50	1695,72
870,66	1720,29
870,83	1804,26
871,00	1748,97
871,17	1730,53
871,33	1697,77
871,50	1708,01
871,67	1685,48
871,83	1644,52
872,00	1820,64
872,17	1738,73
872,33	1834,98
872,50	1701,86
872,67	1722,34
872,83	1710,05
873,00	1740,77
873,17	1636,33
873,33	1830,88
873,50	1665,00
873,67	1665,00
873,83	1689,57
874,00	1673,19
874,16	1746,92
874,33	1699,81
874,50	1705,96
874,66	1705,96
874,83	1720,29
875,00	1720,29
875,16	1822,69
875,33	1763,30
875,50	1546,22
875,66	1724,39
875,83	1603,56
875,99	1685,48
876,16	1654,76
876,33	1685,48
876,49	1656,81
876,66	1685,48
876,83	1675,24
876,99	1615,85
877,16	1665,00
877,32	1697,77
877,49	1683,43
877,66	1732,58
877,82	1744,87
877,99	1660,90
878,15	1689,57
878,32	1667,05
878,49	1677,29
878,65	1683,43
878,82	1822,69
878,98	1634,28
879,15	1789,92
879,32	1695,72
879,48	1705,96
879,65	1677,29
879,81	1658,85
879,98	1671,14
880,15	1787,88
880,31	1685,48
880,48	1693,67
880,64	1738,73
880,81	1751,01
880,97	1763,30
881,14	1767,40
881,31	1701,86
881,47	1830,88
881,64	1779,68
881,80	1624,04
881,97	1748,97
882,13	1738,73
882,30	1603,56
882,47	1687,53
882,63	1619,94
882,80	1681,38
882,96	1650,66
883,13	1716,20
883,29	1726,44
883,46	1738,73
883,62	1755,11
883,79	1751,01
883,95	1748,97
884,12	1755,11
884,29	1769,44
884,45	1710,05
884,62	1771,49
884,78	1607,66
884,95	1763,30
885,11	1699,81
885,28	1646,57
885,44	1626,09
885,61	1759,21
885,77	1812,45
885,94	1693,67
886,10	1667,05
886,27	1699,81
886,43	1724,39
886,60	1724,39
886,76	1708,01
886,93	1677,29
887,09	1673,19
887,26	1632,23
887,42	1796,07
887,59	1744,87
887,75	1853,41
887,92	1783,78
888,08	1789,92
888,25	1798,12
888,41	1767,40
888,58	1638,38
888,74	1677,29
888,91	1712,10
>>>>>End Processed Spectral Data<<<<<
