SpectraSuite Data File
++++++++++++++++++++++++++++++++++++
Date: Mon Jun 06 12:23:37 CEST 2016
User: root
Dark Spectrum Present: No
Reference Spectrum Present: No
Number of Sampled Component Spectra: 1
Spectrometers: USB4C02835
Integration Time (usec): 100000 (USB4C02835)
Spectra Averaged: 1 (USB4C02835)
Boxcar Smoothing: 0 (USB4C02835)
Correct for Electrical Dark: No (USB4C02835)
Strobe/Lamp Enabled: No (USB4C02835)
Correct for Detector Non-linearity: No (USB4C02835)
Correct for Stray Light: No (USB4C02835)
Number of Pixels in Processed Spectrum: 3648
>>>>>Begin Processed Spectral Data<<<<<
177,47	1435,63
177,69	1435,63
177,91	1435,63
178,13	1462,25
178,36	1525,74
178,58	1617,90
178,80	1701,86
179,02	1576,94
179,24	1714,15
179,46	1697,77
179,68	1751,01
179,90	1636,33
180,13	1687,53
180,35	1646,57
180,57	1705,96
180,79	1742,82
181,01	1685,48
181,23	1705,96
181,45	1763,30
181,67	1675,24
181,90	1830,88
182,12	1728,49
182,34	1624,04
182,56	1679,33
182,78	1746,92
183,00	1724,39
183,22	1701,86
183,44	1636,33
183,66	1787,88
183,89	1804,26
184,11	1724,39
184,33	1736,68
184,55	1697,77
184,77	1734,63
184,99	1720,29
185,21	1662,95
185,43	1798,12
185,65	1710,05
185,87	1806,31
186,10	1814,50
186,32	1863,65
186,54	1808,36
186,76	1746,92
186,98	1796,07
187,20	1734,63
187,42	1718,25
187,64	1732,58
187,86	1628,14
188,08	1763,30
188,30	1693,67
188,52	1701,86
188,75	1773,54
188,97	1751,01
189,19	1701,86
189,41	1646,57
189,63	1683,43
189,85	1656,81
190,07	1697,77
190,29	1656,81
190,51	1710,05
190,73	1646,57
190,95	1800,16
191,17	1603,56
191,39	1523,69
191,61	1652,71
191,84	1693,67
192,06	1689,57
192,28	1552,36
192,50	1918,95
192,72	1712,10
192,94	1714,15
193,16	1832,93
193,38	1734,63
193,60	1654,76
193,82	1632,23
194,04	1787,88
194,26	1730,53
194,48	1730,53
194,70	1699,81
194,92	1630,18
195,14	1712,10
195,36	1640,42
195,58	1632,23
195,80	1669,09
196,02	1638,38
196,24	1673,19
196,46	1724,39
196,69	1665,00
196,91	1849,32
197,13	1677,29
197,35	1652,71
197,57	1816,55
197,79	1660,90
198,01	1667,05
198,23	1757,16
198,45	1748,97
198,67	1660,90
198,89	1675,24
199,11	1705,96
199,33	1677,29
199,55	1607,66
199,77	1644,52
199,99	1734,63
200,21	1656,81
200,43	1705,96
200,65	1650,66
200,87	1525,74
201,09	1636,33
201,31	1677,29
201,53	1753,06
201,75	1748,97
201,97	1755,11
202,19	1599,46
202,41	1701,86
202,63	1746,92
202,85	1726,44
203,07	1693,67
203,29	1681,38
203,51	1683,43
203,73	1599,46
203,95	1865,70
204,17	1759,21
204,39	1722,34
204,61	1697,77
204,83	1646,57
205,05	1773,54
205,27	1701,86
205,49	1832,93
205,71	1744,87
205,93	1673,19
206,15	1624,04
206,37	1716,20
206,59	1679,33
206,81	1646,57
207,03	1615,85
207,25	1593,32
207,47	1748,97
207,69	1656,81
207,91	1837,03
208,13	1796,07
208,34	1708,01
208,56	1689,57
208,78	1787,88
209,00	1669,09
209,22	1671,14
209,44	1755,11
209,66	1662,95
209,88	1759,21
210,10	1732,58
210,32	1644,52
210,54	1800,16
210,76	1624,04
210,98	1777,64
211,20	1617,90
211,42	1763,30
211,64	1738,73
211,86	1685,48
212,08	1714,15
212,30	1708,01
212,52	1691,62
212,74	1724,39
212,96	1665,00
213,17	1755,11
213,39	1832,93
213,61	1769,44
213,83	1693,67
214,05	1650,66
214,27	1787,88
214,49	1628,14
214,71	1660,90
214,93	1751,01
215,15	1634,28
215,37	1671,14
215,59	1640,42
215,81	1751,01
216,03	1824,74
216,24	1757,16
216,46	1662,95
216,68	1751,01
216,90	1800,16
217,12	1796,07
217,34	1718,25
217,56	1716,20
217,78	1742,82
218,00	1732,58
218,22	1656,81
218,44	1691,62
218,66	1732,58
218,87	1763,30
219,09	1642,47
219,31	1796,07
219,53	1654,76
219,75	1660,90
219,97	1724,39
220,19	1669,09
220,41	1636,33
220,63	1718,25
220,85	1699,81
221,06	1640,42
221,28	1695,72
221,50	1763,30
221,72	1685,48
221,94	1656,81
222,16	1632,23
222,38	1730,53
222,60	1744,87
222,82	1677,29
223,03	1685,48
223,25	1593,32
223,47	1802,21
223,69	1894,37
223,91	1708,01
224,13	1621,99
224,35	1662,95
224,57	1826,79
224,78	1695,72
225,00	1636,33
225,22	1601,51
225,44	1665,00
225,66	1683,43
225,88	1708,01
226,10	1771,49
226,32	1689,57
226,53	1761,25
226,75	1703,91
226,97	1701,86
227,19	1746,92
227,41	1595,37
227,63	1685,48
227,85	1617,90
228,06	1714,15
228,28	1665,00
228,50	1734,63
228,72	1689,57
228,94	1638,38
229,16	1642,47
229,37	1675,24
229,59	1675,24
229,81	1724,39
230,03	1636,33
230,25	1591,27
230,47	1624,04
230,69	1621,99
230,90	1695,72
231,12	1609,70
231,34	1665,00
231,56	1738,73
231,78	1710,05
232,00	1751,01
232,21	1705,96
232,43	1665,00
232,65	1578,98
232,87	1710,05
233,09	1628,14
233,30	1613,80
233,52	1794,02
233,74	1693,67
233,96	1671,14
234,18	1624,04
234,40	1771,49
234,61	1769,44
234,83	1609,70
235,05	1650,66
235,27	1837,03
235,49	1773,54
235,70	1732,58
235,92	1773,54
236,14	1712,10
236,36	1798,12
236,58	1636,33
236,79	1677,29
237,01	1665,00
237,23	1699,81
237,45	1841,12
237,67	1689,57
237,88	1783,78
238,10	1800,16
238,32	1591,27
238,54	1630,18
238,76	1708,01
238,97	1609,70
239,19	1650,66
239,41	1726,44
239,63	1785,83
239,85	1632,23
240,06	1634,28
240,28	1720,29
240,50	1712,10
240,72	1699,81
240,93	1726,44
241,15	1722,34
241,37	1673,19
241,59	1744,87
241,81	1685,48
242,02	1624,04
242,24	1660,90
242,46	1771,49
242,68	1626,09
242,89	1718,25
243,11	1703,91
243,33	1705,96
243,55	1712,10
243,76	1693,67
243,98	1665,00
244,20	1732,58
244,42	1701,86
244,64	1685,48
244,85	1652,71
245,07	1601,51
245,29	1681,38
245,51	1667,05
245,72	1755,11
245,94	1759,21
246,16	1738,73
246,38	1722,34
246,59	1665,00
246,81	1578,98
247,03	1654,76
247,24	1568,74
247,46	1685,48
247,68	1757,16
247,90	1662,95
248,11	1683,43
248,33	1746,92
248,55	1673,19
248,77	1650,66
248,98	1697,77
249,20	1736,68
249,42	1624,04
249,64	1753,06
249,85	1632,23
250,07	1638,38
250,29	1714,15
250,50	1744,87
250,72	1574,89
250,94	1781,73
251,16	1789,92
251,37	1794,02
251,59	1730,53
251,81	1724,39
252,02	1652,71
252,24	1681,38
252,46	1830,88
252,68	1617,90
252,89	1669,09
253,11	1621,99
253,33	1757,16
253,54	1720,29
253,76	1613,80
253,98	1673,19
254,20	1687,53
254,41	1617,90
254,63	1701,86
254,85	1677,29
255,06	1710,05
255,28	1693,67
255,50	1658,85
255,71	1652,71
255,93	1607,66
256,15	1738,73
256,36	1753,06
256,58	1638,38
256,80	1730,53
257,02	1671,14
257,23	1677,29
257,45	1656,81
257,67	1718,25
257,88	1671,14
258,10	1718,25
258,32	1730,53
258,53	1644,52
258,75	1679,33
258,97	1656,81
259,18	1761,25
259,40	1652,71
259,62	1753,06
259,83	1757,16
260,05	1771,49
260,27	1947,62
260,48	1720,29
260,70	1658,85
260,92	1673,19
261,13	1765,35
261,35	1718,25
261,57	1695,72
261,78	1630,18
262,00	1712,10
262,22	1742,82
262,43	1572,84
262,65	1708,01
262,86	1648,61
263,08	1867,75
263,30	1705,96
263,51	1566,70
263,73	1626,09
263,95	1712,10
264,16	1728,49
264,38	1681,38
264,60	1740,77
264,81	1714,15
265,03	1740,77
265,25	1708,01
265,46	1705,96
265,68	1818,60
265,89	1748,97
266,11	1669,09
266,33	1761,25
266,54	1781,73
266,76	1804,26
266,98	1722,34
267,19	1789,92
267,41	1751,01
267,62	1687,53
267,84	1558,50
268,06	1691,62
268,27	1710,05
268,49	1708,01
268,70	1701,86
268,92	1632,23
269,14	1593,32
269,35	1640,42
269,57	1648,61
269,79	1751,01
270,00	1640,42
270,22	1839,08
270,43	1619,94
270,65	1626,09
270,87	1583,08
271,08	1738,73
271,30	1710,05
271,51	1712,10
271,73	1667,05
271,95	1691,62
272,16	1699,81
272,38	1730,53
272,59	1669,09
272,81	1726,44
273,02	1665,00
273,24	1720,29
273,46	1714,15
273,67	1718,25
273,89	1693,67
274,10	1619,94
274,32	1744,87
274,54	1751,01
274,75	1671,14
274,97	1699,81
275,18	1759,21
275,40	1712,10
275,61	1718,25
275,83	1683,43
276,05	1677,29
276,26	1689,57
276,48	1755,11
276,69	1677,29
276,91	1617,90
277,12	1812,45
277,34	1718,25
277,55	1738,73
277,77	1726,44
277,99	1679,33
278,20	1595,37
278,42	1638,38
278,63	1570,79
278,85	1708,01
279,06	1662,95
279,28	1683,43
279,49	1730,53
279,71	1814,50
279,93	1730,53
280,14	1669,09
280,36	1642,47
280,57	1716,20
280,79	1718,25
281,00	1628,14
281,22	1619,94
281,43	1648,61
281,65	1568,74
281,86	1718,25
282,08	1746,92
282,29	1773,54
282,51	1699,81
282,73	1683,43
282,94	1572,84
283,16	1773,54
283,37	1759,21
283,59	1716,20
283,80	1757,16
284,02	1714,15
284,23	1683,43
284,45	1626,09
284,66	1632,23
284,88	1656,81
285,09	1759,21
285,31	1783,78
285,52	1771,49
285,74	1595,37
285,95	1718,25
286,17	1736,68
286,38	1761,25
286,60	1671,14
286,81	1611,75
287,03	1708,01
287,24	1742,82
287,46	1650,66
287,67	1665,00
287,89	1753,06
288,10	1681,38
288,32	1681,38
288,53	1730,53
288,75	1640,42
288,96	1689,57
289,18	1652,71
289,39	1675,24
289,61	1718,25
289,82	1822,69
290,04	1798,12
290,25	1638,38
290,47	1730,53
290,68	1744,87
290,90	1738,73
291,11	1593,32
291,33	1705,96
291,54	1599,46
291,76	1652,71
291,97	1724,39
292,18	1751,01
292,40	1650,66
292,61	1673,19
292,83	1898,47
293,04	1714,15
293,26	1724,39
293,47	1677,29
293,69	1724,39
293,90	1644,52
294,12	1746,92
294,33	1609,70
294,55	1662,95
294,76	1740,77
294,97	1806,31
295,19	1685,48
295,40	1652,71
295,62	1703,91
295,83	1746,92
296,05	1626,09
296,26	1748,97
296,48	1636,33
296,69	1703,91
296,90	1691,62
297,12	1781,73
297,33	1724,39
297,55	1681,38
297,76	1673,19
297,98	1787,88
298,19	1636,33
298,41	1683,43
298,62	1677,29
298,83	1783,78
299,05	1658,85
299,26	1685,48
299,48	1683,43
299,69	1794,02
299,90	1689,57
300,12	1712,10
300,33	1669,09
300,55	1638,38
300,76	1712,10
300,98	1693,67
301,19	1689,57
301,40	1701,86
301,62	1697,77
301,83	1679,33
302,05	1734,63
302,26	1693,67
302,47	1574,89
302,69	1585,13
302,90	1724,39
303,12	1574,89
303,33	1710,05
303,54	1832,93
303,76	1671,14
303,97	1693,67
304,19	1693,67
304,40	1658,85
304,61	1761,25
304,83	1781,73
305,04	1716,20
305,26	1665,00
305,47	1656,81
305,68	1759,21
305,90	1669,09
306,11	1816,55
306,33	1716,20
306,54	1675,24
306,75	1691,62
306,97	1634,28
307,18	1703,91
307,39	1617,90
307,61	1744,87
307,82	1687,53
308,04	1753,06
308,25	1533,93
308,46	1746,92
308,68	1665,00
308,89	1673,19
309,10	1716,20
309,32	1708,01
309,53	1681,38
309,74	1693,67
309,96	1683,43
310,17	1740,77
310,39	1638,38
310,60	1722,34
310,81	1699,81
311,03	1671,14
311,24	1714,15
311,45	1626,09
311,67	1816,55
311,88	1665,00
312,09	1675,24
312,31	1642,47
312,52	1695,72
312,73	1611,75
312,95	1628,14
313,16	1654,76
313,37	1777,64
313,59	1689,57
313,80	1769,44
314,01	1796,07
314,23	1673,19
314,44	1701,86
314,65	1607,66
314,87	1632,23
315,08	1712,10
315,29	1734,63
315,51	1726,44
315,72	1683,43
315,93	1794,02
316,15	1744,87
316,36	1644,52
316,57	1763,30
316,79	1677,29
317,00	1701,86
317,21	1691,62
317,43	1695,72
317,64	1650,66
317,85	1574,89
318,07	1673,19
318,28	1761,25
318,49	1738,73
318,70	1904,61
318,92	1730,53
319,13	1871,84
319,34	1814,50
319,56	1865,70
319,77	1796,07
319,98	1847,27
320,20	1789,92
320,41	1730,53
320,62	1648,61
320,83	1660,90
321,05	1812,45
321,26	1728,49
321,47	1740,77
321,69	1787,88
321,90	1689,57
322,11	1703,91
322,32	1708,01
322,54	1769,44
322,75	1734,63
322,96	1740,77
323,18	1656,81
323,39	1601,51
323,60	1628,14
323,81	1742,82
324,03	1718,25
324,24	1718,25
324,45	1677,29
324,66	1630,18
324,88	1767,40
325,09	1693,67
325,30	1716,20
325,52	1718,25
325,73	1722,34
325,94	1658,85
326,15	1556,46
326,37	1724,39
326,58	1691,62
326,79	1671,14
327,00	1652,71
327,22	1781,73
327,43	1718,25
327,64	1583,08
327,85	1746,92
328,07	1642,47
328,28	1787,88
328,49	1677,29
328,70	1630,18
328,92	1712,10
329,13	1669,09
329,34	1728,49
329,55	1826,79
329,76	1665,00
329,98	1705,96
330,19	1769,44
330,40	1708,01
330,61	1710,05
330,83	1742,82
331,04	1658,85
331,25	1632,23
331,46	1568,74
331,68	1599,46
331,89	1736,68
332,10	1642,47
332,31	1546,22
332,52	1738,73
332,74	1751,01
332,95	1581,03
333,16	1689,57
333,37	1740,77
333,58	1636,33
333,80	1753,06
334,01	1605,61
334,22	1660,90
334,43	1626,09
334,64	1599,46
334,86	1638,38
335,07	1497,07
335,28	1740,77
335,49	1642,47
335,70	1765,35
335,92	1705,96
336,13	1916,90
336,34	1742,82
336,55	1665,00
336,76	1671,14
336,98	1667,05
337,19	1712,10
337,40	1830,88
337,61	1769,44
337,82	1759,21
338,04	1699,81
338,25	1646,57
338,46	1716,20
338,67	1675,24
338,88	1644,52
339,09	1595,37
339,31	1609,70
339,52	1640,42
339,73	1683,43
339,94	1642,47
340,15	1726,44
340,36	1710,05
340,58	1714,15
340,79	1695,72
341,00	1730,53
341,21	1611,75
341,42	1759,21
341,63	1718,25
341,85	1800,16
342,06	1728,49
342,27	1611,75
342,48	1724,39
342,69	1671,14
342,90	1757,16
343,12	1662,95
343,33	1617,90
343,54	1753,06
343,75	1724,39
343,96	1695,72
344,17	1603,56
344,38	1738,73
344,60	1640,42
344,81	1640,42
345,02	1746,92
345,23	1744,87
345,44	1757,16
345,65	1773,54
345,86	1775,59
346,07	1697,77
346,29	1558,50
346,50	1669,09
346,71	1757,16
346,92	1710,05
347,13	1824,74
347,34	1748,97
347,55	1746,92
347,76	1693,67
347,98	1566,70
348,19	1681,38
348,40	1748,97
348,61	1646,57
348,82	1755,11
349,03	1775,59
349,24	1636,33
349,45	1800,16
349,66	1578,98
349,88	1626,09
350,09	1574,89
350,30	1718,25
350,51	1730,53
350,72	1689,57
350,93	1679,33
351,14	1673,19
351,35	1720,29
351,56	1669,09
351,77	1681,38
351,99	1759,21
352,20	1787,88
352,41	1738,73
352,62	1652,71
352,83	1722,34
353,04	1652,71
353,25	1730,53
353,46	1722,34
353,67	1759,21
353,88	1628,14
354,09	1662,95
354,30	1689,57
354,52	1791,97
354,73	1736,68
354,94	1591,27
355,15	1632,23
355,36	1828,84
355,57	1689,57
355,78	1775,59
355,99	1714,15
356,20	1656,81
356,41	1728,49
356,62	1767,40
356,83	1755,11
357,04	1820,64
357,25	1568,74
357,46	1705,96
357,68	1595,37
357,89	1632,23
358,10	1699,81
358,31	1662,95
358,52	1751,01
358,73	1607,66
358,94	1632,23
359,15	1716,20
359,36	1728,49
359,57	1703,91
359,78	1710,05
359,99	1701,86
360,20	1662,95
360,41	1636,33
360,62	1656,81
360,83	1742,82
361,04	1669,09
361,25	1716,20
361,46	1791,97
361,67	1714,15
361,88	1746,92
362,09	1740,77
362,30	1738,73
362,51	1589,22
362,72	1738,73
362,93	1738,73
363,14	1730,53
363,35	1734,63
363,56	1658,85
363,78	1751,01
363,99	1722,34
364,20	1658,85
364,41	1673,19
364,62	1771,49
364,83	1685,48
365,04	1720,29
365,25	1744,87
365,46	1822,69
365,67	1662,95
365,88	1560,55
366,09	1685,48
366,30	1628,14
366,51	1671,14
366,72	1642,47
366,93	1630,18
367,14	1708,01
367,35	1761,25
367,56	1712,10
367,77	1767,40
367,98	1679,33
368,18	1730,53
368,39	1748,97
368,60	1593,32
368,81	1699,81
369,02	1742,82
369,23	1669,09
369,44	1652,71
369,65	1732,58
369,86	1775,59
370,07	1751,01
370,28	1617,90
370,49	1753,06
370,70	1734,63
370,91	1687,53
371,12	1609,70
371,33	1759,21
371,54	1617,90
371,75	1851,36
371,96	1656,81
372,17	1714,15
372,38	1691,62
372,59	1689,57
372,80	1722,34
373,01	1638,38
373,22	1693,67
373,43	1687,53
373,64	1652,71
373,85	1673,19
374,06	1794,02
374,26	1736,68
374,47	1722,34
374,68	1701,86
374,89	1710,05
375,10	1689,57
375,31	1677,29
375,52	1685,48
375,73	1685,48
375,94	1665,00
376,15	1814,50
376,36	1677,29
376,57	1601,51
376,78	1693,67
376,99	1722,34
377,20	1761,25
377,40	1583,08
377,61	1894,37
377,82	1619,94
378,03	1767,40
378,24	1654,76
378,45	1748,97
378,66	1695,72
378,87	1662,95
379,08	1570,79
379,29	1562,60
379,50	1748,97
379,71	1654,76
379,91	1775,59
380,12	1683,43
380,33	1761,25
380,54	1677,29
380,75	1691,62
380,96	1648,61
381,17	1769,44
381,38	1665,00
381,59	1683,43
381,80	1679,33
382,00	1802,21
382,21	1722,34
382,42	1837,03
382,63	1914,85
382,84	1742,82
383,05	1730,53
383,26	1781,73
383,47	1703,91
383,68	1728,49
383,88	1703,91
384,09	1810,40
384,30	1759,21
384,51	1699,81
384,72	1673,19
384,93	1665,00
385,14	1730,53
385,35	1787,88
385,55	1632,23
385,76	1744,87
385,97	1669,09
386,18	1697,77
386,39	1640,42
386,60	1708,01
386,81	1703,91
387,02	1599,46
387,22	1658,85
387,43	1828,84
387,64	1773,54
387,85	1818,60
388,06	2238,43
388,27	4296,64
388,48	6827,93
388,68	8263,55
388,89	9750,38
389,10	9889,64
389,31	8775,55
389,52	7624,59
389,73	6852,50
389,93	6223,78
390,14	5994,40
390,35	5371,82
390,56	4593,59
390,77	3786,69
390,98	2963,41
391,18	2516,95
391,39	2150,37
391,60	1888,23
391,81	1798,12
392,02	1726,44
392,23	1841,12
392,43	1705,96
392,64	1787,88
392,85	1783,78
393,06	1773,54
393,27	1714,15
393,47	1652,71
393,68	1712,10
393,89	1615,85
394,10	1845,22
394,31	1703,91
394,52	1699,81
394,72	1665,00
394,93	1806,31
395,14	1634,28
395,35	1687,53
395,56	1683,43
395,76	1789,92
395,97	1789,92
396,18	1816,55
396,39	1834,98
396,60	2027,49
396,80	1875,94
397,01	1820,64
397,22	1777,64
397,43	1865,70
397,64	1763,30
397,84	1789,92
398,05	1841,12
398,26	1724,39
398,47	1755,11
398,67	1800,16
398,88	1794,02
399,09	1755,11
399,30	1712,10
399,51	1742,82
399,71	1677,29
399,92	1755,11
400,13	1761,25
400,34	1636,33
400,54	1705,96
400,75	1820,64
400,96	1705,96
401,17	1830,88
401,37	1738,73
401,58	1660,90
401,79	1746,92
402,00	1849,32
402,21	1980,39
402,41	1908,71
402,62	1953,76
402,83	1986,53
403,04	1968,10
403,24	2062,30
403,45	1834,98
403,66	1857,51
403,87	1880,04
404,07	1873,89
404,28	1943,52
404,49	1832,93
404,70	1701,86
404,90	1769,44
405,11	1693,67
405,32	1677,29
405,52	1720,29
405,73	1693,67
405,94	1683,43
406,15	1667,05
406,35	1751,01
406,56	1705,96
406,77	1667,05
406,98	1730,53
407,18	1644,52
407,39	1744,87
407,60	1687,53
407,80	1816,55
408,01	1626,09
408,22	1687,53
408,43	1691,62
408,63	1796,07
408,84	1718,25
409,05	1789,92
409,25	1624,04
409,46	1705,96
409,67	1738,73
409,88	1746,92
410,08	1695,72
410,29	1683,43
410,50	1712,10
410,70	1718,25
410,91	1665,00
411,12	1730,53
411,32	1697,77
411,53	1746,92
411,74	1720,29
411,95	1771,49
412,15	1759,21
412,36	1763,30
412,57	1716,20
412,77	1759,21
412,98	1683,43
413,19	1673,19
413,39	1748,97
413,60	1708,01
413,81	1818,60
414,01	1703,91
414,22	1695,72
414,43	1777,64
414,63	1708,01
414,84	1775,59
415,05	1744,87
415,25	1617,90
415,46	1794,02
415,67	1685,48
415,87	1642,47
416,08	1742,82
416,29	1652,71
416,49	1734,63
416,70	1665,00
416,91	1656,81
417,11	1701,86
417,32	1722,34
417,53	1765,35
417,73	1685,48
417,94	1671,14
418,15	1679,33
418,35	1757,16
418,56	1691,62
418,77	1824,74
418,97	1660,90
419,18	1693,67
419,38	1636,33
419,59	1710,05
419,80	1681,38
420,00	1636,33
420,21	1632,23
420,42	1675,24
420,62	1689,57
420,83	1662,95
421,04	1656,81
421,24	1722,34
421,45	1787,88
421,65	1724,39
421,86	1689,57
422,07	1718,25
422,27	1742,82
422,48	1687,53
422,69	1642,47
422,89	1767,40
423,10	1724,39
423,30	1654,76
423,51	1755,11
423,72	1765,35
423,92	1685,48
424,13	1744,87
424,33	1662,95
424,54	1746,92
424,75	1691,62
424,95	1759,21
425,16	1826,79
425,36	1701,86
425,57	1677,29
425,78	1789,92
425,98	1705,96
426,19	1714,15
426,39	1628,14
426,60	1708,01
426,81	1695,72
427,01	1759,21
427,22	1632,23
427,42	1669,09
427,63	1701,86
427,83	1763,30
428,04	1789,92
428,25	1857,51
428,45	1775,59
428,66	1765,35
428,86	1652,71
429,07	1640,42
429,28	1728,49
429,48	1658,85
429,69	1619,94
429,89	1660,90
430,10	1578,98
430,30	1748,97
430,51	1769,44
430,71	1603,56
430,92	1619,94
431,13	1705,96
431,33	1728,49
431,54	1777,64
431,74	1738,73
431,95	1820,64
432,15	1665,00
432,36	1730,53
432,56	1779,68
432,77	1728,49
432,98	1798,12
433,18	1660,90
433,39	1671,14
433,59	1652,71
433,80	1849,32
434,00	1834,98
434,21	1726,44
434,41	1703,91
434,62	1865,70
434,82	1658,85
435,03	1599,46
435,23	1736,68
435,44	1628,14
435,64	1775,59
435,85	1673,19
436,06	1705,96
436,26	1824,74
436,47	1710,05
436,67	1607,66
436,88	1755,11
437,08	1783,78
437,29	1763,30
437,49	1693,67
437,70	1802,21
437,90	1660,90
438,11	1785,83
438,31	1794,02
438,52	1839,08
438,72	1839,08
438,93	1945,57
439,13	1828,84
439,34	1830,88
439,54	1767,40
439,75	1843,17
439,95	1744,87
440,16	1720,29
440,36	1665,00
440,57	1834,98
440,77	1785,83
440,98	1675,24
441,18	1759,21
441,39	1671,14
441,59	1675,24
441,80	1806,31
442,00	1763,30
442,21	1785,83
442,41	1669,09
442,62	1763,30
442,82	1648,61
443,02	1640,42
443,23	1701,86
443,43	1722,34
443,64	1849,32
443,84	1593,32
444,05	1798,12
444,25	1767,40
444,46	1693,67
444,66	1726,44
444,87	1804,26
445,07	1710,05
445,28	1771,49
445,48	1828,84
445,69	1734,63
445,89	1771,49
446,09	1763,30
446,30	1959,91
446,50	2658,26
446,71	3751,88
446,91	4304,83
447,12	4708,28
447,32	4941,75
447,53	4173,76
447,73	4011,97
447,93	3504,07
448,14	3364,81
448,34	3198,93
448,55	2992,08
448,75	2895,83
448,96	2770,90
449,16	2447,32
449,36	2281,44
449,57	2019,30
449,77	1978,34
449,98	1791,97
450,18	1720,29
450,39	1896,42
450,59	1718,25
450,79	1720,29
451,00	1773,54
451,20	1814,50
451,41	1646,57
451,61	1822,69
451,81	1687,53
452,02	1660,90
452,22	1658,85
452,43	1736,68
452,63	1722,34
452,84	1724,39
453,04	1724,39
453,24	1791,97
453,45	1677,29
453,65	1738,73
453,86	1906,66
454,06	1734,63
454,26	1677,29
454,47	1732,58
454,67	1773,54
454,87	1728,49
455,08	1673,19
455,28	1787,88
455,49	1734,63
455,69	1685,48
455,89	1814,50
456,10	1837,03
456,30	1699,81
456,51	1781,73
456,71	1724,39
456,91	1740,77
457,12	1761,25
457,32	1753,06
457,52	1736,68
457,73	1779,68
457,93	1724,39
458,14	1669,09
458,34	1648,61
458,54	1703,91
458,75	1714,15
458,95	1701,86
459,15	1767,40
459,36	1755,11
459,56	1763,30
459,76	1824,74
459,97	1738,73
460,17	1800,16
460,37	1796,07
460,58	1691,62
460,78	1796,07
460,99	1681,38
461,19	1699,81
461,39	1679,33
461,60	1685,48
461,80	1791,97
462,00	1642,47
462,21	1681,38
462,41	1652,71
462,61	1728,49
462,82	1613,80
463,02	1685,48
463,22	1673,19
463,43	1791,97
463,63	1705,96
463,83	1796,07
464,04	1675,24
464,24	1701,86
464,44	1689,57
464,64	1767,40
464,85	1781,73
465,05	1734,63
465,25	1705,96
465,46	1634,28
465,66	1837,03
465,86	1785,83
466,07	1718,25
466,27	1708,01
466,47	1613,80
466,68	1601,51
466,88	1775,59
467,08	1781,73
467,29	1798,12
467,49	1746,92
467,69	1710,05
467,89	1796,07
468,10	1605,61
468,30	1761,25
468,50	1820,64
468,71	1734,63
468,91	1630,18
469,11	1834,98
469,31	1769,44
469,52	1671,14
469,72	1802,21
469,92	1880,04
470,13	1687,53
470,33	1695,72
470,53	1843,17
470,73	2062,30
470,94	2289,63
471,14	2346,97
471,34	2562,01
471,54	2402,27
471,75	2222,05
471,95	2084,83
472,15	2058,21
472,36	2097,12
472,56	2199,52
472,76	1949,67
472,96	1992,67
473,17	1957,86
473,37	1873,89
473,57	1787,88
473,77	1820,64
473,98	1751,01
474,18	1652,71
474,38	1906,66
474,58	1691,62
474,79	1665,00
474,99	1771,49
475,19	1724,39
475,39	1601,51
475,60	1652,71
475,80	1753,06
476,00	1708,01
476,20	1662,95
476,41	1744,87
476,61	1796,07
476,81	1869,80
477,01	1732,58
477,21	1867,75
477,42	1757,16
477,62	1656,81
477,82	1703,91
478,02	1583,08
478,23	1783,78
478,43	1619,94
478,63	1677,29
478,83	1648,61
479,03	1712,10
479,24	1736,68
479,44	1861,60
479,64	1609,70
479,84	1636,33
480,04	1624,04
480,25	1771,49
480,45	1726,44
480,65	1671,14
480,85	1755,11
481,06	1718,25
481,26	1710,05
481,46	1722,34
481,66	1751,01
481,86	1607,66
482,06	1773,54
482,27	1665,00
482,47	1769,44
482,67	1755,11
482,87	1681,38
483,07	1697,77
483,28	1691,62
483,48	1681,38
483,68	1767,40
483,88	1677,29
484,08	1605,61
484,29	1595,37
484,49	1685,48
484,69	1685,48
484,89	1738,73
485,09	1779,68
485,29	1832,93
485,50	1738,73
485,70	1615,85
485,90	1804,26
486,10	1683,43
486,30	1734,63
486,50	1855,46
486,71	1708,01
486,91	1816,55
487,11	1787,88
487,31	1617,90
487,51	1724,39
487,71	1652,71
487,91	1589,22
488,12	1658,85
488,32	1574,89
488,52	1630,18
488,72	1703,91
488,92	1683,43
489,12	1681,38
489,32	1759,21
489,53	1708,01
489,73	1603,56
489,93	1789,92
490,13	1662,95
490,33	1656,81
490,53	1705,96
490,73	1845,22
490,94	1683,43
491,14	1662,95
491,34	1859,56
491,54	2060,26
491,74	2648,02
491,94	2936,79
492,14	3110,86
492,34	2838,48
492,54	2740,18
492,75	2449,37
492,95	2461,66
493,15	2260,96
493,35	2279,39
493,55	2267,10
493,75	2148,32
493,95	2111,46
494,15	1951,71
494,35	1877,99
494,56	1841,12
494,76	1781,73
494,96	1812,45
495,16	1808,36
495,36	1708,01
495,56	1665,00
495,76	1703,91
495,96	1667,05
496,16	1650,66
496,36	1789,92
496,56	1734,63
496,77	1693,67
496,97	1703,91
497,17	1779,68
497,37	1685,48
497,57	1820,64
497,77	1726,44
497,97	1673,19
498,17	1697,77
498,37	1697,77
498,57	1683,43
498,77	1705,96
498,97	1771,49
499,17	1855,46
499,38	1617,90
499,58	1767,40
499,78	1818,60
499,98	1783,78
500,18	1724,39
500,38	1679,33
500,58	1880,04
500,78	2512,86
500,98	4638,65
501,18	5959,59
501,38	6743,96
501,58	7128,98
501,78	6645,66
501,98	5656,49
502,18	5027,76
502,38	4417,47
502,58	4257,73
502,78	3770,31
502,98	3686,34
503,18	3442,64
503,38	3270,61
503,59	2840,53
503,79	2633,69
503,99	2504,67
504,19	2203,61
504,39	2160,61
504,59	2176,99
504,79	2052,06
504,99	2193,37
505,19	1916,90
505,39	1882,08
505,59	1972,19
505,79	1898,47
505,99	1896,42
506,19	1775,59
506,39	1877,99
506,59	1718,25
506,79	1759,21
506,99	1751,01
507,19	1724,39
507,39	1736,68
507,59	1669,09
507,79	1699,81
507,99	1597,42
508,19	1742,82
508,39	1728,49
508,59	1669,09
508,79	1773,54
508,99	1847,27
509,19	1669,09
509,39	1748,97
509,59	1705,96
509,79	1669,09
509,99	1767,40
510,19	1767,40
510,39	1710,05
510,59	1605,61
510,79	1695,72
510,99	1677,29
511,19	1732,58
511,39	1849,32
511,59	1738,73
511,79	1791,97
511,99	1779,68
512,19	1812,45
512,38	1789,92
512,58	1615,85
512,78	1693,67
512,98	1837,03
513,18	1886,18
513,38	1665,00
513,58	1818,60
513,78	1705,96
513,98	1738,73
514,18	1783,78
514,38	1654,76
514,58	1781,73
514,78	1718,25
514,98	1695,72
515,18	1710,05
515,38	1665,00
515,58	1888,23
515,78	1787,88
515,98	1699,81
516,18	1748,97
516,38	1734,63
516,57	1722,34
516,77	1652,71
516,97	1705,96
517,17	1658,85
517,37	1626,09
517,57	1789,92
517,77	1732,58
517,97	1728,49
518,17	1808,36
518,37	1718,25
518,57	1697,77
518,77	1705,96
518,97	1675,24
519,16	1732,58
519,36	1740,77
519,56	1726,44
519,76	1808,36
519,96	1808,36
520,16	1818,60
520,36	1710,05
520,56	1751,01
520,76	1757,16
520,96	1687,53
521,16	1769,44
521,35	1808,36
521,55	1800,16
521,75	1701,86
521,95	1638,38
522,15	1679,33
522,35	1644,52
522,55	1691,62
522,75	1759,21
522,95	1673,19
523,14	1779,68
523,34	1837,03
523,54	1656,81
523,74	1748,97
523,94	1822,69
524,14	1658,85
524,34	1763,30
524,54	1791,97
524,73	1703,91
524,93	1728,49
525,13	1757,16
525,33	1638,38
525,53	1853,41
525,73	1783,78
525,93	1736,68
526,13	1728,49
526,32	1650,66
526,52	1738,73
526,72	1771,49
526,92	1753,06
527,12	1697,77
527,32	1681,38
527,52	1718,25
527,71	1761,25
527,91	1738,73
528,11	1710,05
528,31	1697,77
528,51	1640,42
528,71	1806,31
528,90	1732,58
529,10	1839,08
529,30	1771,49
529,50	1603,56
529,70	1746,92
529,90	1689,57
530,09	1767,40
530,29	1638,38
530,49	1724,39
530,69	1877,99
530,89	1695,72
531,09	1787,88
531,28	1728,49
531,48	1796,07
531,68	1669,09
531,88	1816,55
532,08	1773,54
532,28	1699,81
532,47	1777,64
532,67	1806,31
532,87	1755,11
533,07	1703,91
533,27	1767,40
533,46	1773,54
533,66	1671,14
533,86	1736,68
534,06	1716,20
534,26	1710,05
534,45	1746,92
534,65	1787,88
534,85	1812,45
535,05	1665,00
535,25	1820,64
535,44	1748,97
535,64	1783,78
535,84	1685,48
536,04	1714,15
536,24	1656,81
536,43	1658,85
536,63	1734,63
536,83	1689,57
537,03	1781,73
537,22	1599,46
537,42	1581,03
537,62	1734,63
537,82	1753,06
538,02	1769,44
538,21	1783,78
538,41	1947,62
538,61	1716,20
538,81	1644,52
539,00	1791,97
539,20	1679,33
539,40	1617,90
539,60	1732,58
539,79	1720,29
539,99	1677,29
540,19	1765,35
540,39	1746,92
540,58	1746,92
540,78	1757,16
540,98	1724,39
541,18	1789,92
541,37	1802,21
541,57	1722,34
541,77	1734,63
541,97	1697,77
542,16	1572,84
542,36	1685,48
542,56	1669,09
542,76	1847,27
542,95	1744,87
543,15	1781,73
543,35	1755,11
543,54	1726,44
543,74	1677,29
543,94	1763,30
544,14	1679,33
544,33	1755,11
544,53	1638,38
544,73	1712,10
544,93	1716,20
545,12	1736,68
545,32	1675,24
545,52	1687,53
545,71	1644,52
545,91	1783,78
546,11	1626,09
546,30	1652,71
546,50	1697,77
546,70	1791,97
546,90	1802,21
547,09	1617,90
547,29	1718,25
547,49	1757,16
547,68	1748,97
547,88	1683,43
548,08	1794,02
548,27	2242,53
548,47	1755,11
548,67	1703,91
548,87	1763,30
549,06	1732,58
549,26	1724,39
549,46	1693,67
549,65	1697,77
549,85	1716,20
550,05	1757,16
550,24	1689,57
550,44	1751,01
550,64	1691,62
550,83	1716,20
551,03	1822,69
551,23	1763,30
551,42	1765,35
551,62	1746,92
551,82	1722,34
552,01	1714,15
552,21	1855,46
552,41	1634,28
552,60	1826,79
552,80	1730,53
553,00	1626,09
553,19	1705,96
553,39	1816,55
553,59	1689,57
553,78	1789,92
553,98	1734,63
554,17	1617,90
554,37	1820,64
554,57	1796,07
554,76	1665,00
554,96	1650,66
555,16	1638,38
555,35	1710,05
555,55	1710,05
555,75	1751,01
555,94	1744,87
556,14	1578,98
556,33	1757,16
556,53	1779,68
556,73	1730,53
556,92	1771,49
557,12	1748,97
557,32	1837,03
557,51	1806,31
557,71	1783,78
557,90	1810,40
558,10	1779,68
558,30	1769,44
558,49	1732,58
558,69	1693,67
558,88	1812,45
559,08	1675,24
559,28	1710,05
559,47	1662,95
559,67	1669,09
559,86	1812,45
560,06	1689,57
560,26	1671,14
560,45	1654,76
560,65	1748,97
560,84	1834,98
561,04	1763,30
561,24	1724,39
561,43	1693,67
561,63	1869,80
561,82	1796,07
562,02	1714,15
562,22	1771,49
562,41	1687,53
562,61	1789,92
562,80	1574,89
563,00	1871,84
563,19	1671,14
563,39	1771,49
563,59	1712,10
563,78	1705,96
563,98	1611,75
564,17	1701,86
564,37	1650,66
564,56	1701,86
564,76	1642,47
564,96	1859,56
565,15	1665,00
565,35	1906,66
565,54	1712,10
565,74	1775,59
565,93	1748,97
566,13	1806,31
566,32	1746,92
566,52	1765,35
566,71	1740,77
566,91	1761,25
567,11	1722,34
567,30	1693,67
567,50	1687,53
567,69	1781,73
567,89	1667,05
568,08	1687,53
568,28	1726,44
568,47	1751,01
568,67	1806,31
568,86	1691,62
569,06	1830,88
569,25	1761,25
569,45	1628,14
569,64	1742,82
569,84	1728,49
570,04	1751,01
570,23	1658,85
570,43	1724,39
570,62	1820,64
570,82	1839,08
571,01	1695,72
571,21	1675,24
571,40	1654,76
571,60	1716,20
571,79	1751,01
571,99	1742,82
572,18	1734,63
572,38	1740,77
572,57	1722,34
572,77	1773,54
572,96	1877,99
573,16	1718,25
573,35	1691,62
573,55	1853,41
573,74	1753,06
573,94	1755,11
574,13	1665,00
574,33	1697,77
574,52	1834,98
574,71	1771,49
574,91	1740,77
575,10	1695,72
575,30	1769,44
575,49	1712,10
575,69	1726,44
575,88	1738,73
576,08	1697,77
576,27	1837,03
576,47	1746,92
576,66	1861,60
576,86	1767,40
577,05	1695,72
577,25	1775,59
577,44	1763,30
577,64	1658,85
577,83	1755,11
578,02	1746,92
578,22	1843,17
578,41	1753,06
578,61	1757,16
578,80	1636,33
579,00	1755,11
579,19	1662,95
579,39	1802,21
579,58	1699,81
579,77	1705,96
579,97	1849,32
580,16	1859,56
580,36	1822,69
580,55	1810,40
580,75	1783,78
580,94	1767,40
581,13	1820,64
581,33	1777,64
581,52	1621,99
581,72	1845,22
581,91	1834,98
582,11	1751,01
582,30	1826,79
582,49	1769,44
582,69	1775,59
582,88	1738,73
583,08	1810,40
583,27	1796,07
583,47	1775,59
583,66	1712,10
583,85	1767,40
584,05	1765,35
584,24	1771,49
584,44	1701,86
584,63	1841,12
584,82	1814,50
585,02	1777,64
585,21	1859,56
585,41	1771,49
585,60	1820,64
585,79	1900,52
585,99	1888,23
586,18	1853,41
586,37	2215,90
586,57	3383,24
586,76	10057,57
586,96	24829,57
587,15	35028,46
587,34	41164,17
587,54	43099,50
587,73	37219,78
587,93	26885,73
588,12	21841,59
588,31	18642,66
588,51	16541,44
588,70	15505,17
588,89	14374,69
589,09	12930,87
589,28	11263,83
589,47	9590,64
589,67	8251,27
589,86	6668,19
590,06	4884,41
590,25	3987,40
590,44	3065,81
590,64	2549,72
590,83	2291,68
591,02	2078,69
591,22	1951,71
591,41	1912,80
591,60	1826,79
591,80	2015,20
591,99	1730,53
592,18	1761,25
592,38	1779,68
592,57	1728,49
592,76	1722,34
592,96	1736,68
593,15	1738,73
593,34	1798,12
593,54	1759,21
593,73	1767,40
593,92	1798,12
594,12	1765,35
594,31	1748,97
594,50	1841,12
594,70	1771,49
594,89	1834,98
595,08	1714,15
595,28	1771,49
595,47	1853,41
595,66	1708,01
595,86	1660,90
596,05	1769,44
596,24	1722,34
596,43	1759,21
596,63	1751,01
596,82	1720,29
597,01	1714,15
597,21	1808,36
597,40	1804,26
597,59	1720,29
597,79	1710,05
597,98	1718,25
598,17	1751,01
598,36	1771,49
598,56	1720,29
598,75	1714,15
598,94	1687,53
599,14	1695,72
599,33	1679,33
599,52	1828,84
599,71	1777,64
599,91	1814,50
600,10	1697,77
600,29	1652,71
600,48	1761,25
600,68	1771,49
600,87	1730,53
601,06	1808,36
601,26	1789,92
601,45	1759,21
601,64	1714,15
601,83	1738,73
602,03	1638,38
602,22	1681,38
602,41	1837,03
602,60	1859,56
602,80	1839,08
602,99	1718,25
603,18	1705,96
603,37	1798,12
603,57	1767,40
603,76	1771,49
603,95	1771,49
604,14	1757,16
604,34	1687,53
604,53	1683,43
604,72	1732,58
604,91	1765,35
605,10	1826,79
605,30	1673,19
605,49	1843,17
605,68	1730,53
605,87	1761,25
606,07	1654,76
606,26	1734,63
606,45	1722,34
606,64	1771,49
606,84	1667,05
607,03	1751,01
607,22	1732,58
607,41	1658,85
607,60	1728,49
607,80	1818,60
607,99	1730,53
608,18	1585,13
608,37	1761,25
608,56	1652,71
608,76	1787,88
608,95	1886,18
609,14	1742,82
609,33	1714,15
609,52	1732,58
609,72	1701,86
609,91	1615,85
610,10	1740,77
610,29	1796,07
610,48	1708,01
610,68	1726,44
610,87	1669,09
611,06	1779,68
611,25	1791,97
611,44	1761,25
611,63	1650,66
611,83	1757,16
612,02	1724,39
612,21	1814,50
612,40	1607,66
612,59	1695,72
612,79	1656,81
612,98	1683,43
613,17	1783,78
613,36	1689,57
613,55	1812,45
613,74	1656,81
613,93	1708,01
614,13	1716,20
614,32	1744,87
614,51	1771,49
614,70	1712,10
614,89	1681,38
615,08	1687,53
615,28	2021,35
615,47	1646,57
615,66	1699,81
615,85	1681,38
616,04	1812,45
616,23	1677,29
616,42	1648,61
616,62	1632,23
616,81	1755,11
617,00	1681,38
617,19	1796,07
617,38	1679,33
617,57	1755,11
617,76	1665,00
617,95	1718,25
618,15	1708,01
618,34	1839,08
618,53	1660,90
618,72	1691,62
618,91	1779,68
619,10	1832,93
619,29	1730,53
619,48	1708,01
619,68	1640,42
619,87	1714,15
620,06	1662,95
620,25	1697,77
620,44	1718,25
620,63	1730,53
620,82	1708,01
621,01	1728,49
621,20	1769,44
621,39	1738,73
621,59	1689,57
621,78	1736,68
621,97	1685,48
622,16	1785,83
622,35	1722,34
622,54	1736,68
622,73	1779,68
622,92	1656,81
623,11	1671,14
623,30	1763,30
623,49	1771,49
623,68	1718,25
623,88	1785,83
624,07	1718,25
624,26	1726,44
624,45	1720,29
624,64	1708,01
624,83	1748,97
625,02	1619,94
625,21	1607,66
625,40	1757,16
625,59	1804,26
625,78	1748,97
625,97	1806,31
626,16	1755,11
626,35	1689,57
626,54	1732,58
626,74	1751,01
626,93	1671,14
627,12	1642,47
627,31	1763,30
627,50	1730,53
627,69	1757,16
627,88	1673,19
628,07	1746,92
628,26	1632,23
628,45	1671,14
628,64	1492,97
628,83	1740,77
629,02	1621,99
629,21	1728,49
629,40	1679,33
629,59	1615,85
629,78	1693,67
629,97	1691,62
630,16	1773,54
630,35	1683,43
630,54	1685,48
630,73	1632,23
630,92	1730,53
631,11	1615,85
631,30	1701,86
631,49	1777,64
631,68	1675,24
631,87	1632,23
632,06	1628,14
632,25	1906,66
632,44	1775,59
632,63	1738,73
632,82	1683,43
633,01	1658,85
633,20	1654,76
633,39	1654,76
633,58	1568,74
633,77	1716,20
633,96	1744,87
634,15	1800,16
634,34	1714,15
634,53	1724,39
634,72	1753,06
634,91	1650,66
635,10	1763,30
635,29	1751,01
635,48	1712,10
635,67	1652,71
635,86	1617,90
636,05	1671,14
636,24	1693,67
636,43	1708,01
636,62	1699,81
636,81	1552,36
637,00	1656,81
637,19	1662,95
637,38	1679,33
637,57	1671,14
637,76	1609,70
637,95	1673,19
638,14	1708,01
638,33	1693,67
638,52	1681,38
638,71	1671,14
638,89	1656,81
639,08	1849,32
639,27	1693,67
639,46	1722,34
639,65	1812,45
639,84	1701,86
640,03	1705,96
640,22	1732,58
640,41	1755,11
640,60	1724,39
640,79	1646,57
640,98	1691,62
641,17	1722,34
641,36	1718,25
641,55	1771,49
641,74	1644,52
641,92	1718,25
642,11	1634,28
642,30	1679,33
642,49	1630,18
642,68	1673,19
642,87	1726,44
643,06	1691,62
643,25	1677,29
643,44	1724,39
643,63	1626,09
643,82	1755,11
644,00	1740,77
644,19	1722,34
644,38	1705,96
644,57	1695,72
644,76	1617,90
644,95	1736,68
645,14	1691,62
645,33	1578,98
645,52	1744,87
645,71	1568,74
645,89	1693,67
646,08	1703,91
646,27	1699,81
646,46	1861,60
646,65	1609,70
646,84	1638,38
647,03	1710,05
647,22	1769,44
647,40	1742,82
647,59	1677,29
647,78	1656,81
647,97	1708,01
648,16	1628,14
648,35	1765,35
648,54	1726,44
648,73	1685,48
648,91	1761,25
649,10	1675,24
649,29	1654,76
649,48	1693,67
649,67	1640,42
649,86	1640,42
650,05	1673,19
650,23	1751,01
650,42	1654,76
650,61	1751,01
650,80	1742,82
650,99	1804,26
651,18	1708,01
651,36	1763,30
651,55	1665,00
651,74	1716,20
651,93	1763,30
652,12	1679,33
652,31	1671,14
652,49	1712,10
652,68	1697,77
652,87	1832,93
653,06	1722,34
653,25	1806,31
653,44	1708,01
653,62	1796,07
653,81	1722,34
654,00	1720,29
654,19	1716,20
654,38	1863,65
654,56	1722,34
654,75	1689,57
654,94	1740,77
655,13	1673,19
655,32	1746,92
655,51	1748,97
655,69	1636,33
655,88	1781,73
656,07	1708,01
656,26	1701,86
656,45	1626,09
656,63	1804,26
656,82	1734,63
657,01	1769,44
657,20	1708,01
657,38	1802,21
657,57	1671,14
657,76	1644,52
657,95	1736,68
658,14	1740,77
658,32	1744,87
658,51	1615,85
658,70	1675,24
658,89	1730,53
659,08	1736,68
659,26	1808,36
659,45	1624,04
659,64	1714,15
659,83	1585,13
660,01	1912,80
660,20	1722,34
660,39	1759,21
660,58	1544,17
660,76	1710,05
660,95	1658,85
661,14	1751,01
661,33	1669,09
661,51	1648,61
661,70	1738,73
661,89	1759,21
662,08	1730,53
662,26	1667,05
662,45	1648,61
662,64	1800,16
662,83	1742,82
663,01	1677,29
663,20	1626,09
663,39	1880,04
663,58	1708,01
663,76	1712,10
663,95	1738,73
664,14	1695,72
664,32	1681,38
664,51	1626,09
664,70	1662,95
664,89	1746,92
665,07	1585,13
665,26	1800,16
665,45	1677,29
665,64	1751,01
665,82	1671,14
666,01	1755,11
666,20	1714,15
666,38	1777,64
666,57	1722,34
666,76	2207,71
666,95	4476,86
667,13	10393,44
667,32	15470,36
667,51	18114,28
667,69	19367,64
667,88	17940,21
668,07	12494,66
668,25	9744,24
668,44	8099,72
668,63	7405,46
668,81	6813,59
669,00	6424,48
669,19	5597,10
669,38	5296,05
669,56	4544,44
669,75	3942,34
669,94	3426,25
670,12	2963,41
670,31	2629,59
670,50	2234,33
670,68	2090,98
670,87	1974,24
671,06	1849,32
671,24	1787,88
671,43	1800,16
671,62	1681,38
671,80	1642,47
671,99	1769,44
672,18	1730,53
672,36	1697,77
672,55	1667,05
672,74	1734,63
672,92	1718,25
673,11	1656,81
673,29	1681,38
673,48	1785,83
673,67	1658,85
673,85	1843,17
674,04	1699,81
674,23	1634,28
674,41	1763,30
674,60	1632,23
674,79	1667,05
674,97	1673,19
675,16	1720,29
675,34	1746,92
675,53	1640,42
675,72	1730,53
675,90	1800,16
676,09	1746,92
676,28	1665,00
676,46	1658,85
676,65	1689,57
676,83	1705,96
677,02	1699,81
677,21	1697,77
677,39	1748,97
677,58	1722,34
677,77	1621,99
677,95	1576,94
678,14	1710,05
678,32	1703,91
678,51	1634,28
678,70	1882,08
678,88	1693,67
679,07	1742,82
679,25	1687,53
679,44	1728,49
679,63	1652,71
679,81	1689,57
680,00	1796,07
680,18	1724,39
680,37	1808,36
680,55	1671,14
680,74	1581,03
680,93	1634,28
681,11	1665,00
681,30	1720,29
681,48	1691,62
681,67	1689,57
681,85	1771,49
682,04	1656,81
682,23	1687,53
682,41	1691,62
682,60	1712,10
682,78	1734,63
682,97	1638,38
683,15	1734,63
683,34	1744,87
683,53	1710,05
683,71	1675,24
683,90	1746,92
684,08	1779,68
684,27	1611,75
684,45	1789,92
684,64	1800,16
684,82	1748,97
685,01	1693,67
685,19	1712,10
685,38	1783,78
685,57	1673,19
685,75	1667,05
685,94	1642,47
686,12	1703,91
686,31	1648,61
686,49	1839,08
686,68	1605,61
686,86	1761,25
687,05	1679,33
687,23	1746,92
687,42	1599,46
687,60	1660,90
687,79	1689,57
687,97	1791,97
688,16	1697,77
688,34	1748,97
688,53	1570,79
688,71	1699,81
688,90	1705,96
689,08	1689,57
689,27	1650,66
689,45	1699,81
689,64	1712,10
689,82	1693,67
690,01	1646,57
690,19	1685,48
690,38	1699,81
690,56	1685,48
690,75	1697,77
690,93	1626,09
691,12	1665,00
691,30	1697,77
691,49	1650,66
691,67	1734,63
691,86	1771,49
692,04	1705,96
692,23	1652,71
692,41	1736,68
692,60	1796,07
692,78	1691,62
692,97	1730,53
693,15	1724,39
693,34	1847,27
693,52	1755,11
693,71	1671,14
693,89	1675,24
694,08	1632,23
694,26	1755,11
694,44	1808,36
694,63	1675,24
694,81	1685,48
695,00	1673,19
695,18	1769,44
695,37	1791,97
695,55	1689,57
695,74	1669,09
695,92	1718,25
696,10	1740,77
696,29	1656,81
696,47	1681,38
696,66	1665,00
696,84	1671,14
697,03	1730,53
697,21	1787,88
697,40	2353,12
697,58	1820,64
697,76	1673,19
697,95	1644,52
698,13	1640,42
698,32	1658,85
698,50	1705,96
698,68	1763,30
698,87	1718,25
699,05	1812,45
699,24	1734,63
699,42	1650,66
699,61	1644,52
699,79	1714,15
699,97	1685,48
700,16	1658,85
700,34	1640,42
700,53	1738,73
700,71	1816,55
700,89	1740,77
701,08	1748,97
701,26	1689,57
701,45	2121,70
701,63	1595,37
701,81	1732,58
702,00	1697,77
702,18	1728,49
702,37	1578,98
702,55	1804,26
702,73	1722,34
702,92	1603,56
703,10	1730,53
703,28	1685,48
703,47	1630,18
703,65	1722,34
703,84	1744,87
704,02	1679,33
704,20	1812,45
704,39	1710,05
704,57	1640,42
704,75	1775,59
704,94	1710,05
705,12	1716,20
705,30	1746,92
705,49	2199,52
705,67	4433,85
705,86	9447,28
706,04	12658,49
706,22	14876,44
706,41	15556,37
706,59	13973,29
706,77	9817,96
706,96	7532,43
707,14	6692,76
707,32	6012,84
707,51	5754,79
707,69	4818,87
707,87	4278,21
708,06	3538,89
708,24	3063,76
708,42	2453,47
708,61	2260,96
708,79	1894,37
708,97	1812,45
709,16	1834,98
709,34	1826,79
709,52	1628,14
709,71	1773,54
709,89	1689,57
710,07	1638,38
710,26	1576,94
710,44	1724,39
710,62	1722,34
710,80	1638,38
710,99	1759,21
711,17	1742,82
711,35	1646,57
711,54	1681,38
711,72	1728,49
711,90	1671,14
712,09	1685,48
712,27	1665,00
712,45	1712,10
712,63	1636,33
712,82	1656,81
713,00	1714,15
713,18	1726,44
713,37	1716,20
713,55	1693,67
713,73	1748,97
713,91	1677,29
714,10	1673,19
714,28	1732,58
714,46	1681,38
714,65	1714,15
714,83	1796,07
715,01	1767,40
715,19	1675,24
715,38	1660,90
715,56	1728,49
715,74	1679,33
715,92	1681,38
716,11	1765,35
716,29	1519,59
716,47	1726,44
716,65	1642,47
716,84	1568,74
717,02	1771,49
717,20	1658,85
717,38	1644,52
717,57	1748,97
717,75	1742,82
717,93	1689,57
718,11	1732,58
718,30	1646,57
718,48	1691,62
718,66	1722,34
718,84	1689,57
719,03	1576,94
719,21	1630,18
719,39	1796,07
719,57	1744,87
719,75	1714,15
719,94	1744,87
720,12	1685,48
720,30	1730,53
720,48	1728,49
720,67	1669,09
720,85	1609,70
721,03	1679,33
721,21	1624,04
721,39	1781,73
721,58	1669,09
721,76	1720,29
721,94	1718,25
722,12	1710,05
722,30	1728,49
722,49	1748,97
722,67	1630,18
722,85	1740,77
723,03	1624,04
723,21	1660,90
723,40	1701,86
723,58	1648,61
723,76	1699,81
723,94	1705,96
724,12	1685,48
724,30	1812,45
724,49	1722,34
724,67	1640,42
724,85	1800,16
725,03	1599,46
725,21	1718,25
725,40	1800,16
725,58	1658,85
725,76	1828,84
725,94	1757,16
726,12	1650,66
726,30	1703,91
726,49	1669,09
726,67	1636,33
726,85	1703,91
727,03	1751,01
727,21	2119,65
727,39	2891,73
727,57	3807,17
727,76	4184,00
727,94	4564,92
728,12	4368,32
728,30	3631,05
728,48	3045,33
728,66	2678,74
728,84	2553,82
729,03	2340,83
729,21	2164,70
729,39	1992,67
729,57	1890,28
729,75	1798,12
729,93	1734,63
730,11	1763,30
730,30	1652,71
730,48	1726,44
730,66	1783,78
730,84	1818,60
731,02	1662,95
731,20	1722,34
731,38	1703,91
731,56	1710,05
731,74	1673,19
731,93	1710,05
732,11	1720,29
732,29	1712,10
732,47	1759,21
732,65	1732,58
732,83	1820,64
733,01	1751,01
733,19	1609,70
733,37	1720,29
733,56	1681,38
733,74	1656,81
733,92	1732,58
734,10	1679,33
734,28	1773,54
734,46	1595,37
734,64	1648,61
734,82	1683,43
735,00	1665,00
735,18	1656,81
735,36	1601,51
735,54	1736,68
735,73	1673,19
735,91	1701,86
736,09	1802,21
736,27	1665,00
736,45	1683,43
736,63	1650,66
736,81	1726,44
736,99	1730,53
737,17	1718,25
737,35	1701,86
737,53	1710,05
737,71	1648,61
737,89	1830,88
738,07	1757,16
738,25	1716,20
738,43	1630,18
738,61	1658,85
738,80	1673,19
738,98	1654,76
739,16	1669,09
739,34	1648,61
739,52	1828,84
739,70	1574,89
739,88	1748,97
740,06	1732,58
740,24	1548,26
740,42	1716,20
740,60	1599,46
740,78	1576,94
740,96	1632,23
741,14	1724,39
741,32	1720,29
741,50	1619,94
741,68	1841,12
741,86	1832,93
742,04	1681,38
742,22	1669,09
742,40	1753,06
742,58	1726,44
742,76	1624,04
742,94	1724,39
743,12	1624,04
743,30	1652,71
743,48	1708,01
743,66	1619,94
743,84	1677,29
744,02	1746,92
744,20	1673,19
744,38	1648,61
744,56	1705,96
744,74	1794,02
744,92	1742,82
745,10	1710,05
745,28	1765,35
745,46	1767,40
745,64	1740,77
745,82	1822,69
746,00	1714,15
746,18	1687,53
746,36	1628,14
746,54	1693,67
746,72	1689,57
746,90	1656,81
747,08	1738,73
747,26	1607,66
747,44	1683,43
747,62	1662,95
747,80	1751,01
747,98	1714,15
748,15	1662,95
748,33	1777,64
748,51	1632,23
748,69	1742,82
748,87	1560,55
749,05	1679,33
749,23	1712,10
749,41	1744,87
749,59	1740,77
749,77	1726,44
749,95	1619,94
750,13	1679,33
750,31	1728,49
750,49	1720,29
750,67	1708,01
750,85	1787,88
751,03	1675,24
751,20	1791,97
751,38	1683,43
751,56	1691,62
751,74	1679,33
751,92	1681,38
752,10	1660,90
752,28	1746,92
752,46	1607,66
752,64	1687,53
752,82	1701,86
753,00	1767,40
753,18	1613,80
753,35	1628,14
753,53	1705,96
753,71	1607,66
753,89	1685,48
754,07	1671,14
754,25	1689,57
754,43	1667,05
754,61	1683,43
754,79	1722,34
754,97	1699,81
755,14	1728,49
755,32	1642,47
755,50	1705,96
755,68	1701,86
755,86	1710,05
756,04	1626,09
756,22	1615,85
756,40	1748,97
756,57	1849,32
756,75	1730,53
756,93	1703,91
757,11	1746,92
757,29	1624,04
757,47	1662,95
757,65	1581,03
757,82	1601,51
758,00	1656,81
758,18	1644,52
758,36	1589,22
758,54	1808,36
758,72	1552,36
758,90	1808,36
759,07	1621,99
759,25	1671,14
759,43	1775,59
759,61	1705,96
759,79	2115,55
759,97	1740,77
760,15	1640,42
760,32	1691,62
760,50	1755,11
760,68	1775,59
760,86	1644,52
761,04	1767,40
761,22	1665,00
761,39	1691,62
761,57	1726,44
761,75	1660,90
761,93	1652,71
762,11	1714,15
762,28	1736,68
762,46	1607,66
762,64	1794,02
762,82	1599,46
763,00	1708,01
763,18	1701,86
763,35	1640,42
763,53	1712,10
763,71	1722,34
763,89	1667,05
764,07	1705,96
764,24	1665,00
764,42	1724,39
764,60	1660,90
764,78	1710,05
764,96	1691,62
765,13	1671,14
765,31	1683,43
765,49	1726,44
765,67	1572,84
765,84	1691,62
766,02	1599,46
766,20	1673,19
766,38	1656,81
766,56	1679,33
766,73	1726,44
766,91	1636,33
767,09	1665,00
767,27	1751,01
767,44	1691,62
767,62	1701,86
767,80	1781,73
767,98	1669,09
768,15	1681,38
768,33	1789,92
768,51	1683,43
768,69	1708,01
768,87	1748,97
769,04	1617,90
769,22	1828,84
769,40	1751,01
769,58	1783,78
769,75	1697,77
769,93	1765,35
770,11	1712,10
770,28	1624,04
770,46	1730,53
770,64	1716,20
770,82	1687,53
770,99	1656,81
771,17	1730,53
771,35	1650,66
771,53	1724,39
771,70	1693,67
771,88	1679,33
772,06	1732,58
772,23	1679,33
772,41	1775,59
772,59	1714,15
772,77	1681,38
772,94	1609,70
773,12	1683,43
773,30	1697,77
773,47	1742,82
773,65	1691,62
773,83	1740,77
774,01	1712,10
774,18	1619,94
774,36	1654,76
774,54	1615,85
774,71	1705,96
774,89	1566,70
775,07	1624,04
775,24	1681,38
775,42	1708,01
775,60	1787,88
775,78	1609,70
775,95	1615,85
776,13	1576,94
776,31	1576,94
776,48	1714,15
776,66	1796,07
776,84	1730,53
777,01	1671,14
777,19	1677,29
777,37	1673,19
777,54	1791,97
777,72	1839,08
777,90	1632,23
778,07	1632,23
778,25	1886,18
778,43	1755,11
778,60	1609,70
778,78	1705,96
778,96	1767,40
779,13	1632,23
779,31	1812,45
779,49	1601,51
779,66	1652,71
779,84	1746,92
780,01	1658,85
780,19	1689,57
780,37	1730,53
780,54	1726,44
780,72	1644,52
780,90	1669,09
781,07	1679,33
781,25	1636,33
781,43	1767,40
781,60	1648,61
781,78	1695,72
781,95	1757,16
782,13	1634,28
782,31	1753,06
782,48	1554,41
782,66	1736,68
782,83	1714,15
783,01	1646,57
783,19	1705,96
783,36	1665,00
783,54	1658,85
783,72	1730,53
783,89	1658,85
784,07	1710,05
784,24	1722,34
784,42	1761,25
784,60	1701,86
784,77	1714,15
784,95	1566,70
785,12	1662,95
785,30	1648,61
785,47	1687,53
785,65	1646,57
785,83	1710,05
786,00	1609,70
786,18	1710,05
786,35	1601,51
786,53	1593,32
786,71	1695,72
786,88	1665,00
787,06	1705,96
787,23	1634,28
787,41	1654,76
787,58	1701,86
787,76	1615,85
787,94	1705,96
788,11	1734,63
788,29	1613,80
788,46	1695,72
788,64	1595,37
788,81	1759,21
788,99	1708,01
789,16	1538,02
789,34	1693,67
789,52	1638,38
789,69	1681,38
789,87	1605,61
790,04	1712,10
790,22	1722,34
790,39	1824,74
790,57	1640,42
790,74	1683,43
790,92	1771,49
791,09	1576,94
791,27	1722,34
791,44	1746,92
791,62	1669,09
791,79	1796,07
791,97	1681,38
792,15	1834,98
792,32	1675,24
792,50	1785,83
792,67	1734,63
792,85	1773,54
793,02	1742,82
793,20	1718,25
793,37	1589,22
793,55	1691,62
793,72	1566,70
793,90	1730,53
794,07	1697,77
794,25	1665,00
794,42	1677,29
794,60	1691,62
794,77	1705,96
794,95	1810,40
795,12	1708,01
795,30	1644,52
795,47	1609,70
795,65	1822,69
795,82	1714,15
796,00	1599,46
796,17	1642,47
796,34	1601,51
796,52	1662,95
796,69	1687,53
796,87	1722,34
797,04	1699,81
797,22	1683,43
797,39	1667,05
797,57	1787,88
797,74	1640,42
797,92	1781,73
798,09	1708,01
798,27	1755,11
798,44	1642,47
798,62	1615,85
798,79	1675,24
798,96	1708,01
799,14	1671,14
799,31	1832,93
799,49	1662,95
799,66	1646,57
799,84	1671,14
800,01	1675,24
800,19	1662,95
800,36	1650,66
800,53	1746,92
800,71	1740,77
800,88	1738,73
801,06	1705,96
801,23	1671,14
801,41	1630,18
801,58	1677,29
801,75	1589,22
801,93	1681,38
802,10	1767,40
802,28	1722,34
802,45	1701,86
802,63	1746,92
802,80	1744,87
802,97	1679,33
803,15	1679,33
803,32	1720,29
803,50	1611,75
803,67	1726,44
803,84	1646,57
804,02	1726,44
804,19	1710,05
804,37	1574,89
804,54	1619,94
804,71	1619,94
804,89	1699,81
805,06	1708,01
805,24	1662,95
805,41	1609,70
805,58	1677,29
805,76	1875,94
805,93	1738,73
806,10	1849,32
806,28	1681,38
806,45	1712,10
806,63	1761,25
806,80	1687,53
806,97	1734,63
807,15	1712,10
807,32	1744,87
807,49	1697,77
807,67	1619,94
807,84	1755,11
808,01	1632,23
808,19	1806,31
808,36	1736,68
808,54	1708,01
808,71	1621,99
808,88	1712,10
809,06	1665,00
809,23	1724,39
809,40	1556,46
809,58	1785,83
809,75	1669,09
809,92	1689,57
810,10	1871,84
810,27	1748,97
810,44	1718,25
810,62	1701,86
810,79	1710,05
810,96	1658,85
811,14	1630,18
811,31	1740,77
811,48	1730,53
811,66	1607,66
811,83	1710,05
812,00	1712,10
812,18	1593,32
812,35	1763,30
812,52	1648,61
812,69	1644,52
812,87	1685,48
813,04	1636,33
813,21	1705,96
813,39	1665,00
813,56	1607,66
813,73	1771,49
813,91	1599,46
814,08	1740,77
814,25	1740,77
814,42	1583,08
814,60	1714,15
814,77	1697,77
814,94	1693,67
815,12	1660,90
815,29	1746,92
815,46	1585,13
815,63	1658,85
815,81	1673,19
815,98	1697,77
816,15	1699,81
816,33	1751,01
816,50	1689,57
816,67	1689,57
816,84	1673,19
817,02	1564,65
817,19	1636,33
817,36	1660,90
817,53	1720,29
817,71	1597,42
817,88	1722,34
818,05	1658,85
818,22	1613,80
818,40	1775,59
818,57	1697,77
818,74	1681,38
818,91	1560,55
819,09	1689,57
819,26	1759,21
819,43	1720,29
819,60	1652,71
819,78	1742,82
819,95	1804,26
820,12	1628,14
820,29	1767,40
820,47	1726,44
820,64	1677,29
820,81	1562,60
820,98	1662,95
821,15	1718,25
821,33	1728,49
821,50	1671,14
821,67	1675,24
821,84	1705,96
822,02	1605,61
822,19	1712,10
822,36	1626,09
822,53	1654,76
822,70	1562,60
822,88	1648,61
823,05	1742,82
823,22	1701,86
823,39	1634,28
823,56	1675,24
823,74	1738,73
823,91	1611,75
824,08	1640,42
824,25	1642,47
824,42	1802,21
824,60	1603,56
824,77	1703,91
824,94	1628,14
825,11	1753,06
825,28	1611,75
825,45	1775,59
825,63	1667,05
825,80	1695,72
825,97	1730,53
826,14	1560,55
826,31	1617,90
826,48	1751,01
826,66	1621,99
826,83	1714,15
827,00	1718,25
827,17	1595,37
827,34	1619,94
827,51	1644,52
827,69	1662,95
827,86	1535,98
828,03	1595,37
828,20	1693,67
828,37	1689,57
828,54	1599,46
828,71	1734,63
828,89	1753,06
829,06	1677,29
829,23	1769,44
829,40	1648,61
829,57	1683,43
829,74	1685,48
829,91	1599,46
830,09	1626,09
830,26	1671,14
830,43	1705,96
830,60	1671,14
830,77	1701,86
830,94	1861,60
831,11	1728,49
831,28	1609,70
831,46	1701,86
831,63	1662,95
831,80	1710,05
831,97	1587,18
832,14	1724,39
832,31	1746,92
832,48	1681,38
832,65	1824,74
832,82	1718,25
832,99	1685,48
833,17	1615,85
833,34	1689,57
833,51	1804,26
833,68	1619,94
833,85	1773,54
834,02	1660,90
834,19	1673,19
834,36	1615,85
834,53	1716,20
834,70	1783,78
834,87	1714,15
835,04	1648,61
835,22	1673,19
835,39	1660,90
835,56	1603,56
835,73	1648,61
835,90	1718,25
836,07	1714,15
836,24	1783,78
836,41	1501,16
836,58	1640,42
836,75	1658,85
836,92	1689,57
837,09	1644,52
837,26	1714,15
837,43	1722,34
837,60	1595,37
837,77	1601,51
837,94	1710,05
838,12	1796,07
838,29	1646,57
838,46	1683,43
838,63	1658,85
838,80	1791,97
838,97	1681,38
839,14	1609,70
839,31	1603,56
839,48	1695,72
839,65	1677,29
839,82	1736,68
839,99	1650,66
840,16	1728,49
840,33	1650,66
840,50	1636,33
840,67	1673,19
840,84	1527,78
841,01	1738,73
841,18	1640,42
841,35	1675,24
841,52	1683,43
841,69	1806,31
841,86	1742,82
842,03	1740,77
842,20	1720,29
842,37	1701,86
842,54	1675,24
842,71	1695,72
842,88	1601,51
843,05	1798,12
843,22	1648,61
843,39	1820,64
843,56	1632,23
843,73	1679,33
843,90	1710,05
844,07	1605,61
844,24	1791,97
844,41	1716,20
844,58	1683,43
844,75	1730,53
844,92	1697,77
845,09	1656,81
845,26	1697,77
845,43	1689,57
845,60	1583,08
845,77	1732,58
845,94	1695,72
846,10	1748,97
846,27	1615,85
846,44	1689,57
846,61	1607,66
846,78	1708,01
846,95	1820,64
847,12	1683,43
847,29	1642,47
847,46	1566,70
847,63	1718,25
847,80	1646,57
847,97	1703,91
848,14	1839,08
848,31	1683,43
848,48	1691,62
848,65	1759,21
848,82	1621,99
848,98	1763,30
849,15	1728,49
849,32	1679,33
849,49	1728,49
849,66	1714,15
849,83	1687,53
850,00	1667,05
850,17	1771,49
850,34	1705,96
850,51	1667,05
850,68	1578,98
850,85	1810,40
851,01	1675,24
851,18	1734,63
851,35	1769,44
851,52	1714,15
851,69	1697,77
851,86	1591,27
852,03	1689,57
852,20	1730,53
852,37	1669,09
852,53	1648,61
852,70	1685,48
852,87	1724,39
853,04	1701,86
853,21	1626,09
853,38	1722,34
853,55	1714,15
853,72	1757,16
853,89	1632,23
854,05	1681,38
854,22	1677,29
854,39	1751,01
854,56	1681,38
854,73	1728,49
854,90	1689,57
855,07	1685,48
855,23	1624,04
855,40	1691,62
855,57	1720,29
855,74	1681,38
855,91	1853,41
856,08	1617,90
856,25	1636,33
856,41	1759,21
856,58	1671,14
856,75	1734,63
856,92	1619,94
857,09	1726,44
857,26	1583,08
857,42	1632,23
857,59	1697,77
857,76	1648,61
857,93	1718,25
858,10	1675,24
858,27	1644,52
858,43	1708,01
858,60	1640,42
858,77	1548,26
858,94	1658,85
859,11	1763,30
859,27	1697,77
859,44	1724,39
859,61	1769,44
859,78	1718,25
859,95	1687,53
860,12	1611,75
860,28	1789,92
860,45	1869,80
860,62	1689,57
860,79	1710,05
860,95	1640,42
861,12	1621,99
861,29	1654,76
861,46	1587,18
861,63	1609,70
861,79	1687,53
861,96	1703,91
862,13	1677,29
862,30	1701,86
862,47	1689,57
862,63	1718,25
862,80	1744,87
862,97	1724,39
863,14	1738,73
863,30	1667,05
863,47	1685,48
863,64	1785,83
863,81	1652,71
863,97	1718,25
864,14	1642,47
864,31	1763,30
864,48	1722,34
864,65	1718,25
864,81	1767,40
864,98	1828,84
865,15	1755,11
865,32	1716,20
865,48	1826,79
865,65	1667,05
865,82	1701,86
865,98	1759,21
866,15	1777,64
866,32	1708,01
866,49	1726,44
866,65	1804,26
866,82	1701,86
866,99	1646,57
867,16	1671,14
867,32	1667,05
867,49	1738,73
867,66	1619,94
867,83	1687,53
867,99	1611,75
868,16	1710,05
868,33	1619,94
868,49	1697,77
868,66	1687,53
868,83	1736,68
868,99	1621,99
869,16	1697,77
869,33	1761,25
869,50	1716,20
869,66	1652,71
869,83	1781,73
870,00	1652,71
870,16	1636,33
870,33	1648,61
870,50	1732,58
870,66	1689,57
870,83	1751,01
871,00	1687,53
871,17	1783,78
871,33	1675,24
871,50	1708,01
871,67	1714,15
871,83	1665,00
872,00	1759,21
872,17	1687,53
872,33	1771,49
872,50	1732,58
872,67	1683,43
872,83	1644,52
873,00	1617,90
873,17	1619,94
873,33	1687,53
873,50	1804,26
873,67	1574,89
873,83	1671,14
874,00	1689,57
874,16	1730,53
874,33	1644,52
874,50	1626,09
874,66	1730,53
874,83	1734,63
875,00	1746,92
875,16	1751,01
875,33	1759,21
875,50	1609,70
875,66	1691,62
875,83	1681,38
875,99	1685,48
876,16	1718,25
876,33	1642,47
876,49	1728,49
876,66	1705,96
876,83	1714,15
876,99	1660,90
877,16	1738,73
877,32	1644,52
877,49	1636,33
877,66	1746,92
877,82	1697,77
877,99	1660,90
878,15	1632,23
878,32	1716,20
878,49	1638,38
878,65	1640,42
878,82	1767,40
878,98	1632,23
879,15	1738,73
879,32	1740,77
879,48	1718,25
879,65	1601,51
879,81	1640,42
879,98	1632,23
880,15	1564,65
880,31	1697,77
880,48	1609,70
880,64	1787,88
880,81	1677,29
880,97	1787,88
881,14	1748,97
881,31	1642,47
881,47	1742,82
881,64	1603,56
881,80	1597,42
881,97	1720,29
882,13	1724,39
882,30	1611,75
882,47	1681,38
882,63	1652,71
882,80	1679,33
882,96	1656,81
883,13	1763,30
883,29	1667,05
883,46	1699,81
883,62	1820,64
883,79	1746,92
883,95	1734,63
884,12	1695,72
884,29	1716,20
884,45	1613,80
884,62	1681,38
884,78	1628,14
884,95	1738,73
885,11	1656,81
885,28	1718,25
885,44	1660,90
885,61	1746,92
885,77	1804,26
885,94	1730,53
886,10	1652,71
886,27	1681,38
886,43	1748,97
886,60	1732,58
886,76	1669,09
886,93	1665,00
887,09	1748,97
887,26	1603,56
887,42	1675,24
887,59	1830,88
887,75	1824,74
887,92	1730,53
888,08	1845,22
888,25	1796,07
888,41	1703,91
888,58	1732,58
888,74	1570,79
888,91	1605,61
>>>>>End Processed Spectral Data<<<<<
