SpectraSuite Data File
++++++++++++++++++++++++++++++++++++
Date: Mon Jun 06 13:58:17 CEST 2016
User: root
Dark Spectrum Present: No
Reference Spectrum Present: No
Number of Sampled Component Spectra: 1
Spectrometers: USB4C02835
Integration Time (usec): 100000 (USB4C02835)
Spectra Averaged: 1 (USB4C02835)
Boxcar Smoothing: 0 (USB4C02835)
Correct for Electrical Dark: No (USB4C02835)
Strobe/Lamp Enabled: No (USB4C02835)
Correct for Detector Non-linearity: No (USB4C02835)
Correct for Stray Light: No (USB4C02835)
Number of Pixels in Processed Spectrum: 3648
>>>>>Begin Processed Spectral Data<<<<<
177,47	1486,83
177,69	1486,83
177,91	1486,83
178,13	1509,35
178,36	1509,35
178,58	1583,08
178,80	1667,05
179,02	1681,38
179,24	1605,61
179,46	1716,20
179,68	1773,54
179,90	1681,38
180,13	1646,57
180,35	1634,28
180,57	1665,00
180,79	1679,33
181,01	1718,25
181,23	1777,64
181,45	1794,02
181,67	1773,54
181,90	1773,54
182,12	1583,08
182,34	1679,33
182,56	1732,58
182,78	1691,62
183,00	1693,67
183,22	1662,95
183,44	1564,65
183,66	1843,17
183,89	1824,74
184,11	1724,39
184,33	1716,20
184,55	1742,82
184,77	1720,29
184,99	1671,14
185,21	1648,61
185,43	1927,14
185,65	1720,29
185,87	1697,77
186,10	1832,93
186,32	1847,27
186,54	1671,14
186,76	1689,57
186,98	1779,68
187,20	1656,81
187,42	1705,96
187,64	1708,01
187,86	1697,77
188,08	1740,77
188,30	1681,38
188,52	1722,34
188,75	1742,82
188,97	1773,54
189,19	1660,90
189,41	1662,95
189,63	1779,68
189,85	1656,81
190,07	1591,27
190,29	1607,66
190,51	1746,92
190,73	1689,57
190,95	1820,64
191,17	1708,01
191,39	1607,66
191,61	1615,85
191,84	1673,19
192,06	1718,25
192,28	1685,48
192,50	1898,47
192,72	1699,81
192,94	1742,82
193,16	1730,53
193,38	1685,48
193,60	1675,24
193,82	1746,92
194,04	1726,44
194,26	1710,05
194,48	1640,42
194,70	1687,53
194,92	1683,43
195,14	1808,36
195,36	1687,53
195,58	1755,11
195,80	1667,05
196,02	1685,48
196,24	1746,92
196,46	1734,63
196,69	1646,57
196,91	1832,93
197,13	1658,85
197,35	1632,23
197,57	1736,68
197,79	1720,29
198,01	1665,00
198,23	1728,49
198,45	1751,01
198,67	1556,46
198,89	1601,51
199,11	1732,58
199,33	1689,57
199,55	1607,66
199,77	1667,05
199,99	1787,88
200,21	1652,71
200,43	1712,10
200,65	1708,01
200,87	1636,33
201,09	1736,68
201,31	1759,21
201,53	1697,77
201,75	1701,86
201,97	1800,16
202,19	1708,01
202,41	1777,64
202,63	1767,40
202,85	1656,81
203,07	1628,14
203,29	1669,09
203,51	1599,46
203,73	1642,47
203,95	1898,47
204,17	1746,92
204,39	1681,38
204,61	1658,85
204,83	1771,49
205,05	1794,02
205,27	1775,59
205,49	1763,30
205,71	1738,73
205,93	1642,47
206,15	1634,28
206,37	1669,09
206,59	1675,24
206,81	1658,85
207,03	1681,38
207,25	1607,66
207,47	1681,38
207,69	1701,86
207,91	1740,77
208,13	1738,73
208,34	1603,56
208,56	1669,09
208,78	1685,48
209,00	1650,66
209,22	1693,67
209,44	1701,86
209,66	1554,41
209,88	1705,96
210,10	1705,96
210,32	1626,09
210,54	1783,78
210,76	1662,95
210,98	1665,00
211,20	1570,79
211,42	1693,67
211,64	1769,44
211,86	1738,73
212,08	1748,97
212,30	1722,34
212,52	1650,66
212,74	1757,16
212,96	1697,77
213,17	1841,12
213,39	1759,21
213,61	1767,40
213,83	1716,20
214,05	1576,94
214,27	1781,73
214,49	1673,19
214,71	1632,23
214,93	1755,11
215,15	1697,77
215,37	1740,77
215,59	1609,70
215,81	1736,68
216,03	1730,53
216,24	1660,90
216,46	1578,98
216,68	1773,54
216,90	1773,54
217,12	1701,86
217,34	1705,96
217,56	1714,15
217,78	1798,12
218,00	1718,25
218,22	1652,71
218,44	1681,38
218,66	1777,64
218,87	1843,17
219,09	1644,52
219,31	1714,15
219,53	1654,76
219,75	1685,48
219,97	1732,58
220,19	1654,76
220,41	1746,92
220,63	1746,92
220,85	1675,24
221,06	1683,43
221,28	1787,88
221,50	1730,53
221,72	1755,11
221,94	1763,30
222,16	1742,82
222,38	1798,12
222,60	1728,49
222,82	1701,86
223,03	1748,97
223,25	1652,71
223,47	1765,35
223,69	1830,88
223,91	1648,61
224,13	1722,34
224,35	1646,57
224,57	1773,54
224,78	1751,01
225,00	1607,66
225,22	1671,14
225,44	1724,39
225,66	1746,92
225,88	1699,81
226,10	1738,73
226,32	1759,21
226,53	1753,06
226,75	1630,18
226,97	1628,14
227,19	1757,16
227,41	1728,49
227,63	1705,96
227,85	1630,18
228,06	1693,67
228,28	1691,62
228,50	1775,59
228,72	1693,67
228,94	1708,01
229,16	1589,22
229,37	1642,47
229,59	1599,46
229,81	1703,91
230,03	1697,77
230,25	1701,86
230,47	1632,23
230,69	1640,42
230,90	1695,72
231,12	1726,44
231,34	1712,10
231,56	1751,01
231,78	1697,77
232,00	1697,77
232,21	1734,63
232,43	1660,90
232,65	1609,70
232,87	1732,58
233,09	1665,00
233,30	1714,15
233,52	1757,16
233,74	1730,53
233,96	1683,43
234,18	1712,10
234,40	1652,71
234,61	1906,66
234,83	1605,61
235,05	1624,04
235,27	1904,61
235,49	1769,44
235,70	1705,96
235,92	1843,17
236,14	1730,53
236,36	1781,73
236,58	1624,04
236,79	1687,53
237,01	1665,00
237,23	1716,20
237,45	1738,73
237,67	1632,23
237,88	1695,72
238,10	1832,93
238,32	1624,04
238,54	1677,29
238,76	1708,01
238,97	1724,39
239,19	1632,23
239,41	1714,15
239,63	1859,56
239,85	1681,38
240,06	1695,72
240,28	1699,81
240,50	1730,53
240,72	1767,40
240,93	1660,90
241,15	1757,16
241,37	1650,66
241,59	1771,49
241,81	1693,67
242,02	1660,90
242,24	1693,67
242,46	1667,05
242,68	1710,05
242,89	1705,96
243,11	1742,82
243,33	1705,96
243,55	1716,20
243,76	1834,98
243,98	1669,09
244,20	1677,29
244,42	1691,62
244,64	1673,19
244,85	1652,71
245,07	1669,09
245,29	1740,77
245,51	1665,00
245,72	1726,44
245,94	1765,35
246,16	1732,58
246,38	1820,64
246,59	1669,09
246,81	1681,38
247,03	1736,68
247,24	1628,14
247,46	1603,56
247,68	1695,72
247,90	1716,20
248,11	1644,52
248,33	1761,25
248,55	1708,01
248,77	1712,10
248,98	1724,39
249,20	1763,30
249,42	1705,96
249,64	1701,86
249,85	1765,35
250,07	1673,19
250,29	1714,15
250,50	1798,12
250,72	1652,71
250,94	1736,68
251,16	1822,69
251,37	1726,44
251,59	1722,34
251,81	1742,82
252,02	1734,63
252,24	1710,05
252,46	1759,21
252,68	1621,99
252,89	1658,85
253,11	1648,61
253,33	1820,64
253,54	1705,96
253,76	1652,71
253,98	1777,64
254,20	1626,09
254,41	1603,56
254,63	1677,29
254,85	1603,56
255,06	1705,96
255,28	1712,10
255,50	1673,19
255,71	1605,61
255,93	1669,09
256,15	1767,40
256,36	1753,06
256,58	1701,86
256,80	1699,81
257,02	1769,44
257,23	1669,09
257,45	1697,77
257,67	1748,97
257,88	1658,85
258,10	1753,06
258,32	1722,34
258,53	1691,62
258,75	1771,49
258,97	1724,39
259,18	1720,29
259,40	1722,34
259,62	1845,22
259,83	1738,73
260,05	1757,16
260,27	1976,29
260,48	1796,07
260,70	1613,80
260,92	1796,07
261,13	1675,24
261,35	1769,44
261,57	1767,40
261,78	1675,24
262,00	1628,14
262,22	1753,06
262,43	1617,90
262,65	1685,48
262,86	1697,77
263,08	1837,03
263,30	1746,92
263,51	1648,61
263,73	1665,00
263,95	1810,40
264,16	1632,23
264,38	1693,67
264,60	1677,29
264,81	1701,86
265,03	1720,29
265,25	1755,11
265,46	1705,96
265,68	1787,88
265,89	1722,34
266,11	1701,86
266,33	1744,87
266,54	1738,73
266,76	1746,92
266,98	1736,68
267,19	1785,83
267,41	1755,11
267,62	1636,33
267,84	1615,85
268,06	1769,44
268,27	1708,01
268,49	1779,68
268,70	1744,87
268,92	1652,71
269,14	1601,51
269,35	1656,81
269,57	1689,57
269,79	1703,91
270,00	1744,87
270,22	1779,68
270,43	1642,47
270,65	1540,07
270,87	1693,67
271,08	1736,68
271,30	1660,90
271,51	1779,68
271,73	1732,58
271,95	1791,97
272,16	1703,91
272,38	1738,73
272,59	1675,24
272,81	1771,49
273,02	1724,39
273,24	1771,49
273,46	1699,81
273,67	1701,86
273,89	1681,38
274,10	1730,53
274,32	1818,60
274,54	1640,42
274,75	1724,39
274,97	1634,28
275,18	1775,59
275,40	1738,73
275,61	1595,37
275,83	1658,85
276,05	1634,28
276,26	1708,01
276,48	1714,15
276,69	1714,15
276,91	1724,39
277,12	1812,45
277,34	1744,87
277,55	1779,68
277,77	1746,92
277,99	1734,63
278,20	1634,28
278,42	1601,51
278,63	1724,39
278,85	1646,57
279,06	1638,38
279,28	1691,62
279,49	1705,96
279,71	1753,06
279,93	1755,11
280,14	1632,23
280,36	1669,09
280,57	1783,78
280,79	1753,06
281,00	1683,43
281,22	1673,19
281,43	1785,83
281,65	1550,31
281,86	1626,09
282,08	1736,68
282,29	1765,35
282,51	1615,85
282,73	1626,09
282,94	1658,85
283,16	1726,44
283,37	1763,30
283,59	1693,67
283,80	1632,23
284,02	1693,67
284,23	1755,11
284,45	1718,25
284,66	1626,09
284,88	1660,90
285,09	1710,05
285,31	1675,24
285,52	1720,29
285,74	1652,71
285,95	1765,35
286,17	1714,15
286,38	1705,96
286,60	1681,38
286,81	1658,85
287,03	1716,20
287,24	1624,04
287,46	1751,01
287,67	1716,20
287,89	1837,03
288,10	1701,86
288,32	1718,25
288,53	1828,84
288,75	1685,48
288,96	1779,68
289,18	1640,42
289,39	1708,01
289,61	1783,78
289,82	1796,07
290,04	1804,26
290,25	1640,42
290,47	1650,66
290,68	1660,90
290,90	1761,25
291,11	1677,29
291,33	1802,21
291,54	1648,61
291,76	1662,95
291,97	1708,01
292,18	1722,34
292,40	1675,24
292,61	1640,42
292,83	1804,26
293,04	1617,90
293,26	1769,44
293,47	1699,81
293,69	1650,66
293,90	1595,37
294,12	1703,91
294,33	1730,53
294,55	1605,61
294,76	1720,29
294,97	1837,03
295,19	1794,02
295,40	1615,85
295,62	1705,96
295,83	1781,73
296,05	1720,29
296,26	1738,73
296,48	1603,56
296,69	1705,96
296,90	1716,20
297,12	1689,57
297,33	1787,88
297,55	1763,30
297,76	1755,11
297,98	1837,03
298,19	1740,77
298,41	1798,12
298,62	1628,14
298,83	1771,49
299,05	1763,30
299,26	1699,81
299,48	1613,80
299,69	1691,62
299,90	1681,38
300,12	1632,23
300,33	1753,06
300,55	1705,96
300,76	1658,85
300,98	1603,56
301,19	1732,58
301,40	1787,88
301,62	1658,85
301,83	1769,44
302,05	1660,90
302,26	1697,77
302,47	1601,51
302,69	1650,66
302,90	1660,90
303,12	1558,50
303,33	1714,15
303,54	1869,80
303,76	1697,77
303,97	1738,73
304,19	1736,68
304,40	1708,01
304,61	1724,39
304,83	1763,30
305,04	1810,40
305,26	1791,97
305,47	1638,38
305,68	1759,21
305,90	1642,47
306,11	1722,34
306,33	1730,53
306,54	1685,48
306,75	1595,37
306,97	1564,65
307,18	1636,33
307,39	1722,34
307,61	1738,73
307,82	1677,29
308,04	1687,53
308,25	1628,14
308,46	1746,92
308,68	1634,28
308,89	1718,25
309,10	1787,88
309,32	1767,40
309,53	1796,07
309,74	1773,54
309,96	1660,90
310,17	1828,84
310,39	1740,77
310,60	1718,25
310,81	1656,81
311,03	1619,94
311,24	1765,35
311,45	1691,62
311,67	1781,73
311,88	1701,86
312,09	1632,23
312,31	1656,81
312,52	1632,23
312,73	1718,25
312,95	1640,42
313,16	1699,81
313,37	1755,11
313,59	1736,68
313,80	1703,91
314,01	1796,07
314,23	1689,57
314,44	1660,90
314,65	1648,61
314,87	1628,14
315,08	1609,70
315,29	1652,71
315,51	1609,70
315,72	1667,05
315,93	1890,28
316,15	1742,82
316,36	1697,77
316,57	1630,18
316,79	1685,48
317,00	1683,43
317,21	1767,40
317,43	1677,29
317,64	1656,81
317,85	1648,61
318,07	1626,09
318,28	1710,05
318,49	1824,74
318,70	1863,65
318,92	1886,18
319,13	1763,30
319,34	1892,32
319,56	1839,08
319,77	1824,74
319,98	1820,64
320,20	1798,12
320,41	1798,12
320,62	1728,49
320,83	1642,47
321,05	1765,35
321,26	1607,66
321,47	1738,73
321,69	1802,21
321,90	1632,23
322,11	1677,29
322,32	1712,10
322,54	1826,79
322,75	1728,49
322,96	1740,77
323,18	1609,70
323,39	1632,23
323,60	1673,19
323,81	1763,30
324,03	1642,47
324,24	1738,73
324,45	1738,73
324,66	1691,62
324,88	1820,64
325,09	1757,16
325,30	1675,24
325,52	1714,15
325,73	1705,96
325,94	1669,09
326,15	1630,18
326,37	1671,14
326,58	1783,78
326,79	1810,40
327,00	1675,24
327,22	1769,44
327,43	1640,42
327,64	1677,29
327,85	1742,82
328,07	1673,19
328,28	1763,30
328,49	1619,94
328,70	1714,15
328,92	1669,09
329,13	1705,96
329,34	1646,57
329,55	1800,16
329,76	1804,26
329,98	1673,19
330,19	1779,68
330,40	1705,96
330,61	1660,90
330,83	1693,67
331,04	1744,87
331,25	1806,31
331,46	1759,21
331,68	1724,39
331,89	1757,16
332,10	1744,87
332,31	1632,23
332,52	1675,24
332,74	1722,34
332,95	1724,39
333,16	1701,86
333,37	1761,25
333,58	1695,72
333,80	1724,39
334,01	1626,09
334,22	1697,77
334,43	1656,81
334,64	1615,85
334,86	1591,27
335,07	1691,62
335,28	1675,24
335,49	1599,46
335,70	1675,24
335,92	1716,20
336,13	1857,51
336,34	1669,09
336,55	1636,33
336,76	1624,04
336,98	1667,05
337,19	1753,06
337,40	1812,45
337,61	1925,09
337,82	1658,85
338,04	1677,29
338,25	1589,22
338,46	1648,61
338,67	1548,26
338,88	1691,62
339,09	1654,76
339,31	1669,09
339,52	1687,53
339,73	1638,38
339,94	1740,77
340,15	1726,44
340,36	1650,66
340,58	1722,34
340,79	1640,42
341,00	1777,64
341,21	1665,00
341,42	1798,12
341,63	1724,39
341,85	1697,77
342,06	1720,29
342,27	1634,28
342,48	1796,07
342,69	1634,28
342,90	1652,71
343,12	1693,67
343,33	1714,15
343,54	1730,53
343,75	1740,77
343,96	1648,61
344,17	1685,48
344,38	1665,00
344,60	1695,72
344,81	1638,38
345,02	1728,49
345,23	1767,40
345,44	1675,24
345,65	1687,53
345,86	1748,97
346,07	1794,02
346,29	1642,47
346,50	1839,08
346,71	1732,58
346,92	1798,12
347,13	1796,07
347,34	1734,63
347,55	1697,77
347,76	1675,24
347,98	1650,66
348,19	1683,43
348,40	1763,30
348,61	1652,71
348,82	1869,80
349,03	1738,73
349,24	1601,51
349,45	1785,83
349,66	1656,81
349,88	1724,39
350,09	1650,66
350,30	1769,44
350,51	1759,21
350,72	1800,16
350,93	1689,57
351,14	1740,77
351,35	1656,81
351,56	1732,58
351,77	1634,28
351,99	1699,81
352,20	1779,68
352,41	1751,01
352,62	1599,46
352,83	1624,04
353,04	1673,19
353,25	1689,57
353,46	1771,49
353,67	1677,29
353,88	1681,38
354,09	1761,25
354,30	1705,96
354,52	1705,96
354,73	1667,05
354,94	1646,57
355,15	1695,72
355,36	1775,59
355,57	1693,67
355,78	1679,33
355,99	1642,47
356,20	1691,62
356,41	1755,11
356,62	1744,87
356,83	1806,31
357,04	1767,40
357,25	1607,66
357,46	1648,61
357,68	1638,38
357,89	1728,49
358,10	1708,01
358,31	1697,77
358,52	1730,53
358,73	1669,09
358,94	1636,33
359,15	1669,09
359,36	1714,15
359,57	1742,82
359,78	1656,81
359,99	1726,44
360,20	1640,42
360,41	1652,71
360,62	1757,16
360,83	1722,34
361,04	1732,58
361,25	1679,33
361,46	1787,88
361,67	1724,39
361,88	1734,63
362,09	1720,29
362,30	1683,43
362,51	1597,42
362,72	1746,92
362,93	1759,21
363,14	1834,98
363,35	1660,90
363,56	1667,05
363,78	1730,53
363,99	1777,64
364,20	1722,34
364,41	1767,40
364,62	1757,16
364,83	1689,57
365,04	1753,06
365,25	1669,09
365,46	1765,35
365,67	1679,33
365,88	1640,42
366,09	1716,20
366,30	1660,90
366,51	1665,00
366,72	1677,29
366,93	1613,80
367,14	1701,86
367,35	1732,58
367,56	1705,96
367,77	1783,78
367,98	1742,82
368,18	1755,11
368,39	1730,53
368,60	1605,61
368,81	1716,20
369,02	1730,53
369,23	1712,10
369,44	1642,47
369,65	1662,95
369,86	1742,82
370,07	1798,12
370,28	1615,85
370,49	1728,49
370,70	1771,49
370,91	1701,86
371,12	1673,19
371,33	1718,25
371,54	1675,24
371,75	1763,30
371,96	1587,18
372,17	1642,47
372,38	1683,43
372,59	1746,92
372,80	1677,29
373,01	1699,81
373,22	1732,58
373,43	1714,15
373,64	1615,85
373,85	1798,12
374,06	1830,88
374,26	1710,05
374,47	1679,33
374,68	1744,87
374,89	1728,49
375,10	1789,92
375,31	1730,53
375,52	1714,15
375,73	1650,66
375,94	1726,44
376,15	1771,49
376,36	1597,42
376,57	1646,57
376,78	1652,71
376,99	1654,76
377,20	1814,50
377,40	1705,96
377,61	1796,07
377,82	1646,57
378,03	1755,11
378,24	1779,68
378,45	1679,33
378,66	1712,10
378,87	1605,61
379,08	1634,28
379,29	1652,71
379,50	1767,40
379,71	1683,43
379,91	1691,62
380,12	1677,29
380,33	1683,43
380,54	1656,81
380,75	1689,57
380,96	1716,20
381,17	1734,63
381,38	1738,73
381,59	1763,30
381,80	1708,01
382,00	1843,17
382,21	1763,30
382,42	1779,68
382,63	1902,56
382,84	1748,97
383,05	1738,73
383,26	1814,50
383,47	1867,75
383,68	1738,73
383,88	1757,16
384,09	1736,68
384,30	1851,36
384,51	1718,25
384,72	1636,33
384,93	1656,81
385,14	1695,72
385,35	1812,45
385,55	1697,77
385,76	1798,12
385,97	1751,01
386,18	1607,66
386,39	1644,52
386,60	1679,33
386,81	1667,05
387,02	1699,81
387,22	1720,29
387,43	1722,34
387,64	1822,69
387,85	1865,70
388,06	2220,00
388,27	4184,00
388,48	6860,70
388,68	8290,18
388,89	9422,70
389,10	9723,76
389,31	8492,93
389,52	7694,22
389,73	6852,50
389,93	6107,04
390,14	5885,86
390,35	5074,87
390,56	4612,03
390,77	3850,18
390,98	2981,84
391,18	2512,86
391,39	2119,65
391,60	1961,95
391,81	1843,17
392,02	1683,43
392,23	1808,36
392,43	1630,18
392,64	1837,03
392,85	1728,49
393,06	1761,25
393,27	1712,10
393,47	1695,72
393,68	1800,16
393,89	1730,53
394,10	1802,21
394,31	1599,46
394,52	1638,38
394,72	1708,01
394,93	1761,25
395,14	1640,42
395,35	1720,29
395,56	1621,99
395,76	1740,77
395,97	1802,21
396,18	1804,26
396,39	1814,50
396,60	2060,26
396,80	1826,79
397,01	1853,41
397,22	1796,07
397,43	1933,28
397,64	1693,67
397,84	1748,97
398,05	1834,98
398,26	1757,16
398,47	1787,88
398,67	1726,44
398,88	1656,81
399,09	1742,82
399,30	1654,76
399,51	1746,92
399,71	1560,55
399,92	1724,39
400,13	1697,77
400,34	1687,53
400,54	1652,71
400,75	1748,97
400,96	1736,68
401,17	1748,97
401,37	1734,63
401,58	1771,49
401,79	1683,43
402,00	1892,32
402,21	2000,87
402,41	1982,43
402,62	2004,96
402,83	2068,45
403,04	2041,82
403,24	2017,25
403,45	1898,47
403,66	1929,19
403,87	1968,10
404,07	1918,95
404,28	1837,03
404,49	1818,60
404,70	1791,97
404,90	1703,91
405,11	1718,25
405,32	1718,25
405,52	1703,91
405,73	1691,62
405,94	1658,85
406,15	1722,34
406,35	1753,06
406,56	1789,92
406,77	1744,87
406,98	1708,01
407,18	1624,04
407,39	1769,44
407,60	1634,28
407,80	1753,06
408,01	1679,33
408,22	1769,44
408,43	1677,29
408,63	1759,21
408,84	1746,92
409,05	1695,72
409,25	1669,09
409,46	1646,57
409,67	1656,81
409,88	1685,48
410,08	1632,23
410,29	1734,63
410,50	1769,44
410,70	1738,73
410,91	1597,42
411,12	1691,62
411,32	1609,70
411,53	1644,52
411,74	1822,69
411,95	1779,68
412,15	1779,68
412,36	1789,92
412,57	1763,30
412,77	1861,60
412,98	1744,87
413,19	1689,57
413,39	1708,01
413,60	1769,44
413,81	1802,21
414,01	1677,29
414,22	1693,67
414,43	1716,20
414,63	1712,10
414,84	1765,35
415,05	1728,49
415,25	1683,43
415,46	1787,88
415,67	1681,38
415,87	1642,47
416,08	1677,29
416,29	1658,85
416,49	1771,49
416,70	1751,01
416,91	1640,42
417,11	1734,63
417,32	1720,29
417,53	1722,34
417,73	1771,49
417,94	1699,81
418,15	1740,77
418,35	1742,82
418,56	1742,82
418,77	1910,75
418,97	1658,85
419,18	1689,57
419,38	1548,26
419,59	1744,87
419,80	1771,49
420,00	1677,29
420,21	1716,20
420,42	1757,16
420,62	1787,88
420,83	1728,49
421,04	1693,67
421,24	1671,14
421,45	1693,67
421,65	1732,58
421,86	1703,91
422,07	1800,16
422,27	1740,77
422,48	1722,34
422,69	1720,29
422,89	1763,30
423,10	1685,48
423,30	1689,57
423,51	1748,97
423,72	1699,81
423,92	1679,33
424,13	1624,04
424,33	1779,68
424,54	1708,01
424,75	1720,29
424,95	1710,05
425,16	1689,57
425,36	1771,49
425,57	1716,20
425,78	1798,12
425,98	1738,73
426,19	1726,44
426,39	1697,77
426,60	1810,40
426,81	1722,34
427,01	1736,68
427,22	1683,43
427,42	1665,00
427,63	1660,90
427,83	1814,50
428,04	1804,26
428,25	1798,12
428,45	1769,44
428,66	1738,73
428,86	1701,86
429,07	1671,14
429,28	1720,29
429,48	1740,77
429,69	1720,29
429,89	1691,62
430,10	1660,90
430,30	1757,16
430,51	1765,35
430,71	1703,91
430,92	1738,73
431,13	1654,76
431,33	1777,64
431,54	1742,82
431,74	1798,12
431,95	1812,45
432,15	1687,53
432,36	1675,24
432,56	1767,40
432,77	1816,55
432,98	1783,78
433,18	1714,15
433,39	1714,15
433,59	1685,48
433,80	1865,70
434,00	1808,36
434,21	1617,90
434,41	1660,90
434,62	1849,32
434,82	1665,00
435,03	1642,47
435,23	1744,87
435,44	1632,23
435,64	1665,00
435,85	1763,30
436,06	1775,59
436,26	1710,05
436,47	1634,28
436,67	1685,48
436,88	1697,77
437,08	1716,20
437,29	1832,93
437,49	1777,64
437,70	1722,34
437,90	1689,57
438,11	1877,99
438,31	1787,88
438,52	1857,51
438,72	1746,92
438,93	1890,28
439,13	1724,39
439,34	1875,94
439,54	1767,40
439,75	1734,63
439,95	1746,92
440,16	1660,90
440,36	1689,57
440,57	1738,73
440,77	1732,58
440,98	1710,05
441,18	1724,39
441,39	1673,19
441,59	1687,53
441,80	1796,07
442,00	1746,92
442,21	1767,40
442,41	1593,32
442,62	1816,55
442,82	1632,23
443,02	1751,01
443,23	1701,86
443,43	1783,78
443,64	1855,46
443,84	1656,81
444,05	1787,88
444,25	1722,34
444,46	1693,67
444,66	1654,76
444,87	1804,26
445,07	1644,52
445,28	1789,92
445,48	1763,30
445,69	1748,97
445,89	1853,41
446,09	1716,20
446,30	2045,92
446,50	2660,31
446,71	3753,93
446,91	4253,63
447,12	4786,10
447,32	4888,50
447,53	4335,55
447,73	3882,95
447,93	3553,23
448,14	3246,03
448,34	3166,16
448,55	2967,51
448,75	2885,59
448,96	2719,70
449,16	2432,99
449,36	2279,39
449,57	2074,59
449,77	1972,19
449,98	1781,73
450,18	1798,12
450,39	1837,03
450,59	1767,40
450,79	1679,33
451,00	1734,63
451,20	1820,64
451,41	1730,53
451,61	1816,55
451,81	1699,81
452,02	1734,63
452,22	1662,95
452,43	1589,22
452,63	1765,35
452,84	1738,73
453,04	1701,86
453,24	1665,00
453,45	1716,20
453,65	1687,53
453,86	1757,16
454,06	1736,68
454,26	1705,96
454,47	1714,15
454,67	1773,54
454,87	1724,39
455,08	1689,57
455,28	1839,08
455,49	1777,64
455,69	1634,28
455,89	1789,92
456,10	1771,49
456,30	1701,86
456,51	1806,31
456,71	1732,58
456,91	1785,83
457,12	1714,15
457,32	1845,22
457,52	1660,90
457,73	1794,02
457,93	1802,21
458,14	1693,67
458,34	1613,80
458,54	1730,53
458,75	1746,92
458,95	1718,25
459,15	1683,43
459,36	1755,11
459,56	1822,69
459,76	1808,36
459,97	1810,40
460,17	1732,58
460,37	1714,15
460,58	1699,81
460,78	1804,26
460,99	1724,39
461,19	1693,67
461,39	1699,81
461,60	1712,10
461,80	1755,11
462,00	1703,91
462,21	1714,15
462,41	1794,02
462,61	1609,70
462,82	1593,32
463,02	1705,96
463,22	1691,62
463,43	1738,73
463,63	1746,92
463,83	1865,70
464,04	1761,25
464,24	1703,91
464,44	1705,96
464,64	1699,81
464,85	1718,25
465,05	1759,21
465,25	1757,16
465,46	1773,54
465,66	1740,77
465,86	1654,76
466,07	1703,91
466,27	1751,01
466,47	1714,15
466,68	1640,42
466,88	1808,36
467,08	1667,05
467,29	1785,83
467,49	1740,77
467,69	1699,81
467,89	1814,50
468,10	1746,92
468,30	1820,64
468,50	1787,88
468,71	1769,44
468,91	1642,47
469,11	1898,47
469,31	1662,95
469,52	1656,81
469,72	1771,49
469,92	1783,78
470,13	1763,30
470,33	1734,63
470,53	1845,22
470,73	2039,78
470,94	2248,67
471,14	2332,64
471,34	2557,91
471,54	2318,30
471,75	2308,06
471,95	2232,29
472,15	2105,31
472,36	2158,56
472,56	2078,69
472,76	2045,92
472,96	2119,65
473,17	1994,72
473,37	1832,93
473,57	1753,06
473,77	1820,64
473,98	1841,12
474,18	1636,33
474,38	1927,14
474,58	1648,61
474,79	1697,77
474,99	1810,40
475,19	1732,58
475,39	1732,58
475,60	1740,77
475,80	1693,67
476,00	1751,01
476,20	1656,81
476,41	1722,34
476,61	1744,87
476,81	1853,41
477,01	1644,52
477,21	1841,12
477,42	1828,84
477,62	1677,29
477,82	1667,05
478,02	1636,33
478,23	1697,77
478,43	1699,81
478,63	1656,81
478,83	1712,10
479,03	1720,29
479,24	1777,64
479,44	1789,92
479,64	1673,19
479,84	1599,46
480,04	1675,24
480,25	1791,97
480,45	1644,52
480,65	1673,19
480,85	1767,40
481,06	1665,00
481,26	1708,01
481,46	1730,53
481,66	1728,49
481,86	1628,14
482,06	1785,83
482,27	1726,44
482,47	1685,48
482,67	1710,05
482,87	1697,77
483,07	1746,92
483,28	1695,72
483,48	1636,33
483,68	1652,71
483,88	1677,29
484,08	1601,51
484,29	1675,24
484,49	1720,29
484,69	1675,24
484,89	1837,03
485,09	1730,53
485,29	1738,73
485,50	1710,05
485,70	1746,92
485,90	1806,31
486,10	1687,53
486,30	1802,21
486,50	1777,64
486,71	1777,64
486,91	1765,35
487,11	1759,21
487,31	1546,22
487,51	1742,82
487,71	1677,29
487,91	1613,80
488,12	1640,42
488,32	1621,99
488,52	1621,99
488,72	1656,81
488,92	1783,78
489,12	1773,54
489,32	1771,49
489,53	1785,83
489,73	1708,01
489,93	1849,32
490,13	1724,39
490,33	1634,28
490,53	1763,30
490,73	1808,36
490,94	1609,70
491,14	1763,30
491,34	1828,84
491,54	2148,32
491,74	2525,15
491,94	2836,44
492,14	3014,61
492,34	3026,90
492,54	2815,96
492,75	2506,71
492,95	2498,52
493,15	2297,82
493,35	2283,49
493,55	2174,94
493,75	2156,51
493,95	2138,08
494,15	1980,39
494,35	1939,43
494,56	1824,74
494,76	1771,49
494,96	1779,68
495,16	1822,69
495,36	1734,63
495,56	1779,68
495,76	1697,77
495,96	1656,81
496,16	1642,47
496,36	1736,68
496,56	1742,82
496,77	1757,16
496,97	1720,29
497,17	1697,77
497,37	1703,91
497,57	1671,14
497,77	1775,59
497,97	1685,48
498,17	1730,53
498,37	1685,48
498,57	1726,44
498,77	1705,96
498,97	1755,11
499,17	1751,01
499,38	1753,06
499,58	1816,55
499,78	1841,12
499,98	1783,78
500,18	1751,01
500,38	1681,38
500,58	1877,99
500,78	2570,20
500,98	4528,06
501,18	5738,41
501,38	6915,99
501,58	7143,32
501,78	6606,75
501,98	5580,71
502,18	5087,15
502,38	4372,41
502,58	4100,03
502,78	3819,46
502,98	3614,66
503,18	3461,07
503,38	3198,93
503,59	2846,68
503,79	2576,34
503,99	2455,51
504,19	2281,44
504,39	2129,89
504,59	2168,80
504,79	2125,79
504,99	2021,35
505,19	1910,75
505,39	1941,47
505,59	2011,11
505,79	1902,56
505,99	1834,98
506,19	1744,87
506,39	1906,66
506,59	1794,02
506,79	1753,06
506,99	1748,97
507,19	1816,55
507,39	1744,87
507,59	1658,85
507,79	1648,61
507,99	1687,53
508,19	1771,49
508,39	1685,48
508,59	1753,06
508,79	1804,26
508,99	1798,12
509,19	1683,43
509,39	1753,06
509,59	1722,34
509,79	1718,25
509,99	1798,12
510,19	1800,16
510,39	1775,59
510,59	1816,55
510,79	1693,67
510,99	1763,30
511,19	1748,97
511,39	1796,07
511,59	1734,63
511,79	1765,35
511,99	1732,58
512,19	1865,70
512,38	1732,58
512,58	1701,86
512,78	1748,97
512,98	1781,73
513,18	1820,64
513,38	1687,53
513,58	1789,92
513,78	1718,25
513,98	1800,16
514,18	1650,66
514,38	1640,42
514,58	1757,16
514,78	1710,05
514,98	1630,18
515,18	1650,66
515,38	1601,51
515,58	1910,75
515,78	1656,81
515,98	1726,44
516,18	1757,16
516,38	1757,16
516,57	1697,77
516,77	1742,82
516,97	1730,53
517,17	1732,58
517,37	1681,38
517,57	1783,78
517,77	1808,36
517,97	1681,38
518,17	1753,06
518,37	1654,76
518,57	1722,34
518,77	1730,53
518,97	1734,63
519,16	1701,86
519,36	1847,27
519,56	1736,68
519,76	1757,16
519,96	1732,58
520,16	1808,36
520,36	1626,09
520,56	1761,25
520,76	1708,01
520,96	1708,01
521,16	1877,99
521,35	1808,36
521,55	1888,23
521,75	1753,06
521,95	1738,73
522,15	1691,62
522,35	1587,18
522,55	1710,05
522,75	1771,49
522,95	1689,57
523,14	1673,19
523,34	1730,53
523,54	1671,14
523,74	1806,31
523,94	1751,01
524,14	1644,52
524,34	1736,68
524,54	1759,21
524,73	1742,82
524,93	1710,05
525,13	1757,16
525,33	1658,85
525,53	1869,80
525,73	1755,11
525,93	1724,39
526,13	1748,97
526,32	1726,44
526,52	1736,68
526,72	1755,11
526,92	1693,67
527,12	1726,44
527,32	1585,13
527,52	1736,68
527,71	1736,68
527,91	1738,73
528,11	1683,43
528,31	1771,49
528,51	1693,67
528,71	1757,16
528,90	1751,01
529,10	1726,44
529,30	1830,88
529,50	1628,14
529,70	1724,39
529,90	1665,00
530,09	1736,68
530,29	1650,66
530,49	1677,29
530,69	1787,88
530,89	1751,01
531,09	1755,11
531,28	1726,44
531,48	1843,17
531,68	1765,35
531,88	1765,35
532,08	1777,64
532,28	1642,47
532,47	1744,87
532,67	1820,64
532,87	1734,63
533,07	1595,37
533,27	1812,45
533,46	1785,83
533,66	1730,53
533,86	1671,14
534,06	1708,01
534,26	1738,73
534,45	1693,67
534,65	1779,68
534,85	1669,09
535,05	1722,34
535,25	1779,68
535,44	1640,42
535,64	1789,92
535,84	1701,86
536,04	1689,57
536,24	1695,72
536,43	1638,38
536,63	1746,92
536,83	1738,73
537,03	1730,53
537,22	1701,86
537,42	1665,00
537,62	1775,59
537,82	1677,29
538,02	1822,69
538,21	1849,32
538,41	1875,94
538,61	1740,77
538,81	1718,25
539,00	1794,02
539,20	1667,05
539,40	1689,57
539,60	1726,44
539,79	1757,16
539,99	1718,25
540,19	1685,48
540,39	1759,21
540,58	1765,35
540,78	1753,06
540,98	1798,12
541,18	1804,26
541,37	1759,21
541,57	1683,43
541,77	1767,40
541,97	1656,81
542,16	1665,00
542,36	1734,63
542,56	1705,96
542,76	1900,52
542,95	1779,68
543,15	1767,40
543,35	1755,11
543,54	1656,81
543,74	1755,11
543,94	1841,12
544,14	1626,09
544,33	1730,53
544,53	1748,97
544,73	1658,85
544,93	1789,92
545,12	1744,87
545,32	1722,34
545,52	1656,81
545,71	1654,76
545,91	1703,91
546,11	1695,72
546,30	1687,53
546,50	1677,29
546,70	1859,56
546,90	1779,68
547,09	1662,95
547,29	1759,21
547,49	1841,12
547,68	1673,19
547,88	1722,34
548,08	1777,64
548,27	2201,57
548,47	1740,77
548,67	1687,53
548,87	1791,97
549,06	1705,96
549,26	1748,97
549,46	1787,88
549,65	1675,24
549,85	1755,11
550,05	1665,00
550,24	1667,05
550,44	1648,61
550,64	1724,39
550,83	1742,82
551,03	1742,82
551,23	1785,83
551,42	1775,59
551,62	1765,35
551,82	1759,21
552,01	1718,25
552,21	1779,68
552,41	1730,53
552,60	1826,79
552,80	1677,29
553,00	1775,59
553,19	1728,49
553,39	1812,45
553,59	1636,33
553,78	1712,10
553,98	1773,54
554,17	1732,58
554,37	1720,29
554,57	1712,10
554,76	1660,90
554,96	1705,96
555,16	1728,49
555,35	1783,78
555,55	1732,58
555,75	1751,01
555,94	1730,53
556,14	1726,44
556,33	1773,54
556,53	1740,77
556,73	1771,49
556,92	1800,16
557,12	1779,68
557,32	1912,80
557,51	1798,12
557,71	1767,40
557,90	1873,89
558,10	1859,56
558,30	1697,77
558,49	1722,34
558,69	1734,63
558,88	1826,79
559,08	1806,31
559,28	1738,73
559,47	1660,90
559,67	1759,21
559,86	1759,21
560,06	1726,44
560,26	1732,58
560,45	1773,54
560,65	1759,21
560,84	1849,32
561,04	1705,96
561,24	1679,33
561,43	1755,11
561,63	1822,69
561,82	1660,90
562,02	1771,49
562,22	1691,62
562,41	1619,94
562,61	1732,58
562,80	1708,01
563,00	1877,99
563,19	1763,30
563,39	1779,68
563,59	1810,40
563,78	1669,09
563,98	1654,76
564,17	1660,90
564,37	1669,09
564,56	1761,25
564,76	1740,77
564,96	1783,78
565,15	1763,30
565,35	1816,55
565,54	1724,39
565,74	1853,41
565,93	1820,64
566,13	1708,01
566,32	1773,54
566,52	1740,77
566,71	1689,57
566,91	1791,97
567,11	1671,14
567,30	1697,77
567,50	1869,80
567,69	1771,49
567,89	1761,25
568,08	1783,78
568,28	1730,53
568,47	1619,94
568,67	1769,44
568,86	1634,28
569,06	1837,03
569,25	1693,67
569,45	1673,19
569,64	1685,48
569,84	1677,29
570,04	1722,34
570,23	1679,33
570,43	1763,30
570,62	1738,73
570,82	1857,51
571,01	1685,48
571,21	1765,35
571,40	1681,38
571,60	1730,53
571,79	1693,67
571,99	1748,97
572,18	1689,57
572,38	1796,07
572,57	1777,64
572,77	1755,11
572,96	1890,28
573,16	1691,62
573,35	1718,25
573,55	1820,64
573,74	1808,36
573,94	1691,62
574,13	1738,73
574,33	1757,16
574,52	1771,49
574,71	1705,96
574,91	1716,20
575,10	1742,82
575,30	1685,48
575,49	1652,71
575,69	1730,53
575,88	1847,27
576,08	1705,96
576,27	1841,12
576,47	1759,21
576,66	1808,36
576,86	1925,09
577,05	1724,39
577,25	1791,97
577,44	1947,62
577,64	1689,57
577,83	1791,97
578,02	1714,15
578,22	1826,79
578,41	1781,73
578,61	1787,88
578,80	1687,53
579,00	1771,49
579,19	1796,07
579,39	1814,50
579,58	1789,92
579,77	1742,82
579,97	1900,52
580,16	1775,59
580,36	1802,21
580,55	1714,15
580,75	1832,93
580,94	1755,11
581,13	1847,27
581,33	1794,02
581,52	1744,87
581,72	1935,33
581,91	1837,03
582,11	1800,16
582,30	1789,92
582,49	1845,22
582,69	1867,75
582,88	1849,32
583,08	1701,86
583,27	1832,93
583,47	1755,11
583,66	1720,29
583,85	1701,86
584,05	1705,96
584,24	1779,68
584,44	1816,55
584,63	1783,78
584,82	1845,22
585,02	1794,02
585,21	1847,27
585,41	1742,82
585,60	1820,64
585,79	1863,65
585,99	1908,71
586,18	1884,13
586,37	2224,09
586,57	3391,44
586,76	10076,01
586,96	24577,67
587,15	34620,91
587,34	40902,03
587,54	42511,74
587,73	36830,67
587,93	26437,23
588,12	21698,23
588,31	18114,28
588,51	16430,85
588,70	15193,88
588,89	14083,88
589,09	12566,34
589,28	11034,46
589,47	9459,57
589,67	8105,86
589,86	6397,85
590,06	4818,87
590,25	3880,90
590,44	3219,41
590,64	2588,63
590,83	2193,37
591,02	2097,12
591,22	1959,91
591,41	1927,14
591,60	1828,84
591,80	1873,89
591,99	1691,62
592,18	1832,93
592,38	1826,79
592,57	1779,68
592,76	1785,83
592,96	1775,59
593,15	1730,53
593,34	1808,36
593,54	1726,44
593,73	1832,93
593,92	1738,73
594,12	1730,53
594,31	1763,30
594,50	1841,12
594,70	1841,12
594,89	1906,66
595,08	1615,85
595,28	1771,49
595,47	1957,86
595,66	1804,26
595,86	1681,38
596,05	1701,86
596,24	1744,87
596,43	1757,16
596,63	1828,84
596,82	1824,74
597,01	1738,73
597,21	1839,08
597,40	1751,01
597,59	1662,95
597,79	1718,25
597,98	1771,49
598,17	1808,36
598,36	1714,15
598,56	1779,68
598,75	1771,49
598,94	1816,55
599,14	1685,48
599,33	1689,57
599,52	1744,87
599,71	1769,44
599,91	1783,78
600,10	1699,81
600,29	1714,15
600,48	1812,45
600,68	1769,44
600,87	1722,34
601,06	1703,91
601,26	1796,07
601,45	1720,29
601,64	1681,38
601,83	1822,69
602,03	1695,72
602,22	1665,00
602,41	1839,08
602,60	1775,59
602,80	1781,73
602,99	1771,49
603,18	1693,67
603,37	1726,44
603,57	1732,58
603,76	1714,15
603,95	1753,06
604,14	1718,25
604,34	1779,68
604,53	1716,20
604,72	1648,61
604,91	1804,26
605,10	1761,25
605,30	1734,63
605,49	1783,78
605,68	1681,38
605,87	1732,58
606,07	1679,33
606,26	1753,06
606,45	1718,25
606,64	1683,43
606,84	1712,10
607,03	1785,83
607,22	1726,44
607,41	1662,95
607,60	1730,53
607,80	1777,64
607,99	1705,96
608,18	1695,72
608,37	1789,92
608,56	1724,39
608,76	1714,15
608,95	1851,36
609,14	1751,01
609,33	1720,29
609,52	1869,80
609,72	1732,58
609,91	1763,30
610,10	1708,01
610,29	1746,92
610,48	1742,82
610,68	1814,50
610,87	1742,82
611,06	1783,78
611,25	1638,38
611,44	1779,68
611,63	1726,44
611,83	1832,93
612,02	1660,90
612,21	1748,97
612,40	1652,71
612,59	1544,17
612,79	1632,23
612,98	1689,57
613,17	1875,94
613,36	1695,72
613,55	1853,41
613,74	1679,33
613,93	1681,38
614,13	1640,42
614,32	1757,16
614,51	1716,20
614,70	1730,53
614,89	1671,14
615,08	1761,25
615,28	2082,78
615,47	1660,90
615,66	1699,81
615,85	1689,57
616,04	1800,16
616,23	1703,91
616,42	1755,11
616,62	1748,97
616,81	1769,44
617,00	1636,33
617,19	1808,36
617,38	1753,06
617,57	1720,29
617,76	1751,01
617,95	1875,94
618,15	1734,63
618,34	1763,30
618,53	1630,18
618,72	1748,97
618,91	1726,44
619,10	1740,77
619,29	1695,72
619,48	1802,21
619,68	1652,71
619,87	1708,01
620,06	1699,81
620,25	1796,07
620,44	1718,25
620,63	1701,86
620,82	1689,57
621,01	1775,59
621,20	1736,68
621,39	1728,49
621,59	1767,40
621,78	1699,81
621,97	1652,71
622,16	1798,12
622,35	1720,29
622,54	1730,53
622,73	1794,02
622,92	1665,00
623,11	1843,17
623,30	1591,27
623,49	1734,63
623,68	1714,15
623,88	1787,88
624,07	1699,81
624,26	1781,73
624,45	1734,63
624,64	1673,19
624,83	1716,20
625,02	1740,77
625,21	1701,86
625,40	1726,44
625,59	1751,01
625,78	1720,29
625,97	1763,30
626,16	1779,68
626,35	1746,92
626,54	1755,11
626,74	1734,63
626,93	1785,83
627,12	1640,42
627,31	1779,68
627,50	1767,40
627,69	1705,96
627,88	1689,57
628,07	1718,25
628,26	1679,33
628,45	1613,80
628,64	1634,28
628,83	1820,64
629,02	1675,24
629,21	1701,86
629,40	1779,68
629,59	1662,95
629,78	1738,73
629,97	1748,97
630,16	1724,39
630,35	1722,34
630,54	1636,33
630,73	1757,16
630,92	1712,10
631,11	1646,57
631,30	1720,29
631,49	1703,91
631,68	1677,29
631,87	1691,62
632,06	1628,14
632,25	1845,22
632,44	1755,11
632,63	1681,38
632,82	1677,29
633,01	1583,08
633,20	1738,73
633,39	1665,00
633,58	1662,95
633,77	1689,57
633,96	1769,44
634,15	1775,59
634,34	1740,77
634,53	1693,67
634,72	1652,71
634,91	1630,18
635,10	1685,48
635,29	1806,31
635,48	1785,83
635,67	1722,34
635,86	1632,23
636,05	1812,45
636,24	1755,11
636,43	1771,49
636,62	1716,20
636,81	1566,70
637,00	1714,15
637,19	1636,33
637,38	1736,68
637,57	1689,57
637,76	1728,49
637,95	1712,10
638,14	1705,96
638,33	1738,73
638,52	1691,62
638,71	1648,61
638,89	1652,71
639,08	1832,93
639,27	1771,49
639,46	1705,96
639,65	1814,50
639,84	1789,92
640,03	1791,97
640,22	1665,00
640,41	1810,40
640,60	1669,09
640,79	1691,62
640,98	1714,15
641,17	1720,29
641,36	1722,34
641,55	1751,01
641,74	1683,43
641,92	1720,29
642,11	1656,81
642,30	1738,73
642,49	1681,38
642,68	1634,28
642,87	1742,82
643,06	1761,25
643,25	1677,29
643,44	1722,34
643,63	1687,53
643,82	1861,60
644,00	1671,14
644,19	1761,25
644,38	1658,85
644,57	1714,15
644,76	1697,77
644,95	1783,78
645,14	1726,44
645,33	1718,25
645,52	1734,63
645,71	1669,09
645,89	1574,89
646,08	1701,86
646,27	1734,63
646,46	1802,21
646,65	1675,24
646,84	1654,76
647,03	1658,85
647,22	1804,26
647,40	1701,86
647,59	1759,21
647,78	1599,46
647,97	1646,57
648,16	1607,66
648,35	1820,64
648,54	1791,97
648,73	1662,95
648,91	1789,92
649,10	1728,49
649,29	1693,67
649,48	1693,67
649,67	1667,05
649,86	1738,73
650,05	1779,68
650,23	1718,25
650,42	1658,85
650,61	1794,02
650,80	1773,54
650,99	1861,60
651,18	1779,68
651,36	1759,21
651,55	1681,38
651,74	1693,67
651,93	1632,23
652,12	1728,49
652,31	1744,87
652,49	1787,88
652,68	1732,58
652,87	1740,77
653,06	1710,05
653,25	1787,88
653,44	1685,48
653,62	1798,12
653,81	1705,96
654,00	1757,16
654,19	1740,77
654,38	1900,52
654,56	1722,34
654,75	1716,20
654,94	1740,77
655,13	1652,71
655,32	1765,35
655,51	1783,78
655,69	1648,61
655,88	1751,01
656,07	1628,14
656,26	1826,79
656,45	1665,00
656,63	1644,52
656,82	1808,36
657,01	1748,97
657,20	1697,77
657,38	1746,92
657,57	1724,39
657,76	1648,61
657,95	1757,16
658,14	1665,00
658,32	1744,87
658,51	1615,85
658,70	1593,32
658,89	1759,21
659,08	1746,92
659,26	1800,16
659,45	1617,90
659,64	1742,82
659,83	1691,62
660,01	1877,99
660,20	1710,05
660,39	1787,88
660,58	1585,13
660,76	1794,02
660,95	1648,61
661,14	1667,05
661,33	1601,51
661,51	1763,30
661,70	1742,82
661,89	1708,01
662,08	1689,57
662,26	1656,81
662,45	1640,42
662,64	1816,55
662,83	1738,73
663,01	1632,23
663,20	1738,73
663,39	1775,59
663,58	1710,05
663,76	1669,09
663,95	1746,92
664,14	1687,53
664,32	1671,14
664,51	1710,05
664,70	1578,98
664,89	1714,15
665,07	1693,67
665,26	1804,26
665,45	1658,85
665,64	1759,21
665,82	1695,72
666,01	1712,10
666,20	1640,42
666,38	1757,16
666,57	1740,77
666,76	2193,37
666,95	4405,18
667,13	10413,92
667,32	15222,55
667,51	17788,66
667,69	19074,78
667,88	17825,52
668,07	12609,34
668,25	9602,93
668,44	8040,33
668,63	7145,36
668,81	6766,49
669,00	6332,32
669,19	5715,88
669,38	5152,69
669,56	4577,21
669,75	3930,05
669,94	3383,24
670,12	2912,21
670,31	2502,62
670,50	2222,05
670,68	2050,02
670,87	1923,04
671,06	1845,22
671,24	1814,50
671,43	1828,84
671,62	1748,97
671,80	1685,48
671,99	1761,25
672,18	1744,87
672,36	1761,25
672,55	1740,77
672,74	1732,58
672,92	1648,61
673,11	1751,01
673,29	1658,85
673,48	1779,68
673,67	1656,81
673,85	1822,69
674,04	1658,85
674,23	1697,77
674,41	1783,78
674,60	1621,99
674,79	1648,61
674,97	1662,95
675,16	1757,16
675,34	1789,92
675,53	1710,05
675,72	1798,12
675,90	1847,27
676,09	1708,01
676,28	1757,16
676,46	1617,90
676,65	1753,06
676,83	1642,47
677,02	1714,15
677,21	1708,01
677,39	1783,78
677,58	1656,81
677,77	1662,95
677,95	1669,09
678,14	1638,38
678,32	1697,77
678,51	1669,09
678,70	1769,44
678,88	1648,61
679,07	1765,35
679,25	1681,38
679,44	1691,62
679,63	1624,04
679,81	1759,21
680,00	1718,25
680,18	1755,11
680,37	1771,49
680,55	1671,14
680,74	1665,00
680,93	1568,74
681,11	1712,10
681,30	1722,34
681,48	1652,71
681,67	1685,48
681,85	1751,01
682,04	1689,57
682,23	1730,53
682,41	1665,00
682,60	1642,47
682,78	1679,33
682,97	1665,00
683,15	1640,42
683,34	1675,24
683,53	1818,60
683,71	1578,98
683,90	1767,40
684,08	1781,73
684,27	1759,21
684,45	1787,88
684,64	1798,12
684,82	1771,49
685,01	1691,62
685,19	1660,90
685,38	1804,26
685,57	1679,33
685,75	1718,25
685,94	1730,53
686,12	1687,53
686,31	1619,94
686,49	1853,41
686,68	1527,78
686,86	1691,62
687,05	1712,10
687,23	1705,96
687,42	1730,53
687,60	1634,28
687,79	1800,16
687,97	1767,40
688,16	1677,29
688,34	1773,54
688,53	1613,80
688,71	1748,97
688,90	1830,88
689,08	1716,20
689,27	1636,33
689,45	1796,07
689,64	1734,63
689,82	1751,01
690,01	1675,24
690,19	1757,16
690,38	1640,42
690,56	1781,73
690,75	1716,20
690,93	1681,38
691,12	1658,85
691,30	1738,73
691,49	1630,18
691,67	1677,29
691,86	1773,54
692,04	1716,20
692,23	1691,62
692,41	1693,67
692,60	1783,78
692,78	1767,40
692,97	1683,43
693,15	1718,25
693,34	1847,27
693,52	1820,64
693,71	1675,24
693,89	1718,25
694,08	1677,29
694,26	1769,44
694,44	1730,53
694,63	1732,58
694,81	1613,80
695,00	1716,20
695,18	1759,21
695,37	1865,70
695,55	1789,92
695,74	1742,82
695,92	1730,53
696,10	1798,12
696,29	1656,81
696,47	1681,38
696,66	1613,80
696,84	1675,24
697,03	1683,43
697,21	1787,88
697,40	2320,35
697,58	1783,78
697,76	1685,48
697,95	1660,90
698,13	1642,47
698,32	1619,94
698,50	1728,49
698,68	1693,67
698,87	1716,20
699,05	1863,65
699,24	1685,48
699,42	1675,24
699,61	1697,77
699,79	1675,24
699,97	1693,67
700,16	1656,81
700,34	1607,66
700,53	1677,29
700,71	1759,21
700,89	1757,16
701,08	1695,72
701,26	1667,05
701,45	2224,09
701,63	1646,57
701,81	1720,29
702,00	1683,43
702,18	1703,91
702,37	1671,14
702,55	1755,11
702,73	1732,58
702,92	1687,53
703,10	1697,77
703,28	1720,29
703,47	1619,94
703,65	1773,54
703,84	1828,84
704,02	1644,52
704,20	1834,98
704,39	1732,58
704,57	1724,39
704,75	1710,05
704,94	1771,49
705,12	1697,77
705,30	1873,89
705,49	2271,20
705,67	4310,97
705,86	9662,32
706,04	12463,94
706,22	14589,73
706,41	15486,74
706,59	13866,80
706,77	9531,25
706,96	7352,21
707,14	6637,47
707,32	5842,85
707,51	5449,64
707,69	4913,08
707,87	4126,66
708,06	3569,61
708,24	2994,13
708,42	2469,85
708,61	2275,29
708,79	1861,60
708,97	1929,19
709,16	1814,50
709,34	1763,30
709,52	1767,40
709,71	1693,67
709,89	1722,34
710,07	1665,00
710,26	1638,38
710,44	1708,01
710,62	1742,82
710,80	1677,29
710,99	1806,31
711,17	1773,54
711,35	1738,73
711,54	1720,29
711,72	1796,07
711,90	1763,30
712,09	1681,38
712,27	1662,95
712,45	1734,63
712,63	1697,77
712,82	1718,25
713,00	1669,09
713,18	1726,44
713,37	1726,44
713,55	1720,29
713,73	1726,44
713,91	1736,68
714,10	1689,57
714,28	1640,42
714,46	1730,53
714,65	1783,78
714,83	1726,44
715,01	1630,18
715,19	1798,12
715,38	1673,19
715,56	1689,57
715,74	1634,28
715,92	1685,48
716,11	1830,88
716,29	1599,46
716,47	1685,48
716,65	1720,29
716,84	1595,37
717,02	1710,05
717,20	1605,61
717,38	1671,14
717,57	1683,43
717,75	1789,92
717,93	1652,71
718,11	1722,34
718,30	1650,66
718,48	1624,04
718,66	1734,63
718,84	1812,45
719,03	1689,57
719,21	1714,15
719,39	1779,68
719,57	1757,16
719,75	1703,91
719,94	1695,72
720,12	1724,39
720,30	1734,63
720,48	1830,88
720,67	1626,09
720,85	1632,23
721,03	1712,10
721,21	1660,90
721,39	1751,01
721,58	1732,58
721,76	1783,78
721,94	1714,15
722,12	1765,35
722,30	1767,40
722,49	1626,09
722,67	1732,58
722,85	1742,82
723,03	1665,00
723,21	1734,63
723,40	1705,96
723,58	1730,53
723,76	1773,54
723,94	1769,44
724,12	1724,39
724,30	1732,58
724,49	1703,91
724,67	1562,60
724,85	1699,81
725,03	1583,08
725,21	1734,63
725,40	1755,11
725,58	1652,71
725,76	1806,31
725,94	1656,81
726,12	1636,33
726,30	1665,00
726,49	1656,81
726,67	1746,92
726,85	1730,53
727,03	1800,16
727,21	2074,59
727,39	2863,06
727,57	3753,93
727,76	4224,96
727,94	4546,49
728,12	4401,08
728,30	3655,62
728,48	2936,79
728,66	2736,09
728,84	2594,78
729,03	2265,05
729,21	2179,04
729,39	1961,95
729,57	1839,08
729,75	1798,12
729,93	1908,71
730,11	1689,57
730,30	1718,25
730,48	1681,38
730,66	1802,21
730,84	1814,50
731,02	1785,83
731,20	1726,44
731,38	1687,53
731,56	1640,42
731,74	1607,66
731,93	1771,49
732,11	1759,21
732,29	1718,25
732,47	1767,40
732,65	1705,96
732,83	1798,12
733,01	1763,30
733,19	1689,57
733,37	1705,96
733,56	1730,53
733,74	1642,47
733,92	1796,07
734,10	1714,15
734,28	1734,63
734,46	1597,42
734,64	1636,33
734,82	1701,86
735,00	1660,90
735,18	1656,81
735,36	1699,81
735,54	1671,14
735,73	1740,77
735,91	1689,57
736,09	1757,16
736,27	1726,44
736,45	1789,92
736,63	1624,04
736,81	1740,77
736,99	1783,78
737,17	1865,70
737,35	1654,76
737,53	1736,68
737,71	1665,00
737,89	1853,41
738,07	1634,28
738,25	1718,25
738,43	1691,62
738,61	1621,99
738,80	1587,18
738,98	1630,18
739,16	1693,67
739,34	1617,90
739,52	1748,97
739,70	1734,63
739,88	1742,82
740,06	1816,55
740,24	1591,27
740,42	1816,55
740,60	1636,33
740,78	1685,48
740,96	1650,66
741,14	1748,97
741,32	1697,77
741,50	1665,00
741,68	1800,16
741,86	1794,02
742,04	1644,52
742,22	1658,85
742,40	1722,34
742,58	1705,96
742,76	1658,85
742,94	1781,73
743,12	1624,04
743,30	1703,91
743,48	1673,19
743,66	1665,00
743,84	1677,29
744,02	1656,81
744,20	1665,00
744,38	1626,09
744,56	1607,66
744,74	1806,31
744,92	1730,53
745,10	1734,63
745,28	1736,68
745,46	1738,73
745,64	1667,05
745,82	1748,97
746,00	1757,16
746,18	1765,35
746,36	1660,90
746,54	1671,14
746,72	1726,44
746,90	1679,33
747,08	1808,36
747,26	1722,34
747,44	1787,88
747,62	1708,01
747,80	1716,20
747,98	1763,30
748,15	1607,66
748,33	1744,87
748,51	1712,10
748,69	1732,58
748,87	1634,28
749,05	1742,82
749,23	1705,96
749,41	1691,62
749,59	1677,29
749,77	1720,29
749,95	1697,77
750,13	1679,33
750,31	1640,42
750,49	1638,38
750,67	1740,77
750,85	1800,16
751,03	1669,09
751,20	1843,17
751,38	1687,53
751,56	1699,81
751,74	1726,44
751,92	1699,81
752,10	1642,47
752,28	1800,16
752,46	1628,14
752,64	1701,86
752,82	1675,24
753,00	1798,12
753,18	1650,66
753,35	1738,73
753,53	1665,00
753,71	1613,80
753,89	1671,14
754,07	1681,38
754,25	1851,36
754,43	1757,16
754,61	1638,38
754,79	1708,01
754,97	1701,86
755,14	1726,44
755,32	1669,09
755,50	1693,67
755,68	1757,16
755,86	1726,44
756,04	1730,53
756,22	1724,39
756,40	1697,77
756,57	1771,49
756,75	1632,23
756,93	1746,92
757,11	1748,97
757,29	1687,53
757,47	1671,14
757,65	1597,42
757,82	1558,50
758,00	1687,53
758,18	1648,61
758,36	1714,15
758,54	1759,21
758,72	1677,29
758,90	1740,77
759,07	1765,35
759,25	1642,47
759,43	1742,82
759,61	1644,52
759,79	2232,29
759,97	1658,85
760,15	1693,67
760,32	1658,85
760,50	1681,38
760,68	1781,73
760,86	1574,89
761,04	1777,64
761,22	1738,73
761,39	1787,88
761,57	1716,20
761,75	1742,82
761,93	1763,30
762,11	1720,29
762,28	1724,39
762,46	1613,80
762,64	1701,86
762,82	1605,61
763,00	1734,63
763,18	1759,21
763,35	1656,81
763,53	1748,97
763,71	1683,43
763,89	1675,24
764,07	1714,15
764,24	1708,01
764,42	1777,64
764,60	1681,38
764,78	1646,57
764,96	1724,39
765,13	1734,63
765,31	1665,00
765,49	1732,58
765,67	1628,14
765,84	1673,19
766,02	1681,38
766,20	1718,25
766,38	1669,09
766,56	1656,81
766,73	1744,87
766,91	1691,62
767,09	1675,24
767,27	1806,31
767,44	1699,81
767,62	1740,77
767,80	1708,01
767,98	1671,14
768,15	1736,68
768,33	1755,11
768,51	1701,86
768,69	1740,77
768,87	1679,33
769,04	1744,87
769,22	1873,89
769,40	1791,97
769,58	1806,31
769,75	1722,34
769,93	1771,49
770,11	1703,91
770,28	1605,61
770,46	1759,21
770,64	1716,20
770,82	1744,87
770,99	1701,86
771,17	1708,01
771,35	1689,57
771,53	1708,01
771,70	1728,49
771,88	1681,38
772,06	1642,47
772,23	1675,24
772,41	1779,68
772,59	1640,42
772,77	1587,18
772,94	1685,48
773,12	1667,05
773,30	1687,53
773,47	1693,67
773,65	1669,09
773,83	1689,57
774,01	1708,01
774,18	1607,66
774,36	1736,68
774,54	1650,66
774,71	1658,85
774,89	1646,57
775,07	1701,86
775,24	1669,09
775,42	1730,53
775,60	1812,45
775,78	1716,20
775,95	1722,34
776,13	1665,00
776,31	1626,09
776,48	1730,53
776,66	1787,88
776,84	1624,04
777,01	1607,66
777,19	1642,47
777,37	1695,72
777,54	1763,30
777,72	1744,87
777,90	1691,62
778,07	1619,94
778,25	1912,80
778,43	1730,53
778,60	1615,85
778,78	1791,97
778,96	1673,19
779,13	1648,61
779,31	1834,98
779,49	1712,10
779,66	1656,81
779,84	1628,14
780,01	1732,58
780,19	1644,52
780,37	1783,78
780,54	1720,29
780,72	1632,23
780,90	1660,90
781,07	1642,47
781,25	1621,99
781,43	1726,44
781,60	1730,53
781,78	1826,79
781,95	1722,34
782,13	1669,09
782,31	1783,78
782,48	1552,36
782,66	1669,09
782,83	1812,45
783,01	1724,39
783,19	1748,97
783,36	1675,24
783,54	1638,38
783,72	1779,68
783,89	1722,34
784,07	1677,29
784,24	1656,81
784,42	1781,73
784,60	1697,77
784,77	1724,39
784,95	1648,61
785,12	1665,00
785,30	1689,57
785,47	1658,85
785,65	1662,95
785,83	1728,49
786,00	1650,66
786,18	1705,96
786,35	1595,37
786,53	1710,05
786,71	1751,01
786,88	1697,77
787,06	1783,78
787,23	1691,62
787,41	1632,23
787,58	1638,38
787,76	1617,90
787,94	1716,20
788,11	1738,73
788,29	1703,91
788,46	1658,85
788,64	1652,71
788,81	1628,14
788,99	1605,61
789,16	1570,79
789,34	1708,01
789,52	1701,86
789,69	1730,53
789,87	1542,12
790,04	1693,67
790,22	1708,01
790,39	1826,79
790,57	1693,67
790,74	1681,38
790,92	1787,88
791,09	1624,04
791,27	1673,19
791,44	1779,68
791,62	1658,85
791,79	1769,44
791,97	1667,05
792,15	1828,84
792,32	1671,14
792,50	1705,96
792,67	1824,74
792,85	1728,49
793,02	1662,95
793,20	1728,49
793,37	1636,33
793,55	1646,57
793,72	1550,31
793,90	1710,05
794,07	1617,90
794,25	1656,81
794,42	1675,24
794,60	1693,67
794,77	1732,58
794,95	1669,09
795,12	1763,30
795,30	1722,34
795,47	1742,82
795,65	1865,70
795,82	1806,31
796,00	1675,24
796,17	1591,27
796,34	1769,44
796,52	1726,44
796,69	1732,58
796,87	1714,15
797,04	1722,34
797,22	1791,97
797,39	1636,33
797,57	1734,63
797,74	1703,91
797,92	1748,97
798,09	1677,29
798,27	1767,40
798,44	1716,20
798,62	1689,57
798,79	1665,00
798,96	1791,97
799,14	1662,95
799,31	1777,64
799,49	1695,72
799,66	1728,49
799,84	1728,49
800,01	1624,04
800,19	1673,19
800,36	1599,46
800,53	1615,85
800,71	1734,63
800,88	1773,54
801,06	1578,98
801,23	1654,76
801,41	1656,81
801,58	1652,71
801,75	1632,23
801,93	1722,34
802,10	1685,48
802,28	1675,24
802,45	1648,61
802,63	1765,35
802,80	1777,64
802,97	1687,53
803,15	1648,61
803,32	1671,14
803,50	1630,18
803,67	1619,94
803,84	1671,14
804,02	1712,10
804,19	1679,33
804,37	1648,61
804,54	1640,42
804,71	1632,23
804,89	1765,35
805,06	1683,43
805,24	1656,81
805,41	1687,53
805,58	1691,62
805,76	1871,84
805,93	1646,57
806,10	1775,59
806,28	1775,59
806,45	1681,38
806,63	1644,52
806,80	1738,73
806,97	1732,58
807,15	1738,73
807,32	1673,19
807,49	1714,15
807,67	1671,14
807,84	1751,01
808,01	1593,32
808,19	1828,84
808,36	1839,08
808,54	1687,53
808,71	1611,75
808,88	1740,77
809,06	1667,05
809,23	1726,44
809,40	1667,05
809,58	1740,77
809,75	1638,38
809,92	1624,04
810,10	1837,03
810,27	1673,19
810,44	1665,00
810,62	1701,86
810,79	1679,33
810,96	1642,47
811,14	1705,96
811,31	1695,72
811,48	1755,11
811,66	1681,38
811,83	1818,60
812,00	1710,05
812,18	1724,39
812,35	1849,32
812,52	1697,77
812,69	1642,47
812,87	1705,96
813,04	1621,99
813,21	1728,49
813,39	1597,42
813,56	1656,81
813,73	1759,21
813,91	1607,66
814,08	1634,28
814,25	1624,04
814,42	1665,00
814,60	1730,53
814,77	1646,57
814,94	1687,53
815,12	1691,62
815,29	1705,96
815,46	1638,38
815,63	1734,63
815,81	1619,94
815,98	1705,96
816,15	1665,00
816,33	1751,01
816,50	1636,33
816,67	1630,18
816,84	1656,81
817,02	1669,09
817,19	1654,76
817,36	1671,14
817,53	1744,87
817,71	1595,37
817,88	1755,11
818,05	1654,76
818,22	1693,67
818,40	1849,32
818,57	1587,18
818,74	1714,15
818,91	1705,96
819,09	1714,15
819,26	1802,21
819,43	1685,48
819,60	1630,18
819,78	1687,53
819,95	1714,15
820,12	1624,04
820,29	1710,05
820,47	1755,11
820,64	1667,05
820,81	1673,19
820,98	1685,48
821,15	1693,67
821,33	1746,92
821,50	1626,09
821,67	1681,38
821,84	1675,24
822,02	1718,25
822,19	1757,16
822,36	1712,10
822,53	1697,77
822,70	1642,47
822,88	1720,29
823,05	1720,29
823,22	1689,57
823,39	1724,39
823,56	1636,33
823,74	1751,01
823,91	1611,75
824,08	1642,47
824,25	1652,71
824,42	1718,25
824,60	1593,32
824,77	1732,58
824,94	1665,00
825,11	1679,33
825,28	1519,59
825,45	1697,77
825,63	1742,82
825,80	1607,66
825,97	1624,04
826,14	1658,85
826,31	1619,94
826,48	1755,11
826,66	1652,71
826,83	1638,38
827,00	1767,40
827,17	1665,00
827,34	1662,95
827,51	1662,95
827,69	1738,73
827,86	1632,23
828,03	1687,53
828,20	1599,46
828,37	1675,24
828,54	1714,15
828,71	1714,15
828,89	1853,41
829,06	1728,49
829,23	1804,26
829,40	1589,22
829,57	1730,53
829,74	1742,82
829,91	1708,01
830,09	1660,90
830,26	1703,91
830,43	1808,36
830,60	1701,86
830,77	1730,53
830,94	1751,01
831,11	1748,97
831,28	1714,15
831,46	1742,82
831,63	1638,38
831,80	1785,83
831,97	1617,90
832,14	1697,77
832,31	1675,24
832,48	1759,21
832,65	1751,01
832,82	1701,86
832,99	1708,01
833,17	1665,00
833,34	1763,30
833,51	1628,14
833,68	1667,05
833,85	1705,96
834,02	1693,67
834,19	1576,94
834,36	1714,15
834,53	1732,58
834,70	1789,92
834,87	1800,16
835,04	1718,25
835,22	1617,90
835,39	1658,85
835,56	1652,71
835,73	1677,29
835,90	1748,97
836,07	1634,28
836,24	1773,54
836,41	1677,29
836,58	1658,85
836,75	1722,34
836,92	1742,82
837,09	1695,72
837,26	1708,01
837,43	1675,24
837,60	1699,81
837,77	1697,77
837,94	1720,29
838,12	1732,58
838,29	1728,49
838,46	1574,89
838,63	1640,42
838,80	1769,44
838,97	1748,97
839,14	1683,43
839,31	1755,11
839,48	1759,21
839,65	1693,67
839,82	1808,36
839,99	1642,47
840,16	1740,77
840,33	1673,19
840,50	1671,14
840,67	1572,84
840,84	1609,70
841,01	1689,57
841,18	1675,24
841,35	1671,14
841,52	1615,85
841,69	1800,16
841,86	1654,76
842,03	1662,95
842,20	1753,06
842,37	1710,05
842,54	1710,05
842,71	1714,15
842,88	1566,70
843,05	1691,62
843,22	1673,19
843,39	1787,88
843,56	1710,05
843,73	1738,73
843,90	1681,38
844,07	1681,38
844,24	1691,62
844,41	1718,25
844,58	1722,34
844,75	1701,86
844,92	1718,25
845,09	1660,90
845,26	1628,14
845,43	1779,68
845,60	1652,71
845,77	1791,97
845,94	1699,81
846,10	1697,77
846,27	1624,04
846,44	1671,14
846,61	1677,29
846,78	1665,00
846,95	1757,16
847,12	1714,15
847,29	1738,73
847,46	1581,03
847,63	1718,25
847,80	1648,61
847,97	1705,96
848,14	1839,08
848,31	1644,52
848,48	1638,38
848,65	1730,53
848,82	1691,62
848,98	1826,79
849,15	1673,19
849,32	1828,84
849,49	1804,26
849,66	1697,77
849,83	1763,30
850,00	1628,14
850,17	1720,29
850,34	1742,82
850,51	1673,19
850,68	1708,01
850,85	1853,41
851,01	1732,58
851,18	1671,14
851,35	1667,05
851,52	1728,49
851,69	1781,73
851,86	1646,57
852,03	1703,91
852,20	1628,14
852,37	1789,92
852,53	1677,29
852,70	1681,38
852,87	1681,38
853,04	1826,79
853,21	1708,01
853,38	1699,81
853,55	1738,73
853,72	1814,50
853,89	1648,61
854,05	1689,57
854,22	1613,80
854,39	1671,14
854,56	1751,01
854,73	1796,07
854,90	1675,24
855,07	1685,48
855,23	1665,00
855,40	1710,05
855,57	1650,66
855,74	1595,37
855,91	1890,28
856,08	1607,66
856,25	1558,50
856,41	1646,57
856,58	1632,23
856,75	1710,05
856,92	1689,57
857,09	1771,49
857,26	1658,85
857,42	1652,71
857,59	1728,49
857,76	1730,53
857,93	1701,86
858,10	1624,04
858,27	1718,25
858,43	1763,30
858,60	1589,22
858,77	1621,99
858,94	1619,94
859,11	1693,67
859,27	1742,82
859,44	1689,57
859,61	1826,79
859,78	1724,39
859,95	1701,86
860,12	1695,72
860,28	1742,82
860,45	1875,94
860,62	1681,38
860,79	1695,72
860,95	1607,66
861,12	1671,14
861,29	1681,38
861,46	1650,66
861,63	1673,19
861,79	1736,68
861,96	1628,14
862,13	1738,73
862,30	1716,20
862,47	1738,73
862,63	1683,43
862,80	1642,47
862,97	1765,35
863,14	1738,73
863,30	1638,38
863,47	1658,85
863,64	1753,06
863,81	1691,62
863,97	1730,53
864,14	1718,25
864,31	1640,42
864,48	1832,93
864,65	1710,05
864,81	1708,01
864,98	1662,95
865,15	1783,78
865,32	1699,81
865,48	1746,92
865,65	1783,78
865,82	1656,81
865,98	1681,38
866,15	1755,11
866,32	1730,53
866,49	1693,67
866,65	1675,24
866,82	1665,00
866,99	1669,09
867,16	1660,90
867,32	1662,95
867,49	1662,95
867,66	1632,23
867,83	1617,90
867,99	1689,57
868,16	1648,61
868,33	1673,19
868,49	1783,78
868,66	1671,14
868,83	1789,92
868,99	1699,81
869,16	1673,19
869,33	1728,49
869,50	1789,92
869,66	1665,00
869,83	1654,76
870,00	1634,28
870,16	1683,43
870,33	1699,81
870,50	1681,38
870,66	1748,97
870,83	1744,87
871,00	1708,01
871,17	1695,72
871,33	1689,57
871,50	1710,05
871,67	1654,76
871,83	1667,05
872,00	1802,21
872,17	1615,85
872,33	1710,05
872,50	1771,49
872,67	1746,92
872,83	1716,20
873,00	1603,56
873,17	1681,38
873,33	1738,73
873,50	1720,29
873,67	1658,85
873,83	1722,34
874,00	1705,96
874,16	1683,43
874,33	1689,57
874,50	1642,47
874,66	1634,28
874,83	1708,01
875,00	1746,92
875,16	1734,63
875,33	1753,06
875,50	1548,26
875,66	1683,43
875,83	1683,43
875,99	1771,49
876,16	1679,33
876,33	1669,09
876,49	1646,57
876,66	1665,00
876,83	1650,66
876,99	1548,26
877,16	1693,67
877,32	1677,29
877,49	1654,76
877,66	1705,96
877,82	1708,01
877,99	1720,29
878,15	1708,01
878,32	1689,57
878,49	1726,44
878,65	1669,09
878,82	1810,40
878,98	1640,42
879,15	1658,85
879,32	1675,24
879,48	1744,87
879,65	1714,15
879,81	1654,76
879,98	1738,73
880,15	1658,85
880,31	1720,29
880,48	1632,23
880,64	1775,59
880,81	1779,68
880,97	1824,74
881,14	1783,78
881,31	1640,42
881,47	1849,32
881,64	1732,58
881,80	1599,46
881,97	1720,29
882,13	1746,92
882,30	1669,09
882,47	1665,00
882,63	1677,29
882,80	1591,27
882,96	1650,66
883,13	1691,62
883,29	1740,77
883,46	1730,53
883,62	1847,27
883,79	1710,05
883,95	1843,17
884,12	1650,66
884,29	1834,98
884,45	1736,68
884,62	1708,01
884,78	1611,75
884,95	1720,29
885,11	1718,25
885,28	1708,01
885,44	1691,62
885,61	1722,34
885,77	1777,64
885,94	1726,44
886,10	1746,92
886,27	1720,29
886,43	1738,73
886,60	1757,16
886,76	1691,62
886,93	1646,57
887,09	1763,30
887,26	1595,37
887,42	1662,95
887,59	1695,72
887,75	1802,21
887,92	1816,55
888,08	1730,53
888,25	1796,07
888,41	1748,97
888,58	1667,05
888,74	1726,44
888,91	1615,85
>>>>>End Processed Spectral Data<<<<<
