SpectraSuite Data File
++++++++++++++++++++++++++++++++++++
Date: Mon Jun 06 17:01:37 CEST 2016
User: root
Dark Spectrum Present: No
Reference Spectrum Present: No
Number of Sampled Component Spectra: 1
Spectrometers: USB4C02835
Integration Time (usec): 100000 (USB4C02835)
Spectra Averaged: 1 (USB4C02835)
Boxcar Smoothing: 0 (USB4C02835)
Correct for Electrical Dark: No (USB4C02835)
Strobe/Lamp Enabled: No (USB4C02835)
Correct for Detector Non-linearity: No (USB4C02835)
Correct for Stray Light: No (USB4C02835)
Number of Pixels in Processed Spectrum: 3648
>>>>>Begin Processed Spectral Data<<<<<
177,47	1484,78
177,69	1484,78
177,91	1484,78
178,13	1402,86
178,36	1486,83
178,58	1701,86
178,80	1798,12
179,02	1656,81
179,24	1732,58
179,46	1710,05
179,68	1755,11
179,90	1730,53
180,13	1630,18
180,35	1748,97
180,57	1636,33
180,79	1718,25
181,01	1740,77
181,23	1759,21
181,45	1697,77
181,67	1722,34
181,90	1738,73
182,12	1644,52
182,34	1642,47
182,56	1751,01
182,78	1695,72
183,00	1742,82
183,22	1705,96
183,44	1634,28
183,66	1802,21
183,89	1775,59
184,11	1648,61
184,33	1675,24
184,55	1814,50
184,77	1708,01
184,99	1695,72
185,21	1650,66
185,43	1757,16
185,65	1728,49
185,87	1730,53
186,10	1794,02
186,32	1884,13
186,54	1693,67
186,76	1767,40
186,98	1716,20
187,20	1755,11
187,42	1638,38
187,64	1703,91
187,86	1712,10
188,08	1734,63
188,30	1687,53
188,52	1798,12
188,75	1810,40
188,97	1722,34
189,19	1722,34
189,41	1621,99
189,63	1763,30
189,85	1626,09
190,07	1685,48
190,29	1648,61
190,51	1722,34
190,73	1642,47
190,95	1775,59
191,17	1732,58
191,39	1716,20
191,61	1624,04
191,84	1742,82
192,06	1734,63
192,28	1636,33
192,50	1830,88
192,72	1634,28
192,94	1708,01
193,16	1740,77
193,38	1781,73
193,60	1642,47
193,82	1775,59
194,04	1824,74
194,26	1677,29
194,48	1679,33
194,70	1693,67
194,92	1650,66
195,14	1699,81
195,36	1671,14
195,58	1718,25
195,80	1730,53
196,02	1693,67
196,24	1736,68
196,46	1720,29
196,69	1650,66
196,91	1830,88
197,13	1779,68
197,35	1632,23
197,57	1824,74
197,79	1736,68
198,01	1800,16
198,23	1871,84
198,45	1658,85
198,67	1591,27
198,89	1648,61
199,11	1765,35
199,33	1671,14
199,55	1673,19
199,77	1656,81
199,99	1744,87
200,21	1689,57
200,43	1765,35
200,65	1656,81
200,87	1644,52
201,09	1705,96
201,31	1669,09
201,53	1753,06
201,75	1732,58
201,97	1738,73
202,19	1658,85
202,41	1708,01
202,63	1787,88
202,85	1683,43
203,07	1701,86
203,29	1685,48
203,51	1624,04
203,73	1654,76
203,95	1857,51
204,17	1787,88
204,39	1734,63
204,61	1665,00
204,83	1681,38
205,05	1748,97
205,27	1755,11
205,49	1849,32
205,71	1683,43
205,93	1656,81
206,15	1710,05
206,37	1763,30
206,59	1675,24
206,81	1691,62
207,03	1644,52
207,25	1677,29
207,47	1863,65
207,69	1710,05
207,91	1789,92
208,13	1800,16
208,34	1722,34
208,56	1644,52
208,78	1658,85
209,00	1699,81
209,22	1718,25
209,44	1763,30
209,66	1712,10
209,88	1697,77
210,10	1667,05
210,32	1794,02
210,54	1816,55
210,76	1734,63
210,98	1691,62
211,20	1585,13
211,42	1761,25
211,64	1763,30
211,86	1683,43
212,08	1785,83
212,30	1759,21
212,52	1687,53
212,74	1724,39
212,96	1669,09
213,17	1779,68
213,39	1714,15
213,61	1724,39
213,83	1695,72
214,05	1632,23
214,27	1794,02
214,49	1619,94
214,71	1617,90
214,93	1779,68
215,15	1671,14
215,37	1804,26
215,59	1603,56
215,81	1746,92
216,03	1775,59
216,24	1708,01
216,46	1734,63
216,68	1746,92
216,90	1744,87
217,12	1832,93
217,34	1742,82
217,56	1726,44
217,78	1802,21
218,00	1785,83
218,22	1726,44
218,44	1714,15
218,66	1771,49
218,87	1796,07
219,09	1722,34
219,31	1714,15
219,53	1769,44
219,75	1656,81
219,97	1652,71
220,19	1695,72
220,41	1699,81
220,63	1804,26
220,85	1775,59
221,06	1732,58
221,28	1781,73
221,50	1722,34
221,72	1718,25
221,94	1724,39
222,16	1683,43
222,38	1804,26
222,60	1716,20
222,82	1689,57
223,03	1705,96
223,25	1669,09
223,47	1818,60
223,69	1877,99
223,91	1789,92
224,13	1673,19
224,35	1689,57
224,57	1720,29
224,78	1775,59
225,00	1683,43
225,22	1738,73
225,44	1705,96
225,66	1796,07
225,88	1669,09
226,10	1687,53
226,32	1730,53
226,53	1816,55
226,75	1697,77
226,97	1679,33
227,19	1755,11
227,41	1759,21
227,63	1652,71
227,85	1671,14
228,06	1759,21
228,28	1712,10
228,50	1693,67
228,72	1665,00
228,94	1660,90
229,16	1652,71
229,37	1646,57
229,59	1619,94
229,81	1767,40
230,03	1660,90
230,25	1581,03
230,47	1697,77
230,69	1652,71
230,90	1718,25
231,12	1615,85
231,34	1669,09
231,56	1712,10
231,78	1660,90
232,00	1679,33
232,21	1695,72
232,43	1685,48
232,65	1593,32
232,87	1703,91
233,09	1701,86
233,30	1697,77
233,52	1783,78
233,74	1722,34
233,96	1693,67
234,18	1681,38
234,40	1677,29
234,61	1791,97
234,83	1603,56
235,05	1714,15
235,27	1902,56
235,49	1783,78
235,70	1759,21
235,92	1728,49
236,14	1845,22
236,36	1861,60
236,58	1667,05
236,79	1767,40
237,01	1740,77
237,23	1730,53
237,45	1794,02
237,67	1673,19
237,88	1708,01
238,10	1738,73
238,32	1644,52
238,54	1691,62
238,76	1714,15
238,97	1632,23
239,19	1654,76
239,41	1722,34
239,63	1791,97
239,85	1632,23
240,06	1753,06
240,28	1708,01
240,50	1781,73
240,72	1806,31
240,93	1744,87
241,15	1755,11
241,37	1689,57
241,59	1826,79
241,81	1746,92
242,02	1708,01
242,24	1759,21
242,46	1775,59
242,68	1705,96
242,89	1673,19
243,11	1865,70
243,33	1716,20
243,55	1724,39
243,76	1808,36
243,98	1675,24
244,20	1705,96
244,42	1697,77
244,64	1730,53
244,85	1705,96
245,07	1722,34
245,29	1763,30
245,51	1726,44
245,72	1693,67
245,94	1767,40
246,16	1673,19
246,38	1755,11
246,59	1650,66
246,81	1619,94
247,03	1734,63
247,24	1632,23
247,46	1742,82
247,68	1662,95
247,90	1744,87
248,11	1644,52
248,33	1714,15
248,55	1624,04
248,77	1716,20
248,98	1701,86
249,20	1785,83
249,42	1718,25
249,64	1681,38
249,85	1677,29
250,07	1691,62
250,29	1755,11
250,50	1705,96
250,72	1677,29
250,94	1726,44
251,16	1847,27
251,37	1710,05
251,59	1746,92
251,81	1710,05
252,02	1814,50
252,24	1669,09
252,46	1691,62
252,68	1626,09
252,89	1716,20
253,11	1607,66
253,33	1802,21
253,54	1802,21
253,76	1693,67
253,98	1695,72
254,20	1687,53
254,41	1615,85
254,63	1714,15
254,85	1695,72
255,06	1665,00
255,28	1687,53
255,50	1708,01
255,71	1615,85
255,93	1691,62
256,15	1669,09
256,36	1705,96
256,58	1628,14
256,80	1765,35
257,02	1785,83
257,23	1732,58
257,45	1728,49
257,67	1767,40
257,88	1650,66
258,10	1796,07
258,32	1718,25
258,53	1673,19
258,75	1832,93
258,97	1648,61
259,18	1734,63
259,40	1697,77
259,62	1802,21
259,83	1798,12
260,05	1742,82
260,27	1951,71
260,48	1796,07
260,70	1621,99
260,92	1734,63
261,13	1697,77
261,35	1673,19
261,57	1722,34
261,78	1617,90
262,00	1697,77
262,22	1710,05
262,43	1644,52
262,65	1677,29
262,86	1720,29
263,08	1830,88
263,30	1722,34
263,51	1609,70
263,73	1634,28
263,95	1851,36
264,16	1583,08
264,38	1730,53
264,60	1660,90
264,81	1683,43
265,03	1785,83
265,25	1765,35
265,46	1687,53
265,68	1800,16
265,89	1677,29
266,11	1689,57
266,33	1804,26
266,54	1765,35
266,76	1726,44
266,98	1806,31
267,19	1751,01
267,41	1796,07
267,62	1708,01
267,84	1632,23
268,06	1722,34
268,27	1714,15
268,49	1765,35
268,70	1802,21
268,92	1755,11
269,14	1665,00
269,35	1660,90
269,57	1665,00
269,79	1796,07
270,00	1681,38
270,22	1767,40
270,43	1673,19
270,65	1578,98
270,87	1654,76
271,08	1708,01
271,30	1777,64
271,51	1656,81
271,73	1701,86
271,95	1779,68
272,16	1728,49
272,38	1697,77
272,59	1638,38
272,81	1728,49
273,02	1705,96
273,24	1789,92
273,46	1773,54
273,67	1607,66
273,89	1656,81
274,10	1710,05
274,32	1798,12
274,54	1755,11
274,75	1771,49
274,97	1665,00
275,18	1720,29
275,40	1697,77
275,61	1685,48
275,83	1667,05
276,05	1708,01
276,26	1679,33
276,48	1767,40
276,69	1689,57
276,91	1691,62
277,12	1746,92
277,34	1738,73
277,55	1810,40
277,77	1689,57
277,99	1708,01
278,20	1656,81
278,42	1673,19
278,63	1658,85
278,85	1691,62
279,06	1570,79
279,28	1699,81
279,49	1699,81
279,71	1759,21
279,93	1716,20
280,14	1722,34
280,36	1626,09
280,57	1773,54
280,79	1677,29
281,00	1644,52
281,22	1673,19
281,43	1779,68
281,65	1533,93
281,86	1685,48
282,08	1773,54
282,29	1695,72
282,51	1527,78
282,73	1621,99
282,94	1628,14
283,16	1681,38
283,37	1882,08
283,59	1699,81
283,80	1791,97
284,02	1611,75
284,23	1744,87
284,45	1701,86
284,66	1642,47
284,88	1748,97
285,09	1708,01
285,31	1755,11
285,52	1746,92
285,74	1677,29
285,95	1683,43
286,17	1712,10
286,38	1779,68
286,60	1673,19
286,81	1644,52
287,03	1753,06
287,24	1669,09
287,46	1748,97
287,67	1708,01
287,89	1816,55
288,10	1724,39
288,32	1732,58
288,53	1841,12
288,75	1691,62
288,96	1718,25
289,18	1726,44
289,39	1718,25
289,61	1794,02
289,82	1828,84
290,04	1767,40
290,25	1728,49
290,47	1710,05
290,68	1624,04
290,90	1779,68
291,11	1585,13
291,33	1761,25
291,54	1683,43
291,76	1738,73
291,97	1726,44
292,18	1802,21
292,40	1640,42
292,61	1691,62
292,83	1810,40
293,04	1753,06
293,26	1732,58
293,47	1662,95
293,69	1644,52
293,90	1701,86
294,12	1687,53
294,33	1658,85
294,55	1640,42
294,76	1714,15
294,97	1759,21
295,19	1822,69
295,40	1642,47
295,62	1791,97
295,83	1699,81
296,05	1726,44
296,26	1687,53
296,48	1726,44
296,69	1726,44
296,90	1753,06
297,12	1757,16
297,33	1820,64
297,55	1710,05
297,76	1724,39
297,98	1748,97
298,19	1732,58
298,41	1689,57
298,62	1642,47
298,83	1757,16
299,05	1744,87
299,26	1652,71
299,48	1648,61
299,69	1722,34
299,90	1699,81
300,12	1697,77
300,33	1708,01
300,55	1730,53
300,76	1724,39
300,98	1640,42
301,19	1716,20
301,40	1724,39
301,62	1755,11
301,83	1734,63
302,05	1689,57
302,26	1785,83
302,47	1742,82
302,69	1667,05
302,90	1697,77
303,12	1574,89
303,33	1861,60
303,54	1796,07
303,76	1734,63
303,97	1705,96
304,19	1751,01
304,40	1617,90
304,61	1738,73
304,83	1791,97
305,04	1701,86
305,26	1714,15
305,47	1628,14
305,68	1671,14
305,90	1691,62
306,11	1751,01
306,33	1648,61
306,54	1636,33
306,75	1683,43
306,97	1603,56
307,18	1703,91
307,39	1656,81
307,61	1705,96
307,82	1691,62
308,04	1763,30
308,25	1609,70
308,46	1753,06
308,68	1683,43
308,89	1757,16
309,10	1791,97
309,32	1746,92
309,53	1697,77
309,74	1681,38
309,96	1712,10
310,17	1800,16
310,39	1693,67
310,60	1687,53
310,81	1755,11
311,03	1648,61
311,24	1726,44
311,45	1730,53
311,67	1826,79
311,88	1738,73
312,09	1714,15
312,31	1638,38
312,52	1724,39
312,73	1703,91
312,95	1665,00
313,16	1701,86
313,37	1763,30
313,59	1771,49
313,80	1748,97
314,01	1834,98
314,23	1660,90
314,44	1685,48
314,65	1642,47
314,87	1654,76
315,08	1742,82
315,29	1658,85
315,51	1611,75
315,72	1675,24
315,93	1738,73
316,15	1769,44
316,36	1681,38
316,57	1705,96
316,79	1800,16
317,00	1681,38
317,21	1812,45
317,43	1689,57
317,64	1656,81
317,85	1640,42
318,07	1595,37
318,28	1738,73
318,49	1814,50
318,70	1949,67
318,92	1814,50
319,13	1867,75
319,34	1882,08
319,56	1812,45
319,77	1773,54
319,98	1751,01
320,20	1765,35
320,41	1767,40
320,62	1718,25
320,83	1681,38
321,05	1816,55
321,26	1746,92
321,47	1726,44
321,69	1779,68
321,90	1593,32
322,11	1720,29
322,32	1734,63
322,54	1787,88
322,75	1722,34
322,96	1861,60
323,18	1734,63
323,39	1556,46
323,60	1669,09
323,81	1722,34
324,03	1687,53
324,24	1724,39
324,45	1763,30
324,66	1751,01
324,88	1691,62
325,09	1685,48
325,30	1710,05
325,52	1656,81
325,73	1722,34
325,94	1634,28
326,15	1621,99
326,37	1656,81
326,58	1746,92
326,79	1824,74
327,00	1640,42
327,22	1775,59
327,43	1626,09
327,64	1636,33
327,85	1783,78
328,07	1779,68
328,28	1775,59
328,49	1656,81
328,70	1667,05
328,92	1689,57
329,13	1669,09
329,34	1736,68
329,55	1818,60
329,76	1806,31
329,98	1712,10
330,19	1677,29
330,40	1728,49
330,61	1740,77
330,83	1710,05
331,04	1636,33
331,25	1685,48
331,46	1710,05
331,68	1591,27
331,89	1759,21
332,10	1675,24
332,31	1574,89
332,52	1734,63
332,74	1767,40
332,95	1658,85
333,16	1685,48
333,37	1662,95
333,58	1671,14
333,80	1746,92
334,01	1736,68
334,22	1703,91
334,43	1605,61
334,64	1728,49
334,86	1558,50
335,07	1652,71
335,28	1753,06
335,49	1595,37
335,70	1748,97
335,92	1804,26
336,13	1863,65
336,34	1775,59
336,55	1675,24
336,76	1730,53
336,98	1642,47
337,19	1787,88
337,40	1783,78
337,61	1920,99
337,82	1718,25
338,04	1769,44
338,25	1574,89
338,46	1681,38
338,67	1755,11
338,88	1710,05
339,09	1730,53
339,31	1685,48
339,52	1681,38
339,73	1695,72
339,94	1685,48
340,15	1740,77
340,36	1628,14
340,58	1714,15
340,79	1673,19
341,00	1783,78
341,21	1640,42
341,42	1773,54
341,63	1773,54
341,85	1751,01
342,06	1683,43
342,27	1638,38
342,48	1765,35
342,69	1689,57
342,90	1697,77
343,12	1812,45
343,33	1759,21
343,54	1712,10
343,75	1814,50
343,96	1632,23
344,17	1628,14
344,38	1697,77
344,60	1720,29
344,81	1630,18
345,02	1751,01
345,23	1814,50
345,44	1734,63
345,65	1681,38
345,86	1744,87
346,07	1638,38
346,29	1773,54
346,50	1736,68
346,71	1771,49
346,92	1785,83
347,13	1843,17
347,34	1699,81
347,55	1667,05
347,76	1730,53
347,98	1601,51
348,19	1642,47
348,40	1849,32
348,61	1640,42
348,82	1783,78
349,03	1806,31
349,24	1710,05
349,45	1800,16
349,66	1546,22
349,88	1789,92
350,09	1701,86
350,30	1828,84
350,51	1810,40
350,72	1738,73
350,93	1675,24
351,14	1705,96
351,35	1738,73
351,56	1730,53
351,77	1718,25
351,99	1722,34
352,20	1816,55
352,41	1783,78
352,62	1628,14
352,83	1730,53
353,04	1738,73
353,25	1685,48
353,46	1779,68
353,67	1751,01
353,88	1615,85
354,09	1742,82
354,30	1681,38
354,52	1806,31
354,73	1669,09
354,94	1681,38
355,15	1685,48
355,36	1751,01
355,57	1791,97
355,78	1695,72
355,99	1705,96
356,20	1603,56
356,41	1755,11
356,62	1759,21
356,83	1669,09
357,04	1818,60
357,25	1578,98
357,46	1669,09
357,68	1644,52
357,89	1609,70
358,10	1726,44
358,31	1665,00
358,52	1736,68
358,73	1652,71
358,94	1705,96
359,15	1660,90
359,36	1687,53
359,57	1642,47
359,78	1699,81
359,99	1714,15
360,20	1658,85
360,41	1693,67
360,62	1726,44
360,83	1757,16
361,04	1658,85
361,25	1771,49
361,46	1755,11
361,67	1671,14
361,88	1806,31
362,09	1720,29
362,30	1759,21
362,51	1771,49
362,72	1771,49
362,93	1794,02
363,14	1767,40
363,35	1695,72
363,56	1693,67
363,78	1738,73
363,99	1812,45
364,20	1646,57
364,41	1718,25
364,62	1740,77
364,83	1775,59
365,04	1593,32
365,25	1701,86
365,46	1837,03
365,67	1697,77
365,88	1699,81
366,09	1724,39
366,30	1726,44
366,51	1697,77
366,72	1595,37
366,93	1744,87
367,14	1701,86
367,35	1765,35
367,56	1775,59
367,77	1802,21
367,98	1679,33
368,18	1701,86
368,39	1736,68
368,60	1660,90
368,81	1736,68
369,02	1767,40
369,23	1759,21
369,44	1568,74
369,65	1701,86
369,86	1775,59
370,07	1699,81
370,28	1665,00
370,49	1736,68
370,70	1773,54
370,91	1621,99
371,12	1636,33
371,33	1771,49
371,54	1662,95
371,75	1834,98
371,96	1607,66
372,17	1624,04
372,38	1697,77
372,59	1685,48
372,80	1683,43
373,01	1691,62
373,22	1732,58
373,43	1681,38
373,64	1648,61
373,85	1789,92
374,06	1759,21
374,26	1724,39
374,47	1669,09
374,68	1845,22
374,89	1757,16
375,10	1775,59
375,31	1740,77
375,52	1695,72
375,73	1718,25
375,94	1632,23
376,15	1806,31
376,36	1671,14
376,57	1683,43
376,78	1626,09
376,99	1720,29
377,20	1814,50
377,40	1708,01
377,61	1820,64
377,82	1703,91
378,03	1693,67
378,24	1736,68
378,45	1675,24
378,66	1714,15
378,87	1617,90
379,08	1751,01
379,29	1726,44
379,50	1748,97
379,71	1660,90
379,91	1708,01
380,12	1726,44
380,33	1705,96
380,54	1699,81
380,75	1689,57
380,96	1724,39
381,17	1791,97
381,38	1753,06
381,59	1779,68
381,80	1787,88
382,00	1859,56
382,21	1732,58
382,42	1851,36
382,63	1925,09
382,84	1796,07
383,05	1757,16
383,26	1818,60
383,47	1775,59
383,68	1730,53
383,88	1697,77
384,09	1736,68
384,30	1722,34
384,51	1665,00
384,72	1601,51
384,93	1660,90
385,14	1738,73
385,35	1708,01
385,55	1681,38
385,76	1763,30
385,97	1710,05
386,18	1578,98
386,39	1689,57
386,60	1740,77
386,81	1681,38
387,02	1599,46
387,22	1689,57
387,43	1751,01
387,64	1761,25
387,85	1912,80
388,06	2164,70
388,27	4188,10
388,48	6715,29
388,68	8085,38
388,89	9480,05
389,10	9539,44
389,31	8441,73
389,52	7503,76
389,73	6457,25
389,93	6070,18
390,14	5771,18
390,35	5078,96
390,56	4517,82
390,77	3751,88
390,98	3051,47
391,18	2519,00
391,39	2140,13
391,60	1886,18
391,81	1814,50
392,02	1779,68
392,23	1861,60
392,43	1685,48
392,64	1865,70
392,85	1654,76
393,06	1812,45
393,27	1708,01
393,47	1693,67
393,68	1677,29
393,89	1701,86
394,10	1755,11
394,31	1755,11
394,52	1607,66
394,72	1669,09
394,93	1785,83
395,14	1675,24
395,35	1767,40
395,56	1675,24
395,76	1789,92
395,97	1777,64
396,18	1828,84
396,39	1820,64
396,60	2066,40
396,80	1877,99
397,01	1824,74
397,22	1914,85
397,43	1851,36
397,64	1718,25
397,84	1779,68
398,05	1863,65
398,26	1845,22
398,47	1763,30
398,67	1742,82
398,88	1675,24
399,09	1763,30
399,30	1806,31
399,51	1695,72
399,71	1624,04
399,92	1710,05
400,13	1751,01
400,34	1705,96
400,54	1759,21
400,75	1781,73
400,96	1755,11
401,17	1794,02
401,37	1761,25
401,58	1744,87
401,79	1701,86
402,00	1824,74
402,21	1945,57
402,41	1914,85
402,62	1918,95
402,83	2033,63
403,04	2007,01
403,24	2027,49
403,45	1867,75
403,66	1927,14
403,87	1880,04
404,07	1886,18
404,28	1896,42
404,49	1886,18
404,70	1826,79
404,90	1830,88
405,11	1818,60
405,32	1767,40
405,52	1673,19
405,73	1728,49
405,94	1628,14
406,15	1714,15
406,35	1777,64
406,56	1757,16
406,77	1748,97
406,98	1751,01
407,18	1628,14
407,39	1855,46
407,60	1718,25
407,80	1759,21
408,01	1685,48
408,22	1708,01
408,43	1683,43
408,63	1726,44
408,84	1796,07
409,05	1804,26
409,25	1720,29
409,46	1648,61
409,67	1669,09
409,88	1720,29
410,08	1779,68
410,29	1662,95
410,50	1796,07
410,70	1751,01
410,91	1697,77
411,12	1757,16
411,32	1742,82
411,53	1687,53
411,74	1746,92
411,95	1806,31
412,15	1708,01
412,36	1759,21
412,57	1744,87
412,77	1847,27
412,98	1808,36
413,19	1726,44
413,39	1728,49
413,60	1855,46
413,81	1824,74
414,01	1632,23
414,22	1769,44
414,43	1708,01
414,63	1732,58
414,84	1705,96
415,05	1697,77
415,25	1611,75
415,46	1734,63
415,67	1691,62
415,87	1740,77
416,08	1699,81
416,29	1703,91
416,49	1693,67
416,70	1660,90
416,91	1708,01
417,11	1652,71
417,32	1703,91
417,53	1753,06
417,73	1773,54
417,94	1703,91
418,15	1683,43
418,35	1687,53
418,56	1740,77
418,77	1814,50
418,97	1644,52
419,18	1765,35
419,38	1556,46
419,59	1675,24
419,80	1822,69
420,00	1738,73
420,21	1699,81
420,42	1798,12
420,62	1771,49
420,83	1730,53
421,04	1617,90
421,24	1697,77
421,45	1789,92
421,65	1712,10
421,86	1689,57
422,07	1734,63
422,27	1720,29
422,48	1671,14
422,69	1695,72
422,89	1673,19
423,10	1695,72
423,30	1628,14
423,51	1708,01
423,72	1734,63
423,92	1728,49
424,13	1640,42
424,33	1695,72
424,54	1796,07
424,75	1720,29
424,95	1753,06
425,16	1689,57
425,36	1660,90
425,57	1726,44
425,78	1736,68
425,98	1746,92
426,19	1779,68
426,39	1554,41
426,60	1740,77
426,81	1828,84
427,01	1662,95
427,22	1683,43
427,42	1648,61
427,63	1652,71
427,83	1765,35
428,04	1873,89
428,25	1839,08
428,45	1873,89
428,66	1789,92
428,86	1710,05
429,07	1730,53
429,28	1746,92
429,48	1748,97
429,69	1671,14
429,89	1763,30
430,10	1638,38
430,30	1765,35
430,51	1794,02
430,71	1640,42
430,92	1697,77
431,13	1765,35
431,33	1769,44
431,54	1705,96
431,74	1767,40
431,95	1812,45
432,15	1656,81
432,36	1720,29
432,56	1771,49
432,77	1808,36
432,98	1843,17
433,18	1708,01
433,39	1740,77
433,59	1728,49
433,80	1861,60
434,00	1787,88
434,21	1671,14
434,41	1730,53
434,62	1880,04
434,82	1658,85
435,03	1644,52
435,23	1787,88
435,44	1593,32
435,64	1695,72
435,85	1746,92
436,06	1755,11
436,26	1810,40
436,47	1673,19
436,67	1693,67
436,88	1703,91
437,08	1789,92
437,29	1859,56
437,49	1691,62
437,70	1789,92
437,90	1832,93
438,11	1875,94
438,31	1847,27
438,52	1916,90
438,72	1781,73
438,93	1953,76
439,13	1761,25
439,34	1882,08
439,54	1751,01
439,75	1841,12
439,95	1882,08
440,16	1753,06
440,36	1755,11
440,57	1718,25
440,77	1849,32
440,98	1665,00
441,18	1751,01
441,39	1675,24
441,59	1689,57
441,80	1779,68
442,00	1718,25
442,21	1796,07
442,41	1595,37
442,62	1669,09
442,82	1673,19
443,02	1726,44
443,23	1667,05
443,43	1710,05
443,64	1744,87
443,84	1701,86
444,05	1800,16
444,25	1732,58
444,46	1675,24
444,66	1755,11
444,87	1822,69
445,07	1705,96
445,28	1746,92
445,48	1791,97
445,69	1726,44
445,89	1853,41
446,09	1783,78
446,30	2013,15
446,50	2643,93
446,71	3749,83
446,91	4270,01
447,12	4706,23
447,32	4868,02
447,53	4317,12
447,73	3846,09
447,93	3446,73
448,14	3307,47
448,34	3198,93
448,55	2985,94
448,75	2818,00
448,96	2633,69
449,16	2389,98
449,36	2271,20
449,57	2117,60
449,77	1961,95
449,98	1789,92
450,18	1834,98
450,39	1783,78
450,59	1775,59
450,79	1771,49
451,00	1777,64
451,20	1837,03
451,41	1742,82
451,61	1779,68
451,81	1730,53
452,02	1775,59
452,22	1722,34
452,43	1726,44
452,63	1705,96
452,84	1691,62
453,04	1714,15
453,24	1779,68
453,45	1759,21
453,65	1767,40
453,86	1734,63
454,06	1812,45
454,26	1730,53
454,47	1691,62
454,67	1822,69
454,87	1777,64
455,08	1789,92
455,28	1873,89
455,49	1771,49
455,69	1722,34
455,89	1863,65
456,10	1783,78
456,30	1732,58
456,51	1732,58
456,71	1746,92
456,91	1722,34
457,12	1734,63
457,32	1746,92
457,52	1757,16
457,73	1730,53
457,93	1744,87
458,14	1689,57
458,34	1660,90
458,54	1769,44
458,75	1742,82
458,95	1787,88
459,15	1714,15
459,36	1740,77
459,56	1726,44
459,76	1830,88
459,97	1708,01
460,17	1708,01
460,37	1755,11
460,58	1687,53
460,78	1796,07
460,99	1710,05
461,19	1740,77
461,39	1718,25
461,60	1650,66
461,80	1718,25
462,00	1701,86
462,21	1722,34
462,41	1720,29
462,61	1683,43
462,82	1609,70
463,02	1818,60
463,22	1771,49
463,43	1867,75
463,63	1724,39
463,83	1832,93
464,04	1726,44
464,24	1800,16
464,44	1724,39
464,64	1746,92
464,85	1734,63
465,05	1755,11
465,25	1726,44
465,46	1732,58
465,66	1804,26
465,86	1746,92
466,07	1775,59
466,27	1753,06
466,47	1562,60
466,68	1673,19
466,88	1789,92
467,08	1779,68
467,29	1765,35
467,49	1816,55
467,69	1728,49
467,89	1771,49
468,10	1640,42
468,30	1652,71
468,50	1822,69
468,71	1851,36
468,91	1681,38
469,11	1906,66
469,31	1734,63
469,52	1681,38
469,72	1894,37
469,92	1845,22
470,13	1730,53
470,33	1734,63
470,53	1845,22
470,73	2129,89
470,94	2385,88
471,14	2377,69
471,34	2549,72
471,54	2367,45
471,75	2246,62
471,95	2039,78
472,15	2162,66
472,36	2150,37
472,56	2123,74
472,76	2068,45
472,96	1998,82
473,17	1955,81
473,37	1886,18
473,57	1796,07
473,77	1818,60
473,98	1802,21
474,18	1560,55
474,38	1910,75
474,58	1751,01
474,79	1652,71
474,99	1798,12
475,19	1767,40
475,39	1665,00
475,60	1705,96
475,80	1783,78
476,00	1771,49
476,20	1691,62
476,41	1775,59
476,61	1755,11
476,81	1798,12
477,01	1683,43
477,21	1841,12
477,42	1779,68
477,62	1730,53
477,82	1755,11
478,02	1708,01
478,23	1691,62
478,43	1624,04
478,63	1746,92
478,83	1701,86
479,03	1738,73
479,24	1746,92
479,44	1841,12
479,64	1685,48
479,84	1591,27
480,04	1738,73
480,25	1746,92
480,45	1609,70
480,65	1757,16
480,85	1798,12
481,06	1720,29
481,26	1724,39
481,46	1755,11
481,66	1796,07
481,86	1685,48
482,06	1771,49
482,27	1763,30
482,47	1652,71
482,67	1662,95
482,87	1765,35
483,07	1816,55
483,28	1617,90
483,48	1630,18
483,68	1689,57
483,88	1656,81
484,08	1619,94
484,29	1636,33
484,49	1710,05
484,69	1660,90
484,89	1849,32
485,09	1730,53
485,29	1677,29
485,50	1802,21
485,70	1699,81
485,90	1744,87
486,10	1736,68
486,30	1771,49
486,50	1802,21
486,71	1722,34
486,91	1687,53
487,11	1824,74
487,31	1632,23
487,51	1679,33
487,71	1695,72
487,91	1562,60
488,12	1665,00
488,32	1632,23
488,52	1748,97
488,72	1603,56
488,92	1722,34
489,12	1787,88
489,32	1730,53
489,53	1787,88
489,73	1607,66
489,93	1794,02
490,13	1619,94
490,33	1681,38
490,53	1703,91
490,73	1783,78
490,94	1646,57
491,14	1812,45
491,34	1826,79
491,54	2136,03
491,74	2504,67
491,94	2908,12
492,14	2951,12
492,34	3043,28
492,54	2691,03
492,75	2521,05
492,95	2418,65
493,15	2328,54
493,35	2230,24
493,55	2215,90
493,75	2168,80
493,95	2197,47
494,15	2007,01
494,35	1877,99
494,56	1890,28
494,76	1789,92
494,96	1787,88
495,16	1814,50
495,36	1736,68
495,56	1718,25
495,76	1710,05
495,96	1734,63
496,16	1763,30
496,36	1814,50
496,56	1759,21
496,77	1830,88
496,97	1699,81
497,17	1841,12
497,37	1787,88
497,57	1787,88
497,77	1746,92
497,97	1658,85
498,17	1724,39
498,37	1644,52
498,57	1656,81
498,77	1769,44
498,97	1765,35
499,17	1812,45
499,38	1697,77
499,58	1738,73
499,78	1765,35
499,98	1830,88
500,18	1689,57
500,38	1716,20
500,58	1906,66
500,78	2506,71
500,98	4444,09
501,18	5679,02
501,38	6762,39
501,58	6891,41
501,78	6694,81
501,98	5384,11
502,18	4855,73
502,38	4294,59
502,58	4061,12
502,78	3768,26
502,98	3629,00
503,18	3553,23
503,38	3186,64
503,59	2924,50
503,79	2619,35
503,99	2521,05
504,19	2357,21
504,39	2260,96
504,59	2174,94
504,79	2121,70
504,99	2033,63
505,19	1920,99
505,39	1808,36
505,59	1910,75
505,79	1873,89
505,99	1855,46
506,19	1865,70
506,39	1830,88
506,59	1779,68
506,79	1783,78
506,99	1806,31
507,19	1734,63
507,39	1781,73
507,59	1675,24
507,79	1665,00
507,99	1708,01
508,19	1662,95
508,39	1710,05
508,59	1660,90
508,79	1783,78
508,99	1832,93
509,19	1667,05
509,39	1837,03
509,59	1665,00
509,79	1662,95
509,99	1722,34
510,19	1806,31
510,39	1769,44
510,59	1730,53
510,79	1767,40
510,99	1634,28
511,19	1783,78
511,39	1720,29
511,59	1796,07
511,79	1837,03
511,99	1789,92
512,19	1789,92
512,38	1828,84
512,58	1773,54
512,78	1763,30
512,98	1724,39
513,18	1867,75
513,38	1703,91
513,58	1742,82
513,78	1763,30
513,98	1712,10
514,18	1734,63
514,38	1755,11
514,58	1710,05
514,78	1712,10
514,98	1708,01
515,18	1673,19
515,38	1658,85
515,58	1822,69
515,78	1714,15
515,98	1759,21
516,18	1777,64
516,38	1748,97
516,57	1740,77
516,77	1742,82
516,97	1703,91
517,17	1705,96
517,37	1605,61
517,57	1771,49
517,77	1710,05
517,97	1646,57
518,17	1804,26
518,37	1677,29
518,57	1644,52
518,77	1732,58
518,97	1718,25
519,16	1796,07
519,36	1816,55
519,56	1734,63
519,76	1746,92
519,96	1740,77
520,16	1796,07
520,36	1724,39
520,56	1867,75
520,76	1695,72
520,96	1660,90
521,16	1753,06
521,35	1812,45
521,55	1877,99
521,75	1675,24
521,95	1757,16
522,15	1726,44
522,35	1667,05
522,55	1720,29
522,75	1789,92
522,95	1794,02
523,14	1710,05
523,34	1740,77
523,54	1712,10
523,74	1765,35
523,94	1742,82
524,14	1681,38
524,34	1705,96
524,54	1736,68
524,73	1714,15
524,93	1732,58
525,13	1785,83
525,33	1658,85
525,53	1888,23
525,73	1759,21
525,93	1794,02
526,13	1716,20
526,32	1753,06
526,52	1804,26
526,72	1710,05
526,92	1705,96
527,12	1763,30
527,32	1683,43
527,52	1771,49
527,71	1751,01
527,91	1808,36
528,11	1800,16
528,31	1746,92
528,51	1675,24
528,71	1800,16
528,90	1744,87
529,10	1855,46
529,30	1816,55
529,50	1581,03
529,70	1736,68
529,90	1699,81
530,09	1708,01
530,29	1683,43
530,49	1681,38
530,69	1908,71
530,89	1722,34
531,09	1820,64
531,28	1742,82
531,48	1796,07
531,68	1796,07
531,88	1841,12
532,08	1677,29
532,28	1705,96
532,47	1730,53
532,67	1783,78
532,87	1748,97
533,07	1736,68
533,27	1755,11
533,46	1773,54
533,66	1789,92
533,86	1777,64
534,06	1679,33
534,26	1791,97
534,45	1800,16
534,65	1789,92
534,85	1681,38
535,05	1742,82
535,25	1714,15
535,44	1615,85
535,64	1734,63
535,84	1644,52
536,04	1703,91
536,24	1697,77
536,43	1673,19
536,63	1738,73
536,83	1693,67
537,03	1738,73
537,22	1714,15
537,42	1628,14
537,62	1767,40
537,82	1685,48
538,02	1767,40
538,21	1804,26
538,41	1939,43
538,61	1751,01
538,81	1703,91
539,00	1779,68
539,20	1646,57
539,40	1742,82
539,60	1783,78
539,79	1871,84
539,99	1775,59
540,19	1703,91
540,39	1673,19
540,58	1773,54
540,78	1822,69
540,98	1734,63
541,18	1798,12
541,37	1845,22
541,57	1738,73
541,77	1769,44
541,97	1675,24
542,16	1675,24
542,36	1712,10
542,56	1691,62
542,76	1794,02
542,95	1708,01
543,15	1755,11
543,35	1798,12
543,54	1722,34
543,74	1640,42
543,94	1716,20
544,14	1654,76
544,33	1824,74
544,53	1742,82
544,73	1732,58
544,93	1634,28
545,12	1724,39
545,32	1732,58
545,52	1695,72
545,71	1681,38
545,91	1724,39
546,11	1660,90
546,30	1648,61
546,50	1712,10
546,70	1816,55
546,90	1703,91
547,09	1648,61
547,29	1773,54
547,49	1761,25
547,68	1630,18
547,88	1701,86
548,08	1820,64
548,27	2240,48
548,47	1703,91
548,67	1638,38
548,87	1787,88
549,06	1648,61
549,26	1710,05
549,46	1783,78
549,65	1728,49
549,85	1783,78
550,05	1710,05
550,24	1619,94
550,44	1767,40
550,64	1781,73
550,83	1738,73
551,03	1814,50
551,23	1832,93
551,42	1794,02
551,62	1710,05
551,82	1746,92
552,01	1642,47
552,21	1826,79
552,41	1720,29
552,60	1818,60
552,80	1746,92
553,00	1716,20
553,19	1753,06
553,39	1847,27
553,59	1642,47
553,78	1742,82
553,98	1832,93
554,17	1640,42
554,37	1765,35
554,57	1771,49
554,76	1740,77
554,96	1751,01
555,16	1785,83
555,35	1689,57
555,55	1751,01
555,75	1716,20
555,94	1755,11
556,14	1650,66
556,33	1769,44
556,53	1669,09
556,73	1679,33
556,92	1787,88
557,12	1796,07
557,32	1902,56
557,51	1816,55
557,71	1820,64
557,90	1839,08
558,10	1855,46
558,30	1742,82
558,49	1718,25
558,69	1746,92
558,88	1837,03
559,08	1812,45
559,28	1652,71
559,47	1726,44
559,67	1724,39
559,86	1796,07
560,06	1800,16
560,26	1796,07
560,45	1718,25
560,65	1697,77
560,84	1861,60
561,04	1716,20
561,24	1755,11
561,43	1669,09
561,63	1746,92
561,82	1757,16
562,02	1773,54
562,22	1677,29
562,41	1665,00
562,61	1712,10
562,80	1687,53
563,00	1892,32
563,19	1734,63
563,39	1763,30
563,59	1738,73
563,78	1687,53
563,98	1632,23
564,17	1710,05
564,37	1634,28
564,56	1656,81
564,76	1679,33
564,96	1796,07
565,15	1820,64
565,35	1818,60
565,54	1693,67
565,74	1798,12
565,93	1757,16
566,13	1720,29
566,32	1701,86
566,52	1806,31
566,71	1687,53
566,91	1828,84
567,11	1673,19
567,30	1689,57
567,50	1783,78
567,69	1714,15
567,89	1738,73
568,08	1718,25
568,28	1705,96
568,47	1619,94
568,67	1744,87
568,86	1710,05
569,06	1900,52
569,25	1662,95
569,45	1771,49
569,64	1753,06
569,84	1777,64
570,04	1791,97
570,23	1693,67
570,43	1755,11
570,62	1785,83
570,82	1877,99
571,01	1726,44
571,21	1665,00
571,40	1773,54
571,60	1740,77
571,79	1757,16
571,99	1726,44
572,18	1759,21
572,38	1740,77
572,57	1751,01
572,77	1826,79
572,96	1902,56
573,16	1705,96
573,35	1732,58
573,55	1814,50
573,74	1873,89
573,94	1675,24
574,13	1667,05
574,33	1751,01
574,52	1767,40
574,71	1812,45
574,91	1728,49
575,10	1691,62
575,30	1718,25
575,49	1722,34
575,69	1720,29
575,88	1791,97
576,08	1734,63
576,27	1732,58
576,47	1785,83
576,66	1837,03
576,86	1716,20
577,05	1734,63
577,25	1884,13
577,44	1869,80
577,64	1708,01
577,83	1837,03
578,02	1730,53
578,22	1877,99
578,41	1822,69
578,61	1753,06
578,80	1740,77
579,00	1759,21
579,19	1720,29
579,39	1787,88
579,58	1902,56
579,77	1785,83
579,97	1814,50
580,16	1863,65
580,36	1875,94
580,55	1826,79
580,75	1753,06
580,94	1820,64
581,13	1853,41
581,33	1777,64
581,52	1714,15
581,72	1863,65
581,91	1857,51
582,11	1720,29
582,30	1761,25
582,49	1757,16
582,69	1781,73
582,88	1822,69
583,08	1796,07
583,27	1796,07
583,47	1804,26
583,66	1722,34
583,85	1703,91
584,05	1740,77
584,24	1851,36
584,44	1814,50
584,63	1783,78
584,82	1855,46
585,02	1839,08
585,21	1769,44
585,41	1861,60
585,60	1798,12
585,79	1925,09
585,99	1880,04
586,18	1779,68
586,37	2215,90
586,57	3293,13
586,76	9617,26
586,96	24088,21
587,15	33867,26
587,34	39495,08
587,54	41207,18
587,73	35986,91
587,93	25788,02
588,12	20956,86
588,31	17846,00
588,51	16158,47
588,70	14987,04
588,89	14040,87
589,09	12291,91
589,28	10846,04
589,47	9291,63
589,67	7837,58
589,86	6248,35
590,06	4874,17
590,25	3901,38
590,44	3078,10
590,64	2551,77
590,83	2246,62
591,02	2113,50
591,22	2004,96
591,41	1834,98
591,60	1863,65
591,80	1976,29
591,99	1685,48
592,18	1851,36
592,38	1822,69
592,57	1736,68
592,76	1810,40
592,96	1757,16
593,15	1738,73
593,34	1789,92
593,54	1785,83
593,73	1763,30
593,92	1769,44
594,12	1769,44
594,31	1755,11
594,50	1845,22
594,70	1820,64
594,89	1914,85
595,08	1644,52
595,28	1814,50
595,47	1943,52
595,66	1822,69
595,86	1693,67
596,05	1714,15
596,24	1742,82
596,43	1839,08
596,63	1820,64
596,82	1751,01
597,01	1857,51
597,21	1845,22
597,40	1751,01
597,59	1837,03
597,79	1697,77
597,98	1804,26
598,17	1800,16
598,36	1716,20
598,56	1890,28
598,75	1683,43
598,94	1757,16
599,14	1789,92
599,33	1693,67
599,52	1820,64
599,71	1808,36
599,91	1779,68
600,10	1767,40
600,29	1783,78
600,48	1771,49
600,68	1777,64
600,87	1818,60
601,06	1759,21
601,26	1748,97
601,45	1837,03
601,64	1851,36
601,83	1808,36
602,03	1798,12
602,22	1677,29
602,41	1718,25
602,60	1847,27
602,80	1816,55
602,99	1771,49
603,18	1779,68
603,37	1732,58
603,57	1675,24
603,76	1822,69
603,95	1785,83
604,14	1742,82
604,34	1769,44
604,53	1781,73
604,72	1732,58
604,91	1798,12
605,10	1814,50
605,30	1699,81
605,49	1839,08
605,68	1791,97
605,87	1695,72
606,07	1761,25
606,26	1755,11
606,45	1732,58
606,64	1804,26
606,84	1751,01
607,03	1689,57
607,22	1763,30
607,41	1628,14
607,60	1726,44
607,80	1746,92
607,99	1681,38
608,18	1865,70
608,37	1728,49
608,56	1681,38
608,76	1800,16
608,95	1841,12
609,14	1718,25
609,33	1722,34
609,52	1751,01
609,72	1673,19
609,91	1814,50
610,10	1693,67
610,29	1888,23
610,48	1783,78
610,68	1720,29
610,87	1763,30
611,06	1738,73
611,25	1705,96
611,44	1798,12
611,63	1771,49
611,83	1826,79
612,02	1708,01
612,21	1847,27
612,40	1595,37
612,59	1640,42
612,79	1701,86
612,98	1796,07
613,17	1806,31
613,36	1714,15
613,55	1851,36
613,74	1681,38
613,93	1759,21
614,13	1703,91
614,32	1761,25
614,51	1802,21
614,70	1720,29
614,89	1730,53
615,08	1722,34
615,28	2041,82
615,47	1722,34
615,66	1710,05
615,85	1685,48
616,04	1841,12
616,23	1667,05
616,42	1767,40
616,62	1796,07
616,81	1812,45
617,00	1710,05
617,19	1773,54
617,38	1681,38
617,57	1716,20
617,76	1755,11
617,95	1730,53
618,15	1753,06
618,34	1755,11
618,53	1619,94
618,72	1808,36
618,91	1755,11
619,10	1839,08
619,29	1728,49
619,48	1732,58
619,68	1708,01
619,87	1689,57
620,06	1728,49
620,25	1681,38
620,44	1761,25
620,63	1712,10
620,82	1759,21
621,01	1755,11
621,20	1716,20
621,39	1734,63
621,59	1755,11
621,78	1716,20
621,97	1701,86
622,16	1751,01
622,35	1730,53
622,54	1746,92
622,73	1845,22
622,92	1658,85
623,11	1728,49
623,30	1648,61
623,49	1800,16
623,68	1732,58
623,88	1783,78
624,07	1740,77
624,26	1708,01
624,45	1740,77
624,64	1695,72
624,83	1714,15
625,02	1705,96
625,21	1820,64
625,40	1742,82
625,59	1824,74
625,78	1673,19
625,97	1837,03
626,16	1773,54
626,35	1777,64
626,54	1753,06
626,74	1757,16
626,93	1730,53
627,12	1689,57
627,31	1791,97
627,50	1648,61
627,69	1777,64
627,88	1763,30
628,07	1677,29
628,26	1660,90
628,45	1755,11
628,64	1617,90
628,83	1744,87
629,02	1638,38
629,21	1722,34
629,40	1773,54
629,59	1708,01
629,78	1740,77
629,97	1701,86
630,16	1763,30
630,35	1705,96
630,54	1732,58
630,73	1687,53
630,92	1746,92
631,11	1654,76
631,30	1724,39
631,49	1720,29
631,68	1716,20
631,87	1767,40
632,06	1634,28
632,25	1857,51
632,44	1736,68
632,63	1785,83
632,82	1693,67
633,01	1648,61
633,20	1716,20
633,39	1660,90
633,58	1677,29
633,77	1673,19
633,96	1783,78
634,15	1794,02
634,34	1742,82
634,53	1767,40
634,72	1785,83
634,91	1665,00
635,10	1742,82
635,29	1783,78
635,48	1736,68
635,67	1669,09
635,86	1693,67
636,05	1751,01
636,24	1701,86
636,43	1746,92
636,62	1761,25
636,81	1572,84
637,00	1722,34
637,19	1771,49
637,38	1609,70
637,57	1648,61
637,76	1695,72
637,95	1705,96
638,14	1574,89
638,33	1701,86
638,52	1705,96
638,71	1591,27
638,89	1644,52
639,08	1853,41
639,27	1746,92
639,46	1695,72
639,65	1679,33
639,84	1718,25
640,03	1765,35
640,22	1701,86
640,41	1826,79
640,60	1718,25
640,79	1685,48
640,98	1710,05
641,17	1832,93
641,36	1736,68
641,55	1771,49
641,74	1718,25
641,92	1669,09
642,11	1599,46
642,30	1644,52
642,49	1726,44
642,68	1656,81
642,87	1705,96
643,06	1794,02
643,25	1783,78
643,44	1640,42
643,63	1679,33
643,82	1824,74
644,00	1685,48
644,19	1744,87
644,38	1673,19
644,57	1722,34
644,76	1781,73
644,95	1726,44
645,14	1771,49
645,33	1654,76
645,52	1693,67
645,71	1671,14
645,89	1677,29
646,08	1757,16
646,27	1744,87
646,46	1871,84
646,65	1644,52
646,84	1781,73
647,03	1724,39
647,22	1761,25
647,40	1683,43
647,59	1673,19
647,78	1574,89
647,97	1763,30
648,16	1642,47
648,35	1785,83
648,54	1751,01
648,73	1673,19
648,91	1812,45
649,10	1712,10
649,29	1703,91
649,48	1736,68
649,67	1734,63
649,86	1763,30
650,05	1697,77
650,23	1708,01
650,42	1632,23
650,61	1720,29
650,80	1724,39
650,99	1824,74
651,18	1740,77
651,36	1785,83
651,55	1722,34
651,74	1798,12
651,93	1677,29
652,12	1652,71
652,31	1728,49
652,49	1708,01
652,68	1722,34
652,87	1820,64
653,06	1716,20
653,25	1820,64
653,44	1695,72
653,62	1765,35
653,81	1660,90
654,00	1775,59
654,19	1771,49
654,38	1865,70
654,56	1705,96
654,75	1722,34
654,94	1822,69
655,13	1677,29
655,32	1759,21
655,51	1710,05
655,69	1718,25
655,88	1757,16
656,07	1728,49
656,26	1744,87
656,45	1654,76
656,63	1789,92
656,82	1734,63
657,01	1671,14
657,20	1767,40
657,38	1789,92
657,57	1751,01
657,76	1701,86
657,95	1898,47
658,14	1732,58
658,32	1689,57
658,51	1683,43
658,70	1810,40
658,89	1787,88
659,08	1748,97
659,26	1814,50
659,45	1722,34
659,64	1755,11
659,83	1695,72
660,01	1871,84
660,20	1763,30
660,39	1886,18
660,58	1593,32
660,76	1787,88
660,95	1671,14
661,14	1761,25
661,33	1619,94
661,51	1708,01
661,70	1695,72
661,89	1695,72
662,08	1708,01
662,26	1662,95
662,45	1722,34
662,64	1787,88
662,83	1757,16
663,01	1642,47
663,20	1761,25
663,39	1806,31
663,58	1748,97
663,76	1708,01
663,95	1759,21
664,14	1644,52
664,32	1609,70
664,51	1589,22
664,70	1542,12
664,89	1783,78
665,07	1650,66
665,26	1781,73
665,45	1611,75
665,64	1732,58
665,82	1714,15
666,01	1802,21
666,20	1587,18
666,38	1787,88
666,57	1800,16
666,76	2183,13
666,95	4421,56
667,13	10418,02
667,32	15109,91
667,51	17981,17
667,69	18601,70
667,88	17407,73
668,07	12035,91
668,25	9373,55
668,44	7899,02
668,63	7157,65
668,81	6670,23
669,00	6238,11
669,19	5623,72
669,38	5091,25
669,56	4630,46
669,75	4044,74
669,94	3436,49
670,12	2893,78
670,31	2570,20
670,50	2293,72
670,68	2029,54
670,87	1929,19
671,06	1773,54
671,24	1775,59
671,43	1861,60
671,62	1816,55
671,80	1714,15
671,99	1728,49
672,18	1693,67
672,36	1830,88
672,55	1837,03
672,74	1693,67
672,92	1785,83
673,11	1794,02
673,29	1638,38
673,48	1748,97
673,67	1683,43
673,85	1796,07
674,04	1697,77
674,23	1748,97
674,41	1748,97
674,60	1617,90
674,79	1671,14
674,97	1681,38
675,16	1699,81
675,34	1796,07
675,53	1755,11
675,72	1855,46
675,90	1839,08
676,09	1646,57
676,28	1681,38
676,46	1566,70
676,65	1804,26
676,83	1665,00
677,02	1697,77
677,21	1691,62
677,39	1740,77
677,58	1687,53
677,77	1685,48
677,95	1642,47
678,14	1677,29
678,32	1656,81
678,51	1685,48
678,70	1894,37
678,88	1671,14
679,07	1767,40
679,25	1724,39
679,44	1687,53
679,63	1638,38
679,81	1767,40
680,00	1724,39
680,18	1763,30
680,37	1771,49
680,55	1716,20
680,74	1734,63
680,93	1636,33
681,11	1691,62
681,30	1689,57
681,48	1763,30
681,67	1712,10
681,85	1714,15
682,04	1656,81
682,23	1787,88
682,41	1787,88
682,60	1677,29
682,78	1751,01
682,97	1667,05
683,15	1738,73
683,34	1740,77
683,53	1806,31
683,71	1640,42
683,90	1828,84
684,08	1812,45
684,27	1703,91
684,45	1695,72
684,64	1812,45
684,82	1771,49
685,01	1695,72
685,19	1646,57
685,38	1787,88
685,57	1685,48
685,75	1669,09
685,94	1718,25
686,12	1642,47
686,31	1650,66
686,49	1824,74
686,68	1652,71
686,86	1806,31
687,05	1685,48
687,23	1767,40
687,42	1722,34
687,60	1599,46
687,79	1744,87
687,97	1853,41
688,16	1757,16
688,34	1718,25
688,53	1599,46
688,71	1779,68
688,90	1763,30
689,08	1708,01
689,27	1646,57
689,45	1724,39
689,64	1673,19
689,82	1748,97
690,01	1789,92
690,19	1679,33
690,38	1660,90
690,56	1779,68
690,75	1730,53
690,93	1705,96
691,12	1689,57
691,30	1718,25
691,49	1667,05
691,67	1720,29
691,86	1867,75
692,04	1665,00
692,23	1648,61
692,41	1791,97
692,60	1847,27
692,78	1800,16
692,97	1705,96
693,15	1744,87
693,34	1818,60
693,52	1763,30
693,71	1640,42
693,89	1656,81
694,08	1630,18
694,26	1755,11
694,44	1730,53
694,63	1751,01
694,81	1658,85
695,00	1679,33
695,18	1814,50
695,37	1857,51
695,55	1712,10
695,74	1642,47
695,92	1656,81
696,10	1806,31
696,29	1665,00
696,47	1710,05
696,66	1658,85
696,84	1699,81
697,03	1724,39
697,21	1837,03
697,40	2283,49
697,58	1808,36
697,76	1673,19
697,95	1691,62
698,13	1615,85
698,32	1656,81
698,50	1757,16
698,68	1697,77
698,87	1697,77
699,05	1781,73
699,24	1718,25
699,42	1679,33
699,61	1744,87
699,79	1718,25
699,97	1734,63
700,16	1632,23
700,34	1626,09
700,53	1744,87
700,71	1771,49
700,89	1751,01
701,08	1759,21
701,26	1673,19
701,45	2111,46
701,63	1669,09
701,81	1734,63
702,00	1681,38
702,18	1689,57
702,37	1718,25
702,55	1716,20
702,73	1718,25
702,92	1650,66
703,10	1800,16
703,28	1740,77
703,47	1648,61
703,65	1703,91
703,84	1791,97
704,02	1730,53
704,20	1789,92
704,39	1642,47
704,57	1736,68
704,75	1808,36
704,94	1742,82
705,12	1636,33
705,30	1775,59
705,49	2185,18
705,67	4370,37
705,86	9242,48
706,04	12285,76
706,22	14284,58
706,41	15075,10
706,59	13301,56
706,77	9332,59
706,96	7241,62
707,14	6483,87
707,32	5932,97
707,51	5531,56
707,69	4847,54
707,87	4214,72
708,06	3479,50
708,24	2897,88
708,42	2414,56
708,61	2213,85
708,79	1912,80
708,97	1931,23
709,16	1779,68
709,34	1832,93
709,52	1738,73
709,71	1732,58
709,89	1787,88
710,07	1683,43
710,26	1701,86
710,44	1742,82
710,62	1818,60
710,80	1732,58
710,99	1785,83
711,17	1767,40
711,35	1710,05
711,54	1703,91
711,72	1798,12
711,90	1724,39
712,09	1681,38
712,27	1714,15
712,45	1757,16
712,63	1679,33
712,82	1779,68
713,00	1710,05
713,18	1757,16
713,37	1732,58
713,55	1800,16
713,73	1757,16
713,91	1728,49
714,10	1708,01
714,28	1755,11
714,46	1765,35
714,65	1701,86
714,83	1751,01
715,01	1744,87
715,19	1798,12
715,38	1615,85
715,56	1767,40
715,74	1597,42
715,92	1769,44
716,11	1757,16
716,29	1587,18
716,47	1677,29
716,65	1730,53
716,84	1578,98
717,02	1730,53
717,20	1630,18
717,38	1673,19
717,57	1714,15
717,75	1691,62
717,93	1683,43
718,11	1779,68
718,30	1650,66
718,48	1777,64
718,66	1755,11
718,84	1802,21
719,03	1697,77
719,21	1757,16
719,39	1726,44
719,57	1732,58
719,75	1763,30
719,94	1742,82
720,12	1718,25
720,30	1693,67
720,48	1794,02
720,67	1708,01
720,85	1665,00
721,03	1671,14
721,21	1744,87
721,39	1779,68
721,58	1679,33
721,76	1740,77
721,94	1675,24
722,12	1777,64
722,30	1740,77
722,49	1742,82
722,67	1677,29
722,85	1703,91
723,03	1673,19
723,21	1673,19
723,40	1755,11
723,58	1779,68
723,76	1738,73
723,94	1732,58
724,12	1722,34
724,30	1779,68
724,49	1763,30
724,67	1677,29
724,85	1798,12
725,03	1601,51
725,21	1744,87
725,40	1738,73
725,58	1705,96
725,76	1775,59
725,94	1662,95
726,12	1701,86
726,30	1679,33
726,49	1746,92
726,67	1736,68
726,85	1783,78
727,03	1771,49
727,21	2072,54
727,39	2965,46
727,57	3760,07
727,76	4272,06
727,94	4460,48
728,12	4390,84
728,30	3643,34
728,48	2977,75
728,66	2742,23
728,84	2568,15
729,03	2353,12
729,21	2201,57
729,39	2035,68
729,57	1906,66
729,75	1791,97
729,93	1892,32
730,11	1710,05
730,30	1763,30
730,48	1660,90
730,66	1802,21
730,84	1779,68
731,02	1695,72
731,20	1675,24
731,38	1744,87
731,56	1570,79
731,74	1703,91
731,93	1708,01
732,11	1705,96
732,29	1687,53
732,47	1736,68
732,65	1730,53
732,83	1765,35
733,01	1820,64
733,19	1714,15
733,37	1765,35
733,56	1689,57
733,74	1667,05
733,92	1857,51
734,10	1636,33
734,28	1736,68
734,46	1646,57
734,64	1755,11
734,82	1677,29
735,00	1683,43
735,18	1685,48
735,36	1746,92
735,54	1703,91
735,73	1757,16
735,91	1769,44
736,09	1689,57
736,27	1679,33
736,45	1714,15
736,63	1621,99
736,81	1671,14
736,99	1746,92
737,17	1834,98
737,35	1634,28
737,53	1824,74
737,71	1714,15
737,89	1773,54
738,07	1681,38
738,25	1736,68
738,43	1660,90
738,61	1658,85
738,80	1671,14
738,98	1630,18
739,16	1648,61
739,34	1689,57
739,52	1722,34
739,70	1748,97
739,88	1757,16
740,06	1728,49
740,24	1587,18
740,42	1789,92
740,60	1591,27
740,78	1708,01
740,96	1667,05
741,14	1685,48
741,32	1705,96
741,50	1585,13
741,68	1869,80
741,86	1810,40
742,04	1636,33
742,22	1677,29
742,40	1673,19
742,58	1757,16
742,76	1708,01
742,94	1816,55
743,12	1603,56
743,30	1742,82
743,48	1732,58
743,66	1761,25
743,84	1658,85
744,02	1675,24
744,20	1665,00
744,38	1718,25
744,56	1677,29
744,74	1830,88
744,92	1710,05
745,10	1773,54
745,28	1783,78
745,46	1779,68
745,64	1740,77
745,82	1767,40
746,00	1755,11
746,18	1755,11
746,36	1697,77
746,54	1820,64
746,72	1624,04
746,90	1562,60
747,08	1810,40
747,26	1595,37
747,44	1832,93
747,62	1757,16
747,80	1769,44
747,98	1677,29
748,15	1669,09
748,33	1775,59
748,51	1726,44
748,69	1716,20
748,87	1677,29
749,05	1687,53
749,23	1693,67
749,41	1722,34
749,59	1665,00
749,77	1804,26
749,95	1751,01
750,13	1621,99
750,31	1685,48
750,49	1705,96
750,67	1658,85
750,85	1863,65
751,03	1746,92
751,20	1765,35
751,38	1632,23
751,56	1683,43
751,74	1679,33
751,92	1773,54
752,10	1675,24
752,28	1781,73
752,46	1695,72
752,64	1732,58
752,82	1726,44
753,00	1755,11
753,18	1701,86
753,35	1667,05
753,53	1697,77
753,71	1730,53
753,89	1691,62
754,07	1740,77
754,25	1665,00
754,43	1746,92
754,61	1624,04
754,79	1802,21
754,97	1746,92
755,14	1800,16
755,32	1765,35
755,50	1720,29
755,68	1710,05
755,86	1708,01
756,04	1687,53
756,22	1578,98
756,40	1746,92
756,57	1824,74
756,75	1742,82
756,93	1800,16
757,11	1765,35
757,29	1628,14
757,47	1685,48
757,65	1599,46
757,82	1603,56
758,00	1675,24
758,18	1656,81
758,36	1660,90
758,54	1839,08
758,72	1617,90
758,90	1673,19
759,07	1720,29
759,25	1621,99
759,43	1718,25
759,61	1683,43
759,79	2226,14
759,97	1753,06
760,15	1665,00
760,32	1753,06
760,50	1671,14
760,68	1757,16
760,86	1603,56
761,04	1771,49
761,22	1695,72
761,39	1730,53
761,57	1769,44
761,75	1705,96
761,93	1748,97
762,11	1705,96
762,28	1751,01
762,46	1621,99
762,64	1789,92
762,82	1593,32
763,00	1732,58
763,18	1820,64
763,35	1654,76
763,53	1685,48
763,71	1718,25
763,89	1744,87
764,07	1769,44
764,24	1757,16
764,42	1828,84
764,60	1753,06
764,78	1665,00
764,96	1828,84
765,13	1705,96
765,31	1708,01
765,49	1718,25
765,67	1708,01
765,84	1689,57
766,02	1658,85
766,20	1640,42
766,38	1691,62
766,56	1699,81
766,73	1726,44
766,91	1677,29
767,09	1695,72
767,27	1783,78
767,44	1656,81
767,62	1697,77
767,80	1773,54
767,98	1687,53
768,15	1714,15
768,33	1734,63
768,51	1763,30
768,69	1738,73
768,87	1701,86
769,04	1746,92
769,22	1794,02
769,40	1781,73
769,58	1798,12
769,75	1714,15
769,93	1746,92
770,11	1738,73
770,28	1683,43
770,46	1810,40
770,64	1683,43
770,82	1722,34
770,99	1695,72
771,17	1708,01
771,35	1679,33
771,53	1652,71
771,70	1689,57
771,88	1722,34
772,06	1812,45
772,23	1726,44
772,41	1718,25
772,59	1683,43
772,77	1607,66
772,94	1597,42
773,12	1789,92
773,30	1658,85
773,47	1798,12
773,65	1665,00
773,83	1765,35
774,01	1708,01
774,18	1624,04
774,36	1665,00
774,54	1652,71
774,71	1761,25
774,89	1615,85
775,07	1648,61
775,24	1693,67
775,42	1605,61
775,60	1781,73
775,78	1669,09
775,95	1681,38
776,13	1615,85
776,31	1585,13
776,48	1724,39
776,66	1748,97
776,84	1656,81
777,01	1650,66
777,19	1701,86
777,37	1638,38
777,54	1726,44
777,72	1855,46
777,90	1757,16
778,07	1708,01
778,25	1855,46
778,43	1779,68
778,60	1687,53
778,78	1712,10
778,96	1837,03
779,13	1652,71
779,31	1708,01
779,49	1718,25
779,66	1701,86
779,84	1742,82
780,01	1794,02
780,19	1648,61
780,37	1761,25
780,54	1828,84
780,72	1695,72
780,90	1748,97
781,07	1751,01
781,25	1652,71
781,43	1763,30
781,60	1669,09
781,78	1818,60
781,95	1718,25
782,13	1652,71
782,31	1777,64
782,48	1554,41
782,66	1630,18
782,83	1832,93
783,01	1755,11
783,19	1736,68
783,36	1714,15
783,54	1619,94
783,72	1775,59
783,89	1624,04
784,07	1744,87
784,24	1726,44
784,42	1732,58
784,60	1718,25
784,77	1746,92
784,95	1624,04
785,12	1626,09
785,30	1662,95
785,47	1642,47
785,65	1660,90
785,83	1705,96
786,00	1748,97
786,18	1748,97
786,35	1642,47
786,53	1679,33
786,71	1697,77
786,88	1753,06
787,06	1714,15
787,23	1701,86
787,41	1658,85
787,58	1679,33
787,76	1665,00
787,94	1751,01
788,11	1705,96
788,29	1576,94
788,46	1738,73
788,64	1689,57
788,81	1689,57
788,99	1732,58
789,16	1667,05
789,34	1761,25
789,52	1705,96
789,69	1689,57
789,87	1583,08
790,04	1675,24
790,22	1654,76
790,39	1826,79
790,57	1589,22
790,74	1755,11
790,92	1794,02
791,09	1576,94
791,27	1701,86
791,44	1818,60
791,62	1732,58
791,79	1771,49
791,97	1683,43
792,15	1869,80
792,32	1759,21
792,50	1767,40
792,67	1751,01
792,85	1773,54
793,02	1714,15
793,20	1681,38
793,37	1581,03
793,55	1740,77
793,72	1660,90
793,90	1667,05
794,07	1712,10
794,25	1681,38
794,42	1701,86
794,60	1746,92
794,77	1748,97
794,95	1796,07
795,12	1718,25
795,30	1744,87
795,47	1691,62
795,65	1925,09
795,82	1736,68
796,00	1730,53
796,17	1697,77
796,34	1697,77
796,52	1726,44
796,69	1806,31
796,87	1759,21
797,04	1712,10
797,22	1798,12
797,39	1740,77
797,57	1710,05
797,74	1808,36
797,92	1710,05
798,09	1615,85
798,27	1689,57
798,44	1812,45
798,62	1673,19
798,79	1691,62
798,96	1820,64
799,14	1763,30
799,31	1828,84
799,49	1665,00
799,66	1662,95
799,84	1675,24
800,01	1730,53
800,19	1765,35
800,36	1634,28
800,53	1738,73
800,71	1697,77
800,88	1773,54
801,06	1701,86
801,23	1710,05
801,41	1660,90
801,58	1615,85
801,75	1660,90
801,93	1681,38
802,10	1755,11
802,28	1781,73
802,45	1708,01
802,63	1744,87
802,80	1857,51
802,97	1611,75
803,15	1769,44
803,32	1689,57
803,50	1615,85
803,67	1578,98
803,84	1689,57
804,02	1656,81
804,19	1640,42
804,37	1640,42
804,54	1632,23
804,71	1771,49
804,89	1746,92
805,06	1624,04
805,24	1667,05
805,41	1705,96
805,58	1683,43
805,76	1888,23
805,93	1685,48
806,10	1800,16
806,28	1751,01
806,45	1728,49
806,63	1683,43
806,80	1714,15
806,97	1640,42
807,15	1724,39
807,32	1724,39
807,49	1714,15
807,67	1691,62
807,84	1660,90
808,01	1695,72
808,19	1783,78
808,36	1783,78
808,54	1718,25
808,71	1701,86
808,88	1705,96
809,06	1728,49
809,23	1771,49
809,40	1726,44
809,58	1820,64
809,75	1736,68
809,92	1656,81
810,10	1853,41
810,27	1724,39
810,44	1710,05
810,62	1718,25
810,79	1740,77
810,96	1724,39
811,14	1601,51
811,31	1763,30
811,48	1701,86
811,66	1771,49
811,83	1853,41
812,00	1724,39
812,18	1689,57
812,35	1830,88
812,52	1771,49
812,69	1656,81
812,87	1689,57
813,04	1638,38
813,21	1667,05
813,39	1710,05
813,56	1591,27
813,73	1777,64
813,91	1613,80
814,08	1650,66
814,25	1677,29
814,42	1695,72
814,60	1798,12
814,77	1693,67
814,94	1708,01
815,12	1775,59
815,29	1791,97
815,46	1652,71
815,63	1769,44
815,81	1652,71
815,98	1732,58
816,15	1685,48
816,33	1740,77
816,50	1673,19
816,67	1703,91
816,84	1642,47
817,02	1675,24
817,19	1779,68
817,36	1730,53
817,53	1740,77
817,71	1650,66
817,88	1779,68
818,05	1710,05
818,22	1626,09
818,40	1834,98
818,57	1693,67
818,74	1755,11
818,91	1738,73
819,09	1802,21
819,26	1769,44
819,43	1652,71
819,60	1673,19
819,78	1710,05
819,95	1800,16
820,12	1683,43
820,29	1832,93
820,47	1751,01
820,64	1705,96
820,81	1621,99
820,98	1656,81
821,15	1710,05
821,33	1781,73
821,50	1597,42
821,67	1671,14
821,84	1734,63
822,02	1724,39
822,19	1720,29
822,36	1714,15
822,53	1740,77
822,70	1650,66
822,88	1703,91
823,05	1791,97
823,22	1665,00
823,39	1683,43
823,56	1705,96
823,74	1798,12
823,91	1660,90
824,08	1656,81
824,25	1576,94
824,42	1804,26
824,60	1677,29
824,77	1738,73
824,94	1697,77
825,11	1638,38
825,28	1648,61
825,45	1691,62
825,63	1810,40
825,80	1628,14
825,97	1759,21
826,14	1769,44
826,31	1632,23
826,48	1812,45
826,66	1652,71
826,83	1607,66
827,00	1708,01
827,17	1597,42
827,34	1691,62
827,51	1703,91
827,69	1714,15
827,86	1587,18
828,03	1673,19
828,20	1761,25
828,37	1693,67
828,54	1763,30
828,71	1640,42
828,89	1794,02
829,06	1769,44
829,23	1845,22
829,40	1689,57
829,57	1705,96
829,74	1785,83
829,91	1652,71
830,09	1736,68
830,26	1673,19
830,43	1828,84
830,60	1650,66
830,77	1701,86
830,94	1730,53
831,11	1751,01
831,28	1732,58
831,46	1763,30
831,63	1697,77
831,80	1744,87
831,97	1673,19
832,14	1665,00
832,31	1769,44
832,48	1705,96
832,65	1789,92
832,82	1779,68
832,99	1705,96
833,17	1646,57
833,34	1783,78
833,51	1738,73
833,68	1583,08
833,85	1783,78
834,02	1628,14
834,19	1695,72
834,36	1591,27
834,53	1753,06
834,70	1779,68
834,87	1769,44
835,04	1667,05
835,22	1601,51
835,39	1685,48
835,56	1617,90
835,73	1722,34
835,90	1738,73
836,07	1654,76
836,24	1798,12
836,41	1667,05
836,58	1554,41
836,75	1742,82
836,92	1705,96
837,09	1650,66
837,26	1734,63
837,43	1718,25
837,60	1730,53
837,77	1730,53
837,94	1800,16
838,12	1705,96
838,29	1712,10
838,46	1624,04
838,63	1605,61
838,80	1685,48
838,97	1765,35
839,14	1720,29
839,31	1701,86
839,48	1730,53
839,65	1679,33
839,82	1730,53
839,99	1781,73
840,16	1773,54
840,33	1681,38
840,50	1626,09
840,67	1660,90
840,84	1609,70
841,01	1736,68
841,18	1611,75
841,35	1638,38
841,52	1767,40
841,69	1748,97
841,86	1642,47
842,03	1724,39
842,20	1689,57
842,37	1724,39
842,54	1712,10
842,71	1697,77
842,88	1640,42
843,05	1734,63
843,22	1718,25
843,39	1759,21
843,56	1656,81
843,73	1736,68
843,90	1695,72
844,07	1654,76
844,24	1759,21
844,41	1759,21
844,58	1697,77
844,75	1767,40
844,92	1710,05
845,09	1689,57
845,26	1644,52
845,43	1730,53
845,60	1697,77
845,77	1830,88
845,94	1683,43
846,10	1730,53
846,27	1615,85
846,44	1648,61
846,61	1642,47
846,78	1703,91
846,95	1660,90
847,12	1681,38
847,29	1654,76
847,46	1658,85
847,63	1746,92
847,80	1761,25
847,97	1701,86
848,14	1804,26
848,31	1716,20
848,48	1662,95
848,65	1693,67
848,82	1615,85
848,98	1884,13
849,15	1669,09
849,32	1775,59
849,49	1757,16
849,66	1693,67
849,83	1687,53
850,00	1662,95
850,17	1726,44
850,34	1732,58
850,51	1652,71
850,68	1654,76
850,85	1820,64
851,01	1708,01
851,18	1759,21
851,35	1679,33
851,52	1697,77
851,69	1822,69
851,86	1613,80
852,03	1728,49
852,20	1796,07
852,37	1726,44
852,53	1656,81
852,70	1771,49
852,87	1691,62
853,04	1796,07
853,21	1748,97
853,38	1687,53
853,55	1818,60
853,72	1841,12
853,89	1724,39
854,05	1611,75
854,22	1640,42
854,39	1658,85
854,56	1714,15
854,73	1806,31
854,90	1658,85
855,07	1740,77
855,23	1728,49
855,40	1724,39
855,57	1640,42
855,74	1691,62
855,91	1927,14
856,08	1730,53
856,25	1662,95
856,41	1714,15
856,58	1681,38
856,75	1714,15
856,92	1583,08
857,09	1703,91
857,26	1667,05
857,42	1794,02
857,59	1722,34
857,76	1665,00
857,93	1734,63
858,10	1751,01
858,27	1638,38
858,43	1667,05
858,60	1671,14
858,77	1632,23
858,94	1736,68
859,11	1804,26
859,27	1656,81
859,44	1714,15
859,61	1859,56
859,78	1679,33
859,95	1665,00
860,12	1705,96
860,28	1824,74
860,45	1820,64
860,62	1658,85
860,79	1740,77
860,95	1681,38
861,12	1656,81
861,29	1591,27
861,46	1675,24
861,63	1693,67
861,79	1712,10
861,96	1611,75
862,13	1587,18
862,30	1728,49
862,47	1671,14
862,63	1642,47
862,80	1783,78
862,97	1732,58
863,14	1650,66
863,30	1683,43
863,47	1644,52
863,64	1757,16
863,81	1677,29
863,97	1646,57
864,14	1718,25
864,31	1638,38
864,48	1732,58
864,65	1693,67
864,81	1701,86
864,98	1714,15
865,15	1679,33
865,32	1742,82
865,48	1734,63
865,65	1730,53
865,82	1724,39
865,98	1665,00
866,15	1839,08
866,32	1677,29
866,49	1681,38
866,65	1705,96
866,82	1732,58
866,99	1732,58
867,16	1609,70
867,32	1697,77
867,49	1753,06
867,66	1660,90
867,83	1697,77
867,99	1667,05
868,16	1689,57
868,33	1628,14
868,49	1714,15
868,66	1720,29
868,83	1665,00
868,99	1763,30
869,16	1722,34
869,33	1687,53
869,50	1742,82
869,66	1689,57
869,83	1763,30
870,00	1703,91
870,16	1675,24
870,33	1773,54
870,50	1734,63
870,66	1697,77
870,83	1820,64
871,00	1701,86
871,17	1732,58
871,33	1777,64
871,50	1818,60
871,67	1697,77
871,83	1771,49
872,00	1740,77
872,17	1665,00
872,33	1728,49
872,50	1714,15
872,67	1708,01
872,83	1734,63
873,00	1742,82
873,17	1734,63
873,33	1769,44
873,50	1753,06
873,67	1669,09
873,83	1699,81
874,00	1781,73
874,16	1718,25
874,33	1724,39
874,50	1748,97
874,66	1705,96
874,83	1714,15
875,00	1779,68
875,16	1785,83
875,33	1728,49
875,50	1650,66
875,66	1673,19
875,83	1728,49
875,99	1730,53
876,16	1701,86
876,33	1654,76
876,49	1712,10
876,66	1656,81
876,83	1675,24
876,99	1644,52
877,16	1632,23
877,32	1689,57
877,49	1683,43
877,66	1720,29
877,82	1746,92
877,99	1673,19
878,15	1722,34
878,32	1753,06
878,49	1712,10
878,65	1630,18
878,82	1789,92
878,98	1691,62
879,15	1738,73
879,32	1718,25
879,48	1697,77
879,65	1650,66
879,81	1658,85
879,98	1675,24
880,15	1599,46
880,31	1722,34
880,48	1677,29
880,64	1705,96
880,81	1638,38
880,97	1857,51
881,14	1705,96
881,31	1634,28
881,47	1873,89
881,64	1699,81
881,80	1611,75
881,97	1785,83
882,13	1736,68
882,30	1773,54
882,47	1658,85
882,63	1705,96
882,80	1658,85
882,96	1693,67
883,13	1744,87
883,29	1626,09
883,46	1726,44
883,62	1759,21
883,79	1689,57
883,95	1755,11
884,12	1658,85
884,29	1789,92
884,45	1701,86
884,62	1787,88
884,78	1703,91
884,95	1767,40
885,11	1712,10
885,28	1718,25
885,44	1624,04
885,61	1714,15
885,77	1806,31
885,94	1662,95
886,10	1667,05
886,27	1753,06
886,43	1761,25
886,60	1832,93
886,76	1679,33
886,93	1699,81
887,09	1677,29
887,26	1595,37
887,42	1755,11
887,59	1742,82
887,75	1800,16
887,92	1779,68
888,08	1785,83
888,25	1902,56
888,41	1714,15
888,58	1646,57
888,74	1738,73
888,91	1716,20
>>>>>End Processed Spectral Data<<<<<
