SpectraSuite Data File
++++++++++++++++++++++++++++++++++++
Date: Mon Jun 06 16:34:17 CEST 2016
User: root
Dark Spectrum Present: No
Reference Spectrum Present: No
Number of Sampled Component Spectra: 1
Spectrometers: USB4C02835
Integration Time (usec): 100000 (USB4C02835)
Spectra Averaged: 1 (USB4C02835)
Boxcar Smoothing: 0 (USB4C02835)
Correct for Electrical Dark: No (USB4C02835)
Strobe/Lamp Enabled: No (USB4C02835)
Correct for Detector Non-linearity: No (USB4C02835)
Correct for Stray Light: No (USB4C02835)
Number of Pixels in Processed Spectrum: 3648
>>>>>Begin Processed Spectral Data<<<<<
177,47	1468,39
177,69	1468,39
177,91	1468,39
178,13	1460,20
178,36	1413,10
178,58	1703,91
178,80	1703,91
179,02	1630,18
179,24	1683,43
179,46	1732,58
179,68	1714,15
179,90	1781,73
180,13	1753,06
180,35	1654,76
180,57	1683,43
180,79	1787,88
181,01	1689,57
181,23	1736,68
181,45	1730,53
181,67	1710,05
181,90	1687,53
182,12	1665,00
182,34	1683,43
182,56	1734,63
182,78	1699,81
183,00	1701,86
183,22	1718,25
183,44	1621,99
183,66	1920,99
183,89	1845,22
184,11	1751,01
184,33	1746,92
184,55	1779,68
184,77	1753,06
184,99	1708,01
185,21	1615,85
185,43	1867,75
185,65	1648,61
185,87	1644,52
186,10	1841,12
186,32	1834,98
186,54	1722,34
186,76	1724,39
186,98	1777,64
187,20	1642,47
187,42	1648,61
187,64	1640,42
187,86	1736,68
188,08	1771,49
188,30	1720,29
188,52	1730,53
188,75	1718,25
188,97	1753,06
189,19	1667,05
189,41	1660,90
189,63	1726,44
189,85	1720,29
190,07	1683,43
190,29	1619,94
190,51	1734,63
190,73	1646,57
190,95	1796,07
191,17	1722,34
191,39	1667,05
191,61	1669,09
191,84	1691,62
192,06	1765,35
192,28	1701,86
192,50	1871,84
192,72	1736,68
192,94	1753,06
193,16	1685,48
193,38	1718,25
193,60	1644,52
193,82	1667,05
194,04	1771,49
194,26	1787,88
194,48	1734,63
194,70	1644,52
194,92	1701,86
195,14	1839,08
195,36	1607,66
195,58	1757,16
195,80	1671,14
196,02	1652,71
196,24	1722,34
196,46	1685,48
196,69	1730,53
196,91	1847,27
197,13	1689,57
197,35	1695,72
197,57	1806,31
197,79	1751,01
198,01	1738,73
198,23	1724,39
198,45	1740,77
198,67	1695,72
198,89	1650,66
199,11	1726,44
199,33	1675,24
199,55	1650,66
199,77	1685,48
199,99	1824,74
200,21	1693,67
200,43	1689,57
200,65	1617,90
200,87	1576,94
201,09	1710,05
201,31	1669,09
201,53	1785,83
201,75	1724,39
201,97	1769,44
202,19	1724,39
202,41	1648,61
202,63	1810,40
202,85	1720,29
203,07	1742,82
203,29	1738,73
203,51	1679,33
203,73	1677,29
203,95	1898,47
204,17	1736,68
204,39	1720,29
204,61	1751,01
204,83	1675,24
205,05	1775,59
205,27	1697,77
205,49	1753,06
205,71	1644,52
205,93	1621,99
206,15	1697,77
206,37	1675,24
206,59	1751,01
206,81	1697,77
207,03	1613,80
207,25	1705,96
207,47	1798,12
207,69	1724,39
207,91	1732,58
208,13	1761,25
208,34	1673,19
208,56	1675,24
208,78	1767,40
209,00	1681,38
209,22	1691,62
209,44	1708,01
209,66	1697,77
209,88	1712,10
210,10	1619,94
210,32	1675,24
210,54	1759,21
210,76	1718,25
210,98	1722,34
211,20	1599,46
211,42	1769,44
211,64	1748,97
211,86	1763,30
212,08	1755,11
212,30	1828,84
212,52	1652,71
212,74	1703,91
212,96	1773,54
213,17	1710,05
213,39	1841,12
213,61	1785,83
213,83	1800,16
214,05	1603,56
214,27	1818,60
214,49	1585,13
214,71	1640,42
214,93	1783,78
215,15	1826,79
215,37	1791,97
215,59	1603,56
215,81	1710,05
216,03	1779,68
216,24	1726,44
216,46	1751,01
216,68	1751,01
216,90	1759,21
217,12	1751,01
217,34	1746,92
217,56	1755,11
217,78	1822,69
218,00	1746,92
218,22	1728,49
218,44	1742,82
218,66	1638,38
218,87	1746,92
219,09	1595,37
219,31	1773,54
219,53	1658,85
219,75	1669,09
219,97	1697,77
220,19	1769,44
220,41	1708,01
220,63	1828,84
220,85	1755,11
221,06	1695,72
221,28	1828,84
221,50	1781,73
221,72	1718,25
221,94	1742,82
222,16	1712,10
222,38	1705,96
222,60	1771,49
222,82	1697,77
223,03	1722,34
223,25	1693,67
223,47	1787,88
223,69	1900,52
223,91	1689,57
224,13	1685,48
224,35	1648,61
224,57	1769,44
224,78	1781,73
225,00	1665,00
225,22	1679,33
225,44	1730,53
225,66	1669,09
225,88	1738,73
226,10	1787,88
226,32	1613,80
226,53	1796,07
226,75	1689,57
226,97	1773,54
227,19	1705,96
227,41	1705,96
227,63	1718,25
227,85	1529,83
228,06	1701,86
228,28	1699,81
228,50	1710,05
228,72	1671,14
228,94	1730,53
229,16	1581,03
229,37	1673,19
229,59	1675,24
229,81	1779,68
230,03	1673,19
230,25	1642,47
230,47	1593,32
230,69	1630,18
230,90	1708,01
231,12	1738,73
231,34	1716,20
231,56	1757,16
231,78	1677,29
232,00	1697,77
232,21	1681,38
232,43	1685,48
232,65	1550,31
232,87	1718,25
233,09	1599,46
233,30	1667,05
233,52	1759,21
233,74	1718,25
233,96	1705,96
234,18	1681,38
234,40	1716,20
234,61	1791,97
234,83	1648,61
235,05	1669,09
235,27	1845,22
235,49	1796,07
235,70	1667,05
235,92	1783,78
236,14	1734,63
236,36	1869,80
236,58	1650,66
236,79	1771,49
237,01	1654,76
237,23	1714,15
237,45	1810,40
237,67	1685,48
237,88	1746,92
238,10	1834,98
238,32	1679,33
238,54	1662,95
238,76	1687,53
238,97	1681,38
239,19	1636,33
239,41	1783,78
239,63	1777,64
239,85	1691,62
240,06	1677,29
240,28	1714,15
240,50	1726,44
240,72	1718,25
240,93	1683,43
241,15	1791,97
241,37	1675,24
241,59	1800,16
241,81	1677,29
242,02	1656,81
242,24	1746,92
242,46	1757,16
242,68	1693,67
242,89	1726,44
243,11	1769,44
243,33	1712,10
243,55	1685,48
243,76	1757,16
243,98	1662,95
244,20	1675,24
244,42	1724,39
244,64	1794,02
244,85	1599,46
245,07	1628,14
245,29	1726,44
245,51	1691,62
245,72	1679,33
245,94	1746,92
246,16	1771,49
246,38	1718,25
246,59	1626,09
246,81	1691,62
247,03	1619,94
247,24	1587,18
247,46	1703,91
247,68	1755,11
247,90	1609,70
248,11	1634,28
248,33	1787,88
248,55	1648,61
248,77	1814,50
248,98	1816,55
249,20	1832,93
249,42	1728,49
249,64	1705,96
249,85	1673,19
250,07	1687,53
250,29	1712,10
250,50	1771,49
250,72	1689,57
250,94	1710,05
251,16	1855,46
251,37	1765,35
251,59	1705,96
251,81	1718,25
252,02	1834,98
252,24	1697,77
252,46	1740,77
252,68	1650,66
252,89	1671,14
253,11	1677,29
253,33	1816,55
253,54	1771,49
253,76	1603,56
253,98	1722,34
254,20	1759,21
254,41	1646,57
254,63	1626,09
254,85	1701,86
255,06	1708,01
255,28	1703,91
255,50	1734,63
255,71	1677,29
255,93	1626,09
256,15	1736,68
256,36	1730,53
256,58	1724,39
256,80	1765,35
257,02	1703,91
257,23	1695,72
257,45	1673,19
257,67	1775,59
257,88	1671,14
258,10	1740,77
258,32	1681,38
258,53	1716,20
258,75	1773,54
258,97	1779,68
259,18	1660,90
259,40	1734,63
259,62	1830,88
259,83	1804,26
260,05	1701,86
260,27	2045,92
260,48	1781,73
260,70	1699,81
260,92	1636,33
261,13	1732,58
261,35	1714,15
261,57	1693,67
261,78	1693,67
262,00	1648,61
262,22	1687,53
262,43	1720,29
262,65	1685,48
262,86	1730,53
263,08	1904,61
263,30	1748,97
263,51	1685,48
263,73	1646,57
263,95	1738,73
264,16	1654,76
264,38	1599,46
264,60	1740,77
264,81	1755,11
265,03	1789,92
265,25	1791,97
265,46	1660,90
265,68	1730,53
265,89	1695,72
266,11	1615,85
266,33	1789,92
266,54	1824,74
266,76	1710,05
266,98	1708,01
267,19	1728,49
267,41	1781,73
267,62	1730,53
267,84	1662,95
268,06	1708,01
268,27	1701,86
268,49	1755,11
268,70	1834,98
268,92	1689,57
269,14	1724,39
269,35	1615,85
269,57	1742,82
269,79	1753,06
270,00	1673,19
270,22	1861,60
270,43	1656,81
270,65	1587,18
270,87	1681,38
271,08	1767,40
271,30	1742,82
271,51	1574,89
271,73	1742,82
271,95	1759,21
272,16	1695,72
272,38	1785,83
272,59	1720,29
272,81	1763,30
273,02	1726,44
273,24	1759,21
273,46	1697,77
273,67	1660,90
273,89	1695,72
274,10	1685,48
274,32	1734,63
274,54	1658,85
274,75	1671,14
274,97	1716,20
275,18	1748,97
275,40	1785,83
275,61	1736,68
275,83	1710,05
276,05	1615,85
276,26	1732,58
276,48	1775,59
276,69	1632,23
276,91	1720,29
277,12	1806,31
277,34	1767,40
277,55	1693,67
277,77	1785,83
277,99	1636,33
278,20	1634,28
278,42	1628,14
278,63	1718,25
278,85	1667,05
279,06	1634,28
279,28	1804,26
279,49	1763,30
279,71	1783,78
279,93	1775,59
280,14	1695,72
280,36	1662,95
280,57	1769,44
280,79	1796,07
281,00	1652,71
281,22	1669,09
281,43	1802,21
281,65	1564,65
281,86	1628,14
282,08	1673,19
282,29	1705,96
282,51	1611,75
282,73	1630,18
282,94	1673,19
283,16	1726,44
283,37	1877,99
283,59	1710,05
283,80	1769,44
284,02	1748,97
284,23	1765,35
284,45	1708,01
284,66	1624,04
284,88	1624,04
285,09	1734,63
285,31	1656,81
285,52	1708,01
285,74	1619,94
285,95	1726,44
286,17	1685,48
286,38	1779,68
286,60	1693,67
286,81	1671,14
287,03	1705,96
287,24	1646,57
287,46	1665,00
287,67	1736,68
287,89	1763,30
288,10	1665,00
288,32	1656,81
288,53	1740,77
288,75	1679,33
288,96	1742,82
289,18	1679,33
289,39	1695,72
289,61	1849,32
289,82	1837,03
290,04	1855,46
290,25	1677,29
290,47	1691,62
290,68	1669,09
290,90	1738,73
291,11	1658,85
291,33	1722,34
291,54	1628,14
291,76	1660,90
291,97	1736,68
292,18	1724,39
292,40	1677,29
292,61	1722,34
292,83	1791,97
293,04	1755,11
293,26	1808,36
293,47	1761,25
293,69	1644,52
293,90	1734,63
294,12	1712,10
294,33	1730,53
294,55	1699,81
294,76	1728,49
294,97	1708,01
295,19	1863,65
295,40	1701,86
295,62	1763,30
295,83	1705,96
296,05	1626,09
296,26	1640,42
296,48	1593,32
296,69	1710,05
296,90	1714,15
297,12	1761,25
297,33	1826,79
297,55	1699,81
297,76	1703,91
297,98	1740,77
298,19	1718,25
298,41	1701,86
298,62	1640,42
298,83	1824,74
299,05	1775,59
299,26	1724,39
299,48	1656,81
299,69	1720,29
299,90	1632,23
300,12	1656,81
300,33	1720,29
300,55	1689,57
300,76	1724,39
300,98	1617,90
301,19	1738,73
301,40	1681,38
301,62	1640,42
301,83	1787,88
302,05	1746,92
302,26	1736,68
302,47	1693,67
302,69	1677,29
302,90	1671,14
303,12	1566,70
303,33	1746,92
303,54	1806,31
303,76	1697,77
303,97	1800,16
304,19	1841,12
304,40	1703,91
304,61	1783,78
304,83	1853,41
305,04	1738,73
305,26	1712,10
305,47	1671,14
305,68	1665,00
305,90	1644,52
306,11	1777,64
306,33	1714,15
306,54	1767,40
306,75	1673,19
306,97	1658,85
307,18	1697,77
307,39	1679,33
307,61	1755,11
307,82	1660,90
308,04	1722,34
308,25	1665,00
308,46	1634,28
308,68	1757,16
308,89	1771,49
309,10	1779,68
309,32	1767,40
309,53	1673,19
309,74	1718,25
309,96	1644,52
310,17	1804,26
310,39	1597,42
310,60	1718,25
310,81	1734,63
311,03	1578,98
311,24	1789,92
311,45	1720,29
311,67	1812,45
311,88	1767,40
312,09	1718,25
312,31	1769,44
312,52	1658,85
312,73	1738,73
312,95	1566,70
313,16	1642,47
313,37	1785,83
313,59	1775,59
313,80	1716,20
314,01	1841,12
314,23	1691,62
314,44	1615,85
314,65	1564,65
314,87	1619,94
315,08	1744,87
315,29	1685,48
315,51	1677,29
315,72	1689,57
315,93	1783,78
316,15	1740,77
316,36	1730,53
316,57	1755,11
316,79	1703,91
317,00	1658,85
317,21	1726,44
317,43	1687,53
317,64	1781,73
317,85	1693,67
318,07	1648,61
318,28	1712,10
318,49	1810,40
318,70	1894,37
318,92	1849,32
319,13	1834,98
319,34	1816,55
319,56	1812,45
319,77	1783,78
319,98	1853,41
320,20	1748,97
320,41	1671,14
320,62	1771,49
320,83	1691,62
321,05	1875,94
321,26	1751,01
321,47	1683,43
321,69	1734,63
321,90	1673,19
322,11	1671,14
322,32	1783,78
322,54	1773,54
322,75	1699,81
322,96	1834,98
323,18	1632,23
323,39	1572,84
323,60	1648,61
323,81	1738,73
324,03	1660,90
324,24	1693,67
324,45	1732,58
324,66	1695,72
324,88	1767,40
325,09	1775,59
325,30	1720,29
325,52	1730,53
325,73	1683,43
325,94	1654,76
326,15	1615,85
326,37	1718,25
326,58	1703,91
326,79	1753,06
327,00	1685,48
327,22	1656,81
327,43	1685,48
327,64	1681,38
327,85	1744,87
328,07	1834,98
328,28	1804,26
328,49	1677,29
328,70	1718,25
328,92	1687,53
329,13	1677,29
329,34	1705,96
329,55	1824,74
329,76	1820,64
329,98	1734,63
330,19	1757,16
330,40	1722,34
330,61	1746,92
330,83	1675,24
331,04	1609,70
331,25	1636,33
331,46	1699,81
331,68	1609,70
331,89	1701,86
332,10	1722,34
332,31	1667,05
332,52	1740,77
332,74	1718,25
332,95	1673,19
333,16	1736,68
333,37	1736,68
333,58	1703,91
333,80	1710,05
334,01	1599,46
334,22	1683,43
334,43	1617,90
334,64	1662,95
334,86	1648,61
335,07	1693,67
335,28	1894,37
335,49	1585,13
335,70	1710,05
335,92	1804,26
336,13	1884,13
336,34	1701,86
336,55	1804,26
336,76	1714,15
336,98	1609,70
337,19	1771,49
337,40	1751,01
337,61	1822,69
337,82	1761,25
338,04	1746,92
338,25	1587,18
338,46	1646,57
338,67	1726,44
338,88	1628,14
339,09	1667,05
339,31	1638,38
339,52	1605,61
339,73	1712,10
339,94	1746,92
340,15	1748,97
340,36	1701,86
340,58	1654,76
340,79	1689,57
341,00	1718,25
341,21	1599,46
341,42	1814,50
341,63	1683,43
341,85	1789,92
342,06	1679,33
342,27	1675,24
342,48	1730,53
342,69	1642,47
342,90	1730,53
343,12	1744,87
343,33	1724,39
343,54	1738,73
343,75	1716,20
343,96	1691,62
344,17	1710,05
344,38	1683,43
344,60	1644,52
344,81	1691,62
345,02	1712,10
345,23	1763,30
345,44	1816,55
345,65	1751,01
345,86	1728,49
346,07	1701,86
346,29	1730,53
346,50	1798,12
346,71	1755,11
346,92	1759,21
347,13	1910,75
347,34	1695,72
347,55	1689,57
347,76	1732,58
347,98	1703,91
348,19	1593,32
348,40	1783,78
348,61	1718,25
348,82	1779,68
349,03	1771,49
349,24	1681,38
349,45	1789,92
349,66	1626,09
349,88	1779,68
350,09	1689,57
350,30	1722,34
350,51	1783,78
350,72	1814,50
350,93	1796,07
351,14	1658,85
351,35	1693,67
351,56	1732,58
351,77	1699,81
351,99	1726,44
352,20	1812,45
352,41	1763,30
352,62	1583,08
352,83	1726,44
353,04	1673,19
353,25	1712,10
353,46	1703,91
353,67	1767,40
353,88	1667,05
354,09	1724,39
354,30	1726,44
354,52	1734,63
354,73	1669,09
354,94	1638,38
355,15	1677,29
355,36	1769,44
355,57	1691,62
355,78	1822,69
355,99	1642,47
356,20	1634,28
356,41	1734,63
356,62	1767,40
356,83	1726,44
357,04	1695,72
357,25	1662,95
357,46	1675,24
357,68	1632,23
357,89	1753,06
358,10	1724,39
358,31	1708,01
358,52	1726,44
358,73	1630,18
358,94	1636,33
359,15	1648,61
359,36	1718,25
359,57	1708,01
359,78	1685,48
359,99	1716,20
360,20	1638,38
360,41	1708,01
360,62	1732,58
360,83	1708,01
361,04	1738,73
361,25	1697,77
361,46	1828,84
361,67	1802,21
361,88	1740,77
362,09	1722,34
362,30	1767,40
362,51	1691,62
362,72	1800,16
362,93	1785,83
363,14	1748,97
363,35	1712,10
363,56	1695,72
363,78	1755,11
363,99	1716,20
364,20	1681,38
364,41	1820,64
364,62	1798,12
364,83	1816,55
365,04	1644,52
365,25	1636,33
365,46	1775,59
365,67	1681,38
365,88	1662,95
366,09	1742,82
366,30	1689,57
366,51	1677,29
366,72	1667,05
366,93	1748,97
367,14	1703,91
367,35	1845,22
367,56	1722,34
367,77	1796,07
367,98	1626,09
368,18	1714,15
368,39	1730,53
368,60	1669,09
368,81	1691,62
369,02	1783,78
369,23	1685,48
369,44	1587,18
369,65	1742,82
369,86	1675,24
370,07	1769,44
370,28	1648,61
370,49	1732,58
370,70	1722,34
370,91	1621,99
371,12	1677,29
371,33	1714,15
371,54	1746,92
371,75	1771,49
371,96	1687,53
372,17	1710,05
372,38	1652,71
372,59	1777,64
372,80	1660,90
373,01	1689,57
373,22	1714,15
373,43	1718,25
373,64	1611,75
373,85	1794,02
374,06	1804,26
374,26	1720,29
374,47	1738,73
374,68	1740,77
374,89	1755,11
375,10	1574,89
375,31	1753,06
375,52	1738,73
375,73	1796,07
375,94	1669,09
376,15	1730,53
376,36	1642,47
376,57	1710,05
376,78	1759,21
376,99	1714,15
377,20	1757,16
377,40	1617,90
377,61	1794,02
377,82	1619,94
378,03	1728,49
378,24	1708,01
378,45	1714,15
378,66	1681,38
378,87	1667,05
379,08	1535,98
379,29	1734,63
379,50	1726,44
379,71	1722,34
379,91	1732,58
380,12	1740,77
380,33	1695,72
380,54	1759,21
380,75	1703,91
380,96	1753,06
381,17	1742,82
381,38	1701,86
381,59	1734,63
381,80	1689,57
382,00	1861,60
382,21	1785,83
382,42	1900,52
382,63	1834,98
382,84	1761,25
383,05	1708,01
383,26	1800,16
383,47	1695,72
383,68	1777,64
383,88	1712,10
384,09	1689,57
384,30	1789,92
384,51	1714,15
384,72	1697,77
384,93	1611,75
385,14	1669,09
385,35	1798,12
385,55	1691,62
385,76	1787,88
385,97	1744,87
386,18	1658,85
386,39	1587,18
386,60	1720,29
386,81	1687,53
387,02	1724,39
387,22	1671,14
387,43	1800,16
387,64	1789,92
387,85	1920,99
388,06	2172,89
388,27	4286,40
388,48	6662,04
388,68	7948,17
388,89	9254,77
389,10	9719,66
389,31	8226,69
389,52	7311,25
389,73	6473,63
389,93	6070,18
390,14	5658,54
390,35	5107,63
390,56	4483,00
390,77	3661,77
390,98	3074,00
391,18	2488,28
391,39	2084,83
391,60	1806,31
391,81	1908,71
392,02	1740,77
392,23	1820,64
392,43	1740,77
392,64	1845,22
392,85	1708,01
393,06	1818,60
393,27	1642,47
393,47	1660,90
393,68	1699,81
393,89	1716,20
394,10	1763,30
394,31	1667,05
394,52	1642,47
394,72	1675,24
394,93	1869,80
395,14	1660,90
395,35	1724,39
395,56	1689,57
395,76	1708,01
395,97	1775,59
396,18	1812,45
396,39	1783,78
396,60	2009,06
396,80	1882,08
397,01	1865,70
397,22	1718,25
397,43	1918,95
397,64	1705,96
397,84	1773,54
398,05	1877,99
398,26	1748,97
398,47	1775,59
398,67	1710,05
398,88	1757,16
399,09	1771,49
399,30	1728,49
399,51	1761,25
399,71	1654,76
399,92	1773,54
400,13	1757,16
400,34	1691,62
400,54	1748,97
400,75	1736,68
400,96	1701,86
401,17	1824,74
401,37	1714,15
401,58	1746,92
401,79	1746,92
402,00	1871,84
402,21	2029,54
402,41	1871,84
402,62	2009,06
402,83	1992,67
403,04	1990,63
403,24	2054,11
403,45	1834,98
403,66	1918,95
403,87	1914,85
404,07	1837,03
404,28	1837,03
404,49	1884,13
404,70	1771,49
404,90	1794,02
405,11	1777,64
405,32	1757,16
405,52	1685,48
405,73	1652,71
405,94	1656,81
406,15	1738,73
406,35	1791,97
406,56	1810,40
406,77	1769,44
406,98	1699,81
407,18	1738,73
407,39	1748,97
407,60	1695,72
407,80	1669,09
408,01	1701,86
408,22	1685,48
408,43	1669,09
408,63	1724,39
408,84	1773,54
409,05	1767,40
409,25	1681,38
409,46	1734,63
409,67	1791,97
409,88	1699,81
410,08	1806,31
410,29	1689,57
410,50	1783,78
410,70	1777,64
410,91	1708,01
411,12	1791,97
411,32	1665,00
411,53	1683,43
411,74	1701,86
411,95	1775,59
412,15	1746,92
412,36	1763,30
412,57	1765,35
412,77	1834,98
412,98	1806,31
413,19	1628,14
413,39	1732,58
413,60	1779,68
413,81	1787,88
414,01	1624,04
414,22	1804,26
414,43	1734,63
414,63	1638,38
414,84	1837,03
415,05	1685,48
415,25	1681,38
415,46	1781,73
415,67	1685,48
415,87	1808,36
416,08	1677,29
416,29	1683,43
416,49	1751,01
416,70	1740,77
416,91	1685,48
417,11	1714,15
417,32	1736,68
417,53	1771,49
417,73	1701,86
417,94	1634,28
418,15	1742,82
418,35	1779,68
418,56	1689,57
418,77	1861,60
418,97	1691,62
419,18	1644,52
419,38	1578,98
419,59	1714,15
419,80	1798,12
420,00	1656,81
420,21	1710,05
420,42	1802,21
420,62	1769,44
420,83	1650,66
421,04	1716,20
421,24	1669,09
421,45	1763,30
421,65	1724,39
421,86	1726,44
422,07	1763,30
422,27	1703,91
422,48	1716,20
422,69	1660,90
422,89	1665,00
423,10	1665,00
423,30	1693,67
423,51	1667,05
423,72	1714,15
423,92	1773,54
424,13	1595,37
424,33	1710,05
424,54	1701,86
424,75	1789,92
424,95	1851,36
425,16	1716,20
425,36	1732,58
425,57	1824,74
425,78	1726,44
425,98	1753,06
426,19	1724,39
426,39	1648,61
426,60	1746,92
426,81	1855,46
427,01	1699,81
427,22	1665,00
427,42	1632,23
427,63	1718,25
427,83	1705,96
428,04	1828,84
428,25	1779,68
428,45	1873,89
428,66	1771,49
428,86	1751,01
429,07	1654,76
429,28	1714,15
429,48	1724,39
429,69	1695,72
429,89	1769,44
430,10	1665,00
430,30	1734,63
430,51	1783,78
430,71	1677,29
430,92	1675,24
431,13	1640,42
431,33	1769,44
431,54	1724,39
431,74	1824,74
431,95	1857,51
432,15	1667,05
432,36	1818,60
432,56	1724,39
432,77	1812,45
432,98	1818,60
433,18	1691,62
433,39	1763,30
433,59	1755,11
433,80	1863,65
434,00	1867,75
434,21	1703,91
434,41	1632,23
434,62	1814,50
434,82	1665,00
435,03	1691,62
435,23	1767,40
435,44	1665,00
435,64	1728,49
435,85	1757,16
436,06	1783,78
436,26	1751,01
436,47	1703,91
436,67	1732,58
436,88	1748,97
437,08	1812,45
437,29	1761,25
437,49	1742,82
437,70	1744,87
437,90	1732,58
438,11	1794,02
438,31	1796,07
438,52	1871,84
438,72	1802,21
438,93	1843,17
439,13	1804,26
439,34	1834,98
439,54	1748,97
439,75	1816,55
439,95	1853,41
440,16	1681,38
440,36	1787,88
440,57	1732,58
440,77	1765,35
440,98	1677,29
441,18	1814,50
441,39	1755,11
441,59	1728,49
441,80	1857,51
442,00	1771,49
442,21	1789,92
442,41	1644,52
442,62	1775,59
442,82	1693,67
443,02	1697,77
443,23	1775,59
443,43	1681,38
443,64	1898,47
443,84	1701,86
444,05	1851,36
444,25	1716,20
444,46	1716,20
444,66	1767,40
444,87	1857,51
445,07	1693,67
445,28	1677,29
445,48	1830,88
445,69	1800,16
445,89	1927,14
446,09	1820,64
446,30	2123,74
446,50	2623,45
446,71	3721,16
446,91	4304,83
447,12	4712,38
447,32	4777,91
447,53	4296,64
447,73	3868,61
447,93	3446,73
448,14	3262,41
448,34	3162,06
448,55	2842,58
448,75	2899,92
448,96	2559,96
449,16	2441,18
449,36	2250,72
449,57	2039,78
449,77	1857,51
449,98	1806,31
450,18	1789,92
450,39	1837,03
450,59	1734,63
450,79	1703,91
451,00	1724,39
451,20	1787,88
451,41	1710,05
451,61	1769,44
451,81	1705,96
452,02	1693,67
452,22	1650,66
452,43	1738,73
452,63	1679,33
452,84	1710,05
453,04	1675,24
453,24	1757,16
453,45	1755,11
453,65	1673,19
453,86	1701,86
454,06	1791,97
454,26	1785,83
454,47	1703,91
454,67	1834,98
454,87	1742,82
455,08	1738,73
455,28	1837,03
455,49	1753,06
455,69	1714,15
455,89	1884,13
456,10	1759,21
456,30	1642,47
456,51	1832,93
456,71	1779,68
456,91	1763,30
457,12	1695,72
457,32	1751,01
457,52	1699,81
457,73	1738,73
457,93	1839,08
458,14	1746,92
458,34	1673,19
458,54	1734,63
458,75	1738,73
458,95	1787,88
459,15	1718,25
459,36	1779,68
459,56	1779,68
459,76	1843,17
459,97	1724,39
460,17	1708,01
460,37	1769,44
460,58	1736,68
460,78	1761,25
460,99	1716,20
461,19	1730,53
461,39	1701,86
461,60	1695,72
461,80	1779,68
462,00	1607,66
462,21	1718,25
462,41	1746,92
462,61	1675,24
462,82	1691,62
463,02	1775,59
463,22	1755,11
463,43	1832,93
463,63	1755,11
463,83	1841,12
464,04	1705,96
464,24	1748,97
464,44	1753,06
464,64	1705,96
464,85	1824,74
465,05	1781,73
465,25	1683,43
465,46	1705,96
465,66	1783,78
465,86	1771,49
466,07	1757,16
466,27	1787,88
466,47	1652,71
466,68	1679,33
466,88	1830,88
467,08	1808,36
467,29	1763,30
467,49	1722,34
467,69	1800,16
467,89	1677,29
468,10	1755,11
468,30	1808,36
468,50	1816,55
468,71	1849,32
468,91	1687,53
469,11	1890,28
469,31	1738,73
469,52	1683,43
469,72	1705,96
469,92	1841,12
470,13	1712,10
470,33	1726,44
470,53	1855,46
470,73	2109,41
470,94	2314,20
471,14	2244,57
471,34	2557,91
471,54	2279,39
471,75	2232,29
471,95	2105,31
472,15	2129,89
472,36	2086,88
472,56	1970,15
472,76	2017,25
472,96	1918,95
473,17	1920,99
473,37	1947,62
473,57	1781,73
473,77	1736,68
473,98	1781,73
474,18	1730,53
474,38	1949,67
474,58	1687,53
474,79	1691,62
474,99	1724,39
475,19	1802,21
475,39	1755,11
475,60	1683,43
475,80	1683,43
476,00	1650,66
476,20	1738,73
476,41	1734,63
476,61	1814,50
476,81	1783,78
477,01	1742,82
477,21	1857,51
477,42	1845,22
477,62	1652,71
477,82	1734,63
478,02	1742,82
478,23	1724,39
478,43	1656,81
478,63	1697,77
478,83	1644,52
479,03	1671,14
479,24	1810,40
479,44	1861,60
479,64	1673,19
479,84	1591,27
480,04	1617,90
480,25	1675,24
480,45	1720,29
480,65	1683,43
480,85	1830,88
481,06	1726,44
481,26	1789,92
481,46	1798,12
481,66	1765,35
481,86	1701,86
482,06	1771,49
482,27	1650,66
482,47	1728,49
482,67	1771,49
482,87	1722,34
483,07	1798,12
483,28	1748,97
483,48	1691,62
483,68	1714,15
483,88	1650,66
484,08	1705,96
484,29	1640,42
484,49	1726,44
484,69	1671,14
484,89	1712,10
485,09	1822,69
485,29	1791,97
485,50	1681,38
485,70	1744,87
485,90	1800,16
486,10	1730,53
486,30	1777,64
486,50	1830,88
486,71	1759,21
486,91	1853,41
487,11	1773,54
487,31	1730,53
487,51	1697,77
487,71	1712,10
487,91	1705,96
488,12	1712,10
488,32	1644,52
488,52	1718,25
488,72	1636,33
488,92	1691,62
489,12	1822,69
489,32	1777,64
489,53	1734,63
489,73	1681,38
489,93	1757,16
490,13	1757,16
490,33	1587,18
490,53	1716,20
490,73	1802,21
490,94	1642,47
491,14	1755,11
491,34	1832,93
491,54	2176,99
491,74	2582,49
491,94	2934,74
492,14	3106,77
492,34	3047,38
492,54	2818,00
492,75	2453,47
492,95	2408,41
493,15	2334,68
493,35	2273,25
493,55	2211,81
493,75	2095,07
493,95	2160,61
494,15	1953,76
494,35	1959,91
494,56	1920,99
494,76	1726,44
494,96	1812,45
495,16	1800,16
495,36	1789,92
495,56	1734,63
495,76	1796,07
495,96	1705,96
496,16	1738,73
496,36	1880,04
496,56	1681,38
496,77	1757,16
496,97	1720,29
497,17	1894,37
497,37	1705,96
497,57	1755,11
497,77	1716,20
497,97	1730,53
498,17	1771,49
498,37	1740,77
498,57	1652,71
498,77	1720,29
498,97	1757,16
499,17	1839,08
499,38	1716,20
499,58	1763,30
499,78	1841,12
499,98	1837,03
500,18	1732,58
500,38	1730,53
500,58	1984,48
500,78	2607,06
500,98	4411,32
501,18	5818,28
501,38	6662,04
501,58	7079,83
501,78	6684,57
501,98	5492,65
502,18	4933,56
502,38	4302,78
502,58	4075,46
502,78	3784,65
502,98	3688,39
503,18	3405,77
503,38	3170,26
503,59	2754,52
503,79	2635,74
503,99	2594,78
504,19	2316,25
504,39	2142,18
504,59	2213,85
504,79	2088,93
504,99	2084,83
505,19	1904,61
505,39	1888,23
505,59	1992,67
505,79	1877,99
505,99	1837,03
506,19	1818,60
506,39	1964,00
506,59	1781,73
506,79	1751,01
506,99	1816,55
507,19	1705,96
507,39	1820,64
507,59	1581,03
507,79	1681,38
507,99	1644,52
508,19	1689,57
508,39	1722,34
508,59	1726,44
508,79	1826,79
508,99	1808,36
509,19	1724,39
509,39	1755,11
509,59	1718,25
509,79	1687,53
509,99	1742,82
510,19	1802,21
510,39	1746,92
510,59	1726,44
510,79	1746,92
510,99	1636,33
511,19	1787,88
511,39	1763,30
511,59	1824,74
511,79	1785,83
511,99	1710,05
512,19	1804,26
512,38	1667,05
512,58	1712,10
512,78	1740,77
512,98	1853,41
513,18	1837,03
513,38	1642,47
513,58	1777,64
513,78	1691,62
513,98	1767,40
514,18	1705,96
514,38	1755,11
514,58	1714,15
514,78	1665,00
514,98	1736,68
515,18	1714,15
515,38	1650,66
515,58	1882,08
515,78	1794,02
515,98	1667,05
516,18	1662,95
516,38	1783,78
516,57	1746,92
516,77	1757,16
516,97	1748,97
517,17	1658,85
517,37	1683,43
517,57	1806,31
517,77	1812,45
517,97	1763,30
518,17	1767,40
518,37	1691,62
518,57	1730,53
518,77	1820,64
518,97	1748,97
519,16	1771,49
519,36	1755,11
519,56	1705,96
519,76	1751,01
519,96	1724,39
520,16	1783,78
520,36	1675,24
520,56	1769,44
520,76	1751,01
520,96	1710,05
521,16	1755,11
521,35	1886,18
521,55	1845,22
521,75	1716,20
521,95	1687,53
522,15	1689,57
522,35	1626,09
522,55	1667,05
522,75	1763,30
522,95	1701,86
523,14	1640,42
523,34	1665,00
523,54	1736,68
523,74	1746,92
523,94	1720,29
524,14	1646,57
524,34	1800,16
524,54	1871,84
524,73	1744,87
524,93	1806,31
525,13	1708,01
525,33	1648,61
525,53	1898,47
525,73	1761,25
525,93	1712,10
526,13	1722,34
526,32	1669,09
526,52	1771,49
526,72	1767,40
526,92	1816,55
527,12	1699,81
527,32	1652,71
527,52	1751,01
527,71	1785,83
527,91	1730,53
528,11	1693,67
528,31	1757,16
528,51	1701,86
528,71	1724,39
528,90	1751,01
529,10	1882,08
529,30	1812,45
529,50	1640,42
529,70	1716,20
529,90	1746,92
530,09	1746,92
530,29	1660,90
530,49	1671,14
530,69	1898,47
530,89	1757,16
531,09	1699,81
531,28	1687,53
531,48	1757,16
531,68	1716,20
531,88	1751,01
532,08	1773,54
532,28	1699,81
532,47	1748,97
532,67	1789,92
532,87	1748,97
533,07	1697,77
533,27	1705,96
533,46	1771,49
533,66	1740,77
533,86	1804,26
534,06	1746,92
534,26	1755,11
534,45	1712,10
534,65	1841,12
534,85	1722,34
535,05	1708,01
535,25	1728,49
535,44	1636,33
535,64	1759,21
535,84	1693,67
536,04	1714,15
536,24	1742,82
536,43	1796,07
536,63	1828,84
536,83	1697,77
537,03	1705,96
537,22	1673,19
537,42	1630,18
537,62	1800,16
537,82	1609,70
538,02	1824,74
538,21	1816,55
538,41	1832,93
538,61	1810,40
538,81	1705,96
539,00	1773,54
539,20	1710,05
539,40	1714,15
539,60	1755,11
539,79	1791,97
539,99	1640,42
540,19	1658,85
540,39	1638,38
540,58	1720,29
540,78	1742,82
540,98	1732,58
541,18	1832,93
541,37	1888,23
541,57	1681,38
541,77	1818,60
541,97	1570,79
542,16	1607,66
542,36	1667,05
542,56	1814,50
542,76	1857,51
542,95	1826,79
543,15	1779,68
543,35	1757,16
543,54	1630,18
543,74	1740,77
543,94	1822,69
544,14	1714,15
544,33	1767,40
544,53	1759,21
544,73	1726,44
544,93	1687,53
545,12	1781,73
545,32	1761,25
545,52	1724,39
545,71	1701,86
545,91	1755,11
546,11	1779,68
546,30	1720,29
546,50	1744,87
546,70	1892,32
546,90	1736,68
547,09	1662,95
547,29	1798,12
547,49	1757,16
547,68	1714,15
547,88	1740,77
548,08	1771,49
548,27	2191,33
548,47	1779,68
548,67	1775,59
548,87	1746,92
549,06	1771,49
549,26	1732,58
549,46	1697,77
549,65	1693,67
549,85	1726,44
550,05	1716,20
550,24	1587,18
550,44	1738,73
550,64	1779,68
550,83	1763,30
551,03	1843,17
551,23	1810,40
551,42	1736,68
551,62	1753,06
551,82	1736,68
552,01	1761,25
552,21	1830,88
552,41	1742,82
552,60	1824,74
552,80	1826,79
553,00	1763,30
553,19	1691,62
553,39	1824,74
553,59	1732,58
553,78	1800,16
553,98	1751,01
554,17	1648,61
554,37	1759,21
554,57	1761,25
554,76	1683,43
554,96	1718,25
555,16	1693,67
555,35	1773,54
555,55	1787,88
555,75	1775,59
555,94	1816,55
556,14	1695,72
556,33	1773,54
556,53	1787,88
556,73	1681,38
556,92	1779,68
557,12	1806,31
557,32	1826,79
557,51	1830,88
557,71	1787,88
557,90	1779,68
558,10	1828,84
558,30	1699,81
558,49	1742,82
558,69	1755,11
558,88	1787,88
559,08	1816,55
559,28	1763,30
559,47	1753,06
559,67	1742,82
559,86	1857,51
560,06	1791,97
560,26	1796,07
560,45	1847,27
560,65	1804,26
560,84	1744,87
561,04	1728,49
561,24	1724,39
561,43	1697,77
561,63	1841,12
561,82	1771,49
562,02	1720,29
562,22	1656,81
562,41	1701,86
562,61	1701,86
562,80	1650,66
563,00	1925,09
563,19	1837,03
563,39	1746,92
563,59	1810,40
563,78	1677,29
563,98	1636,33
564,17	1724,39
564,37	1654,76
564,56	1767,40
564,76	1673,19
564,96	1798,12
565,15	1777,64
565,35	1871,84
565,54	1669,09
565,74	1722,34
565,93	1814,50
566,13	1837,03
566,32	1779,68
566,52	1759,21
566,71	1718,25
566,91	1906,66
567,11	1748,97
567,30	1689,57
567,50	1787,88
567,69	1839,08
567,89	1761,25
568,08	1730,53
568,28	1765,35
568,47	1734,63
568,67	1751,01
568,86	1748,97
569,06	1757,16
569,25	1736,68
569,45	1726,44
569,64	1691,62
569,84	1726,44
570,04	1685,48
570,23	1724,39
570,43	1675,24
570,62	1763,30
570,82	1804,26
571,01	1683,43
571,21	1726,44
571,40	1708,01
571,60	1791,97
571,79	1796,07
571,99	1718,25
572,18	1681,38
572,38	1834,98
572,57	1667,05
572,77	1697,77
572,96	1908,71
573,16	1787,88
573,35	1769,44
573,55	1824,74
573,74	1828,84
573,94	1693,67
574,13	1730,53
574,33	1726,44
574,52	1830,88
574,71	1660,90
574,91	1712,10
575,10	1667,05
575,30	1675,24
575,49	1730,53
575,69	1710,05
575,88	1746,92
576,08	1658,85
576,27	1777,64
576,47	1740,77
576,66	1757,16
576,86	1789,92
577,05	1804,26
577,25	1771,49
577,44	1902,56
577,64	1767,40
577,83	1882,08
578,02	1714,15
578,22	1828,84
578,41	1822,69
578,61	1732,58
578,80	1648,61
579,00	1734,63
579,19	1732,58
579,39	1806,31
579,58	1837,03
579,77	1796,07
579,97	1820,64
580,16	1845,22
580,36	1824,74
580,55	1746,92
580,75	1791,97
580,94	1730,53
581,13	1906,66
581,33	1808,36
581,52	1818,60
581,72	1796,07
581,91	1849,32
582,11	1742,82
582,30	1744,87
582,49	1808,36
582,69	1851,36
582,88	1808,36
583,08	1820,64
583,27	1824,74
583,47	1789,92
583,66	1689,57
583,85	1722,34
584,05	1769,44
584,24	1748,97
584,44	1771,49
584,63	1855,46
584,82	1841,12
585,02	1796,07
585,21	1843,17
585,41	1894,37
585,60	1800,16
585,79	1892,32
585,99	1980,39
586,18	1859,56
586,37	2195,42
586,57	3364,81
586,76	9602,93
586,96	23926,42
587,15	33568,26
587,34	39486,89
587,54	41108,88
587,73	35585,50
587,93	25740,92
588,12	21108,41
588,31	17925,87
588,51	15861,52
588,70	14837,53
588,89	13684,53
589,09	12494,66
589,28	10768,22
589,47	9049,97
589,67	7905,16
589,86	6305,70
590,06	4966,32
590,25	3780,55
590,44	2975,70
590,64	2639,83
590,83	2150,37
591,02	2107,36
591,22	1964,00
591,41	1898,47
591,60	1845,22
591,80	1941,47
591,99	1751,01
592,18	1724,39
592,38	1800,16
592,57	1777,64
592,76	1720,29
592,96	1794,02
593,15	1740,77
593,34	1861,60
593,54	1853,41
593,73	1830,88
593,92	1810,40
594,12	1724,39
594,31	1683,43
594,50	1837,03
594,70	1726,44
594,89	1894,37
595,08	1705,96
595,28	1814,50
595,47	1920,99
595,66	1849,32
595,86	1693,67
596,05	1746,92
596,24	1738,73
596,43	1832,93
596,63	1816,55
596,82	1800,16
597,01	1726,44
597,21	1859,56
597,40	1820,64
597,59	1812,45
597,79	1720,29
597,98	1771,49
598,17	1710,05
598,36	1767,40
598,56	1714,15
598,75	1771,49
598,94	1771,49
599,14	1804,26
599,33	1677,29
599,52	1808,36
599,71	1751,01
599,91	1767,40
600,10	1820,64
600,29	1728,49
600,48	1839,08
600,68	1755,11
600,87	1787,88
601,06	1740,77
601,26	1716,20
601,45	1722,34
601,64	1744,87
601,83	1812,45
602,03	1689,57
602,22	1621,99
602,41	1785,83
602,60	1834,98
602,80	1763,30
602,99	1755,11
603,18	1765,35
603,37	1775,59
603,57	1703,91
603,76	1771,49
603,95	1808,36
604,14	1671,14
604,34	1730,53
604,53	1781,73
604,72	1746,92
604,91	1812,45
605,10	1789,92
605,30	1718,25
605,49	1882,08
605,68	1771,49
605,87	1742,82
606,07	1789,92
606,26	1802,21
606,45	1832,93
606,64	1767,40
606,84	1773,54
607,03	1771,49
607,22	1816,55
607,41	1660,90
607,60	1699,81
607,80	1736,68
607,99	1763,30
608,18	1722,34
608,37	1738,73
608,56	1746,92
608,76	1806,31
608,95	1806,31
609,14	1810,40
609,33	1877,99
609,52	1779,68
609,72	1757,16
609,91	1724,39
610,10	1794,02
610,29	1867,75
610,48	1726,44
610,68	1775,59
610,87	1740,77
611,06	1787,88
611,25	1701,86
611,44	1837,03
611,63	1699,81
611,83	1779,68
612,02	1714,15
612,21	1871,84
612,40	1665,00
612,59	1697,77
612,79	1806,31
612,98	1742,82
613,17	1849,32
613,36	1742,82
613,55	1748,97
613,74	1701,86
613,93	1779,68
614,13	1724,39
614,32	1738,73
614,51	1763,30
614,70	1722,34
614,89	1697,77
615,08	1710,05
615,28	1961,95
615,47	1685,48
615,66	1783,78
615,85	1763,30
616,04	1759,21
616,23	1753,06
616,42	1796,07
616,62	1808,36
616,81	1806,31
617,00	1744,87
617,19	1810,40
617,38	1736,68
617,57	1705,96
617,76	1675,24
617,95	1783,78
618,15	1757,16
618,34	1775,59
618,53	1695,72
618,72	1804,26
618,91	1791,97
619,10	1740,77
619,29	1761,25
619,48	1712,10
619,68	1646,57
619,87	1654,76
620,06	1646,57
620,25	1746,92
620,44	1798,12
620,63	1728,49
620,82	1722,34
621,01	1710,05
621,20	1705,96
621,39	1710,05
621,59	1826,79
621,78	1722,34
621,97	1730,53
622,16	1804,26
622,35	1738,73
622,54	1861,60
622,73	1808,36
622,92	1652,71
623,11	1865,70
623,30	1685,48
623,49	1818,60
623,68	1734,63
623,88	1796,07
624,07	1716,20
624,26	1701,86
624,45	1734,63
624,64	1705,96
624,83	1701,86
625,02	1681,38
625,21	1757,16
625,40	1773,54
625,59	1808,36
625,78	1755,11
625,97	1834,98
626,16	1781,73
626,35	1775,59
626,54	1693,67
626,74	1746,92
626,93	1693,67
627,12	1738,73
627,31	1708,01
627,50	1748,97
627,69	1714,15
627,88	1693,67
628,07	1740,77
628,26	1634,28
628,45	1675,24
628,64	1667,05
628,83	1697,77
629,02	1689,57
629,21	1730,53
629,40	1744,87
629,59	1660,90
629,78	1681,38
629,97	1689,57
630,16	1746,92
630,35	1763,30
630,54	1705,96
630,73	1634,28
630,92	1751,01
631,11	1652,71
631,30	1781,73
631,49	1820,64
631,68	1695,72
631,87	1736,68
632,06	1589,22
632,25	1880,04
632,44	1599,46
632,63	1691,62
632,82	1718,25
633,01	1685,48
633,20	1769,44
633,39	1675,24
633,58	1693,67
633,77	1699,81
633,96	1828,84
634,15	1738,73
634,34	1791,97
634,53	1802,21
634,72	1667,05
634,91	1695,72
635,10	1734,63
635,29	1794,02
635,48	1757,16
635,67	1726,44
635,86	1734,63
636,05	1767,40
636,24	1714,15
636,43	1767,40
636,62	1720,29
636,81	1568,74
637,00	1773,54
637,19	1728,49
637,38	1794,02
637,57	1705,96
637,76	1701,86
637,95	1736,68
638,14	1599,46
638,33	1703,91
638,52	1753,06
638,71	1640,42
638,89	1738,73
639,08	1775,59
639,27	1812,45
639,46	1691,62
639,65	1820,64
639,84	1630,18
640,03	1748,97
640,22	1697,77
640,41	1796,07
640,60	1656,81
640,79	1722,34
640,98	1693,67
641,17	1712,10
641,36	1701,86
641,55	1834,98
641,74	1648,61
641,92	1726,44
642,11	1705,96
642,30	1712,10
642,49	1677,29
642,68	1621,99
642,87	1771,49
643,06	1755,11
643,25	1691,62
643,44	1712,10
643,63	1710,05
643,82	1755,11
644,00	1708,01
644,19	1685,48
644,38	1689,57
644,57	1742,82
644,76	1734,63
644,95	1714,15
645,14	1667,05
645,33	1708,01
645,52	1740,77
645,71	1638,38
645,89	1685,48
646,08	1755,11
646,27	1712,10
646,46	1855,46
646,65	1695,72
646,84	1740,77
647,03	1660,90
647,22	1818,60
647,40	1724,39
647,59	1658,85
647,78	1574,89
647,97	1644,52
648,16	1585,13
648,35	1806,31
648,54	1765,35
648,73	1732,58
648,91	1755,11
649,10	1716,20
649,29	1720,29
649,48	1705,96
649,67	1748,97
649,86	1722,34
650,05	1710,05
650,23	1724,39
650,42	1652,71
650,61	1751,01
650,80	1736,68
650,99	1800,16
651,18	1734,63
651,36	1798,12
651,55	1677,29
651,74	1800,16
651,93	1705,96
652,12	1685,48
652,31	1673,19
652,49	1705,96
652,68	1726,44
652,87	1781,73
653,06	1722,34
653,25	1841,12
653,44	1744,87
653,62	1812,45
653,81	1656,81
654,00	1732,58
654,19	1781,73
654,38	1855,46
654,56	1732,58
654,75	1740,77
654,94	1845,22
655,13	1779,68
655,32	1730,53
655,51	1830,88
655,69	1669,09
655,88	1705,96
656,07	1761,25
656,26	1681,38
656,45	1609,70
656,63	1699,81
656,82	1800,16
657,01	1816,55
657,20	1681,38
657,38	1806,31
657,57	1728,49
657,76	1644,52
657,95	1794,02
658,14	1751,01
658,32	1722,34
658,51	1669,09
658,70	1781,73
658,89	1769,44
659,08	1669,09
659,26	1804,26
659,45	1740,77
659,64	1644,52
659,83	1724,39
660,01	1929,19
660,20	1767,40
660,39	1740,77
660,58	1540,07
660,76	1834,98
660,95	1617,90
661,14	1658,85
661,33	1624,04
661,51	1681,38
661,70	1667,05
661,89	1701,86
662,08	1714,15
662,26	1691,62
662,45	1632,23
662,64	1810,40
662,83	1767,40
663,01	1662,95
663,20	1693,67
663,39	1744,87
663,58	1714,15
663,76	1767,40
663,95	1775,59
664,14	1755,11
664,32	1716,20
664,51	1619,94
664,70	1630,18
664,89	1800,16
665,07	1648,61
665,26	1775,59
665,45	1753,06
665,64	1755,11
665,82	1695,72
666,01	1765,35
666,20	1738,73
666,38	1834,98
666,57	1812,45
666,76	2125,79
666,95	4503,48
667,13	10364,77
667,32	14905,12
667,51	17497,84
667,69	18542,31
667,88	17454,84
668,07	12109,64
668,25	9529,20
668,44	8025,99
668,63	7249,81
668,81	6807,45
669,00	6229,92
669,19	5574,57
669,38	4929,46
669,56	4618,17
669,75	4014,02
669,94	3450,83
670,12	2793,43
670,31	2535,39
670,50	2326,49
670,68	2140,13
670,87	1933,28
671,06	1849,32
671,24	1783,78
671,43	1820,64
671,62	1699,81
671,80	1697,77
671,99	1746,92
672,18	1736,68
672,36	1806,31
672,55	1724,39
672,74	1677,29
672,92	1769,44
673,11	1738,73
673,29	1689,57
673,48	1863,65
673,67	1667,05
673,85	1781,73
674,04	1705,96
674,23	1712,10
674,41	1834,98
674,60	1656,81
674,79	1650,66
674,97	1705,96
675,16	1794,02
675,34	1806,31
675,53	1667,05
675,72	1722,34
675,90	1785,83
676,09	1699,81
676,28	1697,77
676,46	1703,91
676,65	1759,21
676,83	1785,83
677,02	1632,23
677,21	1683,43
677,39	1677,29
677,58	1656,81
677,77	1712,10
677,95	1603,56
678,14	1652,71
678,32	1738,73
678,51	1630,18
678,70	1837,03
678,88	1673,19
679,07	1650,66
679,25	1685,48
679,44	1728,49
679,63	1695,72
679,81	1761,25
680,00	1814,50
680,18	1755,11
680,37	1779,68
680,55	1701,86
680,74	1656,81
680,93	1548,26
681,11	1794,02
681,30	1732,58
681,48	1718,25
681,67	1710,05
681,85	1646,57
682,04	1667,05
682,23	1796,07
682,41	1703,91
682,60	1753,06
682,78	1740,77
682,97	1621,99
683,15	1742,82
683,34	1728,49
683,53	1771,49
683,71	1662,95
683,90	1826,79
684,08	1757,16
684,27	1771,49
684,45	1714,15
684,64	1806,31
684,82	1765,35
685,01	1818,60
685,19	1708,01
685,38	1800,16
685,57	1718,25
685,75	1716,20
685,94	1710,05
686,12	1669,09
686,31	1685,48
686,49	1832,93
686,68	1642,47
686,86	1773,54
687,05	1679,33
687,23	1746,92
687,42	1681,38
687,60	1724,39
687,79	1763,30
687,97	1781,73
688,16	1820,64
688,34	1765,35
688,53	1624,04
688,71	1798,12
688,90	1863,65
689,08	1765,35
689,27	1656,81
689,45	1767,40
689,64	1837,03
689,82	1757,16
690,01	1794,02
690,19	1828,84
690,38	1667,05
690,56	1787,88
690,75	1746,92
690,93	1701,86
691,12	1701,86
691,30	1665,00
691,49	1712,10
691,67	1771,49
691,86	1845,22
692,04	1671,14
692,23	1648,61
692,41	1640,42
692,60	1775,59
692,78	1777,64
692,97	1697,77
693,15	1765,35
693,34	1804,26
693,52	1761,25
693,71	1691,62
693,89	1691,62
694,08	1591,27
694,26	1755,11
694,44	1791,97
694,63	1701,86
694,81	1638,38
695,00	1710,05
695,18	1665,00
695,37	1877,99
695,55	1732,58
695,74	1738,73
695,92	1681,38
696,10	1767,40
696,29	1628,14
696,47	1636,33
696,66	1689,57
696,84	1593,32
697,03	1712,10
697,21	1794,02
697,40	2316,25
697,58	1861,60
697,76	1736,68
697,95	1656,81
698,13	1597,42
698,32	1800,16
698,50	1732,58
698,68	1791,97
698,87	1771,49
699,05	1683,43
699,24	1685,48
699,42	1662,95
699,61	1742,82
699,79	1859,56
699,97	1775,59
700,16	1656,81
700,34	1648,61
700,53	1822,69
700,71	1728,49
700,89	1701,86
701,08	1736,68
701,26	1675,24
701,45	2138,08
701,63	1667,05
701,81	1693,67
702,00	1656,81
702,18	1710,05
702,37	1716,20
702,55	1808,36
702,73	1650,66
702,92	1619,94
703,10	1769,44
703,28	1759,21
703,47	1718,25
703,65	1759,21
703,84	1759,21
704,02	1710,05
704,20	1746,92
704,39	1693,67
704,57	1644,52
704,75	1771,49
704,94	1722,34
705,12	1716,20
705,30	1716,20
705,49	2248,67
705,67	4431,80
705,86	9121,65
706,04	12232,52
706,22	14104,36
706,41	14898,97
706,59	13463,35
706,77	9412,46
706,96	7237,52
707,14	6373,28
707,32	5875,62
707,51	5445,55
707,69	4812,73
707,87	4149,18
708,06	3594,19
708,24	2949,08
708,42	2496,47
708,61	2258,91
708,79	1834,98
708,97	1775,59
709,16	1865,70
709,34	1828,84
709,52	1656,81
709,71	1671,14
709,89	1761,25
710,07	1632,23
710,26	1681,38
710,44	1726,44
710,62	1867,75
710,80	1746,92
710,99	1765,35
711,17	1740,77
711,35	1681,38
711,54	1650,66
711,72	1845,22
711,90	1804,26
712,09	1757,16
712,27	1691,62
712,45	1718,25
712,63	1609,70
712,82	1697,77
713,00	1763,30
713,18	1705,96
713,37	1804,26
713,55	1691,62
713,73	1773,54
713,91	1794,02
714,10	1730,53
714,28	1652,71
714,46	1763,30
714,65	1759,21
714,83	1716,20
715,01	1701,86
715,19	1759,21
715,38	1701,86
715,56	1716,20
715,74	1710,05
715,92	1679,33
716,11	1753,06
716,29	1636,33
716,47	1619,94
716,65	1708,01
716,84	1687,53
717,02	1785,83
717,20	1591,27
717,38	1701,86
717,57	1681,38
717,75	1697,77
717,93	1699,81
718,11	1722,34
718,30	1671,14
718,48	1710,05
718,66	1751,01
718,84	1812,45
719,03	1720,29
719,21	1648,61
719,39	1824,74
719,57	1748,97
719,75	1734,63
719,94	1703,91
720,12	1761,25
720,30	1771,49
720,48	1791,97
720,67	1626,09
720,85	1613,80
721,03	1687,53
721,21	1703,91
721,39	1763,30
721,58	1730,53
721,76	1695,72
721,94	1730,53
722,12	1714,15
722,30	1804,26
722,49	1708,01
722,67	1650,66
722,85	1697,77
723,03	1656,81
723,21	1667,05
723,40	1736,68
723,58	1820,64
723,76	1742,82
723,94	1789,92
724,12	1728,49
724,30	1703,91
724,49	1720,29
724,67	1648,61
724,85	1753,06
725,03	1634,28
725,21	1714,15
725,40	1767,40
725,58	1738,73
725,76	1726,44
725,94	1740,77
726,12	1648,61
726,30	1681,38
726,49	1685,48
726,67	1751,01
726,85	1708,01
727,03	1738,73
727,21	2148,32
727,39	2840,53
727,57	3733,45
727,76	3946,44
727,94	4341,69
728,12	4327,36
728,30	3727,30
728,48	2885,59
728,66	2670,55
728,84	2516,95
729,03	2346,97
729,21	2168,80
729,39	1943,52
729,57	1839,08
729,75	1837,03
729,93	1791,97
730,11	1687,53
730,30	1687,53
730,48	1734,63
730,66	1849,32
730,84	1744,87
731,02	1714,15
731,20	1613,80
731,38	1738,73
731,56	1665,00
731,74	1593,32
731,93	1777,64
732,11	1705,96
732,29	1708,01
732,47	1660,90
732,65	1769,44
732,83	1744,87
733,01	1718,25
733,19	1722,34
733,37	1687,53
733,56	1765,35
733,74	1728,49
733,92	1843,17
734,10	1775,59
734,28	1765,35
734,46	1615,85
734,64	1728,49
734,82	1726,44
735,00	1736,68
735,18	1705,96
735,36	1726,44
735,54	1650,66
735,73	1738,73
735,91	1695,72
736,09	1738,73
736,27	1703,91
736,45	1734,63
736,63	1705,96
736,81	1679,33
736,99	1773,54
737,17	1796,07
737,35	1783,78
737,53	1607,66
737,71	1701,86
737,89	1787,88
738,07	1650,66
738,25	1714,15
738,43	1599,46
738,61	1701,86
738,80	1607,66
738,98	1734,63
739,16	1673,19
739,34	1636,33
739,52	1832,93
739,70	1728,49
739,88	1699,81
740,06	1759,21
740,24	1650,66
740,42	1755,11
740,60	1669,09
740,78	1757,16
740,96	1716,20
741,14	1785,83
741,32	1705,96
741,50	1601,51
741,68	1773,54
741,86	1779,68
742,04	1697,77
742,22	1632,23
742,40	1673,19
742,58	1765,35
742,76	1697,77
742,94	1765,35
743,12	1583,08
743,30	1626,09
743,48	1712,10
743,66	1705,96
743,84	1843,17
744,02	1781,73
744,20	1685,48
744,38	1693,67
744,56	1779,68
744,74	1863,65
744,92	1714,15
745,10	1759,21
745,28	1681,38
745,46	1841,12
745,64	1718,25
745,82	1783,78
746,00	1732,58
746,18	1775,59
746,36	1693,67
746,54	1724,39
746,72	1736,68
746,90	1593,32
747,08	1746,92
747,26	1665,00
747,44	1810,40
747,62	1824,74
747,80	1746,92
747,98	1845,22
748,15	1714,15
748,33	1824,74
748,51	1689,57
748,69	1746,92
748,87	1665,00
749,05	1683,43
749,23	1734,63
749,41	1763,30
749,59	1718,25
749,77	1683,43
749,95	1751,01
750,13	1613,80
750,31	1712,10
750,49	1658,85
750,67	1757,16
750,85	1820,64
751,03	1769,44
751,20	1787,88
751,38	1730,53
751,56	1720,29
751,74	1687,53
751,92	1699,81
752,10	1683,43
752,28	1693,67
752,46	1626,09
752,64	1724,39
752,82	1824,74
753,00	1808,36
753,18	1673,19
753,35	1677,29
753,53	1728,49
753,71	1665,00
753,89	1734,63
754,07	1724,39
754,25	1791,97
754,43	1738,73
754,61	1599,46
754,79	1744,87
754,97	1644,52
755,14	1779,68
755,32	1636,33
755,50	1763,30
755,68	1726,44
755,86	1570,79
756,04	1732,58
756,22	1591,27
756,40	1771,49
756,57	1759,21
756,75	1632,23
756,93	1796,07
757,11	1787,88
757,29	1546,22
757,47	1671,14
757,65	1531,88
757,82	1570,79
758,00	1714,15
758,18	1640,42
758,36	1722,34
758,54	1755,11
758,72	1669,09
758,90	1740,77
759,07	1769,44
759,25	1718,25
759,43	1744,87
759,61	1654,76
759,79	2230,24
759,97	1802,21
760,15	1650,66
760,32	1730,53
760,50	1769,44
760,68	1828,84
760,86	1701,86
761,04	1800,16
761,22	1773,54
761,39	1732,58
761,57	1740,77
761,75	1730,53
761,93	1681,38
762,11	1699,81
762,28	1730,53
762,46	1624,04
762,64	1738,73
762,82	1644,52
763,00	1718,25
763,18	1808,36
763,35	1669,09
763,53	1769,44
763,71	1654,76
763,89	1701,86
764,07	1785,83
764,24	1615,85
764,42	1808,36
764,60	1685,48
764,78	1742,82
764,96	1865,70
765,13	1728,49
765,31	1699,81
765,49	1695,72
765,67	1648,61
765,84	1722,34
766,02	1697,77
766,20	1593,32
766,38	1767,40
766,56	1710,05
766,73	1730,53
766,91	1714,15
767,09	1726,44
767,27	1701,86
767,44	1730,53
767,62	1773,54
767,80	1705,96
767,98	1689,57
768,15	1691,62
768,33	1716,20
768,51	1742,82
768,69	1734,63
768,87	1736,68
769,04	1759,21
769,22	1853,41
769,40	1740,77
769,58	1896,42
769,75	1710,05
769,93	1720,29
770,11	1624,04
770,28	1775,59
770,46	1744,87
770,64	1705,96
770,82	1720,29
770,99	1710,05
771,17	1746,92
771,35	1673,19
771,53	1705,96
771,70	1724,39
771,88	1789,92
772,06	1712,10
772,23	1697,77
772,41	1810,40
772,59	1728,49
772,77	1615,85
772,94	1638,38
773,12	1714,15
773,30	1683,43
773,47	1708,01
773,65	1652,71
773,83	1824,74
774,01	1845,22
774,18	1687,53
774,36	1718,25
774,54	1714,15
774,71	1730,53
774,89	1646,57
775,07	1765,35
775,24	1652,71
775,42	1693,67
775,60	1863,65
775,78	1683,43
775,95	1708,01
776,13	1546,22
776,31	1642,47
776,48	1652,71
776,66	1763,30
776,84	1693,67
777,01	1748,97
777,19	1648,61
777,37	1699,81
777,54	1665,00
777,72	1816,55
777,90	1693,67
778,07	1726,44
778,25	1906,66
778,43	1828,84
778,60	1593,32
778,78	1746,92
778,96	1765,35
779,13	1658,85
779,31	1798,12
779,49	1734,63
779,66	1769,44
779,84	1667,05
780,01	1763,30
780,19	1636,33
780,37	1810,40
780,54	1716,20
780,72	1683,43
780,90	1740,77
781,07	1742,82
781,25	1705,96
781,43	1689,57
781,60	1710,05
781,78	1769,44
781,95	1791,97
782,13	1646,57
782,31	1699,81
782,48	1748,97
782,66	1673,19
782,83	1837,03
783,01	1751,01
783,19	1753,06
783,36	1759,21
783,54	1691,62
783,72	1814,50
783,89	1734,63
784,07	1730,53
784,24	1683,43
784,42	1886,18
784,60	1734,63
784,77	1736,68
784,95	1671,14
785,12	1646,57
785,30	1699,81
785,47	1689,57
785,65	1677,29
785,83	1722,34
786,00	1691,62
786,18	1734,63
786,35	1568,74
786,53	1658,85
786,71	1796,07
786,88	1738,73
787,06	1636,33
787,23	1667,05
787,41	1705,96
787,58	1705,96
787,76	1794,02
787,94	1671,14
788,11	1732,58
788,29	1669,09
788,46	1730,53
788,64	1564,65
788,81	1675,24
788,99	1656,81
789,16	1644,52
789,34	1679,33
789,52	1638,38
789,69	1654,76
789,87	1595,37
790,04	1685,48
790,22	1712,10
790,39	1755,11
790,57	1585,13
790,74	1660,90
790,92	1714,15
791,09	1599,46
791,27	1708,01
791,44	1746,92
791,62	1677,29
791,79	1748,97
791,97	1708,01
792,15	1865,70
792,32	1744,87
792,50	1738,73
792,67	1855,46
792,85	1820,64
793,02	1718,25
793,20	1687,53
793,37	1642,47
793,55	1718,25
793,72	1677,29
793,90	1755,11
794,07	1695,72
794,25	1617,90
794,42	1701,86
794,60	1724,39
794,77	1728,49
794,95	1722,34
795,12	1759,21
795,30	1673,19
795,47	1667,05
795,65	1927,14
795,82	1714,15
796,00	1718,25
796,17	1681,38
796,34	1640,42
796,52	1730,53
796,69	1689,57
796,87	1746,92
797,04	1751,01
797,22	1695,72
797,39	1796,07
797,57	1763,30
797,74	1755,11
797,92	1697,77
798,09	1712,10
798,27	1722,34
798,44	1699,81
798,62	1617,90
798,79	1660,90
798,96	1669,09
799,14	1677,29
799,31	1871,84
799,49	1689,57
799,66	1628,14
799,84	1703,91
800,01	1583,08
800,19	1779,68
800,36	1638,38
800,53	1689,57
800,71	1712,10
800,88	1757,16
801,06	1806,31
801,23	1644,52
801,41	1716,20
801,58	1693,67
801,75	1611,75
801,93	1675,24
802,10	1781,73
802,28	1724,39
802,45	1630,18
802,63	1732,58
802,80	1740,77
802,97	1746,92
803,15	1769,44
803,32	1662,95
803,50	1712,10
803,67	1607,66
803,84	1658,85
804,02	1621,99
804,19	1613,80
804,37	1599,46
804,54	1576,94
804,71	1724,39
804,89	1726,44
805,06	1658,85
805,24	1667,05
805,41	1613,80
805,58	1740,77
805,76	1804,26
805,93	1681,38
806,10	1714,15
806,28	1703,91
806,45	1802,21
806,63	1759,21
806,80	1775,59
806,97	1691,62
807,15	1708,01
807,32	1734,63
807,49	1710,05
807,67	1689,57
807,84	1697,77
808,01	1683,43
808,19	1773,54
808,36	1796,07
808,54	1642,47
808,71	1679,33
808,88	1732,58
809,06	1691,62
809,23	1818,60
809,40	1708,01
809,58	1794,02
809,75	1662,95
809,92	1634,28
810,10	1839,08
810,27	1740,77
810,44	1665,00
810,62	1800,16
810,79	1695,72
810,96	1714,15
811,14	1648,61
811,31	1818,60
811,48	1818,60
811,66	1697,77
811,83	1775,59
812,00	1761,25
812,18	1699,81
812,35	1845,22
812,52	1718,25
812,69	1599,46
812,87	1658,85
813,04	1775,59
813,21	1671,14
813,39	1722,34
813,56	1679,33
813,73	1800,16
813,91	1593,32
814,08	1699,81
814,25	1710,05
814,42	1640,42
814,60	1640,42
814,77	1669,09
814,94	1673,19
815,12	1722,34
815,29	1783,78
815,46	1716,20
815,63	1746,92
815,81	1632,23
815,98	1681,38
816,15	1718,25
816,33	1671,14
816,50	1683,43
816,67	1619,94
816,84	1652,71
817,02	1595,37
817,19	1660,90
817,36	1726,44
817,53	1787,88
817,71	1626,09
817,88	1779,68
818,05	1640,42
818,22	1710,05
818,40	1880,04
818,57	1753,06
818,74	1771,49
818,91	1660,90
819,09	1767,40
819,26	1751,01
819,43	1665,00
819,60	1697,77
819,78	1755,11
819,95	1779,68
820,12	1703,91
820,29	1783,78
820,47	1685,48
820,64	1673,19
820,81	1660,90
820,98	1646,57
821,15	1617,90
821,33	1722,34
821,50	1572,84
821,67	1738,73
821,84	1667,05
822,02	1779,68
822,19	1820,64
822,36	1675,24
822,53	1703,91
822,70	1642,47
822,88	1759,21
823,05	1794,02
823,22	1718,25
823,39	1740,77
823,56	1787,88
823,74	1777,64
823,91	1665,00
824,08	1687,53
824,25	1628,14
824,42	1775,59
824,60	1658,85
824,77	1730,53
824,94	1644,52
825,11	1691,62
825,28	1619,94
825,45	1736,68
825,63	1753,06
825,80	1607,66
825,97	1748,97
826,14	1619,94
826,31	1628,14
826,48	1689,57
826,66	1677,29
826,83	1603,56
827,00	1687,53
827,17	1691,62
827,34	1697,77
827,51	1660,90
827,69	1722,34
827,86	1626,09
828,03	1742,82
828,20	1712,10
828,37	1710,05
828,54	1800,16
828,71	1695,72
828,89	1841,12
829,06	1671,14
829,23	1787,88
829,40	1662,95
829,57	1648,61
829,74	1781,73
829,91	1642,47
830,09	1603,56
830,26	1746,92
830,43	1800,16
830,60	1740,77
830,77	1701,86
830,94	1705,96
831,11	1689,57
831,28	1660,90
831,46	1798,12
831,63	1755,11
831,80	1781,73
831,97	1687,53
832,14	1632,23
832,31	1765,35
832,48	1755,11
832,65	1763,30
832,82	1746,92
832,99	1748,97
833,17	1648,61
833,34	1789,92
833,51	1665,00
833,68	1568,74
833,85	1742,82
834,02	1556,46
834,19	1669,09
834,36	1675,24
834,53	1740,77
834,70	1785,83
834,87	1738,73
835,04	1755,11
835,22	1626,09
835,39	1689,57
835,56	1660,90
835,73	1736,68
835,90	1732,58
836,07	1632,23
836,24	1751,01
836,41	1628,14
836,58	1691,62
836,75	1755,11
836,92	1648,61
837,09	1728,49
837,26	1767,40
837,43	1789,92
837,60	1671,14
837,77	1673,19
837,94	1738,73
838,12	1705,96
838,29	1787,88
838,46	1591,27
838,63	1619,94
838,80	1798,12
838,97	1748,97
839,14	1621,99
839,31	1761,25
839,48	1708,01
839,65	1675,24
839,82	1714,15
839,99	1777,64
840,16	1656,81
840,33	1632,23
840,50	1722,34
840,67	1712,10
840,84	1538,02
841,01	1734,63
841,18	1589,22
841,35	1708,01
841,52	1730,53
841,69	1808,36
841,86	1665,00
842,03	1685,48
842,20	1839,08
842,37	1703,91
842,54	1669,09
842,71	1720,29
842,88	1652,71
843,05	1734,63
843,22	1722,34
843,39	1710,05
843,56	1638,38
843,73	1730,53
843,90	1703,91
844,07	1671,14
844,24	1751,01
844,41	1701,86
844,58	1810,40
844,75	1736,68
844,92	1673,19
845,09	1705,96
845,26	1626,09
845,43	1775,59
845,60	1714,15
845,77	1681,38
845,94	1740,77
846,10	1751,01
846,27	1550,31
846,44	1558,50
846,61	1753,06
846,78	1724,39
846,95	1847,27
847,12	1716,20
847,29	1742,82
847,46	1671,14
847,63	1802,21
847,80	1748,97
847,97	1748,97
848,14	1808,36
848,31	1626,09
848,48	1656,81
848,65	1662,95
848,82	1697,77
848,98	1802,21
849,15	1779,68
849,32	1744,87
849,49	1748,97
849,66	1677,29
849,83	1699,81
850,00	1601,51
850,17	1687,53
850,34	1734,63
850,51	1699,81
850,68	1775,59
850,85	1744,87
851,01	1681,38
851,18	1658,85
851,35	1671,14
851,52	1632,23
851,69	1869,80
851,86	1574,89
852,03	1708,01
852,20	1757,16
852,37	1673,19
852,53	1621,99
852,70	1673,19
852,87	1683,43
853,04	1761,25
853,21	1751,01
853,38	1824,74
853,55	1775,59
853,72	1798,12
853,89	1638,38
854,05	1660,90
854,22	1753,06
854,39	1691,62
854,56	1787,88
854,73	1755,11
854,90	1638,38
855,07	1703,91
855,23	1742,82
855,40	1675,24
855,57	1658,85
855,74	1574,89
855,91	1906,66
856,08	1615,85
856,25	1660,90
856,41	1667,05
856,58	1673,19
856,75	1746,92
856,92	1648,61
857,09	1734,63
857,26	1642,47
857,42	1738,73
857,59	1732,58
857,76	1738,73
857,93	1751,01
858,10	1701,86
858,27	1581,03
858,43	1718,25
858,60	1632,23
858,77	1628,14
858,94	1703,91
859,11	1738,73
859,27	1701,86
859,44	1740,77
859,61	1818,60
859,78	1730,53
859,95	1615,85
860,12	1734,63
860,28	1822,69
860,45	1765,35
860,62	1683,43
860,79	1726,44
860,95	1669,09
861,12	1644,52
861,29	1603,56
861,46	1685,48
861,63	1712,10
861,79	1773,54
861,96	1632,23
862,13	1708,01
862,30	1744,87
862,47	1578,98
862,63	1675,24
862,80	1796,07
862,97	1695,72
863,14	1757,16
863,30	1650,66
863,47	1640,42
863,64	1785,83
863,81	1701,86
863,97	1628,14
864,14	1730,53
864,31	1726,44
864,48	1777,64
864,65	1695,72
864,81	1732,58
864,98	1656,81
865,15	1746,92
865,32	1705,96
865,48	1787,88
865,65	1759,21
865,82	1695,72
865,98	1734,63
866,15	1712,10
866,32	1679,33
866,49	1720,29
866,65	1808,36
866,82	1558,50
866,99	1763,30
867,16	1621,99
867,32	1593,32
867,49	1740,77
867,66	1742,82
867,83	1662,95
867,99	1665,00
868,16	1708,01
868,33	1587,18
868,49	1681,38
868,66	1742,82
868,83	1781,73
868,99	1660,90
869,16	1767,40
869,33	1701,86
869,50	1783,78
869,66	1685,48
869,83	1697,77
870,00	1632,23
870,16	1734,63
870,33	1695,72
870,50	1763,30
870,66	1724,39
870,83	1796,07
871,00	1761,25
871,17	1722,34
871,33	1722,34
871,50	1665,00
871,67	1677,29
871,83	1624,04
872,00	1789,92
872,17	1665,00
872,33	1908,71
872,50	1779,68
872,67	1691,62
872,83	1691,62
873,00	1710,05
873,17	1718,25
873,33	1751,01
873,50	1732,58
873,67	1728,49
873,83	1683,43
874,00	1628,14
874,16	1761,25
874,33	1722,34
874,50	1648,61
874,66	1675,24
874,83	1697,77
875,00	1763,30
875,16	1738,73
875,33	1830,88
875,50	1574,89
875,66	1597,42
875,83	1753,06
875,99	1761,25
876,16	1689,57
876,33	1644,52
876,49	1714,15
876,66	1767,40
876,83	1695,72
876,99	1658,85
877,16	1710,05
877,32	1654,76
877,49	1718,25
877,66	1732,58
877,82	1773,54
877,99	1701,86
878,15	1677,29
878,32	1755,11
878,49	1830,88
878,65	1642,47
878,82	1781,73
878,98	1683,43
879,15	1812,45
879,32	1785,83
879,48	1691,62
879,65	1677,29
879,81	1720,29
879,98	1656,81
880,15	1650,66
880,31	1746,92
880,48	1671,14
880,64	1771,49
880,81	1746,92
880,97	1814,50
881,14	1730,53
881,31	1597,42
881,47	1826,79
881,64	1718,25
881,80	1617,90
881,97	1648,61
882,13	1843,17
882,30	1669,09
882,47	1673,19
882,63	1726,44
882,80	1679,33
882,96	1726,44
883,13	1779,68
883,29	1740,77
883,46	1734,63
883,62	1759,21
883,79	1689,57
883,95	1736,68
884,12	1665,00
884,29	1697,77
884,45	1669,09
884,62	1720,29
884,78	1683,43
884,95	1775,59
885,11	1675,24
885,28	1751,01
885,44	1607,66
885,61	1765,35
885,77	1775,59
885,94	1763,30
886,10	1673,19
886,27	1685,48
886,43	1753,06
886,60	1761,25
886,76	1695,72
886,93	1677,29
887,09	1794,02
887,26	1607,66
887,42	1740,77
887,59	1714,15
887,75	1812,45
887,92	1820,64
888,08	1779,68
888,25	1779,68
888,41	1791,97
888,58	1710,05
888,74	1550,31
888,91	1681,38
>>>>>End Processed Spectral Data<<<<<
