SpectraSuite Data File
++++++++++++++++++++++++++++++++++++
Date: Mon Jun 06 15:33:57 CEST 2016
User: root
Dark Spectrum Present: No
Reference Spectrum Present: No
Number of Sampled Component Spectra: 1
Spectrometers: USB4C02835
Integration Time (usec): 100000 (USB4C02835)
Spectra Averaged: 1 (USB4C02835)
Boxcar Smoothing: 0 (USB4C02835)
Correct for Electrical Dark: No (USB4C02835)
Strobe/Lamp Enabled: No (USB4C02835)
Correct for Detector Non-linearity: No (USB4C02835)
Correct for Stray Light: No (USB4C02835)
Number of Pixels in Processed Spectrum: 3648
>>>>>Begin Processed Spectral Data<<<<<
177,47	1417,19
177,69	1417,19
177,91	1417,19
178,13	1370,09
178,36	1431,53
178,58	1574,89
178,80	1742,82
179,02	1611,75
179,24	1667,05
179,46	1695,72
179,68	1732,58
179,90	1675,24
180,13	1652,71
180,35	1724,39
180,57	1691,62
180,79	1779,68
181,01	1763,30
181,23	1689,57
181,45	1740,77
181,67	1742,82
181,90	1779,68
182,12	1730,53
182,34	1642,47
182,56	1732,58
182,78	1763,30
183,00	1742,82
183,22	1746,92
183,44	1636,33
183,66	1861,60
183,89	1771,49
184,11	1685,48
184,33	1665,00
184,55	1789,92
184,77	1734,63
184,99	1751,01
185,21	1722,34
185,43	1937,38
185,65	1667,05
185,87	1722,34
186,10	1800,16
186,32	1857,51
186,54	1783,78
186,76	1755,11
186,98	1687,53
187,20	1675,24
187,42	1675,24
187,64	1644,52
187,86	1632,23
188,08	1767,40
188,30	1691,62
188,52	1763,30
188,75	1722,34
188,97	1787,88
189,19	1648,61
189,41	1591,27
189,63	1751,01
189,85	1648,61
190,07	1634,28
190,29	1656,81
190,51	1748,97
190,73	1634,28
190,95	1775,59
191,17	1771,49
191,39	1583,08
191,61	1634,28
191,84	1712,10
192,06	1796,07
192,28	1640,42
192,50	1841,12
192,72	1769,44
192,94	1738,73
193,16	1742,82
193,38	1787,88
193,60	1724,39
193,82	1708,01
194,04	1693,67
194,26	1683,43
194,48	1642,47
194,70	1718,25
194,92	1697,77
195,14	1736,68
195,36	1656,81
195,58	1626,09
195,80	1642,47
196,02	1658,85
196,24	1787,88
196,46	1810,40
196,69	1726,44
196,91	1935,33
197,13	1763,30
197,35	1634,28
197,57	1798,12
197,79	1722,34
198,01	1685,48
198,23	1849,32
198,45	1710,05
198,67	1681,38
198,89	1662,95
199,11	1781,73
199,33	1660,90
199,55	1581,03
199,77	1771,49
199,99	1771,49
200,21	1617,90
200,43	1722,34
200,65	1591,27
200,87	1560,55
201,09	1734,63
201,31	1724,39
201,53	1724,39
201,75	1726,44
201,97	1708,01
202,19	1693,67
202,41	1771,49
202,63	1871,84
202,85	1765,35
203,07	1718,25
203,29	1640,42
203,51	1632,23
203,73	1689,57
203,95	1884,13
204,17	1791,97
204,39	1730,53
204,61	1656,81
204,83	1691,62
205,05	1744,87
205,27	1746,92
205,49	1812,45
205,71	1718,25
205,93	1656,81
206,15	1691,62
206,37	1644,52
206,59	1855,46
206,81	1650,66
207,03	1648,61
207,25	1681,38
207,47	1757,16
207,69	1675,24
207,91	1816,55
208,13	1761,25
208,34	1742,82
208,56	1683,43
208,78	1828,84
209,00	1654,76
209,22	1701,86
209,44	1777,64
209,66	1697,77
209,88	1673,19
210,10	1742,82
210,32	1757,16
210,54	1789,92
210,76	1665,00
210,98	1832,93
211,20	1628,14
211,42	1736,68
211,64	1808,36
211,86	1738,73
212,08	1746,92
212,30	1783,78
212,52	1681,38
212,74	1722,34
212,96	1675,24
213,17	1740,77
213,39	1683,43
213,61	1755,11
213,83	1679,33
214,05	1632,23
214,27	1726,44
214,49	1673,19
214,71	1722,34
214,93	1732,58
215,15	1718,25
215,37	1718,25
215,59	1691,62
215,81	1744,87
216,03	1744,87
216,24	1759,21
216,46	1669,09
216,68	1734,63
216,90	1744,87
217,12	1851,36
217,34	1665,00
217,56	1714,15
217,78	1808,36
218,00	1705,96
218,22	1656,81
218,44	1683,43
218,66	1705,96
218,87	1804,26
219,09	1673,19
219,31	1740,77
219,53	1724,39
219,75	1714,15
219,97	1703,91
220,19	1734,63
220,41	1669,09
220,63	1779,68
220,85	1796,07
221,06	1716,20
221,28	1773,54
221,50	1787,88
221,72	1683,43
221,94	1761,25
222,16	1781,73
222,38	1730,53
222,60	1726,44
222,82	1660,90
223,03	1808,36
223,25	1642,47
223,47	1767,40
223,69	1853,41
223,91	1779,68
224,13	1687,53
224,35	1732,58
224,57	1771,49
224,78	1761,25
225,00	1650,66
225,22	1685,48
225,44	1689,57
225,66	1771,49
225,88	1714,15
226,10	1845,22
226,32	1738,73
226,53	1882,08
226,75	1761,25
226,97	1736,68
227,19	1679,33
227,41	1669,09
227,63	1701,86
227,85	1630,18
228,06	1710,05
228,28	1773,54
228,50	1746,92
228,72	1685,48
228,94	1730,53
229,16	1697,77
229,37	1730,53
229,59	1757,16
229,81	1796,07
230,03	1665,00
230,25	1562,60
230,47	1673,19
230,69	1660,90
230,90	1789,92
231,12	1683,43
231,34	1708,01
231,56	1732,58
231,78	1619,94
232,00	1720,29
232,21	1646,57
232,43	1667,05
232,65	1628,14
232,87	1708,01
233,09	1710,05
233,30	1708,01
233,52	1767,40
233,74	1738,73
233,96	1716,20
234,18	1718,25
234,40	1732,58
234,61	1869,80
234,83	1628,14
235,05	1685,48
235,27	1861,60
235,49	1779,68
235,70	1697,77
235,92	1814,50
236,14	1699,81
236,36	1843,17
236,58	1652,71
236,79	1665,00
237,01	1638,38
237,23	1638,38
237,45	1839,08
237,67	1615,85
237,88	1734,63
238,10	1834,98
238,32	1718,25
238,54	1767,40
238,76	1716,20
238,97	1697,77
239,19	1738,73
239,41	1800,16
239,63	1804,26
239,85	1624,04
240,06	1720,29
240,28	1699,81
240,50	1775,59
240,72	1705,96
240,93	1783,78
241,15	1748,97
241,37	1714,15
241,59	1734,63
241,81	1740,77
242,02	1695,72
242,24	1771,49
242,46	1708,01
242,68	1650,66
242,89	1746,92
243,11	1816,55
243,33	1677,29
243,55	1767,40
243,76	1783,78
243,98	1656,81
244,20	1697,77
244,42	1738,73
244,64	1714,15
244,85	1650,66
245,07	1718,25
245,29	1767,40
245,51	1716,20
245,72	1716,20
245,94	1771,49
246,16	1785,83
246,38	1763,30
246,59	1648,61
246,81	1689,57
247,03	1638,38
247,24	1665,00
247,46	1753,06
247,68	1794,02
247,90	1740,77
248,11	1697,77
248,33	1771,49
248,55	1705,96
248,77	1660,90
248,98	1757,16
249,20	1800,16
249,42	1648,61
249,64	1744,87
249,85	1693,67
250,07	1667,05
250,29	1765,35
250,50	1701,86
250,72	1576,94
250,94	1685,48
251,16	1759,21
251,37	1832,93
251,59	1761,25
251,81	1769,44
252,02	1816,55
252,24	1802,21
252,46	1787,88
252,68	1726,44
252,89	1638,38
253,11	1646,57
253,33	1775,59
253,54	1761,25
253,76	1665,00
253,98	1714,15
254,20	1710,05
254,41	1656,81
254,63	1697,77
254,85	1605,61
255,06	1691,62
255,28	1767,40
255,50	1742,82
255,71	1652,71
255,93	1630,18
256,15	1695,72
256,36	1730,53
256,58	1759,21
256,80	1771,49
257,02	1697,77
257,23	1660,90
257,45	1697,77
257,67	1837,03
257,88	1722,34
258,10	1753,06
258,32	1757,16
258,53	1771,49
258,75	1757,16
258,97	1654,76
259,18	1748,97
259,40	1730,53
259,62	1839,08
259,83	1810,40
260,05	1710,05
260,27	1927,14
260,48	1742,82
260,70	1624,04
260,92	1675,24
261,13	1759,21
261,35	1761,25
261,57	1738,73
261,78	1681,38
262,00	1691,62
262,22	1736,68
262,43	1699,81
262,65	1777,64
262,86	1755,11
263,08	1871,84
263,30	1652,71
263,51	1615,85
263,73	1632,23
263,95	1767,40
264,16	1685,48
264,38	1718,25
264,60	1728,49
264,81	1681,38
265,03	1755,11
265,25	1853,41
265,46	1753,06
265,68	1804,26
265,89	1755,11
266,11	1640,42
266,33	1777,64
266,54	1775,59
266,76	1812,45
266,98	1722,34
267,19	1796,07
267,41	1787,88
267,62	1755,11
267,84	1675,24
268,06	1777,64
268,27	1650,66
268,49	1701,86
268,70	1736,68
268,92	1656,81
269,14	1705,96
269,35	1630,18
269,57	1677,29
269,79	1779,68
270,00	1667,05
270,22	1853,41
270,43	1609,70
270,65	1581,03
270,87	1759,21
271,08	1771,49
271,30	1777,64
271,51	1665,00
271,73	1826,79
271,95	1787,88
272,16	1726,44
272,38	1705,96
272,59	1648,61
272,81	1669,09
273,02	1753,06
273,24	1730,53
273,46	1781,73
273,67	1636,33
273,89	1662,95
274,10	1671,14
274,32	1722,34
274,54	1785,83
274,75	1757,16
274,97	1791,97
275,18	1746,92
275,40	1746,92
275,61	1683,43
275,83	1714,15
276,05	1654,76
276,26	1697,77
276,48	1724,39
276,69	1675,24
276,91	1738,73
277,12	1841,12
277,34	1753,06
277,55	1689,57
277,77	1781,73
277,99	1710,05
278,20	1626,09
278,42	1642,47
278,63	1705,96
278,85	1624,04
279,06	1746,92
279,28	1744,87
279,49	1769,44
279,71	1843,17
279,93	1662,95
280,14	1748,97
280,36	1701,86
280,57	1757,16
280,79	1763,30
281,00	1667,05
281,22	1665,00
281,43	1734,63
281,65	1566,70
281,86	1708,01
282,08	1705,96
282,29	1871,84
282,51	1714,15
282,73	1671,14
282,94	1611,75
283,16	1781,73
283,37	1748,97
283,59	1722,34
283,80	1757,16
284,02	1632,23
284,23	1708,01
284,45	1755,11
284,66	1656,81
284,88	1687,53
285,09	1808,36
285,31	1728,49
285,52	1789,92
285,74	1714,15
285,95	1710,05
286,17	1681,38
286,38	1769,44
286,60	1736,68
286,81	1671,14
287,03	1714,15
287,24	1685,48
287,46	1712,10
287,67	1730,53
287,89	1837,03
288,10	1740,77
288,32	1742,82
288,53	1857,51
288,75	1650,66
288,96	1802,21
289,18	1667,05
289,39	1714,15
289,61	1781,73
289,82	1791,97
290,04	1814,50
290,25	1710,05
290,47	1736,68
290,68	1673,19
290,90	1796,07
291,11	1685,48
291,33	1738,73
291,54	1660,90
291,76	1656,81
291,97	1710,05
292,18	1740,77
292,40	1662,95
292,61	1638,38
292,83	1853,41
293,04	1710,05
293,26	1757,16
293,47	1742,82
293,69	1560,55
293,90	1728,49
294,12	1728,49
294,33	1710,05
294,55	1662,95
294,76	1726,44
294,97	1841,12
295,19	1837,03
295,40	1673,19
295,62	1714,15
295,83	1841,12
296,05	1595,37
296,26	1804,26
296,48	1656,81
296,69	1740,77
296,90	1638,38
297,12	1783,78
297,33	1822,69
297,55	1677,29
297,76	1656,81
297,98	1695,72
298,19	1677,29
298,41	1656,81
298,62	1732,58
298,83	1810,40
299,05	1679,33
299,26	1718,25
299,48	1751,01
299,69	1724,39
299,90	1734,63
300,12	1660,90
300,33	1738,73
300,55	1697,77
300,76	1783,78
300,98	1710,05
301,19	1724,39
301,40	1669,09
301,62	1744,87
301,83	1779,68
302,05	1746,92
302,26	1783,78
302,47	1718,25
302,69	1560,55
302,90	1763,30
303,12	1519,59
303,33	1757,16
303,54	1863,65
303,76	1667,05
303,97	1757,16
304,19	1732,58
304,40	1636,33
304,61	1804,26
304,83	1812,45
305,04	1751,01
305,26	1693,67
305,47	1712,10
305,68	1683,43
305,90	1763,30
306,11	1779,68
306,33	1624,04
306,54	1695,72
306,75	1736,68
306,97	1667,05
307,18	1753,06
307,39	1636,33
307,61	1748,97
307,82	1761,25
308,04	1726,44
308,25	1691,62
308,46	1763,30
308,68	1714,15
308,89	1691,62
309,10	1816,55
309,32	1716,20
309,53	1714,15
309,74	1761,25
309,96	1667,05
310,17	1789,92
310,39	1615,85
310,60	1675,24
310,81	1736,68
311,03	1626,09
311,24	1677,29
311,45	1697,77
311,67	1839,08
311,88	1777,64
312,09	1699,81
312,31	1638,38
312,52	1738,73
312,73	1689,57
312,95	1615,85
313,16	1681,38
313,37	1787,88
313,59	1701,86
313,80	1681,38
314,01	1857,51
314,23	1665,00
314,44	1712,10
314,65	1632,23
314,87	1697,77
315,08	1726,44
315,29	1669,09
315,51	1753,06
315,72	1634,28
315,93	1851,36
316,15	1777,64
316,36	1730,53
316,57	1771,49
316,79	1695,72
317,00	1738,73
317,21	1728,49
317,43	1681,38
317,64	1669,09
317,85	1679,33
318,07	1685,48
318,28	1667,05
318,49	1800,16
318,70	1923,04
318,92	1808,36
319,13	1800,16
319,34	1808,36
319,56	1775,59
319,77	1824,74
319,98	1832,93
320,20	1794,02
320,41	1775,59
320,62	1708,01
320,83	1642,47
321,05	1898,47
321,26	1820,64
321,47	1691,62
321,69	1734,63
321,90	1644,52
322,11	1648,61
322,32	1630,18
322,54	1751,01
322,75	1806,31
322,96	1908,71
323,18	1656,81
323,39	1652,71
323,60	1689,57
323,81	1783,78
324,03	1689,57
324,24	1705,96
324,45	1744,87
324,66	1626,09
324,88	1843,17
325,09	1738,73
325,30	1644,52
325,52	1738,73
325,73	1789,92
325,94	1677,29
326,15	1638,38
326,37	1710,05
326,58	1781,73
326,79	1767,40
327,00	1671,14
327,22	1746,92
327,43	1613,80
327,64	1640,42
327,85	1767,40
328,07	1689,57
328,28	1781,73
328,49	1660,90
328,70	1720,29
328,92	1669,09
329,13	1765,35
329,34	1773,54
329,55	1830,88
329,76	1671,14
329,98	1730,53
330,19	1736,68
330,40	1718,25
330,61	1744,87
330,83	1804,26
331,04	1638,38
331,25	1738,73
331,46	1775,59
331,68	1705,96
331,89	1738,73
332,10	1689,57
332,31	1624,04
332,52	1742,82
332,74	1800,16
332,95	1632,23
333,16	1667,05
333,37	1820,64
333,58	1681,38
333,80	1691,62
334,01	1624,04
334,22	1730,53
334,43	1705,96
334,64	1605,61
334,86	1609,70
335,07	1730,53
335,28	1814,50
335,49	1658,85
335,70	1820,64
335,92	1830,88
336,13	1920,99
336,34	1783,78
336,55	1720,29
336,76	1705,96
336,98	1593,32
337,19	1728,49
337,40	1849,32
337,61	1818,60
337,82	1669,09
338,04	1763,30
338,25	1720,29
338,46	1681,38
338,67	1710,05
338,88	1650,66
339,09	1695,72
339,31	1705,96
339,52	1716,20
339,73	1665,00
339,94	1646,57
340,15	1832,93
340,36	1677,29
340,58	1691,62
340,79	1720,29
341,00	1777,64
341,21	1648,61
341,42	1884,13
341,63	1738,73
341,85	1742,82
342,06	1724,39
342,27	1632,23
342,48	1783,78
342,69	1640,42
342,90	1791,97
343,12	1724,39
343,33	1687,53
343,54	1742,82
343,75	1730,53
343,96	1734,63
344,17	1640,42
344,38	1703,91
344,60	1656,81
344,81	1689,57
345,02	1742,82
345,23	1693,67
345,44	1839,08
345,65	1748,97
345,86	1765,35
346,07	1714,15
346,29	1730,53
346,50	1755,11
346,71	1693,67
346,92	1738,73
347,13	1869,80
347,34	1648,61
347,55	1732,58
347,76	1736,68
347,98	1593,32
348,19	1656,81
348,40	1787,88
348,61	1689,57
348,82	1740,77
349,03	1724,39
349,24	1677,29
349,45	1845,22
349,66	1611,75
349,88	1683,43
350,09	1683,43
350,30	1851,36
350,51	1824,74
350,72	1658,85
350,93	1679,33
351,14	1730,53
351,35	1773,54
351,56	1679,33
351,77	1679,33
351,99	1671,14
352,20	1824,74
352,41	1789,92
352,62	1624,04
352,83	1710,05
353,04	1683,43
353,25	1652,71
353,46	1763,30
353,67	1802,21
353,88	1636,33
354,09	1671,14
354,30	1832,93
354,52	1755,11
354,73	1753,06
354,94	1671,14
355,15	1611,75
355,36	1834,98
355,57	1685,48
355,78	1662,95
355,99	1689,57
356,20	1658,85
356,41	1730,53
356,62	1652,71
356,83	1730,53
357,04	1802,21
357,25	1570,79
357,46	1685,48
357,68	1708,01
357,89	1662,95
358,10	1689,57
358,31	1714,15
358,52	1718,25
358,73	1675,24
358,94	1656,81
359,15	1691,62
359,36	1767,40
359,57	1744,87
359,78	1708,01
359,99	1703,91
360,20	1705,96
360,41	1667,05
360,62	1763,30
360,83	1767,40
361,04	1742,82
361,25	1734,63
361,46	1705,96
361,67	1742,82
361,88	1753,06
362,09	1802,21
362,30	1802,21
362,51	1685,48
362,72	1701,86
362,93	1789,92
363,14	1789,92
363,35	1689,57
363,56	1636,33
363,78	1763,30
363,99	1804,26
364,20	1683,43
364,41	1673,19
364,62	1804,26
364,83	1744,87
365,04	1648,61
365,25	1732,58
365,46	1867,75
365,67	1667,05
365,88	1677,29
366,09	1671,14
366,30	1738,73
366,51	1685,48
366,72	1640,42
366,93	1742,82
367,14	1759,21
367,35	1724,39
367,56	1701,86
367,77	1837,03
367,98	1730,53
368,18	1804,26
368,39	1736,68
368,60	1597,42
368,81	1783,78
369,02	1712,10
369,23	1716,20
369,44	1601,51
369,65	1615,85
369,86	1748,97
370,07	1820,64
370,28	1671,14
370,49	1804,26
370,70	1673,19
370,91	1648,61
371,12	1638,38
371,33	1783,78
371,54	1736,68
371,75	1779,68
371,96	1650,66
372,17	1693,67
372,38	1693,67
372,59	1740,77
372,80	1669,09
373,01	1658,85
373,22	1738,73
373,43	1685,48
373,64	1644,52
373,85	1845,22
374,06	1830,88
374,26	1748,97
374,47	1732,58
374,68	1812,45
374,89	1708,01
375,10	1728,49
375,31	1759,21
375,52	1781,73
375,73	1699,81
375,94	1677,29
376,15	1785,83
376,36	1677,29
376,57	1673,19
376,78	1677,29
376,99	1710,05
377,20	1800,16
377,40	1705,96
377,61	1796,07
377,82	1632,23
378,03	1771,49
378,24	1714,15
378,45	1716,20
378,66	1705,96
378,87	1636,33
379,08	1634,28
379,29	1714,15
379,50	1812,45
379,71	1691,62
379,91	1705,96
380,12	1681,38
380,33	1710,05
380,54	1644,52
380,75	1722,34
380,96	1720,29
381,17	1757,16
381,38	1662,95
381,59	1771,49
381,80	1742,82
382,00	1826,79
382,21	1761,25
382,42	1898,47
382,63	1923,04
382,84	1763,30
383,05	1742,82
383,26	1810,40
383,47	1751,01
383,68	1826,79
383,88	1753,06
384,09	1724,39
384,30	1794,02
384,51	1755,11
384,72	1730,53
384,93	1681,38
385,14	1699,81
385,35	1787,88
385,55	1611,75
385,76	1814,50
385,97	1755,11
386,18	1697,77
386,39	1656,81
386,60	1634,28
386,81	1757,16
387,02	1611,75
387,22	1662,95
387,43	1767,40
387,64	1845,22
387,85	1849,32
388,06	2234,33
388,27	4235,20
388,48	6750,10
388,68	8181,64
388,89	9639,79
389,10	9822,06
389,31	8560,51
389,52	7503,76
389,73	6520,73
389,93	6367,13
390,14	5941,16
390,35	5148,59
390,56	4526,01
390,77	3817,41
390,98	3045,33
391,18	2508,76
391,39	2142,18
391,60	1920,99
391,81	1800,16
392,02	1691,62
392,23	1767,40
392,43	1775,59
392,64	1798,12
392,85	1697,77
393,06	1787,88
393,27	1695,72
393,47	1685,48
393,68	1677,29
393,89	1630,18
394,10	1837,03
394,31	1581,03
394,52	1654,76
394,72	1720,29
394,93	1806,31
395,14	1718,25
395,35	1830,88
395,56	1695,72
395,76	1783,78
395,97	1818,60
396,18	1880,04
396,39	1939,43
396,60	2062,30
396,80	1861,60
397,01	1820,64
397,22	1806,31
397,43	1826,79
397,64	1798,12
397,84	1796,07
398,05	1851,36
398,26	1812,45
398,47	1783,78
398,67	1755,11
398,88	1781,73
399,09	1759,21
399,30	1695,72
399,51	1685,48
399,71	1673,19
399,92	1708,01
400,13	1656,81
400,34	1669,09
400,54	1759,21
400,75	1812,45
400,96	1777,64
401,17	1787,88
401,37	1730,53
401,58	1677,29
401,79	1744,87
402,00	1863,65
402,21	1994,72
402,41	1978,34
402,62	1955,81
402,83	2023,39
403,04	1927,14
403,24	2164,70
403,45	1849,32
403,66	1927,14
403,87	1837,03
404,07	1976,29
404,28	1851,36
404,49	1886,18
404,70	1800,16
404,90	1798,12
405,11	1759,21
405,32	1759,21
405,52	1656,81
405,73	1769,44
405,94	1683,43
406,15	1708,01
406,35	1746,92
406,56	1820,64
406,77	1808,36
406,98	1734,63
407,18	1746,92
407,39	1769,44
407,60	1757,16
407,80	1722,34
408,01	1605,61
408,22	1710,05
408,43	1728,49
408,63	1738,73
408,84	1701,86
409,05	1746,92
409,25	1724,39
409,46	1689,57
409,67	1650,66
409,88	1748,97
410,08	1734,63
410,29	1689,57
410,50	1794,02
410,70	1703,91
410,91	1726,44
411,12	1744,87
411,32	1705,96
411,53	1705,96
411,74	1822,69
411,95	1834,98
412,15	1757,16
412,36	1781,73
412,57	1783,78
412,77	1755,11
412,98	1689,57
413,19	1761,25
413,39	1742,82
413,60	1691,62
413,81	1853,41
414,01	1671,14
414,22	1806,31
414,43	1824,74
414,63	1726,44
414,84	1761,25
415,05	1808,36
415,25	1632,23
415,46	1732,58
415,67	1652,71
415,87	1773,54
416,08	1830,88
416,29	1638,38
416,49	1763,30
416,70	1658,85
416,91	1757,16
417,11	1656,81
417,32	1767,40
417,53	1767,40
417,73	1703,91
417,94	1732,58
418,15	1732,58
418,35	1705,96
418,56	1789,92
418,77	1828,84
418,97	1695,72
419,18	1726,44
419,38	1619,94
419,59	1695,72
419,80	1892,32
420,00	1740,77
420,21	1728,49
420,42	1773,54
420,62	1738,73
420,83	1746,92
421,04	1748,97
421,24	1697,77
421,45	1699,81
421,65	1701,86
421,86	1665,00
422,07	1746,92
422,27	1665,00
422,48	1716,20
422,69	1677,29
422,89	1746,92
423,10	1687,53
423,30	1701,86
423,51	1693,67
423,72	1726,44
423,92	1759,21
424,13	1667,05
424,33	1675,24
424,54	1783,78
424,75	1730,53
424,95	1834,98
425,16	1820,64
425,36	1716,20
425,57	1783,78
425,78	1755,11
425,98	1771,49
426,19	1730,53
426,39	1673,19
426,60	1759,21
426,81	1830,88
427,01	1796,07
427,22	1757,16
427,42	1644,52
427,63	1662,95
427,83	1837,03
428,04	1841,12
428,25	1720,29
428,45	1865,70
428,66	1765,35
428,86	1761,25
429,07	1681,38
429,28	1671,14
429,48	1667,05
429,69	1675,24
429,89	1708,01
430,10	1615,85
430,30	1736,68
430,51	1857,51
430,71	1640,42
430,92	1691,62
431,13	1673,19
431,33	1804,26
431,54	1697,77
431,74	1853,41
431,95	1888,23
432,15	1689,57
432,36	1814,50
432,56	1685,48
432,77	1841,12
432,98	1779,68
433,18	1730,53
433,39	1755,11
433,59	1660,90
433,80	1773,54
434,00	1886,18
434,21	1693,67
434,41	1689,57
434,62	1873,89
434,82	1652,71
435,03	1658,85
435,23	1734,63
435,44	1710,05
435,64	1714,15
435,85	1787,88
436,06	1796,07
436,26	1732,58
436,47	1701,86
436,67	1714,15
436,88	1712,10
437,08	1783,78
437,29	1824,74
437,49	1738,73
437,70	1748,97
437,90	1714,15
438,11	1861,60
438,31	1796,07
438,52	1912,80
438,72	1853,41
438,93	1882,08
439,13	1757,16
439,34	1822,69
439,54	1781,73
439,75	1798,12
439,95	1771,49
440,16	1730,53
440,36	1794,02
440,57	1648,61
440,77	1777,64
440,98	1683,43
441,18	1828,84
441,39	1726,44
441,59	1634,28
441,80	1812,45
442,00	1746,92
442,21	1822,69
442,41	1699,81
442,62	1767,40
442,82	1708,01
443,02	1761,25
443,23	1718,25
443,43	1726,44
443,64	1798,12
443,84	1642,47
444,05	1859,56
444,25	1667,05
444,46	1708,01
444,66	1767,40
444,87	1806,31
445,07	1675,24
445,28	1708,01
445,48	1824,74
445,69	1822,69
445,89	1923,04
446,09	1783,78
446,30	1929,19
446,50	2672,60
446,71	3651,53
446,91	4327,36
447,12	4679,61
447,32	4827,06
447,53	4401,08
447,73	3880,90
447,93	3520,46
448,14	3215,31
448,34	3219,41
448,55	2934,74
448,75	2877,40
448,96	2738,13
449,16	2371,55
449,36	2308,06
449,57	2160,61
449,77	1896,42
449,98	1798,12
450,18	1751,01
450,39	1804,26
450,59	1757,16
450,79	1742,82
451,00	1744,87
451,20	1849,32
451,41	1714,15
451,61	1845,22
451,81	1761,25
452,02	1746,92
452,22	1722,34
452,43	1648,61
452,63	1697,77
452,84	1771,49
453,04	1710,05
453,24	1738,73
453,45	1738,73
453,65	1802,21
453,86	1763,30
454,06	1775,59
454,26	1744,87
454,47	1640,42
454,67	1832,93
454,87	1718,25
455,08	1728,49
455,28	1783,78
455,49	1785,83
455,69	1697,77
455,89	1888,23
456,10	1777,64
456,30	1685,48
456,51	1855,46
456,71	1744,87
456,91	1796,07
457,12	1746,92
457,32	1767,40
457,52	1681,38
457,73	1794,02
457,93	1814,50
458,14	1710,05
458,34	1685,48
458,54	1722,34
458,75	1736,68
458,95	1804,26
459,15	1722,34
459,36	1767,40
459,56	1742,82
459,76	1773,54
459,97	1755,11
460,17	1783,78
460,37	1828,84
460,58	1759,21
460,78	1769,44
460,99	1697,77
461,19	1753,06
461,39	1691,62
461,60	1742,82
461,80	1787,88
462,00	1716,20
462,21	1740,77
462,41	1708,01
462,61	1636,33
462,82	1658,85
463,02	1736,68
463,22	1804,26
463,43	1773,54
463,63	1742,82
463,83	1767,40
464,04	1814,50
464,24	1734,63
464,44	1691,62
464,64	1783,78
464,85	1798,12
465,05	1869,80
465,25	1734,63
465,46	1722,34
465,66	1812,45
465,86	1763,30
466,07	1744,87
466,27	1685,48
466,47	1681,38
466,68	1683,43
466,88	1820,64
467,08	1791,97
467,29	1812,45
467,49	1753,06
467,69	1720,29
467,89	1789,92
468,10	1630,18
468,30	1769,44
468,50	1812,45
468,71	1751,01
468,91	1638,38
469,11	1841,12
469,31	1728,49
469,52	1654,76
469,72	1861,60
469,92	1904,61
470,13	1701,86
470,33	1779,68
470,53	1791,97
470,73	2103,26
470,94	2256,86
471,14	2289,63
471,34	2521,05
471,54	2463,71
471,75	2185,18
471,95	2074,59
472,15	2105,31
472,36	2082,78
472,56	2146,27
472,76	2035,68
472,96	1988,58
473,17	2000,87
473,37	1900,52
473,57	1742,82
473,77	1783,78
473,98	1755,11
474,18	1675,24
474,38	1894,37
474,58	1751,01
474,79	1660,90
474,99	1828,84
475,19	1759,21
475,39	1681,38
475,60	1736,68
475,80	1748,97
476,00	1695,72
476,20	1718,25
476,41	1773,54
476,61	1818,60
476,81	1839,08
477,01	1705,96
477,21	1802,21
477,42	1834,98
477,62	1665,00
477,82	1867,75
478,02	1679,33
478,23	1761,25
478,43	1693,67
478,63	1642,47
478,83	1703,91
479,03	1720,29
479,24	1753,06
479,44	1890,28
479,64	1658,85
479,84	1597,42
480,04	1681,38
480,25	1722,34
480,45	1660,90
480,65	1738,73
480,85	1789,92
481,06	1763,30
481,26	1757,16
481,46	1812,45
481,66	1710,05
481,86	1658,85
482,06	1851,36
482,27	1722,34
482,47	1689,57
482,67	1777,64
482,87	1710,05
483,07	1826,79
483,28	1763,30
483,48	1660,90
483,68	1769,44
483,88	1656,81
484,08	1605,61
484,29	1605,61
484,49	1712,10
484,69	1679,33
484,89	1701,86
485,09	1839,08
485,29	1777,64
485,50	1755,11
485,70	1757,16
485,90	1746,92
486,10	1796,07
486,30	1843,17
486,50	1785,83
486,71	1722,34
486,91	1828,84
487,11	1775,59
487,31	1648,61
487,51	1755,11
487,71	1695,72
487,91	1646,57
488,12	1634,28
488,32	1566,70
488,52	1734,63
488,72	1613,80
488,92	1802,21
489,12	1773,54
489,32	1751,01
489,53	1753,06
489,73	1746,92
489,93	1865,70
490,13	1714,15
490,33	1718,25
490,53	1787,88
490,73	1761,25
490,94	1644,52
491,14	1783,78
491,34	1906,66
491,54	2066,40
491,74	2566,10
491,94	2965,46
492,14	3098,58
492,34	3039,19
492,54	2727,89
492,75	2598,87
492,95	2453,47
493,15	2265,05
493,35	2314,20
493,55	2263,01
493,75	2220,00
493,95	2158,56
494,15	1972,19
494,35	1980,39
494,56	1812,45
494,76	1771,49
494,96	1832,93
495,16	1785,83
495,36	1767,40
495,56	1652,71
495,76	1742,82
495,96	1685,48
496,16	1658,85
496,36	1855,46
496,56	1712,10
496,77	1796,07
496,97	1789,92
497,17	1830,88
497,37	1642,47
497,57	1802,21
497,77	1761,25
497,97	1732,58
498,17	1679,33
498,37	1746,92
498,57	1730,53
498,77	1705,96
498,97	1765,35
499,17	1949,67
499,38	1677,29
499,58	1875,94
499,78	1824,74
499,98	1861,60
500,18	1726,44
500,38	1728,49
500,58	1931,23
500,78	2512,86
500,98	4458,43
501,18	5853,09
501,38	6748,06
501,58	7126,93
501,78	6780,82
501,98	5550,00
502,18	4911,03
502,38	4380,61
502,58	4106,18
502,78	3641,29
502,98	3665,86
503,18	3381,20
503,38	3135,44
503,59	2811,86
503,79	2648,02
503,99	2451,42
504,19	2265,05
504,39	2144,22
504,59	2217,95
504,79	2068,45
504,99	2029,54
505,19	1912,80
505,39	1869,80
505,59	1968,10
505,79	1933,28
505,99	1812,45
506,19	1744,87
506,39	1810,40
506,59	1740,77
506,79	1761,25
506,99	1775,59
507,19	1787,88
507,39	1804,26
507,59	1691,62
507,79	1609,70
507,99	1763,30
508,19	1775,59
508,39	1691,62
508,59	1751,01
508,79	1853,41
508,99	1898,47
509,19	1675,24
509,39	1820,64
509,59	1687,53
509,79	1677,29
509,99	1673,19
510,19	1798,12
510,39	1800,16
510,59	1751,01
510,79	1695,72
510,99	1753,06
511,19	1689,57
511,39	1841,12
511,59	1802,21
511,79	1804,26
511,99	1687,53
512,19	1771,49
512,38	1763,30
512,58	1667,05
512,78	1765,35
512,98	1839,08
513,18	1828,84
513,38	1636,33
513,58	1771,49
513,78	1740,77
513,98	1671,14
514,18	1681,38
514,38	1708,01
514,58	1736,68
514,78	1599,46
514,98	1695,72
515,18	1699,81
515,38	1691,62
515,58	1853,41
515,78	1726,44
515,98	1738,73
516,18	1781,73
516,38	1777,64
516,57	1742,82
516,77	1755,11
516,97	1730,53
517,17	1705,96
517,37	1609,70
517,57	1806,31
517,77	1708,01
517,97	1736,68
518,17	1724,39
518,37	1683,43
518,57	1753,06
518,77	1722,34
518,97	1691,62
519,16	1736,68
519,36	1898,47
519,56	1650,66
519,76	1720,29
519,96	1798,12
520,16	1898,47
520,36	1673,19
520,56	1871,84
520,76	1716,20
520,96	1759,21
521,16	1828,84
521,35	1779,68
521,55	1800,16
521,75	1718,25
521,95	1714,15
522,15	1660,90
522,35	1599,46
522,55	1681,38
522,75	1771,49
522,95	1740,77
523,14	1712,10
523,34	1794,02
523,54	1660,90
523,74	1814,50
523,94	1789,92
524,14	1675,24
524,34	1742,82
524,54	1800,16
524,73	1621,99
524,93	1812,45
525,13	1714,15
525,33	1697,77
525,53	1869,80
525,73	1751,01
525,93	1773,54
526,13	1701,86
526,32	1691,62
526,52	1787,88
526,72	1812,45
526,92	1796,07
527,12	1763,30
527,32	1695,72
527,52	1759,21
527,71	1675,24
527,91	1720,29
528,11	1695,72
528,31	1740,77
528,51	1691,62
528,71	1828,84
528,90	1740,77
529,10	1822,69
529,30	1820,64
529,50	1630,18
529,70	1722,34
529,90	1744,87
530,09	1722,34
530,29	1662,95
530,49	1695,72
530,69	1863,65
530,89	1771,49
531,09	1796,07
531,28	1730,53
531,48	1789,92
531,68	1738,73
531,88	1736,68
532,08	1851,36
532,28	1687,53
532,47	1738,73
532,67	1783,78
532,87	1693,67
533,07	1705,96
533,27	1814,50
533,46	1771,49
533,66	1802,21
533,86	1677,29
534,06	1751,01
534,26	1755,11
534,45	1699,81
534,65	1808,36
534,85	1769,44
535,05	1736,68
535,25	1755,11
535,44	1669,09
535,64	1722,34
535,84	1683,43
536,04	1628,14
536,24	1771,49
536,43	1724,39
536,63	1777,64
536,83	1699,81
537,03	1783,78
537,22	1708,01
537,42	1675,24
537,62	1804,26
537,82	1699,81
538,02	1808,36
538,21	1814,50
538,41	1916,90
538,61	1751,01
538,81	1683,43
539,00	1808,36
539,20	1773,54
539,40	1769,44
539,60	1695,72
539,79	1787,88
539,99	1691,62
540,19	1660,90
540,39	1683,43
540,58	1710,05
540,78	1808,36
540,98	1730,53
541,18	1849,32
541,37	1722,34
541,57	1767,40
541,77	1757,16
541,97	1619,94
542,16	1615,85
542,36	1769,44
542,56	1740,77
542,76	1857,51
542,95	1763,30
543,15	1816,55
543,35	1796,07
543,54	1722,34
543,74	1679,33
543,94	1820,64
544,14	1716,20
544,33	1701,86
544,53	1697,77
544,73	1751,01
544,93	1705,96
545,12	1687,53
545,32	1781,73
545,52	1712,10
545,71	1695,72
545,91	1675,24
546,11	1779,68
546,30	1744,87
546,50	1751,01
546,70	1789,92
546,90	1751,01
547,09	1615,85
547,29	1716,20
547,49	1802,21
547,68	1718,25
547,88	1751,01
548,08	1787,88
548,27	2193,37
548,47	1730,53
548,67	1712,10
548,87	1785,83
549,06	1656,81
549,26	1726,44
549,46	1777,64
549,65	1736,68
549,85	1820,64
550,05	1845,22
550,24	1691,62
550,44	1777,64
550,64	1703,91
550,83	1716,20
551,03	1763,30
551,23	1832,93
551,42	1726,44
551,62	1742,82
551,82	1837,03
552,01	1748,97
552,21	1775,59
552,41	1781,73
552,60	1814,50
552,80	1791,97
553,00	1724,39
553,19	1738,73
553,39	1894,37
553,59	1648,61
553,78	1775,59
553,98	1742,82
554,17	1662,95
554,37	1755,11
554,57	1802,21
554,76	1693,67
554,96	1724,39
555,16	1751,01
555,35	1722,34
555,55	1767,40
555,75	1775,59
555,94	1761,25
556,14	1621,99
556,33	1794,02
556,53	1798,12
556,73	1808,36
556,92	1783,78
557,12	1798,12
557,32	1964,00
557,51	1816,55
557,71	1718,25
557,90	1816,55
558,10	1759,21
558,30	1767,40
558,49	1730,53
558,69	1710,05
558,88	1808,36
559,08	1693,67
559,28	1781,73
559,47	1761,25
559,67	1767,40
559,86	1837,03
560,06	1796,07
560,26	1775,59
560,45	1796,07
560,65	1816,55
560,84	1857,51
561,04	1679,33
561,24	1810,40
561,43	1675,24
561,63	1873,89
561,82	1767,40
562,02	1791,97
562,22	1742,82
562,41	1753,06
562,61	1685,48
562,80	1769,44
563,00	1832,93
563,19	1736,68
563,39	1822,69
563,59	1742,82
563,78	1736,68
563,98	1568,74
564,17	1714,15
564,37	1542,12
564,56	1771,49
564,76	1746,92
564,96	1861,60
565,15	1779,68
565,35	1902,56
565,54	1742,82
565,74	1812,45
565,93	1748,97
566,13	1779,68
566,32	1785,83
566,52	1812,45
566,71	1763,30
566,91	1869,80
567,11	1705,96
567,30	1714,15
567,50	1794,02
567,69	1820,64
567,89	1751,01
568,08	1705,96
568,28	1839,08
568,47	1646,57
568,67	1757,16
568,86	1785,83
569,06	1785,83
569,25	1728,49
569,45	1630,18
569,64	1699,81
569,84	1634,28
570,04	1724,39
570,23	1724,39
570,43	1773,54
570,62	1804,26
570,82	1839,08
571,01	1701,86
571,21	1763,30
571,40	1810,40
571,60	1757,16
571,79	1781,73
571,99	1757,16
572,18	1736,68
572,38	1757,16
572,57	1742,82
572,77	1781,73
572,96	1892,32
573,16	1769,44
573,35	1763,30
573,55	1867,75
573,74	1763,30
573,94	1701,86
574,13	1710,05
574,33	1822,69
574,52	1806,31
574,71	1697,77
574,91	1812,45
575,10	1751,01
575,30	1712,10
575,49	1740,77
575,69	1728,49
575,88	1769,44
576,08	1683,43
576,27	1808,36
576,47	1738,73
576,66	1888,23
576,86	1884,13
577,05	1748,97
577,25	1802,21
577,44	1875,94
577,64	1783,78
577,83	1810,40
578,02	1734,63
578,22	1798,12
578,41	1863,65
578,61	1783,78
578,80	1703,91
579,00	1804,26
579,19	1748,97
579,39	1884,13
579,58	1837,03
579,77	1808,36
579,97	1851,36
580,16	1789,92
580,36	1865,70
580,55	1855,46
580,75	1849,32
580,94	1720,29
581,13	1861,60
581,33	1896,42
581,52	1810,40
581,72	1939,43
581,91	1880,04
582,11	1771,49
582,30	1773,54
582,49	1775,59
582,69	1796,07
582,88	1820,64
583,08	1765,35
583,27	1820,64
583,47	1755,11
583,66	1685,48
583,85	1708,01
584,05	1687,53
584,24	1781,73
584,44	1839,08
584,63	1847,27
584,82	1798,12
585,02	1935,33
585,21	1845,22
585,41	1894,37
585,60	1816,55
585,79	1935,33
585,99	1957,86
586,18	1757,16
586,37	2220,00
586,57	3307,47
586,76	9832,30
586,96	24290,96
587,15	34432,50
587,34	40142,24
587,54	41766,27
587,73	36363,73
587,93	25753,21
588,12	21272,25
588,31	18296,55
588,51	16348,93
588,70	14980,89
588,89	14059,31
589,09	12298,05
589,28	10897,24
589,47	9293,68
589,67	7616,40
589,86	6365,09
590,06	4933,56
590,25	3889,09
590,44	3102,67
590,64	2531,29
590,83	2271,20
591,02	2078,69
591,22	1980,39
591,41	1898,47
591,60	1851,36
591,80	1974,24
591,99	1720,29
592,18	1779,68
592,38	1802,21
592,57	1787,88
592,76	1714,15
592,96	1802,21
593,15	1783,78
593,34	1918,95
593,54	1798,12
593,73	1785,83
593,92	1798,12
594,12	1773,54
594,31	1769,44
594,50	1755,11
594,70	1841,12
594,89	1898,47
595,08	1660,90
595,28	1804,26
595,47	1978,34
595,66	1785,83
595,86	1734,63
596,05	1757,16
596,24	1763,30
596,43	1863,65
596,63	1826,79
596,82	1808,36
597,01	1789,92
597,21	1863,65
597,40	1796,07
597,59	1714,15
597,79	1761,25
597,98	1738,73
598,17	1800,16
598,36	1763,30
598,56	1802,21
598,75	1740,77
598,94	1722,34
599,14	1675,24
599,33	1648,61
599,52	1794,02
599,71	1781,73
599,91	1777,64
600,10	1804,26
600,29	1798,12
600,48	1775,59
600,68	1822,69
600,87	1736,68
601,06	1718,25
601,26	1791,97
601,45	1804,26
601,64	1748,97
601,83	1875,94
602,03	1787,88
602,22	1716,20
602,41	1808,36
602,60	1859,56
602,80	1742,82
602,99	1767,40
603,18	1722,34
603,37	1830,88
603,57	1779,68
603,76	1761,25
603,95	1824,74
604,14	1695,72
604,34	1746,92
604,53	1746,92
604,72	1791,97
604,91	1853,41
605,10	1820,64
605,30	1689,57
605,49	1902,56
605,68	1751,01
605,87	1744,87
606,07	1687,53
606,26	1730,53
606,45	1839,08
606,64	1708,01
606,84	1697,77
607,03	1763,30
607,22	1740,77
607,41	1650,66
607,60	1687,53
607,80	1748,97
607,99	1738,73
608,18	1718,25
608,37	1796,07
608,56	1675,24
608,76	1812,45
608,95	1869,80
609,14	1800,16
609,33	1771,49
609,52	1761,25
609,72	1755,11
609,91	1824,74
610,10	1755,11
610,29	1820,64
610,48	1773,54
610,68	1808,36
610,87	1759,21
611,06	1800,16
611,25	1685,48
611,44	1888,23
611,63	1734,63
611,83	1781,73
612,02	1667,05
612,21	1830,88
612,40	1718,25
612,59	1785,83
612,79	1695,72
612,98	1787,88
613,17	1834,98
613,36	1708,01
613,55	1808,36
613,74	1714,15
613,93	1677,29
614,13	1734,63
614,32	1714,15
614,51	1722,34
614,70	1734,63
614,89	1751,01
615,08	1771,49
615,28	2058,21
615,47	1748,97
615,66	1714,15
615,85	1718,25
616,04	1828,84
616,23	1710,05
616,42	1722,34
616,62	1740,77
616,81	1687,53
617,00	1757,16
617,19	1781,73
617,38	1716,20
617,57	1767,40
617,76	1740,77
617,95	1781,73
618,15	1693,67
618,34	1728,49
618,53	1662,95
618,72	1775,59
618,91	1779,68
619,10	1849,32
619,29	1708,01
619,48	1810,40
619,68	1675,24
619,87	1732,58
620,06	1632,23
620,25	1837,03
620,44	1753,06
620,63	1710,05
620,82	1763,30
621,01	1849,32
621,20	1665,00
621,39	1730,53
621,59	1738,73
621,78	1773,54
621,97	1757,16
622,16	1810,40
622,35	1652,71
622,54	1767,40
622,73	1814,50
622,92	1720,29
623,11	1742,82
623,30	1708,01
623,49	1796,07
623,68	1675,24
623,88	1783,78
624,07	1683,43
624,26	1748,97
624,45	1689,57
624,64	1677,29
624,83	1771,49
625,02	1726,44
625,21	1751,01
625,40	1757,16
625,59	1869,80
625,78	1808,36
625,97	1765,35
626,16	1769,44
626,35	1691,62
626,54	1761,25
626,74	1853,41
626,93	1710,05
627,12	1720,29
627,31	1849,32
627,50	1753,06
627,69	1771,49
627,88	1691,62
628,07	1736,68
628,26	1697,77
628,45	1662,95
628,64	1705,96
628,83	1681,38
629,02	1626,09
629,21	1687,53
629,40	1771,49
629,59	1718,25
629,78	1681,38
629,97	1757,16
630,16	1787,88
630,35	1742,82
630,54	1740,77
630,73	1673,19
630,92	1726,44
631,11	1646,57
631,30	1685,48
631,49	1761,25
631,68	1705,96
631,87	1742,82
632,06	1708,01
632,25	1914,85
632,44	1726,44
632,63	1779,68
632,82	1681,38
633,01	1675,24
633,20	1677,29
633,39	1697,77
633,58	1619,94
633,77	1665,00
633,96	1722,34
634,15	1742,82
634,34	1796,07
634,53	1839,08
634,72	1771,49
634,91	1671,14
635,10	1781,73
635,29	1798,12
635,48	1701,86
635,67	1767,40
635,86	1658,85
636,05	1755,11
636,24	1777,64
636,43	1759,21
636,62	1781,73
636,81	1589,22
637,00	1732,58
637,19	1837,03
637,38	1665,00
637,57	1718,25
637,76	1759,21
637,95	1701,86
638,14	1705,96
638,33	1675,24
638,52	1738,73
638,71	1617,90
638,89	1751,01
639,08	1822,69
639,27	1697,77
639,46	1658,85
639,65	1886,18
639,84	1722,34
640,03	1689,57
640,22	1708,01
640,41	1837,03
640,60	1759,21
640,79	1755,11
640,98	1701,86
641,17	1736,68
641,36	1755,11
641,55	1662,95
641,74	1630,18
641,92	1708,01
642,11	1714,15
642,30	1773,54
642,49	1693,67
642,68	1654,76
642,87	1742,82
643,06	1722,34
643,25	1703,91
643,44	1703,91
643,63	1755,11
643,82	1685,48
644,00	1718,25
644,19	1748,97
644,38	1667,05
644,57	1771,49
644,76	1730,53
644,95	1744,87
645,14	1751,01
645,33	1658,85
645,52	1720,29
645,71	1658,85
645,89	1658,85
646,08	1687,53
646,27	1679,33
646,46	1814,50
646,65	1689,57
646,84	1679,33
647,03	1714,15
647,22	1843,17
647,40	1738,73
647,59	1734,63
647,78	1681,38
647,97	1650,66
648,16	1626,09
648,35	1853,41
648,54	1785,83
648,73	1703,91
648,91	1802,21
649,10	1742,82
649,29	1708,01
649,48	1693,67
649,67	1712,10
649,86	1683,43
650,05	1695,72
650,23	1775,59
650,42	1652,71
650,61	1789,92
650,80	1791,97
650,99	1812,45
651,18	1816,55
651,36	1771,49
651,55	1656,81
651,74	1710,05
651,93	1705,96
652,12	1656,81
652,31	1781,73
652,49	1697,77
652,68	1697,77
652,87	1785,83
653,06	1656,81
653,25	1839,08
653,44	1701,86
653,62	1910,75
653,81	1720,29
654,00	1722,34
654,19	1742,82
654,38	1896,42
654,56	1716,20
654,75	1681,38
654,94	1804,26
655,13	1765,35
655,32	1781,73
655,51	1798,12
655,69	1665,00
655,88	1814,50
656,07	1730,53
656,26	1816,55
656,45	1648,61
656,63	1677,29
656,82	1689,57
657,01	1826,79
657,20	1753,06
657,38	1810,40
657,57	1689,57
657,76	1609,70
657,95	1787,88
658,14	1712,10
658,32	1775,59
658,51	1695,72
658,70	1740,77
658,89	1800,16
659,08	1712,10
659,26	1751,01
659,45	1667,05
659,64	1740,77
659,83	1693,67
660,01	1980,39
660,20	1703,91
660,39	1798,12
660,58	1628,14
660,76	1730,53
660,95	1722,34
661,14	1695,72
661,33	1718,25
661,51	1708,01
661,70	1671,14
661,89	1742,82
662,08	1695,72
662,26	1701,86
662,45	1712,10
662,64	1814,50
662,83	1787,88
663,01	1689,57
663,20	1681,38
663,39	1800,16
663,58	1652,71
663,76	1730,53
663,95	1744,87
664,14	1673,19
664,32	1564,65
664,51	1712,10
664,70	1650,66
664,89	1734,63
665,07	1697,77
665,26	1816,55
665,45	1660,90
665,64	1847,27
665,82	1746,92
666,01	1791,97
666,20	1734,63
666,38	1916,90
666,57	1816,55
666,76	2244,57
666,95	4534,20
667,13	10430,30
667,32	15353,62
667,51	17663,73
667,69	18865,89
667,88	17331,96
668,07	12275,52
668,25	9414,51
668,44	7894,92
668,63	7225,23
668,81	6688,67
669,00	6272,93
669,19	5654,44
669,38	5093,30
669,56	4392,89
669,75	3938,24
669,94	3418,06
670,12	2951,12
670,31	2510,81
670,50	2269,15
670,68	2074,59
670,87	1880,04
671,06	1849,32
671,24	1789,92
671,43	1830,88
671,62	1773,54
671,80	1771,49
671,99	1689,57
672,18	1671,14
672,36	1781,73
672,55	1820,64
672,74	1800,16
672,92	1783,78
673,11	1757,16
673,29	1740,77
673,48	1777,64
673,67	1675,24
673,85	1853,41
674,04	1687,53
674,23	1740,77
674,41	1781,73
674,60	1734,63
674,79	1646,57
674,97	1757,16
675,16	1849,32
675,34	1714,15
675,53	1753,06
675,72	1830,88
675,90	1798,12
676,09	1691,62
676,28	1841,12
676,46	1636,33
676,65	1730,53
676,83	1683,43
677,02	1679,33
677,21	1746,92
677,39	1708,01
677,58	1675,24
677,77	1636,33
677,95	1683,43
678,14	1708,01
678,32	1755,11
678,51	1712,10
678,70	1849,32
678,88	1705,96
679,07	1675,24
679,25	1769,44
679,44	1732,58
679,63	1724,39
679,81	1699,81
680,00	1763,30
680,18	1710,05
680,37	1726,44
680,55	1753,06
680,74	1679,33
680,93	1685,48
681,11	1685,48
681,30	1699,81
681,48	1751,01
681,67	1738,73
681,85	1693,67
682,04	1673,19
682,23	1753,06
682,41	1705,96
682,60	1693,67
682,78	1675,24
682,97	1687,53
683,15	1708,01
683,34	1691,62
683,53	1814,50
683,71	1646,57
683,90	1828,84
684,08	1828,84
684,27	1658,85
684,45	1816,55
684,64	1775,59
684,82	1673,19
685,01	1775,59
685,19	1677,29
685,38	1828,84
685,57	1699,81
685,75	1662,95
685,94	1691,62
686,12	1636,33
686,31	1640,42
686,49	1841,12
686,68	1593,32
686,86	1660,90
687,05	1652,71
687,23	1757,16
687,42	1744,87
687,60	1619,94
687,79	1732,58
687,97	1765,35
688,16	1777,64
688,34	1751,01
688,53	1654,76
688,71	1767,40
688,90	1738,73
689,08	1687,53
689,27	1615,85
689,45	1796,07
689,64	1828,84
689,82	1642,47
690,01	1791,97
690,19	1757,16
690,38	1722,34
690,56	1834,98
690,75	1726,44
690,93	1673,19
691,12	1665,00
691,30	1710,05
691,49	1689,57
691,67	1691,62
691,86	1796,07
692,04	1665,00
692,23	1724,39
692,41	1703,91
692,60	1830,88
692,78	1703,91
692,97	1648,61
693,15	1740,77
693,34	1798,12
693,52	1777,64
693,71	1683,43
693,89	1644,52
694,08	1619,94
694,26	1783,78
694,44	1738,73
694,63	1814,50
694,81	1652,71
695,00	1712,10
695,18	1697,77
695,37	1892,32
695,55	1732,58
695,74	1746,92
695,92	1736,68
696,10	1757,16
696,29	1630,18
696,47	1689,57
696,66	1601,51
696,84	1691,62
697,03	1716,20
697,21	1816,55
697,40	2275,29
697,58	1755,11
697,76	1669,09
697,95	1652,71
698,13	1685,48
698,32	1660,90
698,50	1703,91
698,68	1767,40
698,87	1693,67
699,05	1779,68
699,24	1701,86
699,42	1675,24
699,61	1689,57
699,79	1695,72
699,97	1726,44
700,16	1697,77
700,34	1681,38
700,53	1722,34
700,71	1806,31
700,89	1798,12
701,08	1755,11
701,26	1712,10
701,45	2138,08
701,63	1583,08
701,81	1722,34
702,00	1687,53
702,18	1759,21
702,37	1624,04
702,55	1794,02
702,73	1710,05
702,92	1689,57
703,10	1724,39
703,28	1771,49
703,47	1671,14
703,65	1708,01
703,84	1740,77
704,02	1673,19
704,20	1816,55
704,39	1636,33
704,57	1675,24
704,75	1697,77
704,94	1800,16
705,12	1822,69
705,30	1757,16
705,49	2289,63
705,67	4609,98
705,86	9430,90
706,04	12531,52
706,22	14300,97
706,41	15222,55
706,59	13463,35
706,77	9185,14
706,96	7200,66
707,14	6530,97
707,32	5941,16
707,51	5539,76
707,69	4886,45
707,87	4091,84
708,06	3471,31
708,24	2987,99
708,42	2412,51
708,61	2205,66
708,79	1892,32
708,97	1845,22
709,16	1832,93
709,34	1753,06
709,52	1808,36
709,71	1705,96
709,89	1703,91
710,07	1675,24
710,26	1658,85
710,44	1724,39
710,62	1744,87
710,80	1759,21
710,99	1822,69
711,17	1732,58
711,35	1619,94
711,54	1638,38
711,72	1806,31
711,90	1730,53
712,09	1640,42
712,27	1665,00
712,45	1728,49
712,63	1751,01
712,82	1634,28
713,00	1720,29
713,18	1708,01
713,37	1712,10
713,55	1748,97
713,73	1685,48
713,91	1714,15
714,10	1728,49
714,28	1593,32
714,46	1755,11
714,65	1693,67
714,83	1673,19
715,01	1830,88
715,19	1722,34
715,38	1705,96
715,56	1689,57
715,74	1693,67
715,92	1632,23
716,11	1828,84
716,29	1603,56
716,47	1677,29
716,65	1748,97
716,84	1650,66
717,02	1748,97
717,20	1597,42
717,38	1632,23
717,57	1755,11
717,75	1681,38
717,93	1697,77
718,11	1720,29
718,30	1660,90
718,48	1759,21
718,66	1742,82
718,84	1830,88
719,03	1681,38
719,21	1703,91
719,39	1738,73
719,57	1763,30
719,75	1757,16
719,94	1693,67
720,12	1648,61
720,30	1689,57
720,48	1767,40
720,67	1681,38
720,85	1595,37
721,03	1763,30
721,21	1689,57
721,39	1755,11
721,58	1705,96
721,76	1771,49
721,94	1759,21
722,12	1751,01
722,30	1761,25
722,49	1683,43
722,67	1646,57
722,85	1722,34
723,03	1648,61
723,21	1701,86
723,40	1691,62
723,58	1748,97
723,76	1755,11
723,94	1789,92
724,12	1759,21
724,30	1751,01
724,49	1798,12
724,67	1605,61
724,85	1787,88
725,03	1640,42
725,21	1736,68
725,40	1691,62
725,58	1689,57
725,76	1710,05
725,94	1685,48
726,12	1683,43
726,30	1753,06
726,49	1685,48
726,67	1642,47
726,85	1767,40
727,03	1767,40
727,21	2144,22
727,39	2961,36
727,57	3835,85
727,76	4212,67
727,94	4376,51
728,12	4364,22
728,30	3737,54
728,48	2942,93
728,66	2742,23
728,84	2531,29
729,03	2312,16
729,21	2119,65
729,39	1994,72
729,57	1834,98
729,75	1832,93
729,93	1839,08
730,11	1679,33
730,30	1693,67
730,48	1665,00
730,66	1802,21
730,84	1779,68
731,02	1753,06
731,20	1703,91
731,38	1705,96
731,56	1574,89
731,74	1646,57
731,93	1802,21
732,11	1800,16
732,29	1742,82
732,47	1718,25
732,65	1732,58
732,83	1767,40
733,01	1736,68
733,19	1619,94
733,37	1708,01
733,56	1771,49
733,74	1648,61
733,92	1773,54
734,10	1724,39
734,28	1742,82
734,46	1583,08
734,64	1703,91
734,82	1617,90
735,00	1675,24
735,18	1751,01
735,36	1714,15
735,54	1740,77
735,73	1671,14
735,91	1740,77
736,09	1736,68
736,27	1748,97
736,45	1796,07
736,63	1691,62
736,81	1677,29
736,99	1806,31
737,17	1753,06
737,35	1716,20
737,53	1714,15
737,71	1660,90
737,89	1810,40
738,07	1771,49
738,25	1652,71
738,43	1628,14
738,61	1703,91
738,80	1699,81
738,98	1597,42
739,16	1609,70
739,34	1630,18
739,52	1808,36
739,70	1722,34
739,88	1744,87
740,06	1783,78
740,24	1597,42
740,42	1820,64
740,60	1587,18
740,78	1564,65
740,96	1601,51
741,14	1679,33
741,32	1757,16
741,50	1609,70
741,68	1882,08
741,86	1804,26
742,04	1673,19
742,22	1630,18
742,40	1671,14
742,58	1687,53
742,76	1693,67
742,94	1767,40
743,12	1654,76
743,30	1708,01
743,48	1718,25
743,66	1636,33
743,84	1746,92
744,02	1697,77
744,20	1728,49
744,38	1671,14
744,56	1683,43
744,74	1837,03
744,92	1759,21
745,10	1773,54
745,28	1708,01
745,46	1767,40
745,64	1621,99
745,82	1769,44
746,00	1728,49
746,18	1712,10
746,36	1636,33
746,54	1794,02
746,72	1710,05
746,90	1685,48
747,08	1796,07
747,26	1675,24
747,44	1853,41
747,62	1812,45
747,80	1726,44
747,98	1800,16
748,15	1689,57
748,33	1808,36
748,51	1732,58
748,69	1705,96
748,87	1669,09
749,05	1693,67
749,23	1671,14
749,41	1718,25
749,59	1648,61
749,77	1722,34
749,95	1648,61
750,13	1718,25
750,31	1718,25
750,49	1640,42
750,67	1839,08
750,85	1845,22
751,03	1671,14
751,20	1820,64
751,38	1740,77
751,56	1748,97
751,74	1738,73
751,92	1755,11
752,10	1683,43
752,28	1787,88
752,46	1656,81
752,64	1751,01
752,82	1695,72
753,00	1794,02
753,18	1761,25
753,35	1736,68
753,53	1738,73
753,71	1685,48
753,89	1751,01
754,07	1714,15
754,25	1816,55
754,43	1759,21
754,61	1603,56
754,79	1712,10
754,97	1673,19
755,14	1787,88
755,32	1675,24
755,50	1751,01
755,68	1730,53
755,86	1650,66
756,04	1710,05
756,22	1667,05
756,40	1773,54
756,57	1837,03
756,75	1656,81
756,93	1816,55
757,11	1724,39
757,29	1665,00
757,47	1689,57
757,65	1695,72
757,82	1591,27
758,00	1671,14
758,18	1683,43
758,36	1693,67
758,54	1847,27
758,72	1718,25
758,90	1761,25
759,07	1753,06
759,25	1591,27
759,43	1683,43
759,61	1669,09
759,79	2172,89
759,97	1753,06
760,15	1695,72
760,32	1705,96
760,50	1675,24
760,68	1736,68
760,86	1665,00
761,04	1763,30
761,22	1720,29
761,39	1785,83
761,57	1761,25
761,75	1763,30
761,93	1708,01
762,11	1703,91
762,28	1665,00
762,46	1673,19
762,64	1779,68
762,82	1662,95
763,00	1671,14
763,18	1806,31
763,35	1671,14
763,53	1820,64
763,71	1658,85
763,89	1701,86
764,07	1755,11
764,24	1785,83
764,42	1775,59
764,60	1703,91
764,78	1746,92
764,96	1789,92
765,13	1785,83
765,31	1728,49
765,49	1728,49
765,67	1691,62
765,84	1689,57
766,02	1595,37
766,20	1619,94
766,38	1757,16
766,56	1812,45
766,73	1834,98
766,91	1726,44
767,09	1644,52
767,27	1691,62
767,44	1775,59
767,62	1712,10
767,80	1742,82
767,98	1701,86
768,15	1701,86
768,33	1683,43
768,51	1722,34
768,69	1730,53
768,87	1751,01
769,04	1783,78
769,22	1898,47
769,40	1755,11
769,58	1818,60
769,75	1677,29
769,93	1808,36
770,11	1687,53
770,28	1593,32
770,46	1697,77
770,64	1722,34
770,82	1734,63
770,99	1626,09
771,17	1693,67
771,35	1675,24
771,53	1644,52
771,70	1675,24
771,88	1697,77
772,06	1742,82
772,23	1652,71
772,41	1716,20
772,59	1693,67
772,77	1632,23
772,94	1714,15
773,12	1730,53
773,30	1734,63
773,47	1677,29
773,65	1628,14
773,83	1816,55
774,01	1671,14
774,18	1646,57
774,36	1751,01
774,54	1611,75
774,71	1773,54
774,89	1634,28
775,07	1626,09
775,24	1697,77
775,42	1681,38
775,60	1816,55
775,78	1736,68
775,95	1644,52
776,13	1644,52
776,31	1621,99
776,48	1595,37
776,66	1787,88
776,84	1691,62
777,01	1679,33
777,19	1658,85
777,37	1705,96
777,54	1775,59
777,72	1837,03
777,90	1779,68
778,07	1644,52
778,25	1957,86
778,43	1789,92
778,60	1697,77
778,78	1722,34
778,96	1779,68
779,13	1671,14
779,31	1810,40
779,49	1673,19
779,66	1712,10
779,84	1710,05
780,01	1712,10
780,19	1662,95
780,37	1738,73
780,54	1771,49
780,72	1660,90
780,90	1716,20
781,07	1761,25
781,25	1648,61
781,43	1722,34
781,60	1669,09
781,78	1837,03
781,95	1738,73
782,13	1679,33
782,31	1726,44
782,48	1558,50
782,66	1701,86
782,83	1806,31
783,01	1787,88
783,19	1824,74
783,36	1689,57
783,54	1632,23
783,72	1732,58
783,89	1683,43
784,07	1718,25
784,24	1753,06
784,42	1783,78
784,60	1771,49
784,77	1757,16
784,95	1540,07
785,12	1689,57
785,30	1773,54
785,47	1675,24
785,65	1726,44
785,83	1771,49
786,00	1677,29
786,18	1691,62
786,35	1628,14
786,53	1675,24
786,71	1654,76
786,88	1718,25
787,06	1775,59
787,23	1689,57
787,41	1640,42
787,58	1705,96
787,76	1654,76
787,94	1759,21
788,11	1652,71
788,29	1671,14
788,46	1708,01
788,64	1624,04
788,81	1640,42
788,99	1638,38
789,16	1628,14
789,34	1701,86
789,52	1689,57
789,69	1685,48
789,87	1654,76
790,04	1718,25
790,22	1687,53
790,39	1820,64
790,57	1679,33
790,74	1677,29
790,92	1798,12
791,09	1585,13
791,27	1730,53
791,44	1753,06
791,62	1658,85
791,79	1736,68
791,97	1687,53
792,15	1873,89
792,32	1769,44
792,50	1722,34
792,67	1837,03
792,85	1763,30
793,02	1654,76
793,20	1736,68
793,37	1648,61
793,55	1728,49
793,72	1667,05
793,90	1697,77
794,07	1685,48
794,25	1730,53
794,42	1753,06
794,60	1740,77
794,77	1736,68
794,95	1787,88
795,12	1742,82
795,30	1755,11
795,47	1650,66
795,65	1900,52
795,82	1654,76
796,00	1634,28
796,17	1742,82
796,34	1636,33
796,52	1744,87
796,69	1806,31
796,87	1753,06
797,04	1705,96
797,22	1789,92
797,39	1708,01
797,57	1791,97
797,74	1716,20
797,92	1689,57
798,09	1695,72
798,27	1769,44
798,44	1712,10
798,62	1740,77
798,79	1767,40
798,96	1798,12
799,14	1677,29
799,31	1869,80
799,49	1681,38
799,66	1673,19
799,84	1738,73
800,01	1675,24
800,19	1771,49
800,36	1705,96
800,53	1826,79
800,71	1785,83
800,88	1755,11
801,06	1656,81
801,23	1648,61
801,41	1675,24
801,58	1705,96
801,75	1673,19
801,93	1744,87
802,10	1767,40
802,28	1683,43
802,45	1761,25
802,63	1656,81
802,80	1783,78
802,97	1722,34
803,15	1722,34
803,32	1595,37
803,50	1632,23
803,67	1761,25
803,84	1673,19
804,02	1691,62
804,19	1744,87
804,37	1634,28
804,54	1689,57
804,71	1660,90
804,89	1724,39
805,06	1691,62
805,24	1687,53
805,41	1624,04
805,58	1671,14
805,76	1832,93
805,93	1689,57
806,10	1800,16
806,28	1789,92
806,45	1714,15
806,63	1687,53
806,80	1757,16
806,97	1679,33
807,15	1703,91
807,32	1699,81
807,49	1662,95
807,67	1609,70
807,84	1693,67
808,01	1697,77
808,19	1890,28
808,36	1816,55
808,54	1626,09
808,71	1689,57
808,88	1746,92
809,06	1714,15
809,23	1773,54
809,40	1677,29
809,58	1800,16
809,75	1703,91
809,92	1716,20
810,10	1794,02
810,27	1656,81
810,44	1691,62
810,62	1734,63
810,79	1697,77
810,96	1681,38
811,14	1738,73
811,31	1722,34
811,48	1783,78
811,66	1724,39
811,83	1773,54
812,00	1718,25
812,18	1744,87
812,35	1804,26
812,52	1724,39
812,69	1746,92
812,87	1705,96
813,04	1660,90
813,21	1734,63
813,39	1636,33
813,56	1593,32
813,73	1716,20
813,91	1658,85
814,08	1652,71
814,25	1644,52
814,42	1558,50
814,60	1660,90
814,77	1798,12
814,94	1671,14
815,12	1726,44
815,29	1710,05
815,46	1599,46
815,63	1753,06
815,81	1665,00
815,98	1710,05
816,15	1730,53
816,33	1785,83
816,50	1732,58
816,67	1673,19
816,84	1665,00
817,02	1640,42
817,19	1656,81
817,36	1701,86
817,53	1763,30
817,71	1742,82
817,88	1722,34
818,05	1687,53
818,22	1705,96
818,40	1779,68
818,57	1703,91
818,74	1759,21
818,91	1728,49
819,09	1787,88
819,26	1830,88
819,43	1648,61
819,60	1738,73
819,78	1701,86
819,95	1804,26
820,12	1654,76
820,29	1828,84
820,47	1824,74
820,64	1656,81
820,81	1599,46
820,98	1687,53
821,15	1722,34
821,33	1738,73
821,50	1570,79
821,67	1681,38
821,84	1687,53
822,02	1810,40
822,19	1687,53
822,36	1667,05
822,53	1769,44
822,70	1636,33
822,88	1681,38
823,05	1837,03
823,22	1673,19
823,39	1746,92
823,56	1740,77
823,74	1863,65
823,91	1603,56
824,08	1656,81
824,25	1626,09
824,42	1759,21
824,60	1705,96
824,77	1779,68
824,94	1693,67
825,11	1853,41
825,28	1617,90
825,45	1652,71
825,63	1765,35
825,80	1632,23
825,97	1703,91
826,14	1695,72
826,31	1581,03
826,48	1794,02
826,66	1658,85
826,83	1656,81
827,00	1783,78
827,17	1624,04
827,34	1791,97
827,51	1660,90
827,69	1720,29
827,86	1628,14
828,03	1720,29
828,20	1705,96
828,37	1736,68
828,54	1732,58
828,71	1603,56
828,89	1886,18
829,06	1720,29
829,23	1742,82
829,40	1714,15
829,57	1744,87
829,74	1775,59
829,91	1720,29
830,09	1673,19
830,26	1789,92
830,43	1814,50
830,60	1673,19
830,77	1753,06
830,94	1812,45
831,11	1722,34
831,28	1652,71
831,46	1796,07
831,63	1648,61
831,80	1718,25
831,97	1646,57
832,14	1681,38
832,31	1722,34
832,48	1763,30
832,65	1726,44
832,82	1771,49
832,99	1675,24
833,17	1658,85
833,34	1871,84
833,51	1685,48
833,68	1644,52
833,85	1767,40
834,02	1677,29
834,19	1652,71
834,36	1611,75
834,53	1734,63
834,70	1744,87
834,87	1710,05
835,04	1812,45
835,22	1568,74
835,39	1763,30
835,56	1669,09
835,73	1679,33
835,90	1712,10
836,07	1634,28
836,24	1740,77
836,41	1632,23
836,58	1656,81
836,75	1863,65
836,92	1748,97
837,09	1665,00
837,26	1759,21
837,43	1677,29
837,60	1726,44
837,77	1714,15
837,94	1777,64
838,12	1736,68
838,29	1658,85
838,46	1589,22
838,63	1681,38
838,80	1791,97
838,97	1804,26
839,14	1746,92
839,31	1712,10
839,48	1705,96
839,65	1730,53
839,82	1791,97
839,99	1738,73
840,16	1722,34
840,33	1591,27
840,50	1685,48
840,67	1658,85
840,84	1640,42
841,01	1705,96
841,18	1730,53
841,35	1736,68
841,52	1775,59
841,69	1847,27
841,86	1730,53
842,03	1675,24
842,20	1732,58
842,37	1644,52
842,54	1726,44
842,71	1736,68
842,88	1599,46
843,05	1771,49
843,22	1710,05
843,39	1716,20
843,56	1695,72
843,73	1755,11
843,90	1654,76
844,07	1695,72
844,24	1800,16
844,41	1794,02
844,58	1753,06
844,75	1708,01
844,92	1800,16
845,09	1718,25
845,26	1736,68
845,43	1693,67
845,60	1695,72
845,77	1806,31
845,94	1710,05
846,10	1783,78
846,27	1628,14
846,44	1675,24
846,61	1671,14
846,78	1740,77
846,95	1679,33
847,12	1703,91
847,29	1761,25
847,46	1685,48
847,63	1796,07
847,80	1667,05
847,97	1687,53
848,14	1894,37
848,31	1646,57
848,48	1638,38
848,65	1771,49
848,82	1652,71
848,98	1853,41
849,15	1732,58
849,32	1757,16
849,49	1791,97
849,66	1724,39
849,83	1724,39
850,00	1667,05
850,17	1746,92
850,34	1771,49
850,51	1591,27
850,68	1662,95
850,85	1916,90
851,01	1722,34
851,18	1697,77
851,35	1804,26
851,52	1716,20
851,69	1853,41
851,86	1673,19
852,03	1636,33
852,20	1732,58
852,37	1646,57
852,53	1640,42
852,70	1683,43
852,87	1742,82
853,04	1806,31
853,21	1783,78
853,38	1794,02
853,55	1691,62
853,72	1785,83
853,89	1685,48
854,05	1654,76
854,22	1660,90
854,39	1718,25
854,56	1718,25
854,73	1767,40
854,90	1703,91
855,07	1669,09
855,23	1675,24
855,40	1730,53
855,57	1673,19
855,74	1624,04
855,91	1871,84
856,08	1607,66
856,25	1624,04
856,41	1728,49
856,58	1648,61
856,75	1746,92
856,92	1646,57
857,09	1724,39
857,26	1677,29
857,42	1658,85
857,59	1746,92
857,76	1679,33
857,93	1820,64
858,10	1726,44
858,27	1624,04
858,43	1693,67
858,60	1650,66
858,77	1599,46
858,94	1638,38
859,11	1841,12
859,27	1746,92
859,44	1671,14
859,61	1800,16
859,78	1728,49
859,95	1736,68
860,12	1658,85
860,28	1806,31
860,45	1816,55
860,62	1701,86
860,79	1722,34
860,95	1669,09
861,12	1611,75
861,29	1673,19
861,46	1654,76
861,63	1693,67
861,79	1730,53
861,96	1607,66
862,13	1691,62
862,30	1734,63
862,47	1644,52
862,63	1689,57
862,80	1779,68
862,97	1716,20
863,14	1728,49
863,30	1708,01
863,47	1632,23
863,64	1726,44
863,81	1712,10
863,97	1648,61
864,14	1722,34
864,31	1683,43
864,48	1728,49
864,65	1695,72
864,81	1697,77
864,98	1775,59
865,15	1691,62
865,32	1767,40
865,48	1800,16
865,65	1746,92
865,82	1665,00
865,98	1716,20
866,15	1802,21
866,32	1656,81
866,49	1675,24
866,65	1771,49
866,82	1673,19
866,99	1708,01
867,16	1681,38
867,32	1675,24
867,49	1714,15
867,66	1695,72
867,83	1652,71
867,99	1593,32
868,16	1718,25
868,33	1621,99
868,49	1667,05
868,66	1681,38
868,83	1826,79
868,99	1742,82
869,16	1814,50
869,33	1785,83
869,50	1755,11
869,66	1718,25
869,83	1611,75
870,00	1624,04
870,16	1818,60
870,33	1783,78
870,50	1673,19
870,66	1687,53
870,83	1837,03
871,00	1740,77
871,17	1708,01
871,33	1720,29
871,50	1689,57
871,67	1724,39
871,83	1566,70
872,00	1851,36
872,17	1658,85
872,33	1789,92
872,50	1781,73
872,67	1716,20
872,83	1632,23
873,00	1753,06
873,17	1755,11
873,33	1765,35
873,50	1636,33
873,67	1732,58
873,83	1710,05
874,00	1703,91
874,16	1802,21
874,33	1673,19
874,50	1607,66
874,66	1693,67
874,83	1615,85
875,00	1814,50
875,16	1755,11
875,33	1828,84
875,50	1601,51
875,66	1673,19
875,83	1732,58
875,99	1726,44
876,16	1775,59
876,33	1642,47
876,49	1667,05
876,66	1716,20
876,83	1730,53
876,99	1671,14
877,16	1654,76
877,32	1693,67
877,49	1685,48
877,66	1722,34
877,82	1794,02
877,99	1742,82
878,15	1810,40
878,32	1751,01
878,49	1703,91
878,65	1703,91
878,82	1773,54
878,98	1658,85
879,15	1771,49
879,32	1753,06
879,48	1722,34
879,65	1681,38
879,81	1701,86
879,98	1746,92
880,15	1673,19
880,31	1767,40
880,48	1640,42
880,64	1740,77
880,81	1777,64
880,97	1841,12
881,14	1755,11
881,31	1697,77
881,47	1800,16
881,64	1636,33
881,80	1607,66
881,97	1718,25
882,13	1759,21
882,30	1624,04
882,47	1726,44
882,63	1656,81
882,80	1640,42
882,96	1710,05
883,13	1800,16
883,29	1712,10
883,46	1699,81
883,62	1730,53
883,79	1724,39
883,95	1689,57
884,12	1695,72
884,29	1763,30
884,45	1787,88
884,62	1746,92
884,78	1689,57
884,95	1820,64
885,11	1695,72
885,28	1742,82
885,44	1685,48
885,61	1675,24
885,77	1769,44
885,94	1722,34
886,10	1773,54
886,27	1753,06
886,43	1798,12
886,60	1777,64
886,76	1730,53
886,93	1646,57
887,09	1705,96
887,26	1658,85
887,42	1773,54
887,59	1755,11
887,75	1853,41
887,92	1837,03
888,08	1652,71
888,25	1779,68
888,41	1748,97
888,58	1757,16
888,74	1671,14
888,91	1757,16
>>>>>End Processed Spectral Data<<<<<
