SpectraSuite Data File
++++++++++++++++++++++++++++++++++++
Date: Mon Jun 06 15:39:17 CEST 2016
User: root
Dark Spectrum Present: No
Reference Spectrum Present: No
Number of Sampled Component Spectra: 1
Spectrometers: USB4C02835
Integration Time (usec): 100000 (USB4C02835)
Spectra Averaged: 1 (USB4C02835)
Boxcar Smoothing: 0 (USB4C02835)
Correct for Electrical Dark: No (USB4C02835)
Strobe/Lamp Enabled: No (USB4C02835)
Correct for Detector Non-linearity: No (USB4C02835)
Correct for Stray Light: No (USB4C02835)
Number of Pixels in Processed Spectrum: 3648
>>>>>Begin Processed Spectral Data<<<<<
177,47	1452,01
177,69	1452,01
177,91	1452,01
178,13	1486,83
178,36	1495,02
178,58	1730,53
178,80	1755,11
179,02	1626,09
179,24	1634,28
179,46	1722,34
179,68	1757,16
179,90	1732,58
180,13	1720,29
180,35	1660,90
180,57	1683,43
180,79	1681,38
181,01	1734,63
181,23	1781,73
181,45	1865,70
181,67	1787,88
181,90	1722,34
182,12	1681,38
182,34	1755,11
182,56	1826,79
182,78	1826,79
183,00	1710,05
183,22	1761,25
183,44	1538,02
183,66	1851,36
183,89	1785,83
184,11	1710,05
184,33	1773,54
184,55	1761,25
184,77	1751,01
184,99	1800,16
185,21	1615,85
185,43	1929,19
185,65	1697,77
185,87	1722,34
186,10	1849,32
186,32	1908,71
186,54	1716,20
186,76	1710,05
186,98	1808,36
187,20	1703,91
187,42	1619,94
187,64	1718,25
187,86	1775,59
188,08	1755,11
188,30	1703,91
188,52	1787,88
188,75	1742,82
188,97	1755,11
189,19	1689,57
189,41	1673,19
189,63	1734,63
189,85	1718,25
190,07	1591,27
190,29	1597,42
190,51	1726,44
190,73	1638,38
190,95	1751,01
191,17	1683,43
191,39	1644,52
191,61	1673,19
191,84	1730,53
192,06	1796,07
192,28	1644,52
192,50	1816,55
192,72	1730,53
192,94	1701,86
193,16	1781,73
193,38	1757,16
193,60	1656,81
193,82	1683,43
194,04	1810,40
194,26	1730,53
194,48	1755,11
194,70	1665,00
194,92	1662,95
195,14	1753,06
195,36	1648,61
195,58	1769,44
195,80	1789,92
196,02	1718,25
196,24	1658,85
196,46	1759,21
196,69	1601,51
196,91	1912,80
197,13	1665,00
197,35	1662,95
197,57	1791,97
197,79	1748,97
198,01	1767,40
198,23	1765,35
198,45	1703,91
198,67	1665,00
198,89	1726,44
199,11	1765,35
199,33	1650,66
199,55	1611,75
199,77	1673,19
199,99	1796,07
200,21	1697,77
200,43	1699,81
200,65	1640,42
200,87	1607,66
201,09	1710,05
201,31	1720,29
201,53	1708,01
201,75	1767,40
201,97	1722,34
202,19	1720,29
202,41	1738,73
202,63	1804,26
202,85	1785,83
203,07	1796,07
203,29	1681,38
203,51	1626,09
203,73	1656,81
203,95	1970,15
204,17	1726,44
204,39	1722,34
204,61	1669,09
204,83	1697,77
205,05	1845,22
205,27	1705,96
205,49	1832,93
205,71	1730,53
205,93	1718,25
206,15	1697,77
206,37	1712,10
206,59	1708,01
206,81	1646,57
207,03	1697,77
207,25	1673,19
207,47	1826,79
207,69	1712,10
207,91	1812,45
208,13	1804,26
208,34	1736,68
208,56	1697,77
208,78	1759,21
209,00	1718,25
209,22	1710,05
209,44	1712,10
209,66	1665,00
209,88	1701,86
210,10	1724,39
210,32	1630,18
210,54	1841,12
210,76	1730,53
210,98	1773,54
211,20	1648,61
211,42	1705,96
211,64	1779,68
211,86	1781,73
212,08	1734,63
212,30	1769,44
212,52	1726,44
212,74	1785,83
212,96	1662,95
213,17	1763,30
213,39	1736,68
213,61	1724,39
213,83	1708,01
214,05	1644,52
214,27	1789,92
214,49	1718,25
214,71	1648,61
214,93	1800,16
215,15	1665,00
215,37	1763,30
215,59	1581,03
215,81	1820,64
216,03	1806,31
216,24	1742,82
216,46	1718,25
216,68	1789,92
216,90	1740,77
217,12	1767,40
217,34	1730,53
217,56	1669,09
217,78	1851,36
218,00	1816,55
218,22	1708,01
218,44	1746,92
218,66	1591,27
218,87	1851,36
219,09	1755,11
219,31	1736,68
219,53	1660,90
219,75	1632,23
219,97	1685,48
220,19	1779,68
220,41	1816,55
220,63	1753,06
220,85	1734,63
221,06	1689,57
221,28	1810,40
221,50	1695,72
221,72	1789,92
221,94	1697,77
222,16	1761,25
222,38	1710,05
222,60	1789,92
222,82	1675,24
223,03	1761,25
223,25	1685,48
223,47	1773,54
223,69	1851,36
223,91	1740,77
224,13	1746,92
224,35	1710,05
224,57	1832,93
224,78	1808,36
225,00	1751,01
225,22	1708,01
225,44	1701,86
225,66	1738,73
225,88	1714,15
226,10	1808,36
226,32	1732,58
226,53	1832,93
226,75	1755,11
226,97	1757,16
227,19	1802,21
227,41	1640,42
227,63	1718,25
227,85	1617,90
228,06	1677,29
228,28	1720,29
228,50	1771,49
228,72	1574,89
228,94	1605,61
229,16	1619,94
229,37	1648,61
229,59	1708,01
229,81	1830,88
230,03	1632,23
230,25	1757,16
230,47	1570,79
230,69	1679,33
230,90	1775,59
231,12	1736,68
231,34	1765,35
231,56	1824,74
231,78	1626,09
232,00	1777,64
232,21	1734,63
232,43	1753,06
232,65	1634,28
232,87	1779,68
233,09	1685,48
233,30	1722,34
233,52	1806,31
233,74	1763,30
233,96	1658,85
234,18	1681,38
234,40	1667,05
234,61	1888,23
234,83	1617,90
235,05	1714,15
235,27	1900,52
235,49	1806,31
235,70	1767,40
235,92	1746,92
236,14	1755,11
236,36	1824,74
236,58	1718,25
236,79	1822,69
237,01	1748,97
237,23	1691,62
237,45	1806,31
237,67	1677,29
237,88	1718,25
238,10	1875,94
238,32	1615,85
238,54	1708,01
238,76	1759,21
238,97	1712,10
239,19	1710,05
239,41	1826,79
239,63	1755,11
239,85	1626,09
240,06	1734,63
240,28	1656,81
240,50	1708,01
240,72	1710,05
240,93	1722,34
241,15	1820,64
241,37	1703,91
241,59	1751,01
241,81	1703,91
242,02	1697,77
242,24	1738,73
242,46	1781,73
242,68	1710,05
242,89	1726,44
243,11	1716,20
243,33	1712,10
243,55	1761,25
243,76	1726,44
243,98	1722,34
244,20	1654,76
244,42	1705,96
244,64	1720,29
244,85	1652,71
245,07	1730,53
245,29	1714,15
245,51	1681,38
245,72	1705,96
245,94	1832,93
246,16	1837,03
246,38	1771,49
246,59	1728,49
246,81	1648,61
247,03	1669,09
247,24	1675,24
247,46	1726,44
247,68	1724,39
247,90	1697,77
248,11	1685,48
248,33	1767,40
248,55	1697,77
248,77	1708,01
248,98	1705,96
249,20	1796,07
249,42	1726,44
249,64	1771,49
249,85	1742,82
250,07	1701,86
250,29	1662,95
250,50	1763,30
250,72	1597,42
250,94	1779,68
251,16	1828,84
251,37	1718,25
251,59	1699,81
251,81	1751,01
252,02	1869,80
252,24	1724,39
252,46	1869,80
252,68	1671,14
252,89	1675,24
253,11	1591,27
253,33	1775,59
253,54	1751,01
253,76	1611,75
253,98	1683,43
254,20	1687,53
254,41	1632,23
254,63	1685,48
254,85	1648,61
255,06	1771,49
255,28	1769,44
255,50	1636,33
255,71	1710,05
255,93	1638,38
256,15	1726,44
256,36	1740,77
256,58	1656,81
256,80	1773,54
257,02	1662,95
257,23	1753,06
257,45	1679,33
257,67	1703,91
257,88	1656,81
258,10	1665,00
258,32	1697,77
258,53	1806,31
258,75	1796,07
258,97	1773,54
259,18	1728,49
259,40	1669,09
259,62	1834,98
259,83	1763,30
260,05	1753,06
260,27	1964,00
260,48	1677,29
260,70	1660,90
260,92	1691,62
261,13	1789,92
261,35	1701,86
261,57	1736,68
261,78	1587,18
262,00	1691,62
262,22	1789,92
262,43	1689,57
262,65	1701,86
262,86	1746,92
263,08	1828,84
263,30	1662,95
263,51	1603,56
263,73	1669,09
263,95	1824,74
264,16	1650,66
264,38	1689,57
264,60	1818,60
264,81	1667,05
265,03	1748,97
265,25	1765,35
265,46	1724,39
265,68	1845,22
265,89	1738,73
266,11	1630,18
266,33	1753,06
266,54	1783,78
266,76	1662,95
266,98	1714,15
267,19	1871,84
267,41	1734,63
267,62	1714,15
267,84	1544,17
268,06	1691,62
268,27	1660,90
268,49	1824,74
268,70	1763,30
268,92	1763,30
269,14	1697,77
269,35	1658,85
269,57	1757,16
269,79	1773,54
270,00	1693,67
270,22	1830,88
270,43	1748,97
270,65	1574,89
270,87	1699,81
271,08	1800,16
271,30	1701,86
271,51	1718,25
271,73	1712,10
271,95	1808,36
272,16	1681,38
272,38	1693,67
272,59	1742,82
272,81	1714,15
273,02	1763,30
273,24	1843,17
273,46	1751,01
273,67	1632,23
273,89	1695,72
274,10	1732,58
274,32	1828,84
274,54	1744,87
274,75	1662,95
274,97	1695,72
275,18	1779,68
275,40	1714,15
275,61	1679,33
275,83	1761,25
276,05	1597,42
276,26	1714,15
276,48	1828,84
276,69	1744,87
276,91	1705,96
277,12	1855,46
277,34	1767,40
277,55	1806,31
277,77	1773,54
277,99	1697,77
278,20	1665,00
278,42	1636,33
278,63	1693,67
278,85	1671,14
279,06	1660,90
279,28	1703,91
279,49	1800,16
279,71	1796,07
279,93	1710,05
280,14	1798,12
280,36	1619,94
280,57	1757,16
280,79	1730,53
281,00	1613,80
281,22	1677,29
281,43	1771,49
281,65	1628,14
281,86	1638,38
282,08	1755,11
282,29	1865,70
282,51	1636,33
282,73	1679,33
282,94	1642,47
283,16	1759,21
283,37	1779,68
283,59	1705,96
283,80	1802,21
284,02	1746,92
284,23	1755,11
284,45	1738,73
284,66	1689,57
284,88	1665,00
285,09	1789,92
285,31	1626,09
285,52	1667,05
285,74	1640,42
285,95	1759,21
286,17	1779,68
286,38	1828,84
286,60	1681,38
286,81	1722,34
287,03	1671,14
287,24	1769,44
287,46	1796,07
287,67	1783,78
287,89	1837,03
288,10	1724,39
288,32	1648,61
288,53	1779,68
288,75	1744,87
288,96	1746,92
289,18	1667,05
289,39	1767,40
289,61	1755,11
289,82	1775,59
290,04	1781,73
290,25	1681,38
290,47	1701,86
290,68	1730,53
290,90	1718,25
291,11	1581,03
291,33	1769,44
291,54	1671,14
291,76	1605,61
291,97	1728,49
292,18	1759,21
292,40	1763,30
292,61	1665,00
292,83	1847,27
293,04	1703,91
293,26	1705,96
293,47	1751,01
293,69	1632,23
293,90	1689,57
294,12	1742,82
294,33	1705,96
294,55	1710,05
294,76	1757,16
294,97	1853,41
295,19	1820,64
295,40	1714,15
295,62	1751,01
295,83	1722,34
296,05	1705,96
296,26	1804,26
296,48	1708,01
296,69	1738,73
296,90	1748,97
297,12	1787,88
297,33	1806,31
297,55	1687,53
297,76	1716,20
297,98	1837,03
298,19	1777,64
298,41	1753,06
298,62	1640,42
298,83	1777,64
299,05	1744,87
299,26	1712,10
299,48	1671,14
299,69	1730,53
299,90	1804,26
300,12	1591,27
300,33	1804,26
300,55	1726,44
300,76	1738,73
300,98	1615,85
301,19	1763,30
301,40	1748,97
301,62	1685,48
301,83	1662,95
302,05	1669,09
302,26	1681,38
302,47	1781,73
302,69	1644,52
302,90	1714,15
303,12	1630,18
303,33	1712,10
303,54	1855,46
303,76	1667,05
303,97	1705,96
304,19	1808,36
304,40	1595,37
304,61	1748,97
304,83	1814,50
305,04	1820,64
305,26	1607,66
305,47	1716,20
305,68	1744,87
305,90	1624,04
306,11	1779,68
306,33	1753,06
306,54	1630,18
306,75	1574,89
306,97	1599,46
307,18	1695,72
307,39	1773,54
307,61	1712,10
307,82	1708,01
308,04	1710,05
308,25	1656,81
308,46	1757,16
308,68	1759,21
308,89	1677,29
309,10	1755,11
309,32	1742,82
309,53	1665,00
309,74	1740,77
309,96	1548,26
310,17	1853,41
310,39	1693,67
310,60	1728,49
310,81	1720,29
311,03	1697,77
311,24	1771,49
311,45	1703,91
311,67	1726,44
311,88	1720,29
312,09	1785,83
312,31	1708,01
312,52	1667,05
312,73	1724,39
312,95	1679,33
313,16	1677,29
313,37	1753,06
313,59	1662,95
313,80	1730,53
314,01	1804,26
314,23	1705,96
314,44	1693,67
314,65	1652,71
314,87	1705,96
315,08	1701,86
315,29	1681,38
315,51	1626,09
315,72	1619,94
315,93	1785,83
316,15	1865,70
316,36	1738,73
316,57	1687,53
316,79	1679,33
317,00	1738,73
317,21	1824,74
317,43	1632,23
317,64	1701,86
317,85	1640,42
318,07	1650,66
318,28	1701,86
318,49	1779,68
318,70	1943,52
318,92	1798,12
319,13	1728,49
319,34	1863,65
319,56	1832,93
319,77	1746,92
319,98	1765,35
320,20	1847,27
320,41	1830,88
320,62	1740,77
320,83	1603,56
321,05	1849,32
321,26	1771,49
321,47	1748,97
321,69	1779,68
321,90	1662,95
322,11	1689,57
322,32	1654,76
322,54	1781,73
322,75	1660,90
322,96	1800,16
323,18	1679,33
323,39	1624,04
323,60	1675,24
323,81	1775,59
324,03	1699,81
324,24	1638,38
324,45	1699,81
324,66	1648,61
324,88	1769,44
325,09	1826,79
325,30	1720,29
325,52	1796,07
325,73	1742,82
325,94	1673,19
326,15	1624,04
326,37	1705,96
326,58	1730,53
326,79	1736,68
327,00	1624,04
327,22	1689,57
327,43	1689,57
327,64	1632,23
327,85	1806,31
328,07	1716,20
328,28	1787,88
328,49	1675,24
328,70	1646,57
328,92	1656,81
329,13	1708,01
329,34	1794,02
329,55	1843,17
329,76	1757,16
329,98	1710,05
330,19	1824,74
330,40	1724,39
330,61	1673,19
330,83	1718,25
331,04	1607,66
331,25	1783,78
331,46	1652,71
331,68	1669,09
331,89	1796,07
332,10	1789,92
332,31	1607,66
332,52	1781,73
332,74	1777,64
332,95	1714,15
333,16	1695,72
333,37	1839,08
333,58	1714,15
333,80	1685,48
334,01	1601,51
334,22	1722,34
334,43	1607,66
334,64	1669,09
334,86	1705,96
335,07	1665,00
335,28	1773,54
335,49	1646,57
335,70	1773,54
335,92	1767,40
336,13	1826,79
336,34	1658,85
336,55	1761,25
336,76	1691,62
336,98	1548,26
337,19	1675,24
337,40	1902,56
337,61	1824,74
337,82	1685,48
338,04	1773,54
338,25	1695,72
338,46	1691,62
338,67	1728,49
338,88	1644,52
339,09	1705,96
339,31	1656,81
339,52	1662,95
339,73	1650,66
339,94	1720,29
340,15	1677,29
340,36	1673,19
340,58	1765,35
340,79	1757,16
341,00	1695,72
341,21	1652,71
341,42	1832,93
341,63	1775,59
341,85	1791,97
342,06	1695,72
342,27	1597,42
342,48	1714,15
342,69	1626,09
342,90	1718,25
343,12	1701,86
343,33	1687,53
343,54	1744,87
343,75	1732,58
343,96	1658,85
344,17	1685,48
344,38	1759,21
344,60	1656,81
344,81	1660,90
345,02	1697,77
345,23	1837,03
345,44	1804,26
345,65	1730,53
345,86	1714,15
346,07	1779,68
346,29	1673,19
346,50	1640,42
346,71	1748,97
346,92	1818,60
347,13	1855,46
347,34	1777,64
347,55	1738,73
347,76	1746,92
347,98	1581,03
348,19	1642,47
348,40	1779,68
348,61	1712,10
348,82	1816,55
349,03	1779,68
349,24	1667,05
349,45	1810,40
349,66	1632,23
349,88	1734,63
350,09	1728,49
350,30	1773,54
350,51	1847,27
350,72	1650,66
350,93	1765,35
351,14	1703,91
351,35	1722,34
351,56	1687,53
351,77	1730,53
351,99	1669,09
352,20	1812,45
352,41	1822,69
352,62	1642,47
352,83	1716,20
353,04	1718,25
353,25	1632,23
353,46	1761,25
353,67	1744,87
353,88	1568,74
354,09	1732,58
354,30	1765,35
354,52	1703,91
354,73	1746,92
354,94	1736,68
355,15	1691,62
355,36	1769,44
355,57	1673,19
355,78	1697,77
355,99	1660,90
356,20	1701,86
356,41	1802,21
356,62	1714,15
356,83	1738,73
357,04	1689,57
357,25	1648,61
357,46	1658,85
357,68	1638,38
357,89	1699,81
358,10	1695,72
358,31	1703,91
358,52	1665,00
358,73	1665,00
358,94	1724,39
359,15	1613,80
359,36	1697,77
359,57	1626,09
359,78	1665,00
359,99	1767,40
360,20	1597,42
360,41	1611,75
360,62	1728,49
360,83	1781,73
361,04	1746,92
361,25	1785,83
361,46	1814,50
361,67	1763,30
361,88	1736,68
362,09	1808,36
362,30	1777,64
362,51	1746,92
362,72	1789,92
362,93	1804,26
363,14	1763,30
363,35	1744,87
363,56	1683,43
363,78	1798,12
363,99	1765,35
364,20	1675,24
364,41	1767,40
364,62	1849,32
364,83	1757,16
365,04	1734,63
365,25	1673,19
365,46	1812,45
365,67	1705,96
365,88	1628,14
366,09	1703,91
366,30	1685,48
366,51	1724,39
366,72	1662,95
366,93	1726,44
367,14	1755,11
367,35	1787,88
367,56	1703,91
367,77	1828,84
367,98	1708,01
368,18	1775,59
368,39	1746,92
368,60	1736,68
368,81	1738,73
369,02	1751,01
369,23	1681,38
369,44	1677,29
369,65	1675,24
369,86	1669,09
370,07	1902,56
370,28	1652,71
370,49	1769,44
370,70	1755,11
370,91	1615,85
371,12	1673,19
371,33	1812,45
371,54	1738,73
371,75	1746,92
371,96	1640,42
372,17	1671,14
372,38	1730,53
372,59	1718,25
372,80	1742,82
373,01	1593,32
373,22	1691,62
373,43	1697,77
373,64	1593,32
373,85	1718,25
374,06	1873,89
374,26	1742,82
374,47	1820,64
374,68	1777,64
374,89	1599,46
375,10	1685,48
375,31	1787,88
375,52	1710,05
375,73	1732,58
375,94	1683,43
376,15	1777,64
376,36	1667,05
376,57	1634,28
376,78	1726,44
376,99	1763,30
377,20	1791,97
377,40	1775,59
377,61	1744,87
377,82	1650,66
378,03	1794,02
378,24	1736,68
378,45	1652,71
378,66	1732,58
378,87	1646,57
379,08	1652,71
379,29	1720,29
379,50	1761,25
379,71	1759,21
379,91	1740,77
380,12	1740,77
380,33	1777,64
380,54	1753,06
380,75	1753,06
380,96	1730,53
381,17	1748,97
381,38	1740,77
381,59	1724,39
381,80	1728,49
382,00	1880,04
382,21	1765,35
382,42	1851,36
382,63	1918,95
382,84	1730,53
383,05	1812,45
383,26	1769,44
383,47	1753,06
383,68	1785,83
383,88	1789,92
384,09	1763,30
384,30	1773,54
384,51	1718,25
384,72	1728,49
384,93	1650,66
385,14	1742,82
385,35	1845,22
385,55	1673,19
385,76	1812,45
385,97	1726,44
386,18	1705,96
386,39	1658,85
386,60	1685,48
386,81	1679,33
387,02	1689,57
387,22	1658,85
387,43	1767,40
387,64	1736,68
387,85	1837,03
388,06	2117,60
388,27	4184,00
388,48	6666,14
388,68	8279,94
388,89	9510,77
389,10	9541,49
389,31	8505,21
389,52	7444,37
389,73	6586,27
389,93	6125,47
390,14	5808,04
390,35	5134,26
390,56	4474,81
390,77	3755,97
390,98	3006,42
391,18	2555,86
391,39	2156,51
391,60	1892,32
391,81	1839,08
392,02	1767,40
392,23	1814,50
392,43	1687,53
392,64	1804,26
392,85	1734,63
393,06	1798,12
393,27	1734,63
393,47	1789,92
393,68	1667,05
393,89	1652,71
394,10	1851,36
394,31	1708,01
394,52	1703,91
394,72	1701,86
394,93	1787,88
395,14	1691,62
395,35	1730,53
395,56	1734,63
395,76	1843,17
395,97	1789,92
396,18	1841,12
396,39	1847,27
396,60	2047,97
396,80	1941,47
397,01	1849,32
397,22	1839,08
397,43	1808,36
397,64	1679,33
397,84	1851,36
398,05	1929,19
398,26	1839,08
398,47	1794,02
398,67	1798,12
398,88	1730,53
399,09	1777,64
399,30	1679,33
399,51	1771,49
399,71	1703,91
399,92	1742,82
400,13	1757,16
400,34	1728,49
400,54	1736,68
400,75	1771,49
400,96	1738,73
401,17	1882,08
401,37	1738,73
401,58	1730,53
401,79	1828,84
402,00	1855,46
402,21	1982,43
402,41	1925,09
402,62	2090,98
402,83	2007,01
403,04	2033,63
403,24	2033,63
403,45	1826,79
403,66	1964,00
403,87	1908,71
404,07	1931,23
404,28	1873,89
404,49	1890,28
404,70	1822,69
404,90	1802,21
405,11	1722,34
405,32	1757,16
405,52	1740,77
405,73	1636,33
405,94	1658,85
406,15	1701,86
406,35	1757,16
406,56	1703,91
406,77	1724,39
406,98	1734,63
407,18	1626,09
407,39	1771,49
407,60	1710,05
407,80	1802,21
408,01	1718,25
408,22	1738,73
408,43	1624,04
408,63	1757,16
408,84	1722,34
409,05	1751,01
409,25	1693,67
409,46	1601,51
409,67	1685,48
409,88	1691,62
410,08	1779,68
410,29	1716,20
410,50	1763,30
410,70	1673,19
410,91	1654,76
411,12	1765,35
411,32	1738,73
411,53	1650,66
411,74	1814,50
411,95	1808,36
412,15	1732,58
412,36	1818,60
412,57	1765,35
412,77	1781,73
412,98	1779,68
413,19	1705,96
413,39	1800,16
413,60	1746,92
413,81	1783,78
414,01	1632,23
414,22	1755,11
414,43	1785,83
414,63	1689,57
414,84	1763,30
415,05	1751,01
415,25	1705,96
415,46	1736,68
415,67	1683,43
415,87	1781,73
416,08	1748,97
416,29	1681,38
416,49	1728,49
416,70	1695,72
416,91	1617,90
417,11	1648,61
417,32	1742,82
417,53	1775,59
417,73	1742,82
417,94	1681,38
418,15	1738,73
418,35	1779,68
418,56	1689,57
418,77	1880,04
418,97	1697,77
419,18	1759,21
419,38	1665,00
419,59	1667,05
419,80	1802,21
420,00	1708,01
420,21	1697,77
420,42	1814,50
420,62	1740,77
420,83	1744,87
421,04	1675,24
421,24	1701,86
421,45	1818,60
421,65	1751,01
421,86	1783,78
422,07	1748,97
422,27	1677,29
422,48	1734,63
422,69	1697,77
422,89	1701,86
423,10	1771,49
423,30	1636,33
423,51	1775,59
423,72	1740,77
423,92	1716,20
424,13	1619,94
424,33	1783,78
424,54	1773,54
424,75	1697,77
424,95	1800,16
425,16	1687,53
425,36	1705,96
425,57	1769,44
425,78	1703,91
425,98	1794,02
426,19	1705,96
426,39	1640,42
426,60	1763,30
426,81	1753,06
427,01	1736,68
427,22	1683,43
427,42	1681,38
427,63	1730,53
427,83	1769,44
428,04	1755,11
428,25	1777,64
428,45	1787,88
428,66	1763,30
428,86	1613,80
429,07	1681,38
429,28	1673,19
429,48	1724,39
429,69	1658,85
429,89	1759,21
430,10	1673,19
430,30	1804,26
430,51	1755,11
430,71	1628,14
430,92	1740,77
431,13	1667,05
431,33	1644,52
431,54	1615,85
431,74	1861,60
431,95	1935,33
432,15	1624,04
432,36	1705,96
432,56	1837,03
432,77	1880,04
432,98	1826,79
433,18	1800,16
433,39	1769,44
433,59	1708,01
433,80	1804,26
434,00	1886,18
434,21	1722,34
434,41	1710,05
434,62	1880,04
434,82	1699,81
435,03	1681,38
435,23	1748,97
435,44	1665,00
435,64	1769,44
435,85	1822,69
436,06	1814,50
436,26	1779,68
436,47	1738,73
436,67	1675,24
436,88	1724,39
437,08	1775,59
437,29	1830,88
437,49	1675,24
437,70	1742,82
437,90	1777,64
438,11	1851,36
438,31	1796,07
438,52	1880,04
438,72	1824,74
438,93	1910,75
439,13	1857,51
439,34	1724,39
439,54	1800,16
439,75	1837,03
439,95	1789,92
440,16	1669,09
440,36	1789,92
440,57	1804,26
440,77	1783,78
440,98	1757,16
441,18	1865,70
441,39	1718,25
441,59	1718,25
441,80	1849,32
442,00	1771,49
442,21	1865,70
442,41	1630,18
442,62	1880,04
442,82	1712,10
443,02	1765,35
443,23	1732,58
443,43	1728,49
443,64	1830,88
443,84	1652,71
444,05	1781,73
444,25	1779,68
444,46	1720,29
444,66	1751,01
444,87	1763,30
445,07	1628,14
445,28	1695,72
445,48	1789,92
445,69	1800,16
445,89	1888,23
446,09	1775,59
446,30	2066,40
446,50	2650,07
446,71	3665,86
446,91	4204,48
447,12	4749,24
447,32	4818,87
447,53	4290,49
447,73	3772,36
447,93	3540,94
448,14	3332,05
448,34	3172,30
448,55	2897,88
448,75	2883,54
448,96	2656,22
449,16	2310,11
449,36	2254,81
449,57	2047,97
449,77	1849,32
449,98	1773,54
450,18	1871,84
450,39	1826,79
450,59	1708,01
450,79	1685,48
451,00	1734,63
451,20	1789,92
451,41	1718,25
451,61	1828,84
451,81	1763,30
452,02	1640,42
452,22	1820,64
452,43	1638,38
452,63	1759,21
452,84	1785,83
453,04	1742,82
453,24	1791,97
453,45	1710,05
453,65	1781,73
453,86	1724,39
454,06	1761,25
454,26	1683,43
454,47	1683,43
454,67	1808,36
454,87	1794,02
455,08	1705,96
455,28	1830,88
455,49	1753,06
455,69	1726,44
455,89	1824,74
456,10	1832,93
456,30	1705,96
456,51	1849,32
456,71	1787,88
456,91	1818,60
457,12	1738,73
457,32	1757,16
457,52	1617,90
457,73	1789,92
457,93	1765,35
458,14	1665,00
458,34	1722,34
458,54	1701,86
458,75	1738,73
458,95	1767,40
459,15	1822,69
459,36	1837,03
459,56	1763,30
459,76	1906,66
459,97	1732,58
460,17	1708,01
460,37	1789,92
460,58	1687,53
460,78	1832,93
460,99	1710,05
461,19	1767,40
461,39	1669,09
461,60	1753,06
461,80	1779,68
462,00	1658,85
462,21	1740,77
462,41	1636,33
462,61	1677,29
462,82	1683,43
463,02	1734,63
463,22	1796,07
463,43	1832,93
463,63	1806,31
463,83	1816,55
464,04	1755,11
464,24	1761,25
464,44	1673,19
464,64	1742,82
464,85	1869,80
465,05	1900,52
465,25	1673,19
465,46	1732,58
465,66	1816,55
465,86	1796,07
466,07	1798,12
466,27	1755,11
466,47	1679,33
466,68	1638,38
466,88	1873,89
467,08	1755,11
467,29	1814,50
467,49	1785,83
467,69	1746,92
467,89	1755,11
468,10	1763,30
468,30	1691,62
468,50	1818,60
468,71	1796,07
468,91	1615,85
469,11	1859,56
469,31	1665,00
469,52	1691,62
469,72	1791,97
469,92	1906,66
470,13	1748,97
470,33	1769,44
470,53	1843,17
470,73	2111,46
470,94	2279,39
471,14	2394,08
471,34	2500,57
471,54	2500,57
471,75	2133,98
471,95	2158,56
472,15	2103,26
472,36	2105,31
472,56	2123,74
472,76	2064,35
472,96	2041,82
473,17	1947,62
473,37	1898,47
473,57	1804,26
473,77	1855,46
473,98	1705,96
474,18	1724,39
474,38	1902,56
474,58	1740,77
474,79	1681,38
474,99	1816,55
475,19	1839,08
475,39	1654,76
475,60	1755,11
475,80	1720,29
476,00	1779,68
476,20	1714,15
476,41	1728,49
476,61	1830,88
476,81	1804,26
477,01	1681,38
477,21	1869,80
477,42	1783,78
477,62	1693,67
477,82	1834,98
478,02	1691,62
478,23	1783,78
478,43	1730,53
478,63	1730,53
478,83	1763,30
479,03	1691,62
479,24	1796,07
479,44	1920,99
479,64	1757,16
479,84	1671,14
480,04	1736,68
480,25	1808,36
480,45	1740,77
480,65	1716,20
480,85	1828,84
481,06	1683,43
481,26	1757,16
481,46	1751,01
481,66	1714,15
481,86	1714,15
482,06	1777,64
482,27	1751,01
482,47	1710,05
482,67	1765,35
482,87	1671,14
483,07	1779,68
483,28	1744,87
483,48	1615,85
483,68	1746,92
483,88	1701,86
484,08	1626,09
484,29	1710,05
484,49	1701,86
484,69	1634,28
484,89	1806,31
485,09	1834,98
485,29	1771,49
485,50	1699,81
485,70	1683,43
485,90	1802,21
486,10	1703,91
486,30	1712,10
486,50	1798,12
486,71	1730,53
486,91	1744,87
487,11	1873,89
487,31	1665,00
487,51	1783,78
487,71	1673,19
487,91	1621,99
488,12	1724,39
488,32	1640,42
488,52	1689,57
488,72	1626,09
488,92	1740,77
489,12	1830,88
489,32	1804,26
489,53	1765,35
489,73	1732,58
489,93	1777,64
490,13	1726,44
490,33	1636,33
490,53	1800,16
490,73	1857,51
490,94	1619,94
491,14	1736,68
491,34	1884,13
491,54	2160,61
491,74	2568,15
491,94	2973,65
492,14	2906,07
492,34	3020,75
492,54	2680,79
492,75	2510,81
492,95	2422,75
493,15	2258,91
493,35	2267,10
493,55	2281,44
493,75	2199,52
493,95	2107,36
494,15	1998,82
494,35	1953,76
494,56	1865,70
494,76	1773,54
494,96	1787,88
495,16	1787,88
495,36	1703,91
495,56	1773,54
495,76	1773,54
495,96	1656,81
496,16	1755,11
496,36	1765,35
496,56	1734,63
496,77	1767,40
496,97	1726,44
497,17	1753,06
497,37	1693,67
497,57	1796,07
497,77	1724,39
497,97	1648,61
498,17	1712,10
498,37	1755,11
498,57	1853,41
498,77	1673,19
498,97	1716,20
499,17	1857,51
499,38	1718,25
499,58	1796,07
499,78	1806,31
499,98	1789,92
500,18	1697,77
500,38	1640,42
500,58	1931,23
500,78	2535,39
500,98	4562,87
501,18	5760,94
501,38	6750,10
501,58	6995,86
501,78	6592,41
501,98	5511,08
502,18	4915,12
502,38	4372,41
502,58	4097,99
502,78	3717,06
502,98	3655,62
503,18	3436,49
503,38	3160,02
503,59	2748,37
503,79	2703,32
503,99	2463,71
504,19	2340,83
504,39	2158,56
504,59	2213,85
504,79	2140,13
504,99	2019,30
505,19	1931,23
505,39	1933,28
505,59	2015,20
505,79	1843,17
505,99	1880,04
506,19	1796,07
506,39	1861,60
506,59	1722,34
506,79	1710,05
506,99	1826,79
507,19	1804,26
507,39	1787,88
507,59	1662,95
507,79	1736,68
507,99	1687,53
508,19	1832,93
508,39	1738,73
508,59	1828,84
508,79	1837,03
508,99	1769,44
509,19	1724,39
509,39	1726,44
509,59	1746,92
509,79	1716,20
509,99	1757,16
510,19	1843,17
510,39	1757,16
510,59	1763,30
510,79	1761,25
510,99	1732,58
511,19	1699,81
511,39	1828,84
511,59	1812,45
511,79	1857,51
511,99	1785,83
512,19	1828,84
512,38	1820,64
512,58	1810,40
512,78	1771,49
512,98	1837,03
513,18	1785,83
513,38	1667,05
513,58	1896,42
513,78	1722,34
513,98	1781,73
514,18	1777,64
514,38	1677,29
514,58	1753,06
514,78	1665,00
514,98	1683,43
515,18	1685,48
515,38	1697,77
515,58	1800,16
515,78	1673,19
515,98	1701,86
516,18	1773,54
516,38	1689,57
516,57	1677,29
516,77	1689,57
516,97	1751,01
517,17	1775,59
517,37	1570,79
517,57	1732,58
517,77	1734,63
517,97	1722,34
518,17	1789,92
518,37	1699,81
518,57	1667,05
518,77	1767,40
518,97	1757,16
519,16	1763,30
519,36	1830,88
519,56	1728,49
519,76	1722,34
519,96	1687,53
520,16	1841,12
520,36	1718,25
520,56	1861,60
520,76	1718,25
520,96	1699,81
521,16	1775,59
521,35	1675,24
521,55	1863,65
521,75	1802,21
521,95	1712,10
522,15	1693,67
522,35	1695,72
522,55	1693,67
522,75	1794,02
522,95	1593,32
523,14	1701,86
523,34	1818,60
523,54	1746,92
523,74	1781,73
523,94	1703,91
524,14	1701,86
524,34	1775,59
524,54	1875,94
524,73	1773,54
524,93	1779,68
525,13	1687,53
525,33	1708,01
525,53	1894,37
525,73	1748,97
525,93	1820,64
526,13	1693,67
526,32	1726,44
526,52	1812,45
526,72	1759,21
526,92	1744,87
527,12	1714,15
527,32	1736,68
527,52	1761,25
527,71	1712,10
527,91	1765,35
528,11	1697,77
528,31	1763,30
528,51	1681,38
528,71	1738,73
528,90	1734,63
529,10	1837,03
529,30	1822,69
529,50	1650,66
529,70	1748,97
529,90	1689,57
530,09	1783,78
530,29	1685,48
530,49	1800,16
530,69	1820,64
530,89	1755,11
531,09	1755,11
531,28	1736,68
531,48	1841,12
531,68	1730,53
531,88	1734,63
532,08	1789,92
532,28	1732,58
532,47	1755,11
532,67	1802,21
532,87	1806,31
533,07	1736,68
533,27	1816,55
533,46	1742,82
533,66	1732,58
533,86	1732,58
534,06	1734,63
534,26	1748,97
534,45	1748,97
534,65	1777,64
534,85	1767,40
535,05	1697,77
535,25	1783,78
535,44	1650,66
535,64	1755,11
535,84	1773,54
536,04	1779,68
536,24	1738,73
536,43	1763,30
536,63	1822,69
536,83	1751,01
537,03	1755,11
537,22	1728,49
537,42	1576,94
537,62	1677,29
537,82	1705,96
538,02	1814,50
538,21	1869,80
538,41	1902,56
538,61	1722,34
538,81	1705,96
539,00	1808,36
539,20	1675,24
539,40	1742,82
539,60	1804,26
539,79	1767,40
539,99	1689,57
540,19	1726,44
540,39	1828,84
540,58	1751,01
540,78	1777,64
540,98	1755,11
541,18	1804,26
541,37	1796,07
541,57	1759,21
541,77	1789,92
541,97	1781,73
542,16	1656,81
542,36	1697,77
542,56	1697,77
542,76	1875,94
542,95	1777,64
543,15	1781,73
543,35	1808,36
543,54	1669,09
543,74	1699,81
543,94	1847,27
544,14	1751,01
544,33	1771,49
544,53	1748,97
544,73	1728,49
544,93	1755,11
545,12	1742,82
545,32	1730,53
545,52	1763,30
545,71	1632,23
545,91	1710,05
546,11	1740,77
546,30	1767,40
546,50	1767,40
546,70	1853,41
546,90	1722,34
547,09	1744,87
547,29	1689,57
547,49	1851,36
547,68	1779,68
547,88	1847,27
548,08	1806,31
548,27	2236,38
548,47	1714,15
548,67	1705,96
548,87	1712,10
549,06	1636,33
549,26	1787,88
549,46	1722,34
549,65	1720,29
549,85	1734,63
550,05	1800,16
550,24	1665,00
550,44	1769,44
550,64	1779,68
550,83	1806,31
551,03	1789,92
551,23	1818,60
551,42	1769,44
551,62	1730,53
551,82	1726,44
552,01	1748,97
552,21	1816,55
552,41	1742,82
552,60	1820,64
552,80	1771,49
553,00	1734,63
553,19	1730,53
553,39	1853,41
553,59	1671,14
553,78	1763,30
553,98	1716,20
554,17	1740,77
554,37	1658,85
554,57	1777,64
554,76	1714,15
554,96	1738,73
555,16	1679,33
555,35	1771,49
555,55	1697,77
555,75	1767,40
555,94	1804,26
556,14	1705,96
556,33	1849,32
556,53	1796,07
556,73	1720,29
556,92	1730,53
557,12	1812,45
557,32	1912,80
557,51	1859,56
557,71	1714,15
557,90	1783,78
558,10	1814,50
558,30	1701,86
558,49	1785,83
558,69	1699,81
558,88	1767,40
559,08	1771,49
559,28	1712,10
559,47	1726,44
559,67	1767,40
559,86	1863,65
560,06	1816,55
560,26	1673,19
560,45	1736,68
560,65	1718,25
560,84	1822,69
561,04	1693,67
561,24	1765,35
561,43	1718,25
561,63	1783,78
561,82	1826,79
562,02	1845,22
562,22	1660,90
562,41	1738,73
562,61	1722,34
562,80	1722,34
563,00	1961,95
563,19	1751,01
563,39	1779,68
563,59	1779,68
563,78	1681,38
563,98	1669,09
564,17	1673,19
564,37	1675,24
564,56	1732,58
564,76	1667,05
564,96	1886,18
565,15	1705,96
565,35	1931,23
565,54	1732,58
565,74	1755,11
565,93	1804,26
566,13	1783,78
566,32	1691,62
566,52	1775,59
566,71	1783,78
566,91	1873,89
567,11	1748,97
567,30	1716,20
567,50	1830,88
567,69	1738,73
567,89	1703,91
568,08	1746,92
568,28	1808,36
568,47	1693,67
568,67	1783,78
568,86	1724,39
569,06	1789,92
569,25	1710,05
569,45	1730,53
569,64	1757,16
569,84	1736,68
570,04	1742,82
570,23	1697,77
570,43	1755,11
570,62	1796,07
570,82	1832,93
571,01	1716,20
571,21	1732,58
571,40	1693,67
571,60	1767,40
571,79	1832,93
571,99	1724,39
572,18	1671,14
572,38	1730,53
572,57	1746,92
572,77	1779,68
572,96	1865,70
573,16	1751,01
573,35	1660,90
573,55	1761,25
573,74	1812,45
573,94	1669,09
574,13	1783,78
574,33	1826,79
574,52	1824,74
574,71	1667,05
574,91	1757,16
575,10	1628,14
575,30	1753,06
575,49	1699,81
575,69	1746,92
575,88	1767,40
576,08	1755,11
576,27	1832,93
576,47	1740,77
576,66	1851,36
576,86	1857,51
577,05	1789,92
577,25	1785,83
577,44	1888,23
577,64	1753,06
577,83	1802,21
578,02	1767,40
578,22	1826,79
578,41	1873,89
578,61	1718,25
578,80	1714,15
579,00	1779,68
579,19	1841,12
579,39	1828,84
579,58	1834,98
579,77	1773,54
579,97	1808,36
580,16	1822,69
580,36	1865,70
580,55	1757,16
580,75	1812,45
580,94	1761,25
581,13	1796,07
581,33	1916,90
581,52	1693,67
581,72	1949,67
581,91	1865,70
582,11	1712,10
582,30	1767,40
582,49	1820,64
582,69	1847,27
582,88	1798,12
583,08	1753,06
583,27	1816,55
583,47	1753,06
583,66	1744,87
583,85	1681,38
584,05	1681,38
584,24	1841,12
584,44	1777,64
584,63	1806,31
584,82	1812,45
585,02	1800,16
585,21	1777,64
585,41	1867,75
585,60	1779,68
585,79	1935,33
585,99	1953,76
586,18	1912,80
586,37	2158,56
586,57	3387,34
586,76	10069,86
586,96	24250,00
587,15	33811,96
587,34	39892,38
587,54	41106,83
587,73	35712,48
587,93	26056,31
588,12	21200,57
588,31	18046,70
588,51	15986,44
588,70	15163,16
588,89	13903,66
589,09	12498,75
589,28	10731,36
589,47	9375,60
589,67	7675,79
589,86	6530,97
590,06	4941,75
590,25	3923,91
590,44	3012,56
590,64	2574,30
590,83	2349,02
591,02	2039,78
591,22	1959,91
591,41	1996,77
591,60	1869,80
591,80	1947,62
591,99	1759,21
592,18	1808,36
592,38	1902,56
592,57	1724,39
592,76	1730,53
592,96	1763,30
593,15	1767,40
593,34	1755,11
593,54	1810,40
593,73	1820,64
593,92	1759,21
594,12	1837,03
594,31	1714,15
594,50	1837,03
594,70	1863,65
594,89	1880,04
595,08	1681,38
595,28	1765,35
595,47	1847,27
595,66	1742,82
595,86	1683,43
596,05	1781,73
596,24	1742,82
596,43	1925,09
596,63	1800,16
596,82	1818,60
597,01	1708,01
597,21	1871,84
597,40	1777,64
597,59	1763,30
597,79	1712,10
597,98	1732,58
598,17	1763,30
598,36	1765,35
598,56	1769,44
598,75	1687,53
598,94	1742,82
599,14	1767,40
599,33	1736,68
599,52	1781,73
599,71	1720,29
599,91	1867,75
600,10	1834,98
600,29	1763,30
600,48	1787,88
600,68	1730,53
600,87	1671,14
601,06	1757,16
601,26	1810,40
601,45	1804,26
601,64	1767,40
601,83	1767,40
602,03	1751,01
602,22	1613,80
602,41	1705,96
602,60	1839,08
602,80	1845,22
602,99	1757,16
603,18	1748,97
603,37	1765,35
603,57	1753,06
603,76	1816,55
603,95	1808,36
604,14	1683,43
604,34	1671,14
604,53	1683,43
604,72	1736,68
604,91	1812,45
605,10	1818,60
605,30	1673,19
605,49	1877,99
605,68	1775,59
605,87	1794,02
606,07	1681,38
606,26	1738,73
606,45	1771,49
606,64	1720,29
606,84	1822,69
607,03	1687,53
607,22	1828,84
607,41	1701,86
607,60	1695,72
607,80	1804,26
607,99	1761,25
608,18	1757,16
608,37	1738,73
608,56	1669,09
608,76	1867,75
608,95	1892,32
609,14	1716,20
609,33	1816,55
609,52	1822,69
609,72	1734,63
609,91	1732,58
610,10	1710,05
610,29	1816,55
610,48	1757,16
610,68	1767,40
610,87	1683,43
611,06	1818,60
611,25	1746,92
611,44	1830,88
611,63	1673,19
611,83	1820,64
612,02	1658,85
612,21	1812,45
612,40	1677,29
612,59	1769,44
612,79	1652,71
612,98	1798,12
613,17	1820,64
613,36	1763,30
613,55	1877,99
613,74	1683,43
613,93	1777,64
614,13	1728,49
614,32	1742,82
614,51	1734,63
614,70	1781,73
614,89	1673,19
615,08	1794,02
615,28	2093,02
615,47	1701,86
615,66	1757,16
615,85	1761,25
616,04	1798,12
616,23	1787,88
616,42	1738,73
616,62	1759,21
616,81	1775,59
617,00	1701,86
617,19	1789,92
617,38	1693,67
617,57	1691,62
617,76	1765,35
617,95	1734,63
618,15	1746,92
618,34	1773,54
618,53	1638,38
618,72	1830,88
618,91	1841,12
619,10	1845,22
619,29	1748,97
619,48	1755,11
619,68	1685,48
619,87	1697,77
620,06	1695,72
620,25	1665,00
620,44	1726,44
620,63	1710,05
620,82	1748,97
621,01	1847,27
621,20	1722,34
621,39	1753,06
621,59	1828,84
621,78	1660,90
621,97	1800,16
622,16	1761,25
622,35	1728,49
622,54	1830,88
622,73	1904,61
622,92	1576,94
623,11	1802,21
623,30	1718,25
623,49	1812,45
623,68	1687,53
623,88	1845,22
624,07	1746,92
624,26	1654,76
624,45	1697,77
624,64	1718,25
624,83	1712,10
625,02	1677,29
625,21	1632,23
625,40	1783,78
625,59	1726,44
625,78	1796,07
625,97	1763,30
626,16	1771,49
626,35	1771,49
626,54	1753,06
626,74	1783,78
626,93	1675,24
627,12	1699,81
627,31	1806,31
627,50	1777,64
627,69	1724,39
627,88	1738,73
628,07	1712,10
628,26	1636,33
628,45	1734,63
628,64	1652,71
628,83	1718,25
629,02	1691,62
629,21	1791,97
629,40	1738,73
629,59	1656,81
629,78	1716,20
629,97	1697,77
630,16	1763,30
630,35	1761,25
630,54	1705,96
630,73	1677,29
630,92	1761,25
631,11	1697,77
631,30	1722,34
631,49	1755,11
631,68	1697,77
631,87	1714,15
632,06	1654,76
632,25	1945,57
632,44	1775,59
632,63	1705,96
632,82	1662,95
633,01	1652,71
633,20	1726,44
633,39	1751,01
633,58	1615,85
633,77	1695,72
633,96	1814,50
634,15	1755,11
634,34	1722,34
634,53	1722,34
634,72	1730,53
634,91	1609,70
635,10	1804,26
635,29	1746,92
635,48	1748,97
635,67	1667,05
635,86	1705,96
636,05	1751,01
636,24	1693,67
636,43	1744,87
636,62	1746,92
636,81	1630,18
637,00	1796,07
637,19	1771,49
637,38	1722,34
637,57	1634,28
637,76	1677,29
637,95	1748,97
638,14	1683,43
638,33	1808,36
638,52	1738,73
638,71	1640,42
638,89	1675,24
639,08	1843,17
639,27	1718,25
639,46	1708,01
639,65	1841,12
639,84	1761,25
640,03	1820,64
640,22	1712,10
640,41	1857,51
640,60	1697,77
640,79	1705,96
640,98	1689,57
641,17	1777,64
641,36	1751,01
641,55	1798,12
641,74	1681,38
641,92	1763,30
642,11	1665,00
642,30	1624,04
642,49	1658,85
642,68	1712,10
642,87	1753,06
643,06	1828,84
643,25	1687,53
643,44	1626,09
643,63	1730,53
643,82	1759,21
644,00	1710,05
644,19	1697,77
644,38	1648,61
644,57	1802,21
644,76	1714,15
644,95	1650,66
645,14	1773,54
645,33	1742,82
645,52	1728,49
645,71	1746,92
645,89	1699,81
646,08	1742,82
646,27	1757,16
646,46	1859,56
646,65	1667,05
646,84	1757,16
647,03	1701,86
647,22	1837,03
647,40	1832,93
647,59	1740,77
647,78	1619,94
647,97	1648,61
648,16	1677,29
648,35	1763,30
648,54	1787,88
648,73	1640,42
648,91	1796,07
649,10	1656,81
649,29	1640,42
649,48	1695,72
649,67	1828,84
649,86	1728,49
650,05	1665,00
650,23	1748,97
650,42	1615,85
650,61	1693,67
650,80	1763,30
650,99	1814,50
651,18	1814,50
651,36	1710,05
651,55	1679,33
651,74	1755,11
651,93	1687,53
652,12	1757,16
652,31	1736,68
652,49	1677,29
652,68	1710,05
652,87	1779,68
653,06	1759,21
653,25	1826,79
653,44	1595,37
653,62	1781,73
653,81	1771,49
654,00	1765,35
654,19	1837,03
654,38	1853,41
654,56	1736,68
654,75	1697,77
654,94	1755,11
655,13	1751,01
655,32	1783,78
655,51	1791,97
655,69	1687,53
655,88	1753,06
656,07	1583,08
656,26	1714,15
656,45	1722,34
656,63	1785,83
656,82	1742,82
657,01	1744,87
657,20	1742,82
657,38	1773,54
657,57	1632,23
657,76	1710,05
657,95	1689,57
658,14	1665,00
658,32	1724,39
658,51	1605,61
658,70	1781,73
658,89	1816,55
659,08	1783,78
659,26	1765,35
659,45	1654,76
659,64	1695,72
659,83	1720,29
660,01	1818,60
660,20	1701,86
660,39	1781,73
660,58	1599,46
660,76	1800,16
660,95	1724,39
661,14	1830,88
661,33	1658,85
661,51	1751,01
661,70	1667,05
661,89	1724,39
662,08	1734,63
662,26	1658,85
662,45	1660,90
662,64	1853,41
662,83	1849,32
663,01	1669,09
663,20	1642,47
663,39	1798,12
663,58	1642,47
663,76	1785,83
663,95	1759,21
664,14	1705,96
664,32	1724,39
664,51	1689,57
664,70	1652,71
664,89	1714,15
665,07	1679,33
665,26	1775,59
665,45	1665,00
665,64	1720,29
665,82	1761,25
666,01	1757,16
666,20	1634,28
666,38	1798,12
666,57	1804,26
666,76	2179,04
666,95	4487,10
667,13	10463,07
667,32	15138,58
667,51	17712,88
667,69	18695,91
667,88	17540,85
668,07	12318,53
668,25	9449,33
668,44	7958,41
668,63	7419,79
668,81	6727,58
669,00	6195,11
669,19	5652,39
669,38	5085,11
669,56	4558,78
669,75	3968,96
669,94	3389,39
670,12	2928,60
670,31	2525,15
670,50	2213,85
670,68	2117,60
670,87	2004,96
671,06	1816,55
671,24	1822,69
671,43	1832,93
671,62	1714,15
671,80	1740,77
671,99	1763,30
672,18	1738,73
672,36	1810,40
672,55	1759,21
672,74	1759,21
672,92	1697,77
673,11	1855,46
673,29	1691,62
673,48	1828,84
673,67	1693,67
673,85	1810,40
674,04	1771,49
674,23	1738,73
674,41	1738,73
674,60	1636,33
674,79	1621,99
674,97	1695,72
675,16	1726,44
675,34	1800,16
675,53	1644,52
675,72	1771,49
675,90	1757,16
676,09	1665,00
676,28	1771,49
676,46	1607,66
676,65	1699,81
676,83	1746,92
677,02	1691,62
677,21	1714,15
677,39	1755,11
677,58	1722,34
677,77	1746,92
677,95	1755,11
678,14	1681,38
678,32	1693,67
678,51	1755,11
678,70	1789,92
678,88	1662,95
679,07	1738,73
679,25	1726,44
679,44	1691,62
679,63	1636,33
679,81	1648,61
680,00	1773,54
680,18	1724,39
680,37	1818,60
680,55	1753,06
680,74	1693,67
680,93	1638,38
681,11	1740,77
681,30	1650,66
681,48	1763,30
681,67	1728,49
681,85	1757,16
682,04	1667,05
682,23	1716,20
682,41	1712,10
682,60	1693,67
682,78	1761,25
682,97	1617,90
683,15	1667,05
683,34	1660,90
683,53	1757,16
683,71	1658,85
683,90	1837,03
684,08	1857,51
684,27	1732,58
684,45	1783,78
684,64	1810,40
684,82	1736,68
685,01	1718,25
685,19	1703,91
685,38	1796,07
685,57	1734,63
685,75	1671,14
685,94	1671,14
686,12	1638,38
686,31	1716,20
686,49	1710,05
686,68	1609,70
686,86	1742,82
687,05	1773,54
687,23	1779,68
687,42	1708,01
687,60	1603,56
687,79	1726,44
687,97	1787,88
688,16	1728,49
688,34	1761,25
688,53	1632,23
688,71	1791,97
688,90	1791,97
689,08	1667,05
689,27	1656,81
689,45	1820,64
689,64	1781,73
689,82	1697,77
690,01	1779,68
690,19	1722,34
690,38	1710,05
690,56	1773,54
690,75	1660,90
690,93	1669,09
691,12	1693,67
691,30	1769,44
691,49	1621,99
691,67	1832,93
691,86	1751,01
692,04	1591,27
692,23	1732,58
692,41	1679,33
692,60	1804,26
692,78	1718,25
692,97	1642,47
693,15	1718,25
693,34	1859,56
693,52	1761,25
693,71	1734,63
693,89	1669,09
694,08	1673,19
694,26	1802,21
694,44	1886,18
694,63	1705,96
694,81	1642,47
695,00	1748,97
695,18	1742,82
695,37	1849,32
695,55	1712,10
695,74	1624,04
695,92	1671,14
696,10	1783,78
696,29	1710,05
696,47	1753,06
696,66	1681,38
696,84	1724,39
697,03	1712,10
697,21	1849,32
697,40	2303,96
697,58	1880,04
697,76	1705,96
697,95	1693,67
698,13	1671,14
698,32	1748,97
698,50	1697,77
698,68	1761,25
698,87	1736,68
699,05	1800,16
699,24	1638,38
699,42	1755,11
699,61	1781,73
699,79	1740,77
699,97	1734,63
700,16	1638,38
700,34	1632,23
700,53	1751,01
700,71	1826,79
700,89	1744,87
701,08	1748,97
701,26	1705,96
701,45	2121,70
701,63	1644,52
701,81	1662,95
702,00	1705,96
702,18	1712,10
702,37	1671,14
702,55	1806,31
702,73	1701,86
702,92	1644,52
703,10	1781,73
703,28	1748,97
703,47	1685,48
703,65	1738,73
703,84	1769,44
704,02	1689,57
704,20	1816,55
704,39	1685,48
704,57	1689,57
704,75	1736,68
704,94	1781,73
705,12	1693,67
705,30	1798,12
705,49	2279,39
705,67	4425,66
705,86	9371,50
706,04	12519,23
706,22	14262,05
706,41	15005,47
706,59	13537,07
706,77	9271,15
706,96	7253,91
707,14	6428,57
707,32	5951,40
707,51	5599,15
707,69	4818,87
707,87	4071,36
708,06	3528,65
708,24	2881,49
708,42	2357,21
708,61	2246,62
708,79	1818,60
708,97	1861,60
709,16	1890,28
709,34	1816,55
709,52	1708,01
709,71	1716,20
709,89	1800,16
710,07	1718,25
710,26	1619,94
710,44	1740,77
710,62	1746,92
710,80	1724,39
710,99	1802,21
711,17	1806,31
711,35	1642,47
711,54	1746,92
711,72	1777,64
711,90	1826,79
712,09	1734,63
712,27	1675,24
712,45	1755,11
712,63	1742,82
712,82	1695,72
713,00	1689,57
713,18	1804,26
713,37	1740,77
713,55	1740,77
713,73	1759,21
713,91	1714,15
714,10	1746,92
714,28	1701,86
714,46	1751,01
714,65	1693,67
714,83	1726,44
715,01	1765,35
715,19	1708,01
715,38	1638,38
715,56	1814,50
715,74	1662,95
715,92	1689,57
716,11	1775,59
716,29	1673,19
716,47	1703,91
716,65	1753,06
716,84	1615,85
717,02	1830,88
717,20	1728,49
717,38	1703,91
717,57	1736,68
717,75	1736,68
717,93	1683,43
718,11	1751,01
718,30	1636,33
718,48	1734,63
718,66	1843,17
718,84	1787,88
719,03	1722,34
719,21	1685,48
719,39	1794,02
719,57	1834,98
719,75	1771,49
719,94	1630,18
720,12	1697,77
720,30	1777,64
720,48	1732,58
720,67	1681,38
720,85	1650,66
721,03	1673,19
721,21	1660,90
721,39	1783,78
721,58	1726,44
721,76	1716,20
721,94	1828,84
722,12	1736,68
722,30	1830,88
722,49	1722,34
722,67	1681,38
722,85	1763,30
723,03	1662,95
723,21	1662,95
723,40	1730,53
723,58	1683,43
723,76	1695,72
723,94	1763,30
724,12	1720,29
724,30	1791,97
724,49	1738,73
724,67	1675,24
724,85	1802,21
725,03	1624,04
725,21	1787,88
725,40	1863,65
725,58	1687,53
725,76	1736,68
725,94	1742,82
726,12	1603,56
726,30	1740,77
726,49	1722,34
726,67	1703,91
726,85	1691,62
727,03	1755,11
727,21	2148,32
727,39	2951,12
727,57	3733,45
727,76	4194,24
727,94	4372,41
728,12	4257,73
728,30	3631,05
728,48	3037,14
728,66	2725,85
728,84	2514,91
729,03	2334,68
729,21	2191,33
729,39	2000,87
729,57	1865,70
729,75	1861,60
729,93	1822,69
730,11	1744,87
730,30	1675,24
730,48	1736,68
730,66	1740,77
730,84	1751,01
731,02	1726,44
731,20	1751,01
731,38	1757,16
731,56	1701,86
731,74	1699,81
731,93	1701,86
732,11	1701,86
732,29	1673,19
732,47	1759,21
732,65	1730,53
732,83	1855,46
733,01	1648,61
733,19	1683,43
733,37	1759,21
733,56	1712,10
733,74	1738,73
733,92	1841,12
734,10	1689,57
734,28	1779,68
734,46	1601,51
734,64	1703,91
734,82	1697,77
735,00	1746,92
735,18	1701,86
735,36	1748,97
735,54	1697,77
735,73	1775,59
735,91	1689,57
736,09	1767,40
736,27	1710,05
736,45	1728,49
736,63	1607,66
736,81	1687,53
736,99	1724,39
737,17	1771,49
737,35	1665,00
737,53	1802,21
737,71	1648,61
737,89	1728,49
738,07	1654,76
738,25	1603,56
738,43	1646,57
738,61	1695,72
738,80	1681,38
738,98	1673,19
739,16	1722,34
739,34	1685,48
739,52	1875,94
739,70	1714,15
739,88	1775,59
740,06	1742,82
740,24	1615,85
740,42	1751,01
740,60	1636,33
740,78	1689,57
740,96	1611,75
741,14	1665,00
741,32	1746,92
741,50	1683,43
741,68	1822,69
741,86	1804,26
742,04	1732,58
742,22	1685,48
742,40	1687,53
742,58	1787,88
742,76	1681,38
742,94	1773,54
743,12	1646,57
743,30	1697,77
743,48	1779,68
743,66	1710,05
743,84	1714,15
744,02	1648,61
744,20	1685,48
744,38	1683,43
744,56	1701,86
744,74	1802,21
744,92	1746,92
745,10	1802,21
745,28	1738,73
745,46	1751,01
745,64	1685,48
745,82	1767,40
746,00	1736,68
746,18	1738,73
746,36	1683,43
746,54	1744,87
746,72	1740,77
746,90	1644,52
747,08	1861,60
747,26	1732,58
747,44	1775,59
747,62	1787,88
747,80	1781,73
747,98	1755,11
748,15	1734,63
748,33	1863,65
748,51	1710,05
748,69	1834,98
748,87	1636,33
749,05	1681,38
749,23	1746,92
749,41	1724,39
749,59	1656,81
749,77	1777,64
749,95	1705,96
750,13	1673,19
750,31	1751,01
750,49	1628,14
750,67	1726,44
750,85	1808,36
751,03	1726,44
751,20	1763,30
751,38	1736,68
751,56	1718,25
751,74	1671,14
751,92	1675,24
752,10	1667,05
752,28	1830,88
752,46	1685,48
752,64	1708,01
752,82	1740,77
753,00	1753,06
753,18	1736,68
753,35	1605,61
753,53	1658,85
753,71	1753,06
753,89	1759,21
754,07	1724,39
754,25	1748,97
754,43	1746,92
754,61	1628,14
754,79	1720,29
754,97	1646,57
755,14	1787,88
755,32	1646,57
755,50	1722,34
755,68	1763,30
755,86	1652,71
756,04	1681,38
756,22	1673,19
756,40	1746,92
756,57	1738,73
756,75	1740,77
756,93	1757,16
757,11	1746,92
757,29	1665,00
757,47	1550,31
757,65	1619,94
757,82	1615,85
758,00	1681,38
758,18	1708,01
758,36	1646,57
758,54	1783,78
758,72	1681,38
758,90	1738,73
759,07	1703,91
759,25	1701,86
759,43	1740,77
759,61	1611,75
759,79	2213,85
759,97	1767,40
760,15	1589,22
760,32	1716,20
760,50	1763,30
760,68	1822,69
760,86	1566,70
761,04	1769,44
761,22	1746,92
761,39	1693,67
761,57	1714,15
761,75	1679,33
761,93	1665,00
762,11	1705,96
762,28	1722,34
762,46	1630,18
762,64	1761,25
762,82	1705,96
763,00	1726,44
763,18	1783,78
763,35	1677,29
763,53	1775,59
763,71	1699,81
763,89	1742,82
764,07	1652,71
764,24	1808,36
764,42	1779,68
764,60	1736,68
764,78	1806,31
764,96	1843,17
765,13	1710,05
765,31	1681,38
765,49	1720,29
765,67	1714,15
765,84	1665,00
766,02	1652,71
766,20	1677,29
766,38	1728,49
766,56	1726,44
766,73	1726,44
766,91	1755,11
767,09	1710,05
767,27	1748,97
767,44	1640,42
767,62	1718,25
767,80	1728,49
767,98	1667,05
768,15	1652,71
768,33	1787,88
768,51	1791,97
768,69	1662,95
768,87	1714,15
769,04	1791,97
769,22	1839,08
769,40	1839,08
769,58	1900,52
769,75	1693,67
769,93	1785,83
770,11	1667,05
770,28	1734,63
770,46	1804,26
770,64	1796,07
770,82	1728,49
770,99	1685,48
771,17	1791,97
771,35	1718,25
771,53	1656,81
771,70	1675,24
771,88	1662,95
772,06	1689,57
772,23	1689,57
772,41	1757,16
772,59	1628,14
772,77	1636,33
772,94	1767,40
773,12	1691,62
773,30	1675,24
773,47	1699,81
773,65	1693,67
773,83	1748,97
774,01	1757,16
774,18	1632,23
774,36	1718,25
774,54	1654,76
774,71	1847,27
774,89	1763,30
775,07	1689,57
775,24	1656,81
775,42	1714,15
775,60	1806,31
775,78	1746,92
775,95	1640,42
776,13	1675,24
776,31	1554,41
776,48	1724,39
776,66	1783,78
776,84	1660,90
777,01	1673,19
777,19	1669,09
777,37	1669,09
777,54	1722,34
777,72	1800,16
777,90	1765,35
778,07	1656,81
778,25	1972,19
778,43	1703,91
778,60	1697,77
778,78	1765,35
778,96	1814,50
779,13	1644,52
779,31	1722,34
779,49	1640,42
779,66	1716,20
779,84	1757,16
780,01	1669,09
780,19	1708,01
780,37	1802,21
780,54	1779,68
780,72	1718,25
780,90	1757,16
781,07	1728,49
781,25	1740,77
781,43	1826,79
781,60	1658,85
781,78	1787,88
781,95	1667,05
782,13	1595,37
782,31	1736,68
782,48	1658,85
782,66	1738,73
782,83	1830,88
783,01	1748,97
783,19	1703,91
783,36	1714,15
783,54	1671,14
783,72	1734,63
783,89	1759,21
784,07	1681,38
784,24	1771,49
784,42	1820,64
784,60	1777,64
784,77	1705,96
784,95	1542,12
785,12	1644,52
785,30	1808,36
785,47	1607,66
785,65	1634,28
785,83	1701,86
786,00	1720,29
786,18	1767,40
786,35	1566,70
786,53	1640,42
786,71	1767,40
786,88	1773,54
787,06	1773,54
787,23	1693,67
787,41	1593,32
787,58	1714,15
787,76	1681,38
787,94	1736,68
788,11	1693,67
788,29	1771,49
788,46	1712,10
788,64	1675,24
788,81	1746,92
788,99	1730,53
789,16	1681,38
789,34	1761,25
789,52	1705,96
789,69	1687,53
789,87	1615,85
790,04	1738,73
790,22	1681,38
790,39	1785,83
790,57	1662,95
790,74	1660,90
790,92	1810,40
791,09	1648,61
791,27	1671,14
791,44	1798,12
791,62	1712,10
791,79	1744,87
791,97	1732,58
792,15	1902,56
792,32	1712,10
792,50	1796,07
792,67	1802,21
792,85	1691,62
793,02	1679,33
793,20	1736,68
793,37	1601,51
793,55	1738,73
793,72	1634,28
793,90	1753,06
794,07	1763,30
794,25	1687,53
794,42	1701,86
794,60	1615,85
794,77	1742,82
794,95	1726,44
795,12	1773,54
795,30	1658,85
795,47	1650,66
795,65	1832,93
795,82	1669,09
796,00	1665,00
796,17	1796,07
796,34	1689,57
796,52	1714,15
796,69	1714,15
796,87	1787,88
797,04	1716,20
797,22	1740,77
797,39	1738,73
797,57	1722,34
797,74	1738,73
797,92	1730,53
798,09	1718,25
798,27	1746,92
798,44	1810,40
798,62	1660,90
798,79	1744,87
798,96	1783,78
799,14	1611,75
799,31	1806,31
799,49	1685,48
799,66	1724,39
799,84	1685,48
800,01	1667,05
800,19	1701,86
800,36	1675,24
800,53	1689,57
800,71	1693,67
800,88	1775,59
801,06	1693,67
801,23	1691,62
801,41	1726,44
801,58	1662,95
801,75	1626,09
801,93	1720,29
802,10	1841,12
802,28	1845,22
802,45	1671,14
802,63	1738,73
802,80	1777,64
802,97	1673,19
803,15	1714,15
803,32	1718,25
803,50	1687,53
803,67	1679,33
803,84	1667,05
804,02	1730,53
804,19	1734,63
804,37	1665,00
804,54	1714,15
804,71	1648,61
804,89	1697,77
805,06	1701,86
805,24	1712,10
805,41	1697,77
805,58	1720,29
805,76	1896,42
805,93	1757,16
806,10	1742,82
806,28	1748,97
806,45	1746,92
806,63	1763,30
806,80	1712,10
806,97	1701,86
807,15	1767,40
807,32	1685,48
807,49	1738,73
807,67	1570,79
807,84	1783,78
808,01	1656,81
808,19	1800,16
808,36	1845,22
808,54	1701,86
808,71	1695,72
808,88	1726,44
809,06	1767,40
809,23	1849,32
809,40	1681,38
809,58	1779,68
809,75	1705,96
809,92	1673,19
810,10	1875,94
810,27	1726,44
810,44	1673,19
810,62	1869,80
810,79	1779,68
810,96	1656,81
811,14	1601,51
811,31	1718,25
811,48	1806,31
811,66	1771,49
811,83	1818,60
812,00	1779,68
812,18	1726,44
812,35	1816,55
812,52	1714,15
812,69	1681,38
812,87	1646,57
813,04	1634,28
813,21	1675,24
813,39	1673,19
813,56	1681,38
813,73	1771,49
813,91	1669,09
814,08	1787,88
814,25	1712,10
814,42	1652,71
814,60	1701,86
814,77	1687,53
814,94	1708,01
815,12	1748,97
815,29	1724,39
815,46	1681,38
815,63	1787,88
815,81	1695,72
815,98	1679,33
816,15	1738,73
816,33	1757,16
816,50	1697,77
816,67	1746,92
816,84	1677,29
817,02	1658,85
817,19	1687,53
817,36	1683,43
817,53	1738,73
817,71	1681,38
817,88	1718,25
818,05	1710,05
818,22	1675,24
818,40	1777,64
818,57	1665,00
818,74	1710,05
818,91	1732,58
819,09	1763,30
819,26	1742,82
819,43	1652,71
819,60	1658,85
819,78	1736,68
819,95	1771,49
820,12	1703,91
820,29	1837,03
820,47	1765,35
820,64	1724,39
820,81	1658,85
820,98	1648,61
821,15	1638,38
821,33	1728,49
821,50	1648,61
821,67	1744,87
821,84	1693,67
822,02	1728,49
822,19	1759,21
822,36	1681,38
822,53	1642,47
822,70	1638,38
822,88	1720,29
823,05	1796,07
823,22	1669,09
823,39	1759,21
823,56	1740,77
823,74	1732,58
823,91	1611,75
824,08	1624,04
824,25	1714,15
824,42	1746,92
824,60	1675,24
824,77	1753,06
824,94	1683,43
825,11	1724,39
825,28	1587,18
825,45	1716,20
825,63	1685,48
825,80	1683,43
825,97	1681,38
826,14	1757,16
826,31	1603,56
826,48	1812,45
826,66	1656,81
826,83	1796,07
827,00	1746,92
827,17	1607,66
827,34	1642,47
827,51	1730,53
827,69	1718,25
827,86	1685,48
828,03	1705,96
828,20	1763,30
828,37	1714,15
828,54	1732,58
828,71	1669,09
828,89	1728,49
829,06	1740,77
829,23	1779,68
829,40	1677,29
829,57	1722,34
829,74	1759,21
829,91	1748,97
830,09	1703,91
830,26	1761,25
830,43	1746,92
830,60	1726,44
830,77	1710,05
830,94	1744,87
831,11	1734,63
831,28	1712,10
831,46	1769,44
831,63	1673,19
831,80	1775,59
831,97	1644,52
832,14	1677,29
832,31	1730,53
832,48	1701,86
832,65	1708,01
832,82	1724,39
832,99	1734,63
833,17	1642,47
833,34	1818,60
833,51	1755,11
833,68	1576,94
833,85	1757,16
834,02	1626,09
834,19	1708,01
834,36	1689,57
834,53	1798,12
834,70	1828,84
834,87	1771,49
835,04	1669,09
835,22	1630,18
835,39	1673,19
835,56	1675,24
835,73	1767,40
835,90	1796,07
836,07	1632,23
836,24	1781,73
836,41	1660,90
836,58	1699,81
836,75	1757,16
836,92	1783,78
837,09	1699,81
837,26	1708,01
837,43	1736,68
837,60	1701,86
837,77	1701,86
837,94	1742,82
838,12	1863,65
838,29	1669,09
838,46	1607,66
838,63	1716,20
838,80	1787,88
838,97	1726,44
839,14	1748,97
839,31	1683,43
839,48	1724,39
839,65	1697,77
839,82	1730,53
839,99	1722,34
840,16	1746,92
840,33	1761,25
840,50	1744,87
840,67	1642,47
840,84	1605,61
841,01	1775,59
841,18	1712,10
841,35	1718,25
841,52	1771,49
841,69	1845,22
841,86	1708,01
842,03	1769,44
842,20	1863,65
842,37	1701,86
842,54	1765,35
842,71	1751,01
842,88	1673,19
843,05	1785,83
843,22	1650,66
843,39	1734,63
843,56	1685,48
843,73	1722,34
843,90	1728,49
844,07	1667,05
844,24	1724,39
844,41	1769,44
844,58	1716,20
844,75	1685,48
844,92	1714,15
845,09	1650,66
845,26	1708,01
845,43	1667,05
845,60	1691,62
845,77	1722,34
845,94	1724,39
846,10	1738,73
846,27	1558,50
846,44	1644,52
846,61	1748,97
846,78	1767,40
846,95	1855,46
847,12	1734,63
847,29	1673,19
847,46	1613,80
847,63	1736,68
847,80	1697,77
847,97	1679,33
848,14	1834,98
848,31	1726,44
848,48	1607,66
848,65	1765,35
848,82	1669,09
848,98	1830,88
849,15	1679,33
849,32	1787,88
849,49	1732,58
849,66	1697,77
849,83	1789,92
850,00	1685,48
850,17	1732,58
850,34	1746,92
850,51	1691,62
850,68	1667,05
850,85	1810,40
851,01	1726,44
851,18	1695,72
851,35	1632,23
851,52	1794,02
851,69	1851,36
851,86	1636,33
852,03	1753,06
852,20	1771,49
852,37	1675,24
852,53	1601,51
852,70	1673,19
852,87	1740,77
853,04	1697,77
853,21	1673,19
853,38	1812,45
853,55	1804,26
853,72	1787,88
853,89	1658,85
854,05	1621,99
854,22	1626,09
854,39	1705,96
854,56	1693,67
854,73	1755,11
854,90	1724,39
855,07	1755,11
855,23	1593,32
855,40	1693,67
855,57	1683,43
855,74	1589,22
855,91	1875,94
856,08	1665,00
856,25	1611,75
856,41	1710,05
856,58	1730,53
856,75	1701,86
856,92	1667,05
857,09	1755,11
857,26	1687,53
857,42	1673,19
857,59	1789,92
857,76	1689,57
857,93	1689,57
858,10	1736,68
858,27	1671,14
858,43	1699,81
858,60	1730,53
858,77	1601,51
858,94	1611,75
859,11	1787,88
859,27	1660,90
859,44	1607,66
859,61	1898,47
859,78	1751,01
859,95	1638,38
860,12	1693,67
860,28	1826,79
860,45	1826,79
860,62	1675,24
860,79	1714,15
860,95	1671,14
861,12	1699,81
861,29	1662,95
861,46	1665,00
861,63	1656,81
861,79	1732,58
861,96	1681,38
862,13	1667,05
862,30	1800,16
862,47	1708,01
862,63	1660,90
862,80	1687,53
862,97	1769,44
863,14	1847,27
863,30	1761,25
863,47	1648,61
863,64	1785,83
863,81	1669,09
863,97	1708,01
864,14	1734,63
864,31	1730,53
864,48	1730,53
864,65	1751,01
864,81	1716,20
864,98	1730,53
865,15	1753,06
865,32	1773,54
865,48	1763,30
865,65	1767,40
865,82	1673,19
865,98	1802,21
866,15	1785,83
866,32	1687,53
866,49	1648,61
866,65	1820,64
866,82	1718,25
866,99	1695,72
867,16	1781,73
867,32	1656,81
867,49	1695,72
867,66	1710,05
867,83	1626,09
867,99	1607,66
868,16	1705,96
868,33	1611,75
868,49	1736,68
868,66	1693,67
868,83	1808,36
868,99	1812,45
869,16	1712,10
869,33	1775,59
869,50	1740,77
869,66	1767,40
869,83	1648,61
870,00	1683,43
870,16	1771,49
870,33	1697,77
870,50	1884,13
870,66	1753,06
870,83	1724,39
871,00	1726,44
871,17	1718,25
871,33	1816,55
871,50	1640,42
871,67	1691,62
871,83	1697,77
872,00	1732,58
872,17	1632,23
872,33	1822,69
872,50	1763,30
872,67	1675,24
872,83	1673,19
873,00	1691,62
873,17	1746,92
873,33	1714,15
873,50	1722,34
873,67	1617,90
873,83	1714,15
874,00	1732,58
874,16	1789,92
874,33	1720,29
874,50	1581,03
874,66	1730,53
874,83	1632,23
875,00	1751,01
875,16	1753,06
875,33	1783,78
875,50	1521,64
875,66	1710,05
875,83	1710,05
875,99	1779,68
876,16	1689,57
876,33	1630,18
876,49	1689,57
876,66	1683,43
876,83	1722,34
876,99	1646,57
877,16	1740,77
877,32	1751,01
877,49	1646,57
877,66	1748,97
877,82	1761,25
877,99	1742,82
878,15	1812,45
878,32	1763,30
878,49	1726,44
878,65	1656,81
878,82	1820,64
878,98	1638,38
879,15	1763,30
879,32	1798,12
879,48	1683,43
879,65	1619,94
879,81	1644,52
879,98	1576,94
880,15	1660,90
880,31	1781,73
880,48	1656,81
880,64	1748,97
880,81	1763,30
880,97	1810,40
881,14	1699,81
881,31	1662,95
881,47	1837,03
881,64	1665,00
881,80	1675,24
881,97	1648,61
882,13	1847,27
882,30	1708,01
882,47	1648,61
882,63	1740,77
882,80	1675,24
882,96	1679,33
883,13	1744,87
883,29	1669,09
883,46	1697,77
883,62	1853,41
883,79	1667,05
883,95	1822,69
884,12	1705,96
884,29	1757,16
884,45	1665,00
884,62	1751,01
884,78	1671,14
884,95	1800,16
885,11	1685,48
885,28	1751,01
885,44	1818,60
885,61	1732,58
885,77	1705,96
885,94	1748,97
886,10	1708,01
886,27	1722,34
886,43	1888,23
886,60	1789,92
886,76	1738,73
886,93	1665,00
887,09	1718,25
887,26	1640,42
887,42	1634,28
887,59	1830,88
887,75	1748,97
887,92	1730,53
888,08	1794,02
888,25	1916,90
888,41	1828,84
888,58	1738,73
888,74	1730,53
888,91	1648,61
>>>>>End Processed Spectral Data<<<<<
