SpectraSuite Data File
++++++++++++++++++++++++++++++++++++
Date: Mon Jun 06 17:39:17 CEST 2016
User: root
Dark Spectrum Present: No
Reference Spectrum Present: No
Number of Sampled Component Spectra: 1
Spectrometers: USB4C02835
Integration Time (usec): 100000 (USB4C02835)
Spectra Averaged: 1 (USB4C02835)
Boxcar Smoothing: 0 (USB4C02835)
Correct for Electrical Dark: No (USB4C02835)
Strobe/Lamp Enabled: No (USB4C02835)
Correct for Detector Non-linearity: No (USB4C02835)
Correct for Stray Light: No (USB4C02835)
Number of Pixels in Processed Spectrum: 3648
>>>>>Begin Processed Spectral Data<<<<<
177,47	1511,40
177,69	1511,40
177,91	1511,40
178,13	1466,35
178,36	1484,78
178,58	1673,19
178,80	1669,09
179,02	1642,47
179,24	1634,28
179,46	1701,86
179,68	1845,22
179,90	1660,90
180,13	1734,63
180,35	1685,48
180,57	1748,97
180,79	1781,73
181,01	1732,58
181,23	1765,35
181,45	1779,68
181,67	1699,81
181,90	1785,83
182,12	1695,72
182,34	1673,19
182,56	1759,21
182,78	1724,39
183,00	1710,05
183,22	1800,16
183,44	1585,13
183,66	1968,10
183,89	1755,11
184,11	1738,73
184,33	1710,05
184,55	1791,97
184,77	1824,74
184,99	1714,15
185,21	1603,56
185,43	1806,31
185,65	1601,51
185,87	1726,44
186,10	1767,40
186,32	1806,31
186,54	1705,96
186,76	1757,16
186,98	1820,64
187,20	1703,91
187,42	1738,73
187,64	1681,38
187,86	1753,06
188,08	1716,20
188,30	1753,06
188,52	1728,49
188,75	1787,88
188,97	1724,39
189,19	1738,73
189,41	1759,21
189,63	1800,16
189,85	1669,09
190,07	1673,19
190,29	1650,66
190,51	1730,53
190,73	1587,18
190,95	1781,73
191,17	1771,49
191,39	1724,39
191,61	1662,95
191,84	1716,20
192,06	1757,16
192,28	1624,04
192,50	1920,99
192,72	1738,73
192,94	1738,73
193,16	1812,45
193,38	1669,09
193,60	1734,63
193,82	1697,77
194,04	1757,16
194,26	1681,38
194,48	1701,86
194,70	1681,38
194,92	1683,43
195,14	1765,35
195,36	1665,00
195,58	1685,48
195,80	1697,77
196,02	1691,62
196,24	1691,62
196,46	1773,54
196,69	1632,23
196,91	1839,08
197,13	1718,25
197,35	1599,46
197,57	1828,84
197,79	1773,54
198,01	1736,68
198,23	1710,05
198,45	1812,45
198,67	1683,43
198,89	1716,20
199,11	1771,49
199,33	1726,44
199,55	1587,18
199,77	1755,11
199,99	1837,03
200,21	1742,82
200,43	1736,68
200,65	1632,23
200,87	1554,41
201,09	1611,75
201,31	1689,57
201,53	1726,44
201,75	1771,49
201,97	1800,16
202,19	1742,82
202,41	1748,97
202,63	1902,56
202,85	1722,34
203,07	1765,35
203,29	1626,09
203,51	1628,14
203,73	1683,43
203,95	1832,93
204,17	1740,77
204,39	1705,96
204,61	1703,91
204,83	1669,09
205,05	1777,64
205,27	1740,77
205,49	1800,16
205,71	1748,97
205,93	1671,14
206,15	1673,19
206,37	1769,44
206,59	1675,24
206,81	1656,81
207,03	1640,42
207,25	1681,38
207,47	1679,33
207,69	1734,63
207,91	1830,88
208,13	1800,16
208,34	1712,10
208,56	1701,86
208,78	1753,06
209,00	1693,67
209,22	1650,66
209,44	1656,81
209,66	1640,42
209,88	1687,53
210,10	1697,77
210,32	1656,81
210,54	1796,07
210,76	1611,75
210,98	1650,66
211,20	1650,66
211,42	1794,02
211,64	1761,25
211,86	1806,31
212,08	1689,57
212,30	1718,25
212,52	1736,68
212,74	1767,40
212,96	1720,29
213,17	1724,39
213,39	1708,01
213,61	1849,32
213,83	1791,97
214,05	1667,05
214,27	1681,38
214,49	1722,34
214,71	1644,52
214,93	1787,88
215,15	1751,01
215,37	1800,16
215,59	1660,90
215,81	1748,97
216,03	1837,03
216,24	1650,66
216,46	1693,67
216,68	1665,00
216,90	1775,59
217,12	1839,08
217,34	1734,63
217,56	1806,31
217,78	1773,54
218,00	1703,91
218,22	1771,49
218,44	1763,30
218,66	1697,77
218,87	1828,84
219,09	1771,49
219,31	1773,54
219,53	1632,23
219,75	1708,01
219,97	1816,55
220,19	1693,67
220,41	1648,61
220,63	1740,77
220,85	1751,01
221,06	1712,10
221,28	1894,37
221,50	1765,35
221,72	1767,40
221,94	1740,77
222,16	1679,33
222,38	1783,78
222,60	1734,63
222,82	1740,77
223,03	1755,11
223,25	1656,81
223,47	1777,64
223,69	1908,71
223,91	1775,59
224,13	1669,09
224,35	1677,29
224,57	1785,83
224,78	1722,34
225,00	1689,57
225,22	1689,57
225,44	1771,49
225,66	1753,06
225,88	1658,85
226,10	1746,92
226,32	1642,47
226,53	1798,12
226,75	1656,81
226,97	1675,24
227,19	1673,19
227,41	1701,86
227,63	1761,25
227,85	1609,70
228,06	1804,26
228,28	1738,73
228,50	1748,97
228,72	1683,43
228,94	1695,72
229,16	1576,94
229,37	1654,76
229,59	1730,53
229,81	1814,50
230,03	1628,14
230,25	1562,60
230,47	1712,10
230,69	1701,86
230,90	1804,26
231,12	1695,72
231,34	1693,67
231,56	1767,40
231,78	1624,04
232,00	1765,35
232,21	1673,19
232,43	1697,77
232,65	1583,08
232,87	1712,10
233,09	1673,19
233,30	1693,67
233,52	1802,21
233,74	1716,20
233,96	1720,29
234,18	1673,19
234,40	1736,68
234,61	1787,88
234,83	1693,67
235,05	1650,66
235,27	1816,55
235,49	1699,81
235,70	1705,96
235,92	1820,64
236,14	1734,63
236,36	1949,67
236,58	1609,70
236,79	1746,92
237,01	1683,43
237,23	1726,44
237,45	1812,45
237,67	1644,52
237,88	1779,68
238,10	1814,50
238,32	1642,47
238,54	1685,48
238,76	1701,86
238,97	1669,09
239,19	1669,09
239,41	1773,54
239,63	1742,82
239,85	1734,63
240,06	1714,15
240,28	1697,77
240,50	1710,05
240,72	1642,47
240,93	1691,62
241,15	1748,97
241,37	1697,77
241,59	1830,88
241,81	1691,62
242,02	1730,53
242,24	1718,25
242,46	1751,01
242,68	1775,59
242,89	1806,31
243,11	1693,67
243,33	1765,35
243,55	1791,97
243,76	1748,97
243,98	1609,70
244,20	1667,05
244,42	1693,67
244,64	1802,21
244,85	1718,25
245,07	1746,92
245,29	1740,77
245,51	1681,38
245,72	1650,66
245,94	1730,53
246,16	1679,33
246,38	1701,86
246,59	1675,24
246,81	1662,95
247,03	1615,85
247,24	1626,09
247,46	1693,67
247,68	1705,96
247,90	1691,62
248,11	1638,38
248,33	1816,55
248,55	1658,85
248,77	1759,21
248,98	1751,01
249,20	1828,84
249,42	1755,11
249,64	1693,67
249,85	1732,58
250,07	1640,42
250,29	1722,34
250,50	1746,92
250,72	1708,01
250,94	1767,40
251,16	1894,37
251,37	1765,35
251,59	1771,49
251,81	1787,88
252,02	1812,45
252,24	1722,34
252,46	1826,79
252,68	1730,53
252,89	1699,81
253,11	1628,14
253,33	1875,94
253,54	1724,39
253,76	1677,29
253,98	1773,54
254,20	1740,77
254,41	1609,70
254,63	1677,29
254,85	1753,06
255,06	1705,96
255,28	1728,49
255,50	1689,57
255,71	1665,00
255,93	1642,47
256,15	1732,58
256,36	1736,68
256,58	1767,40
256,80	1839,08
257,02	1726,44
257,23	1644,52
257,45	1802,21
257,67	1865,70
257,88	1695,72
258,10	1763,30
258,32	1660,90
258,53	1632,23
258,75	1783,78
258,97	1724,39
259,18	1708,01
259,40	1714,15
259,62	1843,17
259,83	1751,01
260,05	1701,86
260,27	1970,15
260,48	1687,53
260,70	1652,71
260,92	1699,81
261,13	1718,25
261,35	1619,94
261,57	1755,11
261,78	1677,29
262,00	1640,42
262,22	1722,34
262,43	1708,01
262,65	1722,34
262,86	1746,92
263,08	1941,47
263,30	1771,49
263,51	1599,46
263,73	1636,33
263,95	1800,16
264,16	1705,96
264,38	1650,66
264,60	1708,01
264,81	1732,58
265,03	1708,01
265,25	1773,54
265,46	1777,64
265,68	1837,03
265,89	1767,40
266,11	1617,90
266,33	1738,73
266,54	1773,54
266,76	1720,29
266,98	1675,24
267,19	1812,45
267,41	1751,01
267,62	1742,82
267,84	1667,05
268,06	1755,11
268,27	1783,78
268,49	1742,82
268,70	1761,25
268,92	1691,62
269,14	1632,23
269,35	1667,05
269,57	1769,44
269,79	1779,68
270,00	1728,49
270,22	1767,40
270,43	1679,33
270,65	1585,13
270,87	1757,16
271,08	1673,19
271,30	1769,44
271,51	1705,96
271,73	1804,26
271,95	1787,88
272,16	1718,25
272,38	1755,11
272,59	1660,90
272,81	1796,07
273,02	1710,05
273,24	1712,10
273,46	1804,26
273,67	1634,28
273,89	1691,62
274,10	1644,52
274,32	1808,36
274,54	1681,38
274,75	1722,34
274,97	1644,52
275,18	1734,63
275,40	1722,34
275,61	1687,53
275,83	1697,77
276,05	1669,09
276,26	1636,33
276,48	1671,14
276,69	1632,23
276,91	1636,33
277,12	1742,82
277,34	1785,83
277,55	1724,39
277,77	1630,18
277,99	1720,29
278,20	1689,57
278,42	1697,77
278,63	1642,47
278,85	1716,20
279,06	1652,71
279,28	1748,97
279,49	1724,39
279,71	1775,59
279,93	1773,54
280,14	1773,54
280,36	1685,48
280,57	1800,16
280,79	1804,26
281,00	1628,14
281,22	1646,57
281,43	1798,12
281,65	1554,41
281,86	1654,76
282,08	1783,78
282,29	1804,26
282,51	1710,05
282,73	1644,52
282,94	1605,61
283,16	1785,83
283,37	1869,80
283,59	1746,92
283,80	1751,01
284,02	1791,97
284,23	1703,91
284,45	1621,99
284,66	1658,85
284,88	1662,95
285,09	1677,29
285,31	1796,07
285,52	1724,39
285,74	1634,28
285,95	1771,49
286,17	1697,77
286,38	1779,68
286,60	1656,81
286,81	1652,71
287,03	1755,11
287,24	1744,87
287,46	1751,01
287,67	1761,25
287,89	1841,12
288,10	1654,76
288,32	1761,25
288,53	1767,40
288,75	1722,34
288,96	1728,49
289,18	1652,71
289,39	1656,81
289,61	1832,93
289,82	1826,79
290,04	1873,89
290,25	1652,71
290,47	1695,72
290,68	1710,05
290,90	1697,77
291,11	1628,14
291,33	1693,67
291,54	1677,29
291,76	1652,71
291,97	1730,53
292,18	1685,48
292,40	1675,24
292,61	1728,49
292,83	1853,41
293,04	1691,62
293,26	1761,25
293,47	1779,68
293,69	1660,90
293,90	1748,97
294,12	1744,87
294,33	1695,72
294,55	1751,01
294,76	1744,87
294,97	1785,83
295,19	1822,69
295,40	1691,62
295,62	1681,38
295,83	1800,16
296,05	1611,75
296,26	1738,73
296,48	1720,29
296,69	1667,05
296,90	1617,90
297,12	1765,35
297,33	1804,26
297,55	1800,16
297,76	1810,40
297,98	1781,73
298,19	1646,57
298,41	1703,91
298,62	1703,91
298,83	1800,16
299,05	1718,25
299,26	1771,49
299,48	1632,23
299,69	1761,25
299,90	1720,29
300,12	1738,73
300,33	1755,11
300,55	1761,25
300,76	1738,73
300,98	1689,57
301,19	1736,68
301,40	1742,82
301,62	1732,58
301,83	1755,11
302,05	1748,97
302,26	1681,38
302,47	1755,11
302,69	1644,52
302,90	1812,45
303,12	1552,36
303,33	1814,50
303,54	1816,55
303,76	1648,61
303,97	1703,91
304,19	1818,60
304,40	1738,73
304,61	1755,11
304,83	1775,59
305,04	1763,30
305,26	1757,16
305,47	1757,16
305,68	1646,57
305,90	1675,24
306,11	1824,74
306,33	1701,86
306,54	1726,44
306,75	1628,14
306,97	1701,86
307,18	1685,48
307,39	1720,29
307,61	1804,26
307,82	1691,62
308,04	1712,10
308,25	1761,25
308,46	1742,82
308,68	1685,48
308,89	1740,77
309,10	1755,11
309,32	1689,57
309,53	1722,34
309,74	1771,49
309,96	1734,63
310,17	1802,21
310,39	1669,09
310,60	1703,91
310,81	1755,11
311,03	1611,75
311,24	1810,40
311,45	1681,38
311,67	1798,12
311,88	1705,96
312,09	1632,23
312,31	1697,77
312,52	1761,25
312,73	1675,24
312,95	1714,15
313,16	1578,98
313,37	1757,16
313,59	1775,59
313,80	1798,12
314,01	1789,92
314,23	1626,09
314,44	1648,61
314,65	1671,14
314,87	1718,25
315,08	1705,96
315,29	1722,34
315,51	1728,49
315,72	1660,90
315,93	1937,38
316,15	1722,34
316,36	1683,43
316,57	1728,49
316,79	1718,25
317,00	1669,09
317,21	1748,97
317,43	1660,90
317,64	1781,73
317,85	1687,53
318,07	1689,57
318,28	1679,33
318,49	1853,41
318,70	1888,23
318,92	1814,50
319,13	1830,88
319,34	1888,23
319,56	1859,56
319,77	1787,88
319,98	1843,17
320,20	1806,31
320,41	1730,53
320,62	1798,12
320,83	1640,42
321,05	1886,18
321,26	1730,53
321,47	1681,38
321,69	1871,84
321,90	1703,91
322,11	1726,44
322,32	1736,68
322,54	1857,51
322,75	1732,58
322,96	1880,04
323,18	1603,56
323,39	1621,99
323,60	1685,48
323,81	1839,08
324,03	1697,77
324,24	1730,53
324,45	1687,53
324,66	1624,04
324,88	1816,55
325,09	1826,79
325,30	1728,49
325,52	1701,86
325,73	1789,92
325,94	1710,05
326,15	1642,47
326,37	1638,38
326,58	1880,04
326,79	1853,41
327,00	1677,29
327,22	1771,49
327,43	1712,10
327,64	1652,71
327,85	1824,74
328,07	1640,42
328,28	1785,83
328,49	1691,62
328,70	1730,53
328,92	1771,49
329,13	1703,91
329,34	1714,15
329,55	1779,68
329,76	1757,16
329,98	1654,76
330,19	1773,54
330,40	1742,82
330,61	1728,49
330,83	1771,49
331,04	1693,67
331,25	1683,43
331,46	1710,05
331,68	1683,43
331,89	1849,32
332,10	1703,91
332,31	1621,99
332,52	1642,47
332,74	1783,78
332,95	1705,96
333,16	1695,72
333,37	1759,21
333,58	1693,67
333,80	1744,87
334,01	1591,27
334,22	1695,72
334,43	1660,90
334,64	1677,29
334,86	1583,08
335,07	1621,99
335,28	1794,02
335,49	1734,63
335,70	1714,15
335,92	1746,92
336,13	1789,92
336,34	1746,92
336,55	1753,06
336,76	1742,82
336,98	1603,56
337,19	1677,29
337,40	1824,74
337,61	1796,07
337,82	1660,90
338,04	1794,02
338,25	1648,61
338,46	1791,97
338,67	1714,15
338,88	1699,81
339,09	1642,47
339,31	1697,77
339,52	1638,38
339,73	1615,85
339,94	1705,96
340,15	1775,59
340,36	1691,62
340,58	1722,34
340,79	1675,24
341,00	1748,97
341,21	1652,71
341,42	1802,21
341,63	1755,11
341,85	1787,88
342,06	1716,20
342,27	1597,42
342,48	1853,41
342,69	1626,09
342,90	1767,40
343,12	1746,92
343,33	1744,87
343,54	1716,20
343,75	1789,92
343,96	1673,19
344,17	1712,10
344,38	1705,96
344,60	1720,29
344,81	1638,38
345,02	1734,63
345,23	1767,40
345,44	1791,97
345,65	1869,80
345,86	1783,78
346,07	1699,81
346,29	1636,33
346,50	1812,45
346,71	1753,06
346,92	1820,64
347,13	1777,64
347,34	1722,34
347,55	1648,61
347,76	1757,16
347,98	1646,57
348,19	1650,66
348,40	1734,63
348,61	1718,25
348,82	1820,64
349,03	1789,92
349,24	1773,54
349,45	1859,56
349,66	1669,09
349,88	1708,01
350,09	1652,71
350,30	1771,49
350,51	1812,45
350,72	1654,76
350,93	1730,53
351,14	1714,15
351,35	1798,12
351,56	1767,40
351,77	1701,86
351,99	1767,40
352,20	1828,84
352,41	1816,55
352,62	1660,90
352,83	1716,20
353,04	1787,88
353,25	1681,38
353,46	1834,98
353,67	1832,93
353,88	1621,99
354,09	1716,20
354,30	1734,63
354,52	1755,11
354,73	1646,57
354,94	1712,10
355,15	1662,95
355,36	1791,97
355,57	1675,24
355,78	1753,06
355,99	1751,01
356,20	1722,34
356,41	1796,07
356,62	1769,44
356,83	1740,77
357,04	1796,07
357,25	1589,22
357,46	1732,58
357,68	1667,05
357,89	1636,33
358,10	1714,15
358,31	1716,20
358,52	1679,33
358,73	1718,25
358,94	1701,86
359,15	1757,16
359,36	1781,73
359,57	1654,76
359,78	1687,53
359,99	1740,77
360,20	1640,42
360,41	1751,01
360,62	1843,17
360,83	1736,68
361,04	1689,57
361,25	1738,73
361,46	1824,74
361,67	1753,06
361,88	1746,92
362,09	1738,73
362,30	1732,58
362,51	1675,24
362,72	1691,62
362,93	1785,83
363,14	1730,53
363,35	1748,97
363,56	1689,57
363,78	1775,59
363,99	1816,55
364,20	1648,61
364,41	1730,53
364,62	1798,12
364,83	1744,87
365,04	1730,53
365,25	1695,72
365,46	1755,11
365,67	1708,01
365,88	1648,61
366,09	1769,44
366,30	1662,95
366,51	1791,97
366,72	1693,67
366,93	1724,39
367,14	1710,05
367,35	1798,12
367,56	1703,91
367,77	1808,36
367,98	1701,86
368,18	1785,83
368,39	1742,82
368,60	1624,04
368,81	1755,11
369,02	1791,97
369,23	1740,77
369,44	1689,57
369,65	1638,38
369,86	1736,68
370,07	1734,63
370,28	1714,15
370,49	1693,67
370,70	1724,39
370,91	1699,81
371,12	1685,48
371,33	1761,25
371,54	1763,30
371,75	1865,70
371,96	1626,09
372,17	1658,85
372,38	1679,33
372,59	1712,10
372,80	1701,86
373,01	1685,48
373,22	1720,29
373,43	1810,40
373,64	1669,09
373,85	1746,92
374,06	1847,27
374,26	1753,06
374,47	1748,97
374,68	1832,93
374,89	1759,21
375,10	1734,63
375,31	1822,69
375,52	1619,94
375,73	1789,92
375,94	1708,01
376,15	1796,07
376,36	1796,07
376,57	1662,95
376,78	1720,29
376,99	1687,53
377,20	1791,97
377,40	1648,61
377,61	1902,56
377,82	1691,62
378,03	1748,97
378,24	1806,31
378,45	1665,00
378,66	1828,84
378,87	1605,61
379,08	1705,96
379,29	1767,40
379,50	1755,11
379,71	1693,67
379,91	1812,45
380,12	1742,82
380,33	1732,58
380,54	1705,96
380,75	1691,62
380,96	1710,05
381,17	1720,29
381,38	1843,17
381,59	1769,44
381,80	1689,57
382,00	1824,74
382,21	1673,19
382,42	1900,52
382,63	1851,36
382,84	1697,77
383,05	1787,88
383,26	1877,99
383,47	1701,86
383,68	1714,15
383,88	1767,40
384,09	1800,16
384,30	1787,88
384,51	1757,16
384,72	1740,77
384,93	1748,97
385,14	1710,05
385,35	1839,08
385,55	1689,57
385,76	1777,64
385,97	1673,19
386,18	1695,72
386,39	1675,24
386,60	1732,58
386,81	1822,69
387,02	1648,61
387,22	1640,42
387,43	1853,41
387,64	1808,36
387,85	1845,22
388,06	2209,76
388,27	4163,52
388,48	6774,68
388,68	7919,50
388,89	9533,29
389,10	9611,12
389,31	8347,52
389,52	7475,09
389,73	6502,30
389,93	6240,16
390,14	5904,29
390,35	5078,96
390,56	4542,39
390,77	3805,13
390,98	3100,62
391,18	2435,03
391,39	2142,18
391,60	1871,84
391,81	1890,28
392,02	1736,68
392,23	1861,60
392,43	1773,54
392,64	1865,70
392,85	1751,01
393,06	1859,56
393,27	1736,68
393,47	1740,77
393,68	1779,68
393,89	1763,30
394,10	1800,16
394,31	1644,52
394,52	1617,90
394,72	1675,24
394,93	1824,74
395,14	1638,38
395,35	1771,49
395,56	1660,90
395,76	1742,82
395,97	1785,83
396,18	1929,19
396,39	1849,32
396,60	2002,91
396,80	1877,99
397,01	1861,60
397,22	1912,80
397,43	1869,80
397,64	1748,97
397,84	1853,41
398,05	1857,51
398,26	1839,08
398,47	1753,06
398,67	1730,53
398,88	1806,31
399,09	1753,06
399,30	1656,81
399,51	1763,30
399,71	1734,63
399,92	1683,43
400,13	1738,73
400,34	1654,76
400,54	1675,24
400,75	1832,93
400,96	1732,58
401,17	1818,60
401,37	1759,21
401,58	1691,62
401,79	1767,40
402,00	1941,47
402,21	1939,43
402,41	2007,01
402,62	2064,35
402,83	1970,15
403,04	1927,14
403,24	2099,17
403,45	1923,04
403,66	1976,29
403,87	1894,37
404,07	1888,23
404,28	1849,32
404,49	1841,12
404,70	1800,16
404,90	1796,07
405,11	1834,98
405,32	1802,21
405,52	1679,33
405,73	1675,24
405,94	1679,33
406,15	1699,81
406,35	1775,59
406,56	1755,11
406,77	1677,29
406,98	1796,07
407,18	1658,85
407,39	1812,45
407,60	1656,81
407,80	1765,35
408,01	1687,53
408,22	1769,44
408,43	1650,66
408,63	1828,84
408,84	1720,29
409,05	1730,53
409,25	1712,10
409,46	1748,97
409,67	1697,77
409,88	1677,29
410,08	1746,92
410,29	1728,49
410,50	1769,44
410,70	1730,53
410,91	1675,24
411,12	1732,58
411,32	1738,73
411,53	1693,67
411,74	1853,41
411,95	1828,84
412,15	1779,68
412,36	1808,36
412,57	1777,64
412,77	1783,78
412,98	1710,05
413,19	1703,91
413,39	1701,86
413,60	1777,64
413,81	1834,98
414,01	1708,01
414,22	1679,33
414,43	1794,02
414,63	1716,20
414,84	1771,49
415,05	1763,30
415,25	1617,90
415,46	1732,58
415,67	1701,86
415,87	1705,96
416,08	1746,92
416,29	1726,44
416,49	1830,88
416,70	1662,95
416,91	1679,33
417,11	1667,05
417,32	1785,83
417,53	1757,16
417,73	1771,49
417,94	1703,91
418,15	1695,72
418,35	1824,74
418,56	1691,62
418,77	1863,65
418,97	1779,68
419,18	1654,76
419,38	1562,60
419,59	1697,77
419,80	1775,59
420,00	1710,05
420,21	1683,43
420,42	1789,92
420,62	1755,11
420,83	1701,86
421,04	1751,01
421,24	1722,34
421,45	1746,92
421,65	1736,68
421,86	1712,10
422,07	1742,82
422,27	1724,39
422,48	1708,01
422,69	1660,90
422,89	1726,44
423,10	1824,74
423,30	1677,29
423,51	1718,25
423,72	1734,63
423,92	1671,14
424,13	1699,81
424,33	1779,68
424,54	1800,16
424,75	1730,53
424,95	1873,89
425,16	1738,73
425,36	1685,48
425,57	1734,63
425,78	1845,22
425,98	1693,67
426,19	1712,10
426,39	1667,05
426,60	1716,20
426,81	1755,11
427,01	1736,68
427,22	1714,15
427,42	1648,61
427,63	1703,91
427,83	1796,07
428,04	1822,69
428,25	1806,31
428,45	1806,31
428,66	1804,26
428,86	1730,53
429,07	1736,68
429,28	1730,53
429,48	1720,29
429,69	1681,38
429,89	1755,11
430,10	1611,75
430,30	1810,40
430,51	1755,11
430,71	1697,77
430,92	1714,15
431,13	1712,10
431,33	1705,96
431,54	1746,92
431,74	1810,40
431,95	1845,22
432,15	1619,94
432,36	1783,78
432,56	1785,83
432,77	1877,99
432,98	1939,43
433,18	1789,92
433,39	1667,05
433,59	1687,53
433,80	1847,27
434,00	1855,46
434,21	1669,09
434,41	1705,96
434,62	1843,17
434,82	1662,95
435,03	1601,51
435,23	1800,16
435,44	1638,38
435,64	1732,58
435,85	1787,88
436,06	1839,08
436,26	1732,58
436,47	1703,91
436,67	1685,48
436,88	1716,20
437,08	1755,11
437,29	1810,40
437,49	1773,54
437,70	1759,21
437,90	1755,11
438,11	1923,04
438,31	1820,64
438,52	1787,88
438,72	1880,04
438,93	1918,95
439,13	1818,60
439,34	1841,12
439,54	1849,32
439,75	1828,84
439,95	1816,55
440,16	1732,58
440,36	1824,74
440,57	1708,01
440,77	1779,68
440,98	1744,87
441,18	1685,48
441,39	1779,68
441,59	1656,81
441,80	1849,32
442,00	1777,64
442,21	1839,08
442,41	1634,28
442,62	1824,74
442,82	1740,77
443,02	1734,63
443,23	1763,30
443,43	1742,82
443,64	1830,88
443,84	1740,77
444,05	1828,84
444,25	1785,83
444,46	1734,63
444,66	1695,72
444,87	1861,60
445,07	1789,92
445,28	1740,77
445,48	1943,52
445,69	1740,77
445,89	1865,70
446,09	1796,07
446,30	2123,74
446,50	2693,08
446,71	3794,89
446,91	4272,06
447,12	4603,83
447,32	4859,83
447,53	4288,45
447,73	3968,96
447,93	3469,26
448,14	3246,03
448,34	3200,98
448,55	2971,60
448,75	2809,81
448,96	2598,87
449,16	2445,27
449,36	2252,77
449,57	2097,12
449,77	1894,37
449,98	1820,64
450,18	1779,68
450,39	1787,88
450,59	1722,34
450,79	1738,73
451,00	1716,20
451,20	1773,54
451,41	1671,14
451,61	1787,88
451,81	1771,49
452,02	1779,68
452,22	1716,20
452,43	1693,67
452,63	1734,63
452,84	1796,07
453,04	1800,16
453,24	1791,97
453,45	1710,05
453,65	1794,02
453,86	1810,40
454,06	1736,68
454,26	1708,01
454,47	1714,15
454,67	1832,93
454,87	1779,68
455,08	1755,11
455,28	1830,88
455,49	1763,30
455,69	1783,78
455,89	1886,18
456,10	1804,26
456,30	1757,16
456,51	1781,73
456,71	1755,11
456,91	1863,65
457,12	1732,58
457,32	1708,01
457,52	1621,99
457,73	1804,26
457,93	1812,45
458,14	1685,48
458,34	1677,29
458,54	1697,77
458,75	1644,52
458,95	1800,16
459,15	1824,74
459,36	1757,16
459,56	1785,83
459,76	1800,16
459,97	1767,40
460,17	1712,10
460,37	1789,92
460,58	1812,45
460,78	1820,64
460,99	1662,95
461,19	1781,73
461,39	1671,14
461,60	1697,77
461,80	1789,92
462,00	1636,33
462,21	1683,43
462,41	1701,86
462,61	1738,73
462,82	1673,19
463,02	1761,25
463,22	1789,92
463,43	1773,54
463,63	1751,01
463,83	1808,36
464,04	1767,40
464,24	1767,40
464,44	1689,57
464,64	1738,73
464,85	1785,83
465,05	1851,36
465,25	1775,59
465,46	1703,91
465,66	1796,07
465,86	1710,05
466,07	1796,07
466,27	1714,15
466,47	1613,80
466,68	1730,53
466,88	1830,88
467,08	1777,64
467,29	1773,54
467,49	1773,54
467,69	1677,29
467,89	1808,36
468,10	1662,95
468,30	1732,58
468,50	1765,35
468,71	1828,84
468,91	1601,51
469,11	1894,37
469,31	1781,73
469,52	1648,61
469,72	1820,64
469,92	1837,03
470,13	1767,40
470,33	1730,53
470,53	1851,36
470,73	2097,12
470,94	2367,45
471,14	2340,83
471,34	2490,33
471,54	2473,95
471,75	2275,29
471,95	2230,24
472,15	2095,07
472,36	2074,59
472,56	2056,16
472,76	2060,26
472,96	2052,06
473,17	1984,48
473,37	1964,00
473,57	1822,69
473,77	1822,69
473,98	1767,40
474,18	1757,16
474,38	1898,47
474,58	1755,11
474,79	1730,53
474,99	1724,39
475,19	1783,78
475,39	1654,76
475,60	1681,38
475,80	1781,73
476,00	1763,30
476,20	1699,81
476,41	1773,54
476,61	1867,75
476,81	1779,68
477,01	1724,39
477,21	1812,45
477,42	1783,78
477,62	1714,15
477,82	1701,86
478,02	1681,38
478,23	1726,44
478,43	1679,33
478,63	1683,43
478,83	1714,15
479,03	1734,63
479,24	1802,21
479,44	1869,80
479,64	1714,15
479,84	1648,61
480,04	1779,68
480,25	1857,51
480,45	1701,86
480,65	1732,58
480,85	1816,55
481,06	1693,67
481,26	1820,64
481,46	1753,06
481,66	1777,64
481,86	1669,09
482,06	1824,74
482,27	1734,63
482,47	1640,42
482,67	1779,68
482,87	1763,30
483,07	1802,21
483,28	1677,29
483,48	1617,90
483,68	1699,81
483,88	1665,00
484,08	1591,27
484,29	1624,04
484,49	1812,45
484,69	1581,03
484,89	1820,64
485,09	1783,78
485,29	1738,73
485,50	1718,25
485,70	1722,34
485,90	1783,78
486,10	1775,59
486,30	1806,31
486,50	1892,32
486,71	1732,58
486,91	1853,41
487,11	1808,36
487,31	1634,28
487,51	1665,00
487,71	1642,47
487,91	1601,51
488,12	1648,61
488,32	1636,33
488,52	1693,67
488,72	1634,28
488,92	1738,73
489,12	1796,07
489,32	1736,68
489,53	1755,11
489,73	1624,04
489,93	1839,08
490,13	1593,32
490,33	1689,57
490,53	1705,96
490,73	1785,83
490,94	1695,72
491,14	1812,45
491,34	1910,75
491,54	2205,66
491,74	2488,28
491,94	2949,08
492,14	3051,47
492,34	2992,08
492,54	2787,29
492,75	2467,80
492,95	2533,34
493,15	2330,59
493,35	2322,40
493,55	2166,75
493,75	2187,23
493,95	2158,56
494,15	2115,55
494,35	1923,04
494,56	1918,95
494,76	1886,18
494,96	1837,03
495,16	1839,08
495,36	1769,44
495,56	1810,40
495,76	1740,77
495,96	1763,30
496,16	1699,81
496,36	1834,98
496,56	1669,09
496,77	1796,07
496,97	1665,00
497,17	1775,59
497,37	1665,00
497,57	1810,40
497,77	1769,44
497,97	1738,73
498,17	1742,82
498,37	1751,01
498,57	1814,50
498,77	1785,83
498,97	1806,31
499,17	1886,18
499,38	1771,49
499,58	1875,94
499,78	1832,93
499,98	1800,16
500,18	1761,25
500,38	1720,29
500,58	1890,28
500,78	2549,72
500,98	4431,80
501,18	5881,77
501,38	6750,10
501,58	7047,06
501,78	6645,66
501,98	5525,42
502,18	5025,72
502,38	4388,80
502,58	4159,42
502,78	3780,55
502,98	3608,52
503,18	3434,44
503,38	3170,26
503,59	2781,14
503,79	2699,22
503,99	2486,23
504,19	2324,44
504,39	2176,99
504,59	2228,19
504,79	2142,18
504,99	2103,26
505,19	1986,53
505,39	1920,99
505,59	2019,30
505,79	1923,04
505,99	1964,00
506,19	1744,87
506,39	1920,99
506,59	1818,60
506,79	1812,45
506,99	1849,32
507,19	1837,03
507,39	1785,83
507,59	1673,19
507,79	1673,19
507,99	1763,30
508,19	1675,24
508,39	1761,25
508,59	1695,72
508,79	1798,12
508,99	1859,56
509,19	1685,48
509,39	1830,88
509,59	1685,48
509,79	1724,39
509,99	1742,82
510,19	1794,02
510,39	1798,12
510,59	1746,92
510,79	1728,49
510,99	1665,00
511,19	1673,19
511,39	1765,35
511,59	1798,12
511,79	1796,07
511,99	1730,53
512,19	1843,17
512,38	1740,77
512,58	1681,38
512,78	1804,26
512,98	1837,03
513,18	1859,56
513,38	1609,70
513,58	1796,07
513,78	1718,25
513,98	1828,84
514,18	1769,44
514,38	1724,39
514,58	1763,30
514,78	1701,86
514,98	1705,96
515,18	1794,02
515,38	1679,33
515,58	1794,02
515,78	1740,77
515,98	1742,82
516,18	1847,27
516,38	1800,16
516,57	1732,58
516,77	1769,44
516,97	1728,49
517,17	1751,01
517,37	1648,61
517,57	1742,82
517,77	1761,25
517,97	1685,48
518,17	1814,50
518,37	1630,18
518,57	1720,29
518,77	1765,35
518,97	1716,20
519,16	1796,07
519,36	1810,40
519,56	1755,11
519,76	1695,72
519,96	1798,12
520,16	1837,03
520,36	1687,53
520,56	1877,99
520,76	1697,77
520,96	1761,25
521,16	1808,36
521,35	1767,40
521,55	1888,23
521,75	1730,53
521,95	1734,63
522,15	1787,88
522,35	1619,94
522,55	1699,81
522,75	1781,73
522,95	1681,38
523,14	1687,53
523,34	1767,40
523,54	1800,16
523,74	1830,88
523,94	1689,57
524,14	1695,72
524,34	1751,01
524,54	1839,08
524,73	1746,92
524,93	1800,16
525,13	1767,40
525,33	1712,10
525,53	1849,32
525,73	1837,03
525,93	1748,97
526,13	1736,68
526,32	1751,01
526,52	1820,64
526,72	1779,68
526,92	1744,87
527,12	1771,49
527,32	1646,57
527,52	1761,25
527,71	1693,67
527,91	1794,02
528,11	1763,30
528,31	1712,10
528,51	1658,85
528,71	1787,88
528,90	1802,21
529,10	1767,40
529,30	1843,17
529,50	1675,24
529,70	1691,62
529,90	1757,16
530,09	1777,64
530,29	1697,77
530,49	1689,57
530,69	1888,23
530,89	1708,01
531,09	1765,35
531,28	1726,44
531,48	1787,88
531,68	1751,01
531,88	1763,30
532,08	1779,68
532,28	1751,01
532,47	1867,75
532,67	1832,93
532,87	1894,37
533,07	1701,86
533,27	1753,06
533,46	1787,88
533,66	1785,83
533,86	1759,21
534,06	1720,29
534,26	1753,06
534,45	1712,10
534,65	1880,04
534,85	1748,97
535,05	1691,62
535,25	1832,93
535,44	1712,10
535,64	1759,21
535,84	1691,62
536,04	1722,34
536,24	1681,38
536,43	1705,96
536,63	1824,74
536,83	1740,77
537,03	1697,77
537,22	1642,47
537,42	1587,18
537,62	1837,03
537,82	1718,25
538,02	1798,12
538,21	1830,88
538,41	1933,28
538,61	1812,45
538,81	1716,20
539,00	1830,88
539,20	1722,34
539,40	1734,63
539,60	1748,97
539,79	1787,88
539,99	1650,66
540,19	1705,96
540,39	1728,49
540,58	1683,43
540,78	1808,36
540,98	1771,49
541,18	1777,64
541,37	1730,53
541,57	1781,73
541,77	1656,81
541,97	1724,39
542,16	1751,01
542,36	1724,39
542,56	1746,92
542,76	1910,75
542,95	1789,92
543,15	1738,73
543,35	1806,31
543,54	1714,15
543,74	1738,73
543,94	1855,46
544,14	1652,71
544,33	1761,25
544,53	1740,77
544,73	1691,62
544,93	1675,24
545,12	1748,97
545,32	1740,77
545,52	1744,87
545,71	1695,72
545,91	1728,49
546,11	1785,83
546,30	1644,52
546,50	1742,82
546,70	1759,21
546,90	1748,97
547,09	1626,09
547,29	1806,31
547,49	1810,40
547,68	1775,59
547,88	1714,15
548,08	1839,08
548,27	2201,57
548,47	1759,21
548,67	1738,73
548,87	1765,35
549,06	1660,90
549,26	1824,74
549,46	1751,01
549,65	1591,27
549,85	1734,63
550,05	1777,64
550,24	1718,25
550,44	1728,49
550,64	1771,49
550,83	1701,86
551,03	1765,35
551,23	1839,08
551,42	1746,92
551,62	1742,82
551,82	1771,49
552,01	1683,43
552,21	1869,80
552,41	1720,29
552,60	1849,32
552,80	1810,40
553,00	1746,92
553,19	1746,92
553,39	1775,59
553,59	1773,54
553,78	1759,21
553,98	1789,92
554,17	1728,49
554,37	1708,01
554,57	1789,92
554,76	1701,86
554,96	1755,11
555,16	1748,97
555,35	1783,78
555,55	1787,88
555,75	1761,25
555,94	1753,06
556,14	1722,34
556,33	1796,07
556,53	1718,25
556,73	1816,55
556,92	1814,50
557,12	1847,27
557,32	1925,09
557,51	1828,84
557,71	1787,88
557,90	1798,12
558,10	1843,17
558,30	1714,15
558,49	1724,39
558,69	1757,16
558,88	1785,83
559,08	1757,16
559,28	1818,60
559,47	1800,16
559,67	1834,98
559,86	1861,60
560,06	1736,68
560,26	1738,73
560,45	1738,73
560,65	1744,87
560,84	1812,45
561,04	1687,53
561,24	1783,78
561,43	1675,24
561,63	1794,02
561,82	1820,64
562,02	1816,55
562,22	1763,30
562,41	1712,10
562,61	1769,44
562,80	1697,77
563,00	1826,79
563,19	1730,53
563,39	1880,04
563,59	1734,63
563,78	1742,82
563,98	1628,14
564,17	1724,39
564,37	1656,81
564,56	1812,45
564,76	1697,77
564,96	1837,03
565,15	1787,88
565,35	1888,23
565,54	1742,82
565,74	1812,45
565,93	1724,39
566,13	1716,20
566,32	1761,25
566,52	1771,49
566,71	1800,16
566,91	1781,73
567,11	1757,16
567,30	1767,40
567,50	1759,21
567,69	1765,35
567,89	1769,44
568,08	1746,92
568,28	1789,92
568,47	1708,01
568,67	1730,53
568,86	1685,48
569,06	1785,83
569,25	1734,63
569,45	1621,99
569,64	1673,19
569,84	1679,33
570,04	1722,34
570,23	1755,11
570,43	1703,91
570,62	1791,97
570,82	1857,51
571,01	1712,10
571,21	1681,38
571,40	1744,87
571,60	1857,51
571,79	1746,92
571,99	1714,15
572,18	1726,44
572,38	1804,26
572,57	1705,96
572,77	1863,65
572,96	1929,19
573,16	1763,30
573,35	1691,62
573,55	1898,47
573,74	1841,12
573,94	1767,40
574,13	1746,92
574,33	1724,39
574,52	1834,98
574,71	1703,91
574,91	1771,49
575,10	1699,81
575,30	1710,05
575,49	1681,38
575,69	1728,49
575,88	1724,39
576,08	1710,05
576,27	1828,84
576,47	1695,72
576,66	1748,97
576,86	1779,68
577,05	1767,40
577,25	1834,98
577,44	1910,75
577,64	1714,15
577,83	1841,12
578,02	1751,01
578,22	1837,03
578,41	1859,56
578,61	1746,92
578,80	1671,14
579,00	1773,54
579,19	1759,21
579,39	1830,88
579,58	1785,83
579,77	1812,45
579,97	1791,97
580,16	1787,88
580,36	1855,46
580,55	1837,03
580,75	1732,58
580,94	1755,11
581,13	1904,61
581,33	1826,79
581,52	1816,55
581,72	1918,95
581,91	1871,84
582,11	1714,15
582,30	1820,64
582,49	1814,50
582,69	1791,97
582,88	1789,92
583,08	1832,93
583,27	1806,31
583,47	1802,21
583,66	1755,11
583,85	1753,06
584,05	1689,57
584,24	1771,49
584,44	1804,26
584,63	1882,08
584,82	1867,75
585,02	1857,51
585,21	1861,60
585,41	1871,84
585,60	1816,55
585,79	1896,42
585,99	2013,15
586,18	1904,61
586,37	2181,09
586,57	3469,26
586,76	9596,78
586,96	24090,26
587,15	34096,63
587,34	39634,34
587,54	41624,96
587,73	35855,84
587,93	25814,65
588,12	21227,20
588,31	17794,80
588,51	16039,69
588,70	14929,69
588,89	13944,62
589,09	12275,52
589,28	10684,25
589,47	9197,43
589,67	7901,06
589,86	6463,39
590,06	4919,22
590,25	3942,34
590,44	3104,72
590,64	2531,29
590,83	2234,33
591,02	2068,45
591,22	1943,52
591,41	1923,04
591,60	1787,88
591,80	1920,99
591,99	1800,16
592,18	1800,16
592,38	1855,46
592,57	1738,73
592,76	1808,36
592,96	1767,40
593,15	1771,49
593,34	1818,60
593,54	1791,97
593,73	1882,08
593,92	1798,12
594,12	1769,44
594,31	1810,40
594,50	1877,99
594,70	1734,63
594,89	1867,75
595,08	1671,14
595,28	1787,88
595,47	1957,86
595,66	1771,49
595,86	1677,29
596,05	1767,40
596,24	1837,03
596,43	1859,56
596,63	1894,37
596,82	1779,68
597,01	1779,68
597,21	1828,84
597,40	1757,16
597,59	1806,31
597,79	1744,87
597,98	1771,49
598,17	1808,36
598,36	1779,68
598,56	1798,12
598,75	1691,62
598,94	1775,59
599,14	1865,70
599,33	1822,69
599,52	1824,74
599,71	1761,25
599,91	1837,03
600,10	1800,16
600,29	1834,98
600,48	1798,12
600,68	1771,49
600,87	1730,53
601,06	1689,57
601,26	1794,02
601,45	1775,59
601,64	1705,96
601,83	1873,89
602,03	1779,68
602,22	1720,29
602,41	1777,64
602,60	1910,75
602,80	1748,97
602,99	1834,98
603,18	1732,58
603,37	1691,62
603,57	1759,21
603,76	1783,78
603,95	1779,68
604,14	1703,91
604,34	1726,44
604,53	1742,82
604,72	1779,68
604,91	1789,92
605,10	1763,30
605,30	1800,16
605,49	1843,17
605,68	1728,49
605,87	1841,12
606,07	1615,85
606,26	1763,30
606,45	1820,64
606,64	1798,12
606,84	1730,53
607,03	1699,81
607,22	1794,02
607,41	1728,49
607,60	1775,59
607,80	1763,30
607,99	1746,92
608,18	1800,16
608,37	1722,34
608,56	1665,00
608,76	1771,49
608,95	1822,69
609,14	1822,69
609,33	1828,84
609,52	1804,26
609,72	1767,40
609,91	1814,50
610,10	1802,21
610,29	1841,12
610,48	1902,56
610,68	1794,02
610,87	1691,62
611,06	1783,78
611,25	1806,31
611,44	1812,45
611,63	1724,39
611,83	1800,16
612,02	1683,43
612,21	1886,18
612,40	1611,75
612,59	1773,54
612,79	1628,14
612,98	1726,44
613,17	1808,36
613,36	1724,39
613,55	1800,16
613,74	1712,10
613,93	1730,53
614,13	1705,96
614,32	1763,30
614,51	1834,98
614,70	1765,35
614,89	1744,87
615,08	1787,88
615,28	2097,12
615,47	1732,58
615,66	1746,92
615,85	1814,50
616,04	1869,80
616,23	1748,97
616,42	1742,82
616,62	1763,30
616,81	1744,87
617,00	1765,35
617,19	1802,21
617,38	1683,43
617,57	1787,88
617,76	1708,01
617,95	1779,68
618,15	1763,30
618,34	1900,52
618,53	1695,72
618,72	1763,30
618,91	1816,55
619,10	1896,42
619,29	1746,92
619,48	1689,57
619,68	1628,14
619,87	1742,82
620,06	1638,38
620,25	1763,30
620,44	1728,49
620,63	1828,84
620,82	1746,92
621,01	1839,08
621,20	1767,40
621,39	1738,73
621,59	1726,44
621,78	1705,96
621,97	1724,39
622,16	1718,25
622,35	1734,63
622,54	1859,56
622,73	1832,93
622,92	1703,91
623,11	1783,78
623,30	1761,25
623,49	1853,41
623,68	1746,92
623,88	1808,36
624,07	1734,63
624,26	1738,73
624,45	1710,05
624,64	1658,85
624,83	1783,78
625,02	1703,91
625,21	1701,86
625,40	1714,15
625,59	1865,70
625,78	1701,86
625,97	1755,11
626,16	1789,92
626,35	1718,25
626,54	1679,33
626,74	1849,32
626,93	1746,92
627,12	1660,90
627,31	1734,63
627,50	1808,36
627,69	1812,45
627,88	1681,38
628,07	1693,67
628,26	1648,61
628,45	1689,57
628,64	1689,57
628,83	1773,54
629,02	1720,29
629,21	1742,82
629,40	1773,54
629,59	1660,90
629,78	1812,45
629,97	1763,30
630,16	1736,68
630,35	1699,81
630,54	1720,29
630,73	1781,73
630,92	1730,53
631,11	1763,30
631,30	1757,16
631,49	1763,30
631,68	1742,82
631,87	1728,49
632,06	1685,48
632,25	1906,66
632,44	1687,53
632,63	1710,05
632,82	1681,38
633,01	1646,57
633,20	1755,11
633,39	1679,33
633,58	1652,71
633,77	1642,47
633,96	1697,77
634,15	1734,63
634,34	1767,40
634,53	1757,16
634,72	1681,38
634,91	1683,43
635,10	1751,01
635,29	1800,16
635,48	1769,44
635,67	1652,71
635,86	1712,10
636,05	1822,69
636,24	1742,82
636,43	1822,69
636,62	1726,44
636,81	1613,80
637,00	1789,92
637,19	1785,83
637,38	1730,53
637,57	1656,81
637,76	1724,39
637,95	1757,16
638,14	1708,01
638,33	1740,77
638,52	1734,63
638,71	1566,70
638,89	1656,81
639,08	1824,74
639,27	1742,82
639,46	1679,33
639,65	1748,97
639,84	1810,40
640,03	1773,54
640,22	1720,29
640,41	1841,12
640,60	1687,53
640,79	1800,16
640,98	1771,49
641,17	1701,86
641,36	1783,78
641,55	1751,01
641,74	1687,53
641,92	1642,47
642,11	1699,81
642,30	1705,96
642,49	1738,73
642,68	1738,73
642,87	1773,54
643,06	1689,57
643,25	1705,96
643,44	1755,11
643,63	1714,15
643,82	1726,44
644,00	1763,30
644,19	1724,39
644,38	1671,14
644,57	1816,55
644,76	1843,17
644,95	1746,92
645,14	1808,36
645,33	1720,29
645,52	1613,80
645,71	1675,24
645,89	1644,52
646,08	1683,43
646,27	1726,44
646,46	1861,60
646,65	1679,33
646,84	1820,64
647,03	1650,66
647,22	1779,68
647,40	1742,82
647,59	1648,61
647,78	1685,48
647,97	1687,53
648,16	1695,72
648,35	1763,30
648,54	1857,51
648,73	1746,92
648,91	1753,06
649,10	1814,50
649,29	1687,53
649,48	1689,57
649,67	1734,63
649,86	1703,91
650,05	1722,34
650,23	1828,84
650,42	1699,81
650,61	1755,11
650,80	1789,92
650,99	1859,56
651,18	1742,82
651,36	1726,44
651,55	1738,73
651,74	1738,73
651,93	1781,73
652,12	1701,86
652,31	1757,16
652,49	1667,05
652,68	1714,15
652,87	1744,87
653,06	1834,98
653,25	1875,94
653,44	1755,11
653,62	1839,08
653,81	1703,91
654,00	1705,96
654,19	1798,12
654,38	1828,84
654,56	1755,11
654,75	1736,68
654,94	1769,44
655,13	1751,01
655,32	1746,92
655,51	1781,73
655,69	1726,44
655,88	1791,97
656,07	1656,81
656,26	1791,97
656,45	1624,04
656,63	1699,81
656,82	1712,10
657,01	1806,31
657,20	1705,96
657,38	1841,12
657,57	1650,66
657,76	1665,00
657,95	1804,26
658,14	1705,96
658,32	1738,73
658,51	1603,56
658,70	1791,97
658,89	1779,68
659,08	1851,36
659,26	1761,25
659,45	1679,33
659,64	1738,73
659,83	1712,10
660,01	1959,91
660,20	1744,87
660,39	1855,46
660,58	1593,32
660,76	1861,60
660,95	1644,52
661,14	1775,59
661,33	1644,52
661,51	1691,62
661,70	1652,71
661,89	1818,60
662,08	1785,83
662,26	1679,33
662,45	1736,68
662,64	1898,47
662,83	1783,78
663,01	1693,67
663,20	1708,01
663,39	1806,31
663,58	1771,49
663,76	1820,64
663,95	1689,57
664,14	1673,19
664,32	1714,15
664,51	1720,29
664,70	1689,57
664,89	1779,68
665,07	1800,16
665,26	1808,36
665,45	1728,49
665,64	1730,53
665,82	1736,68
666,01	1796,07
666,20	1683,43
666,38	1771,49
666,57	1720,29
666,76	2260,96
666,95	4655,03
667,13	10481,50
667,32	15195,93
667,51	17694,45
667,69	18665,19
667,88	17323,77
668,07	12136,26
668,25	9465,71
668,44	8050,57
668,63	7329,68
668,81	6842,26
669,00	6150,05
669,19	5580,71
669,38	5021,62
669,56	4515,77
669,75	3925,96
669,94	3291,09
670,12	2926,55
670,31	2500,57
670,50	2275,29
670,68	2078,69
670,87	1880,04
671,06	1886,18
671,24	1796,07
671,43	1853,41
671,62	1751,01
671,80	1722,34
671,99	1775,59
672,18	1753,06
672,36	1726,44
672,55	1732,58
672,74	1736,68
672,92	1718,25
673,11	1757,16
673,29	1621,99
673,48	1804,26
673,67	1705,96
673,85	1787,88
674,04	1800,16
674,23	1697,77
674,41	1791,97
674,60	1683,43
674,79	1675,24
674,97	1701,86
675,16	1802,21
675,34	1806,31
675,53	1728,49
675,72	1773,54
675,90	1738,73
676,09	1656,81
676,28	1757,16
676,46	1677,29
676,65	1763,30
676,83	1722,34
677,02	1804,26
677,21	1714,15
677,39	1730,53
677,58	1683,43
677,77	1699,81
677,95	1691,62
678,14	1722,34
678,32	1722,34
678,51	1744,87
678,70	1902,56
678,88	1708,01
679,07	1763,30
679,25	1748,97
679,44	1724,39
679,63	1679,33
679,81	1712,10
680,00	1824,74
680,18	1753,06
680,37	1775,59
680,55	1742,82
680,74	1630,18
680,93	1560,55
681,11	1740,77
681,30	1757,16
681,48	1765,35
681,67	1718,25
681,85	1789,92
682,04	1685,48
682,23	1757,16
682,41	1746,92
682,60	1626,09
682,78	1705,96
682,97	1568,74
683,15	1761,25
683,34	1777,64
683,53	1794,02
683,71	1642,47
683,90	1796,07
684,08	1826,79
684,27	1726,44
684,45	1761,25
684,64	1722,34
684,82	1685,48
685,01	1757,16
685,19	1703,91
685,38	1748,97
685,57	1746,92
685,75	1724,39
685,94	1652,71
686,12	1699,81
686,31	1806,31
686,49	1820,64
686,68	1591,27
686,86	1738,73
687,05	1681,38
687,23	1851,36
687,42	1781,73
687,60	1669,09
687,79	1804,26
687,97	1861,60
688,16	1785,83
688,34	1849,32
688,53	1654,76
688,71	1773,54
688,90	1900,52
689,08	1675,24
689,27	1652,71
689,45	1777,64
689,64	1755,11
689,82	1728,49
690,01	1765,35
690,19	1724,39
690,38	1703,91
690,56	1804,26
690,75	1630,18
690,93	1724,39
691,12	1734,63
691,30	1732,58
691,49	1728,49
691,67	1703,91
691,86	1849,32
692,04	1683,43
692,23	1716,20
692,41	1677,29
692,60	1832,93
692,78	1800,16
692,97	1716,20
693,15	1740,77
693,34	1826,79
693,52	1765,35
693,71	1720,29
693,89	1697,77
694,08	1656,81
694,26	1832,93
694,44	1761,25
694,63	1712,10
694,81	1636,33
695,00	1607,66
695,18	1724,39
695,37	1871,84
695,55	1771,49
695,74	1689,57
695,92	1691,62
696,10	1822,69
696,29	1703,91
696,47	1689,57
696,66	1718,25
696,84	1710,05
697,03	1714,15
697,21	1873,89
697,40	2359,26
697,58	1779,68
697,76	1669,09
697,95	1685,48
698,13	1679,33
698,32	1769,44
698,50	1712,10
698,68	1759,21
698,87	1736,68
699,05	1777,64
699,24	1779,68
699,42	1691,62
699,61	1740,77
699,79	1734,63
699,97	1730,53
700,16	1742,82
700,34	1605,61
700,53	1734,63
700,71	1746,92
700,89	1798,12
701,08	1685,48
701,26	1765,35
701,45	2088,93
701,63	1671,14
701,81	1734,63
702,00	1665,00
702,18	1720,29
702,37	1705,96
702,55	1753,06
702,73	1716,20
702,92	1710,05
703,10	1765,35
703,28	1722,34
703,47	1771,49
703,65	1804,26
703,84	1779,68
704,02	1683,43
704,20	1816,55
704,39	1726,44
704,57	1763,30
704,75	1740,77
704,94	1804,26
705,12	1791,97
705,30	1773,54
705,49	2260,96
705,67	4341,69
705,86	9383,79
706,04	12400,45
706,22	14260,01
706,41	15056,67
706,59	13508,40
706,77	9213,81
706,96	7126,93
707,14	6492,06
707,32	5873,57
707,51	5599,15
707,69	4911,03
707,87	4143,04
708,06	3461,07
708,24	2985,94
708,42	2346,97
708,61	2306,01
708,79	1970,15
708,97	1888,23
709,16	1806,31
709,34	1830,88
709,52	1751,01
709,71	1771,49
709,89	1673,19
710,07	1699,81
710,26	1703,91
710,44	1753,06
710,62	1789,92
710,80	1781,73
710,99	1734,63
711,17	1808,36
711,35	1658,85
711,54	1675,24
711,72	1832,93
711,90	1681,38
712,09	1724,39
712,27	1705,96
712,45	1714,15
712,63	1691,62
712,82	1701,86
713,00	1714,15
713,18	1779,68
713,37	1755,11
713,55	1777,64
713,73	1708,01
713,91	1712,10
714,10	1662,95
714,28	1671,14
714,46	1734,63
714,65	1689,57
714,83	1794,02
715,01	1730,53
715,19	1701,86
715,38	1773,54
715,56	1777,64
715,74	1734,63
715,92	1667,05
716,11	1712,10
716,29	1669,09
716,47	1722,34
716,65	1744,87
716,84	1636,33
717,02	1832,93
717,20	1644,52
717,38	1748,97
717,57	1755,11
717,75	1712,10
717,93	1746,92
718,11	1720,29
718,30	1685,48
718,48	1736,68
718,66	1859,56
718,84	1763,30
719,03	1703,91
719,21	1705,96
719,39	1882,08
719,57	1767,40
719,75	1787,88
719,94	1738,73
720,12	1650,66
720,30	1685,48
720,48	1812,45
720,67	1718,25
720,85	1708,01
721,03	1763,30
721,21	1712,10
721,39	1794,02
721,58	1699,81
721,76	1736,68
721,94	1787,88
722,12	1755,11
722,30	1824,74
722,49	1654,76
722,67	1650,66
722,85	1714,15
723,03	1701,86
723,21	1687,53
723,40	1726,44
723,58	1828,84
723,76	1734,63
723,94	1814,50
724,12	1777,64
724,30	1822,69
724,49	1798,12
724,67	1611,75
724,85	1798,12
725,03	1640,42
725,21	1732,58
725,40	1763,30
725,58	1753,06
725,76	1730,53
725,94	1691,62
726,12	1650,66
726,30	1761,25
726,49	1683,43
726,67	1617,90
726,85	1681,38
727,03	1832,93
727,21	2211,81
727,39	2959,31
727,57	3895,24
727,76	4151,23
727,94	4460,48
728,12	4292,54
728,30	3688,39
728,48	2961,36
728,66	2691,03
728,84	2588,63
729,03	2371,55
729,21	2103,26
729,39	2039,78
729,57	1912,80
729,75	1894,37
729,93	1839,08
730,11	1781,73
730,30	1742,82
730,48	1771,49
730,66	1824,74
730,84	1720,29
731,02	1675,24
731,20	1687,53
731,38	1757,16
731,56	1734,63
731,74	1675,24
731,93	1763,30
732,11	1785,83
732,29	1697,77
732,47	1767,40
732,65	1712,10
732,83	1777,64
733,01	1832,93
733,19	1705,96
733,37	1701,86
733,56	1773,54
733,74	1708,01
733,92	1806,31
734,10	1685,48
734,28	1765,35
734,46	1601,51
734,64	1757,16
734,82	1757,16
735,00	1677,29
735,18	1648,61
735,36	1671,14
735,54	1699,81
735,73	1697,77
735,91	1761,25
736,09	1734,63
736,27	1650,66
736,45	1781,73
736,63	1634,28
736,81	1732,58
736,99	1814,50
737,17	1830,88
737,35	1675,24
737,53	1726,44
737,71	1708,01
737,89	1806,31
738,07	1642,47
738,25	1671,14
738,43	1646,57
738,61	1701,86
738,80	1673,19
738,98	1628,14
739,16	1798,12
739,34	1740,77
739,52	1798,12
739,70	1703,91
739,88	1834,98
740,06	1796,07
740,24	1617,90
740,42	1789,92
740,60	1646,57
740,78	1759,21
740,96	1642,47
741,14	1683,43
741,32	1773,54
741,50	1734,63
741,68	1849,32
741,86	1830,88
742,04	1634,28
742,22	1665,00
742,40	1714,15
742,58	1771,49
742,76	1677,29
742,94	1755,11
743,12	1634,28
743,30	1699,81
743,48	1716,20
743,66	1689,57
743,84	1701,86
744,02	1712,10
744,20	1691,62
744,38	1652,71
744,56	1673,19
744,74	1798,12
744,92	1708,01
745,10	1791,97
745,28	1738,73
745,46	1759,21
745,64	1689,57
745,82	1718,25
746,00	1761,25
746,18	1798,12
746,36	1699,81
746,54	1761,25
746,72	1736,68
746,90	1652,71
747,08	1826,79
747,26	1734,63
747,44	1763,30
747,62	1732,58
747,80	1757,16
747,98	1796,07
748,15	1624,04
748,33	1732,58
748,51	1671,14
748,69	1767,40
748,87	1673,19
749,05	1728,49
749,23	1687,53
749,41	1650,66
749,59	1632,23
749,77	1767,40
749,95	1714,15
750,13	1638,38
750,31	1828,84
750,49	1683,43
750,67	1755,11
750,85	1710,05
751,03	1841,12
751,20	1804,26
751,38	1722,34
751,56	1728,49
751,74	1775,59
751,92	1669,09
752,10	1626,09
752,28	1837,03
752,46	1695,72
752,64	1708,01
752,82	1734,63
753,00	1787,88
753,18	1724,39
753,35	1646,57
753,53	1744,87
753,71	1705,96
753,89	1763,30
754,07	1734,63
754,25	1847,27
754,43	1705,96
754,61	1681,38
754,79	1712,10
754,97	1718,25
755,14	1730,53
755,32	1636,33
755,50	1730,53
755,68	1845,22
755,86	1769,44
756,04	1689,57
756,22	1611,75
756,40	1736,68
756,57	1865,70
756,75	1748,97
756,93	1722,34
757,11	1789,92
757,29	1636,33
757,47	1697,77
757,65	1654,76
757,82	1619,94
758,00	1693,67
758,18	1714,15
758,36	1716,20
758,54	1763,30
758,72	1621,99
758,90	1775,59
759,07	1718,25
759,25	1642,47
759,43	1730,53
759,61	1601,51
759,79	2222,05
759,97	1763,30
760,15	1703,91
760,32	1667,05
760,50	1736,68
760,68	1759,21
760,86	1611,75
761,04	1789,92
761,22	1742,82
761,39	1751,01
761,57	1726,44
761,75	1679,33
761,93	1800,16
762,11	1667,05
762,28	1810,40
762,46	1689,57
762,64	1789,92
762,82	1574,89
763,00	1736,68
763,18	1771,49
763,35	1683,43
763,53	1751,01
763,71	1695,72
763,89	1697,77
764,07	1710,05
764,24	1708,01
764,42	1853,41
764,60	1673,19
764,78	1677,29
764,96	1726,44
765,13	1716,20
765,31	1691,62
765,49	1822,69
765,67	1658,85
765,84	1742,82
766,02	1630,18
766,20	1636,33
766,38	1726,44
766,56	1753,06
766,73	1763,30
766,91	1722,34
767,09	1748,97
767,27	1771,49
767,44	1685,48
767,62	1791,97
767,80	1775,59
767,98	1675,24
768,15	1675,24
768,33	1804,26
768,51	1734,63
768,69	1681,38
768,87	1763,30
769,04	1787,88
769,22	1869,80
769,40	1845,22
769,58	1882,08
769,75	1669,09
769,93	1730,53
770,11	1787,88
770,28	1673,19
770,46	1773,54
770,64	1740,77
770,82	1665,00
770,99	1691,62
771,17	1734,63
771,35	1771,49
771,53	1662,95
771,70	1724,39
771,88	1771,49
772,06	1734,63
772,23	1740,77
772,41	1761,25
772,59	1681,38
772,77	1632,23
772,94	1695,72
773,12	1830,88
773,30	1628,14
773,47	1781,73
773,65	1628,14
773,83	1830,88
774,01	1689,57
774,18	1624,04
774,36	1710,05
774,54	1638,38
774,71	1736,68
774,89	1662,95
775,07	1628,14
775,24	1701,86
775,42	1753,06
775,60	1886,18
775,78	1701,86
775,95	1636,33
776,13	1611,75
776,31	1554,41
776,48	1771,49
776,66	1812,45
776,84	1681,38
777,01	1753,06
777,19	1609,70
777,37	1691,62
777,54	1708,01
777,72	1839,08
777,90	1720,29
778,07	1634,28
778,25	1955,81
778,43	1804,26
778,60	1609,70
778,78	1730,53
778,96	1755,11
779,13	1652,71
779,31	1820,64
779,49	1736,68
779,66	1708,01
779,84	1728,49
780,01	1718,25
780,19	1763,30
780,37	1775,59
780,54	1726,44
780,72	1693,67
780,90	1699,81
781,07	1638,38
781,25	1658,85
781,43	1769,44
781,60	1701,86
781,78	1740,77
781,95	1691,62
782,13	1601,51
782,31	1753,06
782,48	1601,51
782,66	1732,58
782,83	1824,74
783,01	1740,77
783,19	1800,16
783,36	1681,38
783,54	1708,01
783,72	1824,74
783,89	1652,71
784,07	1738,73
784,24	1763,30
784,42	1820,64
784,60	1710,05
784,77	1726,44
784,95	1630,18
785,12	1701,86
785,30	1712,10
785,47	1632,23
785,65	1632,23
785,83	1736,68
786,00	1740,77
786,18	1755,11
786,35	1605,61
786,53	1632,23
786,71	1695,72
786,88	1734,63
787,06	1679,33
787,23	1675,24
787,41	1656,81
787,58	1705,96
787,76	1710,05
787,94	1697,77
788,11	1710,05
788,29	1736,68
788,46	1660,90
788,64	1636,33
788,81	1705,96
788,99	1660,90
789,16	1689,57
789,34	1767,40
789,52	1722,34
789,69	1681,38
789,87	1617,90
790,04	1630,18
790,22	1722,34
790,39	1791,97
790,57	1720,29
790,74	1701,86
790,92	1759,21
791,09	1634,28
791,27	1757,16
791,44	1812,45
791,62	1708,01
791,79	1798,12
791,97	1722,34
792,15	1892,32
792,32	1714,15
792,50	1777,64
792,67	1865,70
792,85	1863,65
793,02	1724,39
793,20	1724,39
793,37	1562,60
793,55	1832,93
793,72	1648,61
793,90	1746,92
794,07	1675,24
794,25	1615,85
794,42	1744,87
794,60	1742,82
794,77	1759,21
794,95	1781,73
795,12	1775,59
795,30	1660,90
795,47	1634,28
795,65	1929,19
795,82	1765,35
796,00	1714,15
796,17	1638,38
796,34	1693,67
796,52	1738,73
796,69	1765,35
796,87	1794,02
797,04	1751,01
797,22	1796,07
797,39	1740,77
797,57	1765,35
797,74	1701,86
797,92	1701,86
798,09	1632,23
798,27	1865,70
798,44	1771,49
798,62	1669,09
798,79	1744,87
798,96	1791,97
799,14	1734,63
799,31	1900,52
799,49	1761,25
799,66	1765,35
799,84	1732,58
800,01	1667,05
800,19	1705,96
800,36	1710,05
800,53	1769,44
800,71	1738,73
800,88	1818,60
801,06	1662,95
801,23	1669,09
801,41	1701,86
801,58	1697,77
801,75	1708,01
801,93	1683,43
802,10	1712,10
802,28	1613,80
802,45	1695,72
802,63	1757,16
802,80	1824,74
802,97	1730,53
803,15	1726,44
803,32	1691,62
803,50	1632,23
803,67	1662,95
803,84	1675,24
804,02	1693,67
804,19	1703,91
804,37	1679,33
804,54	1617,90
804,71	1626,09
804,89	1773,54
805,06	1619,94
805,24	1685,48
805,41	1677,29
805,58	1705,96
805,76	1841,12
805,93	1718,25
806,10	1773,54
806,28	1796,07
806,45	1703,91
806,63	1777,64
806,80	1710,05
806,97	1701,86
807,15	1720,29
807,32	1697,77
807,49	1748,97
807,67	1619,94
807,84	1800,16
808,01	1716,20
808,19	1763,30
808,36	1761,25
808,54	1648,61
808,71	1640,42
808,88	1636,33
809,06	1728,49
809,23	1779,68
809,40	1656,81
809,58	1728,49
809,75	1677,29
809,92	1716,20
810,10	1794,02
810,27	1652,71
810,44	1785,83
810,62	1722,34
810,79	1755,11
810,96	1701,86
811,14	1720,29
811,31	1820,64
811,48	1802,21
811,66	1652,71
811,83	1775,59
812,00	1769,44
812,18	1808,36
812,35	1820,64
812,52	1640,42
812,69	1712,10
812,87	1681,38
813,04	1658,85
813,21	1765,35
813,39	1689,57
813,56	1630,18
813,73	1828,84
813,91	1658,85
814,08	1748,97
814,25	1697,77
814,42	1615,85
814,60	1765,35
814,77	1773,54
814,94	1744,87
815,12	1667,05
815,29	1863,65
815,46	1718,25
815,63	1732,58
815,81	1681,38
815,98	1632,23
816,15	1722,34
816,33	1699,81
816,50	1685,48
816,67	1662,95
816,84	1734,63
817,02	1677,29
817,19	1693,67
817,36	1691,62
817,53	1708,01
817,71	1675,24
817,88	1771,49
818,05	1771,49
818,22	1677,29
818,40	1871,84
818,57	1683,43
818,74	1796,07
818,91	1697,77
819,09	1753,06
819,26	1818,60
819,43	1777,64
819,60	1675,24
819,78	1775,59
819,95	1834,98
820,12	1650,66
820,29	1701,86
820,47	1781,73
820,64	1726,44
820,81	1562,60
820,98	1714,15
821,15	1695,72
821,33	1761,25
821,50	1585,13
821,67	1716,20
821,84	1677,29
822,02	1732,58
822,19	1771,49
822,36	1732,58
822,53	1681,38
822,70	1568,74
822,88	1726,44
823,05	1787,88
823,22	1701,86
823,39	1812,45
823,56	1753,06
823,74	1828,84
823,91	1718,25
824,08	1654,76
824,25	1681,38
824,42	1718,25
824,60	1619,94
824,77	1685,48
824,94	1724,39
825,11	1714,15
825,28	1695,72
825,45	1724,39
825,63	1791,97
825,80	1712,10
825,97	1728,49
826,14	1675,24
826,31	1667,05
826,48	1730,53
826,66	1708,01
826,83	1685,48
827,00	1732,58
827,17	1677,29
827,34	1677,29
827,51	1644,52
827,69	1701,86
827,86	1576,94
828,03	1697,77
828,20	1714,15
828,37	1738,73
828,54	1703,91
828,71	1636,33
828,89	1845,22
829,06	1697,77
829,23	1787,88
829,40	1697,77
829,57	1669,09
829,74	1746,92
829,91	1724,39
830,09	1683,43
830,26	1710,05
830,43	1734,63
830,60	1738,73
830,77	1726,44
830,94	1779,68
831,11	1734,63
831,28	1679,33
831,46	1841,12
831,63	1722,34
831,80	1705,96
831,97	1671,14
832,14	1656,81
832,31	1720,29
832,48	1759,21
832,65	1812,45
832,82	1695,72
832,99	1791,97
833,17	1636,33
833,34	1808,36
833,51	1701,86
833,68	1675,24
833,85	1710,05
834,02	1626,09
834,19	1699,81
834,36	1630,18
834,53	1691,62
834,70	1804,26
834,87	1720,29
835,04	1710,05
835,22	1621,99
835,39	1685,48
835,56	1693,67
835,73	1742,82
835,90	1705,96
836,07	1701,86
836,24	1765,35
836,41	1716,20
836,58	1697,77
836,75	1806,31
836,92	1693,67
837,09	1724,39
837,26	1734,63
837,43	1783,78
837,60	1714,15
837,77	1740,77
837,94	1738,73
838,12	1759,21
838,29	1740,77
838,46	1583,08
838,63	1665,00
838,80	1720,29
838,97	1818,60
839,14	1624,04
839,31	1765,35
839,48	1732,58
839,65	1636,33
839,82	1726,44
839,99	1769,44
840,16	1769,44
840,33	1656,81
840,50	1642,47
840,67	1656,81
840,84	1615,85
841,01	1726,44
841,18	1671,14
841,35	1755,11
841,52	1767,40
841,69	1877,99
841,86	1679,33
842,03	1724,39
842,20	1804,26
842,37	1714,15
842,54	1697,77
842,71	1703,91
842,88	1703,91
843,05	1691,62
843,22	1718,25
843,39	1816,55
843,56	1699,81
843,73	1708,01
843,90	1746,92
844,07	1667,05
844,24	1802,21
844,41	1763,30
844,58	1763,30
844,75	1720,29
844,92	1742,82
845,09	1665,00
845,26	1683,43
845,43	1773,54
845,60	1710,05
845,77	1662,95
845,94	1665,00
846,10	1798,12
846,27	1591,27
846,44	1689,57
846,61	1611,75
846,78	1689,57
846,95	1812,45
847,12	1765,35
847,29	1714,15
847,46	1697,77
847,63	1738,73
847,80	1703,91
847,97	1736,68
848,14	1925,09
848,31	1722,34
848,48	1660,90
848,65	1777,64
848,82	1650,66
848,98	1886,18
849,15	1763,30
849,32	1716,20
849,49	1742,82
849,66	1697,77
849,83	1740,77
850,00	1681,38
850,17	1767,40
850,34	1730,53
850,51	1681,38
850,68	1607,66
850,85	1814,50
851,01	1771,49
851,18	1810,40
851,35	1734,63
851,52	1785,83
851,69	1802,21
851,86	1689,57
852,03	1705,96
852,20	1761,25
852,37	1755,11
852,53	1687,53
852,70	1695,72
852,87	1771,49
853,04	1714,15
853,21	1738,73
853,38	1787,88
853,55	1726,44
853,72	1761,25
853,89	1691,62
854,05	1648,61
854,22	1718,25
854,39	1703,91
854,56	1744,87
854,73	1787,88
854,90	1621,99
855,07	1695,72
855,23	1658,85
855,40	1636,33
855,57	1734,63
855,74	1593,32
855,91	1923,04
856,08	1619,94
856,25	1669,09
856,41	1685,48
856,58	1714,15
856,75	1644,52
856,92	1646,57
857,09	1800,16
857,26	1615,85
857,42	1691,62
857,59	1699,81
857,76	1675,24
857,93	1701,86
858,10	1753,06
858,27	1675,24
858,43	1757,16
858,60	1685,48
858,77	1673,19
858,94	1705,96
859,11	1763,30
859,27	1650,66
859,44	1763,30
859,61	1849,32
859,78	1783,78
859,95	1671,14
860,12	1730,53
860,28	1859,56
860,45	1800,16
860,62	1691,62
860,79	1658,85
860,95	1730,53
861,12	1665,00
861,29	1628,14
861,46	1691,62
861,63	1728,49
861,79	1597,42
861,96	1675,24
862,13	1716,20
862,30	1761,25
862,47	1634,28
862,63	1693,67
862,80	1787,88
862,97	1765,35
863,14	1746,92
863,30	1734,63
863,47	1609,70
863,64	1816,55
863,81	1802,21
863,97	1785,83
864,14	1759,21
864,31	1603,56
864,48	1802,21
864,65	1671,14
864,81	1757,16
864,98	1751,01
865,15	1691,62
865,32	1734,63
865,48	1763,30
865,65	1753,06
865,82	1718,25
865,98	1767,40
866,15	1722,34
866,32	1644,52
866,49	1683,43
866,65	1783,78
866,82	1654,76
866,99	1738,73
867,16	1621,99
867,32	1613,80
867,49	1699,81
867,66	1673,19
867,83	1687,53
867,99	1624,04
868,16	1689,57
868,33	1710,05
868,49	1699,81
868,66	1648,61
868,83	1832,93
868,99	1714,15
869,16	1746,92
869,33	1742,82
869,50	1810,40
869,66	1718,25
869,83	1679,33
870,00	1710,05
870,16	1771,49
870,33	1619,94
870,50	1802,21
870,66	1665,00
870,83	1816,55
871,00	1746,92
871,17	1732,58
871,33	1714,15
871,50	1673,19
871,67	1751,01
871,83	1650,66
872,00	1787,88
872,17	1665,00
872,33	1746,92
872,50	1812,45
872,67	1662,95
872,83	1783,78
873,00	1701,86
873,17	1679,33
873,33	1708,01
873,50	1763,30
873,67	1691,62
873,83	1703,91
874,00	1687,53
874,16	1830,88
874,33	1751,01
874,50	1656,81
874,66	1677,29
874,83	1769,44
875,00	1755,11
875,16	1751,01
875,33	1751,01
875,50	1558,50
875,66	1759,21
875,83	1681,38
875,99	1800,16
876,16	1732,58
876,33	1601,51
876,49	1683,43
876,66	1763,30
876,83	1769,44
876,99	1673,19
877,16	1726,44
877,32	1781,73
877,49	1685,48
877,66	1726,44
877,82	1832,93
877,99	1708,01
878,15	1824,74
878,32	1748,97
878,49	1658,85
878,65	1644,52
878,82	1746,92
878,98	1615,85
879,15	1779,68
879,32	1800,16
879,48	1742,82
879,65	1757,16
879,81	1714,15
879,98	1726,44
880,15	1697,77
880,31	1695,72
880,48	1636,33
880,64	1773,54
880,81	1640,42
880,97	1789,92
881,14	1789,92
881,31	1705,96
881,47	1804,26
881,64	1718,25
881,80	1669,09
881,97	1683,43
882,13	1802,21
882,30	1662,95
882,47	1714,15
882,63	1632,23
882,80	1667,05
882,96	1746,92
883,13	1769,44
883,29	1708,01
883,46	1794,02
883,62	1826,79
883,79	1691,62
883,95	1734,63
884,12	1679,33
884,29	1818,60
884,45	1794,02
884,62	1726,44
884,78	1591,27
884,95	1824,74
885,11	1644,52
885,28	1734,63
885,44	1673,19
885,61	1773,54
885,77	1822,69
885,94	1705,96
886,10	1730,53
886,27	1656,81
886,43	1798,12
886,60	1775,59
886,76	1685,48
886,93	1607,66
887,09	1697,77
887,26	1609,70
887,42	1705,96
887,59	1771,49
887,75	1888,23
887,92	1738,73
888,08	1763,30
888,25	1789,92
888,41	1781,73
888,58	1771,49
888,74	1593,32
888,91	1669,09
>>>>>End Processed Spectral Data<<<<<
