SpectraSuite Data File
++++++++++++++++++++++++++++++++++++
Date: Mon Jun 06 13:57:17 CEST 2016
User: root
Dark Spectrum Present: No
Reference Spectrum Present: No
Number of Sampled Component Spectra: 1
Spectrometers: USB4C02835
Integration Time (usec): 100000 (USB4C02835)
Spectra Averaged: 1 (USB4C02835)
Boxcar Smoothing: 0 (USB4C02835)
Correct for Electrical Dark: No (USB4C02835)
Strobe/Lamp Enabled: No (USB4C02835)
Correct for Detector Non-linearity: No (USB4C02835)
Correct for Stray Light: No (USB4C02835)
Number of Pixels in Processed Spectrum: 3648
>>>>>Begin Processed Spectral Data<<<<<
177,47	1445,87
177,69	1445,87
177,91	1445,87
178,13	1404,91
178,36	1490,92
178,58	1755,11
178,80	1701,86
179,02	1656,81
179,24	1691,62
179,46	1665,00
179,68	1667,05
179,90	1708,01
180,13	1667,05
180,35	1691,62
180,57	1759,21
180,79	1734,63
181,01	1726,44
181,23	1681,38
181,45	1863,65
181,67	1697,77
181,90	1722,34
182,12	1714,15
182,34	1642,47
182,56	1738,73
182,78	1669,09
183,00	1685,48
183,22	1703,91
183,44	1595,37
183,66	1875,94
183,89	1701,86
184,11	1675,24
184,33	1687,53
184,55	1800,16
184,77	1667,05
184,99	1708,01
185,21	1658,85
185,43	1865,70
185,65	1685,48
185,87	1671,14
186,10	1787,88
186,32	1820,64
186,54	1746,92
186,76	1718,25
186,98	1703,91
187,20	1599,46
187,42	1697,77
187,64	1755,11
187,86	1720,29
188,08	1765,35
188,30	1683,43
188,52	1660,90
188,75	1769,44
188,97	1751,01
189,19	1599,46
189,41	1675,24
189,63	1714,15
189,85	1687,53
190,07	1636,33
190,29	1673,19
190,51	1681,38
190,73	1626,09
190,95	1763,30
191,17	1667,05
191,39	1624,04
191,61	1621,99
191,84	1640,42
192,06	1683,43
192,28	1640,42
192,50	1884,13
192,72	1724,39
192,94	1695,72
193,16	1748,97
193,38	1759,21
193,60	1628,14
193,82	1626,09
194,04	1789,92
194,26	1705,96
194,48	1677,29
194,70	1648,61
194,92	1703,91
195,14	1734,63
195,36	1675,24
195,58	1708,01
195,80	1650,66
196,02	1669,09
196,24	1744,87
196,46	1695,72
196,69	1683,43
196,91	1869,80
197,13	1658,85
197,35	1667,05
197,57	1724,39
197,79	1757,16
198,01	1769,44
198,23	1730,53
198,45	1685,48
198,67	1662,95
198,89	1701,86
199,11	1679,33
199,33	1673,19
199,55	1546,22
199,77	1669,09
199,99	1740,77
200,21	1669,09
200,43	1683,43
200,65	1644,52
200,87	1583,08
201,09	1648,61
201,31	1628,14
201,53	1759,21
201,75	1730,53
201,97	1722,34
202,19	1689,57
202,41	1755,11
202,63	1841,12
202,85	1748,97
203,07	1660,90
203,29	1632,23
203,51	1613,80
203,73	1695,72
203,95	1902,56
204,17	1689,57
204,39	1675,24
204,61	1644,52
204,83	1638,38
205,05	1763,30
205,27	1693,67
205,49	1820,64
205,71	1667,05
205,93	1701,86
206,15	1716,20
206,37	1695,72
206,59	1695,72
206,81	1640,42
207,03	1656,81
207,25	1677,29
207,47	1736,68
207,69	1701,86
207,91	1705,96
208,13	1736,68
208,34	1722,34
208,56	1638,38
208,78	1673,19
209,00	1759,21
209,22	1640,42
209,44	1681,38
209,66	1660,90
209,88	1701,86
210,10	1648,61
210,32	1740,77
210,54	1701,86
210,76	1671,14
210,98	1779,68
211,20	1490,92
211,42	1665,00
211,64	1773,54
211,86	1724,39
212,08	1685,48
212,30	1718,25
212,52	1638,38
212,74	1660,90
212,96	1677,29
213,17	1783,78
213,39	1732,58
213,61	1787,88
213,83	1732,58
214,05	1652,71
214,27	1714,15
214,49	1671,14
214,71	1634,28
214,93	1779,68
215,15	1712,10
215,37	1738,73
215,59	1638,38
215,81	1765,35
216,03	1841,12
216,24	1660,90
216,46	1693,67
216,68	1648,61
216,90	1708,01
217,12	1748,97
217,34	1636,33
217,56	1681,38
217,78	1777,64
218,00	1718,25
218,22	1710,05
218,44	1753,06
218,66	1701,86
218,87	1861,60
219,09	1718,25
219,31	1730,53
219,53	1710,05
219,75	1730,53
219,97	1712,10
220,19	1665,00
220,41	1630,18
220,63	1781,73
220,85	1701,86
221,06	1687,53
221,28	1796,07
221,50	1689,57
221,72	1687,53
221,94	1687,53
222,16	1665,00
222,38	1787,88
222,60	1701,86
222,82	1683,43
223,03	1816,55
223,25	1693,67
223,47	1804,26
223,69	1830,88
223,91	1722,34
224,13	1724,39
224,35	1658,85
224,57	1787,88
224,78	1720,29
225,00	1601,51
225,22	1724,39
225,44	1765,35
225,66	1744,87
225,88	1615,85
226,10	1806,31
226,32	1763,30
226,53	1798,12
226,75	1679,33
226,97	1617,90
227,19	1677,29
227,41	1671,14
227,63	1687,53
227,85	1632,23
228,06	1687,53
228,28	1808,36
228,50	1705,96
228,72	1650,66
228,94	1683,43
229,16	1548,26
229,37	1652,71
229,59	1738,73
229,81	1724,39
230,03	1628,14
230,25	1630,18
230,47	1675,24
230,69	1671,14
230,90	1822,69
231,12	1699,81
231,34	1771,49
231,56	1755,11
231,78	1626,09
232,00	1753,06
232,21	1683,43
232,43	1650,66
232,65	1544,17
232,87	1755,11
233,09	1660,90
233,30	1675,24
233,52	1654,76
233,74	1738,73
233,96	1615,85
234,18	1697,77
234,40	1691,62
234,61	1806,31
234,83	1685,48
235,05	1615,85
235,27	1812,45
235,49	1724,39
235,70	1693,67
235,92	1734,63
236,14	1726,44
236,36	1898,47
236,58	1638,38
236,79	1751,01
237,01	1669,09
237,23	1705,96
237,45	1708,01
237,67	1654,76
237,88	1712,10
238,10	1787,88
238,32	1634,28
238,54	1734,63
238,76	1753,06
238,97	1675,24
239,19	1660,90
239,41	1691,62
239,63	1667,05
239,85	1636,33
240,06	1730,53
240,28	1652,71
240,50	1703,91
240,72	1667,05
240,93	1583,08
241,15	1718,25
241,37	1718,25
241,59	1759,21
241,81	1689,57
242,02	1652,71
242,24	1683,43
242,46	1703,91
242,68	1650,66
242,89	1726,44
243,11	1710,05
243,33	1636,33
243,55	1771,49
243,76	1712,10
243,98	1632,23
244,20	1650,66
244,42	1794,02
244,64	1753,06
244,85	1603,56
245,07	1607,66
245,29	1763,30
245,51	1685,48
245,72	1761,25
245,94	1703,91
246,16	1689,57
246,38	1724,39
246,59	1685,48
246,81	1679,33
247,03	1710,05
247,24	1507,30
247,46	1697,77
247,68	1736,68
247,90	1710,05
248,11	1691,62
248,33	1744,87
248,55	1738,73
248,77	1705,96
248,98	1742,82
249,20	1800,16
249,42	1681,38
249,64	1718,25
249,85	1669,09
250,07	1697,77
250,29	1781,73
250,50	1701,86
250,72	1603,56
250,94	1753,06
251,16	1804,26
251,37	1767,40
251,59	1738,73
251,81	1671,14
252,02	1808,36
252,24	1673,19
252,46	1783,78
252,68	1695,72
252,89	1716,20
253,11	1576,94
253,33	1746,92
253,54	1728,49
253,76	1689,57
253,98	1640,42
254,20	1685,48
254,41	1650,66
254,63	1759,21
254,85	1669,09
255,06	1636,33
255,28	1675,24
255,50	1716,20
255,71	1636,33
255,93	1642,47
256,15	1648,61
256,36	1718,25
256,58	1673,19
256,80	1671,14
257,02	1617,90
257,23	1652,71
257,45	1748,97
257,67	1789,92
257,88	1675,24
258,10	1712,10
258,32	1742,82
258,53	1683,43
258,75	1771,49
258,97	1615,85
259,18	1718,25
259,40	1665,00
259,62	1808,36
259,83	1732,58
260,05	1771,49
260,27	1937,38
260,48	1789,92
260,70	1714,15
260,92	1624,04
261,13	1699,81
261,35	1703,91
261,57	1744,87
261,78	1626,09
262,00	1667,05
262,22	1775,59
262,43	1626,09
262,65	1632,23
262,86	1761,25
263,08	1783,78
263,30	1730,53
263,51	1597,42
263,73	1679,33
263,95	1822,69
264,16	1656,81
264,38	1751,01
264,60	1767,40
264,81	1656,81
265,03	1804,26
265,25	1748,97
265,46	1726,44
265,68	1791,97
265,89	1722,34
266,11	1646,57
266,33	1771,49
266,54	1718,25
266,76	1724,39
266,98	1677,29
267,19	1804,26
267,41	1744,87
267,62	1662,95
267,84	1624,04
268,06	1751,01
268,27	1742,82
268,49	1789,92
268,70	1755,11
268,92	1722,34
269,14	1685,48
269,35	1619,94
269,57	1658,85
269,79	1673,19
270,00	1644,52
270,22	1794,02
270,43	1665,00
270,65	1558,50
270,87	1746,92
271,08	1742,82
271,30	1753,06
271,51	1701,86
271,73	1724,39
271,95	1785,83
272,16	1710,05
272,38	1730,53
272,59	1732,58
272,81	1660,90
273,02	1714,15
273,24	1781,73
273,46	1685,48
273,67	1658,85
273,89	1675,24
274,10	1652,71
274,32	1728,49
274,54	1724,39
274,75	1660,90
274,97	1748,97
275,18	1751,01
275,40	1771,49
275,61	1675,24
275,83	1724,39
276,05	1617,90
276,26	1705,96
276,48	1787,88
276,69	1628,14
276,91	1597,42
277,12	1779,68
277,34	1730,53
277,55	1740,77
277,77	1705,96
277,99	1681,38
278,20	1632,23
278,42	1732,58
278,63	1617,90
278,85	1621,99
279,06	1636,33
279,28	1687,53
279,49	1662,95
279,71	1734,63
279,93	1716,20
280,14	1724,39
280,36	1615,85
280,57	1697,77
280,79	1712,10
281,00	1667,05
281,22	1617,90
281,43	1710,05
281,65	1595,37
281,86	1710,05
282,08	1732,58
282,29	1798,12
282,51	1693,67
282,73	1632,23
282,94	1640,42
283,16	1742,82
283,37	1771,49
283,59	1656,81
283,80	1804,26
284,02	1738,73
284,23	1736,68
284,45	1673,19
284,66	1611,75
284,88	1669,09
285,09	1701,86
285,31	1708,01
285,52	1681,38
285,74	1632,23
285,95	1804,26
286,17	1687,53
286,38	1814,50
286,60	1679,33
286,81	1708,01
287,03	1656,81
287,24	1808,36
287,46	1824,74
287,67	1697,77
287,89	1857,51
288,10	1644,52
288,32	1796,07
288,53	1757,16
288,75	1679,33
288,96	1779,68
289,18	1716,20
289,39	1724,39
289,61	1714,15
289,82	1814,50
290,04	1755,11
290,25	1685,48
290,47	1615,85
290,68	1683,43
290,90	1730,53
291,11	1630,18
291,33	1710,05
291,54	1607,66
291,76	1691,62
291,97	1712,10
292,18	1689,57
292,40	1714,15
292,61	1724,39
292,83	1759,21
293,04	1689,57
293,26	1701,86
293,47	1742,82
293,69	1603,56
293,90	1710,05
294,12	1705,96
294,33	1732,58
294,55	1673,19
294,76	1769,44
294,97	1728,49
295,19	1798,12
295,40	1746,92
295,62	1681,38
295,83	1785,83
296,05	1710,05
296,26	1718,25
296,48	1652,71
296,69	1685,48
296,90	1685,48
297,12	1763,30
297,33	1826,79
297,55	1783,78
297,76	1732,58
297,98	1662,95
298,19	1681,38
298,41	1685,48
298,62	1640,42
298,83	1746,92
299,05	1710,05
299,26	1679,33
299,48	1675,24
299,69	1753,06
299,90	1603,56
300,12	1722,34
300,33	1689,57
300,55	1763,30
300,76	1669,09
300,98	1646,57
301,19	1712,10
301,40	1660,90
301,62	1759,21
301,83	1669,09
302,05	1701,86
302,26	1689,57
302,47	1683,43
302,69	1632,23
302,90	1656,81
303,12	1585,13
303,33	1708,01
303,54	1746,92
303,76	1642,47
303,97	1757,16
304,19	1775,59
304,40	1615,85
304,61	1757,16
304,83	1865,70
305,04	1662,95
305,26	1816,55
305,47	1673,19
305,68	1634,28
305,90	1681,38
306,11	1732,58
306,33	1646,57
306,54	1693,67
306,75	1691,62
306,97	1613,80
307,18	1613,80
307,39	1630,18
307,61	1687,53
307,82	1722,34
308,04	1654,76
308,25	1642,47
308,46	1650,66
308,68	1738,73
308,89	1675,24
309,10	1675,24
309,32	1687,53
309,53	1757,16
309,74	1697,77
309,96	1755,11
310,17	1701,86
310,39	1617,90
310,60	1695,72
310,81	1681,38
311,03	1652,71
311,24	1763,30
311,45	1751,01
311,67	1816,55
311,88	1697,77
312,09	1667,05
312,31	1705,96
312,52	1742,82
312,73	1722,34
312,95	1660,90
313,16	1677,29
313,37	1769,44
313,59	1724,39
313,80	1757,16
314,01	1763,30
314,23	1669,09
314,44	1703,91
314,65	1617,90
314,87	1720,29
315,08	1662,95
315,29	1689,57
315,51	1611,75
315,72	1632,23
315,93	1746,92
316,15	1791,97
316,36	1615,85
316,57	1701,86
316,79	1679,33
317,00	1675,24
317,21	1712,10
317,43	1665,00
317,64	1669,09
317,85	1644,52
318,07	1724,39
318,28	1730,53
318,49	1781,73
318,70	1927,14
318,92	1806,31
319,13	1826,79
319,34	1857,51
319,56	1781,73
319,77	1738,73
319,98	1787,88
320,20	1781,73
320,41	1781,73
320,62	1779,68
320,83	1626,09
321,05	1845,22
321,26	1730,53
321,47	1699,81
321,69	1775,59
321,90	1642,47
322,11	1673,19
322,32	1783,78
322,54	1757,16
322,75	1658,85
322,96	1826,79
323,18	1644,52
323,39	1599,46
323,60	1615,85
323,81	1757,16
324,03	1636,33
324,24	1697,77
324,45	1746,92
324,66	1632,23
324,88	1746,92
325,09	1710,05
325,30	1689,57
325,52	1640,42
325,73	1701,86
325,94	1642,47
326,15	1656,81
326,37	1603,56
326,58	1714,15
326,79	1740,77
327,00	1646,57
327,22	1667,05
327,43	1662,95
327,64	1591,27
327,85	1679,33
328,07	1650,66
328,28	1773,54
328,49	1691,62
328,70	1695,72
328,92	1708,01
329,13	1644,52
329,34	1724,39
329,55	1794,02
329,76	1781,73
329,98	1693,67
330,19	1755,11
330,40	1800,16
330,61	1736,68
330,83	1746,92
331,04	1689,57
331,25	1673,19
331,46	1759,21
331,68	1654,76
331,89	1802,21
332,10	1734,63
332,31	1581,03
332,52	1703,91
332,74	1751,01
332,95	1621,99
333,16	1712,10
333,37	1730,53
333,58	1634,28
333,80	1691,62
334,01	1632,23
334,22	1683,43
334,43	1583,08
334,64	1720,29
334,86	1597,42
335,07	1628,14
335,28	1839,08
335,49	1621,99
335,70	1802,21
335,92	1796,07
336,13	1765,35
336,34	1722,34
336,55	1652,71
336,76	1769,44
336,98	1630,18
337,19	1683,43
337,40	1771,49
337,61	1849,32
337,82	1701,86
338,04	1740,77
338,25	1576,94
338,46	1705,96
338,67	1683,43
338,88	1654,76
339,09	1658,85
339,31	1660,90
339,52	1648,61
339,73	1703,91
339,94	1695,72
340,15	1734,63
340,36	1624,04
340,58	1748,97
340,79	1648,61
341,00	1800,16
341,21	1624,04
341,42	1843,17
341,63	1693,67
341,85	1736,68
342,06	1699,81
342,27	1695,72
342,48	1720,29
342,69	1632,23
342,90	1724,39
343,12	1732,58
343,33	1660,90
343,54	1732,58
343,75	1740,77
343,96	1691,62
344,17	1656,81
344,38	1675,24
344,60	1691,62
344,81	1652,71
345,02	1677,29
345,23	1804,26
345,44	1785,83
345,65	1742,82
345,86	1744,87
346,07	1791,97
346,29	1734,63
346,50	1751,01
346,71	1732,58
346,92	1828,84
347,13	1847,27
347,34	1798,12
347,55	1722,34
347,76	1791,97
347,98	1703,91
348,19	1699,81
348,40	1738,73
348,61	1619,94
348,82	1755,11
349,03	1687,53
349,24	1665,00
349,45	1837,03
349,66	1628,14
349,88	1660,90
350,09	1718,25
350,30	1794,02
350,51	1697,77
350,72	1681,38
350,93	1720,29
351,14	1638,38
351,35	1705,96
351,56	1699,81
351,77	1685,48
351,99	1693,67
352,20	1812,45
352,41	1716,20
352,62	1695,72
352,83	1718,25
353,04	1712,10
353,25	1730,53
353,46	1773,54
353,67	1736,68
353,88	1558,50
354,09	1714,15
354,30	1652,71
354,52	1662,95
354,73	1738,73
354,94	1634,28
355,15	1683,43
355,36	1859,56
355,57	1681,38
355,78	1650,66
355,99	1685,48
356,20	1734,63
356,41	1740,77
356,62	1703,91
356,83	1705,96
357,04	1861,60
357,25	1585,13
357,46	1630,18
357,68	1558,50
357,89	1689,57
358,10	1632,23
358,31	1703,91
358,52	1591,27
358,73	1673,19
358,94	1603,56
359,15	1660,90
359,36	1757,16
359,57	1650,66
359,78	1632,23
359,99	1816,55
360,20	1603,56
360,41	1699,81
360,62	1691,62
360,83	1718,25
361,04	1734,63
361,25	1701,86
361,46	1730,53
361,67	1714,15
361,88	1781,73
362,09	1787,88
362,30	1785,83
362,51	1658,85
362,72	1687,53
362,93	1734,63
363,14	1755,11
363,35	1722,34
363,56	1656,81
363,78	1728,49
363,99	1763,30
364,20	1699,81
364,41	1714,15
364,62	1759,21
364,83	1806,31
365,04	1685,48
365,25	1732,58
365,46	1779,68
365,67	1648,61
365,88	1591,27
366,09	1640,42
366,30	1693,67
366,51	1732,58
366,72	1650,66
366,93	1738,73
367,14	1761,25
367,35	1755,11
367,56	1619,94
367,77	1804,26
367,98	1701,86
368,18	1708,01
368,39	1701,86
368,60	1634,28
368,81	1804,26
369,02	1671,14
369,23	1724,39
369,44	1560,55
369,65	1703,91
369,86	1769,44
370,07	1802,21
370,28	1665,00
370,49	1738,73
370,70	1693,67
370,91	1646,57
371,12	1570,79
371,33	1699,81
371,54	1642,47
371,75	1771,49
371,96	1583,08
372,17	1621,99
372,38	1726,44
372,59	1771,49
372,80	1699,81
373,01	1681,38
373,22	1755,11
373,43	1642,47
373,64	1660,90
373,85	1841,12
374,06	1802,21
374,26	1683,43
374,47	1777,64
374,68	1765,35
374,89	1785,83
375,10	1722,34
375,31	1779,68
375,52	1742,82
375,73	1675,24
375,94	1703,91
376,15	1779,68
376,36	1660,90
376,57	1677,29
376,78	1681,38
376,99	1636,33
377,20	1804,26
377,40	1761,25
377,61	1824,74
377,82	1624,04
378,03	1728,49
378,24	1751,01
378,45	1669,09
378,66	1652,71
378,87	1697,77
379,08	1636,33
379,29	1718,25
379,50	1783,78
379,71	1671,14
379,91	1691,62
380,12	1691,62
380,33	1783,78
380,54	1712,10
380,75	1701,86
380,96	1728,49
381,17	1828,84
381,38	1695,72
381,59	1712,10
381,80	1648,61
382,00	1841,12
382,21	1755,11
382,42	1763,30
382,63	1839,08
382,84	1712,10
383,05	1718,25
383,26	1755,11
383,47	1804,26
383,68	1789,92
383,88	1677,29
384,09	1763,30
384,30	1820,64
384,51	1699,81
384,72	1646,57
384,93	1638,38
385,14	1695,72
385,35	1714,15
385,55	1640,42
385,76	1740,77
385,97	1820,64
386,18	1619,94
386,39	1632,23
386,60	1673,19
386,81	1693,67
387,02	1683,43
387,22	1662,95
387,43	1759,21
387,64	1753,06
387,85	1845,22
388,06	2228,19
388,27	4286,40
388,48	6846,36
388,68	8378,24
388,89	9766,76
389,10	9695,08
389,31	8771,45
389,52	7505,81
389,73	6754,20
389,93	6256,54
390,14	5941,16
390,35	5148,59
390,56	4650,94
390,77	3760,07
390,98	2992,08
391,18	2482,14
391,39	2140,13
391,60	1896,42
391,81	1753,06
392,02	1689,57
392,23	1892,32
392,43	1681,38
392,64	1828,84
392,85	1734,63
393,06	1826,79
393,27	1673,19
393,47	1681,38
393,68	1714,15
393,89	1687,53
394,10	1791,97
394,31	1716,20
394,52	1660,90
394,72	1568,74
394,93	1769,44
395,14	1658,85
395,35	1681,38
395,56	1701,86
395,76	1718,25
395,97	1705,96
396,18	1798,12
396,39	1861,60
396,60	2045,92
396,80	1843,17
397,01	1759,21
397,22	1775,59
397,43	1884,13
397,64	1691,62
397,84	1773,54
398,05	1841,12
398,26	1783,78
398,47	1773,54
398,67	1751,01
398,88	1675,24
399,09	1755,11
399,30	1669,09
399,51	1724,39
399,71	1603,56
399,92	1644,52
400,13	1791,97
400,34	1640,42
400,54	1757,16
400,75	1800,16
400,96	1693,67
401,17	1851,36
401,37	1791,97
401,58	1695,72
401,79	1732,58
402,00	1884,13
402,21	2019,30
402,41	1970,15
402,62	1994,72
402,83	2086,88
403,04	1957,86
403,24	2111,46
403,45	1865,70
403,66	1935,33
403,87	1927,14
404,07	1900,52
404,28	1849,32
404,49	1849,32
404,70	1765,35
404,90	1755,11
405,11	1710,05
405,32	1763,30
405,52	1673,19
405,73	1722,34
405,94	1697,77
406,15	1652,71
406,35	1712,10
406,56	1728,49
406,77	1619,94
406,98	1677,29
407,18	1658,85
407,39	1814,50
407,60	1748,97
407,80	1789,92
408,01	1716,20
408,22	1701,86
408,43	1613,80
408,63	1701,86
408,84	1730,53
409,05	1755,11
409,25	1679,33
409,46	1621,99
409,67	1636,33
409,88	1669,09
410,08	1673,19
410,29	1732,58
410,50	1724,39
410,70	1699,81
410,91	1652,71
411,12	1726,44
411,32	1726,44
411,53	1665,00
411,74	1826,79
411,95	1740,77
412,15	1785,83
412,36	1730,53
412,57	1783,78
412,77	1832,93
412,98	1693,67
413,19	1689,57
413,39	1806,31
413,60	1771,49
413,81	1781,73
414,01	1634,28
414,22	1734,63
414,43	1718,25
414,63	1660,90
414,84	1730,53
415,05	1640,42
415,25	1681,38
415,46	1730,53
415,67	1730,53
415,87	1677,29
416,08	1689,57
416,29	1681,38
416,49	1751,01
416,70	1628,14
416,91	1566,70
417,11	1681,38
417,32	1712,10
417,53	1708,01
417,73	1714,15
417,94	1660,90
418,15	1734,63
418,35	1742,82
418,56	1683,43
418,77	1896,42
418,97	1732,58
419,18	1701,86
419,38	1576,94
419,59	1658,85
419,80	1763,30
420,00	1652,71
420,21	1765,35
420,42	1804,26
420,62	1769,44
420,83	1697,77
421,04	1695,72
421,24	1671,14
421,45	1697,77
421,65	1738,73
421,86	1685,48
422,07	1716,20
422,27	1744,87
422,48	1687,53
422,69	1630,18
422,89	1665,00
423,10	1675,24
423,30	1593,32
423,51	1718,25
423,72	1662,95
423,92	1789,92
424,13	1593,32
424,33	1689,57
424,54	1791,97
424,75	1667,05
424,95	1791,97
425,16	1703,91
425,36	1605,61
425,57	1787,88
425,78	1644,52
425,98	1714,15
426,19	1724,39
426,39	1574,89
426,60	1742,82
426,81	1822,69
427,01	1701,86
427,22	1718,25
427,42	1544,17
427,63	1748,97
427,83	1742,82
428,04	1796,07
428,25	1753,06
428,45	1777,64
428,66	1830,88
428,86	1699,81
429,07	1636,33
429,28	1746,92
429,48	1673,19
429,69	1607,66
429,89	1705,96
430,10	1640,42
430,30	1710,05
430,51	1806,31
430,71	1710,05
430,92	1671,14
431,13	1708,01
431,33	1705,96
431,54	1726,44
431,74	1771,49
431,95	1886,18
432,15	1640,42
432,36	1757,16
432,56	1751,01
432,77	1767,40
432,98	1830,88
433,18	1705,96
433,39	1673,19
433,59	1677,29
433,80	1816,55
434,00	1816,55
434,21	1751,01
434,41	1705,96
434,62	1765,35
434,82	1679,33
435,03	1677,29
435,23	1685,48
435,44	1624,04
435,64	1728,49
435,85	1665,00
436,06	1687,53
436,26	1804,26
436,47	1681,38
436,67	1691,62
436,88	1693,67
437,08	1699,81
437,29	1714,15
437,49	1722,34
437,70	1814,50
437,90	1730,53
438,11	1734,63
438,31	1812,45
438,52	1849,32
438,72	1896,42
438,93	1871,84
439,13	1783,78
439,34	1804,26
439,54	1738,73
439,75	1787,88
439,95	1763,30
440,16	1685,48
440,36	1828,84
440,57	1845,22
440,77	1748,97
440,98	1703,91
441,18	1751,01
441,39	1738,73
441,59	1746,92
441,80	1814,50
442,00	1771,49
442,21	1830,88
442,41	1730,53
442,62	1726,44
442,82	1654,76
443,02	1787,88
443,23	1763,30
443,43	1718,25
443,64	1771,49
443,84	1693,67
444,05	1757,16
444,25	1814,50
444,46	1697,77
444,66	1724,39
444,87	1828,84
445,07	1626,09
445,28	1753,06
445,48	1791,97
445,69	1820,64
445,89	1863,65
446,09	1785,83
446,30	1949,67
446,50	2627,54
446,71	3788,74
446,91	4427,71
447,12	4722,62
447,32	4870,07
447,53	4323,26
447,73	3975,11
447,93	3594,19
448,14	3344,33
448,34	3155,92
448,55	2875,35
448,75	2887,64
448,96	2660,31
449,16	2426,84
449,36	2349,02
449,57	2054,11
449,77	1953,76
449,98	1869,80
450,18	1820,64
450,39	1783,78
450,59	1748,97
450,79	1730,53
451,00	1673,19
451,20	1740,77
451,41	1742,82
451,61	1789,92
451,81	1773,54
452,02	1740,77
452,22	1742,82
452,43	1712,10
452,63	1621,99
452,84	1796,07
453,04	1671,14
453,24	1732,58
453,45	1669,09
453,65	1748,97
453,86	1837,03
454,06	1720,29
454,26	1791,97
454,47	1654,76
454,67	1906,66
454,87	1755,11
455,08	1710,05
455,28	1892,32
455,49	1761,25
455,69	1662,95
455,89	1855,46
456,10	1884,13
456,30	1705,96
456,51	1847,27
456,71	1814,50
456,91	1720,29
457,12	1673,19
457,32	1773,54
457,52	1695,72
457,73	1796,07
457,93	1773,54
458,14	1710,05
458,34	1574,89
458,54	1765,35
458,75	1691,62
458,95	1767,40
459,15	1771,49
459,36	1820,64
459,56	1804,26
459,76	1853,41
459,97	1775,59
460,17	1744,87
460,37	1796,07
460,58	1757,16
460,78	1818,60
460,99	1748,97
461,19	1724,39
461,39	1755,11
461,60	1734,63
461,80	1763,30
462,00	1644,52
462,21	1665,00
462,41	1652,71
462,61	1708,01
462,82	1689,57
463,02	1802,21
463,22	1710,05
463,43	1800,16
463,63	1722,34
463,83	1748,97
464,04	1693,67
464,24	1697,77
464,44	1728,49
464,64	1689,57
464,85	1689,57
465,05	1794,02
465,25	1730,53
465,46	1720,29
465,66	1773,54
465,86	1839,08
466,07	1662,95
466,27	1669,09
466,47	1613,80
466,68	1611,75
466,88	1828,84
467,08	1769,44
467,29	1734,63
467,49	1804,26
467,69	1724,39
467,89	1802,21
468,10	1740,77
468,30	1839,08
468,50	1806,31
468,71	1757,16
468,91	1628,14
469,11	1826,79
469,31	1712,10
469,52	1712,10
469,72	1882,08
469,92	1845,22
470,13	1742,82
470,33	1775,59
470,53	1812,45
470,73	2148,32
470,94	2263,01
471,14	2295,77
471,34	2576,34
471,54	2316,25
471,75	2271,20
471,95	2156,51
472,15	2068,45
472,36	2123,74
472,56	2146,27
472,76	1994,72
472,96	1959,91
473,17	1976,29
473,37	1869,80
473,57	1810,40
473,77	1837,03
473,98	1718,25
474,18	1761,25
474,38	1871,84
474,58	1701,86
474,79	1734,63
474,99	1812,45
475,19	1810,40
475,39	1720,29
475,60	1748,97
475,80	1683,43
476,00	1697,77
476,20	1624,04
476,41	1771,49
476,61	1855,46
476,81	1789,92
477,01	1621,99
477,21	1861,60
477,42	1839,08
477,62	1626,09
477,82	1779,68
478,02	1791,97
478,23	1775,59
478,43	1671,14
478,63	1644,52
478,83	1681,38
479,03	1658,85
479,24	1773,54
479,44	1787,88
479,64	1701,86
479,84	1601,51
480,04	1660,90
480,25	1740,77
480,45	1691,62
480,65	1619,94
480,85	1742,82
481,06	1740,77
481,26	1677,29
481,46	1675,24
481,66	1730,53
481,86	1656,81
482,06	1802,21
482,27	1732,58
482,47	1671,14
482,67	1722,34
482,87	1730,53
483,07	1744,87
483,28	1693,67
483,48	1720,29
483,68	1753,06
483,88	1726,44
484,08	1603,56
484,29	1689,57
484,49	1662,95
484,69	1630,18
484,89	1806,31
485,09	1767,40
485,29	1755,11
485,50	1757,16
485,70	1644,52
485,90	1800,16
486,10	1685,48
486,30	1794,02
486,50	1732,58
486,71	1695,72
486,91	1724,39
487,11	1771,49
487,31	1652,71
487,51	1767,40
487,71	1708,01
487,91	1624,04
488,12	1695,72
488,32	1570,79
488,52	1650,66
488,72	1638,38
488,92	1746,92
489,12	1810,40
489,32	1734,63
489,53	1757,16
489,73	1593,32
489,93	1742,82
490,13	1722,34
490,33	1624,04
490,53	1718,25
490,73	1742,82
490,94	1712,10
491,14	1753,06
491,34	1820,64
491,54	2156,51
491,74	2576,34
491,94	2934,74
492,14	3022,80
492,34	3006,42
492,54	2746,33
492,75	2504,67
492,95	2406,36
493,15	2326,49
493,35	2281,44
493,55	2215,90
493,75	2160,61
493,95	2121,70
494,15	2072,54
494,35	1888,23
494,56	1853,41
494,76	1779,68
494,96	1767,40
495,16	1787,88
495,36	1687,53
495,56	1775,59
495,76	1742,82
495,96	1689,57
496,16	1662,95
496,36	1814,50
496,56	1720,29
496,77	1685,48
496,97	1703,91
497,17	1834,98
497,37	1662,95
497,57	1722,34
497,77	1746,92
497,97	1667,05
498,17	1714,15
498,37	1720,29
498,57	1677,29
498,77	1671,14
498,97	1847,27
499,17	1892,32
499,38	1665,00
499,58	1712,10
499,78	1802,21
499,98	1802,21
500,18	1691,62
500,38	1677,29
500,58	1896,42
500,78	2574,30
500,98	4573,11
501,18	5990,31
501,38	7022,48
501,58	7149,46
501,78	6637,47
501,98	5584,81
502,18	5126,07
502,38	4407,23
502,58	4204,48
502,78	3782,60
502,98	3719,11
503,18	3512,27
503,38	3139,54
503,59	2795,48
503,79	2654,17
503,99	2490,33
504,19	2287,58
504,39	2189,28
504,59	2164,70
504,79	2058,21
504,99	2047,97
505,19	1959,91
505,39	1869,80
505,59	1945,57
505,79	1910,75
505,99	1837,03
506,19	1769,44
506,39	1853,41
506,59	1716,20
506,79	1730,53
506,99	1871,84
507,19	1826,79
507,39	1773,54
507,59	1718,25
507,79	1648,61
507,99	1675,24
508,19	1726,44
508,39	1648,61
508,59	1773,54
508,79	1832,93
508,99	1816,55
509,19	1705,96
509,39	1699,81
509,59	1689,57
509,79	1718,25
509,99	1783,78
510,19	1802,21
510,39	1773,54
510,59	1689,57
510,79	1619,94
510,99	1693,67
511,19	1783,78
511,39	1845,22
511,59	1779,68
511,79	1800,16
511,99	1773,54
512,19	1912,80
512,38	1732,58
512,58	1634,28
512,78	1667,05
512,98	1775,59
513,18	1775,59
513,38	1669,09
513,58	1865,70
513,78	1681,38
513,98	1742,82
514,18	1703,91
514,38	1720,29
514,58	1783,78
514,78	1667,05
514,98	1685,48
515,18	1689,57
515,38	1673,19
515,58	1816,55
515,78	1726,44
515,98	1751,01
516,18	1687,53
516,38	1773,54
516,57	1804,26
516,77	1705,96
516,97	1726,44
517,17	1621,99
517,37	1628,14
517,57	1785,83
517,77	1660,90
517,97	1630,18
518,17	1898,47
518,37	1665,00
518,57	1716,20
518,77	1673,19
518,97	1677,29
519,16	1662,95
519,36	1785,83
519,56	1683,43
519,76	1681,38
519,96	1681,38
520,16	1773,54
520,36	1630,18
520,56	1810,40
520,76	1675,24
520,96	1763,30
521,16	1886,18
521,35	1767,40
521,55	1806,31
521,75	1779,68
521,95	1732,58
522,15	1640,42
522,35	1634,28
522,55	1687,53
522,75	1822,69
522,95	1748,97
523,14	1685,48
523,34	1755,11
523,54	1697,77
523,74	1769,44
523,94	1736,68
524,14	1679,33
524,34	1714,15
524,54	1818,60
524,73	1697,77
524,93	1773,54
525,13	1791,97
525,33	1603,56
525,53	1869,80
525,73	1796,07
525,93	1765,35
526,13	1701,86
526,32	1667,05
526,52	1857,51
526,72	1828,84
526,92	1783,78
527,12	1708,01
527,32	1626,09
527,52	1736,68
527,71	1783,78
527,91	1710,05
528,11	1675,24
528,31	1710,05
528,51	1763,30
528,71	1863,65
528,90	1763,30
529,10	1710,05
529,30	1814,50
529,50	1589,22
529,70	1716,20
529,90	1689,57
530,09	1724,39
530,29	1691,62
530,49	1687,53
530,69	1818,60
530,89	1730,53
531,09	1765,35
531,28	1710,05
531,48	1814,50
531,68	1685,48
531,88	1691,62
532,08	1759,21
532,28	1740,77
532,47	1693,67
532,67	1755,11
532,87	1724,39
533,07	1669,09
533,27	1763,30
533,46	1783,78
533,66	1834,98
533,86	1724,39
534,06	1716,20
534,26	1757,16
534,45	1722,34
534,65	1765,35
534,85	1734,63
535,05	1738,73
535,25	1857,51
535,44	1650,66
535,64	1738,73
535,84	1650,66
536,04	1701,86
536,24	1771,49
536,43	1742,82
536,63	1671,14
536,83	1763,30
537,03	1771,49
537,22	1587,18
537,42	1642,47
537,62	1718,25
537,82	1669,09
538,02	1820,64
538,21	1802,21
538,41	1890,28
538,61	1781,73
538,81	1619,94
539,00	1828,84
539,20	1656,81
539,40	1624,04
539,60	1765,35
539,79	1820,64
539,99	1804,26
540,19	1705,96
540,39	1665,00
540,58	1787,88
540,78	1732,58
540,98	1767,40
541,18	1832,93
541,37	1720,29
541,57	1691,62
541,77	1785,83
541,97	1599,46
542,16	1681,38
542,36	1734,63
542,56	1755,11
542,76	1890,28
542,95	1757,16
543,15	1742,82
543,35	1742,82
543,54	1675,24
543,74	1683,43
543,94	1775,59
544,14	1708,01
544,33	1744,87
544,53	1705,96
544,73	1679,33
544,93	1697,77
545,12	1656,81
545,32	1703,91
545,52	1714,15
545,71	1642,47
545,91	1761,25
546,11	1779,68
546,30	1767,40
546,50	1785,83
546,70	1779,68
546,90	1660,90
547,09	1611,75
547,29	1703,91
547,49	1736,68
547,68	1845,22
547,88	1628,14
548,08	1771,49
548,27	2164,70
548,47	1695,72
548,67	1640,42
548,87	1859,56
549,06	1699,81
549,26	1767,40
549,46	1800,16
549,65	1728,49
549,85	1763,30
550,05	1714,15
550,24	1652,71
550,44	1789,92
550,64	1806,31
550,83	1677,29
551,03	1841,12
551,23	1796,07
551,42	1787,88
551,62	1675,24
551,82	1677,29
552,01	1632,23
552,21	1789,92
552,41	1691,62
552,60	1802,21
552,80	1714,15
553,00	1728,49
553,19	1714,15
553,39	1828,84
553,59	1677,29
553,78	1724,39
553,98	1726,44
554,17	1738,73
554,37	1763,30
554,57	1734,63
554,76	1648,61
554,96	1673,19
555,16	1791,97
555,35	1751,01
555,55	1791,97
555,75	1746,92
555,94	1791,97
556,14	1632,23
556,33	1783,78
556,53	1712,10
556,73	1757,16
556,92	1759,21
557,12	1765,35
557,32	1892,32
557,51	1804,26
557,71	1779,68
557,90	1904,61
558,10	1804,26
558,30	1746,92
558,49	1763,30
558,69	1804,26
558,88	1769,44
559,08	1763,30
559,28	1697,77
559,47	1755,11
559,67	1720,29
559,86	1849,32
560,06	1830,88
560,26	1789,92
560,45	1742,82
560,65	1652,71
560,84	1814,50
561,04	1738,73
561,24	1732,58
561,43	1652,71
561,63	1751,01
561,82	1748,97
562,02	1708,01
562,22	1644,52
562,41	1695,72
562,61	1724,39
562,80	1607,66
563,00	1908,71
563,19	1849,32
563,39	1839,08
563,59	1746,92
563,78	1589,22
563,98	1619,94
564,17	1632,23
564,37	1529,83
564,56	1648,61
564,76	1699,81
564,96	1773,54
565,15	1683,43
565,35	1845,22
565,54	1687,53
565,74	1781,73
565,93	1773,54
566,13	1746,92
566,32	1724,39
566,52	1849,32
566,71	1722,34
566,91	1769,44
567,11	1759,21
567,30	1730,53
567,50	1810,40
567,69	1771,49
567,89	1708,01
568,08	1742,82
568,28	1722,34
568,47	1681,38
568,67	1777,64
568,86	1613,80
569,06	1818,60
569,25	1744,87
569,45	1693,67
569,64	1773,54
569,84	1693,67
570,04	1746,92
570,23	1814,50
570,43	1648,61
570,62	1796,07
570,82	1857,51
571,01	1724,39
571,21	1732,58
571,40	1632,23
571,60	1781,73
571,79	1785,83
571,99	1757,16
572,18	1654,76
572,38	1810,40
572,57	1753,06
572,77	1771,49
572,96	1877,99
573,16	1773,54
573,35	1683,43
573,55	1785,83
573,74	1732,58
573,94	1773,54
574,13	1814,50
574,33	1808,36
574,52	1841,12
574,71	1665,00
574,91	1677,29
575,10	1689,57
575,30	1677,29
575,49	1791,97
575,69	1691,62
575,88	1757,16
576,08	1683,43
576,27	1787,88
576,47	1724,39
576,66	1863,65
576,86	1810,40
577,05	1716,20
577,25	1775,59
577,44	1853,41
577,64	1798,12
577,83	1748,97
578,02	1742,82
578,22	1751,01
578,41	1847,27
578,61	1718,25
578,80	1701,86
579,00	1828,84
579,19	1771,49
579,39	1736,68
579,58	1824,74
579,77	1716,20
579,97	1863,65
580,16	1880,04
580,36	1832,93
580,55	1812,45
580,75	1728,49
580,94	1734,63
581,13	1775,59
581,33	1877,99
581,52	1800,16
581,72	1851,36
581,91	1769,44
582,11	1722,34
582,30	1773,54
582,49	1773,54
582,69	1902,56
582,88	1849,32
583,08	1763,30
583,27	1816,55
583,47	1759,21
583,66	1718,25
583,85	1642,47
584,05	1691,62
584,24	1880,04
584,44	1800,16
584,63	1767,40
584,82	1839,08
585,02	1787,88
585,21	1816,55
585,41	1775,59
585,60	1826,79
585,79	1890,28
585,99	1916,90
586,18	1857,51
586,37	2224,09
586,57	3348,43
586,76	9979,75
586,96	25116,29
587,15	34340,34
587,34	41211,28
587,54	42925,42
587,73	37283,27
587,93	26846,82
588,12	21960,37
588,31	18708,19
588,51	16508,68
588,70	15173,40
588,89	14102,31
589,09	12724,03
589,28	11212,63
589,47	9559,92
589,67	8175,49
589,86	6471,58
590,06	4947,89
590,25	4061,12
590,44	3176,40
590,64	2576,34
590,83	2226,14
591,02	2152,42
591,22	1853,41
591,41	1914,85
591,60	1873,89
591,80	1994,72
591,99	1687,53
592,18	1816,55
592,38	1742,82
592,57	1724,39
592,76	1789,92
592,96	1744,87
593,15	1726,44
593,34	1828,84
593,54	1724,39
593,73	1853,41
593,92	1718,25
594,12	1751,01
594,31	1740,77
594,50	1806,31
594,70	1783,78
594,89	1869,80
595,08	1654,76
595,28	1746,92
595,47	1943,52
595,66	1732,58
595,86	1654,76
596,05	1685,48
596,24	1691,62
596,43	1857,51
596,63	1773,54
596,82	1765,35
597,01	1787,88
597,21	1826,79
597,40	1781,73
597,59	1734,63
597,79	1695,72
597,98	1814,50
598,17	1699,81
598,36	1785,83
598,56	1779,68
598,75	1724,39
598,94	1771,49
599,14	1820,64
599,33	1751,01
599,52	1791,97
599,71	1783,78
599,91	1794,02
600,10	1773,54
600,29	1787,88
600,48	1732,58
600,68	1830,88
600,87	1742,82
601,06	1638,38
601,26	1771,49
601,45	1683,43
601,64	1730,53
601,83	1830,88
602,03	1769,44
602,22	1654,76
602,41	1783,78
602,60	1820,64
602,80	1808,36
602,99	1779,68
603,18	1699,81
603,37	1701,86
603,57	1808,36
603,76	1789,92
603,95	1785,83
604,14	1658,85
604,34	1679,33
604,53	1746,92
604,72	1685,48
604,91	1789,92
605,10	1757,16
605,30	1624,04
605,49	1943,52
605,68	1804,26
605,87	1724,39
606,07	1654,76
606,26	1767,40
606,45	1781,73
606,64	1716,20
606,84	1763,30
607,03	1751,01
607,22	1802,21
607,41	1638,38
607,60	1656,81
607,80	1699,81
607,99	1718,25
608,18	1703,91
608,37	1685,48
608,56	1665,00
608,76	1816,55
608,95	1816,55
609,14	1746,92
609,33	1714,15
609,52	1771,49
609,72	1730,53
609,91	1816,55
610,10	1740,77
610,29	1759,21
610,48	1718,25
610,68	1740,77
610,87	1796,07
611,06	1751,01
611,25	1693,67
611,44	1832,93
611,63	1763,30
611,83	1748,97
612,02	1652,71
612,21	1785,83
612,40	1650,66
612,59	1718,25
612,79	1632,23
612,98	1667,05
613,17	1869,80
613,36	1722,34
613,55	1810,40
613,74	1732,58
613,93	1761,25
614,13	1757,16
614,32	1726,44
614,51	1816,55
614,70	1662,95
614,89	1691,62
615,08	1800,16
615,28	2023,39
615,47	1613,80
615,66	1726,44
615,85	1683,43
616,04	1730,53
616,23	1742,82
616,42	1683,43
616,62	1732,58
616,81	1830,88
617,00	1773,54
617,19	1822,69
617,38	1814,50
617,57	1722,34
617,76	1751,01
617,95	1699,81
618,15	1763,30
618,34	1779,68
618,53	1658,85
618,72	1724,39
618,91	1787,88
619,10	1849,32
619,29	1697,77
619,48	1724,39
619,68	1697,77
619,87	1632,23
620,06	1708,01
620,25	1820,64
620,44	1681,38
620,63	1638,38
620,82	1744,87
621,01	1675,24
621,20	1773,54
621,39	1746,92
621,59	1718,25
621,78	1771,49
621,97	1701,86
622,16	1794,02
622,35	1751,01
622,54	1830,88
622,73	1804,26
622,92	1626,09
623,11	1808,36
623,30	1705,96
623,49	1755,11
623,68	1665,00
623,88	1812,45
624,07	1728,49
624,26	1687,53
624,45	1722,34
624,64	1705,96
624,83	1759,21
625,02	1802,21
625,21	1708,01
625,40	1675,24
625,59	1722,34
625,78	1730,53
625,97	1839,08
626,16	1777,64
626,35	1722,34
626,54	1636,33
626,74	1789,92
626,93	1695,72
627,12	1710,05
627,31	1755,11
627,50	1708,01
627,69	1769,44
627,88	1660,90
628,07	1660,90
628,26	1638,38
628,45	1656,81
628,64	1689,57
628,83	1691,62
629,02	1671,14
629,21	1832,93
629,40	1693,67
629,59	1626,09
629,78	1722,34
629,97	1726,44
630,16	1777,64
630,35	1640,42
630,54	1654,76
630,73	1673,19
630,92	1708,01
631,11	1648,61
631,30	1800,16
631,49	1748,97
631,68	1738,73
631,87	1699,81
632,06	1646,57
632,25	1767,40
632,44	1695,72
632,63	1681,38
632,82	1593,32
633,01	1601,51
633,20	1722,34
633,39	1654,76
633,58	1587,18
633,77	1705,96
633,96	1769,44
634,15	1751,01
634,34	1779,68
634,53	1763,30
634,72	1667,05
634,91	1632,23
635,10	1705,96
635,29	1726,44
635,48	1675,24
635,67	1652,71
635,86	1648,61
636,05	1781,73
636,24	1763,30
636,43	1736,68
636,62	1703,91
636,81	1574,89
637,00	1714,15
637,19	1736,68
637,38	1716,20
637,57	1644,52
637,76	1714,15
637,95	1654,76
638,14	1669,09
638,33	1665,00
638,52	1665,00
638,71	1665,00
638,89	1675,24
639,08	1785,83
639,27	1800,16
639,46	1632,23
639,65	1787,88
639,84	1787,88
640,03	1716,20
640,22	1669,09
640,41	1851,36
640,60	1632,23
640,79	1710,05
640,98	1734,63
641,17	1781,73
641,36	1798,12
641,55	1705,96
641,74	1662,95
641,92	1593,32
642,11	1701,86
642,30	1746,92
642,49	1687,53
642,68	1724,39
642,87	1751,01
643,06	1683,43
643,25	1677,29
643,44	1669,09
643,63	1767,40
643,82	1775,59
644,00	1730,53
644,19	1718,25
644,38	1603,56
644,57	1763,30
644,76	1736,68
644,95	1716,20
645,14	1744,87
645,33	1755,11
645,52	1687,53
645,71	1662,95
645,89	1720,29
646,08	1673,19
646,27	1714,15
646,46	1826,79
646,65	1591,27
646,84	1757,16
647,03	1675,24
647,22	1781,73
647,40	1755,11
647,59	1689,57
647,78	1603,56
647,97	1658,85
648,16	1658,85
648,35	1767,40
648,54	1800,16
648,73	1705,96
648,91	1796,07
649,10	1705,96
649,29	1744,87
649,48	1675,24
649,67	1636,33
649,86	1683,43
650,05	1662,95
650,23	1710,05
650,42	1613,80
650,61	1689,57
650,80	1787,88
650,99	1816,55
651,18	1726,44
651,36	1771,49
651,55	1667,05
651,74	1759,21
651,93	1681,38
652,12	1677,29
652,31	1669,09
652,49	1759,21
652,68	1787,88
652,87	1779,68
653,06	1710,05
653,25	1806,31
653,44	1697,77
653,62	1767,40
653,81	1738,73
654,00	1726,44
654,19	1771,49
654,38	1869,80
654,56	1753,06
654,75	1716,20
654,94	1757,16
655,13	1751,01
655,32	1693,67
655,51	1816,55
655,69	1693,67
655,88	1718,25
656,07	1685,48
656,26	1787,88
656,45	1593,32
656,63	1720,29
656,82	1714,15
657,01	1757,16
657,20	1695,72
657,38	1730,53
657,57	1714,15
657,76	1583,08
657,95	1771,49
658,14	1685,48
658,32	1810,40
658,51	1615,85
658,70	1769,44
658,89	1804,26
659,08	1689,57
659,26	1742,82
659,45	1644,52
659,64	1640,42
659,83	1726,44
660,01	1894,37
660,20	1746,92
660,39	1759,21
660,58	1619,94
660,76	1751,01
660,95	1576,94
661,14	1683,43
661,33	1656,81
661,51	1714,15
661,70	1660,90
661,89	1710,05
662,08	1746,92
662,26	1746,92
662,45	1662,95
662,64	1882,08
662,83	1771,49
663,01	1665,00
663,20	1716,20
663,39	1742,82
663,58	1726,44
663,76	1718,25
663,95	1701,86
664,14	1769,44
664,32	1689,57
664,51	1646,57
664,70	1699,81
664,89	1683,43
665,07	1687,53
665,26	1769,44
665,45	1656,81
665,64	1746,92
665,82	1724,39
666,01	1812,45
666,20	1636,33
666,38	1810,40
666,57	1841,12
666,76	2250,72
666,95	4515,77
667,13	10622,81
667,32	15480,60
667,51	17991,41
667,69	19267,29
667,88	17829,62
668,07	12486,47
668,25	9670,51
668,44	8109,96
668,63	7491,47
668,81	7018,39
669,00	6477,73
669,19	5762,98
669,38	5048,24
669,56	4585,40
669,75	3944,39
669,94	3405,77
670,12	2942,93
670,31	2484,19
670,50	2289,63
670,68	2107,36
670,87	1918,95
671,06	1834,98
671,24	1845,22
671,43	1828,84
671,62	1710,05
671,80	1746,92
671,99	1701,86
672,18	1781,73
672,36	1732,58
672,55	1746,92
672,74	1708,01
672,92	1689,57
673,11	1742,82
673,29	1701,86
673,48	1773,54
673,67	1728,49
673,85	1841,12
674,04	1703,91
674,23	1697,77
674,41	1816,55
674,60	1658,85
674,79	1669,09
674,97	1662,95
675,16	1689,57
675,34	1705,96
675,53	1691,62
675,72	1712,10
675,90	1777,64
676,09	1726,44
676,28	1730,53
676,46	1583,08
676,65	1763,30
676,83	1613,80
677,02	1701,86
677,21	1757,16
677,39	1738,73
677,58	1644,52
677,77	1677,29
677,95	1689,57
678,14	1771,49
678,32	1642,47
678,51	1646,57
678,70	1804,26
678,88	1701,86
679,07	1769,44
679,25	1751,01
679,44	1658,85
679,63	1572,84
679,81	1656,81
680,00	1796,07
680,18	1757,16
680,37	1767,40
680,55	1673,19
680,74	1632,23
680,93	1642,47
681,11	1705,96
681,30	1667,05
681,48	1689,57
681,67	1646,57
681,85	1697,77
682,04	1640,42
682,23	1701,86
682,41	1667,05
682,60	1656,81
682,78	1720,29
682,97	1634,28
683,15	1771,49
683,34	1705,96
683,53	1744,87
683,71	1585,13
683,90	1822,69
684,08	1794,02
684,27	1718,25
684,45	1783,78
684,64	1615,85
684,82	1683,43
685,01	1730,53
685,19	1701,86
685,38	1781,73
685,57	1753,06
685,75	1730,53
685,94	1662,95
686,12	1634,28
686,31	1718,25
686,49	1787,88
686,68	1665,00
686,86	1697,77
687,05	1693,67
687,23	1765,35
687,42	1660,90
687,60	1611,75
687,79	1718,25
687,97	1775,59
688,16	1771,49
688,34	1753,06
688,53	1667,05
688,71	1734,63
688,90	1761,25
689,08	1703,91
689,27	1613,80
689,45	1730,53
689,64	1667,05
689,82	1767,40
690,01	1720,29
690,19	1705,96
690,38	1720,29
690,56	1826,79
690,75	1718,25
690,93	1593,32
691,12	1619,94
691,30	1703,91
691,49	1689,57
691,67	1744,87
691,86	1837,03
692,04	1673,19
692,23	1693,67
692,41	1646,57
692,60	1902,56
692,78	1728,49
692,97	1630,18
693,15	1681,38
693,34	1748,97
693,52	1775,59
693,71	1685,48
693,89	1710,05
694,08	1599,46
694,26	1736,68
694,44	1804,26
694,63	1824,74
694,81	1675,24
695,00	1626,09
695,18	1716,20
695,37	1849,32
695,55	1681,38
695,74	1683,43
695,92	1689,57
696,10	1742,82
696,29	1701,86
696,47	1595,37
696,66	1593,32
696,84	1675,24
697,03	1665,00
697,21	1841,12
697,40	2199,52
697,58	1837,03
697,76	1689,57
697,95	1640,42
698,13	1654,76
698,32	1646,57
698,50	1671,14
698,68	1724,39
698,87	1742,82
699,05	1763,30
699,24	1708,01
699,42	1697,77
699,61	1791,97
699,79	1605,61
699,97	1767,40
700,16	1546,22
700,34	1619,94
700,53	1724,39
700,71	1767,40
700,89	1708,01
701,08	1767,40
701,26	1650,66
701,45	2123,74
701,63	1613,80
701,81	1683,43
702,00	1708,01
702,18	1714,15
702,37	1705,96
702,55	1773,54
702,73	1742,82
702,92	1599,46
703,10	1767,40
703,28	1718,25
703,47	1603,56
703,65	1730,53
703,84	1714,15
704,02	1710,05
704,20	1808,36
704,39	1712,10
704,57	1712,10
704,75	1773,54
704,94	1767,40
705,12	1771,49
705,30	1822,69
705,49	2252,77
705,67	4327,36
705,86	9373,55
706,04	12859,20
706,22	14751,52
706,41	15509,27
706,59	13991,72
706,77	9705,32
706,96	7530,38
707,14	6627,23
707,32	6080,42
707,51	5734,31
707,69	4902,84
707,87	4366,27
708,06	3573,71
708,24	2879,44
708,42	2426,84
708,61	2242,53
708,79	1925,09
708,97	1791,97
709,16	1822,69
709,34	1794,02
709,52	1753,06
709,71	1765,35
709,89	1734,63
710,07	1724,39
710,26	1642,47
710,44	1640,42
710,62	1757,16
710,80	1681,38
710,99	1748,97
711,17	1765,35
711,35	1658,85
711,54	1642,47
711,72	1783,78
711,90	1806,31
712,09	1751,01
712,27	1646,57
712,45	1804,26
712,63	1669,09
712,82	1669,09
713,00	1654,76
713,18	1722,34
713,37	1816,55
713,55	1722,34
713,73	1681,38
713,91	1763,30
714,10	1708,01
714,28	1705,96
714,46	1773,54
714,65	1781,73
714,83	1755,11
715,01	1703,91
715,19	1736,68
715,38	1695,72
715,56	1699,81
715,74	1703,91
715,92	1595,37
716,11	1783,78
716,29	1695,72
716,47	1683,43
716,65	1675,24
716,84	1597,42
717,02	1746,92
717,20	1718,25
717,38	1628,14
717,57	1732,58
717,75	1740,77
717,93	1665,00
718,11	1730,53
718,30	1644,52
718,48	1728,49
718,66	1769,44
718,84	1796,07
719,03	1759,21
719,21	1660,90
719,39	1767,40
719,57	1716,20
719,75	1740,77
719,94	1654,76
720,12	1691,62
720,30	1662,95
720,48	1791,97
720,67	1722,34
720,85	1656,81
721,03	1724,39
721,21	1705,96
721,39	1744,87
721,58	1738,73
721,76	1689,57
721,94	1744,87
722,12	1761,25
722,30	1751,01
722,49	1691,62
722,67	1665,00
722,85	1736,68
723,03	1650,66
723,21	1693,67
723,40	1765,35
723,58	1732,58
723,76	1665,00
723,94	1732,58
724,12	1783,78
724,30	1710,05
724,49	1820,64
724,67	1587,18
724,85	1767,40
725,03	1677,29
725,21	1728,49
725,40	1728,49
725,58	1644,52
725,76	1787,88
725,94	1689,57
726,12	1615,85
726,30	1720,29
726,49	1648,61
726,67	1585,13
726,85	1703,91
727,03	1777,64
727,21	2224,09
727,39	2914,26
727,57	3782,60
727,76	4276,16
727,94	4417,47
728,12	4423,61
728,30	3862,47
728,48	3049,43
728,66	2813,91
728,84	2502,62
729,03	2334,68
729,21	2127,84
729,39	1988,58
729,57	1806,31
729,75	1806,31
729,93	1837,03
730,11	1726,44
730,30	1669,09
730,48	1648,61
730,66	1755,11
730,84	1761,25
731,02	1677,29
731,20	1701,86
731,38	1728,49
731,56	1603,56
731,74	1650,66
731,93	1724,39
732,11	1669,09
732,29	1744,87
732,47	1726,44
732,65	1716,20
732,83	1728,49
733,01	1726,44
733,19	1642,47
733,37	1705,96
733,56	1720,29
733,74	1640,42
733,92	1777,64
734,10	1636,33
734,28	1742,82
734,46	1587,18
734,64	1712,10
734,82	1718,25
735,00	1687,53
735,18	1681,38
735,36	1650,66
735,54	1712,10
735,73	1726,44
735,91	1720,29
736,09	1826,79
736,27	1679,33
736,45	1691,62
736,63	1624,04
736,81	1734,63
736,99	1777,64
737,17	1800,16
737,35	1779,68
737,53	1677,29
737,71	1644,52
737,89	1837,03
738,07	1646,57
738,25	1705,96
738,43	1619,94
738,61	1685,48
738,80	1722,34
738,98	1685,48
739,16	1667,05
739,34	1599,46
739,52	1826,79
739,70	1695,72
739,88	1718,25
740,06	1730,53
740,24	1656,81
740,42	1834,98
740,60	1675,24
740,78	1648,61
740,96	1632,23
741,14	1665,00
741,32	1742,82
741,50	1630,18
741,68	1871,84
741,86	1738,73
742,04	1636,33
742,22	1681,38
742,40	1689,57
742,58	1740,77
742,76	1658,85
742,94	1814,50
743,12	1615,85
743,30	1728,49
743,48	1710,05
743,66	1710,05
743,84	1722,34
744,02	1628,14
744,20	1636,33
744,38	1609,70
744,56	1699,81
744,74	1884,13
744,92	1640,42
745,10	1789,92
745,28	1804,26
745,46	1734,63
745,64	1708,01
745,82	1757,16
746,00	1748,97
746,18	1683,43
746,36	1681,38
746,54	1710,05
746,72	1681,38
746,90	1644,52
747,08	1775,59
747,26	1660,90
747,44	1728,49
747,62	1746,92
747,80	1675,24
747,98	1716,20
748,15	1701,86
748,33	1834,98
748,51	1708,01
748,69	1753,06
748,87	1648,61
749,05	1611,75
749,23	1658,85
749,41	1714,15
749,59	1646,57
749,77	1714,15
749,95	1763,30
750,13	1648,61
750,31	1677,29
750,49	1636,33
750,67	1728,49
750,85	1769,44
751,03	1677,29
751,20	1755,11
751,38	1695,72
751,56	1646,57
751,74	1708,01
751,92	1658,85
752,10	1624,04
752,28	1779,68
752,46	1599,46
752,64	1683,43
752,82	1763,30
753,00	1732,58
753,18	1665,00
753,35	1742,82
753,53	1710,05
753,71	1665,00
753,89	1671,14
754,07	1718,25
754,25	1734,63
754,43	1667,05
754,61	1656,81
754,79	1689,57
754,97	1699,81
755,14	1785,83
755,32	1646,57
755,50	1699,81
755,68	1755,11
755,86	1624,04
756,04	1658,85
756,22	1617,90
756,40	1767,40
756,57	1859,56
756,75	1683,43
756,93	1757,16
757,11	1791,97
757,29	1634,28
757,47	1669,09
757,65	1603,56
757,82	1607,66
758,00	1683,43
758,18	1640,42
758,36	1691,62
758,54	1830,88
758,72	1634,28
758,90	1800,16
759,07	1644,52
759,25	1714,15
759,43	1718,25
759,61	1634,28
759,79	2209,76
759,97	1738,73
760,15	1746,92
760,32	1652,71
760,50	1742,82
760,68	1839,08
760,86	1660,90
761,04	1718,25
761,22	1851,36
761,39	1701,86
761,57	1705,96
761,75	1689,57
761,93	1769,44
762,11	1785,83
762,28	1716,20
762,46	1714,15
762,64	1720,29
762,82	1648,61
763,00	1636,33
763,18	1761,25
763,35	1640,42
763,53	1757,16
763,71	1718,25
763,89	1708,01
764,07	1781,73
764,24	1679,33
764,42	1777,64
764,60	1689,57
764,78	1728,49
764,96	1767,40
765,13	1742,82
765,31	1701,86
765,49	1705,96
765,67	1669,09
765,84	1609,70
766,02	1669,09
766,20	1642,47
766,38	1693,67
766,56	1742,82
766,73	1697,77
766,91	1703,91
767,09	1677,29
767,27	1755,11
767,44	1595,37
767,62	1716,20
767,80	1693,67
767,98	1677,29
768,15	1671,14
768,33	1730,53
768,51	1693,67
768,69	1748,97
768,87	1732,58
769,04	1689,57
769,22	1757,16
769,40	1751,01
769,58	1744,87
769,75	1761,25
769,93	1884,13
770,11	1716,20
770,28	1669,09
770,46	1740,77
770,64	1755,11
770,82	1673,19
770,99	1681,38
771,17	1736,68
771,35	1726,44
771,53	1673,19
771,70	1708,01
771,88	1691,62
772,06	1652,71
772,23	1656,81
772,41	1722,34
772,59	1708,01
772,77	1650,66
772,94	1665,00
773,12	1748,97
773,30	1599,46
773,47	1683,43
773,65	1697,77
773,83	1826,79
774,01	1628,14
774,18	1568,74
774,36	1648,61
774,54	1621,99
774,71	1658,85
774,89	1564,65
775,07	1654,76
775,24	1708,01
775,42	1603,56
775,60	1787,88
775,78	1689,57
775,95	1626,09
776,13	1617,90
776,31	1544,17
776,48	1765,35
776,66	1705,96
776,84	1685,48
777,01	1681,38
777,19	1685,48
777,37	1599,46
777,54	1714,15
777,72	1775,59
777,90	1734,63
778,07	1763,30
778,25	1853,41
778,43	1685,48
778,60	1644,52
778,78	1849,32
778,96	1806,31
779,13	1609,70
779,31	1736,68
779,49	1689,57
779,66	1685,48
779,84	1720,29
780,01	1687,53
780,19	1624,04
780,37	1763,30
780,54	1800,16
780,72	1681,38
780,90	1779,68
781,07	1705,96
781,25	1683,43
781,43	1789,92
781,60	1751,01
781,78	1728,49
781,95	1673,19
782,13	1728,49
782,31	1665,00
782,48	1642,47
782,66	1761,25
782,83	1763,30
783,01	1712,10
783,19	1722,34
783,36	1689,57
783,54	1617,90
783,72	1771,49
783,89	1679,33
784,07	1632,23
784,24	1775,59
784,42	1742,82
784,60	1703,91
784,77	1740,77
784,95	1611,75
785,12	1665,00
785,30	1687,53
785,47	1640,42
785,65	1705,96
785,83	1613,80
786,00	1691,62
786,18	1728,49
786,35	1665,00
786,53	1644,52
786,71	1759,21
786,88	1753,06
787,06	1705,96
787,23	1697,77
787,41	1656,81
787,58	1652,71
787,76	1603,56
787,94	1689,57
788,11	1703,91
788,29	1691,62
788,46	1673,19
788,64	1701,86
788,81	1681,38
788,99	1642,47
789,16	1615,85
789,34	1685,48
789,52	1701,86
789,69	1771,49
789,87	1679,33
790,04	1656,81
790,22	1748,97
790,39	1841,12
790,57	1619,94
790,74	1636,33
790,92	1751,01
791,09	1691,62
791,27	1628,14
791,44	1767,40
791,62	1730,53
791,79	1783,78
791,97	1665,00
792,15	1861,60
792,32	1771,49
792,50	1738,73
792,67	1802,21
792,85	1841,12
793,02	1697,77
793,20	1652,71
793,37	1677,29
793,55	1687,53
793,72	1656,81
793,90	1738,73
794,07	1720,29
794,25	1671,14
794,42	1763,30
794,60	1634,28
794,77	1763,30
794,95	1722,34
795,12	1755,11
795,30	1726,44
795,47	1628,14
795,65	1861,60
795,82	1632,23
796,00	1785,83
796,17	1751,01
796,34	1705,96
796,52	1701,86
796,69	1734,63
796,87	1712,10
797,04	1642,47
797,22	1767,40
797,39	1677,29
797,57	1710,05
797,74	1783,78
797,92	1708,01
798,09	1701,86
798,27	1724,39
798,44	1681,38
798,62	1607,66
798,79	1732,58
798,96	1677,29
799,14	1630,18
799,31	1804,26
799,49	1705,96
799,66	1613,80
799,84	1660,90
800,01	1642,47
800,19	1740,77
800,36	1611,75
800,53	1708,01
800,71	1775,59
800,88	1869,80
801,06	1648,61
801,23	1626,09
801,41	1691,62
801,58	1613,80
801,75	1636,33
801,93	1791,97
802,10	1740,77
802,28	1621,99
802,45	1624,04
802,63	1742,82
802,80	1679,33
802,97	1681,38
803,15	1759,21
803,32	1746,92
803,50	1621,99
803,67	1636,33
803,84	1585,13
804,02	1689,57
804,19	1669,09
804,37	1591,27
804,54	1611,75
804,71	1660,90
804,89	1677,29
805,06	1665,00
805,24	1644,52
805,41	1595,37
805,58	1744,87
805,76	1796,07
805,93	1679,33
806,10	1804,26
806,28	1837,03
806,45	1636,33
806,63	1683,43
806,80	1646,57
806,97	1689,57
807,15	1695,72
807,32	1728,49
807,49	1679,33
807,67	1687,53
807,84	1683,43
808,01	1673,19
808,19	1789,92
808,36	1785,83
808,54	1640,42
808,71	1652,71
808,88	1720,29
809,06	1677,29
809,23	1738,73
809,40	1638,38
809,58	1746,92
809,75	1656,81
809,92	1574,89
810,10	1839,08
810,27	1701,86
810,44	1615,85
810,62	1665,00
810,79	1740,77
810,96	1642,47
811,14	1710,05
811,31	1728,49
811,48	1765,35
811,66	1800,16
811,83	1712,10
812,00	1757,16
812,18	1681,38
812,35	1857,51
812,52	1568,74
812,69	1718,25
812,87	1640,42
813,04	1652,71
813,21	1695,72
813,39	1660,90
813,56	1656,81
813,73	1722,34
813,91	1538,02
814,08	1642,47
814,25	1734,63
814,42	1697,77
814,60	1644,52
814,77	1650,66
814,94	1761,25
815,12	1720,29
815,29	1806,31
815,46	1683,43
815,63	1689,57
815,81	1736,68
815,98	1658,85
816,15	1630,18
816,33	1726,44
816,50	1681,38
816,67	1681,38
816,84	1722,34
817,02	1697,77
817,19	1671,14
817,36	1765,35
817,53	1691,62
817,71	1626,09
817,88	1693,67
818,05	1701,86
818,22	1630,18
818,40	1808,36
818,57	1726,44
818,74	1775,59
818,91	1718,25
819,09	1806,31
819,26	1656,81
819,43	1732,58
819,60	1613,80
819,78	1724,39
819,95	1802,21
820,12	1585,13
820,29	1773,54
820,47	1730,53
820,64	1671,14
820,81	1728,49
820,98	1665,00
821,15	1669,09
821,33	1757,16
821,50	1619,94
821,67	1787,88
821,84	1630,18
822,02	1726,44
822,19	1744,87
822,36	1632,23
822,53	1712,10
822,70	1595,37
822,88	1617,90
823,05	1826,79
823,22	1708,01
823,39	1779,68
823,56	1681,38
823,74	1796,07
823,91	1708,01
824,08	1662,95
824,25	1644,52
824,42	1718,25
824,60	1646,57
824,77	1757,16
824,94	1652,71
825,11	1757,16
825,28	1603,56
825,45	1720,29
825,63	1724,39
825,80	1632,23
825,97	1697,77
826,14	1796,07
826,31	1583,08
826,48	1703,91
826,66	1679,33
826,83	1677,29
827,00	1779,68
827,17	1597,42
827,34	1595,37
827,51	1693,67
827,69	1703,91
827,86	1599,46
828,03	1669,09
828,20	1665,00
828,37	1611,75
828,54	1685,48
828,71	1679,33
828,89	1812,45
829,06	1751,01
829,23	1785,83
829,40	1650,66
829,57	1691,62
829,74	1689,57
829,91	1665,00
830,09	1542,12
830,26	1705,96
830,43	1730,53
830,60	1644,52
830,77	1746,92
830,94	1738,73
831,11	1775,59
831,28	1669,09
831,46	1763,30
831,63	1671,14
831,80	1781,73
831,97	1648,61
832,14	1644,52
832,31	1740,77
832,48	1662,95
832,65	1714,15
832,82	1771,49
832,99	1738,73
833,17	1673,19
833,34	1765,35
833,51	1683,43
833,68	1689,57
833,85	1775,59
834,02	1634,28
834,19	1671,14
834,36	1675,24
834,53	1767,40
834,70	1769,44
834,87	1771,49
835,04	1691,62
835,22	1681,38
835,39	1685,48
835,56	1660,90
835,73	1691,62
835,90	1734,63
836,07	1644,52
836,24	1789,92
836,41	1654,76
836,58	1617,90
836,75	1703,91
836,92	1779,68
837,09	1708,01
837,26	1757,16
837,43	1806,31
837,60	1695,72
837,77	1658,85
837,94	1730,53
838,12	1722,34
838,29	1785,83
838,46	1593,32
838,63	1585,13
838,80	1708,01
838,97	1685,48
839,14	1800,16
839,31	1740,77
839,48	1681,38
839,65	1701,86
839,82	1695,72
839,99	1726,44
840,16	1658,85
840,33	1710,05
840,50	1722,34
840,67	1585,13
840,84	1558,50
841,01	1744,87
841,18	1665,00
841,35	1671,14
841,52	1720,29
841,69	1841,12
841,86	1660,90
842,03	1701,86
842,20	1648,61
842,37	1724,39
842,54	1697,77
842,71	1736,68
842,88	1693,67
843,05	1820,64
843,22	1656,81
843,39	1812,45
843,56	1646,57
843,73	1691,62
843,90	1689,57
844,07	1691,62
844,24	1736,68
844,41	1714,15
844,58	1685,48
844,75	1728,49
844,92	1744,87
845,09	1640,42
845,26	1638,38
845,43	1689,57
845,60	1656,81
845,77	1888,23
845,94	1714,15
846,10	1751,01
846,27	1624,04
846,44	1654,76
846,61	1714,15
846,78	1722,34
846,95	1710,05
847,12	1697,77
847,29	1687,53
847,46	1640,42
847,63	1691,62
847,80	1775,59
847,97	1695,72
848,14	1861,60
848,31	1640,42
848,48	1583,08
848,65	1800,16
848,82	1640,42
848,98	1820,64
849,15	1699,81
849,32	1791,97
849,49	1789,92
849,66	1720,29
849,83	1669,09
850,00	1718,25
850,17	1744,87
850,34	1667,05
850,51	1679,33
850,68	1714,15
850,85	1849,32
851,01	1681,38
851,18	1730,53
851,35	1683,43
851,52	1595,37
851,69	1775,59
851,86	1673,19
852,03	1710,05
852,20	1759,21
852,37	1769,44
852,53	1544,17
852,70	1759,21
852,87	1681,38
853,04	1708,01
853,21	1656,81
853,38	1744,87
853,55	1767,40
853,72	1748,97
853,89	1658,85
854,05	1708,01
854,22	1595,37
854,39	1689,57
854,56	1705,96
854,73	1779,68
854,90	1683,43
855,07	1628,14
855,23	1732,58
855,40	1646,57
855,57	1638,38
855,74	1574,89
855,91	1892,32
856,08	1523,69
856,25	1619,94
856,41	1673,19
856,58	1716,20
856,75	1644,52
856,92	1595,37
857,09	1746,92
857,26	1718,25
857,42	1738,73
857,59	1681,38
857,76	1687,53
857,93	1773,54
858,10	1675,24
858,27	1650,66
858,43	1716,20
858,60	1673,19
858,77	1652,71
858,94	1578,98
859,11	1763,30
859,27	1671,14
859,44	1607,66
859,61	1787,88
859,78	1712,10
859,95	1681,38
860,12	1642,47
860,28	1806,31
860,45	1746,92
860,62	1683,43
860,79	1675,24
860,95	1640,42
861,12	1611,75
861,29	1636,33
861,46	1673,19
861,63	1703,91
861,79	1751,01
861,96	1632,23
862,13	1673,19
862,30	1830,88
862,47	1646,57
862,63	1638,38
862,80	1728,49
862,97	1724,39
863,14	1710,05
863,30	1679,33
863,47	1609,70
863,64	1748,97
863,81	1644,52
863,97	1634,28
864,14	1642,47
864,31	1667,05
864,48	1697,77
864,65	1740,77
864,81	1753,06
864,98	1724,39
865,15	1742,82
865,32	1742,82
865,48	1738,73
865,65	1812,45
865,82	1703,91
865,98	1703,91
866,15	1742,82
866,32	1710,05
866,49	1673,19
866,65	1705,96
866,82	1652,71
866,99	1689,57
867,16	1652,71
867,32	1695,72
867,49	1662,95
867,66	1677,29
867,83	1640,42
867,99	1609,70
868,16	1726,44
868,33	1681,38
868,49	1699,81
868,66	1652,71
868,83	1695,72
868,99	1726,44
869,16	1720,29
869,33	1740,77
869,50	1783,78
869,66	1681,38
869,83	1708,01
870,00	1638,38
870,16	1808,36
870,33	1779,68
870,50	1759,21
870,66	1646,57
870,83	1837,03
871,00	1673,19
871,17	1693,67
871,33	1701,86
871,50	1652,71
871,67	1632,23
871,83	1648,61
872,00	1851,36
872,17	1691,62
872,33	1812,45
872,50	1740,77
872,67	1691,62
872,83	1714,15
873,00	1683,43
873,17	1714,15
873,33	1800,16
873,50	1781,73
873,67	1665,00
873,83	1646,57
874,00	1710,05
874,16	1718,25
874,33	1679,33
874,50	1675,24
874,66	1753,06
874,83	1638,38
875,00	1783,78
875,16	1779,68
875,33	1785,83
875,50	1585,13
875,66	1628,14
875,83	1730,53
875,99	1718,25
876,16	1701,86
876,33	1687,53
876,49	1746,92
876,66	1748,97
876,83	1642,47
876,99	1619,94
877,16	1724,39
877,32	1785,83
877,49	1761,25
877,66	1697,77
877,82	1710,05
877,99	1675,24
878,15	1789,92
878,32	1705,96
878,49	1675,24
878,65	1685,48
878,82	1732,58
878,98	1660,90
879,15	1720,29
879,32	1763,30
879,48	1689,57
879,65	1648,61
879,81	1632,23
879,98	1662,95
880,15	1648,61
880,31	1734,63
880,48	1621,99
880,64	1771,49
880,81	1730,53
880,97	1796,07
881,14	1714,15
881,31	1613,80
881,47	1832,93
881,64	1763,30
881,80	1675,24
881,97	1687,53
882,13	1716,20
882,30	1564,65
882,47	1574,89
882,63	1675,24
882,80	1605,61
882,96	1644,52
883,13	1732,58
883,29	1630,18
883,46	1665,00
883,62	1796,07
883,79	1656,81
883,95	1763,30
884,12	1679,33
884,29	1787,88
884,45	1746,92
884,62	1777,64
884,78	1609,70
884,95	1794,02
885,11	1703,91
885,28	1740,77
885,44	1638,38
885,61	1695,72
885,77	1757,16
885,94	1712,10
886,10	1644,52
886,27	1685,48
886,43	1826,79
886,60	1765,35
886,76	1605,61
886,93	1605,61
887,09	1767,40
887,26	1634,28
887,42	1691,62
887,59	1767,40
887,75	1800,16
887,92	1818,60
888,08	1796,07
888,25	1746,92
888,41	1753,06
888,58	1693,67
888,74	1656,81
888,91	1646,57
>>>>>End Processed Spectral Data<<<<<
