SpectraSuite Data File
++++++++++++++++++++++++++++++++++++
Date: Mon Jun 06 12:57:57 CEST 2016
User: root
Dark Spectrum Present: No
Reference Spectrum Present: No
Number of Sampled Component Spectra: 1
Spectrometers: USB4C02835
Integration Time (usec): 100000 (USB4C02835)
Spectra Averaged: 1 (USB4C02835)
Boxcar Smoothing: 0 (USB4C02835)
Correct for Electrical Dark: No (USB4C02835)
Strobe/Lamp Enabled: No (USB4C02835)
Correct for Detector Non-linearity: No (USB4C02835)
Correct for Stray Light: No (USB4C02835)
Number of Pixels in Processed Spectrum: 3648
>>>>>Begin Processed Spectral Data<<<<<
177,47	1454,06
177,69	1454,06
177,91	1454,06
178,13	1499,11
178,36	1421,29
178,58	1597,42
178,80	1785,83
179,02	1681,38
179,24	1681,38
179,46	1681,38
179,68	1794,02
179,90	1710,05
180,13	1693,67
180,35	1656,81
180,57	1691,62
180,79	1732,58
181,01	1699,81
181,23	1722,34
181,45	1740,77
181,67	1679,33
181,90	1808,36
182,12	1636,33
182,34	1665,00
182,56	1695,72
182,78	1730,53
183,00	1726,44
183,22	1759,21
183,44	1576,94
183,66	1925,09
183,89	1755,11
184,11	1699,81
184,33	1720,29
184,55	1748,97
184,77	1791,97
184,99	1681,38
185,21	1636,33
185,43	1865,70
185,65	1683,43
185,87	1669,09
186,10	1785,83
186,32	1845,22
186,54	1708,01
186,76	1728,49
186,98	1693,67
187,20	1613,80
187,42	1677,29
187,64	1675,24
187,86	1689,57
188,08	1705,96
188,30	1685,48
188,52	1667,05
188,75	1732,58
188,97	1820,64
189,19	1697,77
189,41	1634,28
189,63	1738,73
189,85	1755,11
190,07	1697,77
190,29	1652,71
190,51	1695,72
190,73	1683,43
190,95	1826,79
191,17	1665,00
191,39	1611,75
191,61	1699,81
191,84	1658,85
192,06	1765,35
192,28	1609,70
192,50	1845,22
192,72	1675,24
192,94	1699,81
193,16	1722,34
193,38	1738,73
193,60	1632,23
193,82	1726,44
194,04	1738,73
194,26	1728,49
194,48	1658,85
194,70	1558,50
194,92	1687,53
195,14	1699,81
195,36	1693,67
195,58	1810,40
195,80	1636,33
196,02	1648,61
196,24	1683,43
196,46	1673,19
196,69	1609,70
196,91	1861,60
197,13	1630,18
197,35	1705,96
197,57	1769,44
197,79	1673,19
198,01	1656,81
198,23	1705,96
198,45	1734,63
198,67	1673,19
198,89	1705,96
199,11	1695,72
199,33	1624,04
199,55	1490,92
199,77	1755,11
199,99	1703,91
200,21	1646,57
200,43	1736,68
200,65	1554,41
200,87	1660,90
201,09	1640,42
201,31	1675,24
201,53	1767,40
201,75	1746,92
201,97	1677,29
202,19	1730,53
202,41	1701,86
202,63	1824,74
202,85	1748,97
203,07	1656,81
203,29	1689,57
203,51	1644,52
203,73	1656,81
203,95	1841,12
204,17	1675,24
204,39	1767,40
204,61	1640,42
204,83	1708,01
205,05	1834,98
205,27	1648,61
205,49	1812,45
205,71	1701,86
205,93	1621,99
206,15	1769,44
206,37	1642,47
206,59	1681,38
206,81	1654,76
207,03	1679,33
207,25	1669,09
207,47	1746,92
207,69	1703,91
207,91	1808,36
208,13	1804,26
208,34	1701,86
208,56	1660,90
208,78	1675,24
209,00	1691,62
209,22	1640,42
209,44	1714,15
209,66	1665,00
209,88	1648,61
210,10	1658,85
210,32	1748,97
210,54	1783,78
210,76	1662,95
210,98	1738,73
211,20	1648,61
211,42	1736,68
211,64	1705,96
211,86	1691,62
212,08	1720,29
212,30	1767,40
212,52	1662,95
212,74	1773,54
212,96	1701,86
213,17	1736,68
213,39	1656,81
213,61	1769,44
213,83	1673,19
214,05	1570,79
214,27	1732,58
214,49	1701,86
214,71	1673,19
214,93	1748,97
215,15	1753,06
215,37	1732,58
215,59	1628,14
215,81	1724,39
216,03	1759,21
216,24	1779,68
216,46	1738,73
216,68	1660,90
216,90	1710,05
217,12	1763,30
217,34	1746,92
217,56	1730,53
217,78	1767,40
218,00	1775,59
218,22	1673,19
218,44	1740,77
218,66	1757,16
218,87	1849,32
219,09	1732,58
219,31	1679,33
219,53	1796,07
219,75	1724,39
219,97	1716,20
220,19	1665,00
220,41	1681,38
220,63	1751,01
220,85	1742,82
221,06	1689,57
221,28	1798,12
221,50	1755,11
221,72	1656,81
221,94	1718,25
222,16	1660,90
222,38	1681,38
222,60	1783,78
222,82	1619,94
223,03	1697,77
223,25	1605,61
223,47	1771,49
223,69	1822,69
223,91	1703,91
224,13	1746,92
224,35	1636,33
224,57	1775,59
224,78	1595,37
225,00	1589,22
225,22	1718,25
225,44	1640,42
225,66	1644,52
225,88	1738,73
226,10	1802,21
226,32	1693,67
226,53	1699,81
226,75	1677,29
226,97	1693,67
227,19	1724,39
227,41	1628,14
227,63	1697,77
227,85	1560,55
228,06	1675,24
228,28	1665,00
228,50	1765,35
228,72	1646,57
228,94	1708,01
229,16	1591,27
229,37	1636,33
229,59	1665,00
229,81	1812,45
230,03	1683,43
230,25	1576,94
230,47	1626,09
230,69	1540,07
230,90	1806,31
231,12	1656,81
231,34	1751,01
231,56	1796,07
231,78	1607,66
232,00	1755,11
232,21	1681,38
232,43	1677,29
232,65	1591,27
232,87	1714,15
233,09	1687,53
233,30	1607,66
233,52	1722,34
233,74	1665,00
233,96	1628,14
234,18	1718,25
234,40	1681,38
234,61	1757,16
234,83	1615,85
235,05	1665,00
235,27	1865,70
235,49	1759,21
235,70	1720,29
235,92	1718,25
236,14	1720,29
236,36	1789,92
236,58	1640,42
236,79	1779,68
237,01	1705,96
237,23	1648,61
237,45	1832,93
237,67	1667,05
237,88	1652,71
238,10	1712,10
238,32	1566,70
238,54	1701,86
238,76	1791,97
238,97	1689,57
239,19	1689,57
239,41	1740,77
239,63	1738,73
239,85	1683,43
240,06	1703,91
240,28	1646,57
240,50	1763,30
240,72	1658,85
240,93	1695,72
241,15	1708,01
241,37	1751,01
241,59	1742,82
241,81	1693,67
242,02	1646,57
242,24	1740,77
242,46	1767,40
242,68	1615,85
242,89	1728,49
243,11	1748,97
243,33	1740,77
243,55	1667,05
243,76	1656,81
243,98	1685,48
244,20	1681,38
244,42	1679,33
244,64	1689,57
244,85	1738,73
245,07	1648,61
245,29	1673,19
245,51	1615,85
245,72	1726,44
245,94	1773,54
246,16	1722,34
246,38	1716,20
246,59	1636,33
246,81	1626,09
247,03	1669,09
247,24	1648,61
247,46	1675,24
247,68	1695,72
247,90	1691,62
248,11	1603,56
248,33	1775,59
248,55	1675,24
248,77	1701,86
248,98	1763,30
249,20	1818,60
249,42	1675,24
249,64	1734,63
249,85	1740,77
250,07	1683,43
250,29	1771,49
250,50	1742,82
250,72	1658,85
250,94	1705,96
251,16	1818,60
251,37	1771,49
251,59	1675,24
251,81	1751,01
252,02	1791,97
252,24	1652,71
252,46	1783,78
252,68	1697,77
252,89	1677,29
253,11	1669,09
253,33	1837,03
253,54	1720,29
253,76	1585,13
253,98	1628,14
254,20	1705,96
254,41	1615,85
254,63	1716,20
254,85	1669,09
255,06	1665,00
255,28	1742,82
255,50	1705,96
255,71	1632,23
255,93	1609,70
256,15	1708,01
256,36	1726,44
256,58	1658,85
256,80	1751,01
257,02	1687,53
257,23	1679,33
257,45	1720,29
257,67	1650,66
257,88	1591,27
258,10	1667,05
258,32	1740,77
258,53	1665,00
258,75	1775,59
258,97	1654,76
259,18	1710,05
259,40	1718,25
259,62	1802,21
259,83	1746,92
260,05	1724,39
260,27	2017,25
260,48	1691,62
260,70	1648,61
260,92	1640,42
261,13	1693,67
261,35	1710,05
261,57	1708,01
261,78	1599,46
262,00	1646,57
262,22	1773,54
262,43	1644,52
262,65	1746,92
262,86	1732,58
263,08	1810,40
263,30	1746,92
263,51	1646,57
263,73	1648,61
263,95	1759,21
264,16	1619,94
264,38	1634,28
264,60	1746,92
264,81	1720,29
265,03	1796,07
265,25	1724,39
265,46	1667,05
265,68	1738,73
265,89	1640,42
266,11	1605,61
266,33	1787,88
266,54	1736,68
266,76	1736,68
266,98	1689,57
267,19	1769,44
267,41	1701,86
267,62	1740,77
267,84	1603,56
268,06	1738,73
268,27	1708,01
268,49	1701,86
268,70	1734,63
268,92	1726,44
269,14	1624,04
269,35	1601,51
269,57	1732,58
269,79	1738,73
270,00	1652,71
270,22	1855,46
270,43	1693,67
270,65	1480,68
270,87	1701,86
271,08	1630,18
271,30	1783,78
271,51	1685,48
271,73	1697,77
271,95	1800,16
272,16	1734,63
272,38	1675,24
272,59	1699,81
272,81	1660,90
273,02	1681,38
273,24	1699,81
273,46	1800,16
273,67	1755,11
273,89	1609,70
274,10	1656,81
274,32	1759,21
274,54	1705,96
274,75	1808,36
274,97	1638,38
275,18	1824,74
275,40	1665,00
275,61	1710,05
275,83	1699,81
276,05	1675,24
276,26	1665,00
276,48	1777,64
276,69	1763,30
276,91	1665,00
277,12	1849,32
277,34	1730,53
277,55	1714,15
277,77	1669,09
277,99	1619,94
278,20	1693,67
278,42	1640,42
278,63	1734,63
278,85	1695,72
279,06	1648,61
279,28	1714,15
279,49	1796,07
279,71	1699,81
279,93	1648,61
280,14	1656,81
280,36	1619,94
280,57	1814,50
280,79	1771,49
281,00	1656,81
281,22	1642,47
281,43	1824,74
281,65	1601,51
281,86	1636,33
282,08	1710,05
282,29	1820,64
282,51	1667,05
282,73	1634,28
282,94	1662,95
283,16	1695,72
283,37	1800,16
283,59	1755,11
283,80	1679,33
284,02	1658,85
284,23	1654,76
284,45	1605,61
284,66	1638,38
284,88	1544,17
285,09	1732,58
285,31	1720,29
285,52	1734,63
285,74	1619,94
285,95	1705,96
286,17	1650,66
286,38	1794,02
286,60	1679,33
286,81	1732,58
287,03	1703,91
287,24	1755,11
287,46	1714,15
287,67	1744,87
287,89	1720,29
288,10	1673,19
288,32	1615,85
288,53	1789,92
288,75	1765,35
288,96	1687,53
289,18	1699,81
289,39	1701,86
289,61	1800,16
289,82	1757,16
290,04	1824,74
290,25	1746,92
290,47	1755,11
290,68	1720,29
290,90	1728,49
291,11	1595,37
291,33	1722,34
291,54	1652,71
291,76	1742,82
291,97	1718,25
292,18	1757,16
292,40	1703,91
292,61	1658,85
292,83	1822,69
293,04	1683,43
293,26	1773,54
293,47	1675,24
293,69	1660,90
293,90	1763,30
294,12	1736,68
294,33	1685,48
294,55	1714,15
294,76	1742,82
294,97	1804,26
295,19	1769,44
295,40	1718,25
295,62	1789,92
295,83	1753,06
296,05	1701,86
296,26	1763,30
296,48	1699,81
296,69	1658,85
296,90	1687,53
297,12	1769,44
297,33	1755,11
297,55	1714,15
297,76	1740,77
297,98	1785,83
298,19	1710,05
298,41	1712,10
298,62	1621,99
298,83	1722,34
299,05	1718,25
299,26	1771,49
299,48	1705,96
299,69	1724,39
299,90	1720,29
300,12	1716,20
300,33	1755,11
300,55	1665,00
300,76	1744,87
300,98	1738,73
301,19	1703,91
301,40	1599,46
301,62	1648,61
301,83	1712,10
302,05	1775,59
302,26	1755,11
302,47	1734,63
302,69	1662,95
302,90	1712,10
303,12	1587,18
303,33	1755,11
303,54	1767,40
303,76	1761,25
303,97	1722,34
304,19	1765,35
304,40	1677,29
304,61	1755,11
304,83	1820,64
305,04	1755,11
305,26	1705,96
305,47	1675,24
305,68	1683,43
305,90	1708,01
306,11	1785,83
306,33	1665,00
306,54	1619,94
306,75	1714,15
306,97	1613,80
307,18	1699,81
307,39	1650,66
307,61	1765,35
307,82	1746,92
308,04	1796,07
308,25	1722,34
308,46	1722,34
308,68	1734,63
308,89	1671,14
309,10	1824,74
309,32	1767,40
309,53	1652,71
309,74	1648,61
309,96	1626,09
310,17	1779,68
310,39	1634,28
310,60	1697,77
310,81	1751,01
311,03	1640,42
311,24	1652,71
311,45	1728,49
311,67	1800,16
311,88	1697,77
312,09	1593,32
312,31	1595,37
312,52	1658,85
312,73	1648,61
312,95	1591,27
313,16	1669,09
313,37	1806,31
313,59	1746,92
313,80	1761,25
314,01	1802,21
314,23	1587,18
314,44	1634,28
314,65	1744,87
314,87	1611,75
315,08	1687,53
315,29	1693,67
315,51	1705,96
315,72	1722,34
315,93	1828,84
316,15	1800,16
316,36	1683,43
316,57	1705,96
316,79	1736,68
317,00	1718,25
317,21	1761,25
317,43	1742,82
317,64	1705,96
317,85	1701,86
318,07	1640,42
318,28	1638,38
318,49	1724,39
318,70	1925,09
318,92	1845,22
319,13	1824,74
319,34	1796,07
319,56	1757,16
319,77	1779,68
319,98	1720,29
320,20	1744,87
320,41	1746,92
320,62	1822,69
320,83	1669,09
321,05	1812,45
321,26	1738,73
321,47	1671,14
321,69	1773,54
321,90	1656,81
322,11	1724,39
322,32	1681,38
322,54	1781,73
322,75	1656,81
322,96	1849,32
323,18	1646,57
323,39	1583,08
323,60	1660,90
323,81	1757,16
324,03	1630,18
324,24	1675,24
324,45	1619,94
324,66	1660,90
324,88	1714,15
325,09	1791,97
325,30	1656,81
325,52	1708,01
325,73	1718,25
325,94	1730,53
326,15	1599,46
326,37	1755,11
326,58	1742,82
326,79	1767,40
327,00	1564,65
327,22	1693,67
327,43	1689,57
327,64	1546,22
327,85	1626,09
328,07	1765,35
328,28	1779,68
328,49	1595,37
328,70	1720,29
328,92	1697,77
329,13	1656,81
329,34	1732,58
329,55	1849,32
329,76	1771,49
329,98	1712,10
330,19	1812,45
330,40	1763,30
330,61	1759,21
330,83	1740,77
331,04	1656,81
331,25	1798,12
331,46	1695,72
331,68	1640,42
331,89	1775,59
332,10	1722,34
332,31	1611,75
332,52	1701,86
332,74	1769,44
332,95	1628,14
333,16	1705,96
333,37	1751,01
333,58	1617,90
333,80	1693,67
334,01	1591,27
334,22	1638,38
334,43	1708,01
334,64	1708,01
334,86	1681,38
335,07	1632,23
335,28	1791,97
335,49	1591,27
335,70	1638,38
335,92	1740,77
336,13	1892,32
336,34	1687,53
336,55	1691,62
336,76	1710,05
336,98	1599,46
337,19	1691,62
337,40	1683,43
337,61	1828,84
337,82	1732,58
338,04	1751,01
338,25	1609,70
338,46	1708,01
338,67	1710,05
338,88	1552,36
339,09	1642,47
339,31	1744,87
339,52	1652,71
339,73	1671,14
339,94	1689,57
340,15	1755,11
340,36	1628,14
340,58	1730,53
340,79	1662,95
341,00	1712,10
341,21	1675,24
341,42	1796,07
341,63	1671,14
341,85	1742,82
342,06	1652,71
342,27	1701,86
342,48	1800,16
342,69	1665,00
342,90	1753,06
343,12	1789,92
343,33	1681,38
343,54	1791,97
343,75	1767,40
343,96	1685,48
344,17	1697,77
344,38	1671,14
344,60	1683,43
344,81	1673,19
345,02	1781,73
345,23	1742,82
345,44	1812,45
345,65	1726,44
345,86	1738,73
346,07	1732,58
346,29	1697,77
346,50	1777,64
346,71	1732,58
346,92	1728,49
347,13	1816,55
347,34	1693,67
347,55	1722,34
347,76	1646,57
347,98	1576,94
348,19	1738,73
348,40	1701,86
348,61	1732,58
348,82	1767,40
349,03	1705,96
349,24	1556,46
349,45	1777,64
349,66	1611,75
349,88	1679,33
350,09	1675,24
350,30	1822,69
350,51	1783,78
350,72	1775,59
350,93	1662,95
351,14	1691,62
351,35	1722,34
351,56	1693,67
351,77	1667,05
351,99	1710,05
352,20	1796,07
352,41	1734,63
352,62	1558,50
352,83	1689,57
353,04	1611,75
353,25	1605,61
353,46	1710,05
353,67	1757,16
353,88	1548,26
354,09	1724,39
354,30	1677,29
354,52	1742,82
354,73	1720,29
354,94	1626,09
355,15	1660,90
355,36	1767,40
355,57	1689,57
355,78	1787,88
355,99	1689,57
356,20	1652,71
356,41	1822,69
356,62	1722,34
356,83	1689,57
357,04	1765,35
357,25	1554,41
357,46	1681,38
357,68	1597,42
357,89	1693,67
358,10	1718,25
358,31	1658,85
358,52	1699,81
358,73	1710,05
358,94	1640,42
359,15	1619,94
359,36	1740,77
359,57	1687,53
359,78	1607,66
359,99	1710,05
360,20	1669,09
360,41	1650,66
360,62	1615,85
360,83	1730,53
361,04	1708,01
361,25	1753,06
361,46	1873,89
361,67	1742,82
361,88	1789,92
362,09	1773,54
362,30	1730,53
362,51	1671,14
362,72	1628,14
362,93	1765,35
363,14	1738,73
363,35	1765,35
363,56	1648,61
363,78	1683,43
363,99	1781,73
364,20	1660,90
364,41	1687,53
364,62	1832,93
364,83	1779,68
365,04	1720,29
365,25	1669,09
365,46	1816,55
365,67	1671,14
365,88	1673,19
366,09	1701,86
366,30	1628,14
366,51	1683,43
366,72	1677,29
366,93	1701,86
367,14	1701,86
367,35	1787,88
367,56	1669,09
367,77	1755,11
367,98	1697,77
368,18	1730,53
368,39	1787,88
368,60	1648,61
368,81	1665,00
369,02	1751,01
369,23	1687,53
369,44	1632,23
369,65	1654,76
369,86	1742,82
370,07	1710,05
370,28	1636,33
370,49	1736,68
370,70	1757,16
370,91	1679,33
371,12	1650,66
371,33	1765,35
371,54	1697,77
371,75	1808,36
371,96	1523,69
372,17	1779,68
372,38	1767,40
372,59	1824,74
372,80	1720,29
373,01	1558,50
373,22	1738,73
373,43	1705,96
373,64	1699,81
373,85	1843,17
374,06	1751,01
374,26	1744,87
374,47	1607,66
374,68	1728,49
374,89	1652,71
375,10	1669,09
375,31	1695,72
375,52	1691,62
375,73	1746,92
375,94	1699,81
376,15	1789,92
376,36	1693,67
376,57	1673,19
376,78	1669,09
376,99	1722,34
377,20	1808,36
377,40	1681,38
377,61	1746,92
377,82	1720,29
378,03	1777,64
378,24	1722,34
378,45	1710,05
378,66	1738,73
378,87	1572,84
379,08	1673,19
379,29	1656,81
379,50	1773,54
379,71	1609,70
379,91	1779,68
380,12	1662,95
380,33	1689,57
380,54	1671,14
380,75	1601,51
380,96	1665,00
381,17	1851,36
381,38	1724,39
381,59	1712,10
381,80	1675,24
382,00	1861,60
382,21	1763,30
382,42	1830,88
382,63	1865,70
382,84	1755,11
383,05	1767,40
383,26	1820,64
383,47	1708,01
383,68	1722,34
383,88	1808,36
384,09	1642,47
384,30	1810,40
384,51	1771,49
384,72	1734,63
384,93	1599,46
385,14	1626,09
385,35	1765,35
385,55	1669,09
385,76	1726,44
385,97	1685,48
386,18	1648,61
386,39	1648,61
386,60	1710,05
386,81	1673,19
387,02	1636,33
387,22	1665,00
387,43	1820,64
387,64	1771,49
387,85	1896,42
388,06	2271,20
388,27	4329,41
388,48	6659,99
388,68	8191,88
388,89	9486,19
389,10	9756,52
389,31	8595,32
389,52	7505,81
389,73	6621,08
389,93	6031,27
390,14	5728,17
390,35	5185,46
390,56	4511,68
390,77	3749,83
390,98	3082,19
391,18	2543,58
391,39	2105,31
391,60	1927,14
391,81	1820,64
392,02	1712,10
392,23	1806,31
392,43	1703,91
392,64	1812,45
392,85	1685,48
393,06	1787,88
393,27	1783,78
393,47	1679,33
393,68	1767,40
393,89	1640,42
394,10	1771,49
394,31	1677,29
394,52	1662,95
394,72	1646,57
394,93	1789,92
395,14	1648,61
395,35	1796,07
395,56	1656,81
395,76	1724,39
395,97	1808,36
396,18	1837,03
396,39	1816,55
396,60	2119,65
396,80	1837,03
397,01	1929,19
397,22	1808,36
397,43	1972,19
397,64	1724,39
397,84	1779,68
398,05	1867,75
398,26	1787,88
398,47	1826,79
398,67	1822,69
398,88	1675,24
399,09	1761,25
399,30	1798,12
399,51	1720,29
399,71	1691,62
399,92	1722,34
400,13	1744,87
400,34	1665,00
400,54	1718,25
400,75	1822,69
400,96	1789,92
401,17	1769,44
401,37	1646,57
401,58	1697,77
401,79	1703,91
402,00	1818,60
402,21	2033,63
402,41	1992,67
402,62	1992,67
402,83	1966,05
403,04	1923,04
403,24	2109,41
403,45	1794,02
403,66	1992,67
403,87	1808,36
404,07	1812,45
404,28	1904,61
404,49	1822,69
404,70	1777,64
404,90	1787,88
405,11	1763,30
405,32	1785,83
405,52	1591,27
405,73	1642,47
405,94	1689,57
406,15	1654,76
406,35	1769,44
406,56	1730,53
406,77	1705,96
406,98	1740,77
407,18	1665,00
407,39	1761,25
407,60	1751,01
407,80	1685,48
408,01	1589,22
408,22	1748,97
408,43	1665,00
408,63	1757,16
408,84	1789,92
409,05	1708,01
409,25	1667,05
409,46	1681,38
409,67	1681,38
409,88	1738,73
410,08	1710,05
410,29	1615,85
410,50	1726,44
410,70	1777,64
410,91	1619,94
411,12	1732,58
411,32	1710,05
411,53	1738,73
411,74	1877,99
411,95	1726,44
412,15	1714,15
412,36	1755,11
412,57	1748,97
412,77	1740,77
412,98	1705,96
413,19	1765,35
413,39	1787,88
413,60	1738,73
413,81	1820,64
414,01	1671,14
414,22	1871,84
414,43	1734,63
414,63	1669,09
414,84	1806,31
415,05	1673,19
415,25	1687,53
415,46	1751,01
415,67	1665,00
415,87	1714,15
416,08	1726,44
416,29	1648,61
416,49	1714,15
416,70	1679,33
416,91	1632,23
417,11	1703,91
417,32	1703,91
417,53	1818,60
417,73	1748,97
417,94	1728,49
418,15	1777,64
418,35	1705,96
418,56	1671,14
418,77	1918,95
418,97	1755,11
419,18	1607,66
419,38	1558,50
419,59	1761,25
419,80	1761,25
420,00	1734,63
420,21	1734,63
420,42	1730,53
420,62	1740,77
420,83	1613,80
421,04	1701,86
421,24	1658,85
421,45	1751,01
421,65	1777,64
421,86	1632,23
422,07	1636,33
422,27	1722,34
422,48	1689,57
422,69	1652,71
422,89	1705,96
423,10	1656,81
423,30	1656,81
423,51	1624,04
423,72	1722,34
423,92	1785,83
424,13	1611,75
424,33	1687,53
424,54	1613,80
424,75	1689,57
424,95	1841,12
425,16	1691,62
425,36	1615,85
425,57	1806,31
425,78	1783,78
425,98	1765,35
426,19	1658,85
426,39	1665,00
426,60	1714,15
426,81	1789,92
427,01	1740,77
427,22	1638,38
427,42	1621,99
427,63	1691,62
427,83	1675,24
428,04	1738,73
428,25	1769,44
428,45	1800,16
428,66	1701,86
428,86	1738,73
429,07	1673,19
429,28	1695,72
429,48	1673,19
429,69	1636,33
429,89	1720,29
430,10	1679,33
430,30	1689,57
430,51	1753,06
430,71	1603,56
430,92	1687,53
431,13	1609,70
431,33	1761,25
431,54	1744,87
431,74	1740,77
431,95	1798,12
432,15	1646,57
432,36	1746,92
432,56	1724,39
432,77	1791,97
432,98	1796,07
433,18	1734,63
433,39	1667,05
433,59	1761,25
433,80	1763,30
434,00	1867,75
434,21	1705,96
434,41	1656,81
434,62	1837,03
434,82	1662,95
435,03	1632,23
435,23	1751,01
435,44	1619,94
435,64	1683,43
435,85	1669,09
436,06	1685,48
436,26	1724,39
436,47	1796,07
436,67	1728,49
436,88	1734,63
437,08	1677,29
437,29	1824,74
437,49	1636,33
437,70	1740,77
437,90	1744,87
438,11	1818,60
438,31	1789,92
438,52	1820,64
438,72	1843,17
438,93	1865,70
439,13	1855,46
439,34	1794,02
439,54	1771,49
439,75	1869,80
439,95	1740,77
440,16	1714,15
440,36	1714,15
440,57	1853,41
440,77	1785,83
440,98	1720,29
441,18	1669,09
441,39	1687,53
441,59	1722,34
441,80	1843,17
442,00	1832,93
442,21	1824,74
442,41	1626,09
442,62	1744,87
442,82	1642,47
443,02	1724,39
443,23	1724,39
443,43	1718,25
443,64	1828,84
443,84	1697,77
444,05	1820,64
444,25	1722,34
444,46	1761,25
444,66	1658,85
444,87	1871,84
445,07	1675,24
445,28	1656,81
445,48	1843,17
445,69	1779,68
445,89	1845,22
446,09	1726,44
446,30	2009,06
446,50	2631,64
446,71	3659,72
446,91	4308,93
447,12	4706,23
447,32	4632,51
447,53	4388,80
447,73	3762,12
447,93	3520,46
448,14	3286,99
448,34	3172,30
448,55	2967,51
448,75	2875,35
448,96	2688,98
449,16	2469,85
449,36	2328,54
449,57	2033,63
449,77	1896,42
449,98	1765,35
450,18	1800,16
450,39	1884,13
450,59	1804,26
450,79	1781,73
451,00	1755,11
451,20	1738,73
451,41	1753,06
451,61	1730,53
451,81	1787,88
452,02	1718,25
452,22	1779,68
452,43	1703,91
452,63	1689,57
452,84	1738,73
453,04	1710,05
453,24	1779,68
453,45	1699,81
453,65	1751,01
453,86	1669,09
454,06	1732,58
454,26	1673,19
454,47	1732,58
454,67	1863,65
454,87	1808,36
455,08	1708,01
455,28	1877,99
455,49	1751,01
455,69	1751,01
455,89	1845,22
456,10	1746,92
456,30	1718,25
456,51	1773,54
456,71	1685,48
456,91	1763,30
457,12	1673,19
457,32	1710,05
457,52	1734,63
457,73	1738,73
457,93	1789,92
458,14	1689,57
458,34	1708,01
458,54	1734,63
458,75	1703,91
458,95	1851,36
459,15	1714,15
459,36	1794,02
459,56	1683,43
459,76	1834,98
459,97	1738,73
460,17	1802,21
460,37	1740,77
460,58	1798,12
460,78	1806,31
460,99	1705,96
461,19	1775,59
461,39	1736,68
461,60	1689,57
461,80	1716,20
462,00	1632,23
462,21	1746,92
462,41	1628,14
462,61	1589,22
462,82	1656,81
463,02	1785,83
463,22	1746,92
463,43	1791,97
463,63	1665,00
463,83	1732,58
464,04	1802,21
464,24	1779,68
464,44	1697,77
464,64	1705,96
464,85	1740,77
465,05	1748,97
465,25	1726,44
465,46	1693,67
465,66	1724,39
465,86	1775,59
466,07	1685,48
466,27	1710,05
466,47	1658,85
466,68	1673,19
466,88	1830,88
467,08	1763,30
467,29	1824,74
467,49	1767,40
467,69	1667,05
467,89	1732,58
468,10	1738,73
468,30	1718,25
468,50	1822,69
468,71	1701,86
468,91	1673,19
469,11	1800,16
469,31	1738,73
469,52	1638,38
469,72	1822,69
469,92	1834,98
470,13	1677,29
470,33	1789,92
470,53	1763,30
470,73	2052,06
470,94	2250,72
471,14	2355,16
471,34	2461,66
471,54	2467,80
471,75	2197,47
471,95	2080,74
472,15	1949,67
472,36	2090,98
472,56	2164,70
472,76	2058,21
472,96	1972,19
473,17	1937,38
473,37	1935,33
473,57	1855,46
473,77	1746,92
473,98	1755,11
474,18	1599,46
474,38	1867,75
474,58	1722,34
474,79	1757,16
474,99	1822,69
475,19	1781,73
475,39	1669,09
475,60	1751,01
475,80	1771,49
476,00	1714,15
476,20	1712,10
476,41	1785,83
476,61	1794,02
476,81	1820,64
477,01	1740,77
477,21	1853,41
477,42	1880,04
477,62	1632,23
477,82	1757,16
478,02	1748,97
478,23	1714,15
478,43	1621,99
478,63	1685,48
478,83	1732,58
479,03	1705,96
479,24	1869,80
479,44	1837,03
479,64	1660,90
479,84	1632,23
480,04	1619,94
480,25	1775,59
480,45	1673,19
480,65	1757,16
480,85	1830,88
481,06	1679,33
481,26	1751,01
481,46	1660,90
481,66	1734,63
481,86	1644,52
482,06	1765,35
482,27	1636,33
482,47	1677,29
482,67	1765,35
482,87	1693,67
483,07	1773,54
483,28	1675,24
483,48	1671,14
483,68	1736,68
483,88	1619,94
484,08	1597,42
484,29	1624,04
484,49	1673,19
484,69	1681,38
484,89	1832,93
485,09	1794,02
485,29	1755,11
485,50	1779,68
485,70	1699,81
485,90	1777,64
486,10	1697,77
486,30	1738,73
486,50	1748,97
486,71	1677,29
486,91	1822,69
487,11	1773,54
487,31	1730,53
487,51	1656,81
487,71	1685,48
487,91	1687,53
488,12	1687,53
488,32	1599,46
488,52	1689,57
488,72	1634,28
488,92	1804,26
489,12	1755,11
489,32	1765,35
489,53	1789,92
489,73	1624,04
489,93	1767,40
490,13	1642,47
490,33	1642,47
490,53	1738,73
490,73	1701,86
490,94	1660,90
491,14	1701,86
491,34	1812,45
491,54	2099,17
491,74	2629,59
491,94	2906,07
492,14	2973,65
492,34	3018,71
492,54	2822,10
492,75	2478,04
492,95	2396,12
493,15	2281,44
493,35	2291,68
493,55	2269,15
493,75	2199,52
493,95	2078,69
494,15	2007,01
494,35	1890,28
494,56	1877,99
494,76	1742,82
494,96	1753,06
495,16	1732,58
495,36	1730,53
495,56	1779,68
495,76	1703,91
495,96	1718,25
496,16	1675,24
496,36	1900,52
496,56	1759,21
496,77	1816,55
496,97	1605,61
497,17	1763,30
497,37	1630,18
497,57	1751,01
497,77	1703,91
497,97	1671,14
498,17	1716,20
498,37	1761,25
498,57	1759,21
498,77	1662,95
498,97	1845,22
499,17	1832,93
499,38	1705,96
499,58	1732,58
499,78	1800,16
499,98	1740,77
500,18	1712,10
500,38	1695,72
500,58	1920,99
500,78	2478,04
500,98	4538,30
501,18	5681,07
501,38	6723,48
501,58	7149,46
501,78	6627,23
501,98	5568,43
502,18	4925,36
502,38	4378,56
502,58	4114,37
502,78	3721,16
502,98	3735,50
503,18	3510,22
503,38	3151,82
503,59	2828,24
503,79	2631,64
503,99	2525,15
504,19	2291,68
504,39	2185,18
504,59	2140,13
504,79	2070,50
504,99	1941,47
505,19	1931,23
505,39	1869,80
505,59	1918,95
505,79	1849,32
505,99	1806,31
506,19	1791,97
506,39	1900,52
506,59	1712,10
506,79	1701,86
506,99	1834,98
507,19	1718,25
507,39	1824,74
507,59	1722,34
507,79	1697,77
507,99	1742,82
508,19	1695,72
508,39	1736,68
508,59	1730,53
508,79	1781,73
508,99	1888,23
509,19	1578,98
509,39	1734,63
509,59	1701,86
509,79	1658,85
509,99	1785,83
510,19	1769,44
510,39	1720,29
510,59	1777,64
510,79	1708,01
510,99	1634,28
511,19	1716,20
511,39	1773,54
511,59	1806,31
511,79	1839,08
511,99	1687,53
512,19	1808,36
512,38	1716,20
512,58	1712,10
512,78	1685,48
512,98	1787,88
513,18	1789,92
513,38	1611,75
513,58	1796,07
513,78	1689,57
513,98	1710,05
514,18	1789,92
514,38	1740,77
514,58	1683,43
514,78	1701,86
514,98	1685,48
515,18	1720,29
515,38	1691,62
515,58	1845,22
515,78	1748,97
515,98	1787,88
516,18	1740,77
516,38	1738,73
516,57	1705,96
516,77	1734,63
516,97	1691,62
517,17	1679,33
517,37	1642,47
517,57	1742,82
517,77	1724,39
517,97	1746,92
518,17	1771,49
518,37	1636,33
518,57	1683,43
518,77	1689,57
518,97	1787,88
519,16	1785,83
519,36	1755,11
519,56	1642,47
519,76	1740,77
519,96	1718,25
520,16	1828,84
520,36	1705,96
520,56	1806,31
520,76	1673,19
520,96	1662,95
521,16	1751,01
521,35	1851,36
521,55	1775,59
521,75	1808,36
521,95	1710,05
522,15	1691,62
522,35	1687,53
522,55	1656,81
522,75	1763,30
522,95	1748,97
523,14	1775,59
523,34	1738,73
523,54	1712,10
523,74	1785,83
523,94	1722,34
524,14	1681,38
524,34	1699,81
524,54	1773,54
524,73	1675,24
524,93	1724,39
525,13	1757,16
525,33	1748,97
525,53	1865,70
525,73	1779,68
525,93	1730,53
526,13	1687,53
526,32	1751,01
526,52	1732,58
526,72	1779,68
526,92	1652,71
527,12	1728,49
527,32	1693,67
527,52	1789,92
527,71	1710,05
527,91	1761,25
528,11	1644,52
528,31	1783,78
528,51	1665,00
528,71	1781,73
528,90	1701,86
529,10	1767,40
529,30	1867,75
529,50	1626,09
529,70	1638,38
529,90	1732,58
530,09	1681,38
530,29	1654,76
530,49	1724,39
530,69	1882,08
530,89	1734,63
531,09	1720,29
531,28	1761,25
531,48	1722,34
531,68	1765,35
531,88	1726,44
532,08	1718,25
532,28	1738,73
532,47	1775,59
532,67	1804,26
532,87	1771,49
533,07	1728,49
533,27	1816,55
533,46	1697,77
533,66	1806,31
533,86	1675,24
534,06	1724,39
534,26	1705,96
534,45	1769,44
534,65	1746,92
534,85	1755,11
535,05	1660,90
535,25	1722,34
535,44	1597,42
535,64	1796,07
535,84	1697,77
536,04	1732,58
536,24	1693,67
536,43	1697,77
536,63	1705,96
536,83	1718,25
537,03	1720,29
537,22	1673,19
537,42	1669,09
537,62	1789,92
537,82	1681,38
538,02	1783,78
538,21	1796,07
538,41	1970,15
538,61	1730,53
538,81	1656,81
539,00	1826,79
539,20	1636,33
539,40	1744,87
539,60	1822,69
539,79	1751,01
539,99	1751,01
540,19	1681,38
540,39	1759,21
540,58	1759,21
540,78	1748,97
540,98	1662,95
541,18	1771,49
541,37	1740,77
541,57	1712,10
541,77	1775,59
541,97	1675,24
542,16	1650,66
542,36	1685,48
542,56	1710,05
542,76	1857,51
542,95	1775,59
543,15	1775,59
543,35	1837,03
543,54	1662,95
543,74	1716,20
543,94	1691,62
544,14	1734,63
544,33	1744,87
544,53	1726,44
544,73	1642,47
544,93	1679,33
545,12	1665,00
545,32	1722,34
545,52	1656,81
545,71	1609,70
545,91	1794,02
546,11	1699,81
546,30	1677,29
546,50	1748,97
546,70	1757,16
546,90	1744,87
547,09	1615,85
547,29	1781,73
547,49	1759,21
547,68	1771,49
547,88	1617,90
548,08	1771,49
548,27	2166,75
548,47	1665,00
548,67	1705,96
548,87	1779,68
549,06	1617,90
549,26	1726,44
549,46	1714,15
549,65	1779,68
549,85	1744,87
550,05	1773,54
550,24	1681,38
550,44	1765,35
550,64	1724,39
550,83	1724,39
551,03	1832,93
551,23	1785,83
551,42	1806,31
551,62	1751,01
551,82	1673,19
552,01	1732,58
552,21	1859,56
552,41	1765,35
552,60	1822,69
552,80	1771,49
553,00	1716,20
553,19	1722,34
553,39	1824,74
553,59	1744,87
553,78	1751,01
553,98	1748,97
554,17	1648,61
554,37	1710,05
554,57	1732,58
554,76	1681,38
554,96	1679,33
555,16	1730,53
555,35	1759,21
555,55	1742,82
555,75	1834,98
555,94	1759,21
556,14	1689,57
556,33	1791,97
556,53	1691,62
556,73	1796,07
556,92	1794,02
557,12	1853,41
557,32	1806,31
557,51	1808,36
557,71	1740,77
557,90	1800,16
558,10	1746,92
558,30	1722,34
558,49	1673,19
558,69	1724,39
558,88	1693,67
559,08	1769,44
559,28	1734,63
559,47	1783,78
559,67	1687,53
559,86	1839,08
560,06	1728,49
560,26	1689,57
560,45	1816,55
560,65	1691,62
560,84	1783,78
561,04	1742,82
561,24	1759,21
561,43	1699,81
561,63	1779,68
561,82	1851,36
562,02	1769,44
562,22	1740,77
562,41	1669,09
562,61	1673,19
562,80	1679,33
563,00	1894,37
563,19	1718,25
563,39	1730,53
563,59	1796,07
563,78	1689,57
563,98	1628,14
564,17	1624,04
564,37	1638,38
564,56	1730,53
564,76	1679,33
564,96	1765,35
565,15	1720,29
565,35	1884,13
565,54	1736,68
565,74	1873,89
565,93	1769,44
566,13	1720,29
566,32	1724,39
566,52	1705,96
566,71	1806,31
566,91	1783,78
567,11	1728,49
567,30	1785,83
567,50	1779,68
567,69	1755,11
567,89	1716,20
568,08	1646,57
568,28	1748,97
568,47	1621,99
568,67	1769,44
568,86	1714,15
569,06	1791,97
569,25	1748,97
569,45	1656,81
569,64	1710,05
569,84	1740,77
570,04	1796,07
570,23	1658,85
570,43	1667,05
570,62	1726,44
570,82	1820,64
571,01	1732,58
571,21	1722,34
571,40	1621,99
571,60	1894,37
571,79	1789,92
571,99	1759,21
572,18	1662,95
572,38	1748,97
572,57	1665,00
572,77	1779,68
572,96	1865,70
573,16	1712,10
573,35	1685,48
573,55	1812,45
573,74	1794,02
573,94	1669,09
574,13	1646,57
574,33	1765,35
574,52	1794,02
574,71	1665,00
574,91	1791,97
575,10	1708,01
575,30	1669,09
575,49	1699,81
575,69	1716,20
575,88	1849,32
576,08	1708,01
576,27	1771,49
576,47	1703,91
576,66	1839,08
576,86	1779,68
577,05	1767,40
577,25	1779,68
577,44	1875,94
577,64	1789,92
577,83	1798,12
578,02	1771,49
578,22	1783,78
578,41	1816,55
578,61	1755,11
578,80	1718,25
579,00	1740,77
579,19	1763,30
579,39	1837,03
579,58	1789,92
579,77	1791,97
579,97	1814,50
580,16	1824,74
580,36	1859,56
580,55	1884,13
580,75	1804,26
580,94	1765,35
581,13	1843,17
581,33	1849,32
581,52	1861,60
581,72	1843,17
581,91	1751,01
582,11	1714,15
582,30	1712,10
582,49	1845,22
582,69	1710,05
582,88	1800,16
583,08	1779,68
583,27	1730,53
583,47	1744,87
583,66	1685,48
583,85	1699,81
584,05	1681,38
584,24	1746,92
584,44	1755,11
584,63	1832,93
584,82	1761,25
585,02	1927,14
585,21	1796,07
585,41	1830,88
585,60	1794,02
585,79	1968,10
585,99	1970,15
586,18	1757,16
586,37	2209,76
586,57	3381,20
586,76	10108,77
586,96	24792,71
587,15	34094,58
587,34	40318,36
587,54	42003,84
587,73	36302,29
587,93	26201,71
588,12	21309,11
588,31	18183,91
588,51	16086,79
588,70	15099,67
588,89	13903,66
589,09	12642,11
589,28	10995,54
589,47	9340,79
589,67	7976,84
589,86	6418,33
590,06	4921,27
590,25	3778,50
590,44	3155,92
590,64	2664,41
590,83	2299,87
591,02	2131,94
591,22	1910,75
591,41	1912,80
591,60	1822,69
591,80	1947,62
591,99	1691,62
592,18	1722,34
592,38	1779,68
592,57	1777,64
592,76	1794,02
592,96	1746,92
593,15	1814,50
593,34	1851,36
593,54	1705,96
593,73	1777,64
593,92	1744,87
594,12	1720,29
594,31	1791,97
594,50	1822,69
594,70	1777,64
594,89	1935,33
595,08	1691,62
595,28	1753,06
595,47	1916,90
595,66	1837,03
595,86	1693,67
596,05	1724,39
596,24	1667,05
596,43	1859,56
596,63	1800,16
596,82	1775,59
597,01	1800,16
597,21	1865,70
597,40	1796,07
597,59	1769,44
597,79	1648,61
597,98	1783,78
598,17	1705,96
598,36	1742,82
598,56	1726,44
598,75	1728,49
598,94	1775,59
599,14	1720,29
599,33	1699,81
599,52	1798,12
599,71	1728,49
599,91	1718,25
600,10	1773,54
600,29	1734,63
600,48	1800,16
600,68	1740,77
600,87	1769,44
601,06	1798,12
601,26	1681,38
601,45	1771,49
601,64	1695,72
601,83	1798,12
602,03	1714,15
602,22	1669,09
602,41	1832,93
602,60	1882,08
602,80	1806,31
602,99	1794,02
603,18	1720,29
603,37	1724,39
603,57	1796,07
603,76	1740,77
603,95	1785,83
604,14	1701,86
604,34	1669,09
604,53	1685,48
604,72	1755,11
604,91	1773,54
605,10	1781,73
605,30	1617,90
605,49	1808,36
605,68	1824,74
605,87	1724,39
606,07	1697,77
606,26	1714,15
606,45	1761,25
606,64	1712,10
606,84	1710,05
607,03	1712,10
607,22	1722,34
607,41	1652,71
607,60	1761,25
607,80	1818,60
607,99	1734,63
608,18	1689,57
608,37	1757,16
608,56	1748,97
608,76	1789,92
608,95	1812,45
609,14	1699,81
609,33	1834,98
609,52	1769,44
609,72	1746,92
609,91	1728,49
610,10	1791,97
610,29	1906,66
610,48	1677,29
610,68	1742,82
610,87	1683,43
611,06	1857,51
611,25	1753,06
611,44	1714,15
611,63	1755,11
611,83	1732,58
612,02	1654,76
612,21	1783,78
612,40	1660,90
612,59	1673,19
612,79	1613,80
612,98	1759,21
613,17	1857,51
613,36	1724,39
613,55	1818,60
613,74	1736,68
613,93	1675,24
614,13	1726,44
614,32	1638,38
614,51	1691,62
614,70	1710,05
614,89	1665,00
615,08	1783,78
615,28	2084,83
615,47	1640,42
615,66	1640,42
615,85	1769,44
616,04	1800,16
616,23	1775,59
616,42	1677,29
616,62	1710,05
616,81	1763,30
617,00	1679,33
617,19	1804,26
617,38	1650,66
617,57	1691,62
617,76	1765,35
617,95	1722,34
618,15	1728,49
618,34	1804,26
618,53	1681,38
618,72	1796,07
618,91	1755,11
619,10	1785,83
619,29	1669,09
619,48	1800,16
619,68	1734,63
619,87	1718,25
620,06	1746,92
620,25	1732,58
620,44	1730,53
620,63	1697,77
620,82	1650,66
621,01	1746,92
621,20	1765,35
621,39	1695,72
621,59	1734,63
621,78	1710,05
621,97	1685,48
622,16	1714,15
622,35	1800,16
622,54	1769,44
622,73	1808,36
622,92	1658,85
623,11	1796,07
623,30	1759,21
623,49	1734,63
623,68	1708,01
623,88	1847,27
624,07	1714,15
624,26	1681,38
624,45	1783,78
624,64	1689,57
624,83	1710,05
625,02	1630,18
625,21	1746,92
625,40	1761,25
625,59	1773,54
625,78	1662,95
625,97	1834,98
626,16	1794,02
626,35	1787,88
626,54	1673,19
626,74	1783,78
626,93	1708,01
627,12	1710,05
627,31	1779,68
627,50	1695,72
627,69	1773,54
627,88	1689,57
628,07	1689,57
628,26	1687,53
628,45	1669,09
628,64	1671,14
628,83	1650,66
629,02	1722,34
629,21	1738,73
629,40	1757,16
629,59	1652,71
629,78	1677,29
629,97	1771,49
630,16	1703,91
630,35	1701,86
630,54	1626,09
630,73	1738,73
630,92	1660,90
631,11	1669,09
631,30	1740,77
631,49	1849,32
631,68	1753,06
631,87	1748,97
632,06	1636,33
632,25	1841,12
632,44	1640,42
632,63	1777,64
632,82	1689,57
633,01	1634,28
633,20	1673,19
633,39	1615,85
633,58	1634,28
633,77	1701,86
633,96	1718,25
634,15	1732,58
634,34	1701,86
634,53	1660,90
634,72	1630,18
634,91	1593,32
635,10	1730,53
635,29	1722,34
635,48	1730,53
635,67	1703,91
635,86	1673,19
636,05	1769,44
636,24	1744,87
636,43	1732,58
636,62	1722,34
636,81	1611,75
637,00	1656,81
637,19	1714,15
637,38	1671,14
637,57	1751,01
637,76	1654,76
637,95	1787,88
638,14	1654,76
638,33	1642,47
638,52	1742,82
638,71	1683,43
638,89	1624,04
639,08	1851,36
639,27	1824,74
639,46	1619,94
639,65	1877,99
639,84	1693,67
640,03	1759,21
640,22	1648,61
640,41	1775,59
640,60	1679,33
640,79	1667,05
640,98	1697,77
641,17	1742,82
641,36	1685,48
641,55	1724,39
641,74	1605,61
641,92	1628,14
642,11	1611,75
642,30	1751,01
642,49	1761,25
642,68	1687,53
642,87	1775,59
643,06	1724,39
643,25	1669,09
643,44	1648,61
643,63	1712,10
643,82	1714,15
644,00	1734,63
644,19	1703,91
644,38	1685,48
644,57	1839,08
644,76	1687,53
644,95	1738,73
645,14	1718,25
645,33	1675,24
645,52	1765,35
645,71	1636,33
645,89	1667,05
646,08	1708,01
646,27	1722,34
646,46	1873,89
646,65	1574,89
646,84	1705,96
647,03	1634,28
647,22	1722,34
647,40	1695,72
647,59	1693,67
647,78	1611,75
647,97	1677,29
648,16	1744,87
648,35	1781,73
648,54	1812,45
648,73	1685,48
648,91	1769,44
649,10	1656,81
649,29	1695,72
649,48	1757,16
649,67	1779,68
649,86	1677,29
650,05	1630,18
650,23	1722,34
650,42	1673,19
650,61	1671,14
650,80	1789,92
650,99	1877,99
651,18	1712,10
651,36	1796,07
651,55	1628,14
651,74	1765,35
651,93	1675,24
652,12	1699,81
652,31	1705,96
652,49	1714,15
652,68	1677,29
652,87	1839,08
653,06	1830,88
653,25	1738,73
653,44	1753,06
653,62	1757,16
653,81	1701,86
654,00	1671,14
654,19	1746,92
654,38	1910,75
654,56	1724,39
654,75	1714,15
654,94	1755,11
655,13	1724,39
655,32	1654,76
655,51	1787,88
655,69	1683,43
655,88	1718,25
656,07	1710,05
656,26	1705,96
656,45	1648,61
656,63	1724,39
656,82	1796,07
657,01	1789,92
657,20	1679,33
657,38	1828,84
657,57	1740,77
657,76	1667,05
657,95	1753,06
658,14	1740,77
658,32	1783,78
658,51	1648,61
658,70	1785,83
658,89	1724,39
659,08	1716,20
659,26	1828,84
659,45	1658,85
659,64	1665,00
659,83	1636,33
660,01	1828,84
660,20	1705,96
660,39	1781,73
660,58	1695,72
660,76	1773,54
660,95	1734,63
661,14	1759,21
661,33	1644,52
661,51	1697,77
661,70	1701,86
661,89	1708,01
662,08	1730,53
662,26	1728,49
662,45	1628,14
662,64	1841,12
662,83	1785,83
663,01	1705,96
663,20	1656,81
663,39	1839,08
663,58	1703,91
663,76	1714,15
663,95	1789,92
664,14	1621,99
664,32	1705,96
664,51	1691,62
664,70	1611,75
664,89	1693,67
665,07	1642,47
665,26	1763,30
665,45	1638,38
665,64	1757,16
665,82	1757,16
666,01	1744,87
666,20	1683,43
666,38	1865,70
666,57	1820,64
666,76	2127,84
666,95	4454,33
667,13	10430,30
667,32	15124,25
667,51	17768,18
667,69	18855,65
667,88	17317,62
668,07	12369,73
668,25	9502,58
668,44	8136,58
668,63	7430,03
668,81	6856,60
669,00	6231,97
669,19	5533,61
669,38	4999,09
669,56	4636,60
669,75	3905,48
669,94	3373,00
670,12	2908,12
670,31	2484,19
670,50	2355,16
670,68	2162,66
670,87	1923,04
671,06	1847,27
671,24	1775,59
671,43	1812,45
671,62	1755,11
671,80	1654,76
671,99	1652,71
672,18	1656,81
672,36	1775,59
672,55	1765,35
672,74	1681,38
672,92	1726,44
673,11	1779,68
673,29	1640,42
673,48	1746,92
673,67	1691,62
673,85	1808,36
674,04	1675,24
674,23	1710,05
674,41	1763,30
674,60	1665,00
674,79	1599,46
674,97	1691,62
675,16	1763,30
675,34	1740,77
675,53	1789,92
675,72	1730,53
675,90	1859,56
676,09	1736,68
676,28	1722,34
676,46	1677,29
676,65	1710,05
676,83	1677,29
677,02	1722,34
677,21	1771,49
677,39	1751,01
677,58	1693,67
677,77	1673,19
677,95	1652,71
678,14	1687,53
678,32	1683,43
678,51	1597,42
678,70	1877,99
678,88	1658,85
679,07	1757,16
679,25	1683,43
679,44	1699,81
679,63	1572,84
679,81	1669,09
680,00	1757,16
680,18	1710,05
680,37	1732,58
680,55	1738,73
680,74	1626,09
680,93	1585,13
681,11	1710,05
681,30	1736,68
681,48	1685,48
681,67	1611,75
681,85	1730,53
682,04	1673,19
682,23	1781,73
682,41	1753,06
682,60	1697,77
682,78	1671,14
682,97	1591,27
683,15	1714,15
683,34	1685,48
683,53	1789,92
683,71	1597,42
683,90	1783,78
684,08	1828,84
684,27	1716,20
684,45	1796,07
684,64	1808,36
684,82	1701,86
685,01	1789,92
685,19	1763,30
685,38	1841,12
685,57	1693,67
685,75	1681,38
685,94	1658,85
686,12	1667,05
686,31	1644,52
686,49	1900,52
686,68	1697,77
686,86	1738,73
687,05	1650,66
687,23	1796,07
687,42	1705,96
687,60	1603,56
687,79	1824,74
687,97	1804,26
688,16	1785,83
688,34	1814,50
688,53	1632,23
688,71	1677,29
688,90	1724,39
689,08	1662,95
689,27	1634,28
689,45	1732,58
689,64	1705,96
689,82	1718,25
690,01	1660,90
690,19	1712,10
690,38	1708,01
690,56	1828,84
690,75	1679,33
690,93	1763,30
691,12	1724,39
691,30	1691,62
691,49	1652,71
691,67	1703,91
691,86	1722,34
692,04	1648,61
692,23	1683,43
692,41	1693,67
692,60	1816,55
692,78	1785,83
692,97	1644,52
693,15	1677,29
693,34	1800,16
693,52	1757,16
693,71	1716,20
693,89	1710,05
694,08	1613,80
694,26	1734,63
694,44	1787,88
694,63	1718,25
694,81	1718,25
695,00	1648,61
695,18	1746,92
695,37	1785,83
695,55	1736,68
695,74	1734,63
695,92	1662,95
696,10	1730,53
696,29	1636,33
696,47	1589,22
696,66	1732,58
696,84	1691,62
697,03	1662,95
697,21	1859,56
697,40	2197,47
697,58	1894,37
697,76	1679,33
697,95	1632,23
698,13	1609,70
698,32	1660,90
698,50	1662,95
698,68	1740,77
698,87	1669,09
699,05	1824,74
699,24	1763,30
699,42	1708,01
699,61	1681,38
699,79	1679,33
699,97	1613,80
700,16	1669,09
700,34	1644,52
700,53	1689,57
700,71	1769,44
700,89	1685,48
701,08	1675,24
701,26	1681,38
701,45	2107,36
701,63	1681,38
701,81	1705,96
702,00	1660,90
702,18	1742,82
702,37	1640,42
702,55	1746,92
702,73	1765,35
702,92	1601,51
703,10	1718,25
703,28	1718,25
703,47	1634,28
703,65	1755,11
703,84	1673,19
704,02	1683,43
704,20	1761,25
704,39	1685,48
704,57	1665,00
704,75	1748,97
704,94	1769,44
705,12	1695,72
705,30	1673,19
705,49	2326,49
705,67	4423,61
705,86	9537,39
706,04	12429,12
706,22	14456,61
706,41	15247,13
706,59	13666,10
706,77	9473,90
706,96	7321,49
707,14	6633,37
707,32	5963,68
707,51	5574,57
707,69	4855,73
707,87	4091,84
708,06	3459,02
708,24	3037,14
708,42	2488,28
708,61	2267,10
708,79	1898,47
708,97	1869,80
709,16	1855,46
709,34	1820,64
709,52	1720,29
709,71	1705,96
709,89	1771,49
710,07	1681,38
710,26	1615,85
710,44	1740,77
710,62	1832,93
710,80	1681,38
710,99	1712,10
711,17	1734,63
711,35	1734,63
711,54	1669,09
711,72	1820,64
711,90	1738,73
712,09	1730,53
712,27	1648,61
712,45	1777,64
712,63	1665,00
712,82	1759,21
713,00	1673,19
713,18	1726,44
713,37	1828,84
713,55	1718,25
713,73	1714,15
713,91	1708,01
714,10	1630,18
714,28	1699,81
714,46	1742,82
714,65	1679,33
714,83	1796,07
715,01	1656,81
715,19	1753,06
715,38	1746,92
715,56	1701,86
715,74	1669,09
715,92	1685,48
716,11	1761,25
716,29	1574,89
716,47	1681,38
716,65	1695,72
716,84	1638,38
717,02	1783,78
717,20	1617,90
717,38	1675,24
717,57	1714,15
717,75	1665,00
717,93	1705,96
718,11	1697,77
718,30	1695,72
718,48	1837,03
718,66	1742,82
718,84	1689,57
719,03	1720,29
719,21	1693,67
719,39	1744,87
719,57	1775,59
719,75	1716,20
719,94	1611,75
720,12	1656,81
720,30	1693,67
720,48	1834,98
720,67	1689,57
720,85	1714,15
721,03	1689,57
721,21	1634,28
721,39	1779,68
721,58	1751,01
721,76	1685,48
721,94	1720,29
722,12	1746,92
722,30	1724,39
722,49	1650,66
722,67	1746,92
722,85	1742,82
723,03	1599,46
723,21	1632,23
723,40	1722,34
723,58	1685,48
723,76	1724,39
723,94	1667,05
724,12	1699,81
724,30	1734,63
724,49	1718,25
724,67	1656,81
724,85	1748,97
725,03	1544,17
725,21	1730,53
725,40	1736,68
725,58	1730,53
725,76	1802,21
725,94	1691,62
726,12	1650,66
726,30	1738,73
726,49	1755,11
726,67	1716,20
726,85	1689,57
727,03	1722,34
727,21	2131,94
727,39	2865,11
727,57	3815,37
727,76	4124,61
727,94	4413,37
728,12	4356,03
728,30	3622,86
728,48	2916,31
728,66	2707,41
728,84	2559,96
729,03	2199,52
729,21	2140,13
729,39	1978,34
729,57	1843,17
729,75	1839,08
729,93	1814,50
730,11	1644,52
730,30	1644,52
730,48	1703,91
730,66	1822,69
730,84	1804,26
731,02	1693,67
731,20	1675,24
731,38	1755,11
731,56	1615,85
731,74	1671,14
731,93	1759,21
732,11	1736,68
732,29	1679,33
732,47	1691,62
732,65	1687,53
732,83	1748,97
733,01	1650,66
733,19	1656,81
733,37	1714,15
733,56	1728,49
733,74	1605,61
733,92	1785,83
734,10	1687,53
734,28	1662,95
734,46	1605,61
734,64	1697,77
734,82	1667,05
735,00	1685,48
735,18	1621,99
735,36	1738,73
735,54	1683,43
735,73	1724,39
735,91	1757,16
736,09	1830,88
736,27	1683,43
736,45	1699,81
736,63	1632,23
736,81	1673,19
736,99	1720,29
737,17	1798,12
737,35	1705,96
737,53	1679,33
737,71	1722,34
737,89	1843,17
738,07	1607,66
738,25	1648,61
738,43	1630,18
738,61	1732,58
738,80	1607,66
738,98	1642,47
739,16	1617,90
739,34	1662,95
739,52	1716,20
739,70	1669,09
739,88	1740,77
740,06	1724,39
740,24	1669,09
740,42	1761,25
740,60	1599,46
740,78	1722,34
740,96	1652,71
741,14	1720,29
741,32	1712,10
741,50	1640,42
741,68	1802,21
741,86	1691,62
742,04	1640,42
742,22	1626,09
742,40	1712,10
742,58	1759,21
742,76	1675,24
742,94	1730,53
743,12	1628,14
743,30	1753,06
743,48	1765,35
743,66	1669,09
743,84	1757,16
744,02	1638,38
744,20	1615,85
744,38	1636,33
744,56	1621,99
744,74	1865,70
744,92	1681,38
745,10	1777,64
745,28	1769,44
745,46	1765,35
745,64	1656,81
745,82	1726,44
746,00	1689,57
746,18	1714,15
746,36	1630,18
746,54	1669,09
746,72	1683,43
746,90	1595,37
747,08	1791,97
747,26	1669,09
747,44	1701,86
747,62	1812,45
747,80	1714,15
747,98	1751,01
748,15	1738,73
748,33	1753,06
748,51	1705,96
748,69	1759,21
748,87	1615,85
749,05	1716,20
749,23	1667,05
749,41	1730,53
749,59	1710,05
749,77	1710,05
749,95	1654,76
750,13	1607,66
750,31	1736,68
750,49	1660,90
750,67	1765,35
750,85	1783,78
751,03	1699,81
751,20	1767,40
751,38	1675,24
751,56	1632,23
751,74	1699,81
751,92	1732,58
752,10	1613,80
752,28	1822,69
752,46	1648,61
752,64	1734,63
752,82	1634,28
753,00	1779,68
753,18	1658,85
753,35	1746,92
753,53	1624,04
753,71	1675,24
753,89	1757,16
754,07	1724,39
754,25	1796,07
754,43	1720,29
754,61	1689,57
754,79	1687,53
754,97	1695,72
755,14	1834,98
755,32	1531,88
755,50	1660,90
755,68	1599,46
755,86	1656,81
756,04	1691,62
756,22	1660,90
756,40	1708,01
756,57	1910,75
756,75	1699,81
756,93	1789,92
757,11	1761,25
757,29	1619,94
757,47	1654,76
757,65	1581,03
757,82	1595,37
758,00	1705,96
758,18	1691,62
758,36	1660,90
758,54	1691,62
758,72	1564,65
758,90	1742,82
759,07	1697,77
759,25	1744,87
759,43	1679,33
759,61	1535,98
759,79	2152,42
759,97	1744,87
760,15	1691,62
760,32	1650,66
760,50	1689,57
760,68	1812,45
760,86	1601,51
761,04	1730,53
761,22	1665,00
761,39	1761,25
761,57	1656,81
761,75	1714,15
761,93	1783,78
762,11	1677,29
762,28	1669,09
762,46	1650,66
762,64	1697,77
762,82	1638,38
763,00	1693,67
763,18	1746,92
763,35	1615,85
763,53	1708,01
763,71	1744,87
763,89	1722,34
764,07	1726,44
764,24	1691,62
764,42	1814,50
764,60	1679,33
764,78	1736,68
764,96	1722,34
765,13	1771,49
765,31	1820,64
765,49	1744,87
765,67	1609,70
765,84	1642,47
766,02	1624,04
766,20	1587,18
766,38	1734,63
766,56	1714,15
766,73	1798,12
766,91	1740,77
767,09	1718,25
767,27	1689,57
767,44	1648,61
767,62	1738,73
767,80	1689,57
767,98	1675,24
768,15	1697,77
768,33	1748,97
768,51	1705,96
768,69	1693,67
768,87	1726,44
769,04	1697,77
769,22	1849,32
769,40	1812,45
769,58	1789,92
769,75	1710,05
769,93	1746,92
770,11	1687,53
770,28	1636,33
770,46	1779,68
770,64	1796,07
770,82	1640,42
770,99	1617,90
771,17	1738,73
771,35	1697,77
771,53	1660,90
771,70	1703,91
771,88	1740,77
772,06	1691,62
772,23	1685,48
772,41	1781,73
772,59	1677,29
772,77	1656,81
772,94	1662,95
773,12	1740,77
773,30	1652,71
773,47	1751,01
773,65	1718,25
773,83	1775,59
774,01	1699,81
774,18	1683,43
774,36	1650,66
774,54	1644,52
774,71	1759,21
774,89	1615,85
775,07	1601,51
775,24	1751,01
775,42	1638,38
775,60	1798,12
775,78	1710,05
775,95	1617,90
776,13	1587,18
776,31	1595,37
776,48	1710,05
776,66	1742,82
776,84	1660,90
777,01	1650,66
777,19	1732,58
777,37	1671,14
777,54	1767,40
777,72	1853,41
777,90	1781,73
778,07	1626,09
778,25	1902,56
778,43	1736,68
778,60	1626,09
778,78	1773,54
778,96	1806,31
779,13	1607,66
779,31	1714,15
779,49	1687,53
779,66	1759,21
779,84	1669,09
780,01	1687,53
780,19	1576,94
780,37	1736,68
780,54	1734,63
780,72	1660,90
780,90	1658,85
781,07	1720,29
781,25	1652,71
781,43	1785,83
781,60	1722,34
781,78	1765,35
781,95	1732,58
782,13	1675,24
782,31	1716,20
782,48	1624,04
782,66	1718,25
782,83	1814,50
783,01	1710,05
783,19	1740,77
783,36	1679,33
783,54	1636,33
783,72	1746,92
783,89	1675,24
784,07	1746,92
784,24	1677,29
784,42	1742,82
784,60	1654,76
784,77	1734,63
784,95	1554,41
785,12	1642,47
785,30	1693,67
785,47	1650,66
785,65	1654,76
785,83	1632,23
786,00	1667,05
786,18	1687,53
786,35	1630,18
786,53	1681,38
786,71	1718,25
786,88	1675,24
787,06	1757,16
787,23	1669,09
787,41	1597,42
787,58	1693,67
787,76	1667,05
787,94	1652,71
788,11	1738,73
788,29	1656,81
788,46	1648,61
788,64	1675,24
788,81	1628,14
788,99	1730,53
789,16	1619,94
789,34	1730,53
789,52	1634,28
789,69	1718,25
789,87	1585,13
790,04	1714,15
790,22	1677,29
790,39	1765,35
790,57	1656,81
790,74	1589,22
790,92	1712,10
791,09	1605,61
791,27	1714,15
791,44	1732,58
791,62	1708,01
791,79	1716,20
791,97	1712,10
792,15	1820,64
792,32	1708,01
792,50	1697,77
792,67	1802,21
792,85	1748,97
793,02	1652,71
793,20	1681,38
793,37	1652,71
793,55	1736,68
793,72	1677,29
793,90	1662,95
794,07	1640,42
794,25	1675,24
794,42	1746,92
794,60	1708,01
794,77	1691,62
794,95	1726,44
795,12	1730,53
795,30	1689,57
795,47	1683,43
795,65	1888,23
795,82	1736,68
796,00	1669,09
796,17	1693,67
796,34	1724,39
796,52	1644,52
796,69	1761,25
796,87	1730,53
797,04	1742,82
797,22	1716,20
797,39	1648,61
797,57	1697,77
797,74	1730,53
797,92	1683,43
798,09	1691,62
798,27	1773,54
798,44	1773,54
798,62	1607,66
798,79	1697,77
798,96	1753,06
799,14	1677,29
799,31	1828,84
799,49	1751,01
799,66	1732,58
799,84	1738,73
800,01	1599,46
800,19	1800,16
800,36	1679,33
800,53	1732,58
800,71	1763,30
800,88	1773,54
801,06	1640,42
801,23	1665,00
801,41	1669,09
801,58	1689,57
801,75	1675,24
801,93	1691,62
802,10	1734,63
802,28	1646,57
802,45	1685,48
802,63	1781,73
802,80	1767,40
802,97	1722,34
803,15	1658,85
803,32	1738,73
803,50	1644,52
803,67	1656,81
803,84	1681,38
804,02	1660,90
804,19	1646,57
804,37	1589,22
804,54	1642,47
804,71	1679,33
804,89	1736,68
805,06	1656,81
805,24	1636,33
805,41	1685,48
805,58	1642,47
805,76	1736,68
805,93	1648,61
806,10	1759,21
806,28	1710,05
806,45	1722,34
806,63	1716,20
806,80	1783,78
806,97	1697,77
807,15	1757,16
807,32	1689,57
807,49	1671,14
807,67	1605,61
807,84	1728,49
808,01	1636,33
808,19	1787,88
808,36	1843,17
808,54	1609,70
808,71	1628,14
808,88	1693,67
809,06	1748,97
809,23	1820,64
809,40	1624,04
809,58	1769,44
809,75	1712,10
809,92	1609,70
810,10	1806,31
810,27	1652,71
810,44	1726,44
810,62	1714,15
810,79	1718,25
810,96	1632,23
811,14	1673,19
811,31	1732,58
811,48	1718,25
811,66	1658,85
811,83	1683,43
812,00	1703,91
812,18	1730,53
812,35	1816,55
812,52	1658,85
812,69	1673,19
812,87	1689,57
813,04	1734,63
813,21	1705,96
813,39	1710,05
813,56	1683,43
813,73	1796,07
813,91	1665,00
814,08	1660,90
814,25	1660,90
814,42	1677,29
814,60	1691,62
814,77	1691,62
814,94	1673,19
815,12	1658,85
815,29	1748,97
815,46	1632,23
815,63	1746,92
815,81	1771,49
815,98	1658,85
816,15	1654,76
816,33	1769,44
816,50	1652,71
816,67	1695,72
816,84	1710,05
817,02	1669,09
817,19	1732,58
817,36	1710,05
817,53	1691,62
817,71	1599,46
817,88	1738,73
818,05	1703,91
818,22	1720,29
818,40	1755,11
818,57	1771,49
818,74	1744,87
818,91	1677,29
819,09	1822,69
819,26	1726,44
819,43	1642,47
819,60	1685,48
819,78	1834,98
819,95	1736,68
820,12	1671,14
820,29	1726,44
820,47	1800,16
820,64	1685,48
820,81	1634,28
820,98	1656,81
821,15	1675,24
821,33	1763,30
821,50	1611,75
821,67	1708,01
821,84	1767,40
822,02	1689,57
822,19	1693,67
822,36	1703,91
822,53	1701,86
822,70	1626,09
822,88	1693,67
823,05	1746,92
823,22	1675,24
823,39	1759,21
823,56	1771,49
823,74	1816,55
823,91	1621,99
824,08	1626,09
824,25	1611,75
824,42	1771,49
824,60	1656,81
824,77	1720,29
824,94	1648,61
825,11	1722,34
825,28	1640,42
825,45	1652,71
825,63	1734,63
825,80	1634,28
825,97	1712,10
826,14	1726,44
826,31	1665,00
826,48	1697,77
826,66	1660,90
826,83	1693,67
827,00	1681,38
827,17	1619,94
827,34	1683,43
827,51	1673,19
827,69	1705,96
827,86	1562,60
828,03	1689,57
828,20	1648,61
828,37	1726,44
828,54	1658,85
828,71	1705,96
828,89	1865,70
829,06	1755,11
829,23	1738,73
829,40	1624,04
829,57	1581,03
829,74	1710,05
829,91	1624,04
830,09	1722,34
830,26	1796,07
830,43	1751,01
830,60	1689,57
830,77	1783,78
830,94	1796,07
831,11	1665,00
831,28	1646,57
831,46	1656,81
831,63	1671,14
831,80	1724,39
831,97	1597,42
832,14	1648,61
832,31	1683,43
832,48	1751,01
832,65	1773,54
832,82	1789,92
832,99	1714,15
833,17	1626,09
833,34	1789,92
833,51	1785,83
833,68	1605,61
833,85	1746,92
834,02	1652,71
834,19	1646,57
834,36	1626,09
834,53	1744,87
834,70	1746,92
834,87	1787,88
835,04	1726,44
835,22	1738,73
835,39	1689,57
835,56	1730,53
835,73	1613,80
835,90	1773,54
836,07	1646,57
836,24	1742,82
836,41	1562,60
836,58	1665,00
836,75	1773,54
836,92	1746,92
837,09	1630,18
837,26	1671,14
837,43	1677,29
837,60	1714,15
837,77	1710,05
837,94	1757,16
838,12	1818,60
838,29	1726,44
838,46	1701,86
838,63	1640,42
838,80	1753,06
838,97	1765,35
839,14	1603,56
839,31	1640,42
839,48	1681,38
839,65	1720,29
839,82	1673,19
839,99	1691,62
840,16	1667,05
840,33	1658,85
840,50	1765,35
840,67	1591,27
840,84	1589,22
841,01	1765,35
841,18	1646,57
841,35	1726,44
841,52	1683,43
841,69	1716,20
841,86	1697,77
842,03	1628,14
842,20	1783,78
842,37	1691,62
842,54	1714,15
842,71	1740,77
842,88	1615,85
843,05	1748,97
843,22	1652,71
843,39	1755,11
843,56	1658,85
843,73	1658,85
843,90	1755,11
844,07	1708,01
844,24	1736,68
844,41	1708,01
844,58	1746,92
844,75	1708,01
844,92	1724,39
845,09	1800,16
845,26	1640,42
845,43	1681,38
845,60	1669,09
845,77	1785,83
845,94	1687,53
846,10	1722,34
846,27	1646,57
846,44	1689,57
846,61	1642,47
846,78	1787,88
846,95	1732,58
847,12	1660,90
847,29	1638,38
847,46	1667,05
847,63	1748,97
847,80	1726,44
847,97	1697,77
848,14	1771,49
848,31	1652,71
848,48	1656,81
848,65	1708,01
848,82	1675,24
848,98	1863,65
849,15	1714,15
849,32	1761,25
849,49	1794,02
849,66	1597,42
849,83	1687,53
850,00	1632,23
850,17	1755,11
850,34	1658,85
850,51	1705,96
850,68	1691,62
850,85	1779,68
851,01	1761,25
851,18	1755,11
851,35	1656,81
851,52	1677,29
851,69	1787,88
851,86	1589,22
852,03	1652,71
852,20	1722,34
852,37	1726,44
852,53	1685,48
852,70	1677,29
852,87	1626,09
853,04	1716,20
853,21	1660,90
853,38	1804,26
853,55	1759,21
853,72	1789,92
853,89	1712,10
854,05	1603,56
854,22	1595,37
854,39	1701,86
854,56	1726,44
854,73	1755,11
854,90	1636,33
855,07	1673,19
855,23	1642,47
855,40	1662,95
855,57	1640,42
855,74	1574,89
855,91	1828,84
856,08	1546,22
856,25	1562,60
856,41	1693,67
856,58	1636,33
856,75	1671,14
856,92	1652,71
857,09	1808,36
857,26	1632,23
857,42	1722,34
857,59	1728,49
857,76	1697,77
857,93	1742,82
858,10	1683,43
858,27	1658,85
858,43	1736,68
858,60	1619,94
858,77	1583,08
858,94	1728,49
859,11	1796,07
859,27	1626,09
859,44	1714,15
859,61	1746,92
859,78	1699,81
859,95	1714,15
860,12	1658,85
860,28	1796,07
860,45	1806,31
860,62	1642,47
860,79	1701,86
860,95	1671,14
861,12	1681,38
861,29	1693,67
861,46	1669,09
861,63	1767,40
861,79	1732,58
861,96	1693,67
862,13	1656,81
862,30	1689,57
862,47	1587,18
862,63	1566,70
862,80	1763,30
862,97	1777,64
863,14	1755,11
863,30	1673,19
863,47	1683,43
863,64	1742,82
863,81	1775,59
863,97	1658,85
864,14	1601,51
864,31	1677,29
864,48	1644,52
864,65	1683,43
864,81	1714,15
864,98	1703,91
865,15	1726,44
865,32	1771,49
865,48	1785,83
865,65	1775,59
865,82	1738,73
865,98	1708,01
866,15	1697,77
866,32	1724,39
866,49	1667,05
866,65	1708,01
866,82	1701,86
866,99	1675,24
867,16	1654,76
867,32	1734,63
867,49	1658,85
867,66	1720,29
867,83	1689,57
867,99	1714,15
868,16	1636,33
868,33	1621,99
868,49	1759,21
868,66	1667,05
868,83	1767,40
868,99	1734,63
869,16	1734,63
869,33	1769,44
869,50	1812,45
869,66	1642,47
869,83	1667,05
870,00	1701,86
870,16	1726,44
870,33	1587,18
870,50	1742,82
870,66	1726,44
870,83	1779,68
871,00	1685,48
871,17	1683,43
871,33	1652,71
871,50	1677,29
871,67	1669,09
871,83	1648,61
872,00	1724,39
872,17	1689,57
872,33	1818,60
872,50	1763,30
872,67	1638,38
872,83	1646,57
873,00	1630,18
873,17	1687,53
873,33	1679,33
873,50	1695,72
873,67	1621,99
873,83	1648,61
874,00	1669,09
874,16	1689,57
874,33	1679,33
874,50	1621,99
874,66	1660,90
874,83	1650,66
875,00	1730,53
875,16	1724,39
875,33	1697,77
875,50	1640,42
875,66	1656,81
875,83	1714,15
875,99	1759,21
876,16	1732,58
876,33	1634,28
876,49	1785,83
876,66	1753,06
876,83	1748,97
876,99	1677,29
877,16	1675,24
877,32	1665,00
877,49	1671,14
877,66	1769,44
877,82	1859,56
877,99	1720,29
878,15	1765,35
878,32	1669,09
878,49	1642,47
878,65	1615,85
878,82	1714,15
878,98	1662,95
879,15	1726,44
879,32	1746,92
879,48	1689,57
879,65	1630,18
879,81	1673,19
879,98	1650,66
880,15	1642,47
880,31	1656,81
880,48	1679,33
880,64	1730,53
880,81	1703,91
880,97	1820,64
881,14	1730,53
881,31	1675,24
881,47	1898,47
881,64	1638,38
881,80	1679,33
881,97	1777,64
882,13	1812,45
882,30	1564,65
882,47	1652,71
882,63	1636,33
882,80	1648,61
882,96	1748,97
883,13	1748,97
883,29	1687,53
883,46	1779,68
883,62	1798,12
883,79	1673,19
883,95	1708,01
884,12	1673,19
884,29	1710,05
884,45	1634,28
884,62	1773,54
884,78	1669,09
884,95	1808,36
885,11	1632,23
885,28	1785,83
885,44	1638,38
885,61	1755,11
885,77	1826,79
885,94	1722,34
886,10	1722,34
886,27	1724,39
886,43	1718,25
886,60	1755,11
886,76	1654,76
886,93	1669,09
887,09	1812,45
887,26	1624,04
887,42	1667,05
887,59	1734,63
887,75	1832,93
887,92	1781,73
888,08	1722,34
888,25	1753,06
888,41	1710,05
888,58	1687,53
888,74	1697,77
888,91	1611,75
>>>>>End Processed Spectral Data<<<<<
