SpectraSuite Data File
++++++++++++++++++++++++++++++++++++
Date: Mon Jun 06 15:51:37 CEST 2016
User: root
Dark Spectrum Present: No
Reference Spectrum Present: No
Number of Sampled Component Spectra: 1
Spectrometers: USB4C02835
Integration Time (usec): 100000 (USB4C02835)
Spectra Averaged: 1 (USB4C02835)
Boxcar Smoothing: 0 (USB4C02835)
Correct for Electrical Dark: No (USB4C02835)
Strobe/Lamp Enabled: No (USB4C02835)
Correct for Detector Non-linearity: No (USB4C02835)
Correct for Stray Light: No (USB4C02835)
Number of Pixels in Processed Spectrum: 3648
>>>>>Begin Processed Spectral Data<<<<<
177,47	1439,72
177,69	1439,72
177,91	1439,72
178,13	1492,97
178,36	1472,49
178,58	1689,57
178,80	1796,07
179,02	1660,90
179,24	1724,39
179,46	1716,20
179,68	1783,78
179,90	1695,72
180,13	1683,43
180,35	1648,61
180,57	1685,48
180,79	1693,67
181,01	1720,29
181,23	1726,44
181,45	1740,77
181,67	1695,72
181,90	1765,35
182,12	1630,18
182,34	1609,70
182,56	1744,87
182,78	1697,77
183,00	1781,73
183,22	1714,15
183,44	1646,57
183,66	1892,32
183,89	1843,17
184,11	1810,40
184,33	1671,14
184,55	1824,74
184,77	1738,73
184,99	1757,16
185,21	1724,39
185,43	1847,27
185,65	1634,28
185,87	1710,05
186,10	1843,17
186,32	1867,75
186,54	1777,64
186,76	1775,59
186,98	1796,07
187,20	1730,53
187,42	1734,63
187,64	1806,31
187,86	1767,40
188,08	1744,87
188,30	1724,39
188,52	1701,86
188,75	1748,97
188,97	1771,49
189,19	1683,43
189,41	1671,14
189,63	1787,88
189,85	1777,64
190,07	1681,38
190,29	1630,18
190,51	1693,67
190,73	1691,62
190,95	1820,64
191,17	1791,97
191,39	1609,70
191,61	1667,05
191,84	1683,43
192,06	1699,81
192,28	1650,66
192,50	1884,13
192,72	1736,68
192,94	1681,38
193,16	1708,01
193,38	1724,39
193,60	1708,01
193,82	1705,96
194,04	1830,88
194,26	1683,43
194,48	1656,81
194,70	1708,01
194,92	1748,97
195,14	1730,53
195,36	1728,49
195,58	1636,33
195,80	1667,05
196,02	1634,28
196,24	1685,48
196,46	1802,21
196,69	1677,29
196,91	1859,56
197,13	1697,77
197,35	1685,48
197,57	1761,25
197,79	1742,82
198,01	1742,82
198,23	1695,72
198,45	1810,40
198,67	1593,32
198,89	1705,96
199,11	1753,06
199,33	1669,09
199,55	1615,85
199,77	1640,42
199,99	1771,49
200,21	1744,87
200,43	1755,11
200,65	1705,96
200,87	1669,09
201,09	1712,10
201,31	1619,94
201,53	1806,31
201,75	1738,73
201,97	1816,55
202,19	1712,10
202,41	1773,54
202,63	1857,51
202,85	1720,29
203,07	1724,39
203,29	1636,33
203,51	1634,28
203,73	1656,81
203,95	1931,23
204,17	1738,73
204,39	1742,82
204,61	1665,00
204,83	1724,39
205,05	1839,08
205,27	1730,53
205,49	1853,41
205,71	1673,19
205,93	1632,23
206,15	1677,29
206,37	1783,78
206,59	1751,01
206,81	1660,90
207,03	1730,53
207,25	1685,48
207,47	1708,01
207,69	1697,77
207,91	1755,11
208,13	1806,31
208,34	1650,66
208,56	1640,42
208,78	1802,21
209,00	1648,61
209,22	1665,00
209,44	1710,05
209,66	1716,20
209,88	1736,68
210,10	1775,59
210,32	1736,68
210,54	1783,78
210,76	1671,14
210,98	1777,64
211,20	1615,85
211,42	1718,25
211,64	1832,93
211,86	1705,96
212,08	1802,21
212,30	1732,58
212,52	1744,87
212,74	1687,53
212,96	1708,01
213,17	1718,25
213,39	1718,25
213,61	1806,31
213,83	1728,49
214,05	1669,09
214,27	1732,58
214,49	1642,47
214,71	1638,38
214,93	1800,16
215,15	1681,38
215,37	1746,92
215,59	1546,22
215,81	1744,87
216,03	1798,12
216,24	1738,73
216,46	1689,57
216,68	1665,00
216,90	1812,45
217,12	1828,84
217,34	1751,01
217,56	1673,19
217,78	1785,83
218,00	1761,25
218,22	1722,34
218,44	1757,16
218,66	1632,23
218,87	1740,77
219,09	1720,29
219,31	1708,01
219,53	1755,11
219,75	1718,25
219,97	1712,10
220,19	1736,68
220,41	1705,96
220,63	1773,54
220,85	1748,97
221,06	1656,81
221,28	1738,73
221,50	1708,01
221,72	1681,38
221,94	1734,63
222,16	1626,09
222,38	1728,49
222,60	1685,48
222,82	1638,38
223,03	1710,05
223,25	1585,13
223,47	1757,16
223,69	1824,74
223,91	1755,11
224,13	1751,01
224,35	1685,48
224,57	1775,59
224,78	1701,86
225,00	1724,39
225,22	1732,58
225,44	1740,77
225,66	1796,07
225,88	1708,01
226,10	1787,88
226,32	1710,05
226,53	1769,44
226,75	1728,49
226,97	1759,21
227,19	1683,43
227,41	1646,57
227,63	1687,53
227,85	1697,77
228,06	1845,22
228,28	1662,95
228,50	1787,88
228,72	1681,38
228,94	1693,67
229,16	1665,00
229,37	1662,95
229,59	1714,15
229,81	1806,31
230,03	1685,48
230,25	1626,09
230,47	1638,38
230,69	1644,52
230,90	1685,48
231,12	1693,67
231,34	1798,12
231,56	1789,92
231,78	1605,61
232,00	1716,20
232,21	1695,72
232,43	1683,43
232,65	1548,26
232,87	1753,06
233,09	1697,77
233,30	1650,66
233,52	1730,53
233,74	1638,38
233,96	1712,10
234,18	1626,09
234,40	1732,58
234,61	1902,56
234,83	1660,90
235,05	1628,14
235,27	1916,90
235,49	1808,36
235,70	1665,00
235,92	1839,08
236,14	1710,05
236,36	1869,80
236,58	1617,90
236,79	1787,88
237,01	1646,57
237,23	1675,24
237,45	1789,92
237,67	1601,51
237,88	1677,29
238,10	1824,74
238,32	1693,67
238,54	1722,34
238,76	1671,14
238,97	1658,85
239,19	1636,33
239,41	1767,40
239,63	1785,83
239,85	1697,77
240,06	1679,33
240,28	1632,23
240,50	1759,21
240,72	1628,14
240,93	1744,87
241,15	1800,16
241,37	1720,29
241,59	1736,68
241,81	1732,58
242,02	1675,24
242,24	1781,73
242,46	1767,40
242,68	1695,72
242,89	1699,81
243,11	1710,05
243,33	1767,40
243,55	1710,05
243,76	1681,38
243,98	1650,66
244,20	1722,34
244,42	1685,48
244,64	1718,25
244,85	1691,62
245,07	1667,05
245,29	1791,97
245,51	1689,57
245,72	1716,20
245,94	1779,68
246,16	1738,73
246,38	1755,11
246,59	1736,68
246,81	1687,53
247,03	1656,81
247,24	1574,89
247,46	1591,27
247,68	1822,69
247,90	1730,53
248,11	1617,90
248,33	1775,59
248,55	1654,76
248,77	1769,44
248,98	1771,49
249,20	1808,36
249,42	1763,30
249,64	1761,25
249,85	1695,72
250,07	1652,71
250,29	1722,34
250,50	1705,96
250,72	1605,61
250,94	1728,49
251,16	1693,67
251,37	1796,07
251,59	1812,45
251,81	1703,91
252,02	1781,73
252,24	1734,63
252,46	1800,16
252,68	1636,33
252,89	1734,63
253,11	1714,15
253,33	1759,21
253,54	1773,54
253,76	1683,43
253,98	1669,09
254,20	1689,57
254,41	1617,90
254,63	1740,77
254,85	1595,37
255,06	1765,35
255,28	1769,44
255,50	1746,92
255,71	1671,14
255,93	1628,14
256,15	1656,81
256,36	1783,78
256,58	1687,53
256,80	1781,73
257,02	1656,81
257,23	1710,05
257,45	1746,92
257,67	1730,53
257,88	1669,09
258,10	1720,29
258,32	1767,40
258,53	1822,69
258,75	1740,77
258,97	1689,57
259,18	1708,01
259,40	1691,62
259,62	1867,75
259,83	1773,54
260,05	1712,10
260,27	1951,71
260,48	1755,11
260,70	1630,18
260,92	1683,43
261,13	1767,40
261,35	1675,24
261,57	1705,96
261,78	1656,81
262,00	1609,70
262,22	1775,59
262,43	1705,96
262,65	1665,00
262,86	1796,07
263,08	1914,85
263,30	1722,34
263,51	1630,18
263,73	1691,62
263,95	1814,50
264,16	1722,34
264,38	1710,05
264,60	1744,87
264,81	1671,14
265,03	1773,54
265,25	1785,83
265,46	1716,20
265,68	1748,97
265,89	1753,06
266,11	1554,41
266,33	1693,67
266,54	1789,92
266,76	1757,16
266,98	1734,63
267,19	1785,83
267,41	1806,31
267,62	1769,44
267,84	1591,27
268,06	1730,53
268,27	1816,55
268,49	1765,35
268,70	1734,63
268,92	1693,67
269,14	1695,72
269,35	1597,42
269,57	1679,33
269,79	1718,25
270,00	1771,49
270,22	1785,83
270,43	1697,77
270,65	1576,94
270,87	1687,53
271,08	1767,40
271,30	1839,08
271,51	1751,01
271,73	1720,29
271,95	1857,51
272,16	1714,15
272,38	1787,88
272,59	1640,42
272,81	1746,92
273,02	1748,97
273,24	1742,82
273,46	1787,88
273,67	1646,57
273,89	1617,90
274,10	1691,62
274,32	1834,98
274,54	1738,73
274,75	1734,63
274,97	1693,67
275,18	1837,03
275,40	1834,98
275,61	1695,72
275,83	1619,94
276,05	1640,42
276,26	1662,95
276,48	1619,94
276,69	1691,62
276,91	1646,57
277,12	1734,63
277,34	1738,73
277,55	1763,30
277,77	1746,92
277,99	1671,14
278,20	1585,13
278,42	1699,81
278,63	1671,14
278,85	1648,61
279,06	1703,91
279,28	1710,05
279,49	1773,54
279,71	1816,55
279,93	1716,20
280,14	1714,15
280,36	1705,96
280,57	1767,40
280,79	1812,45
281,00	1648,61
281,22	1716,20
281,43	1839,08
281,65	1562,60
281,86	1607,66
282,08	1699,81
282,29	1880,04
282,51	1632,23
282,73	1581,03
282,94	1634,28
283,16	1783,78
283,37	1804,26
283,59	1779,68
283,80	1800,16
284,02	1697,77
284,23	1724,39
284,45	1724,39
284,66	1654,76
284,88	1660,90
285,09	1658,85
285,31	1687,53
285,52	1710,05
285,74	1660,90
285,95	1779,68
286,17	1638,38
286,38	1718,25
286,60	1675,24
286,81	1634,28
287,03	1693,67
287,24	1675,24
287,46	1669,09
287,67	1740,77
287,89	1767,40
288,10	1693,67
288,32	1685,48
288,53	1800,16
288,75	1732,58
288,96	1763,30
289,18	1669,09
289,39	1636,33
289,61	1808,36
289,82	1800,16
290,04	1834,98
290,25	1685,48
290,47	1671,14
290,68	1636,33
290,90	1796,07
291,11	1656,81
291,33	1814,50
291,54	1679,33
291,76	1699,81
291,97	1789,92
292,18	1728,49
292,40	1730,53
292,61	1648,61
292,83	1830,88
293,04	1775,59
293,26	1769,44
293,47	1751,01
293,69	1689,57
293,90	1675,24
294,12	1796,07
294,33	1665,00
294,55	1734,63
294,76	1736,68
294,97	1820,64
295,19	1785,83
295,40	1693,67
295,62	1714,15
295,83	1773,54
296,05	1712,10
296,26	1720,29
296,48	1695,72
296,69	1722,34
296,90	1724,39
297,12	1804,26
297,33	1794,02
297,55	1732,58
297,76	1683,43
297,98	1759,21
298,19	1705,96
298,41	1789,92
298,62	1599,46
298,83	1763,30
299,05	1730,53
299,26	1697,77
299,48	1607,66
299,69	1734,63
299,90	1650,66
300,12	1675,24
300,33	1853,41
300,55	1757,16
300,76	1781,73
300,98	1630,18
301,19	1755,11
301,40	1726,44
301,62	1658,85
301,83	1712,10
302,05	1736,68
302,26	1722,34
302,47	1710,05
302,69	1628,14
302,90	1621,99
303,12	1576,94
303,33	1685,48
303,54	1781,73
303,76	1755,11
303,97	1693,67
304,19	1806,31
304,40	1693,67
304,61	1714,15
304,83	1810,40
305,04	1849,32
305,26	1710,05
305,47	1712,10
305,68	1656,81
305,90	1636,33
306,11	1701,86
306,33	1783,78
306,54	1628,14
306,75	1685,48
306,97	1697,77
307,18	1714,15
307,39	1777,64
307,61	1757,16
307,82	1701,86
308,04	1791,97
308,25	1632,23
308,46	1808,36
308,68	1769,44
308,89	1748,97
309,10	1751,01
309,32	1710,05
309,53	1718,25
309,74	1794,02
309,96	1697,77
310,17	1755,11
310,39	1695,72
310,60	1673,19
310,81	1673,19
311,03	1624,04
311,24	1740,77
311,45	1773,54
311,67	1732,58
311,88	1703,91
312,09	1703,91
312,31	1591,27
312,52	1677,29
312,73	1671,14
312,95	1685,48
313,16	1689,57
313,37	1726,44
313,59	1736,68
313,80	1808,36
314,01	1777,64
314,23	1683,43
314,44	1642,47
314,65	1654,76
314,87	1630,18
315,08	1662,95
315,29	1724,39
315,51	1693,67
315,72	1669,09
315,93	1853,41
316,15	1714,15
316,36	1785,83
316,57	1714,15
316,79	1734,63
317,00	1669,09
317,21	1728,49
317,43	1695,72
317,64	1738,73
317,85	1716,20
318,07	1701,86
318,28	1560,55
318,49	1822,69
318,70	1957,86
318,92	1920,99
319,13	1865,70
319,34	1882,08
319,56	1738,73
319,77	1771,49
319,98	1867,75
320,20	1771,49
320,41	1839,08
320,62	1796,07
320,83	1708,01
321,05	1902,56
321,26	1724,39
321,47	1665,00
321,69	1732,58
321,90	1638,38
322,11	1660,90
322,32	1705,96
322,54	1732,58
322,75	1648,61
322,96	1853,41
323,18	1611,75
323,39	1544,17
323,60	1675,24
323,81	1710,05
324,03	1789,92
324,24	1708,01
324,45	1710,05
324,66	1646,57
324,88	1689,57
325,09	1832,93
325,30	1726,44
325,52	1736,68
325,73	1738,73
325,94	1701,86
326,15	1648,61
326,37	1699,81
326,58	1697,77
326,79	1851,36
327,00	1640,42
327,22	1740,77
327,43	1648,61
327,64	1667,05
327,85	1677,29
328,07	1775,59
328,28	1877,99
328,49	1781,73
328,70	1703,91
328,92	1755,11
329,13	1720,29
329,34	1693,67
329,55	1783,78
329,76	1822,69
329,98	1705,96
330,19	1751,01
330,40	1685,48
330,61	1703,91
330,83	1820,64
331,04	1640,42
331,25	1804,26
331,46	1710,05
331,68	1738,73
331,89	1710,05
332,10	1738,73
332,31	1593,32
332,52	1687,53
332,74	1808,36
332,95	1630,18
333,16	1734,63
333,37	1716,20
333,58	1667,05
333,80	1757,16
334,01	1611,75
334,22	1708,01
334,43	1742,82
334,64	1738,73
334,86	1675,24
335,07	1644,52
335,28	1789,92
335,49	1636,33
335,70	1681,38
335,92	1785,83
336,13	1765,35
336,34	1732,58
336,55	1722,34
336,76	1726,44
336,98	1611,75
337,19	1726,44
337,40	1753,06
337,61	1851,36
337,82	1671,14
338,04	1726,44
338,25	1712,10
338,46	1642,47
338,67	1683,43
338,88	1681,38
339,09	1669,09
339,31	1662,95
339,52	1601,51
339,73	1593,32
339,94	1656,81
340,15	1740,77
340,36	1734,63
340,58	1761,25
340,79	1705,96
341,00	1726,44
341,21	1685,48
341,42	1861,60
341,63	1697,77
341,85	1722,34
342,06	1748,97
342,27	1605,61
342,48	1697,77
342,69	1634,28
342,90	1703,91
343,12	1675,24
343,33	1705,96
343,54	1679,33
343,75	1740,77
343,96	1736,68
344,17	1589,22
344,38	1771,49
344,60	1660,90
344,81	1599,46
345,02	1746,92
345,23	1814,50
345,44	1861,60
345,65	1761,25
345,86	1796,07
346,07	1683,43
346,29	1724,39
346,50	1716,20
346,71	1763,30
346,92	1765,35
347,13	1906,66
347,34	1740,77
347,55	1716,20
347,76	1759,21
347,98	1720,29
348,19	1648,61
348,40	1828,84
348,61	1734,63
348,82	1828,84
349,03	1753,06
349,24	1720,29
349,45	1824,74
349,66	1587,18
349,88	1763,30
350,09	1699,81
350,30	1759,21
350,51	1802,21
350,72	1716,20
350,93	1691,62
351,14	1691,62
351,35	1705,96
351,56	1720,29
351,77	1798,12
351,99	1736,68
352,20	1824,74
352,41	1740,77
352,62	1642,47
352,83	1695,72
353,04	1757,16
353,25	1677,29
353,46	1738,73
353,67	1791,97
353,88	1562,60
354,09	1773,54
354,30	1705,96
354,52	1755,11
354,73	1665,00
354,94	1677,29
355,15	1714,15
355,36	1794,02
355,57	1638,38
355,78	1748,97
355,99	1662,95
356,20	1685,48
356,41	1746,92
356,62	1734,63
356,83	1730,53
357,04	1824,74
357,25	1552,36
357,46	1718,25
357,68	1656,81
357,89	1726,44
358,10	1662,95
358,31	1695,72
358,52	1681,38
358,73	1613,80
358,94	1630,18
359,15	1714,15
359,36	1767,40
359,57	1748,97
359,78	1734,63
359,99	1802,21
360,20	1667,05
360,41	1617,90
360,62	1814,50
360,83	1740,77
361,04	1740,77
361,25	1759,21
361,46	1767,40
361,67	1744,87
361,88	1812,45
362,09	1767,40
362,30	1703,91
362,51	1695,72
362,72	1673,19
362,93	1832,93
363,14	1730,53
363,35	1681,38
363,56	1665,00
363,78	1785,83
363,99	1761,25
364,20	1644,52
364,41	1757,16
364,62	1847,27
364,83	1724,39
365,04	1671,14
365,25	1658,85
365,46	1865,70
365,67	1716,20
365,88	1615,85
366,09	1632,23
366,30	1615,85
366,51	1783,78
366,72	1650,66
366,93	1699,81
367,14	1736,68
367,35	1820,64
367,56	1724,39
367,77	1865,70
367,98	1679,33
368,18	1798,12
368,39	1800,16
368,60	1632,23
368,81	1751,01
369,02	1708,01
369,23	1683,43
369,44	1578,98
369,65	1755,11
369,86	1722,34
370,07	1816,55
370,28	1677,29
370,49	1673,19
370,70	1841,12
370,91	1669,09
371,12	1718,25
371,33	1755,11
371,54	1712,10
371,75	1843,17
371,96	1509,35
372,17	1701,86
372,38	1644,52
372,59	1767,40
372,80	1708,01
373,01	1699,81
373,22	1701,86
373,43	1732,58
373,64	1677,29
373,85	1722,34
374,06	1837,03
374,26	1746,92
374,47	1683,43
374,68	1746,92
374,89	1757,16
375,10	1701,86
375,31	1724,39
375,52	1767,40
375,73	1718,25
375,94	1720,29
376,15	1841,12
376,36	1605,61
376,57	1615,85
376,78	1654,76
376,99	1841,12
377,20	1828,84
377,40	1720,29
377,61	1804,26
377,82	1564,65
378,03	1773,54
378,24	1642,47
378,45	1724,39
378,66	1720,29
378,87	1658,85
379,08	1607,66
379,29	1687,53
379,50	1765,35
379,71	1710,05
379,91	1804,26
380,12	1712,10
380,33	1703,91
380,54	1798,12
380,75	1728,49
380,96	1710,05
381,17	1789,92
381,38	1710,05
381,59	1738,73
381,80	1677,29
382,00	1806,31
382,21	1779,68
382,42	1771,49
382,63	1828,84
382,84	1791,97
383,05	1771,49
383,26	1789,92
383,47	1779,68
383,68	1724,39
383,88	1753,06
384,09	1787,88
384,30	1839,08
384,51	1701,86
384,72	1738,73
384,93	1718,25
385,14	1685,48
385,35	1849,32
385,55	1697,77
385,76	1724,39
385,97	1693,67
386,18	1726,44
386,39	1607,66
386,60	1744,87
386,81	1652,71
387,02	1697,77
387,22	1621,99
387,43	1757,16
387,64	1775,59
387,85	1904,61
388,06	2174,94
388,27	4192,19
388,48	6600,60
388,68	8099,72
388,89	9467,76
389,10	9719,66
389,31	8494,97
389,52	7462,80
389,73	6653,85
389,93	6211,49
390,14	5824,42
390,35	5027,76
390,56	4442,04
390,77	3837,89
390,98	2951,12
391,18	2525,15
391,39	2035,68
391,60	1873,89
391,81	1808,36
392,02	1755,11
392,23	1834,98
392,43	1761,25
392,64	1841,12
392,85	1777,64
393,06	1804,26
393,27	1708,01
393,47	1650,66
393,68	1712,10
393,89	1687,53
394,10	1738,73
394,31	1732,58
394,52	1685,48
394,72	1636,33
394,93	1675,24
395,14	1703,91
395,35	1765,35
395,56	1667,05
395,76	1763,30
395,97	1736,68
396,18	1894,37
396,39	1880,04
396,60	2058,21
396,80	1982,43
397,01	1839,08
397,22	1832,93
397,43	1820,64
397,64	1718,25
397,84	1812,45
398,05	1812,45
398,26	1775,59
398,47	1869,80
398,67	1808,36
398,88	1746,92
399,09	1703,91
399,30	1656,81
399,51	1714,15
399,71	1693,67
399,92	1697,77
400,13	1734,63
400,34	1710,05
400,54	1662,95
400,75	1820,64
400,96	1734,63
401,17	1796,07
401,37	1708,01
401,58	1773,54
401,79	1763,30
402,00	1947,62
402,21	1988,58
402,41	1888,23
402,62	2088,93
402,83	2080,74
403,04	2019,30
403,24	2070,50
403,45	1775,59
403,66	1908,71
403,87	1871,84
404,07	1902,56
404,28	1867,75
404,49	1837,03
404,70	1781,73
404,90	1796,07
405,11	1777,64
405,32	1812,45
405,52	1642,47
405,73	1675,24
405,94	1701,86
406,15	1730,53
406,35	1775,59
406,56	1837,03
406,77	1757,16
406,98	1744,87
407,18	1650,66
407,39	1861,60
407,60	1683,43
407,80	1716,20
408,01	1669,09
408,22	1695,72
408,43	1660,90
408,63	1718,25
408,84	1763,30
409,05	1767,40
409,25	1738,73
409,46	1652,71
409,67	1667,05
409,88	1681,38
410,08	1753,06
410,29	1785,83
410,50	1658,85
410,70	1802,21
410,91	1728,49
411,12	1689,57
411,32	1710,05
411,53	1722,34
411,74	1820,64
411,95	1751,01
412,15	1695,72
412,36	1751,01
412,57	1783,78
412,77	1804,26
412,98	1730,53
413,19	1665,00
413,39	1742,82
413,60	1789,92
413,81	1808,36
414,01	1705,96
414,22	1712,10
414,43	1806,31
414,63	1677,29
414,84	1738,73
415,05	1718,25
415,25	1642,47
415,46	1765,35
415,67	1712,10
415,87	1781,73
416,08	1716,20
416,29	1650,66
416,49	1699,81
416,70	1734,63
416,91	1705,96
417,11	1689,57
417,32	1759,21
417,53	1865,70
417,73	1777,64
417,94	1630,18
418,15	1691,62
418,35	1691,62
418,56	1734,63
418,77	1814,50
418,97	1646,57
419,18	1755,11
419,38	1660,90
419,59	1679,33
419,80	1832,93
420,00	1779,68
420,21	1751,01
420,42	1830,88
420,62	1693,67
420,83	1642,47
421,04	1693,67
421,24	1710,05
421,45	1714,15
421,65	1722,34
421,86	1687,53
422,07	1812,45
422,27	1759,21
422,48	1730,53
422,69	1634,28
422,89	1734,63
423,10	1634,28
423,30	1658,85
423,51	1724,39
423,72	1767,40
423,92	1755,11
424,13	1689,57
424,33	1779,68
424,54	1744,87
424,75	1734,63
424,95	1738,73
425,16	1691,62
425,36	1660,90
425,57	1828,84
425,78	1705,96
425,98	1789,92
426,19	1728,49
426,39	1679,33
426,60	1734,63
426,81	1773,54
427,01	1724,39
427,22	1712,10
427,42	1613,80
427,63	1687,53
427,83	1720,29
428,04	1791,97
428,25	1738,73
428,45	1798,12
428,66	1740,77
428,86	1736,68
429,07	1728,49
429,28	1759,21
429,48	1693,67
429,69	1699,81
429,89	1705,96
430,10	1632,23
430,30	1673,19
430,51	1773,54
430,71	1683,43
430,92	1763,30
431,13	1665,00
431,33	1779,68
431,54	1738,73
431,74	1791,97
431,95	1886,18
432,15	1640,42
432,36	1775,59
432,56	1656,81
432,77	1834,98
432,98	1767,40
433,18	1787,88
433,39	1648,61
433,59	1697,77
433,80	1804,26
434,00	1832,93
434,21	1699,81
434,41	1708,01
434,62	1853,41
434,82	1675,24
435,03	1634,28
435,23	1746,92
435,44	1601,51
435,64	1712,10
435,85	1787,88
436,06	1759,21
436,26	1767,40
436,47	1761,25
436,67	1736,68
436,88	1710,05
437,08	1726,44
437,29	1769,44
437,49	1726,44
437,70	1796,07
437,90	1732,58
438,11	1863,65
438,31	1855,46
438,52	1859,56
438,72	1832,93
438,93	1855,46
439,13	1753,06
439,34	1841,12
439,54	1773,54
439,75	1765,35
439,95	1814,50
440,16	1693,67
440,36	1775,59
440,57	1769,44
440,77	1759,21
440,98	1699,81
441,18	1771,49
441,39	1736,68
441,59	1656,81
441,80	1779,68
442,00	1697,77
442,21	1773,54
442,41	1701,86
442,62	1665,00
442,82	1718,25
443,02	1755,11
443,23	1689,57
443,43	1769,44
443,64	1828,84
443,84	1722,34
444,05	1837,03
444,25	1699,81
444,46	1757,16
444,66	1775,59
444,87	1765,35
445,07	1607,66
445,28	1787,88
445,48	1748,97
445,69	1771,49
445,89	1855,46
446,09	1763,30
446,30	1964,00
446,50	2691,03
446,71	3729,35
446,91	4304,83
447,12	4765,62
447,32	4874,17
447,53	4267,97
447,73	3889,09
447,93	3495,88
448,14	3248,08
448,34	3153,87
448,55	2914,26
448,75	2815,96
448,96	2729,94
449,16	2320,35
449,36	2267,10
449,57	2045,92
449,77	1927,14
449,98	1845,22
450,18	1845,22
450,39	1851,36
450,59	1820,64
450,79	1671,14
451,00	1710,05
451,20	1796,07
451,41	1673,19
451,61	1814,50
451,81	1779,68
452,02	1773,54
452,22	1701,86
452,43	1695,72
452,63	1720,29
452,84	1652,71
453,04	1732,58
453,24	1759,21
453,45	1689,57
453,65	1699,81
453,86	1701,86
454,06	1779,68
454,26	1748,97
454,47	1720,29
454,67	1783,78
454,87	1708,01
455,08	1742,82
455,28	1824,74
455,49	1740,77
455,69	1695,72
455,89	1796,07
456,10	1798,12
456,30	1652,71
456,51	1796,07
456,71	1771,49
456,91	1761,25
457,12	1685,48
457,32	1746,92
457,52	1705,96
457,73	1785,83
457,93	1699,81
458,14	1720,29
458,34	1693,67
458,54	1746,92
458,75	1644,52
458,95	1847,27
459,15	1667,05
459,36	1757,16
459,56	1779,68
459,76	1880,04
459,97	1759,21
460,17	1761,25
460,37	1779,68
460,58	1701,86
460,78	1757,16
460,99	1699,81
461,19	1789,92
461,39	1728,49
461,60	1763,30
461,80	1781,73
462,00	1630,18
462,21	1728,49
462,41	1746,92
462,61	1656,81
462,82	1613,80
463,02	1771,49
463,22	1744,87
463,43	1794,02
463,63	1771,49
463,83	1800,16
464,04	1810,40
464,24	1720,29
464,44	1751,01
464,64	1712,10
464,85	1724,39
465,05	1818,60
465,25	1724,39
465,46	1644,52
465,66	1798,12
465,86	1787,88
466,07	1714,15
466,27	1759,21
466,47	1681,38
466,68	1679,33
466,88	1746,92
467,08	1761,25
467,29	1789,92
467,49	1759,21
467,69	1748,97
467,89	1779,68
468,10	1718,25
468,30	1751,01
468,50	1769,44
468,71	1710,05
468,91	1665,00
469,11	1939,43
469,31	1740,77
469,52	1687,53
469,72	1779,68
469,92	1949,67
470,13	1687,53
470,33	1683,43
470,53	1820,64
470,73	2066,40
470,94	2279,39
471,14	2287,58
471,34	2531,29
471,54	2299,87
471,75	2220,00
471,95	2115,55
472,15	1951,71
472,36	2197,47
472,56	2205,66
472,76	2052,06
472,96	1970,15
473,17	1966,05
473,37	1945,57
473,57	1855,46
473,77	1869,80
473,98	1746,92
474,18	1740,77
474,38	1910,75
474,58	1755,11
474,79	1683,43
474,99	1814,50
475,19	1779,68
475,39	1673,19
475,60	1724,39
475,80	1722,34
476,00	1763,30
476,20	1695,72
476,41	1722,34
476,61	1798,12
476,81	1775,59
477,01	1648,61
477,21	1810,40
477,42	1781,73
477,62	1744,87
477,82	1890,28
478,02	1724,39
478,23	1867,75
478,43	1638,38
478,63	1654,76
478,83	1683,43
479,03	1722,34
479,24	1800,16
479,44	1867,75
479,64	1734,63
479,84	1601,51
480,04	1683,43
480,25	1785,83
480,45	1730,53
480,65	1673,19
480,85	1822,69
481,06	1738,73
481,26	1746,92
481,46	1796,07
481,66	1736,68
481,86	1726,44
482,06	1777,64
482,27	1693,67
482,47	1689,57
482,67	1771,49
482,87	1712,10
483,07	1783,78
483,28	1685,48
483,48	1679,33
483,68	1804,26
483,88	1675,24
484,08	1626,09
484,29	1662,95
484,49	1753,06
484,69	1699,81
484,89	1814,50
485,09	1822,69
485,29	1767,40
485,50	1812,45
485,70	1638,38
485,90	1769,44
486,10	1796,07
486,30	1779,68
486,50	1777,64
486,71	1722,34
486,91	1763,30
487,11	1759,21
487,31	1681,38
487,51	1726,44
487,71	1708,01
487,91	1699,81
488,12	1755,11
488,32	1662,95
488,52	1677,29
488,72	1621,99
488,92	1703,91
489,12	1843,17
489,32	1787,88
489,53	1785,83
489,73	1556,46
489,93	1914,85
490,13	1687,53
490,33	1683,43
490,53	1738,73
490,73	1712,10
490,94	1630,18
491,14	1812,45
491,34	1812,45
491,54	2082,78
491,74	2553,82
491,94	2979,79
492,14	3026,90
492,34	3051,47
492,54	2625,50
492,75	2457,56
492,95	2482,14
493,15	2279,39
493,35	2222,05
493,55	2240,48
493,75	2144,22
493,95	2150,37
494,15	1988,58
494,35	1943,52
494,56	1845,22
494,76	1775,59
494,96	1773,54
495,16	1783,78
495,36	1693,67
495,56	1751,01
495,76	1748,97
495,96	1761,25
496,16	1677,29
496,36	1869,80
496,56	1714,15
496,77	1783,78
496,97	1746,92
497,17	1812,45
497,37	1701,86
497,57	1753,06
497,77	1800,16
497,97	1683,43
498,17	1751,01
498,37	1751,01
498,57	1777,64
498,77	1730,53
498,97	1726,44
499,17	1851,36
499,38	1658,85
499,58	1794,02
499,78	1812,45
499,98	1875,94
500,18	1783,78
500,38	1775,59
500,58	1955,81
500,78	2547,67
500,98	4528,06
501,18	5793,70
501,38	6799,26
501,58	7098,26
501,78	6471,58
501,98	5371,82
502,18	4970,42
502,38	4347,84
502,58	4153,28
502,78	3821,51
502,98	3555,27
503,18	3422,16
503,38	3186,64
503,59	2846,68
503,79	2746,33
503,99	2426,84
504,19	2220,00
504,39	2205,66
504,59	2242,53
504,79	2033,63
504,99	2121,70
505,19	1869,80
505,39	1894,37
505,59	1966,05
505,79	1923,04
505,99	1884,13
506,19	1814,50
506,39	1873,89
506,59	1775,59
506,79	1710,05
506,99	1798,12
507,19	1826,79
507,39	1855,46
507,59	1744,87
507,79	1673,19
507,99	1720,29
508,19	1730,53
508,39	1695,72
508,59	1699,81
508,79	1820,64
508,99	1834,98
509,19	1673,19
509,39	1769,44
509,59	1714,15
509,79	1746,92
509,99	1789,92
510,19	1808,36
510,39	1798,12
510,59	1701,86
510,79	1740,77
510,99	1689,57
511,19	1689,57
511,39	1851,36
511,59	1845,22
511,79	1853,41
511,99	1775,59
512,19	1855,46
512,38	1748,97
512,58	1681,38
512,78	1761,25
512,98	1824,74
513,18	1787,88
513,38	1689,57
513,58	1888,23
513,78	1689,57
513,98	1789,92
514,18	1759,21
514,38	1685,48
514,58	1701,86
514,78	1701,86
514,98	1757,16
515,18	1740,77
515,38	1748,97
515,58	1732,58
515,78	1665,00
515,98	1732,58
516,18	1769,44
516,38	1742,82
516,57	1728,49
516,77	1730,53
516,97	1777,64
517,17	1642,47
517,37	1654,76
517,57	1726,44
517,77	1699,81
517,97	1755,11
518,17	1771,49
518,37	1699,81
518,57	1646,57
518,77	1703,91
518,97	1753,06
519,16	1765,35
519,36	1837,03
519,56	1701,86
519,76	1763,30
519,96	1767,40
520,16	1794,02
520,36	1730,53
520,56	1845,22
520,76	1636,33
520,96	1656,81
521,16	1808,36
521,35	1761,25
521,55	1794,02
521,75	1701,86
521,95	1699,81
522,15	1759,21
522,35	1615,85
522,55	1710,05
522,75	1755,11
522,95	1759,21
523,14	1652,71
523,34	1751,01
523,54	1683,43
523,74	1775,59
523,94	1789,92
524,14	1603,56
524,34	1718,25
524,54	1849,32
524,73	1724,39
524,93	1779,68
525,13	1777,64
525,33	1650,66
525,53	1892,32
525,73	1804,26
525,93	1753,06
526,13	1736,68
526,32	1697,77
526,52	1767,40
526,72	1796,07
526,92	1789,92
527,12	1697,77
527,32	1652,71
527,52	1718,25
527,71	1765,35
527,91	1732,58
528,11	1744,87
528,31	1798,12
528,51	1689,57
528,71	1763,30
528,90	1769,44
529,10	1775,59
529,30	1828,84
529,50	1613,80
529,70	1779,68
529,90	1755,11
530,09	1720,29
530,29	1728,49
530,49	1628,14
530,69	1877,99
530,89	1701,86
531,09	1781,73
531,28	1714,15
531,48	1800,16
531,68	1771,49
531,88	1757,16
532,08	1789,92
532,28	1742,82
532,47	1732,58
532,67	1812,45
532,87	1734,63
533,07	1683,43
533,27	1855,46
533,46	1816,55
533,66	1873,89
533,86	1814,50
534,06	1652,71
534,26	1771,49
534,45	1652,71
534,65	1765,35
534,85	1710,05
535,05	1718,25
535,25	1834,98
535,44	1691,62
535,64	1787,88
535,84	1806,31
536,04	1710,05
536,24	1628,14
536,43	1798,12
536,63	1767,40
536,83	1718,25
537,03	1755,11
537,22	1722,34
537,42	1759,21
537,62	1771,49
537,82	1767,40
538,02	1808,36
538,21	1861,60
538,41	1859,56
538,61	1802,21
538,81	1804,26
539,00	1824,74
539,20	1648,61
539,40	1691,62
539,60	1730,53
539,79	1789,92
539,99	1759,21
540,19	1732,58
540,39	1716,20
540,58	1734,63
540,78	1716,20
540,98	1748,97
541,18	1763,30
541,37	1832,93
541,57	1738,73
541,77	1812,45
541,97	1771,49
542,16	1667,05
542,36	1732,58
542,56	1851,36
542,76	1871,84
542,95	1771,49
543,15	1759,21
543,35	1791,97
543,54	1781,73
543,74	1785,83
543,94	1812,45
544,14	1697,77
544,33	1818,60
544,53	1705,96
544,73	1748,97
544,93	1718,25
545,12	1746,92
545,32	1783,78
545,52	1771,49
545,71	1701,86
545,91	1714,15
546,11	1732,58
546,30	1681,38
546,50	1738,73
546,70	1753,06
546,90	1712,10
547,09	1648,61
547,29	1742,82
547,49	1816,55
547,68	1730,53
547,88	1720,29
548,08	1746,92
548,27	2138,08
548,47	1626,09
548,67	1699,81
548,87	1753,06
549,06	1710,05
549,26	1748,97
549,46	1695,72
549,65	1728,49
549,85	1783,78
550,05	1798,12
550,24	1697,77
550,44	1746,92
550,64	1767,40
550,83	1755,11
551,03	1744,87
551,23	1820,64
551,42	1832,93
551,62	1685,48
551,82	1761,25
552,01	1742,82
552,21	1845,22
552,41	1773,54
552,60	1804,26
552,80	1814,50
553,00	1705,96
553,19	1658,85
553,39	1789,92
553,59	1714,15
553,78	1761,25
553,98	1814,50
554,17	1595,37
554,37	1742,82
554,57	1779,68
554,76	1728,49
554,96	1720,29
555,16	1712,10
555,35	1738,73
555,55	1783,78
555,75	1791,97
555,94	1773,54
556,14	1710,05
556,33	1781,73
556,53	1693,67
556,73	1716,20
556,92	1800,16
557,12	1791,97
557,32	1830,88
557,51	1859,56
557,71	1794,02
557,90	1880,04
558,10	1834,98
558,30	1748,97
558,49	1691,62
558,69	1716,20
558,88	1816,55
559,08	1763,30
559,28	1791,97
559,47	1816,55
559,67	1767,40
559,86	1861,60
560,06	1789,92
560,26	1730,53
560,45	1732,58
560,65	1742,82
560,84	1802,21
561,04	1705,96
561,24	1767,40
561,43	1720,29
561,63	1871,84
561,82	1765,35
562,02	1800,16
562,22	1765,35
562,41	1746,92
562,61	1685,48
562,80	1689,57
563,00	1877,99
563,19	1830,88
563,39	1804,26
563,59	1814,50
563,78	1691,62
563,98	1646,57
564,17	1654,76
564,37	1642,47
564,56	1726,44
564,76	1724,39
564,96	1822,69
565,15	1779,68
565,35	1912,80
565,54	1701,86
565,74	1791,97
565,93	1789,92
566,13	1708,01
566,32	1814,50
566,52	1771,49
566,71	1726,44
566,91	1738,73
567,11	1728,49
567,30	1720,29
567,50	1810,40
567,69	1732,58
567,89	1755,11
568,08	1714,15
568,28	1736,68
568,47	1703,91
568,67	1847,27
568,86	1712,10
569,06	1781,73
569,25	1765,35
569,45	1671,14
569,64	1724,39
569,84	1628,14
570,04	1802,21
570,23	1804,26
570,43	1781,73
570,62	1769,44
570,82	1873,89
571,01	1658,85
571,21	1720,29
571,40	1675,24
571,60	1771,49
571,79	1763,30
571,99	1828,84
572,18	1718,25
572,38	1703,91
572,57	1748,97
572,77	1818,60
572,96	1951,71
573,16	1763,30
573,35	1773,54
573,55	1841,12
573,74	1777,64
573,94	1738,73
574,13	1726,44
574,33	1791,97
574,52	1886,18
574,71	1746,92
574,91	1720,29
575,10	1597,42
575,30	1703,91
575,49	1710,05
575,69	1769,44
575,88	1748,97
576,08	1753,06
576,27	1892,32
576,47	1736,68
576,66	1744,87
576,86	1867,75
577,05	1734,63
577,25	1777,64
577,44	1877,99
577,64	1624,04
577,83	1828,84
578,02	1796,07
578,22	1853,41
578,41	1900,52
578,61	1767,40
578,80	1703,91
579,00	1718,25
579,19	1714,15
579,39	1703,91
579,58	1800,16
579,77	1718,25
579,97	1765,35
580,16	1861,60
580,36	1873,89
580,55	1791,97
580,75	1800,16
580,94	1730,53
581,13	1857,51
581,33	1828,84
581,52	1755,11
581,72	1927,14
581,91	1783,78
582,11	1783,78
582,30	1814,50
582,49	1738,73
582,69	1802,21
582,88	1804,26
583,08	1662,95
583,27	1779,68
583,47	1742,82
583,66	1763,30
583,85	1673,19
584,05	1761,25
584,24	1777,64
584,44	1757,16
584,63	1767,40
584,82	1824,74
585,02	1841,12
585,21	1847,27
585,41	1824,74
585,60	1781,73
585,79	1888,23
585,99	1914,85
586,18	1851,36
586,37	2217,95
586,57	3282,89
586,76	9932,65
586,96	23834,26
587,15	33883,64
587,34	40088,99
587,54	41254,28
587,73	36150,74
587,93	25837,17
588,12	21145,28
588,31	17880,82
588,51	16193,29
588,70	14898,97
588,89	13801,26
589,09	12488,51
589,28	10848,09
589,47	9398,13
589,67	7894,92
589,86	6371,23
590,06	4853,69
590,25	3825,61
590,44	3131,34
590,64	2660,31
590,83	2244,57
591,02	2150,37
591,22	1970,15
591,41	1955,81
591,60	1763,30
591,80	1943,52
591,99	1679,33
592,18	1841,12
592,38	1857,51
592,57	1746,92
592,76	1816,55
592,96	1800,16
593,15	1746,92
593,34	1816,55
593,54	1865,70
593,73	1804,26
593,92	1804,26
594,12	1794,02
594,31	1724,39
594,50	1812,45
594,70	1869,80
594,89	1826,79
595,08	1703,91
595,28	1761,25
595,47	1920,99
595,66	1832,93
595,86	1640,42
596,05	1757,16
596,24	1757,16
596,43	1890,28
596,63	1800,16
596,82	1777,64
597,01	1841,12
597,21	1898,47
597,40	1781,73
597,59	1714,15
597,79	1777,64
597,98	1789,92
598,17	1771,49
598,36	1734,63
598,56	1769,44
598,75	1720,29
598,94	1712,10
599,14	1755,11
599,33	1701,86
599,52	1775,59
599,71	1734,63
599,91	1794,02
600,10	1802,21
600,29	1710,05
600,48	1802,21
600,68	1861,60
600,87	1804,26
601,06	1732,58
601,26	1738,73
601,45	1808,36
601,64	1748,97
601,83	1834,98
602,03	1687,53
602,22	1716,20
602,41	1816,55
602,60	1828,84
602,80	1796,07
602,99	1767,40
603,18	1669,09
603,37	1757,16
603,57	1783,78
603,76	1779,68
603,95	1753,06
604,14	1671,14
604,34	1714,15
604,53	1767,40
604,72	1687,53
604,91	1781,73
605,10	1718,25
605,30	1693,67
605,49	1892,32
605,68	1812,45
605,87	1701,86
606,07	1624,04
606,26	1701,86
606,45	1765,35
606,64	1724,39
606,84	1763,30
607,03	1718,25
607,22	1800,16
607,41	1697,77
607,60	1714,15
607,80	1884,13
607,99	1742,82
608,18	1714,15
608,37	1779,68
608,56	1705,96
608,76	1771,49
608,95	1867,75
609,14	1759,21
609,33	1857,51
609,52	1767,40
609,72	1654,76
609,91	1802,21
610,10	1736,68
610,29	1832,93
610,48	1785,83
610,68	1767,40
610,87	1775,59
611,06	1806,31
611,25	1812,45
611,44	1804,26
611,63	1718,25
611,83	1851,36
612,02	1621,99
612,21	1765,35
612,40	1650,66
612,59	1689,57
612,79	1757,16
612,98	1740,77
613,17	1867,75
613,36	1697,77
613,55	1775,59
613,74	1712,10
613,93	1710,05
614,13	1820,64
614,32	1767,40
614,51	1806,31
614,70	1734,63
614,89	1726,44
615,08	1773,54
615,28	2076,64
615,47	1660,90
615,66	1759,21
615,85	1685,48
616,04	1781,73
616,23	1755,11
616,42	1724,39
616,62	1738,73
616,81	1730,53
617,00	1671,14
617,19	1763,30
617,38	1744,87
617,57	1789,92
617,76	1798,12
617,95	1777,64
618,15	1781,73
618,34	1822,69
618,53	1662,95
618,72	1791,97
618,91	1851,36
619,10	1839,08
619,29	1730,53
619,48	1755,11
619,68	1665,00
619,87	1693,67
620,06	1660,90
620,25	1740,77
620,44	1720,29
620,63	1687,53
620,82	1761,25
621,01	1757,16
621,20	1662,95
621,39	1771,49
621,59	1708,01
621,78	1736,68
621,97	1736,68
622,16	1705,96
622,35	1791,97
622,54	1820,64
622,73	1808,36
622,92	1656,81
623,11	1775,59
623,30	1710,05
623,49	1789,92
623,68	1691,62
623,88	1701,86
624,07	1648,61
624,26	1751,01
624,45	1781,73
624,64	1691,62
624,83	1804,26
625,02	1726,44
625,21	1812,45
625,40	1755,11
625,59	1777,64
625,78	1693,67
625,97	1759,21
626,16	1759,21
626,35	1791,97
626,54	1738,73
626,74	1808,36
626,93	1667,05
627,12	1783,78
627,31	1738,73
627,50	1785,83
627,69	1710,05
627,88	1671,14
628,07	1738,73
628,26	1611,75
628,45	1669,09
628,64	1652,71
628,83	1753,06
629,02	1648,61
629,21	1773,54
629,40	1763,30
629,59	1734,63
629,78	1714,15
629,97	1748,97
630,16	1732,58
630,35	1671,14
630,54	1662,95
630,73	1701,86
630,92	1665,00
631,11	1710,05
631,30	1777,64
631,49	1812,45
631,68	1677,29
631,87	1804,26
632,06	1632,23
632,25	1906,66
632,44	1726,44
632,63	1781,73
632,82	1683,43
633,01	1626,09
633,20	1708,01
633,39	1726,44
633,58	1677,29
633,77	1712,10
633,96	1710,05
634,15	1742,82
634,34	1742,82
634,53	1775,59
634,72	1699,81
634,91	1677,29
635,10	1722,34
635,29	1765,35
635,48	1705,96
635,67	1677,29
635,86	1689,57
636,05	1820,64
636,24	1718,25
636,43	1753,06
636,62	1761,25
636,81	1628,14
637,00	1720,29
637,19	1740,77
637,38	1755,11
637,57	1644,52
637,76	1732,58
637,95	1722,34
638,14	1755,11
638,33	1701,86
638,52	1689,57
638,71	1658,85
638,89	1642,47
639,08	1914,85
639,27	1722,34
639,46	1738,73
639,65	1855,46
639,84	1738,73
640,03	1826,79
640,22	1656,81
640,41	1861,60
640,60	1705,96
640,79	1679,33
640,98	1687,53
641,17	1712,10
641,36	1695,72
641,55	1710,05
641,74	1648,61
641,92	1697,77
642,11	1746,92
642,30	1710,05
642,49	1667,05
642,68	1685,48
642,87	1787,88
643,06	1742,82
643,25	1697,77
643,44	1718,25
643,63	1736,68
643,82	1738,73
644,00	1718,25
644,19	1759,21
644,38	1691,62
644,57	1742,82
644,76	1765,35
644,95	1662,95
645,14	1814,50
645,33	1779,68
645,52	1740,77
645,71	1730,53
645,89	1665,00
646,08	1734,63
646,27	1695,72
646,46	1871,84
646,65	1691,62
646,84	1734,63
647,03	1665,00
647,22	1841,12
647,40	1703,91
647,59	1671,14
647,78	1722,34
647,97	1708,01
648,16	1722,34
648,35	1804,26
648,54	1798,12
648,73	1689,57
648,91	1773,54
649,10	1703,91
649,29	1714,15
649,48	1759,21
649,67	1748,97
649,86	1738,73
650,05	1720,29
650,23	1769,44
650,42	1720,29
650,61	1744,87
650,80	1769,44
650,99	1890,28
651,18	1662,95
651,36	1843,17
651,55	1724,39
651,74	1701,86
651,93	1646,57
652,12	1669,09
652,31	1746,92
652,49	1783,78
652,68	1689,57
652,87	1759,21
653,06	1751,01
653,25	1888,23
653,44	1734,63
653,62	1755,11
653,81	1722,34
654,00	1740,77
654,19	1734,63
654,38	1863,65
654,56	1746,92
654,75	1763,30
654,94	1763,30
655,13	1728,49
655,32	1701,86
655,51	1759,21
655,69	1730,53
655,88	1699,81
656,07	1710,05
656,26	1785,83
656,45	1642,47
656,63	1744,87
656,82	1787,88
657,01	1753,06
657,20	1730,53
657,38	1820,64
657,57	1724,39
657,76	1613,80
657,95	1726,44
658,14	1644,52
658,32	1738,73
658,51	1697,77
658,70	1722,34
658,89	1765,35
659,08	1681,38
659,26	1755,11
659,45	1660,90
659,64	1742,82
659,83	1720,29
660,01	1990,63
660,20	1748,97
660,39	1816,55
660,58	1630,18
660,76	1820,64
660,95	1683,43
661,14	1742,82
661,33	1607,66
661,51	1791,97
661,70	1683,43
661,89	1761,25
662,08	1683,43
662,26	1648,61
662,45	1716,20
662,64	1828,84
662,83	1808,36
663,01	1662,95
663,20	1710,05
663,39	1857,51
663,58	1712,10
663,76	1740,77
663,95	1767,40
664,14	1648,61
664,32	1718,25
664,51	1708,01
664,70	1732,58
664,89	1767,40
665,07	1677,29
665,26	1759,21
665,45	1744,87
665,64	1759,21
665,82	1791,97
666,01	1728,49
666,20	1662,95
666,38	1857,51
666,57	1763,30
666,76	2166,75
666,95	4538,30
667,13	10383,20
667,32	15107,87
667,51	17868,53
667,69	18906,85
667,88	17452,79
668,07	12166,98
668,25	9584,49
668,44	7985,03
668,63	7161,75
668,81	6801,30
669,00	6291,36
669,19	5689,26
669,38	5138,35
669,56	4554,68
669,75	3975,11
669,94	3352,52
670,12	2828,24
670,31	2551,77
670,50	2297,82
670,68	2082,78
670,87	1933,28
671,06	1832,93
671,24	1771,49
671,43	1927,14
671,62	1738,73
671,80	1693,67
671,99	1746,92
672,18	1779,68
672,36	1773,54
672,55	1714,15
672,74	1703,91
672,92	1646,57
673,11	1697,77
673,29	1671,14
673,48	1773,54
673,67	1660,90
673,85	1748,97
674,04	1679,33
674,23	1757,16
674,41	1810,40
674,60	1689,57
674,79	1581,03
674,97	1685,48
675,16	1761,25
675,34	1771,49
675,53	1671,14
675,72	1701,86
675,90	1783,78
676,09	1730,53
676,28	1732,58
676,46	1648,61
676,65	1789,92
676,83	1693,67
677,02	1757,16
677,21	1705,96
677,39	1740,77
677,58	1693,67
677,77	1714,15
677,95	1658,85
678,14	1722,34
678,32	1736,68
678,51	1755,11
678,70	1828,84
678,88	1734,63
679,07	1796,07
679,25	1722,34
679,44	1740,77
679,63	1636,33
679,81	1710,05
680,00	1826,79
680,18	1771,49
680,37	1798,12
680,55	1808,36
680,74	1615,85
680,93	1617,90
681,11	1718,25
681,30	1660,90
681,48	1724,39
681,67	1773,54
681,85	1744,87
682,04	1634,28
682,23	1841,12
682,41	1687,53
682,60	1736,68
682,78	1714,15
682,97	1644,52
683,15	1716,20
683,34	1736,68
683,53	1763,30
683,71	1701,86
683,90	1816,55
684,08	1806,31
684,27	1744,87
684,45	1740,77
684,64	1824,74
684,82	1634,28
685,01	1781,73
685,19	1712,10
685,38	1767,40
685,57	1669,09
685,75	1722,34
685,94	1695,72
686,12	1583,08
686,31	1677,29
686,49	1791,97
686,68	1669,09
686,86	1802,21
687,05	1724,39
687,23	1832,93
687,42	1738,73
687,60	1658,85
687,79	1796,07
687,97	1794,02
688,16	1751,01
688,34	1794,02
688,53	1665,00
688,71	1755,11
688,90	1783,78
689,08	1722,34
689,27	1667,05
689,45	1812,45
689,64	1730,53
689,82	1691,62
690,01	1837,03
690,19	1681,38
690,38	1687,53
690,56	1738,73
690,75	1642,47
690,93	1693,67
691,12	1658,85
691,30	1673,19
691,49	1710,05
691,67	1796,07
691,86	1757,16
692,04	1675,24
692,23	1744,87
692,41	1679,33
692,60	1863,65
692,78	1753,06
692,97	1818,60
693,15	1794,02
693,34	1871,84
693,52	1832,93
693,71	1628,14
693,89	1673,19
694,08	1644,52
694,26	1746,92
694,44	1769,44
694,63	1761,25
694,81	1697,77
695,00	1697,77
695,18	1775,59
695,37	1857,51
695,55	1759,21
695,74	1624,04
695,92	1673,19
696,10	1740,77
696,29	1607,66
696,47	1724,39
696,66	1640,42
696,84	1718,25
697,03	1681,38
697,21	1828,84
697,40	2318,30
697,58	1834,98
697,76	1699,81
697,95	1669,09
698,13	1660,90
698,32	1724,39
698,50	1693,67
698,68	1701,86
698,87	1810,40
699,05	1761,25
699,24	1703,91
699,42	1671,14
699,61	1716,20
699,79	1708,01
699,97	1677,29
700,16	1689,57
700,34	1648,61
700,53	1718,25
700,71	1777,64
700,89	1726,44
701,08	1734,63
701,26	1785,83
701,45	2105,31
701,63	1611,75
701,81	1691,62
702,00	1712,10
702,18	1761,25
702,37	1730,53
702,55	1691,62
702,73	1751,01
702,92	1656,81
703,10	1742,82
703,28	1644,52
703,47	1714,15
703,65	1726,44
703,84	1791,97
704,02	1646,57
704,20	1781,73
704,39	1693,67
704,57	1648,61
704,75	1806,31
704,94	1818,60
705,12	1718,25
705,30	1769,44
705,49	2263,01
705,67	4526,01
705,86	9224,05
706,04	12435,27
706,22	14399,27
706,41	15071,00
706,59	13584,18
706,77	9342,83
706,96	7272,34
707,14	6420,38
707,32	5941,16
707,51	5572,52
707,69	4917,17
707,87	4128,70
708,06	3553,23
708,24	2957,27
708,42	2467,80
708,61	2256,86
708,79	1890,28
708,97	1824,74
709,16	1851,36
709,34	1767,40
709,52	1730,53
709,71	1802,21
709,89	1742,82
710,07	1687,53
710,26	1642,47
710,44	1744,87
710,62	1757,16
710,80	1716,20
710,99	1759,21
711,17	1812,45
711,35	1673,19
711,54	1615,85
711,72	1794,02
711,90	1808,36
712,09	1810,40
712,27	1767,40
712,45	1800,16
712,63	1710,05
712,82	1736,68
713,00	1671,14
713,18	1730,53
713,37	1757,16
713,55	1730,53
713,73	1705,96
713,91	1773,54
714,10	1779,68
714,28	1761,25
714,46	1798,12
714,65	1740,77
714,83	1755,11
715,01	1701,86
715,19	1730,53
715,38	1630,18
715,56	1787,88
715,74	1732,58
715,92	1669,09
716,11	1746,92
716,29	1624,04
716,47	1748,97
716,65	1619,94
716,84	1626,09
717,02	1783,78
717,20	1626,09
717,38	1693,67
717,57	1726,44
717,75	1677,29
717,93	1660,90
718,11	1755,11
718,30	1615,85
718,48	1759,21
718,66	1802,21
718,84	1722,34
719,03	1726,44
719,21	1656,81
719,39	1865,70
719,57	1781,73
719,75	1740,77
719,94	1607,66
720,12	1699,81
720,30	1673,19
720,48	1710,05
720,67	1677,29
720,85	1695,72
721,03	1662,95
721,21	1677,29
721,39	1794,02
721,58	1802,21
721,76	1724,39
721,94	1755,11
722,12	1714,15
722,30	1787,88
722,49	1708,01
722,67	1683,43
722,85	1701,86
723,03	1726,44
723,21	1720,29
723,40	1701,86
723,58	1818,60
723,76	1720,29
723,94	1738,73
724,12	1748,97
724,30	1800,16
724,49	1753,06
724,67	1632,23
724,85	1775,59
725,03	1665,00
725,21	1742,82
725,40	1734,63
725,58	1640,42
725,76	1759,21
725,94	1712,10
726,12	1734,63
726,30	1767,40
726,49	1665,00
726,67	1658,85
726,85	1746,92
727,03	1763,30
727,21	2084,83
727,39	2899,92
727,57	3680,20
727,76	4186,05
727,94	4317,12
728,12	4341,69
728,30	3762,12
728,48	2887,64
728,66	2731,99
728,84	2553,82
729,03	2324,44
729,21	2115,55
729,39	1980,39
729,57	1880,04
729,75	1855,46
729,93	1767,40
730,11	1742,82
730,30	1730,53
730,48	1771,49
730,66	1816,55
730,84	1755,11
731,02	1675,24
731,20	1687,53
731,38	1701,86
731,56	1658,85
731,74	1718,25
731,93	1716,20
732,11	1689,57
732,29	1740,77
732,47	1726,44
732,65	1751,01
732,83	1753,06
733,01	1755,11
733,19	1619,94
733,37	1787,88
733,56	1736,68
733,74	1669,09
733,92	1886,18
734,10	1665,00
734,28	1716,20
734,46	1617,90
734,64	1662,95
734,82	1632,23
735,00	1695,72
735,18	1652,71
735,36	1708,01
735,54	1691,62
735,73	1681,38
735,91	1796,07
736,09	1714,15
736,27	1718,25
736,45	1740,77
736,63	1535,98
736,81	1703,91
736,99	1779,68
737,17	1808,36
737,35	1738,73
737,53	1667,05
737,71	1681,38
737,89	1794,02
738,07	1656,81
738,25	1646,57
738,43	1640,42
738,61	1583,08
738,80	1667,05
738,98	1652,71
739,16	1738,73
739,34	1632,23
739,52	1785,83
739,70	1751,01
739,88	1783,78
740,06	1800,16
740,24	1599,46
740,42	1726,44
740,60	1667,05
740,78	1708,01
740,96	1597,42
741,14	1701,86
741,32	1701,86
741,50	1601,51
741,68	1880,04
741,86	1789,92
742,04	1716,20
742,22	1640,42
742,40	1701,86
742,58	1730,53
742,76	1699,81
742,94	1767,40
743,12	1630,18
743,30	1753,06
743,48	1693,67
743,66	1718,25
743,84	1730,53
744,02	1751,01
744,20	1699,81
744,38	1744,87
744,56	1665,00
744,74	1853,41
744,92	1755,11
745,10	1726,44
745,28	1791,97
745,46	1814,50
745,64	1767,40
745,82	1740,77
746,00	1755,11
746,18	1710,05
746,36	1665,00
746,54	1720,29
746,72	1701,86
746,90	1597,42
747,08	1789,92
747,26	1675,24
747,44	1820,64
747,62	1720,29
747,80	1671,14
747,98	1779,68
748,15	1705,96
748,33	1863,65
748,51	1701,86
748,69	1662,95
748,87	1656,81
749,05	1716,20
749,23	1751,01
749,41	1732,58
749,59	1699,81
749,77	1705,96
749,95	1724,39
750,13	1669,09
750,31	1714,15
750,49	1730,53
750,67	1738,73
750,85	1751,01
751,03	1746,92
751,20	1824,74
751,38	1785,83
751,56	1687,53
751,74	1691,62
751,92	1689,57
752,10	1675,24
752,28	1748,97
752,46	1736,68
752,64	1726,44
752,82	1687,53
753,00	1740,77
753,18	1644,52
753,35	1648,61
753,53	1665,00
753,71	1673,19
753,89	1738,73
754,07	1726,44
754,25	1742,82
754,43	1710,05
754,61	1636,33
754,79	1718,25
754,97	1736,68
755,14	1798,12
755,32	1656,81
755,50	1699,81
755,68	1837,03
755,86	1599,46
756,04	1632,23
756,22	1640,42
756,40	1742,82
756,57	1798,12
756,75	1597,42
756,93	1712,10
757,11	1769,44
757,29	1619,94
757,47	1667,05
757,65	1705,96
757,82	1585,13
758,00	1640,42
758,18	1699,81
758,36	1650,66
758,54	1798,12
758,72	1708,01
758,90	1810,40
759,07	1683,43
759,25	1632,23
759,43	1701,86
759,61	1718,25
759,79	2201,57
759,97	1746,92
760,15	1757,16
760,32	1699,81
760,50	1615,85
760,68	1796,07
760,86	1642,47
761,04	1783,78
761,22	1740,77
761,39	1722,34
761,57	1796,07
761,75	1751,01
761,93	1691,62
762,11	1613,80
762,28	1679,33
762,46	1703,91
762,64	1751,01
762,82	1552,36
763,00	1677,29
763,18	1806,31
763,35	1683,43
763,53	1732,58
763,71	1753,06
763,89	1650,66
764,07	1746,92
764,24	1761,25
764,42	1783,78
764,60	1740,77
764,78	1718,25
764,96	1763,30
765,13	1757,16
765,31	1685,48
765,49	1751,01
765,67	1673,19
765,84	1679,33
766,02	1611,75
766,20	1605,61
766,38	1755,11
766,56	1705,96
766,73	1781,73
766,91	1691,62
767,09	1771,49
767,27	1763,30
767,44	1615,85
767,62	1748,97
767,80	1732,58
767,98	1695,72
768,15	1656,81
768,33	1720,29
768,51	1722,34
768,69	1740,77
768,87	1724,39
769,04	1648,61
769,22	1822,69
769,40	1773,54
769,58	1880,04
769,75	1753,06
769,93	1695,72
770,11	1728,49
770,28	1679,33
770,46	1755,11
770,64	1669,09
770,82	1777,64
770,99	1732,58
771,17	1783,78
771,35	1730,53
771,53	1638,38
771,70	1683,43
771,88	1796,07
772,06	1632,23
772,23	1730,53
772,41	1720,29
772,59	1660,90
772,77	1662,95
772,94	1736,68
773,12	1748,97
773,30	1697,77
773,47	1720,29
773,65	1650,66
773,83	1779,68
774,01	1708,01
774,18	1535,98
774,36	1669,09
774,54	1648,61
774,71	1673,19
774,89	1556,46
775,07	1712,10
775,24	1673,19
775,42	1615,85
775,60	1857,51
775,78	1642,47
775,95	1708,01
776,13	1650,66
776,31	1533,93
776,48	1746,92
776,66	1806,31
776,84	1685,48
777,01	1677,29
777,19	1714,15
777,37	1775,59
777,54	1771,49
777,72	1877,99
777,90	1761,25
778,07	1642,47
778,25	1865,70
778,43	1753,06
778,60	1724,39
778,78	1751,01
778,96	1779,68
779,13	1656,81
779,31	1771,49
779,49	1640,42
779,66	1755,11
779,84	1632,23
780,01	1677,29
780,19	1669,09
780,37	1802,21
780,54	1796,07
780,72	1562,60
780,90	1732,58
781,07	1673,19
781,25	1734,63
781,43	1751,01
781,60	1609,70
781,78	1746,92
781,95	1724,39
782,13	1660,90
782,31	1755,11
782,48	1632,23
782,66	1683,43
782,83	1779,68
783,01	1804,26
783,19	1734,63
783,36	1708,01
783,54	1624,04
783,72	1787,88
783,89	1732,58
784,07	1722,34
784,24	1732,58
784,42	1701,86
784,60	1720,29
784,77	1697,77
784,95	1691,62
785,12	1656,81
785,30	1800,16
785,47	1611,75
785,65	1585,13
785,83	1763,30
786,00	1689,57
786,18	1748,97
786,35	1632,23
786,53	1632,23
786,71	1714,15
786,88	1769,44
787,06	1720,29
787,23	1767,40
787,41	1683,43
787,58	1701,86
787,76	1646,57
787,94	1748,97
788,11	1746,92
788,29	1693,67
788,46	1705,96
788,64	1638,38
788,81	1648,61
788,99	1648,61
789,16	1652,71
789,34	1728,49
789,52	1679,33
789,69	1640,42
789,87	1576,94
790,04	1699,81
790,22	1755,11
790,39	1863,65
790,57	1683,43
790,74	1662,95
790,92	1683,43
791,09	1681,38
791,27	1730,53
791,44	1730,53
791,62	1722,34
791,79	1771,49
791,97	1697,77
792,15	1896,42
792,32	1691,62
792,50	1726,44
792,67	1740,77
792,85	1834,98
793,02	1802,21
793,20	1673,19
793,37	1712,10
793,55	1736,68
793,72	1574,89
793,90	1718,25
794,07	1591,27
794,25	1628,14
794,42	1824,74
794,60	1677,29
794,77	1808,36
794,95	1693,67
795,12	1744,87
795,30	1685,48
795,47	1562,60
795,65	1841,12
795,82	1787,88
796,00	1685,48
796,17	1669,09
796,34	1740,77
796,52	1736,68
796,69	1820,64
796,87	1712,10
797,04	1748,97
797,22	1685,48
797,39	1751,01
797,57	1818,60
797,74	1705,96
797,92	1734,63
798,09	1697,77
798,27	1763,30
798,44	1714,15
798,62	1748,97
798,79	1712,10
798,96	1712,10
799,14	1718,25
799,31	1890,28
799,49	1720,29
799,66	1660,90
799,84	1744,87
800,01	1611,75
800,19	1658,85
800,36	1634,28
800,53	1714,15
800,71	1714,15
800,88	1814,50
801,06	1771,49
801,23	1669,09
801,41	1656,81
801,58	1677,29
801,75	1695,72
801,93	1767,40
802,10	1712,10
802,28	1673,19
802,45	1662,95
802,63	1699,81
802,80	1740,77
802,97	1740,77
803,15	1654,76
803,32	1701,86
803,50	1726,44
803,67	1728,49
803,84	1642,47
804,02	1712,10
804,19	1660,90
804,37	1689,57
804,54	1740,77
804,71	1679,33
804,89	1695,72
805,06	1652,71
805,24	1656,81
805,41	1617,90
805,58	1677,29
805,76	1875,94
805,93	1814,50
806,10	1800,16
806,28	1708,01
806,45	1716,20
806,63	1748,97
806,80	1746,92
806,97	1748,97
807,15	1724,39
807,32	1773,54
807,49	1673,19
807,67	1636,33
807,84	1726,44
808,01	1607,66
808,19	1806,31
808,36	1781,73
808,54	1689,57
808,71	1665,00
808,88	1755,11
809,06	1730,53
809,23	1751,01
809,40	1632,23
809,58	1779,68
809,75	1714,15
809,92	1626,09
810,10	1791,97
810,27	1660,90
810,44	1744,87
810,62	1757,16
810,79	1728,49
810,96	1718,25
811,14	1765,35
811,31	1787,88
811,48	1675,24
811,66	1777,64
811,83	1730,53
812,00	1775,59
812,18	1783,78
812,35	1898,47
812,52	1675,24
812,69	1708,01
812,87	1734,63
813,04	1619,94
813,21	1687,53
813,39	1648,61
813,56	1671,14
813,73	1806,31
813,91	1611,75
814,08	1734,63
814,25	1781,73
814,42	1642,47
814,60	1734,63
814,77	1716,20
814,94	1705,96
815,12	1656,81
815,29	1832,93
815,46	1720,29
815,63	1652,71
815,81	1654,76
815,98	1654,76
816,15	1691,62
816,33	1699,81
816,50	1718,25
816,67	1693,67
816,84	1695,72
817,02	1636,33
817,19	1726,44
817,36	1751,01
817,53	1755,11
817,71	1640,42
817,88	1789,92
818,05	1673,19
818,22	1689,57
818,40	1849,32
818,57	1753,06
818,74	1730,53
818,91	1720,29
819,09	1828,84
819,26	1734,63
819,43	1613,80
819,60	1701,86
819,78	1695,72
819,95	1763,30
820,12	1671,14
820,29	1736,68
820,47	1740,77
820,64	1624,04
820,81	1673,19
820,98	1673,19
821,15	1665,00
821,33	1773,54
821,50	1665,00
821,67	1730,53
821,84	1722,34
822,02	1787,88
822,19	1738,73
822,36	1675,24
822,53	1615,85
822,70	1728,49
822,88	1667,05
823,05	1804,26
823,22	1730,53
823,39	1728,49
823,56	1691,62
823,74	1812,45
823,91	1697,77
824,08	1740,77
824,25	1650,66
824,42	1798,12
824,60	1624,04
824,77	1701,86
824,94	1677,29
825,11	1677,29
825,28	1683,43
825,45	1751,01
825,63	1798,12
825,80	1669,09
825,97	1712,10
826,14	1699,81
826,31	1654,76
826,48	1775,59
826,66	1673,19
826,83	1646,57
827,00	1716,20
827,17	1667,05
827,34	1624,04
827,51	1744,87
827,69	1656,81
827,86	1626,09
828,03	1617,90
828,20	1757,16
828,37	1671,14
828,54	1777,64
828,71	1726,44
828,89	1755,11
829,06	1701,86
829,23	1794,02
829,40	1697,77
829,57	1605,61
829,74	1689,57
829,91	1722,34
830,09	1691,62
830,26	1681,38
830,43	1808,36
830,60	1697,77
830,77	1771,49
830,94	1816,55
831,11	1794,02
831,28	1738,73
831,46	1796,07
831,63	1648,61
831,80	1755,11
831,97	1632,23
832,14	1673,19
832,31	1697,77
832,48	1734,63
832,65	1720,29
832,82	1665,00
832,99	1712,10
833,17	1660,90
833,34	1802,21
833,51	1765,35
833,68	1599,46
833,85	1751,01
834,02	1667,05
834,19	1640,42
834,36	1599,46
834,53	1738,73
834,70	1847,27
834,87	1771,49
835,04	1640,42
835,22	1742,82
835,39	1779,68
835,56	1736,68
835,73	1736,68
835,90	1755,11
836,07	1626,09
836,24	1765,35
836,41	1656,81
836,58	1640,42
836,75	1826,79
836,92	1683,43
837,09	1632,23
837,26	1716,20
837,43	1718,25
837,60	1761,25
837,77	1611,75
837,94	1728,49
838,12	1785,83
838,29	1761,25
838,46	1626,09
838,63	1738,73
838,80	1855,46
838,97	1740,77
839,14	1712,10
839,31	1656,81
839,48	1781,73
839,65	1701,86
839,82	1689,57
839,99	1822,69
840,16	1773,54
840,33	1642,47
840,50	1767,40
840,67	1669,09
840,84	1607,66
841,01	1740,77
841,18	1634,28
841,35	1691,62
841,52	1800,16
841,69	1824,74
841,86	1626,09
842,03	1759,21
842,20	1724,39
842,37	1683,43
842,54	1691,62
842,71	1777,64
842,88	1718,25
843,05	1779,68
843,22	1705,96
843,39	1775,59
843,56	1656,81
843,73	1710,05
843,90	1677,29
844,07	1683,43
844,24	1734,63
844,41	1802,21
844,58	1681,38
844,75	1687,53
844,92	1781,73
845,09	1671,14
845,26	1632,23
845,43	1697,77
845,60	1730,53
845,77	1820,64
845,94	1705,96
846,10	1757,16
846,27	1642,47
846,44	1634,28
846,61	1673,19
846,78	1710,05
846,95	1771,49
847,12	1703,91
847,29	1640,42
847,46	1679,33
847,63	1722,34
847,80	1695,72
847,97	1642,47
848,14	1869,80
848,31	1677,29
848,48	1703,91
848,65	1632,23
848,82	1665,00
848,98	1877,99
849,15	1775,59
849,32	1796,07
849,49	1746,92
849,66	1660,90
849,83	1748,97
850,00	1593,32
850,17	1718,25
850,34	1685,48
850,51	1611,75
850,68	1693,67
850,85	1822,69
851,01	1765,35
851,18	1751,01
851,35	1724,39
851,52	1732,58
851,69	1724,39
851,86	1619,94
852,03	1662,95
852,20	1736,68
852,37	1759,21
852,53	1667,05
852,70	1726,44
852,87	1724,39
853,04	1775,59
853,21	1771,49
853,38	1716,20
853,55	1857,51
853,72	1847,27
853,89	1667,05
854,05	1689,57
854,22	1640,42
854,39	1675,24
854,56	1744,87
854,73	1787,88
854,90	1646,57
855,07	1712,10
855,23	1662,95
855,40	1669,09
855,57	1626,09
855,74	1591,27
855,91	1957,86
856,08	1708,01
856,25	1603,56
856,41	1771,49
856,58	1687,53
856,75	1638,38
856,92	1681,38
857,09	1830,88
857,26	1656,81
857,42	1710,05
857,59	1785,83
857,76	1722,34
857,93	1648,61
858,10	1773,54
858,27	1757,16
858,43	1712,10
858,60	1714,15
858,77	1615,85
858,94	1615,85
859,11	1787,88
859,27	1662,95
859,44	1710,05
859,61	1798,12
859,78	1693,67
859,95	1636,33
860,12	1783,78
860,28	1839,08
860,45	1808,36
860,62	1718,25
860,79	1640,42
860,95	1665,00
861,12	1673,19
861,29	1597,42
861,46	1626,09
861,63	1705,96
861,79	1738,73
861,96	1730,53
862,13	1689,57
862,30	1789,92
862,47	1667,05
862,63	1667,05
862,80	1755,11
862,97	1738,73
863,14	1722,34
863,30	1744,87
863,47	1621,99
863,64	1722,34
863,81	1746,92
863,97	1765,35
864,14	1746,92
864,31	1703,91
864,48	1710,05
864,65	1697,77
864,81	1802,21
864,98	1718,25
865,15	1787,88
865,32	1744,87
865,48	1697,77
865,65	1732,58
865,82	1638,38
865,98	1765,35
866,15	1794,02
866,32	1712,10
866,49	1779,68
866,65	1798,12
866,82	1714,15
866,99	1773,54
867,16	1589,22
867,32	1644,52
867,49	1681,38
867,66	1732,58
867,83	1697,77
867,99	1640,42
868,16	1640,42
868,33	1634,28
868,49	1705,96
868,66	1744,87
868,83	1800,16
868,99	1708,01
869,16	1722,34
869,33	1753,06
869,50	1787,88
869,66	1759,21
869,83	1701,86
870,00	1628,14
870,16	1798,12
870,33	1755,11
870,50	1804,26
870,66	1734,63
870,83	1873,89
871,00	1732,58
871,17	1742,82
871,33	1748,97
871,50	1744,87
871,67	1687,53
871,83	1646,57
872,00	1796,07
872,17	1619,94
872,33	1796,07
872,50	1740,77
872,67	1691,62
872,83	1626,09
873,00	1738,73
873,17	1677,29
873,33	1806,31
873,50	1720,29
873,67	1640,42
873,83	1667,05
874,00	1724,39
874,16	1738,73
874,33	1720,29
874,50	1630,18
874,66	1736,68
874,83	1708,01
875,00	1783,78
875,16	1755,11
875,33	1775,59
875,50	1667,05
875,66	1667,05
875,83	1732,58
875,99	1775,59
876,16	1755,11
876,33	1648,61
876,49	1724,39
876,66	1693,67
876,83	1755,11
876,99	1619,94
877,16	1689,57
877,32	1693,67
877,49	1722,34
877,66	1705,96
877,82	1800,16
877,99	1677,29
878,15	1796,07
878,32	1738,73
878,49	1755,11
878,65	1693,67
878,82	1832,93
878,98	1728,49
879,15	1820,64
879,32	1640,42
879,48	1712,10
879,65	1732,58
879,81	1681,38
879,98	1677,29
880,15	1720,29
880,31	1751,01
880,48	1689,57
880,64	1697,77
880,81	1783,78
880,97	1765,35
881,14	1767,40
881,31	1714,15
881,47	1847,27
881,64	1738,73
881,80	1695,72
881,97	1681,38
882,13	1724,39
882,30	1574,89
882,47	1708,01
882,63	1679,33
882,80	1671,14
882,96	1667,05
883,13	1816,55
883,29	1687,53
883,46	1665,00
883,62	1855,46
883,79	1718,25
883,95	1753,06
884,12	1730,53
884,29	1738,73
884,45	1705,96
884,62	1724,39
884,78	1683,43
884,95	1783,78
885,11	1665,00
885,28	1673,19
885,44	1667,05
885,61	1724,39
885,77	1738,73
885,94	1787,88
886,10	1662,95
886,27	1681,38
886,43	1828,84
886,60	1763,30
886,76	1630,18
886,93	1693,67
887,09	1812,45
887,26	1669,09
887,42	1675,24
887,59	1779,68
887,75	1890,28
887,92	1765,35
888,08	1773,54
888,25	1818,60
888,41	1689,57
888,58	1693,67
888,74	1691,62
888,91	1695,72
>>>>>End Processed Spectral Data<<<<<
