SpectraSuite Data File
++++++++++++++++++++++++++++++++++++
Date: Mon Jun 06 16:23:17 CEST 2016
User: root
Dark Spectrum Present: No
Reference Spectrum Present: No
Number of Sampled Component Spectra: 1
Spectrometers: USB4C02835
Integration Time (usec): 100000 (USB4C02835)
Spectra Averaged: 1 (USB4C02835)
Boxcar Smoothing: 0 (USB4C02835)
Correct for Electrical Dark: No (USB4C02835)
Strobe/Lamp Enabled: No (USB4C02835)
Correct for Detector Non-linearity: No (USB4C02835)
Correct for Stray Light: No (USB4C02835)
Number of Pixels in Processed Spectrum: 3648
>>>>>Begin Processed Spectral Data<<<<<
177,47	1488,87
177,69	1488,87
177,91	1488,87
178,13	1421,29
178,36	1404,91
178,58	1662,95
178,80	1705,96
179,02	1578,98
179,24	1669,09
179,46	1753,06
179,68	1763,30
179,90	1691,62
180,13	1671,14
180,35	1730,53
180,57	1714,15
180,79	1740,77
181,01	1730,53
181,23	1820,64
181,45	1847,27
181,67	1644,52
181,90	1716,20
182,12	1660,90
182,34	1705,96
182,56	1705,96
182,78	1708,01
183,00	1765,35
183,22	1800,16
183,44	1628,14
183,66	1839,08
183,89	1755,11
184,11	1656,81
184,33	1757,16
184,55	1796,07
184,77	1673,19
184,99	1714,15
185,21	1705,96
185,43	1880,04
185,65	1710,05
185,87	1726,44
186,10	1781,73
186,32	1767,40
186,54	1748,97
186,76	1744,87
186,98	1789,92
187,20	1724,39
187,42	1722,34
187,64	1751,01
187,86	1728,49
188,08	1777,64
188,30	1658,85
188,52	1734,63
188,75	1830,88
188,97	1863,65
189,19	1734,63
189,41	1730,53
189,63	1767,40
189,85	1718,25
190,07	1566,70
190,29	1517,54
190,51	1724,39
190,73	1593,32
190,95	1765,35
191,17	1697,77
191,39	1572,84
191,61	1712,10
191,84	1681,38
192,06	1708,01
192,28	1603,56
192,50	1900,52
192,72	1779,68
192,94	1681,38
193,16	1783,78
193,38	1734,63
193,60	1648,61
193,82	1724,39
194,04	1804,26
194,26	1742,82
194,48	1775,59
194,70	1673,19
194,92	1679,33
195,14	1708,01
195,36	1689,57
195,58	1755,11
195,80	1626,09
196,02	1773,54
196,24	1722,34
196,46	1742,82
196,69	1667,05
196,91	1794,02
197,13	1730,53
197,35	1658,85
197,57	1767,40
197,79	1736,68
198,01	1755,11
198,23	1652,71
198,45	1693,67
198,67	1644,52
198,89	1708,01
199,11	1734,63
199,33	1730,53
199,55	1615,85
199,77	1716,20
199,99	1832,93
200,21	1710,05
200,43	1683,43
200,65	1662,95
200,87	1632,23
201,09	1730,53
201,31	1701,86
201,53	1716,20
201,75	1708,01
201,97	1646,57
202,19	1765,35
202,41	1748,97
202,63	1812,45
202,85	1746,92
203,07	1816,55
203,29	1708,01
203,51	1722,34
203,73	1621,99
203,95	1976,29
204,17	1740,77
204,39	1699,81
204,61	1658,85
204,83	1665,00
205,05	1773,54
205,27	1740,77
205,49	1693,67
205,71	1710,05
205,93	1634,28
206,15	1673,19
206,37	1728,49
206,59	1681,38
206,81	1720,29
207,03	1667,05
207,25	1665,00
207,47	1769,44
207,69	1644,52
207,91	1755,11
208,13	1853,41
208,34	1703,91
208,56	1701,86
208,78	1660,90
209,00	1703,91
209,22	1695,72
209,44	1669,09
209,66	1689,57
209,88	1730,53
210,10	1732,58
210,32	1773,54
210,54	1763,30
210,76	1710,05
210,98	1843,17
211,20	1624,04
211,42	1755,11
211,64	1736,68
211,86	1806,31
212,08	1695,72
212,30	1746,92
212,52	1738,73
212,74	1730,53
212,96	1669,09
213,17	1816,55
213,39	1773,54
213,61	1748,97
213,83	1826,79
214,05	1687,53
214,27	1800,16
214,49	1681,38
214,71	1683,43
214,93	1791,97
215,15	1681,38
215,37	1794,02
215,59	1611,75
215,81	1791,97
216,03	1753,06
216,24	1738,73
216,46	1703,91
216,68	1751,01
216,90	1777,64
217,12	1812,45
217,34	1763,30
217,56	1753,06
217,78	1732,58
218,00	1783,78
218,22	1697,77
218,44	1726,44
218,66	1714,15
218,87	1853,41
219,09	1695,72
219,31	1699,81
219,53	1685,48
219,75	1665,00
219,97	1697,77
220,19	1689,57
220,41	1675,24
220,63	1751,01
220,85	1675,24
221,06	1640,42
221,28	1777,64
221,50	1773,54
221,72	1701,86
221,94	1689,57
222,16	1720,29
222,38	1740,77
222,60	1785,83
222,82	1658,85
223,03	1710,05
223,25	1593,32
223,47	1726,44
223,69	1877,99
223,91	1771,49
224,13	1722,34
224,35	1669,09
224,57	1855,46
224,78	1832,93
225,00	1671,14
225,22	1687,53
225,44	1755,11
225,66	1730,53
225,88	1712,10
226,10	1830,88
226,32	1705,96
226,53	1775,59
226,75	1671,14
226,97	1730,53
227,19	1648,61
227,41	1720,29
227,63	1687,53
227,85	1638,38
228,06	1755,11
228,28	1705,96
228,50	1708,01
228,72	1644,52
228,94	1695,72
229,16	1689,57
229,37	1644,52
229,59	1662,95
229,81	1714,15
230,03	1716,20
230,25	1671,14
230,47	1669,09
230,69	1597,42
230,90	1781,73
231,12	1708,01
231,34	1757,16
231,56	1732,58
231,78	1658,85
232,00	1705,96
232,21	1800,16
232,43	1667,05
232,65	1523,69
232,87	1765,35
233,09	1693,67
233,30	1601,51
233,52	1853,41
233,74	1589,22
233,96	1708,01
234,18	1755,11
234,40	1683,43
234,61	1910,75
234,83	1693,67
235,05	1675,24
235,27	1863,65
235,49	1855,46
235,70	1611,75
235,92	1773,54
236,14	1759,21
236,36	1796,07
236,58	1552,36
236,79	1763,30
237,01	1644,52
237,23	1683,43
237,45	1808,36
237,67	1703,91
237,88	1740,77
238,10	1845,22
238,32	1673,19
238,54	1679,33
238,76	1681,38
238,97	1710,05
239,19	1718,25
239,41	1740,77
239,63	1753,06
239,85	1652,71
240,06	1736,68
240,28	1712,10
240,50	1761,25
240,72	1615,85
240,93	1734,63
241,15	1789,92
241,37	1751,01
241,59	1783,78
241,81	1671,14
242,02	1654,76
242,24	1710,05
242,46	1734,63
242,68	1652,71
242,89	1767,40
243,11	1703,91
243,33	1771,49
243,55	1781,73
243,76	1781,73
243,98	1667,05
244,20	1652,71
244,42	1785,83
244,64	1658,85
244,85	1671,14
245,07	1673,19
245,29	1683,43
245,51	1675,24
245,72	1718,25
245,94	1722,34
246,16	1693,67
246,38	1724,39
246,59	1701,86
246,81	1632,23
247,03	1636,33
247,24	1607,66
247,46	1691,62
247,68	1665,00
247,90	1751,01
248,11	1701,86
248,33	1873,89
248,55	1742,82
248,77	1689,57
248,98	1705,96
249,20	1873,89
249,42	1681,38
249,64	1697,77
249,85	1632,23
250,07	1675,24
250,29	1763,30
250,50	1761,25
250,72	1644,52
250,94	1740,77
251,16	1851,36
251,37	1802,21
251,59	1748,97
251,81	1769,44
252,02	1816,55
252,24	1628,14
252,46	1746,92
252,68	1716,20
252,89	1648,61
253,11	1595,37
253,33	1796,07
253,54	1730,53
253,76	1603,56
253,98	1619,94
254,20	1722,34
254,41	1703,91
254,63	1748,97
254,85	1677,29
255,06	1720,29
255,28	1714,15
255,50	1642,47
255,71	1695,72
255,93	1644,52
256,15	1724,39
256,36	1712,10
256,58	1716,20
256,80	1761,25
257,02	1769,44
257,23	1689,57
257,45	1738,73
257,67	1796,07
257,88	1665,00
258,10	1718,25
258,32	1771,49
258,53	1710,05
258,75	1796,07
258,97	1683,43
259,18	1734,63
259,40	1673,19
259,62	1804,26
259,83	1775,59
260,05	1734,63
260,27	2004,96
260,48	1757,16
260,70	1640,42
260,92	1751,01
261,13	1724,39
261,35	1667,05
261,57	1777,64
261,78	1648,61
262,00	1665,00
262,22	1742,82
262,43	1634,28
262,65	1705,96
262,86	1646,57
263,08	1857,51
263,30	1755,11
263,51	1650,66
263,73	1648,61
263,95	1746,92
264,16	1685,48
264,38	1732,58
264,60	1742,82
264,81	1656,81
265,03	1783,78
265,25	1673,19
265,46	1796,07
265,68	1720,29
265,89	1691,62
266,11	1626,09
266,33	1773,54
266,54	1779,68
266,76	1683,43
266,98	1759,21
267,19	1814,50
267,41	1724,39
267,62	1748,97
267,84	1699,81
268,06	1701,86
268,27	1681,38
268,49	1794,02
268,70	1738,73
268,92	1679,33
269,14	1691,62
269,35	1685,48
269,57	1800,16
269,79	1820,64
270,00	1710,05
270,22	1771,49
270,43	1734,63
270,65	1527,78
270,87	1644,52
271,08	1730,53
271,30	1769,44
271,51	1632,23
271,73	1732,58
271,95	1765,35
272,16	1695,72
272,38	1697,77
272,59	1656,81
272,81	1787,88
273,02	1714,15
273,24	1669,09
273,46	1783,78
273,67	1652,71
273,89	1697,77
274,10	1685,48
274,32	1832,93
274,54	1755,11
274,75	1742,82
274,97	1728,49
275,18	1777,64
275,40	1724,39
275,61	1720,29
275,83	1693,67
276,05	1665,00
276,26	1675,24
276,48	1722,34
276,69	1660,90
276,91	1662,95
277,12	1812,45
277,34	1703,91
277,55	1695,72
277,77	1730,53
277,99	1722,34
278,20	1593,32
278,42	1644,52
278,63	1654,76
278,85	1624,04
279,06	1615,85
279,28	1800,16
279,49	1693,67
279,71	1740,77
279,93	1708,01
280,14	1638,38
280,36	1667,05
280,57	1763,30
280,79	1720,29
281,00	1619,94
281,22	1728,49
281,43	1814,50
281,65	1540,07
281,86	1724,39
282,08	1783,78
282,29	1847,27
282,51	1673,19
282,73	1660,90
282,94	1578,98
283,16	1738,73
283,37	1759,21
283,59	1609,70
283,80	1796,07
284,02	1662,95
284,23	1679,33
284,45	1701,86
284,66	1652,71
284,88	1673,19
285,09	1720,29
285,31	1738,73
285,52	1736,68
285,74	1607,66
285,95	1763,30
286,17	1773,54
286,38	1683,43
286,60	1632,23
286,81	1714,15
287,03	1681,38
287,24	1722,34
287,46	1744,87
287,67	1759,21
287,89	1851,36
288,10	1708,01
288,32	1755,11
288,53	1837,03
288,75	1705,96
288,96	1710,05
289,18	1708,01
289,39	1718,25
289,61	1705,96
289,82	1830,88
290,04	1814,50
290,25	1650,66
290,47	1734,63
290,68	1746,92
290,90	1710,05
291,11	1581,03
291,33	1734,63
291,54	1675,24
291,76	1656,81
291,97	1710,05
292,18	1800,16
292,40	1695,72
292,61	1642,47
292,83	1912,80
293,04	1720,29
293,26	1714,15
293,47	1642,47
293,69	1675,24
293,90	1705,96
294,12	1798,12
294,33	1710,05
294,55	1658,85
294,76	1806,31
294,97	1775,59
295,19	1789,92
295,40	1718,25
295,62	1712,10
295,83	1757,16
296,05	1609,70
296,26	1755,11
296,48	1646,57
296,69	1748,97
296,90	1675,24
297,12	1671,14
297,33	1783,78
297,55	1656,81
297,76	1691,62
297,98	1759,21
298,19	1708,01
298,41	1759,21
298,62	1650,66
298,83	1808,36
299,05	1751,01
299,26	1742,82
299,48	1595,37
299,69	1751,01
299,90	1773,54
300,12	1685,48
300,33	1751,01
300,55	1742,82
300,76	1779,68
300,98	1632,23
301,19	1710,05
301,40	1703,91
301,62	1636,33
301,83	1724,39
302,05	1708,01
302,26	1787,88
302,47	1681,38
302,69	1701,86
302,90	1734,63
303,12	1650,66
303,33	1720,29
303,54	1847,27
303,76	1681,38
303,97	1732,58
304,19	1798,12
304,40	1648,61
304,61	1751,01
304,83	1798,12
305,04	1798,12
305,26	1775,59
305,47	1685,48
305,68	1701,86
305,90	1599,46
306,11	1818,60
306,33	1640,42
306,54	1697,77
306,75	1679,33
306,97	1642,47
307,18	1667,05
307,39	1703,91
307,61	1775,59
307,82	1716,20
308,04	1734,63
308,25	1734,63
308,46	1718,25
308,68	1695,72
308,89	1720,29
309,10	1726,44
309,32	1738,73
309,53	1736,68
309,74	1714,15
309,96	1665,00
310,17	1845,22
310,39	1677,29
310,60	1753,06
310,81	1716,20
311,03	1581,03
311,24	1712,10
311,45	1691,62
311,67	1820,64
311,88	1718,25
312,09	1736,68
312,31	1636,33
312,52	1701,86
312,73	1628,14
312,95	1568,74
313,16	1611,75
313,37	1814,50
313,59	1736,68
313,80	1728,49
314,01	1845,22
314,23	1648,61
314,44	1665,00
314,65	1619,94
314,87	1626,09
315,08	1714,15
315,29	1738,73
315,51	1642,47
315,72	1658,85
315,93	1857,51
316,15	1785,83
316,36	1730,53
316,57	1693,67
316,79	1667,05
317,00	1681,38
317,21	1736,68
317,43	1652,71
317,64	1718,25
317,85	1683,43
318,07	1660,90
318,28	1708,01
318,49	1796,07
318,70	1908,71
318,92	1824,74
319,13	1837,03
319,34	1865,70
319,56	1759,21
319,77	1808,36
319,98	1824,74
320,20	1757,16
320,41	1748,97
320,62	1761,25
320,83	1775,59
321,05	1927,14
321,26	1730,53
321,47	1697,77
321,69	1767,40
321,90	1665,00
322,11	1644,52
322,32	1787,88
322,54	1818,60
322,75	1662,95
322,96	1869,80
323,18	1683,43
323,39	1568,74
323,60	1603,56
323,81	1708,01
324,03	1742,82
324,24	1781,73
324,45	1718,25
324,66	1658,85
324,88	1726,44
325,09	1826,79
325,30	1751,01
325,52	1716,20
325,73	1726,44
325,94	1611,75
326,15	1650,66
326,37	1693,67
326,58	1769,44
326,79	1843,17
327,00	1691,62
327,22	1683,43
327,43	1736,68
327,64	1683,43
327,85	1685,48
328,07	1691,62
328,28	1738,73
328,49	1683,43
328,70	1710,05
328,92	1710,05
329,13	1736,68
329,34	1751,01
329,55	1769,44
329,76	1798,12
329,98	1640,42
330,19	1853,41
330,40	1789,92
330,61	1769,44
330,83	1775,59
331,04	1722,34
331,25	1757,16
331,46	1656,81
331,68	1697,77
331,89	1683,43
332,10	1763,30
332,31	1640,42
332,52	1728,49
332,74	1720,29
332,95	1628,14
333,16	1732,58
333,37	1744,87
333,58	1628,14
333,80	1718,25
334,01	1578,98
334,22	1705,96
334,43	1601,51
334,64	1654,76
334,86	1665,00
335,07	1691,62
335,28	1761,25
335,49	1595,37
335,70	1744,87
335,92	1818,60
336,13	1853,41
336,34	1748,97
336,55	1765,35
336,76	1718,25
336,98	1611,75
337,19	1697,77
337,40	1800,16
337,61	1877,99
337,82	1738,73
338,04	1767,40
338,25	1574,89
338,46	1763,30
338,67	1769,44
338,88	1677,29
339,09	1693,67
339,31	1703,91
339,52	1697,77
339,73	1636,33
339,94	1675,24
340,15	1761,25
340,36	1693,67
340,58	1714,15
340,79	1742,82
341,00	1724,39
341,21	1652,71
341,42	1800,16
341,63	1708,01
341,85	1828,84
342,06	1710,05
342,27	1648,61
342,48	1802,21
342,69	1683,43
342,90	1748,97
343,12	1730,53
343,33	1705,96
343,54	1859,56
343,75	1777,64
343,96	1671,14
344,17	1593,32
344,38	1701,86
344,60	1607,66
344,81	1669,09
345,02	1632,23
345,23	1824,74
345,44	1796,07
345,65	1728,49
345,86	1738,73
346,07	1710,05
346,29	1644,52
346,50	1720,29
346,71	1738,73
346,92	1781,73
347,13	1834,98
347,34	1697,77
347,55	1667,05
347,76	1691,62
347,98	1628,14
348,19	1662,95
348,40	1748,97
348,61	1746,92
348,82	1775,59
349,03	1718,25
349,24	1677,29
349,45	1787,88
349,66	1570,79
349,88	1687,53
350,09	1665,00
350,30	1763,30
350,51	1783,78
350,72	1630,18
350,93	1757,16
351,14	1767,40
351,35	1714,15
351,56	1628,14
351,77	1683,43
351,99	1751,01
352,20	1775,59
352,41	1832,93
352,62	1632,23
352,83	1763,30
353,04	1689,57
353,25	1626,09
353,46	1802,21
353,67	1722,34
353,88	1583,08
354,09	1724,39
354,30	1728,49
354,52	1738,73
354,73	1697,77
354,94	1681,38
355,15	1650,66
355,36	1853,41
355,57	1726,44
355,78	1796,07
355,99	1671,14
356,20	1718,25
356,41	1826,79
356,62	1685,48
356,83	1726,44
357,04	1802,21
357,25	1548,26
357,46	1726,44
357,68	1595,37
357,89	1683,43
358,10	1740,77
358,31	1701,86
358,52	1671,14
358,73	1648,61
358,94	1673,19
359,15	1638,38
359,36	1771,49
359,57	1808,36
359,78	1712,10
359,99	1777,64
360,20	1714,15
360,41	1652,71
360,62	1724,39
360,83	1697,77
361,04	1710,05
361,25	1744,87
361,46	1796,07
361,67	1728,49
361,88	1820,64
362,09	1761,25
362,30	1798,12
362,51	1658,85
362,72	1654,76
362,93	1775,59
363,14	1736,68
363,35	1757,16
363,56	1607,66
363,78	1732,58
363,99	1726,44
364,20	1669,09
364,41	1716,20
364,62	1834,98
364,83	1691,62
365,04	1736,68
365,25	1771,49
365,46	1804,26
365,67	1685,48
365,88	1619,94
366,09	1722,34
366,30	1658,85
366,51	1658,85
366,72	1662,95
366,93	1708,01
367,14	1755,11
367,35	1853,41
367,56	1712,10
367,77	1777,64
367,98	1718,25
368,18	1837,03
368,39	1763,30
368,60	1751,01
368,81	1648,61
369,02	1708,01
369,23	1722,34
369,44	1595,37
369,65	1595,37
369,86	1724,39
370,07	1777,64
370,28	1677,29
370,49	1691,62
370,70	1720,29
370,91	1689,57
371,12	1679,33
371,33	1753,06
371,54	1681,38
371,75	1804,26
371,96	1640,42
372,17	1744,87
372,38	1695,72
372,59	1761,25
372,80	1636,33
373,01	1654,76
373,22	1705,96
373,43	1794,02
373,64	1748,97
373,85	1765,35
374,06	1834,98
374,26	1798,12
374,47	1771,49
374,68	1808,36
374,89	1808,36
375,10	1761,25
375,31	1771,49
375,52	1742,82
375,73	1787,88
375,94	1718,25
376,15	1806,31
376,36	1656,81
376,57	1689,57
376,78	1718,25
376,99	1742,82
377,20	1759,21
377,40	1767,40
377,61	1845,22
377,82	1722,34
378,03	1814,50
378,24	1869,80
378,45	1673,19
378,66	1724,39
378,87	1699,81
379,08	1644,52
379,29	1681,38
379,50	1806,31
379,71	1675,24
379,91	1726,44
380,12	1695,72
380,33	1712,10
380,54	1724,39
380,75	1642,47
380,96	1667,05
381,17	1761,25
381,38	1728,49
381,59	1759,21
381,80	1798,12
382,00	1812,45
382,21	1740,77
382,42	1785,83
382,63	1849,32
382,84	1679,33
383,05	1796,07
383,26	1808,36
383,47	1708,01
383,68	1710,05
383,88	1757,16
384,09	1826,79
384,30	1806,31
384,51	1736,68
384,72	1683,43
384,93	1660,90
385,14	1675,24
385,35	1861,60
385,55	1679,33
385,76	1779,68
385,97	1751,01
386,18	1683,43
386,39	1687,53
386,60	1736,68
386,81	1724,39
387,02	1624,04
387,22	1634,28
387,43	1849,32
387,64	1873,89
387,85	1914,85
388,06	2185,18
388,27	4368,32
388,48	6748,06
388,68	8071,04
388,89	9535,34
389,10	9504,62
389,31	8714,11
389,52	7550,86
389,73	6553,50
389,93	6320,03
390,14	5803,94
390,35	5070,77
390,56	4558,78
390,77	3790,79
390,98	3110,86
391,18	2504,67
391,39	2166,75
391,60	1859,56
391,81	1871,84
392,02	1791,97
392,23	1820,64
392,43	1740,77
392,64	1826,79
392,85	1763,30
393,06	1857,51
393,27	1765,35
393,47	1669,09
393,68	1710,05
393,89	1675,24
394,10	1779,68
394,31	1695,72
394,52	1681,38
394,72	1691,62
394,93	1845,22
395,14	1720,29
395,35	1810,40
395,56	1642,47
395,76	1714,15
395,97	1787,88
396,18	1826,79
396,39	1777,64
396,60	2000,87
396,80	1847,27
397,01	1957,86
397,22	1849,32
397,43	1865,70
397,64	1746,92
397,84	1802,21
398,05	1896,42
398,26	1777,64
398,47	1763,30
398,67	1806,31
398,88	1804,26
399,09	1798,12
399,30	1607,66
399,51	1804,26
399,71	1685,48
399,92	1656,81
400,13	1720,29
400,34	1726,44
400,54	1697,77
400,75	1816,55
400,96	1744,87
401,17	1773,54
401,37	1732,58
401,58	1714,15
401,79	1720,29
402,00	1927,14
402,21	2041,82
402,41	1933,28
402,62	1970,15
402,83	2009,06
403,04	1994,72
403,24	2060,26
403,45	1847,27
403,66	1894,37
403,87	1939,43
404,07	1910,75
404,28	1882,08
404,49	1939,43
404,70	1779,68
404,90	1755,11
405,11	1787,88
405,32	1740,77
405,52	1640,42
405,73	1691,62
405,94	1615,85
406,15	1779,68
406,35	1781,73
406,56	1757,16
406,77	1746,92
406,98	1740,77
407,18	1673,19
407,39	1771,49
407,60	1748,97
407,80	1726,44
408,01	1746,92
408,22	1736,68
408,43	1673,19
408,63	1767,40
408,84	1828,84
409,05	1748,97
409,25	1665,00
409,46	1660,90
409,67	1658,85
409,88	1621,99
410,08	1796,07
410,29	1730,53
410,50	1742,82
410,70	1738,73
410,91	1667,05
411,12	1767,40
411,32	1681,38
411,53	1617,90
411,74	1798,12
411,95	1740,77
412,15	1693,67
412,36	1798,12
412,57	1746,92
412,77	1744,87
412,98	1697,77
413,19	1716,20
413,39	1783,78
413,60	1710,05
413,81	1830,88
414,01	1718,25
414,22	1820,64
414,43	1718,25
414,63	1716,20
414,84	1724,39
415,05	1679,33
415,25	1685,48
415,46	1767,40
415,67	1642,47
415,87	1757,16
416,08	1796,07
416,29	1796,07
416,49	1734,63
416,70	1734,63
416,91	1716,20
417,11	1726,44
417,32	1796,07
417,53	1783,78
417,73	1755,11
417,94	1722,34
418,15	1753,06
418,35	1724,39
418,56	1648,61
418,77	1820,64
418,97	1736,68
419,18	1673,19
419,38	1658,85
419,59	1751,01
419,80	1798,12
420,00	1714,15
420,21	1740,77
420,42	1773,54
420,62	1816,55
420,83	1673,19
421,04	1714,15
421,24	1751,01
421,45	1771,49
421,65	1775,59
421,86	1660,90
422,07	1665,00
422,27	1642,47
422,48	1746,92
422,69	1699,81
422,89	1828,84
423,10	1699,81
423,30	1705,96
423,51	1773,54
423,72	1851,36
423,92	1796,07
424,13	1675,24
424,33	1742,82
424,54	1779,68
424,75	1693,67
424,95	1812,45
425,16	1697,77
425,36	1779,68
425,57	1763,30
425,78	1781,73
425,98	1767,40
426,19	1656,81
426,39	1681,38
426,60	1751,01
426,81	1822,69
427,01	1757,16
427,22	1667,05
427,42	1656,81
427,63	1642,47
427,83	1753,06
428,04	1845,22
428,25	1812,45
428,45	1873,89
428,66	1730,53
428,86	1667,05
429,07	1736,68
429,28	1728,49
429,48	1730,53
429,69	1656,81
429,89	1759,21
430,10	1621,99
430,30	1738,73
430,51	1787,88
430,71	1679,33
430,92	1726,44
431,13	1621,99
431,33	1763,30
431,54	1695,72
431,74	1773,54
431,95	1832,93
432,15	1617,90
432,36	1677,29
432,56	1708,01
432,77	1808,36
432,98	1759,21
433,18	1814,50
433,39	1697,77
433,59	1693,67
433,80	1734,63
434,00	1818,60
434,21	1673,19
434,41	1652,71
434,62	1871,84
434,82	1619,94
435,03	1613,80
435,23	1734,63
435,44	1632,23
435,64	1701,86
435,85	1712,10
436,06	1765,35
436,26	1742,82
436,47	1720,29
436,67	1619,94
436,88	1660,90
437,08	1742,82
437,29	1816,55
437,49	1771,49
437,70	1779,68
437,90	1656,81
438,11	1865,70
438,31	1769,44
438,52	1900,52
438,72	1755,11
438,93	1908,71
439,13	1730,53
439,34	1773,54
439,54	1804,26
439,75	1826,79
439,95	1798,12
440,16	1789,92
440,36	1804,26
440,57	1761,25
440,77	1718,25
440,98	1683,43
441,18	1742,82
441,39	1603,56
441,59	1697,77
441,80	1843,17
442,00	1732,58
442,21	1843,17
442,41	1697,77
442,62	1744,87
442,82	1683,43
443,02	1681,38
443,23	1791,97
443,43	1761,25
443,64	1847,27
443,84	1687,53
444,05	1812,45
444,25	1667,05
444,46	1626,09
444,66	1755,11
444,87	1853,41
445,07	1589,22
445,28	1697,77
445,48	1791,97
445,69	1732,58
445,89	1939,43
446,09	1802,21
446,30	2011,11
446,50	2609,11
446,71	3766,21
446,91	4282,30
447,12	4624,31
447,32	4958,13
447,53	4315,07
447,73	3854,28
447,93	3618,76
448,14	3362,76
448,34	3190,74
448,55	2889,68
448,75	2908,12
448,96	2766,81
449,16	2455,51
449,36	2267,10
449,57	2025,44
449,77	1882,08
449,98	1740,77
450,18	1810,40
450,39	1791,97
450,59	1802,21
450,79	1781,73
451,00	1718,25
451,20	1824,74
451,41	1757,16
451,61	1710,05
451,81	1779,68
452,02	1705,96
452,22	1791,97
452,43	1689,57
452,63	1679,33
452,84	1773,54
453,04	1765,35
453,24	1730,53
453,45	1710,05
453,65	1748,97
453,86	1738,73
454,06	1697,77
454,26	1718,25
454,47	1777,64
454,67	1763,30
454,87	1757,16
455,08	1783,78
455,28	1857,51
455,49	1767,40
455,69	1667,05
455,89	1869,80
456,10	1755,11
456,30	1697,77
456,51	1791,97
456,71	1757,16
456,91	1753,06
457,12	1851,36
457,32	1777,64
457,52	1732,58
457,73	1783,78
457,93	1806,31
458,14	1712,10
458,34	1695,72
458,54	1714,15
458,75	1685,48
458,95	1783,78
459,15	1771,49
459,36	1734,63
459,56	1775,59
459,76	1918,95
459,97	1785,83
460,17	1812,45
460,37	1763,30
460,58	1744,87
460,78	1800,16
460,99	1705,96
461,19	1732,58
461,39	1726,44
461,60	1791,97
461,80	1755,11
462,00	1722,34
462,21	1771,49
462,41	1673,19
462,61	1728,49
462,82	1656,81
463,02	1769,44
463,22	1763,30
463,43	1818,60
463,63	1779,68
463,83	1898,47
464,04	1841,12
464,24	1728,49
464,44	1665,00
464,64	1779,68
464,85	1783,78
465,05	1837,03
465,25	1728,49
465,46	1720,29
465,66	1853,41
465,86	1777,64
466,07	1800,16
466,27	1757,16
466,47	1691,62
466,68	1628,14
466,88	1837,03
467,08	1796,07
467,29	1765,35
467,49	1755,11
467,69	1701,86
467,89	1781,73
468,10	1738,73
468,30	1675,24
468,50	1877,99
468,71	1759,21
468,91	1708,01
469,11	1814,50
469,31	1710,05
469,52	1634,28
469,72	1886,18
469,92	1867,75
470,13	1673,19
470,33	1808,36
470,53	1794,02
470,73	2099,17
470,94	2306,01
471,14	2310,11
471,34	2502,62
471,54	2447,32
471,75	2179,04
471,95	2097,12
472,15	2117,60
472,36	2076,64
472,56	2062,30
472,76	2121,70
472,96	1959,91
473,17	1904,61
473,37	1908,71
473,57	1755,11
473,77	1804,26
473,98	1765,35
474,18	1665,00
474,38	1861,60
474,58	1699,81
474,79	1638,38
474,99	1755,11
475,19	1824,74
475,39	1667,05
475,60	1742,82
475,80	1673,19
476,00	1746,92
476,20	1705,96
476,41	1685,48
476,61	1875,94
476,81	1759,21
477,01	1671,14
477,21	1828,84
477,42	1820,64
477,62	1701,86
477,82	1730,53
478,02	1746,92
478,23	1705,96
478,43	1687,53
478,63	1744,87
478,83	1603,56
479,03	1714,15
479,24	1720,29
479,44	1839,08
479,64	1697,77
479,84	1617,90
480,04	1730,53
480,25	1822,69
480,45	1656,81
480,65	1748,97
480,85	1773,54
481,06	1724,39
481,26	1701,86
481,46	1757,16
481,66	1730,53
481,86	1607,66
482,06	1785,83
482,27	1781,73
482,47	1626,09
482,67	1724,39
482,87	1691,62
483,07	1826,79
483,28	1701,86
483,48	1699,81
483,68	1681,38
483,88	1722,34
484,08	1615,85
484,29	1705,96
484,49	1751,01
484,69	1693,67
484,89	1785,83
485,09	1769,44
485,29	1787,88
485,50	1675,24
485,70	1753,06
485,90	1814,50
486,10	1703,91
486,30	1800,16
486,50	1742,82
486,71	1742,82
486,91	1783,78
487,11	1837,03
487,31	1679,33
487,51	1757,16
487,71	1675,24
487,91	1634,28
488,12	1720,29
488,32	1617,90
488,52	1660,90
488,72	1667,05
488,92	1736,68
489,12	1738,73
489,32	1810,40
489,53	1765,35
489,73	1632,23
489,93	1791,97
490,13	1710,05
490,33	1736,68
490,53	1755,11
490,73	1816,55
490,94	1689,57
491,14	1734,63
491,34	1834,98
491,54	2170,85
491,74	2469,85
491,94	2967,51
492,14	2992,08
492,34	3104,72
492,54	2801,62
492,75	2480,09
492,95	2488,28
493,15	2334,68
493,35	2287,58
493,55	2183,13
493,75	2099,17
493,95	2166,75
494,15	1955,81
494,35	1896,42
494,56	1882,08
494,76	1769,44
494,96	1771,49
495,16	1779,68
495,36	1740,77
495,56	1724,39
495,76	1716,20
495,96	1673,19
496,16	1710,05
496,36	1849,32
496,56	1734,63
496,77	1744,87
496,97	1726,44
497,17	1765,35
497,37	1697,77
497,57	1687,53
497,77	1728,49
497,97	1744,87
498,17	1640,42
498,37	1746,92
498,57	1818,60
498,77	1660,90
498,97	1826,79
499,17	1789,92
499,38	1716,20
499,58	1703,91
499,78	1820,64
499,98	1855,46
500,18	1804,26
500,38	1740,77
500,58	1925,09
500,78	2533,34
500,98	4513,72
501,18	5803,94
501,38	6766,49
501,58	6985,62
501,78	6563,74
501,98	5711,78
502,18	4898,74
502,38	4396,99
502,58	4108,23
502,78	3780,55
502,98	3690,44
503,18	3465,16
503,38	3215,31
503,59	2869,20
503,79	2678,74
503,99	2562,01
504,19	2279,39
504,39	2246,62
504,59	2125,79
504,79	2084,83
504,99	2068,45
505,19	1947,62
505,39	1896,42
505,59	1951,71
505,79	1957,86
505,99	1931,23
506,19	1843,17
506,39	1828,84
506,59	1775,59
506,79	1710,05
506,99	1865,70
507,19	1820,64
507,39	1759,21
507,59	1671,14
507,79	1667,05
507,99	1697,77
508,19	1699,81
508,39	1660,90
508,59	1751,01
508,79	1787,88
508,99	1867,75
509,19	1716,20
509,39	1845,22
509,59	1671,14
509,79	1681,38
509,99	1740,77
510,19	1816,55
510,39	1787,88
510,59	1767,40
510,79	1740,77
510,99	1740,77
511,19	1812,45
511,39	1775,59
511,59	1841,12
511,79	1880,04
511,99	1798,12
512,19	1902,56
512,38	1740,77
512,58	1736,68
512,78	1808,36
512,98	1783,78
513,18	1773,54
513,38	1677,29
513,58	1771,49
513,78	1710,05
513,98	1730,53
514,18	1716,20
514,38	1736,68
514,58	1767,40
514,78	1734,63
514,98	1681,38
515,18	1683,43
515,38	1609,70
515,58	1816,55
515,78	1724,39
515,98	1767,40
516,18	1800,16
516,38	1736,68
516,57	1748,97
516,77	1761,25
516,97	1714,15
517,17	1779,68
517,37	1656,81
517,57	1816,55
517,77	1732,58
517,97	1654,76
518,17	1812,45
518,37	1775,59
518,57	1671,14
518,77	1728,49
518,97	1730,53
519,16	1806,31
519,36	1794,02
519,56	1738,73
519,76	1748,97
519,96	1783,78
520,16	1789,92
520,36	1665,00
520,56	1839,08
520,76	1673,19
520,96	1642,47
521,16	1820,64
521,35	1841,12
521,55	1855,46
521,75	1720,29
521,95	1648,61
522,15	1687,53
522,35	1667,05
522,55	1769,44
522,75	1812,45
522,95	1701,86
523,14	1632,23
523,34	1710,05
523,54	1689,57
523,74	1742,82
523,94	1755,11
524,14	1718,25
524,34	1724,39
524,54	1851,36
524,73	1783,78
524,93	1755,11
525,13	1724,39
525,33	1654,76
525,53	1906,66
525,73	1794,02
525,93	1753,06
526,13	1683,43
526,32	1755,11
526,52	1820,64
526,72	1812,45
526,92	1716,20
527,12	1701,86
527,32	1703,91
527,52	1730,53
527,71	1765,35
527,91	1703,91
528,11	1736,68
528,31	1732,58
528,51	1695,72
528,71	1695,72
528,90	1722,34
529,10	1759,21
529,30	1855,46
529,50	1644,52
529,70	1779,68
529,90	1734,63
530,09	1769,44
530,29	1642,47
530,49	1708,01
530,69	1855,46
530,89	1763,30
531,09	1834,98
531,28	1722,34
531,48	1785,83
531,68	1751,01
531,88	1705,96
532,08	1710,05
532,28	1689,57
532,47	1773,54
532,67	1859,56
532,87	1755,11
533,07	1718,25
533,27	1765,35
533,46	1740,77
533,66	1714,15
533,86	1761,25
534,06	1736,68
534,26	1789,92
534,45	1738,73
534,65	1761,25
534,85	1714,15
535,05	1724,39
535,25	1808,36
535,44	1705,96
535,64	1781,73
535,84	1697,77
536,04	1712,10
536,24	1691,62
536,43	1722,34
536,63	1783,78
536,83	1748,97
537,03	1732,58
537,22	1617,90
537,42	1646,57
537,62	1761,25
537,82	1718,25
538,02	1830,88
538,21	1847,27
538,41	1943,52
538,61	1787,88
538,81	1806,31
539,00	1730,53
539,20	1660,90
539,40	1787,88
539,60	1650,66
539,79	1687,53
539,99	1726,44
540,19	1699,81
540,39	1712,10
540,58	1699,81
540,78	1779,68
540,98	1771,49
541,18	1822,69
541,37	1718,25
541,57	1718,25
541,77	1765,35
541,97	1650,66
542,16	1677,29
542,36	1708,01
542,56	1845,22
542,76	1880,04
542,95	1761,25
543,15	1755,11
543,35	1755,11
543,54	1683,43
543,74	1621,99
543,94	1900,52
544,14	1726,44
544,33	1728,49
544,53	1765,35
544,73	1761,25
544,93	1755,11
545,12	1738,73
545,32	1751,01
545,52	1759,21
545,71	1665,00
545,91	1798,12
546,11	1771,49
546,30	1695,72
546,50	1794,02
546,70	1755,11
546,90	1851,36
547,09	1705,96
547,29	1751,01
547,49	1779,68
547,68	1837,03
547,88	1730,53
548,08	1828,84
548,27	2209,76
548,47	1730,53
548,67	1732,58
548,87	1751,01
549,06	1724,39
549,26	1787,88
549,46	1712,10
549,65	1763,30
549,85	1755,11
550,05	1753,06
550,24	1712,10
550,44	1779,68
550,64	1751,01
550,83	1736,68
551,03	1968,10
551,23	1837,03
551,42	1798,12
551,62	1746,92
551,82	1779,68
552,01	1720,29
552,21	1845,22
552,41	1763,30
552,60	1824,74
552,80	1781,73
553,00	1714,15
553,19	1757,16
553,39	1826,79
553,59	1773,54
553,78	1800,16
553,98	1861,60
554,17	1638,38
554,37	1806,31
554,57	1789,92
554,76	1714,15
554,96	1710,05
555,16	1763,30
555,35	1716,20
555,55	1697,77
555,75	1757,16
555,94	1818,60
556,14	1669,09
556,33	1812,45
556,53	1841,12
556,73	1691,62
556,92	1738,73
557,12	1851,36
557,32	1886,18
557,51	1910,75
557,71	1789,92
557,90	1861,60
558,10	1777,64
558,30	1796,07
558,49	1738,73
558,69	1675,24
558,88	1785,83
559,08	1738,73
559,28	1736,68
559,47	1800,16
559,67	1837,03
559,86	1847,27
560,06	1783,78
560,26	1691,62
560,45	1757,16
560,65	1738,73
560,84	1820,64
561,04	1746,92
561,24	1796,07
561,43	1662,95
561,63	1849,32
561,82	1753,06
562,02	1802,21
562,22	1759,21
562,41	1681,38
562,61	1773,54
562,80	1714,15
563,00	1945,57
563,19	1796,07
563,39	1783,78
563,59	1865,70
563,78	1671,14
563,98	1681,38
564,17	1691,62
564,37	1652,71
564,56	1767,40
564,76	1650,66
564,96	1802,21
565,15	1765,35
565,35	1902,56
565,54	1675,24
565,74	1742,82
565,93	1744,87
566,13	1746,92
566,32	1841,12
566,52	1773,54
566,71	1763,30
566,91	1751,01
567,11	1714,15
567,30	1732,58
567,50	1738,73
567,69	1685,48
567,89	1652,71
568,08	1755,11
568,28	1720,29
568,47	1673,19
568,67	1763,30
568,86	1763,30
569,06	1720,29
569,25	1822,69
569,45	1683,43
569,64	1693,67
569,84	1761,25
570,04	1818,60
570,23	1667,05
570,43	1734,63
570,62	1830,88
570,82	1845,22
571,01	1599,46
571,21	1705,96
571,40	1705,96
571,60	1789,92
571,79	1820,64
571,99	1699,81
572,18	1677,29
572,38	1738,73
572,57	1662,95
572,77	1781,73
572,96	1896,42
573,16	1804,26
573,35	1779,68
573,55	1837,03
573,74	1806,31
573,94	1732,58
574,13	1753,06
574,33	1849,32
574,52	1781,73
574,71	1730,53
574,91	1718,25
575,10	1671,14
575,30	1710,05
575,49	1687,53
575,69	1691,62
575,88	1716,20
576,08	1701,86
576,27	1857,51
576,47	1724,39
576,66	1855,46
576,86	1818,60
577,05	1796,07
577,25	1834,98
577,44	1861,60
577,64	1703,91
577,83	1765,35
578,02	1759,21
578,22	1828,84
578,41	1892,32
578,61	1781,73
578,80	1669,09
579,00	1718,25
579,19	1734,63
579,39	1820,64
579,58	1933,28
579,77	1734,63
579,97	1814,50
580,16	1822,69
580,36	1871,84
580,55	1816,55
580,75	1789,92
580,94	1812,45
581,13	1892,32
581,33	1882,08
581,52	1751,01
581,72	1894,37
581,91	1898,47
582,11	1753,06
582,30	1810,40
582,49	1705,96
582,69	1816,55
582,88	1751,01
583,08	1683,43
583,27	1820,64
583,47	1814,50
583,66	1740,77
583,85	1716,20
584,05	1779,68
584,24	1759,21
584,44	1808,36
584,63	1873,89
584,82	1818,60
585,02	1810,40
585,21	1886,18
585,41	1888,23
585,60	1822,69
585,79	1900,52
585,99	1871,84
586,18	1867,75
586,37	2254,81
586,57	3495,88
586,76	9959,27
586,96	24227,47
587,15	34461,17
587,34	40170,91
587,54	41985,41
587,73	36580,82
587,93	26218,10
588,12	21470,90
588,31	18245,35
588,51	16178,95
588,70	15255,32
588,89	14231,33
589,09	12500,80
589,28	10966,87
589,47	9342,83
589,67	7939,97
589,86	6320,03
590,06	4929,46
590,25	3901,38
590,44	3096,53
590,64	2619,35
590,83	2310,11
591,02	2164,70
591,22	1982,43
591,41	1904,61
591,60	1832,93
591,80	1855,46
591,99	1716,20
592,18	1744,87
592,38	1904,61
592,57	1804,26
592,76	1787,88
592,96	1837,03
593,15	1820,64
593,34	1757,16
593,54	1779,68
593,73	1847,27
593,92	1740,77
594,12	1777,64
594,31	1767,40
594,50	1896,42
594,70	1916,90
594,89	1912,80
595,08	1697,77
595,28	1845,22
595,47	1925,09
595,66	1843,17
595,86	1679,33
596,05	1751,01
596,24	1800,16
596,43	1830,88
596,63	1857,51
596,82	1812,45
597,01	1880,04
597,21	1748,97
597,40	1779,68
597,59	1759,21
597,79	1695,72
597,98	1810,40
598,17	1705,96
598,36	1791,97
598,56	1816,55
598,75	1665,00
598,94	1748,97
599,14	1771,49
599,33	1759,21
599,52	1771,49
599,71	1767,40
599,91	1726,44
600,10	1726,44
600,29	1767,40
600,48	1675,24
600,68	1769,44
600,87	1814,50
601,06	1732,58
601,26	1837,03
601,45	1779,68
601,64	1697,77
601,83	1826,79
602,03	1695,72
602,22	1726,44
602,41	1726,44
602,60	1802,21
602,80	1757,16
602,99	1730,53
603,18	1730,53
603,37	1765,35
603,57	1748,97
603,76	1832,93
603,95	1818,60
604,14	1751,01
604,34	1699,81
604,53	1830,88
604,72	1650,66
604,91	1804,26
605,10	1820,64
605,30	1624,04
605,49	1851,36
605,68	1753,06
605,87	1794,02
606,07	1677,29
606,26	1738,73
606,45	1802,21
606,64	1699,81
606,84	1755,11
607,03	1722,34
607,22	1730,53
607,41	1667,05
607,60	1708,01
607,80	1781,73
607,99	1697,77
608,18	1724,39
608,37	1744,87
608,56	1710,05
608,76	1757,16
608,95	1808,36
609,14	1695,72
609,33	1912,80
609,52	1822,69
609,72	1736,68
609,91	1802,21
610,10	1720,29
610,29	1798,12
610,48	1853,41
610,68	1761,25
610,87	1701,86
611,06	1722,34
611,25	1730,53
611,44	1861,60
611,63	1769,44
611,83	1814,50
612,02	1660,90
612,21	1851,36
612,40	1673,19
612,59	1640,42
612,79	1683,43
612,98	1720,29
613,17	1839,08
613,36	1787,88
613,55	1806,31
613,74	1695,72
613,93	1718,25
614,13	1726,44
614,32	1763,30
614,51	1816,55
614,70	1771,49
614,89	1693,67
615,08	1746,92
615,28	2095,07
615,47	1644,52
615,66	1820,64
615,85	1640,42
616,04	1787,88
616,23	1697,77
616,42	1730,53
616,62	1746,92
616,81	1837,03
617,00	1714,15
617,19	1746,92
617,38	1761,25
617,57	1751,01
617,76	1767,40
617,95	1779,68
618,15	1781,73
618,34	1875,94
618,53	1638,38
618,72	1810,40
618,91	1822,69
619,10	1787,88
619,29	1677,29
619,48	1763,30
619,68	1683,43
619,87	1718,25
620,06	1662,95
620,25	1728,49
620,44	1712,10
620,63	1775,59
620,82	1761,25
621,01	1810,40
621,20	1746,92
621,39	1810,40
621,59	1767,40
621,78	1724,39
621,97	1796,07
622,16	1759,21
622,35	1656,81
622,54	1763,30
622,73	1863,65
622,92	1656,81
623,11	1769,44
623,30	1734,63
623,49	1718,25
623,68	1689,57
623,88	1791,97
624,07	1687,53
624,26	1734,63
624,45	1708,01
624,64	1712,10
624,83	1712,10
625,02	1730,53
625,21	1732,58
625,40	1708,01
625,59	1771,49
625,78	1812,45
625,97	1779,68
626,16	1755,11
626,35	1759,21
626,54	1765,35
626,74	1816,55
626,93	1708,01
627,12	1689,57
627,31	1806,31
627,50	1761,25
627,69	1841,12
627,88	1765,35
628,07	1720,29
628,26	1640,42
628,45	1695,72
628,64	1630,18
628,83	1712,10
629,02	1646,57
629,21	1759,21
629,40	1779,68
629,59	1642,47
629,78	1699,81
629,97	1730,53
630,16	1718,25
630,35	1714,15
630,54	1734,63
630,73	1730,53
630,92	1785,83
631,11	1677,29
631,30	1779,68
631,49	1648,61
631,68	1665,00
631,87	1785,83
632,06	1767,40
632,25	1882,08
632,44	1755,11
632,63	1720,29
632,82	1646,57
633,01	1656,81
633,20	1785,83
633,39	1742,82
633,58	1662,95
633,77	1705,96
633,96	1730,53
634,15	1742,82
634,34	1812,45
634,53	1751,01
634,72	1748,97
634,91	1689,57
635,10	1775,59
635,29	1765,35
635,48	1732,58
635,67	1705,96
635,86	1675,24
636,05	1867,75
636,24	1724,39
636,43	1744,87
636,62	1771,49
636,81	1656,81
637,00	1697,77
637,19	1834,98
637,38	1689,57
637,57	1646,57
637,76	1714,15
637,95	1812,45
638,14	1619,94
638,33	1652,71
638,52	1669,09
638,71	1691,62
638,89	1753,06
639,08	1873,89
639,27	1781,73
639,46	1726,44
639,65	1822,69
639,84	1757,16
640,03	1763,30
640,22	1667,05
640,41	1845,22
640,60	1755,11
640,79	1810,40
640,98	1716,20
641,17	1765,35
641,36	1775,59
641,55	1736,68
641,74	1665,00
641,92	1708,01
642,11	1724,39
642,30	1699,81
642,49	1617,90
642,68	1767,40
642,87	1779,68
643,06	1779,68
643,25	1685,48
643,44	1734,63
643,63	1650,66
643,82	1703,91
644,00	1632,23
644,19	1716,20
644,38	1611,75
644,57	1757,16
644,76	1646,57
644,95	1744,87
645,14	1744,87
645,33	1650,66
645,52	1724,39
645,71	1660,90
645,89	1632,23
646,08	1593,32
646,27	1669,09
646,46	1781,73
646,65	1669,09
646,84	1730,53
647,03	1662,95
647,22	1828,84
647,40	1849,32
647,59	1734,63
647,78	1566,70
647,97	1740,77
648,16	1687,53
648,35	1730,53
648,54	1759,21
648,73	1763,30
648,91	1785,83
649,10	1667,05
649,29	1708,01
649,48	1724,39
649,67	1660,90
649,86	1767,40
650,05	1648,61
650,23	1779,68
650,42	1593,32
650,61	1771,49
650,80	1753,06
650,99	1853,41
651,18	1826,79
651,36	1732,58
651,55	1730,53
651,74	1751,01
651,93	1695,72
652,12	1714,15
652,31	1701,86
652,49	1665,00
652,68	1673,19
652,87	1683,43
653,06	1710,05
653,25	1845,22
653,44	1691,62
653,62	1810,40
653,81	1689,57
654,00	1755,11
654,19	1751,01
654,38	1863,65
654,56	1732,58
654,75	1708,01
654,94	1716,20
655,13	1740,77
655,32	1716,20
655,51	1701,86
655,69	1808,36
655,88	1748,97
656,07	1675,24
656,26	1855,46
656,45	1626,09
656,63	1757,16
656,82	1789,92
657,01	1798,12
657,20	1665,00
657,38	1765,35
657,57	1624,04
657,76	1611,75
657,95	1693,67
658,14	1681,38
658,32	1712,10
658,51	1701,86
658,70	1753,06
658,89	1740,77
659,08	1744,87
659,26	1771,49
659,45	1638,38
659,64	1708,01
659,83	1710,05
660,01	1855,46
660,20	1681,38
660,39	1877,99
660,58	1603,56
660,76	1714,15
660,95	1722,34
661,14	1742,82
661,33	1718,25
661,51	1632,23
661,70	1687,53
661,89	1718,25
662,08	1763,30
662,26	1714,15
662,45	1693,67
662,64	1808,36
662,83	1705,96
663,01	1679,33
663,20	1712,10
663,39	1863,65
663,58	1695,72
663,76	1771,49
663,95	1808,36
664,14	1681,38
664,32	1685,48
664,51	1675,24
664,70	1634,28
664,89	1746,92
665,07	1662,95
665,26	1742,82
665,45	1665,00
665,64	1724,39
665,82	1718,25
666,01	1812,45
666,20	1636,33
666,38	1816,55
666,57	1789,92
666,76	2244,57
666,95	4464,57
667,13	10418,02
667,32	15453,97
667,51	17954,54
667,69	19164,89
667,88	17774,32
668,07	12248,90
668,25	9539,44
668,44	8120,20
668,63	7368,59
668,81	6924,18
669,00	6367,13
669,19	5711,78
669,38	4997,04
669,56	4659,13
669,75	4050,88
669,94	3512,27
670,12	2906,07
670,31	2478,04
670,50	2303,96
670,68	2035,68
670,87	1877,99
671,06	1812,45
671,24	1763,30
671,43	1832,93
671,62	1759,21
671,80	1681,38
671,99	1759,21
672,18	1718,25
672,36	1751,01
672,55	1714,15
672,74	1701,86
672,92	1677,29
673,11	1687,53
673,29	1642,47
673,48	1865,70
673,67	1679,33
673,85	1783,78
674,04	1755,11
674,23	1695,72
674,41	1834,98
674,60	1695,72
674,79	1677,29
674,97	1691,62
675,16	1785,83
675,34	1810,40
675,53	1746,92
675,72	1843,17
675,90	1791,97
676,09	1697,77
676,28	1703,91
676,46	1615,85
676,65	1802,21
676,83	1669,09
677,02	1699,81
677,21	1722,34
677,39	1730,53
677,58	1667,05
677,77	1695,72
677,95	1642,47
678,14	1681,38
678,32	1759,21
678,51	1624,04
678,70	1843,17
678,88	1677,29
679,07	1708,01
679,25	1710,05
679,44	1789,92
679,63	1681,38
679,81	1742,82
680,00	1857,51
680,18	1751,01
680,37	1820,64
680,55	1845,22
680,74	1667,05
680,93	1576,94
681,11	1808,36
681,30	1714,15
681,48	1796,07
681,67	1726,44
681,85	1681,38
682,04	1660,90
682,23	1767,40
682,41	1746,92
682,60	1679,33
682,78	1683,43
682,97	1652,71
683,15	1748,97
683,34	1744,87
683,53	1789,92
683,71	1587,18
683,90	1851,36
684,08	1757,16
684,27	1701,86
684,45	1796,07
684,64	1728,49
684,82	1775,59
685,01	1796,07
685,19	1689,57
685,38	1828,84
685,57	1660,90
685,75	1650,66
685,94	1654,76
686,12	1685,48
686,31	1677,29
686,49	1863,65
686,68	1599,46
686,86	1779,68
687,05	1669,09
687,23	1820,64
687,42	1624,04
687,60	1650,66
687,79	1726,44
687,97	1726,44
688,16	1798,12
688,34	1761,25
688,53	1658,85
688,71	1701,86
688,90	1826,79
689,08	1679,33
689,27	1638,38
689,45	1763,30
689,64	1734,63
689,82	1820,64
690,01	1708,01
690,19	1708,01
690,38	1726,44
690,56	1837,03
690,75	1673,19
690,93	1665,00
691,12	1695,72
691,30	1722,34
691,49	1689,57
691,67	1646,57
691,86	1771,49
692,04	1697,77
692,23	1675,24
692,41	1642,47
692,60	1837,03
692,78	1693,67
692,97	1667,05
693,15	1673,19
693,34	1759,21
693,52	1849,32
693,71	1714,15
693,89	1628,14
694,08	1626,09
694,26	1759,21
694,44	1744,87
694,63	1716,20
694,81	1617,90
695,00	1656,81
695,18	1724,39
695,37	1834,98
695,55	1728,49
695,74	1679,33
695,92	1654,76
696,10	1740,77
696,29	1605,61
696,47	1693,67
696,66	1644,52
696,84	1621,99
697,03	1716,20
697,21	1863,65
697,40	2359,26
697,58	1845,22
697,76	1687,53
697,95	1708,01
698,13	1630,18
698,32	1708,01
698,50	1730,53
698,68	1814,50
698,87	1656,81
699,05	1824,74
699,24	1665,00
699,42	1679,33
699,61	1656,81
699,79	1669,09
699,97	1689,57
700,16	1673,19
700,34	1720,29
700,53	1718,25
700,71	1839,08
700,89	1687,53
701,08	1701,86
701,26	1763,30
701,45	2156,51
701,63	1685,48
701,81	1716,20
702,00	1695,72
702,18	1619,94
702,37	1705,96
702,55	1677,29
702,73	1763,30
702,92	1689,57
703,10	1767,40
703,28	1767,40
703,47	1687,53
703,65	1812,45
703,84	1789,92
704,02	1660,90
704,20	1804,26
704,39	1566,70
704,57	1763,30
704,75	1830,88
704,94	1777,64
705,12	1699,81
705,30	1843,17
705,49	2254,81
705,67	4462,52
705,86	9334,64
706,04	12478,27
706,22	14485,28
706,41	15443,73
706,59	13655,86
706,77	9566,06
706,96	7382,93
707,14	6651,80
707,32	6010,79
707,51	5537,71
707,69	4939,70
707,87	4147,14
708,06	3536,84
708,24	2848,72
708,42	2398,17
708,61	2265,05
708,79	1947,62
708,97	1871,84
709,16	1865,70
709,34	1703,91
709,52	1697,77
709,71	1691,62
709,89	1814,50
710,07	1701,86
710,26	1665,00
710,44	1775,59
710,62	1767,40
710,80	1740,77
710,99	1718,25
711,17	1716,20
711,35	1654,76
711,54	1685,48
711,72	1767,40
711,90	1771,49
712,09	1736,68
712,27	1726,44
712,45	1695,72
712,63	1730,53
712,82	1693,67
713,00	1734,63
713,18	1759,21
713,37	1718,25
713,55	1789,92
713,73	1767,40
713,91	1800,16
714,10	1753,06
714,28	1673,19
714,46	1683,43
714,65	1810,40
714,83	1765,35
715,01	1669,09
715,19	1695,72
715,38	1683,43
715,56	1712,10
715,74	1626,09
715,92	1697,77
716,11	1841,12
716,29	1642,47
716,47	1689,57
716,65	1757,16
716,84	1574,89
717,02	1830,88
717,20	1552,36
717,38	1728,49
717,57	1757,16
717,75	1728,49
717,93	1630,18
718,11	1779,68
718,30	1675,24
718,48	1720,29
718,66	1812,45
718,84	1714,15
719,03	1640,42
719,21	1695,72
719,39	1865,70
719,57	1724,39
719,75	1779,68
719,94	1732,58
720,12	1703,91
720,30	1693,67
720,48	1767,40
720,67	1722,34
720,85	1624,04
721,03	1658,85
721,21	1705,96
721,39	1822,69
721,58	1708,01
721,76	1744,87
721,94	1730,53
722,12	1728,49
722,30	1824,74
722,49	1718,25
722,67	1748,97
722,85	1794,02
723,03	1589,22
723,21	1724,39
723,40	1712,10
723,58	1763,30
723,76	1701,86
723,94	1775,59
724,12	1730,53
724,30	1826,79
724,49	1763,30
724,67	1679,33
724,85	1832,93
725,03	1634,28
725,21	1761,25
725,40	1796,07
725,58	1652,71
725,76	1796,07
725,94	1726,44
726,12	1701,86
726,30	1685,48
726,49	1660,90
726,67	1701,86
726,85	1757,16
727,03	1789,92
727,21	2045,92
727,39	2947,03
727,57	3809,22
727,76	4224,96
727,94	4581,31
728,12	4423,61
728,30	3620,81
728,48	3024,85
728,66	2822,10
728,84	2578,39
729,03	2369,50
729,21	2168,80
729,39	1947,62
729,57	1841,12
729,75	1814,50
729,93	1857,51
730,11	1759,21
730,30	1738,73
730,48	1605,61
730,66	1769,44
730,84	1703,91
731,02	1722,34
731,20	1699,81
731,38	1748,97
731,56	1697,77
731,74	1703,91
731,93	1714,15
732,11	1712,10
732,29	1607,66
732,47	1730,53
732,65	1742,82
732,83	1839,08
733,01	1697,77
733,19	1691,62
733,37	1656,81
733,56	1726,44
733,74	1640,42
733,92	1734,63
734,10	1691,62
734,28	1716,20
734,46	1566,70
734,64	1767,40
734,82	1738,73
735,00	1615,85
735,18	1732,58
735,36	1785,83
735,54	1671,14
735,73	1789,92
735,91	1789,92
736,09	1746,92
736,27	1730,53
736,45	1714,15
736,63	1552,36
736,81	1726,44
736,99	1804,26
737,17	1822,69
737,35	1671,14
737,53	1787,88
737,71	1660,90
737,89	1728,49
738,07	1605,61
738,25	1658,85
738,43	1630,18
738,61	1701,86
738,80	1619,94
738,98	1671,14
739,16	1644,52
739,34	1652,71
739,52	1816,55
739,70	1726,44
739,88	1718,25
740,06	1810,40
740,24	1587,18
740,42	1832,93
740,60	1634,28
740,78	1652,71
740,96	1660,90
741,14	1726,44
741,32	1681,38
741,50	1724,39
741,68	1869,80
741,86	1753,06
742,04	1689,57
742,22	1611,75
742,40	1634,28
742,58	1712,10
742,76	1685,48
742,94	1728,49
743,12	1585,13
743,30	1734,63
743,48	1726,44
743,66	1640,42
743,84	1701,86
744,02	1689,57
744,20	1720,29
744,38	1665,00
744,56	1679,33
744,74	1789,92
744,92	1703,91
745,10	1775,59
745,28	1726,44
745,46	1814,50
745,64	1689,57
745,82	1777,64
746,00	1751,01
746,18	1665,00
746,36	1621,99
746,54	1789,92
746,72	1714,15
746,90	1619,94
747,08	1765,35
747,26	1705,96
747,44	1746,92
747,62	1710,05
747,80	1708,01
747,98	1779,68
748,15	1716,20
748,33	1824,74
748,51	1695,72
748,69	1781,73
748,87	1671,14
749,05	1710,05
749,23	1724,39
749,41	1781,73
749,59	1685,48
749,77	1773,54
749,95	1669,09
750,13	1755,11
750,31	1708,01
750,49	1746,92
750,67	1763,30
750,85	1816,55
751,03	1699,81
751,20	1892,32
751,38	1683,43
751,56	1742,82
751,74	1703,91
751,92	1794,02
752,10	1697,77
752,28	1720,29
752,46	1652,71
752,64	1710,05
752,82	1693,67
753,00	1738,73
753,18	1736,68
753,35	1701,86
753,53	1693,67
753,71	1716,20
753,89	1701,86
754,07	1746,92
754,25	1791,97
754,43	1849,32
754,61	1665,00
754,79	1691,62
754,97	1730,53
755,14	1746,92
755,32	1636,33
755,50	1712,10
755,68	1671,14
755,86	1697,77
756,04	1593,32
756,22	1671,14
756,40	1785,83
756,57	1761,25
756,75	1714,15
756,93	1789,92
757,11	1740,77
757,29	1693,67
757,47	1654,76
757,65	1712,10
757,82	1574,89
758,00	1673,19
758,18	1667,05
758,36	1599,46
758,54	1832,93
758,72	1636,33
758,90	1671,14
759,07	1734,63
759,25	1732,58
759,43	1726,44
759,61	1630,18
759,79	2179,04
759,97	1771,49
760,15	1755,11
760,32	1671,14
760,50	1722,34
760,68	1789,92
760,86	1636,33
761,04	1814,50
761,22	1710,05
761,39	1751,01
761,57	1787,88
761,75	1695,72
761,93	1718,25
762,11	1701,86
762,28	1648,61
762,46	1703,91
762,64	1718,25
762,82	1656,81
763,00	1673,19
763,18	1757,16
763,35	1650,66
763,53	1789,92
763,71	1667,05
763,89	1748,97
764,07	1716,20
764,24	1759,21
764,42	1751,01
764,60	1710,05
764,78	1701,86
764,96	1763,30
765,13	1728,49
765,31	1703,91
765,49	1798,12
765,67	1683,43
765,84	1660,90
766,02	1669,09
766,20	1718,25
766,38	1722,34
766,56	1757,16
766,73	1763,30
766,91	1679,33
767,09	1783,78
767,27	1781,73
767,44	1658,85
767,62	1718,25
767,80	1705,96
767,98	1662,95
768,15	1708,01
768,33	1765,35
768,51	1714,15
768,69	1718,25
768,87	1789,92
769,04	1640,42
769,22	1914,85
769,40	1837,03
769,58	1824,74
769,75	1765,35
769,93	1765,35
770,11	1720,29
770,28	1701,86
770,46	1642,47
770,64	1742,82
770,82	1667,05
770,99	1697,77
771,17	1732,58
771,35	1693,67
771,53	1753,06
771,70	1740,77
771,88	1837,03
772,06	1662,95
772,23	1681,38
772,41	1714,15
772,59	1646,57
772,77	1550,31
772,94	1703,91
773,12	1738,73
773,30	1712,10
773,47	1722,34
773,65	1632,23
773,83	1785,83
774,01	1710,05
774,18	1593,32
774,36	1675,24
774,54	1728,49
774,71	1689,57
774,89	1652,71
775,07	1683,43
775,24	1708,01
775,42	1662,95
775,60	1783,78
775,78	1685,48
775,95	1640,42
776,13	1609,70
776,31	1648,61
776,48	1646,57
776,66	1779,68
776,84	1673,19
777,01	1652,71
777,19	1728,49
777,37	1763,30
777,54	1720,29
777,72	1824,74
777,90	1783,78
778,07	1679,33
778,25	1888,23
778,43	1746,92
778,60	1665,00
778,78	1777,64
778,96	1769,44
779,13	1667,05
779,31	1742,82
779,49	1679,33
779,66	1718,25
779,84	1654,76
780,01	1816,55
780,19	1667,05
780,37	1800,16
780,54	1761,25
780,72	1658,85
780,90	1681,38
781,07	1665,00
781,25	1695,72
781,43	1718,25
781,60	1708,01
781,78	1806,31
781,95	1656,81
782,13	1681,38
782,31	1697,77
782,48	1708,01
782,66	1834,98
782,83	1859,56
783,01	1734,63
783,19	1746,92
783,36	1685,48
783,54	1603,56
783,72	1746,92
783,89	1669,09
784,07	1726,44
784,24	1740,77
784,42	1798,12
784,60	1746,92
784,77	1767,40
784,95	1599,46
785,12	1671,14
785,30	1796,07
785,47	1644,52
785,65	1705,96
785,83	1675,24
786,00	1650,66
786,18	1716,20
786,35	1665,00
786,53	1654,76
786,71	1769,44
786,88	1708,01
787,06	1662,95
787,23	1712,10
787,41	1638,38
787,58	1695,72
787,76	1689,57
787,94	1687,53
788,11	1681,38
788,29	1617,90
788,46	1722,34
788,64	1576,94
788,81	1738,73
788,99	1632,23
789,16	1697,77
789,34	1638,38
789,52	1636,33
789,69	1773,54
789,87	1646,57
790,04	1740,77
790,22	1681,38
790,39	1828,84
790,57	1699,81
790,74	1621,99
790,92	1759,21
791,09	1619,94
791,27	1722,34
791,44	1812,45
791,62	1753,06
791,79	1810,40
791,97	1787,88
792,15	1871,84
792,32	1800,16
792,50	1779,68
792,67	1777,64
792,85	1812,45
793,02	1771,49
793,20	1695,72
793,37	1667,05
793,55	1675,24
793,72	1665,00
793,90	1777,64
794,07	1724,39
794,25	1624,04
794,42	1761,25
794,60	1742,82
794,77	1783,78
794,95	1732,58
795,12	1736,68
795,30	1710,05
795,47	1699,81
795,65	1824,74
795,82	1761,25
796,00	1617,90
796,17	1720,29
796,34	1687,53
796,52	1708,01
796,69	1779,68
796,87	1722,34
797,04	1751,01
797,22	1757,16
797,39	1763,30
797,57	1822,69
797,74	1695,72
797,92	1746,92
798,09	1665,00
798,27	1751,01
798,44	1714,15
798,62	1662,95
798,79	1746,92
798,96	1689,57
799,14	1712,10
799,31	1791,97
799,49	1718,25
799,66	1693,67
799,84	1701,86
800,01	1630,18
800,19	1728,49
800,36	1636,33
800,53	1671,14
800,71	1757,16
800,88	1804,26
801,06	1677,29
801,23	1683,43
801,41	1660,90
801,58	1697,77
801,75	1673,19
801,93	1785,83
802,10	1732,58
802,28	1697,77
802,45	1746,92
802,63	1787,88
802,80	1771,49
802,97	1714,15
803,15	1716,20
803,32	1683,43
803,50	1595,37
803,67	1611,75
803,84	1599,46
804,02	1632,23
804,19	1677,29
804,37	1595,37
804,54	1632,23
804,71	1652,71
804,89	1699,81
805,06	1656,81
805,24	1689,57
805,41	1644,52
805,58	1638,38
805,76	1837,03
805,93	1669,09
806,10	1763,30
806,28	1746,92
806,45	1701,86
806,63	1675,24
806,80	1746,92
806,97	1742,82
807,15	1697,77
807,32	1667,05
807,49	1703,91
807,67	1681,38
807,84	1718,25
808,01	1669,09
808,19	1849,32
808,36	1861,60
808,54	1708,01
808,71	1675,24
808,88	1771,49
809,06	1738,73
809,23	1814,50
809,40	1669,09
809,58	1765,35
809,75	1693,67
809,92	1658,85
810,10	1845,22
810,27	1640,42
810,44	1742,82
810,62	1740,77
810,79	1755,11
810,96	1697,77
811,14	1646,57
811,31	1769,44
811,48	1796,07
811,66	1675,24
811,83	1679,33
812,00	1783,78
812,18	1765,35
812,35	1814,50
812,52	1644,52
812,69	1714,15
812,87	1736,68
813,04	1699,81
813,21	1738,73
813,39	1650,66
813,56	1591,27
813,73	1736,68
813,91	1742,82
814,08	1683,43
814,25	1677,29
814,42	1656,81
814,60	1634,28
814,77	1728,49
814,94	1662,95
815,12	1748,97
815,29	1779,68
815,46	1671,14
815,63	1728,49
815,81	1685,48
815,98	1726,44
816,15	1656,81
816,33	1710,05
816,50	1693,67
816,67	1705,96
816,84	1718,25
817,02	1628,14
817,19	1699,81
817,36	1691,62
817,53	1710,05
817,71	1652,71
817,88	1751,01
818,05	1683,43
818,22	1693,67
818,40	1796,07
818,57	1660,90
818,74	1693,67
818,91	1708,01
819,09	1738,73
819,26	1728,49
819,43	1689,57
819,60	1695,72
819,78	1708,01
819,95	1761,25
820,12	1673,19
820,29	1814,50
820,47	1736,68
820,64	1712,10
820,81	1556,46
820,98	1720,29
821,15	1724,39
821,33	1718,25
821,50	1660,90
821,67	1744,87
821,84	1728,49
822,02	1740,77
822,19	1779,68
822,36	1677,29
822,53	1705,96
822,70	1693,67
822,88	1722,34
823,05	1804,26
823,22	1712,10
823,39	1718,25
823,56	1763,30
823,74	1820,64
823,91	1648,61
824,08	1642,47
824,25	1681,38
824,42	1773,54
824,60	1621,99
824,77	1777,64
824,94	1687,53
825,11	1753,06
825,28	1593,32
825,45	1732,58
825,63	1701,86
825,80	1648,61
825,97	1724,39
826,14	1732,58
826,31	1656,81
826,48	1759,21
826,66	1673,19
826,83	1650,66
827,00	1771,49
827,17	1665,00
827,34	1699,81
827,51	1640,42
827,69	1665,00
827,86	1708,01
828,03	1738,73
828,20	1673,19
828,37	1644,52
828,54	1742,82
828,71	1626,09
828,89	1785,83
829,06	1722,34
829,23	1748,97
829,40	1769,44
829,57	1693,67
829,74	1718,25
829,91	1675,24
830,09	1726,44
830,26	1701,86
830,43	1773,54
830,60	1759,21
830,77	1742,82
830,94	1798,12
831,11	1787,88
831,28	1681,38
831,46	1683,43
831,63	1708,01
831,80	1781,73
831,97	1667,05
832,14	1673,19
832,31	1773,54
832,48	1695,72
832,65	1736,68
832,82	1740,77
832,99	1671,14
833,17	1677,29
833,34	1789,92
833,51	1740,77
833,68	1648,61
833,85	1789,92
834,02	1753,06
834,19	1638,38
834,36	1632,23
834,53	1716,20
834,70	1757,16
834,87	1796,07
835,04	1697,77
835,22	1687,53
835,39	1736,68
835,56	1658,85
835,73	1667,05
835,90	1703,91
836,07	1660,90
836,24	1669,09
836,41	1640,42
836,58	1656,81
836,75	1736,68
836,92	1732,58
837,09	1671,14
837,26	1744,87
837,43	1677,29
837,60	1781,73
837,77	1650,66
837,94	1767,40
838,12	1755,11
838,29	1714,15
838,46	1681,38
838,63	1595,37
838,80	1771,49
838,97	1710,05
839,14	1730,53
839,31	1806,31
839,48	1773,54
839,65	1703,91
839,82	1779,68
839,99	1738,73
840,16	1699,81
840,33	1687,53
840,50	1781,73
840,67	1636,33
840,84	1601,51
841,01	1734,63
841,18	1658,85
841,35	1669,09
841,52	1767,40
841,69	1857,51
841,86	1646,57
842,03	1703,91
842,20	1757,16
842,37	1648,61
842,54	1718,25
842,71	1687,53
842,88	1644,52
843,05	1689,57
843,22	1693,67
843,39	1726,44
843,56	1652,71
843,73	1683,43
843,90	1693,67
844,07	1703,91
844,24	1667,05
844,41	1724,39
844,58	1708,01
844,75	1738,73
844,92	1755,11
845,09	1667,05
845,26	1621,99
845,43	1693,67
845,60	1671,14
845,77	1736,68
845,94	1656,81
846,10	1730,53
846,27	1648,61
846,44	1685,48
846,61	1665,00
846,78	1783,78
846,95	1751,01
847,12	1767,40
847,29	1695,72
847,46	1671,14
847,63	1761,25
847,80	1638,38
847,97	1677,29
848,14	1894,37
848,31	1734,63
848,48	1648,61
848,65	1748,97
848,82	1671,14
848,98	1753,06
849,15	1710,05
849,32	1708,01
849,49	1812,45
849,66	1665,00
849,83	1632,23
850,00	1583,08
850,17	1744,87
850,34	1662,95
850,51	1578,98
850,68	1730,53
850,85	1869,80
851,01	1722,34
851,18	1681,38
851,35	1710,05
851,52	1697,77
851,69	1832,93
851,86	1650,66
852,03	1660,90
852,20	1767,40
852,37	1626,09
852,53	1644,52
852,70	1693,67
852,87	1791,97
853,04	1732,58
853,21	1730,53
853,38	1759,21
853,55	1802,21
853,72	1834,98
853,89	1685,48
854,05	1646,57
854,22	1611,75
854,39	1687,53
854,56	1710,05
854,73	1771,49
854,90	1744,87
855,07	1789,92
855,23	1728,49
855,40	1720,29
855,57	1675,24
855,74	1558,50
855,91	1898,47
856,08	1583,08
856,25	1578,98
856,41	1703,91
856,58	1757,16
856,75	1665,00
856,92	1648,61
857,09	1824,74
857,26	1578,98
857,42	1712,10
857,59	1822,69
857,76	1644,52
857,93	1714,15
858,10	1724,39
858,27	1619,94
858,43	1644,52
858,60	1761,25
858,77	1626,09
858,94	1710,05
859,11	1714,15
859,27	1708,01
859,44	1740,77
859,61	1781,73
859,78	1740,77
859,95	1667,05
860,12	1648,61
860,28	1757,16
860,45	1824,74
860,62	1650,66
860,79	1710,05
860,95	1746,92
861,12	1605,61
861,29	1689,57
861,46	1638,38
861,63	1665,00
861,79	1724,39
861,96	1726,44
862,13	1675,24
862,30	1708,01
862,47	1681,38
862,63	1644,52
862,80	1679,33
862,97	1800,16
863,14	1652,71
863,30	1730,53
863,47	1611,75
863,64	1791,97
863,81	1757,16
863,97	1673,19
864,14	1669,09
864,31	1699,81
864,48	1775,59
864,65	1656,81
864,81	1755,11
864,98	1701,86
865,15	1726,44
865,32	1708,01
865,48	1785,83
865,65	1687,53
865,82	1724,39
865,98	1798,12
866,15	1789,92
866,32	1718,25
866,49	1675,24
866,65	1791,97
866,82	1593,32
866,99	1701,86
867,16	1710,05
867,32	1615,85
867,49	1691,62
867,66	1726,44
867,83	1714,15
867,99	1640,42
868,16	1624,04
868,33	1597,42
868,49	1751,01
868,66	1626,09
868,83	1757,16
868,99	1646,57
869,16	1701,86
869,33	1775,59
869,50	1712,10
869,66	1728,49
869,83	1640,42
870,00	1683,43
870,16	1722,34
870,33	1748,97
870,50	1718,25
870,66	1753,06
870,83	1779,68
871,00	1695,72
871,17	1689,57
871,33	1665,00
871,50	1689,57
871,67	1708,01
871,83	1757,16
872,00	1722,34
872,17	1689,57
872,33	1783,78
872,50	1783,78
872,67	1613,80
872,83	1662,95
873,00	1660,90
873,17	1705,96
873,33	1769,44
873,50	1812,45
873,67	1660,90
873,83	1667,05
874,00	1685,48
874,16	1769,44
874,33	1720,29
874,50	1628,14
874,66	1724,39
874,83	1787,88
875,00	1859,56
875,16	1775,59
875,33	1769,44
875,50	1572,84
875,66	1634,28
875,83	1779,68
875,99	1732,58
876,16	1701,86
876,33	1716,20
876,49	1638,38
876,66	1736,68
876,83	1652,71
876,99	1681,38
877,16	1724,39
877,32	1656,81
877,49	1642,47
877,66	1794,02
877,82	1783,78
877,99	1740,77
878,15	1744,87
878,32	1763,30
878,49	1726,44
878,65	1726,44
878,82	1755,11
878,98	1652,71
879,15	1781,73
879,32	1751,01
879,48	1660,90
879,65	1681,38
879,81	1714,15
879,98	1624,04
880,15	1689,57
880,31	1785,83
880,48	1656,81
880,64	1736,68
880,81	1660,90
880,97	1828,84
881,14	1714,15
881,31	1683,43
881,47	1935,33
881,64	1755,11
881,80	1656,81
881,97	1761,25
882,13	1769,44
882,30	1636,33
882,47	1554,41
882,63	1638,38
882,80	1681,38
882,96	1767,40
883,13	1722,34
883,29	1673,19
883,46	1753,06
883,62	1785,83
883,79	1738,73
883,95	1800,16
884,12	1667,05
884,29	1714,15
884,45	1705,96
884,62	1763,30
884,78	1648,61
884,95	1798,12
885,11	1644,52
885,28	1665,00
885,44	1681,38
885,61	1765,35
885,77	1830,88
885,94	1740,77
886,10	1720,29
886,27	1761,25
886,43	1742,82
886,60	1708,01
886,76	1599,46
886,93	1669,09
887,09	1777,64
887,26	1599,46
887,42	1699,81
887,59	1808,36
887,75	1794,02
887,92	1794,02
888,08	1783,78
888,25	1761,25
888,41	1697,77
888,58	1753,06
888,74	1660,90
888,91	1677,29
>>>>>End Processed Spectral Data<<<<<
