SpectraSuite Data File
++++++++++++++++++++++++++++++++++++
Date: Mon Jun 06 12:53:37 CEST 2016
User: root
Dark Spectrum Present: No
Reference Spectrum Present: No
Number of Sampled Component Spectra: 1
Spectrometers: USB4C02835
Integration Time (usec): 100000 (USB4C02835)
Spectra Averaged: 1 (USB4C02835)
Boxcar Smoothing: 0 (USB4C02835)
Correct for Electrical Dark: No (USB4C02835)
Strobe/Lamp Enabled: No (USB4C02835)
Correct for Detector Non-linearity: No (USB4C02835)
Correct for Stray Light: No (USB4C02835)
Number of Pixels in Processed Spectrum: 3648
>>>>>Begin Processed Spectral Data<<<<<
177,47	1476,59
177,69	1476,59
177,91	1476,59
178,13	1425,39
178,36	1466,35
178,58	1619,94
178,80	1697,77
179,02	1646,57
179,24	1687,53
179,46	1685,48
179,68	1779,68
179,90	1652,71
180,13	1771,49
180,35	1632,23
180,57	1613,80
180,79	1648,61
181,01	1697,77
181,23	1757,16
181,45	1718,25
181,67	1783,78
181,90	1748,97
182,12	1638,38
182,34	1558,50
182,56	1648,61
182,78	1689,57
183,00	1679,33
183,22	1681,38
183,44	1593,32
183,66	1837,03
183,89	1814,50
184,11	1701,86
184,33	1763,30
184,55	1796,07
184,77	1675,24
184,99	1677,29
185,21	1617,90
185,43	1830,88
185,65	1685,48
185,87	1673,19
186,10	1865,70
186,32	1877,99
186,54	1677,29
186,76	1796,07
186,98	1734,63
187,20	1634,28
187,42	1728,49
187,64	1652,71
187,86	1740,77
188,08	1767,40
188,30	1581,03
188,52	1675,24
188,75	1822,69
188,97	1697,77
189,19	1728,49
189,41	1677,29
189,63	1718,25
189,85	1699,81
190,07	1654,76
190,29	1642,47
190,51	1654,76
190,73	1632,23
190,95	1738,73
191,17	1634,28
191,39	1640,42
191,61	1683,43
191,84	1644,52
192,06	1730,53
192,28	1648,61
192,50	1853,41
192,72	1634,28
192,94	1665,00
193,16	1722,34
193,38	1720,29
193,60	1634,28
193,82	1683,43
194,04	1773,54
194,26	1738,73
194,48	1699,81
194,70	1691,62
194,92	1595,37
195,14	1718,25
195,36	1619,94
195,58	1761,25
195,80	1718,25
196,02	1617,90
196,24	1683,43
196,46	1720,29
196,69	1574,89
196,91	1845,22
197,13	1697,77
197,35	1701,86
197,57	1746,92
197,79	1753,06
198,01	1681,38
198,23	1710,05
198,45	1753,06
198,67	1703,91
198,89	1697,77
199,11	1765,35
199,33	1615,85
199,55	1585,13
199,77	1673,19
199,99	1789,92
200,21	1705,96
200,43	1638,38
200,65	1705,96
200,87	1591,27
201,09	1794,02
201,31	1658,85
201,53	1722,34
201,75	1765,35
201,97	1724,39
202,19	1691,62
202,41	1720,29
202,63	1785,83
202,85	1681,38
203,07	1681,38
203,29	1603,56
203,51	1644,52
203,73	1744,87
203,95	1771,49
204,17	1607,66
204,39	1697,77
204,61	1724,39
204,83	1667,05
205,05	1730,53
205,27	1757,16
205,49	1826,79
205,71	1626,09
205,93	1667,05
206,15	1607,66
206,37	1597,42
206,59	1636,33
206,81	1654,76
207,03	1632,23
207,25	1591,27
207,47	1779,68
207,69	1626,09
207,91	1765,35
208,13	1849,32
208,34	1689,57
208,56	1648,61
208,78	1705,96
209,00	1724,39
209,22	1718,25
209,44	1595,37
209,66	1648,61
209,88	1671,14
210,10	1648,61
210,32	1656,81
210,54	1853,41
210,76	1646,57
210,98	1718,25
211,20	1589,22
211,42	1716,20
211,64	1705,96
211,86	1724,39
212,08	1660,90
212,30	1701,86
212,52	1652,71
212,74	1759,21
212,96	1708,01
213,17	1746,92
213,39	1763,30
213,61	1679,33
213,83	1703,91
214,05	1652,71
214,27	1785,83
214,49	1638,38
214,71	1662,95
214,93	1861,60
215,15	1687,53
215,37	1785,83
215,59	1697,77
215,81	1753,06
216,03	1824,74
216,24	1617,90
216,46	1689,57
216,68	1630,18
216,90	1701,86
217,12	1695,72
217,34	1687,53
217,56	1755,11
217,78	1757,16
218,00	1751,01
218,22	1736,68
218,44	1710,05
218,66	1701,86
218,87	1875,94
219,09	1681,38
219,31	1736,68
219,53	1734,63
219,75	1710,05
219,97	1679,33
220,19	1673,19
220,41	1703,91
220,63	1726,44
220,85	1683,43
221,06	1671,14
221,28	1806,31
221,50	1767,40
221,72	1677,29
221,94	1710,05
222,16	1673,19
222,38	1667,05
222,60	1781,73
222,82	1705,96
223,03	1783,78
223,25	1591,27
223,47	1730,53
223,69	1816,55
223,91	1787,88
224,13	1697,77
224,35	1671,14
224,57	1730,53
224,78	1724,39
225,00	1638,38
225,22	1636,33
225,44	1753,06
225,66	1722,34
225,88	1656,81
226,10	1794,02
226,32	1699,81
226,53	1789,92
226,75	1652,71
226,97	1712,10
227,19	1722,34
227,41	1689,57
227,63	1724,39
227,85	1662,95
228,06	1796,07
228,28	1705,96
228,50	1779,68
228,72	1607,66
228,94	1624,04
229,16	1667,05
229,37	1601,51
229,59	1671,14
229,81	1728,49
230,03	1650,66
230,25	1609,70
230,47	1585,13
230,69	1597,42
230,90	1748,97
231,12	1693,67
231,34	1693,67
231,56	1787,88
231,78	1646,57
232,00	1730,53
232,21	1718,25
232,43	1636,33
232,65	1556,46
232,87	1665,00
233,09	1607,66
233,30	1624,04
233,52	1730,53
233,74	1730,53
233,96	1693,67
234,18	1748,97
234,40	1671,14
234,61	1886,18
234,83	1560,55
235,05	1671,14
235,27	1861,60
235,49	1785,83
235,70	1722,34
235,92	1712,10
236,14	1771,49
236,36	1855,46
236,58	1611,75
236,79	1763,30
237,01	1697,77
237,23	1679,33
237,45	1763,30
237,67	1648,61
237,88	1726,44
238,10	1916,90
238,32	1662,95
238,54	1757,16
238,76	1746,92
238,97	1578,98
239,19	1757,16
239,41	1742,82
239,63	1791,97
239,85	1748,97
240,06	1648,61
240,28	1714,15
240,50	1746,92
240,72	1716,20
240,93	1710,05
241,15	1779,68
241,37	1722,34
241,59	1703,91
241,81	1716,20
242,02	1683,43
242,24	1738,73
242,46	1669,09
242,68	1685,48
242,89	1724,39
243,11	1837,03
243,33	1681,38
243,55	1693,67
243,76	1775,59
243,98	1703,91
244,20	1714,15
244,42	1730,53
244,64	1712,10
244,85	1708,01
245,07	1636,33
245,29	1687,53
245,51	1658,85
245,72	1771,49
245,94	1751,01
246,16	1718,25
246,38	1738,73
246,59	1681,38
246,81	1628,14
247,03	1621,99
247,24	1589,22
247,46	1730,53
247,68	1714,15
247,90	1572,84
248,11	1636,33
248,33	1779,68
248,55	1681,38
248,77	1781,73
248,98	1759,21
249,20	1806,31
249,42	1665,00
249,64	1789,92
249,85	1763,30
250,07	1710,05
250,29	1705,96
250,50	1796,07
250,72	1611,75
250,94	1683,43
251,16	1798,12
251,37	1738,73
251,59	1759,21
251,81	1673,19
252,02	1791,97
252,24	1728,49
252,46	1783,78
252,68	1597,42
252,89	1652,71
253,11	1550,31
253,33	1722,34
253,54	1773,54
253,76	1578,98
253,98	1699,81
254,20	1734,63
254,41	1656,81
254,63	1699,81
254,85	1689,57
255,06	1716,20
255,28	1751,01
255,50	1660,90
255,71	1658,85
255,93	1654,76
256,15	1697,77
256,36	1683,43
256,58	1646,57
256,80	1687,53
257,02	1671,14
257,23	1640,42
257,45	1736,68
257,67	1646,57
257,88	1683,43
258,10	1740,77
258,32	1634,28
258,53	1726,44
258,75	1794,02
258,97	1714,15
259,18	1800,16
259,40	1714,15
259,62	1740,77
259,83	1746,92
260,05	1746,92
260,27	1976,29
260,48	1818,60
260,70	1603,56
260,92	1673,19
261,13	1726,44
261,35	1722,34
261,57	1755,11
261,78	1558,50
262,00	1701,86
262,22	1732,58
262,43	1597,42
262,65	1660,90
262,86	1644,52
263,08	1759,21
263,30	1714,15
263,51	1626,09
263,73	1593,32
263,95	1759,21
264,16	1687,53
264,38	1665,00
264,60	1720,29
264,81	1724,39
265,03	1775,59
265,25	1755,11
265,46	1675,24
265,68	1804,26
265,89	1683,43
266,11	1552,36
266,33	1687,53
266,54	1834,98
266,76	1724,39
266,98	1703,91
267,19	1724,39
267,41	1740,77
267,62	1644,52
267,84	1642,47
268,06	1689,57
268,27	1736,68
268,49	1722,34
268,70	1726,44
268,92	1677,29
269,14	1662,95
269,35	1615,85
269,57	1744,87
269,79	1767,40
270,00	1673,19
270,22	1767,40
270,43	1632,23
270,65	1621,99
270,87	1781,73
271,08	1742,82
271,30	1759,21
271,51	1742,82
271,73	1779,68
271,95	1724,39
272,16	1718,25
272,38	1714,15
272,59	1712,10
272,81	1699,81
273,02	1705,96
273,24	1736,68
273,46	1748,97
273,67	1599,46
273,89	1591,27
274,10	1656,81
274,32	1748,97
274,54	1681,38
274,75	1693,67
274,97	1736,68
275,18	1685,48
275,40	1675,24
275,61	1728,49
275,83	1755,11
276,05	1662,95
276,26	1689,57
276,48	1693,67
276,69	1718,25
276,91	1642,47
277,12	1658,85
277,34	1828,84
277,55	1734,63
277,77	1695,72
277,99	1673,19
278,20	1699,81
278,42	1710,05
278,63	1718,25
278,85	1648,61
279,06	1669,09
279,28	1748,97
279,49	1720,29
279,71	1673,19
279,93	1708,01
280,14	1701,86
280,36	1710,05
280,57	1765,35
280,79	1724,39
281,00	1716,20
281,22	1665,00
281,43	1779,68
281,65	1628,14
281,86	1636,33
282,08	1648,61
282,29	1777,64
282,51	1550,31
282,73	1669,09
282,94	1673,19
283,16	1744,87
283,37	1869,80
283,59	1640,42
283,80	1695,72
284,02	1746,92
284,23	1710,05
284,45	1621,99
284,66	1597,42
284,88	1738,73
285,09	1736,68
285,31	1771,49
285,52	1720,29
285,74	1658,85
285,95	1724,39
286,17	1763,30
286,38	1771,49
286,60	1683,43
286,81	1648,61
287,03	1679,33
287,24	1689,57
287,46	1675,24
287,67	1683,43
287,89	1841,12
288,10	1642,47
288,32	1689,57
288,53	1773,54
288,75	1742,82
288,96	1740,77
289,18	1654,76
289,39	1689,57
289,61	1726,44
289,82	1871,84
290,04	1791,97
290,25	1613,80
290,47	1697,77
290,68	1665,00
290,90	1689,57
291,11	1626,09
291,33	1734,63
291,54	1642,47
291,76	1705,96
291,97	1714,15
292,18	1779,68
292,40	1677,29
292,61	1681,38
292,83	1773,54
293,04	1734,63
293,26	1748,97
293,47	1705,96
293,69	1669,09
293,90	1751,01
294,12	1771,49
294,33	1617,90
294,55	1679,33
294,76	1708,01
294,97	1857,51
295,19	1853,41
295,40	1708,01
295,62	1734,63
295,83	1724,39
296,05	1644,52
296,26	1751,01
296,48	1621,99
296,69	1667,05
296,90	1742,82
297,12	1787,88
297,33	1767,40
297,55	1714,15
297,76	1761,25
297,98	1724,39
298,19	1710,05
298,41	1705,96
298,62	1636,33
298,83	1837,03
299,05	1769,44
299,26	1683,43
299,48	1611,75
299,69	1728,49
299,90	1675,24
300,12	1638,38
300,33	1703,91
300,55	1665,00
300,76	1681,38
300,98	1667,05
301,19	1812,45
301,40	1675,24
301,62	1640,42
301,83	1714,15
302,05	1716,20
302,26	1673,19
302,47	1734,63
302,69	1599,46
302,90	1714,15
303,12	1599,46
303,33	1644,52
303,54	1806,31
303,76	1624,04
303,97	1673,19
304,19	1763,30
304,40	1705,96
304,61	1691,62
304,83	1757,16
305,04	1722,34
305,26	1755,11
305,47	1662,95
305,68	1665,00
305,90	1677,29
306,11	1753,06
306,33	1691,62
306,54	1738,73
306,75	1677,29
306,97	1611,75
307,18	1650,66
307,39	1648,61
307,61	1746,92
307,82	1703,91
308,04	1791,97
308,25	1673,19
308,46	1757,16
308,68	1716,20
308,89	1738,73
309,10	1761,25
309,32	1671,14
309,53	1734,63
309,74	1669,09
309,96	1660,90
310,17	1708,01
310,39	1640,42
310,60	1732,58
310,81	1673,19
311,03	1640,42
311,24	1683,43
311,45	1593,32
311,67	1783,78
311,88	1673,19
312,09	1644,52
312,31	1724,39
312,52	1755,11
312,73	1681,38
312,95	1593,32
313,16	1746,92
313,37	1785,83
313,59	1744,87
313,80	1751,01
314,01	1734,63
314,23	1677,29
314,44	1665,00
314,65	1687,53
314,87	1705,96
315,08	1726,44
315,29	1705,96
315,51	1677,29
315,72	1718,25
315,93	1855,46
316,15	1765,35
316,36	1630,18
316,57	1671,14
316,79	1746,92
317,00	1701,86
317,21	1701,86
317,43	1679,33
317,64	1742,82
317,85	1650,66
318,07	1673,19
318,28	1726,44
318,49	1824,74
318,70	1945,57
318,92	1847,27
319,13	1775,59
319,34	1867,75
319,56	1769,44
319,77	1748,97
319,98	1791,97
320,20	1769,44
320,41	1781,73
320,62	1724,39
320,83	1687,53
321,05	1814,50
321,26	1667,05
321,47	1689,57
321,69	1728,49
321,90	1585,13
322,11	1687,53
322,32	1744,87
322,54	1689,57
322,75	1708,01
322,96	1794,02
323,18	1630,18
323,39	1603,56
323,60	1660,90
323,81	1794,02
324,03	1636,33
324,24	1705,96
324,45	1689,57
324,66	1732,58
324,88	1742,82
325,09	1808,36
325,30	1685,48
325,52	1718,25
325,73	1730,53
325,94	1705,96
326,15	1705,96
326,37	1587,18
326,58	1744,87
326,79	1767,40
327,00	1650,66
327,22	1650,66
327,43	1675,24
327,64	1648,61
327,85	1763,30
328,07	1699,81
328,28	1816,55
328,49	1626,09
328,70	1714,15
328,92	1710,05
329,13	1650,66
329,34	1697,77
329,55	1732,58
329,76	1746,92
329,98	1718,25
330,19	1804,26
330,40	1742,82
330,61	1732,58
330,83	1728,49
331,04	1685,48
331,25	1759,21
331,46	1689,57
331,68	1621,99
331,89	1822,69
332,10	1753,06
332,31	1646,57
332,52	1667,05
332,74	1779,68
332,95	1646,57
333,16	1693,67
333,37	1705,96
333,58	1687,53
333,80	1785,83
334,01	1611,75
334,22	1673,19
334,43	1640,42
334,64	1683,43
334,86	1636,33
335,07	1681,38
335,28	1742,82
335,49	1628,14
335,70	1763,30
335,92	1724,39
336,13	1812,45
336,34	1783,78
336,55	1705,96
336,76	1617,90
336,98	1671,14
337,19	1642,47
337,40	1742,82
337,61	1757,16
337,82	1722,34
338,04	1781,73
338,25	1597,42
338,46	1656,81
338,67	1589,22
338,88	1656,81
339,09	1687,53
339,31	1714,15
339,52	1656,81
339,73	1720,29
339,94	1718,25
340,15	1716,20
340,36	1617,90
340,58	1746,92
340,79	1675,24
341,00	1746,92
341,21	1648,61
341,42	1810,40
341,63	1634,28
341,85	1701,86
342,06	1763,30
342,27	1679,33
342,48	1759,21
342,69	1574,89
342,90	1728,49
343,12	1773,54
343,33	1716,20
343,54	1771,49
343,75	1738,73
343,96	1687,53
344,17	1660,90
344,38	1724,39
344,60	1630,18
344,81	1615,85
345,02	1675,24
345,23	1771,49
345,44	1718,25
345,65	1736,68
345,86	1658,85
346,07	1710,05
346,29	1628,14
346,50	1705,96
346,71	1751,01
346,92	1779,68
347,13	1798,12
347,34	1671,14
347,55	1673,19
347,76	1703,91
347,98	1644,52
348,19	1673,19
348,40	1724,39
348,61	1621,99
348,82	1783,78
349,03	1705,96
349,24	1662,95
349,45	1781,73
349,66	1607,66
349,88	1632,23
350,09	1724,39
350,30	1740,77
350,51	1693,67
350,72	1685,48
350,93	1724,39
351,14	1712,10
351,35	1753,06
351,56	1701,86
351,77	1701,86
351,99	1736,68
352,20	1751,01
352,41	1757,16
352,62	1607,66
352,83	1718,25
353,04	1722,34
353,25	1730,53
353,46	1681,38
353,67	1722,34
353,88	1611,75
354,09	1759,21
354,30	1675,24
354,52	1701,86
354,73	1730,53
354,94	1656,81
355,15	1701,86
355,36	1837,03
355,57	1681,38
355,78	1748,97
355,99	1667,05
356,20	1710,05
356,41	1746,92
356,62	1753,06
356,83	1632,23
357,04	1728,49
357,25	1665,00
357,46	1660,90
357,68	1640,42
357,89	1732,58
358,10	1632,23
358,31	1730,53
358,52	1748,97
358,73	1560,55
358,94	1646,57
359,15	1705,96
359,36	1716,20
359,57	1714,15
359,78	1652,71
359,99	1720,29
360,20	1714,15
360,41	1656,81
360,62	1763,30
360,83	1722,34
361,04	1734,63
361,25	1724,39
361,46	1839,08
361,67	1689,57
361,88	1714,15
362,09	1671,14
362,30	1699,81
362,51	1656,81
362,72	1730,53
362,93	1824,74
363,14	1728,49
363,35	1673,19
363,56	1658,85
363,78	1800,16
363,99	1730,53
364,20	1708,01
364,41	1660,90
364,62	1816,55
364,83	1681,38
365,04	1677,29
365,25	1687,53
365,46	1701,86
365,67	1624,04
365,88	1648,61
366,09	1718,25
366,30	1665,00
366,51	1640,42
366,72	1576,94
366,93	1710,05
367,14	1679,33
367,35	1789,92
367,56	1687,53
367,77	1697,77
367,98	1677,29
368,18	1675,24
368,39	1751,01
368,60	1642,47
368,81	1746,92
369,02	1736,68
369,23	1685,48
369,44	1632,23
369,65	1683,43
369,86	1648,61
370,07	1789,92
370,28	1675,24
370,49	1730,53
370,70	1746,92
370,91	1648,61
371,12	1685,48
371,33	1695,72
371,54	1619,94
371,75	1775,59
371,96	1607,66
372,17	1689,57
372,38	1681,38
372,59	1740,77
372,80	1722,34
373,01	1691,62
373,22	1697,77
373,43	1587,18
373,64	1699,81
373,85	1746,92
374,06	1777,64
374,26	1726,44
374,47	1695,72
374,68	1822,69
374,89	1630,18
375,10	1689,57
375,31	1757,16
375,52	1691,62
375,73	1732,58
375,94	1687,53
376,15	1773,54
376,36	1722,34
376,57	1767,40
376,78	1656,81
376,99	1714,15
377,20	1800,16
377,40	1787,88
377,61	1828,84
377,82	1597,42
378,03	1796,07
378,24	1763,30
378,45	1724,39
378,66	1685,48
378,87	1656,81
379,08	1587,18
379,29	1730,53
379,50	1742,82
379,71	1710,05
379,91	1761,25
380,12	1675,24
380,33	1755,11
380,54	1687,53
380,75	1691,62
380,96	1681,38
381,17	1789,92
381,38	1742,82
381,59	1763,30
381,80	1722,34
382,00	1877,99
382,21	1773,54
382,42	1785,83
382,63	1732,58
382,84	1798,12
383,05	1765,35
383,26	1869,80
383,47	1669,09
383,68	1775,59
383,88	1705,96
384,09	1691,62
384,30	1828,84
384,51	1765,35
384,72	1650,66
384,93	1591,27
385,14	1757,16
385,35	1861,60
385,55	1650,66
385,76	1755,11
385,97	1726,44
386,18	1595,37
386,39	1677,29
386,60	1693,67
386,81	1755,11
387,02	1708,01
387,22	1646,57
387,43	1777,64
387,64	1816,55
387,85	1888,23
388,06	2156,51
388,27	4270,01
388,48	6805,40
388,68	8191,88
388,89	9666,41
389,10	9789,29
389,31	8671,10
389,52	7557,00
389,73	6776,73
389,93	6432,67
390,14	5842,85
390,35	5205,94
390,56	4499,39
390,77	3712,97
390,98	3137,49
391,18	2504,67
391,39	2166,75
391,60	1800,16
391,81	1824,74
392,02	1687,53
392,23	1898,47
392,43	1779,68
392,64	1818,60
392,85	1673,19
393,06	1763,30
393,27	1732,58
393,47	1660,90
393,68	1689,57
393,89	1691,62
394,10	1722,34
394,31	1742,82
394,52	1675,24
394,72	1673,19
394,93	1732,58
395,14	1642,47
395,35	1751,01
395,56	1605,61
395,76	1667,05
395,97	1748,97
396,18	1828,84
396,39	1863,65
396,60	2000,87
396,80	1877,99
397,01	1789,92
397,22	1781,73
397,43	1853,41
397,64	1714,15
397,84	1816,55
398,05	1779,68
398,26	1816,55
398,47	1722,34
398,67	1773,54
398,88	1718,25
399,09	1740,77
399,30	1722,34
399,51	1736,68
399,71	1644,52
399,92	1638,38
400,13	1724,39
400,34	1687,53
400,54	1671,14
400,75	1832,93
400,96	1734,63
401,17	1783,78
401,37	1732,58
401,58	1736,68
401,79	1736,68
402,00	1857,51
402,21	2035,68
402,41	1914,85
402,62	1970,15
402,83	1984,48
403,04	2000,87
403,24	2076,64
403,45	1886,18
403,66	1955,81
403,87	1877,99
404,07	1943,52
404,28	1931,23
404,49	1853,41
404,70	1820,64
404,90	1705,96
405,11	1785,83
405,32	1738,73
405,52	1689,57
405,73	1685,48
405,94	1685,48
406,15	1703,91
406,35	1740,77
406,56	1757,16
406,77	1716,20
406,98	1783,78
407,18	1736,68
407,39	1769,44
407,60	1798,12
407,80	1767,40
408,01	1644,52
408,22	1687,53
408,43	1660,90
408,63	1691,62
408,84	1769,44
409,05	1773,54
409,25	1718,25
409,46	1644,52
409,67	1695,72
409,88	1669,09
410,08	1738,73
410,29	1701,86
410,50	1642,47
410,70	1724,39
410,91	1697,77
411,12	1746,92
411,32	1679,33
411,53	1595,37
411,74	1785,83
411,95	1712,10
412,15	1748,97
412,36	1740,77
412,57	1736,68
412,77	1767,40
412,98	1777,64
413,19	1732,58
413,39	1798,12
413,60	1767,40
413,81	1761,25
414,01	1619,94
414,22	1722,34
414,43	1759,21
414,63	1751,01
414,84	1722,34
415,05	1701,86
415,25	1699,81
415,46	1742,82
415,67	1705,96
415,87	1734,63
416,08	1740,77
416,29	1648,61
416,49	1689,57
416,70	1689,57
416,91	1712,10
417,11	1640,42
417,32	1808,36
417,53	1763,30
417,73	1695,72
417,94	1767,40
418,15	1751,01
418,35	1683,43
418,56	1718,25
418,77	1812,45
418,97	1722,34
419,18	1765,35
419,38	1533,93
419,59	1732,58
419,80	1808,36
420,00	1703,91
420,21	1746,92
420,42	1761,25
420,62	1679,33
420,83	1708,01
421,04	1697,77
421,24	1630,18
421,45	1720,29
421,65	1742,82
421,86	1705,96
422,07	1716,20
422,27	1744,87
422,48	1703,91
422,69	1615,85
422,89	1685,48
423,10	1675,24
423,30	1562,60
423,51	1695,72
423,72	1679,33
423,92	1714,15
424,13	1687,53
424,33	1669,09
424,54	1738,73
424,75	1724,39
424,95	1796,07
425,16	1769,44
425,36	1650,66
425,57	1742,82
425,78	1781,73
425,98	1763,30
426,19	1708,01
426,39	1640,42
426,60	1658,85
426,81	1810,40
427,01	1679,33
427,22	1628,14
427,42	1665,00
427,63	1615,85
427,83	1761,25
428,04	1898,47
428,25	1773,54
428,45	1783,78
428,66	1765,35
428,86	1630,18
429,07	1716,20
429,28	1724,39
429,48	1740,77
429,69	1718,25
429,89	1621,99
430,10	1673,19
430,30	1804,26
430,51	1738,73
430,71	1630,18
430,92	1650,66
431,13	1660,90
431,33	1683,43
431,54	1699,81
431,74	1781,73
431,95	1851,36
432,15	1710,05
432,36	1632,23
432,56	1732,58
432,77	1830,88
432,98	1796,07
433,18	1761,25
433,39	1660,90
433,59	1681,38
433,80	1839,08
434,00	1839,08
434,21	1763,30
434,41	1638,38
434,62	1849,32
434,82	1648,61
435,03	1650,66
435,23	1789,92
435,44	1636,33
435,64	1757,16
435,85	1703,91
436,06	1798,12
436,26	1740,77
436,47	1724,39
436,67	1667,05
436,88	1650,66
437,08	1708,01
437,29	1810,40
437,49	1695,72
437,70	1765,35
437,90	1695,72
438,11	1853,41
438,31	1730,53
438,52	1818,60
438,72	1810,40
438,93	1955,81
439,13	1728,49
439,34	1771,49
439,54	1695,72
439,75	1757,16
439,95	1744,87
440,16	1728,49
440,36	1722,34
440,57	1763,30
440,77	1724,39
440,98	1763,30
441,18	1755,11
441,39	1583,08
441,59	1693,67
441,80	1824,74
442,00	1748,97
442,21	1740,77
442,41	1628,14
442,62	1738,73
442,82	1738,73
443,02	1781,73
443,23	1777,64
443,43	1671,14
443,64	1869,80
443,84	1753,06
444,05	1755,11
444,25	1722,34
444,46	1761,25
444,66	1710,05
444,87	1845,22
445,07	1669,09
445,28	1732,58
445,48	1775,59
445,69	1730,53
445,89	1855,46
446,09	1798,12
446,30	2023,39
446,50	2582,49
446,71	3745,73
446,91	4294,59
447,12	4757,43
447,32	4810,68
447,53	4376,51
447,73	3848,13
447,93	3489,74
448,14	3370,96
448,34	3166,16
448,55	2901,97
448,75	2807,77
448,96	2727,89
449,16	2418,65
449,36	2183,13
449,57	2129,89
449,77	1812,45
449,98	1839,08
450,18	1882,08
450,39	1849,32
450,59	1761,25
450,79	1693,67
451,00	1699,81
451,20	1783,78
451,41	1718,25
451,61	1726,44
451,81	1757,16
452,02	1746,92
452,22	1738,73
452,43	1697,77
452,63	1720,29
452,84	1660,90
453,04	1722,34
453,24	1812,45
453,45	1744,87
453,65	1705,96
453,86	1744,87
454,06	1816,55
454,26	1789,92
454,47	1716,20
454,67	1802,21
454,87	1781,73
455,08	1679,33
455,28	1869,80
455,49	1744,87
455,69	1691,62
455,89	1816,55
456,10	1787,88
456,30	1837,03
456,51	1800,16
456,71	1697,77
456,91	1783,78
457,12	1804,26
457,32	1814,50
457,52	1714,15
457,73	1816,55
457,93	1722,34
458,14	1660,90
458,34	1691,62
458,54	1689,57
458,75	1705,96
458,95	1714,15
459,15	1820,64
459,36	1763,30
459,56	1796,07
459,76	1869,80
459,97	1699,81
460,17	1681,38
460,37	1748,97
460,58	1746,92
460,78	1791,97
460,99	1734,63
461,19	1683,43
461,39	1748,97
461,60	1720,29
461,80	1810,40
462,00	1660,90
462,21	1677,29
462,41	1738,73
462,61	1636,33
462,82	1634,28
463,02	1804,26
463,22	1726,44
463,43	1832,93
463,63	1773,54
463,83	1828,84
464,04	1701,86
464,24	1703,91
464,44	1630,18
464,64	1689,57
464,85	1738,73
465,05	1855,46
465,25	1710,05
465,46	1699,81
465,66	1822,69
465,86	1802,21
466,07	1689,57
466,27	1703,91
466,47	1636,33
466,68	1693,67
466,88	1816,55
467,08	1796,07
467,29	1740,77
467,49	1806,31
467,69	1693,67
467,89	1652,71
468,10	1753,06
468,30	1734,63
468,50	1839,08
468,71	1779,68
468,91	1630,18
469,11	1886,18
469,31	1783,78
469,52	1656,81
469,72	1779,68
469,92	1857,51
470,13	1685,48
470,33	1787,88
470,53	1814,50
470,73	2117,60
470,94	2281,44
471,14	2316,25
471,34	2478,04
471,54	2437,08
471,75	2168,80
471,95	2105,31
472,15	2068,45
472,36	2107,36
472,56	2099,17
472,76	2029,54
472,96	2021,35
473,17	2045,92
473,37	1972,19
473,57	1734,63
473,77	1851,36
473,98	1751,01
474,18	1689,57
474,38	1837,03
474,58	1683,43
474,79	1679,33
474,99	1722,34
475,19	1779,68
475,39	1636,33
475,60	1722,34
475,80	1683,43
476,00	1746,92
476,20	1679,33
476,41	1716,20
476,61	1828,84
476,81	1771,49
477,01	1624,04
477,21	1826,79
477,42	1800,16
477,62	1603,56
477,82	1796,07
478,02	1648,61
478,23	1755,11
478,43	1687,53
478,63	1695,72
478,83	1734,63
479,03	1740,77
479,24	1789,92
479,44	1839,08
479,64	1685,48
479,84	1601,51
480,04	1710,05
480,25	1775,59
480,45	1742,82
480,65	1728,49
480,85	1767,40
481,06	1751,01
481,26	1714,15
481,46	1728,49
481,66	1718,25
481,86	1603,56
482,06	1783,78
482,27	1753,06
482,47	1673,19
482,67	1740,77
482,87	1679,33
483,07	1710,05
483,28	1658,85
483,48	1613,80
483,68	1685,48
483,88	1712,10
484,08	1556,46
484,29	1689,57
484,49	1730,53
484,69	1697,77
484,89	1804,26
485,09	1783,78
485,29	1783,78
485,50	1757,16
485,70	1652,71
485,90	1730,53
486,10	1681,38
486,30	1697,77
486,50	1730,53
486,71	1736,68
486,91	1767,40
487,11	1757,16
487,31	1718,25
487,51	1724,39
487,71	1673,19
487,91	1585,13
488,12	1646,57
488,32	1621,99
488,52	1662,95
488,72	1613,80
488,92	1646,57
489,12	1791,97
489,32	1757,16
489,53	1796,07
489,73	1587,18
489,93	1828,84
490,13	1691,62
490,33	1640,42
490,53	1734,63
490,73	1806,31
490,94	1554,41
491,14	1761,25
491,34	1796,07
491,54	2107,36
491,74	2549,72
491,94	2842,58
492,14	3000,27
492,34	2832,34
492,54	2787,29
492,75	2492,38
492,95	2490,33
493,15	2330,59
493,35	2232,29
493,55	2181,09
493,75	2082,78
493,95	2156,51
494,15	1951,71
494,35	1912,80
494,56	1845,22
494,76	1828,84
494,96	1775,59
495,16	1746,92
495,36	1726,44
495,56	1691,62
495,76	1753,06
495,96	1660,90
496,16	1685,48
496,36	1789,92
496,56	1652,71
496,77	1703,91
496,97	1761,25
497,17	1873,89
497,37	1667,05
497,57	1705,96
497,77	1677,29
497,97	1681,38
498,17	1705,96
498,37	1712,10
498,57	1820,64
498,77	1599,46
498,97	1748,97
499,17	1863,65
499,38	1728,49
499,58	1738,73
499,78	1767,40
499,98	1748,97
500,18	1628,14
500,38	1748,97
500,58	1931,23
500,78	2531,29
500,98	4634,55
501,18	5767,08
501,38	6672,28
501,58	7032,72
501,78	6512,54
501,98	5494,70
502,18	4902,84
502,38	4403,13
502,58	4100,03
502,78	3723,21
502,98	3755,97
503,18	3471,31
503,38	3284,94
503,59	2797,53
503,79	2682,84
503,99	2418,65
504,19	2281,44
504,39	2168,80
504,59	2152,42
504,79	2152,42
504,99	2062,30
505,19	1968,10
505,39	1888,23
505,59	1947,62
505,79	1918,95
505,99	1884,13
506,19	1841,12
506,39	1828,84
506,59	1740,77
506,79	1720,29
506,99	1822,69
507,19	1708,01
507,39	1744,87
507,59	1679,33
507,79	1708,01
507,99	1681,38
508,19	1656,81
508,39	1695,72
508,59	1722,34
508,79	1820,64
508,99	1826,79
509,19	1665,00
509,39	1722,34
509,59	1777,64
509,79	1677,29
509,99	1800,16
510,19	1802,21
510,39	1734,63
510,59	1730,53
510,79	1714,15
510,99	1613,80
511,19	1714,15
511,39	1712,10
511,59	1810,40
511,79	1810,40
511,99	1765,35
512,19	1853,41
512,38	1837,03
512,58	1648,61
512,78	1744,87
512,98	1789,92
513,18	1773,54
513,38	1619,94
513,58	1824,74
513,78	1734,63
513,98	1800,16
514,18	1712,10
514,38	1689,57
514,58	1859,56
514,78	1681,38
514,98	1679,33
515,18	1716,20
515,38	1685,48
515,58	1845,22
515,78	1703,91
515,98	1822,69
516,18	1767,40
516,38	1718,25
516,57	1738,73
516,77	1681,38
516,97	1742,82
517,17	1632,23
517,37	1691,62
517,57	1689,57
517,77	1712,10
517,97	1716,20
518,17	1705,96
518,37	1775,59
518,57	1759,21
518,77	1699,81
518,97	1710,05
519,16	1755,11
519,36	1748,97
519,56	1648,61
519,76	1738,73
519,96	1726,44
520,16	1796,07
520,36	1667,05
520,56	1779,68
520,76	1634,28
520,96	1640,42
521,16	1726,44
521,35	1779,68
521,55	1820,64
521,75	1796,07
521,95	1669,09
522,15	1652,71
522,35	1642,47
522,55	1712,10
522,75	1839,08
522,95	1646,57
523,14	1654,76
523,34	1724,39
523,54	1759,21
523,74	1871,84
523,94	1697,77
524,14	1656,81
524,34	1710,05
524,54	1834,98
524,73	1742,82
524,93	1796,07
525,13	1738,73
525,33	1603,56
525,53	1882,08
525,73	1783,78
525,93	1689,57
526,13	1652,71
526,32	1722,34
526,52	1714,15
526,72	1779,68
526,92	1720,29
527,12	1791,97
527,32	1656,81
527,52	1751,01
527,71	1757,16
527,91	1771,49
528,11	1728,49
528,31	1732,58
528,51	1683,43
528,71	1781,73
528,90	1822,69
529,10	1779,68
529,30	1834,98
529,50	1660,90
529,70	1773,54
529,90	1796,07
530,09	1802,21
530,29	1568,74
530,49	1685,48
530,69	1873,89
530,89	1691,62
531,09	1808,36
531,28	1736,68
531,48	1814,50
531,68	1830,88
531,88	1726,44
532,08	1765,35
532,28	1687,53
532,47	1804,26
532,67	1810,40
532,87	1761,25
533,07	1667,05
533,27	1767,40
533,46	1755,11
533,66	1748,97
533,86	1699,81
534,06	1705,96
534,26	1656,81
534,45	1708,01
534,65	1779,68
534,85	1724,39
535,05	1677,29
535,25	1791,97
535,44	1611,75
535,64	1734,63
535,84	1683,43
536,04	1777,64
536,24	1722,34
536,43	1681,38
536,63	1773,54
536,83	1712,10
537,03	1746,92
537,22	1652,71
537,42	1693,67
537,62	1724,39
537,82	1656,81
538,02	1884,13
538,21	1759,21
538,41	1877,99
538,61	1787,88
538,81	1726,44
539,00	1818,60
539,20	1609,70
539,40	1734,63
539,60	1773,54
539,79	1820,64
539,99	1761,25
540,19	1703,91
540,39	1695,72
540,58	1757,16
540,78	1783,78
540,98	1712,10
541,18	1789,92
541,37	1759,21
541,57	1736,68
541,77	1787,88
541,97	1732,58
542,16	1671,14
542,36	1703,91
542,56	1646,57
542,76	1906,66
542,95	1771,49
543,15	1761,25
543,35	1800,16
543,54	1724,39
543,74	1685,48
543,94	1857,51
544,14	1720,29
544,33	1820,64
544,53	1677,29
544,73	1761,25
544,93	1708,01
545,12	1718,25
545,32	1716,20
545,52	1759,21
545,71	1691,62
545,91	1761,25
546,11	1658,85
546,30	1675,24
546,50	1757,16
546,70	1742,82
546,90	1738,73
547,09	1644,52
547,29	1732,58
547,49	1781,73
547,68	1677,29
547,88	1681,38
548,08	1746,92
548,27	2230,24
548,47	1640,42
548,67	1693,67
548,87	1748,97
549,06	1759,21
549,26	1642,47
549,46	1736,68
549,65	1640,42
549,85	1732,58
550,05	1785,83
550,24	1791,97
550,44	1673,19
550,64	1714,15
550,83	1744,87
551,03	1802,21
551,23	1816,55
551,42	1746,92
551,62	1726,44
551,82	1812,45
552,01	1689,57
552,21	1822,69
552,41	1746,92
552,60	1806,31
552,80	1746,92
553,00	1703,91
553,19	1722,34
553,39	1902,56
553,59	1689,57
553,78	1685,48
553,98	1705,96
554,17	1746,92
554,37	1730,53
554,57	1728,49
554,76	1685,48
554,96	1712,10
555,16	1759,21
555,35	1681,38
555,55	1722,34
555,75	1787,88
555,94	1722,34
556,14	1587,18
556,33	1796,07
556,53	1697,77
556,73	1689,57
556,92	1730,53
557,12	1781,73
557,32	1877,99
557,51	1849,32
557,71	1718,25
557,90	1832,93
558,10	1781,73
558,30	1740,77
558,49	1705,96
558,69	1763,30
558,88	1712,10
559,08	1714,15
559,28	1767,40
559,47	1712,10
559,67	1759,21
559,86	1791,97
560,06	1789,92
560,26	1761,25
560,45	1800,16
560,65	1779,68
560,84	1785,83
561,04	1757,16
561,24	1755,11
561,43	1775,59
561,63	1816,55
561,82	1722,34
562,02	1724,39
562,22	1691,62
562,41	1619,94
562,61	1771,49
562,80	1689,57
563,00	1886,18
563,19	1748,97
563,39	1779,68
563,59	1794,02
563,78	1673,19
563,98	1636,33
564,17	1699,81
564,37	1703,91
564,56	1722,34
564,76	1683,43
564,96	1748,97
565,15	1748,97
565,35	1904,61
565,54	1705,96
565,74	1748,97
565,93	1718,25
566,13	1744,87
566,32	1824,74
566,52	1834,98
566,71	1718,25
566,91	1689,57
567,11	1757,16
567,30	1699,81
567,50	1781,73
567,69	1742,82
567,89	1738,73
568,08	1689,57
568,28	1728,49
568,47	1667,05
568,67	1753,06
568,86	1681,38
569,06	1816,55
569,25	1665,00
569,45	1675,24
569,64	1683,43
569,84	1720,29
570,04	1679,33
570,23	1730,53
570,43	1648,61
570,62	1771,49
570,82	1832,93
571,01	1675,24
571,21	1718,25
571,40	1767,40
571,60	1824,74
571,79	1785,83
571,99	1802,21
572,18	1654,76
572,38	1761,25
572,57	1724,39
572,77	1820,64
572,96	1814,50
573,16	1759,21
573,35	1624,04
573,55	1802,21
573,74	1787,88
573,94	1771,49
574,13	1722,34
574,33	1812,45
574,52	1767,40
574,71	1714,15
574,91	1748,97
575,10	1722,34
575,30	1730,53
575,49	1665,00
575,69	1701,86
575,88	1705,96
576,08	1791,97
576,27	1806,31
576,47	1751,01
576,66	1849,32
576,86	1773,54
577,05	1708,01
577,25	1800,16
577,44	1859,56
577,64	1732,58
577,83	1806,31
578,02	1677,29
578,22	1843,17
578,41	1796,07
578,61	1644,52
578,80	1587,18
579,00	1755,11
579,19	1791,97
579,39	1851,36
579,58	1832,93
579,77	1769,44
579,97	1841,12
580,16	1832,93
580,36	1814,50
580,55	1765,35
580,75	1777,64
580,94	1720,29
581,13	1769,44
581,33	1849,32
581,52	1677,29
581,72	1937,38
581,91	1806,31
582,11	1726,44
582,30	1779,68
582,49	1806,31
582,69	1875,94
582,88	1777,64
583,08	1728,49
583,27	1769,44
583,47	1789,92
583,66	1724,39
583,85	1740,77
584,05	1712,10
584,24	1779,68
584,44	1855,46
584,63	1775,59
584,82	1843,17
585,02	1822,69
585,21	1832,93
585,41	1773,54
585,60	1787,88
585,79	1923,04
585,99	1933,28
586,18	1877,99
586,37	2168,80
586,57	3446,73
586,76	9844,59
586,96	24862,34
587,15	34751,98
587,34	40635,80
587,54	42134,91
587,73	36834,77
587,93	26195,57
588,12	21491,38
588,31	18489,06
588,51	16477,96
588,70	15548,18
588,89	14188,33
589,09	12773,18
589,28	11214,68
589,47	9621,36
589,67	8071,04
589,86	6381,47
590,06	4954,04
590,25	3866,56
590,44	3086,29
590,64	2648,02
590,83	2320,35
591,02	2072,54
591,22	2052,06
591,41	1869,80
591,60	1847,27
591,80	1925,09
591,99	1794,02
592,18	1759,21
592,38	1845,22
592,57	1732,58
592,76	1736,68
592,96	1781,73
593,15	1738,73
593,34	1845,22
593,54	1722,34
593,73	1800,16
593,92	1767,40
594,12	1777,64
594,31	1742,82
594,50	1851,36
594,70	1748,97
594,89	1853,41
595,08	1710,05
595,28	1744,87
595,47	1808,36
595,66	1841,12
595,86	1732,58
596,05	1708,01
596,24	1654,76
596,43	1832,93
596,63	1853,41
596,82	1746,92
597,01	1773,54
597,21	1755,11
597,40	1720,29
597,59	1787,88
597,79	1800,16
597,98	1728,49
598,17	1800,16
598,36	1734,63
598,56	1802,21
598,75	1716,20
598,94	1689,57
599,14	1789,92
599,33	1660,90
599,52	1845,22
599,71	1820,64
599,91	1755,11
600,10	1742,82
600,29	1712,10
600,48	1824,74
600,68	1695,72
600,87	1785,83
601,06	1720,29
601,26	1667,05
601,45	1830,88
601,64	1728,49
601,83	1851,36
602,03	1761,25
602,22	1628,14
602,41	1791,97
602,60	1791,97
602,80	1744,87
602,99	1730,53
603,18	1689,57
603,37	1712,10
603,57	1708,01
603,76	1775,59
603,95	1773,54
604,14	1757,16
604,34	1689,57
604,53	1728,49
604,72	1710,05
604,91	1843,17
605,10	1775,59
605,30	1716,20
605,49	1814,50
605,68	1734,63
605,87	1761,25
606,07	1693,67
606,26	1722,34
606,45	1794,02
606,64	1806,31
606,84	1726,44
607,03	1724,39
607,22	1787,88
607,41	1652,71
607,60	1636,33
607,80	1761,25
607,99	1771,49
608,18	1775,59
608,37	1779,68
608,56	1679,33
608,76	1804,26
608,95	1814,50
609,14	1705,96
609,33	1722,34
609,52	1804,26
609,72	1742,82
609,91	1789,92
610,10	1681,38
610,29	1806,31
610,48	1779,68
610,68	1781,73
610,87	1695,72
611,06	1789,92
611,25	1695,72
611,44	1796,07
611,63	1681,38
611,83	1748,97
612,02	1710,05
612,21	1830,88
612,40	1632,23
612,59	1669,09
612,79	1740,77
612,98	1783,78
613,17	1804,26
613,36	1697,77
613,55	1808,36
613,74	1589,22
613,93	1712,10
614,13	1646,57
614,32	1628,14
614,51	1703,91
614,70	1669,09
614,89	1730,53
615,08	1765,35
615,28	2058,21
615,47	1626,09
615,66	1728,49
615,85	1640,42
616,04	1816,55
616,23	1689,57
616,42	1703,91
616,62	1654,76
616,81	1781,73
617,00	1679,33
617,19	1660,90
617,38	1646,57
617,57	1740,77
617,76	1746,92
617,95	1738,73
618,15	1746,92
618,34	1894,37
618,53	1615,85
618,72	1714,15
618,91	1830,88
619,10	1794,02
619,29	1665,00
619,48	1798,12
619,68	1712,10
619,87	1738,73
620,06	1574,89
620,25	1740,77
620,44	1660,90
620,63	1662,95
620,82	1744,87
621,01	1787,88
621,20	1722,34
621,39	1761,25
621,59	1701,86
621,78	1695,72
621,97	1697,77
622,16	1777,64
622,35	1726,44
622,54	1685,48
622,73	1740,77
622,92	1636,33
623,11	1781,73
623,30	1685,48
623,49	1775,59
623,68	1734,63
623,88	1738,73
624,07	1650,66
624,26	1755,11
624,45	1697,77
624,64	1677,29
624,83	1703,91
625,02	1730,53
625,21	1804,26
625,40	1691,62
625,59	1654,76
625,78	1697,77
625,97	1828,84
626,16	1798,12
626,35	1755,11
626,54	1742,82
626,74	1759,21
626,93	1677,29
627,12	1665,00
627,31	1755,11
627,50	1787,88
627,69	1746,92
627,88	1683,43
628,07	1740,77
628,26	1613,80
628,45	1689,57
628,64	1679,33
628,83	1703,91
629,02	1689,57
629,21	1763,30
629,40	1697,77
629,59	1658,85
629,78	1675,24
629,97	1677,29
630,16	1693,67
630,35	1669,09
630,54	1699,81
630,73	1701,86
630,92	1722,34
631,11	1681,38
631,30	1697,77
631,49	1710,05
631,68	1673,19
631,87	1693,67
632,06	1662,95
632,25	1861,60
632,44	1716,20
632,63	1759,21
632,82	1665,00
633,01	1646,57
633,20	1697,77
633,39	1779,68
633,58	1712,10
633,77	1710,05
633,96	1699,81
634,15	1683,43
634,34	1798,12
634,53	1734,63
634,72	1751,01
634,91	1621,99
635,10	1699,81
635,29	1773,54
635,48	1726,44
635,67	1687,53
635,86	1701,86
636,05	1871,84
636,24	1677,29
636,43	1755,11
636,62	1673,19
636,81	1544,17
637,00	1744,87
637,19	1730,53
637,38	1722,34
637,57	1652,71
637,76	1642,47
637,95	1746,92
638,14	1685,48
638,33	1720,29
638,52	1675,24
638,71	1732,58
638,89	1685,48
639,08	1818,60
639,27	1751,01
639,46	1718,25
639,65	1800,16
639,84	1718,25
640,03	1802,21
640,22	1748,97
640,41	1839,08
640,60	1724,39
640,79	1767,40
640,98	1771,49
641,17	1753,06
641,36	1802,21
641,55	1683,43
641,74	1636,33
641,92	1619,94
642,11	1630,18
642,30	1730,53
642,49	1638,38
642,68	1665,00
642,87	1652,71
643,06	1730,53
643,25	1687,53
643,44	1642,47
643,63	1710,05
643,82	1716,20
644,00	1662,95
644,19	1683,43
644,38	1693,67
644,57	1710,05
644,76	1734,63
644,95	1689,57
645,14	1744,87
645,33	1697,77
645,52	1763,30
645,71	1693,67
645,89	1701,86
646,08	1773,54
646,27	1673,19
646,46	1789,92
646,65	1687,53
646,84	1798,12
647,03	1705,96
647,22	1748,97
647,40	1761,25
647,59	1718,25
647,78	1591,27
647,97	1726,44
648,16	1642,47
648,35	1746,92
648,54	1757,16
648,73	1644,52
648,91	1798,12
649,10	1695,72
649,29	1730,53
649,48	1722,34
649,67	1798,12
649,86	1685,48
650,05	1671,14
650,23	1789,92
650,42	1636,33
650,61	1724,39
650,80	1765,35
650,99	1834,98
651,18	1767,40
651,36	1818,60
651,55	1710,05
651,74	1681,38
651,93	1660,90
652,12	1710,05
652,31	1701,86
652,49	1685,48
652,68	1767,40
652,87	1781,73
653,06	1687,53
653,25	1896,42
653,44	1683,43
653,62	1814,50
653,81	1685,48
654,00	1718,25
654,19	1718,25
654,38	1812,45
654,56	1746,92
654,75	1648,61
654,94	1705,96
655,13	1742,82
655,32	1808,36
655,51	1796,07
655,69	1621,99
655,88	1687,53
656,07	1636,33
656,26	1804,26
656,45	1636,33
656,63	1675,24
656,82	1759,21
657,01	1757,16
657,20	1751,01
657,38	1726,44
657,57	1597,42
657,76	1607,66
657,95	1730,53
658,14	1679,33
658,32	1714,15
658,51	1662,95
658,70	1718,25
658,89	1710,05
659,08	1669,09
659,26	1839,08
659,45	1611,75
659,64	1685,48
659,83	1654,76
660,01	1947,62
660,20	1724,39
660,39	1853,41
660,58	1593,32
660,76	1796,07
660,95	1693,67
661,14	1765,35
661,33	1624,04
661,51	1703,91
661,70	1691,62
661,89	1767,40
662,08	1718,25
662,26	1650,66
662,45	1708,01
662,64	1865,70
662,83	1716,20
663,01	1691,62
663,20	1728,49
663,39	1812,45
663,58	1691,62
663,76	1662,95
663,95	1746,92
664,14	1615,85
664,32	1712,10
664,51	1615,85
664,70	1699,81
664,89	1736,68
665,07	1624,04
665,26	1683,43
665,45	1656,81
665,64	1763,30
665,82	1681,38
666,01	1714,15
666,20	1734,63
666,38	1818,60
666,57	1722,34
666,76	2140,13
666,95	4552,63
667,13	10409,83
667,32	15273,75
667,51	17938,16
667,69	18880,22
667,88	17520,37
668,07	12394,31
668,25	9664,36
668,44	7933,83
668,63	7366,54
668,81	6809,50
669,00	6412,19
669,19	5638,06
669,38	5089,20
669,56	4485,05
669,75	4069,31
669,94	3397,58
670,12	2979,79
670,31	2578,39
670,50	2258,91
670,68	2080,74
670,87	1869,80
671,06	1771,49
671,24	1867,75
671,43	1812,45
671,62	1683,43
671,80	1734,63
671,99	1714,15
672,18	1738,73
672,36	1736,68
672,55	1712,10
672,74	1724,39
672,92	1687,53
673,11	1796,07
673,29	1683,43
673,48	1669,09
673,67	1689,57
673,85	1712,10
674,04	1648,61
674,23	1742,82
674,41	1800,16
674,60	1611,75
674,79	1652,71
674,97	1656,81
675,16	1716,20
675,34	1667,05
675,53	1689,57
675,72	1763,30
675,90	1800,16
676,09	1759,21
676,28	1708,01
676,46	1748,97
676,65	1777,64
676,83	1697,77
677,02	1667,05
677,21	1748,97
677,39	1691,62
677,58	1658,85
677,77	1634,28
677,95	1689,57
678,14	1759,21
678,32	1669,09
678,51	1658,85
678,70	1804,26
678,88	1699,81
679,07	1634,28
679,25	1748,97
679,44	1705,96
679,63	1673,19
679,81	1746,92
680,00	1818,60
680,18	1667,05
680,37	1746,92
680,55	1734,63
680,74	1640,42
680,93	1660,90
681,11	1671,14
681,30	1714,15
681,48	1755,11
681,67	1718,25
681,85	1724,39
682,04	1632,23
682,23	1775,59
682,41	1724,39
682,60	1765,35
682,78	1705,96
682,97	1669,09
683,15	1691,62
683,34	1665,00
683,53	1755,11
683,71	1642,47
683,90	1728,49
684,08	1808,36
684,27	1669,09
684,45	1763,30
684,64	1830,88
684,82	1646,57
685,01	1722,34
685,19	1781,73
685,38	1796,07
685,57	1693,67
685,75	1697,77
685,94	1726,44
686,12	1708,01
686,31	1701,86
686,49	1843,17
686,68	1601,51
686,86	1736,68
687,05	1654,76
687,23	1820,64
687,42	1691,62
687,60	1673,19
687,79	1656,81
687,97	1761,25
688,16	1761,25
688,34	1759,21
688,53	1667,05
688,71	1665,00
688,90	1744,87
689,08	1597,42
689,27	1595,37
689,45	1798,12
689,64	1710,05
689,82	1763,30
690,01	1769,44
690,19	1669,09
690,38	1716,20
690,56	1828,84
690,75	1691,62
690,93	1669,09
691,12	1648,61
691,30	1689,57
691,49	1726,44
691,67	1634,28
691,86	1791,97
692,04	1683,43
692,23	1677,29
692,41	1718,25
692,60	1904,61
692,78	1785,83
692,97	1681,38
693,15	1734,63
693,34	1810,40
693,52	1843,17
693,71	1718,25
693,89	1722,34
694,08	1628,14
694,26	1796,07
694,44	1804,26
694,63	1697,77
694,81	1677,29
695,00	1624,04
695,18	1769,44
695,37	1904,61
695,55	1759,21
695,74	1714,15
695,92	1734,63
696,10	1783,78
696,29	1632,23
696,47	1742,82
696,66	1652,71
696,84	1665,00
697,03	1718,25
697,21	1847,27
697,40	2277,34
697,58	1746,92
697,76	1624,04
697,95	1611,75
698,13	1671,14
698,32	1632,23
698,50	1751,01
698,68	1767,40
698,87	1712,10
699,05	1791,97
699,24	1773,54
699,42	1650,66
699,61	1695,72
699,79	1675,24
699,97	1718,25
700,16	1640,42
700,34	1687,53
700,53	1693,67
700,71	1822,69
700,89	1775,59
701,08	1697,77
701,26	1636,33
701,45	2029,54
701,63	1574,89
701,81	1675,24
702,00	1646,57
702,18	1734,63
702,37	1667,05
702,55	1755,11
702,73	1660,90
702,92	1621,99
703,10	1683,43
703,28	1730,53
703,47	1605,61
703,65	1837,03
703,84	1779,68
704,02	1597,42
704,20	1847,27
704,39	1734,63
704,57	1734,63
704,75	1763,30
704,94	1767,40
705,12	1771,49
705,30	1746,92
705,49	2256,86
705,67	4546,49
705,86	9518,96
706,04	12621,63
706,22	14513,95
706,41	15490,84
706,59	14065,45
706,77	9549,68
706,96	7557,00
707,14	6590,36
707,32	5906,34
707,51	5531,56
707,69	4749,24
707,87	4140,99
708,06	3522,51
708,24	2944,98
708,42	2447,32
708,61	2293,72
708,79	1951,71
708,97	1834,98
709,16	1888,23
709,34	1718,25
709,52	1759,21
709,71	1830,88
709,89	1839,08
710,07	1656,81
710,26	1728,49
710,44	1718,25
710,62	1828,84
710,80	1667,05
710,99	1746,92
711,17	1748,97
711,35	1669,09
711,54	1701,86
711,72	1794,02
711,90	1755,11
712,09	1673,19
712,27	1722,34
712,45	1765,35
712,63	1605,61
712,82	1656,81
713,00	1720,29
713,18	1791,97
713,37	1822,69
713,55	1720,29
713,73	1693,67
713,91	1773,54
714,10	1648,61
714,28	1689,57
714,46	1757,16
714,65	1771,49
714,83	1744,87
715,01	1669,09
715,19	1611,75
715,38	1718,25
715,56	1738,73
715,74	1703,91
715,92	1689,57
716,11	1728,49
716,29	1636,33
716,47	1677,29
716,65	1656,81
716,84	1660,90
717,02	1755,11
717,20	1654,76
717,38	1634,28
717,57	1744,87
717,75	1757,16
717,93	1759,21
718,11	1677,29
718,30	1691,62
718,48	1712,10
718,66	1751,01
718,84	1804,26
719,03	1685,48
719,21	1619,94
719,39	1839,08
719,57	1738,73
719,75	1726,44
719,94	1601,51
720,12	1671,14
720,30	1656,81
720,48	1781,73
720,67	1646,57
720,85	1654,76
721,03	1640,42
721,21	1714,15
721,39	1753,06
721,58	1642,47
721,76	1759,21
721,94	1736,68
722,12	1718,25
722,30	1736,68
722,49	1673,19
722,67	1644,52
722,85	1730,53
723,03	1673,19
723,21	1714,15
723,40	1771,49
723,58	1732,58
723,76	1716,20
723,94	1736,68
724,12	1769,44
724,30	1789,92
724,49	1753,06
724,67	1658,85
724,85	1757,16
725,03	1605,61
725,21	1769,44
725,40	1779,68
725,58	1652,71
725,76	1779,68
725,94	1705,96
726,12	1677,29
726,30	1740,77
726,49	1675,24
726,67	1681,38
726,85	1763,30
727,03	1828,84
727,21	2158,56
727,39	2936,79
727,57	3932,10
727,76	4102,08
727,94	4433,85
728,12	4470,72
728,30	3569,61
728,48	2975,70
728,66	2740,18
728,84	2545,63
729,03	2359,26
729,21	2166,75
729,39	1959,91
729,57	1861,60
729,75	1834,98
729,93	1779,68
730,11	1722,34
730,30	1656,81
730,48	1677,29
730,66	1824,74
730,84	1699,81
731,02	1671,14
731,20	1669,09
731,38	1734,63
731,56	1658,85
731,74	1679,33
731,93	1636,33
732,11	1650,66
732,29	1781,73
732,47	1679,33
732,65	1710,05
732,83	1777,64
733,01	1777,64
733,19	1607,66
733,37	1710,05
733,56	1712,10
733,74	1718,25
733,92	1744,87
734,10	1644,52
734,28	1695,72
734,46	1624,04
734,64	1724,39
734,82	1693,67
735,00	1669,09
735,18	1681,38
735,36	1695,72
735,54	1599,46
735,73	1695,72
735,91	1783,78
736,09	1781,73
736,27	1714,15
736,45	1763,30
736,63	1615,85
736,81	1621,99
736,99	1765,35
737,17	1814,50
737,35	1611,75
737,53	1794,02
737,71	1783,78
737,89	1771,49
738,07	1648,61
738,25	1685,48
738,43	1656,81
738,61	1613,80
738,80	1621,99
738,98	1648,61
739,16	1624,04
739,34	1652,71
739,52	1828,84
739,70	1699,81
739,88	1693,67
740,06	1769,44
740,24	1611,75
740,42	1763,30
740,60	1617,90
740,78	1656,81
740,96	1630,18
741,14	1660,90
741,32	1728,49
741,50	1697,77
741,68	1783,78
741,86	1763,30
742,04	1601,51
742,22	1656,81
742,40	1640,42
742,58	1730,53
742,76	1755,11
742,94	1640,42
743,12	1601,51
743,30	1591,27
743,48	1718,25
743,66	1695,72
743,84	1763,30
744,02	1712,10
744,20	1699,81
744,38	1648,61
744,56	1689,57
744,74	1796,07
744,92	1726,44
745,10	1720,29
745,28	1761,25
745,46	1744,87
745,64	1658,85
745,82	1736,68
746,00	1701,86
746,18	1755,11
746,36	1658,85
746,54	1732,58
746,72	1662,95
746,90	1677,29
747,08	1755,11
747,26	1640,42
747,44	1693,67
747,62	1691,62
747,80	1716,20
747,98	1728,49
748,15	1755,11
748,33	1789,92
748,51	1605,61
748,69	1701,86
748,87	1624,04
749,05	1644,52
749,23	1728,49
749,41	1763,30
749,59	1656,81
749,77	1775,59
749,95	1654,76
750,13	1667,05
750,31	1705,96
750,49	1683,43
750,67	1751,01
750,85	1763,30
751,03	1685,48
751,20	1812,45
751,38	1726,44
751,56	1695,72
751,74	1744,87
751,92	1632,23
752,10	1619,94
752,28	1744,87
752,46	1601,51
752,64	1677,29
752,82	1681,38
753,00	1783,78
753,18	1640,42
753,35	1705,96
753,53	1718,25
753,71	1632,23
753,89	1759,21
754,07	1673,19
754,25	1705,96
754,43	1748,97
754,61	1691,62
754,79	1716,20
754,97	1671,14
755,14	1871,84
755,32	1607,66
755,50	1736,68
755,68	1626,09
755,86	1628,14
756,04	1722,34
756,22	1607,66
756,40	1714,15
756,57	1832,93
756,75	1658,85
756,93	1814,50
757,11	1730,53
757,29	1617,90
757,47	1656,81
757,65	1736,68
757,82	1595,37
758,00	1581,03
758,18	1701,86
758,36	1673,19
758,54	1763,30
758,72	1609,70
758,90	1732,58
759,07	1779,68
759,25	1607,66
759,43	1718,25
759,61	1636,33
759,79	2185,18
759,97	1605,61
760,15	1671,14
760,32	1585,13
760,50	1757,16
760,68	1763,30
760,86	1572,84
761,04	1763,30
761,22	1765,35
761,39	1710,05
761,57	1755,11
761,75	1714,15
761,93	1689,57
762,11	1720,29
762,28	1695,72
762,46	1642,47
762,64	1794,02
762,82	1681,38
763,00	1736,68
763,18	1771,49
763,35	1628,14
763,53	1798,12
763,71	1722,34
763,89	1724,39
764,07	1798,12
764,24	1806,31
764,42	1742,82
764,60	1675,24
764,78	1671,14
764,96	1767,40
765,13	1677,29
765,31	1710,05
765,49	1634,28
765,67	1710,05
765,84	1652,71
766,02	1714,15
766,20	1619,94
766,38	1763,30
766,56	1650,66
766,73	1767,40
766,91	1722,34
767,09	1734,63
767,27	1755,11
767,44	1673,19
767,62	1744,87
767,80	1730,53
767,98	1722,34
768,15	1773,54
768,33	1746,92
768,51	1828,84
768,69	1759,21
768,87	1708,01
769,04	1773,54
769,22	1884,13
769,40	1822,69
769,58	1851,36
769,75	1796,07
769,93	1781,73
770,11	1685,48
770,28	1673,19
770,46	1845,22
770,64	1765,35
770,82	1728,49
770,99	1705,96
771,17	1744,87
771,35	1632,23
771,53	1732,58
771,70	1636,33
771,88	1732,58
772,06	1681,38
772,23	1644,52
772,41	1634,28
772,59	1742,82
772,77	1687,53
772,94	1728,49
773,12	1746,92
773,30	1632,23
773,47	1685,48
773,65	1712,10
773,83	1730,53
774,01	1673,19
774,18	1669,09
774,36	1671,14
774,54	1636,33
774,71	1693,67
774,89	1693,67
775,07	1675,24
775,24	1685,48
775,42	1665,00
775,60	1763,30
775,78	1662,95
775,95	1632,23
776,13	1656,81
776,31	1570,79
776,48	1636,33
776,66	1804,26
776,84	1636,33
777,01	1701,86
777,19	1710,05
777,37	1705,96
777,54	1769,44
777,72	1779,68
777,90	1722,34
778,07	1632,23
778,25	1880,04
778,43	1808,36
778,60	1724,39
778,78	1761,25
778,96	1763,30
779,13	1656,81
779,31	1699,81
779,49	1667,05
779,66	1712,10
779,84	1681,38
780,01	1773,54
780,19	1626,09
780,37	1767,40
780,54	1736,68
780,72	1677,29
780,90	1734,63
781,07	1699,81
781,25	1654,76
781,43	1775,59
781,60	1658,85
781,78	1757,16
781,95	1718,25
782,13	1671,14
782,31	1710,05
782,48	1556,46
782,66	1722,34
782,83	1748,97
783,01	1765,35
783,19	1757,16
783,36	1687,53
783,54	1585,13
783,72	1675,24
783,89	1687,53
784,07	1771,49
784,24	1644,52
784,42	1744,87
784,60	1679,33
784,77	1800,16
784,95	1568,74
785,12	1658,85
785,30	1708,01
785,47	1658,85
785,65	1681,38
785,83	1701,86
786,00	1591,27
786,18	1722,34
786,35	1703,91
786,53	1624,04
786,71	1730,53
786,88	1697,77
787,06	1728,49
787,23	1626,09
787,41	1638,38
787,58	1740,77
787,76	1640,42
787,94	1724,39
788,11	1742,82
788,29	1642,47
788,46	1662,95
788,64	1574,89
788,81	1675,24
788,99	1703,91
789,16	1679,33
789,34	1687,53
789,52	1681,38
789,69	1654,76
789,87	1677,29
790,04	1669,09
790,22	1644,52
790,39	1853,41
790,57	1615,85
790,74	1699,81
790,92	1726,44
791,09	1611,75
791,27	1695,72
791,44	1796,07
791,62	1714,15
791,79	1628,14
791,97	1658,85
792,15	1900,52
792,32	1742,82
792,50	1730,53
792,67	1722,34
792,85	1755,11
793,02	1822,69
793,20	1771,49
793,37	1574,89
793,55	1615,85
793,72	1628,14
793,90	1748,97
794,07	1626,09
794,25	1705,96
794,42	1677,29
794,60	1691,62
794,77	1644,52
794,95	1675,24
795,12	1796,07
795,30	1722,34
795,47	1611,75
795,65	1816,55
795,82	1687,53
796,00	1599,46
796,17	1685,48
796,34	1665,00
796,52	1626,09
796,69	1785,83
796,87	1703,91
797,04	1705,96
797,22	1787,88
797,39	1828,84
797,57	1660,90
797,74	1712,10
797,92	1738,73
798,09	1665,00
798,27	1789,92
798,44	1746,92
798,62	1660,90
798,79	1689,57
798,96	1714,15
799,14	1691,62
799,31	1812,45
799,49	1632,23
799,66	1636,33
799,84	1730,53
800,01	1624,04
800,19	1693,67
800,36	1550,31
800,53	1689,57
800,71	1695,72
800,88	1832,93
801,06	1693,67
801,23	1697,77
801,41	1720,29
801,58	1619,94
801,75	1744,87
801,93	1755,11
802,10	1669,09
802,28	1634,28
802,45	1736,68
802,63	1755,11
802,80	1816,55
802,97	1710,05
803,15	1699,81
803,32	1646,57
803,50	1644,52
803,67	1611,75
803,84	1703,91
804,02	1712,10
804,19	1667,05
804,37	1609,70
804,54	1648,61
804,71	1675,24
804,89	1626,09
805,06	1630,18
805,24	1589,22
805,41	1593,32
805,58	1699,81
805,76	1812,45
805,93	1695,72
806,10	1796,07
806,28	1665,00
806,45	1708,01
806,63	1748,97
806,80	1738,73
806,97	1738,73
807,15	1689,57
807,32	1662,95
807,49	1630,18
807,67	1683,43
807,84	1712,10
808,01	1619,94
808,19	1877,99
808,36	1828,84
808,54	1728,49
808,71	1652,71
808,88	1757,16
809,06	1654,76
809,23	1812,45
809,40	1656,81
809,58	1716,20
809,75	1785,83
809,92	1712,10
810,10	1865,70
810,27	1755,11
810,44	1654,76
810,62	1726,44
810,79	1714,15
810,96	1677,29
811,14	1652,71
811,31	1699,81
811,48	1740,77
811,66	1691,62
811,83	1708,01
812,00	1716,20
812,18	1699,81
812,35	1849,32
812,52	1683,43
812,69	1683,43
812,87	1687,53
813,04	1691,62
813,21	1640,42
813,39	1636,33
813,56	1626,09
813,73	1730,53
813,91	1605,61
814,08	1718,25
814,25	1718,25
814,42	1607,66
814,60	1675,24
814,77	1734,63
814,94	1695,72
815,12	1667,05
815,29	1763,30
815,46	1746,92
815,63	1796,07
815,81	1628,14
815,98	1673,19
816,15	1746,92
816,33	1646,57
816,50	1609,70
816,67	1720,29
816,84	1718,25
817,02	1644,52
817,19	1771,49
817,36	1732,58
817,53	1732,58
817,71	1591,27
817,88	1720,29
818,05	1628,14
818,22	1642,47
818,40	1869,80
818,57	1695,72
818,74	1726,44
818,91	1683,43
819,09	1603,56
819,26	1734,63
819,43	1601,51
819,60	1701,86
819,78	1687,53
819,95	1820,64
820,12	1634,28
820,29	1763,30
820,47	1691,62
820,64	1611,75
820,81	1662,95
820,98	1660,90
821,15	1609,70
821,33	1808,36
821,50	1611,75
821,67	1667,05
821,84	1699,81
822,02	1777,64
822,19	1771,49
822,36	1662,95
822,53	1718,25
822,70	1632,23
822,88	1679,33
823,05	1708,01
823,22	1730,53
823,39	1724,39
823,56	1671,14
823,74	1808,36
823,91	1673,19
824,08	1624,04
824,25	1679,33
824,42	1751,01
824,60	1609,70
824,77	1773,54
824,94	1683,43
825,11	1718,25
825,28	1589,22
825,45	1626,09
825,63	1761,25
825,80	1587,18
825,97	1742,82
826,14	1658,85
826,31	1638,38
826,48	1738,73
826,66	1683,43
826,83	1705,96
827,00	1724,39
827,17	1701,86
827,34	1710,05
827,51	1687,53
827,69	1630,18
827,86	1597,42
828,03	1699,81
828,20	1716,20
828,37	1642,47
828,54	1703,91
828,71	1673,19
828,89	1820,64
829,06	1738,73
829,23	1830,88
829,40	1640,42
829,57	1640,42
829,74	1757,16
829,91	1687,53
830,09	1695,72
830,26	1701,86
830,43	1705,96
830,60	1732,58
830,77	1771,49
830,94	1697,77
831,11	1746,92
831,28	1652,71
831,46	1759,21
831,63	1648,61
831,80	1703,91
831,97	1697,77
832,14	1632,23
832,31	1751,01
832,48	1703,91
832,65	1730,53
832,82	1769,44
832,99	1753,06
833,17	1660,90
833,34	1785,83
833,51	1746,92
833,68	1628,14
833,85	1720,29
834,02	1667,05
834,19	1652,71
834,36	1665,00
834,53	1693,67
834,70	1779,68
834,87	1710,05
835,04	1611,75
835,22	1675,24
835,39	1650,66
835,56	1603,56
835,73	1691,62
835,90	1804,26
836,07	1689,57
836,24	1728,49
836,41	1669,09
836,58	1658,85
836,75	1677,29
836,92	1718,25
837,09	1718,25
837,26	1705,96
837,43	1689,57
837,60	1789,92
837,77	1677,29
837,94	1746,92
838,12	1789,92
838,29	1619,94
838,46	1691,62
838,63	1617,90
838,80	1847,27
838,97	1695,72
839,14	1712,10
839,31	1693,67
839,48	1724,39
839,65	1693,67
839,82	1763,30
839,99	1736,68
840,16	1697,77
840,33	1673,19
840,50	1728,49
840,67	1708,01
840,84	1591,27
841,01	1619,94
841,18	1640,42
841,35	1681,38
841,52	1720,29
841,69	1746,92
841,86	1697,77
842,03	1681,38
842,20	1728,49
842,37	1669,09
842,54	1667,05
842,71	1646,57
842,88	1617,90
843,05	1802,21
843,22	1642,47
843,39	1748,97
843,56	1648,61
843,73	1757,16
843,90	1658,85
844,07	1658,85
844,24	1789,92
844,41	1748,97
844,58	1640,42
844,75	1683,43
844,92	1660,90
845,09	1714,15
845,26	1656,81
845,43	1728,49
845,60	1705,96
845,77	1759,21
845,94	1757,16
846,10	1699,81
846,27	1624,04
846,44	1634,28
846,61	1681,38
846,78	1677,29
846,95	1722,34
847,12	1701,86
847,29	1716,20
847,46	1646,57
847,63	1718,25
847,80	1699,81
847,97	1658,85
848,14	1822,69
848,31	1667,05
848,48	1613,80
848,65	1708,01
848,82	1712,10
848,98	1806,31
849,15	1697,77
849,32	1755,11
849,49	1673,19
849,66	1699,81
849,83	1689,57
850,00	1615,85
850,17	1716,20
850,34	1648,61
850,51	1710,05
850,68	1632,23
850,85	1789,92
851,01	1701,86
851,18	1761,25
851,35	1697,77
851,52	1701,86
851,69	1755,11
851,86	1574,89
852,03	1605,61
852,20	1714,15
852,37	1753,06
852,53	1583,08
852,70	1624,04
852,87	1658,85
853,04	1746,92
853,21	1697,77
853,38	1771,49
853,55	1769,44
853,72	1728,49
853,89	1677,29
854,05	1724,39
854,22	1638,38
854,39	1570,79
854,56	1658,85
854,73	1775,59
854,90	1677,29
855,07	1695,72
855,23	1679,33
855,40	1652,71
855,57	1683,43
855,74	1550,31
855,91	1912,80
856,08	1716,20
856,25	1607,66
856,41	1642,47
856,58	1638,38
856,75	1667,05
856,92	1621,99
857,09	1681,38
857,26	1605,61
857,42	1665,00
857,59	1722,34
857,76	1660,90
857,93	1757,16
858,10	1642,47
858,27	1667,05
858,43	1673,19
858,60	1669,09
858,77	1574,89
858,94	1669,09
859,11	1703,91
859,27	1665,00
859,44	1705,96
859,61	1820,64
859,78	1714,15
859,95	1656,81
860,12	1591,27
860,28	1787,88
860,45	1841,12
860,62	1667,05
860,79	1740,77
860,95	1681,38
861,12	1677,29
861,29	1681,38
861,46	1775,59
861,63	1734,63
861,79	1681,38
861,96	1634,28
862,13	1691,62
862,30	1724,39
862,47	1660,90
862,63	1669,09
862,80	1708,01
862,97	1779,68
863,14	1648,61
863,30	1722,34
863,47	1624,04
863,64	1814,50
863,81	1683,43
863,97	1626,09
864,14	1687,53
864,31	1697,77
864,48	1718,25
864,65	1656,81
864,81	1718,25
864,98	1728,49
865,15	1775,59
865,32	1771,49
865,48	1775,59
865,65	1763,30
865,82	1722,34
865,98	1697,77
866,15	1697,77
866,32	1630,18
866,49	1662,95
866,65	1728,49
866,82	1738,73
866,99	1607,66
867,16	1605,61
867,32	1660,90
867,49	1693,67
867,66	1726,44
867,83	1658,85
867,99	1640,42
868,16	1675,24
868,33	1677,29
868,49	1738,73
868,66	1703,91
868,83	1779,68
868,99	1683,43
869,16	1708,01
869,33	1728,49
869,50	1808,36
869,66	1705,96
869,83	1697,77
870,00	1669,09
870,16	1800,16
870,33	1705,96
870,50	1726,44
870,66	1701,86
870,83	1796,07
871,00	1761,25
871,17	1708,01
871,33	1675,24
871,50	1683,43
871,67	1693,67
871,83	1738,73
872,00	1757,16
872,17	1611,75
872,33	1732,58
872,50	1779,68
872,67	1679,33
872,83	1658,85
873,00	1798,12
873,17	1646,57
873,33	1777,64
873,50	1728,49
873,67	1699,81
873,83	1656,81
874,00	1677,29
874,16	1753,06
874,33	1751,01
874,50	1658,85
874,66	1701,86
874,83	1687,53
875,00	1783,78
875,16	1759,21
875,33	1769,44
875,50	1597,42
875,66	1644,52
875,83	1730,53
875,99	1665,00
876,16	1687,53
876,33	1718,25
876,49	1718,25
876,66	1691,62
876,83	1693,67
876,99	1671,14
877,16	1689,57
877,32	1656,81
877,49	1691,62
877,66	1769,44
877,82	1748,97
877,99	1720,29
878,15	1837,03
878,32	1718,25
878,49	1716,20
878,65	1677,29
878,82	1724,39
878,98	1652,71
879,15	1800,16
879,32	1701,86
879,48	1777,64
879,65	1681,38
879,81	1697,77
879,98	1683,43
880,15	1669,09
880,31	1800,16
880,48	1724,39
880,64	1789,92
880,81	1697,77
880,97	1769,44
881,14	1689,57
881,31	1665,00
881,47	1830,88
881,64	1705,96
881,80	1603,56
881,97	1669,09
882,13	1837,03
882,30	1605,61
882,47	1710,05
882,63	1585,13
882,80	1671,14
882,96	1738,73
883,13	1726,44
883,29	1722,34
883,46	1734,63
883,62	1783,78
883,79	1689,57
883,95	1779,68
884,12	1665,00
884,29	1718,25
884,45	1665,00
884,62	1732,58
884,78	1740,77
884,95	1779,68
885,11	1693,67
885,28	1781,73
885,44	1607,66
885,61	1699,81
885,77	1814,50
885,94	1693,67
886,10	1693,67
886,27	1699,81
886,43	1773,54
886,60	1767,40
886,76	1675,24
886,93	1609,70
887,09	1710,05
887,26	1638,38
887,42	1720,29
887,59	1765,35
887,75	1855,46
887,92	1808,36
888,08	1783,78
888,25	1759,21
888,41	1751,01
888,58	1732,58
888,74	1677,29
888,91	1685,48
>>>>>End Processed Spectral Data<<<<<
