SpectraSuite Data File
++++++++++++++++++++++++++++++++++++
Date: Mon Jun 06 14:27:57 CEST 2016
User: root
Dark Spectrum Present: No
Reference Spectrum Present: No
Number of Sampled Component Spectra: 1
Spectrometers: USB4C02835
Integration Time (usec): 100000 (USB4C02835)
Spectra Averaged: 1 (USB4C02835)
Boxcar Smoothing: 0 (USB4C02835)
Correct for Electrical Dark: No (USB4C02835)
Strobe/Lamp Enabled: No (USB4C02835)
Correct for Detector Non-linearity: No (USB4C02835)
Correct for Stray Light: No (USB4C02835)
Number of Pixels in Processed Spectrum: 3648
>>>>>Begin Processed Spectral Data<<<<<
177,47	1445,87
177,69	1445,87
177,91	1445,87
178,13	1499,11
178,36	1458,15
178,58	1538,02
178,80	1665,00
179,02	1611,75
179,24	1624,04
179,46	1667,05
179,68	1796,07
179,90	1632,23
180,13	1597,42
180,35	1652,71
180,57	1683,43
180,79	1714,15
181,01	1669,09
181,23	1736,68
181,45	1828,84
181,67	1738,73
181,90	1787,88
182,12	1710,05
182,34	1589,22
182,56	1718,25
182,78	1705,96
183,00	1718,25
183,22	1724,39
183,44	1665,00
183,66	1910,75
183,89	1748,97
184,11	1798,12
184,33	1759,21
184,55	1730,53
184,77	1738,73
184,99	1636,33
185,21	1701,86
185,43	1751,01
185,65	1673,19
185,87	1744,87
186,10	1777,64
186,32	1814,50
186,54	1658,85
186,76	1773,54
186,98	1794,02
187,20	1693,67
187,42	1693,67
187,64	1693,67
187,86	1710,05
188,08	1697,77
188,30	1650,66
188,52	1665,00
188,75	1742,82
188,97	1800,16
189,19	1669,09
189,41	1728,49
189,63	1804,26
189,85	1665,00
190,07	1665,00
190,29	1621,99
190,51	1693,67
190,73	1665,00
190,95	1740,77
191,17	1767,40
191,39	1689,57
191,61	1615,85
191,84	1626,09
192,06	1732,58
192,28	1523,69
192,50	1902,56
192,72	1738,73
192,94	1738,73
193,16	1775,59
193,38	1722,34
193,60	1646,57
193,82	1718,25
194,04	1730,53
194,26	1679,33
194,48	1673,19
194,70	1658,85
194,92	1712,10
195,14	1748,97
195,36	1636,33
195,58	1658,85
195,80	1705,96
196,02	1656,81
196,24	1712,10
196,46	1671,14
196,69	1638,38
196,91	1779,68
197,13	1632,23
197,35	1724,39
197,57	1771,49
197,79	1662,95
198,01	1722,34
198,23	1718,25
198,45	1665,00
198,67	1554,41
198,89	1650,66
199,11	1740,77
199,33	1667,05
199,55	1552,36
199,77	1671,14
199,99	1822,69
200,21	1699,81
200,43	1730,53
200,65	1701,86
200,87	1587,18
201,09	1712,10
201,31	1654,76
201,53	1759,21
201,75	1689,57
201,97	1714,15
202,19	1720,29
202,41	1716,20
202,63	1816,55
202,85	1689,57
203,07	1732,58
203,29	1730,53
203,51	1628,14
203,73	1640,42
203,95	1834,98
204,17	1718,25
204,39	1673,19
204,61	1695,72
204,83	1650,66
205,05	1794,02
205,27	1751,01
205,49	1830,88
205,71	1667,05
205,93	1689,57
206,15	1654,76
206,37	1716,20
206,59	1710,05
206,81	1626,09
207,03	1615,85
207,25	1701,86
207,47	1783,78
207,69	1701,86
207,91	1759,21
208,13	1828,84
208,34	1691,62
208,56	1689,57
208,78	1796,07
209,00	1746,92
209,22	1669,09
209,44	1787,88
209,66	1640,42
209,88	1748,97
210,10	1714,15
210,32	1701,86
210,54	1783,78
210,76	1654,76
210,98	1742,82
211,20	1632,23
211,42	1701,86
211,64	1814,50
211,86	1763,30
212,08	1697,77
212,30	1689,57
212,52	1656,81
212,74	1691,62
212,96	1712,10
213,17	1740,77
213,39	1695,72
213,61	1837,03
213,83	1689,57
214,05	1611,75
214,27	1779,68
214,49	1654,76
214,71	1681,38
214,93	1699,81
215,15	1652,71
215,37	1720,29
215,59	1595,37
215,81	1783,78
216,03	1736,68
216,24	1718,25
216,46	1591,27
216,68	1738,73
216,90	1771,49
217,12	1783,78
217,34	1761,25
217,56	1705,96
217,78	1751,01
218,00	1716,20
218,22	1748,97
218,44	1705,96
218,66	1710,05
218,87	1826,79
219,09	1656,81
219,31	1689,57
219,53	1660,90
219,75	1697,77
219,97	1693,67
220,19	1742,82
220,41	1634,28
220,63	1775,59
220,85	1779,68
221,06	1699,81
221,28	1794,02
221,50	1648,61
221,72	1656,81
221,94	1757,16
222,16	1673,19
222,38	1734,63
222,60	1767,40
222,82	1722,34
223,03	1722,34
223,25	1699,81
223,47	1732,58
223,69	1746,92
223,91	1732,58
224,13	1773,54
224,35	1669,09
224,57	1761,25
224,78	1781,73
225,00	1742,82
225,22	1683,43
225,44	1732,58
225,66	1662,95
225,88	1648,61
226,10	1796,07
226,32	1738,73
226,53	1773,54
226,75	1691,62
226,97	1617,90
227,19	1673,19
227,41	1646,57
227,63	1671,14
227,85	1660,90
228,06	1642,47
228,28	1644,52
228,50	1703,91
228,72	1662,95
228,94	1638,38
229,16	1591,27
229,37	1634,28
229,59	1662,95
229,81	1712,10
230,03	1675,24
230,25	1646,57
230,47	1724,39
230,69	1685,48
230,90	1720,29
231,12	1748,97
231,34	1677,29
231,56	1755,11
231,78	1509,35
232,00	1617,90
232,21	1624,04
232,43	1640,42
232,65	1605,61
232,87	1656,81
233,09	1716,20
233,30	1722,34
233,52	1775,59
233,74	1648,61
233,96	1658,85
234,18	1734,63
234,40	1714,15
234,61	1791,97
234,83	1695,72
235,05	1615,85
235,27	1779,68
235,49	1759,21
235,70	1656,81
235,92	1822,69
236,14	1679,33
236,36	1777,64
236,58	1593,32
236,79	1779,68
237,01	1695,72
237,23	1724,39
237,45	1816,55
237,67	1671,14
237,88	1722,34
238,10	1816,55
238,32	1673,19
238,54	1722,34
238,76	1630,18
238,97	1648,61
239,19	1673,19
239,41	1791,97
239,63	1744,87
239,85	1736,68
240,06	1699,81
240,28	1669,09
240,50	1732,58
240,72	1677,29
240,93	1685,48
241,15	1740,77
241,37	1687,53
241,59	1791,97
241,81	1665,00
242,02	1699,81
242,24	1738,73
242,46	1734,63
242,68	1648,61
242,89	1675,24
243,11	1710,05
243,33	1621,99
243,55	1716,20
243,76	1718,25
243,98	1615,85
244,20	1662,95
244,42	1726,44
244,64	1734,63
244,85	1667,05
245,07	1667,05
245,29	1765,35
245,51	1710,05
245,72	1757,16
245,94	1697,77
246,16	1763,30
246,38	1646,57
246,59	1669,09
246,81	1650,66
247,03	1730,53
247,24	1605,61
247,46	1632,23
247,68	1665,00
247,90	1660,90
248,11	1630,18
248,33	1732,58
248,55	1726,44
248,77	1685,48
248,98	1822,69
249,20	1777,64
249,42	1697,77
249,64	1742,82
249,85	1763,30
250,07	1673,19
250,29	1779,68
250,50	1757,16
250,72	1603,56
250,94	1804,26
251,16	1834,98
251,37	1783,78
251,59	1683,43
251,81	1689,57
252,02	1818,60
252,24	1753,06
252,46	1742,82
252,68	1701,86
252,89	1669,09
253,11	1652,71
253,33	1839,08
253,54	1861,60
253,76	1591,27
253,98	1728,49
254,20	1660,90
254,41	1636,33
254,63	1699,81
254,85	1624,04
255,06	1681,38
255,28	1675,24
255,50	1650,66
255,71	1638,38
255,93	1648,61
256,15	1736,68
256,36	1656,81
256,58	1685,48
256,80	1773,54
257,02	1669,09
257,23	1712,10
257,45	1722,34
257,67	1677,29
257,88	1669,09
258,10	1712,10
258,32	1681,38
258,53	1722,34
258,75	1855,46
258,97	1705,96
259,18	1701,86
259,40	1751,01
259,62	1816,55
259,83	1800,16
260,05	1695,72
260,27	1931,23
260,48	1703,91
260,70	1677,29
260,92	1720,29
261,13	1654,76
261,35	1689,57
261,57	1673,19
261,78	1595,37
262,00	1607,66
262,22	1693,67
262,43	1636,33
262,65	1712,10
262,86	1607,66
263,08	1839,08
263,30	1806,31
263,51	1669,09
263,73	1654,76
263,95	1654,76
264,16	1679,33
264,38	1724,39
264,60	1703,91
264,81	1769,44
265,03	1734,63
265,25	1742,82
265,46	1705,96
265,68	1689,57
265,89	1708,01
266,11	1621,99
266,33	1771,49
266,54	1796,07
266,76	1734,63
266,98	1697,77
267,19	1761,25
267,41	1775,59
267,62	1699,81
267,84	1621,99
268,06	1681,38
268,27	1753,06
268,49	1689,57
268,70	1810,40
268,92	1751,01
269,14	1636,33
269,35	1640,42
269,57	1718,25
269,79	1804,26
270,00	1624,04
270,22	1867,75
270,43	1591,27
270,65	1566,70
270,87	1744,87
271,08	1734,63
271,30	1683,43
271,51	1671,14
271,73	1658,85
271,95	1783,78
272,16	1697,77
272,38	1693,67
272,59	1648,61
272,81	1705,96
273,02	1671,14
273,24	1730,53
273,46	1798,12
273,67	1628,14
273,89	1681,38
274,10	1658,85
274,32	1767,40
274,54	1691,62
274,75	1648,61
274,97	1683,43
275,18	1724,39
275,40	1755,11
275,61	1757,16
275,83	1740,77
276,05	1630,18
276,26	1662,95
276,48	1738,73
276,69	1595,37
276,91	1654,76
277,12	1738,73
277,34	1746,92
277,55	1742,82
277,77	1746,92
277,99	1681,38
278,20	1624,04
278,42	1576,94
278,63	1621,99
278,85	1648,61
279,06	1611,75
279,28	1705,96
279,49	1771,49
279,71	1759,21
279,93	1697,77
280,14	1722,34
280,36	1669,09
280,57	1765,35
280,79	1787,88
281,00	1660,90
281,22	1646,57
281,43	1796,07
281,65	1640,42
281,86	1654,76
282,08	1734,63
282,29	1755,11
282,51	1644,52
282,73	1601,51
282,94	1624,04
283,16	1693,67
283,37	1773,54
283,59	1665,00
283,80	1761,25
284,02	1697,77
284,23	1773,54
284,45	1726,44
284,66	1640,42
284,88	1722,34
285,09	1767,40
285,31	1738,73
285,52	1783,78
285,74	1576,94
285,95	1771,49
286,17	1791,97
286,38	1736,68
286,60	1630,18
286,81	1673,19
287,03	1714,15
287,24	1695,72
287,46	1744,87
287,67	1689,57
287,89	1783,78
288,10	1652,71
288,32	1753,06
288,53	1695,72
288,75	1658,85
288,96	1736,68
289,18	1638,38
289,39	1740,77
289,61	1685,48
289,82	1708,01
290,04	1755,11
290,25	1734,63
290,47	1669,09
290,68	1648,61
290,90	1757,16
291,11	1634,28
291,33	1771,49
291,54	1660,90
291,76	1654,76
291,97	1667,05
292,18	1695,72
292,40	1710,05
292,61	1722,34
292,83	1693,67
293,04	1685,48
293,26	1712,10
293,47	1699,81
293,69	1699,81
293,90	1738,73
294,12	1791,97
294,33	1720,29
294,55	1669,09
294,76	1724,39
294,97	1726,44
295,19	1820,64
295,40	1710,05
295,62	1767,40
295,83	1712,10
296,05	1658,85
296,26	1742,82
296,48	1650,66
296,69	1734,63
296,90	1667,05
297,12	1791,97
297,33	1748,97
297,55	1685,48
297,76	1718,25
297,98	1871,84
298,19	1734,63
298,41	1708,01
298,62	1656,81
298,83	1767,40
299,05	1742,82
299,26	1703,91
299,48	1685,48
299,69	1724,39
299,90	1675,24
300,12	1728,49
300,33	1763,30
300,55	1693,67
300,76	1753,06
300,98	1671,14
301,19	1769,44
301,40	1669,09
301,62	1632,23
301,83	1822,69
302,05	1642,47
302,26	1671,14
302,47	1714,15
302,69	1697,77
302,90	1708,01
303,12	1634,28
303,33	1818,60
303,54	1810,40
303,76	1683,43
303,97	1697,77
304,19	1824,74
304,40	1626,09
304,61	1722,34
304,83	1832,93
305,04	1853,41
305,26	1720,29
305,47	1683,43
305,68	1710,05
305,90	1609,70
306,11	1832,93
306,33	1683,43
306,54	1615,85
306,75	1660,90
306,97	1538,02
307,18	1595,37
307,39	1726,44
307,61	1722,34
307,82	1669,09
308,04	1757,16
308,25	1667,05
308,46	1763,30
308,68	1691,62
308,89	1728,49
309,10	1759,21
309,32	1728,49
309,53	1699,81
309,74	1761,25
309,96	1648,61
310,17	1722,34
310,39	1693,67
310,60	1773,54
310,81	1665,00
311,03	1630,18
311,24	1746,92
311,45	1699,81
311,67	1734,63
311,88	1693,67
312,09	1710,05
312,31	1660,90
312,52	1730,53
312,73	1695,72
312,95	1671,14
313,16	1675,24
313,37	1730,53
313,59	1722,34
313,80	1683,43
314,01	1738,73
314,23	1695,72
314,44	1695,72
314,65	1626,09
314,87	1691,62
315,08	1613,80
315,29	1652,71
315,51	1705,96
315,72	1671,14
315,93	1837,03
316,15	1720,29
316,36	1697,77
316,57	1703,91
316,79	1779,68
317,00	1714,15
317,21	1746,92
317,43	1705,96
317,64	1744,87
317,85	1714,15
318,07	1648,61
318,28	1732,58
318,49	1746,92
318,70	1918,95
318,92	1822,69
319,13	1832,93
319,34	1906,66
319,56	1759,21
319,77	1843,17
319,98	1796,07
320,20	1757,16
320,41	1738,73
320,62	1689,57
320,83	1632,23
321,05	1843,17
321,26	1787,88
321,47	1660,90
321,69	1744,87
321,90	1646,57
322,11	1734,63
322,32	1761,25
322,54	1757,16
322,75	1654,76
322,96	1869,80
323,18	1628,14
323,39	1564,65
323,60	1673,19
323,81	1646,57
324,03	1677,29
324,24	1662,95
324,45	1728,49
324,66	1667,05
324,88	1691,62
325,09	1697,77
325,30	1718,25
325,52	1742,82
325,73	1607,66
325,94	1615,85
326,15	1716,20
326,37	1771,49
326,58	1757,16
326,79	1714,15
327,00	1626,09
327,22	1705,96
327,43	1746,92
327,64	1652,71
327,85	1681,38
328,07	1763,30
328,28	1794,02
328,49	1687,53
328,70	1675,24
328,92	1683,43
329,13	1660,90
329,34	1746,92
329,55	1822,69
329,76	1789,92
329,98	1667,05
330,19	1789,92
330,40	1634,28
330,61	1652,71
330,83	1773,54
331,04	1611,75
331,25	1763,30
331,46	1669,09
331,68	1689,57
331,89	1769,44
332,10	1755,11
332,31	1638,38
332,52	1699,81
332,74	1712,10
332,95	1718,25
333,16	1773,54
333,37	1763,30
333,58	1658,85
333,80	1742,82
334,01	1603,56
334,22	1656,81
334,43	1742,82
334,64	1624,04
334,86	1640,42
335,07	1675,24
335,28	1716,20
335,49	1603,56
335,70	1740,77
335,92	1703,91
336,13	1824,74
336,34	1794,02
336,55	1748,97
336,76	1742,82
336,98	1648,61
337,19	1673,19
337,40	1828,84
337,61	1880,04
337,82	1697,77
338,04	1728,49
338,25	1607,66
338,46	1685,48
338,67	1658,85
338,88	1615,85
339,09	1646,57
339,31	1648,61
339,52	1681,38
339,73	1677,29
339,94	1634,28
340,15	1689,57
340,36	1675,24
340,58	1767,40
340,79	1613,80
341,00	1738,73
341,21	1626,09
341,42	1859,56
341,63	1675,24
341,85	1712,10
342,06	1705,96
342,27	1607,66
342,48	1779,68
342,69	1552,36
342,90	1744,87
343,12	1738,73
343,33	1656,81
343,54	1763,30
343,75	1773,54
343,96	1638,38
344,17	1730,53
344,38	1708,01
344,60	1669,09
344,81	1595,37
345,02	1742,82
345,23	1718,25
345,44	1781,73
345,65	1738,73
345,86	1748,97
346,07	1728,49
346,29	1648,61
346,50	1736,68
346,71	1732,58
346,92	1728,49
347,13	1814,50
347,34	1789,92
347,55	1791,97
347,76	1755,11
347,98	1570,79
348,19	1716,20
348,40	1675,24
348,61	1714,15
348,82	1812,45
349,03	1759,21
349,24	1656,81
349,45	1826,79
349,66	1570,79
349,88	1691,62
350,09	1728,49
350,30	1722,34
350,51	1765,35
350,72	1697,77
350,93	1695,72
351,14	1734,63
351,35	1695,72
351,56	1703,91
351,77	1755,11
351,99	1759,21
352,20	1841,12
352,41	1757,16
352,62	1636,33
352,83	1677,29
353,04	1771,49
353,25	1650,66
353,46	1730,53
353,67	1796,07
353,88	1644,52
354,09	1689,57
354,30	1742,82
354,52	1820,64
354,73	1673,19
354,94	1710,05
355,15	1724,39
355,36	1820,64
355,57	1669,09
355,78	1683,43
355,99	1669,09
356,20	1730,53
356,41	1726,44
356,62	1685,48
356,83	1716,20
357,04	1775,59
357,25	1626,09
357,46	1640,42
357,68	1591,27
357,89	1705,96
358,10	1665,00
358,31	1738,73
358,52	1642,47
358,73	1665,00
358,94	1669,09
359,15	1687,53
359,36	1722,34
359,57	1673,19
359,78	1667,05
359,99	1742,82
360,20	1624,04
360,41	1642,47
360,62	1779,68
360,83	1697,77
361,04	1705,96
361,25	1660,90
361,46	1794,02
361,67	1736,68
361,88	1730,53
362,09	1710,05
362,30	1708,01
362,51	1648,61
362,72	1708,01
362,93	1716,20
363,14	1697,77
363,35	1734,63
363,56	1650,66
363,78	1722,34
363,99	1742,82
364,20	1679,33
364,41	1638,38
364,62	1808,36
364,83	1703,91
365,04	1646,57
365,25	1728,49
365,46	1837,03
365,67	1611,75
365,88	1667,05
366,09	1689,57
366,30	1640,42
366,51	1742,82
366,72	1665,00
366,93	1773,54
367,14	1673,19
367,35	1789,92
367,56	1691,62
367,77	1800,16
367,98	1665,00
368,18	1640,42
368,39	1693,67
368,60	1636,33
368,81	1740,77
369,02	1736,68
369,23	1642,47
369,44	1574,89
369,65	1691,62
369,86	1777,64
370,07	1779,68
370,28	1761,25
370,49	1714,15
370,70	1759,21
370,91	1648,61
371,12	1650,66
371,33	1718,25
371,54	1740,77
371,75	1826,79
371,96	1611,75
372,17	1763,30
372,38	1699,81
372,59	1777,64
372,80	1710,05
373,01	1740,77
373,22	1716,20
373,43	1683,43
373,64	1701,86
373,85	1781,73
374,06	1820,64
374,26	1718,25
374,47	1763,30
374,68	1730,53
374,89	1675,24
375,10	1675,24
375,31	1777,64
375,52	1705,96
375,73	1660,90
375,94	1617,90
376,15	1744,87
376,36	1646,57
376,57	1708,01
376,78	1630,18
376,99	1722,34
377,20	1683,43
377,40	1697,77
377,61	1818,60
377,82	1654,76
378,03	1785,83
378,24	1736,68
378,45	1703,91
378,66	1718,25
378,87	1624,04
379,08	1634,28
379,29	1677,29
379,50	1751,01
379,71	1691,62
379,91	1710,05
380,12	1730,53
380,33	1720,29
380,54	1675,24
380,75	1658,85
380,96	1673,19
381,17	1691,62
381,38	1839,08
381,59	1781,73
381,80	1683,43
382,00	1867,75
382,21	1740,77
382,42	1765,35
382,63	1871,84
382,84	1751,01
383,05	1779,68
383,26	1841,12
383,47	1699,81
383,68	1767,40
383,88	1665,00
384,09	1767,40
384,30	1804,26
384,51	1767,40
384,72	1681,38
384,93	1554,41
385,14	1683,43
385,35	1746,92
385,55	1689,57
385,76	1765,35
385,97	1677,29
386,18	1734,63
386,39	1673,19
386,60	1677,29
386,81	1681,38
387,02	1701,86
387,22	1732,58
387,43	1771,49
387,64	1738,73
387,85	1908,71
388,06	2201,57
388,27	4196,29
388,48	6729,63
388,68	8157,06
388,89	9670,51
389,10	9799,53
389,31	8624,00
389,52	7630,73
389,73	6709,15
389,93	6207,39
390,14	5865,38
390,35	5111,73
390,56	4513,72
390,77	3735,50
390,98	3024,85
391,18	2492,38
391,39	2133,98
391,60	1959,91
391,81	1877,99
392,02	1753,06
392,23	1820,64
392,43	1695,72
392,64	1777,64
392,85	1718,25
393,06	1794,02
393,27	1757,16
393,47	1695,72
393,68	1665,00
393,89	1804,26
394,10	1755,11
394,31	1626,09
394,52	1636,33
394,72	1648,61
394,93	1804,26
395,14	1644,52
395,35	1726,44
395,56	1683,43
395,76	1712,10
395,97	1818,60
396,18	1804,26
396,39	1804,26
396,60	2111,46
396,80	1882,08
397,01	1773,54
397,22	1759,21
397,43	1841,12
397,64	1757,16
397,84	1812,45
398,05	1796,07
398,26	1681,38
398,47	1791,97
398,67	1781,73
398,88	1785,83
399,09	1763,30
399,30	1624,04
399,51	1783,78
399,71	1673,19
399,92	1705,96
400,13	1677,29
400,34	1689,57
400,54	1714,15
400,75	1718,25
400,96	1718,25
401,17	1828,84
401,37	1738,73
401,58	1669,09
401,79	1730,53
402,00	1845,22
402,21	1978,34
402,41	1886,18
402,62	2027,49
402,83	2062,30
403,04	1933,28
403,24	2025,44
403,45	1863,65
403,66	1925,09
403,87	1828,84
404,07	1853,41
404,28	1902,56
404,49	1873,89
404,70	1763,30
404,90	1781,73
405,11	1687,53
405,32	1718,25
405,52	1693,67
405,73	1640,42
405,94	1673,19
406,15	1796,07
406,35	1685,48
406,56	1701,86
406,77	1726,44
406,98	1738,73
407,18	1644,52
407,39	1902,56
407,60	1697,77
407,80	1738,73
408,01	1662,95
408,22	1718,25
408,43	1669,09
408,63	1732,58
408,84	1751,01
409,05	1787,88
409,25	1662,95
409,46	1628,14
409,67	1734,63
409,88	1665,00
410,08	1681,38
410,29	1689,57
410,50	1787,88
410,70	1708,01
410,91	1652,71
411,12	1722,34
411,32	1701,86
411,53	1648,61
411,74	1806,31
411,95	1779,68
412,15	1775,59
412,36	1849,32
412,57	1722,34
412,77	1843,17
412,98	1718,25
413,19	1775,59
413,39	1732,58
413,60	1675,24
413,81	1837,03
414,01	1656,81
414,22	1646,57
414,43	1751,01
414,63	1673,19
414,84	1822,69
415,05	1673,19
415,25	1656,81
415,46	1794,02
415,67	1687,53
415,87	1734,63
416,08	1710,05
416,29	1687,53
416,49	1685,48
416,70	1656,81
416,91	1660,90
417,11	1738,73
417,32	1791,97
417,53	1787,88
417,73	1730,53
417,94	1726,44
418,15	1689,57
418,35	1691,62
418,56	1730,53
418,77	1837,03
418,97	1769,44
419,18	1654,76
419,38	1538,02
419,59	1708,01
419,80	1816,55
420,00	1685,48
420,21	1734,63
420,42	1751,01
420,62	1662,95
420,83	1677,29
421,04	1705,96
421,24	1759,21
421,45	1791,97
421,65	1796,07
421,86	1636,33
422,07	1757,16
422,27	1720,29
422,48	1744,87
422,69	1701,86
422,89	1705,96
423,10	1677,29
423,30	1685,48
423,51	1773,54
423,72	1726,44
423,92	1808,36
424,13	1648,61
424,33	1693,67
424,54	1787,88
424,75	1759,21
424,95	1791,97
425,16	1777,64
425,36	1673,19
425,57	1783,78
425,78	1777,64
425,98	1779,68
426,19	1699,81
426,39	1619,94
426,60	1726,44
426,81	1781,73
427,01	1640,42
427,22	1624,04
427,42	1601,51
427,63	1724,39
427,83	1714,15
428,04	1802,21
428,25	1699,81
428,45	1761,25
428,66	1738,73
428,86	1697,77
429,07	1728,49
429,28	1673,19
429,48	1724,39
429,69	1626,09
429,89	1726,44
430,10	1660,90
430,30	1660,90
430,51	1753,06
430,71	1644,52
430,92	1769,44
431,13	1759,21
431,33	1714,15
431,54	1755,11
431,74	1810,40
431,95	1816,55
432,15	1650,66
432,36	1652,71
432,56	1740,77
432,77	1814,50
432,98	1794,02
433,18	1769,44
433,39	1710,05
433,59	1763,30
433,80	1820,64
434,00	1828,84
434,21	1761,25
434,41	1665,00
434,62	1834,98
434,82	1693,67
435,03	1728,49
435,23	1724,39
435,44	1599,46
435,64	1771,49
435,85	1781,73
436,06	1716,20
436,26	1736,68
436,47	1748,97
436,67	1591,27
436,88	1673,19
437,08	1785,83
437,29	1839,08
437,49	1714,15
437,70	1759,21
437,90	1761,25
438,11	1763,30
438,31	1734,63
438,52	1816,55
438,72	1812,45
438,93	1886,18
439,13	1763,30
439,34	1771,49
439,54	1744,87
439,75	1806,31
439,95	1812,45
440,16	1701,86
440,36	1724,39
440,57	1828,84
440,77	1679,33
440,98	1677,29
441,18	1773,54
441,39	1685,48
441,59	1738,73
441,80	1828,84
442,00	1734,63
442,21	1710,05
442,41	1636,33
442,62	1814,50
442,82	1759,21
443,02	1669,09
443,23	1681,38
443,43	1640,42
443,64	1857,51
443,84	1632,23
444,05	1830,88
444,25	1808,36
444,46	1697,77
444,66	1667,05
444,87	1734,63
445,07	1662,95
445,28	1624,04
445,48	1775,59
445,69	1771,49
445,89	1818,60
446,09	1738,73
446,30	2045,92
446,50	2664,41
446,71	3723,21
446,91	4276,16
447,12	4650,94
447,32	4605,88
447,53	4247,49
447,73	3778,50
447,93	3409,87
448,14	3295,18
448,34	3121,10
448,55	2873,30
448,75	2818,00
448,96	2580,44
449,16	2445,27
449,36	2275,29
449,57	2064,35
449,77	1984,48
449,98	1730,53
450,18	1800,16
450,39	1853,41
450,59	1718,25
450,79	1751,01
451,00	1662,95
451,20	1751,01
451,41	1783,78
451,61	1804,26
451,81	1667,05
452,02	1746,92
452,22	1732,58
452,43	1650,66
452,63	1722,34
452,84	1789,92
453,04	1705,96
453,24	1724,39
453,45	1683,43
453,65	1769,44
453,86	1677,29
454,06	1785,83
454,26	1738,73
454,47	1685,48
454,67	1826,79
454,87	1804,26
455,08	1763,30
455,28	1806,31
455,49	1773,54
455,69	1718,25
455,89	1869,80
456,10	1765,35
456,30	1736,68
456,51	1744,87
456,71	1767,40
456,91	1830,88
457,12	1710,05
457,32	1708,01
457,52	1662,95
457,73	1806,31
457,93	1857,51
458,14	1697,77
458,34	1611,75
458,54	1673,19
458,75	1640,42
458,95	1763,30
459,15	1785,83
459,36	1689,57
459,56	1712,10
459,76	1849,32
459,97	1708,01
460,17	1675,24
460,37	1753,06
460,58	1736,68
460,78	1806,31
460,99	1722,34
461,19	1845,22
461,39	1728,49
461,60	1763,30
461,80	1697,77
462,00	1646,57
462,21	1705,96
462,41	1654,76
462,61	1714,15
462,82	1669,09
463,02	1738,73
463,22	1705,96
463,43	1771,49
463,63	1710,05
463,83	1841,12
464,04	1718,25
464,24	1734,63
464,44	1642,47
464,64	1714,15
464,85	1751,01
465,05	1814,50
465,25	1708,01
465,46	1632,23
465,66	1757,16
465,86	1753,06
466,07	1726,44
466,27	1738,73
466,47	1701,86
466,68	1693,67
466,88	1787,88
467,08	1804,26
467,29	1701,86
467,49	1689,57
467,69	1773,54
467,89	1669,09
468,10	1667,05
468,30	1763,30
468,50	1791,97
468,71	1773,54
468,91	1689,57
469,11	1857,51
469,31	1697,77
469,52	1714,15
469,72	1794,02
469,92	1834,98
470,13	1677,29
470,33	1665,00
470,53	1863,65
470,73	2164,70
470,94	2269,15
471,14	2265,05
471,34	2488,28
471,54	2363,36
471,75	2240,48
471,95	2090,98
472,15	2131,94
472,36	2093,02
472,56	2111,46
472,76	1996,77
472,96	2058,21
473,17	1931,23
473,37	1900,52
473,57	1753,06
473,77	1804,26
473,98	1738,73
474,18	1677,29
474,38	1877,99
474,58	1763,30
474,79	1660,90
474,99	1740,77
475,19	1771,49
475,39	1583,08
475,60	1714,15
475,80	1759,21
476,00	1773,54
476,20	1683,43
476,41	1726,44
476,61	1775,59
476,81	1779,68
477,01	1671,14
477,21	1814,50
477,42	1824,74
477,62	1665,00
477,82	1781,73
478,02	1773,54
478,23	1714,15
478,43	1624,04
478,63	1695,72
478,83	1769,44
479,03	1693,67
479,24	1861,60
479,44	1812,45
479,64	1732,58
479,84	1636,33
480,04	1724,39
480,25	1714,15
480,45	1718,25
480,65	1724,39
480,85	1775,59
481,06	1685,48
481,26	1697,77
481,46	1796,07
481,66	1808,36
481,86	1718,25
482,06	1814,50
482,27	1748,97
482,47	1652,71
482,67	1746,92
482,87	1632,23
483,07	1781,73
483,28	1634,28
483,48	1669,09
483,68	1777,64
483,88	1658,85
484,08	1607,66
484,29	1689,57
484,49	1744,87
484,69	1681,38
484,89	1798,12
485,09	1767,40
485,29	1705,96
485,50	1742,82
485,70	1693,67
485,90	1767,40
486,10	1714,15
486,30	1767,40
486,50	1791,97
486,71	1708,01
486,91	1748,97
487,11	1777,64
487,31	1613,80
487,51	1734,63
487,71	1673,19
487,91	1701,86
488,12	1710,05
488,32	1591,27
488,52	1718,25
488,72	1648,61
488,92	1732,58
489,12	1832,93
489,32	1796,07
489,53	1832,93
489,73	1642,47
489,93	1732,58
490,13	1689,57
490,33	1640,42
490,53	1718,25
490,73	1806,31
490,94	1570,79
491,14	1728,49
491,34	1845,22
491,54	2017,25
491,74	2611,16
491,94	2938,84
492,14	3078,10
492,34	2957,27
492,54	2703,32
492,75	2463,71
492,95	2473,95
493,15	2426,84
493,35	2265,05
493,55	2267,10
493,75	2131,94
493,95	2119,65
494,15	2004,96
494,35	1894,37
494,56	1920,99
494,76	1798,12
494,96	1853,41
495,16	1804,26
495,36	1716,20
495,56	1781,73
495,76	1701,86
495,96	1665,00
496,16	1687,53
496,36	1845,22
496,56	1783,78
496,77	1785,83
496,97	1685,48
497,17	1742,82
497,37	1662,95
497,57	1763,30
497,77	1791,97
497,97	1730,53
498,17	1718,25
498,37	1656,81
498,57	1730,53
498,77	1736,68
498,97	1783,78
499,17	1826,79
499,38	1759,21
499,58	1697,77
499,78	1740,77
499,98	1796,07
500,18	1689,57
500,38	1675,24
500,58	1845,22
500,78	2492,38
500,98	4474,81
501,18	5906,34
501,38	6582,17
501,58	7051,16
501,78	6590,36
501,98	5449,64
502,18	5009,33
502,38	4413,37
502,58	4239,30
502,78	3792,84
502,98	3581,90
503,18	3477,45
503,38	3098,58
503,59	2729,94
503,79	2639,83
503,99	2523,10
504,19	2224,09
504,39	2222,05
504,59	2140,13
504,79	2117,60
504,99	2131,94
505,19	1898,47
505,39	1851,36
505,59	1992,67
505,79	1900,52
505,99	1873,89
506,19	1787,88
506,39	1947,62
506,59	1763,30
506,79	1705,96
506,99	1802,21
507,19	1751,01
507,39	1761,25
507,59	1689,57
507,79	1740,77
507,99	1601,51
508,19	1730,53
508,39	1656,81
508,59	1697,77
508,79	1837,03
508,99	1814,50
509,19	1726,44
509,39	1769,44
509,59	1638,38
509,79	1701,86
509,99	1722,34
510,19	1781,73
510,39	1755,11
510,59	1712,10
510,79	1685,48
510,99	1665,00
511,19	1753,06
511,39	1832,93
511,59	1804,26
511,79	1769,44
511,99	1724,39
512,19	1826,79
512,38	1767,40
512,58	1689,57
512,78	1720,29
512,98	1816,55
513,18	1791,97
513,38	1705,96
513,58	1726,44
513,78	1789,92
513,98	1746,92
514,18	1671,14
514,38	1726,44
514,58	1728,49
514,78	1738,73
514,98	1636,33
515,18	1732,58
515,38	1652,71
515,58	1796,07
515,78	1718,25
515,98	1806,31
516,18	1771,49
516,38	1650,66
516,57	1710,05
516,77	1705,96
516,97	1798,12
517,17	1708,01
517,37	1703,91
517,57	1802,21
517,77	1683,43
517,97	1716,20
518,17	1759,21
518,37	1683,43
518,57	1783,78
518,77	1767,40
518,97	1693,67
519,16	1820,64
519,36	1796,07
519,56	1591,27
519,76	1683,43
519,96	1660,90
520,16	1767,40
520,36	1611,75
520,56	1802,21
520,76	1800,16
520,96	1701,86
521,16	1763,30
521,35	1804,26
521,55	1830,88
521,75	1720,29
521,95	1736,68
522,15	1685,48
522,35	1662,95
522,55	1572,84
522,75	1724,39
522,95	1720,29
523,14	1695,72
523,34	1755,11
523,54	1701,86
523,74	1767,40
523,94	1804,26
524,14	1703,91
524,34	1761,25
524,54	1777,64
524,73	1681,38
524,93	1699,81
525,13	1755,11
525,33	1701,86
525,53	1818,60
525,73	1779,68
525,93	1726,44
526,13	1654,76
526,32	1730,53
526,52	1853,41
526,72	1728,49
526,92	1751,01
527,12	1679,33
527,32	1652,71
527,52	1724,39
527,71	1826,79
527,91	1789,92
528,11	1718,25
528,31	1777,64
528,51	1644,52
528,71	1791,97
528,90	1734,63
529,10	1779,68
529,30	1808,36
529,50	1626,09
529,70	1744,87
529,90	1806,31
530,09	1755,11
530,29	1665,00
530,49	1628,14
530,69	1886,18
530,89	1791,97
531,09	1800,16
531,28	1687,53
531,48	1759,21
531,68	1708,01
531,88	1697,77
532,08	1742,82
532,28	1699,81
532,47	1816,55
532,67	1820,64
532,87	1714,15
533,07	1593,32
533,27	1779,68
533,46	1751,01
533,66	1640,42
533,86	1683,43
534,06	1667,05
534,26	1751,01
534,45	1656,81
534,65	1757,16
534,85	1720,29
535,05	1675,24
535,25	1855,46
535,44	1662,95
535,64	1806,31
535,84	1763,30
536,04	1816,55
536,24	1705,96
536,43	1677,29
536,63	1812,45
536,83	1751,01
537,03	1763,30
537,22	1687,53
537,42	1583,08
537,62	1685,48
537,82	1730,53
538,02	1804,26
538,21	1781,73
538,41	1834,98
538,61	1716,20
538,81	1740,77
539,00	1769,44
539,20	1646,57
539,40	1697,77
539,60	1708,01
539,79	1859,56
539,99	1767,40
540,19	1683,43
540,39	1687,53
540,58	1740,77
540,78	1767,40
540,98	1779,68
541,18	1759,21
541,37	1814,50
541,57	1697,77
541,77	1703,91
541,97	1726,44
542,16	1632,23
542,36	1687,53
542,56	1677,29
542,76	1769,44
542,95	1818,60
543,15	1720,29
543,35	1779,68
543,54	1656,81
543,74	1669,09
543,94	1785,83
544,14	1695,72
544,33	1693,67
544,53	1753,06
544,73	1734,63
544,93	1746,92
545,12	1671,14
545,32	1755,11
545,52	1769,44
545,71	1669,09
545,91	1697,77
546,11	1673,19
546,30	1695,72
546,50	1746,92
546,70	1767,40
546,90	1742,82
547,09	1621,99
547,29	1746,92
547,49	1753,06
547,68	1697,77
547,88	1705,96
548,08	1765,35
548,27	2140,13
548,47	1691,62
548,67	1705,96
548,87	1656,81
549,06	1726,44
549,26	1716,20
549,46	1748,97
549,65	1783,78
549,85	1751,01
550,05	1767,40
550,24	1656,81
550,44	1759,21
550,64	1826,79
550,83	1753,06
551,03	1736,68
551,23	1726,44
551,42	1718,25
551,62	1742,82
551,82	1769,44
552,01	1701,86
552,21	1759,21
552,41	1687,53
552,60	1837,03
552,80	1769,44
553,00	1728,49
553,19	1736,68
553,39	1755,11
553,59	1699,81
553,78	1804,26
553,98	1765,35
554,17	1710,05
554,37	1800,16
554,57	1824,74
554,76	1593,32
554,96	1732,58
555,16	1734,63
555,35	1744,87
555,55	1720,29
555,75	1673,19
555,94	1800,16
556,14	1624,04
556,33	1724,39
556,53	1783,78
556,73	1738,73
556,92	1751,01
557,12	1816,55
557,32	1900,52
557,51	1853,41
557,71	1765,35
557,90	1818,60
558,10	1802,21
558,30	1724,39
558,49	1669,09
558,69	1720,29
558,88	1779,68
559,08	1767,40
559,28	1814,50
559,47	1738,73
559,67	1783,78
559,86	1814,50
560,06	1681,38
560,26	1714,15
560,45	1822,69
560,65	1691,62
560,84	1806,31
561,04	1658,85
561,24	1740,77
561,43	1658,85
561,63	1785,83
561,82	1718,25
562,02	1828,84
562,22	1685,48
562,41	1736,68
562,61	1699,81
562,80	1648,61
563,00	1859,56
563,19	1802,21
563,39	1730,53
563,59	1677,29
563,78	1740,77
563,98	1699,81
564,17	1652,71
564,37	1679,33
564,56	1718,25
564,76	1646,57
564,96	1837,03
565,15	1744,87
565,35	1937,38
565,54	1681,38
565,74	1728,49
565,93	1781,73
566,13	1621,99
566,32	1812,45
566,52	1748,97
566,71	1716,20
566,91	1849,32
567,11	1748,97
567,30	1712,10
567,50	1732,58
567,69	1757,16
567,89	1732,58
568,08	1640,42
568,28	1714,15
568,47	1628,14
568,67	1697,77
568,86	1748,97
569,06	1800,16
569,25	1742,82
569,45	1679,33
569,64	1685,48
569,84	1699,81
570,04	1689,57
570,23	1689,57
570,43	1740,77
570,62	1697,77
570,82	1886,18
571,01	1656,81
571,21	1708,01
571,40	1679,33
571,60	1816,55
571,79	1767,40
571,99	1724,39
572,18	1742,82
572,38	1724,39
572,57	1714,15
572,77	1763,30
572,96	1910,75
573,16	1800,16
573,35	1724,39
573,55	1806,31
573,74	1789,92
573,94	1753,06
574,13	1753,06
574,33	1783,78
574,52	1728,49
574,71	1697,77
574,91	1718,25
575,10	1691,62
575,30	1773,54
575,49	1718,25
575,69	1619,94
575,88	1736,68
576,08	1683,43
576,27	1798,12
576,47	1732,58
576,66	1826,79
576,86	1812,45
577,05	1722,34
577,25	1769,44
577,44	1910,75
577,64	1781,73
577,83	1787,88
578,02	1789,92
578,22	1839,08
578,41	1771,49
578,61	1691,62
578,80	1757,16
579,00	1728,49
579,19	1761,25
579,39	1800,16
579,58	1847,27
579,77	1740,77
579,97	1791,97
580,16	1830,88
580,36	1843,17
580,55	1789,92
580,75	1777,64
580,94	1814,50
581,13	1847,27
581,33	1834,98
581,52	1726,44
581,72	1896,42
581,91	1769,44
582,11	1720,29
582,30	1779,68
582,49	1763,30
582,69	1865,70
582,88	1806,31
583,08	1736,68
583,27	1800,16
583,47	1759,21
583,66	1757,16
583,85	1667,05
584,05	1722,34
584,24	1755,11
584,44	1783,78
584,63	1755,11
584,82	1800,16
585,02	1816,55
585,21	1789,92
585,41	1755,11
585,60	1826,79
585,79	1904,61
585,99	1951,71
586,18	1785,83
586,37	2254,81
586,57	3389,39
586,76	9752,43
586,96	24272,53
587,15	33951,23
587,34	40009,12
587,54	41852,29
587,73	36513,23
587,93	26025,59
588,12	21518,01
588,31	17852,14
588,51	16133,90
588,70	14954,27
588,89	14227,24
589,09	12422,98
589,28	10970,97
589,47	9375,60
589,67	7851,91
589,86	6358,94
590,06	4997,04
590,25	3991,49
590,44	3059,67
590,64	2551,77
590,83	2230,24
591,02	2129,89
591,22	1931,23
591,41	1890,28
591,60	1839,08
591,80	1935,33
591,99	1789,92
592,18	1691,62
592,38	1857,51
592,57	1710,05
592,76	1753,06
592,96	1859,56
593,15	1787,88
593,34	1837,03
593,54	1714,15
593,73	1759,21
593,92	1755,11
594,12	1771,49
594,31	1767,40
594,50	1912,80
594,70	1761,25
594,89	1869,80
595,08	1693,67
595,28	1763,30
595,47	1902,56
595,66	1839,08
595,86	1589,22
596,05	1667,05
596,24	1728,49
596,43	1783,78
596,63	1830,88
596,82	1767,40
597,01	1761,25
597,21	1843,17
597,40	1689,57
597,59	1689,57
597,79	1685,48
597,98	1775,59
598,17	1785,83
598,36	1761,25
598,56	1736,68
598,75	1689,57
598,94	1779,68
599,14	1755,11
599,33	1660,90
599,52	1746,92
599,71	1789,92
599,91	1773,54
600,10	1824,74
600,29	1710,05
600,48	1742,82
600,68	1753,06
600,87	1697,77
601,06	1718,25
601,26	1675,24
601,45	1701,86
601,64	1716,20
601,83	1832,93
602,03	1685,48
602,22	1650,66
602,41	1759,21
602,60	1880,04
602,80	1820,64
602,99	1730,53
603,18	1628,14
603,37	1759,21
603,57	1771,49
603,76	1824,74
603,95	1828,84
604,14	1697,77
604,34	1701,86
604,53	1806,31
604,72	1687,53
604,91	1714,15
605,10	1822,69
605,30	1724,39
605,49	1800,16
605,68	1755,11
605,87	1775,59
606,07	1740,77
606,26	1746,92
606,45	1738,73
606,64	1800,16
606,84	1703,91
607,03	1673,19
607,22	1779,68
607,41	1748,97
607,60	1746,92
607,80	1791,97
607,99	1769,44
608,18	1712,10
608,37	1732,58
608,56	1697,77
608,76	1773,54
608,95	1824,74
609,14	1710,05
609,33	1791,97
609,52	1800,16
609,72	1740,77
609,91	1708,01
610,10	1738,73
610,29	1808,36
610,48	1763,30
610,68	1804,26
610,87	1728,49
611,06	1781,73
611,25	1705,96
611,44	1830,88
611,63	1718,25
611,83	1798,12
612,02	1601,51
612,21	1812,45
612,40	1626,09
612,59	1667,05
612,79	1724,39
612,98	1744,87
613,17	1824,74
613,36	1748,97
613,55	1794,02
613,74	1699,81
613,93	1679,33
614,13	1697,77
614,32	1697,77
614,51	1701,86
614,70	1712,10
614,89	1675,24
615,08	1751,01
615,28	2082,78
615,47	1656,81
615,66	1685,48
615,85	1732,58
616,04	1822,69
616,23	1714,15
616,42	1744,87
616,62	1726,44
616,81	1740,77
617,00	1714,15
617,19	1769,44
617,38	1683,43
617,57	1771,49
617,76	1738,73
617,95	1779,68
618,15	1724,39
618,34	1791,97
618,53	1652,71
618,72	1787,88
618,91	1857,51
619,10	1777,64
619,29	1828,84
619,48	1712,10
619,68	1652,71
619,87	1746,92
620,06	1683,43
620,25	1763,30
620,44	1705,96
620,63	1634,28
620,82	1693,67
621,01	1755,11
621,20	1724,39
621,39	1753,06
621,59	1800,16
621,78	1708,01
621,97	1603,56
622,16	1867,75
622,35	1671,14
622,54	1791,97
622,73	1847,27
622,92	1683,43
623,11	1773,54
623,30	1687,53
623,49	1734,63
623,68	1740,77
623,88	1777,64
624,07	1732,58
624,26	1722,34
624,45	1728,49
624,64	1679,33
624,83	1753,06
625,02	1689,57
625,21	1708,01
625,40	1736,68
625,59	1814,50
625,78	1746,92
625,97	1773,54
626,16	1802,21
626,35	1736,68
626,54	1722,34
626,74	1818,60
626,93	1669,09
627,12	1683,43
627,31	1787,88
627,50	1789,92
627,69	1740,77
627,88	1642,47
628,07	1746,92
628,26	1652,71
628,45	1740,77
628,64	1652,71
628,83	1665,00
629,02	1712,10
629,21	1775,59
629,40	1710,05
629,59	1718,25
629,78	1705,96
629,97	1703,91
630,16	1673,19
630,35	1751,01
630,54	1705,96
630,73	1695,72
630,92	1740,77
631,11	1652,71
631,30	1718,25
631,49	1777,64
631,68	1767,40
631,87	1705,96
632,06	1751,01
632,25	1886,18
632,44	1718,25
632,63	1724,39
632,82	1693,67
633,01	1566,70
633,20	1685,48
633,39	1650,66
633,58	1656,81
633,77	1789,92
633,96	1685,48
634,15	1783,78
634,34	1761,25
634,53	1759,21
634,72	1697,77
634,91	1572,84
635,10	1683,43
635,29	1730,53
635,48	1714,15
635,67	1693,67
635,86	1638,38
636,05	1779,68
636,24	1789,92
636,43	1701,86
636,62	1773,54
636,81	1613,80
637,00	1759,21
637,19	1804,26
637,38	1644,52
637,57	1732,58
637,76	1763,30
637,95	1665,00
638,14	1665,00
638,33	1660,90
638,52	1669,09
638,71	1714,15
638,89	1693,67
639,08	1841,12
639,27	1853,41
639,46	1626,09
639,65	1810,40
639,84	1705,96
640,03	1824,74
640,22	1599,46
640,41	1851,36
640,60	1628,14
640,79	1632,23
640,98	1742,82
641,17	1798,12
641,36	1710,05
641,55	1710,05
641,74	1673,19
641,92	1673,19
642,11	1648,61
642,30	1607,66
642,49	1681,38
642,68	1705,96
642,87	1804,26
643,06	1757,16
643,25	1683,43
643,44	1722,34
643,63	1718,25
643,82	1751,01
644,00	1691,62
644,19	1812,45
644,38	1652,71
644,57	1697,77
644,76	1742,82
644,95	1730,53
645,14	1742,82
645,33	1730,53
645,52	1751,01
645,71	1669,09
645,89	1660,90
646,08	1718,25
646,27	1701,86
646,46	1845,22
646,65	1660,90
646,84	1767,40
647,03	1669,09
647,22	1761,25
647,40	1746,92
647,59	1687,53
647,78	1603,56
647,97	1634,28
648,16	1650,66
648,35	1791,97
648,54	1837,03
648,73	1714,15
648,91	1722,34
649,10	1681,38
649,29	1681,38
649,48	1720,29
649,67	1765,35
649,86	1642,47
650,05	1697,77
650,23	1714,15
650,42	1607,66
650,61	1697,77
650,80	1783,78
650,99	1861,60
651,18	1689,57
651,36	1687,53
651,55	1800,16
651,74	1800,16
651,93	1724,39
652,12	1714,15
652,31	1734,63
652,49	1710,05
652,68	1701,86
652,87	1757,16
653,06	1714,15
653,25	1804,26
653,44	1742,82
653,62	1732,58
653,81	1746,92
654,00	1779,68
654,19	1751,01
654,38	1847,27
654,56	1730,53
654,75	1626,09
654,94	1703,91
655,13	1763,30
655,32	1701,86
655,51	1769,44
655,69	1591,27
655,88	1812,45
656,07	1656,81
656,26	1771,49
656,45	1611,75
656,63	1722,34
656,82	1710,05
657,01	1759,21
657,20	1669,09
657,38	1843,17
657,57	1710,05
657,76	1617,90
657,95	1744,87
658,14	1751,01
658,32	1671,14
658,51	1673,19
658,70	1816,55
658,89	1673,19
659,08	1742,82
659,26	1787,88
659,45	1658,85
659,64	1730,53
659,83	1665,00
660,01	1888,23
660,20	1769,44
660,39	1849,32
660,58	1681,38
660,76	1746,92
660,95	1624,04
661,14	1720,29
661,33	1599,46
661,51	1658,85
661,70	1632,23
661,89	1742,82
662,08	1722,34
662,26	1691,62
662,45	1734,63
662,64	1863,65
662,83	1775,59
663,01	1675,24
663,20	1734,63
663,39	1890,28
663,58	1730,53
663,76	1683,43
663,95	1734,63
664,14	1699,81
664,32	1642,47
664,51	1759,21
664,70	1660,90
664,89	1734,63
665,07	1669,09
665,26	1785,83
665,45	1730,53
665,64	1730,53
665,82	1728,49
666,01	1759,21
666,20	1642,47
666,38	1845,22
666,57	1834,98
666,76	2176,99
666,95	4442,04
667,13	10280,80
667,32	15111,96
667,51	17434,36
667,69	18996,96
667,88	17565,43
668,07	12281,67
668,25	9457,52
668,44	8079,24
668,63	7448,46
668,81	6795,16
669,00	6236,06
669,19	5619,63
669,38	5005,24
669,56	4579,26
669,75	3895,24
669,94	3342,28
670,12	2820,05
670,31	2516,95
670,50	2240,48
670,68	2050,02
670,87	1961,95
671,06	1804,26
671,24	1787,88
671,43	1834,98
671,62	1720,29
671,80	1673,19
671,99	1697,77
672,18	1693,67
672,36	1740,77
672,55	1765,35
672,74	1681,38
672,92	1671,14
673,11	1808,36
673,29	1675,24
673,48	1759,21
673,67	1748,97
673,85	1771,49
674,04	1708,01
674,23	1742,82
674,41	1798,12
674,60	1667,05
674,79	1632,23
674,97	1703,91
675,16	1740,77
675,34	1769,44
675,53	1652,71
675,72	1683,43
675,90	1806,31
676,09	1730,53
676,28	1724,39
676,46	1683,43
676,65	1753,06
676,83	1730,53
677,02	1753,06
677,21	1724,39
677,39	1642,47
677,58	1691,62
677,77	1605,61
677,95	1662,95
678,14	1703,91
678,32	1626,09
678,51	1671,14
678,70	1781,73
678,88	1732,58
679,07	1730,53
679,25	1695,72
679,44	1658,85
679,63	1578,98
679,81	1720,29
680,00	1767,40
680,18	1771,49
680,37	1802,21
680,55	1697,77
680,74	1665,00
680,93	1617,90
681,11	1708,01
681,30	1695,72
681,48	1742,82
681,67	1644,52
681,85	1722,34
682,04	1693,67
682,23	1746,92
682,41	1730,53
682,60	1726,44
682,78	1701,86
682,97	1619,94
683,15	1716,20
683,34	1724,39
683,53	1779,68
683,71	1636,33
683,90	1777,64
684,08	1779,68
684,27	1691,62
684,45	1755,11
684,64	1787,88
684,82	1646,57
685,01	1789,92
685,19	1777,64
685,38	1865,70
685,57	1689,57
685,75	1646,57
685,94	1650,66
686,12	1681,38
686,31	1628,14
686,49	1865,70
686,68	1621,99
686,86	1736,68
687,05	1724,39
687,23	1777,64
687,42	1699,81
687,60	1591,27
687,79	1744,87
687,97	1853,41
688,16	1783,78
688,34	1658,85
688,53	1578,98
688,71	1718,25
688,90	1826,79
689,08	1673,19
689,27	1714,15
689,45	1738,73
689,64	1824,74
689,82	1751,01
690,01	1765,35
690,19	1689,57
690,38	1724,39
690,56	1798,12
690,75	1753,06
690,93	1697,77
691,12	1640,42
691,30	1691,62
691,49	1656,81
691,67	1714,15
691,86	1894,37
692,04	1650,66
692,23	1638,38
692,41	1689,57
692,60	1779,68
692,78	1744,87
692,97	1697,77
693,15	1791,97
693,34	1732,58
693,52	1732,58
693,71	1667,05
693,89	1693,67
694,08	1626,09
694,26	1744,87
694,44	1761,25
694,63	1746,92
694,81	1630,18
695,00	1677,29
695,18	1787,88
695,37	1761,25
695,55	1753,06
695,74	1685,48
695,92	1660,90
696,10	1787,88
696,29	1665,00
696,47	1710,05
696,66	1654,76
696,84	1650,66
697,03	1617,90
697,21	1791,97
697,40	2303,96
697,58	1802,21
697,76	1710,05
697,95	1703,91
698,13	1644,52
698,32	1619,94
698,50	1755,11
698,68	1820,64
698,87	1726,44
699,05	1787,88
699,24	1697,77
699,42	1626,09
699,61	1753,06
699,79	1738,73
699,97	1777,64
700,16	1593,32
700,34	1669,09
700,53	1714,15
700,71	1771,49
700,89	1701,86
701,08	1705,96
701,26	1744,87
701,45	2142,18
701,63	1701,86
701,81	1632,23
702,00	1701,86
702,18	1740,77
702,37	1646,57
702,55	1724,39
702,73	1726,44
702,92	1646,57
703,10	1753,06
703,28	1712,10
703,47	1587,18
703,65	1888,23
703,84	1730,53
704,02	1710,05
704,20	1800,16
704,39	1710,05
704,57	1703,91
704,75	1742,82
704,94	1710,05
705,12	1726,44
705,30	1820,64
705,49	2238,43
705,67	4349,89
705,86	9226,10
706,04	12269,38
706,22	14335,78
706,41	15380,25
706,59	13842,22
706,77	9582,45
706,96	7493,52
707,14	6508,44
707,32	5914,53
707,51	5531,56
707,69	4927,41
707,87	4270,01
708,06	3512,27
708,24	2977,75
708,42	2465,75
708,61	2287,58
708,79	1880,04
708,97	1855,46
709,16	1794,02
709,34	1812,45
709,52	1722,34
709,71	1738,73
709,89	1732,58
710,07	1656,81
710,26	1603,56
710,44	1757,16
710,62	1755,11
710,80	1746,92
710,99	1681,38
711,17	1742,82
711,35	1658,85
711,54	1767,40
711,72	1744,87
711,90	1748,97
712,09	1726,44
712,27	1609,70
712,45	1753,06
712,63	1673,19
712,82	1761,25
713,00	1714,15
713,18	1712,10
713,37	1787,88
713,55	1736,68
713,73	1730,53
713,91	1777,64
714,10	1771,49
714,28	1677,29
714,46	1718,25
714,65	1683,43
714,83	1779,68
715,01	1767,40
715,19	1691,62
715,38	1699,81
715,56	1667,05
715,74	1677,29
715,92	1628,14
716,11	1816,55
716,29	1658,85
716,47	1718,25
716,65	1697,77
716,84	1566,70
717,02	1730,53
717,20	1587,18
717,38	1671,14
717,57	1720,29
717,75	1748,97
717,93	1619,94
718,11	1720,29
718,30	1626,09
718,48	1708,01
718,66	1677,29
718,84	1742,82
719,03	1701,86
719,21	1683,43
719,39	1796,07
719,57	1736,68
719,75	1755,11
719,94	1644,52
720,12	1724,39
720,30	1730,53
720,48	1814,50
720,67	1667,05
720,85	1712,10
721,03	1703,91
721,21	1644,52
721,39	1830,88
721,58	1701,86
721,76	1683,43
721,94	1726,44
722,12	1732,58
722,30	1796,07
722,49	1683,43
722,67	1687,53
722,85	1693,67
723,03	1630,18
723,21	1742,82
723,40	1734,63
723,58	1757,16
723,76	1789,92
723,94	1804,26
724,12	1685,48
724,30	1798,12
724,49	1734,63
724,67	1640,42
724,85	1816,55
725,03	1603,56
725,21	1744,87
725,40	1734,63
725,58	1705,96
725,76	1806,31
725,94	1781,73
726,12	1701,86
726,30	1708,01
726,49	1681,38
726,67	1718,25
726,85	1683,43
727,03	1777,64
727,21	2158,56
727,39	2822,10
727,57	3651,53
727,76	4138,94
727,94	4433,85
728,12	4231,10
728,30	3641,29
728,48	2914,26
728,66	2729,94
728,84	2547,67
729,03	2303,96
729,21	2103,26
729,39	1978,34
729,57	1765,35
729,75	1808,36
729,93	1816,55
730,11	1732,58
730,30	1779,68
730,48	1689,57
730,66	1837,03
730,84	1734,63
731,02	1628,14
731,20	1708,01
731,38	1789,92
731,56	1644,52
731,74	1644,52
731,93	1697,77
732,11	1736,68
732,29	1703,91
732,47	1691,62
732,65	1679,33
732,83	1740,77
733,01	1748,97
733,19	1650,66
733,37	1759,21
733,56	1699,81
733,74	1689,57
733,92	1781,73
734,10	1718,25
734,28	1705,96
734,46	1603,56
734,64	1665,00
734,82	1646,57
735,00	1710,05
735,18	1665,00
735,36	1722,34
735,54	1677,29
735,73	1728,49
735,91	1828,84
736,09	1810,40
736,27	1712,10
736,45	1716,20
736,63	1607,66
736,81	1673,19
736,99	1771,49
737,17	1789,92
737,35	1726,44
737,53	1628,14
737,71	1640,42
737,89	1740,77
738,07	1718,25
738,25	1652,71
738,43	1613,80
738,61	1705,96
738,80	1642,47
738,98	1669,09
739,16	1705,96
739,34	1617,90
739,52	1693,67
739,70	1742,82
739,88	1806,31
740,06	1783,78
740,24	1681,38
740,42	1751,01
740,60	1683,43
740,78	1650,66
740,96	1617,90
741,14	1689,57
741,32	1755,11
741,50	1603,56
741,68	1816,55
741,86	1785,83
742,04	1722,34
742,22	1636,33
742,40	1738,73
742,58	1687,53
742,76	1671,14
742,94	1779,68
743,12	1603,56
743,30	1718,25
743,48	1710,05
743,66	1703,91
743,84	1728,49
744,02	1724,39
744,20	1640,42
744,38	1638,38
744,56	1603,56
744,74	1746,92
744,92	1732,58
745,10	1775,59
745,28	1685,48
745,46	1746,92
745,64	1679,33
745,82	1787,88
746,00	1683,43
746,18	1722,34
746,36	1636,33
746,54	1718,25
746,72	1722,34
746,90	1683,43
747,08	1757,16
747,26	1671,14
747,44	1740,77
747,62	1730,53
747,80	1730,53
747,98	1804,26
748,15	1685,48
748,33	1824,74
748,51	1728,49
748,69	1708,01
748,87	1710,05
749,05	1656,81
749,23	1624,04
749,41	1773,54
749,59	1738,73
749,77	1730,53
749,95	1665,00
750,13	1650,66
750,31	1726,44
750,49	1673,19
750,67	1755,11
750,85	1769,44
751,03	1740,77
751,20	1812,45
751,38	1695,72
751,56	1722,34
751,74	1671,14
751,92	1804,26
752,10	1570,79
752,28	1732,58
752,46	1708,01
752,64	1648,61
752,82	1699,81
753,00	1730,53
753,18	1634,28
753,35	1683,43
753,53	1716,20
753,71	1673,19
753,89	1767,40
754,07	1763,30
754,25	1742,82
754,43	1705,96
754,61	1662,95
754,79	1724,39
754,97	1763,30
755,14	1820,64
755,32	1652,71
755,50	1722,34
755,68	1714,15
755,86	1671,14
756,04	1650,66
756,22	1589,22
756,40	1794,02
756,57	1738,73
756,75	1652,71
756,93	1820,64
757,11	1771,49
757,29	1675,24
757,47	1673,19
757,65	1591,27
757,82	1548,26
758,00	1611,75
758,18	1660,90
758,36	1632,23
758,54	1820,64
758,72	1697,77
758,90	1777,64
759,07	1714,15
759,25	1589,22
759,43	1738,73
759,61	1621,99
759,79	2199,52
759,97	1775,59
760,15	1626,09
760,32	1667,05
760,50	1736,68
760,68	1824,74
760,86	1632,23
761,04	1773,54
761,22	1724,39
761,39	1689,57
761,57	1703,91
761,75	1648,61
761,93	1732,58
762,11	1714,15
762,28	1726,44
762,46	1685,48
762,64	1730,53
762,82	1558,50
763,00	1710,05
763,18	1744,87
763,35	1640,42
763,53	1648,61
763,71	1695,72
763,89	1722,34
764,07	1703,91
764,24	1662,95
764,42	1755,11
764,60	1746,92
764,78	1732,58
764,96	1712,10
765,13	1763,30
765,31	1701,86
765,49	1738,73
765,67	1675,24
765,84	1646,57
766,02	1646,57
766,20	1556,46
766,38	1656,81
766,56	1710,05
766,73	1746,92
766,91	1710,05
767,09	1671,14
767,27	1726,44
767,44	1601,51
767,62	1767,40
767,80	1732,58
767,98	1689,57
768,15	1675,24
768,33	1708,01
768,51	1763,30
768,69	1761,25
768,87	1753,06
769,04	1746,92
769,22	1843,17
769,40	1708,01
769,58	1880,04
769,75	1726,44
769,93	1734,63
770,11	1675,24
770,28	1783,78
770,46	1710,05
770,64	1716,20
770,82	1662,95
770,99	1667,05
771,17	1687,53
771,35	1638,38
771,53	1578,98
771,70	1669,09
771,88	1673,19
772,06	1667,05
772,23	1658,85
772,41	1730,53
772,59	1640,42
772,77	1648,61
772,94	1675,24
773,12	1699,81
773,30	1697,77
773,47	1673,19
773,65	1685,48
773,83	1820,64
774,01	1714,15
774,18	1611,75
774,36	1650,66
774,54	1599,46
774,71	1806,31
774,89	1574,89
775,07	1621,99
775,24	1638,38
775,42	1638,38
775,60	1814,50
775,78	1685,48
775,95	1595,37
776,13	1570,79
776,31	1658,85
776,48	1705,96
776,66	1681,38
776,84	1621,99
777,01	1619,94
777,19	1667,05
777,37	1697,77
777,54	1742,82
777,72	1771,49
777,90	1656,81
778,07	1662,95
778,25	1918,95
778,43	1708,01
778,60	1693,67
778,78	1710,05
778,96	1824,74
779,13	1703,91
779,31	1736,68
779,49	1732,58
779,66	1697,77
779,84	1726,44
780,01	1667,05
780,19	1671,14
780,37	1751,01
780,54	1744,87
780,72	1615,85
780,90	1644,52
781,07	1699,81
781,25	1628,14
781,43	1744,87
781,60	1646,57
781,78	1732,58
781,95	1722,34
782,13	1705,96
782,31	1730,53
782,48	1538,02
782,66	1732,58
782,83	1804,26
783,01	1730,53
783,19	1759,21
783,36	1730,53
783,54	1609,70
783,72	1738,73
783,89	1675,24
784,07	1763,30
784,24	1718,25
784,42	1869,80
784,60	1714,15
784,77	1693,67
784,95	1652,71
785,12	1658,85
785,30	1677,29
785,47	1621,99
785,65	1705,96
785,83	1683,43
786,00	1701,86
786,18	1699,81
786,35	1601,51
786,53	1689,57
786,71	1798,12
786,88	1789,92
787,06	1708,01
787,23	1699,81
787,41	1609,70
787,58	1695,72
787,76	1693,67
787,94	1662,95
788,11	1669,09
788,29	1644,52
788,46	1654,76
788,64	1607,66
788,81	1740,77
788,99	1644,52
789,16	1619,94
789,34	1712,10
789,52	1640,42
789,69	1687,53
789,87	1581,03
790,04	1634,28
790,22	1716,20
790,39	1808,36
790,57	1648,61
790,74	1699,81
790,92	1757,16
791,09	1642,47
791,27	1617,90
791,44	1656,81
791,62	1705,96
791,79	1644,52
791,97	1728,49
792,15	1894,37
792,32	1751,01
792,50	1744,87
792,67	1796,07
792,85	1755,11
793,02	1656,81
793,20	1701,86
793,37	1640,42
793,55	1699,81
793,72	1621,99
793,90	1734,63
794,07	1716,20
794,25	1648,61
794,42	1757,16
794,60	1748,97
794,77	1701,86
794,95	1685,48
795,12	1781,73
795,30	1658,85
795,47	1640,42
795,65	1853,41
795,82	1771,49
796,00	1658,85
796,17	1705,96
796,34	1652,71
796,52	1681,38
796,69	1767,40
796,87	1738,73
797,04	1777,64
797,22	1726,44
797,39	1693,67
797,57	1757,16
797,74	1710,05
797,92	1691,62
798,09	1648,61
798,27	1779,68
798,44	1789,92
798,62	1708,01
798,79	1712,10
798,96	1816,55
799,14	1736,68
799,31	1898,47
799,49	1640,42
799,66	1685,48
799,84	1742,82
800,01	1665,00
800,19	1681,38
800,36	1587,18
800,53	1794,02
800,71	1736,68
800,88	1744,87
801,06	1673,19
801,23	1654,76
801,41	1611,75
801,58	1689,57
801,75	1665,00
801,93	1677,29
802,10	1718,25
802,28	1724,39
802,45	1693,67
802,63	1681,38
802,80	1810,40
802,97	1648,61
803,15	1740,77
803,32	1708,01
803,50	1703,91
803,67	1677,29
803,84	1658,85
804,02	1755,11
804,19	1693,67
804,37	1595,37
804,54	1685,48
804,71	1652,71
804,89	1671,14
805,06	1605,61
805,24	1660,90
805,41	1597,42
805,58	1613,80
805,76	1738,73
805,93	1744,87
806,10	1810,40
806,28	1648,61
806,45	1683,43
806,63	1730,53
806,80	1755,11
806,97	1691,62
807,15	1740,77
807,32	1720,29
807,49	1667,05
807,67	1677,29
807,84	1722,34
808,01	1669,09
808,19	1816,55
808,36	1847,27
808,54	1646,57
808,71	1632,23
808,88	1744,87
809,06	1744,87
809,23	1714,15
809,40	1630,18
809,58	1763,30
809,75	1748,97
809,92	1630,18
810,10	1810,40
810,27	1650,66
810,44	1724,39
810,62	1738,73
810,79	1724,39
810,96	1687,53
811,14	1665,00
811,31	1660,90
811,48	1738,73
811,66	1710,05
811,83	1791,97
812,00	1732,58
812,18	1726,44
812,35	1857,51
812,52	1667,05
812,69	1689,57
812,87	1632,23
813,04	1605,61
813,21	1718,25
813,39	1697,77
813,56	1617,90
813,73	1734,63
813,91	1638,38
814,08	1755,11
814,25	1689,57
814,42	1646,57
814,60	1718,25
814,77	1734,63
814,94	1660,90
815,12	1765,35
815,29	1763,30
815,46	1697,77
815,63	1779,68
815,81	1667,05
815,98	1640,42
816,15	1705,96
816,33	1728,49
816,50	1753,06
816,67	1693,67
816,84	1744,87
817,02	1591,27
817,19	1665,00
817,36	1691,62
817,53	1705,96
817,71	1705,96
817,88	1718,25
818,05	1650,66
818,22	1621,99
818,40	1761,25
818,57	1685,48
818,74	1667,05
818,91	1730,53
819,09	1687,53
819,26	1759,21
819,43	1683,43
819,60	1624,04
819,78	1718,25
819,95	1773,54
820,12	1646,57
820,29	1761,25
820,47	1769,44
820,64	1677,29
820,81	1607,66
820,98	1636,33
821,15	1699,81
821,33	1751,01
821,50	1613,80
821,67	1701,86
821,84	1687,53
822,02	1734,63
822,19	1761,25
822,36	1646,57
822,53	1675,24
822,70	1626,09
822,88	1650,66
823,05	1791,97
823,22	1734,63
823,39	1724,39
823,56	1660,90
823,74	1884,13
823,91	1640,42
824,08	1628,14
824,25	1558,50
824,42	1789,92
824,60	1658,85
824,77	1708,01
824,94	1630,18
825,11	1710,05
825,28	1646,57
825,45	1730,53
825,63	1669,09
825,80	1656,81
825,97	1748,97
826,14	1648,61
826,31	1615,85
826,48	1773,54
826,66	1681,38
826,83	1626,09
827,00	1708,01
827,17	1640,42
827,34	1665,00
827,51	1632,23
827,69	1673,19
827,86	1687,53
828,03	1755,11
828,20	1775,59
828,37	1681,38
828,54	1740,77
828,71	1681,38
828,89	1877,99
829,06	1675,24
829,23	1783,78
829,40	1730,53
829,57	1605,61
829,74	1697,77
829,91	1693,67
830,09	1681,38
830,26	1730,53
830,43	1697,77
830,60	1699,81
830,77	1648,61
830,94	1705,96
831,11	1671,14
831,28	1662,95
831,46	1796,07
831,63	1644,52
831,80	1748,97
831,97	1679,33
832,14	1619,94
832,31	1695,72
832,48	1769,44
832,65	1722,34
832,82	1671,14
832,99	1693,67
833,17	1624,04
833,34	1806,31
833,51	1728,49
833,68	1609,70
833,85	1742,82
834,02	1673,19
834,19	1587,18
834,36	1697,77
834,53	1742,82
834,70	1763,30
834,87	1728,49
835,04	1697,77
835,22	1634,28
835,39	1656,81
835,56	1652,71
835,73	1710,05
835,90	1685,48
836,07	1578,98
836,24	1765,35
836,41	1660,90
836,58	1640,42
836,75	1759,21
836,92	1783,78
837,09	1583,08
837,26	1730,53
837,43	1740,77
837,60	1755,11
837,77	1669,09
837,94	1710,05
838,12	1812,45
838,29	1779,68
838,46	1677,29
838,63	1628,14
838,80	1722,34
838,97	1662,95
839,14	1728,49
839,31	1705,96
839,48	1679,33
839,65	1738,73
839,82	1660,90
839,99	1728,49
840,16	1667,05
840,33	1683,43
840,50	1755,11
840,67	1650,66
840,84	1523,69
841,01	1722,34
841,18	1695,72
841,35	1687,53
841,52	1738,73
841,69	1818,60
841,86	1613,80
842,03	1687,53
842,20	1753,06
842,37	1695,72
842,54	1730,53
842,71	1736,68
842,88	1626,09
843,05	1740,77
843,22	1681,38
843,39	1789,92
843,56	1669,09
843,73	1654,76
843,90	1781,73
844,07	1687,53
844,24	1755,11
844,41	1693,67
844,58	1646,57
844,75	1652,71
844,92	1734,63
845,09	1763,30
845,26	1611,75
845,43	1787,88
845,60	1738,73
845,77	1847,27
845,94	1697,77
846,10	1697,77
846,27	1583,08
846,44	1585,13
846,61	1660,90
846,78	1654,76
846,95	1744,87
847,12	1736,68
847,29	1744,87
847,46	1734,63
847,63	1708,01
847,80	1695,72
847,97	1685,48
848,14	1814,50
848,31	1701,86
848,48	1656,81
848,65	1652,71
848,82	1689,57
848,98	1867,75
849,15	1693,67
849,32	1798,12
849,49	1857,51
849,66	1718,25
849,83	1736,68
850,00	1689,57
850,17	1775,59
850,34	1716,20
850,51	1701,86
850,68	1667,05
850,85	1808,36
851,01	1665,00
851,18	1689,57
851,35	1685,48
851,52	1722,34
851,69	1757,16
851,86	1624,04
852,03	1734,63
852,20	1787,88
852,37	1730,53
852,53	1658,85
852,70	1638,38
852,87	1718,25
853,04	1701,86
853,21	1691,62
853,38	1798,12
853,55	1814,50
853,72	1763,30
853,89	1656,81
854,05	1652,71
854,22	1736,68
854,39	1621,99
854,56	1742,82
854,73	1744,87
854,90	1665,00
855,07	1728,49
855,23	1679,33
855,40	1732,58
855,57	1736,68
855,74	1624,04
855,91	1845,22
856,08	1687,53
856,25	1574,89
856,41	1701,86
856,58	1638,38
856,75	1693,67
856,92	1562,60
857,09	1753,06
857,26	1671,14
857,42	1724,39
857,59	1714,15
857,76	1662,95
857,93	1667,05
858,10	1697,77
858,27	1689,57
858,43	1761,25
858,60	1634,28
858,77	1632,23
858,94	1648,61
859,11	1763,30
859,27	1665,00
859,44	1685,48
859,61	1855,46
859,78	1699,81
859,95	1677,29
860,12	1650,66
860,28	1849,32
860,45	1828,84
860,62	1681,38
860,79	1748,97
860,95	1646,57
861,12	1613,80
861,29	1626,09
861,46	1697,77
861,63	1648,61
861,79	1734,63
861,96	1658,85
862,13	1665,00
862,30	1703,91
862,47	1681,38
862,63	1638,38
862,80	1781,73
862,97	1742,82
863,14	1742,82
863,30	1763,30
863,47	1677,29
863,64	1738,73
863,81	1693,67
863,97	1669,09
864,14	1710,05
864,31	1697,77
864,48	1724,39
864,65	1726,44
864,81	1726,44
864,98	1718,25
865,15	1697,77
865,32	1660,90
865,48	1800,16
865,65	1673,19
865,82	1601,51
865,98	1769,44
866,15	1722,34
866,32	1703,91
866,49	1722,34
866,65	1771,49
866,82	1611,75
866,99	1708,01
867,16	1673,19
867,32	1636,33
867,49	1665,00
867,66	1654,76
867,83	1693,67
867,99	1640,42
868,16	1728,49
868,33	1675,24
868,49	1656,81
868,66	1693,67
868,83	1736,68
868,99	1662,95
869,16	1671,14
869,33	1761,25
869,50	1798,12
869,66	1724,39
869,83	1697,77
870,00	1597,42
870,16	1777,64
870,33	1632,23
870,50	1699,81
870,66	1703,91
870,83	1841,12
871,00	1665,00
871,17	1763,30
871,33	1695,72
871,50	1634,28
871,67	1728,49
871,83	1621,99
872,00	1779,68
872,17	1697,77
872,33	1763,30
872,50	1767,40
872,67	1697,77
872,83	1675,24
873,00	1691,62
873,17	1783,78
873,33	1789,92
873,50	1732,58
873,67	1630,18
873,83	1658,85
874,00	1701,86
874,16	1681,38
874,33	1732,58
874,50	1650,66
874,66	1767,40
874,83	1634,28
875,00	1761,25
875,16	1826,79
875,33	1769,44
875,50	1527,78
875,66	1621,99
875,83	1738,73
875,99	1751,01
876,16	1708,01
876,33	1718,25
876,49	1640,42
876,66	1761,25
876,83	1710,05
876,99	1617,90
877,16	1619,94
877,32	1701,86
877,49	1648,61
877,66	1665,00
877,82	1724,39
877,99	1734,63
878,15	1755,11
878,32	1695,72
878,49	1718,25
878,65	1710,05
878,82	1724,39
878,98	1724,39
879,15	1744,87
879,32	1712,10
879,48	1732,58
879,65	1693,67
879,81	1671,14
879,98	1648,61
880,15	1691,62
880,31	1665,00
880,48	1691,62
880,64	1802,21
880,81	1753,06
880,97	1751,01
881,14	1726,44
881,31	1662,95
881,47	1853,41
881,64	1564,65
881,80	1566,70
881,97	1755,11
882,13	1701,86
882,30	1619,94
882,47	1669,09
882,63	1689,57
882,80	1669,09
882,96	1595,37
883,13	1759,21
883,29	1644,52
883,46	1693,67
883,62	1853,41
883,79	1761,25
883,95	1761,25
884,12	1722,34
884,29	1765,35
884,45	1685,48
884,62	1726,44
884,78	1632,23
884,95	1841,12
885,11	1677,29
885,28	1736,68
885,44	1724,39
885,61	1748,97
885,77	1800,16
885,94	1740,77
886,10	1675,24
886,27	1665,00
886,43	1791,97
886,60	1712,10
886,76	1697,77
886,93	1619,94
887,09	1753,06
887,26	1603,56
887,42	1691,62
887,59	1724,39
887,75	1753,06
887,92	1804,26
888,08	1671,14
888,25	1759,21
888,41	1777,64
888,58	1675,24
888,74	1640,42
888,91	1644,52
>>>>>End Processed Spectral Data<<<<<
