SpectraSuite Data File
++++++++++++++++++++++++++++++++++++
Date: Mon Jun 06 14:15:37 CEST 2016
User: root
Dark Spectrum Present: No
Reference Spectrum Present: No
Number of Sampled Component Spectra: 1
Spectrometers: USB4C02835
Integration Time (usec): 100000 (USB4C02835)
Spectra Averaged: 1 (USB4C02835)
Boxcar Smoothing: 0 (USB4C02835)
Correct for Electrical Dark: No (USB4C02835)
Strobe/Lamp Enabled: No (USB4C02835)
Correct for Detector Non-linearity: No (USB4C02835)
Correct for Stray Light: No (USB4C02835)
Number of Pixels in Processed Spectrum: 3648
>>>>>Begin Processed Spectral Data<<<<<
177,47	1499,11
177,69	1499,11
177,91	1499,11
178,13	1464,30
178,36	1486,83
178,58	1638,38
178,80	1667,05
179,02	1660,90
179,24	1658,85
179,46	1718,25
179,68	1736,68
179,90	1687,53
180,13	1630,18
180,35	1593,32
180,57	1673,19
180,79	1746,92
181,01	1708,01
181,23	1777,64
181,45	1748,97
181,67	1746,92
181,90	1828,84
182,12	1671,14
182,34	1591,27
182,56	1730,53
182,78	1734,63
183,00	1683,43
183,22	1716,20
183,44	1624,04
183,66	1783,78
183,89	1779,68
184,11	1701,86
184,33	1779,68
184,55	1814,50
184,77	1755,11
184,99	1683,43
185,21	1654,76
185,43	1837,03
185,65	1726,44
185,87	1677,29
186,10	1771,49
186,32	1771,49
186,54	1728,49
186,76	1730,53
186,98	1710,05
187,20	1677,29
187,42	1679,33
187,64	1734,63
187,86	1703,91
188,08	1748,97
188,30	1708,01
188,52	1738,73
188,75	1759,21
188,97	1826,79
189,19	1695,72
189,41	1740,77
189,63	1677,29
189,85	1699,81
190,07	1656,81
190,29	1605,61
190,51	1724,39
190,73	1630,18
190,95	1853,41
191,17	1662,95
191,39	1628,14
191,61	1697,77
191,84	1650,66
192,06	1701,86
192,28	1683,43
192,50	1820,64
192,72	1646,57
192,94	1636,33
193,16	1712,10
193,38	1705,96
193,60	1683,43
193,82	1673,19
194,04	1740,77
194,26	1712,10
194,48	1740,77
194,70	1695,72
194,92	1693,67
195,14	1708,01
195,36	1712,10
195,58	1732,58
195,80	1689,57
196,02	1714,15
196,24	1626,09
196,46	1773,54
196,69	1644,52
196,91	1947,62
197,13	1652,71
197,35	1554,41
197,57	1775,59
197,79	1632,23
198,01	1712,10
198,23	1736,68
198,45	1787,88
198,67	1648,61
198,89	1742,82
199,11	1757,16
199,33	1687,53
199,55	1503,21
199,77	1695,72
199,99	1800,16
200,21	1732,58
200,43	1695,72
200,65	1650,66
200,87	1574,89
201,09	1720,29
201,31	1632,23
201,53	1722,34
201,75	1724,39
201,97	1677,29
202,19	1654,76
202,41	1685,48
202,63	1871,84
202,85	1753,06
203,07	1787,88
203,29	1626,09
203,51	1673,19
203,73	1675,24
203,95	1867,75
204,17	1732,58
204,39	1722,34
204,61	1665,00
204,83	1691,62
205,05	1771,49
205,27	1687,53
205,49	1777,64
205,71	1642,47
205,93	1654,76
206,15	1605,61
206,37	1705,96
206,59	1677,29
206,81	1595,37
207,03	1611,75
207,25	1597,42
207,47	1775,59
207,69	1718,25
207,91	1791,97
208,13	1753,06
208,34	1677,29
208,56	1652,71
208,78	1701,86
209,00	1751,01
209,22	1687,53
209,44	1652,71
209,66	1679,33
209,88	1748,97
210,10	1740,77
210,32	1673,19
210,54	1712,10
210,76	1660,90
210,98	1701,86
211,20	1609,70
211,42	1785,83
211,64	1757,16
211,86	1775,59
212,08	1742,82
212,30	1746,92
212,52	1683,43
212,74	1689,57
212,96	1671,14
213,17	1783,78
213,39	1728,49
213,61	1779,68
213,83	1697,77
214,05	1673,19
214,27	1771,49
214,49	1675,24
214,71	1710,05
214,93	1740,77
215,15	1796,07
215,37	1763,30
215,59	1642,47
215,81	1742,82
216,03	1697,77
216,24	1728,49
216,46	1746,92
216,68	1658,85
216,90	1800,16
217,12	1828,84
217,34	1744,87
217,56	1814,50
217,78	1802,21
218,00	1773,54
218,22	1699,81
218,44	1802,21
218,66	1603,56
218,87	1789,92
219,09	1650,66
219,31	1787,88
219,53	1738,73
219,75	1677,29
219,97	1710,05
220,19	1669,09
220,41	1740,77
220,63	1796,07
220,85	1775,59
221,06	1703,91
221,28	1822,69
221,50	1759,21
221,72	1660,90
221,94	1736,68
222,16	1697,77
222,38	1665,00
222,60	1716,20
222,82	1646,57
223,03	1742,82
223,25	1599,46
223,47	1734,63
223,69	1824,74
223,91	1767,40
224,13	1714,15
224,35	1728,49
224,57	1701,86
224,78	1773,54
225,00	1683,43
225,22	1722,34
225,44	1699,81
225,66	1724,39
225,88	1677,29
226,10	1812,45
226,32	1681,38
226,53	1746,92
226,75	1638,38
226,97	1650,66
227,19	1640,42
227,41	1716,20
227,63	1681,38
227,85	1681,38
228,06	1683,43
228,28	1675,24
228,50	1789,92
228,72	1564,65
228,94	1662,95
229,16	1619,94
229,37	1617,90
229,59	1697,77
229,81	1763,30
230,03	1665,00
230,25	1626,09
230,47	1683,43
230,69	1615,85
230,90	1746,92
231,12	1587,18
231,34	1665,00
231,56	1773,54
231,78	1638,38
232,00	1714,15
232,21	1677,29
232,43	1652,71
232,65	1632,23
232,87	1697,77
233,09	1650,66
233,30	1658,85
233,52	1736,68
233,74	1673,19
233,96	1605,61
234,18	1722,34
234,40	1712,10
234,61	1804,26
234,83	1656,81
235,05	1652,71
235,27	1800,16
235,49	1806,31
235,70	1671,14
235,92	1759,21
236,14	1763,30
236,36	1867,75
236,58	1632,23
236,79	1679,33
237,01	1708,01
237,23	1740,77
237,45	1802,21
237,67	1599,46
237,88	1736,68
238,10	1816,55
238,32	1673,19
238,54	1667,05
238,76	1718,25
238,97	1619,94
239,19	1626,09
239,41	1761,25
239,63	1794,02
239,85	1652,71
240,06	1755,11
240,28	1697,77
240,50	1800,16
240,72	1771,49
240,93	1658,85
241,15	1791,97
241,37	1742,82
241,59	1744,87
241,81	1703,91
242,02	1730,53
242,24	1744,87
242,46	1662,95
242,68	1654,76
242,89	1744,87
243,11	1781,73
243,33	1738,73
243,55	1736,68
243,76	1773,54
243,98	1644,52
244,20	1624,04
244,42	1646,57
244,64	1730,53
244,85	1671,14
245,07	1642,47
245,29	1767,40
245,51	1730,53
245,72	1656,81
245,94	1701,86
246,16	1724,39
246,38	1730,53
246,59	1660,90
246,81	1619,94
247,03	1677,29
247,24	1619,94
247,46	1691,62
247,68	1687,53
247,90	1609,70
248,11	1726,44
248,33	1732,58
248,55	1732,58
248,77	1726,44
248,98	1738,73
249,20	1753,06
249,42	1755,11
249,64	1773,54
249,85	1691,62
250,07	1818,60
250,29	1722,34
250,50	1712,10
250,72	1648,61
250,94	1732,58
251,16	1820,64
251,37	1726,44
251,59	1751,01
251,81	1771,49
252,02	1767,40
252,24	1710,05
252,46	1755,11
252,68	1660,90
252,89	1671,14
253,11	1636,33
253,33	1771,49
253,54	1689,57
253,76	1615,85
253,98	1697,77
254,20	1740,77
254,41	1667,05
254,63	1708,01
254,85	1646,57
255,06	1640,42
255,28	1734,63
255,50	1693,67
255,71	1621,99
255,93	1667,05
256,15	1695,72
256,36	1697,77
256,58	1589,22
256,80	1671,14
257,02	1636,33
257,23	1697,77
257,45	1716,20
257,67	1761,25
257,88	1669,09
258,10	1722,34
258,32	1710,05
258,53	1720,29
258,75	1816,55
258,97	1652,71
259,18	1710,05
259,40	1755,11
259,62	1820,64
259,83	1830,88
260,05	1705,96
260,27	1968,10
260,48	1693,67
260,70	1683,43
260,92	1740,77
261,13	1724,39
261,35	1675,24
261,57	1705,96
261,78	1603,56
262,00	1662,95
262,22	1794,02
262,43	1650,66
262,65	1658,85
262,86	1726,44
263,08	1818,60
263,30	1765,35
263,51	1589,22
263,73	1728,49
263,95	1626,09
264,16	1646,57
264,38	1619,94
264,60	1740,77
264,81	1665,00
265,03	1765,35
265,25	1765,35
265,46	1716,20
265,68	1779,68
265,89	1662,95
266,11	1621,99
266,33	1656,81
266,54	1806,31
266,76	1726,44
266,98	1710,05
267,19	1812,45
267,41	1794,02
267,62	1691,62
267,84	1619,94
268,06	1667,05
268,27	1699,81
268,49	1806,31
268,70	1732,58
268,92	1671,14
269,14	1578,98
269,35	1628,14
269,57	1771,49
269,79	1710,05
270,00	1642,47
270,22	1800,16
270,43	1669,09
270,65	1599,46
270,87	1728,49
271,08	1791,97
271,30	1740,77
271,51	1705,96
271,73	1777,64
271,95	1755,11
272,16	1705,96
272,38	1636,33
272,59	1675,24
272,81	1757,16
273,02	1699,81
273,24	1736,68
273,46	1802,21
273,67	1599,46
273,89	1638,38
274,10	1656,81
274,32	1773,54
274,54	1800,16
274,75	1712,10
274,97	1724,39
275,18	1732,58
275,40	1761,25
275,61	1683,43
275,83	1708,01
276,05	1683,43
276,26	1677,29
276,48	1742,82
276,69	1646,57
276,91	1538,02
277,12	1697,77
277,34	1687,53
277,55	1730,53
277,77	1722,34
277,99	1638,38
278,20	1626,09
278,42	1681,38
278,63	1585,13
278,85	1611,75
279,06	1683,43
279,28	1722,34
279,49	1667,05
279,71	1738,73
279,93	1755,11
280,14	1718,25
280,36	1628,14
280,57	1820,64
280,79	1775,59
281,00	1634,28
281,22	1689,57
281,43	1822,69
281,65	1605,61
281,86	1658,85
282,08	1693,67
282,29	1697,77
282,51	1658,85
282,73	1652,71
282,94	1630,18
283,16	1746,92
283,37	1785,83
283,59	1738,73
283,80	1689,57
284,02	1658,85
284,23	1789,92
284,45	1738,73
284,66	1652,71
284,88	1642,47
285,09	1746,92
285,31	1714,15
285,52	1787,88
285,74	1591,27
285,95	1730,53
286,17	1738,73
286,38	1757,16
286,60	1650,66
286,81	1646,57
287,03	1726,44
287,24	1695,72
287,46	1728,49
287,67	1636,33
287,89	1839,08
288,10	1748,97
288,32	1695,72
288,53	1783,78
288,75	1724,39
288,96	1779,68
289,18	1687,53
289,39	1708,01
289,61	1705,96
289,82	1785,83
290,04	1869,80
290,25	1636,33
290,47	1726,44
290,68	1624,04
290,90	1820,64
291,11	1636,33
291,33	1789,92
291,54	1650,66
291,76	1665,00
291,97	1787,88
292,18	1769,44
292,40	1675,24
292,61	1626,09
292,83	1863,65
293,04	1679,33
293,26	1708,01
293,47	1673,19
293,69	1595,37
293,90	1699,81
294,12	1804,26
294,33	1703,91
294,55	1675,24
294,76	1734,63
294,97	1734,63
295,19	1880,04
295,40	1716,20
295,62	1681,38
295,83	1710,05
296,05	1675,24
296,26	1755,11
296,48	1630,18
296,69	1652,71
296,90	1697,77
297,12	1697,77
297,33	1751,01
297,55	1746,92
297,76	1714,15
297,98	1736,68
298,19	1685,48
298,41	1650,66
298,62	1656,81
298,83	1789,92
299,05	1679,33
299,26	1679,33
299,48	1716,20
299,69	1808,36
299,90	1722,34
300,12	1662,95
300,33	1699,81
300,55	1708,01
300,76	1785,83
300,98	1662,95
301,19	1800,16
301,40	1718,25
301,62	1597,42
301,83	1722,34
302,05	1693,67
302,26	1710,05
302,47	1769,44
302,69	1660,90
302,90	1712,10
303,12	1525,74
303,33	1777,64
303,54	1810,40
303,76	1646,57
303,97	1765,35
304,19	1802,21
304,40	1628,14
304,61	1652,71
304,83	1841,12
305,04	1751,01
305,26	1730,53
305,47	1673,19
305,68	1693,67
305,90	1638,38
306,11	1744,87
306,33	1667,05
306,54	1695,72
306,75	1632,23
306,97	1578,98
307,18	1697,77
307,39	1638,38
307,61	1742,82
307,82	1742,82
308,04	1671,14
308,25	1660,90
308,46	1794,02
308,68	1746,92
308,89	1677,29
309,10	1834,98
309,32	1689,57
309,53	1705,96
309,74	1730,53
309,96	1685,48
310,17	1683,43
310,39	1712,10
310,60	1746,92
310,81	1665,00
311,03	1703,91
311,24	1716,20
311,45	1691,62
311,67	1853,41
311,88	1697,77
312,09	1681,38
312,31	1710,05
312,52	1691,62
312,73	1675,24
312,95	1607,66
313,16	1636,33
313,37	1710,05
313,59	1714,15
313,80	1775,59
314,01	1744,87
314,23	1646,57
314,44	1673,19
314,65	1644,52
314,87	1703,91
315,08	1740,77
315,29	1683,43
315,51	1689,57
315,72	1599,46
315,93	1769,44
316,15	1705,96
316,36	1626,09
316,57	1650,66
316,79	1773,54
317,00	1589,22
317,21	1722,34
317,43	1638,38
317,64	1689,57
317,85	1712,10
318,07	1667,05
318,28	1728,49
318,49	1753,06
318,70	1929,19
318,92	1808,36
319,13	1800,16
319,34	1882,08
319,56	1816,55
319,77	1781,73
319,98	1865,70
320,20	1761,25
320,41	1710,05
320,62	1759,21
320,83	1701,86
321,05	1812,45
321,26	1832,93
321,47	1634,28
321,69	1695,72
321,90	1601,51
322,11	1646,57
322,32	1769,44
322,54	1822,69
322,75	1619,94
322,96	1861,60
323,18	1611,75
323,39	1570,79
323,60	1626,09
323,81	1675,24
324,03	1732,58
324,24	1687,53
324,45	1693,67
324,66	1697,77
324,88	1775,59
325,09	1808,36
325,30	1687,53
325,52	1677,29
325,73	1712,10
325,94	1599,46
326,15	1624,04
326,37	1648,61
326,58	1775,59
326,79	1783,78
327,00	1595,37
327,22	1722,34
327,43	1640,42
327,64	1544,17
327,85	1718,25
328,07	1738,73
328,28	1779,68
328,49	1640,42
328,70	1728,49
328,92	1708,01
329,13	1619,94
329,34	1699,81
329,55	1802,21
329,76	1746,92
329,98	1591,27
330,19	1773,54
330,40	1720,29
330,61	1775,59
330,83	1751,01
331,04	1648,61
331,25	1767,40
331,46	1634,28
331,68	1591,27
331,89	1761,25
332,10	1755,11
332,31	1691,62
332,52	1740,77
332,74	1736,68
332,95	1632,23
333,16	1751,01
333,37	1699,81
333,58	1701,86
333,80	1726,44
334,01	1648,61
334,22	1691,62
334,43	1658,85
334,64	1677,29
334,86	1691,62
335,07	1615,85
335,28	1765,35
335,49	1644,52
335,70	1755,11
335,92	1824,74
336,13	1783,78
336,34	1699,81
336,55	1773,54
336,76	1679,33
336,98	1581,03
337,19	1685,48
337,40	1865,70
337,61	1900,52
337,82	1699,81
338,04	1875,94
338,25	1681,38
338,46	1722,34
338,67	1693,67
338,88	1658,85
339,09	1671,14
339,31	1636,33
339,52	1705,96
339,73	1595,37
339,94	1652,71
340,15	1736,68
340,36	1703,91
340,58	1753,06
340,79	1628,14
341,00	1738,73
341,21	1546,22
341,42	1816,55
341,63	1617,90
341,85	1744,87
342,06	1712,10
342,27	1679,33
342,48	1755,11
342,69	1646,57
342,90	1683,43
343,12	1685,48
343,33	1748,97
343,54	1712,10
343,75	1824,74
343,96	1705,96
344,17	1705,96
344,38	1669,09
344,60	1714,15
344,81	1615,85
345,02	1656,81
345,23	1822,69
345,44	1863,65
345,65	1746,92
345,86	1757,16
346,07	1712,10
346,29	1687,53
346,50	1732,58
346,71	1687,53
346,92	1812,45
347,13	1824,74
347,34	1689,57
347,55	1683,43
347,76	1716,20
347,98	1650,66
348,19	1634,28
348,40	1869,80
348,61	1621,99
348,82	1845,22
349,03	1779,68
349,24	1611,75
349,45	1771,49
349,66	1652,71
349,88	1697,77
350,09	1695,72
350,30	1789,92
350,51	1791,97
350,72	1728,49
350,93	1726,44
351,14	1722,34
351,35	1755,11
351,56	1728,49
351,77	1705,96
351,99	1732,58
352,20	1755,11
352,41	1767,40
352,62	1648,61
352,83	1695,72
353,04	1679,33
353,25	1640,42
353,46	1726,44
353,67	1796,07
353,88	1599,46
354,09	1669,09
354,30	1640,42
354,52	1710,05
354,73	1621,99
354,94	1759,21
355,15	1718,25
355,36	1841,12
355,57	1665,00
355,78	1677,29
355,99	1687,53
356,20	1740,77
356,41	1783,78
356,62	1712,10
356,83	1722,34
357,04	1677,29
357,25	1581,03
357,46	1626,09
357,68	1626,09
357,89	1658,85
358,10	1710,05
358,31	1705,96
358,52	1640,42
358,73	1671,14
358,94	1675,24
359,15	1638,38
359,36	1814,50
359,57	1744,87
359,78	1693,67
359,99	1789,92
360,20	1568,74
360,41	1722,34
360,62	1679,33
360,83	1652,71
361,04	1708,01
361,25	1763,30
361,46	1755,11
361,67	1742,82
361,88	1771,49
362,09	1728,49
362,30	1755,11
362,51	1679,33
362,72	1701,86
362,93	1759,21
363,14	1736,68
363,35	1732,58
363,56	1679,33
363,78	1787,88
363,99	1722,34
364,20	1665,00
364,41	1765,35
364,62	1714,15
364,83	1722,34
365,04	1648,61
365,25	1710,05
365,46	1804,26
365,67	1626,09
365,88	1609,70
366,09	1628,14
366,30	1703,91
366,51	1775,59
366,72	1611,75
366,93	1691,62
367,14	1710,05
367,35	1738,73
367,56	1695,72
367,77	1779,68
367,98	1748,97
368,18	1640,42
368,39	1714,15
368,60	1640,42
368,81	1783,78
369,02	1681,38
369,23	1759,21
369,44	1574,89
369,65	1650,66
369,86	1710,05
370,07	1748,97
370,28	1644,52
370,49	1773,54
370,70	1753,06
370,91	1722,34
371,12	1583,08
371,33	1759,21
371,54	1697,77
371,75	1845,22
371,96	1558,50
372,17	1593,32
372,38	1812,45
372,59	1718,25
372,80	1710,05
373,01	1683,43
373,22	1759,21
373,43	1699,81
373,64	1560,55
373,85	1722,34
374,06	1847,27
374,26	1738,73
374,47	1673,19
374,68	1753,06
374,89	1699,81
375,10	1718,25
375,31	1757,16
375,52	1767,40
375,73	1648,61
375,94	1628,14
376,15	1789,92
376,36	1626,09
376,57	1732,58
376,78	1656,81
376,99	1689,57
377,20	1738,73
377,40	1624,04
377,61	1810,40
377,82	1648,61
378,03	1763,30
378,24	1703,91
378,45	1687,53
378,66	1685,48
378,87	1611,75
379,08	1583,08
379,29	1718,25
379,50	1742,82
379,71	1710,05
379,91	1646,57
380,12	1662,95
380,33	1708,01
380,54	1673,19
380,75	1619,94
380,96	1703,91
381,17	1755,11
381,38	1654,76
381,59	1738,73
381,80	1744,87
382,00	1783,78
382,21	1712,10
382,42	1806,31
382,63	1863,65
382,84	1740,77
383,05	1769,44
383,26	1785,83
383,47	1796,07
383,68	1777,64
383,88	1767,40
384,09	1724,39
384,30	1800,16
384,51	1771,49
384,72	1718,25
384,93	1714,15
385,14	1716,20
385,35	1785,83
385,55	1673,19
385,76	1722,34
385,97	1714,15
386,18	1730,53
386,39	1570,79
386,60	1738,73
386,81	1660,90
387,02	1615,85
387,22	1626,09
387,43	1744,87
387,64	1751,01
387,85	1890,28
388,06	2279,39
388,27	4321,21
388,48	6887,32
388,68	8228,74
388,89	9725,80
389,10	9940,84
389,31	8617,85
389,52	7686,03
389,73	6840,22
389,93	6391,71
390,14	5785,51
390,35	5236,66
390,56	4552,63
390,77	3737,54
390,98	3065,81
391,18	2504,67
391,39	2199,52
391,60	1871,84
391,81	1904,61
392,02	1736,68
392,23	1908,71
392,43	1718,25
392,64	1802,21
392,85	1730,53
393,06	1798,12
393,27	1716,20
393,47	1669,09
393,68	1667,05
393,89	1687,53
394,10	1742,82
394,31	1583,08
394,52	1699,81
394,72	1710,05
394,93	1775,59
395,14	1650,66
395,35	1785,83
395,56	1671,14
395,76	1775,59
395,97	1787,88
396,18	1839,08
396,39	1787,88
396,60	1992,67
396,80	1845,22
397,01	1839,08
397,22	1806,31
397,43	1853,41
397,64	1660,90
397,84	1851,36
398,05	1900,52
398,26	1724,39
398,47	1787,88
398,67	1789,92
398,88	1718,25
399,09	1691,62
399,30	1679,33
399,51	1798,12
399,71	1654,76
399,92	1746,92
400,13	1722,34
400,34	1685,48
400,54	1761,25
400,75	1802,21
400,96	1734,63
401,17	1771,49
401,37	1718,25
401,58	1722,34
401,79	1685,48
402,00	1787,88
402,21	2074,59
402,41	1990,63
402,62	2027,49
402,83	1961,95
403,04	1941,47
403,24	2097,12
403,45	1865,70
403,66	1867,75
403,87	1816,55
404,07	1845,22
404,28	1882,08
404,49	1904,61
404,70	1763,30
404,90	1771,49
405,11	1677,29
405,32	1765,35
405,52	1775,59
405,73	1644,52
405,94	1701,86
406,15	1705,96
406,35	1755,11
406,56	1726,44
406,77	1681,38
406,98	1683,43
407,18	1591,27
407,39	1798,12
407,60	1714,15
407,80	1740,77
408,01	1718,25
408,22	1685,48
408,43	1632,23
408,63	1732,58
408,84	1679,33
409,05	1783,78
409,25	1621,99
409,46	1613,80
409,67	1660,90
409,88	1714,15
410,08	1658,85
410,29	1738,73
410,50	1734,63
410,70	1730,53
410,91	1587,18
411,12	1738,73
411,32	1677,29
411,53	1644,52
411,74	1783,78
411,95	1796,07
412,15	1777,64
412,36	1828,84
412,57	1703,91
412,77	1763,30
412,98	1765,35
413,19	1654,76
413,39	1787,88
413,60	1798,12
413,81	1820,64
414,01	1591,27
414,22	1689,57
414,43	1785,83
414,63	1738,73
414,84	1773,54
415,05	1685,48
415,25	1677,29
415,46	1802,21
415,67	1683,43
415,87	1824,74
416,08	1677,29
416,29	1673,19
416,49	1789,92
416,70	1619,94
416,91	1613,80
417,11	1783,78
417,32	1742,82
417,53	1755,11
417,73	1755,11
417,94	1718,25
418,15	1648,61
418,35	1796,07
418,56	1628,14
418,77	1816,55
418,97	1753,06
419,18	1769,44
419,38	1587,18
419,59	1654,76
419,80	1810,40
420,00	1660,90
420,21	1703,91
420,42	1800,16
420,62	1701,86
420,83	1695,72
421,04	1681,38
421,24	1730,53
421,45	1816,55
421,65	1757,16
421,86	1714,15
422,07	1701,86
422,27	1767,40
422,48	1755,11
422,69	1634,28
422,89	1685,48
423,10	1654,76
423,30	1640,42
423,51	1673,19
423,72	1736,68
423,92	1693,67
424,13	1630,18
424,33	1681,38
424,54	1753,06
424,75	1734,63
424,95	1816,55
425,16	1693,67
425,36	1660,90
425,57	1728,49
425,78	1755,11
425,98	1789,92
426,19	1687,53
426,39	1628,14
426,60	1724,39
426,81	1904,61
427,01	1726,44
427,22	1673,19
427,42	1648,61
427,63	1607,66
427,83	1763,30
428,04	1789,92
428,25	1720,29
428,45	1808,36
428,66	1744,87
428,86	1800,16
429,07	1730,53
429,28	1800,16
429,48	1681,38
429,69	1632,23
429,89	1656,81
430,10	1593,32
430,30	1783,78
430,51	1765,35
430,71	1652,71
430,92	1691,62
431,13	1708,01
431,33	1802,21
431,54	1718,25
431,74	1769,44
431,95	1781,73
432,15	1619,94
432,36	1697,77
432,56	1777,64
432,77	1834,98
432,98	1849,32
433,18	1720,29
433,39	1630,18
433,59	1669,09
433,80	1794,02
434,00	1849,32
434,21	1652,71
434,41	1675,24
434,62	1888,23
434,82	1644,52
435,03	1648,61
435,23	1708,01
435,44	1673,19
435,64	1687,53
435,85	1755,11
436,06	1720,29
436,26	1800,16
436,47	1730,53
436,67	1771,49
436,88	1662,95
437,08	1759,21
437,29	1787,88
437,49	1746,92
437,70	1826,79
437,90	1730,53
438,11	1857,51
438,31	1751,01
438,52	1843,17
438,72	1869,80
438,93	1964,00
439,13	1783,78
439,34	1804,26
439,54	1798,12
439,75	1816,55
439,95	1720,29
440,16	1718,25
440,36	1755,11
440,57	1738,73
440,77	1771,49
440,98	1791,97
441,18	1812,45
441,39	1716,20
441,59	1617,90
441,80	1824,74
442,00	1660,90
442,21	1767,40
442,41	1636,33
442,62	1761,25
442,82	1724,39
443,02	1665,00
443,23	1773,54
443,43	1638,38
443,64	1771,49
443,84	1644,52
444,05	1779,68
444,25	1736,68
444,46	1689,57
444,66	1748,97
444,87	1781,73
445,07	1607,66
445,28	1714,15
445,48	1902,56
445,69	1810,40
445,89	1894,37
446,09	1773,54
446,30	2047,97
446,50	2582,49
446,71	3848,13
446,91	4286,40
447,12	4722,62
447,32	4868,02
447,53	4339,65
447,73	3948,48
447,93	3469,26
448,14	3334,09
448,34	3149,78
448,55	2979,79
448,75	2881,49
448,96	2789,33
449,16	2340,83
449,36	2240,48
449,57	2097,12
449,77	1980,39
449,98	1863,65
450,18	1738,73
450,39	1779,68
450,59	1748,97
450,79	1736,68
451,00	1708,01
451,20	1779,68
451,41	1755,11
451,61	1773,54
451,81	1759,21
452,02	1769,44
452,22	1708,01
452,43	1689,57
452,63	1697,77
452,84	1728,49
453,04	1722,34
453,24	1740,77
453,45	1699,81
453,65	1646,57
453,86	1665,00
454,06	1814,50
454,26	1748,97
454,47	1644,52
454,67	1839,08
454,87	1765,35
455,08	1726,44
455,28	1804,26
455,49	1757,16
455,69	1638,38
455,89	1832,93
456,10	1822,69
456,30	1718,25
456,51	1697,77
456,71	1794,02
456,91	1779,68
457,12	1763,30
457,32	1740,77
457,52	1619,94
457,73	1794,02
457,93	1804,26
458,14	1740,77
458,34	1642,47
458,54	1802,21
458,75	1783,78
458,95	1714,15
459,15	1804,26
459,36	1779,68
459,56	1755,11
459,76	1931,23
459,97	1738,73
460,17	1681,38
460,37	1826,79
460,58	1726,44
460,78	1771,49
460,99	1769,44
461,19	1789,92
461,39	1759,21
461,60	1691,62
461,80	1748,97
462,00	1648,61
462,21	1744,87
462,41	1640,42
462,61	1640,42
462,82	1626,09
463,02	1714,15
463,22	1734,63
463,43	1779,68
463,63	1722,34
463,83	1683,43
464,04	1751,01
464,24	1695,72
464,44	1722,34
464,64	1767,40
464,85	1761,25
465,05	1816,55
465,25	1783,78
465,46	1683,43
465,66	1771,49
465,86	1808,36
466,07	1734,63
466,27	1701,86
466,47	1712,10
466,68	1632,23
466,88	1812,45
467,08	1796,07
467,29	1812,45
467,49	1728,49
467,69	1794,02
467,89	1656,81
468,10	1718,25
468,30	1710,05
468,50	1763,30
468,71	1740,77
468,91	1640,42
469,11	1804,26
469,31	1708,01
469,52	1697,77
469,72	1851,36
469,92	1791,97
470,13	1714,15
470,33	1785,83
470,53	1861,60
470,73	2090,98
470,94	2230,24
471,14	2424,80
471,34	2553,82
471,54	2500,57
471,75	2265,05
471,95	2004,96
472,15	2080,74
472,36	2088,93
472,56	2031,58
472,76	2068,45
472,96	2050,02
473,17	1951,71
473,37	1867,75
473,57	1822,69
473,77	1882,08
473,98	1769,44
474,18	1701,86
474,38	1841,12
474,58	1705,96
474,79	1681,38
474,99	1744,87
475,19	1779,68
475,39	1675,24
475,60	1808,36
475,80	1783,78
476,00	1746,92
476,20	1656,81
476,41	1705,96
476,61	1832,93
476,81	1765,35
477,01	1628,14
477,21	1845,22
477,42	1673,19
477,62	1665,00
477,82	1665,00
478,02	1693,67
478,23	1767,40
478,43	1701,86
478,63	1689,57
478,83	1648,61
479,03	1738,73
479,24	1785,83
479,44	1794,02
479,64	1693,67
479,84	1587,18
480,04	1621,99
480,25	1722,34
480,45	1665,00
480,65	1708,01
480,85	1794,02
481,06	1708,01
481,26	1660,90
481,46	1826,79
481,66	1714,15
481,86	1667,05
482,06	1859,56
482,27	1701,86
482,47	1630,18
482,67	1785,83
482,87	1679,33
483,07	1802,21
483,28	1748,97
483,48	1656,81
483,68	1667,05
483,88	1683,43
484,08	1650,66
484,29	1638,38
484,49	1716,20
484,69	1783,78
484,89	1699,81
485,09	1785,83
485,29	1773,54
485,50	1744,87
485,70	1740,77
485,90	1730,53
486,10	1691,62
486,30	1771,49
486,50	1791,97
486,71	1798,12
486,91	1755,11
487,11	1830,88
487,31	1730,53
487,51	1751,01
487,71	1656,81
487,91	1679,33
488,12	1648,61
488,32	1638,38
488,52	1679,33
488,72	1603,56
488,92	1718,25
489,12	1837,03
489,32	1753,06
489,53	1685,48
489,73	1665,00
489,93	1800,16
490,13	1757,16
490,33	1681,38
490,53	1703,91
490,73	1767,40
490,94	1677,29
491,14	1814,50
491,34	1851,36
491,54	2111,46
491,74	2551,77
491,94	2918,36
492,14	3047,38
492,34	2996,18
492,54	2809,81
492,75	2424,80
492,95	2498,52
493,15	2346,97
493,35	2213,85
493,55	2123,74
493,75	2080,74
493,95	2174,94
494,15	1939,43
494,35	1880,04
494,56	1851,36
494,76	1845,22
494,96	1742,82
495,16	1753,06
495,36	1736,68
495,56	1789,92
495,76	1699,81
495,96	1757,16
496,16	1615,85
496,36	1765,35
496,56	1677,29
496,77	1740,77
496,97	1679,33
497,17	1812,45
497,37	1691,62
497,57	1828,84
497,77	1748,97
497,97	1681,38
498,17	1781,73
498,37	1689,57
498,57	1718,25
498,77	1656,81
498,97	1783,78
499,17	1959,91
499,38	1724,39
499,58	1841,12
499,78	1753,06
499,98	1767,40
500,18	1718,25
500,38	1642,47
500,58	1812,45
500,78	2547,67
500,98	4612,03
501,18	5767,08
501,38	6741,91
501,58	7180,18
501,78	6739,87
501,98	5597,10
502,18	5003,19
502,38	4431,80
502,58	4171,71
502,78	3758,02
502,98	3782,60
503,18	3467,21
503,38	3237,84
503,59	2850,77
503,79	2725,85
503,99	2459,61
504,19	2258,91
504,39	2174,94
504,59	2222,05
504,79	2078,69
504,99	2072,54
505,19	1920,99
505,39	1935,33
505,59	2027,49
505,79	1877,99
505,99	1818,60
506,19	1812,45
506,39	1816,55
506,59	1779,68
506,79	1720,29
506,99	1818,60
507,19	1759,21
507,39	1748,97
507,59	1734,63
507,79	1691,62
507,99	1695,72
508,19	1742,82
508,39	1660,90
508,59	1675,24
508,79	1832,93
508,99	1877,99
509,19	1683,43
509,39	1785,83
509,59	1648,61
509,79	1738,73
509,99	1730,53
510,19	1808,36
510,39	1769,44
510,59	1734,63
510,79	1716,20
510,99	1597,42
511,19	1705,96
511,39	1810,40
511,59	1787,88
511,79	1841,12
511,99	1849,32
512,19	1771,49
512,38	1763,30
512,58	1718,25
512,78	1677,29
512,98	1699,81
513,18	1798,12
513,38	1662,95
513,58	1753,06
513,78	1716,20
513,98	1767,40
514,18	1691,62
514,38	1691,62
514,58	1783,78
514,78	1656,81
514,98	1628,14
515,18	1765,35
515,38	1621,99
515,58	1798,12
515,78	1652,71
515,98	1759,21
516,18	1812,45
516,38	1712,10
516,57	1656,81
516,77	1734,63
516,97	1755,11
517,17	1802,21
517,37	1695,72
517,57	1767,40
517,77	1634,28
517,97	1681,38
518,17	1767,40
518,37	1757,16
518,57	1695,72
518,77	1701,86
518,97	1812,45
519,16	1796,07
519,36	1845,22
519,56	1714,15
519,76	1759,21
519,96	1789,92
520,16	1804,26
520,36	1640,42
520,56	1796,07
520,76	1730,53
520,96	1757,16
521,16	1755,11
521,35	1769,44
521,55	1808,36
521,75	1650,66
521,95	1705,96
522,15	1712,10
522,35	1646,57
522,55	1724,39
522,75	1742,82
522,95	1714,15
523,14	1693,67
523,34	1757,16
523,54	1681,38
523,74	1714,15
523,94	1742,82
524,14	1734,63
524,34	1710,05
524,54	1851,36
524,73	1757,16
524,93	1832,93
525,13	1771,49
525,33	1617,90
525,53	1869,80
525,73	1781,73
525,93	1691,62
526,13	1730,53
526,32	1716,20
526,52	1798,12
526,72	1757,16
526,92	1808,36
527,12	1783,78
527,32	1695,72
527,52	1757,16
527,71	1779,68
527,91	1785,83
528,11	1732,58
528,31	1677,29
528,51	1742,82
528,71	1742,82
528,90	1781,73
529,10	1718,25
529,30	1796,07
529,50	1599,46
529,70	1687,53
529,90	1794,02
530,09	1748,97
530,29	1648,61
530,49	1693,67
530,69	1935,33
530,89	1685,48
531,09	1757,16
531,28	1705,96
531,48	1818,60
531,68	1755,11
531,88	1785,83
532,08	1738,73
532,28	1777,64
532,47	1734,63
532,67	1773,54
532,87	1744,87
533,07	1619,94
533,27	1791,97
533,46	1765,35
533,66	1734,63
533,86	1839,08
534,06	1718,25
534,26	1755,11
534,45	1695,72
534,65	1830,88
534,85	1742,82
535,05	1673,19
535,25	1890,28
535,44	1583,08
535,64	1724,39
535,84	1677,29
536,04	1640,42
536,24	1636,33
536,43	1718,25
536,63	1759,21
536,83	1736,68
537,03	1765,35
537,22	1621,99
537,42	1685,48
537,62	1800,16
537,82	1675,24
538,02	1753,06
538,21	1783,78
538,41	1830,88
538,61	1769,44
538,81	1763,30
539,00	1845,22
539,20	1658,85
539,40	1726,44
539,60	1812,45
539,79	1857,51
539,99	1736,68
540,19	1691,62
540,39	1697,77
540,58	1822,69
540,78	1796,07
540,98	1744,87
541,18	1845,22
541,37	1810,40
541,57	1722,34
541,77	1755,11
541,97	1716,20
542,16	1718,25
542,36	1773,54
542,56	1740,77
542,76	1832,93
542,95	1765,35
543,15	1798,12
543,35	1738,73
543,54	1652,71
543,74	1650,66
543,94	1767,40
544,14	1689,57
544,33	1781,73
544,53	1716,20
544,73	1738,73
544,93	1738,73
545,12	1638,38
545,32	1730,53
545,52	1675,24
545,71	1621,99
545,91	1693,67
546,11	1816,55
546,30	1738,73
546,50	1742,82
546,70	1703,91
546,90	1652,71
547,09	1619,94
547,29	1726,44
547,49	1744,87
547,68	1755,11
547,88	1640,42
548,08	1794,02
548,27	2187,23
548,47	1753,06
548,67	1638,38
548,87	1763,30
549,06	1718,25
549,26	1771,49
549,46	1667,05
549,65	1722,34
549,85	1705,96
550,05	1695,72
550,24	1724,39
550,44	1722,34
550,64	1785,83
550,83	1740,77
551,03	1845,22
551,23	1798,12
551,42	1681,38
551,62	1718,25
551,82	1730,53
552,01	1726,44
552,21	1775,59
552,41	1671,14
552,60	1849,32
552,80	1730,53
553,00	1767,40
553,19	1775,59
553,39	1822,69
553,59	1689,57
553,78	1746,92
553,98	1687,53
554,17	1683,43
554,37	1796,07
554,57	1736,68
554,76	1742,82
554,96	1665,00
555,16	1746,92
555,35	1746,92
555,55	1730,53
555,75	1748,97
555,94	1810,40
556,14	1662,95
556,33	1767,40
556,53	1726,44
556,73	1724,39
556,92	1789,92
557,12	1767,40
557,32	1748,97
557,51	1834,98
557,71	1738,73
557,90	1787,88
558,10	1812,45
558,30	1753,06
558,49	1732,58
558,69	1693,67
558,88	1736,68
559,08	1755,11
559,28	1650,66
559,47	1777,64
559,67	1753,06
559,86	1849,32
560,06	1730,53
560,26	1740,77
560,45	1746,92
560,65	1669,09
560,84	1812,45
561,04	1642,47
561,24	1738,73
561,43	1744,87
561,63	1826,79
561,82	1777,64
562,02	1757,16
562,22	1689,57
562,41	1697,77
562,61	1755,11
562,80	1665,00
563,00	1929,19
563,19	1765,35
563,39	1882,08
563,59	1806,31
563,78	1703,91
563,98	1673,19
564,17	1630,18
564,37	1656,81
564,56	1724,39
564,76	1669,09
564,96	1837,03
565,15	1691,62
565,35	1863,65
565,54	1705,96
565,74	1787,88
565,93	1808,36
566,13	1685,48
566,32	1765,35
566,52	1748,97
566,71	1708,01
566,91	1742,82
567,11	1767,40
567,30	1714,15
567,50	1701,86
567,69	1802,21
567,89	1738,73
568,08	1751,01
568,28	1802,21
568,47	1695,72
568,67	1753,06
568,86	1658,85
569,06	1830,88
569,25	1740,77
569,45	1697,77
569,64	1693,67
569,84	1781,73
570,04	1781,73
570,23	1755,11
570,43	1695,72
570,62	1746,92
570,82	1841,12
571,01	1718,25
571,21	1673,19
571,40	1673,19
571,60	1763,30
571,79	1787,88
571,99	1740,77
572,18	1689,57
572,38	1734,63
572,57	1708,01
572,77	1785,83
572,96	1877,99
573,16	1781,73
573,35	1728,49
573,55	1871,84
573,74	1748,97
573,94	1703,91
574,13	1763,30
574,33	1861,60
574,52	1748,97
574,71	1769,44
574,91	1814,50
575,10	1669,09
575,30	1740,77
575,49	1650,66
575,69	1683,43
575,88	1730,53
576,08	1808,36
576,27	1740,77
576,47	1755,11
576,66	1830,88
576,86	1767,40
577,05	1746,92
577,25	1791,97
577,44	1939,43
577,64	1681,38
577,83	1755,11
578,02	1656,81
578,22	1832,93
578,41	1789,92
578,61	1699,81
578,80	1695,72
579,00	1771,49
579,19	1685,48
579,39	1769,44
579,58	1740,77
579,77	1681,38
579,97	1812,45
580,16	1785,83
580,36	1765,35
580,55	1877,99
580,75	1804,26
580,94	1834,98
581,13	1814,50
581,33	1865,70
581,52	1740,77
581,72	1853,41
581,91	1841,12
582,11	1703,91
582,30	1843,17
582,49	1853,41
582,69	1826,79
582,88	1816,55
583,08	1849,32
583,27	1796,07
583,47	1789,92
583,66	1759,21
583,85	1744,87
584,05	1732,58
584,24	1779,68
584,44	1822,69
584,63	1814,50
584,82	1861,60
585,02	1834,98
585,21	1740,77
585,41	1853,41
585,60	1857,51
585,79	2019,30
585,99	1871,84
586,18	1859,56
586,37	2250,72
586,57	3444,68
586,76	10002,28
586,96	24477,32
587,15	34377,20
587,34	40734,10
587,54	42315,13
587,73	36855,25
587,93	26332,78
588,12	21710,52
588,31	18568,93
588,51	16137,99
588,70	15251,22
588,89	14061,35
589,09	12515,14
589,28	11048,79
589,47	9482,10
589,67	8181,64
589,86	6485,92
590,06	4896,69
590,25	3948,48
590,44	3035,09
590,64	2678,74
590,83	2217,95
591,02	2088,93
591,22	2015,20
591,41	1951,71
591,60	1849,32
591,80	1990,63
591,99	1796,07
592,18	1777,64
592,38	1916,90
592,57	1806,31
592,76	1730,53
592,96	1759,21
593,15	1830,88
593,34	1828,84
593,54	1781,73
593,73	1787,88
593,92	1714,15
594,12	1759,21
594,31	1773,54
594,50	1791,97
594,70	1718,25
594,89	1875,94
595,08	1730,53
595,28	1832,93
595,47	1964,00
595,66	1800,16
595,86	1662,95
596,05	1765,35
596,24	1675,24
596,43	1808,36
596,63	1918,95
596,82	1773,54
597,01	1714,15
597,21	1826,79
597,40	1714,15
597,59	1783,78
597,79	1775,59
597,98	1738,73
598,17	1816,55
598,36	1751,01
598,56	1834,98
598,75	1675,24
598,94	1783,78
599,14	1746,92
599,33	1732,58
599,52	1773,54
599,71	1781,73
599,91	1724,39
600,10	1771,49
600,29	1767,40
600,48	1822,69
600,68	1681,38
600,87	1742,82
601,06	1732,58
601,26	1769,44
601,45	1718,25
601,64	1689,57
601,83	1816,55
602,03	1763,30
602,22	1722,34
602,41	1818,60
602,60	1798,12
602,80	1757,16
602,99	1714,15
603,18	1699,81
603,37	1722,34
603,57	1794,02
603,76	1861,60
603,95	1834,98
604,14	1730,53
604,34	1640,42
604,53	1748,97
604,72	1804,26
604,91	1673,19
605,10	1839,08
605,30	1681,38
605,49	1869,80
605,68	1849,32
605,87	1730,53
606,07	1691,62
606,26	1708,01
606,45	1775,59
606,64	1714,15
606,84	1720,29
607,03	1722,34
607,22	1796,07
607,41	1710,05
607,60	1667,05
607,80	1738,73
607,99	1755,11
608,18	1787,88
608,37	1769,44
608,56	1697,77
608,76	1736,68
608,95	1818,60
609,14	1714,15
609,33	1746,92
609,52	1761,25
609,72	1777,64
609,91	1794,02
610,10	1738,73
610,29	1826,79
610,48	1843,17
610,68	1699,81
610,87	1681,38
611,06	1783,78
611,25	1794,02
611,44	1769,44
611,63	1787,88
611,83	1779,68
612,02	1660,90
612,21	1798,12
612,40	1609,70
612,59	1742,82
612,79	1671,14
612,98	1648,61
613,17	1796,07
613,36	1697,77
613,55	1830,88
613,74	1589,22
613,93	1703,91
614,13	1683,43
614,32	1644,52
614,51	1773,54
614,70	1738,73
614,89	1675,24
615,08	1785,83
615,28	2125,79
615,47	1603,56
615,66	1660,90
615,85	1746,92
616,04	1843,17
616,23	1806,31
616,42	1720,29
616,62	1763,30
616,81	1730,53
617,00	1763,30
617,19	1759,21
617,38	1722,34
617,57	1753,06
617,76	1753,06
617,95	1722,34
618,15	1791,97
618,34	1730,53
618,53	1660,90
618,72	1744,87
618,91	1810,40
619,10	1841,12
619,29	1734,63
619,48	1624,04
619,68	1628,14
619,87	1720,29
620,06	1755,11
620,25	1751,01
620,44	1769,44
620,63	1718,25
620,82	1748,97
621,01	1720,29
621,20	1742,82
621,39	1765,35
621,59	1687,53
621,78	1818,60
621,97	1730,53
622,16	1814,50
622,35	1691,62
622,54	1738,73
622,73	1718,25
622,92	1593,32
623,11	1777,64
623,30	1779,68
623,49	1751,01
623,68	1736,68
623,88	1816,55
624,07	1665,00
624,26	1716,20
624,45	1720,29
624,64	1755,11
624,83	1726,44
625,02	1722,34
625,21	1697,77
625,40	1683,43
625,59	1763,30
625,78	1744,87
625,97	1779,68
626,16	1751,01
626,35	1812,45
626,54	1740,77
626,74	1789,92
626,93	1710,05
627,12	1695,72
627,31	1785,83
627,50	1779,68
627,69	1791,97
627,88	1683,43
628,07	1705,96
628,26	1589,22
628,45	1736,68
628,64	1705,96
628,83	1748,97
629,02	1654,76
629,21	1693,67
629,40	1748,97
629,59	1701,86
629,78	1722,34
629,97	1730,53
630,16	1699,81
630,35	1669,09
630,54	1687,53
630,73	1677,29
630,92	1789,92
631,11	1650,66
631,30	1697,77
631,49	1689,57
631,68	1732,58
631,87	1779,68
632,06	1613,80
632,25	1812,45
632,44	1740,77
632,63	1708,01
632,82	1667,05
633,01	1660,90
633,20	1697,77
633,39	1734,63
633,58	1624,04
633,77	1767,40
633,96	1732,58
634,15	1818,60
634,34	1757,16
634,53	1720,29
634,72	1705,96
634,91	1601,51
635,10	1697,77
635,29	1802,21
635,48	1726,44
635,67	1665,00
635,86	1685,48
636,05	1796,07
636,24	1718,25
636,43	1705,96
636,62	1753,06
636,81	1546,22
637,00	1806,31
637,19	1767,40
637,38	1761,25
637,57	1669,09
637,76	1654,76
637,95	1746,92
638,14	1619,94
638,33	1703,91
638,52	1669,09
638,71	1638,38
638,89	1617,90
639,08	1816,55
639,27	1789,92
639,46	1644,52
639,65	1857,51
639,84	1708,01
640,03	1703,91
640,22	1699,81
640,41	1796,07
640,60	1687,53
640,79	1697,77
640,98	1734,63
641,17	1775,59
641,36	1783,78
641,55	1763,30
641,74	1615,85
641,92	1679,33
642,11	1578,98
642,30	1634,28
642,49	1693,67
642,68	1718,25
642,87	1728,49
643,06	1726,44
643,25	1691,62
643,44	1636,33
643,63	1646,57
643,82	1761,25
644,00	1673,19
644,19	1781,73
644,38	1697,77
644,57	1681,38
644,76	1675,24
644,95	1722,34
645,14	1683,43
645,33	1687,53
645,52	1662,95
645,71	1615,85
645,89	1601,51
646,08	1705,96
646,27	1726,44
646,46	1824,74
646,65	1683,43
646,84	1718,25
647,03	1675,24
647,22	1701,86
647,40	1738,73
647,59	1683,43
647,78	1648,61
647,97	1656,81
648,16	1634,28
648,35	1877,99
648,54	1724,39
648,73	1662,95
648,91	1742,82
649,10	1773,54
649,29	1632,23
649,48	1746,92
649,67	1685,48
649,86	1734,63
650,05	1636,33
650,23	1759,21
650,42	1599,46
650,61	1779,68
650,80	1738,73
650,99	1855,46
651,18	1726,44
651,36	1785,83
651,55	1601,51
651,74	1732,58
651,93	1689,57
652,12	1726,44
652,31	1691,62
652,49	1669,09
652,68	1652,71
652,87	1763,30
653,06	1710,05
653,25	1818,60
653,44	1660,90
653,62	1699,81
653,81	1708,01
654,00	1726,44
654,19	1746,92
654,38	1806,31
654,56	1689,57
654,75	1744,87
654,94	1720,29
655,13	1742,82
655,32	1599,46
655,51	1775,59
655,69	1665,00
655,88	1726,44
656,07	1644,52
656,26	1777,64
656,45	1628,14
656,63	1699,81
656,82	1757,16
657,01	1662,95
657,20	1738,73
657,38	1757,16
657,57	1671,14
657,76	1603,56
657,95	1765,35
658,14	1669,09
658,32	1667,05
658,51	1566,70
658,70	1701,86
658,89	1726,44
659,08	1718,25
659,26	1753,06
659,45	1654,76
659,64	1722,34
659,83	1634,28
660,01	1814,50
660,20	1738,73
660,39	1800,16
660,58	1548,26
660,76	1761,25
660,95	1632,23
661,14	1728,49
661,33	1656,81
661,51	1689,57
661,70	1662,95
661,89	1744,87
662,08	1658,85
662,26	1591,27
662,45	1697,77
662,64	1820,64
662,83	1732,58
663,01	1675,24
663,20	1703,91
663,39	1757,16
663,58	1640,42
663,76	1681,38
663,95	1728,49
664,14	1640,42
664,32	1667,05
664,51	1673,19
664,70	1630,18
664,89	1685,48
665,07	1671,14
665,26	1763,30
665,45	1607,66
665,64	1759,21
665,82	1748,97
666,01	1751,01
666,20	1675,24
666,38	1738,73
666,57	1798,12
666,76	2195,42
666,95	4530,11
667,13	10276,71
667,32	15066,91
667,51	17970,93
667,69	19117,79
667,88	17958,64
668,07	12449,60
668,25	9572,21
668,44	8189,83
668,63	7372,69
668,81	6877,08
669,00	6225,82
669,19	5740,46
669,38	5064,63
669,56	4503,48
669,75	3968,96
669,94	3510,22
670,12	2971,60
670,31	2574,30
670,50	2252,77
670,68	1972,19
670,87	1884,13
671,06	1796,07
671,24	1796,07
671,43	1753,06
671,62	1736,68
671,80	1726,44
671,99	1767,40
672,18	1724,39
672,36	1769,44
672,55	1779,68
672,74	1708,01
672,92	1687,53
673,11	1773,54
673,29	1656,81
673,48	1767,40
673,67	1656,81
673,85	1773,54
674,04	1589,22
674,23	1759,21
674,41	1777,64
674,60	1755,11
674,79	1673,19
674,97	1636,33
675,16	1785,83
675,34	1755,11
675,53	1611,75
675,72	1814,50
675,90	1845,22
676,09	1640,42
676,28	1679,33
676,46	1677,29
676,65	1724,39
676,83	1603,56
677,02	1751,01
677,21	1796,07
677,39	1822,69
677,58	1703,91
677,77	1720,29
677,95	1636,33
678,14	1652,71
678,32	1773,54
678,51	1675,24
678,70	1794,02
678,88	1703,91
679,07	1781,73
679,25	1697,77
679,44	1640,42
679,63	1652,71
679,81	1708,01
680,00	1734,63
680,18	1849,32
680,37	1794,02
680,55	1681,38
680,74	1652,71
680,93	1619,94
681,11	1650,66
681,30	1748,97
681,48	1779,68
681,67	1691,62
681,85	1656,81
682,04	1558,50
682,23	1695,72
682,41	1730,53
682,60	1656,81
682,78	1757,16
682,97	1595,37
683,15	1712,10
683,34	1740,77
683,53	1751,01
683,71	1558,50
683,90	1857,51
684,08	1785,83
684,27	1665,00
684,45	1769,44
684,64	1761,25
684,82	1605,61
685,01	1742,82
685,19	1673,19
685,38	1882,08
685,57	1728,49
685,75	1720,29
685,94	1656,81
686,12	1699,81
686,31	1640,42
686,49	1841,12
686,68	1585,13
686,86	1671,14
687,05	1671,14
687,23	1722,34
687,42	1693,67
687,60	1640,42
687,79	1718,25
687,97	1798,12
688,16	1726,44
688,34	1783,78
688,53	1613,80
688,71	1773,54
688,90	1751,01
689,08	1675,24
689,27	1662,95
689,45	1699,81
689,64	1730,53
689,82	1732,58
690,01	1738,73
690,19	1765,35
690,38	1679,33
690,56	1828,84
690,75	1617,90
690,93	1644,52
691,12	1632,23
691,30	1718,25
691,49	1730,53
691,67	1751,01
691,86	1800,16
692,04	1681,38
692,23	1660,90
692,41	1697,77
692,60	1845,22
692,78	1738,73
692,97	1705,96
693,15	1746,92
693,34	1824,74
693,52	1810,40
693,71	1638,38
693,89	1718,25
694,08	1652,71
694,26	1753,06
694,44	1722,34
694,63	1771,49
694,81	1591,27
695,00	1665,00
695,18	1773,54
695,37	1789,92
695,55	1769,44
695,74	1726,44
695,92	1619,94
696,10	1710,05
696,29	1636,33
696,47	1677,29
696,66	1621,99
696,84	1718,25
697,03	1683,43
697,21	1830,88
697,40	2293,72
697,58	1755,11
697,76	1673,19
697,95	1656,81
698,13	1636,33
698,32	1654,76
698,50	1699,81
698,68	1732,58
698,87	1726,44
699,05	1845,22
699,24	1705,96
699,42	1675,24
699,61	1687,53
699,79	1755,11
699,97	1675,24
700,16	1675,24
700,34	1601,51
700,53	1712,10
700,71	1789,92
700,89	1714,15
701,08	1726,44
701,26	1714,15
701,45	2127,84
701,63	1650,66
701,81	1730,53
702,00	1701,86
702,18	1677,29
702,37	1673,19
702,55	1746,92
702,73	1601,51
702,92	1607,66
703,10	1675,24
703,28	1767,40
703,47	1705,96
703,65	1763,30
703,84	1673,19
704,02	1652,71
704,20	1832,93
704,39	1689,57
704,57	1650,66
704,75	1843,17
704,94	1732,58
705,12	1740,77
705,30	1824,74
705,49	2183,13
705,67	4286,40
705,86	9305,97
706,04	12615,49
706,22	14690,08
706,41	15669,01
706,59	13907,76
706,77	9693,04
706,96	7542,67
707,14	6559,64
707,32	6002,60
707,51	5496,75
707,69	4923,32
707,87	4327,36
708,06	3405,77
708,24	3012,56
708,42	2418,65
708,61	2291,68
708,79	1877,99
708,97	1857,51
709,16	1947,62
709,34	1775,59
709,52	1708,01
709,71	1775,59
709,89	1814,50
710,07	1681,38
710,26	1687,53
710,44	1654,76
710,62	1689,57
710,80	1773,54
710,99	1751,01
711,17	1765,35
711,35	1705,96
711,54	1730,53
711,72	1726,44
711,90	1765,35
712,09	1742,82
712,27	1734,63
712,45	1771,49
712,63	1730,53
712,82	1712,10
713,00	1642,47
713,18	1732,58
713,37	1751,01
713,55	1755,11
713,73	1767,40
713,91	1732,58
714,10	1718,25
714,28	1605,61
714,46	1734,63
714,65	1656,81
714,83	1816,55
715,01	1779,68
715,19	1710,05
715,38	1669,09
715,56	1765,35
715,74	1626,09
715,92	1671,14
716,11	1763,30
716,29	1628,14
716,47	1705,96
716,65	1722,34
716,84	1597,42
717,02	1744,87
717,20	1556,46
717,38	1648,61
717,57	1748,97
717,75	1712,10
717,93	1658,85
718,11	1708,01
718,30	1765,35
718,48	1681,38
718,66	1791,97
718,84	1746,92
719,03	1671,14
719,21	1665,00
719,39	1736,68
719,57	1710,05
719,75	1773,54
719,94	1660,90
720,12	1685,48
720,30	1716,20
720,48	1806,31
720,67	1675,24
720,85	1689,57
721,03	1732,58
721,21	1658,85
721,39	1677,29
721,58	1734,63
721,76	1730,53
721,94	1644,52
722,12	1759,21
722,30	1730,53
722,49	1683,43
722,67	1701,86
722,85	1718,25
723,03	1681,38
723,21	1697,77
723,40	1769,44
723,58	1726,44
723,76	1759,21
723,94	1722,34
724,12	1673,19
724,30	1857,51
724,49	1734,63
724,67	1619,94
724,85	1748,97
725,03	1665,00
725,21	1665,00
725,40	1744,87
725,58	1615,85
725,76	1724,39
725,94	1675,24
726,12	1677,29
726,30	1697,77
726,49	1650,66
726,67	1613,80
726,85	1746,92
727,03	1730,53
727,21	2152,42
727,39	2885,59
727,57	3798,98
727,76	4329,41
727,94	4542,39
728,12	4421,56
728,30	3790,79
728,48	2977,75
728,66	2645,98
728,84	2502,62
729,03	2281,44
729,21	2080,74
729,39	2025,44
729,57	1824,74
729,75	1755,11
729,93	1783,78
730,11	1771,49
730,30	1791,97
730,48	1708,01
730,66	1810,40
730,84	1701,86
731,02	1701,86
731,20	1697,77
731,38	1716,20
731,56	1685,48
731,74	1644,52
731,93	1724,39
732,11	1691,62
732,29	1693,67
732,47	1765,35
732,65	1665,00
732,83	1724,39
733,01	1785,83
733,19	1603,56
733,37	1746,92
733,56	1781,73
733,74	1665,00
733,92	1742,82
734,10	1656,81
734,28	1722,34
734,46	1613,80
734,64	1617,90
734,82	1738,73
735,00	1619,94
735,18	1628,14
735,36	1751,01
735,54	1705,96
735,73	1771,49
735,91	1697,77
736,09	1722,34
736,27	1771,49
736,45	1718,25
736,63	1626,09
736,81	1665,00
736,99	1730,53
737,17	1771,49
737,35	1665,00
737,53	1730,53
737,71	1650,66
737,89	1779,68
738,07	1714,15
738,25	1681,38
738,43	1638,38
738,61	1660,90
738,80	1591,27
738,98	1689,57
739,16	1550,31
739,34	1681,38
739,52	1769,44
739,70	1681,38
739,88	1796,07
740,06	1748,97
740,24	1581,03
740,42	1802,21
740,60	1615,85
740,78	1650,66
740,96	1667,05
741,14	1634,28
741,32	1675,24
741,50	1583,08
741,68	1861,60
741,86	1785,83
742,04	1675,24
742,22	1617,90
742,40	1732,58
742,58	1746,92
742,76	1722,34
742,94	1775,59
743,12	1572,84
743,30	1705,96
743,48	1705,96
743,66	1611,75
743,84	1736,68
744,02	1667,05
744,20	1720,29
744,38	1695,72
744,56	1646,57
744,74	1820,64
744,92	1726,44
745,10	1791,97
745,28	1734,63
745,46	1808,36
745,64	1732,58
745,82	1712,10
746,00	1681,38
746,18	1751,01
746,36	1636,33
746,54	1677,29
746,72	1697,77
746,90	1654,76
747,08	1837,03
747,26	1665,00
747,44	1681,38
747,62	1732,58
747,80	1740,77
747,98	1716,20
748,15	1640,42
748,33	1837,03
748,51	1734,63
748,69	1781,73
748,87	1638,38
749,05	1679,33
749,23	1705,96
749,41	1697,77
749,59	1699,81
749,77	1857,51
749,95	1681,38
750,13	1665,00
750,31	1746,92
750,49	1646,57
750,67	1703,91
750,85	1773,54
751,03	1769,44
751,20	1828,84
751,38	1714,15
751,56	1654,76
751,74	1732,58
751,92	1591,27
752,10	1662,95
752,28	1730,53
752,46	1632,23
752,64	1699,81
752,82	1732,58
753,00	1759,21
753,18	1726,44
753,35	1689,57
753,53	1730,53
753,71	1630,18
753,89	1712,10
754,07	1738,73
754,25	1724,39
754,43	1787,88
754,61	1609,70
754,79	1779,68
754,97	1685,48
755,14	1746,92
755,32	1626,09
755,50	1697,77
755,68	1802,21
755,86	1675,24
756,04	1681,38
756,22	1609,70
756,40	1753,06
756,57	1759,21
756,75	1667,05
756,93	1798,12
757,11	1726,44
757,29	1691,62
757,47	1624,04
757,65	1710,05
757,82	1726,44
758,00	1640,42
758,18	1599,46
758,36	1714,15
758,54	1728,49
758,72	1574,89
758,90	1718,25
759,07	1703,91
759,25	1642,47
759,43	1685,48
759,61	1679,33
759,79	2158,56
759,97	1783,78
760,15	1708,01
760,32	1710,05
760,50	1695,72
760,68	1816,55
760,86	1716,20
761,04	1732,58
761,22	1677,29
761,39	1662,95
761,57	1832,93
761,75	1681,38
761,93	1738,73
762,11	1632,23
762,28	1738,73
762,46	1587,18
762,64	1818,60
762,82	1646,57
763,00	1744,87
763,18	1691,62
763,35	1644,52
763,53	1796,07
763,71	1734,63
763,89	1718,25
764,07	1771,49
764,24	1726,44
764,42	1744,87
764,60	1634,28
764,78	1726,44
764,96	1771,49
765,13	1728,49
765,31	1667,05
765,49	1716,20
765,67	1597,42
765,84	1662,95
766,02	1699,81
766,20	1599,46
766,38	1669,09
766,56	1720,29
766,73	1730,53
766,91	1705,96
767,09	1662,95
767,27	1771,49
767,44	1701,86
767,62	1701,86
767,80	1744,87
767,98	1740,77
768,15	1779,68
768,33	1834,98
768,51	1714,15
768,69	1685,48
768,87	1802,21
769,04	1697,77
769,22	1822,69
769,40	1773,54
769,58	1882,08
769,75	1658,85
769,93	1730,53
770,11	1687,53
770,28	1697,77
770,46	1767,40
770,64	1667,05
770,82	1718,25
770,99	1736,68
771,17	1695,72
771,35	1685,48
771,53	1703,91
771,70	1658,85
771,88	1714,15
772,06	1751,01
772,23	1669,09
772,41	1763,30
772,59	1693,67
772,77	1691,62
772,94	1685,48
773,12	1667,05
773,30	1710,05
773,47	1751,01
773,65	1667,05
773,83	1853,41
774,01	1685,48
774,18	1552,36
774,36	1605,61
774,54	1654,76
774,71	1748,97
774,89	1640,42
775,07	1667,05
775,24	1640,42
775,42	1636,33
775,60	1812,45
775,78	1621,99
775,95	1665,00
776,13	1599,46
776,31	1554,41
776,48	1636,33
776,66	1755,11
776,84	1607,66
777,01	1691,62
777,19	1665,00
777,37	1720,29
777,54	1761,25
777,72	1796,07
777,90	1701,86
778,07	1652,71
778,25	1857,51
778,43	1761,25
778,60	1732,58
778,78	1716,20
778,96	1740,77
779,13	1660,90
779,31	1736,68
779,49	1689,57
779,66	1705,96
779,84	1658,85
780,01	1683,43
780,19	1671,14
780,37	1751,01
780,54	1746,92
780,72	1624,04
780,90	1726,44
781,07	1712,10
781,25	1695,72
781,43	1769,44
781,60	1677,29
781,78	1785,83
781,95	1771,49
782,13	1644,52
782,31	1677,29
782,48	1607,66
782,66	1695,72
782,83	1796,07
783,01	1732,58
783,19	1718,25
783,36	1705,96
783,54	1630,18
783,72	1746,92
783,89	1634,28
784,07	1732,58
784,24	1767,40
784,42	1861,60
784,60	1755,11
784,77	1740,77
784,95	1595,37
785,12	1644,52
785,30	1716,20
785,47	1675,24
785,65	1636,33
785,83	1660,90
786,00	1624,04
786,18	1703,91
786,35	1634,28
786,53	1708,01
786,71	1755,11
786,88	1722,34
787,06	1734,63
787,23	1705,96
787,41	1621,99
787,58	1755,11
787,76	1628,14
787,94	1771,49
788,11	1701,86
788,29	1650,66
788,46	1646,57
788,64	1658,85
788,81	1583,08
788,99	1617,90
789,16	1710,05
789,34	1701,86
789,52	1640,42
789,69	1667,05
789,87	1644,52
790,04	1634,28
790,22	1669,09
790,39	1824,74
790,57	1619,94
790,74	1630,18
790,92	1742,82
791,09	1697,77
791,27	1748,97
791,44	1796,07
791,62	1669,09
791,79	1710,05
791,97	1705,96
792,15	1861,60
792,32	1804,26
792,50	1701,86
792,67	1742,82
792,85	1730,53
793,02	1748,97
793,20	1665,00
793,37	1644,52
793,55	1703,91
793,72	1644,52
793,90	1744,87
794,07	1636,33
794,25	1669,09
794,42	1773,54
794,60	1718,25
794,77	1730,53
794,95	1757,16
795,12	1712,10
795,30	1646,57
795,47	1589,22
795,65	1927,14
795,82	1779,68
796,00	1611,75
796,17	1699,81
796,34	1699,81
796,52	1617,90
796,69	1716,20
796,87	1718,25
797,04	1787,88
797,22	1748,97
797,39	1769,44
797,57	1673,19
797,74	1699,81
797,92	1667,05
798,09	1683,43
798,27	1724,39
798,44	1759,21
798,62	1607,66
798,79	1710,05
798,96	1740,77
799,14	1640,42
799,31	1877,99
799,49	1755,11
799,66	1669,09
799,84	1685,48
800,01	1634,28
800,19	1765,35
800,36	1605,61
800,53	1683,43
800,71	1679,33
800,88	1783,78
801,06	1630,18
801,23	1642,47
801,41	1708,01
801,58	1644,52
801,75	1624,04
801,93	1732,58
802,10	1685,48
802,28	1660,90
802,45	1669,09
802,63	1689,57
802,80	1794,02
802,97	1683,43
803,15	1683,43
803,32	1757,16
803,50	1621,99
803,67	1658,85
803,84	1667,05
804,02	1677,29
804,19	1734,63
804,37	1667,05
804,54	1591,27
804,71	1701,86
804,89	1736,68
805,06	1634,28
805,24	1667,05
805,41	1681,38
805,58	1667,05
805,76	1898,47
805,93	1644,52
806,10	1753,06
806,28	1658,85
806,45	1695,72
806,63	1673,19
806,80	1599,46
806,97	1738,73
807,15	1714,15
807,32	1716,20
807,49	1662,95
807,67	1660,90
807,84	1748,97
808,01	1638,38
808,19	1824,74
808,36	1828,84
808,54	1683,43
808,71	1667,05
808,88	1720,29
809,06	1710,05
809,23	1875,94
809,40	1712,10
809,58	1751,01
809,75	1730,53
809,92	1660,90
810,10	1808,36
810,27	1601,51
810,44	1714,15
810,62	1828,84
810,79	1755,11
810,96	1714,15
811,14	1658,85
811,31	1689,57
811,48	1634,28
811,66	1785,83
811,83	1769,44
812,00	1744,87
812,18	1718,25
812,35	1746,92
812,52	1599,46
812,69	1658,85
812,87	1636,33
813,04	1535,98
813,21	1732,58
813,39	1617,90
813,56	1710,05
813,73	1748,97
813,91	1593,32
814,08	1689,57
814,25	1677,29
814,42	1628,14
814,60	1677,29
814,77	1720,29
814,94	1695,72
815,12	1705,96
815,29	1705,96
815,46	1583,08
815,63	1632,23
815,81	1697,77
815,98	1673,19
816,15	1650,66
816,33	1738,73
816,50	1708,01
816,67	1636,33
816,84	1712,10
817,02	1714,15
817,19	1705,96
817,36	1722,34
817,53	1777,64
817,71	1662,95
817,88	1710,05
818,05	1724,39
818,22	1636,33
818,40	1845,22
818,57	1681,38
818,74	1671,14
818,91	1646,57
819,09	1808,36
819,26	1767,40
819,43	1636,33
819,60	1701,86
819,78	1687,53
819,95	1785,83
820,12	1619,94
820,29	1765,35
820,47	1673,19
820,64	1708,01
820,81	1599,46
820,98	1632,23
821,15	1675,24
821,33	1691,62
821,50	1636,33
821,67	1753,06
821,84	1665,00
822,02	1761,25
822,19	1693,67
822,36	1705,96
822,53	1632,23
822,70	1646,57
822,88	1724,39
823,05	1730,53
823,22	1671,14
823,39	1734,63
823,56	1712,10
823,74	1736,68
823,91	1667,05
824,08	1662,95
824,25	1599,46
824,42	1851,36
824,60	1581,03
824,77	1740,77
824,94	1644,52
825,11	1708,01
825,28	1646,57
825,45	1718,25
825,63	1652,71
825,80	1703,91
825,97	1746,92
826,14	1738,73
826,31	1599,46
826,48	1767,40
826,66	1654,76
826,83	1656,81
827,00	1740,77
827,17	1681,38
827,34	1646,57
827,51	1673,19
827,69	1660,90
827,86	1570,79
828,03	1671,14
828,20	1632,23
828,37	1656,81
828,54	1738,73
828,71	1599,46
828,89	1777,64
829,06	1718,25
829,23	1765,35
829,40	1632,23
829,57	1695,72
829,74	1722,34
829,91	1697,77
830,09	1681,38
830,26	1753,06
830,43	1783,78
830,60	1687,53
830,77	1783,78
830,94	1757,16
831,11	1742,82
831,28	1609,70
831,46	1732,58
831,63	1697,77
831,80	1708,01
831,97	1619,94
832,14	1712,10
832,31	1779,68
832,48	1687,53
832,65	1771,49
832,82	1687,53
832,99	1722,34
833,17	1619,94
833,34	1714,15
833,51	1800,16
833,68	1609,70
833,85	1765,35
834,02	1673,19
834,19	1660,90
834,36	1632,23
834,53	1789,92
834,70	1665,00
834,87	1667,05
835,04	1759,21
835,22	1595,37
835,39	1671,14
835,56	1572,84
835,73	1685,48
835,90	1744,87
836,07	1669,09
836,24	1845,22
836,41	1705,96
836,58	1710,05
836,75	1748,97
836,92	1673,19
837,09	1611,75
837,26	1714,15
837,43	1687,53
837,60	1708,01
837,77	1689,57
837,94	1669,09
838,12	1765,35
838,29	1669,09
838,46	1611,75
838,63	1628,14
838,80	1873,89
838,97	1724,39
839,14	1681,38
839,31	1650,66
839,48	1691,62
839,65	1738,73
839,82	1705,96
839,99	1660,90
840,16	1632,23
840,33	1656,81
840,50	1677,29
840,67	1632,23
840,84	1634,28
841,01	1708,01
841,18	1654,76
841,35	1609,70
841,52	1775,59
841,69	1839,08
841,86	1691,62
842,03	1669,09
842,20	1751,01
842,37	1685,48
842,54	1677,29
842,71	1652,71
842,88	1708,01
843,05	1773,54
843,22	1658,85
843,39	1683,43
843,56	1648,61
843,73	1695,72
843,90	1712,10
844,07	1669,09
844,24	1720,29
844,41	1730,53
844,58	1693,67
844,75	1648,61
844,92	1714,15
845,09	1669,09
845,26	1695,72
845,43	1689,57
845,60	1660,90
845,77	1761,25
845,94	1712,10
846,10	1765,35
846,27	1691,62
846,44	1689,57
846,61	1632,23
846,78	1705,96
846,95	1660,90
847,12	1644,52
847,29	1726,44
847,46	1675,24
847,63	1742,82
847,80	1609,70
847,97	1710,05
848,14	1810,40
848,31	1763,30
848,48	1650,66
848,65	1671,14
848,82	1615,85
848,98	1861,60
849,15	1777,64
849,32	1746,92
849,49	1761,25
849,66	1732,58
849,83	1796,07
850,00	1746,92
850,17	1658,85
850,34	1656,81
850,51	1654,76
850,68	1701,86
850,85	1783,78
851,01	1736,68
851,18	1730,53
851,35	1718,25
851,52	1734,63
851,69	1822,69
851,86	1640,42
852,03	1615,85
852,20	1671,14
852,37	1658,85
852,53	1607,66
852,70	1703,91
852,87	1736,68
853,04	1675,24
853,21	1673,19
853,38	1771,49
853,55	1812,45
853,72	1771,49
853,89	1699,81
854,05	1630,18
854,22	1734,63
854,39	1658,85
854,56	1677,29
854,73	1806,31
854,90	1714,15
855,07	1693,67
855,23	1673,19
855,40	1665,00
855,57	1697,77
855,74	1615,85
855,91	1834,98
856,08	1599,46
856,25	1529,83
856,41	1654,76
856,58	1681,38
856,75	1708,01
856,92	1695,72
857,09	1730,53
857,26	1624,04
857,42	1671,14
857,59	1710,05
857,76	1644,52
857,93	1701,86
858,10	1675,24
858,27	1619,94
858,43	1701,86
858,60	1648,61
858,77	1619,94
858,94	1642,47
859,11	1736,68
859,27	1710,05
859,44	1626,09
859,61	1802,21
859,78	1724,39
859,95	1679,33
860,12	1699,81
860,28	1818,60
860,45	1820,64
860,62	1796,07
860,79	1710,05
860,95	1724,39
861,12	1599,46
861,29	1695,72
861,46	1701,86
861,63	1714,15
861,79	1695,72
861,96	1673,19
862,13	1656,81
862,30	1800,16
862,47	1640,42
862,63	1671,14
862,80	1777,64
862,97	1773,54
863,14	1648,61
863,30	1755,11
863,47	1656,81
863,64	1769,44
863,81	1703,91
863,97	1644,52
864,14	1718,25
864,31	1646,57
864,48	1759,21
864,65	1726,44
864,81	1734,63
864,98	1781,73
865,15	1783,78
865,32	1671,14
865,48	1683,43
865,65	1785,83
865,82	1681,38
865,98	1701,86
866,15	1787,88
866,32	1691,62
866,49	1699,81
866,65	1796,07
866,82	1636,33
866,99	1654,76
867,16	1615,85
867,32	1761,25
867,49	1722,34
867,66	1679,33
867,83	1615,85
867,99	1595,37
868,16	1644,52
868,33	1642,47
868,49	1681,38
868,66	1673,19
868,83	1679,33
868,99	1691,62
869,16	1714,15
869,33	1779,68
869,50	1734,63
869,66	1687,53
869,83	1634,28
870,00	1597,42
870,16	1714,15
870,33	1714,15
870,50	1697,77
870,66	1722,34
870,83	1785,83
871,00	1652,71
871,17	1728,49
871,33	1660,90
871,50	1644,52
871,67	1699,81
871,83	1730,53
872,00	1669,09
872,17	1732,58
872,33	1808,36
872,50	1677,29
872,67	1671,14
872,83	1634,28
873,00	1689,57
873,17	1728,49
873,33	1751,01
873,50	1802,21
873,67	1677,29
873,83	1656,81
874,00	1628,14
874,16	1765,35
874,33	1640,42
874,50	1689,57
874,66	1755,11
874,83	1665,00
875,00	1789,92
875,16	1712,10
875,33	1796,07
875,50	1624,04
875,66	1685,48
875,83	1697,77
875,99	1718,25
876,16	1734,63
876,33	1662,95
876,49	1662,95
876,66	1714,15
876,83	1636,33
876,99	1650,66
877,16	1775,59
877,32	1630,18
877,49	1656,81
877,66	1736,68
877,82	1720,29
877,99	1710,05
878,15	1841,12
878,32	1734,63
878,49	1724,39
878,65	1628,14
878,82	1771,49
878,98	1677,29
879,15	1746,92
879,32	1751,01
879,48	1708,01
879,65	1679,33
879,81	1634,28
879,98	1734,63
880,15	1697,77
880,31	1746,92
880,48	1652,71
880,64	1771,49
880,81	1691,62
880,97	1730,53
881,14	1734,63
881,31	1673,19
881,47	1849,32
881,64	1742,82
881,80	1699,81
881,97	1732,58
882,13	1681,38
882,30	1626,09
882,47	1656,81
882,63	1673,19
882,80	1697,77
882,96	1667,05
883,13	1806,31
883,29	1644,52
883,46	1675,24
883,62	1791,97
883,79	1644,52
883,95	1746,92
884,12	1673,19
884,29	1693,67
884,45	1746,92
884,62	1660,90
884,78	1656,81
884,95	1791,97
885,11	1652,71
885,28	1728,49
885,44	1679,33
885,61	1714,15
885,77	1808,36
885,94	1685,48
886,10	1712,10
886,27	1701,86
886,43	1834,98
886,60	1779,68
886,76	1665,00
886,93	1634,28
887,09	1755,11
887,26	1658,85
887,42	1708,01
887,59	1771,49
887,75	1806,31
887,92	1755,11
888,08	1783,78
888,25	1740,77
888,41	1808,36
888,58	1714,15
888,74	1656,81
888,91	1693,67
>>>>>End Processed Spectral Data<<<<<
