SpectraSuite Data File
++++++++++++++++++++++++++++++++++++
Date: Mon Jun 06 16:51:17 CEST 2016
User: root
Dark Spectrum Present: No
Reference Spectrum Present: No
Number of Sampled Component Spectra: 1
Spectrometers: USB4C02835
Integration Time (usec): 100000 (USB4C02835)
Spectra Averaged: 1 (USB4C02835)
Boxcar Smoothing: 0 (USB4C02835)
Correct for Electrical Dark: No (USB4C02835)
Strobe/Lamp Enabled: No (USB4C02835)
Correct for Detector Non-linearity: No (USB4C02835)
Correct for Stray Light: No (USB4C02835)
Number of Pixels in Processed Spectrum: 3648
>>>>>Begin Processed Spectral Data<<<<<
177,47	1495,02
177,69	1495,02
177,91	1495,02
178,13	1497,07
178,36	1398,76
178,58	1681,38
178,80	1626,09
179,02	1609,70
179,24	1669,09
179,46	1665,00
179,68	1757,16
179,90	1695,72
180,13	1738,73
180,35	1748,97
180,57	1679,33
180,79	1681,38
181,01	1691,62
181,23	1761,25
181,45	1748,97
181,67	1730,53
181,90	1751,01
182,12	1667,05
182,34	1603,56
182,56	1681,38
182,78	1689,57
183,00	1716,20
183,22	1755,11
183,44	1621,99
183,66	1890,28
183,89	1734,63
184,11	1679,33
184,33	1722,34
184,55	1744,87
184,77	1837,03
184,99	1691,62
185,21	1728,49
185,43	1818,60
185,65	1634,28
185,87	1689,57
186,10	1841,12
186,32	1804,26
186,54	1687,53
186,76	1783,78
186,98	1716,20
187,20	1718,25
187,42	1665,00
187,64	1789,92
187,86	1732,58
188,08	1726,44
188,30	1667,05
188,52	1642,47
188,75	1712,10
188,97	1855,46
189,19	1705,96
189,41	1705,96
189,63	1742,82
189,85	1667,05
190,07	1693,67
190,29	1671,14
190,51	1746,92
190,73	1718,25
190,95	1763,30
191,17	1800,16
191,39	1607,66
191,61	1597,42
191,84	1687,53
192,06	1718,25
192,28	1644,52
192,50	1877,99
192,72	1783,78
192,94	1648,61
193,16	1730,53
193,38	1787,88
193,60	1697,77
193,82	1638,38
194,04	1787,88
194,26	1726,44
194,48	1701,86
194,70	1652,71
194,92	1658,85
195,14	1763,30
195,36	1660,90
195,58	1660,90
195,80	1642,47
196,02	1578,98
196,24	1687,53
196,46	1617,90
196,69	1679,33
196,91	1853,41
197,13	1703,91
197,35	1605,61
197,57	1769,44
197,79	1769,44
198,01	1720,29
198,23	1765,35
198,45	1712,10
198,67	1613,80
198,89	1624,04
199,11	1769,44
199,33	1591,27
199,55	1619,94
199,77	1687,53
199,99	1882,08
200,21	1738,73
200,43	1773,54
200,65	1677,29
200,87	1597,42
201,09	1667,05
201,31	1669,09
201,53	1742,82
201,75	1763,30
201,97	1796,07
202,19	1669,09
202,41	1683,43
202,63	1863,65
202,85	1722,34
203,07	1697,77
203,29	1697,77
203,51	1578,98
203,73	1654,76
203,95	1951,71
204,17	1751,01
204,39	1738,73
204,61	1665,00
204,83	1742,82
205,05	1712,10
205,27	1746,92
205,49	1837,03
205,71	1675,24
205,93	1593,32
206,15	1624,04
206,37	1769,44
206,59	1638,38
206,81	1646,57
207,03	1665,00
207,25	1601,51
207,47	1722,34
207,69	1708,01
207,91	1802,21
208,13	1728,49
208,34	1677,29
208,56	1658,85
208,78	1710,05
209,00	1624,04
209,22	1636,33
209,44	1703,91
209,66	1728,49
209,88	1667,05
210,10	1705,96
210,32	1646,57
210,54	1796,07
210,76	1621,99
210,98	1779,68
211,20	1585,13
211,42	1714,15
211,64	1740,77
211,86	1732,58
212,08	1773,54
212,30	1734,63
212,52	1634,28
212,74	1736,68
212,96	1740,77
213,17	1744,87
213,39	1734,63
213,61	1716,20
213,83	1744,87
214,05	1599,46
214,27	1671,14
214,49	1642,47
214,71	1603,56
214,93	1775,59
215,15	1687,53
215,37	1757,16
215,59	1685,48
215,81	1667,05
216,03	1783,78
216,24	1734,63
216,46	1671,14
216,68	1685,48
216,90	1755,11
217,12	1759,21
217,34	1720,29
217,56	1738,73
217,78	1830,88
218,00	1728,49
218,22	1751,01
218,44	1642,47
218,66	1761,25
218,87	1851,36
219,09	1708,01
219,31	1761,25
219,53	1699,81
219,75	1710,05
219,97	1714,15
220,19	1675,24
220,41	1710,05
220,63	1738,73
220,85	1671,14
221,06	1669,09
221,28	1769,44
221,50	1722,34
221,72	1710,05
221,94	1681,38
222,16	1761,25
222,38	1812,45
222,60	1761,25
222,82	1757,16
223,03	1722,34
223,25	1673,19
223,47	1785,83
223,69	1800,16
223,91	1751,01
224,13	1603,56
224,35	1667,05
224,57	1765,35
224,78	1675,24
225,00	1658,85
225,22	1671,14
225,44	1751,01
225,66	1746,92
225,88	1673,19
226,10	1773,54
226,32	1791,97
226,53	1845,22
226,75	1726,44
226,97	1720,29
227,19	1689,57
227,41	1626,09
227,63	1691,62
227,85	1708,01
228,06	1759,21
228,28	1730,53
228,50	1720,29
228,72	1736,68
228,94	1693,67
229,16	1613,80
229,37	1716,20
229,59	1697,77
229,81	1789,92
230,03	1669,09
230,25	1619,94
230,47	1701,86
230,69	1634,28
230,90	1763,30
231,12	1679,33
231,34	1740,77
231,56	1779,68
231,78	1658,85
232,00	1673,19
232,21	1708,01
232,43	1718,25
232,65	1632,23
232,87	1742,82
233,09	1671,14
233,30	1681,38
233,52	1728,49
233,74	1714,15
233,96	1699,81
234,18	1730,53
234,40	1689,57
234,61	1849,32
234,83	1595,37
235,05	1552,36
235,27	1890,28
235,49	1746,92
235,70	1615,85
235,92	1808,36
236,14	1712,10
236,36	1849,32
236,58	1619,94
236,79	1746,92
237,01	1677,29
237,23	1697,77
237,45	1787,88
237,67	1732,58
237,88	1724,39
238,10	1847,27
238,32	1726,44
238,54	1746,92
238,76	1718,25
238,97	1636,33
239,19	1734,63
239,41	1693,67
239,63	1806,31
239,85	1730,53
240,06	1679,33
240,28	1691,62
240,50	1769,44
240,72	1738,73
240,93	1687,53
241,15	1744,87
241,37	1687,53
241,59	1800,16
241,81	1695,72
242,02	1761,25
242,24	1791,97
242,46	1761,25
242,68	1671,14
242,89	1710,05
243,11	1818,60
243,33	1650,66
243,55	1816,55
243,76	1765,35
243,98	1619,94
244,20	1755,11
244,42	1679,33
244,64	1751,01
244,85	1648,61
245,07	1699,81
245,29	1775,59
245,51	1689,57
245,72	1701,86
245,94	1685,48
246,16	1736,68
246,38	1798,12
246,59	1624,04
246,81	1654,76
247,03	1607,66
247,24	1603,56
247,46	1681,38
247,68	1736,68
247,90	1773,54
248,11	1677,29
248,33	1761,25
248,55	1757,16
248,77	1677,29
248,98	1757,16
249,20	1755,11
249,42	1728,49
249,64	1748,97
249,85	1697,77
250,07	1654,76
250,29	1757,16
250,50	1714,15
250,72	1599,46
250,94	1656,81
251,16	1847,27
251,37	1763,30
251,59	1798,12
251,81	1742,82
252,02	1734,63
252,24	1683,43
252,46	1789,92
252,68	1683,43
252,89	1611,75
253,11	1679,33
253,33	1837,03
253,54	1738,73
253,76	1681,38
253,98	1652,71
254,20	1738,73
254,41	1685,48
254,63	1761,25
254,85	1675,24
255,06	1689,57
255,28	1753,06
255,50	1660,90
255,71	1677,29
255,93	1574,89
256,15	1761,25
256,36	1757,16
256,58	1644,52
256,80	1746,92
257,02	1714,15
257,23	1662,95
257,45	1718,25
257,67	1751,01
257,88	1615,85
258,10	1763,30
258,32	1675,24
258,53	1714,15
258,75	1769,44
258,97	1630,18
259,18	1599,46
259,40	1703,91
259,62	1789,92
259,83	1802,21
260,05	1734,63
260,27	1933,28
260,48	1748,97
260,70	1697,77
260,92	1658,85
261,13	1705,96
261,35	1705,96
261,57	1654,76
261,78	1662,95
262,00	1626,09
262,22	1724,39
262,43	1652,71
262,65	1562,60
262,86	1665,00
263,08	1783,78
263,30	1695,72
263,51	1589,22
263,73	1660,90
263,95	1775,59
264,16	1609,70
264,38	1667,05
264,60	1705,96
264,81	1751,01
265,03	1755,11
265,25	1738,73
265,46	1720,29
265,68	1701,86
265,89	1734,63
266,11	1566,70
266,33	1685,48
266,54	1755,11
266,76	1697,77
266,98	1800,16
267,19	1789,92
267,41	1771,49
267,62	1740,77
267,84	1601,51
268,06	1759,21
268,27	1810,40
268,49	1740,77
268,70	1767,40
268,92	1689,57
269,14	1736,68
269,35	1597,42
269,57	1673,19
269,79	1761,25
270,00	1681,38
270,22	1796,07
270,43	1662,95
270,65	1576,94
270,87	1665,00
271,08	1759,21
271,30	1814,50
271,51	1701,86
271,73	1703,91
271,95	1726,44
272,16	1703,91
272,38	1748,97
272,59	1648,61
272,81	1732,58
273,02	1783,78
273,24	1693,67
273,46	1755,11
273,67	1677,29
273,89	1619,94
274,10	1642,47
274,32	1779,68
274,54	1800,16
274,75	1755,11
274,97	1609,70
275,18	1761,25
275,40	1722,34
275,61	1738,73
275,83	1701,86
276,05	1685,48
276,26	1621,99
276,48	1697,77
276,69	1656,81
276,91	1699,81
277,12	1806,31
277,34	1781,73
277,55	1837,03
277,77	1763,30
277,99	1634,28
278,20	1648,61
278,42	1644,52
278,63	1662,95
278,85	1732,58
279,06	1611,75
279,28	1714,15
279,49	1787,88
279,71	1755,11
279,93	1734,63
280,14	1660,90
280,36	1697,77
280,57	1845,22
280,79	1773,54
281,00	1613,80
281,22	1646,57
281,43	1710,05
281,65	1632,23
281,86	1669,09
282,08	1755,11
282,29	1812,45
282,51	1595,37
282,73	1660,90
282,94	1568,74
283,16	1761,25
283,37	1789,92
283,59	1746,92
283,80	1757,16
284,02	1703,91
284,23	1710,05
284,45	1654,76
284,66	1697,77
284,88	1767,40
285,09	1681,38
285,31	1744,87
285,52	1710,05
285,74	1601,51
285,95	1783,78
286,17	1683,43
286,38	1783,78
286,60	1656,81
286,81	1660,90
287,03	1703,91
287,24	1712,10
287,46	1769,44
287,67	1724,39
287,89	1884,13
288,10	1658,85
288,32	1679,33
288,53	1779,68
288,75	1751,01
288,96	1679,33
289,18	1716,20
289,39	1681,38
289,61	1796,07
289,82	1802,21
290,04	1785,83
290,25	1677,29
290,47	1695,72
290,68	1681,38
290,90	1818,60
291,11	1646,57
291,33	1820,64
291,54	1767,40
291,76	1665,00
291,97	1701,86
292,18	1761,25
292,40	1626,09
292,61	1634,28
292,83	1839,08
293,04	1726,44
293,26	1718,25
293,47	1724,39
293,69	1667,05
293,90	1621,99
294,12	1748,97
294,33	1650,66
294,55	1603,56
294,76	1773,54
294,97	1767,40
295,19	1880,04
295,40	1619,94
295,62	1730,53
295,83	1816,55
296,05	1697,77
296,26	1779,68
296,48	1648,61
296,69	1755,11
296,90	1708,01
297,12	1767,40
297,33	1783,78
297,55	1730,53
297,76	1755,11
297,98	1808,36
298,19	1732,58
298,41	1673,19
298,62	1675,24
298,83	1837,03
299,05	1744,87
299,26	1632,23
299,48	1667,05
299,69	1697,77
299,90	1814,50
300,12	1726,44
300,33	1755,11
300,55	1769,44
300,76	1783,78
300,98	1619,94
301,19	1839,08
301,40	1691,62
301,62	1677,29
301,83	1636,33
302,05	1789,92
302,26	1693,67
302,47	1697,77
302,69	1685,48
302,90	1755,11
303,12	1630,18
303,33	1687,53
303,54	1773,54
303,76	1658,85
303,97	1710,05
304,19	1824,74
304,40	1660,90
304,61	1646,57
304,83	1880,04
305,04	1787,88
305,26	1712,10
305,47	1669,09
305,68	1800,16
305,90	1656,81
306,11	1804,26
306,33	1671,14
306,54	1697,77
306,75	1675,24
306,97	1638,38
307,18	1671,14
307,39	1710,05
307,61	1638,38
307,82	1769,44
308,04	1730,53
308,25	1652,71
308,46	1742,82
308,68	1712,10
308,89	1691,62
309,10	1855,46
309,32	1701,86
309,53	1751,01
309,74	1716,20
309,96	1669,09
310,17	1796,07
310,39	1609,70
310,60	1658,85
310,81	1695,72
311,03	1566,70
311,24	1736,68
311,45	1728,49
311,67	1753,06
311,88	1775,59
312,09	1662,95
312,31	1648,61
312,52	1656,81
312,73	1654,76
312,95	1652,71
313,16	1626,09
313,37	1834,98
313,59	1761,25
313,80	1785,83
314,01	1787,88
314,23	1671,14
314,44	1648,61
314,65	1640,42
314,87	1681,38
315,08	1652,71
315,29	1697,77
315,51	1628,14
315,72	1638,38
315,93	1820,64
316,15	1771,49
316,36	1732,58
316,57	1705,96
316,79	1763,30
317,00	1693,67
317,21	1751,01
317,43	1652,71
317,64	1738,73
317,85	1730,53
318,07	1669,09
318,28	1685,48
318,49	1736,68
318,70	1902,56
318,92	1818,60
319,13	1857,51
319,34	1894,37
319,56	1728,49
319,77	1777,64
319,98	1771,49
320,20	1767,40
320,41	1775,59
320,62	1796,07
320,83	1710,05
321,05	1808,36
321,26	1689,57
321,47	1685,48
321,69	1769,44
321,90	1669,09
322,11	1609,70
322,32	1730,53
322,54	1841,12
322,75	1748,97
322,96	1775,59
323,18	1607,66
323,39	1589,22
323,60	1648,61
323,81	1771,49
324,03	1654,76
324,24	1724,39
324,45	1701,86
324,66	1720,29
324,88	1847,27
325,09	1804,26
325,30	1736,68
325,52	1691,62
325,73	1769,44
325,94	1619,94
326,15	1710,05
326,37	1679,33
326,58	1705,96
326,79	1732,58
327,00	1685,48
327,22	1791,97
327,43	1697,77
327,64	1699,81
327,85	1742,82
328,07	1740,77
328,28	1787,88
328,49	1634,28
328,70	1761,25
328,92	1701,86
329,13	1687,53
329,34	1761,25
329,55	1773,54
329,76	1710,05
329,98	1675,24
330,19	1812,45
330,40	1703,91
330,61	1740,77
330,83	1740,77
331,04	1714,15
331,25	1732,58
331,46	1597,42
331,68	1642,47
331,89	1724,39
332,10	1714,15
332,31	1648,61
332,52	1667,05
332,74	1730,53
332,95	1628,14
333,16	1654,76
333,37	1671,14
333,58	1710,05
333,80	1755,11
334,01	1665,00
334,22	1658,85
334,43	1654,76
334,64	1724,39
334,86	1626,09
335,07	1671,14
335,28	1824,74
335,49	1605,61
335,70	1714,15
335,92	1789,92
336,13	1882,08
336,34	1728,49
336,55	1740,77
336,76	1722,34
336,98	1578,98
337,19	1677,29
337,40	1855,46
337,61	1822,69
337,82	1779,68
338,04	1806,31
338,25	1597,42
338,46	1648,61
338,67	1648,61
338,88	1679,33
339,09	1636,33
339,31	1687,53
339,52	1642,47
339,73	1589,22
339,94	1746,92
340,15	1699,81
340,36	1642,47
340,58	1683,43
340,79	1624,04
341,00	1691,62
341,21	1671,14
341,42	1734,63
341,63	1751,01
341,85	1718,25
342,06	1697,77
342,27	1611,75
342,48	1697,77
342,69	1621,99
342,90	1804,26
343,12	1738,73
343,33	1708,01
343,54	1839,08
343,75	1783,78
343,96	1681,38
344,17	1603,56
344,38	1669,09
344,60	1683,43
344,81	1619,94
345,02	1693,67
345,23	1818,60
345,44	1794,02
345,65	1791,97
345,86	1685,48
346,07	1718,25
346,29	1736,68
346,50	1677,29
346,71	1660,90
346,92	1808,36
347,13	1794,02
347,34	1697,77
347,55	1658,85
347,76	1734,63
347,98	1640,42
348,19	1662,95
348,40	1761,25
348,61	1701,86
348,82	1761,25
349,03	1783,78
349,24	1708,01
349,45	1765,35
349,66	1640,42
349,88	1746,92
350,09	1697,77
350,30	1738,73
350,51	1789,92
350,72	1714,15
350,93	1767,40
351,14	1689,57
351,35	1669,09
351,56	1695,72
351,77	1687,53
351,99	1757,16
352,20	1818,60
352,41	1744,87
352,62	1644,52
352,83	1669,09
353,04	1724,39
353,25	1660,90
353,46	1779,68
353,67	1738,73
353,88	1632,23
354,09	1730,53
354,30	1794,02
354,52	1726,44
354,73	1722,34
354,94	1732,58
355,15	1685,48
355,36	1804,26
355,57	1669,09
355,78	1775,59
355,99	1677,29
356,20	1701,86
356,41	1798,12
356,62	1687,53
356,83	1722,34
357,04	1816,55
357,25	1542,12
357,46	1763,30
357,68	1673,19
357,89	1628,14
358,10	1677,29
358,31	1675,24
358,52	1716,20
358,73	1615,85
358,94	1667,05
359,15	1681,38
359,36	1710,05
359,57	1687,53
359,78	1693,67
359,99	1804,26
360,20	1673,19
360,41	1771,49
360,62	1714,15
360,83	1681,38
361,04	1697,77
361,25	1736,68
361,46	1873,89
361,67	1757,16
361,88	1763,30
362,09	1794,02
362,30	1748,97
362,51	1677,29
362,72	1748,97
362,93	1757,16
363,14	1769,44
363,35	1681,38
363,56	1636,33
363,78	1808,36
363,99	1771,49
364,20	1701,86
364,41	1689,57
364,62	1816,55
364,83	1708,01
365,04	1691,62
365,25	1720,29
365,46	1912,80
365,67	1642,47
365,88	1652,71
366,09	1697,77
366,30	1662,95
366,51	1736,68
366,72	1611,75
366,93	1728,49
367,14	1712,10
367,35	1708,01
367,56	1605,61
367,77	1763,30
367,98	1697,77
368,18	1718,25
368,39	1734,63
368,60	1652,71
368,81	1751,01
369,02	1730,53
369,23	1720,29
369,44	1662,95
369,65	1699,81
369,86	1763,30
370,07	1781,73
370,28	1634,28
370,49	1736,68
370,70	1728,49
370,91	1667,05
371,12	1652,71
371,33	1718,25
371,54	1722,34
371,75	1726,44
371,96	1587,18
372,17	1748,97
372,38	1771,49
372,59	1814,50
372,80	1746,92
373,01	1687,53
373,22	1769,44
373,43	1736,68
373,64	1578,98
373,85	1798,12
374,06	1837,03
374,26	1726,44
374,47	1791,97
374,68	1742,82
374,89	1814,50
375,10	1701,86
375,31	1738,73
375,52	1595,37
375,73	1665,00
375,94	1656,81
376,15	1796,07
376,36	1685,48
376,57	1675,24
376,78	1710,05
376,99	1708,01
377,20	1877,99
377,40	1658,85
377,61	1781,73
377,82	1683,43
378,03	1845,22
378,24	1748,97
378,45	1732,58
378,66	1705,96
378,87	1644,52
379,08	1679,33
379,29	1761,25
379,50	1781,73
379,71	1673,19
379,91	1732,58
380,12	1730,53
380,33	1751,01
380,54	1736,68
380,75	1712,10
380,96	1589,22
381,17	1736,68
381,38	1665,00
381,59	1812,45
381,80	1730,53
382,00	1849,32
382,21	1775,59
382,42	1935,33
382,63	1789,92
382,84	1726,44
383,05	1728,49
383,26	1804,26
383,47	1769,44
383,68	1777,64
383,88	1673,19
384,09	1767,40
384,30	1849,32
384,51	1671,14
384,72	1603,56
384,93	1626,09
385,14	1722,34
385,35	1765,35
385,55	1693,67
385,76	1779,68
385,97	1714,15
386,18	1648,61
386,39	1714,15
386,60	1660,90
386,81	1753,06
387,02	1701,86
387,22	1648,61
387,43	1740,77
387,64	1798,12
387,85	1845,22
388,06	2222,05
388,27	4229,06
388,48	6754,20
388,68	8112,00
388,89	9422,70
389,10	9703,28
389,31	8529,79
389,52	7491,47
389,73	6584,22
389,93	6158,24
390,14	5877,67
390,35	5220,27
390,56	4458,43
390,77	3794,89
390,98	3057,62
391,18	2471,90
391,39	2136,03
391,60	1814,50
391,81	1783,78
392,02	1705,96
392,23	1896,42
392,43	1648,61
392,64	1873,89
392,85	1708,01
393,06	1804,26
393,27	1708,01
393,47	1644,52
393,68	1769,44
393,89	1673,19
394,10	1789,92
394,31	1632,23
394,52	1634,28
394,72	1673,19
394,93	1751,01
395,14	1761,25
395,35	1767,40
395,56	1705,96
395,76	1787,88
395,97	1798,12
396,18	1859,56
396,39	1843,17
396,60	2017,25
396,80	1880,04
397,01	1834,98
397,22	1781,73
397,43	1845,22
397,64	1712,10
397,84	1847,27
398,05	1855,46
398,26	1806,31
398,47	1769,44
398,67	1789,92
398,88	1726,44
399,09	1755,11
399,30	1689,57
399,51	1710,05
399,71	1673,19
399,92	1695,72
400,13	1738,73
400,34	1742,82
400,54	1708,01
400,75	1814,50
400,96	1808,36
401,17	1890,28
401,37	1746,92
401,58	1732,58
401,79	1654,76
402,00	1882,08
402,21	2027,49
402,41	1943,52
402,62	1933,28
402,83	2002,91
403,04	2007,01
403,24	2062,30
403,45	1867,75
403,66	1896,42
403,87	1869,80
404,07	1886,18
404,28	1939,43
404,49	1882,08
404,70	1699,81
404,90	1796,07
405,11	1806,31
405,32	1722,34
405,52	1720,29
405,73	1662,95
405,94	1708,01
406,15	1714,15
406,35	1705,96
406,56	1785,83
406,77	1740,77
406,98	1763,30
407,18	1757,16
407,39	1783,78
407,60	1705,96
407,80	1779,68
408,01	1658,85
408,22	1734,63
408,43	1665,00
408,63	1765,35
408,84	1730,53
409,05	1773,54
409,25	1714,15
409,46	1654,76
409,67	1685,48
409,88	1677,29
410,08	1734,63
410,29	1726,44
410,50	1753,06
410,70	1683,43
410,91	1689,57
411,12	1738,73
411,32	1671,14
411,53	1744,87
411,74	1830,88
411,95	1806,31
412,15	1722,34
412,36	1730,53
412,57	1773,54
412,77	1787,88
412,98	1705,96
413,19	1781,73
413,39	1732,58
413,60	1820,64
413,81	1824,74
414,01	1648,61
414,22	1734,63
414,43	1798,12
414,63	1720,29
414,84	1812,45
415,05	1669,09
415,25	1621,99
415,46	1701,86
415,67	1607,66
415,87	1720,29
416,08	1722,34
416,29	1689,57
416,49	1654,76
416,70	1726,44
416,91	1683,43
417,11	1748,97
417,32	1765,35
417,53	1710,05
417,73	1685,48
417,94	1705,96
418,15	1714,15
418,35	1708,01
418,56	1693,67
418,77	1767,40
418,97	1621,99
419,18	1759,21
419,38	1566,70
419,59	1693,67
419,80	1771,49
420,00	1683,43
420,21	1712,10
420,42	1759,21
420,62	1751,01
420,83	1691,62
421,04	1644,52
421,24	1720,29
421,45	1855,46
421,65	1767,40
421,86	1730,53
422,07	1767,40
422,27	1701,86
422,48	1693,67
422,69	1681,38
422,89	1646,57
423,10	1673,19
423,30	1654,76
423,51	1701,86
423,72	1697,77
423,92	1746,92
424,13	1705,96
424,33	1671,14
424,54	1798,12
424,75	1705,96
424,95	1849,32
425,16	1787,88
425,36	1751,01
425,57	1738,73
425,78	1767,40
425,98	1771,49
426,19	1701,86
426,39	1689,57
426,60	1789,92
426,81	1822,69
427,01	1730,53
427,22	1685,48
427,42	1626,09
427,63	1714,15
427,83	1804,26
428,04	1785,83
428,25	1779,68
428,45	1798,12
428,66	1759,21
428,86	1757,16
429,07	1714,15
429,28	1759,21
429,48	1718,25
429,69	1714,15
429,89	1794,02
430,10	1632,23
430,30	1751,01
430,51	1810,40
430,71	1665,00
430,92	1675,24
431,13	1640,42
431,33	1712,10
431,54	1794,02
431,74	1851,36
431,95	1896,42
432,15	1740,77
432,36	1734,63
432,56	1740,77
432,77	1849,32
432,98	1828,84
433,18	1710,05
433,39	1734,63
433,59	1728,49
433,80	1777,64
434,00	1869,80
434,21	1703,91
434,41	1683,43
434,62	1837,03
434,82	1685,48
435,03	1742,82
435,23	1755,11
435,44	1685,48
435,64	1734,63
435,85	1763,30
436,06	1751,01
436,26	1699,81
436,47	1712,10
436,67	1665,00
436,88	1734,63
437,08	1730,53
437,29	1904,61
437,49	1804,26
437,70	1722,34
437,90	1771,49
438,11	1822,69
438,31	1839,08
438,52	1888,23
438,72	1875,94
438,93	1941,47
439,13	1834,98
439,34	1873,89
439,54	1705,96
439,75	1773,54
439,95	1767,40
440,16	1757,16
440,36	1789,92
440,57	1789,92
440,77	1822,69
440,98	1718,25
441,18	1742,82
441,39	1660,90
441,59	1650,66
441,80	1822,69
442,00	1718,25
442,21	1834,98
442,41	1644,52
442,62	1875,94
442,82	1708,01
443,02	1671,14
443,23	1748,97
443,43	1677,29
443,64	1822,69
443,84	1609,70
444,05	1800,16
444,25	1748,97
444,46	1708,01
444,66	1765,35
444,87	1804,26
445,07	1728,49
445,28	1646,57
445,48	1839,08
445,69	1660,90
445,89	1943,52
446,09	1771,49
446,30	2076,64
446,50	2676,70
446,71	3680,20
446,91	4282,30
447,12	4814,77
447,32	4751,29
447,53	4388,80
447,73	3844,04
447,93	3497,93
448,14	3385,29
448,34	3266,51
448,55	2979,79
448,75	2901,97
448,96	2635,74
449,16	2453,47
449,36	2349,02
449,57	2090,98
449,77	1947,62
449,98	1810,40
450,18	1816,55
450,39	1775,59
450,59	1763,30
450,79	1753,06
451,00	1722,34
451,20	1783,78
451,41	1701,86
451,61	1763,30
451,81	1673,19
452,02	1689,57
452,22	1767,40
452,43	1708,01
452,63	1691,62
452,84	1712,10
453,04	1658,85
453,24	1830,88
453,45	1746,92
453,65	1734,63
453,86	1708,01
454,06	1755,11
454,26	1771,49
454,47	1685,48
454,67	1757,16
454,87	1648,61
455,08	1779,68
455,28	1855,46
455,49	1746,92
455,69	1611,75
455,89	1914,85
456,10	1746,92
456,30	1673,19
456,51	1734,63
456,71	1806,31
456,91	1695,72
457,12	1771,49
457,32	1742,82
457,52	1689,57
457,73	1734,63
457,93	1765,35
458,14	1685,48
458,34	1617,90
458,54	1708,01
458,75	1708,01
458,95	1761,25
459,15	1714,15
459,36	1736,68
459,56	1783,78
459,76	1826,79
459,97	1742,82
460,17	1800,16
460,37	1845,22
460,58	1726,44
460,78	1789,92
460,99	1695,72
461,19	1716,20
461,39	1722,34
461,60	1726,44
461,80	1800,16
462,00	1697,77
462,21	1701,86
462,41	1642,47
462,61	1708,01
462,82	1677,29
463,02	1763,30
463,22	1697,77
463,43	1820,64
463,63	1789,92
463,83	1820,64
464,04	1746,92
464,24	1710,05
464,44	1808,36
464,64	1753,06
464,85	1785,83
465,05	1865,70
465,25	1796,07
465,46	1607,66
465,66	1742,82
465,86	1783,78
466,07	1722,34
466,27	1765,35
466,47	1654,76
466,68	1669,09
466,88	1804,26
467,08	1757,16
467,29	1783,78
467,49	1794,02
467,69	1691,62
467,89	1728,49
468,10	1767,40
468,30	1662,95
468,50	1837,03
468,71	1748,97
468,91	1755,11
469,11	1736,68
469,31	1712,10
469,52	1660,90
469,72	1865,70
469,92	1841,12
470,13	1714,15
470,33	1718,25
470,53	1804,26
470,73	2095,07
470,94	2336,73
471,14	2340,83
471,34	2510,81
471,54	2400,22
471,75	2244,57
471,95	2099,17
472,15	2041,82
472,36	2095,07
472,56	2021,35
472,76	2039,78
472,96	2027,49
473,17	2027,49
473,37	1900,52
473,57	1757,16
473,77	1882,08
473,98	1742,82
474,18	1755,11
474,38	1882,08
474,58	1699,81
474,79	1710,05
474,99	1728,49
475,19	1832,93
475,39	1630,18
475,60	1705,96
475,80	1714,15
476,00	1716,20
476,20	1669,09
476,41	1751,01
476,61	1781,73
476,81	1781,73
477,01	1748,97
477,21	1890,28
477,42	1796,07
477,62	1712,10
477,82	1693,67
478,02	1724,39
478,23	1722,34
478,43	1673,19
478,63	1710,05
478,83	1718,25
479,03	1685,48
479,24	1779,68
479,44	1832,93
479,64	1646,57
479,84	1640,42
480,04	1673,19
480,25	1718,25
480,45	1736,68
480,65	1728,49
480,85	1740,77
481,06	1712,10
481,26	1818,60
481,46	1738,73
481,66	1748,97
481,86	1679,33
482,06	1822,69
482,27	1708,01
482,47	1759,21
482,67	1796,07
482,87	1630,18
483,07	1765,35
483,28	1636,33
483,48	1550,31
483,68	1759,21
483,88	1722,34
484,08	1540,07
484,29	1570,79
484,49	1699,81
484,69	1710,05
484,89	1853,41
485,09	1814,50
485,29	1867,75
485,50	1724,39
485,70	1681,38
485,90	1773,54
486,10	1697,77
486,30	1771,49
486,50	1787,88
486,71	1701,86
486,91	1753,06
487,11	1845,22
487,31	1628,14
487,51	1773,54
487,71	1611,75
487,91	1564,65
488,12	1738,73
488,32	1566,70
488,52	1675,24
488,72	1601,51
488,92	1738,73
489,12	1826,79
489,32	1834,98
489,53	1722,34
489,73	1652,71
489,93	1847,27
490,13	1693,67
490,33	1677,29
490,53	1712,10
490,73	1834,98
490,94	1644,52
491,14	1812,45
491,34	1906,66
491,54	2080,74
491,74	2578,39
491,94	2863,06
492,14	3018,71
492,34	3047,38
492,54	2758,61
492,75	2498,52
492,95	2422,75
493,15	2328,54
493,35	2222,05
493,55	2222,05
493,75	2121,70
493,95	2136,03
494,15	2086,88
494,35	1902,56
494,56	1843,17
494,76	1744,87
494,96	1761,25
495,16	1828,84
495,36	1683,43
495,56	1716,20
495,76	1617,90
495,96	1736,68
496,16	1642,47
496,36	1816,55
496,56	1730,53
496,77	1753,06
496,97	1728,49
497,17	1769,44
497,37	1669,09
497,57	1841,12
497,77	1669,09
497,97	1722,34
498,17	1742,82
498,37	1800,16
498,57	1771,49
498,77	1685,48
498,97	1755,11
499,17	1775,59
499,38	1724,39
499,58	1783,78
499,78	1820,64
499,98	1755,11
500,18	1773,54
500,38	1701,86
500,58	1970,15
500,78	2521,05
500,98	4536,25
501,18	5785,51
501,38	6688,67
501,58	7032,72
501,78	6727,58
501,98	5558,19
502,18	5003,19
502,38	4382,65
502,58	4069,31
502,78	3882,95
502,98	3622,86
503,18	3538,89
503,38	3176,40
503,59	2770,90
503,79	2787,29
503,99	2490,33
504,19	2283,49
504,39	2260,96
504,59	2074,59
504,79	2197,47
504,99	2056,16
505,19	1892,32
505,39	1945,57
505,59	1933,28
505,79	1916,90
505,99	1875,94
506,19	1804,26
506,39	1912,80
506,59	1746,92
506,79	1779,68
506,99	1845,22
507,19	1783,78
507,39	1822,69
507,59	1699,81
507,79	1662,95
507,99	1724,39
508,19	1701,86
508,39	1640,42
508,59	1689,57
508,79	1820,64
508,99	1873,89
509,19	1744,87
509,39	1771,49
509,59	1695,72
509,79	1652,71
509,99	1800,16
510,19	1816,55
510,39	1791,97
510,59	1738,73
510,79	1724,39
510,99	1681,38
511,19	1722,34
511,39	1771,49
511,59	1804,26
511,79	1810,40
511,99	1796,07
512,19	1834,98
512,38	1748,97
512,58	1736,68
512,78	1744,87
512,98	1775,59
513,18	1865,70
513,38	1695,72
513,58	1693,67
513,78	1687,53
513,98	1685,48
514,18	1822,69
514,38	1753,06
514,58	1718,25
514,78	1734,63
514,98	1695,72
515,18	1734,63
515,38	1665,00
515,58	1900,52
515,78	1744,87
515,98	1740,77
516,18	1724,39
516,38	1691,62
516,57	1708,01
516,77	1718,25
516,97	1771,49
517,17	1697,77
517,37	1636,33
517,57	1748,97
517,77	1728,49
517,97	1697,77
518,17	1710,05
518,37	1691,62
518,57	1662,95
518,77	1728,49
518,97	1757,16
519,16	1767,40
519,36	1736,68
519,56	1748,97
519,76	1779,68
519,96	1656,81
520,16	1847,27
520,36	1691,62
520,56	1841,12
520,76	1697,77
520,96	1679,33
521,16	1779,68
521,35	1775,59
521,55	1804,26
521,75	1734,63
521,95	1642,47
522,15	1800,16
522,35	1701,86
522,55	1691,62
522,75	1814,50
522,95	1656,81
523,14	1730,53
523,34	1767,40
523,54	1710,05
523,74	1808,36
523,94	1789,92
524,14	1644,52
524,34	1753,06
524,54	1787,88
524,73	1783,78
524,93	1771,49
525,13	1728,49
525,33	1693,67
525,53	1920,99
525,73	1810,40
525,93	1796,07
526,13	1738,73
526,32	1806,31
526,52	1755,11
526,72	1804,26
526,92	1697,77
527,12	1705,96
527,32	1687,53
527,52	1814,50
527,71	1753,06
527,91	1705,96
528,11	1716,20
528,31	1791,97
528,51	1656,81
528,71	1812,45
528,90	1746,92
529,10	1814,50
529,30	1816,55
529,50	1603,56
529,70	1748,97
529,90	1769,44
530,09	1742,82
530,29	1736,68
530,49	1646,57
530,69	1902,56
530,89	1708,01
531,09	1732,58
531,28	1732,58
531,48	1789,92
531,68	1826,79
531,88	1722,34
532,08	1718,25
532,28	1677,29
532,47	1771,49
532,67	1771,49
532,87	1781,73
533,07	1640,42
533,27	1767,40
533,46	1734,63
533,66	1730,53
533,86	1773,54
534,06	1708,01
534,26	1800,16
534,45	1726,44
534,65	1738,73
534,85	1738,73
535,05	1660,90
535,25	1828,84
535,44	1615,85
535,64	1787,88
535,84	1691,62
536,04	1734,63
536,24	1708,01
536,43	1740,77
536,63	1771,49
536,83	1753,06
537,03	1630,18
537,22	1751,01
537,42	1669,09
537,62	1677,29
537,82	1767,40
538,02	1851,36
538,21	1796,07
538,41	1914,85
538,61	1789,92
538,81	1759,21
539,00	1783,78
539,20	1642,47
539,40	1681,38
539,60	1787,88
539,79	1755,11
539,99	1712,10
540,19	1705,96
540,39	1660,90
540,58	1828,84
540,78	1771,49
540,98	1726,44
541,18	1898,47
541,37	1755,11
541,57	1701,86
541,77	1693,67
541,97	1742,82
542,16	1728,49
542,36	1779,68
542,56	1759,21
542,76	1832,93
542,95	1757,16
543,15	1765,35
543,35	1808,36
543,54	1714,15
543,74	1699,81
543,94	1798,12
544,14	1701,86
544,33	1816,55
544,53	1681,38
544,73	1646,57
544,93	1722,34
545,12	1767,40
545,32	1734,63
545,52	1685,48
545,71	1724,39
545,91	1701,86
546,11	1765,35
546,30	1681,38
546,50	1757,16
546,70	1658,85
546,90	1744,87
547,09	1535,98
547,29	1730,53
547,49	1726,44
547,68	1744,87
547,88	1697,77
548,08	1751,01
548,27	2187,23
548,47	1681,38
548,67	1669,09
548,87	1693,67
549,06	1736,68
549,26	1810,40
549,46	1742,82
549,65	1726,44
549,85	1738,73
550,05	1769,44
550,24	1660,90
550,44	1771,49
550,64	1728,49
550,83	1763,30
551,03	1812,45
551,23	1822,69
551,42	1763,30
551,62	1697,77
551,82	1763,30
552,01	1720,29
552,21	1775,59
552,41	1718,25
552,60	1818,60
552,80	1794,02
553,00	1671,14
553,19	1771,49
553,39	1812,45
553,59	1726,44
553,78	1767,40
553,98	1777,64
554,17	1621,99
554,37	1775,59
554,57	1855,46
554,76	1751,01
554,96	1660,90
555,16	1783,78
555,35	1748,97
555,55	1724,39
555,75	1671,14
555,94	1791,97
556,14	1669,09
556,33	1746,92
556,53	1730,53
556,73	1718,25
556,92	1708,01
557,12	1849,32
557,32	1865,70
557,51	1794,02
557,71	1736,68
557,90	1822,69
558,10	1773,54
558,30	1742,82
558,49	1751,01
558,69	1738,73
558,88	1794,02
559,08	1722,34
559,28	1671,14
559,47	1789,92
559,67	1855,46
559,86	1847,27
560,06	1748,97
560,26	1695,72
560,45	1744,87
560,65	1771,49
560,84	1771,49
561,04	1671,14
561,24	1710,05
561,43	1673,19
561,63	1822,69
561,82	1724,39
562,02	1755,11
562,22	1714,15
562,41	1800,16
562,61	1773,54
562,80	1640,42
563,00	1845,22
563,19	1820,64
563,39	1787,88
563,59	1791,97
563,78	1716,20
563,98	1673,19
564,17	1695,72
564,37	1691,62
564,56	1728,49
564,76	1642,47
564,96	1761,25
565,15	1683,43
565,35	1884,13
565,54	1726,44
565,74	1841,12
565,93	1783,78
566,13	1718,25
566,32	1734,63
566,52	1736,68
566,71	1740,77
566,91	1837,03
567,11	1751,01
567,30	1699,81
567,50	1812,45
567,69	1779,68
567,89	1742,82
568,08	1755,11
568,28	1726,44
568,47	1667,05
568,67	1804,26
568,86	1720,29
569,06	1728,49
569,25	1845,22
569,45	1730,53
569,64	1697,77
569,84	1660,90
570,04	1808,36
570,23	1755,11
570,43	1724,39
570,62	1808,36
570,82	1871,84
571,01	1632,23
571,21	1742,82
571,40	1724,39
571,60	1771,49
571,79	1800,16
571,99	1806,31
572,18	1708,01
572,38	1771,49
572,57	1767,40
572,77	1796,07
572,96	1892,32
573,16	1767,40
573,35	1722,34
573,55	1853,41
573,74	1759,21
573,94	1738,73
574,13	1703,91
574,33	1781,73
574,52	1837,03
574,71	1779,68
574,91	1701,86
575,10	1691,62
575,30	1689,57
575,49	1724,39
575,69	1648,61
575,88	1845,22
576,08	1744,87
576,27	1777,64
576,47	1701,86
576,66	1832,93
576,86	1853,41
577,05	1800,16
577,25	1796,07
577,44	1871,84
577,64	1732,58
577,83	1787,88
578,02	1705,96
578,22	1722,34
578,41	1828,84
578,61	1757,16
578,80	1642,47
579,00	1785,83
579,19	1712,10
579,39	1771,49
579,58	1777,64
579,77	1673,19
579,97	1802,21
580,16	1808,36
580,36	1781,73
580,55	1830,88
580,75	1773,54
580,94	1824,74
581,13	1802,21
581,33	1914,85
581,52	1771,49
581,72	1877,99
581,91	1841,12
582,11	1800,16
582,30	1783,78
582,49	1769,44
582,69	1857,51
582,88	1851,36
583,08	1779,68
583,27	1869,80
583,47	1773,54
583,66	1714,15
583,85	1669,09
584,05	1685,48
584,24	1808,36
584,44	1761,25
584,63	1820,64
584,82	1841,12
585,02	1902,56
585,21	1841,12
585,41	1837,03
585,60	1802,21
585,79	1939,43
585,99	1882,08
586,18	1867,75
586,37	2224,09
586,57	3342,28
586,76	9813,87
586,96	24280,72
587,15	34201,08
587,34	40232,35
587,54	41891,20
587,73	36292,05
587,93	26232,43
588,12	21481,14
588,31	18112,24
588,51	16367,37
588,70	14855,97
588,89	14155,56
589,09	12517,18
589,28	10913,63
589,47	9582,45
589,67	7980,93
589,86	6350,75
590,06	4870,07
590,25	3983,30
590,44	3172,30
590,64	2592,73
590,83	2322,40
591,02	2062,30
591,22	1904,61
591,41	1949,67
591,60	1943,52
591,80	1939,43
591,99	1738,73
592,18	1845,22
592,38	1777,64
592,57	1779,68
592,76	1820,64
592,96	1869,80
593,15	1712,10
593,34	1865,70
593,54	1689,57
593,73	1810,40
593,92	1824,74
594,12	1755,11
594,31	1837,03
594,50	1853,41
594,70	1708,01
594,89	1853,41
595,08	1689,57
595,28	1794,02
595,47	1904,61
595,66	1812,45
595,86	1720,29
596,05	1720,29
596,24	1697,77
596,43	1820,64
596,63	1859,56
596,82	1763,30
597,01	1779,68
597,21	1796,07
597,40	1748,97
597,59	1796,07
597,79	1687,53
597,98	1767,40
598,17	1771,49
598,36	1736,68
598,56	1779,68
598,75	1681,38
598,94	1746,92
599,14	1722,34
599,33	1724,39
599,52	1845,22
599,71	1757,16
599,91	1771,49
600,10	1837,03
600,29	1740,77
600,48	1765,35
600,68	1834,98
600,87	1746,92
601,06	1757,16
601,26	1763,30
601,45	1740,77
601,64	1796,07
601,83	1775,59
602,03	1734,63
602,22	1714,15
602,41	1808,36
602,60	1865,70
602,80	1791,97
602,99	1789,92
603,18	1691,62
603,37	1720,29
603,57	1732,58
603,76	1806,31
603,95	1736,68
604,14	1742,82
604,34	1615,85
604,53	1693,67
604,72	1755,11
604,91	1787,88
605,10	1751,01
605,30	1746,92
605,49	1896,42
605,68	1775,59
605,87	1759,21
606,07	1701,86
606,26	1779,68
606,45	1796,07
606,64	1646,57
606,84	1775,59
607,03	1667,05
607,22	1794,02
607,41	1708,01
607,60	1732,58
607,80	1890,28
607,99	1746,92
608,18	1761,25
608,37	1697,77
608,56	1656,81
608,76	1822,69
608,95	1888,23
609,14	1794,02
609,33	1841,12
609,52	1826,79
609,72	1726,44
609,91	1828,84
610,10	1681,38
610,29	1820,64
610,48	1785,83
610,68	1714,15
610,87	1757,16
611,06	1757,16
611,25	1781,73
611,44	1808,36
611,63	1726,44
611,83	1804,26
612,02	1656,81
612,21	1843,17
612,40	1701,86
612,59	1685,48
612,79	1665,00
612,98	1759,21
613,17	1810,40
613,36	1748,97
613,55	1753,06
613,74	1697,77
613,93	1691,62
614,13	1667,05
614,32	1742,82
614,51	1804,26
614,70	1736,68
614,89	1689,57
615,08	1701,86
615,28	2105,31
615,47	1675,24
615,66	1806,31
615,85	1787,88
616,04	1751,01
616,23	1740,77
616,42	1722,34
616,62	1689,57
616,81	1714,15
617,00	1771,49
617,19	1798,12
617,38	1636,33
617,57	1757,16
617,76	1785,83
617,95	1771,49
618,15	1701,86
618,34	1808,36
618,53	1638,38
618,72	1767,40
618,91	1816,55
619,10	1808,36
619,29	1648,61
619,48	1773,54
619,68	1753,06
619,87	1658,85
620,06	1656,81
620,25	1845,22
620,44	1751,01
620,63	1738,73
620,82	1677,29
621,01	1761,25
621,20	1691,62
621,39	1740,77
621,59	1736,68
621,78	1685,48
621,97	1775,59
622,16	1701,86
622,35	1763,30
622,54	1740,77
622,73	1718,25
622,92	1640,42
623,11	1783,78
623,30	1665,00
623,49	1691,62
623,68	1697,77
623,88	1789,92
624,07	1716,20
624,26	1705,96
624,45	1763,30
624,64	1687,53
624,83	1839,08
625,02	1732,58
625,21	1791,97
625,40	1759,21
625,59	1751,01
625,78	1689,57
625,97	1744,87
626,16	1695,72
626,35	1771,49
626,54	1705,96
626,74	1746,92
626,93	1681,38
627,12	1773,54
627,31	1769,44
627,50	1685,48
627,69	1791,97
627,88	1681,38
628,07	1710,05
628,26	1656,81
628,45	1685,48
628,64	1656,81
628,83	1699,81
629,02	1703,91
629,21	1781,73
629,40	1783,78
629,59	1679,33
629,78	1648,61
629,97	1701,86
630,16	1642,47
630,35	1716,20
630,54	1673,19
630,73	1705,96
630,92	1738,73
631,11	1673,19
631,30	1697,77
631,49	1830,88
631,68	1779,68
631,87	1884,13
632,06	1669,09
632,25	1814,50
632,44	1732,58
632,63	1665,00
632,82	1726,44
633,01	1646,57
633,20	1720,29
633,39	1701,86
633,58	1652,71
633,77	1787,88
633,96	1724,39
634,15	1714,15
634,34	1695,72
634,53	1714,15
634,72	1693,67
634,91	1654,76
635,10	1777,64
635,29	1787,88
635,48	1693,67
635,67	1714,15
635,86	1603,56
636,05	1857,51
636,24	1689,57
636,43	1755,11
636,62	1843,17
636,81	1609,70
637,00	1722,34
637,19	1763,30
637,38	1712,10
637,57	1708,01
637,76	1738,73
637,95	1773,54
638,14	1710,05
638,33	1744,87
638,52	1718,25
638,71	1769,44
638,89	1675,24
639,08	1791,97
639,27	1767,40
639,46	1687,53
639,65	1798,12
639,84	1753,06
640,03	1812,45
640,22	1646,57
640,41	1755,11
640,60	1638,38
640,79	1722,34
640,98	1701,86
641,17	1730,53
641,36	1691,62
641,55	1689,57
641,74	1656,81
641,92	1722,34
642,11	1779,68
642,30	1716,20
642,49	1685,48
642,68	1675,24
642,87	1761,25
643,06	1742,82
643,25	1617,90
643,44	1771,49
643,63	1671,14
643,82	1734,63
644,00	1697,77
644,19	1748,97
644,38	1615,85
644,57	1779,68
644,76	1765,35
644,95	1753,06
645,14	1714,15
645,33	1691,62
645,52	1748,97
645,71	1603,56
645,89	1685,48
646,08	1730,53
646,27	1683,43
646,46	1751,01
646,65	1642,47
646,84	1683,43
647,03	1646,57
647,22	1806,31
647,40	1722,34
647,59	1718,25
647,78	1722,34
647,97	1730,53
648,16	1652,71
648,35	1857,51
648,54	1798,12
648,73	1732,58
648,91	1802,21
649,10	1697,77
649,29	1669,09
649,48	1699,81
649,67	1769,44
649,86	1714,15
650,05	1714,15
650,23	1781,73
650,42	1724,39
650,61	1763,30
650,80	1710,05
650,99	1886,18
651,18	1732,58
651,36	1767,40
651,55	1687,53
651,74	1765,35
651,93	1687,53
652,12	1730,53
652,31	1804,26
652,49	1759,21
652,68	1712,10
652,87	1779,68
653,06	1671,14
653,25	1832,93
653,44	1665,00
653,62	1798,12
653,81	1644,52
654,00	1781,73
654,19	1722,34
654,38	1931,23
654,56	1775,59
654,75	1695,72
654,94	1712,10
655,13	1640,42
655,32	1689,57
655,51	1767,40
655,69	1708,01
655,88	1722,34
656,07	1640,42
656,26	1734,63
656,45	1636,33
656,63	1705,96
656,82	1728,49
657,01	1708,01
657,20	1687,53
657,38	1826,79
657,57	1609,70
657,76	1656,81
657,95	1763,30
658,14	1796,07
658,32	1689,57
658,51	1716,20
658,70	1800,16
658,89	1736,68
659,08	1744,87
659,26	1841,12
659,45	1665,00
659,64	1779,68
659,83	1675,24
660,01	1900,52
660,20	1685,48
660,39	1808,36
660,58	1630,18
660,76	1755,11
660,95	1632,23
661,14	1740,77
661,33	1679,33
661,51	1726,44
661,70	1658,85
661,89	1746,92
662,08	1740,77
662,26	1636,33
662,45	1669,09
662,64	1779,68
662,83	1697,77
663,01	1671,14
663,20	1710,05
663,39	1779,68
663,58	1699,81
663,76	1697,77
663,95	1777,64
664,14	1675,24
664,32	1677,29
664,51	1689,57
664,70	1675,24
664,89	1730,53
665,07	1691,62
665,26	1806,31
665,45	1648,61
665,64	1693,67
665,82	1708,01
666,01	1773,54
666,20	1730,53
666,38	1816,55
666,57	1832,93
666,76	2187,23
666,95	4460,48
667,13	10319,71
667,32	15208,22
667,51	17798,90
667,69	19021,53
667,88	17792,75
668,07	12511,04
668,25	9471,86
668,44	8058,76
668,63	7229,33
668,81	6764,44
669,00	6178,72
669,19	5760,94
669,38	5085,11
669,56	4495,29
669,75	4050,88
669,94	3424,20
670,12	2873,30
670,31	2602,97
670,50	2308,06
670,68	2062,30
670,87	1914,85
671,06	1877,99
671,24	1853,41
671,43	1812,45
671,62	1791,97
671,80	1697,77
671,99	1746,92
672,18	1705,96
672,36	1755,11
672,55	1736,68
672,74	1679,33
672,92	1708,01
673,11	1826,79
673,29	1652,71
673,48	1796,07
673,67	1738,73
673,85	1800,16
674,04	1667,05
674,23	1789,92
674,41	1814,50
674,60	1685,48
674,79	1624,04
674,97	1665,00
675,16	1773,54
675,34	1763,30
675,53	1648,61
675,72	1767,40
675,90	1861,60
676,09	1644,52
676,28	1624,04
676,46	1654,76
676,65	1671,14
676,83	1675,24
677,02	1765,35
677,21	1718,25
677,39	1636,33
677,58	1724,39
677,77	1683,43
677,95	1671,14
678,14	1744,87
678,32	1697,77
678,51	1683,43
678,70	1847,27
678,88	1660,90
679,07	1644,52
679,25	1730,53
679,44	1619,94
679,63	1636,33
679,81	1728,49
680,00	1824,74
680,18	1812,45
680,37	1810,40
680,55	1677,29
680,74	1636,33
680,93	1667,05
681,11	1726,44
681,30	1779,68
681,48	1755,11
681,67	1759,21
681,85	1773,54
682,04	1642,47
682,23	1742,82
682,41	1689,57
682,60	1708,01
682,78	1683,43
682,97	1677,29
683,15	1746,92
683,34	1775,59
683,53	1830,88
683,71	1710,05
683,90	1748,97
684,08	1746,92
684,27	1728,49
684,45	1775,59
684,64	1785,83
684,82	1767,40
685,01	1798,12
685,19	1699,81
685,38	1820,64
685,57	1726,44
685,75	1679,33
685,94	1677,29
686,12	1695,72
686,31	1660,90
686,49	1808,36
686,68	1644,52
686,86	1695,72
687,05	1585,13
687,23	1789,92
687,42	1685,48
687,60	1730,53
687,79	1703,91
687,97	1810,40
688,16	1783,78
688,34	1751,01
688,53	1607,66
688,71	1806,31
688,90	1742,82
689,08	1675,24
689,27	1638,38
689,45	1748,97
689,64	1669,09
689,82	1773,54
690,01	1787,88
690,19	1722,34
690,38	1675,24
690,56	1757,16
690,75	1701,86
690,93	1705,96
691,12	1673,19
691,30	1683,43
691,49	1685,48
691,67	1730,53
691,86	1798,12
692,04	1712,10
692,23	1701,86
692,41	1718,25
692,60	1865,70
692,78	1685,48
692,97	1701,86
693,15	1697,77
693,34	1785,83
693,52	1767,40
693,71	1671,14
693,89	1652,71
694,08	1599,46
694,26	1689,57
694,44	1699,81
694,63	1796,07
694,81	1656,81
695,00	1624,04
695,18	1824,74
695,37	1796,07
695,55	1744,87
695,74	1728,49
695,92	1728,49
696,10	1843,17
696,29	1650,66
696,47	1708,01
696,66	1697,77
696,84	1628,14
697,03	1640,42
697,21	1822,69
697,40	2326,49
697,58	1746,92
697,76	1759,21
697,95	1648,61
698,13	1634,28
698,32	1738,73
698,50	1771,49
698,68	1759,21
698,87	1734,63
699,05	1853,41
699,24	1744,87
699,42	1683,43
699,61	1785,83
699,79	1673,19
699,97	1628,14
700,16	1585,13
700,34	1708,01
700,53	1779,68
700,71	1748,97
700,89	1746,92
701,08	1730,53
701,26	1640,42
701,45	2140,13
701,63	1644,52
701,81	1738,73
702,00	1691,62
702,18	1765,35
702,37	1673,19
702,55	1638,38
702,73	1695,72
702,92	1679,33
703,10	1708,01
703,28	1675,24
703,47	1697,77
703,65	1779,68
703,84	1818,60
704,02	1681,38
704,20	1818,60
704,39	1724,39
704,57	1734,63
704,75	1757,16
704,94	1769,44
705,12	1699,81
705,30	1763,30
705,49	2254,81
705,67	4294,59
705,86	9340,79
706,04	12408,64
706,22	14343,97
706,41	15216,41
706,59	13827,88
706,77	9557,87
706,96	7337,87
707,14	6557,60
707,32	5904,29
707,51	5500,84
707,69	4853,69
707,87	4011,97
708,06	3559,37
708,24	2934,74
708,42	2387,93
708,61	2281,44
708,79	1923,04
708,97	1890,28
709,16	1853,41
709,34	1748,97
709,52	1791,97
709,71	1718,25
709,89	1726,44
710,07	1662,95
710,26	1650,66
710,44	1689,57
710,62	1767,40
710,80	1693,67
710,99	1734,63
711,17	1759,21
711,35	1718,25
711,54	1710,05
711,72	1880,04
711,90	1738,73
712,09	1722,34
712,27	1726,44
712,45	1785,83
712,63	1673,19
712,82	1697,77
713,00	1771,49
713,18	1830,88
713,37	1732,58
713,55	1767,40
713,73	1714,15
713,91	1671,14
714,10	1722,34
714,28	1751,01
714,46	1697,77
714,65	1744,87
714,83	1761,25
715,01	1720,29
715,19	1687,53
715,38	1722,34
715,56	1767,40
715,74	1652,71
715,92	1560,55
716,11	1779,68
716,29	1662,95
716,47	1595,37
716,65	1691,62
716,84	1681,38
717,02	1748,97
717,20	1560,55
717,38	1603,56
717,57	1687,53
717,75	1732,58
717,93	1681,38
718,11	1708,01
718,30	1599,46
718,48	1738,73
718,66	1820,64
718,84	1738,73
719,03	1767,40
719,21	1615,85
719,39	1796,07
719,57	1728,49
719,75	1800,16
719,94	1632,23
720,12	1697,77
720,30	1710,05
720,48	1787,88
720,67	1697,77
720,85	1624,04
721,03	1703,91
721,21	1693,67
721,39	1806,31
721,58	1738,73
721,76	1742,82
721,94	1759,21
722,12	1683,43
722,30	1773,54
722,49	1693,67
722,67	1699,81
722,85	1705,96
723,03	1619,94
723,21	1652,71
723,40	1806,31
723,58	1738,73
723,76	1710,05
723,94	1800,16
724,12	1716,20
724,30	1718,25
724,49	1779,68
724,67	1646,57
724,85	1810,40
725,03	1576,94
725,21	1746,92
725,40	1757,16
725,58	1685,48
725,76	1853,41
725,94	1665,00
726,12	1656,81
726,30	1763,30
726,49	1652,71
726,67	1771,49
726,85	1716,20
727,03	1714,15
727,21	2183,13
727,39	2928,60
727,57	3819,46
727,76	4265,92
727,94	4614,07
728,12	4353,98
728,30	3737,54
728,48	3061,71
728,66	2775,00
728,84	2498,52
729,03	2238,43
729,21	2213,85
729,39	1871,84
729,57	1886,18
729,75	1814,50
729,93	1869,80
730,11	1697,77
730,30	1683,43
730,48	1726,44
730,66	1740,77
730,84	1767,40
731,02	1712,10
731,20	1646,57
731,38	1699,81
731,56	1654,76
731,74	1714,15
731,93	1734,63
732,11	1677,29
732,29	1771,49
732,47	1708,01
732,65	1734,63
732,83	1794,02
733,01	1789,92
733,19	1693,67
733,37	1693,67
733,56	1697,77
733,74	1718,25
733,92	1763,30
734,10	1779,68
734,28	1689,57
734,46	1636,33
734,64	1660,90
734,82	1712,10
735,00	1628,14
735,18	1732,58
735,36	1681,38
735,54	1693,67
735,73	1718,25
735,91	1691,62
736,09	1728,49
736,27	1724,39
736,45	1669,09
736,63	1550,31
736,81	1654,76
736,99	1787,88
737,17	1804,26
737,35	1787,88
737,53	1736,68
737,71	1689,57
737,89	1779,68
738,07	1677,29
738,25	1660,90
738,43	1632,23
738,61	1650,66
738,80	1640,42
738,98	1628,14
739,16	1699,81
739,34	1611,75
739,52	1751,01
739,70	1697,77
739,88	1746,92
740,06	1785,83
740,24	1738,73
740,42	1796,07
740,60	1560,55
740,78	1677,29
740,96	1595,37
741,14	1689,57
741,32	1701,86
741,50	1628,14
741,68	1888,23
741,86	1753,06
742,04	1605,61
742,22	1675,24
742,40	1712,10
742,58	1779,68
742,76	1658,85
742,94	1730,53
743,12	1660,90
743,30	1705,96
743,48	1742,82
743,66	1644,52
743,84	1652,71
744,02	1726,44
744,20	1759,21
744,38	1660,90
744,56	1681,38
744,74	1781,73
744,92	1708,01
745,10	1787,88
745,28	1732,58
745,46	1765,35
745,64	1634,28
745,82	1718,25
746,00	1730,53
746,18	1794,02
746,36	1615,85
746,54	1716,20
746,72	1714,15
746,90	1667,05
747,08	1757,16
747,26	1675,24
747,44	1761,25
747,62	1740,77
747,80	1777,64
747,98	1734,63
748,15	1648,61
748,33	1820,64
748,51	1759,21
748,69	1748,97
748,87	1744,87
749,05	1652,71
749,23	1708,01
749,41	1746,92
749,59	1718,25
749,77	1714,15
749,95	1683,43
750,13	1636,33
750,31	1730,53
750,49	1683,43
750,67	1708,01
750,85	1742,82
751,03	1783,78
751,20	1746,92
751,38	1718,25
751,56	1667,05
751,74	1712,10
751,92	1714,15
752,10	1728,49
752,28	1755,11
752,46	1660,90
752,64	1662,95
752,82	1634,28
753,00	1726,44
753,18	1654,76
753,35	1650,66
753,53	1695,72
753,71	1628,14
753,89	1681,38
754,07	1630,18
754,25	1769,44
754,43	1765,35
754,61	1597,42
754,79	1794,02
754,97	1677,29
755,14	1748,97
755,32	1681,38
755,50	1714,15
755,68	1673,19
755,86	1609,70
756,04	1609,70
756,22	1632,23
756,40	1791,97
756,57	1800,16
756,75	1695,72
756,93	1765,35
757,11	1798,12
757,29	1730,53
757,47	1613,80
757,65	1656,81
757,82	1613,80
758,00	1722,34
758,18	1718,25
758,36	1732,58
758,54	1748,97
758,72	1603,56
758,90	1724,39
759,07	1718,25
759,25	1619,94
759,43	1734,63
759,61	1642,47
759,79	2197,47
759,97	1765,35
760,15	1681,38
760,32	1656,81
760,50	1767,40
760,68	1828,84
760,86	1632,23
761,04	1816,55
761,22	1748,97
761,39	1720,29
761,57	1800,16
761,75	1744,87
761,93	1726,44
762,11	1722,34
762,28	1685,48
762,46	1673,19
762,64	1748,97
762,82	1640,42
763,00	1619,94
763,18	1785,83
763,35	1634,28
763,53	1724,39
763,71	1658,85
763,89	1740,77
764,07	1759,21
764,24	1728,49
764,42	1755,11
764,60	1755,11
764,78	1767,40
764,96	1703,91
765,13	1751,01
765,31	1701,86
765,49	1748,97
765,67	1660,90
765,84	1644,52
766,02	1681,38
766,20	1613,80
766,38	1744,87
766,56	1732,58
766,73	1765,35
766,91	1701,86
767,09	1693,67
767,27	1720,29
767,44	1660,90
767,62	1740,77
767,80	1767,40
767,98	1761,25
768,15	1722,34
768,33	1677,29
768,51	1748,97
768,69	1771,49
768,87	1775,59
769,04	1740,77
769,22	1877,99
769,40	1822,69
769,58	1890,28
769,75	1773,54
769,93	1712,10
770,11	1609,70
770,28	1632,23
770,46	1667,05
770,64	1773,54
770,82	1654,76
770,99	1650,66
771,17	1705,96
771,35	1673,19
771,53	1742,82
771,70	1740,77
771,88	1779,68
772,06	1730,53
772,23	1667,05
772,41	1810,40
772,59	1681,38
772,77	1648,61
772,94	1777,64
773,12	1746,92
773,30	1638,38
773,47	1701,86
773,65	1648,61
773,83	1783,78
774,01	1675,24
774,18	1632,23
774,36	1691,62
774,54	1652,71
774,71	1697,77
774,89	1587,18
775,07	1644,52
775,24	1552,36
775,42	1718,25
775,60	1937,38
775,78	1615,85
775,95	1630,18
776,13	1710,05
776,31	1624,04
776,48	1697,77
776,66	1826,79
776,84	1624,04
777,01	1656,81
777,19	1685,48
777,37	1685,48
777,54	1699,81
777,72	1789,92
777,90	1814,50
778,07	1763,30
778,25	1935,33
778,43	1724,39
778,60	1644,52
778,78	1701,86
778,96	1800,16
779,13	1578,98
779,31	1806,31
779,49	1710,05
779,66	1691,62
779,84	1736,68
780,01	1757,16
780,19	1634,28
780,37	1716,20
780,54	1699,81
780,72	1658,85
780,90	1699,81
781,07	1669,09
781,25	1701,86
781,43	1705,96
781,60	1654,76
781,78	1765,35
781,95	1718,25
782,13	1648,61
782,31	1708,01
782,48	1585,13
782,66	1671,14
782,83	1828,84
783,01	1765,35
783,19	1769,44
783,36	1724,39
783,54	1673,19
783,72	1804,26
783,89	1660,90
784,07	1677,29
784,24	1759,21
784,42	1787,88
784,60	1728,49
784,77	1697,77
784,95	1656,81
785,12	1697,77
785,30	1730,53
785,47	1613,80
785,65	1652,71
785,83	1708,01
786,00	1679,33
786,18	1652,71
786,35	1679,33
786,53	1609,70
786,71	1714,15
786,88	1771,49
787,06	1705,96
787,23	1722,34
787,41	1636,33
787,58	1679,33
787,76	1646,57
787,94	1722,34
788,11	1736,68
788,29	1644,52
788,46	1685,48
788,64	1648,61
788,81	1722,34
788,99	1683,43
789,16	1683,43
789,34	1751,01
789,52	1687,53
789,69	1718,25
789,87	1601,51
790,04	1683,43
790,22	1685,48
790,39	1824,74
790,57	1617,90
790,74	1722,34
790,92	1722,34
791,09	1581,03
791,27	1689,57
791,44	1761,25
791,62	1632,23
791,79	1740,77
791,97	1611,75
792,15	1894,37
792,32	1710,05
792,50	1671,14
792,67	1744,87
792,85	1763,30
793,02	1708,01
793,20	1687,53
793,37	1638,38
793,55	1748,97
793,72	1613,80
793,90	1732,58
794,07	1638,38
794,25	1669,09
794,42	1759,21
794,60	1742,82
794,77	1738,73
794,95	1726,44
795,12	1724,39
795,30	1755,11
795,47	1599,46
795,65	1892,32
795,82	1701,86
796,00	1699,81
796,17	1673,19
796,34	1687,53
796,52	1753,06
796,69	1751,01
796,87	1767,40
797,04	1705,96
797,22	1724,39
797,39	1710,05
797,57	1742,82
797,74	1800,16
797,92	1763,30
798,09	1699,81
798,27	1787,88
798,44	1654,76
798,62	1703,91
798,79	1773,54
798,96	1712,10
799,14	1652,71
799,31	1855,46
799,49	1673,19
799,66	1701,86
799,84	1697,77
800,01	1718,25
800,19	1779,68
800,36	1648,61
800,53	1751,01
800,71	1722,34
800,88	1804,26
801,06	1693,67
801,23	1652,71
801,41	1722,34
801,58	1656,81
801,75	1628,14
801,93	1781,73
802,10	1753,06
802,28	1705,96
802,45	1705,96
802,63	1638,38
802,80	1771,49
802,97	1730,53
803,15	1640,42
803,32	1636,33
803,50	1669,09
803,67	1685,48
803,84	1757,16
804,02	1726,44
804,19	1724,39
804,37	1605,61
804,54	1673,19
804,71	1660,90
804,89	1705,96
805,06	1683,43
805,24	1597,42
805,41	1693,67
805,58	1591,27
805,76	1783,78
805,93	1769,44
806,10	1798,12
806,28	1757,16
806,45	1685,48
806,63	1755,11
806,80	1652,71
806,97	1714,15
807,15	1740,77
807,32	1703,91
807,49	1683,43
807,67	1613,80
807,84	1751,01
808,01	1656,81
808,19	1898,47
808,36	1744,87
808,54	1644,52
808,71	1665,00
808,88	1751,01
809,06	1685,48
809,23	1730,53
809,40	1726,44
809,58	1736,68
809,75	1722,34
809,92	1599,46
810,10	1812,45
810,27	1669,09
810,44	1722,34
810,62	1751,01
810,79	1683,43
810,96	1669,09
811,14	1675,24
811,31	1748,97
811,48	1685,48
811,66	1697,77
811,83	1740,77
812,00	1724,39
812,18	1708,01
812,35	1839,08
812,52	1671,14
812,69	1740,77
812,87	1708,01
813,04	1685,48
813,21	1669,09
813,39	1654,76
813,56	1656,81
813,73	1730,53
813,91	1712,10
814,08	1726,44
814,25	1628,14
814,42	1630,18
814,60	1683,43
814,77	1714,15
814,94	1697,77
815,12	1777,64
815,29	1759,21
815,46	1693,67
815,63	1761,25
815,81	1654,76
815,98	1695,72
816,15	1695,72
816,33	1730,53
816,50	1714,15
816,67	1724,39
816,84	1654,76
817,02	1675,24
817,19	1693,67
817,36	1763,30
817,53	1724,39
817,71	1740,77
817,88	1771,49
818,05	1708,01
818,22	1658,85
818,40	1773,54
818,57	1779,68
818,74	1642,47
818,91	1689,57
819,09	1779,68
819,26	1746,92
819,43	1638,38
819,60	1708,01
819,78	1728,49
819,95	1740,77
820,12	1605,61
820,29	1789,92
820,47	1759,21
820,64	1605,61
820,81	1615,85
820,98	1619,94
821,15	1701,86
821,33	1716,20
821,50	1636,33
821,67	1722,34
821,84	1607,66
822,02	1748,97
822,19	1779,68
822,36	1744,87
822,53	1734,63
822,70	1589,22
822,88	1683,43
823,05	1751,01
823,22	1636,33
823,39	1699,81
823,56	1636,33
823,74	1834,98
823,91	1628,14
824,08	1689,57
824,25	1632,23
824,42	1767,40
824,60	1597,42
824,77	1812,45
824,94	1634,28
825,11	1734,63
825,28	1591,27
825,45	1728,49
825,63	1617,90
825,80	1605,61
825,97	1728,49
826,14	1683,43
826,31	1636,33
826,48	1837,03
826,66	1660,90
826,83	1736,68
827,00	1708,01
827,17	1621,99
827,34	1677,29
827,51	1685,48
827,69	1730,53
827,86	1624,04
828,03	1730,53
828,20	1732,58
828,37	1646,57
828,54	1685,48
828,71	1654,76
828,89	1773,54
829,06	1665,00
829,23	1798,12
829,40	1638,38
829,57	1667,05
829,74	1712,10
829,91	1667,05
830,09	1693,67
830,26	1714,15
830,43	1742,82
830,60	1681,38
830,77	1720,29
830,94	1808,36
831,11	1759,21
831,28	1630,18
831,46	1730,53
831,63	1755,11
831,80	1775,59
831,97	1636,33
832,14	1603,56
832,31	1699,81
832,48	1718,25
832,65	1765,35
832,82	1714,15
832,99	1726,44
833,17	1697,77
833,34	1716,20
833,51	1730,53
833,68	1591,27
833,85	1697,77
834,02	1701,86
834,19	1665,00
834,36	1566,70
834,53	1714,15
834,70	1738,73
834,87	1781,73
835,04	1665,00
835,22	1660,90
835,39	1728,49
835,56	1652,71
835,73	1658,85
835,90	1763,30
836,07	1650,66
836,24	1722,34
836,41	1607,66
836,58	1677,29
836,75	1796,07
836,92	1771,49
837,09	1628,14
837,26	1755,11
837,43	1794,02
837,60	1732,58
837,77	1685,48
837,94	1718,25
838,12	1775,59
838,29	1730,53
838,46	1693,67
838,63	1673,19
838,80	1777,64
838,97	1710,05
839,14	1748,97
839,31	1705,96
839,48	1683,43
839,65	1687,53
839,82	1744,87
839,99	1697,77
840,16	1697,77
840,33	1656,81
840,50	1714,15
840,67	1642,47
840,84	1525,74
841,01	1767,40
841,18	1699,81
841,35	1695,72
841,52	1761,25
841,69	1789,92
841,86	1753,06
842,03	1740,77
842,20	1769,44
842,37	1701,86
842,54	1667,05
842,71	1740,77
842,88	1652,71
843,05	1738,73
843,22	1701,86
843,39	1734,63
843,56	1705,96
843,73	1738,73
843,90	1757,16
844,07	1687,53
844,24	1757,16
844,41	1771,49
844,58	1757,16
844,75	1748,97
844,92	1732,58
845,09	1613,80
845,26	1652,71
845,43	1732,58
845,60	1652,71
845,77	1740,77
845,94	1759,21
846,10	1722,34
846,27	1648,61
846,44	1648,61
846,61	1689,57
846,78	1746,92
846,95	1714,15
847,12	1751,01
847,29	1671,14
847,46	1728,49
847,63	1726,44
847,80	1642,47
847,97	1650,66
848,14	1779,68
848,31	1703,91
848,48	1595,37
848,65	1787,88
848,82	1638,38
848,98	1822,69
849,15	1697,77
849,32	1826,79
849,49	1699,81
849,66	1705,96
849,83	1763,30
850,00	1652,71
850,17	1734,63
850,34	1691,62
850,51	1632,23
850,68	1720,29
850,85	1798,12
851,01	1697,77
851,18	1730,53
851,35	1732,58
851,52	1703,91
851,69	1730,53
851,86	1632,23
852,03	1748,97
852,20	1683,43
852,37	1705,96
852,53	1662,95
852,70	1667,05
852,87	1730,53
853,04	1804,26
853,21	1714,15
853,38	1785,83
853,55	1777,64
853,72	1777,64
853,89	1638,38
854,05	1738,73
854,22	1683,43
854,39	1710,05
854,56	1677,29
854,73	1734,63
854,90	1708,01
855,07	1634,28
855,23	1701,86
855,40	1736,68
855,57	1757,16
855,74	1605,61
855,91	1834,98
856,08	1597,42
856,25	1769,44
856,41	1722,34
856,58	1650,66
856,75	1714,15
856,92	1599,46
857,09	1826,79
857,26	1611,75
857,42	1693,67
857,59	1689,57
857,76	1757,16
857,93	1742,82
858,10	1761,25
858,27	1624,04
858,43	1726,44
858,60	1648,61
858,77	1593,32
858,94	1716,20
859,11	1746,92
859,27	1716,20
859,44	1718,25
859,61	1812,45
859,78	1689,57
859,95	1675,24
860,12	1759,21
860,28	1824,74
860,45	1845,22
860,62	1624,04
860,79	1697,77
860,95	1738,73
861,12	1714,15
861,29	1714,15
861,46	1693,67
861,63	1652,71
861,79	1685,48
861,96	1736,68
862,13	1605,61
862,30	1802,21
862,47	1669,09
862,63	1642,47
862,80	1789,92
862,97	1765,35
863,14	1771,49
863,30	1695,72
863,47	1701,86
863,64	1779,68
863,81	1624,04
863,97	1708,01
864,14	1787,88
864,31	1716,20
864,48	1710,05
864,65	1640,42
864,81	1800,16
864,98	1867,75
865,15	1736,68
865,32	1687,53
865,48	1826,79
865,65	1830,88
865,82	1685,48
865,98	1783,78
866,15	1726,44
866,32	1755,11
866,49	1699,81
866,65	1697,77
866,82	1605,61
866,99	1730,53
867,16	1624,04
867,32	1716,20
867,49	1681,38
867,66	1738,73
867,83	1671,14
867,99	1599,46
868,16	1656,81
868,33	1634,28
868,49	1722,34
868,66	1640,42
868,83	1787,88
868,99	1720,29
869,16	1708,01
869,33	1710,05
869,50	1761,25
869,66	1705,96
869,83	1759,21
870,00	1650,66
870,16	1691,62
870,33	1689,57
870,50	1730,53
870,66	1705,96
870,83	1863,65
871,00	1662,95
871,17	1812,45
871,33	1779,68
871,50	1667,05
871,67	1697,77
871,83	1601,51
872,00	1826,79
872,17	1660,90
872,33	1800,16
872,50	1710,05
872,67	1734,63
872,83	1693,67
873,00	1744,87
873,17	1626,09
873,33	1738,73
873,50	1748,97
873,67	1667,05
873,83	1583,08
874,00	1677,29
874,16	1740,77
874,33	1720,29
874,50	1613,80
874,66	1732,58
874,83	1652,71
875,00	1771,49
875,16	1746,92
875,33	1800,16
875,50	1595,37
875,66	1669,09
875,83	1753,06
875,99	1710,05
876,16	1716,20
876,33	1632,23
876,49	1703,91
876,66	1742,82
876,83	1701,86
876,99	1603,56
877,16	1742,82
877,32	1705,96
877,49	1669,09
877,66	1730,53
877,82	1732,58
877,99	1628,14
878,15	1705,96
878,32	1779,68
878,49	1703,91
878,65	1753,06
878,82	1771,49
878,98	1687,53
879,15	1718,25
879,32	1763,30
879,48	1648,61
879,65	1667,05
879,81	1656,81
879,98	1697,77
880,15	1742,82
880,31	1798,12
880,48	1601,51
880,64	1777,64
880,81	1658,85
880,97	1910,75
881,14	1853,41
881,31	1656,81
881,47	1808,36
881,64	1703,91
881,80	1595,37
881,97	1746,92
882,13	1773,54
882,30	1607,66
882,47	1636,33
882,63	1617,90
882,80	1662,95
882,96	1632,23
883,13	1779,68
883,29	1769,44
883,46	1802,21
883,62	1824,74
883,79	1687,53
883,95	1716,20
884,12	1697,77
884,29	1632,23
884,45	1652,71
884,62	1718,25
884,78	1615,85
884,95	1830,88
885,11	1642,47
885,28	1767,40
885,44	1615,85
885,61	1724,39
885,77	1728,49
885,94	1736,68
886,10	1636,33
886,27	1751,01
886,43	1722,34
886,60	1759,21
886,76	1755,11
886,93	1738,73
887,09	1697,77
887,26	1665,00
887,42	1785,83
887,59	1689,57
887,75	1812,45
887,92	1714,15
888,08	1779,68
888,25	1787,88
888,41	1732,58
888,58	1712,10
888,74	1677,29
888,91	1669,09
>>>>>End Processed Spectral Data<<<<<
