SpectraSuite Data File
++++++++++++++++++++++++++++++++++++
Date: Mon Jun 06 16:08:17 CEST 2016
User: root
Dark Spectrum Present: No
Reference Spectrum Present: No
Number of Sampled Component Spectra: 1
Spectrometers: USB4C02835
Integration Time (usec): 100000 (USB4C02835)
Spectra Averaged: 1 (USB4C02835)
Boxcar Smoothing: 0 (USB4C02835)
Correct for Electrical Dark: No (USB4C02835)
Strobe/Lamp Enabled: No (USB4C02835)
Correct for Detector Non-linearity: No (USB4C02835)
Correct for Stray Light: No (USB4C02835)
Number of Pixels in Processed Spectrum: 3648
>>>>>Begin Processed Spectral Data<<<<<
177,47	1460,20
177,69	1460,20
177,91	1460,20
178,13	1460,20
178,36	1515,50
178,58	1587,18
178,80	1738,73
179,02	1621,99
179,24	1615,85
179,46	1740,77
179,68	1802,21
179,90	1716,20
180,13	1789,92
180,35	1644,52
180,57	1677,29
180,79	1703,91
181,01	1755,11
181,23	1800,16
181,45	1843,17
181,67	1798,12
181,90	1798,12
182,12	1669,09
182,34	1603,56
182,56	1742,82
182,78	1724,39
183,00	1710,05
183,22	1656,81
183,44	1605,61
183,66	1853,41
183,89	1804,26
184,11	1660,90
184,33	1767,40
184,55	1714,15
184,77	1662,95
184,99	1736,68
185,21	1626,09
185,43	1849,32
185,65	1722,34
185,87	1726,44
186,10	1794,02
186,32	1804,26
186,54	1714,15
186,76	1763,30
186,98	1783,78
187,20	1714,15
187,42	1724,39
187,64	1720,29
187,86	1765,35
188,08	1705,96
188,30	1665,00
188,52	1667,05
188,75	1791,97
188,97	1806,31
189,19	1648,61
189,41	1658,85
189,63	1734,63
189,85	1763,30
190,07	1642,47
190,29	1681,38
190,51	1705,96
190,73	1634,28
190,95	1828,84
191,17	1744,87
191,39	1689,57
191,61	1691,62
191,84	1767,40
192,06	1697,77
192,28	1562,60
192,50	1978,34
192,72	1742,82
192,94	1665,00
193,16	1738,73
193,38	1726,44
193,60	1683,43
193,82	1755,11
194,04	1730,53
194,26	1712,10
194,48	1773,54
194,70	1738,73
194,92	1644,52
195,14	1673,19
195,36	1691,62
195,58	1755,11
195,80	1714,15
196,02	1615,85
196,24	1701,86
196,46	1681,38
196,69	1724,39
196,91	1880,04
197,13	1697,77
197,35	1648,61
197,57	1736,68
197,79	1777,64
198,01	1710,05
198,23	1794,02
198,45	1755,11
198,67	1642,47
198,89	1708,01
199,11	1718,25
199,33	1630,18
199,55	1644,52
199,77	1693,67
199,99	1738,73
200,21	1742,82
200,43	1746,92
200,65	1624,04
200,87	1611,75
201,09	1662,95
201,31	1697,77
201,53	1755,11
201,75	1767,40
201,97	1748,97
202,19	1669,09
202,41	1738,73
202,63	1834,98
202,85	1738,73
203,07	1697,77
203,29	1667,05
203,51	1681,38
203,73	1705,96
203,95	1966,05
204,17	1714,15
204,39	1763,30
204,61	1726,44
204,83	1609,70
205,05	1771,49
205,27	1734,63
205,49	1814,50
205,71	1730,53
205,93	1650,66
206,15	1638,38
206,37	1685,48
206,59	1765,35
206,81	1640,42
207,03	1617,90
207,25	1673,19
207,47	1779,68
207,69	1761,25
207,91	1841,12
208,13	1806,31
208,34	1660,90
208,56	1587,18
208,78	1746,92
209,00	1769,44
209,22	1673,19
209,44	1701,86
209,66	1708,01
209,88	1693,67
210,10	1705,96
210,32	1728,49
210,54	1751,01
210,76	1755,11
210,98	1798,12
211,20	1642,47
211,42	1687,53
211,64	1759,21
211,86	1832,93
212,08	1746,92
212,30	1818,60
212,52	1716,20
212,74	1834,98
212,96	1775,59
213,17	1787,88
213,39	1728,49
213,61	1796,07
213,83	1753,06
214,05	1619,94
214,27	1763,30
214,49	1605,61
214,71	1656,81
214,93	1857,51
215,15	1720,29
215,37	1773,54
215,59	1609,70
215,81	1730,53
216,03	1714,15
216,24	1757,16
216,46	1748,97
216,68	1726,44
216,90	1771,49
217,12	1748,97
217,34	1761,25
217,56	1802,21
217,78	1791,97
218,00	1693,67
218,22	1662,95
218,44	1728,49
218,66	1759,21
218,87	1757,16
219,09	1660,90
219,31	1689,57
219,53	1740,77
219,75	1640,42
219,97	1718,25
220,19	1751,01
220,41	1681,38
220,63	1761,25
220,85	1699,81
221,06	1685,48
221,28	1808,36
221,50	1751,01
221,72	1703,91
221,94	1677,29
222,16	1691,62
222,38	1763,30
222,60	1718,25
222,82	1662,95
223,03	1744,87
223,25	1669,09
223,47	1763,30
223,69	1845,22
223,91	1736,68
224,13	1701,86
224,35	1636,33
224,57	1785,83
224,78	1742,82
225,00	1699,81
225,22	1708,01
225,44	1738,73
225,66	1794,02
225,88	1630,18
226,10	1742,82
226,32	1697,77
226,53	1800,16
226,75	1683,43
226,97	1746,92
227,19	1751,01
227,41	1699,81
227,63	1701,86
227,85	1585,13
228,06	1722,34
228,28	1693,67
228,50	1779,68
228,72	1730,53
228,94	1771,49
229,16	1599,46
229,37	1708,01
229,59	1710,05
229,81	1708,01
230,03	1802,21
230,25	1662,95
230,47	1685,48
230,69	1665,00
230,90	1781,73
231,12	1685,48
231,34	1662,95
231,56	1796,07
231,78	1644,52
232,00	1746,92
232,21	1705,96
232,43	1710,05
232,65	1583,08
232,87	1748,97
233,09	1699,81
233,30	1617,90
233,52	1740,77
233,74	1742,82
233,96	1656,81
234,18	1728,49
234,40	1662,95
234,61	1847,27
234,83	1726,44
235,05	1652,71
235,27	1890,28
235,49	1767,40
235,70	1714,15
235,92	1837,03
236,14	1736,68
236,36	1802,21
236,58	1544,17
236,79	1732,58
237,01	1718,25
237,23	1638,38
237,45	1726,44
237,67	1593,32
237,88	1730,53
238,10	1761,25
238,32	1722,34
238,54	1708,01
238,76	1681,38
238,97	1667,05
239,19	1619,94
239,41	1814,50
239,63	1755,11
239,85	1755,11
240,06	1724,39
240,28	1705,96
240,50	1773,54
240,72	1652,71
240,93	1767,40
241,15	1789,92
241,37	1736,68
241,59	1787,88
241,81	1769,44
242,02	1701,86
242,24	1767,40
242,46	1748,97
242,68	1607,66
242,89	1665,00
243,11	1787,88
243,33	1681,38
243,55	1769,44
243,76	1769,44
243,98	1681,38
244,20	1687,53
244,42	1691,62
244,64	1697,77
244,85	1636,33
245,07	1693,67
245,29	1771,49
245,51	1720,29
245,72	1732,58
245,94	1785,83
246,16	1773,54
246,38	1753,06
246,59	1753,06
246,81	1726,44
247,03	1626,09
247,24	1708,01
247,46	1646,57
247,68	1699,81
247,90	1796,07
248,11	1634,28
248,33	1736,68
248,55	1685,48
248,77	1703,91
248,98	1742,82
249,20	1787,88
249,42	1675,24
249,64	1714,15
249,85	1665,00
250,07	1652,71
250,29	1806,31
250,50	1791,97
250,72	1638,38
250,94	1679,33
251,16	1822,69
251,37	1767,40
251,59	1771,49
251,81	1761,25
252,02	1732,58
252,24	1681,38
252,46	1798,12
252,68	1716,20
252,89	1617,90
253,11	1603,56
253,33	1820,64
253,54	1767,40
253,76	1720,29
253,98	1634,28
254,20	1740,77
254,41	1621,99
254,63	1673,19
254,85	1689,57
255,06	1683,43
255,28	1789,92
255,50	1691,62
255,71	1777,64
255,93	1671,14
256,15	1640,42
256,36	1820,64
256,58	1726,44
256,80	1736,68
257,02	1683,43
257,23	1652,71
257,45	1761,25
257,67	1746,92
257,88	1746,92
258,10	1722,34
258,32	1662,95
258,53	1724,39
258,75	1826,79
258,97	1662,95
259,18	1720,29
259,40	1800,16
259,62	1816,55
259,83	1779,68
260,05	1767,40
260,27	1957,86
260,48	1748,97
260,70	1705,96
260,92	1722,34
261,13	1718,25
261,35	1728,49
261,57	1798,12
261,78	1587,18
262,00	1667,05
262,22	1796,07
262,43	1642,47
262,65	1708,01
262,86	1689,57
263,08	1843,17
263,30	1718,25
263,51	1722,34
263,73	1681,38
263,95	1785,83
264,16	1654,76
264,38	1689,57
264,60	1730,53
264,81	1654,76
265,03	1798,12
265,25	1773,54
265,46	1701,86
265,68	1767,40
265,89	1800,16
266,11	1628,14
266,33	1783,78
266,54	1699,81
266,76	1687,53
266,98	1757,16
267,19	1847,27
267,41	1728,49
267,62	1736,68
267,84	1669,09
268,06	1763,30
268,27	1683,43
268,49	1742,82
268,70	1705,96
268,92	1675,24
269,14	1671,14
269,35	1673,19
269,57	1761,25
269,79	1691,62
270,00	1660,90
270,22	1779,68
270,43	1665,00
270,65	1570,79
270,87	1781,73
271,08	1800,16
271,30	1685,48
271,51	1675,24
271,73	1701,86
271,95	1787,88
272,16	1742,82
272,38	1753,06
272,59	1687,53
272,81	1771,49
273,02	1755,11
273,24	1697,77
273,46	1779,68
273,67	1630,18
273,89	1742,82
274,10	1673,19
274,32	1699,81
274,54	1732,58
274,75	1693,67
274,97	1662,95
275,18	1761,25
275,40	1798,12
275,61	1757,16
275,83	1683,43
276,05	1640,42
276,26	1695,72
276,48	1781,73
276,69	1746,92
276,91	1646,57
277,12	1861,60
277,34	1759,21
277,55	1775,59
277,77	1728,49
277,99	1798,12
278,20	1621,99
278,42	1732,58
278,63	1568,74
278,85	1638,38
279,06	1630,18
279,28	1841,12
279,49	1771,49
279,71	1806,31
279,93	1728,49
280,14	1722,34
280,36	1681,38
280,57	1826,79
280,79	1806,31
281,00	1751,01
281,22	1642,47
281,43	1796,07
281,65	1601,51
281,86	1613,80
282,08	1667,05
282,29	1751,01
282,51	1626,09
282,73	1691,62
282,94	1650,66
283,16	1814,50
283,37	1773,54
283,59	1626,09
283,80	1730,53
284,02	1751,01
284,23	1736,68
284,45	1701,86
284,66	1671,14
284,88	1640,42
285,09	1710,05
285,31	1689,57
285,52	1724,39
285,74	1624,04
285,95	1730,53
286,17	1791,97
286,38	1677,29
286,60	1697,77
286,81	1662,95
287,03	1628,14
287,24	1718,25
287,46	1759,21
287,67	1755,11
287,89	1867,75
288,10	1683,43
288,32	1775,59
288,53	1800,16
288,75	1687,53
288,96	1812,45
289,18	1626,09
289,39	1755,11
289,61	1789,92
289,82	1818,60
290,04	1802,21
290,25	1693,67
290,47	1673,19
290,68	1716,20
290,90	1771,49
291,11	1681,38
291,33	1728,49
291,54	1662,95
291,76	1683,43
291,97	1650,66
292,18	1740,77
292,40	1683,43
292,61	1759,21
292,83	1869,80
293,04	1726,44
293,26	1789,92
293,47	1675,24
293,69	1683,43
293,90	1701,86
294,12	1785,83
294,33	1636,33
294,55	1652,71
294,76	1820,64
294,97	1771,49
295,19	1875,94
295,40	1634,28
295,62	1708,01
295,83	1753,06
296,05	1613,80
296,26	1738,73
296,48	1681,38
296,69	1757,16
296,90	1740,77
297,12	1718,25
297,33	1748,97
297,55	1718,25
297,76	1660,90
297,98	1775,59
298,19	1720,29
298,41	1703,91
298,62	1650,66
298,83	1804,26
299,05	1730,53
299,26	1699,81
299,48	1683,43
299,69	1748,97
299,90	1757,16
300,12	1720,29
300,33	1806,31
300,55	1646,57
300,76	1671,14
300,98	1675,24
301,19	1810,40
301,40	1697,77
301,62	1667,05
301,83	1787,88
302,05	1712,10
302,26	1693,67
302,47	1621,99
302,69	1685,48
302,90	1710,05
303,12	1597,42
303,33	1736,68
303,54	1818,60
303,76	1656,81
303,97	1710,05
304,19	1828,84
304,40	1708,01
304,61	1728,49
304,83	1830,88
305,04	1765,35
305,26	1755,11
305,47	1650,66
305,68	1671,14
305,90	1640,42
306,11	1734,63
306,33	1734,63
306,54	1673,19
306,75	1685,48
306,97	1679,33
307,18	1617,90
307,39	1738,73
307,61	1777,64
307,82	1759,21
308,04	1748,97
308,25	1662,95
308,46	1724,39
308,68	1779,68
308,89	1781,73
309,10	1777,64
309,32	1765,35
309,53	1669,09
309,74	1738,73
309,96	1734,63
310,17	1779,68
310,39	1679,33
310,60	1751,01
310,81	1748,97
311,03	1648,61
311,24	1804,26
311,45	1669,09
311,67	1777,64
311,88	1720,29
312,09	1685,48
312,31	1630,18
312,52	1720,29
312,73	1673,19
312,95	1587,18
313,16	1724,39
313,37	1779,68
313,59	1765,35
313,80	1775,59
314,01	1751,01
314,23	1724,39
314,44	1736,68
314,65	1599,46
314,87	1658,85
315,08	1691,62
315,29	1636,33
315,51	1646,57
315,72	1669,09
315,93	1789,92
316,15	1781,73
316,36	1665,00
316,57	1671,14
316,79	1765,35
317,00	1728,49
317,21	1738,73
317,43	1675,24
317,64	1656,81
317,85	1718,25
318,07	1718,25
318,28	1765,35
318,49	1800,16
318,70	1941,47
318,92	1810,40
319,13	1828,84
319,34	1890,28
319,56	1767,40
319,77	1751,01
319,98	1757,16
320,20	1773,54
320,41	1755,11
320,62	1765,35
320,83	1593,32
321,05	1898,47
321,26	1787,88
321,47	1695,72
321,69	1789,92
321,90	1626,09
322,11	1605,61
322,32	1779,68
322,54	1783,78
322,75	1714,15
322,96	1898,47
323,18	1673,19
323,39	1621,99
323,60	1636,33
323,81	1783,78
324,03	1665,00
324,24	1658,85
324,45	1722,34
324,66	1722,34
324,88	1789,92
325,09	1830,88
325,30	1679,33
325,52	1673,19
325,73	1679,33
325,94	1716,20
326,15	1642,47
326,37	1716,20
326,58	1718,25
326,79	1789,92
327,00	1644,52
327,22	1771,49
327,43	1634,28
327,64	1648,61
327,85	1703,91
328,07	1787,88
328,28	1853,41
328,49	1691,62
328,70	1677,29
328,92	1691,62
329,13	1701,86
329,34	1708,01
329,55	1781,73
329,76	1826,79
329,98	1662,95
330,19	1826,79
330,40	1708,01
330,61	1781,73
330,83	1753,06
331,04	1724,39
331,25	1759,21
331,46	1738,73
331,68	1671,14
331,89	1810,40
332,10	1665,00
332,31	1722,34
332,52	1740,77
332,74	1751,01
332,95	1646,57
333,16	1738,73
333,37	1763,30
333,58	1742,82
333,80	1703,91
334,01	1681,38
334,22	1624,04
334,43	1699,81
334,64	1705,96
334,86	1656,81
335,07	1662,95
335,28	1746,92
335,49	1662,95
335,70	1722,34
335,92	1757,16
336,13	1851,36
336,34	1824,74
336,55	1718,25
336,76	1736,68
336,98	1619,94
337,19	1693,67
337,40	1834,98
337,61	1824,74
337,82	1681,38
338,04	1767,40
338,25	1619,94
338,46	1701,86
338,67	1726,44
338,88	1685,48
339,09	1685,48
339,31	1714,15
339,52	1716,20
339,73	1599,46
339,94	1628,14
340,15	1740,77
340,36	1740,77
340,58	1716,20
340,79	1673,19
341,00	1802,21
341,21	1669,09
341,42	1761,25
341,63	1771,49
341,85	1738,73
342,06	1732,58
342,27	1611,75
342,48	1761,25
342,69	1679,33
342,90	1816,55
343,12	1734,63
343,33	1714,15
343,54	1734,63
343,75	1804,26
343,96	1814,50
344,17	1595,37
344,38	1771,49
344,60	1626,09
344,81	1646,57
345,02	1665,00
345,23	1710,05
345,44	1794,02
345,65	1753,06
345,86	1705,96
346,07	1769,44
346,29	1728,49
346,50	1679,33
346,71	1777,64
346,92	1699,81
347,13	1789,92
347,34	1732,58
347,55	1740,77
347,76	1732,58
347,98	1632,23
348,19	1703,91
348,40	1812,45
348,61	1679,33
348,82	1832,93
349,03	1748,97
349,24	1658,85
349,45	1806,31
349,66	1660,90
349,88	1705,96
350,09	1718,25
350,30	1755,11
350,51	1761,25
350,72	1718,25
350,93	1697,77
351,14	1730,53
351,35	1755,11
351,56	1693,67
351,77	1708,01
351,99	1705,96
352,20	1822,69
352,41	1853,41
352,62	1605,61
352,83	1716,20
353,04	1650,66
353,25	1695,72
353,46	1777,64
353,67	1728,49
353,88	1665,00
354,09	1658,85
354,30	1744,87
354,52	1722,34
354,73	1738,73
354,94	1757,16
355,15	1640,42
355,36	1765,35
355,57	1712,10
355,78	1761,25
355,99	1652,71
356,20	1726,44
356,41	1757,16
356,62	1695,72
356,83	1716,20
357,04	1753,06
357,25	1607,66
357,46	1693,67
357,68	1640,42
357,89	1708,01
358,10	1638,38
358,31	1699,81
358,52	1685,48
358,73	1699,81
358,94	1697,77
359,15	1673,19
359,36	1712,10
359,57	1705,96
359,78	1671,14
359,99	1683,43
360,20	1683,43
360,41	1685,48
360,62	1742,82
360,83	1771,49
361,04	1845,22
361,25	1679,33
361,46	1789,92
361,67	1726,44
361,88	1751,01
362,09	1740,77
362,30	1808,36
362,51	1656,81
362,72	1652,71
362,93	1753,06
363,14	1796,07
363,35	1722,34
363,56	1650,66
363,78	1722,34
363,99	1779,68
364,20	1751,01
364,41	1703,91
364,62	1843,17
364,83	1724,39
365,04	1722,34
365,25	1701,86
365,46	1871,84
365,67	1691,62
365,88	1628,14
366,09	1722,34
366,30	1728,49
366,51	1736,68
366,72	1648,61
366,93	1767,40
367,14	1779,68
367,35	1820,64
367,56	1677,29
367,77	1716,20
367,98	1791,97
368,18	1714,15
368,39	1814,50
368,60	1675,24
368,81	1820,64
369,02	1712,10
369,23	1656,81
369,44	1644,52
369,65	1720,29
369,86	1652,71
370,07	1701,86
370,28	1640,42
370,49	1718,25
370,70	1740,77
370,91	1691,62
371,12	1656,81
371,33	1753,06
371,54	1679,33
371,75	1791,97
371,96	1611,75
372,17	1703,91
372,38	1746,92
372,59	1685,48
372,80	1740,77
373,01	1675,24
373,22	1785,83
373,43	1751,01
373,64	1607,66
373,85	1826,79
374,06	1834,98
374,26	1908,71
374,47	1755,11
374,68	1769,44
374,89	1738,73
375,10	1667,05
375,31	1748,97
375,52	1699,81
375,73	1763,30
375,94	1667,05
376,15	1828,84
376,36	1705,96
376,57	1701,86
376,78	1671,14
376,99	1726,44
377,20	1755,11
377,40	1691,62
377,61	1839,08
377,82	1648,61
378,03	1777,64
378,24	1773,54
378,45	1677,29
378,66	1740,77
378,87	1558,50
379,08	1624,04
379,29	1722,34
379,50	1767,40
379,71	1650,66
379,91	1718,25
380,12	1708,01
380,33	1800,16
380,54	1744,87
380,75	1681,38
380,96	1693,67
381,17	1837,03
381,38	1697,77
381,59	1787,88
381,80	1695,72
382,00	1781,73
382,21	1814,50
382,42	1853,41
382,63	1914,85
382,84	1802,21
383,05	1826,79
383,26	1834,98
383,47	1660,90
383,68	1800,16
383,88	1751,01
384,09	1746,92
384,30	1900,52
384,51	1730,53
384,72	1714,15
384,93	1658,85
385,14	1740,77
385,35	1837,03
385,55	1640,42
385,76	1763,30
385,97	1679,33
386,18	1677,29
386,39	1773,54
386,60	1701,86
386,81	1611,75
387,02	1585,13
387,22	1708,01
387,43	1837,03
387,64	1759,21
387,85	1834,98
388,06	2160,61
388,27	4341,69
388,48	6506,40
388,68	8222,59
388,89	9787,24
389,10	9668,46
389,31	8669,05
389,52	7487,37
389,73	6719,39
389,93	6336,42
390,14	5863,33
390,35	5294,00
390,56	4556,73
390,77	3827,65
390,98	2975,70
391,18	2412,51
391,39	2078,69
391,60	1918,95
391,81	1861,60
392,02	1683,43
392,23	1853,41
392,43	1765,35
392,64	1816,55
392,85	1740,77
393,06	1824,74
393,27	1665,00
393,47	1675,24
393,68	1761,25
393,89	1689,57
394,10	1771,49
394,31	1712,10
394,52	1638,38
394,72	1695,72
394,93	1810,40
395,14	1695,72
395,35	1742,82
395,56	1718,25
395,76	1732,58
395,97	1755,11
396,18	1812,45
396,39	1865,70
396,60	2050,02
396,80	1912,80
397,01	1771,49
397,22	1818,60
397,43	1802,21
397,64	1798,12
397,84	1869,80
398,05	1851,36
398,26	1748,97
398,47	1796,07
398,67	1738,73
398,88	1824,74
399,09	1740,77
399,30	1710,05
399,51	1736,68
399,71	1632,23
399,92	1759,21
400,13	1751,01
400,34	1761,25
400,54	1716,20
400,75	1849,32
400,96	1753,06
401,17	1834,98
401,37	1722,34
401,58	1699,81
401,79	1773,54
402,00	1882,08
402,21	1986,53
402,41	1992,67
402,62	2002,91
402,83	2027,49
403,04	1920,99
403,24	2070,50
403,45	1875,94
403,66	1957,86
403,87	1787,88
404,07	1927,14
404,28	1855,46
404,49	1857,51
404,70	1890,28
404,90	1810,40
405,11	1765,35
405,32	1732,58
405,52	1804,26
405,73	1697,77
405,94	1726,44
406,15	1798,12
406,35	1740,77
406,56	1767,40
406,77	1742,82
406,98	1767,40
407,18	1701,86
407,39	1708,01
407,60	1660,90
407,80	1748,97
408,01	1695,72
408,22	1732,58
408,43	1734,63
408,63	1740,77
408,84	1800,16
409,05	1697,77
409,25	1658,85
409,46	1677,29
409,67	1621,99
409,88	1689,57
410,08	1763,30
410,29	1675,24
410,50	1738,73
410,70	1775,59
410,91	1615,85
411,12	1736,68
411,32	1724,39
411,53	1660,90
411,74	1767,40
411,95	1738,73
412,15	1714,15
412,36	1794,02
412,57	1773,54
412,77	1798,12
412,98	1726,44
413,19	1759,21
413,39	1804,26
413,60	1742,82
413,81	1824,74
414,01	1634,28
414,22	1703,91
414,43	1849,32
414,63	1775,59
414,84	1763,30
415,05	1761,25
415,25	1648,61
415,46	1693,67
415,67	1642,47
415,87	1714,15
416,08	1693,67
416,29	1710,05
416,49	1746,92
416,70	1697,77
416,91	1689,57
417,11	1695,72
417,32	1744,87
417,53	1683,43
417,73	1734,63
417,94	1710,05
418,15	1763,30
418,35	1726,44
418,56	1697,77
418,77	1843,17
418,97	1744,87
419,18	1818,60
419,38	1632,23
419,59	1767,40
419,80	1814,50
420,00	1724,39
420,21	1740,77
420,42	1851,36
420,62	1697,77
420,83	1691,62
421,04	1669,09
421,24	1712,10
421,45	1734,63
421,65	1785,83
421,86	1677,29
422,07	1789,92
422,27	1724,39
422,48	1796,07
422,69	1648,61
422,89	1714,15
423,10	1701,86
423,30	1628,14
423,51	1722,34
423,72	1716,20
423,92	1734,63
424,13	1675,24
424,33	1720,29
424,54	1724,39
424,75	1722,34
424,95	1767,40
425,16	1746,92
425,36	1654,76
425,57	1746,92
425,78	1644,52
425,98	1804,26
426,19	1660,90
426,39	1712,10
426,60	1781,73
426,81	1822,69
427,01	1665,00
427,22	1681,38
427,42	1718,25
427,63	1683,43
427,83	1800,16
428,04	1751,01
428,25	1834,98
428,45	1832,93
428,66	1789,92
428,86	1746,92
429,07	1748,97
429,28	1724,39
429,48	1722,34
429,69	1611,75
429,89	1742,82
430,10	1679,33
430,30	1746,92
430,51	1718,25
430,71	1681,38
430,92	1630,18
431,13	1662,95
431,33	1753,06
431,54	1796,07
431,74	1787,88
431,95	1802,21
432,15	1755,11
432,36	1734,63
432,56	1665,00
432,77	1832,93
432,98	1765,35
433,18	1710,05
433,39	1669,09
433,59	1746,92
433,80	1910,75
434,00	1871,84
434,21	1621,99
434,41	1710,05
434,62	1847,27
434,82	1775,59
435,03	1751,01
435,23	1748,97
435,44	1693,67
435,64	1720,29
435,85	1800,16
436,06	1787,88
436,26	1804,26
436,47	1722,34
436,67	1718,25
436,88	1701,86
437,08	1683,43
437,29	1800,16
437,49	1779,68
437,70	1830,88
437,90	1662,95
438,11	1873,89
438,31	1748,97
438,52	1863,65
438,72	1890,28
438,93	1931,23
439,13	1708,01
439,34	1929,19
439,54	1660,90
439,75	1720,29
439,95	1775,59
440,16	1796,07
440,36	1771,49
440,57	1791,97
440,77	1753,06
440,98	1820,64
441,18	1755,11
441,39	1738,73
441,59	1685,48
441,80	1814,50
442,00	1759,21
442,21	1859,56
442,41	1634,28
442,62	1714,15
442,82	1714,15
443,02	1710,05
443,23	1798,12
443,43	1679,33
443,64	1923,04
443,84	1628,14
444,05	1839,08
444,25	1757,16
444,46	1730,53
444,66	1791,97
444,87	1812,45
445,07	1636,33
445,28	1675,24
445,48	1794,02
445,69	1732,58
445,89	1843,17
446,09	1812,45
446,30	2074,59
446,50	2641,88
446,71	3680,20
446,91	4386,75
447,12	4782,01
447,32	4859,83
447,53	4335,55
447,73	3844,04
447,93	3524,55
448,14	3307,47
448,34	3205,07
448,55	2953,17
448,75	2787,29
448,96	2738,13
449,16	2461,66
449,36	2263,01
449,57	1978,34
449,77	1869,80
449,98	1796,07
450,18	1814,50
450,39	1806,31
450,59	1765,35
450,79	1726,44
451,00	1732,58
451,20	1845,22
451,41	1724,39
451,61	1730,53
451,81	1613,80
452,02	1787,88
452,22	1685,48
452,43	1667,05
452,63	1634,28
452,84	1800,16
453,04	1771,49
453,24	1742,82
453,45	1701,86
453,65	1695,72
453,86	1732,58
454,06	1771,49
454,26	1783,78
454,47	1820,64
454,67	1880,04
454,87	1746,92
455,08	1710,05
455,28	1888,23
455,49	1828,84
455,69	1714,15
455,89	1828,84
456,10	1777,64
456,30	1757,16
456,51	1734,63
456,71	1802,21
456,91	1714,15
457,12	1714,15
457,32	1773,54
457,52	1683,43
457,73	1779,68
457,93	1826,79
458,14	1742,82
458,34	1683,43
458,54	1759,21
458,75	1652,71
458,95	1744,87
459,15	1650,66
459,36	1808,36
459,56	1820,64
459,76	1886,18
459,97	1738,73
460,17	1712,10
460,37	1877,99
460,58	1701,86
460,78	1853,41
460,99	1736,68
461,19	1753,06
461,39	1722,34
461,60	1742,82
461,80	1791,97
462,00	1609,70
462,21	1742,82
462,41	1708,01
462,61	1708,01
462,82	1697,77
463,02	1808,36
463,22	1755,11
463,43	1853,41
463,63	1755,11
463,83	1759,21
464,04	1779,68
464,24	1683,43
464,44	1665,00
464,64	1796,07
464,85	1740,77
465,05	1746,92
465,25	1765,35
465,46	1679,33
465,66	1775,59
465,86	1785,83
466,07	1718,25
466,27	1699,81
466,47	1640,42
466,68	1718,25
466,88	1789,92
467,08	1783,78
467,29	1740,77
467,49	1796,07
467,69	1710,05
467,89	1798,12
468,10	1681,38
468,30	1681,38
468,50	1746,92
468,71	1748,97
468,91	1617,90
469,11	1818,60
469,31	1708,01
469,52	1726,44
469,72	1873,89
469,92	1861,60
470,13	1816,55
470,33	1771,49
470,53	1814,50
470,73	2088,93
470,94	2369,50
471,14	2353,12
471,34	2559,96
471,54	2463,71
471,75	2222,05
471,95	2129,89
472,15	2019,30
472,36	2095,07
472,56	2142,18
472,76	2033,63
472,96	2019,30
473,17	1974,24
473,37	1904,61
473,57	1845,22
473,77	1753,06
473,98	1751,01
474,18	1771,49
474,38	1873,89
474,58	1693,67
474,79	1699,81
474,99	1810,40
475,19	1777,64
475,39	1669,09
475,60	1740,77
475,80	1808,36
476,00	1753,06
476,20	1640,42
476,41	1742,82
476,61	1841,12
476,81	1775,59
477,01	1669,09
477,21	1812,45
477,42	1859,56
477,62	1677,29
477,82	1828,84
478,02	1730,53
478,23	1773,54
478,43	1611,75
478,63	1689,57
478,83	1656,81
479,03	1675,24
479,24	1791,97
479,44	1853,41
479,64	1662,95
479,84	1599,46
480,04	1660,90
480,25	1759,21
480,45	1740,77
480,65	1740,77
480,85	1822,69
481,06	1689,57
481,26	1775,59
481,46	1789,92
481,66	1757,16
481,86	1705,96
482,06	1849,32
482,27	1697,77
482,47	1654,76
482,67	1781,73
482,87	1654,76
483,07	1726,44
483,28	1697,77
483,48	1624,04
483,68	1783,78
483,88	1642,47
484,08	1648,61
484,29	1632,23
484,49	1746,92
484,69	1681,38
484,89	1851,36
485,09	1847,27
485,29	1832,93
485,50	1746,92
485,70	1675,24
485,90	1837,03
486,10	1806,31
486,30	1789,92
486,50	1802,21
486,71	1800,16
486,91	1773,54
487,11	1871,84
487,31	1648,61
487,51	1796,07
487,71	1673,19
487,91	1644,52
488,12	1742,82
488,32	1609,70
488,52	1738,73
488,72	1619,94
488,92	1771,49
489,12	1802,21
489,32	1791,97
489,53	1798,12
489,73	1656,81
489,93	1900,52
490,13	1791,97
490,33	1677,29
490,53	1740,77
490,73	1826,79
490,94	1654,76
491,14	1828,84
491,34	1861,60
491,54	2119,65
491,74	2519,00
491,94	2848,72
492,14	3078,10
492,34	3016,66
492,54	2785,24
492,75	2578,39
492,95	2459,61
493,15	2303,96
493,35	2260,96
493,55	2185,18
493,75	2222,05
493,95	2176,99
494,15	2162,66
494,35	1947,62
494,56	1843,17
494,76	1849,32
494,96	1837,03
495,16	1796,07
495,36	1763,30
495,56	1794,02
495,76	1726,44
495,96	1712,10
496,16	1701,86
496,36	1841,12
496,56	1728,49
496,77	1800,16
496,97	1701,86
497,17	1798,12
497,37	1660,90
497,57	1798,12
497,77	1701,86
497,97	1697,77
498,17	1699,81
498,37	1705,96
498,57	1828,84
498,77	1697,77
498,97	1757,16
499,17	1843,17
499,38	1806,31
499,58	1705,96
499,78	1730,53
499,98	1746,92
500,18	1726,44
500,38	1699,81
500,58	1945,57
500,78	2654,17
500,98	4663,22
501,18	5881,77
501,38	6692,76
501,58	7245,71
501,78	6684,57
501,98	5498,80
502,18	4913,08
502,38	4452,28
502,58	4159,42
502,78	3772,36
502,98	3819,46
503,18	3430,35
503,38	3168,21
503,59	2795,48
503,79	2637,78
503,99	2506,71
504,19	2308,06
504,39	2107,36
504,59	2138,08
504,79	2127,84
504,99	2066,40
505,19	1894,37
505,39	1886,18
505,59	2011,11
505,79	1865,70
505,99	1845,22
506,19	1773,54
506,39	1904,61
506,59	1845,22
506,79	1742,82
506,99	1775,59
507,19	1697,77
507,39	1906,66
507,59	1714,15
507,79	1679,33
507,99	1773,54
508,19	1826,79
508,39	1701,86
508,59	1789,92
508,79	1773,54
508,99	1794,02
509,19	1771,49
509,39	1732,58
509,59	1665,00
509,79	1695,72
509,99	1761,25
510,19	1798,12
510,39	1853,41
510,59	1787,88
510,79	1761,25
510,99	1671,14
511,19	1683,43
511,39	1806,31
511,59	1740,77
511,79	1849,32
511,99	1708,01
512,19	1800,16
512,38	1746,92
512,58	1736,68
512,78	1675,24
512,98	1808,36
513,18	1798,12
513,38	1726,44
513,58	1789,92
513,78	1710,05
513,98	1705,96
514,18	1638,38
514,38	1693,67
514,58	1708,01
514,78	1677,29
514,98	1671,14
515,18	1665,00
515,38	1656,81
515,58	1810,40
515,78	1730,53
515,98	1734,63
516,18	1771,49
516,38	1794,02
516,57	1718,25
516,77	1718,25
516,97	1740,77
517,17	1751,01
517,37	1656,81
517,57	1759,21
517,77	1812,45
517,97	1724,39
518,17	1796,07
518,37	1681,38
518,57	1773,54
518,77	1781,73
518,97	1736,68
519,16	1800,16
519,36	1816,55
519,56	1710,05
519,76	1796,07
519,96	1667,05
520,16	1808,36
520,36	1710,05
520,56	1789,92
520,76	1744,87
520,96	1759,21
521,16	1828,84
521,35	1837,03
521,55	1830,88
521,75	1757,16
521,95	1738,73
522,15	1742,82
522,35	1712,10
522,55	1656,81
522,75	1742,82
522,95	1685,48
523,14	1748,97
523,34	1726,44
523,54	1701,86
523,74	1740,77
523,94	1748,97
524,14	1710,05
524,34	1681,38
524,54	1802,21
524,73	1724,39
524,93	1814,50
525,13	1796,07
525,33	1650,66
525,53	1861,60
525,73	1773,54
525,93	1755,11
526,13	1656,81
526,32	1742,82
526,52	1796,07
526,72	1839,08
526,92	1757,16
527,12	1685,48
527,32	1566,70
527,52	1834,98
527,71	1789,92
527,91	1822,69
528,11	1787,88
528,31	1683,43
528,51	1675,24
528,71	1796,07
528,90	1783,78
529,10	1773,54
529,30	1785,83
529,50	1714,15
529,70	1767,40
529,90	1765,35
530,09	1748,97
530,29	1658,85
530,49	1714,15
530,69	1892,32
530,89	1740,77
531,09	1736,68
531,28	1673,19
531,48	1794,02
531,68	1789,92
531,88	1771,49
532,08	1800,16
532,28	1734,63
532,47	1857,51
532,67	1767,40
532,87	1808,36
533,07	1708,01
533,27	1724,39
533,46	1732,58
533,66	1802,21
533,86	1724,39
534,06	1720,29
534,26	1757,16
534,45	1736,68
534,65	1783,78
534,85	1734,63
535,05	1736,68
535,25	1730,53
535,44	1699,81
535,64	1857,51
535,84	1814,50
536,04	1671,14
536,24	1755,11
536,43	1677,29
536,63	1824,74
536,83	1814,50
537,03	1705,96
537,22	1669,09
537,42	1705,96
537,62	1759,21
537,82	1742,82
538,02	1775,59
538,21	1812,45
538,41	1986,53
538,61	1855,46
538,81	1748,97
539,00	1837,03
539,20	1673,19
539,40	1699,81
539,60	1759,21
539,79	1759,21
539,99	1693,67
540,19	1742,82
540,39	1757,16
540,58	1812,45
540,78	1822,69
540,98	1689,57
541,18	1816,55
541,37	1693,67
541,57	1767,40
541,77	1755,11
541,97	1716,20
542,16	1646,57
542,36	1716,20
542,56	1863,65
542,76	1816,55
542,95	1755,11
543,15	1785,83
543,35	1755,11
543,54	1781,73
543,74	1677,29
543,94	1841,12
544,14	1722,34
544,33	1773,54
544,53	1779,68
544,73	1771,49
544,93	1724,39
545,12	1804,26
545,32	1695,72
545,52	1726,44
545,71	1755,11
545,91	1669,09
546,11	1771,49
546,30	1722,34
546,50	1734,63
546,70	1822,69
546,90	1765,35
547,09	1531,88
547,29	1767,40
547,49	1810,40
547,68	1734,63
547,88	1710,05
548,08	1841,12
548,27	2197,47
548,47	1736,68
548,67	1767,40
548,87	1781,73
549,06	1722,34
549,26	1785,83
549,46	1771,49
549,65	1712,10
549,85	1773,54
550,05	1816,55
550,24	1701,86
550,44	1783,78
550,64	1720,29
550,83	1775,59
551,03	1755,11
551,23	1736,68
551,42	1816,55
551,62	1667,05
551,82	1714,15
552,01	1742,82
552,21	1773,54
552,41	1773,54
552,60	1820,64
552,80	1718,25
553,00	1720,29
553,19	1779,68
553,39	1843,17
553,59	1783,78
553,78	1748,97
553,98	1763,30
554,17	1634,28
554,37	1740,77
554,57	1701,86
554,76	1669,09
554,96	1722,34
555,16	1783,78
555,35	1740,77
555,55	1796,07
555,75	1757,16
555,94	1837,03
556,14	1742,82
556,33	1777,64
556,53	1773,54
556,73	1671,14
556,92	1767,40
557,12	1910,75
557,32	1802,21
557,51	1898,47
557,71	1783,78
557,90	1863,65
558,10	1828,84
558,30	1726,44
558,49	1755,11
558,69	1685,48
558,88	1820,64
559,08	1759,21
559,28	1714,15
559,47	1720,29
559,67	1810,40
559,86	1902,56
560,06	1724,39
560,26	1736,68
560,45	1800,16
560,65	1771,49
560,84	1855,46
561,04	1673,19
561,24	1804,26
561,43	1667,05
561,63	1822,69
561,82	1716,20
562,02	1738,73
562,22	1808,36
562,41	1718,25
562,61	1710,05
562,80	1671,14
563,00	1910,75
563,19	1714,15
563,39	1794,02
563,59	1832,93
563,78	1697,77
563,98	1671,14
564,17	1665,00
564,37	1644,52
564,56	1730,53
564,76	1687,53
564,96	1884,13
565,15	1755,11
565,35	1959,91
565,54	1728,49
565,74	1746,92
565,93	1814,50
566,13	1712,10
566,32	1767,40
566,52	1779,68
566,71	1746,92
566,91	1810,40
567,11	1683,43
567,30	1665,00
567,50	1845,22
567,69	1783,78
567,89	1777,64
568,08	1716,20
568,28	1687,53
568,47	1652,71
568,67	1742,82
568,86	1714,15
569,06	1785,83
569,25	1753,06
569,45	1675,24
569,64	1740,77
569,84	1806,31
570,04	1759,21
570,23	1769,44
570,43	1785,83
570,62	1761,25
570,82	1794,02
571,01	1591,27
571,21	1744,87
571,40	1742,82
571,60	1757,16
571,79	1798,12
571,99	1802,21
572,18	1744,87
572,38	1814,50
572,57	1738,73
572,77	1787,88
572,96	1877,99
573,16	1775,59
573,35	1650,66
573,55	1859,56
573,74	1761,25
573,94	1714,15
574,13	1718,25
574,33	1769,44
574,52	1834,98
574,71	1708,01
574,91	1837,03
575,10	1675,24
575,30	1712,10
575,49	1667,05
575,69	1726,44
575,88	1701,86
576,08	1654,76
576,27	1814,50
576,47	1710,05
576,66	1855,46
576,86	1867,75
577,05	1812,45
577,25	1806,31
577,44	1867,75
577,64	1722,34
577,83	1808,36
578,02	1742,82
578,22	1830,88
578,41	1843,17
578,61	1734,63
578,80	1726,44
579,00	1794,02
579,19	1753,06
579,39	1865,70
579,58	1763,30
579,77	1748,97
579,97	1808,36
580,16	1855,46
580,36	1796,07
580,55	1789,92
580,75	1765,35
580,94	1771,49
581,13	1820,64
581,33	1839,08
581,52	1656,81
581,72	1832,93
581,91	1900,52
582,11	1714,15
582,30	1826,79
582,49	1748,97
582,69	1886,18
582,88	1800,16
583,08	1771,49
583,27	1806,31
583,47	1816,55
583,66	1742,82
583,85	1730,53
584,05	1814,50
584,24	1781,73
584,44	1767,40
584,63	1763,30
584,82	1910,75
585,02	1857,51
585,21	1824,74
585,41	1892,32
585,60	1796,07
585,79	1908,71
585,99	1976,29
586,18	1927,14
586,37	2140,13
586,57	3358,67
586,76	10014,57
586,96	24260,24
587,15	34465,27
587,34	40322,46
587,54	42319,23
587,73	36654,54
587,93	26584,68
588,12	21802,68
588,31	18411,24
588,51	16183,05
588,70	15304,47
588,89	14128,94
589,09	12599,10
589,28	10884,95
589,47	9365,36
589,67	8058,76
589,86	6383,52
590,06	4841,40
590,25	3876,80
590,44	3051,47
590,64	2641,88
590,83	2289,63
591,02	2099,17
591,22	1966,05
591,41	1894,37
591,60	1822,69
591,80	1914,85
591,99	1796,07
592,18	1800,16
592,38	1753,06
592,57	1806,31
592,76	1775,59
592,96	1800,16
593,15	1746,92
593,34	1791,97
593,54	1763,30
593,73	1816,55
593,92	1769,44
594,12	1746,92
594,31	1742,82
594,50	1818,60
594,70	1920,99
594,89	1904,61
595,08	1669,09
595,28	1830,88
595,47	1941,47
595,66	1843,17
595,86	1751,01
596,05	1714,15
596,24	1734,63
596,43	1794,02
596,63	1712,10
596,82	1812,45
597,01	1742,82
597,21	1841,12
597,40	1785,83
597,59	1783,78
597,79	1832,93
597,98	1732,58
598,17	1765,35
598,36	1767,40
598,56	1693,67
598,75	1714,15
598,94	1859,56
599,14	1791,97
599,33	1744,87
599,52	1761,25
599,71	1773,54
599,91	1771,49
600,10	1851,36
600,29	1732,58
600,48	1798,12
600,68	1771,49
600,87	1775,59
601,06	1675,24
601,26	1691,62
601,45	1798,12
601,64	1732,58
601,83	1877,99
602,03	1736,68
602,22	1677,29
602,41	1781,73
602,60	1906,66
602,80	1820,64
602,99	1769,44
603,18	1669,09
603,37	1730,53
603,57	1705,96
603,76	1720,29
603,95	1832,93
604,14	1695,72
604,34	1757,16
604,53	1763,30
604,72	1683,43
604,91	1834,98
605,10	1757,16
605,30	1669,09
605,49	1824,74
605,68	1753,06
605,87	1779,68
606,07	1759,21
606,26	1765,35
606,45	1724,39
606,64	1738,73
606,84	1783,78
607,03	1671,14
607,22	1808,36
607,41	1771,49
607,60	1728,49
607,80	1759,21
607,99	1718,25
608,18	1734,63
608,37	1710,05
608,56	1687,53
608,76	1751,01
608,95	1865,70
609,14	1769,44
609,33	1746,92
609,52	1796,07
609,72	1802,21
609,91	1753,06
610,10	1751,01
610,29	1812,45
610,48	1843,17
610,68	1751,01
610,87	1767,40
611,06	1763,30
611,25	1720,29
611,44	1890,28
611,63	1738,73
611,83	1800,16
612,02	1687,53
612,21	1794,02
612,40	1681,38
612,59	1701,86
612,79	1658,85
612,98	1771,49
613,17	1783,78
613,36	1759,21
613,55	1822,69
613,74	1716,20
613,93	1767,40
614,13	1732,58
614,32	1767,40
614,51	1757,16
614,70	1705,96
614,89	1710,05
615,08	1746,92
615,28	2068,45
615,47	1679,33
615,66	1775,59
615,85	1685,48
616,04	1931,23
616,23	1710,05
616,42	1726,44
616,62	1820,64
616,81	1734,63
617,00	1738,73
617,19	1718,25
617,38	1619,94
617,57	1701,86
617,76	1742,82
617,95	1832,93
618,15	1712,10
618,34	1851,36
618,53	1705,96
618,72	1802,21
618,91	1771,49
619,10	1832,93
619,29	1763,30
619,48	1736,68
619,68	1742,82
619,87	1732,58
620,06	1691,62
620,25	1712,10
620,44	1640,42
620,63	1751,01
620,82	1742,82
621,01	1751,01
621,20	1732,58
621,39	1748,97
621,59	1820,64
621,78	1783,78
621,97	1775,59
622,16	1802,21
622,35	1742,82
622,54	1820,64
622,73	1796,07
622,92	1744,87
623,11	1800,16
623,30	1718,25
623,49	1767,40
623,68	1652,71
623,88	1808,36
624,07	1740,77
624,26	1753,06
624,45	1738,73
624,64	1718,25
624,83	1783,78
625,02	1677,29
625,21	1775,59
625,40	1724,39
625,59	1808,36
625,78	1708,01
625,97	1810,40
626,16	1769,44
626,35	1789,92
626,54	1714,15
626,74	1773,54
626,93	1730,53
627,12	1705,96
627,31	1818,60
627,50	1822,69
627,69	1785,83
627,88	1748,97
628,07	1804,26
628,26	1681,38
628,45	1718,25
628,64	1744,87
628,83	1746,92
629,02	1683,43
629,21	1740,77
629,40	1742,82
629,59	1693,67
629,78	1732,58
629,97	1689,57
630,16	1800,16
630,35	1683,43
630,54	1755,11
630,73	1697,77
630,92	1683,43
631,11	1722,34
631,30	1757,16
631,49	1773,54
631,68	1728,49
631,87	1710,05
632,06	1685,48
632,25	1843,17
632,44	1753,06
632,63	1740,77
632,82	1701,86
633,01	1640,42
633,20	1730,53
633,39	1734,63
633,58	1640,42
633,77	1781,73
633,96	1763,30
634,15	1869,80
634,34	1695,72
634,53	1718,25
634,72	1720,29
634,91	1634,28
635,10	1796,07
635,29	1716,20
635,48	1751,01
635,67	1759,21
635,86	1665,00
636,05	1822,69
636,24	1652,71
636,43	1695,72
636,62	1708,01
636,81	1583,08
637,00	1781,73
637,19	1720,29
637,38	1679,33
637,57	1722,34
637,76	1728,49
637,95	1794,02
638,14	1722,34
638,33	1667,05
638,52	1734,63
638,71	1677,29
638,89	1619,94
639,08	1812,45
639,27	1783,78
639,46	1658,85
639,65	1812,45
639,84	1785,83
640,03	1841,12
640,22	1652,71
640,41	1818,60
640,60	1697,77
640,79	1716,20
640,98	1679,33
641,17	1787,88
641,36	1734,63
641,55	1732,58
641,74	1652,71
641,92	1718,25
642,11	1771,49
642,30	1695,72
642,49	1714,15
642,68	1693,67
642,87	1808,36
643,06	1738,73
643,25	1730,53
643,44	1689,57
643,63	1812,45
643,82	1693,67
644,00	1724,39
644,19	1738,73
644,38	1630,18
644,57	1767,40
644,76	1753,06
644,95	1775,59
645,14	1800,16
645,33	1671,14
645,52	1738,73
645,71	1683,43
645,89	1701,86
646,08	1736,68
646,27	1736,68
646,46	1861,60
646,65	1636,33
646,84	1730,53
647,03	1662,95
647,22	1732,58
647,40	1701,86
647,59	1691,62
647,78	1636,33
647,97	1660,90
648,16	1710,05
648,35	1830,88
648,54	1859,56
648,73	1732,58
648,91	1759,21
649,10	1734,63
649,29	1724,39
649,48	1705,96
649,67	1703,91
649,86	1687,53
650,05	1738,73
650,23	1837,03
650,42	1699,81
650,61	1738,73
650,80	1781,73
650,99	1910,75
651,18	1828,84
651,36	1738,73
651,55	1777,64
651,74	1789,92
651,93	1726,44
652,12	1628,14
652,31	1746,92
652,49	1710,05
652,68	1683,43
652,87	1798,12
653,06	1753,06
653,25	1812,45
653,44	1701,86
653,62	1880,04
653,81	1667,05
654,00	1697,77
654,19	1834,98
654,38	1867,75
654,56	1755,11
654,75	1738,73
654,94	1746,92
655,13	1730,53
655,32	1677,29
655,51	1775,59
655,69	1679,33
655,88	1693,67
656,07	1695,72
656,26	1751,01
656,45	1656,81
656,63	1728,49
656,82	1757,16
657,01	1757,16
657,20	1648,61
657,38	1853,41
657,57	1734,63
657,76	1615,85
657,95	1787,88
658,14	1660,90
658,32	1767,40
658,51	1728,49
658,70	1775,59
658,89	1802,21
659,08	1714,15
659,26	1837,03
659,45	1773,54
659,64	1824,74
659,83	1695,72
660,01	1935,33
660,20	1734,63
660,39	1820,64
660,58	1644,52
660,76	1802,21
660,95	1609,70
661,14	1802,21
661,33	1642,47
661,51	1689,57
661,70	1773,54
661,89	1710,05
662,08	1697,77
662,26	1669,09
662,45	1693,67
662,64	1796,07
662,83	1787,88
663,01	1693,67
663,20	1695,72
663,39	1820,64
663,58	1656,81
663,76	1746,92
663,95	1742,82
664,14	1738,73
664,32	1671,14
664,51	1736,68
664,70	1585,13
664,89	1820,64
665,07	1691,62
665,26	1722,34
665,45	1687,53
665,64	1804,26
665,82	1748,97
666,01	1775,59
666,20	1613,80
666,38	1791,97
666,57	1810,40
666,76	2222,05
666,95	4566,97
667,13	10418,02
667,32	15359,77
667,51	17802,99
667,69	19074,78
667,88	17739,51
668,07	12349,25
668,25	9506,67
668,44	7972,74
668,63	7360,40
668,81	6920,09
669,00	6174,63
669,19	5576,62
669,38	5003,19
669,56	4616,12
669,75	3907,52
669,94	3375,05
670,12	2846,68
670,31	2590,68
670,50	2164,70
670,68	2041,82
670,87	1912,80
671,06	1834,98
671,24	1794,02
671,43	1843,17
671,62	1738,73
671,80	1734,63
671,99	1755,11
672,18	1730,53
672,36	1804,26
672,55	1732,58
672,74	1744,87
672,92	1720,29
673,11	1738,73
673,29	1650,66
673,48	1798,12
673,67	1757,16
673,85	1761,25
674,04	1689,57
674,23	1724,39
674,41	1771,49
674,60	1703,91
674,79	1624,04
674,97	1681,38
675,16	1794,02
675,34	1673,19
675,53	1607,66
675,72	1716,20
675,90	1759,21
676,09	1787,88
676,28	1691,62
676,46	1605,61
676,65	1748,97
676,83	1730,53
677,02	1769,44
677,21	1701,86
677,39	1742,82
677,58	1679,33
677,77	1691,62
677,95	1669,09
678,14	1755,11
678,32	1712,10
678,51	1691,62
678,70	1822,69
678,88	1679,33
679,07	1740,77
679,25	1742,82
679,44	1746,92
679,63	1695,72
679,81	1726,44
680,00	1800,16
680,18	1839,08
680,37	1791,97
680,55	1728,49
680,74	1683,43
680,93	1673,19
681,11	1708,01
681,30	1740,77
681,48	1755,11
681,67	1824,74
681,85	1662,95
682,04	1607,66
682,23	1808,36
682,41	1751,01
682,60	1677,29
682,78	1740,77
682,97	1728,49
683,15	1722,34
683,34	1703,91
683,53	1816,55
683,71	1640,42
683,90	1820,64
684,08	1830,88
684,27	1740,77
684,45	1652,71
684,64	1857,51
684,82	1656,81
685,01	1724,39
685,19	1730,53
685,38	1857,51
685,57	1730,53
685,75	1730,53
685,94	1708,01
686,12	1718,25
686,31	1654,76
686,49	1837,03
686,68	1603,56
686,86	1683,43
687,05	1771,49
687,23	1822,69
687,42	1695,72
687,60	1634,28
687,79	1802,21
687,97	1777,64
688,16	1748,97
688,34	1802,21
688,53	1624,04
688,71	1771,49
688,90	1847,27
689,08	1738,73
689,27	1581,03
689,45	1767,40
689,64	1742,82
689,82	1748,97
690,01	1796,07
690,19	1691,62
690,38	1755,11
690,56	1853,41
690,75	1656,81
690,93	1619,94
691,12	1685,48
691,30	1716,20
691,49	1675,24
691,67	1771,49
691,86	1845,22
692,04	1683,43
692,23	1732,58
692,41	1763,30
692,60	1894,37
692,78	1839,08
692,97	1781,73
693,15	1759,21
693,34	1794,02
693,52	1699,81
693,71	1658,85
693,89	1677,29
694,08	1597,42
694,26	1791,97
694,44	1779,68
694,63	1767,40
694,81	1665,00
695,00	1734,63
695,18	1812,45
695,37	1863,65
695,55	1720,29
695,74	1687,53
695,92	1636,33
696,10	1828,84
696,29	1687,53
696,47	1685,48
696,66	1601,51
696,84	1675,24
697,03	1728,49
697,21	1808,36
697,40	2279,39
697,58	1853,41
697,76	1685,48
697,95	1679,33
698,13	1681,38
698,32	1722,34
698,50	1691,62
698,68	1712,10
698,87	1806,31
699,05	1796,07
699,24	1673,19
699,42	1695,72
699,61	1718,25
699,79	1730,53
699,97	1675,24
700,16	1693,67
700,34	1624,04
700,53	1818,60
700,71	1816,55
700,89	1728,49
701,08	1757,16
701,26	1705,96
701,45	2133,98
701,63	1673,19
701,81	1681,38
702,00	1765,35
702,18	1712,10
702,37	1693,67
702,55	1755,11
702,73	1724,39
702,92	1677,29
703,10	1740,77
703,28	1767,40
703,47	1669,09
703,65	1744,87
703,84	1720,29
704,02	1677,29
704,20	1712,10
704,39	1656,81
704,57	1710,05
704,75	1775,59
704,94	1828,84
705,12	1712,10
705,30	1787,88
705,49	2308,06
705,67	4464,57
705,86	9299,83
706,04	12664,64
706,22	14540,58
706,41	15337,24
706,59	13782,83
706,77	9504,62
706,96	7487,37
707,14	6741,91
707,32	5846,95
707,51	5711,78
707,69	4917,17
707,87	4173,76
708,06	3520,46
708,24	2908,12
708,42	2451,42
708,61	2240,48
708,79	1898,47
708,97	1863,65
709,16	1894,37
709,34	1812,45
709,52	1734,63
709,71	1720,29
709,89	1761,25
710,07	1775,59
710,26	1748,97
710,44	1697,77
710,62	1781,73
710,80	1671,14
710,99	1703,91
711,17	1816,55
711,35	1722,34
711,54	1652,71
711,72	1779,68
711,90	1804,26
712,09	1722,34
712,27	1691,62
712,45	1748,97
712,63	1634,28
712,82	1679,33
713,00	1695,72
713,18	1771,49
713,37	1730,53
713,55	1777,64
713,73	1767,40
713,91	1773,54
714,10	1679,33
714,28	1730,53
714,46	1667,05
714,65	1783,78
714,83	1695,72
715,01	1771,49
715,19	1681,38
715,38	1617,90
715,56	1662,95
715,74	1671,14
715,92	1640,42
716,11	1796,07
716,29	1654,76
716,47	1695,72
716,65	1736,68
716,84	1689,57
717,02	1783,78
717,20	1628,14
717,38	1675,24
717,57	1738,73
717,75	1710,05
717,93	1673,19
718,11	1736,68
718,30	1716,20
718,48	1779,68
718,66	1726,44
718,84	1871,84
719,03	1753,06
719,21	1689,57
719,39	1806,31
719,57	1787,88
719,75	1761,25
719,94	1665,00
720,12	1779,68
720,30	1738,73
720,48	1746,92
720,67	1687,53
720,85	1695,72
721,03	1710,05
721,21	1728,49
721,39	1863,65
721,58	1757,16
721,76	1667,05
721,94	1751,01
722,12	1748,97
722,30	1796,07
722,49	1718,25
722,67	1714,15
722,85	1841,12
723,03	1644,52
723,21	1677,29
723,40	1716,20
723,58	1726,44
723,76	1699,81
723,94	1742,82
724,12	1744,87
724,30	1738,73
724,49	1701,86
724,67	1652,71
724,85	1822,69
725,03	1662,95
725,21	1759,21
725,40	1828,84
725,58	1656,81
725,76	1744,87
725,94	1705,96
726,12	1644,52
726,30	1738,73
726,49	1689,57
726,67	1693,67
726,85	1806,31
727,03	1834,98
727,21	2199,52
727,39	2985,94
727,57	3751,88
727,76	4261,82
727,94	4329,41
728,12	4513,72
728,30	3680,20
728,48	2861,01
728,66	2734,04
728,84	2543,58
729,03	2355,16
729,21	2150,37
729,39	2002,91
729,57	1806,31
729,75	1810,40
729,93	1847,27
730,11	1798,12
730,30	1769,44
730,48	1755,11
730,66	1830,88
730,84	1718,25
731,02	1748,97
731,20	1742,82
731,38	1714,15
731,56	1667,05
731,74	1658,85
731,93	1685,48
732,11	1746,92
732,29	1697,77
732,47	1751,01
732,65	1705,96
732,83	1822,69
733,01	1751,01
733,19	1699,81
733,37	1779,68
733,56	1804,26
733,74	1675,24
733,92	1832,93
734,10	1738,73
734,28	1716,20
734,46	1665,00
734,64	1716,20
734,82	1662,95
735,00	1665,00
735,18	1742,82
735,36	1751,01
735,54	1669,09
735,73	1675,24
735,91	1699,81
736,09	1757,16
736,27	1703,91
736,45	1822,69
736,63	1652,71
736,81	1679,33
736,99	1822,69
737,17	1843,17
737,35	1681,38
737,53	1705,96
737,71	1810,40
737,89	1746,92
738,07	1693,67
738,25	1718,25
738,43	1609,70
738,61	1724,39
738,80	1671,14
738,98	1691,62
739,16	1669,09
739,34	1693,67
739,52	1843,17
739,70	1685,48
739,88	1679,33
740,06	1775,59
740,24	1632,23
740,42	1794,02
740,60	1599,46
740,78	1650,66
740,96	1611,75
741,14	1726,44
741,32	1755,11
741,50	1642,47
741,68	1812,45
741,86	1777,64
742,04	1677,29
742,22	1689,57
742,40	1789,92
742,58	1755,11
742,76	1714,15
742,94	1728,49
743,12	1558,50
743,30	1681,38
743,48	1771,49
743,66	1669,09
743,84	1775,59
744,02	1630,18
744,20	1714,15
744,38	1697,77
744,56	1759,21
744,74	1796,07
744,92	1759,21
745,10	1767,40
745,28	1789,92
745,46	1826,79
745,64	1701,86
745,82	1746,92
746,00	1763,30
746,18	1738,73
746,36	1640,42
746,54	1771,49
746,72	1744,87
746,90	1632,23
747,08	1787,88
747,26	1630,18
747,44	1732,58
747,62	1753,06
747,80	1810,40
747,98	1802,21
748,15	1718,25
748,33	1806,31
748,51	1748,97
748,69	1812,45
748,87	1685,48
749,05	1705,96
749,23	1746,92
749,41	1742,82
749,59	1665,00
749,77	1757,16
749,95	1681,38
750,13	1734,63
750,31	1701,86
750,49	1738,73
750,67	1753,06
750,85	1775,59
751,03	1783,78
751,20	1767,40
751,38	1697,77
751,56	1714,15
751,74	1710,05
751,92	1693,67
752,10	1632,23
752,28	1830,88
752,46	1634,28
752,64	1710,05
752,82	1746,92
753,00	1837,03
753,18	1724,39
753,35	1697,77
753,53	1740,77
753,71	1669,09
753,89	1714,15
754,07	1677,29
754,25	1746,92
754,43	1720,29
754,61	1705,96
754,79	1701,86
754,97	1693,67
755,14	1779,68
755,32	1615,85
755,50	1701,86
755,68	1796,07
755,86	1658,85
756,04	1714,15
756,22	1650,66
756,40	1755,11
756,57	1787,88
756,75	1834,98
756,93	1757,16
757,11	1789,92
757,29	1638,38
757,47	1699,81
757,65	1656,81
757,82	1533,93
758,00	1658,85
758,18	1624,04
758,36	1658,85
758,54	1865,70
758,72	1562,60
758,90	1732,58
759,07	1744,87
759,25	1642,47
759,43	1703,91
759,61	1697,77
759,79	2230,24
759,97	1828,84
760,15	1679,33
760,32	1710,05
760,50	1808,36
760,68	1773,54
760,86	1615,85
761,04	1728,49
761,22	1675,24
761,39	1775,59
761,57	1734,63
761,75	1691,62
761,93	1816,55
762,11	1718,25
762,28	1728,49
762,46	1667,05
762,64	1755,11
762,82	1675,24
763,00	1677,29
763,18	1849,32
763,35	1675,24
763,53	1761,25
763,71	1748,97
763,89	1734,63
764,07	1662,95
764,24	1697,77
764,42	1779,68
764,60	1689,57
764,78	1753,06
764,96	1759,21
765,13	1810,40
765,31	1701,86
765,49	1710,05
765,67	1605,61
765,84	1695,72
766,02	1628,14
766,20	1578,98
766,38	1753,06
766,56	1748,97
766,73	1814,50
766,91	1683,43
767,09	1773,54
767,27	1732,58
767,44	1699,81
767,62	1738,73
767,80	1794,02
767,98	1724,39
768,15	1726,44
768,33	1763,30
768,51	1746,92
768,69	1716,20
768,87	1802,21
769,04	1791,97
769,22	1767,40
769,40	1861,60
769,58	1820,64
769,75	1710,05
769,93	1742,82
770,11	1683,43
770,28	1660,90
770,46	1673,19
770,64	1755,11
770,82	1734,63
770,99	1665,00
771,17	1845,22
771,35	1669,09
771,53	1699,81
771,70	1728,49
771,88	1701,86
772,06	1744,87
772,23	1675,24
772,41	1751,01
772,59	1642,47
772,77	1744,87
772,94	1701,86
773,12	1738,73
773,30	1689,57
773,47	1755,11
773,65	1628,14
773,83	1800,16
774,01	1716,20
774,18	1611,75
774,36	1746,92
774,54	1650,66
774,71	1691,62
774,89	1648,61
775,07	1640,42
775,24	1648,61
775,42	1689,57
775,60	1779,68
775,78	1701,86
775,95	1626,09
776,13	1607,66
776,31	1630,18
776,48	1693,67
776,66	1757,16
776,84	1759,21
777,01	1675,24
777,19	1693,67
777,37	1730,53
777,54	1806,31
777,72	1822,69
777,90	1771,49
778,07	1761,25
778,25	1853,41
778,43	1751,01
778,60	1630,18
778,78	1775,59
778,96	1757,16
779,13	1693,67
779,31	1755,11
779,49	1697,77
779,66	1728,49
779,84	1771,49
780,01	1628,14
780,19	1708,01
780,37	1814,50
780,54	1796,07
780,72	1648,61
780,90	1724,39
781,07	1658,85
781,25	1644,52
781,43	1765,35
781,60	1662,95
781,78	1746,92
781,95	1624,04
782,13	1701,86
782,31	1740,77
782,48	1685,48
782,66	1677,29
782,83	1832,93
783,01	1755,11
783,19	1740,77
783,36	1718,25
783,54	1673,19
783,72	1693,67
783,89	1665,00
784,07	1806,31
784,24	1736,68
784,42	1818,60
784,60	1746,92
784,77	1728,49
784,95	1585,13
785,12	1693,67
785,30	1734,63
785,47	1665,00
785,65	1669,09
785,83	1667,05
786,00	1761,25
786,18	1732,58
786,35	1615,85
786,53	1671,14
786,71	1714,15
786,88	1683,43
787,06	1699,81
787,23	1712,10
787,41	1613,80
787,58	1730,53
787,76	1689,57
787,94	1656,81
788,11	1701,86
788,29	1718,25
788,46	1697,77
788,64	1673,19
788,81	1646,57
788,99	1673,19
789,16	1626,09
789,34	1718,25
789,52	1703,91
789,69	1619,94
789,87	1632,23
790,04	1697,77
790,22	1738,73
790,39	1787,88
790,57	1667,05
790,74	1656,81
790,92	1785,83
791,09	1615,85
791,27	1710,05
791,44	1828,84
791,62	1677,29
791,79	1722,34
791,97	1665,00
792,15	1861,60
792,32	1834,98
792,50	1804,26
792,67	1847,27
792,85	1820,64
793,02	1755,11
793,20	1675,24
793,37	1632,23
793,55	1701,86
793,72	1628,14
793,90	1798,12
794,07	1708,01
794,25	1695,72
794,42	1660,90
794,60	1720,29
794,77	1689,57
794,95	1763,30
795,12	1687,53
795,30	1667,05
795,47	1574,89
795,65	1902,56
795,82	1718,25
796,00	1699,81
796,17	1675,24
796,34	1730,53
796,52	1665,00
796,69	1765,35
796,87	1808,36
797,04	1753,06
797,22	1783,78
797,39	1746,92
797,57	1763,30
797,74	1726,44
797,92	1755,11
798,09	1689,57
798,27	1751,01
798,44	1710,05
798,62	1708,01
798,79	1660,90
798,96	1740,77
799,14	1658,85
799,31	1900,52
799,49	1640,42
799,66	1685,48
799,84	1796,07
800,01	1632,23
800,19	1624,04
800,36	1595,37
800,53	1728,49
800,71	1722,34
800,88	1882,08
801,06	1636,33
801,23	1722,34
801,41	1632,23
801,58	1724,39
801,75	1615,85
801,93	1697,77
802,10	1697,77
802,28	1716,20
802,45	1687,53
802,63	1740,77
802,80	1791,97
802,97	1710,05
803,15	1734,63
803,32	1656,81
803,50	1677,29
803,67	1665,00
803,84	1730,53
804,02	1685,48
804,19	1761,25
804,37	1617,90
804,54	1619,94
804,71	1705,96
804,89	1613,80
805,06	1693,67
805,24	1648,61
805,41	1708,01
805,58	1691,62
805,76	1808,36
805,93	1757,16
806,10	1746,92
806,28	1701,86
806,45	1705,96
806,63	1724,39
806,80	1753,06
806,97	1734,63
807,15	1734,63
807,32	1763,30
807,49	1724,39
807,67	1654,76
807,84	1689,57
808,01	1626,09
808,19	1904,61
808,36	1845,22
808,54	1611,75
808,71	1624,04
808,88	1730,53
809,06	1728,49
809,23	1816,55
809,40	1730,53
809,58	1724,39
809,75	1779,68
809,92	1654,76
810,10	1812,45
810,27	1724,39
810,44	1722,34
810,62	1834,98
810,79	1650,66
810,96	1669,09
811,14	1677,29
811,31	1748,97
811,48	1697,77
811,66	1755,11
811,83	1779,68
812,00	1759,21
812,18	1787,88
812,35	1804,26
812,52	1689,57
812,69	1701,86
812,87	1708,01
813,04	1615,85
813,21	1660,90
813,39	1691,62
813,56	1595,37
813,73	1705,96
813,91	1595,37
814,08	1720,29
814,25	1785,83
814,42	1648,61
814,60	1705,96
814,77	1718,25
814,94	1701,86
815,12	1650,66
815,29	1820,64
815,46	1740,77
815,63	1701,86
815,81	1652,71
815,98	1738,73
816,15	1687,53
816,33	1726,44
816,50	1685,48
816,67	1724,39
816,84	1695,72
817,02	1624,04
817,19	1691,62
817,36	1800,16
817,53	1783,78
817,71	1683,43
817,88	1837,03
818,05	1675,24
818,22	1724,39
818,40	1806,31
818,57	1697,77
818,74	1765,35
818,91	1705,96
819,09	1822,69
819,26	1658,85
819,43	1693,67
819,60	1701,86
819,78	1742,82
819,95	1812,45
820,12	1621,99
820,29	1771,49
820,47	1863,65
820,64	1697,77
820,81	1685,48
820,98	1673,19
821,15	1681,38
821,33	1734,63
821,50	1644,52
821,67	1681,38
821,84	1679,33
822,02	1806,31
822,19	1726,44
822,36	1705,96
822,53	1679,33
822,70	1650,66
822,88	1609,70
823,05	1822,69
823,22	1720,29
823,39	1738,73
823,56	1703,91
823,74	1865,70
823,91	1665,00
824,08	1687,53
824,25	1708,01
824,42	1791,97
824,60	1607,66
824,77	1710,05
824,94	1662,95
825,11	1738,73
825,28	1654,76
825,45	1738,73
825,63	1818,60
825,80	1679,33
825,97	1701,86
826,14	1699,81
826,31	1603,56
826,48	1744,87
826,66	1609,70
826,83	1693,67
827,00	1748,97
827,17	1636,33
827,34	1771,49
827,51	1628,14
827,69	1718,25
827,86	1599,46
828,03	1619,94
828,20	1738,73
828,37	1734,63
828,54	1736,68
828,71	1632,23
828,89	1781,73
829,06	1730,53
829,23	1796,07
829,40	1677,29
829,57	1722,34
829,74	1755,11
829,91	1656,81
830,09	1679,33
830,26	1791,97
830,43	1757,16
830,60	1742,82
830,77	1742,82
830,94	1753,06
831,11	1705,96
831,28	1697,77
831,46	1775,59
831,63	1708,01
831,80	1771,49
831,97	1701,86
832,14	1644,52
832,31	1785,83
832,48	1726,44
832,65	1785,83
832,82	1726,44
832,99	1787,88
833,17	1675,24
833,34	1896,42
833,51	1736,68
833,68	1572,84
833,85	1810,40
834,02	1675,24
834,19	1697,77
834,36	1605,61
834,53	1724,39
834,70	1699,81
834,87	1779,68
835,04	1685,48
835,22	1689,57
835,39	1705,96
835,56	1634,28
835,73	1619,94
835,90	1767,40
836,07	1636,33
836,24	1773,54
836,41	1697,77
836,58	1646,57
836,75	1767,40
836,92	1796,07
837,09	1640,42
837,26	1740,77
837,43	1765,35
837,60	1687,53
837,77	1746,92
837,94	1693,67
838,12	1773,54
838,29	1738,73
838,46	1632,23
838,63	1673,19
838,80	1728,49
838,97	1767,40
839,14	1705,96
839,31	1687,53
839,48	1734,63
839,65	1589,22
839,82	1730,53
839,99	1673,19
840,16	1779,68
840,33	1656,81
840,50	1800,16
840,67	1595,37
840,84	1552,36
841,01	1734,63
841,18	1695,72
841,35	1683,43
841,52	1751,01
841,69	1804,26
841,86	1689,57
842,03	1716,20
842,20	1650,66
842,37	1763,30
842,54	1697,77
842,71	1740,77
842,88	1640,42
843,05	1757,16
843,22	1665,00
843,39	1761,25
843,56	1697,77
843,73	1701,86
843,90	1728,49
844,07	1732,58
844,24	1767,40
844,41	1804,26
844,58	1710,05
844,75	1701,86
844,92	1710,05
845,09	1660,90
845,26	1742,82
845,43	1726,44
845,60	1691,62
845,77	1800,16
845,94	1748,97
846,10	1759,21
846,27	1599,46
846,44	1609,70
846,61	1654,76
846,78	1775,59
846,95	1837,03
847,12	1667,05
847,29	1783,78
847,46	1675,24
847,63	1791,97
847,80	1714,15
847,97	1619,94
848,14	1804,26
848,31	1728,49
848,48	1648,61
848,65	1683,43
848,82	1640,42
848,98	1740,77
849,15	1787,88
849,32	1765,35
849,49	1738,73
849,66	1710,05
849,83	1722,34
850,00	1611,75
850,17	1794,02
850,34	1712,10
850,51	1738,73
850,68	1671,14
850,85	1863,65
851,01	1699,81
851,18	1728,49
851,35	1656,81
851,52	1720,29
851,69	1845,22
851,86	1650,66
852,03	1806,31
852,20	1775,59
852,37	1681,38
852,53	1665,00
852,70	1691,62
852,87	1677,29
853,04	1753,06
853,21	1763,30
853,38	1732,58
853,55	1834,98
853,72	1826,79
853,89	1646,57
854,05	1724,39
854,22	1636,33
854,39	1644,52
854,56	1732,58
854,73	1802,21
854,90	1669,09
855,07	1628,14
855,23	1701,86
855,40	1742,82
855,57	1619,94
855,74	1595,37
855,91	1845,22
856,08	1568,74
856,25	1710,05
856,41	1662,95
856,58	1667,05
856,75	1734,63
856,92	1681,38
857,09	1708,01
857,26	1581,03
857,42	1677,29
857,59	1705,96
857,76	1673,19
857,93	1757,16
858,10	1759,21
858,27	1675,24
858,43	1675,24
858,60	1673,19
858,77	1658,85
858,94	1685,48
859,11	1818,60
859,27	1742,82
859,44	1787,88
859,61	1810,40
859,78	1738,73
859,95	1699,81
860,12	1677,29
860,28	1898,47
860,45	1816,55
860,62	1662,95
860,79	1687,53
860,95	1828,84
861,12	1695,72
861,29	1640,42
861,46	1621,99
861,63	1681,38
861,79	1726,44
861,96	1703,91
862,13	1673,19
862,30	1710,05
862,47	1669,09
862,63	1669,09
862,80	1742,82
862,97	1703,91
863,14	1800,16
863,30	1724,39
863,47	1658,85
863,64	1804,26
863,81	1710,05
863,97	1699,81
864,14	1689,57
864,31	1562,60
864,48	1783,78
864,65	1753,06
864,81	1738,73
864,98	1734,63
865,15	1757,16
865,32	1718,25
865,48	1763,30
865,65	1740,77
865,82	1665,00
865,98	1728,49
866,15	1789,92
866,32	1671,14
866,49	1652,71
866,65	1796,07
866,82	1654,76
866,99	1755,11
867,16	1751,01
867,32	1708,01
867,49	1734,63
867,66	1708,01
867,83	1624,04
867,99	1652,71
868,16	1644,52
868,33	1636,33
868,49	1642,47
868,66	1753,06
868,83	1736,68
868,99	1736,68
869,16	1716,20
869,33	1746,92
869,50	1726,44
869,66	1712,10
869,83	1753,06
870,00	1646,57
870,16	1759,21
870,33	1669,09
870,50	1689,57
870,66	1740,77
870,83	1753,06
871,00	1732,58
871,17	1765,35
871,33	1746,92
871,50	1648,61
871,67	1660,90
871,83	1665,00
872,00	1832,93
872,17	1697,77
872,33	1728,49
872,50	1820,64
872,67	1687,53
872,83	1746,92
873,00	1787,88
873,17	1638,38
873,33	1808,36
873,50	1757,16
873,67	1626,09
873,83	1654,76
874,00	1744,87
874,16	1759,21
874,33	1718,25
874,50	1705,96
874,66	1785,83
874,83	1765,35
875,00	1724,39
875,16	1689,57
875,33	1794,02
875,50	1552,36
875,66	1732,58
875,83	1783,78
875,99	1771,49
876,16	1748,97
876,33	1677,29
876,49	1630,18
876,66	1714,15
876,83	1671,14
876,99	1640,42
877,16	1742,82
877,32	1697,77
877,49	1691,62
877,66	1687,53
877,82	1771,49
877,99	1701,86
878,15	1787,88
878,32	1710,05
878,49	1757,16
878,65	1634,28
878,82	1787,88
878,98	1722,34
879,15	1771,49
879,32	1720,29
879,48	1755,11
879,65	1689,57
879,81	1673,19
879,98	1691,62
880,15	1755,11
880,31	1787,88
880,48	1656,81
880,64	1746,92
880,81	1751,01
880,97	1812,45
881,14	1730,53
881,31	1710,05
881,47	1882,08
881,64	1734,63
881,80	1632,23
881,97	1689,57
882,13	1773,54
882,30	1648,61
882,47	1687,53
882,63	1689,57
882,80	1619,94
882,96	1695,72
883,13	1839,08
883,29	1669,09
883,46	1765,35
883,62	1818,60
883,79	1710,05
883,95	1726,44
884,12	1710,05
884,29	1771,49
884,45	1746,92
884,62	1757,16
884,78	1732,58
884,95	1751,01
885,11	1587,18
885,28	1761,25
885,44	1716,20
885,61	1687,53
885,77	1763,30
885,94	1734,63
886,10	1685,48
886,27	1689,57
886,43	1800,16
886,60	1802,21
886,76	1662,95
886,93	1626,09
887,09	1791,97
887,26	1626,09
887,42	1691,62
887,59	1716,20
887,75	1824,74
887,92	1714,15
888,08	1722,34
888,25	1714,15
888,41	1757,16
888,58	1746,92
888,74	1556,46
888,91	1662,95
>>>>>End Processed Spectral Data<<<<<
