SpectraSuite Data File
++++++++++++++++++++++++++++++++++++
Date: Mon Jun 06 14:30:57 CEST 2016
User: root
Dark Spectrum Present: No
Reference Spectrum Present: No
Number of Sampled Component Spectra: 1
Spectrometers: USB4C02835
Integration Time (usec): 100000 (USB4C02835)
Spectra Averaged: 1 (USB4C02835)
Boxcar Smoothing: 0 (USB4C02835)
Correct for Electrical Dark: No (USB4C02835)
Strobe/Lamp Enabled: No (USB4C02835)
Correct for Detector Non-linearity: No (USB4C02835)
Correct for Stray Light: No (USB4C02835)
Number of Pixels in Processed Spectrum: 3648
>>>>>Begin Processed Spectral Data<<<<<
177,47	1490,92
177,69	1490,92
177,91	1490,92
178,13	1458,15
178,36	1488,87
178,58	1642,47
178,80	1804,26
179,02	1638,38
179,24	1615,85
179,46	1695,72
179,68	1804,26
179,90	1724,39
180,13	1689,57
180,35	1644,52
180,57	1699,81
180,79	1759,21
181,01	1718,25
181,23	1744,87
181,45	1871,84
181,67	1665,00
181,90	1718,25
182,12	1626,09
182,34	1607,66
182,56	1708,01
182,78	1679,33
183,00	1624,04
183,22	1685,48
183,44	1609,70
183,66	1832,93
183,89	1789,92
184,11	1697,77
184,33	1779,68
184,55	1763,30
184,77	1730,53
184,99	1779,68
185,21	1671,14
185,43	1865,70
185,65	1673,19
185,87	1703,91
186,10	1798,12
186,32	1841,12
186,54	1763,30
186,76	1708,01
186,98	1722,34
187,20	1722,34
187,42	1665,00
187,64	1642,47
187,86	1607,66
188,08	1691,62
188,30	1689,57
188,52	1689,57
188,75	1789,92
188,97	1736,68
189,19	1724,39
189,41	1718,25
189,63	1705,96
189,85	1689,57
190,07	1640,42
190,29	1660,90
190,51	1695,72
190,73	1644,52
190,95	1724,39
191,17	1656,81
191,39	1591,27
191,61	1679,33
191,84	1632,23
192,06	1738,73
192,28	1632,23
192,50	1861,60
192,72	1703,91
192,94	1736,68
193,16	1796,07
193,38	1751,01
193,60	1679,33
193,82	1738,73
194,04	1697,77
194,26	1701,86
194,48	1755,11
194,70	1636,33
194,92	1708,01
195,14	1773,54
195,36	1667,05
195,58	1726,44
195,80	1611,75
196,02	1638,38
196,24	1695,72
196,46	1662,95
196,69	1667,05
196,91	1830,88
197,13	1656,81
197,35	1683,43
197,57	1783,78
197,79	1714,15
198,01	1744,87
198,23	1718,25
198,45	1626,09
198,67	1691,62
198,89	1701,86
199,11	1703,91
199,33	1693,67
199,55	1572,84
199,77	1685,48
199,99	1820,64
200,21	1703,91
200,43	1716,20
200,65	1730,53
200,87	1681,38
201,09	1736,68
201,31	1746,92
201,53	1806,31
201,75	1769,44
201,97	1644,52
202,19	1708,01
202,41	1767,40
202,63	1791,97
202,85	1736,68
203,07	1718,25
203,29	1675,24
203,51	1658,85
203,73	1708,01
203,95	1789,92
204,17	1763,30
204,39	1726,44
204,61	1667,05
204,83	1685,48
205,05	1810,40
205,27	1753,06
205,49	1798,12
205,71	1695,72
205,93	1595,37
206,15	1642,47
206,37	1683,43
206,59	1648,61
206,81	1628,14
207,03	1626,09
207,25	1660,90
207,47	1687,53
207,69	1683,43
207,91	1851,36
208,13	1779,68
208,34	1708,01
208,56	1619,94
208,78	1677,29
209,00	1650,66
209,22	1677,29
209,44	1685,48
209,66	1689,57
209,88	1667,05
210,10	1697,77
210,32	1665,00
210,54	1785,83
210,76	1662,95
210,98	1701,86
211,20	1595,37
211,42	1767,40
211,64	1826,79
211,86	1693,67
212,08	1732,58
212,30	1730,53
212,52	1730,53
212,74	1794,02
212,96	1693,67
213,17	1767,40
213,39	1701,86
213,61	1753,06
213,83	1718,25
214,05	1683,43
214,27	1753,06
214,49	1535,98
214,71	1669,09
214,93	1722,34
215,15	1722,34
215,37	1722,34
215,59	1611,75
215,81	1771,49
216,03	1693,67
216,24	1689,57
216,46	1705,96
216,68	1681,38
216,90	1767,40
217,12	1751,01
217,34	1720,29
217,56	1744,87
217,78	1683,43
218,00	1765,35
218,22	1765,35
218,44	1673,19
218,66	1730,53
218,87	1796,07
219,09	1638,38
219,31	1730,53
219,53	1683,43
219,75	1650,66
219,97	1624,04
220,19	1742,82
220,41	1619,94
220,63	1822,69
220,85	1710,05
221,06	1667,05
221,28	1746,92
221,50	1732,58
221,72	1738,73
221,94	1685,48
222,16	1673,19
222,38	1796,07
222,60	1703,91
222,82	1617,90
223,03	1785,83
223,25	1638,38
223,47	1748,97
223,69	1724,39
223,91	1728,49
224,13	1701,86
224,35	1699,81
224,57	1730,53
224,78	1738,73
225,00	1628,14
225,22	1740,77
225,44	1699,81
225,66	1769,44
225,88	1640,42
226,10	1769,44
226,32	1787,88
226,53	1722,34
226,75	1687,53
226,97	1703,91
227,19	1681,38
227,41	1695,72
227,63	1638,38
227,85	1685,48
228,06	1693,67
228,28	1716,20
228,50	1726,44
228,72	1652,71
228,94	1716,20
229,16	1677,29
229,37	1716,20
229,59	1589,22
229,81	1826,79
230,03	1685,48
230,25	1593,32
230,47	1638,38
230,69	1574,89
230,90	1724,39
231,12	1650,66
231,34	1677,29
231,56	1722,34
231,78	1689,57
232,00	1697,77
232,21	1642,47
232,43	1601,51
232,65	1597,42
232,87	1757,16
233,09	1613,80
233,30	1662,95
233,52	1755,11
233,74	1628,14
233,96	1730,53
234,18	1665,00
234,40	1746,92
234,61	1773,54
234,83	1675,24
235,05	1671,14
235,27	1888,23
235,49	1808,36
235,70	1705,96
235,92	1828,84
236,14	1796,07
236,36	1904,61
236,58	1656,81
236,79	1748,97
237,01	1624,04
237,23	1665,00
237,45	1775,59
237,67	1685,48
237,88	1751,01
238,10	1818,60
238,32	1644,52
238,54	1677,29
238,76	1693,67
238,97	1701,86
239,19	1681,38
239,41	1769,44
239,63	1732,58
239,85	1681,38
240,06	1697,77
240,28	1681,38
240,50	1689,57
240,72	1681,38
240,93	1763,30
241,15	1806,31
241,37	1708,01
241,59	1738,73
241,81	1771,49
242,02	1708,01
242,24	1673,19
242,46	1744,87
242,68	1656,81
242,89	1736,68
243,11	1753,06
243,33	1732,58
243,55	1732,58
243,76	1804,26
243,98	1630,18
244,20	1652,71
244,42	1718,25
244,64	1632,23
244,85	1658,85
245,07	1654,76
245,29	1761,25
245,51	1703,91
245,72	1724,39
245,94	1761,25
246,16	1748,97
246,38	1716,20
246,59	1681,38
246,81	1648,61
247,03	1748,97
247,24	1658,85
247,46	1679,33
247,68	1648,61
247,90	1630,18
248,11	1619,94
248,33	1785,83
248,55	1734,63
248,77	1697,77
248,98	1675,24
249,20	1789,92
249,42	1748,97
249,64	1683,43
249,85	1665,00
250,07	1714,15
250,29	1734,63
250,50	1802,21
250,72	1501,16
250,94	1746,92
251,16	1796,07
251,37	1804,26
251,59	1689,57
251,81	1695,72
252,02	1738,73
252,24	1654,76
252,46	1757,16
252,68	1681,38
252,89	1621,99
253,11	1636,33
253,33	1853,41
253,54	1763,30
253,76	1642,47
253,98	1697,77
254,20	1763,30
254,41	1693,67
254,63	1619,94
254,85	1597,42
255,06	1679,33
255,28	1701,86
255,50	1685,48
255,71	1630,18
255,93	1648,61
256,15	1701,86
256,36	1755,11
256,58	1714,15
256,80	1656,81
257,02	1691,62
257,23	1660,90
257,45	1693,67
257,67	1796,07
257,88	1648,61
258,10	1791,97
258,32	1652,71
258,53	1738,73
258,75	1753,06
258,97	1736,68
259,18	1658,85
259,40	1746,92
259,62	1798,12
259,83	1744,87
260,05	1746,92
260,27	1953,76
260,48	1773,54
260,70	1568,74
260,92	1728,49
261,13	1742,82
261,35	1740,77
261,57	1708,01
261,78	1693,67
262,00	1675,24
262,22	1730,53
262,43	1675,24
262,65	1722,34
262,86	1650,66
263,08	1763,30
263,30	1726,44
263,51	1523,69
263,73	1615,85
263,95	1794,02
264,16	1718,25
264,38	1638,38
264,60	1660,90
264,81	1687,53
265,03	1753,06
265,25	1755,11
265,46	1724,39
265,68	1773,54
265,89	1675,24
266,11	1644,52
266,33	1804,26
266,54	1626,09
266,76	1714,15
266,98	1806,31
267,19	1746,92
267,41	1783,78
267,62	1734,63
267,84	1656,81
268,06	1746,92
268,27	1693,67
268,49	1849,32
268,70	1761,25
268,92	1705,96
269,14	1677,29
269,35	1644,52
269,57	1728,49
269,79	1716,20
270,00	1665,00
270,22	1761,25
270,43	1632,23
270,65	1599,46
270,87	1720,29
271,08	1744,87
271,30	1683,43
271,51	1685,48
271,73	1757,16
271,95	1769,44
272,16	1712,10
272,38	1720,29
272,59	1771,49
272,81	1697,77
273,02	1691,62
273,24	1691,62
273,46	1638,38
273,67	1626,09
273,89	1660,90
274,10	1701,86
274,32	1726,44
274,54	1667,05
274,75	1773,54
274,97	1701,86
275,18	1705,96
275,40	1767,40
275,61	1716,20
275,83	1781,73
276,05	1587,18
276,26	1681,38
276,48	1794,02
276,69	1632,23
276,91	1640,42
277,12	1732,58
277,34	1734,63
277,55	1685,48
277,77	1753,06
277,99	1626,09
278,20	1701,86
278,42	1640,42
278,63	1634,28
278,85	1656,81
279,06	1624,04
279,28	1769,44
279,49	1742,82
279,71	1777,64
279,93	1722,34
280,14	1701,86
280,36	1705,96
280,57	1789,92
280,79	1748,97
281,00	1615,85
281,22	1695,72
281,43	1773,54
281,65	1634,28
281,86	1613,80
282,08	1621,99
282,29	1730,53
282,51	1640,42
282,73	1576,94
282,94	1679,33
283,16	1751,01
283,37	1855,46
283,59	1710,05
283,80	1656,81
284,02	1691,62
284,23	1722,34
284,45	1695,72
284,66	1644,52
284,88	1605,61
285,09	1701,86
285,31	1730,53
285,52	1714,15
285,74	1656,81
285,95	1757,16
286,17	1753,06
286,38	1656,81
286,60	1638,38
286,81	1703,91
287,03	1689,57
287,24	1679,33
287,46	1736,68
287,67	1669,09
287,89	1845,22
288,10	1675,24
288,32	1685,48
288,53	1714,15
288,75	1689,57
288,96	1708,01
289,18	1699,81
289,39	1742,82
289,61	1847,27
289,82	1849,32
290,04	1763,30
290,25	1634,28
290,47	1710,05
290,68	1642,47
290,90	1794,02
291,11	1636,33
291,33	1757,16
291,54	1642,47
291,76	1712,10
291,97	1675,24
292,18	1705,96
292,40	1658,85
292,61	1679,33
292,83	1832,93
293,04	1791,97
293,26	1693,67
293,47	1648,61
293,69	1722,34
293,90	1648,61
294,12	1779,68
294,33	1673,19
294,55	1699,81
294,76	1738,73
294,97	1826,79
295,19	1798,12
295,40	1628,14
295,62	1751,01
295,83	1775,59
296,05	1595,37
296,26	1773,54
296,48	1691,62
296,69	1779,68
296,90	1789,92
297,12	1753,06
297,33	1716,20
297,55	1724,39
297,76	1699,81
297,98	1722,34
298,19	1652,71
298,41	1734,63
298,62	1583,08
298,83	1843,17
299,05	1751,01
299,26	1669,09
299,48	1720,29
299,69	1738,73
299,90	1714,15
300,12	1716,20
300,33	1710,05
300,55	1662,95
300,76	1718,25
300,98	1607,66
301,19	1769,44
301,40	1701,86
301,62	1636,33
301,83	1734,63
302,05	1744,87
302,26	1765,35
302,47	1693,67
302,69	1656,81
302,90	1650,66
303,12	1515,50
303,33	1705,96
303,54	1843,17
303,76	1693,67
303,97	1730,53
304,19	1783,78
304,40	1624,04
304,61	1718,25
304,83	1767,40
305,04	1755,11
305,26	1726,44
305,47	1714,15
305,68	1667,05
305,90	1665,00
306,11	1736,68
306,33	1648,61
306,54	1611,75
306,75	1712,10
306,97	1669,09
307,18	1724,39
307,39	1611,75
307,61	1773,54
307,82	1648,61
308,04	1759,21
308,25	1730,53
308,46	1697,77
308,68	1669,09
308,89	1660,90
309,10	1806,31
309,32	1701,86
309,53	1720,29
309,74	1689,57
309,96	1673,19
310,17	1767,40
310,39	1669,09
310,60	1742,82
310,81	1710,05
311,03	1665,00
311,24	1718,25
311,45	1738,73
311,67	1775,59
311,88	1708,01
312,09	1650,66
312,31	1658,85
312,52	1669,09
312,73	1685,48
312,95	1685,48
313,16	1673,19
313,37	1748,97
313,59	1705,96
313,80	1773,54
314,01	1800,16
314,23	1689,57
314,44	1640,42
314,65	1648,61
314,87	1560,55
315,08	1740,77
315,29	1746,92
315,51	1554,41
315,72	1626,09
315,93	1785,83
316,15	1757,16
316,36	1621,99
316,57	1689,57
316,79	1755,11
317,00	1583,08
317,21	1705,96
317,43	1734,63
317,64	1685,48
317,85	1601,51
318,07	1648,61
318,28	1726,44
318,49	1832,93
318,70	2013,15
318,92	1863,65
319,13	1855,46
319,34	1798,12
319,56	1701,86
319,77	1832,93
319,98	1865,70
320,20	1783,78
320,41	1669,09
320,62	1716,20
320,83	1695,72
321,05	1751,01
321,26	1763,30
321,47	1665,00
321,69	1781,73
321,90	1583,08
322,11	1685,48
322,32	1677,29
322,54	1826,79
322,75	1638,38
322,96	1824,74
323,18	1585,13
323,39	1605,61
323,60	1681,38
323,81	1783,78
324,03	1656,81
324,24	1685,48
324,45	1716,20
324,66	1636,33
324,88	1736,68
325,09	1796,07
325,30	1705,96
325,52	1681,38
325,73	1734,63
325,94	1751,01
326,15	1632,23
326,37	1685,48
326,58	1746,92
326,79	1812,45
327,00	1675,24
327,22	1785,83
327,43	1681,38
327,64	1617,90
327,85	1738,73
328,07	1654,76
328,28	1748,97
328,49	1724,39
328,70	1626,09
328,92	1722,34
329,13	1724,39
329,34	1714,15
329,55	1777,64
329,76	1837,03
329,98	1642,47
330,19	1765,35
330,40	1789,92
330,61	1714,15
330,83	1763,30
331,04	1646,57
331,25	1730,53
331,46	1611,75
331,68	1681,38
331,89	1759,21
332,10	1675,24
332,31	1619,94
332,52	1683,43
332,74	1818,60
332,95	1630,18
333,16	1714,15
333,37	1781,73
333,58	1648,61
333,80	1689,57
334,01	1632,23
334,22	1732,58
334,43	1746,92
334,64	1722,34
334,86	1562,60
335,07	1646,57
335,28	1779,68
335,49	1677,29
335,70	1685,48
335,92	1763,30
336,13	1812,45
336,34	1722,34
336,55	1714,15
336,76	1689,57
336,98	1642,47
337,19	1671,14
337,40	1806,31
337,61	1847,27
337,82	1632,23
338,04	1755,11
338,25	1554,41
338,46	1701,86
338,67	1662,95
338,88	1714,15
339,09	1626,09
339,31	1736,68
339,52	1603,56
339,73	1660,90
339,94	1693,67
340,15	1794,02
340,36	1638,38
340,58	1753,06
340,79	1636,33
341,00	1763,30
341,21	1615,85
341,42	1765,35
341,63	1617,90
341,85	1767,40
342,06	1730,53
342,27	1560,55
342,48	1683,43
342,69	1642,47
342,90	1605,61
343,12	1757,16
343,33	1740,77
343,54	1705,96
343,75	1810,40
343,96	1730,53
344,17	1681,38
344,38	1708,01
344,60	1687,53
344,81	1687,53
345,02	1687,53
345,23	1718,25
345,44	1839,08
345,65	1748,97
345,86	1777,64
346,07	1718,25
346,29	1624,04
346,50	1695,72
346,71	1753,06
346,92	1697,77
347,13	1746,92
347,34	1658,85
347,55	1728,49
347,76	1740,77
347,98	1581,03
348,19	1671,14
348,40	1732,58
348,61	1652,71
348,82	1785,83
349,03	1789,92
349,24	1691,62
349,45	1787,88
349,66	1538,02
349,88	1652,71
350,09	1681,38
350,30	1783,78
350,51	1718,25
350,72	1685,48
350,93	1812,45
351,14	1683,43
351,35	1699,81
351,56	1687,53
351,77	1751,01
351,99	1742,82
352,20	1759,21
352,41	1755,11
352,62	1644,52
352,83	1677,29
353,04	1724,39
353,25	1683,43
353,46	1824,74
353,67	1705,96
353,88	1607,66
354,09	1679,33
354,30	1730,53
354,52	1773,54
354,73	1753,06
354,94	1662,95
355,15	1691,62
355,36	1818,60
355,57	1609,70
355,78	1775,59
355,99	1665,00
356,20	1589,22
356,41	1806,31
356,62	1607,66
356,83	1705,96
357,04	1732,58
357,25	1611,75
357,46	1689,57
357,68	1634,28
357,89	1617,90
358,10	1726,44
358,31	1718,25
358,52	1652,71
358,73	1607,66
358,94	1630,18
359,15	1734,63
359,36	1734,63
359,57	1640,42
359,78	1662,95
359,99	1769,44
360,20	1642,47
360,41	1712,10
360,62	1826,79
360,83	1746,92
361,04	1763,30
361,25	1740,77
361,46	1804,26
361,67	1730,53
361,88	1781,73
362,09	1791,97
362,30	1728,49
362,51	1689,57
362,72	1724,39
362,93	1757,16
363,14	1718,25
363,35	1728,49
363,56	1648,61
363,78	1791,97
363,99	1738,73
364,20	1642,47
364,41	1796,07
364,62	1800,16
364,83	1693,67
365,04	1650,66
365,25	1677,29
365,46	1812,45
365,67	1757,16
365,88	1646,57
366,09	1683,43
366,30	1701,86
366,51	1734,63
366,72	1611,75
366,93	1697,77
367,14	1740,77
367,35	1824,74
367,56	1753,06
367,77	1812,45
367,98	1681,38
368,18	1740,77
368,39	1705,96
368,60	1662,95
368,81	1746,92
369,02	1712,10
369,23	1675,24
369,44	1583,08
369,65	1693,67
369,86	1685,48
370,07	1736,68
370,28	1624,04
370,49	1716,20
370,70	1732,58
370,91	1679,33
371,12	1599,46
371,33	1769,44
371,54	1708,01
371,75	1869,80
371,96	1611,75
372,17	1785,83
372,38	1699,81
372,59	1777,64
372,80	1673,19
373,01	1720,29
373,22	1677,29
373,43	1587,18
373,64	1687,53
373,85	1761,25
374,06	1796,07
374,26	1767,40
374,47	1693,67
374,68	1818,60
374,89	1740,77
375,10	1701,86
375,31	1789,92
375,52	1718,25
375,73	1724,39
375,94	1632,23
376,15	1755,11
376,36	1630,18
376,57	1638,38
376,78	1671,14
376,99	1779,68
377,20	1837,03
377,40	1701,86
377,61	1796,07
377,82	1699,81
378,03	1744,87
378,24	1689,57
378,45	1718,25
378,66	1708,01
378,87	1560,55
379,08	1605,61
379,29	1632,23
379,50	1734,63
379,71	1683,43
379,91	1724,39
380,12	1730,53
380,33	1748,97
380,54	1759,21
380,75	1708,01
380,96	1658,85
381,17	1785,83
381,38	1683,43
381,59	1761,25
381,80	1693,67
382,00	1873,89
382,21	1728,49
382,42	1841,12
382,63	1880,04
382,84	1724,39
383,05	1751,01
383,26	1832,93
383,47	1681,38
383,68	1789,92
383,88	1779,68
384,09	1646,57
384,30	1822,69
384,51	1771,49
384,72	1669,09
384,93	1593,32
385,14	1714,15
385,35	1740,77
385,55	1697,77
385,76	1775,59
385,97	1738,73
386,18	1638,38
386,39	1681,38
386,60	1677,29
386,81	1630,18
387,02	1658,85
387,22	1695,72
387,43	1734,63
387,64	1804,26
387,85	1906,66
388,06	2226,14
388,27	4270,01
388,48	6719,39
388,68	8245,12
388,89	9543,53
389,10	9897,83
389,31	8361,86
389,52	7632,78
389,73	6756,25
389,93	6285,22
390,14	5926,82
390,35	5281,71
390,56	4480,96
390,77	3848,13
390,98	3082,19
391,18	2467,80
391,39	2115,55
391,60	1863,65
391,81	1875,94
392,02	1751,01
392,23	1861,60
392,43	1769,44
392,64	1787,88
392,85	1724,39
393,06	1808,36
393,27	1705,96
393,47	1634,28
393,68	1736,68
393,89	1628,14
394,10	1728,49
394,31	1640,42
394,52	1638,38
394,72	1658,85
394,93	1798,12
395,14	1648,61
395,35	1697,77
395,56	1632,23
395,76	1718,25
395,97	1800,16
396,18	1824,74
396,39	1804,26
396,60	1986,53
396,80	1890,28
397,01	1830,88
397,22	1773,54
397,43	1884,13
397,64	1724,39
397,84	1767,40
398,05	1925,09
398,26	1773,54
398,47	1841,12
398,67	1724,39
398,88	1718,25
399,09	1748,97
399,30	1630,18
399,51	1763,30
399,71	1646,57
399,92	1658,85
400,13	1769,44
400,34	1732,58
400,54	1671,14
400,75	1806,31
400,96	1755,11
401,17	1757,16
401,37	1759,21
401,58	1714,15
401,79	1697,77
402,00	1877,99
402,21	2054,11
402,41	1912,80
402,62	1947,62
402,83	2041,82
403,04	1957,86
403,24	2099,17
403,45	1867,75
403,66	1957,86
403,87	1869,80
404,07	1937,38
404,28	1894,37
404,49	1882,08
404,70	1798,12
404,90	1777,64
405,11	1830,88
405,32	1767,40
405,52	1687,53
405,73	1673,19
405,94	1656,81
406,15	1796,07
406,35	1738,73
406,56	1701,86
406,77	1763,30
406,98	1765,35
407,18	1734,63
407,39	1763,30
407,60	1640,42
407,80	1746,92
408,01	1679,33
408,22	1683,43
408,43	1671,14
408,63	1740,77
408,84	1851,36
409,05	1763,30
409,25	1570,79
409,46	1720,29
409,67	1705,96
409,88	1658,85
410,08	1679,33
410,29	1660,90
410,50	1763,30
410,70	1683,43
410,91	1665,00
411,12	1650,66
411,32	1656,81
411,53	1712,10
411,74	1773,54
411,95	1744,87
412,15	1732,58
412,36	1798,12
412,57	1726,44
412,77	1832,93
412,98	1695,72
413,19	1712,10
413,39	1730,53
413,60	1689,57
413,81	1769,44
414,01	1675,24
414,22	1753,06
414,43	1783,78
414,63	1677,29
414,84	1800,16
415,05	1742,82
415,25	1683,43
415,46	1675,24
415,67	1689,57
415,87	1718,25
416,08	1783,78
416,29	1652,71
416,49	1759,21
416,70	1648,61
416,91	1736,68
417,11	1683,43
417,32	1798,12
417,53	1765,35
417,73	1699,81
417,94	1806,31
418,15	1687,53
418,35	1728,49
418,56	1665,00
418,77	1814,50
418,97	1769,44
419,18	1685,48
419,38	1621,99
419,59	1642,47
419,80	1832,93
420,00	1654,76
420,21	1734,63
420,42	1808,36
420,62	1757,16
420,83	1617,90
421,04	1665,00
421,24	1658,85
421,45	1736,68
421,65	1740,77
421,86	1716,20
422,07	1734,63
422,27	1613,80
422,48	1744,87
422,69	1712,10
422,89	1763,30
423,10	1689,57
423,30	1589,22
423,51	1714,15
423,72	1667,05
423,92	1718,25
424,13	1683,43
424,33	1687,53
424,54	1744,87
424,75	1705,96
424,95	1873,89
425,16	1781,73
425,36	1673,19
425,57	1796,07
425,78	1765,35
425,98	1708,01
426,19	1722,34
426,39	1656,81
426,60	1695,72
426,81	1751,01
427,01	1718,25
427,22	1685,48
427,42	1665,00
427,63	1646,57
427,83	1796,07
428,04	1757,16
428,25	1800,16
428,45	1861,60
428,66	1783,78
428,86	1673,19
429,07	1724,39
429,28	1673,19
429,48	1683,43
429,69	1685,48
429,89	1742,82
430,10	1673,19
430,30	1732,58
430,51	1751,01
430,71	1640,42
430,92	1720,29
431,13	1726,44
431,33	1718,25
431,54	1757,16
431,74	1757,16
431,95	1843,17
432,15	1683,43
432,36	1636,33
432,56	1761,25
432,77	1865,70
432,98	1810,40
433,18	1681,38
433,39	1689,57
433,59	1685,48
433,80	1849,32
434,00	1900,52
434,21	1685,48
434,41	1681,38
434,62	1820,64
434,82	1689,57
435,03	1705,96
435,23	1712,10
435,44	1630,18
435,64	1734,63
435,85	1759,21
436,06	1732,58
436,26	1753,06
436,47	1705,96
436,67	1677,29
436,88	1685,48
437,08	1781,73
437,29	1802,21
437,49	1767,40
437,70	1740,77
437,90	1689,57
438,11	1777,64
438,31	1767,40
438,52	1791,97
438,72	1822,69
438,93	1898,47
439,13	1796,07
439,34	1775,59
439,54	1738,73
439,75	1839,08
439,95	1785,83
440,16	1665,00
440,36	1701,86
440,57	1820,64
440,77	1765,35
440,98	1744,87
441,18	1769,44
441,39	1654,76
441,59	1697,77
441,80	1929,19
442,00	1669,09
442,21	1751,01
442,41	1595,37
442,62	1832,93
442,82	1681,38
443,02	1714,15
443,23	1744,87
443,43	1722,34
443,64	1798,12
443,84	1691,62
444,05	1837,03
444,25	1775,59
444,46	1677,29
444,66	1693,67
444,87	1875,94
445,07	1660,90
445,28	1734,63
445,48	1814,50
445,69	1826,79
445,89	1859,56
446,09	1714,15
446,30	1943,52
446,50	2803,67
446,71	3729,35
446,91	4237,25
447,12	4716,47
447,32	4896,69
447,53	4212,67
447,73	3948,48
447,93	3598,28
448,14	3319,76
448,34	3184,59
448,55	2869,20
448,75	2795,48
448,96	2629,59
449,16	2406,36
449,36	2267,10
449,57	2076,64
449,77	1896,42
449,98	1759,21
450,18	1847,27
450,39	1796,07
450,59	1773,54
450,79	1773,54
451,00	1685,48
451,20	1761,25
451,41	1732,58
451,61	1730,53
451,81	1851,36
452,02	1722,34
452,22	1697,77
452,43	1673,19
452,63	1687,53
452,84	1742,82
453,04	1658,85
453,24	1804,26
453,45	1658,85
453,65	1781,73
453,86	1765,35
454,06	1783,78
454,26	1755,11
454,47	1693,67
454,67	1804,26
454,87	1732,58
455,08	1685,48
455,28	1888,23
455,49	1691,62
455,69	1726,44
455,89	1873,89
456,10	1802,21
456,30	1671,14
456,51	1767,40
456,71	1665,00
456,91	1781,73
457,12	1748,97
457,32	1767,40
457,52	1642,47
457,73	1718,25
457,93	1746,92
458,14	1693,67
458,34	1650,66
458,54	1755,11
458,75	1701,86
458,95	1785,83
459,15	1802,21
459,36	1718,25
459,56	1777,64
459,76	1847,27
459,97	1806,31
460,17	1695,72
460,37	1773,54
460,58	1837,03
460,78	1822,69
460,99	1624,04
461,19	1628,14
461,39	1699,81
461,60	1789,92
461,80	1693,67
462,00	1710,05
462,21	1687,53
462,41	1673,19
462,61	1710,05
462,82	1613,80
463,02	1755,11
463,22	1724,39
463,43	1818,60
463,63	1716,20
463,83	1822,69
464,04	1724,39
464,24	1783,78
464,44	1673,19
464,64	1753,06
464,85	1697,77
465,05	1738,73
465,25	1730,53
465,46	1677,29
465,66	1726,44
465,86	1783,78
466,07	1744,87
466,27	1722,34
466,47	1667,05
466,68	1613,80
466,88	1849,32
467,08	1857,51
467,29	1763,30
467,49	1665,00
467,69	1742,82
467,89	1716,20
468,10	1689,57
468,30	1720,29
468,50	1796,07
468,71	1761,25
468,91	1675,24
469,11	1818,60
469,31	1714,15
469,52	1685,48
469,72	1789,92
469,92	1841,12
470,13	1748,97
470,33	1794,02
470,53	1818,60
470,73	2084,83
470,94	2277,34
471,14	2342,88
471,34	2525,15
471,54	2351,07
471,75	2248,67
471,95	2164,70
472,15	2007,01
472,36	2017,25
472,56	2117,60
472,76	1986,53
472,96	2047,97
473,17	1912,80
473,37	1869,80
473,57	1765,35
473,77	1757,16
473,98	1722,34
474,18	1773,54
474,38	1798,12
474,58	1712,10
474,79	1689,57
474,99	1697,77
475,19	1771,49
475,39	1650,66
475,60	1777,64
475,80	1726,44
476,00	1714,15
476,20	1763,30
476,41	1767,40
476,61	1748,97
476,81	1810,40
477,01	1648,61
477,21	1839,08
477,42	1806,31
477,62	1603,56
477,82	1742,82
478,02	1744,87
478,23	1738,73
478,43	1761,25
478,63	1724,39
478,83	1806,31
479,03	1644,52
479,24	1816,55
479,44	1830,88
479,64	1626,09
479,84	1589,22
480,04	1677,29
480,25	1716,20
480,45	1705,96
480,65	1687,53
480,85	1828,84
481,06	1683,43
481,26	1697,77
481,46	1759,21
481,66	1757,16
481,86	1763,30
482,06	1740,77
482,27	1744,87
482,47	1599,46
482,67	1716,20
482,87	1681,38
483,07	1849,32
483,28	1710,05
483,48	1652,71
483,68	1769,44
483,88	1671,14
484,08	1617,90
484,29	1640,42
484,49	1759,21
484,69	1654,76
484,89	1828,84
485,09	1785,83
485,29	1761,25
485,50	1742,82
485,70	1730,53
485,90	1773,54
486,10	1763,30
486,30	1742,82
486,50	1773,54
486,71	1771,49
486,91	1798,12
487,11	1798,12
487,31	1636,33
487,51	1796,07
487,71	1710,05
487,91	1552,36
488,12	1665,00
488,32	1607,66
488,52	1716,20
488,72	1662,95
488,92	1648,61
489,12	1724,39
489,32	1763,30
489,53	1783,78
489,73	1587,18
489,93	1818,60
490,13	1662,95
490,33	1693,67
490,53	1796,07
490,73	1716,20
490,94	1652,71
491,14	1730,53
491,34	1800,16
491,54	2084,83
491,74	2570,20
491,94	2899,92
492,14	3086,29
492,34	2916,31
492,54	2760,66
492,75	2508,76
492,95	2467,80
493,15	2285,53
493,35	2346,97
493,55	2236,38
493,75	2086,88
493,95	2164,70
494,15	2037,73
494,35	1816,55
494,56	1859,56
494,76	1806,31
494,96	1796,07
495,16	1732,58
495,36	1728,49
495,56	1757,16
495,76	1746,92
495,96	1650,66
496,16	1669,09
496,36	1869,80
496,56	1730,53
496,77	1740,77
496,97	1710,05
497,17	1812,45
497,37	1656,81
497,57	1714,15
497,77	1714,15
497,97	1611,75
498,17	1703,91
498,37	1675,24
498,57	1826,79
498,77	1716,20
498,97	1730,53
499,17	1824,74
499,38	1683,43
499,58	1714,15
499,78	1757,16
499,98	1796,07
500,18	1714,15
500,38	1626,09
500,58	1894,37
500,78	2514,91
500,98	4546,49
501,18	5861,29
501,38	6735,77
501,58	7083,92
501,78	6688,67
501,98	5441,45
502,18	4931,51
502,38	4417,47
502,58	4171,71
502,78	3747,78
502,98	3688,39
503,18	3426,25
503,38	3102,67
503,59	2795,48
503,79	2668,50
503,99	2527,19
504,19	2287,58
504,39	2248,67
504,59	2129,89
504,79	2156,51
504,99	2058,21
505,19	1865,70
505,39	1933,28
505,59	2013,15
505,79	1873,89
505,99	1822,69
506,19	1779,68
506,39	1853,41
506,59	1714,15
506,79	1730,53
506,99	1783,78
507,19	1740,77
507,39	1761,25
507,59	1597,42
507,79	1683,43
507,99	1773,54
508,19	1775,59
508,39	1722,34
508,59	1755,11
508,79	1806,31
508,99	1880,04
509,19	1687,53
509,39	1763,30
509,59	1746,92
509,79	1675,24
509,99	1816,55
510,19	1783,78
510,39	1714,15
510,59	1757,16
510,79	1697,77
510,99	1662,95
511,19	1701,86
511,39	1886,18
511,59	1763,30
511,79	1785,83
511,99	1712,10
512,19	1798,12
512,38	1771,49
512,58	1658,85
512,78	1665,00
512,98	1769,44
513,18	1816,55
513,38	1665,00
513,58	1798,12
513,78	1685,48
513,98	1820,64
514,18	1761,25
514,38	1613,80
514,58	1673,19
514,78	1732,58
514,98	1753,06
515,18	1617,90
515,38	1607,66
515,58	1896,42
515,78	1710,05
515,98	1726,44
516,18	1710,05
516,38	1740,77
516,57	1685,48
516,77	1722,34
516,97	1779,68
517,17	1720,29
517,37	1583,08
517,57	1855,46
517,77	1660,90
517,97	1748,97
518,17	1753,06
518,37	1712,10
518,57	1691,62
518,77	1708,01
518,97	1650,66
519,16	1787,88
519,36	1767,40
519,56	1765,35
519,76	1730,53
519,96	1738,73
520,16	1703,91
520,36	1673,19
520,56	1802,21
520,76	1665,00
520,96	1667,05
521,16	1824,74
521,35	1832,93
521,55	1837,03
521,75	1722,34
521,95	1665,00
522,15	1794,02
522,35	1650,66
522,55	1714,15
522,75	1814,50
522,95	1671,14
523,14	1728,49
523,34	1714,15
523,54	1638,38
523,74	1781,73
523,94	1746,92
524,14	1683,43
524,34	1791,97
524,54	1771,49
524,73	1728,49
524,93	1804,26
525,13	1787,88
525,33	1642,47
525,53	1810,40
525,73	1751,01
525,93	1697,77
526,13	1722,34
526,32	1738,73
526,52	1763,30
526,72	1812,45
526,92	1714,15
527,12	1656,81
527,32	1689,57
527,52	1753,06
527,71	1837,03
527,91	1728,49
528,11	1671,14
528,31	1689,57
528,51	1638,38
528,71	1751,01
528,90	1779,68
529,10	1796,07
529,30	1730,53
529,50	1677,29
529,70	1681,38
529,90	1757,16
530,09	1746,92
530,29	1632,23
530,49	1642,47
530,69	1888,23
530,89	1796,07
531,09	1746,92
531,28	1742,82
531,48	1843,17
531,68	1785,83
531,88	1816,55
532,08	1767,40
532,28	1662,95
532,47	1845,22
532,67	1794,02
532,87	1738,73
533,07	1667,05
533,27	1826,79
533,46	1779,68
533,66	1748,97
533,86	1816,55
534,06	1687,53
534,26	1839,08
534,45	1669,09
534,65	1804,26
534,85	1685,48
535,05	1636,33
535,25	1810,40
535,44	1728,49
535,64	1775,59
535,84	1740,77
536,04	1753,06
536,24	1701,86
536,43	1628,14
536,63	1783,78
536,83	1710,05
537,03	1763,30
537,22	1609,70
537,42	1632,23
537,62	1648,61
537,82	1734,63
538,02	1812,45
538,21	1824,74
538,41	1859,56
538,61	1759,21
538,81	1744,87
539,00	1843,17
539,20	1613,80
539,40	1705,96
539,60	1705,96
539,79	1710,05
539,99	1683,43
540,19	1718,25
540,39	1687,53
540,58	1718,25
540,78	1816,55
540,98	1703,91
541,18	1769,44
541,37	1781,73
541,57	1755,11
541,77	1738,73
541,97	1685,48
542,16	1611,75
542,36	1710,05
542,56	1787,88
542,76	1841,12
542,95	1740,77
543,15	1791,97
543,35	1742,82
543,54	1673,19
543,74	1689,57
543,94	1810,40
544,14	1773,54
544,33	1748,97
544,53	1720,29
544,73	1671,14
544,93	1701,86
545,12	1665,00
545,32	1699,81
545,52	1722,34
545,71	1650,66
545,91	1652,71
546,11	1662,95
546,30	1720,29
546,50	1777,64
546,70	1761,25
546,90	1714,15
547,09	1701,86
547,29	1724,39
547,49	1783,78
547,68	1718,25
547,88	1716,20
548,08	1779,68
548,27	2103,26
548,47	1714,15
548,67	1689,57
548,87	1767,40
549,06	1824,74
549,26	1740,77
549,46	1814,50
549,65	1683,43
549,85	1726,44
550,05	1708,01
550,24	1705,96
550,44	1804,26
550,64	1675,24
550,83	1716,20
551,03	1832,93
551,23	1771,49
551,42	1730,53
551,62	1773,54
551,82	1800,16
552,01	1746,92
552,21	1781,73
552,41	1779,68
552,60	1859,56
552,80	1724,39
553,00	1765,35
553,19	1689,57
553,39	1806,31
553,59	1677,29
553,78	1779,68
553,98	1789,92
554,17	1746,92
554,37	1798,12
554,57	1804,26
554,76	1658,85
554,96	1783,78
555,16	1716,20
555,35	1621,99
555,55	1787,88
555,75	1828,84
555,94	1826,79
556,14	1636,33
556,33	1839,08
556,53	1689,57
556,73	1746,92
556,92	1796,07
557,12	1767,40
557,32	1863,65
557,51	1812,45
557,71	1714,15
557,90	1820,64
558,10	1865,70
558,30	1685,48
558,49	1693,67
558,69	1794,02
558,88	1759,21
559,08	1730,53
559,28	1763,30
559,47	1728,49
559,67	1802,21
559,86	1886,18
560,06	1726,44
560,26	1695,72
560,45	1734,63
560,65	1648,61
560,84	1837,03
561,04	1705,96
561,24	1806,31
561,43	1591,27
561,63	1818,60
561,82	1757,16
562,02	1732,58
562,22	1761,25
562,41	1615,85
562,61	1767,40
562,80	1712,10
563,00	1902,56
563,19	1710,05
563,39	1722,34
563,59	1738,73
563,78	1722,34
563,98	1751,01
564,17	1775,59
564,37	1644,52
564,56	1716,20
564,76	1662,95
564,96	1761,25
565,15	1736,68
565,35	1814,50
565,54	1689,57
565,74	1779,68
565,93	1773,54
566,13	1708,01
566,32	1693,67
566,52	1771,49
566,71	1773,54
566,91	1712,10
567,11	1759,21
567,30	1726,44
567,50	1779,68
567,69	1761,25
567,89	1753,06
568,08	1638,38
568,28	1681,38
568,47	1665,00
568,67	1755,11
568,86	1746,92
569,06	1716,20
569,25	1714,15
569,45	1693,67
569,64	1751,01
569,84	1695,72
570,04	1796,07
570,23	1736,68
570,43	1767,40
570,62	1691,62
570,82	1828,84
571,01	1609,70
571,21	1665,00
571,40	1675,24
571,60	1775,59
571,79	1744,87
571,99	1671,14
572,18	1693,67
572,38	1732,58
572,57	1689,57
572,77	1757,16
572,96	1898,47
573,16	1796,07
573,35	1734,63
573,55	1763,30
573,74	1724,39
573,94	1683,43
574,13	1738,73
574,33	1873,89
574,52	1812,45
574,71	1695,72
574,91	1796,07
575,10	1738,73
575,30	1654,76
575,49	1685,48
575,69	1656,81
575,88	1771,49
576,08	1701,86
576,27	1828,84
576,47	1722,34
576,66	1871,84
576,86	1794,02
577,05	1740,77
577,25	1796,07
577,44	1931,23
577,64	1736,68
577,83	1763,30
578,02	1785,83
578,22	1759,21
578,41	1769,44
578,61	1755,11
578,80	1691,62
579,00	1740,77
579,19	1683,43
579,39	1787,88
579,58	1824,74
579,77	1740,77
579,97	1853,41
580,16	1820,64
580,36	1820,64
580,55	1898,47
580,75	1810,40
580,94	1722,34
581,13	1877,99
581,33	1843,17
581,52	1751,01
581,72	1837,03
581,91	1837,03
582,11	1722,34
582,30	1791,97
582,49	1771,49
582,69	1890,28
582,88	1769,44
583,08	1818,60
583,27	1859,56
583,47	1769,44
583,66	1642,47
583,85	1697,77
584,05	1636,33
584,24	1675,24
584,44	1759,21
584,63	1814,50
584,82	1779,68
585,02	1814,50
585,21	1837,03
585,41	1767,40
585,60	1767,40
585,79	1857,51
585,99	1847,27
586,18	1877,99
586,37	2146,27
586,57	3350,48
586,76	9883,50
586,96	24073,87
587,15	34262,52
587,34	40531,35
587,54	42163,58
587,73	36558,29
587,93	26369,65
588,12	21577,40
588,31	18231,02
588,51	16279,30
588,70	15005,47
588,89	14079,79
589,09	12345,16
589,28	10973,02
589,47	9394,03
589,67	7894,92
589,86	6412,19
590,06	4904,89
590,25	3917,76
590,44	3098,58
590,64	2605,02
590,83	2281,44
591,02	2050,02
591,22	1916,90
591,41	1937,38
591,60	1783,78
591,80	1927,14
591,99	1755,11
592,18	1824,74
592,38	1802,21
592,57	1732,58
592,76	1808,36
592,96	1755,11
593,15	1732,58
593,34	1841,12
593,54	1740,77
593,73	1759,21
593,92	1794,02
594,12	1771,49
594,31	1796,07
594,50	1722,34
594,70	1806,31
594,89	1918,95
595,08	1675,24
595,28	1804,26
595,47	1892,32
595,66	1814,50
595,86	1679,33
596,05	1685,48
596,24	1773,54
596,43	1855,46
596,63	1771,49
596,82	1705,96
597,01	1773,54
597,21	1863,65
597,40	1718,25
597,59	1740,77
597,79	1796,07
597,98	1796,07
598,17	1675,24
598,36	1693,67
598,56	1751,01
598,75	1789,92
598,94	1757,16
599,14	1777,64
599,33	1701,86
599,52	1808,36
599,71	1783,78
599,91	1837,03
600,10	1761,25
600,29	1771,49
600,48	1742,82
600,68	1751,01
600,87	1718,25
601,06	1669,09
601,26	1767,40
601,45	1669,09
601,64	1738,73
601,83	1828,84
602,03	1652,71
602,22	1660,90
602,41	1830,88
602,60	1785,83
602,80	1810,40
602,99	1724,39
603,18	1744,87
603,37	1822,69
603,57	1703,91
603,76	1841,12
603,95	1802,21
604,14	1597,42
604,34	1710,05
604,53	1724,39
604,72	1730,53
604,91	1880,04
605,10	1783,78
605,30	1691,62
605,49	1847,27
605,68	1736,68
605,87	1755,11
606,07	1685,48
606,26	1724,39
606,45	1691,62
606,64	1771,49
606,84	1732,58
607,03	1748,97
607,22	1751,01
607,41	1654,76
607,60	1695,72
607,80	1830,88
607,99	1728,49
608,18	1746,92
608,37	1740,77
608,56	1712,10
608,76	1804,26
608,95	1820,64
609,14	1751,01
609,33	1718,25
609,52	1751,01
609,72	1757,16
609,91	1791,97
610,10	1763,30
610,29	1777,64
610,48	1808,36
610,68	1757,16
610,87	1699,81
611,06	1755,11
611,25	1746,92
611,44	1796,07
611,63	1824,74
611,83	1771,49
612,02	1720,29
612,21	1781,73
612,40	1626,09
612,59	1636,33
612,79	1652,71
612,98	1718,25
613,17	1841,12
613,36	1691,62
613,55	1753,06
613,74	1687,53
613,93	1753,06
614,13	1738,73
614,32	1761,25
614,51	1820,64
614,70	1732,58
614,89	1685,48
615,08	1720,29
615,28	2131,94
615,47	1632,23
615,66	1777,64
615,85	1730,53
616,04	1800,16
616,23	1658,85
616,42	1703,91
616,62	1763,30
616,81	1722,34
617,00	1720,29
617,19	1738,73
617,38	1701,86
617,57	1789,92
617,76	1816,55
617,95	1779,68
618,15	1802,21
618,34	1839,08
618,53	1626,09
618,72	1783,78
618,91	1761,25
619,10	1771,49
619,29	1705,96
619,48	1736,68
619,68	1710,05
619,87	1726,44
620,06	1695,72
620,25	1759,21
620,44	1734,63
620,63	1746,92
620,82	1759,21
621,01	1779,68
621,20	1734,63
621,39	1697,77
621,59	1683,43
621,78	1728,49
621,97	1705,96
622,16	1740,77
622,35	1701,86
622,54	1771,49
622,73	1767,40
622,92	1650,66
623,11	1775,59
623,30	1742,82
623,49	1871,84
623,68	1617,90
623,88	1769,44
624,07	1703,91
624,26	1761,25
624,45	1769,44
624,64	1665,00
624,83	1691,62
625,02	1736,68
625,21	1677,29
625,40	1732,58
625,59	1775,59
625,78	1787,88
625,97	1767,40
626,16	1810,40
626,35	1695,72
626,54	1742,82
626,74	1771,49
626,93	1669,09
627,12	1744,87
627,31	1746,92
627,50	1724,39
627,69	1804,26
627,88	1667,05
628,07	1673,19
628,26	1705,96
628,45	1673,19
628,64	1757,16
628,83	1738,73
629,02	1621,99
629,21	1755,11
629,40	1796,07
629,59	1687,53
629,78	1634,28
629,97	1804,26
630,16	1726,44
630,35	1746,92
630,54	1710,05
630,73	1718,25
630,92	1779,68
631,11	1695,72
631,30	1714,15
631,49	1744,87
631,68	1763,30
631,87	1734,63
632,06	1658,85
632,25	1871,84
632,44	1742,82
632,63	1656,81
632,82	1732,58
633,01	1585,13
633,20	1806,31
633,39	1595,37
633,58	1611,75
633,77	1695,72
633,96	1847,27
634,15	1738,73
634,34	1773,54
634,53	1695,72
634,72	1667,05
634,91	1583,08
635,10	1771,49
635,29	1765,35
635,48	1703,91
635,67	1654,76
635,86	1615,85
636,05	1740,77
636,24	1675,24
636,43	1796,07
636,62	1724,39
636,81	1599,46
637,00	1787,88
637,19	1728,49
637,38	1652,71
637,57	1662,95
637,76	1771,49
637,95	1730,53
638,14	1658,85
638,33	1644,52
638,52	1718,25
638,71	1671,14
638,89	1687,53
639,08	1839,08
639,27	1828,84
639,46	1701,86
639,65	1705,96
639,84	1755,11
640,03	1818,60
640,22	1726,44
640,41	1796,07
640,60	1656,81
640,79	1722,34
640,98	1689,57
641,17	1742,82
641,36	1716,20
641,55	1800,16
641,74	1607,66
641,92	1593,32
642,11	1599,46
642,30	1619,94
642,49	1695,72
642,68	1667,05
642,87	1748,97
643,06	1740,77
643,25	1748,97
643,44	1675,24
643,63	1656,81
643,82	1730,53
644,00	1730,53
644,19	1753,06
644,38	1615,85
644,57	1755,11
644,76	1679,33
644,95	1671,14
645,14	1665,00
645,33	1800,16
645,52	1683,43
645,71	1652,71
645,89	1656,81
646,08	1671,14
646,27	1773,54
646,46	1757,16
646,65	1630,18
646,84	1708,01
647,03	1665,00
647,22	1804,26
647,40	1677,29
647,59	1746,92
647,78	1640,42
647,97	1691,62
648,16	1710,05
648,35	1892,32
648,54	1693,67
648,73	1669,09
648,91	1755,11
649,10	1697,77
649,29	1708,01
649,48	1716,20
649,67	1724,39
649,86	1708,01
650,05	1691,62
650,23	1724,39
650,42	1640,42
650,61	1730,53
650,80	1746,92
650,99	1869,80
651,18	1775,59
651,36	1820,64
651,55	1714,15
651,74	1718,25
651,93	1722,34
652,12	1742,82
652,31	1677,29
652,49	1787,88
652,68	1673,19
652,87	1744,87
653,06	1687,53
653,25	1816,55
653,44	1691,62
653,62	1812,45
653,81	1710,05
654,00	1665,00
654,19	1734,63
654,38	1777,64
654,56	1720,29
654,75	1652,71
654,94	1822,69
655,13	1683,43
655,32	1710,05
655,51	1769,44
655,69	1755,11
655,88	1789,92
656,07	1685,48
656,26	1789,92
656,45	1673,19
656,63	1740,77
656,82	1783,78
657,01	1734,63
657,20	1685,48
657,38	1685,48
657,57	1693,67
657,76	1617,90
657,95	1806,31
658,14	1714,15
658,32	1683,43
658,51	1611,75
658,70	1730,53
658,89	1738,73
659,08	1714,15
659,26	1804,26
659,45	1675,24
659,64	1751,01
659,83	1560,55
660,01	1933,28
660,20	1734,63
660,39	1767,40
660,58	1583,08
660,76	1677,29
660,95	1638,38
661,14	1724,39
661,33	1677,29
661,51	1730,53
661,70	1703,91
661,89	1736,68
662,08	1708,01
662,26	1687,53
662,45	1648,61
662,64	1812,45
662,83	1742,82
663,01	1677,29
663,20	1671,14
663,39	1761,25
663,58	1734,63
663,76	1658,85
663,95	1728,49
664,14	1648,61
664,32	1701,86
664,51	1648,61
664,70	1603,56
664,89	1773,54
665,07	1695,72
665,26	1812,45
665,45	1693,67
665,64	1763,30
665,82	1716,20
666,01	1722,34
666,20	1681,38
666,38	1824,74
666,57	1826,79
666,76	2176,99
666,95	4612,03
667,13	10194,79
667,32	15333,14
667,51	17905,39
667,69	19033,82
667,88	17622,77
668,07	12162,89
668,25	9357,17
668,44	8187,78
668,63	7323,54
668,81	6956,95
669,00	6236,06
669,19	5734,31
669,38	5074,87
669,56	4519,87
669,75	4024,26
669,94	3454,92
670,12	2750,42
670,31	2510,81
670,50	2193,37
670,68	2072,54
670,87	1882,08
671,06	1841,12
671,24	1789,92
671,43	1839,08
671,62	1681,38
671,80	1736,68
671,99	1763,30
672,18	1753,06
672,36	1697,77
672,55	1640,42
672,74	1658,85
672,92	1710,05
673,11	1757,16
673,29	1648,61
673,48	1779,68
673,67	1679,33
673,85	1742,82
674,04	1708,01
674,23	1722,34
674,41	1804,26
674,60	1613,80
674,79	1638,38
674,97	1714,15
675,16	1746,92
675,34	1746,92
675,53	1617,90
675,72	1693,67
675,90	1800,16
676,09	1738,73
676,28	1697,77
676,46	1687,53
676,65	1675,24
676,83	1636,33
677,02	1703,91
677,21	1738,73
677,39	1689,57
677,58	1648,61
677,77	1656,81
677,95	1662,95
678,14	1738,73
678,32	1697,77
678,51	1662,95
678,70	1796,07
678,88	1693,67
679,07	1773,54
679,25	1699,81
679,44	1771,49
679,63	1671,14
679,81	1732,58
680,00	1746,92
680,18	1773,54
680,37	1796,07
680,55	1679,33
680,74	1581,03
680,93	1576,94
681,11	1656,81
681,30	1652,71
681,48	1710,05
681,67	1742,82
681,85	1820,64
682,04	1708,01
682,23	1742,82
682,41	1779,68
682,60	1734,63
682,78	1742,82
682,97	1755,11
683,15	1685,48
683,34	1718,25
683,53	1832,93
683,71	1642,47
683,90	1806,31
684,08	1806,31
684,27	1705,96
684,45	1718,25
684,64	1830,88
684,82	1689,57
685,01	1722,34
685,19	1656,81
685,38	1771,49
685,57	1689,57
685,75	1683,43
685,94	1691,62
686,12	1648,61
686,31	1560,55
686,49	1841,12
686,68	1683,43
686,86	1751,01
687,05	1689,57
687,23	1843,17
687,42	1640,42
687,60	1550,31
687,79	1769,44
687,97	1847,27
688,16	1806,31
688,34	1787,88
688,53	1619,94
688,71	1738,73
688,90	1677,29
689,08	1705,96
689,27	1611,75
689,45	1755,11
689,64	1695,72
689,82	1761,25
690,01	1683,43
690,19	1693,67
690,38	1771,49
690,56	1734,63
690,75	1624,04
690,93	1656,81
691,12	1644,52
691,30	1732,58
691,49	1656,81
691,67	1746,92
691,86	1837,03
692,04	1656,81
692,23	1662,95
692,41	1628,14
692,60	1818,60
692,78	1779,68
692,97	1703,91
693,15	1773,54
693,34	1849,32
693,52	1726,44
693,71	1685,48
693,89	1671,14
694,08	1632,23
694,26	1787,88
694,44	1773,54
694,63	1757,16
694,81	1675,24
695,00	1654,76
695,18	1802,21
695,37	1789,92
695,55	1697,77
695,74	1804,26
695,92	1673,19
696,10	1787,88
696,29	1652,71
696,47	1679,33
696,66	1665,00
696,84	1732,58
697,03	1740,77
697,21	1804,26
697,40	2273,25
697,58	1820,64
697,76	1693,67
697,95	1726,44
698,13	1679,33
698,32	1650,66
698,50	1732,58
698,68	1687,53
698,87	1695,72
699,05	1812,45
699,24	1689,57
699,42	1726,44
699,61	1656,81
699,79	1789,92
699,97	1699,81
700,16	1648,61
700,34	1726,44
700,53	1660,90
700,71	1658,85
700,89	1755,11
701,08	1701,86
701,26	1740,77
701,45	2176,99
701,63	1712,10
701,81	1665,00
702,00	1740,77
702,18	1669,09
702,37	1644,52
702,55	1726,44
702,73	1665,00
702,92	1630,18
703,10	1796,07
703,28	1742,82
703,47	1699,81
703,65	1841,12
703,84	1730,53
704,02	1767,40
704,20	1800,16
704,39	1658,85
704,57	1677,29
704,75	1746,92
704,94	1757,16
705,12	1710,05
705,30	1826,79
705,49	2222,05
705,67	4458,43
705,86	9277,30
706,04	12564,29
706,22	14591,78
706,41	15550,23
706,59	13506,35
706,77	9576,30
706,96	7366,54
707,14	6623,13
707,32	6000,55
707,51	5519,28
707,69	4931,51
707,87	4229,06
708,06	3594,19
708,24	2947,03
708,42	2500,57
708,61	2279,39
708,79	1937,38
708,97	1890,28
709,16	1843,17
709,34	1703,91
709,52	1740,77
709,71	1685,48
709,89	1736,68
710,07	1740,77
710,26	1683,43
710,44	1736,68
710,62	1771,49
710,80	1689,57
710,99	1742,82
711,17	1759,21
711,35	1705,96
711,54	1718,25
711,72	1724,39
711,90	1681,38
712,09	1738,73
712,27	1783,78
712,45	1746,92
712,63	1687,53
712,82	1730,53
713,00	1701,86
713,18	1726,44
713,37	1814,50
713,55	1716,20
713,73	1751,01
713,91	1691,62
714,10	1718,25
714,28	1761,25
714,46	1779,68
714,65	1705,96
714,83	1689,57
715,01	1691,62
715,19	1646,57
715,38	1611,75
715,56	1722,34
715,74	1695,72
715,92	1630,18
716,11	1705,96
716,29	1665,00
716,47	1624,04
716,65	1648,61
716,84	1644,52
717,02	1751,01
717,20	1681,38
717,38	1673,19
717,57	1687,53
717,75	1691,62
717,93	1648,61
718,11	1730,53
718,30	1619,94
718,48	1736,68
718,66	1773,54
718,84	1675,24
719,03	1675,24
719,21	1660,90
719,39	1777,64
719,57	1703,91
719,75	1843,17
719,94	1685,48
720,12	1662,95
720,30	1714,15
720,48	1722,34
720,67	1658,85
720,85	1619,94
721,03	1697,77
721,21	1656,81
721,39	1761,25
721,58	1724,39
721,76	1675,24
721,94	1753,06
722,12	1695,72
722,30	1869,80
722,49	1628,14
722,67	1730,53
722,85	1732,58
723,03	1607,66
723,21	1708,01
723,40	1726,44
723,58	1789,92
723,76	1777,64
723,94	1783,78
724,12	1740,77
724,30	1714,15
724,49	1855,46
724,67	1665,00
724,85	1849,32
725,03	1656,81
725,21	1656,81
725,40	1732,58
725,58	1681,38
725,76	1759,21
725,94	1738,73
726,12	1652,71
726,30	1796,07
726,49	1710,05
726,67	1714,15
726,85	1718,25
727,03	1755,11
727,21	2119,65
727,39	2983,89
727,57	3762,12
727,76	4134,85
727,94	4403,13
728,12	4294,59
728,30	3751,88
728,48	2938,84
728,66	2705,37
728,84	2572,25
729,03	2365,40
729,21	2166,75
729,39	1990,63
729,57	1849,32
729,75	1777,64
729,93	1779,68
730,11	1732,58
730,30	1726,44
730,48	1626,09
730,66	1796,07
730,84	1765,35
731,02	1632,23
731,20	1710,05
731,38	1726,44
731,56	1677,29
731,74	1685,48
731,93	1689,57
732,11	1665,00
732,29	1705,96
732,47	1705,96
732,65	1716,20
732,83	1773,54
733,01	1732,58
733,19	1693,67
733,37	1705,96
733,56	1615,85
733,74	1675,24
733,92	1800,16
734,10	1703,91
734,28	1675,24
734,46	1642,47
734,64	1685,48
734,82	1697,77
735,00	1662,95
735,18	1658,85
735,36	1771,49
735,54	1820,64
735,73	1714,15
735,91	1789,92
736,09	1732,58
736,27	1650,66
736,45	1701,86
736,63	1662,95
736,81	1652,71
736,99	1734,63
737,17	1705,96
737,35	1632,23
737,53	1732,58
737,71	1716,20
737,89	1732,58
738,07	1724,39
738,25	1648,61
738,43	1679,33
738,61	1656,81
738,80	1683,43
738,98	1714,15
739,16	1703,91
739,34	1607,66
739,52	1783,78
739,70	1632,23
739,88	1796,07
740,06	1767,40
740,24	1607,66
740,42	1759,21
740,60	1521,64
740,78	1667,05
740,96	1685,48
741,14	1624,04
741,32	1615,85
741,50	1572,84
741,68	1845,22
741,86	1697,77
742,04	1638,38
742,22	1568,74
742,40	1712,10
742,58	1693,67
742,76	1685,48
742,94	1742,82
743,12	1658,85
743,30	1771,49
743,48	1763,30
743,66	1644,52
743,84	1693,67
744,02	1626,09
744,20	1726,44
744,38	1601,51
744,56	1683,43
744,74	1796,07
744,92	1703,91
745,10	1765,35
745,28	1771,49
745,46	1787,88
745,64	1626,09
745,82	1714,15
746,00	1718,25
746,18	1775,59
746,36	1656,81
746,54	1677,29
746,72	1673,19
746,90	1660,90
747,08	1808,36
747,26	1726,44
747,44	1753,06
747,62	1740,77
747,80	1773,54
747,98	1761,25
748,15	1699,81
748,33	1755,11
748,51	1687,53
748,69	1744,87
748,87	1667,05
749,05	1697,77
749,23	1675,24
749,41	1755,11
749,59	1730,53
749,77	1769,44
749,95	1658,85
750,13	1640,42
750,31	1662,95
750,49	1736,68
750,67	1761,25
750,85	1789,92
751,03	1744,87
751,20	1794,02
751,38	1716,20
751,56	1736,68
751,74	1730,53
751,92	1683,43
752,10	1685,48
752,28	1832,93
752,46	1685,48
752,64	1654,76
752,82	1689,57
753,00	1789,92
753,18	1662,95
753,35	1636,33
753,53	1701,86
753,71	1724,39
753,89	1724,39
754,07	1626,09
754,25	1746,92
754,43	1685,48
754,61	1712,10
754,79	1703,91
754,97	1703,91
755,14	1806,31
755,32	1683,43
755,50	1724,39
755,68	1724,39
755,86	1673,19
756,04	1587,18
756,22	1630,18
756,40	1738,73
756,57	1843,17
756,75	1634,28
756,93	1742,82
757,11	1787,88
757,29	1712,10
757,47	1603,56
757,65	1548,26
757,82	1667,05
758,00	1648,61
758,18	1677,29
758,36	1677,29
758,54	1751,01
758,72	1621,99
758,90	1730,53
759,07	1763,30
759,25	1591,27
759,43	1636,33
759,61	1763,30
759,79	2213,85
759,97	1755,11
760,15	1697,77
760,32	1669,09
760,50	1679,33
760,68	1804,26
760,86	1583,08
761,04	1769,44
761,22	1751,01
761,39	1757,16
761,57	1830,88
761,75	1671,14
761,93	1781,73
762,11	1654,76
762,28	1646,57
762,46	1650,66
762,64	1701,86
762,82	1632,23
763,00	1658,85
763,18	1812,45
763,35	1683,43
763,53	1767,40
763,71	1724,39
763,89	1740,77
764,07	1718,25
764,24	1656,81
764,42	1644,52
764,60	1654,76
764,78	1710,05
764,96	1751,01
765,13	1736,68
765,31	1767,40
765,49	1740,77
765,67	1632,23
765,84	1730,53
766,02	1687,53
766,20	1599,46
766,38	1673,19
766,56	1730,53
766,73	1753,06
766,91	1691,62
767,09	1665,00
767,27	1826,79
767,44	1619,94
767,62	1701,86
767,80	1748,97
767,98	1671,14
768,15	1746,92
768,33	1630,18
768,51	1812,45
768,69	1673,19
768,87	1751,01
769,04	1695,72
769,22	1779,68
769,40	1736,68
769,58	1785,83
769,75	1640,42
769,93	1728,49
770,11	1779,68
770,28	1691,62
770,46	1705,96
770,64	1736,68
770,82	1656,81
770,99	1677,29
771,17	1773,54
771,35	1720,29
771,53	1708,01
771,70	1662,95
771,88	1740,77
772,06	1654,76
772,23	1654,76
772,41	1816,55
772,59	1724,39
772,77	1591,27
772,94	1724,39
773,12	1746,92
773,30	1705,96
773,47	1765,35
773,65	1699,81
773,83	1787,88
774,01	1662,95
774,18	1593,32
774,36	1695,72
774,54	1652,71
774,71	1708,01
774,89	1576,94
775,07	1603,56
775,24	1673,19
775,42	1585,13
775,60	1834,98
775,78	1710,05
775,95	1650,66
776,13	1660,90
776,31	1607,66
776,48	1693,67
776,66	1859,56
776,84	1697,77
777,01	1568,74
777,19	1665,00
777,37	1658,85
777,54	1720,29
777,72	1730,53
777,90	1771,49
778,07	1697,77
778,25	1869,80
778,43	1783,78
778,60	1693,67
778,78	1804,26
778,96	1789,92
779,13	1656,81
779,31	1775,59
779,49	1755,11
779,66	1697,77
779,84	1675,24
780,01	1726,44
780,19	1671,14
780,37	1839,08
780,54	1685,48
780,72	1665,00
780,90	1667,05
781,07	1748,97
781,25	1730,53
781,43	1775,59
781,60	1656,81
781,78	1751,01
781,95	1656,81
782,13	1640,42
782,31	1675,24
782,48	1619,94
782,66	1705,96
782,83	1736,68
783,01	1763,30
783,19	1732,58
783,36	1800,16
783,54	1689,57
783,72	1755,11
783,89	1642,47
784,07	1656,81
784,24	1789,92
784,42	1820,64
784,60	1691,62
784,77	1652,71
784,95	1607,66
785,12	1773,54
785,30	1687,53
785,47	1628,14
785,65	1673,19
785,83	1687,53
786,00	1619,94
786,18	1656,81
786,35	1660,90
786,53	1722,34
786,71	1740,77
786,88	1689,57
787,06	1779,68
787,23	1744,87
787,41	1642,47
787,58	1689,57
787,76	1703,91
787,94	1675,24
788,11	1675,24
788,29	1607,66
788,46	1648,61
788,64	1609,70
788,81	1679,33
788,99	1581,03
789,16	1658,85
789,34	1665,00
789,52	1679,33
789,69	1675,24
789,87	1560,55
790,04	1632,23
790,22	1644,52
790,39	1816,55
790,57	1687,53
790,74	1642,47
790,92	1802,21
791,09	1583,08
791,27	1685,48
791,44	1714,15
791,62	1699,81
791,79	1779,68
791,97	1624,04
792,15	1896,42
792,32	1712,10
792,50	1718,25
792,67	1740,77
792,85	1759,21
793,02	1697,77
793,20	1640,42
793,37	1615,85
793,55	1695,72
793,72	1705,96
793,90	1718,25
794,07	1650,66
794,25	1619,94
794,42	1691,62
794,60	1630,18
794,77	1662,95
794,95	1732,58
795,12	1724,39
795,30	1726,44
795,47	1624,04
795,65	1927,14
795,82	1761,25
796,00	1624,04
796,17	1671,14
796,34	1656,81
796,52	1628,14
796,69	1779,68
796,87	1697,77
797,04	1697,77
797,22	1744,87
797,39	1761,25
797,57	1759,21
797,74	1718,25
797,92	1679,33
798,09	1697,77
798,27	1730,53
798,44	1685,48
798,62	1656,81
798,79	1779,68
798,96	1720,29
799,14	1708,01
799,31	1802,21
799,49	1705,96
799,66	1685,48
799,84	1683,43
800,01	1619,94
800,19	1689,57
800,36	1628,14
800,53	1685,48
800,71	1710,05
800,88	1802,21
801,06	1658,85
801,23	1603,56
801,41	1748,97
801,58	1671,14
801,75	1675,24
801,93	1783,78
802,10	1697,77
802,28	1667,05
802,45	1730,53
802,63	1734,63
802,80	1759,21
802,97	1746,92
803,15	1693,67
803,32	1634,28
803,50	1630,18
803,67	1628,14
803,84	1544,17
804,02	1679,33
804,19	1697,77
804,37	1566,70
804,54	1671,14
804,71	1665,00
804,89	1632,23
805,06	1581,03
805,24	1562,60
805,41	1576,94
805,58	1759,21
805,76	1859,56
805,93	1730,53
806,10	1757,16
806,28	1769,44
806,45	1708,01
806,63	1665,00
806,80	1634,28
806,97	1701,86
807,15	1726,44
807,32	1699,81
807,49	1681,38
807,67	1615,85
807,84	1685,48
808,01	1665,00
808,19	1863,65
808,36	1757,16
808,54	1687,53
808,71	1558,50
808,88	1701,86
809,06	1710,05
809,23	1759,21
809,40	1638,38
809,58	1730,53
809,75	1660,90
809,92	1630,18
810,10	1806,31
810,27	1656,81
810,44	1755,11
810,62	1757,16
810,79	1705,96
810,96	1679,33
811,14	1697,77
811,31	1652,71
811,48	1716,20
811,66	1654,76
811,83	1761,25
812,00	1734,63
812,18	1722,34
812,35	1820,64
812,52	1703,91
812,69	1708,01
812,87	1669,09
813,04	1619,94
813,21	1714,15
813,39	1685,48
813,56	1665,00
813,73	1730,53
813,91	1599,46
814,08	1687,53
814,25	1748,97
814,42	1619,94
814,60	1744,87
814,77	1722,34
814,94	1667,05
815,12	1714,15
815,29	1765,35
815,46	1660,90
815,63	1738,73
815,81	1781,73
815,98	1742,82
816,15	1738,73
816,33	1693,67
816,50	1675,24
816,67	1667,05
816,84	1679,33
817,02	1609,70
817,19	1746,92
817,36	1697,77
817,53	1767,40
817,71	1630,18
817,88	1744,87
818,05	1648,61
818,22	1742,82
818,40	1812,45
818,57	1701,86
818,74	1705,96
818,91	1656,81
819,09	1742,82
819,26	1726,44
819,43	1683,43
819,60	1626,09
819,78	1804,26
819,95	1701,86
820,12	1710,05
820,29	1734,63
820,47	1804,26
820,64	1755,11
820,81	1689,57
820,98	1593,32
821,15	1703,91
821,33	1673,19
821,50	1673,19
821,67	1738,73
821,84	1675,24
822,02	1726,44
822,19	1791,97
822,36	1675,24
822,53	1665,00
822,70	1593,32
822,88	1601,51
823,05	1736,68
823,22	1658,85
823,39	1771,49
823,56	1687,53
823,74	1777,64
823,91	1673,19
824,08	1593,32
824,25	1699,81
824,42	1773,54
824,60	1609,70
824,77	1675,24
824,94	1677,29
825,11	1626,09
825,28	1632,23
825,45	1667,05
825,63	1701,86
825,80	1656,81
825,97	1652,71
826,14	1701,86
826,31	1585,13
826,48	1685,48
826,66	1665,00
826,83	1605,61
827,00	1777,64
827,17	1642,47
827,34	1619,94
827,51	1656,81
827,69	1701,86
827,86	1591,27
828,03	1710,05
828,20	1656,81
828,37	1656,81
828,54	1714,15
828,71	1644,52
828,89	1789,92
829,06	1734,63
829,23	1726,44
829,40	1615,85
829,57	1718,25
829,74	1775,59
829,91	1644,52
830,09	1665,00
830,26	1755,11
830,43	1802,21
830,60	1728,49
830,77	1681,38
830,94	1746,92
831,11	1697,77
831,28	1650,66
831,46	1753,06
831,63	1665,00
831,80	1718,25
831,97	1656,81
832,14	1671,14
832,31	1730,53
832,48	1748,97
832,65	1746,92
832,82	1691,62
832,99	1681,38
833,17	1626,09
833,34	1734,63
833,51	1785,83
833,68	1621,99
833,85	1722,34
834,02	1634,28
834,19	1591,27
834,36	1681,38
834,53	1712,10
834,70	1701,86
834,87	1712,10
835,04	1724,39
835,22	1685,48
835,39	1705,96
835,56	1646,57
835,73	1691,62
835,90	1667,05
836,07	1642,47
836,24	1794,02
836,41	1691,62
836,58	1632,23
836,75	1697,77
836,92	1714,15
837,09	1705,96
837,26	1777,64
837,43	1652,71
837,60	1730,53
837,77	1634,28
837,94	1740,77
838,12	1755,11
838,29	1757,16
838,46	1599,46
838,63	1679,33
838,80	1791,97
838,97	1748,97
839,14	1744,87
839,31	1781,73
839,48	1755,11
839,65	1728,49
839,82	1652,71
839,99	1701,86
840,16	1708,01
840,33	1615,85
840,50	1695,72
840,67	1695,72
840,84	1589,22
841,01	1693,67
841,18	1644,52
841,35	1734,63
841,52	1796,07
841,69	1781,73
841,86	1683,43
842,03	1730,53
842,20	1734,63
842,37	1630,18
842,54	1763,30
842,71	1619,94
842,88	1624,04
843,05	1753,06
843,22	1685,48
843,39	1753,06
843,56	1710,05
843,73	1679,33
843,90	1763,30
844,07	1683,43
844,24	1763,30
844,41	1669,09
844,58	1636,33
844,75	1671,14
844,92	1687,53
845,09	1730,53
845,26	1726,44
845,43	1746,92
845,60	1710,05
845,77	1777,64
845,94	1710,05
846,10	1765,35
846,27	1566,70
846,44	1718,25
846,61	1665,00
846,78	1710,05
846,95	1753,06
847,12	1654,76
847,29	1624,04
847,46	1654,76
847,63	1716,20
847,80	1755,11
847,97	1701,86
848,14	1851,36
848,31	1718,25
848,48	1617,90
848,65	1822,69
848,82	1701,86
848,98	1814,50
849,15	1755,11
849,32	1802,21
849,49	1740,77
849,66	1644,52
849,83	1667,05
850,00	1634,28
850,17	1681,38
850,34	1755,11
850,51	1628,14
850,68	1677,29
850,85	1828,84
851,01	1716,20
851,18	1673,19
851,35	1632,23
851,52	1763,30
851,69	1761,25
851,86	1753,06
852,03	1632,23
852,20	1724,39
852,37	1689,57
852,53	1634,28
852,70	1689,57
852,87	1757,16
853,04	1757,16
853,21	1751,01
853,38	1734,63
853,55	1781,73
853,72	1787,88
853,89	1564,65
854,05	1718,25
854,22	1708,01
854,39	1671,14
854,56	1675,24
854,73	1757,16
854,90	1697,77
855,07	1746,92
855,23	1685,48
855,40	1667,05
855,57	1607,66
855,74	1615,85
855,91	1839,08
856,08	1642,47
856,25	1595,37
856,41	1599,46
856,58	1691,62
856,75	1701,86
856,92	1728,49
857,09	1742,82
857,26	1638,38
857,42	1648,61
857,59	1724,39
857,76	1689,57
857,93	1738,73
858,10	1736,68
858,27	1527,78
858,43	1699,81
858,60	1605,61
858,77	1589,22
858,94	1652,71
859,11	1779,68
859,27	1693,67
859,44	1667,05
859,61	1828,84
859,78	1779,68
859,95	1648,61
860,12	1607,66
860,28	1724,39
860,45	1867,75
860,62	1722,34
860,79	1644,52
860,95	1681,38
861,12	1699,81
861,29	1636,33
861,46	1683,43
861,63	1660,90
861,79	1769,44
861,96	1677,29
862,13	1714,15
862,30	1808,36
862,47	1714,15
862,63	1662,95
862,80	1783,78
862,97	1728,49
863,14	1693,67
863,30	1689,57
863,47	1751,01
863,64	1826,79
863,81	1746,92
863,97	1650,66
864,14	1773,54
864,31	1712,10
864,48	1757,16
864,65	1701,86
864,81	1732,58
864,98	1685,48
865,15	1775,59
865,32	1689,57
865,48	1738,73
865,65	1828,84
865,82	1652,71
865,98	1693,67
866,15	1722,34
866,32	1673,19
866,49	1632,23
866,65	1759,21
866,82	1601,51
866,99	1677,29
867,16	1691,62
867,32	1683,43
867,49	1683,43
867,66	1693,67
867,83	1640,42
867,99	1708,01
868,16	1689,57
868,33	1638,38
868,49	1730,53
868,66	1708,01
868,83	1746,92
868,99	1695,72
869,16	1638,38
869,33	1755,11
869,50	1722,34
869,66	1767,40
869,83	1644,52
870,00	1675,24
870,16	1734,63
870,33	1691,62
870,50	1728,49
870,66	1722,34
870,83	1814,50
871,00	1662,95
871,17	1757,16
871,33	1712,10
871,50	1615,85
871,67	1636,33
871,83	1705,96
872,00	1771,49
872,17	1613,80
872,33	1775,59
872,50	1736,68
872,67	1681,38
872,83	1660,90
873,00	1677,29
873,17	1718,25
873,33	1777,64
873,50	1765,35
873,67	1693,67
873,83	1587,18
874,00	1732,58
874,16	1791,97
874,33	1714,15
874,50	1632,23
874,66	1630,18
874,83	1712,10
875,00	1769,44
875,16	1697,77
875,33	1740,77
875,50	1517,54
875,66	1589,22
875,83	1656,81
875,99	1753,06
876,16	1671,14
876,33	1617,90
876,49	1662,95
876,66	1726,44
876,83	1695,72
876,99	1654,76
877,16	1662,95
877,32	1660,90
877,49	1740,77
877,66	1665,00
877,82	1812,45
877,99	1732,58
878,15	1732,58
878,32	1646,57
878,49	1732,58
878,65	1617,90
878,82	1746,92
878,98	1669,09
879,15	1730,53
879,32	1710,05
879,48	1740,77
879,65	1695,72
879,81	1689,57
879,98	1665,00
880,15	1591,27
880,31	1724,39
880,48	1636,33
880,64	1761,25
880,81	1697,77
880,97	1845,22
881,14	1740,77
881,31	1679,33
881,47	1771,49
881,64	1677,29
881,80	1648,61
881,97	1710,05
882,13	1845,22
882,30	1644,52
882,47	1585,13
882,63	1624,04
882,80	1665,00
882,96	1677,29
883,13	1765,35
883,29	1660,90
883,46	1777,64
883,62	1826,79
883,79	1744,87
883,95	1771,49
884,12	1648,61
884,29	1705,96
884,45	1665,00
884,62	1724,39
884,78	1691,62
884,95	1796,07
885,11	1660,90
885,28	1785,83
885,44	1636,33
885,61	1738,73
885,77	1742,82
885,94	1753,06
886,10	1681,38
886,27	1722,34
886,43	1751,01
886,60	1708,01
886,76	1642,47
886,93	1609,70
887,09	1677,29
887,26	1685,48
887,42	1671,14
887,59	1804,26
887,75	1853,41
887,92	1775,59
888,08	1726,44
888,25	1794,02
888,41	1791,97
888,58	1785,83
888,74	1658,85
888,91	1656,81
>>>>>End Processed Spectral Data<<<<<
