SpectraSuite Data File
++++++++++++++++++++++++++++++++++++
Date: Mon Jun 06 14:11:37 CEST 2016
User: root
Dark Spectrum Present: No
Reference Spectrum Present: No
Number of Sampled Component Spectra: 1
Spectrometers: USB4C02835
Integration Time (usec): 100000 (USB4C02835)
Spectra Averaged: 1 (USB4C02835)
Boxcar Smoothing: 0 (USB4C02835)
Correct for Electrical Dark: No (USB4C02835)
Strobe/Lamp Enabled: No (USB4C02835)
Correct for Detector Non-linearity: No (USB4C02835)
Correct for Stray Light: No (USB4C02835)
Number of Pixels in Processed Spectrum: 3648
>>>>>Begin Processed Spectral Data<<<<<
177,47	1427,43
177,69	1427,43
177,91	1427,43
178,13	1495,02
178,36	1478,63
178,58	1705,96
178,80	1697,77
179,02	1646,57
179,24	1673,19
179,46	1718,25
179,68	1814,50
179,90	1683,43
180,13	1716,20
180,35	1603,56
180,57	1736,68
180,79	1697,77
181,01	1667,05
181,23	1732,58
181,45	1771,49
181,67	1738,73
181,90	1724,39
182,12	1673,19
182,34	1632,23
182,56	1660,90
182,78	1660,90
183,00	1689,57
183,22	1789,92
183,44	1660,90
183,66	1843,17
183,89	1830,88
184,11	1732,58
184,33	1705,96
184,55	1755,11
184,77	1697,77
184,99	1720,29
185,21	1687,53
185,43	1812,45
185,65	1689,57
185,87	1677,29
186,10	1929,19
186,32	1853,41
186,54	1660,90
186,76	1724,39
186,98	1689,57
187,20	1701,86
187,42	1619,94
187,64	1726,44
187,86	1726,44
188,08	1705,96
188,30	1560,55
188,52	1691,62
188,75	1830,88
188,97	1787,88
189,19	1640,42
189,41	1701,86
189,63	1708,01
189,85	1796,07
190,07	1660,90
190,29	1665,00
190,51	1699,81
190,73	1540,07
190,95	1777,64
191,17	1742,82
191,39	1624,04
191,61	1705,96
191,84	1740,77
192,06	1718,25
192,28	1593,32
192,50	1830,88
192,72	1740,77
192,94	1671,14
193,16	1814,50
193,38	1722,34
193,60	1576,94
193,82	1699,81
194,04	1812,45
194,26	1746,92
194,48	1615,85
194,70	1667,05
194,92	1679,33
195,14	1755,11
195,36	1669,09
195,58	1691,62
195,80	1677,29
196,02	1722,34
196,24	1765,35
196,46	1701,86
196,69	1675,24
196,91	1804,26
197,13	1705,96
197,35	1662,95
197,57	1763,30
197,79	1763,30
198,01	1728,49
198,23	1755,11
198,45	1683,43
198,67	1644,52
198,89	1671,14
199,11	1697,77
199,33	1669,09
199,55	1595,37
199,77	1632,23
199,99	1757,16
200,21	1687,53
200,43	1746,92
200,65	1587,18
200,87	1574,89
201,09	1695,72
201,31	1742,82
201,53	1755,11
201,75	1675,24
201,97	1765,35
202,19	1734,63
202,41	1671,14
202,63	1900,52
202,85	1703,91
203,07	1757,16
203,29	1669,09
203,51	1617,90
203,73	1640,42
203,95	1865,70
204,17	1787,88
204,39	1722,34
204,61	1669,09
204,83	1669,09
205,05	1771,49
205,27	1648,61
205,49	1738,73
205,71	1791,97
205,93	1617,90
206,15	1779,68
206,37	1716,20
206,59	1689,57
206,81	1671,14
207,03	1689,57
207,25	1636,33
207,47	1673,19
207,69	1691,62
207,91	1761,25
208,13	1759,21
208,34	1673,19
208,56	1720,29
208,78	1751,01
209,00	1705,96
209,22	1667,05
209,44	1687,53
209,66	1593,32
209,88	1798,12
210,10	1710,05
210,32	1755,11
210,54	1806,31
210,76	1718,25
210,98	1751,01
211,20	1599,46
211,42	1605,61
211,64	1740,77
211,86	1724,39
212,08	1675,24
212,30	1755,11
212,52	1699,81
212,74	1708,01
212,96	1812,45
213,17	1740,77
213,39	1755,11
213,61	1755,11
213,83	1742,82
214,05	1624,04
214,27	1755,11
214,49	1642,47
214,71	1660,90
214,93	1771,49
215,15	1665,00
215,37	1660,90
215,59	1673,19
215,81	1755,11
216,03	1744,87
216,24	1656,81
216,46	1656,81
216,68	1738,73
216,90	1740,77
217,12	1724,39
217,34	1685,48
217,56	1681,38
217,78	1751,01
218,00	1765,35
218,22	1699,81
218,44	1730,53
218,66	1775,59
218,87	1800,16
219,09	1695,72
219,31	1712,10
219,53	1763,30
219,75	1667,05
219,97	1693,67
220,19	1736,68
220,41	1753,06
220,63	1789,92
220,85	1722,34
221,06	1626,09
221,28	1763,30
221,50	1730,53
221,72	1765,35
221,94	1751,01
222,16	1626,09
222,38	1746,92
222,60	1769,44
222,82	1669,09
223,03	1697,77
223,25	1671,14
223,47	1751,01
223,69	1894,37
223,91	1710,05
224,13	1763,30
224,35	1689,57
224,57	1708,01
224,78	1787,88
225,00	1642,47
225,22	1755,11
225,44	1708,01
225,66	1722,34
225,88	1718,25
226,10	1681,38
226,32	1734,63
226,53	1820,64
226,75	1642,47
226,97	1726,44
227,19	1728,49
227,41	1667,05
227,63	1699,81
227,85	1578,98
228,06	1718,25
228,28	1751,01
228,50	1785,83
228,72	1652,71
228,94	1693,67
229,16	1636,33
229,37	1693,67
229,59	1736,68
229,81	1791,97
230,03	1705,96
230,25	1583,08
230,47	1626,09
230,69	1595,37
230,90	1812,45
231,12	1697,77
231,34	1701,86
231,56	1791,97
231,78	1640,42
232,00	1742,82
232,21	1683,43
232,43	1654,76
232,65	1505,26
232,87	1755,11
233,09	1701,86
233,30	1621,99
233,52	1748,97
233,74	1660,90
233,96	1703,91
234,18	1748,97
234,40	1736,68
234,61	1779,68
234,83	1695,72
235,05	1687,53
235,27	1847,27
235,49	1804,26
235,70	1724,39
235,92	1841,12
236,14	1718,25
236,36	1853,41
236,58	1597,42
236,79	1714,15
237,01	1712,10
237,23	1736,68
237,45	1785,83
237,67	1656,81
237,88	1640,42
238,10	1773,54
238,32	1683,43
238,54	1730,53
238,76	1638,38
238,97	1644,52
239,19	1687,53
239,41	1787,88
239,63	1771,49
239,85	1646,57
240,06	1677,29
240,28	1708,01
240,50	1726,44
240,72	1720,29
240,93	1722,34
241,15	1708,01
241,37	1703,91
241,59	1826,79
241,81	1656,81
242,02	1689,57
242,24	1732,58
242,46	1722,34
242,68	1660,90
242,89	1812,45
243,11	1693,67
243,33	1624,04
243,55	1667,05
243,76	1751,01
243,98	1691,62
244,20	1712,10
244,42	1656,81
244,64	1587,18
244,85	1611,75
245,07	1716,20
245,29	1658,85
245,51	1695,72
245,72	1644,52
245,94	1800,16
246,16	1697,77
246,38	1667,05
246,59	1677,29
246,81	1605,61
247,03	1783,78
247,24	1593,32
247,46	1669,09
247,68	1708,01
247,90	1691,62
248,11	1689,57
248,33	1740,77
248,55	1673,19
248,77	1669,09
248,98	1775,59
249,20	1818,60
249,42	1703,91
249,64	1791,97
249,85	1759,21
250,07	1658,85
250,29	1787,88
250,50	1740,77
250,72	1626,09
250,94	1671,14
251,16	1841,12
251,37	1767,40
251,59	1724,39
251,81	1755,11
252,02	1669,09
252,24	1677,29
252,46	1728,49
252,68	1638,38
252,89	1689,57
253,11	1597,42
253,33	1806,31
253,54	1802,21
253,76	1640,42
253,98	1691,62
254,20	1673,19
254,41	1628,14
254,63	1660,90
254,85	1628,14
255,06	1634,28
255,28	1703,91
255,50	1648,61
255,71	1667,05
255,93	1654,76
256,15	1630,18
256,36	1718,25
256,58	1685,48
256,80	1740,77
257,02	1675,24
257,23	1755,11
257,45	1736,68
257,67	1708,01
257,88	1697,77
258,10	1693,67
258,32	1748,97
258,53	1648,61
258,75	1787,88
258,97	1703,91
259,18	1744,87
259,40	1673,19
259,62	1841,12
259,83	1804,26
260,05	1769,44
260,27	2062,30
260,48	1802,21
260,70	1603,56
260,92	1687,53
261,13	1705,96
261,35	1736,68
261,57	1656,81
261,78	1621,99
262,00	1644,52
262,22	1646,57
262,43	1652,71
262,65	1712,10
262,86	1695,72
263,08	1785,83
263,30	1705,96
263,51	1515,50
263,73	1628,14
263,95	1748,97
264,16	1687,53
264,38	1695,72
264,60	1656,81
264,81	1667,05
265,03	1785,83
265,25	1839,08
265,46	1705,96
265,68	1753,06
265,89	1802,21
266,11	1619,94
266,33	1761,25
266,54	1773,54
266,76	1740,77
266,98	1820,64
267,19	1746,92
267,41	1810,40
267,62	1566,70
267,84	1683,43
268,06	1718,25
268,27	1650,66
268,49	1769,44
268,70	1771,49
268,92	1734,63
269,14	1562,60
269,35	1624,04
269,57	1699,81
269,79	1726,44
270,00	1648,61
270,22	1785,83
270,43	1642,47
270,65	1589,22
270,87	1677,29
271,08	1734,63
271,30	1757,16
271,51	1648,61
271,73	1732,58
271,95	1755,11
272,16	1652,71
272,38	1638,38
272,59	1742,82
272,81	1687,53
273,02	1771,49
273,24	1759,21
273,46	1759,21
273,67	1681,38
273,89	1675,24
274,10	1630,18
274,32	1763,30
274,54	1730,53
274,75	1828,84
274,97	1583,08
275,18	1748,97
275,40	1746,92
275,61	1667,05
275,83	1644,52
276,05	1693,67
276,26	1669,09
276,48	1753,06
276,69	1677,29
276,91	1642,47
277,12	1763,30
277,34	1787,88
277,55	1779,68
277,77	1740,77
277,99	1648,61
278,20	1697,77
278,42	1693,67
278,63	1679,33
278,85	1628,14
279,06	1619,94
279,28	1650,66
279,49	1767,40
279,71	1787,88
279,93	1771,49
280,14	1710,05
280,36	1671,14
280,57	1775,59
280,79	1789,92
281,00	1693,67
281,22	1662,95
281,43	1738,73
281,65	1630,18
281,86	1599,46
282,08	1773,54
282,29	1781,73
282,51	1581,03
282,73	1595,37
282,94	1646,57
283,16	1783,78
283,37	1769,44
283,59	1640,42
283,80	1710,05
284,02	1693,67
284,23	1689,57
284,45	1720,29
284,66	1619,94
284,88	1656,81
285,09	1656,81
285,31	1738,73
285,52	1757,16
285,74	1601,51
285,95	1765,35
286,17	1765,35
286,38	1794,02
286,60	1656,81
286,81	1681,38
287,03	1642,47
287,24	1662,95
287,46	1779,68
287,67	1757,16
287,89	1818,60
288,10	1701,86
288,32	1718,25
288,53	1802,21
288,75	1660,90
288,96	1732,58
289,18	1673,19
289,39	1722,34
289,61	1775,59
289,82	1828,84
290,04	1726,44
290,25	1665,00
290,47	1640,42
290,68	1662,95
290,90	1808,36
291,11	1570,79
291,33	1751,01
291,54	1648,61
291,76	1660,90
291,97	1679,33
292,18	1673,19
292,40	1632,23
292,61	1714,15
292,83	1839,08
293,04	1714,15
293,26	1683,43
293,47	1726,44
293,69	1611,75
293,90	1626,09
294,12	1791,97
294,33	1718,25
294,55	1578,98
294,76	1718,25
294,97	1771,49
295,19	1791,97
295,40	1677,29
295,62	1757,16
295,83	1703,91
296,05	1705,96
296,26	1744,87
296,48	1673,19
296,69	1697,77
296,90	1718,25
297,12	1740,77
297,33	1773,54
297,55	1716,20
297,76	1695,72
297,98	1796,07
298,19	1769,44
298,41	1599,46
298,62	1634,28
298,83	1751,01
299,05	1720,29
299,26	1648,61
299,48	1574,89
299,69	1785,83
299,90	1714,15
300,12	1593,32
300,33	1718,25
300,55	1726,44
300,76	1773,54
300,98	1609,70
301,19	1722,34
301,40	1677,29
301,62	1640,42
301,83	1687,53
302,05	1685,48
302,26	1621,99
302,47	1710,05
302,69	1697,77
302,90	1742,82
303,12	1535,98
303,33	1705,96
303,54	1748,97
303,76	1652,71
303,97	1701,86
304,19	1767,40
304,40	1691,62
304,61	1675,24
304,83	1798,12
305,04	1757,16
305,26	1609,70
305,47	1611,75
305,68	1697,77
305,90	1615,85
306,11	1765,35
306,33	1738,73
306,54	1638,38
306,75	1697,77
306,97	1619,94
307,18	1632,23
307,39	1638,38
307,61	1726,44
307,82	1736,68
308,04	1710,05
308,25	1619,94
308,46	1708,01
308,68	1738,73
308,89	1712,10
309,10	1834,98
309,32	1671,14
309,53	1609,70
309,74	1777,64
309,96	1681,38
310,17	1689,57
310,39	1755,11
310,60	1699,81
310,81	1755,11
311,03	1613,80
311,24	1789,92
311,45	1660,90
311,67	1834,98
311,88	1736,68
312,09	1591,27
312,31	1673,19
312,52	1687,53
312,73	1617,90
312,95	1587,18
313,16	1615,85
313,37	1730,53
313,59	1701,86
313,80	1761,25
314,01	1830,88
314,23	1691,62
314,44	1646,57
314,65	1609,70
314,87	1687,53
315,08	1603,56
315,29	1624,04
315,51	1734,63
315,72	1538,02
315,93	1824,74
316,15	1791,97
316,36	1656,81
316,57	1662,95
316,79	1726,44
317,00	1708,01
317,21	1712,10
317,43	1624,04
317,64	1638,38
317,85	1691,62
318,07	1624,04
318,28	1757,16
318,49	1802,21
318,70	1908,71
318,92	1816,55
319,13	1834,98
319,34	1890,28
319,56	1677,29
319,77	1765,35
319,98	1820,64
320,20	1738,73
320,41	1753,06
320,62	1681,38
320,83	1740,77
321,05	1796,07
321,26	1751,01
321,47	1689,57
321,69	1738,73
321,90	1638,38
322,11	1685,48
322,32	1689,57
322,54	1724,39
322,75	1693,67
322,96	1740,77
323,18	1656,81
323,39	1634,28
323,60	1648,61
323,81	1718,25
324,03	1671,14
324,24	1769,44
324,45	1677,29
324,66	1648,61
324,88	1746,92
325,09	1820,64
325,30	1632,23
325,52	1687,53
325,73	1677,29
325,94	1574,89
326,15	1656,81
326,37	1679,33
326,58	1757,16
326,79	1763,30
327,00	1630,18
327,22	1738,73
327,43	1728,49
327,64	1656,81
327,85	1716,20
328,07	1658,85
328,28	1841,12
328,49	1689,57
328,70	1654,76
328,92	1640,42
329,13	1648,61
329,34	1705,96
329,55	1703,91
329,76	1771,49
329,98	1726,44
330,19	1820,64
330,40	1705,96
330,61	1734,63
330,83	1814,50
331,04	1621,99
331,25	1708,01
331,46	1714,15
331,68	1624,04
331,89	1871,84
332,10	1699,81
332,31	1656,81
332,52	1660,90
332,74	1755,11
332,95	1605,61
333,16	1689,57
333,37	1804,26
333,58	1660,90
333,80	1789,92
334,01	1648,61
334,22	1667,05
334,43	1732,58
334,64	1662,95
334,86	1611,75
335,07	1613,80
335,28	1722,34
335,49	1652,71
335,70	1675,24
335,92	1798,12
336,13	1888,23
336,34	1763,30
336,55	1679,33
336,76	1611,75
336,98	1599,46
337,19	1712,10
337,40	1818,60
337,61	1837,03
337,82	1687,53
338,04	1716,20
338,25	1605,61
338,46	1599,46
338,67	1765,35
338,88	1656,81
339,09	1630,18
339,31	1652,71
339,52	1601,51
339,73	1675,24
339,94	1644,52
340,15	1669,09
340,36	1615,85
340,58	1738,73
340,79	1681,38
341,00	1728,49
341,21	1632,23
341,42	1775,59
341,63	1667,05
341,85	1730,53
342,06	1710,05
342,27	1693,67
342,48	1798,12
342,69	1669,09
342,90	1751,01
343,12	1736,68
343,33	1669,09
343,54	1714,15
343,75	1818,60
343,96	1732,58
344,17	1722,34
344,38	1644,52
344,60	1652,71
344,81	1595,37
345,02	1755,11
345,23	1845,22
345,44	1755,11
345,65	1781,73
345,86	1703,91
346,07	1671,14
346,29	1656,81
346,50	1802,21
346,71	1751,01
346,92	1701,86
347,13	1855,46
347,34	1677,29
347,55	1624,04
347,76	1716,20
347,98	1583,08
348,19	1695,72
348,40	1767,40
348,61	1624,04
348,82	1757,16
349,03	1722,34
349,24	1617,90
349,45	1816,55
349,66	1632,23
349,88	1714,15
350,09	1648,61
350,30	1808,36
350,51	1728,49
350,72	1677,29
350,93	1734,63
351,14	1669,09
351,35	1691,62
351,56	1783,78
351,77	1720,29
351,99	1652,71
352,20	1816,55
352,41	1722,34
352,62	1552,36
352,83	1689,57
353,04	1722,34
353,25	1705,96
353,46	1826,79
353,67	1716,20
353,88	1568,74
354,09	1724,39
354,30	1791,97
354,52	1705,96
354,73	1759,21
354,94	1613,80
355,15	1763,30
355,36	1808,36
355,57	1671,14
355,78	1722,34
355,99	1681,38
356,20	1722,34
356,41	1812,45
356,62	1718,25
356,83	1755,11
357,04	1798,12
357,25	1611,75
357,46	1617,90
357,68	1701,86
357,89	1630,18
358,10	1714,15
358,31	1675,24
358,52	1697,77
358,73	1628,14
358,94	1658,85
359,15	1677,29
359,36	1773,54
359,57	1695,72
359,78	1744,87
359,99	1714,15
360,20	1632,23
360,41	1609,70
360,62	1720,29
360,83	1667,05
361,04	1746,92
361,25	1748,97
361,46	1785,83
361,67	1648,61
361,88	1652,71
362,09	1689,57
362,30	1767,40
362,51	1660,90
362,72	1683,43
362,93	1677,29
363,14	1728,49
363,35	1673,19
363,56	1636,33
363,78	1746,92
363,99	1769,44
364,20	1681,38
364,41	1724,39
364,62	1800,16
364,83	1687,53
365,04	1687,53
365,25	1656,81
365,46	1767,40
365,67	1621,99
365,88	1621,99
366,09	1673,19
366,30	1642,47
366,51	1738,73
366,72	1624,04
366,93	1626,09
367,14	1636,33
367,35	1753,06
367,56	1671,14
367,77	1759,21
367,98	1609,70
368,18	1701,86
368,39	1724,39
368,60	1613,80
368,81	1712,10
369,02	1789,92
369,23	1751,01
369,44	1566,70
369,65	1683,43
369,86	1656,81
370,07	1746,92
370,28	1652,71
370,49	1734,63
370,70	1777,64
370,91	1656,81
371,12	1658,85
371,33	1703,91
371,54	1746,92
371,75	1746,92
371,96	1662,95
372,17	1677,29
372,38	1761,25
372,59	1763,30
372,80	1652,71
373,01	1708,01
373,22	1746,92
373,43	1669,09
373,64	1648,61
373,85	1818,60
374,06	1771,49
374,26	1820,64
374,47	1746,92
374,68	1849,32
374,89	1736,68
375,10	1701,86
375,31	1714,15
375,52	1722,34
375,73	1726,44
375,94	1671,14
376,15	1789,92
376,36	1619,94
376,57	1683,43
376,78	1730,53
376,99	1726,44
377,20	1773,54
377,40	1685,48
377,61	1744,87
377,82	1640,42
378,03	1802,21
378,24	1771,49
378,45	1669,09
378,66	1712,10
378,87	1550,31
379,08	1621,99
379,29	1591,27
379,50	1798,12
379,71	1658,85
379,91	1687,53
380,12	1691,62
380,33	1693,67
380,54	1675,24
380,75	1695,72
380,96	1693,67
381,17	1849,32
381,38	1685,48
381,59	1837,03
381,80	1744,87
382,00	1873,89
382,21	1687,53
382,42	1906,66
382,63	1857,51
382,84	1699,81
383,05	1742,82
383,26	1867,75
383,47	1660,90
383,68	1753,06
383,88	1765,35
384,09	1716,20
384,30	1767,40
384,51	1714,15
384,72	1736,68
384,93	1654,76
385,14	1753,06
385,35	1812,45
385,55	1662,95
385,76	1814,50
385,97	1613,80
386,18	1617,90
386,39	1665,00
386,60	1738,73
386,81	1665,00
387,02	1648,61
387,22	1654,76
387,43	1830,88
387,64	1816,55
387,85	1822,69
388,06	2084,83
388,27	4229,06
388,48	6823,83
388,68	8310,66
388,89	9719,66
389,10	9762,67
389,31	8624,00
389,52	7612,30
389,73	6700,95
389,93	6242,21
390,14	5834,66
390,35	5171,12
390,56	4470,72
390,77	3712,97
390,98	3139,54
391,18	2465,75
391,39	2224,09
391,60	1853,41
391,81	1875,94
392,02	1708,01
392,23	1906,66
392,43	1791,97
392,64	1716,20
392,85	1658,85
393,06	1718,25
393,27	1718,25
393,47	1613,80
393,68	1744,87
393,89	1683,43
394,10	1748,97
394,31	1699,81
394,52	1640,42
394,72	1660,90
394,93	1837,03
395,14	1689,57
395,35	1763,30
395,56	1619,94
395,76	1718,25
395,97	1705,96
396,18	1800,16
396,39	1892,32
396,60	2004,96
396,80	1898,47
397,01	1826,79
397,22	1818,60
397,43	1757,16
397,64	1818,60
397,84	1894,37
398,05	1847,27
398,26	1789,92
398,47	1767,40
398,67	1781,73
398,88	1775,59
399,09	1802,21
399,30	1693,67
399,51	1748,97
399,71	1660,90
399,92	1701,86
400,13	1675,24
400,34	1724,39
400,54	1691,62
400,75	1785,83
400,96	1644,52
401,17	1843,17
401,37	1728,49
401,58	1673,19
401,79	1683,43
402,00	1851,36
402,21	1959,91
402,41	1974,24
402,62	2011,11
402,83	2043,87
403,04	1992,67
403,24	2047,97
403,45	1896,42
403,66	1898,47
403,87	1869,80
404,07	1810,40
404,28	1890,28
404,49	1863,65
404,70	1693,67
404,90	1796,07
405,11	1728,49
405,32	1794,02
405,52	1699,81
405,73	1638,38
405,94	1619,94
406,15	1720,29
406,35	1806,31
406,56	1802,21
406,77	1738,73
406,98	1822,69
407,18	1650,66
407,39	1834,98
407,60	1718,25
407,80	1783,78
408,01	1734,63
408,22	1691,62
408,43	1642,47
408,63	1824,74
408,84	1785,83
409,05	1736,68
409,25	1710,05
409,46	1656,81
409,67	1736,68
409,88	1679,33
410,08	1681,38
410,29	1652,71
410,50	1710,05
410,70	1748,97
410,91	1626,09
411,12	1742,82
411,32	1652,71
411,53	1642,47
411,74	1759,21
411,95	1808,36
412,15	1734,63
412,36	1759,21
412,57	1724,39
412,77	1689,57
412,98	1744,87
413,19	1636,33
413,39	1665,00
413,60	1691,62
413,81	1757,16
414,01	1675,24
414,22	1773,54
414,43	1740,77
414,63	1714,15
414,84	1783,78
415,05	1755,11
415,25	1660,90
415,46	1789,92
415,67	1634,28
415,87	1724,39
416,08	1701,86
416,29	1638,38
416,49	1818,60
416,70	1736,68
416,91	1720,29
417,11	1683,43
417,32	1777,64
417,53	1759,21
417,73	1720,29
417,94	1679,33
418,15	1730,53
418,35	1746,92
418,56	1761,25
418,77	1923,04
418,97	1720,29
419,18	1730,53
419,38	1642,47
419,59	1714,15
419,80	1751,01
420,00	1734,63
420,21	1691,62
420,42	1808,36
420,62	1722,34
420,83	1591,27
421,04	1718,25
421,24	1677,29
421,45	1689,57
421,65	1740,77
421,86	1650,66
422,07	1675,24
422,27	1683,43
422,48	1675,24
422,69	1650,66
422,89	1636,33
423,10	1695,72
423,30	1632,23
423,51	1738,73
423,72	1621,99
423,92	1771,49
424,13	1644,52
424,33	1722,34
424,54	1759,21
424,75	1665,00
424,95	1832,93
425,16	1746,92
425,36	1753,06
425,57	1755,11
425,78	1720,29
425,98	1785,83
426,19	1650,66
426,39	1644,52
426,60	1738,73
426,81	1781,73
427,01	1703,91
427,22	1732,58
427,42	1636,33
427,63	1628,14
427,83	1716,20
428,04	1748,97
428,25	1841,12
428,45	1867,75
428,66	1746,92
428,86	1699,81
429,07	1724,39
429,28	1687,53
429,48	1693,67
429,69	1671,14
429,89	1669,09
430,10	1626,09
430,30	1642,47
430,51	1828,84
430,71	1771,49
430,92	1691,62
431,13	1701,86
431,33	1718,25
431,54	1724,39
431,74	1798,12
431,95	1785,83
432,15	1679,33
432,36	1683,43
432,56	1800,16
432,77	1761,25
432,98	1699,81
433,18	1669,09
433,39	1708,01
433,59	1703,91
433,80	1738,73
434,00	1824,74
434,21	1705,96
434,41	1740,77
434,62	1820,64
434,82	1578,98
435,03	1724,39
435,23	1701,86
435,44	1658,85
435,64	1789,92
435,85	1730,53
436,06	1701,86
436,26	1781,73
436,47	1714,15
436,67	1662,95
436,88	1718,25
437,08	1740,77
437,29	1841,12
437,49	1708,01
437,70	1736,68
437,90	1722,34
438,11	1732,58
438,31	1845,22
438,52	1785,83
438,72	1890,28
438,93	1931,23
439,13	1791,97
439,34	1863,65
439,54	1726,44
439,75	1728,49
439,95	1736,68
440,16	1744,87
440,36	1740,77
440,57	1730,53
440,77	1720,29
440,98	1710,05
441,18	1751,01
441,39	1654,76
441,59	1626,09
441,80	1837,03
442,00	1691,62
442,21	1808,36
442,41	1705,96
442,62	1736,68
442,82	1699,81
443,02	1812,45
443,23	1665,00
443,43	1771,49
443,64	1794,02
443,84	1613,80
444,05	1773,54
444,25	1726,44
444,46	1744,87
444,66	1677,29
444,87	1873,89
445,07	1685,48
445,28	1732,58
445,48	1800,16
445,69	1802,21
445,89	1828,84
446,09	1738,73
446,30	1947,62
446,50	2650,07
446,71	3803,08
446,91	4263,87
447,12	4761,53
447,32	4847,54
447,53	4298,69
447,73	3891,14
447,93	3553,23
448,14	3420,11
448,34	3174,35
448,55	2904,02
448,75	2820,05
448,96	2602,97
449,16	2441,18
449,36	2263,01
449,57	2111,46
449,77	1910,75
449,98	1834,98
450,18	1789,92
450,39	1882,08
450,59	1796,07
450,79	1746,92
451,00	1669,09
451,20	1824,74
451,41	1710,05
451,61	1761,25
451,81	1734,63
452,02	1765,35
452,22	1689,57
452,43	1748,97
452,63	1615,85
452,84	1730,53
453,04	1703,91
453,24	1673,19
453,45	1683,43
453,65	1755,11
453,86	1726,44
454,06	1769,44
454,26	1771,49
454,47	1654,76
454,67	1822,69
454,87	1718,25
455,08	1794,02
455,28	1877,99
455,49	1757,16
455,69	1734,63
455,89	1855,46
456,10	1769,44
456,30	1736,68
456,51	1734,63
456,71	1771,49
456,91	1767,40
457,12	1722,34
457,32	1771,49
457,52	1658,85
457,73	1802,21
457,93	1783,78
458,14	1695,72
458,34	1660,90
458,54	1714,15
458,75	1656,81
458,95	1855,46
459,15	1798,12
459,36	1751,01
459,56	1744,87
459,76	1800,16
459,97	1779,68
460,17	1648,61
460,37	1800,16
460,58	1771,49
460,78	1773,54
460,99	1671,14
461,19	1730,53
461,39	1640,42
461,60	1677,29
461,80	1771,49
462,00	1617,90
462,21	1697,77
462,41	1722,34
462,61	1665,00
462,82	1583,08
463,02	1761,25
463,22	1693,67
463,43	1798,12
463,63	1730,53
463,83	1746,92
464,04	1751,01
464,24	1675,24
464,44	1658,85
464,64	1738,73
464,85	1810,40
465,05	1824,74
465,25	1738,73
465,46	1642,47
465,66	1724,39
465,86	1794,02
466,07	1738,73
466,27	1718,25
466,47	1638,38
466,68	1634,28
466,88	1834,98
467,08	1746,92
467,29	1763,30
467,49	1816,55
467,69	1763,30
467,89	1677,29
468,10	1751,01
468,30	1730,53
468,50	1769,44
468,71	1734,63
468,91	1564,65
469,11	1818,60
469,31	1691,62
469,52	1650,66
469,72	1779,68
469,92	1787,88
470,13	1667,05
470,33	1748,97
470,53	1824,74
470,73	2113,50
470,94	2275,29
471,14	2244,57
471,34	2590,68
471,54	2365,40
471,75	2279,39
471,95	2224,09
472,15	2050,02
472,36	2060,26
472,56	2080,74
472,76	1974,24
472,96	2009,06
473,17	1992,67
473,37	1959,91
473,57	1767,40
473,77	1789,92
473,98	1650,66
474,18	1812,45
474,38	1925,09
474,58	1824,74
474,79	1667,05
474,99	1775,59
475,19	1738,73
475,39	1736,68
475,60	1759,21
475,80	1732,58
476,00	1724,39
476,20	1566,70
476,41	1738,73
476,61	1830,88
476,81	1814,50
477,01	1656,81
477,21	1863,65
477,42	1779,68
477,62	1677,29
477,82	1681,38
478,02	1685,48
478,23	1767,40
478,43	1712,10
478,63	1658,85
478,83	1726,44
479,03	1697,77
479,24	1818,60
479,44	1787,88
479,64	1636,33
479,84	1648,61
480,04	1673,19
480,25	1746,92
480,45	1654,76
480,65	1662,95
480,85	1734,63
481,06	1742,82
481,26	1765,35
481,46	1777,64
481,66	1757,16
481,86	1624,04
482,06	1800,16
482,27	1726,44
482,47	1759,21
482,67	1763,30
482,87	1693,67
483,07	1841,12
483,28	1705,96
483,48	1701,86
483,68	1763,30
483,88	1613,80
484,08	1615,85
484,29	1726,44
484,49	1683,43
484,69	1644,52
484,89	1824,74
485,09	1830,88
485,29	1726,44
485,50	1667,05
485,70	1697,77
485,90	1757,16
486,10	1689,57
486,30	1751,01
486,50	1775,59
486,71	1722,34
486,91	1765,35
487,11	1816,55
487,31	1677,29
487,51	1757,16
487,71	1628,14
487,91	1681,38
488,12	1693,67
488,32	1693,67
488,52	1685,48
488,72	1646,57
488,92	1734,63
489,12	1748,97
489,32	1738,73
489,53	1693,67
489,73	1624,04
489,93	1796,07
490,13	1714,15
490,33	1658,85
490,53	1791,97
490,73	1816,55
490,94	1669,09
491,14	1796,07
491,34	1877,99
491,54	2136,03
491,74	2549,72
491,94	2879,44
492,14	3012,56
492,34	3026,90
492,54	2832,34
492,75	2516,95
492,95	2420,70
493,15	2310,11
493,35	2320,35
493,55	2279,39
493,75	2078,69
493,95	2160,61
494,15	2050,02
494,35	1964,00
494,56	1845,22
494,76	1812,45
494,96	1806,31
495,16	1744,87
495,36	1710,05
495,56	1744,87
495,76	1771,49
495,96	1746,92
496,16	1699,81
496,36	1834,98
496,56	1734,63
496,77	1755,11
496,97	1804,26
497,17	1775,59
497,37	1738,73
497,57	1818,60
497,77	1679,33
497,97	1665,00
498,17	1765,35
498,37	1656,81
498,57	1757,16
498,77	1710,05
498,97	1734,63
499,17	1843,17
499,38	1662,95
499,58	1718,25
499,78	1759,21
499,98	1849,32
500,18	1751,01
500,38	1652,71
500,58	1992,67
500,78	2510,81
500,98	4468,67
501,18	5775,27
501,38	6711,19
501,58	7145,36
501,78	6715,29
501,98	5545,90
502,18	5048,24
502,38	4327,36
502,58	4167,62
502,78	3823,56
502,98	3592,14
503,18	3520,46
503,38	3162,06
503,59	2822,10
503,79	2650,07
503,99	2459,61
504,19	2246,62
504,39	2258,91
504,59	2246,62
504,79	2138,08
504,99	2078,69
505,19	1861,60
505,39	1929,19
505,59	1980,39
505,79	1914,85
505,99	1867,75
506,19	1828,84
506,39	1873,89
506,59	1785,83
506,79	1816,55
506,99	1894,37
507,19	1773,54
507,39	1781,73
507,59	1662,95
507,79	1720,29
507,99	1667,05
508,19	1771,49
508,39	1705,96
508,59	1724,39
508,79	1898,47
508,99	1834,98
509,19	1769,44
509,39	1697,77
509,59	1687,53
509,79	1677,29
509,99	1722,34
510,19	1814,50
510,39	1705,96
510,59	1736,68
510,79	1720,29
510,99	1765,35
511,19	1738,73
511,39	1767,40
511,59	1814,50
511,79	1775,59
511,99	1703,91
512,19	1824,74
512,38	1716,20
512,58	1779,68
512,78	1781,73
512,98	1744,87
513,18	1867,75
513,38	1701,86
513,58	1677,29
513,78	1748,97
513,98	1742,82
514,18	1757,16
514,38	1658,85
514,58	1677,29
514,78	1648,61
514,98	1613,80
515,18	1701,86
515,38	1691,62
515,58	1851,36
515,78	1621,99
515,98	1718,25
516,18	1810,40
516,38	1705,96
516,57	1736,68
516,77	1761,25
516,97	1810,40
517,17	1652,71
517,37	1644,52
517,57	1763,30
517,77	1843,17
517,97	1656,81
518,17	1771,49
518,37	1681,38
518,57	1687,53
518,77	1685,48
518,97	1748,97
519,16	1761,25
519,36	1796,07
519,56	1705,96
519,76	1771,49
519,96	1748,97
520,16	1939,43
520,36	1730,53
520,56	1744,87
520,76	1677,29
520,96	1683,43
521,16	1796,07
521,35	1794,02
521,55	1839,08
521,75	1714,15
521,95	1712,10
522,15	1728,49
522,35	1695,72
522,55	1669,09
522,75	1787,88
522,95	1763,30
523,14	1685,48
523,34	1779,68
523,54	1748,97
523,74	1763,30
523,94	1714,15
524,14	1697,77
524,34	1687,53
524,54	1794,02
524,73	1708,01
524,93	1832,93
525,13	1705,96
525,33	1681,38
525,53	1904,61
525,73	1748,97
525,93	1742,82
526,13	1742,82
526,32	1742,82
526,52	1775,59
526,72	1757,16
526,92	1722,34
527,12	1636,33
527,32	1716,20
527,52	1789,92
527,71	1771,49
527,91	1656,81
528,11	1705,96
528,31	1705,96
528,51	1751,01
528,71	1740,77
528,90	1728,49
529,10	1818,60
529,30	1787,88
529,50	1617,90
529,70	1689,57
529,90	1718,25
530,09	1720,29
530,29	1708,01
530,49	1667,05
530,69	1863,65
530,89	1660,90
531,09	1783,78
531,28	1744,87
531,48	1822,69
531,68	1722,34
531,88	1656,81
532,08	1873,89
532,28	1685,48
532,47	1783,78
532,67	1771,49
532,87	1775,59
533,07	1710,05
533,27	1755,11
533,46	1751,01
533,66	1691,62
533,86	1744,87
534,06	1734,63
534,26	1705,96
534,45	1736,68
534,65	1863,65
534,85	1787,88
535,05	1665,00
535,25	1771,49
535,44	1613,80
535,64	1810,40
535,84	1755,11
536,04	1691,62
536,24	1697,77
536,43	1652,71
536,63	1746,92
536,83	1703,91
537,03	1705,96
537,22	1660,90
537,42	1654,76
537,62	1767,40
537,82	1648,61
538,02	1837,03
538,21	1824,74
538,41	1939,43
538,61	1718,25
538,81	1716,20
539,00	1751,01
539,20	1687,53
539,40	1656,81
539,60	1767,40
539,79	1701,86
539,99	1759,21
540,19	1755,11
540,39	1845,22
540,58	1724,39
540,78	1828,84
540,98	1785,83
541,18	1859,56
541,37	1730,53
541,57	1806,31
541,77	1708,01
541,97	1679,33
542,16	1695,72
542,36	1712,10
542,56	1683,43
542,76	1839,08
542,95	1767,40
543,15	1734,63
543,35	1781,73
543,54	1665,00
543,74	1730,53
543,94	1759,21
544,14	1665,00
544,33	1755,11
544,53	1757,16
544,73	1665,00
544,93	1681,38
545,12	1697,77
545,32	1671,14
545,52	1757,16
545,71	1658,85
545,91	1671,14
546,11	1708,01
546,30	1621,99
546,50	1781,73
546,70	1841,12
546,90	1769,44
547,09	1689,57
547,29	1732,58
547,49	1812,45
547,68	1755,11
547,88	1677,29
548,08	1744,87
548,27	2160,61
548,47	1708,01
548,67	1683,43
548,87	1734,63
549,06	1763,30
549,26	1742,82
549,46	1781,73
549,65	1687,53
549,85	1738,73
550,05	1779,68
550,24	1581,03
550,44	1644,52
550,64	1769,44
550,83	1779,68
551,03	1847,27
551,23	1787,88
551,42	1693,67
551,62	1720,29
551,82	1742,82
552,01	1761,25
552,21	1730,53
552,41	1716,20
552,60	1826,79
552,80	1755,11
553,00	1703,91
553,19	1714,15
553,39	1837,03
553,59	1679,33
553,78	1722,34
553,98	1791,97
554,17	1683,43
554,37	1697,77
554,57	1814,50
554,76	1753,06
554,96	1697,77
555,16	1734,63
555,35	1738,73
555,55	1687,53
555,75	1742,82
555,94	1734,63
556,14	1605,61
556,33	1806,31
556,53	1689,57
556,73	1699,81
556,92	1820,64
557,12	1796,07
557,32	1839,08
557,51	1816,55
557,71	1783,78
557,90	1740,77
558,10	1845,22
558,30	1798,12
558,49	1740,77
558,69	1705,96
558,88	1767,40
559,08	1783,78
559,28	1732,58
559,47	1746,92
559,67	1791,97
559,86	1873,89
560,06	1712,10
560,26	1748,97
560,45	1781,73
560,65	1753,06
560,84	1820,64
561,04	1681,38
561,24	1798,12
561,43	1660,90
561,63	1820,64
561,82	1771,49
562,02	1705,96
562,22	1644,52
562,41	1701,86
562,61	1703,91
562,80	1669,09
563,00	1783,78
563,19	1861,60
563,39	1755,11
563,59	1828,84
563,78	1689,57
563,98	1626,09
564,17	1681,38
564,37	1636,33
564,56	1744,87
564,76	1656,81
564,96	1779,68
565,15	1800,16
565,35	1837,03
565,54	1748,97
565,74	1755,11
565,93	1742,82
566,13	1763,30
566,32	1724,39
566,52	1775,59
566,71	1763,30
566,91	1791,97
567,11	1722,34
567,30	1703,91
567,50	1763,30
567,69	1757,16
567,89	1679,33
568,08	1705,96
568,28	1710,05
568,47	1746,92
568,67	1769,44
568,86	1691,62
569,06	1830,88
569,25	1771,49
569,45	1669,09
569,64	1660,90
569,84	1632,23
570,04	1742,82
570,23	1581,03
570,43	1685,48
570,62	1748,97
570,82	1769,44
571,01	1689,57
571,21	1748,97
571,40	1603,56
571,60	1773,54
571,79	1708,01
571,99	1769,44
572,18	1726,44
572,38	1804,26
572,57	1673,19
572,77	1771,49
572,96	1855,46
573,16	1644,52
573,35	1716,20
573,55	1849,32
573,74	1705,96
573,94	1732,58
574,13	1761,25
574,33	1783,78
574,52	1832,93
574,71	1732,58
574,91	1744,87
575,10	1628,14
575,30	1724,39
575,49	1701,86
575,69	1679,33
575,88	1667,05
576,08	1746,92
576,27	1771,49
576,47	1685,48
576,66	1816,55
576,86	1804,26
577,05	1732,58
577,25	1800,16
577,44	1865,70
577,64	1701,86
577,83	1849,32
578,02	1701,86
578,22	1794,02
578,41	1880,04
578,61	1656,81
578,80	1718,25
579,00	1800,16
579,19	1753,06
579,39	1779,68
579,58	1785,83
579,77	1851,36
579,97	1796,07
580,16	1802,21
580,36	1726,44
580,55	1863,65
580,75	1814,50
580,94	1755,11
581,13	1818,60
581,33	1886,18
581,52	1730,53
581,72	1787,88
581,91	1880,04
582,11	1748,97
582,30	1753,06
582,49	1703,91
582,69	1861,60
582,88	1714,15
583,08	1689,57
583,27	1710,05
583,47	1814,50
583,66	1681,38
583,85	1681,38
584,05	1732,58
584,24	1785,83
584,44	1826,79
584,63	1818,60
584,82	1787,88
585,02	1824,74
585,21	1789,92
585,41	1841,12
585,60	1824,74
585,79	1943,52
585,99	1951,71
586,18	1896,42
586,37	2183,13
586,57	3430,35
586,76	9824,11
586,96	24467,08
587,15	34364,92
587,34	40611,22
587,54	42069,37
587,73	36824,53
587,93	26320,49
588,12	21716,66
588,31	18396,90
588,51	16363,27
588,70	15255,32
588,89	14239,53
589,09	12607,30
589,28	11040,60
589,47	9432,94
589,67	7997,32
589,86	6442,91
590,06	5015,48
590,25	3966,92
590,44	3067,86
590,64	2562,01
590,83	2254,81
591,02	2129,89
591,22	1912,80
591,41	1920,99
591,60	1837,03
591,80	1968,10
591,99	1779,68
592,18	1734,63
592,38	1767,40
592,57	1671,14
592,76	1740,77
592,96	1783,78
593,15	1755,11
593,34	1779,68
593,54	1728,49
593,73	1826,79
593,92	1806,31
594,12	1718,25
594,31	1705,96
594,50	1746,92
594,70	1732,58
594,89	1767,40
595,08	1677,29
595,28	1775,59
595,47	1918,95
595,66	1800,16
595,86	1712,10
596,05	1763,30
596,24	1701,86
596,43	1796,07
596,63	1822,69
596,82	1765,35
597,01	1777,64
597,21	1759,21
597,40	1847,27
597,59	1812,45
597,79	1724,39
597,98	1753,06
598,17	1697,77
598,36	1722,34
598,56	1816,55
598,75	1728,49
598,94	1712,10
599,14	1703,91
599,33	1755,11
599,52	1820,64
599,71	1699,81
599,91	1791,97
600,10	1824,74
600,29	1716,20
600,48	1808,36
600,68	1757,16
600,87	1732,58
601,06	1718,25
601,26	1814,50
601,45	1794,02
601,64	1716,20
601,83	1855,46
602,03	1681,38
602,22	1624,04
602,41	1744,87
602,60	1910,75
602,80	1769,44
602,99	1746,92
603,18	1748,97
603,37	1710,05
603,57	1685,48
603,76	1791,97
603,95	1769,44
604,14	1710,05
604,34	1710,05
604,53	1708,01
604,72	1742,82
604,91	1769,44
605,10	1779,68
605,30	1611,75
605,49	1816,55
605,68	1798,12
605,87	1701,86
606,07	1712,10
606,26	1798,12
606,45	1689,57
606,64	1759,21
606,84	1748,97
607,03	1718,25
607,22	1726,44
607,41	1730,53
607,60	1716,20
607,80	1796,07
607,99	1796,07
608,18	1697,77
608,37	1736,68
608,56	1697,77
608,76	1861,60
608,95	1875,94
609,14	1730,53
609,33	1822,69
609,52	1732,58
609,72	1769,44
609,91	1656,81
610,10	1685,48
610,29	1798,12
610,48	1716,20
610,68	1767,40
610,87	1673,19
611,06	1871,84
611,25	1761,25
611,44	1871,84
611,63	1718,25
611,83	1746,92
612,02	1656,81
612,21	1787,88
612,40	1699,81
612,59	1669,09
612,79	1708,01
612,98	1669,09
613,17	1853,41
613,36	1734,63
613,55	1730,53
613,74	1638,38
613,93	1685,48
614,13	1722,34
614,32	1673,19
614,51	1726,44
614,70	1703,91
614,89	1753,06
615,08	1744,87
615,28	2029,54
615,47	1669,09
615,66	1716,20
615,85	1691,62
616,04	1849,32
616,23	1726,44
616,42	1683,43
616,62	1712,10
616,81	1781,73
617,00	1730,53
617,19	1783,78
617,38	1740,77
617,57	1785,83
617,76	1732,58
617,95	1724,39
618,15	1671,14
618,34	1853,41
618,53	1683,43
618,72	1810,40
618,91	1812,45
619,10	1791,97
619,29	1757,16
619,48	1755,11
619,68	1671,14
619,87	1783,78
620,06	1679,33
620,25	1708,01
620,44	1689,57
620,63	1767,40
620,82	1685,48
621,01	1705,96
621,20	1763,30
621,39	1718,25
621,59	1693,67
621,78	1734,63
621,97	1732,58
622,16	1773,54
622,35	1724,39
622,54	1757,16
622,73	1736,68
622,92	1624,04
623,11	1757,16
623,30	1691,62
623,49	1779,68
623,68	1675,24
623,88	1804,26
624,07	1701,86
624,26	1728,49
624,45	1730,53
624,64	1679,33
624,83	1730,53
625,02	1667,05
625,21	1751,01
625,40	1732,58
625,59	1738,73
625,78	1734,63
625,97	1734,63
626,16	1839,08
626,35	1765,35
626,54	1777,64
626,74	1794,02
626,93	1654,76
627,12	1693,67
627,31	1757,16
627,50	1701,86
627,69	1759,21
627,88	1642,47
628,07	1720,29
628,26	1642,47
628,45	1665,00
628,64	1642,47
628,83	1744,87
629,02	1742,82
629,21	1722,34
629,40	1732,58
629,59	1656,81
629,78	1714,15
629,97	1675,24
630,16	1771,49
630,35	1714,15
630,54	1675,24
630,73	1677,29
630,92	1648,61
631,11	1714,15
631,30	1757,16
631,49	1738,73
631,68	1736,68
631,87	1808,36
632,06	1691,62
632,25	1841,12
632,44	1751,01
632,63	1619,94
632,82	1742,82
633,01	1679,33
633,20	1689,57
633,39	1667,05
633,58	1581,03
633,77	1777,64
633,96	1738,73
634,15	1787,88
634,34	1740,77
634,53	1820,64
634,72	1783,78
634,91	1662,95
635,10	1763,30
635,29	1781,73
635,48	1708,01
635,67	1671,14
635,86	1681,38
636,05	1812,45
636,24	1738,73
636,43	1759,21
636,62	1669,09
636,81	1589,22
637,00	1671,14
637,19	1765,35
637,38	1671,14
637,57	1613,80
637,76	1699,81
637,95	1703,91
638,14	1634,28
638,33	1705,96
638,52	1710,05
638,71	1646,57
638,89	1611,75
639,08	1859,56
639,27	1787,88
639,46	1626,09
639,65	1763,30
639,84	1693,67
640,03	1841,12
640,22	1716,20
640,41	1818,60
640,60	1656,81
640,79	1761,25
640,98	1708,01
641,17	1736,68
641,36	1720,29
641,55	1740,77
641,74	1634,28
641,92	1667,05
642,11	1669,09
642,30	1681,38
642,49	1613,80
642,68	1640,42
642,87	1697,77
643,06	1689,57
643,25	1665,00
643,44	1705,96
643,63	1740,77
643,82	1726,44
644,00	1665,00
644,19	1703,91
644,38	1665,00
644,57	1738,73
644,76	1748,97
644,95	1685,48
645,14	1751,01
645,33	1683,43
645,52	1785,83
645,71	1648,61
645,89	1617,90
646,08	1705,96
646,27	1656,81
646,46	1724,39
646,65	1640,42
646,84	1746,92
647,03	1681,38
647,22	1812,45
647,40	1716,20
647,59	1587,18
647,78	1544,17
647,97	1712,10
648,16	1691,62
648,35	1804,26
648,54	1796,07
648,73	1654,76
648,91	1697,77
649,10	1691,62
649,29	1660,90
649,48	1716,20
649,67	1671,14
649,86	1683,43
650,05	1609,70
650,23	1757,16
650,42	1695,72
650,61	1714,15
650,80	1667,05
650,99	1839,08
651,18	1669,09
651,36	1712,10
651,55	1724,39
651,74	1787,88
651,93	1761,25
652,12	1724,39
652,31	1802,21
652,49	1744,87
652,68	1669,09
652,87	1794,02
653,06	1693,67
653,25	1802,21
653,44	1693,67
653,62	1847,27
653,81	1730,53
654,00	1765,35
654,19	1800,16
654,38	1877,99
654,56	1755,11
654,75	1685,48
654,94	1732,58
655,13	1689,57
655,32	1744,87
655,51	1769,44
655,69	1685,48
655,88	1724,39
656,07	1607,66
656,26	1777,64
656,45	1632,23
656,63	1722,34
656,82	1767,40
657,01	1775,59
657,20	1632,23
657,38	1699,81
657,57	1710,05
657,76	1654,76
657,95	1775,59
658,14	1652,71
658,32	1689,57
658,51	1650,66
658,70	1781,73
658,89	1751,01
659,08	1730,53
659,26	1759,21
659,45	1607,66
659,64	1720,29
659,83	1683,43
660,01	1877,99
660,20	1757,16
660,39	1726,44
660,58	1626,09
660,76	1781,73
660,95	1703,91
661,14	1722,34
661,33	1654,76
661,51	1722,34
661,70	1708,01
661,89	1746,92
662,08	1740,77
662,26	1675,24
662,45	1703,91
662,64	1779,68
662,83	1738,73
663,01	1701,86
663,20	1697,77
663,39	1714,15
663,58	1658,85
663,76	1730,53
663,95	1763,30
664,14	1722,34
664,32	1673,19
664,51	1673,19
664,70	1595,37
664,89	1746,92
665,07	1697,77
665,26	1800,16
665,45	1665,00
665,64	1742,82
665,82	1665,00
666,01	1781,73
666,20	1703,91
666,38	1779,68
666,57	1775,59
666,76	2146,27
666,95	4431,80
667,13	10448,74
667,32	15273,75
667,51	17706,74
667,69	18927,33
667,88	17653,49
668,07	12533,57
668,25	9701,23
668,44	8095,62
668,63	7360,40
668,81	6883,22
669,00	6172,58
669,19	5738,41
669,38	5093,30
669,56	4458,43
669,75	3952,58
669,94	3395,53
670,12	2865,11
670,31	2586,58
670,50	2295,77
670,68	2070,50
670,87	1914,85
671,06	1804,26
671,24	1769,44
671,43	1785,83
671,62	1726,44
671,80	1738,73
671,99	1730,53
672,18	1705,96
672,36	1802,21
672,55	1632,23
672,74	1722,34
672,92	1736,68
673,11	1740,77
673,29	1611,75
673,48	1703,91
673,67	1712,10
673,85	1785,83
674,04	1691,62
674,23	1757,16
674,41	1816,55
674,60	1699,81
674,79	1683,43
674,97	1650,66
675,16	1726,44
675,34	1746,92
675,53	1689,57
675,72	1763,30
675,90	1832,93
676,09	1681,38
676,28	1740,77
676,46	1673,19
676,65	1753,06
676,83	1728,49
677,02	1767,40
677,21	1689,57
677,39	1677,29
677,58	1617,90
677,77	1705,96
677,95	1748,97
678,14	1665,00
678,32	1701,86
678,51	1697,77
678,70	1814,50
678,88	1691,62
679,07	1794,02
679,25	1675,24
679,44	1714,15
679,63	1738,73
679,81	1724,39
680,00	1789,92
680,18	1642,47
680,37	1728,49
680,55	1685,48
680,74	1654,76
680,93	1648,61
681,11	1699,81
681,30	1642,47
681,48	1773,54
681,67	1734,63
681,85	1720,29
682,04	1624,04
682,23	1753,06
682,41	1660,90
682,60	1671,14
682,78	1718,25
682,97	1603,56
683,15	1677,29
683,34	1732,58
683,53	1738,73
683,71	1662,95
683,90	1730,53
684,08	1757,16
684,27	1648,61
684,45	1755,11
684,64	1787,88
684,82	1726,44
685,01	1771,49
685,19	1728,49
685,38	1849,32
685,57	1695,72
685,75	1691,62
685,94	1660,90
686,12	1710,05
686,31	1755,11
686,49	1818,60
686,68	1624,04
686,86	1695,72
687,05	1644,52
687,23	1732,58
687,42	1638,38
687,60	1570,79
687,79	1755,11
687,97	1736,68
688,16	1812,45
688,34	1761,25
688,53	1640,42
688,71	1738,73
688,90	1724,39
689,08	1783,78
689,27	1689,57
689,45	1800,16
689,64	1722,34
689,82	1736,68
690,01	1738,73
690,19	1708,01
690,38	1763,30
690,56	1818,60
690,75	1658,85
690,93	1636,33
691,12	1636,33
691,30	1705,96
691,49	1755,11
691,67	1685,48
691,86	1851,36
692,04	1640,42
692,23	1634,28
692,41	1718,25
692,60	1789,92
692,78	1789,92
692,97	1638,38
693,15	1689,57
693,34	1830,88
693,52	1689,57
693,71	1693,67
693,89	1730,53
694,08	1681,38
694,26	1783,78
694,44	1693,67
694,63	1712,10
694,81	1607,66
695,00	1685,48
695,18	1810,40
695,37	1841,12
695,55	1738,73
695,74	1677,29
695,92	1708,01
696,10	1712,10
696,29	1699,81
696,47	1718,25
696,66	1646,57
696,84	1640,42
697,03	1669,09
697,21	1837,03
697,40	2238,43
697,58	1783,78
697,76	1740,77
697,95	1662,95
698,13	1675,24
698,32	1621,99
698,50	1621,99
698,68	1771,49
698,87	1744,87
699,05	1738,73
699,24	1669,09
699,42	1716,20
699,61	1751,01
699,79	1650,66
699,97	1726,44
700,16	1652,71
700,34	1693,67
700,53	1677,29
700,71	1759,21
700,89	1730,53
701,08	1714,15
701,26	1759,21
701,45	2127,84
701,63	1636,33
701,81	1687,53
702,00	1634,28
702,18	1714,15
702,37	1695,72
702,55	1744,87
702,73	1757,16
702,92	1617,90
703,10	1744,87
703,28	1742,82
703,47	1665,00
703,65	1783,78
703,84	1708,01
704,02	1722,34
704,20	1746,92
704,39	1695,72
704,57	1667,05
704,75	1796,07
704,94	1818,60
705,12	1771,49
705,30	1812,45
705,49	2226,14
705,67	4339,65
705,86	9369,46
706,04	12570,43
706,22	14509,86
706,41	15382,29
706,59	13719,34
706,77	9777,00
706,96	7378,83
707,14	6506,40
707,32	5937,06
707,51	5607,34
707,69	4767,67
707,87	4212,67
708,06	3579,85
708,24	2967,51
708,42	2430,94
708,61	2275,29
708,79	1841,12
708,97	1935,33
709,16	1822,69
709,34	1789,92
709,52	1769,44
709,71	1753,06
709,89	1755,11
710,07	1632,23
710,26	1695,72
710,44	1732,58
710,62	1705,96
710,80	1736,68
710,99	1771,49
711,17	1726,44
711,35	1644,52
711,54	1681,38
711,72	1824,74
711,90	1732,58
712,09	1654,76
712,27	1728,49
712,45	1783,78
712,63	1642,47
712,82	1652,71
713,00	1705,96
713,18	1673,19
713,37	1796,07
713,55	1673,19
713,73	1806,31
713,91	1705,96
714,10	1691,62
714,28	1693,67
714,46	1701,86
714,65	1703,91
714,83	1689,57
715,01	1712,10
715,19	1673,19
715,38	1662,95
715,56	1751,01
715,74	1660,90
715,92	1650,66
716,11	1744,87
716,29	1677,29
716,47	1669,09
716,65	1783,78
716,84	1566,70
717,02	1757,16
717,20	1566,70
717,38	1642,47
717,57	1742,82
717,75	1757,16
717,93	1724,39
718,11	1685,48
718,30	1765,35
718,48	1757,16
718,66	1791,97
718,84	1736,68
719,03	1730,53
719,21	1648,61
719,39	1843,17
719,57	1703,91
719,75	1734,63
719,94	1648,61
720,12	1708,01
720,30	1710,05
720,48	1710,05
720,67	1660,90
720,85	1667,05
721,03	1683,43
721,21	1701,86
721,39	1800,16
721,58	1660,90
721,76	1677,29
721,94	1794,02
722,12	1685,48
722,30	1794,02
722,49	1621,99
722,67	1759,21
722,85	1691,62
723,03	1611,75
723,21	1699,81
723,40	1691,62
723,58	1779,68
723,76	1716,20
723,94	1802,21
724,12	1722,34
724,30	1759,21
724,49	1677,29
724,67	1634,28
724,85	1716,20
725,03	1619,94
725,21	1775,59
725,40	1755,11
725,58	1685,48
725,76	1693,67
725,94	1755,11
726,12	1613,80
726,30	1730,53
726,49	1681,38
726,67	1679,33
726,85	1718,25
727,03	1806,31
727,21	2080,74
727,39	2803,67
727,57	3856,33
727,76	4255,68
727,94	4495,29
728,12	4351,93
728,30	3704,78
728,48	3065,81
728,66	2723,80
728,84	2555,86
729,03	2365,40
729,21	2086,88
729,39	2037,73
729,57	1804,26
729,75	1787,88
729,93	1845,22
730,11	1779,68
730,30	1734,63
730,48	1726,44
730,66	1796,07
730,84	1746,92
731,02	1693,67
731,20	1576,94
731,38	1751,01
731,56	1617,90
731,74	1691,62
731,93	1722,34
732,11	1708,01
732,29	1607,66
732,47	1703,91
732,65	1742,82
732,83	1802,21
733,01	1697,77
733,19	1673,19
733,37	1740,77
733,56	1714,15
733,74	1703,91
733,92	1787,88
734,10	1689,57
734,28	1757,16
734,46	1632,23
734,64	1726,44
734,82	1652,71
735,00	1697,77
735,18	1726,44
735,36	1800,16
735,54	1667,05
735,73	1636,33
735,91	1761,25
736,09	1683,43
736,27	1722,34
736,45	1681,38
736,63	1632,23
736,81	1675,24
736,99	1693,67
737,17	1808,36
737,35	1705,96
737,53	1640,42
737,71	1712,10
737,89	1734,63
738,07	1703,91
738,25	1687,53
738,43	1619,94
738,61	1648,61
738,80	1597,42
738,98	1591,27
739,16	1646,57
739,34	1687,53
739,52	1763,30
739,70	1689,57
739,88	1693,67
740,06	1746,92
740,24	1552,36
740,42	1828,84
740,60	1603,56
740,78	1710,05
740,96	1611,75
741,14	1669,09
741,32	1740,77
741,50	1578,98
741,68	1892,32
741,86	1771,49
742,04	1656,81
742,22	1689,57
742,40	1726,44
742,58	1751,01
742,76	1693,67
742,94	1761,25
743,12	1576,94
743,30	1624,04
743,48	1740,77
743,66	1732,58
743,84	1708,01
744,02	1714,15
744,20	1669,09
744,38	1611,75
744,56	1683,43
744,74	1738,73
744,92	1714,15
745,10	1804,26
745,28	1751,01
745,46	1796,07
745,64	1656,81
745,82	1722,34
746,00	1658,85
746,18	1791,97
746,36	1615,85
746,54	1669,09
746,72	1662,95
746,90	1720,29
747,08	1832,93
747,26	1671,14
747,44	1771,49
747,62	1779,68
747,80	1677,29
747,98	1714,15
748,15	1619,94
748,33	1820,64
748,51	1654,76
748,69	1794,02
748,87	1699,81
749,05	1732,58
749,23	1683,43
749,41	1720,29
749,59	1648,61
749,77	1732,58
749,95	1722,34
750,13	1662,95
750,31	1830,88
750,49	1705,96
750,67	1722,34
750,85	1763,30
751,03	1699,81
751,20	1781,73
751,38	1718,25
751,56	1673,19
751,74	1712,10
751,92	1714,15
752,10	1578,98
752,28	1759,21
752,46	1638,38
752,64	1650,66
752,82	1699,81
753,00	1740,77
753,18	1730,53
753,35	1593,32
753,53	1626,09
753,71	1677,29
753,89	1761,25
754,07	1697,77
754,25	1751,01
754,43	1802,21
754,61	1665,00
754,79	1683,43
754,97	1654,76
755,14	1857,51
755,32	1712,10
755,50	1718,25
755,68	1732,58
755,86	1691,62
756,04	1658,85
756,22	1613,80
756,40	1738,73
756,57	1783,78
756,75	1607,66
756,93	1757,16
757,11	1742,82
757,29	1624,04
757,47	1701,86
757,65	1642,47
757,82	1556,46
758,00	1638,38
758,18	1705,96
758,36	1599,46
758,54	1814,50
758,72	1677,29
758,90	1820,64
759,07	1683,43
759,25	1683,43
759,43	1810,40
759,61	1695,72
759,79	2152,42
759,97	1759,21
760,15	1669,09
760,32	1693,67
760,50	1693,67
760,68	1841,12
760,86	1603,56
761,04	1812,45
761,22	1751,01
761,39	1732,58
761,57	1701,86
761,75	1720,29
761,93	1693,67
762,11	1673,19
762,28	1734,63
762,46	1757,16
762,64	1755,11
762,82	1630,18
763,00	1693,67
763,18	1787,88
763,35	1615,85
763,53	1794,02
763,71	1712,10
763,89	1701,86
764,07	1691,62
764,24	1728,49
764,42	1761,25
764,60	1660,90
764,78	1687,53
764,96	1771,49
765,13	1734,63
765,31	1714,15
765,49	1693,67
765,67	1724,39
765,84	1728,49
766,02	1638,38
766,20	1626,09
766,38	1789,92
766,56	1757,16
766,73	1720,29
766,91	1656,81
767,09	1644,52
767,27	1732,58
767,44	1685,48
767,62	1712,10
767,80	1705,96
767,98	1656,81
768,15	1734,63
768,33	1726,44
768,51	1759,21
768,69	1689,57
768,87	1710,05
769,04	1656,81
769,22	1828,84
769,40	1777,64
769,58	1773,54
769,75	1744,87
769,93	1767,40
770,11	1624,04
770,28	1699,81
770,46	1660,90
770,64	1714,15
770,82	1656,81
770,99	1714,15
771,17	1761,25
771,35	1667,05
771,53	1703,91
771,70	1673,19
771,88	1751,01
772,06	1705,96
772,23	1710,05
772,41	1771,49
772,59	1644,52
772,77	1681,38
772,94	1708,01
773,12	1708,01
773,30	1605,61
773,47	1681,38
773,65	1662,95
773,83	1800,16
774,01	1751,01
774,18	1574,89
774,36	1644,52
774,54	1693,67
774,71	1640,42
774,89	1587,18
775,07	1615,85
775,24	1640,42
775,42	1656,81
775,60	1779,68
775,78	1562,60
775,95	1656,81
776,13	1636,33
776,31	1628,14
776,48	1730,53
776,66	1759,21
776,84	1607,66
777,01	1646,57
777,19	1683,43
777,37	1630,18
777,54	1757,16
777,72	1812,45
777,90	1751,01
778,07	1595,37
778,25	1865,70
778,43	1857,51
778,60	1605,61
778,78	1787,88
778,96	1832,93
779,13	1648,61
779,31	1753,06
779,49	1697,77
779,66	1693,67
779,84	1740,77
780,01	1607,66
780,19	1677,29
780,37	1726,44
780,54	1714,15
780,72	1683,43
780,90	1675,24
781,07	1671,14
781,25	1763,30
781,43	1708,01
781,60	1699,81
781,78	1703,91
781,95	1695,72
782,13	1701,86
782,31	1652,71
782,48	1566,70
782,66	1716,20
782,83	1783,78
783,01	1732,58
783,19	1712,10
783,36	1695,72
783,54	1687,53
783,72	1804,26
783,89	1656,81
784,07	1703,91
784,24	1746,92
784,42	1810,40
784,60	1746,92
784,77	1648,61
784,95	1568,74
785,12	1697,77
785,30	1798,12
785,47	1630,18
785,65	1671,14
785,83	1703,91
786,00	1703,91
786,18	1667,05
786,35	1566,70
786,53	1593,32
786,71	1755,11
786,88	1779,68
787,06	1769,44
787,23	1763,30
787,41	1693,67
787,58	1701,86
787,76	1662,95
787,94	1712,10
788,11	1683,43
788,29	1675,24
788,46	1611,75
788,64	1673,19
788,81	1609,70
788,99	1628,14
789,16	1665,00
789,34	1714,15
789,52	1632,23
789,69	1738,73
789,87	1593,32
790,04	1681,38
790,22	1710,05
790,39	1802,21
790,57	1654,76
790,74	1677,29
790,92	1732,58
791,09	1638,38
791,27	1648,61
791,44	1791,97
791,62	1714,15
791,79	1693,67
791,97	1683,43
792,15	1789,92
792,32	1779,68
792,50	1685,48
792,67	1824,74
792,85	1734,63
793,02	1697,77
793,20	1630,18
793,37	1658,85
793,55	1685,48
793,72	1675,24
793,90	1742,82
794,07	1705,96
794,25	1665,00
794,42	1773,54
794,60	1683,43
794,77	1718,25
794,95	1730,53
795,12	1748,97
795,30	1685,48
795,47	1595,37
795,65	1847,27
795,82	1710,05
796,00	1677,29
796,17	1720,29
796,34	1660,90
796,52	1687,53
796,69	1742,82
796,87	1742,82
797,04	1724,39
797,22	1771,49
797,39	1656,81
797,57	1753,06
797,74	1724,39
797,92	1722,34
798,09	1693,67
798,27	1814,50
798,44	1781,73
798,62	1652,71
798,79	1683,43
798,96	1710,05
799,14	1621,99
799,31	1783,78
799,49	1648,61
799,66	1656,81
799,84	1693,67
800,01	1628,14
800,19	1716,20
800,36	1540,07
800,53	1798,12
800,71	1669,09
800,88	1755,11
801,06	1632,23
801,23	1761,25
801,41	1669,09
801,58	1615,85
801,75	1681,38
801,93	1714,15
802,10	1806,31
802,28	1708,01
802,45	1669,09
802,63	1728,49
802,80	1804,26
802,97	1712,10
803,15	1626,09
803,32	1642,47
803,50	1626,09
803,67	1662,95
803,84	1632,23
804,02	1607,66
804,19	1650,66
804,37	1619,94
804,54	1617,90
804,71	1599,46
804,89	1736,68
805,06	1673,19
805,24	1609,70
805,41	1708,01
805,58	1615,85
805,76	1925,09
805,93	1720,29
806,10	1716,20
806,28	1669,09
806,45	1738,73
806,63	1730,53
806,80	1746,92
806,97	1748,97
807,15	1703,91
807,32	1732,58
807,49	1779,68
807,67	1624,04
807,84	1679,33
808,01	1644,52
808,19	1820,64
808,36	1882,08
808,54	1740,77
808,71	1628,14
808,88	1732,58
809,06	1697,77
809,23	1822,69
809,40	1736,68
809,58	1705,96
809,75	1726,44
809,92	1644,52
810,10	1857,51
810,27	1722,34
810,44	1619,94
810,62	1777,64
810,79	1648,61
810,96	1634,28
811,14	1716,20
811,31	1738,73
811,48	1761,25
811,66	1638,38
811,83	1812,45
812,00	1685,48
812,18	1767,40
812,35	1703,91
812,52	1630,18
812,69	1642,47
812,87	1705,96
813,04	1609,70
813,21	1644,52
813,39	1701,86
813,56	1585,13
813,73	1714,15
813,91	1689,57
814,08	1761,25
814,25	1714,15
814,42	1611,75
814,60	1716,20
814,77	1744,87
814,94	1677,29
815,12	1693,67
815,29	1773,54
815,46	1730,53
815,63	1703,91
815,81	1658,85
815,98	1675,24
816,15	1767,40
816,33	1699,81
816,50	1669,09
816,67	1710,05
816,84	1667,05
817,02	1617,90
817,19	1701,86
817,36	1767,40
817,53	1675,24
817,71	1671,14
817,88	1679,33
818,05	1665,00
818,22	1697,77
818,40	1826,79
818,57	1740,77
818,74	1652,71
818,91	1691,62
819,09	1724,39
819,26	1718,25
819,43	1748,97
819,60	1685,48
819,78	1699,81
819,95	1777,64
820,12	1673,19
820,29	1771,49
820,47	1710,05
820,64	1755,11
820,81	1564,65
820,98	1583,08
821,15	1681,38
821,33	1673,19
821,50	1542,12
821,67	1732,58
821,84	1691,62
822,02	1701,86
822,19	1769,44
822,36	1677,29
822,53	1734,63
822,70	1652,71
822,88	1636,33
823,05	1818,60
823,22	1642,47
823,39	1757,16
823,56	1677,29
823,74	1808,36
823,91	1595,37
824,08	1619,94
824,25	1638,38
824,42	1882,08
824,60	1597,42
824,77	1806,31
824,94	1738,73
825,11	1681,38
825,28	1673,19
825,45	1681,38
825,63	1689,57
825,80	1683,43
825,97	1728,49
826,14	1730,53
826,31	1599,46
826,48	1636,33
826,66	1677,29
826,83	1621,99
827,00	1658,85
827,17	1683,43
827,34	1656,81
827,51	1712,10
827,69	1652,71
827,86	1624,04
828,03	1675,24
828,20	1708,01
828,37	1681,38
828,54	1667,05
828,71	1628,14
828,89	1773,54
829,06	1693,67
829,23	1822,69
829,40	1591,27
829,57	1652,71
829,74	1703,91
829,91	1701,86
830,09	1656,81
830,26	1701,86
830,43	1767,40
830,60	1675,24
830,77	1757,16
830,94	1716,20
831,11	1769,44
831,28	1650,66
831,46	1738,73
831,63	1665,00
831,80	1802,21
831,97	1691,62
832,14	1644,52
832,31	1751,01
832,48	1734,63
832,65	1759,21
832,82	1716,20
832,99	1759,21
833,17	1687,53
833,34	1834,98
833,51	1691,62
833,68	1628,14
833,85	1673,19
834,02	1693,67
834,19	1632,23
834,36	1648,61
834,53	1726,44
834,70	1798,12
834,87	1785,83
835,04	1662,95
835,22	1619,94
835,39	1755,11
835,56	1656,81
835,73	1640,42
835,90	1736,68
836,07	1638,38
836,24	1609,70
836,41	1658,85
836,58	1650,66
836,75	1751,01
836,92	1738,73
837,09	1681,38
837,26	1716,20
837,43	1689,57
837,60	1644,52
837,77	1681,38
837,94	1705,96
838,12	1777,64
838,29	1746,92
838,46	1638,38
838,63	1722,34
838,80	1849,32
838,97	1761,25
839,14	1640,42
839,31	1730,53
839,48	1689,57
839,65	1701,86
839,82	1697,77
839,99	1757,16
840,16	1716,20
840,33	1675,24
840,50	1728,49
840,67	1615,85
840,84	1599,46
841,01	1662,95
841,18	1689,57
841,35	1671,14
841,52	1785,83
841,69	1726,44
841,86	1730,53
842,03	1648,61
842,20	1736,68
842,37	1632,23
842,54	1644,52
842,71	1665,00
842,88	1685,48
843,05	1722,34
843,22	1679,33
843,39	1777,64
843,56	1705,96
843,73	1806,31
843,90	1761,25
844,07	1757,16
844,24	1648,61
844,41	1791,97
844,58	1697,77
844,75	1734,63
844,92	1699,81
845,09	1693,67
845,26	1613,80
845,43	1693,67
845,60	1685,48
845,77	1681,38
845,94	1656,81
846,10	1716,20
846,27	1673,19
846,44	1716,20
846,61	1626,09
846,78	1755,11
846,95	1781,73
847,12	1675,24
847,29	1683,43
847,46	1621,99
847,63	1738,73
847,80	1667,05
847,97	1718,25
848,14	1761,25
848,31	1636,33
848,48	1611,75
848,65	1746,92
848,82	1607,66
848,98	1783,78
849,15	1755,11
849,32	1755,11
849,49	1763,30
849,66	1679,33
849,83	1703,91
850,00	1697,77
850,17	1722,34
850,34	1738,73
850,51	1718,25
850,68	1632,23
850,85	1820,64
851,01	1689,57
851,18	1671,14
851,35	1675,24
851,52	1728,49
851,69	1812,45
851,86	1595,37
852,03	1673,19
852,20	1720,29
852,37	1726,44
852,53	1624,04
852,70	1744,87
852,87	1740,77
853,04	1720,29
853,21	1673,19
853,38	1753,06
853,55	1693,67
853,72	1718,25
853,89	1648,61
854,05	1656,81
854,22	1710,05
854,39	1671,14
854,56	1679,33
854,73	1724,39
854,90	1687,53
855,07	1722,34
855,23	1730,53
855,40	1689,57
855,57	1665,00
855,74	1642,47
855,91	1830,88
856,08	1640,42
856,25	1640,42
856,41	1640,42
856,58	1665,00
856,75	1705,96
856,92	1656,81
857,09	1726,44
857,26	1576,94
857,42	1708,01
857,59	1724,39
857,76	1662,95
857,93	1701,86
858,10	1720,29
858,27	1640,42
858,43	1685,48
858,60	1662,95
858,77	1669,09
858,94	1648,61
859,11	1791,97
859,27	1650,66
859,44	1697,77
859,61	1761,25
859,78	1681,38
859,95	1697,77
860,12	1662,95
860,28	1738,73
860,45	1837,03
860,62	1634,28
860,79	1722,34
860,95	1640,42
861,12	1607,66
861,29	1603,56
861,46	1691,62
861,63	1722,34
861,79	1781,73
861,96	1599,46
862,13	1660,90
862,30	1701,86
862,47	1634,28
862,63	1669,09
862,80	1730,53
862,97	1744,87
863,14	1679,33
863,30	1732,58
863,47	1642,47
863,64	1787,88
863,81	1722,34
863,97	1714,15
864,14	1746,92
864,31	1642,47
864,48	1708,01
864,65	1693,67
864,81	1771,49
864,98	1677,29
865,15	1660,90
865,32	1761,25
865,48	1794,02
865,65	1806,31
865,82	1710,05
865,98	1814,50
866,15	1697,77
866,32	1683,43
866,49	1732,58
866,65	1800,16
866,82	1687,53
866,99	1771,49
867,16	1697,77
867,32	1650,66
867,49	1609,70
867,66	1697,77
867,83	1667,05
867,99	1542,12
868,16	1671,14
868,33	1705,96
868,49	1701,86
868,66	1654,76
868,83	1746,92
868,99	1734,63
869,16	1693,67
869,33	1724,39
869,50	1714,15
869,66	1718,25
869,83	1705,96
870,00	1705,96
870,16	1665,00
870,33	1738,73
870,50	1615,85
870,66	1642,47
870,83	1751,01
871,00	1744,87
871,17	1693,67
871,33	1716,20
871,50	1642,47
871,67	1761,25
871,83	1689,57
872,00	1804,26
872,17	1613,80
872,33	1783,78
872,50	1734,63
872,67	1660,90
872,83	1716,20
873,00	1736,68
873,17	1683,43
873,33	1755,11
873,50	1714,15
873,67	1671,14
873,83	1665,00
874,00	1654,76
874,16	1765,35
874,33	1712,10
874,50	1619,94
874,66	1685,48
874,83	1691,62
875,00	1800,16
875,16	1726,44
875,33	1779,68
875,50	1640,42
875,66	1779,68
875,83	1646,57
875,99	1748,97
876,16	1701,86
876,33	1665,00
876,49	1677,29
876,66	1798,12
876,83	1708,01
876,99	1507,30
877,16	1697,77
877,32	1640,42
877,49	1611,75
877,66	1671,14
877,82	1728,49
877,99	1671,14
878,15	1769,44
878,32	1804,26
878,49	1691,62
878,65	1632,23
878,82	1777,64
878,98	1683,43
879,15	1751,01
879,32	1720,29
879,48	1681,38
879,65	1679,33
879,81	1646,57
879,98	1654,76
880,15	1634,28
880,31	1665,00
880,48	1644,52
880,64	1681,38
880,81	1736,68
880,97	1884,13
881,14	1728,49
881,31	1642,47
881,47	1800,16
881,64	1699,81
881,80	1634,28
881,97	1697,77
882,13	1771,49
882,30	1634,28
882,47	1689,57
882,63	1576,94
882,80	1685,48
882,96	1636,33
883,13	1818,60
883,29	1720,29
883,46	1763,30
883,62	1757,16
883,79	1654,76
883,95	1730,53
884,12	1658,85
884,29	1703,91
884,45	1720,29
884,62	1712,10
884,78	1691,62
884,95	1773,54
885,11	1730,53
885,28	1753,06
885,44	1669,09
885,61	1652,71
885,77	1802,21
885,94	1720,29
886,10	1650,66
886,27	1734,63
886,43	1789,92
886,60	1748,97
886,76	1705,96
886,93	1599,46
887,09	1691,62
887,26	1654,76
887,42	1710,05
887,59	1705,96
887,75	1843,17
887,92	1712,10
888,08	1751,01
888,25	1767,40
888,41	1814,50
888,58	1701,86
888,74	1705,96
888,91	1738,73
>>>>>End Processed Spectral Data<<<<<
