SpectraSuite Data File
++++++++++++++++++++++++++++++++++++
Date: Mon Jun 06 17:29:17 CEST 2016
User: root
Dark Spectrum Present: No
Reference Spectrum Present: No
Number of Sampled Component Spectra: 1
Spectrometers: USB4C02835
Integration Time (usec): 100000 (USB4C02835)
Spectra Averaged: 1 (USB4C02835)
Boxcar Smoothing: 0 (USB4C02835)
Correct for Electrical Dark: No (USB4C02835)
Strobe/Lamp Enabled: No (USB4C02835)
Correct for Detector Non-linearity: No (USB4C02835)
Correct for Stray Light: No (USB4C02835)
Number of Pixels in Processed Spectrum: 3648
>>>>>Begin Processed Spectral Data<<<<<
177,47	1445,87
177,69	1445,87
177,91	1445,87
178,13	1492,97
178,36	1505,26
178,58	1642,47
178,80	1697,77
179,02	1677,29
179,24	1613,80
179,46	1695,72
179,68	1765,35
179,90	1767,40
180,13	1699,81
180,35	1662,95
180,57	1718,25
180,79	1710,05
181,01	1751,01
181,23	1787,88
181,45	1779,68
181,67	1718,25
181,90	1728,49
182,12	1712,10
182,34	1644,52
182,56	1744,87
182,78	1742,82
183,00	1689,57
183,22	1712,10
183,44	1671,14
183,66	1927,14
183,89	1818,60
184,11	1771,49
184,33	1789,92
184,55	1800,16
184,77	1714,15
184,99	1779,68
185,21	1628,14
185,43	1773,54
185,65	1650,66
185,87	1755,11
186,10	1906,66
186,32	1810,40
186,54	1771,49
186,76	1751,01
186,98	1761,25
187,20	1708,01
187,42	1740,77
187,64	1761,25
187,86	1748,97
188,08	1873,89
188,30	1726,44
188,52	1732,58
188,75	1810,40
188,97	1759,21
189,19	1689,57
189,41	1599,46
189,63	1744,87
189,85	1738,73
190,07	1685,48
190,29	1652,71
190,51	1689,57
190,73	1605,61
190,95	1751,01
191,17	1699,81
191,39	1642,47
191,61	1728,49
191,84	1730,53
192,06	1683,43
192,28	1619,94
192,50	1927,14
192,72	1751,01
192,94	1671,14
193,16	1765,35
193,38	1742,82
193,60	1589,22
193,82	1691,62
194,04	1771,49
194,26	1675,24
194,48	1718,25
194,70	1712,10
194,92	1642,47
195,14	1759,21
195,36	1716,20
195,58	1722,34
195,80	1808,36
196,02	1742,82
196,24	1654,76
196,46	1791,97
196,69	1681,38
196,91	1849,32
197,13	1619,94
197,35	1718,25
197,57	1816,55
197,79	1759,21
198,01	1671,14
198,23	1738,73
198,45	1732,58
198,67	1673,19
198,89	1638,38
199,11	1697,77
199,33	1628,14
199,55	1621,99
199,77	1697,77
199,99	1751,01
200,21	1751,01
200,43	1742,82
200,65	1662,95
200,87	1675,24
201,09	1677,29
201,31	1718,25
201,53	1773,54
201,75	1763,30
201,97	1738,73
202,19	1744,87
202,41	1753,06
202,63	1773,54
202,85	1806,31
203,07	1765,35
203,29	1728,49
203,51	1728,49
203,73	1740,77
203,95	1861,60
204,17	1757,16
204,39	1822,69
204,61	1665,00
204,83	1669,09
205,05	1751,01
205,27	1767,40
205,49	1798,12
205,71	1619,94
205,93	1685,48
206,15	1632,23
206,37	1710,05
206,59	1658,85
206,81	1744,87
207,03	1619,94
207,25	1648,61
207,47	1757,16
207,69	1624,04
207,91	1765,35
208,13	1787,88
208,34	1726,44
208,56	1642,47
208,78	1697,77
209,00	1787,88
209,22	1689,57
209,44	1652,71
209,66	1732,58
209,88	1763,30
210,10	1710,05
210,32	1683,43
210,54	1779,68
210,76	1665,00
210,98	1691,62
211,20	1634,28
211,42	1701,86
211,64	1816,55
211,86	1857,51
212,08	1708,01
212,30	1714,15
212,52	1699,81
212,74	1669,09
212,96	1734,63
213,17	1738,73
213,39	1665,00
213,61	1765,35
213,83	1683,43
214,05	1681,38
214,27	1728,49
214,49	1634,28
214,71	1644,52
214,93	1779,68
215,15	1728,49
215,37	1767,40
215,59	1685,48
215,81	1722,34
216,03	1732,58
216,24	1789,92
216,46	1691,62
216,68	1714,15
216,90	1669,09
217,12	1822,69
217,34	1779,68
217,56	1748,97
217,78	1775,59
218,00	1746,92
218,22	1693,67
218,44	1714,15
218,66	1753,06
218,87	1882,08
219,09	1685,48
219,31	1746,92
219,53	1691,62
219,75	1667,05
219,97	1716,20
220,19	1730,53
220,41	1683,43
220,63	1785,83
220,85	1734,63
221,06	1693,67
221,28	1798,12
221,50	1796,07
221,72	1677,29
221,94	1701,86
222,16	1748,97
222,38	1736,68
222,60	1794,02
222,82	1642,47
223,03	1761,25
223,25	1679,33
223,47	1814,50
223,69	1849,32
223,91	1687,53
224,13	1789,92
224,35	1718,25
224,57	1826,79
224,78	1705,96
225,00	1703,91
225,22	1599,46
225,44	1697,77
225,66	1783,78
225,88	1712,10
226,10	1746,92
226,32	1728,49
226,53	1839,08
226,75	1705,96
226,97	1785,83
227,19	1701,86
227,41	1654,76
227,63	1714,15
227,85	1669,09
228,06	1689,57
228,28	1732,58
228,50	1798,12
228,72	1615,85
228,94	1683,43
229,16	1593,32
229,37	1650,66
229,59	1675,24
229,81	1720,29
230,03	1607,66
230,25	1617,90
230,47	1689,57
230,69	1671,14
230,90	1697,77
231,12	1689,57
231,34	1759,21
231,56	1824,74
231,78	1691,62
232,00	1660,90
232,21	1769,44
232,43	1701,86
232,65	1658,85
232,87	1800,16
233,09	1679,33
233,30	1667,05
233,52	1769,44
233,74	1710,05
233,96	1742,82
234,18	1699,81
234,40	1785,83
234,61	1865,70
234,83	1638,38
235,05	1611,75
235,27	1816,55
235,49	1738,73
235,70	1771,49
235,92	1794,02
236,14	1730,53
236,36	1861,60
236,58	1726,44
236,79	1722,34
237,01	1767,40
237,23	1675,24
237,45	1789,92
237,67	1677,29
237,88	1763,30
238,10	1806,31
238,32	1687,53
238,54	1720,29
238,76	1714,15
238,97	1675,24
239,19	1632,23
239,41	1697,77
239,63	1675,24
239,85	1687,53
240,06	1726,44
240,28	1634,28
240,50	1714,15
240,72	1714,15
240,93	1755,11
241,15	1736,68
241,37	1705,96
241,59	1814,50
241,81	1716,20
242,02	1708,01
242,24	1761,25
242,46	1656,81
242,68	1699,81
242,89	1761,25
243,11	1789,92
243,33	1687,53
243,55	1681,38
243,76	1677,29
243,98	1701,86
244,20	1718,25
244,42	1742,82
244,64	1689,57
244,85	1675,24
245,07	1761,25
245,29	1732,58
245,51	1726,44
245,72	1796,07
245,94	1820,64
246,16	1755,11
246,38	1775,59
246,59	1691,62
246,81	1691,62
247,03	1632,23
247,24	1648,61
247,46	1708,01
247,68	1740,77
247,90	1728,49
248,11	1697,77
248,33	1818,60
248,55	1716,20
248,77	1673,19
248,98	1710,05
249,20	1843,17
249,42	1658,85
249,64	1818,60
249,85	1781,73
250,07	1660,90
250,29	1800,16
250,50	1800,16
250,72	1624,04
250,94	1718,25
251,16	1771,49
251,37	1832,93
251,59	1720,29
251,81	1744,87
252,02	1755,11
252,24	1689,57
252,46	1734,63
252,68	1722,34
252,89	1683,43
253,11	1578,98
253,33	1755,11
253,54	1728,49
253,76	1697,77
253,98	1685,48
254,20	1705,96
254,41	1591,27
254,63	1761,25
254,85	1718,25
255,06	1787,88
255,28	1751,01
255,50	1658,85
255,71	1648,61
255,93	1568,74
256,15	1654,76
256,36	1830,88
256,58	1751,01
256,80	1775,59
257,02	1726,44
257,23	1718,25
257,45	1708,01
257,67	1802,21
257,88	1624,04
258,10	1755,11
258,32	1746,92
258,53	1705,96
258,75	1871,84
258,97	1730,53
259,18	1712,10
259,40	1746,92
259,62	1855,46
259,83	1843,17
260,05	1796,07
260,27	1935,33
260,48	1800,16
260,70	1626,09
260,92	1671,14
261,13	1716,20
261,35	1654,76
261,57	1740,77
261,78	1687,53
262,00	1615,85
262,22	1771,49
262,43	1591,27
262,65	1718,25
262,86	1765,35
263,08	1843,17
263,30	1740,77
263,51	1652,71
263,73	1732,58
263,95	1781,73
264,16	1726,44
264,38	1689,57
264,60	1775,59
264,81	1652,71
265,03	1751,01
265,25	1763,30
265,46	1677,29
265,68	1810,40
265,89	1765,35
266,11	1621,99
266,33	1703,91
266,54	1742,82
266,76	1781,73
266,98	1755,11
267,19	1748,97
267,41	1722,34
267,62	1765,35
267,84	1714,15
268,06	1726,44
268,27	1695,72
268,49	1769,44
268,70	1740,77
268,92	1675,24
269,14	1681,38
269,35	1673,19
269,57	1720,29
269,79	1669,09
270,00	1716,20
270,22	1714,15
270,43	1699,81
270,65	1617,90
270,87	1693,67
271,08	1738,73
271,30	1822,69
271,51	1710,05
271,73	1759,21
271,95	1718,25
272,16	1720,29
272,38	1748,97
272,59	1679,33
272,81	1755,11
273,02	1736,68
273,24	1742,82
273,46	1759,21
273,67	1724,39
273,89	1677,29
274,10	1640,42
274,32	1742,82
274,54	1705,96
274,75	1728,49
274,97	1683,43
275,18	1726,44
275,40	1744,87
275,61	1783,78
275,83	1730,53
276,05	1619,94
276,26	1675,24
276,48	1763,30
276,69	1675,24
276,91	1660,90
277,12	1730,53
277,34	1740,77
277,55	1783,78
277,77	1738,73
277,99	1724,39
278,20	1599,46
278,42	1597,42
278,63	1660,90
278,85	1751,01
279,06	1656,81
279,28	1787,88
279,49	1740,77
279,71	1734,63
279,93	1746,92
280,14	1650,66
280,36	1648,61
280,57	1759,21
280,79	1769,44
281,00	1638,38
281,22	1628,14
281,43	1785,83
281,65	1652,71
281,86	1681,38
282,08	1740,77
282,29	1818,60
282,51	1632,23
282,73	1640,42
282,94	1597,42
283,16	1724,39
283,37	1849,32
283,59	1675,24
283,80	1705,96
284,02	1673,19
284,23	1732,58
284,45	1714,15
284,66	1665,00
284,88	1742,82
285,09	1761,25
285,31	1746,92
285,52	1740,77
285,74	1648,61
285,95	1742,82
286,17	1634,28
286,38	1724,39
286,60	1673,19
286,81	1656,81
287,03	1724,39
287,24	1654,76
287,46	1794,02
287,67	1740,77
287,89	1894,37
288,10	1804,26
288,32	1693,67
288,53	1779,68
288,75	1736,68
288,96	1761,25
289,18	1683,43
289,39	1763,30
289,61	1689,57
289,82	1839,08
290,04	1847,27
290,25	1712,10
290,47	1751,01
290,68	1710,05
290,90	1777,64
291,11	1640,42
291,33	1738,73
291,54	1665,00
291,76	1648,61
291,97	1722,34
292,18	1761,25
292,40	1708,01
292,61	1724,39
292,83	1847,27
293,04	1734,63
293,26	1744,87
293,47	1667,05
293,69	1726,44
293,90	1656,81
294,12	1769,44
294,33	1712,10
294,55	1751,01
294,76	1757,16
294,97	1748,97
295,19	1820,64
295,40	1636,33
295,62	1699,81
295,83	1785,83
296,05	1626,09
296,26	1798,12
296,48	1609,70
296,69	1763,30
296,90	1796,07
297,12	1746,92
297,33	1775,59
297,55	1744,87
297,76	1773,54
297,98	1732,58
298,19	1697,77
298,41	1722,34
298,62	1656,81
298,83	1769,44
299,05	1755,11
299,26	1636,33
299,48	1679,33
299,69	1734,63
299,90	1746,92
300,12	1644,52
300,33	1863,65
300,55	1716,20
300,76	1697,77
300,98	1642,47
301,19	1759,21
301,40	1683,43
301,62	1697,77
301,83	1718,25
302,05	1660,90
302,26	1669,09
302,47	1748,97
302,69	1669,09
302,90	1687,53
303,12	1642,47
303,33	1820,64
303,54	1941,47
303,76	1697,77
303,97	1689,57
304,19	1871,84
304,40	1673,19
304,61	1615,85
304,83	1855,46
305,04	1777,64
305,26	1794,02
305,47	1751,01
305,68	1665,00
305,90	1652,71
306,11	1761,25
306,33	1763,30
306,54	1671,14
306,75	1683,43
306,97	1566,70
307,18	1675,24
307,39	1724,39
307,61	1708,01
307,82	1687,53
308,04	1802,21
308,25	1654,76
308,46	1740,77
308,68	1728,49
308,89	1660,90
309,10	1767,40
309,32	1755,11
309,53	1681,38
309,74	1687,53
309,96	1705,96
310,17	1800,16
310,39	1712,10
310,60	1773,54
310,81	1656,81
311,03	1652,71
311,24	1744,87
311,45	1738,73
311,67	1798,12
311,88	1787,88
312,09	1634,28
312,31	1689,57
312,52	1728,49
312,73	1722,34
312,95	1652,71
313,16	1710,05
313,37	1751,01
313,59	1740,77
313,80	1644,52
314,01	1814,50
314,23	1685,48
314,44	1740,77
314,65	1675,24
314,87	1656,81
315,08	1703,91
315,29	1662,95
315,51	1613,80
315,72	1632,23
315,93	1736,68
316,15	1716,20
316,36	1611,75
316,57	1685,48
316,79	1689,57
317,00	1695,72
317,21	1755,11
317,43	1689,57
317,64	1716,20
317,85	1705,96
318,07	1740,77
318,28	1759,21
318,49	1724,39
318,70	1925,09
318,92	1908,71
319,13	1845,22
319,34	1890,28
319,56	1820,64
319,77	1822,69
319,98	1759,21
320,20	1755,11
320,41	1820,64
320,62	1738,73
320,83	1636,33
321,05	1867,75
321,26	1683,43
321,47	1767,40
321,69	1775,59
321,90	1665,00
322,11	1718,25
322,32	1796,07
322,54	1859,56
322,75	1671,14
322,96	1875,94
323,18	1624,04
323,39	1634,28
323,60	1683,43
323,81	1734,63
324,03	1748,97
324,24	1765,35
324,45	1650,66
324,66	1714,15
324,88	1705,96
325,09	1800,16
325,30	1634,28
325,52	1736,68
325,73	1726,44
325,94	1705,96
326,15	1660,90
326,37	1728,49
326,58	1732,58
326,79	1902,56
327,00	1675,24
327,22	1746,92
327,43	1689,57
327,64	1757,16
327,85	1751,01
328,07	1755,11
328,28	1826,79
328,49	1765,35
328,70	1744,87
328,92	1798,12
329,13	1677,29
329,34	1726,44
329,55	1798,12
329,76	1773,54
329,98	1742,82
330,19	1808,36
330,40	1742,82
330,61	1636,33
330,83	1816,55
331,04	1746,92
331,25	1771,49
331,46	1755,11
331,68	1677,29
331,89	1732,58
332,10	1673,19
332,31	1642,47
332,52	1710,05
332,74	1783,78
332,95	1673,19
333,16	1673,19
333,37	1730,53
333,58	1726,44
333,80	1705,96
334,01	1695,72
334,22	1599,46
334,43	1701,86
334,64	1718,25
334,86	1640,42
335,07	1632,23
335,28	1814,50
335,49	1689,57
335,70	1755,11
335,92	1777,64
336,13	1818,60
336,34	1677,29
336,55	1728,49
336,76	1695,72
336,98	1650,66
337,19	1738,73
337,40	1859,56
337,61	1828,84
337,82	1748,97
338,04	1783,78
338,25	1619,94
338,46	1787,88
338,67	1705,96
338,88	1677,29
339,09	1718,25
339,31	1691,62
339,52	1603,56
339,73	1628,14
339,94	1746,92
340,15	1744,87
340,36	1753,06
340,58	1781,73
340,79	1648,61
341,00	1800,16
341,21	1646,57
341,42	1837,03
341,63	1732,58
341,85	1767,40
342,06	1746,92
342,27	1757,16
342,48	1687,53
342,69	1642,47
342,90	1744,87
343,12	1771,49
343,33	1673,19
343,54	1732,58
343,75	1759,21
343,96	1677,29
344,17	1671,14
344,38	1683,43
344,60	1662,95
344,81	1685,48
345,02	1771,49
345,23	1742,82
345,44	1828,84
345,65	1775,59
345,86	1681,38
346,07	1773,54
346,29	1699,81
346,50	1779,68
346,71	1722,34
346,92	1771,49
347,13	1804,26
347,34	1761,25
347,55	1763,30
347,76	1728,49
347,98	1642,47
348,19	1683,43
348,40	1791,97
348,61	1665,00
348,82	1734,63
349,03	1687,53
349,24	1736,68
349,45	1892,32
349,66	1650,66
349,88	1677,29
350,09	1695,72
350,30	1806,31
350,51	1771,49
350,72	1779,68
350,93	1789,92
351,14	1648,61
351,35	1796,07
351,56	1677,29
351,77	1667,05
351,99	1763,30
352,20	1880,04
352,41	1841,12
352,62	1632,23
352,83	1697,77
353,04	1685,48
353,25	1673,19
353,46	1753,06
353,67	1753,06
353,88	1652,71
354,09	1693,67
354,30	1722,34
354,52	1714,15
354,73	1746,92
354,94	1685,48
355,15	1732,58
355,36	1744,87
355,57	1669,09
355,78	1732,58
355,99	1685,48
356,20	1656,81
356,41	1789,92
356,62	1740,77
356,83	1791,97
357,04	1806,31
357,25	1673,19
357,46	1681,38
357,68	1730,53
357,89	1662,95
358,10	1703,91
358,31	1648,61
358,52	1662,95
358,73	1650,66
358,94	1701,86
359,15	1638,38
359,36	1853,41
359,57	1748,97
359,78	1710,05
359,99	1767,40
360,20	1675,24
360,41	1748,97
360,62	1714,15
360,83	1724,39
361,04	1665,00
361,25	1761,25
361,46	1834,98
361,67	1724,39
361,88	1718,25
362,09	1689,57
362,30	1697,77
362,51	1652,71
362,72	1703,91
362,93	1738,73
363,14	1779,68
363,35	1746,92
363,56	1658,85
363,78	1744,87
363,99	1726,44
364,20	1759,21
364,41	1738,73
364,62	1812,45
364,83	1652,71
365,04	1722,34
365,25	1751,01
365,46	1890,28
365,67	1714,15
365,88	1652,71
366,09	1656,81
366,30	1736,68
366,51	1667,05
366,72	1693,67
366,93	1671,14
367,14	1726,44
367,35	1837,03
367,56	1685,48
367,77	1779,68
367,98	1730,53
368,18	1689,57
368,39	1730,53
368,60	1691,62
368,81	1742,82
369,02	1794,02
369,23	1716,20
369,44	1603,56
369,65	1714,15
369,86	1773,54
370,07	1761,25
370,28	1677,29
370,49	1759,21
370,70	1755,11
370,91	1615,85
371,12	1640,42
371,33	1832,93
371,54	1738,73
371,75	1771,49
371,96	1585,13
372,17	1751,01
372,38	1732,58
372,59	1847,27
372,80	1675,24
373,01	1740,77
373,22	1701,86
373,43	1689,57
373,64	1617,90
373,85	1751,01
374,06	1837,03
374,26	1781,73
374,47	1699,81
374,68	1767,40
374,89	1785,83
375,10	1755,11
375,31	1722,34
375,52	1710,05
375,73	1736,68
375,94	1742,82
376,15	1781,73
376,36	1636,33
376,57	1675,24
376,78	1712,10
376,99	1775,59
377,20	1804,26
377,40	1681,38
377,61	1820,64
377,82	1722,34
378,03	1808,36
378,24	1693,67
378,45	1748,97
378,66	1767,40
378,87	1587,18
379,08	1644,52
379,29	1630,18
379,50	1787,88
379,71	1779,68
379,91	1755,11
380,12	1669,09
380,33	1691,62
380,54	1677,29
380,75	1746,92
380,96	1726,44
381,17	1769,44
381,38	1753,06
381,59	1718,25
381,80	1658,85
382,00	1789,92
382,21	1783,78
382,42	1779,68
382,63	1828,84
382,84	1767,40
383,05	1781,73
383,26	1853,41
383,47	1740,77
383,68	1812,45
383,88	1757,16
384,09	1763,30
384,30	1847,27
384,51	1722,34
384,72	1648,61
384,93	1716,20
385,14	1708,01
385,35	1730,53
385,55	1712,10
385,76	1773,54
385,97	1759,21
386,18	1626,09
386,39	1726,44
386,60	1708,01
386,81	1703,91
387,02	1720,29
387,22	1701,86
387,43	1775,59
387,64	1834,98
387,85	1886,18
388,06	2215,90
388,27	4169,66
388,48	6883,22
388,68	8273,79
388,89	9469,81
389,10	9844,59
389,31	8411,01
389,52	7557,00
389,73	6662,04
389,93	6315,94
390,14	5812,14
390,35	5216,18
390,56	4442,04
390,77	3753,93
390,98	3057,62
391,18	2469,85
391,39	2093,02
391,60	1843,17
391,81	1857,51
392,02	1734,63
392,23	1824,74
392,43	1765,35
392,64	1837,03
392,85	1740,77
393,06	1824,74
393,27	1703,91
393,47	1732,58
393,68	1783,78
393,89	1652,71
394,10	1775,59
394,31	1755,11
394,52	1689,57
394,72	1732,58
394,93	1757,16
395,14	1630,18
395,35	1812,45
395,56	1667,05
395,76	1771,49
395,97	1808,36
396,18	1757,16
396,39	1894,37
396,60	2062,30
396,80	1853,41
397,01	1880,04
397,22	1814,50
397,43	1892,32
397,64	1791,97
397,84	1871,84
398,05	1802,21
398,26	1759,21
398,47	1861,60
398,67	1779,68
398,88	1738,73
399,09	1800,16
399,30	1673,19
399,51	1740,77
399,71	1665,00
399,92	1718,25
400,13	1796,07
400,34	1628,14
400,54	1742,82
400,75	1802,21
400,96	1654,76
401,17	1859,56
401,37	1812,45
401,58	1742,82
401,79	1789,92
402,00	1798,12
402,21	1968,10
402,41	1968,10
402,62	1910,75
402,83	1984,48
403,04	1974,24
403,24	2172,89
403,45	1845,22
403,66	1888,23
403,87	1877,99
404,07	1996,77
404,28	1959,91
404,49	1933,28
404,70	1785,83
404,90	1742,82
405,11	1777,64
405,32	1658,85
405,52	1710,05
405,73	1720,29
405,94	1714,15
406,15	1665,00
406,35	1742,82
406,56	1689,57
406,77	1736,68
406,98	1791,97
407,18	1665,00
407,39	1794,02
407,60	1679,33
407,80	1802,21
408,01	1685,48
408,22	1722,34
408,43	1648,61
408,63	1685,48
408,84	1740,77
409,05	1777,64
409,25	1685,48
409,46	1710,05
409,67	1710,05
409,88	1619,94
410,08	1728,49
410,29	1679,33
410,50	1705,96
410,70	1761,25
410,91	1730,53
411,12	1734,63
411,32	1753,06
411,53	1646,57
411,74	1794,02
411,95	1787,88
412,15	1695,72
412,36	1798,12
412,57	1738,73
412,77	1826,79
412,98	1726,44
413,19	1705,96
413,39	1742,82
413,60	1714,15
413,81	1781,73
414,01	1699,81
414,22	1757,16
414,43	1648,61
414,63	1738,73
414,84	1732,58
415,05	1699,81
415,25	1681,38
415,46	1751,01
415,67	1665,00
415,87	1689,57
416,08	1755,11
416,29	1693,67
416,49	1753,06
416,70	1701,86
416,91	1642,47
417,11	1693,67
417,32	1732,58
417,53	1787,88
417,73	1734,63
417,94	1712,10
418,15	1714,15
418,35	1691,62
418,56	1761,25
418,77	1931,23
418,97	1724,39
419,18	1751,01
419,38	1609,70
419,59	1748,97
419,80	1808,36
420,00	1667,05
420,21	1751,01
420,42	1849,32
420,62	1753,06
420,83	1660,90
421,04	1662,95
421,24	1669,09
421,45	1705,96
421,65	1687,53
421,86	1685,48
422,07	1806,31
422,27	1671,14
422,48	1777,64
422,69	1660,90
422,89	1640,42
423,10	1736,68
423,30	1605,61
423,51	1728,49
423,72	1808,36
423,92	1738,73
424,13	1560,55
424,33	1753,06
424,54	1734,63
424,75	1791,97
424,95	1871,84
425,16	1742,82
425,36	1701,86
425,57	1804,26
425,78	1740,77
425,98	1775,59
426,19	1695,72
426,39	1640,42
426,60	1728,49
426,81	1789,92
427,01	1755,11
427,22	1695,72
427,42	1640,42
427,63	1632,23
427,83	1837,03
428,04	1755,11
428,25	1765,35
428,45	1767,40
428,66	1802,21
428,86	1703,91
429,07	1763,30
429,28	1712,10
429,48	1753,06
429,69	1742,82
429,89	1697,77
430,10	1656,81
430,30	1748,97
430,51	1726,44
430,71	1718,25
430,92	1695,72
431,13	1753,06
431,33	1675,24
431,54	1759,21
431,74	1773,54
431,95	1910,75
432,15	1640,42
432,36	1703,91
432,56	1832,93
432,77	1877,99
432,98	1822,69
433,18	1728,49
433,39	1689,57
433,59	1691,62
433,80	1826,79
434,00	1896,42
434,21	1695,72
434,41	1595,37
434,62	1791,97
434,82	1650,66
435,03	1669,09
435,23	1773,54
435,44	1660,90
435,64	1771,49
435,85	1675,24
436,06	1785,83
436,26	1685,48
436,47	1767,40
436,67	1695,72
436,88	1681,38
437,08	1800,16
437,29	1804,26
437,49	1742,82
437,70	1822,69
437,90	1724,39
438,11	1947,62
438,31	1746,92
438,52	1806,31
438,72	1853,41
438,93	1988,58
439,13	1796,07
439,34	1851,36
439,54	1826,79
439,75	1867,75
439,95	1855,46
440,16	1701,86
440,36	1826,79
440,57	1824,74
440,77	1783,78
440,98	1759,21
441,18	1730,53
441,39	1765,35
441,59	1724,39
441,80	1871,84
442,00	1738,73
442,21	1925,09
442,41	1728,49
442,62	1732,58
442,82	1724,39
443,02	1763,30
443,23	1720,29
443,43	1730,53
443,64	1877,99
443,84	1718,25
444,05	1761,25
444,25	1783,78
444,46	1753,06
444,66	1751,01
444,87	1863,65
445,07	1665,00
445,28	1796,07
445,48	1847,27
445,69	1753,06
445,89	1853,41
446,09	1765,35
446,30	2025,44
446,50	2662,36
446,71	3803,08
446,91	4188,10
447,12	4646,84
447,32	4753,34
447,53	4366,27
447,73	3868,61
447,93	3612,62
448,14	3262,41
448,34	3194,83
448,55	2901,97
448,75	2766,81
448,96	2715,61
449,16	2439,13
449,36	2258,91
449,57	2084,83
449,77	1953,76
449,98	1898,47
450,18	1841,12
450,39	1896,42
450,59	1789,92
450,79	1820,64
451,00	1710,05
451,20	1818,60
451,41	1775,59
451,61	1748,97
451,81	1800,16
452,02	1742,82
452,22	1796,07
452,43	1673,19
452,63	1669,09
452,84	1665,00
453,04	1759,21
453,24	1798,12
453,45	1681,38
453,65	1751,01
453,86	1796,07
454,06	1773,54
454,26	1763,30
454,47	1652,71
454,67	1787,88
454,87	1677,29
455,08	1763,30
455,28	1832,93
455,49	1796,07
455,69	1695,72
455,89	1898,47
456,10	1873,89
456,30	1781,73
456,51	1738,73
456,71	1779,68
456,91	1814,50
457,12	1755,11
457,32	1730,53
457,52	1736,68
457,73	1814,50
457,93	1761,25
458,14	1728,49
458,34	1710,05
458,54	1712,10
458,75	1812,45
458,95	1791,97
459,15	1714,15
459,36	1763,30
459,56	1830,88
459,76	1861,60
459,97	1787,88
460,17	1765,35
460,37	1857,51
460,58	1751,01
460,78	1685,48
460,99	1738,73
461,19	1748,97
461,39	1746,92
461,60	1630,18
461,80	1781,73
462,00	1617,90
462,21	1755,11
462,41	1693,67
462,61	1656,81
462,82	1640,42
463,02	1783,78
463,22	1822,69
463,43	1765,35
463,63	1779,68
463,83	1800,16
464,04	1730,53
464,24	1742,82
464,44	1722,34
464,64	1753,06
464,85	1683,43
465,05	1787,88
465,25	1802,21
465,46	1662,95
465,66	1775,59
465,86	1726,44
466,07	1718,25
466,27	1753,06
466,47	1607,66
466,68	1669,09
466,88	1847,27
467,08	1775,59
467,29	1816,55
467,49	1763,30
467,69	1765,35
467,89	1794,02
468,10	1665,00
468,30	1761,25
468,50	1851,36
468,71	1839,08
468,91	1710,05
469,11	1896,42
469,31	1791,97
469,52	1671,14
469,72	1808,36
469,92	1816,55
470,13	1669,09
470,33	1714,15
470,53	1918,95
470,73	2086,88
470,94	2299,87
471,14	2363,36
471,34	2510,81
471,54	2385,88
471,75	2269,15
471,95	2166,75
472,15	2109,41
472,36	2222,05
472,56	2060,26
472,76	2031,58
472,96	2019,30
473,17	1986,53
473,37	1849,32
473,57	1746,92
473,77	1808,36
473,98	1779,68
474,18	1744,87
474,38	1900,52
474,58	1714,15
474,79	1609,70
474,99	1728,49
475,19	1787,88
475,39	1701,86
475,60	1767,40
475,80	1794,02
476,00	1744,87
476,20	1662,95
476,41	1785,83
476,61	1886,18
476,81	1736,68
477,01	1736,68
477,21	1800,16
477,42	1834,98
477,62	1697,77
477,82	1701,86
478,02	1724,39
478,23	1773,54
478,43	1705,96
478,63	1689,57
478,83	1712,10
479,03	1730,53
479,24	1783,78
479,44	1847,27
479,64	1691,62
479,84	1593,32
480,04	1593,32
480,25	1785,83
480,45	1634,28
480,65	1751,01
480,85	1798,12
481,06	1722,34
481,26	1746,92
481,46	1847,27
481,66	1693,67
481,86	1634,28
482,06	1787,88
482,27	1751,01
482,47	1746,92
482,67	1730,53
482,87	1796,07
483,07	1796,07
483,28	1726,44
483,48	1667,05
483,68	1699,81
483,88	1671,14
484,08	1697,77
484,29	1679,33
484,49	1640,42
484,69	1718,25
484,89	1802,21
485,09	1798,12
485,29	1814,50
485,50	1720,29
485,70	1693,67
485,90	1812,45
486,10	1710,05
486,30	1787,88
486,50	1783,78
486,71	1746,92
486,91	1755,11
487,11	1826,79
487,31	1640,42
487,51	1755,11
487,71	1597,42
487,91	1679,33
488,12	1710,05
488,32	1611,75
488,52	1804,26
488,72	1685,48
488,92	1767,40
489,12	1779,68
489,32	1781,73
489,53	1732,58
489,73	1703,91
489,93	1867,75
490,13	1726,44
490,33	1587,18
490,53	1769,44
490,73	1773,54
490,94	1687,53
491,14	1755,11
491,34	1865,70
491,54	2074,59
491,74	2586,58
491,94	2856,92
492,14	2994,13
492,34	2916,31
492,54	2826,20
492,75	2539,48
492,95	2422,75
493,15	2312,16
493,35	2330,59
493,55	2199,52
493,75	2129,89
493,95	2158,56
494,15	1976,29
494,35	1949,67
494,56	1886,18
494,76	1742,82
494,96	1775,59
495,16	1773,54
495,36	1740,77
495,56	1746,92
495,76	1775,59
495,96	1699,81
496,16	1695,72
496,36	1902,56
496,56	1689,57
496,77	1771,49
496,97	1681,38
497,17	1828,84
497,37	1652,71
497,57	1869,80
497,77	1753,06
497,97	1677,29
498,17	1740,77
498,37	1783,78
498,57	1857,51
498,77	1714,15
498,97	1775,59
499,17	1886,18
499,38	1699,81
499,58	1767,40
499,78	1693,67
499,98	1828,84
500,18	1675,24
500,38	1699,81
500,58	1918,95
500,78	2578,39
500,98	4478,91
501,18	5783,46
501,38	6616,99
501,58	7174,03
501,78	6563,74
501,98	5574,57
502,18	4974,52
502,38	4460,48
502,58	4163,52
502,78	3774,41
502,98	3655,62
503,18	3540,94
503,38	3260,37
503,59	2908,12
503,79	2699,22
503,99	2486,23
504,19	2277,34
504,39	2144,22
504,59	2217,95
504,79	2154,46
504,99	2043,87
505,19	2000,87
505,39	1888,23
505,59	1923,04
505,79	1898,47
505,99	1865,70
506,19	1789,92
506,39	1914,85
506,59	1820,64
506,79	1822,69
506,99	1791,97
507,19	1845,22
507,39	1771,49
507,59	1658,85
507,79	1665,00
507,99	1708,01
508,19	1837,03
508,39	1761,25
508,59	1751,01
508,79	1828,84
508,99	1826,79
509,19	1732,58
509,39	1845,22
509,59	1720,29
509,79	1673,19
509,99	1806,31
510,19	1828,84
510,39	1728,49
510,59	1716,20
510,79	1740,77
510,99	1667,05
511,19	1734,63
511,39	1847,27
511,59	1791,97
511,79	1773,54
511,99	1763,30
512,19	1851,36
512,38	1777,64
512,58	1712,10
512,78	1787,88
512,98	1904,61
513,18	1722,34
513,38	1656,81
513,58	1716,20
513,78	1761,25
513,98	1798,12
514,18	1710,05
514,38	1736,68
514,58	1769,44
514,78	1626,09
514,98	1603,56
515,18	1716,20
515,38	1650,66
515,58	1830,88
515,78	1703,91
515,98	1867,75
516,18	1744,87
516,38	1804,26
516,57	1730,53
516,77	1714,15
516,97	1751,01
517,17	1748,97
517,37	1726,44
517,57	1759,21
517,77	1748,97
517,97	1689,57
518,17	1734,63
518,37	1714,15
518,57	1742,82
518,77	1783,78
518,97	1738,73
519,16	1703,91
519,36	1880,04
519,56	1716,20
519,76	1708,01
519,96	1789,92
520,16	1771,49
520,36	1685,48
520,56	1855,46
520,76	1685,48
520,96	1746,92
521,16	1810,40
521,35	1800,16
521,55	1843,17
521,75	1802,21
521,95	1689,57
522,15	1751,01
522,35	1601,51
522,55	1683,43
522,75	1818,60
522,95	1755,11
523,14	1708,01
523,34	1726,44
523,54	1769,44
523,74	1722,34
523,94	1738,73
524,14	1708,01
524,34	1810,40
524,54	1771,49
524,73	1718,25
524,93	1826,79
525,13	1691,62
525,33	1658,85
525,53	1929,19
525,73	1800,16
525,93	1718,25
526,13	1695,72
526,32	1783,78
526,52	1828,84
526,72	1808,36
526,92	1746,92
527,12	1744,87
527,32	1785,83
527,52	1701,86
527,71	1802,21
527,91	1724,39
528,11	1806,31
528,31	1757,16
528,51	1710,05
528,71	1751,01
528,90	1722,34
529,10	1830,88
529,30	1769,44
529,50	1650,66
529,70	1748,97
529,90	1681,38
530,09	1761,25
530,29	1689,57
530,49	1738,73
530,69	1900,52
530,89	1724,39
531,09	1763,30
531,28	1730,53
531,48	1759,21
531,68	1714,15
531,88	1757,16
532,08	1791,97
532,28	1771,49
532,47	1794,02
532,67	1812,45
532,87	1751,01
533,07	1783,78
533,27	1771,49
533,46	1705,96
533,66	1673,19
533,86	1771,49
534,06	1669,09
534,26	1775,59
534,45	1675,24
534,65	1783,78
534,85	1775,59
535,05	1748,97
535,25	1796,07
535,44	1708,01
535,64	1761,25
535,84	1712,10
536,04	1714,15
536,24	1820,64
536,43	1742,82
536,63	1832,93
536,83	1742,82
537,03	1777,64
537,22	1648,61
537,42	1644,52
537,62	1769,44
537,82	1738,73
538,02	1826,79
538,21	1871,84
538,41	1949,67
538,61	1746,92
538,81	1724,39
539,00	1785,83
539,20	1636,33
539,40	1691,62
539,60	1861,60
539,79	1804,26
539,99	1679,33
540,19	1665,00
540,39	1742,82
540,58	1740,77
540,78	1816,55
540,98	1744,87
541,18	1820,64
541,37	1783,78
541,57	1785,83
541,77	1820,64
541,97	1640,42
542,16	1677,29
542,36	1724,39
542,56	1873,89
542,76	1816,55
542,95	1748,97
543,15	1787,88
543,35	1708,01
543,54	1705,96
543,74	1740,77
543,94	1947,62
544,14	1716,20
544,33	1800,16
544,53	1751,01
544,73	1685,48
544,93	1656,81
545,12	1681,38
545,32	1789,92
545,52	1796,07
545,71	1685,48
545,91	1802,21
546,11	1705,96
546,30	1742,82
546,50	1742,82
546,70	1820,64
546,90	1812,45
547,09	1615,85
547,29	1798,12
547,49	1730,53
547,68	1837,03
547,88	1697,77
548,08	1861,60
548,27	2226,14
548,47	1681,38
548,67	1697,77
548,87	1787,88
549,06	1767,40
549,26	1767,40
549,46	1796,07
549,65	1726,44
549,85	1826,79
550,05	1734,63
550,24	1658,85
550,44	1718,25
550,64	1720,29
550,83	1759,21
551,03	1800,16
551,23	1808,36
551,42	1787,88
551,62	1703,91
551,82	1751,01
552,01	1714,15
552,21	1867,75
552,41	1781,73
552,60	1816,55
552,80	1824,74
553,00	1693,67
553,19	1787,88
553,39	1847,27
553,59	1605,61
553,78	1798,12
553,98	1777,64
554,17	1652,71
554,37	1763,30
554,57	1800,16
554,76	1746,92
554,96	1712,10
555,16	1800,16
555,35	1763,30
555,55	1818,60
555,75	1810,40
555,94	1826,79
556,14	1693,67
556,33	1837,03
556,53	1699,81
556,73	1783,78
556,92	1787,88
557,12	1816,55
557,32	1869,80
557,51	1837,03
557,71	1781,73
557,90	1822,69
558,10	1869,80
558,30	1748,97
558,49	1763,30
558,69	1732,58
558,88	1771,49
559,08	1681,38
559,28	1701,86
559,47	1689,57
559,67	1705,96
559,86	1812,45
560,06	1712,10
560,26	1787,88
560,45	1759,21
560,65	1779,68
560,84	1796,07
561,04	1703,91
561,24	1802,21
561,43	1673,19
561,63	1863,65
561,82	1794,02
562,02	1744,87
562,22	1710,05
562,41	1675,24
562,61	1779,68
562,80	1693,67
563,00	1939,43
563,19	1687,53
563,39	1759,21
563,59	1773,54
563,78	1726,44
563,98	1644,52
564,17	1710,05
564,37	1630,18
564,56	1798,12
564,76	1593,32
564,96	1808,36
565,15	1767,40
565,35	1759,21
565,54	1693,67
565,74	1826,79
565,93	1767,40
566,13	1693,67
566,32	1763,30
566,52	1800,16
566,71	1718,25
566,91	1822,69
567,11	1724,39
567,30	1673,19
567,50	1861,60
567,69	1708,01
567,89	1695,72
568,08	1701,86
568,28	1742,82
568,47	1665,00
568,67	1742,82
568,86	1744,87
569,06	1753,06
569,25	1683,43
569,45	1681,38
569,64	1771,49
569,84	1738,73
570,04	1703,91
570,23	1767,40
570,43	1751,01
570,62	1769,44
570,82	1837,03
571,01	1703,91
571,21	1757,16
571,40	1662,95
571,60	1771,49
571,79	1753,06
571,99	1701,86
572,18	1724,39
572,38	1763,30
572,57	1757,16
572,77	1781,73
572,96	1882,08
573,16	1746,92
573,35	1738,73
573,55	1847,27
573,74	1738,73
573,94	1658,85
574,13	1794,02
574,33	1824,74
574,52	1798,12
574,71	1789,92
574,91	1755,11
575,10	1767,40
575,30	1796,07
575,49	1724,39
575,69	1708,01
575,88	1800,16
576,08	1748,97
576,27	1837,03
576,47	1701,86
576,66	1796,07
576,86	1828,84
577,05	1683,43
577,25	1812,45
577,44	1908,71
577,64	1724,39
577,83	1789,92
578,02	1794,02
578,22	1857,51
578,41	1839,08
578,61	1736,68
578,80	1740,77
579,00	1746,92
579,19	1746,92
579,39	1820,64
579,58	1898,47
579,77	1779,68
579,97	1855,46
580,16	1865,70
580,36	1832,93
580,55	1775,59
580,75	1814,50
580,94	1820,64
581,13	1849,32
581,33	1918,95
581,52	1730,53
581,72	1902,56
581,91	1910,75
582,11	1775,59
582,30	1822,69
582,49	1722,34
582,69	1859,56
582,88	1767,40
583,08	1820,64
583,27	1851,36
583,47	1734,63
583,66	1724,39
583,85	1734,63
584,05	1742,82
584,24	1798,12
584,44	1757,16
584,63	1841,12
584,82	1785,83
585,02	1843,17
585,21	1787,88
585,41	1800,16
585,60	1804,26
585,79	1931,23
585,99	2000,87
586,18	1886,18
586,37	2254,81
586,57	3395,53
586,76	9832,30
586,96	24344,20
587,15	34199,03
587,34	40027,55
587,54	41469,32
587,73	36580,82
587,93	26132,08
588,12	21196,48
588,31	17925,87
588,51	16097,03
588,70	15083,29
588,89	14018,35
589,09	12353,35
589,28	10753,88
589,47	9201,52
589,67	8023,94
589,86	6317,98
590,06	4968,37
590,25	3844,04
590,44	3162,06
590,64	2572,25
590,83	2238,43
591,02	2144,22
591,22	1959,91
591,41	1898,47
591,60	1873,89
591,80	1888,23
591,99	1769,44
592,18	1783,78
592,38	1914,85
592,57	1748,97
592,76	1800,16
592,96	1779,68
593,15	1763,30
593,34	1814,50
593,54	1716,20
593,73	1755,11
593,92	1837,03
594,12	1693,67
594,31	1740,77
594,50	1828,84
594,70	1791,97
594,89	1861,60
595,08	1781,73
595,28	1755,11
595,47	2004,96
595,66	1824,74
595,86	1673,19
596,05	1724,39
596,24	1769,44
596,43	1826,79
596,63	1771,49
596,82	1751,01
597,01	1767,40
597,21	1861,60
597,40	1748,97
597,59	1744,87
597,79	1816,55
597,98	1773,54
598,17	1689,57
598,36	1771,49
598,56	1816,55
598,75	1722,34
598,94	1755,11
599,14	1724,39
599,33	1759,21
599,52	1820,64
599,71	1722,34
599,91	1818,60
600,10	1781,73
600,29	1769,44
600,48	1763,30
600,68	1800,16
600,87	1759,21
601,06	1771,49
601,26	1720,29
601,45	1763,30
601,64	1718,25
601,83	1798,12
602,03	1812,45
602,22	1722,34
602,41	1828,84
602,60	1875,94
602,80	1828,84
602,99	1779,68
603,18	1695,72
603,37	1701,86
603,57	1726,44
603,76	1816,55
603,95	1785,83
604,14	1726,44
604,34	1636,33
604,53	1746,92
604,72	1744,87
604,91	1777,64
605,10	1777,64
605,30	1646,57
605,49	1869,80
605,68	1804,26
605,87	1746,92
606,07	1755,11
606,26	1775,59
606,45	1677,29
606,64	1767,40
606,84	1738,73
607,03	1697,77
607,22	1810,40
607,41	1675,24
607,60	1771,49
607,80	1751,01
607,99	1759,21
608,18	1773,54
608,37	1716,20
608,56	1679,33
608,76	1777,64
608,95	1857,51
609,14	1757,16
609,33	1771,49
609,52	1783,78
609,72	1757,16
609,91	1794,02
610,10	1761,25
610,29	1904,61
610,48	1748,97
610,68	1781,73
610,87	1761,25
611,06	1806,31
611,25	1765,35
611,44	1806,31
611,63	1802,21
611,83	1828,84
612,02	1626,09
612,21	1804,26
612,40	1677,29
612,59	1695,72
612,79	1718,25
612,98	1730,53
613,17	1888,23
613,36	1798,12
613,55	1820,64
613,74	1640,42
613,93	1648,61
614,13	1738,73
614,32	1734,63
614,51	1714,15
614,70	1720,29
614,89	1718,25
615,08	1718,25
615,28	2076,64
615,47	1669,09
615,66	1746,92
615,85	1712,10
616,04	1890,28
616,23	1744,87
616,42	1662,95
616,62	1744,87
616,81	1826,79
617,00	1755,11
617,19	1810,40
617,38	1687,53
617,57	1689,57
617,76	1781,73
617,95	1781,73
618,15	1806,31
618,34	1779,68
618,53	1624,04
618,72	1843,17
618,91	1802,21
619,10	1789,92
619,29	1736,68
619,48	1689,57
619,68	1628,14
619,87	1689,57
620,06	1669,09
620,25	1734,63
620,44	1824,74
620,63	1757,16
620,82	1837,03
621,01	1697,77
621,20	1730,53
621,39	1814,50
621,59	1740,77
621,78	1695,72
621,97	1779,68
622,16	1740,77
622,35	1818,60
622,54	1740,77
622,73	1769,44
622,92	1630,18
623,11	1863,65
623,30	1699,81
623,49	1765,35
623,68	1732,58
623,88	1787,88
624,07	1693,67
624,26	1718,25
624,45	1650,66
624,64	1757,16
624,83	1681,38
625,02	1705,96
625,21	1730,53
625,40	1783,78
625,59	1802,21
625,78	1744,87
625,97	1867,75
626,16	1740,77
626,35	1748,97
626,54	1814,50
626,74	1789,92
626,93	1712,10
627,12	1640,42
627,31	1834,98
627,50	1722,34
627,69	1761,25
627,88	1703,91
628,07	1685,48
628,26	1662,95
628,45	1697,77
628,64	1681,38
628,83	1810,40
629,02	1603,56
629,21	1785,83
629,40	1777,64
629,59	1654,76
629,78	1648,61
629,97	1765,35
630,16	1650,66
630,35	1679,33
630,54	1722,34
630,73	1595,37
630,92	1796,07
631,11	1662,95
631,30	1763,30
631,49	1806,31
631,68	1687,53
631,87	1730,53
632,06	1757,16
632,25	1843,17
632,44	1748,97
632,63	1751,01
632,82	1693,67
633,01	1568,74
633,20	1687,53
633,39	1691,62
633,58	1626,09
633,77	1734,63
633,96	1789,92
634,15	1755,11
634,34	1791,97
634,53	1763,30
634,72	1648,61
634,91	1646,57
635,10	1779,68
635,29	1794,02
635,48	1683,43
635,67	1693,67
635,86	1609,70
636,05	1785,83
636,24	1740,77
636,43	1714,15
636,62	1734,63
636,81	1624,04
637,00	1781,73
637,19	1779,68
637,38	1742,82
637,57	1636,33
637,76	1759,21
637,95	1775,59
638,14	1626,09
638,33	1742,82
638,52	1687,53
638,71	1710,05
638,89	1718,25
639,08	1804,26
639,27	1789,92
639,46	1732,58
639,65	1814,50
639,84	1732,58
640,03	1800,16
640,22	1673,19
640,41	1773,54
640,60	1755,11
640,79	1701,86
640,98	1605,61
641,17	1783,78
641,36	1738,73
641,55	1800,16
641,74	1589,22
641,92	1646,57
642,11	1683,43
642,30	1724,39
642,49	1671,14
642,68	1730,53
642,87	1712,10
643,06	1763,30
643,25	1703,91
643,44	1732,58
643,63	1687,53
643,82	1837,03
644,00	1675,24
644,19	1687,53
644,38	1728,49
644,57	1705,96
644,76	1771,49
644,95	1703,91
645,14	1777,64
645,33	1791,97
645,52	1724,39
645,71	1574,89
645,89	1716,20
646,08	1693,67
646,27	1726,44
646,46	1873,89
646,65	1644,52
646,84	1705,96
647,03	1691,62
647,22	1748,97
647,40	1791,97
647,59	1710,05
647,78	1681,38
647,97	1773,54
648,16	1722,34
648,35	1814,50
648,54	1728,49
648,73	1765,35
648,91	1822,69
649,10	1812,45
649,29	1636,33
649,48	1691,62
649,67	1724,39
649,86	1691,62
650,05	1640,42
650,23	1722,34
650,42	1605,61
650,61	1732,58
650,80	1714,15
650,99	1935,33
651,18	1755,11
651,36	1767,40
651,55	1722,34
651,74	1748,97
651,93	1777,64
652,12	1734,63
652,31	1730,53
652,49	1724,39
652,68	1593,32
652,87	1886,18
653,06	1789,92
653,25	1789,92
653,44	1791,97
653,62	1794,02
653,81	1722,34
654,00	1734,63
654,19	1769,44
654,38	1828,84
654,56	1636,33
654,75	1642,47
654,94	1732,58
655,13	1798,12
655,32	1765,35
655,51	1673,19
655,69	1671,14
655,88	1732,58
656,07	1687,53
656,26	1773,54
656,45	1619,94
656,63	1689,57
656,82	1775,59
657,01	1818,60
657,20	1724,39
657,38	1787,88
657,57	1675,24
657,76	1669,09
657,95	1746,92
658,14	1720,29
658,32	1734,63
658,51	1720,29
658,70	1703,91
658,89	1755,11
659,08	1660,90
659,26	1769,44
659,45	1665,00
659,64	1751,01
659,83	1675,24
660,01	1861,60
660,20	1718,25
660,39	1855,46
660,58	1599,46
660,76	1785,83
660,95	1738,73
661,14	1755,11
661,33	1628,14
661,51	1660,90
661,70	1615,85
661,89	1759,21
662,08	1701,86
662,26	1642,47
662,45	1683,43
662,64	1798,12
662,83	1796,07
663,01	1685,48
663,20	1720,29
663,39	1798,12
663,58	1714,15
663,76	1779,68
663,95	1800,16
664,14	1691,62
664,32	1775,59
664,51	1679,33
664,70	1636,33
664,89	1812,45
665,07	1685,48
665,26	1777,64
665,45	1646,57
665,64	1822,69
665,82	1718,25
666,01	1697,77
666,20	1724,39
666,38	1769,44
666,57	1779,68
666,76	2154,46
666,95	4499,39
667,13	10344,29
667,32	15204,12
667,51	17682,16
667,69	19142,36
667,88	17360,63
668,07	12150,60
668,25	9518,96
668,44	8038,28
668,63	7325,58
668,81	6799,26
669,00	6211,49
669,19	5672,87
669,38	5015,48
669,56	4521,92
669,75	3862,47
669,94	3444,68
670,12	2895,83
670,31	2451,42
670,50	2217,95
670,68	2109,41
670,87	1992,67
671,06	1751,01
671,24	1806,31
671,43	1847,27
671,62	1791,97
671,80	1673,19
671,99	1761,25
672,18	1751,01
672,36	1755,11
672,55	1757,16
672,74	1761,25
672,92	1640,42
673,11	1767,40
673,29	1689,57
673,48	1765,35
673,67	1738,73
673,85	1837,03
674,04	1718,25
674,23	1820,64
674,41	1789,92
674,60	1728,49
674,79	1593,32
674,97	1681,38
675,16	1824,74
675,34	1820,64
675,53	1722,34
675,72	1771,49
675,90	1875,94
676,09	1681,38
676,28	1746,92
676,46	1662,95
676,65	1781,73
676,83	1632,23
677,02	1697,77
677,21	1767,40
677,39	1812,45
677,58	1736,68
677,77	1718,25
677,95	1705,96
678,14	1705,96
678,32	1738,73
678,51	1673,19
678,70	1851,36
678,88	1716,20
679,07	1726,44
679,25	1751,01
679,44	1710,05
679,63	1628,14
679,81	1710,05
680,00	1783,78
680,18	1701,86
680,37	1810,40
680,55	1667,05
680,74	1708,01
680,93	1568,74
681,11	1673,19
681,30	1740,77
681,48	1759,21
681,67	1679,33
681,85	1722,34
682,04	1679,33
682,23	1708,01
682,41	1736,68
682,60	1658,85
682,78	1650,66
682,97	1665,00
683,15	1755,11
683,34	1726,44
683,53	1843,17
683,71	1644,52
683,90	1828,84
684,08	1751,01
684,27	1658,85
684,45	1751,01
684,64	1773,54
684,82	1722,34
685,01	1705,96
685,19	1677,29
685,38	1769,44
685,57	1726,44
685,75	1718,25
685,94	1734,63
686,12	1658,85
686,31	1687,53
686,49	1828,84
686,68	1642,47
686,86	1759,21
687,05	1652,71
687,23	1839,08
687,42	1673,19
687,60	1574,89
687,79	1785,83
687,97	1744,87
688,16	1806,31
688,34	1759,21
688,53	1615,85
688,71	1746,92
688,90	1789,92
689,08	1708,01
689,27	1609,70
689,45	1738,73
689,64	1724,39
689,82	1660,90
690,01	1714,15
690,19	1712,10
690,38	1667,05
690,56	1771,49
690,75	1679,33
690,93	1718,25
691,12	1732,58
691,30	1796,07
691,49	1693,67
691,67	1738,73
691,86	1837,03
692,04	1736,68
692,23	1705,96
692,41	1773,54
692,60	1814,50
692,78	1822,69
692,97	1755,11
693,15	1791,97
693,34	1808,36
693,52	1718,25
693,71	1724,39
693,89	1656,81
694,08	1619,94
694,26	1814,50
694,44	1779,68
694,63	1712,10
694,81	1591,27
695,00	1673,19
695,18	1767,40
695,37	1861,60
695,55	1787,88
695,74	1705,96
695,92	1675,24
696,10	1763,30
696,29	1595,37
696,47	1744,87
696,66	1626,09
696,84	1621,99
697,03	1748,97
697,21	1779,68
697,40	2297,82
697,58	1824,74
697,76	1734,63
697,95	1703,91
698,13	1642,47
698,32	1714,15
698,50	1720,29
698,68	1691,62
698,87	1740,77
699,05	1812,45
699,24	1746,92
699,42	1703,91
699,61	1738,73
699,79	1732,58
699,97	1697,77
700,16	1650,66
700,34	1697,77
700,53	1710,05
700,71	1767,40
700,89	1763,30
701,08	1759,21
701,26	1665,00
701,45	2129,89
701,63	1671,14
701,81	1744,87
702,00	1656,81
702,18	1734,63
702,37	1755,11
702,55	1722,34
702,73	1718,25
702,92	1607,66
703,10	1830,88
703,28	1712,10
703,47	1650,66
703,65	1822,69
703,84	1771,49
704,02	1658,85
704,20	1820,64
704,39	1714,15
704,57	1685,48
704,75	1761,25
704,94	1746,92
705,12	1710,05
705,30	1779,68
705,49	2299,87
705,67	4511,68
705,86	9361,27
706,04	12433,22
706,22	14241,57
706,41	15030,04
706,59	13586,22
706,77	9381,74
706,96	7311,25
707,14	6551,45
707,32	5805,99
707,51	5494,70
707,69	4808,63
707,87	4118,47
708,06	3473,36
708,24	2955,22
708,42	2475,99
708,61	2240,48
708,79	1925,09
708,97	1892,32
709,16	1851,36
709,34	1740,77
709,52	1757,16
709,71	1726,44
709,89	1753,06
710,07	1699,81
710,26	1658,85
710,44	1701,86
710,62	1748,97
710,80	1720,29
710,99	1775,59
711,17	1746,92
711,35	1693,67
711,54	1693,67
711,72	1851,36
711,90	1781,73
712,09	1783,78
712,27	1681,38
712,45	1763,30
712,63	1703,91
712,82	1689,57
713,00	1720,29
713,18	1722,34
713,37	1738,73
713,55	1755,11
713,73	1736,68
713,91	1708,01
714,10	1744,87
714,28	1642,47
714,46	1757,16
714,65	1744,87
714,83	1710,05
715,01	1751,01
715,19	1701,86
715,38	1701,86
715,56	1824,74
715,74	1677,29
715,92	1736,68
716,11	1837,03
716,29	1611,75
716,47	1781,73
716,65	1714,15
716,84	1636,33
717,02	1759,21
717,20	1595,37
717,38	1662,95
717,57	1720,29
717,75	1667,05
717,93	1685,48
718,11	1798,12
718,30	1683,43
718,48	1740,77
718,66	1783,78
718,84	1814,50
719,03	1650,66
719,21	1648,61
719,39	1845,22
719,57	1732,58
719,75	1828,84
719,94	1730,53
720,12	1736,68
720,30	1605,61
720,48	1820,64
720,67	1654,76
720,85	1687,53
721,03	1697,77
721,21	1646,57
721,39	1849,32
721,58	1667,05
721,76	1695,72
721,94	1806,31
722,12	1734,63
722,30	1808,36
722,49	1687,53
722,67	1693,67
722,85	1757,16
723,03	1634,28
723,21	1675,24
723,40	1761,25
723,58	1724,39
723,76	1701,86
723,94	1771,49
724,12	1693,67
724,30	1822,69
724,49	1814,50
724,67	1619,94
724,85	1765,35
725,03	1677,29
725,21	1826,79
725,40	1744,87
725,58	1751,01
725,76	1839,08
725,94	1775,59
726,12	1644,52
726,30	1673,19
726,49	1755,11
726,67	1687,53
726,85	1667,05
727,03	1820,64
727,21	2222,05
727,39	2959,31
727,57	3770,31
727,76	4132,80
727,94	4452,28
728,12	4376,51
728,30	3721,16
728,48	2955,22
728,66	2701,27
728,84	2473,95
729,03	2322,40
729,21	2205,66
729,39	1964,00
729,57	1742,82
729,75	1839,08
729,93	1791,97
730,11	1718,25
730,30	1683,43
730,48	1748,97
730,66	1796,07
730,84	1794,02
731,02	1722,34
731,20	1683,43
731,38	1748,97
731,56	1638,38
731,74	1630,18
731,93	1630,18
732,11	1742,82
732,29	1669,09
732,47	1697,77
732,65	1755,11
732,83	1769,44
733,01	1728,49
733,19	1591,27
733,37	1781,73
733,56	1808,36
733,74	1753,06
733,92	1812,45
734,10	1669,09
734,28	1832,93
734,46	1665,00
734,64	1710,05
734,82	1695,72
735,00	1679,33
735,18	1683,43
735,36	1683,43
735,54	1775,59
735,73	1693,67
735,91	1767,40
736,09	1757,16
736,27	1755,11
736,45	1777,64
736,63	1568,74
736,81	1710,05
736,99	1779,68
737,17	1763,30
737,35	1728,49
737,53	1740,77
737,71	1669,09
737,89	1736,68
738,07	1636,33
738,25	1703,91
738,43	1667,05
738,61	1761,25
738,80	1617,90
738,98	1636,33
739,16	1615,85
739,34	1714,15
739,52	1783,78
739,70	1652,71
739,88	1783,78
740,06	1757,16
740,24	1648,61
740,42	1734,63
740,60	1564,65
740,78	1730,53
740,96	1550,31
741,14	1677,29
741,32	1724,39
741,50	1650,66
741,68	1849,32
741,86	1787,88
742,04	1658,85
742,22	1701,86
742,40	1796,07
742,58	1794,02
742,76	1679,33
742,94	1826,79
743,12	1648,61
743,30	1742,82
743,48	1787,88
743,66	1671,14
743,84	1751,01
744,02	1687,53
744,20	1738,73
744,38	1634,28
744,56	1687,53
744,74	1751,01
744,92	1730,53
745,10	1748,97
745,28	1773,54
745,46	1781,73
745,64	1667,05
745,82	1783,78
746,00	1695,72
746,18	1714,15
746,36	1648,61
746,54	1710,05
746,72	1714,15
746,90	1687,53
747,08	1779,68
747,26	1703,91
747,44	1738,73
747,62	1767,40
747,80	1714,15
747,98	1779,68
748,15	1683,43
748,33	1808,36
748,51	1738,73
748,69	1736,68
748,87	1712,10
749,05	1665,00
749,23	1673,19
749,41	1726,44
749,59	1730,53
749,77	1755,11
749,95	1617,90
750,13	1687,53
750,31	1742,82
750,49	1714,15
750,67	1730,53
750,85	1755,11
751,03	1691,62
751,20	1861,60
751,38	1718,25
751,56	1757,16
751,74	1648,61
751,92	1648,61
752,10	1648,61
752,28	1914,85
752,46	1630,18
752,64	1669,09
752,82	1630,18
753,00	1808,36
753,18	1589,22
753,35	1734,63
753,53	1718,25
753,71	1652,71
753,89	1765,35
754,07	1726,44
754,25	1732,58
754,43	1755,11
754,61	1619,94
754,79	1871,84
754,97	1716,20
755,14	1781,73
755,32	1710,05
755,50	1726,44
755,68	1712,10
755,86	1626,09
756,04	1632,23
756,22	1630,18
756,40	1691,62
756,57	1781,73
756,75	1726,44
756,93	1757,16
757,11	1722,34
757,29	1638,38
757,47	1665,00
757,65	1605,61
757,82	1691,62
758,00	1665,00
758,18	1632,23
758,36	1681,38
758,54	1814,50
758,72	1642,47
758,90	1748,97
759,07	1777,64
759,25	1658,85
759,43	1734,63
759,61	1679,33
759,79	2129,89
759,97	1701,86
760,15	1693,67
760,32	1724,39
760,50	1644,52
760,68	1798,12
760,86	1617,90
761,04	1734,63
761,22	1810,40
761,39	1691,62
761,57	1701,86
761,75	1683,43
761,93	1740,77
762,11	1642,47
762,28	1714,15
762,46	1708,01
762,64	1687,53
762,82	1591,27
763,00	1691,62
763,18	1781,73
763,35	1650,66
763,53	1712,10
763,71	1779,68
763,89	1701,86
764,07	1722,34
764,24	1710,05
764,42	1826,79
764,60	1714,15
764,78	1765,35
764,96	1720,29
765,13	1794,02
765,31	1642,47
765,49	1783,78
765,67	1630,18
765,84	1626,09
766,02	1669,09
766,20	1656,81
766,38	1787,88
766,56	1791,97
766,73	1740,77
766,91	1689,57
767,09	1718,25
767,27	1716,20
767,44	1665,00
767,62	1765,35
767,80	1763,30
767,98	1685,48
768,15	1705,96
768,33	1724,39
768,51	1734,63
768,69	1806,31
768,87	1767,40
769,04	1771,49
769,22	1904,61
769,40	1761,25
769,58	1773,54
769,75	1816,55
769,93	1738,73
770,11	1611,75
770,28	1656,81
770,46	1724,39
770,64	1693,67
770,82	1806,31
770,99	1712,10
771,17	1695,72
771,35	1656,81
771,53	1796,07
771,70	1746,92
771,88	1660,90
772,06	1710,05
772,23	1691,62
772,41	1755,11
772,59	1689,57
772,77	1636,33
772,94	1724,39
773,12	1753,06
773,30	1650,66
773,47	1675,24
773,65	1634,28
773,83	1877,99
774,01	1693,67
774,18	1628,14
774,36	1677,29
774,54	1615,85
774,71	1806,31
774,89	1599,46
775,07	1599,46
775,24	1695,72
775,42	1656,81
775,60	1820,64
775,78	1789,92
775,95	1685,48
776,13	1665,00
776,31	1677,29
776,48	1679,33
776,66	1847,27
776,84	1738,73
777,01	1744,87
777,19	1699,81
777,37	1667,05
777,54	1757,16
777,72	1845,22
777,90	1814,50
778,07	1675,24
778,25	1896,42
778,43	1773,54
778,60	1652,71
778,78	1746,92
778,96	1755,11
779,13	1652,71
779,31	1800,16
779,49	1746,92
779,66	1673,19
779,84	1705,96
780,01	1742,82
780,19	1701,86
780,37	1791,97
780,54	1740,77
780,72	1619,94
780,90	1705,96
781,07	1644,52
781,25	1705,96
781,43	1769,44
781,60	1685,48
781,78	1759,21
781,95	1732,58
782,13	1728,49
782,31	1705,96
782,48	1671,14
782,66	1720,29
782,83	1755,11
783,01	1703,91
783,19	1816,55
783,36	1732,58
783,54	1636,33
783,72	1771,49
783,89	1636,33
784,07	1798,12
784,24	1687,53
784,42	1771,49
784,60	1744,87
784,77	1744,87
784,95	1650,66
785,12	1656,81
785,30	1693,67
785,47	1724,39
785,65	1654,76
785,83	1742,82
786,00	1683,43
786,18	1757,16
786,35	1662,95
786,53	1644,52
786,71	1806,31
786,88	1736,68
787,06	1751,01
787,23	1658,85
787,41	1628,14
787,58	1714,15
787,76	1679,33
787,94	1769,44
788,11	1759,21
788,29	1689,57
788,46	1593,32
788,64	1607,66
788,81	1673,19
788,99	1689,57
789,16	1603,56
789,34	1677,29
789,52	1652,71
789,69	1650,66
789,87	1679,33
790,04	1681,38
790,22	1628,14
790,39	1867,75
790,57	1640,42
790,74	1675,24
790,92	1791,97
791,09	1675,24
791,27	1767,40
791,44	1791,97
791,62	1722,34
791,79	1783,78
791,97	1693,67
792,15	1837,03
792,32	1724,39
792,50	1738,73
792,67	1771,49
792,85	1755,11
793,02	1695,72
793,20	1652,71
793,37	1714,15
793,55	1689,57
793,72	1652,71
793,90	1708,01
794,07	1695,72
794,25	1734,63
794,42	1726,44
794,60	1738,73
794,77	1740,77
794,95	1771,49
795,12	1746,92
795,30	1677,29
795,47	1697,77
795,65	1871,84
795,82	1697,77
796,00	1703,91
796,17	1822,69
796,34	1679,33
796,52	1800,16
796,69	1767,40
796,87	1796,07
797,04	1732,58
797,22	1742,82
797,39	1679,33
797,57	1822,69
797,74	1722,34
797,92	1748,97
798,09	1718,25
798,27	1796,07
798,44	1685,48
798,62	1681,38
798,79	1742,82
798,96	1708,01
799,14	1665,00
799,31	1859,56
799,49	1677,29
799,66	1732,58
799,84	1773,54
800,01	1630,18
800,19	1771,49
800,36	1566,70
800,53	1724,39
800,71	1718,25
800,88	1820,64
801,06	1693,67
801,23	1689,57
801,41	1693,67
801,58	1693,67
801,75	1708,01
801,93	1675,24
802,10	1810,40
802,28	1757,16
802,45	1660,90
802,63	1720,29
802,80	1841,12
802,97	1744,87
803,15	1708,01
803,32	1687,53
803,50	1746,92
803,67	1689,57
803,84	1634,28
804,02	1748,97
804,19	1742,82
804,37	1566,70
804,54	1642,47
804,71	1701,86
804,89	1732,58
805,06	1751,01
805,24	1617,90
805,41	1644,52
805,58	1624,04
805,76	1830,88
805,93	1710,05
806,10	1748,97
806,28	1789,92
806,45	1779,68
806,63	1695,72
806,80	1730,53
806,97	1761,25
807,15	1714,15
807,32	1665,00
807,49	1738,73
807,67	1710,05
807,84	1689,57
808,01	1615,85
808,19	1822,69
808,36	1923,04
808,54	1691,62
808,71	1720,29
808,88	1710,05
809,06	1755,11
809,23	1773,54
809,40	1660,90
809,58	1810,40
809,75	1636,33
809,92	1644,52
810,10	1869,80
810,27	1740,77
810,44	1742,82
810,62	1730,53
810,79	1724,39
810,96	1634,28
811,14	1748,97
811,31	1837,03
811,48	1738,73
811,66	1757,16
811,83	1800,16
812,00	1703,91
812,18	1705,96
812,35	1763,30
812,52	1718,25
812,69	1769,44
812,87	1722,34
813,04	1718,25
813,21	1650,66
813,39	1714,15
813,56	1654,76
813,73	1720,29
813,91	1656,81
814,08	1667,05
814,25	1742,82
814,42	1609,70
814,60	1656,81
814,77	1751,01
814,94	1724,39
815,12	1724,39
815,29	1771,49
815,46	1714,15
815,63	1808,36
815,81	1699,81
815,98	1761,25
816,15	1658,85
816,33	1763,30
816,50	1705,96
816,67	1697,77
816,84	1665,00
817,02	1697,77
817,19	1689,57
817,36	1708,01
817,53	1683,43
817,71	1648,61
817,88	1722,34
818,05	1734,63
818,22	1714,15
818,40	1877,99
818,57	1656,81
818,74	1757,16
818,91	1734,63
819,09	1734,63
819,26	1791,97
819,43	1708,01
819,60	1685,48
819,78	1787,88
819,95	1849,32
820,12	1585,13
820,29	1794,02
820,47	1742,82
820,64	1689,57
820,81	1708,01
820,98	1658,85
821,15	1732,58
821,33	1771,49
821,50	1726,44
821,67	1787,88
821,84	1712,10
822,02	1773,54
822,19	1746,92
822,36	1755,11
822,53	1710,05
822,70	1624,04
822,88	1687,53
823,05	1834,98
823,22	1701,86
823,39	1738,73
823,56	1722,34
823,74	1822,69
823,91	1705,96
824,08	1671,14
824,25	1621,99
824,42	1873,89
824,60	1624,04
824,77	1742,82
824,94	1634,28
825,11	1742,82
825,28	1626,09
825,45	1777,64
825,63	1642,47
825,80	1638,38
825,97	1742,82
826,14	1689,57
826,31	1673,19
826,48	1730,53
826,66	1681,38
826,83	1693,67
827,00	1705,96
827,17	1714,15
827,34	1763,30
827,51	1646,57
827,69	1691,62
827,86	1708,01
828,03	1677,29
828,20	1628,14
828,37	1740,77
828,54	1681,38
828,71	1773,54
828,89	1830,88
829,06	1779,68
829,23	1771,49
829,40	1656,81
829,57	1626,09
829,74	1814,50
829,91	1755,11
830,09	1773,54
830,26	1767,40
830,43	1841,12
830,60	1787,88
830,77	1695,72
830,94	1849,32
831,11	1732,58
831,28	1673,19
831,46	1794,02
831,63	1708,01
831,80	1738,73
831,97	1726,44
832,14	1726,44
832,31	1744,87
832,48	1705,96
832,65	1804,26
832,82	1769,44
832,99	1673,19
833,17	1665,00
833,34	1841,12
833,51	1734,63
833,68	1640,42
833,85	1708,01
834,02	1685,48
834,19	1697,77
834,36	1644,52
834,53	1726,44
834,70	1810,40
834,87	1777,64
835,04	1740,77
835,22	1652,71
835,39	1675,24
835,56	1710,05
835,73	1665,00
835,90	1751,01
836,07	1689,57
836,24	1767,40
836,41	1677,29
836,58	1650,66
836,75	1746,92
836,92	1791,97
837,09	1650,66
837,26	1730,53
837,43	1783,78
837,60	1689,57
837,77	1683,43
837,94	1738,73
838,12	1748,97
838,29	1742,82
838,46	1642,47
838,63	1648,61
838,80	1837,03
838,97	1808,36
839,14	1722,34
839,31	1675,24
839,48	1755,11
839,65	1720,29
839,82	1779,68
839,99	1730,53
840,16	1701,86
840,33	1640,42
840,50	1740,77
840,67	1669,09
840,84	1652,71
841,01	1732,58
841,18	1652,71
841,35	1746,92
841,52	1779,68
841,69	1865,70
841,86	1744,87
842,03	1726,44
842,20	1724,39
842,37	1669,09
842,54	1650,66
842,71	1628,14
842,88	1628,14
843,05	1777,64
843,22	1679,33
843,39	1808,36
843,56	1658,85
843,73	1718,25
843,90	1759,21
844,07	1789,92
844,24	1779,68
844,41	1738,73
844,58	1732,58
844,75	1687,53
844,92	1746,92
845,09	1683,43
845,26	1728,49
845,43	1779,68
845,60	1609,70
845,77	1767,40
845,94	1781,73
846,10	1730,53
846,27	1658,85
846,44	1609,70
846,61	1652,71
846,78	1740,77
846,95	1712,10
847,12	1677,29
847,29	1671,14
847,46	1605,61
847,63	1703,91
847,80	1679,33
847,97	1679,33
848,14	1890,28
848,31	1665,00
848,48	1562,60
848,65	1783,78
848,82	1626,09
848,98	1828,84
849,15	1656,81
849,32	1773,54
849,49	1755,11
849,66	1726,44
849,83	1681,38
850,00	1691,62
850,17	1748,97
850,34	1648,61
850,51	1656,81
850,68	1642,47
850,85	1839,08
851,01	1687,53
851,18	1730,53
851,35	1742,82
851,52	1726,44
851,69	1791,97
851,86	1695,72
852,03	1667,05
852,20	1730,53
852,37	1740,77
852,53	1669,09
852,70	1720,29
852,87	1656,81
853,04	1685,48
853,21	1722,34
853,38	1738,73
853,55	1755,11
853,72	1804,26
853,89	1693,67
854,05	1697,77
854,22	1748,97
854,39	1734,63
854,56	1761,25
854,73	1804,26
854,90	1642,47
855,07	1624,04
855,23	1665,00
855,40	1691,62
855,57	1681,38
855,74	1648,61
855,91	1873,89
856,08	1722,34
856,25	1673,19
856,41	1601,51
856,58	1662,95
856,75	1734,63
856,92	1673,19
857,09	1763,30
857,26	1621,99
857,42	1771,49
857,59	1728,49
857,76	1705,96
857,93	1681,38
858,10	1697,77
858,27	1669,09
858,43	1736,68
858,60	1714,15
858,77	1628,14
858,94	1712,10
859,11	1691,62
859,27	1656,81
859,44	1671,14
859,61	1759,21
859,78	1748,97
859,95	1648,61
860,12	1689,57
860,28	1882,08
860,45	1839,08
860,62	1658,85
860,79	1699,81
860,95	1722,34
861,12	1710,05
861,29	1736,68
861,46	1705,96
861,63	1634,28
861,79	1722,34
861,96	1685,48
862,13	1699,81
862,30	1798,12
862,47	1652,71
862,63	1710,05
862,80	1769,44
862,97	1732,58
863,14	1757,16
863,30	1791,97
863,47	1738,73
863,64	1828,84
863,81	1773,54
863,97	1644,52
864,14	1753,06
864,31	1716,20
864,48	1730,53
864,65	1677,29
864,81	1708,01
864,98	1765,35
865,15	1740,77
865,32	1828,84
865,48	1681,38
865,65	1767,40
865,82	1748,97
865,98	1779,68
866,15	1771,49
866,32	1724,39
866,49	1763,30
866,65	1796,07
866,82	1701,86
866,99	1710,05
867,16	1656,81
867,32	1746,92
867,49	1642,47
867,66	1691,62
867,83	1691,62
867,99	1656,81
868,16	1705,96
868,33	1640,42
868,49	1740,77
868,66	1693,67
868,83	1773,54
868,99	1716,20
869,16	1595,37
869,33	1718,25
869,50	1800,16
869,66	1708,01
869,83	1708,01
870,00	1648,61
870,16	1708,01
870,33	1726,44
870,50	1728,49
870,66	1781,73
870,83	1869,80
871,00	1724,39
871,17	1775,59
871,33	1714,15
871,50	1667,05
871,67	1695,72
871,83	1722,34
872,00	1851,36
872,17	1673,19
872,33	1806,31
872,50	1791,97
872,67	1679,33
872,83	1640,42
873,00	1767,40
873,17	1744,87
873,33	1712,10
873,50	1730,53
873,67	1609,70
873,83	1609,70
874,00	1689,57
874,16	1769,44
874,33	1712,10
874,50	1636,33
874,66	1767,40
874,83	1748,97
875,00	1818,60
875,16	1701,86
875,33	1763,30
875,50	1585,13
875,66	1658,85
875,83	1722,34
875,99	1681,38
876,16	1716,20
876,33	1679,33
876,49	1665,00
876,66	1714,15
876,83	1755,11
876,99	1644,52
877,16	1644,52
877,32	1703,91
877,49	1673,19
877,66	1697,77
877,82	1779,68
877,99	1753,06
878,15	1771,49
878,32	1736,68
878,49	1687,53
878,65	1710,05
878,82	1845,22
878,98	1693,67
879,15	1767,40
879,32	1812,45
879,48	1775,59
879,65	1673,19
879,81	1658,85
879,98	1624,04
880,15	1708,01
880,31	1705,96
880,48	1621,99
880,64	1781,73
880,81	1691,62
880,97	1791,97
881,14	1761,25
881,31	1603,56
881,47	1886,18
881,64	1669,09
881,80	1675,24
881,97	1722,34
882,13	1775,59
882,30	1628,14
882,47	1634,28
882,63	1615,85
882,80	1591,27
882,96	1736,68
883,13	1796,07
883,29	1693,67
883,46	1804,26
883,62	1804,26
883,79	1673,19
883,95	1781,73
884,12	1675,24
884,29	1693,67
884,45	1744,87
884,62	1720,29
884,78	1667,05
884,95	1849,32
885,11	1665,00
885,28	1718,25
885,44	1734,63
885,61	1742,82
885,77	1720,29
885,94	1763,30
886,10	1785,83
886,27	1681,38
886,43	1867,75
886,60	1771,49
886,76	1681,38
886,93	1652,71
887,09	1689,57
887,26	1609,70
887,42	1775,59
887,59	1763,30
887,75	1873,89
887,92	1695,72
888,08	1728,49
888,25	1800,16
888,41	1798,12
888,58	1722,34
888,74	1720,29
888,91	1615,85
>>>>>End Processed Spectral Data<<<<<
