SpectraSuite Data File
++++++++++++++++++++++++++++++++++++
Date: Mon Jun 06 13:49:57 CEST 2016
User: root
Dark Spectrum Present: No
Reference Spectrum Present: No
Number of Sampled Component Spectra: 1
Spectrometers: USB4C02835
Integration Time (usec): 100000 (USB4C02835)
Spectra Averaged: 1 (USB4C02835)
Boxcar Smoothing: 0 (USB4C02835)
Correct for Electrical Dark: No (USB4C02835)
Strobe/Lamp Enabled: No (USB4C02835)
Correct for Detector Non-linearity: No (USB4C02835)
Correct for Stray Light: No (USB4C02835)
Number of Pixels in Processed Spectrum: 3648
>>>>>Begin Processed Spectral Data<<<<<
177,47	1443,82
177,69	1443,82
177,91	1443,82
178,13	1478,63
178,36	1478,63
178,58	1648,61
178,80	1705,96
179,02	1624,04
179,24	1615,85
179,46	1646,57
179,68	1779,68
179,90	1726,44
180,13	1691,62
180,35	1648,61
180,57	1685,48
180,79	1740,77
181,01	1730,53
181,23	1779,68
181,45	1785,83
181,67	1705,96
181,90	1738,73
182,12	1593,32
182,34	1628,14
182,56	1775,59
182,78	1724,39
183,00	1714,15
183,22	1705,96
183,44	1607,66
183,66	1875,94
183,89	1759,21
184,11	1703,91
184,33	1734,63
184,55	1757,16
184,77	1705,96
184,99	1753,06
185,21	1542,12
185,43	1896,42
185,65	1634,28
185,87	1691,62
186,10	1871,84
186,32	1841,12
186,54	1722,34
186,76	1763,30
186,98	1728,49
187,20	1718,25
187,42	1574,89
187,64	1724,39
187,86	1667,05
188,08	1734,63
188,30	1675,24
188,52	1665,00
188,75	1828,84
188,97	1736,68
189,19	1665,00
189,41	1701,86
189,63	1742,82
189,85	1658,85
190,07	1654,76
190,29	1566,70
190,51	1720,29
190,73	1591,27
190,95	1734,63
191,17	1685,48
191,39	1636,33
191,61	1642,47
191,84	1687,53
192,06	1683,43
192,28	1603,56
192,50	1910,75
192,72	1656,81
192,94	1699,81
193,16	1834,98
193,38	1681,38
193,60	1685,48
193,82	1640,42
194,04	1791,97
194,26	1773,54
194,48	1701,86
194,70	1724,39
194,92	1697,77
195,14	1703,91
195,36	1632,23
195,58	1683,43
195,80	1683,43
196,02	1712,10
196,24	1740,77
196,46	1656,81
196,69	1656,81
196,91	1845,22
197,13	1669,09
197,35	1667,05
197,57	1763,30
197,79	1716,20
198,01	1734,63
198,23	1699,81
198,45	1710,05
198,67	1640,42
198,89	1705,96
199,11	1681,38
199,33	1685,48
199,55	1542,12
199,77	1679,33
199,99	1800,16
200,21	1624,04
200,43	1689,57
200,65	1578,98
200,87	1587,18
201,09	1615,85
201,31	1701,86
201,53	1722,34
201,75	1701,86
201,97	1687,53
202,19	1681,38
202,41	1697,77
202,63	1828,84
202,85	1716,20
203,07	1675,24
203,29	1669,09
203,51	1640,42
203,73	1611,75
203,95	1812,45
204,17	1757,16
204,39	1648,61
204,61	1687,53
204,83	1744,87
205,05	1726,44
205,27	1808,36
205,49	1802,21
205,71	1687,53
205,93	1652,71
206,15	1738,73
206,37	1718,25
206,59	1632,23
206,81	1660,90
207,03	1693,67
207,25	1593,32
207,47	1710,05
207,69	1722,34
207,91	1728,49
208,13	1724,39
208,34	1681,38
208,56	1525,74
208,78	1642,47
209,00	1665,00
209,22	1615,85
209,44	1687,53
209,66	1656,81
209,88	1683,43
210,10	1722,34
210,32	1662,95
210,54	1769,44
210,76	1667,05
210,98	1769,44
211,20	1681,38
211,42	1662,95
211,64	1810,40
211,86	1675,24
212,08	1822,69
212,30	1798,12
212,52	1675,24
212,74	1738,73
212,96	1744,87
213,17	1761,25
213,39	1779,68
213,61	1771,49
213,83	1640,42
214,05	1626,09
214,27	1734,63
214,49	1554,41
214,71	1683,43
214,93	1779,68
215,15	1775,59
215,37	1734,63
215,59	1615,85
215,81	1699,81
216,03	1785,83
216,24	1671,14
216,46	1683,43
216,68	1697,77
216,90	1708,01
217,12	1738,73
217,34	1576,94
217,56	1753,06
217,78	1767,40
218,00	1693,67
218,22	1785,83
218,44	1761,25
218,66	1673,19
218,87	1804,26
219,09	1716,20
219,31	1783,78
219,53	1740,77
219,75	1646,57
219,97	1701,86
220,19	1722,34
220,41	1648,61
220,63	1748,97
220,85	1679,33
221,06	1689,57
221,28	1814,50
221,50	1755,11
221,72	1652,71
221,94	1617,90
222,16	1738,73
222,38	1738,73
222,60	1660,90
222,82	1685,48
223,03	1824,74
223,25	1601,51
223,47	1726,44
223,69	1849,32
223,91	1724,39
224,13	1624,04
224,35	1660,90
224,57	1769,44
224,78	1720,29
225,00	1634,28
225,22	1644,52
225,44	1689,57
225,66	1773,54
225,88	1703,91
226,10	1728,49
226,32	1732,58
226,53	1757,16
226,75	1667,05
226,97	1624,04
227,19	1708,01
227,41	1697,77
227,63	1662,95
227,85	1568,74
228,06	1689,57
228,28	1675,24
228,50	1675,24
228,72	1669,09
228,94	1712,10
229,16	1591,27
229,37	1615,85
229,59	1638,38
229,81	1730,53
230,03	1603,56
230,25	1619,94
230,47	1624,04
230,69	1675,24
230,90	1769,44
231,12	1617,90
231,34	1716,20
231,56	1771,49
231,78	1568,74
232,00	1691,62
232,21	1691,62
232,43	1679,33
232,65	1591,27
232,87	1718,25
233,09	1675,24
233,30	1732,58
233,52	1738,73
233,74	1671,14
233,96	1667,05
234,18	1746,92
234,40	1691,62
234,61	1861,60
234,83	1687,53
235,05	1679,33
235,27	1845,22
235,49	1830,88
235,70	1751,01
235,92	1777,64
236,14	1761,25
236,36	1845,22
236,58	1677,29
236,79	1705,96
237,01	1640,42
237,23	1697,77
237,45	1777,64
237,67	1665,00
237,88	1755,11
238,10	1763,30
238,32	1603,56
238,54	1636,33
238,76	1648,61
238,97	1656,81
239,19	1634,28
239,41	1740,77
239,63	1787,88
239,85	1687,53
240,06	1671,14
240,28	1673,19
240,50	1736,68
240,72	1716,20
240,93	1667,05
241,15	1695,72
241,37	1667,05
241,59	1771,49
241,81	1624,04
242,02	1705,96
242,24	1738,73
242,46	1693,67
242,68	1609,70
242,89	1695,72
243,11	1783,78
243,33	1765,35
243,55	1675,24
243,76	1710,05
243,98	1701,86
244,20	1634,28
244,42	1685,48
244,64	1738,73
244,85	1687,53
245,07	1667,05
245,29	1703,91
245,51	1679,33
245,72	1703,91
245,94	1746,92
246,16	1656,81
246,38	1802,21
246,59	1652,71
246,81	1656,81
247,03	1679,33
247,24	1683,43
247,46	1617,90
247,68	1705,96
247,90	1697,77
248,11	1685,48
248,33	1720,29
248,55	1673,19
248,77	1681,38
248,98	1773,54
249,20	1744,87
249,42	1740,77
249,64	1691,62
249,85	1691,62
250,07	1667,05
250,29	1783,78
250,50	1683,43
250,72	1589,22
250,94	1773,54
251,16	1816,55
251,37	1746,92
251,59	1730,53
251,81	1773,54
252,02	1765,35
252,24	1703,91
252,46	1679,33
252,68	1638,38
252,89	1671,14
253,11	1599,46
253,33	1802,21
253,54	1785,83
253,76	1636,33
253,98	1722,34
254,20	1687,53
254,41	1615,85
254,63	1665,00
254,85	1595,37
255,06	1626,09
255,28	1728,49
255,50	1652,71
255,71	1671,14
255,93	1615,85
256,15	1705,96
256,36	1728,49
256,58	1689,57
256,80	1648,61
257,02	1626,09
257,23	1648,61
257,45	1636,33
257,67	1695,72
257,88	1652,71
258,10	1730,53
258,32	1751,01
258,53	1726,44
258,75	1769,44
258,97	1654,76
259,18	1701,86
259,40	1765,35
259,62	1791,97
259,83	1820,64
260,05	1646,57
260,27	1947,62
260,48	1738,73
260,70	1691,62
260,92	1665,00
261,13	1624,04
261,35	1701,86
261,57	1746,92
261,78	1681,38
262,00	1650,66
262,22	1742,82
262,43	1646,57
262,65	1626,09
262,86	1683,43
263,08	1802,21
263,30	1796,07
263,51	1624,04
263,73	1667,05
263,95	1826,79
264,16	1628,14
264,38	1716,20
264,60	1740,77
264,81	1607,66
265,03	1822,69
265,25	1656,81
265,46	1693,67
265,68	1693,67
265,89	1781,73
266,11	1574,89
266,33	1791,97
266,54	1812,45
266,76	1720,29
266,98	1732,58
267,19	1714,15
267,41	1834,98
267,62	1718,25
267,84	1669,09
268,06	1724,39
268,27	1705,96
268,49	1830,88
268,70	1771,49
268,92	1671,14
269,14	1646,57
269,35	1609,70
269,57	1687,53
269,79	1765,35
270,00	1660,90
270,22	1757,16
270,43	1658,85
270,65	1587,18
270,87	1677,29
271,08	1722,34
271,30	1738,73
271,51	1658,85
271,73	1734,63
271,95	1708,01
272,16	1691,62
272,38	1732,58
272,59	1656,81
272,81	1652,71
273,02	1726,44
273,24	1738,73
273,46	1759,21
273,67	1587,18
273,89	1671,14
274,10	1714,15
274,32	1734,63
274,54	1693,67
274,75	1722,34
274,97	1656,81
275,18	1755,11
275,40	1673,19
275,61	1683,43
275,83	1736,68
276,05	1644,52
276,26	1710,05
276,48	1763,30
276,69	1673,19
276,91	1673,19
277,12	1828,84
277,34	1742,82
277,55	1818,60
277,77	1691,62
277,99	1644,52
278,20	1648,61
278,42	1613,80
278,63	1679,33
278,85	1710,05
279,06	1656,81
279,28	1673,19
279,49	1710,05
279,71	1742,82
279,93	1683,43
280,14	1683,43
280,36	1638,38
280,57	1730,53
280,79	1779,68
281,00	1662,95
281,22	1693,67
281,43	1781,73
281,65	1597,42
281,86	1689,57
282,08	1691,62
282,29	1841,12
282,51	1609,70
282,73	1634,28
282,94	1605,61
283,16	1775,59
283,37	1830,88
283,59	1726,44
283,80	1759,21
284,02	1708,01
284,23	1669,09
284,45	1695,72
284,66	1665,00
284,88	1685,48
285,09	1736,68
285,31	1685,48
285,52	1757,16
285,74	1617,90
285,95	1759,21
286,17	1669,09
286,38	1810,40
286,60	1628,14
286,81	1697,77
287,03	1667,05
287,24	1634,28
287,46	1726,44
287,67	1712,10
287,89	1841,12
288,10	1660,90
288,32	1648,61
288,53	1718,25
288,75	1714,15
288,96	1777,64
289,18	1660,90
289,39	1724,39
289,61	1722,34
289,82	1787,88
290,04	1832,93
290,25	1646,57
290,47	1837,03
290,68	1636,33
290,90	1759,21
291,11	1677,29
291,33	1683,43
291,54	1685,48
291,76	1652,71
291,97	1763,30
292,18	1722,34
292,40	1667,05
292,61	1714,15
292,83	1761,25
293,04	1697,77
293,26	1728,49
293,47	1677,29
293,69	1597,42
293,90	1716,20
294,12	1769,44
294,33	1753,06
294,55	1685,48
294,76	1740,77
294,97	1775,59
295,19	1814,50
295,40	1624,04
295,62	1714,15
295,83	1742,82
296,05	1697,77
296,26	1824,74
296,48	1665,00
296,69	1732,58
296,90	1673,19
297,12	1785,83
297,33	1767,40
297,55	1767,40
297,76	1697,77
297,98	1767,40
298,19	1728,49
298,41	1759,21
298,62	1703,91
298,83	1789,92
299,05	1671,14
299,26	1634,28
299,48	1687,53
299,69	1773,54
299,90	1656,81
300,12	1548,26
300,33	1675,24
300,55	1736,68
300,76	1834,98
300,98	1697,77
301,19	1716,20
301,40	1662,95
301,62	1683,43
301,83	1736,68
302,05	1738,73
302,26	1742,82
302,47	1710,05
302,69	1669,09
302,90	1732,58
303,12	1626,09
303,33	1734,63
303,54	1777,64
303,76	1738,73
303,97	1751,01
304,19	1822,69
304,40	1591,27
304,61	1728,49
304,83	1851,36
305,04	1689,57
305,26	1718,25
305,47	1583,08
305,68	1699,81
305,90	1656,81
306,11	1828,84
306,33	1677,29
306,54	1708,01
306,75	1695,72
306,97	1615,85
307,18	1574,89
307,39	1724,39
307,61	1771,49
307,82	1642,47
308,04	1820,64
308,25	1660,90
308,46	1726,44
308,68	1708,01
308,89	1621,99
309,10	1732,58
309,32	1669,09
309,53	1669,09
309,74	1701,86
309,96	1646,57
310,17	1832,93
310,39	1650,66
310,60	1796,07
310,81	1722,34
311,03	1505,26
311,24	1773,54
311,45	1714,15
311,67	1834,98
311,88	1652,71
312,09	1693,67
312,31	1703,91
312,52	1697,77
312,73	1677,29
312,95	1574,89
313,16	1679,33
313,37	1796,07
313,59	1746,92
313,80	1822,69
314,01	1787,88
314,23	1648,61
314,44	1693,67
314,65	1648,61
314,87	1621,99
315,08	1708,01
315,29	1585,13
315,51	1665,00
315,72	1619,94
315,93	1765,35
316,15	1763,30
316,36	1650,66
316,57	1621,99
316,79	1640,42
317,00	1703,91
317,21	1697,77
317,43	1667,05
317,64	1734,63
317,85	1708,01
318,07	1671,14
318,28	1697,77
318,49	1757,16
318,70	1861,60
318,92	1828,84
319,13	1853,41
319,34	1826,79
319,56	1816,55
319,77	1806,31
319,98	1853,41
320,20	1716,20
320,41	1847,27
320,62	1767,40
320,83	1626,09
321,05	1847,27
321,26	1738,73
321,47	1732,58
321,69	1822,69
321,90	1634,28
322,11	1722,34
322,32	1716,20
322,54	1738,73
322,75	1695,72
322,96	1794,02
323,18	1597,42
323,39	1667,05
323,60	1687,53
323,81	1787,88
324,03	1697,77
324,24	1624,04
324,45	1728,49
324,66	1710,05
324,88	1746,92
325,09	1736,68
325,30	1701,86
325,52	1724,39
325,73	1742,82
325,94	1654,76
326,15	1554,41
326,37	1656,81
326,58	1771,49
326,79	1814,50
327,00	1720,29
327,22	1654,76
327,43	1738,73
327,64	1650,66
327,85	1744,87
328,07	1701,86
328,28	1812,45
328,49	1601,51
328,70	1722,34
328,92	1597,42
329,13	1716,20
329,34	1708,01
329,55	1847,27
329,76	1779,68
329,98	1613,80
330,19	1779,68
330,40	1724,39
330,61	1689,57
330,83	1832,93
331,04	1667,05
331,25	1712,10
331,46	1730,53
331,68	1609,70
331,89	1800,16
332,10	1621,99
332,31	1585,13
332,52	1705,96
332,74	1740,77
332,95	1708,01
333,16	1724,39
333,37	1730,53
333,58	1669,09
333,80	1693,67
334,01	1640,42
334,22	1705,96
334,43	1705,96
334,64	1726,44
334,86	1626,09
335,07	1611,75
335,28	1765,35
335,49	1624,04
335,70	1808,36
335,92	1708,01
336,13	1818,60
336,34	1804,26
336,55	1761,25
336,76	1697,77
336,98	1570,79
337,19	1720,29
337,40	1816,55
337,61	1837,03
337,82	1699,81
338,04	1699,81
338,25	1640,42
338,46	1728,49
338,67	1679,33
338,88	1669,09
339,09	1685,48
339,31	1624,04
339,52	1603,56
339,73	1683,43
339,94	1669,09
340,15	1765,35
340,36	1654,76
340,58	1728,49
340,79	1609,70
341,00	1732,58
341,21	1632,23
341,42	1808,36
341,63	1648,61
341,85	1810,40
342,06	1734,63
342,27	1660,90
342,48	1714,15
342,69	1626,09
342,90	1736,68
343,12	1679,33
343,33	1703,91
343,54	1673,19
343,75	1720,29
343,96	1677,29
344,17	1714,15
344,38	1656,81
344,60	1632,23
344,81	1619,94
345,02	1665,00
345,23	1726,44
345,44	1794,02
345,65	1646,57
345,86	1722,34
346,07	1699,81
346,29	1687,53
346,50	1708,01
346,71	1722,34
346,92	1734,63
347,13	1853,41
347,34	1710,05
347,55	1693,67
347,76	1742,82
347,98	1595,37
348,19	1675,24
348,40	1824,74
348,61	1656,81
348,82	1832,93
349,03	1726,44
349,24	1675,24
349,45	1810,40
349,66	1628,14
349,88	1701,86
350,09	1724,39
350,30	1804,26
350,51	1759,21
350,72	1685,48
350,93	1691,62
351,14	1681,38
351,35	1671,14
351,56	1753,06
351,77	1718,25
351,99	1665,00
352,20	1753,06
352,41	1771,49
352,62	1548,26
352,83	1650,66
353,04	1697,77
353,25	1751,01
353,46	1732,58
353,67	1798,12
353,88	1535,98
354,09	1753,06
354,30	1765,35
354,52	1748,97
354,73	1681,38
354,94	1642,47
355,15	1724,39
355,36	1806,31
355,57	1714,15
355,78	1648,61
355,99	1660,90
356,20	1695,72
356,41	1820,64
356,62	1771,49
356,83	1699,81
357,04	1847,27
357,25	1609,70
357,46	1753,06
357,68	1613,80
357,89	1611,75
358,10	1685,48
358,31	1714,15
358,52	1669,09
358,73	1662,95
358,94	1566,70
359,15	1615,85
359,36	1759,21
359,57	1636,33
359,78	1636,33
359,99	1718,25
360,20	1576,94
360,41	1726,44
360,62	1738,73
360,83	1705,96
361,04	1673,19
361,25	1746,92
361,46	1755,11
361,67	1730,53
361,88	1751,01
362,09	1746,92
362,30	1695,72
362,51	1710,05
362,72	1687,53
362,93	1656,81
363,14	1763,30
363,35	1703,91
363,56	1621,99
363,78	1744,87
363,99	1767,40
364,20	1669,09
364,41	1705,96
364,62	1800,16
364,83	1757,16
365,04	1681,38
365,25	1714,15
365,46	1824,74
365,67	1642,47
365,88	1644,52
366,09	1665,00
366,30	1658,85
366,51	1722,34
366,72	1617,90
366,93	1718,25
367,14	1734,63
367,35	1755,11
367,56	1656,81
367,77	1738,73
367,98	1751,01
368,18	1757,16
368,39	1699,81
368,60	1665,00
368,81	1722,34
369,02	1751,01
369,23	1660,90
369,44	1634,28
369,65	1652,71
369,86	1718,25
370,07	1830,88
370,28	1640,42
370,49	1724,39
370,70	1699,81
370,91	1636,33
371,12	1669,09
371,33	1863,65
371,54	1730,53
371,75	1806,31
371,96	1634,28
372,17	1703,91
372,38	1605,61
372,59	1759,21
372,80	1691,62
373,01	1589,22
373,22	1658,85
373,43	1724,39
373,64	1583,08
373,85	1787,88
374,06	1845,22
374,26	1683,43
374,47	1644,52
374,68	1794,02
374,89	1746,92
375,10	1699,81
375,31	1730,53
375,52	1654,76
375,73	1703,91
375,94	1708,01
376,15	1781,73
376,36	1638,38
376,57	1656,81
376,78	1675,24
376,99	1746,92
377,20	1816,55
377,40	1701,86
377,61	1775,59
377,82	1703,91
378,03	1728,49
378,24	1699,81
378,45	1675,24
378,66	1755,11
378,87	1570,79
379,08	1624,04
379,29	1671,14
379,50	1751,01
379,71	1656,81
379,91	1763,30
380,12	1701,86
380,33	1656,81
380,54	1708,01
380,75	1658,85
380,96	1677,29
381,17	1783,78
381,38	1693,67
381,59	1726,44
381,80	1695,72
382,00	1822,69
382,21	1796,07
382,42	1804,26
382,63	1845,22
382,84	1779,68
383,05	1855,46
383,26	1755,11
383,47	1720,29
383,68	1705,96
383,88	1679,33
384,09	1832,93
384,30	1820,64
384,51	1728,49
384,72	1660,90
384,93	1628,14
385,14	1763,30
385,35	1740,77
385,55	1669,09
385,76	1740,77
385,97	1621,99
386,18	1617,90
386,39	1658,85
386,60	1705,96
386,81	1679,33
387,02	1714,15
387,22	1693,67
387,43	1726,44
387,64	1796,07
387,85	1896,42
388,06	2230,24
388,27	4368,32
388,48	6840,22
388,68	8288,13
388,89	9797,48
389,10	9830,25
389,31	8681,34
389,52	7653,26
389,73	6752,15
389,93	6234,02
390,14	5906,34
390,35	5359,53
390,56	4550,59
390,77	3880,90
390,98	3104,72
391,18	2566,10
391,39	2136,03
391,60	1830,88
391,81	1882,08
392,02	1730,53
392,23	1855,46
392,43	1699,81
392,64	1830,88
392,85	1736,68
393,06	1705,96
393,27	1701,86
393,47	1591,27
393,68	1656,81
393,89	1708,01
394,10	1689,57
394,31	1626,09
394,52	1609,70
394,72	1621,99
394,93	1794,02
395,14	1652,71
395,35	1769,44
395,56	1658,85
395,76	1763,30
395,97	1843,17
396,18	1828,84
396,39	1859,56
396,60	1984,48
396,80	1886,18
397,01	1845,22
397,22	1861,60
397,43	1918,95
397,64	1718,25
397,84	1777,64
398,05	1802,21
398,26	1796,07
398,47	1796,07
398,67	1779,68
398,88	1738,73
399,09	1798,12
399,30	1626,09
399,51	1720,29
399,71	1648,61
399,92	1705,96
400,13	1693,67
400,34	1730,53
400,54	1632,23
400,75	1724,39
400,96	1662,95
401,17	1810,40
401,37	1724,39
401,58	1701,86
401,79	1644,52
402,00	1912,80
402,21	1996,77
402,41	1943,52
402,62	1990,63
402,83	1972,19
403,04	1925,09
403,24	2054,11
403,45	1859,56
403,66	1845,22
403,87	1851,36
404,07	1929,19
404,28	1890,28
404,49	1898,47
404,70	1714,15
404,90	1671,14
405,11	1755,11
405,32	1822,69
405,52	1687,53
405,73	1628,14
405,94	1738,73
406,15	1691,62
406,35	1759,21
406,56	1718,25
406,77	1683,43
406,98	1718,25
407,18	1683,43
407,39	1734,63
407,60	1689,57
407,80	1736,68
408,01	1665,00
408,22	1673,19
408,43	1712,10
408,63	1730,53
408,84	1710,05
409,05	1697,77
409,25	1642,47
409,46	1703,91
409,67	1665,00
409,88	1648,61
410,08	1765,35
410,29	1662,95
410,50	1746,92
410,70	1742,82
410,91	1640,42
411,12	1718,25
411,32	1693,67
411,53	1714,15
411,74	1794,02
411,95	1748,97
412,15	1724,39
412,36	1736,68
412,57	1814,50
412,77	1865,70
412,98	1681,38
413,19	1650,66
413,39	1665,00
413,60	1740,77
413,81	1783,78
414,01	1683,43
414,22	1689,57
414,43	1783,78
414,63	1755,11
414,84	1806,31
415,05	1753,06
415,25	1634,28
415,46	1714,15
415,67	1697,77
415,87	1601,51
416,08	1708,01
416,29	1617,90
416,49	1791,97
416,70	1728,49
416,91	1665,00
417,11	1771,49
417,32	1742,82
417,53	1716,20
417,73	1740,77
417,94	1714,15
418,15	1714,15
418,35	1734,63
418,56	1687,53
418,77	1763,30
418,97	1628,14
419,18	1769,44
419,38	1628,14
419,59	1748,97
419,80	1773,54
420,00	1734,63
420,21	1671,14
420,42	1722,34
420,62	1710,05
420,83	1599,46
421,04	1689,57
421,24	1669,09
421,45	1734,63
421,65	1746,92
421,86	1746,92
422,07	1748,97
422,27	1679,33
422,48	1763,30
422,69	1693,67
422,89	1736,68
423,10	1697,77
423,30	1621,99
423,51	1732,58
423,72	1767,40
423,92	1728,49
424,13	1671,14
424,33	1677,29
424,54	1755,11
424,75	1628,14
424,95	1791,97
425,16	1658,85
425,36	1712,10
425,57	1808,36
425,78	1787,88
425,98	1775,59
426,19	1767,40
426,39	1595,37
426,60	1775,59
426,81	1857,51
427,01	1687,53
427,22	1703,91
427,42	1560,55
427,63	1658,85
427,83	1771,49
428,04	1837,03
428,25	1759,21
428,45	1794,02
428,66	1791,97
428,86	1621,99
429,07	1699,81
429,28	1705,96
429,48	1632,23
429,69	1677,29
429,89	1685,48
430,10	1675,24
430,30	1744,87
430,51	1894,37
430,71	1726,44
430,92	1673,19
431,13	1724,39
431,33	1773,54
431,54	1736,68
431,74	1824,74
431,95	1767,40
432,15	1673,19
432,36	1761,25
432,56	1685,48
432,77	1828,84
432,98	1791,97
433,18	1722,34
433,39	1658,85
433,59	1705,96
433,80	1843,17
434,00	1814,50
434,21	1681,38
434,41	1718,25
434,62	1837,03
434,82	1658,85
435,03	1689,57
435,23	1677,29
435,44	1607,66
435,64	1771,49
435,85	1705,96
436,06	1744,87
436,26	1656,81
436,47	1732,58
436,67	1722,34
436,88	1660,90
437,08	1673,19
437,29	1808,36
437,49	1716,20
437,70	1777,64
437,90	1722,34
438,11	1824,74
438,31	1839,08
438,52	1923,04
438,72	1832,93
438,93	1927,14
439,13	1812,45
439,34	1832,93
439,54	1794,02
439,75	1761,25
439,95	1818,60
440,16	1705,96
440,36	1701,86
440,57	1800,16
440,77	1796,07
440,98	1675,24
441,18	1824,74
441,39	1732,58
441,59	1724,39
441,80	1853,41
442,00	1734,63
442,21	1759,21
442,41	1714,15
442,62	1806,31
442,82	1695,72
443,02	1730,53
443,23	1757,16
443,43	1755,11
443,64	1824,74
443,84	1650,66
444,05	1740,77
444,25	1740,77
444,46	1753,06
444,66	1748,97
444,87	1802,21
445,07	1624,04
445,28	1730,53
445,48	1820,64
445,69	1820,64
445,89	1834,98
446,09	1734,63
446,30	2047,97
446,50	2625,50
446,71	3715,02
446,91	4325,31
447,12	4657,08
447,32	4808,63
447,53	4435,90
447,73	3788,74
447,93	3534,79
448,14	3360,72
448,34	3196,88
448,55	2953,17
448,75	2881,49
448,96	2758,61
449,16	2453,47
449,36	2346,97
449,57	2052,06
449,77	1896,42
449,98	1896,42
450,18	1853,41
450,39	1783,78
450,59	1775,59
450,79	1777,64
451,00	1732,58
451,20	1900,52
451,41	1632,23
451,61	1757,16
451,81	1748,97
452,02	1597,42
452,22	1826,79
452,43	1695,72
452,63	1724,39
452,84	1695,72
453,04	1742,82
453,24	1755,11
453,45	1646,57
453,65	1775,59
453,86	1744,87
454,06	1843,17
454,26	1814,50
454,47	1628,14
454,67	1808,36
454,87	1732,58
455,08	1708,01
455,28	1816,55
455,49	1796,07
455,69	1708,01
455,89	1785,83
456,10	1798,12
456,30	1691,62
456,51	1769,44
456,71	1765,35
456,91	1783,78
457,12	1695,72
457,32	1808,36
457,52	1685,48
457,73	1751,01
457,93	1769,44
458,14	1646,57
458,34	1603,56
458,54	1800,16
458,75	1687,53
458,95	1701,86
459,15	1859,56
459,36	1685,48
459,56	1759,21
459,76	1884,13
459,97	1701,86
460,17	1617,90
460,37	1832,93
460,58	1746,92
460,78	1738,73
460,99	1722,34
461,19	1738,73
461,39	1710,05
461,60	1761,25
461,80	1806,31
462,00	1679,33
462,21	1718,25
462,41	1730,53
462,61	1658,85
462,82	1576,94
463,02	1771,49
463,22	1765,35
463,43	1761,25
463,63	1761,25
463,83	1781,73
464,04	1740,77
464,24	1697,77
464,44	1708,01
464,64	1738,73
464,85	1753,06
465,05	1738,73
465,25	1730,53
465,46	1712,10
465,66	1814,50
465,86	1837,03
466,07	1689,57
466,27	1675,24
466,47	1652,71
466,68	1703,91
466,88	1839,08
467,08	1791,97
467,29	1714,15
467,49	1683,43
467,69	1746,92
467,89	1785,83
468,10	1638,38
468,30	1730,53
468,50	1767,40
468,71	1746,92
468,91	1576,94
469,11	1865,70
469,31	1730,53
469,52	1665,00
469,72	1822,69
469,92	1800,16
470,13	1714,15
470,33	1736,68
470,53	1791,97
470,73	2133,98
470,94	2205,66
471,14	2400,22
471,34	2492,38
471,54	2396,12
471,75	2217,95
471,95	2021,35
472,15	2011,11
472,36	2080,74
472,56	2062,30
472,76	2033,63
472,96	1939,43
473,17	1974,24
473,37	1861,60
473,57	1742,82
473,77	1742,82
473,98	1806,31
474,18	1718,25
474,38	1880,04
474,58	1679,33
474,79	1648,61
474,99	1744,87
475,19	1832,93
475,39	1660,90
475,60	1712,10
475,80	1746,92
476,00	1755,11
476,20	1656,81
476,41	1671,14
476,61	1871,84
476,81	1828,84
477,01	1656,81
477,21	1794,02
477,42	1826,79
477,62	1681,38
477,82	1767,40
478,02	1697,77
478,23	1798,12
478,43	1718,25
478,63	1734,63
478,83	1662,95
479,03	1699,81
479,24	1808,36
479,44	1781,73
479,64	1767,40
479,84	1679,33
480,04	1685,48
480,25	1777,64
480,45	1722,34
480,65	1759,21
480,85	1787,88
481,06	1701,86
481,26	1669,09
481,46	1730,53
481,66	1771,49
481,86	1705,96
482,06	1773,54
482,27	1710,05
482,47	1701,86
482,67	1726,44
482,87	1689,57
483,07	1824,74
483,28	1683,43
483,48	1650,66
483,68	1722,34
483,88	1652,71
484,08	1654,76
484,29	1656,81
484,49	1761,25
484,69	1675,24
484,89	1794,02
485,09	1765,35
485,29	1761,25
485,50	1779,68
485,70	1593,32
485,90	1861,60
486,10	1746,92
486,30	1798,12
486,50	1812,45
486,71	1710,05
486,91	1742,82
487,11	1812,45
487,31	1640,42
487,51	1785,83
487,71	1701,86
487,91	1658,85
488,12	1634,28
488,32	1607,66
488,52	1761,25
488,72	1581,03
488,92	1732,58
489,12	1761,25
489,32	1884,13
489,53	1730,53
489,73	1648,61
489,93	1849,32
490,13	1613,80
490,33	1591,27
490,53	1730,53
490,73	1794,02
490,94	1552,36
491,14	1763,30
491,34	1818,60
491,54	2125,79
491,74	2650,07
491,94	2904,02
492,14	3143,63
492,34	3053,52
492,54	2711,51
492,75	2494,43
492,95	2428,89
493,15	2326,49
493,35	2402,27
493,55	2168,80
493,75	2090,98
493,95	2058,21
494,15	2002,91
494,35	1849,32
494,56	1814,50
494,76	1755,11
494,96	1851,36
495,16	1748,97
495,36	1777,64
495,56	1732,58
495,76	1787,88
495,96	1726,44
496,16	1665,00
496,36	1853,41
496,56	1748,97
496,77	1755,11
496,97	1789,92
497,17	1736,68
497,37	1712,10
497,57	1746,92
497,77	1755,11
497,97	1705,96
498,17	1773,54
498,37	1689,57
498,57	1785,83
498,77	1708,01
498,97	1751,01
499,17	1830,88
499,38	1734,63
499,58	1761,25
499,78	1761,25
499,98	1769,44
500,18	1714,15
500,38	1681,38
500,58	1945,57
500,78	2502,62
500,98	4605,88
501,18	5904,29
501,38	6875,03
501,58	7061,40
501,78	6676,38
501,98	5353,39
502,18	5005,24
502,38	4419,52
502,58	4044,74
502,78	3887,04
502,98	3667,91
503,18	3514,31
503,38	3106,77
503,59	2848,72
503,79	2631,64
503,99	2496,47
504,19	2299,87
504,39	2144,22
504,59	2142,18
504,79	2101,22
504,99	2086,88
505,19	1898,47
505,39	1914,85
505,59	1974,24
505,79	1861,60
505,99	1880,04
506,19	1808,36
506,39	1810,40
506,59	1763,30
506,79	1826,79
506,99	1849,32
507,19	1734,63
507,39	1775,59
507,59	1654,76
507,79	1638,38
507,99	1634,28
508,19	1740,77
508,39	1726,44
508,59	1701,86
508,79	1816,55
508,99	1867,75
509,19	1722,34
509,39	1791,97
509,59	1755,11
509,79	1673,19
509,99	1779,68
510,19	1785,83
510,39	1791,97
510,59	1695,72
510,79	1732,58
510,99	1693,67
511,19	1722,34
511,39	1771,49
511,59	1761,25
511,79	1785,83
511,99	1701,86
512,19	1822,69
512,38	1679,33
512,58	1650,66
512,78	1697,77
512,98	1834,98
513,18	1822,69
513,38	1611,75
513,58	1689,57
513,78	1736,68
513,98	1765,35
514,18	1736,68
514,38	1689,57
514,58	1748,97
514,78	1703,91
514,98	1648,61
515,18	1742,82
515,38	1787,88
515,58	1710,05
515,78	1716,20
515,98	1740,77
516,18	1734,63
516,38	1691,62
516,57	1734,63
516,77	1669,09
516,97	1759,21
517,17	1681,38
517,37	1669,09
517,57	1753,06
517,77	1705,96
517,97	1691,62
518,17	1820,64
518,37	1615,85
518,57	1615,85
518,77	1738,73
518,97	1693,67
519,16	1800,16
519,36	1742,82
519,56	1734,63
519,76	1738,73
519,96	1705,96
520,16	1796,07
520,36	1673,19
520,56	1791,97
520,76	1722,34
520,96	1660,90
521,16	1755,11
521,35	1783,78
521,55	1855,46
521,75	1767,40
521,95	1742,82
522,15	1675,24
522,35	1660,90
522,55	1720,29
522,75	1769,44
522,95	1732,58
523,14	1720,29
523,34	1763,30
523,54	1648,61
523,74	1783,78
523,94	1789,92
524,14	1658,85
524,34	1830,88
524,54	1744,87
524,73	1736,68
524,93	1771,49
525,13	1775,59
525,33	1611,75
525,53	1826,79
525,73	1755,11
525,93	1773,54
526,13	1665,00
526,32	1697,77
526,52	1785,83
526,72	1726,44
526,92	1628,14
527,12	1677,29
527,32	1605,61
527,52	1779,68
527,71	1791,97
527,91	1722,34
528,11	1730,53
528,31	1775,59
528,51	1628,14
528,71	1751,01
528,90	1785,83
529,10	1834,98
529,30	1863,65
529,50	1718,25
529,70	1708,01
529,90	1714,15
530,09	1732,58
530,29	1701,86
530,49	1671,14
530,69	1892,32
530,89	1685,48
531,09	1824,74
531,28	1652,71
531,48	1787,88
531,68	1730,53
531,88	1714,15
532,08	1791,97
532,28	1771,49
532,47	1796,07
532,67	1779,68
532,87	1820,64
533,07	1681,38
533,27	1794,02
533,46	1708,01
533,66	1746,92
533,86	1660,90
534,06	1683,43
534,26	1789,92
534,45	1699,81
534,65	1796,07
534,85	1720,29
535,05	1634,28
535,25	1834,98
535,44	1710,05
535,64	1757,16
535,84	1624,04
536,04	1746,92
536,24	1712,10
536,43	1665,00
536,63	1728,49
536,83	1734,63
537,03	1628,14
537,22	1656,81
537,42	1658,85
537,62	1710,05
537,82	1724,39
538,02	1767,40
538,21	1828,84
538,41	1888,23
538,61	1761,25
538,81	1714,15
539,00	1761,25
539,20	1665,00
539,40	1640,42
539,60	1746,92
539,79	1759,21
539,99	1705,96
540,19	1656,81
540,39	1701,86
540,58	1720,29
540,78	1701,86
540,98	1767,40
541,18	1738,73
541,37	1839,08
541,57	1716,20
541,77	1734,63
541,97	1738,73
542,16	1628,14
542,36	1662,95
542,56	1583,08
542,76	1800,16
542,95	1808,36
543,15	1753,06
543,35	1689,57
543,54	1673,19
543,74	1767,40
543,94	1820,64
544,14	1712,10
544,33	1679,33
544,53	1740,77
544,73	1759,21
544,93	1701,86
545,12	1685,48
545,32	1718,25
545,52	1753,06
545,71	1658,85
545,91	1695,72
546,11	1697,77
546,30	1634,28
546,50	1767,40
546,70	1765,35
546,90	1673,19
547,09	1671,14
547,29	1708,01
547,49	1742,82
547,68	1681,38
547,88	1710,05
548,08	1828,84
548,27	2127,84
548,47	1748,97
548,67	1671,14
548,87	1738,73
549,06	1769,44
549,26	1689,57
549,46	1753,06
549,65	1675,24
549,85	1791,97
550,05	1775,59
550,24	1722,34
550,44	1751,01
550,64	1728,49
550,83	1753,06
551,03	1802,21
551,23	1761,25
551,42	1724,39
551,62	1689,57
551,82	1683,43
552,01	1673,19
552,21	1808,36
552,41	1703,91
552,60	1855,46
552,80	1742,82
553,00	1714,15
553,19	1748,97
553,39	1820,64
553,59	1699,81
553,78	1732,58
553,98	1761,25
554,17	1689,57
554,37	1751,01
554,57	1771,49
554,76	1638,38
554,96	1685,48
555,16	1712,10
555,35	1701,86
555,55	1775,59
555,75	1662,95
555,94	1791,97
556,14	1677,29
556,33	1662,95
556,53	1748,97
556,73	1736,68
556,92	1802,21
557,12	1834,98
557,32	1869,80
557,51	1798,12
557,71	1746,92
557,90	1843,17
558,10	1814,50
558,30	1689,57
558,49	1714,15
558,69	1679,33
558,88	1736,68
559,08	1734,63
559,28	1714,15
559,47	1871,84
559,67	1794,02
559,86	1789,92
560,06	1794,02
560,26	1732,58
560,45	1769,44
560,65	1714,15
560,84	1834,98
561,04	1673,19
561,24	1734,63
561,43	1650,66
561,63	1781,73
561,82	1744,87
562,02	1771,49
562,22	1716,20
562,41	1646,57
562,61	1681,38
562,80	1695,72
563,00	1918,95
563,19	1804,26
563,39	1746,92
563,59	1783,78
563,78	1673,19
563,98	1662,95
564,17	1665,00
564,37	1656,81
564,56	1738,73
564,76	1578,98
564,96	1814,50
565,15	1748,97
565,35	1820,64
565,54	1724,39
565,74	1755,11
565,93	1761,25
566,13	1773,54
566,32	1740,77
566,52	1701,86
566,71	1699,81
566,91	1777,64
567,11	1703,91
567,30	1660,90
567,50	1751,01
567,69	1755,11
567,89	1744,87
568,08	1636,33
568,28	1759,21
568,47	1673,19
568,67	1851,36
568,86	1699,81
569,06	1791,97
569,25	1730,53
569,45	1642,47
569,64	1681,38
569,84	1705,96
570,04	1746,92
570,23	1687,53
570,43	1798,12
570,62	1708,01
570,82	1859,56
571,01	1781,73
571,21	1751,01
571,40	1746,92
571,60	1765,35
571,79	1812,45
571,99	1744,87
572,18	1640,42
572,38	1726,44
572,57	1710,05
572,77	1746,92
572,96	1857,51
573,16	1736,68
573,35	1726,44
573,55	1794,02
573,74	1714,15
573,94	1634,28
574,13	1710,05
574,33	1675,24
574,52	1787,88
574,71	1740,77
574,91	1828,84
575,10	1728,49
575,30	1763,30
575,49	1695,72
575,69	1644,52
575,88	1746,92
576,08	1755,11
576,27	1718,25
576,47	1767,40
576,66	1824,74
576,86	1826,79
577,05	1783,78
577,25	1822,69
577,44	1861,60
577,64	1769,44
577,83	1738,73
578,02	1701,86
578,22	1796,07
578,41	1794,02
578,61	1794,02
578,80	1714,15
579,00	1796,07
579,19	1705,96
579,39	1738,73
579,58	1800,16
579,77	1763,30
579,97	1822,69
580,16	1843,17
580,36	1796,07
580,55	1722,34
580,75	1755,11
580,94	1691,62
581,13	1894,37
581,33	1875,94
581,52	1787,88
581,72	1892,32
581,91	1834,98
582,11	1769,44
582,30	1839,08
582,49	1755,11
582,69	1779,68
582,88	1755,11
583,08	1773,54
583,27	1818,60
583,47	1787,88
583,66	1689,57
583,85	1683,43
584,05	1816,55
584,24	1781,73
584,44	1761,25
584,63	1906,66
584,82	1812,45
585,02	1816,55
585,21	1781,73
585,41	1849,32
585,60	1796,07
585,79	1929,19
585,99	1890,28
586,18	1882,08
586,37	2220,00
586,57	3393,48
586,76	10043,24
586,96	24802,95
587,15	34903,53
587,34	41078,16
587,54	42562,93
587,73	36820,43
587,93	26660,46
588,12	21819,06
588,31	18300,65
588,51	16439,05
588,70	15181,59
588,89	13926,19
589,09	12791,61
589,28	11194,20
589,47	9555,82
589,67	8189,83
589,86	6594,46
590,06	5099,44
590,25	3958,72
590,44	3121,10
590,64	2467,80
590,83	2334,68
591,02	2058,21
591,22	1982,43
591,41	1943,52
591,60	2009,06
591,80	1953,76
591,99	1736,68
592,18	1800,16
592,38	1843,17
592,57	1738,73
592,76	1755,11
592,96	1789,92
593,15	1652,71
593,34	1759,21
593,54	1742,82
593,73	1767,40
593,92	1771,49
594,12	1742,82
594,31	1771,49
594,50	1847,27
594,70	1738,73
594,89	1828,84
595,08	1636,33
595,28	1738,73
595,47	1927,14
595,66	1728,49
595,86	1720,29
596,05	1636,33
596,24	1669,09
596,43	1808,36
596,63	1820,64
596,82	1779,68
597,01	1834,98
597,21	1812,45
597,40	1806,31
597,59	1755,11
597,79	1660,90
597,98	1687,53
598,17	1763,30
598,36	1744,87
598,56	1787,88
598,75	1748,97
598,94	1773,54
599,14	1710,05
599,33	1697,77
599,52	1783,78
599,71	1675,24
599,91	1757,16
600,10	1753,06
600,29	1710,05
600,48	1808,36
600,68	1804,26
600,87	1812,45
601,06	1699,81
601,26	1730,53
601,45	1775,59
601,64	1732,58
601,83	1742,82
602,03	1671,14
602,22	1615,85
602,41	1830,88
602,60	1880,04
602,80	1734,63
602,99	1728,49
603,18	1695,72
603,37	1783,78
603,57	1798,12
603,76	1814,50
603,95	1777,64
604,14	1744,87
604,34	1718,25
604,53	1671,14
604,72	1769,44
604,91	1726,44
605,10	1703,91
605,30	1693,67
605,49	1859,56
605,68	1730,53
605,87	1769,44
606,07	1724,39
606,26	1722,34
606,45	1826,79
606,64	1660,90
606,84	1656,81
607,03	1714,15
607,22	1767,40
607,41	1736,68
607,60	1677,29
607,80	1779,68
607,99	1677,29
608,18	1671,14
608,37	1693,67
608,56	1656,81
608,76	1681,38
608,95	1808,36
609,14	1697,77
609,33	1722,34
609,52	1839,08
609,72	1716,20
609,91	1761,25
610,10	1669,09
610,29	1828,84
610,48	1767,40
610,68	1726,44
610,87	1726,44
611,06	1736,68
611,25	1740,77
611,44	1796,07
611,63	1640,42
611,83	1777,64
612,02	1691,62
612,21	1804,26
612,40	1642,47
612,59	1648,61
612,79	1669,09
612,98	1705,96
613,17	1841,12
613,36	1761,25
613,55	1781,73
613,74	1730,53
613,93	1654,76
614,13	1710,05
614,32	1732,58
614,51	1826,79
614,70	1677,29
614,89	1738,73
615,08	1796,07
615,28	2033,63
615,47	1656,81
615,66	1767,40
615,85	1656,81
616,04	1822,69
616,23	1705,96
616,42	1710,05
616,62	1716,20
616,81	1728,49
617,00	1791,97
617,19	1755,11
617,38	1677,29
617,57	1697,77
617,76	1679,33
617,95	1779,68
618,15	1738,73
618,34	1812,45
618,53	1630,18
618,72	1771,49
618,91	1812,45
619,10	1820,64
619,29	1800,16
619,48	1642,47
619,68	1714,15
619,87	1642,47
620,06	1642,47
620,25	1779,68
620,44	1742,82
620,63	1781,73
620,82	1810,40
621,01	1648,61
621,20	1691,62
621,39	1724,39
621,59	1740,77
621,78	1746,92
621,97	1777,64
622,16	1689,57
622,35	1705,96
622,54	1798,12
622,73	1816,55
622,92	1650,66
623,11	1800,16
623,30	1691,62
623,49	1757,16
623,68	1650,66
623,88	1769,44
624,07	1650,66
624,26	1710,05
624,45	1738,73
624,64	1718,25
624,83	1720,29
625,02	1681,38
625,21	1691,62
625,40	1718,25
625,59	1828,84
625,78	1808,36
625,97	1757,16
626,16	1763,30
626,35	1732,58
626,54	1761,25
626,74	1814,50
626,93	1705,96
627,12	1730,53
627,31	1849,32
627,50	1708,01
627,69	1724,39
627,88	1759,21
628,07	1656,81
628,26	1667,05
628,45	1689,57
628,64	1583,08
628,83	1708,01
629,02	1665,00
629,21	1705,96
629,40	1732,58
629,59	1634,28
629,78	1671,14
629,97	1679,33
630,16	1685,48
630,35	1705,96
630,54	1654,76
630,73	1660,90
630,92	1705,96
631,11	1619,94
631,30	1724,39
631,49	1771,49
631,68	1642,47
631,87	1753,06
632,06	1703,91
632,25	1877,99
632,44	1642,47
632,63	1691,62
632,82	1724,39
633,01	1677,29
633,20	1726,44
633,39	1722,34
633,58	1728,49
633,77	1716,20
633,96	1695,72
634,15	1734,63
634,34	1757,16
634,53	1794,02
634,72	1693,67
634,91	1621,99
635,10	1724,39
635,29	1798,12
635,48	1734,63
635,67	1730,53
635,86	1628,14
636,05	1802,21
636,24	1753,06
636,43	1714,15
636,62	1767,40
636,81	1617,90
637,00	1665,00
637,19	1824,74
637,38	1705,96
637,57	1671,14
637,76	1697,77
637,95	1693,67
638,14	1634,28
638,33	1738,73
638,52	1705,96
638,71	1689,57
638,89	1681,38
639,08	1845,22
639,27	1798,12
639,46	1712,10
639,65	1806,31
639,84	1751,01
640,03	1771,49
640,22	1636,33
640,41	1812,45
640,60	1673,19
640,79	1724,39
640,98	1673,19
641,17	1779,68
641,36	1665,00
641,55	1763,30
641,74	1603,56
641,92	1716,20
642,11	1621,99
642,30	1710,05
642,49	1681,38
642,68	1671,14
642,87	1759,21
643,06	1712,10
643,25	1726,44
643,44	1621,99
643,63	1724,39
643,82	1726,44
644,00	1722,34
644,19	1687,53
644,38	1662,95
644,57	1734,63
644,76	1724,39
644,95	1689,57
645,14	1746,92
645,33	1699,81
645,52	1701,86
645,71	1685,48
645,89	1665,00
646,08	1740,77
646,27	1724,39
646,46	1789,92
646,65	1628,14
646,84	1738,73
647,03	1660,90
647,22	1734,63
647,40	1626,09
647,59	1703,91
647,78	1585,13
647,97	1660,90
648,16	1617,90
648,35	1820,64
648,54	1781,73
648,73	1667,05
648,91	1703,91
649,10	1660,90
649,29	1615,85
649,48	1738,73
649,67	1660,90
649,86	1742,82
650,05	1673,19
650,23	1800,16
650,42	1669,09
650,61	1806,31
650,80	1740,77
650,99	1798,12
651,18	1689,57
651,36	1763,30
651,55	1742,82
651,74	1880,04
651,93	1658,85
652,12	1716,20
652,31	1730,53
652,49	1669,09
652,68	1621,99
652,87	1794,02
653,06	1681,38
653,25	1804,26
653,44	1720,29
653,62	1771,49
653,81	1755,11
654,00	1699,81
654,19	1724,39
654,38	1851,36
654,56	1767,40
654,75	1671,14
654,94	1818,60
655,13	1740,77
655,32	1765,35
655,51	1757,16
655,69	1679,33
655,88	1791,97
656,07	1611,75
656,26	1716,20
656,45	1640,42
656,63	1779,68
656,82	1697,77
657,01	1738,73
657,20	1708,01
657,38	1665,00
657,57	1791,97
657,76	1665,00
657,95	1744,87
658,14	1691,62
658,32	1787,88
658,51	1581,03
658,70	1722,34
658,89	1730,53
659,08	1665,00
659,26	1748,97
659,45	1642,47
659,64	1685,48
659,83	1693,67
660,01	1902,56
660,20	1767,40
660,39	1832,93
660,58	1617,90
660,76	1742,82
660,95	1671,14
661,14	1738,73
661,33	1546,22
661,51	1632,23
661,70	1740,77
661,89	1683,43
662,08	1726,44
662,26	1644,52
662,45	1693,67
662,64	1826,79
662,83	1802,21
663,01	1615,85
663,20	1738,73
663,39	1767,40
663,58	1667,05
663,76	1683,43
663,95	1763,30
664,14	1597,42
664,32	1648,61
664,51	1708,01
664,70	1595,37
664,89	1652,71
665,07	1624,04
665,26	1765,35
665,45	1665,00
665,64	1791,97
665,82	1695,72
666,01	1808,36
666,20	1714,15
666,38	1855,46
666,57	1830,88
666,76	2148,32
666,95	4515,77
667,13	10452,83
667,32	15314,71
667,51	18083,56
667,69	19328,73
667,88	18136,81
668,07	12392,26
668,25	9762,67
668,44	8191,88
668,63	7237,52
668,81	6827,93
669,00	6334,37
669,19	5785,51
669,38	5210,03
669,56	4577,21
669,75	3999,68
669,94	3434,44
670,12	2973,65
670,31	2625,50
670,50	2277,34
670,68	2121,70
670,87	1955,81
671,06	1855,46
671,24	1732,58
671,43	1834,98
671,62	1705,96
671,80	1724,39
671,99	1812,45
672,18	1701,86
672,36	1796,07
672,55	1677,29
672,74	1675,24
672,92	1718,25
673,11	1693,67
673,29	1703,91
673,48	1837,03
673,67	1683,43
673,85	1773,54
674,04	1628,14
674,23	1710,05
674,41	1714,15
674,60	1669,09
674,79	1665,00
674,97	1724,39
675,16	1796,07
675,34	1773,54
675,53	1611,75
675,72	1812,45
675,90	1718,25
676,09	1673,19
676,28	1656,81
676,46	1697,77
676,65	1814,50
676,83	1687,53
677,02	1720,29
677,21	1687,53
677,39	1714,15
677,58	1626,09
677,77	1669,09
677,95	1642,47
678,14	1683,43
678,32	1697,77
678,51	1607,66
678,70	1746,92
678,88	1765,35
679,07	1728,49
679,25	1705,96
679,44	1728,49
679,63	1636,33
679,81	1736,68
680,00	1726,44
680,18	1738,73
680,37	1810,40
680,55	1722,34
680,74	1689,57
680,93	1593,32
681,11	1726,44
681,30	1683,43
681,48	1736,68
681,67	1726,44
681,85	1691,62
682,04	1697,77
682,23	1822,69
682,41	1677,29
682,60	1572,84
682,78	1650,66
682,97	1609,70
683,15	1685,48
683,34	1673,19
683,53	1849,32
683,71	1632,23
683,90	1767,40
684,08	1824,74
684,27	1689,57
684,45	1697,77
684,64	1849,32
684,82	1595,37
685,01	1699,81
685,19	1718,25
685,38	1802,21
685,57	1699,81
685,75	1652,71
685,94	1714,15
686,12	1648,61
686,31	1654,76
686,49	1820,64
686,68	1624,04
686,86	1689,57
687,05	1667,05
687,23	1851,36
687,42	1654,76
687,60	1593,32
687,79	1781,73
687,97	1712,10
688,16	1697,77
688,34	1824,74
688,53	1597,42
688,71	1830,88
688,90	1736,68
689,08	1689,57
689,27	1589,22
689,45	1757,16
689,64	1718,25
689,82	1665,00
690,01	1677,29
690,19	1681,38
690,38	1716,20
690,56	1789,92
690,75	1634,28
690,93	1697,77
691,12	1712,10
691,30	1722,34
691,49	1650,66
691,67	1767,40
691,86	1839,08
692,04	1652,71
692,23	1697,77
692,41	1689,57
692,60	1814,50
692,78	1763,30
692,97	1683,43
693,15	1714,15
693,34	1779,68
693,52	1697,77
693,71	1667,05
693,89	1701,86
694,08	1644,52
694,26	1755,11
694,44	1677,29
694,63	1712,10
694,81	1642,47
695,00	1693,67
695,18	1748,97
695,37	1800,16
695,55	1697,77
695,74	1677,29
695,92	1665,00
696,10	1742,82
696,29	1640,42
696,47	1665,00
696,66	1689,57
696,84	1642,47
697,03	1640,42
697,21	1867,75
697,40	2209,76
697,58	1802,21
697,76	1726,44
697,95	1636,33
698,13	1593,32
698,32	1705,96
698,50	1724,39
698,68	1691,62
698,87	1791,97
699,05	1865,70
699,24	1759,21
699,42	1697,77
699,61	1693,67
699,79	1755,11
699,97	1755,11
700,16	1581,03
700,34	1648,61
700,53	1693,67
700,71	1777,64
700,89	1830,88
701,08	1640,42
701,26	1740,77
701,45	2142,18
701,63	1687,53
701,81	1714,15
702,00	1621,99
702,18	1673,19
702,37	1634,28
702,55	1755,11
702,73	1732,58
702,92	1601,51
703,10	1763,30
703,28	1722,34
703,47	1646,57
703,65	1791,97
703,84	1669,09
704,02	1658,85
704,20	1744,87
704,39	1701,86
704,57	1669,09
704,75	1746,92
704,94	1771,49
705,12	1689,57
705,30	1918,95
705,49	2244,57
705,67	4442,04
705,86	9629,55
706,04	12730,17
706,22	14802,72
706,41	15636,24
706,59	14069,55
706,77	9844,59
706,96	7395,22
707,14	6510,49
707,32	6133,67
707,51	5541,80
707,69	4933,56
707,87	4208,58
708,06	3538,89
708,24	2863,06
708,42	2385,88
708,61	2263,01
708,79	1945,57
708,97	1882,08
709,16	1851,36
709,34	1701,86
709,52	1712,10
709,71	1761,25
709,89	1818,60
710,07	1726,44
710,26	1691,62
710,44	1757,16
710,62	1781,73
710,80	1763,30
710,99	1708,01
711,17	1748,97
711,35	1673,19
711,54	1689,57
711,72	1771,49
711,90	1812,45
712,09	1712,10
712,27	1654,76
712,45	1853,41
712,63	1665,00
712,82	1665,00
713,00	1665,00
713,18	1712,10
713,37	1779,68
713,55	1667,05
713,73	1761,25
713,91	1738,73
714,10	1624,04
714,28	1685,48
714,46	1746,92
714,65	1695,72
714,83	1705,96
715,01	1744,87
715,19	1689,57
715,38	1703,91
715,56	1720,29
715,74	1626,09
715,92	1673,19
716,11	1873,89
716,29	1558,50
716,47	1718,25
716,65	1724,39
716,84	1615,85
717,02	1820,64
717,20	1636,33
717,38	1746,92
717,57	1755,11
717,75	1656,81
717,93	1632,23
718,11	1734,63
718,30	1646,57
718,48	1656,81
718,66	1775,59
718,84	1683,43
719,03	1658,85
719,21	1587,18
719,39	1853,41
719,57	1773,54
719,75	1718,25
719,94	1699,81
720,12	1689,57
720,30	1746,92
720,48	1740,77
720,67	1775,59
720,85	1568,74
721,03	1642,47
721,21	1626,09
721,39	1779,68
721,58	1697,77
721,76	1705,96
721,94	1665,00
722,12	1730,53
722,30	1814,50
722,49	1650,66
722,67	1673,19
722,85	1699,81
723,03	1601,51
723,21	1642,47
723,40	1724,39
723,58	1736,68
723,76	1744,87
723,94	1746,92
724,12	1732,58
724,30	1765,35
724,49	1781,73
724,67	1673,19
724,85	1769,44
725,03	1640,42
725,21	1675,24
725,40	1769,44
725,58	1693,67
725,76	1839,08
725,94	1714,15
726,12	1662,95
726,30	1724,39
726,49	1662,95
726,67	1660,90
726,85	1691,62
727,03	1730,53
727,21	2160,61
727,39	2908,12
727,57	3755,97
727,76	4265,92
727,94	4556,73
728,12	4325,31
728,30	3635,14
728,48	2883,54
728,66	2691,03
728,84	2596,82
729,03	2367,45
729,21	2199,52
729,39	2033,63
729,57	1857,51
729,75	1724,39
729,93	1863,65
730,11	1748,97
730,30	1724,39
730,48	1681,38
730,66	1779,68
730,84	1777,64
731,02	1732,58
731,20	1683,43
731,38	1714,15
731,56	1669,09
731,74	1710,05
731,93	1751,01
732,11	1640,42
732,29	1701,86
732,47	1775,59
732,65	1699,81
732,83	1755,11
733,01	1755,11
733,19	1701,86
733,37	1677,29
733,56	1728,49
733,74	1667,05
733,92	1855,46
734,10	1583,08
734,28	1734,63
734,46	1576,94
734,64	1671,14
734,82	1751,01
735,00	1738,73
735,18	1679,33
735,36	1662,95
735,54	1683,43
735,73	1667,05
735,91	1679,33
736,09	1710,05
736,27	1646,57
736,45	1740,77
736,63	1578,98
736,81	1671,14
736,99	1689,57
737,17	1791,97
737,35	1724,39
737,53	1773,54
737,71	1671,14
737,89	1812,45
738,07	1652,71
738,25	1644,52
738,43	1619,94
738,61	1644,52
738,80	1669,09
738,98	1593,32
739,16	1691,62
739,34	1705,96
739,52	1718,25
739,70	1619,94
739,88	1722,34
740,06	1824,74
740,24	1564,65
740,42	1763,30
740,60	1615,85
740,78	1708,01
740,96	1636,33
741,14	1624,04
741,32	1619,94
741,50	1712,10
741,68	1732,58
741,86	1798,12
742,04	1708,01
742,22	1603,56
742,40	1644,52
742,58	1763,30
742,76	1601,51
742,94	1732,58
743,12	1632,23
743,30	1640,42
743,48	1808,36
743,66	1693,67
743,84	1710,05
744,02	1679,33
744,20	1652,71
744,38	1693,67
744,56	1695,72
744,74	1828,84
744,92	1617,90
745,10	1716,20
745,28	1751,01
745,46	1730,53
745,64	1718,25
745,82	1759,21
746,00	1722,34
746,18	1708,01
746,36	1671,14
746,54	1679,33
746,72	1685,48
746,90	1742,82
747,08	1746,92
747,26	1763,30
747,44	1740,77
747,62	1738,73
747,80	1794,02
747,98	1746,92
748,15	1634,28
748,33	1771,49
748,51	1695,72
748,69	1777,64
748,87	1642,47
749,05	1738,73
749,23	1654,76
749,41	1689,57
749,59	1677,29
749,77	1740,77
749,95	1656,81
750,13	1710,05
750,31	1669,09
750,49	1724,39
750,67	1718,25
750,85	1810,40
751,03	1658,85
751,20	1830,88
751,38	1689,57
751,56	1634,28
751,74	1734,63
751,92	1642,47
752,10	1599,46
752,28	1771,49
752,46	1665,00
752,64	1648,61
752,82	1638,38
753,00	1742,82
753,18	1685,48
753,35	1652,71
753,53	1710,05
753,71	1617,90
753,89	1667,05
754,07	1744,87
754,25	1757,16
754,43	1691,62
754,61	1628,14
754,79	1734,63
754,97	1714,15
755,14	1738,73
755,32	1652,71
755,50	1734,63
755,68	1673,19
755,86	1679,33
756,04	1691,62
756,22	1615,85
756,40	1732,58
756,57	1781,73
756,75	1656,81
756,93	1738,73
757,11	1732,58
757,29	1624,04
757,47	1673,19
757,65	1605,61
757,82	1595,37
758,00	1626,09
758,18	1615,85
758,36	1669,09
758,54	1695,72
758,72	1613,80
758,90	1755,11
759,07	1697,77
759,25	1634,28
759,43	1738,73
759,61	1599,46
759,79	2172,89
759,97	1748,97
760,15	1683,43
760,32	1759,21
760,50	1665,00
760,68	1738,73
760,86	1656,81
761,04	1808,36
761,22	1763,30
761,39	1685,48
761,57	1738,73
761,75	1720,29
761,93	1703,91
762,11	1673,19
762,28	1718,25
762,46	1673,19
762,64	1695,72
762,82	1636,33
763,00	1689,57
763,18	1796,07
763,35	1617,90
763,53	1738,73
763,71	1742,82
763,89	1701,86
764,07	1701,86
764,24	1632,23
764,42	1779,68
764,60	1609,70
764,78	1734,63
764,96	1751,01
765,13	1757,16
765,31	1705,96
765,49	1757,16
765,67	1621,99
765,84	1683,43
766,02	1667,05
766,20	1603,56
766,38	1765,35
766,56	1761,25
766,73	1705,96
766,91	1665,00
767,09	1722,34
767,27	1730,53
767,44	1705,96
767,62	1687,53
767,80	1683,43
767,98	1722,34
768,15	1730,53
768,33	1791,97
768,51	1726,44
768,69	1748,97
768,87	1697,77
769,04	1656,81
769,22	1736,68
769,40	1744,87
769,58	1849,32
769,75	1738,73
769,93	1656,81
770,11	1720,29
770,28	1705,96
770,46	1769,44
770,64	1675,24
770,82	1626,09
770,99	1736,68
771,17	1689,57
771,35	1652,71
771,53	1701,86
771,70	1628,14
771,88	1675,24
772,06	1761,25
772,23	1638,38
772,41	1710,05
772,59	1636,33
772,77	1636,33
772,94	1646,57
773,12	1738,73
773,30	1679,33
773,47	1714,15
773,65	1689,57
773,83	1802,21
774,01	1665,00
774,18	1611,75
774,36	1746,92
774,54	1650,66
774,71	1751,01
774,89	1626,09
775,07	1665,00
775,24	1624,04
775,42	1689,57
775,60	1781,73
775,78	1656,81
775,95	1626,09
776,13	1699,81
776,31	1574,89
776,48	1732,58
776,66	1730,53
776,84	1677,29
777,01	1632,23
777,19	1683,43
777,37	1714,15
777,54	1742,82
777,72	1763,30
777,90	1669,09
778,07	1632,23
778,25	1794,02
778,43	1714,15
778,60	1642,47
778,78	1773,54
778,96	1730,53
779,13	1660,90
779,31	1769,44
779,49	1751,01
779,66	1730,53
779,84	1656,81
780,01	1691,62
780,19	1652,71
780,37	1738,73
780,54	1720,29
780,72	1605,61
780,90	1740,77
781,07	1744,87
781,25	1697,77
781,43	1724,39
781,60	1652,71
781,78	1779,68
781,95	1767,40
782,13	1566,70
782,31	1718,25
782,48	1570,79
782,66	1705,96
782,83	1814,50
783,01	1732,58
783,19	1732,58
783,36	1720,29
783,54	1613,80
783,72	1763,30
783,89	1628,14
784,07	1658,85
784,24	1648,61
784,42	1757,16
784,60	1775,59
784,77	1744,87
784,95	1658,85
785,12	1701,86
785,30	1744,87
785,47	1648,61
785,65	1570,79
785,83	1675,24
786,00	1701,86
786,18	1683,43
786,35	1628,14
786,53	1581,03
786,71	1716,20
786,88	1757,16
787,06	1759,21
787,23	1691,62
787,41	1636,33
787,58	1708,01
787,76	1710,05
787,94	1783,78
788,11	1714,15
788,29	1683,43
788,46	1669,09
788,64	1593,32
788,81	1660,90
788,99	1638,38
789,16	1685,48
789,34	1714,15
789,52	1660,90
789,69	1669,09
789,87	1525,74
790,04	1677,29
790,22	1701,86
790,39	1730,53
790,57	1611,75
790,74	1685,48
790,92	1716,20
791,09	1630,18
791,27	1654,76
791,44	1843,17
791,62	1654,76
791,79	1730,53
791,97	1718,25
792,15	1867,75
792,32	1669,09
792,50	1751,01
792,67	1753,06
792,85	1740,77
793,02	1658,85
793,20	1667,05
793,37	1628,14
793,55	1667,05
793,72	1636,33
793,90	1779,68
794,07	1611,75
794,25	1621,99
794,42	1685,48
794,60	1697,77
794,77	1785,83
794,95	1632,23
795,12	1767,40
795,30	1697,77
795,47	1519,59
795,65	1902,56
795,82	1654,76
796,00	1662,95
796,17	1718,25
796,34	1650,66
796,52	1697,77
796,69	1748,97
796,87	1648,61
797,04	1773,54
797,22	1753,06
797,39	1781,73
797,57	1763,30
797,74	1722,34
797,92	1687,53
798,09	1621,99
798,27	1779,68
798,44	1652,71
798,62	1611,75
798,79	1708,01
798,96	1751,01
799,14	1654,76
799,31	1806,31
799,49	1710,05
799,66	1677,29
799,84	1701,86
800,01	1601,51
800,19	1732,58
800,36	1617,90
800,53	1738,73
800,71	1703,91
800,88	1791,97
801,06	1628,14
801,23	1701,86
801,41	1708,01
801,58	1695,72
801,75	1687,53
801,93	1822,69
802,10	1789,92
802,28	1636,33
802,45	1656,81
802,63	1755,11
802,80	1746,92
802,97	1683,43
803,15	1722,34
803,32	1673,19
803,50	1677,29
803,67	1603,56
803,84	1675,24
804,02	1642,47
804,19	1671,14
804,37	1652,71
804,54	1671,14
804,71	1705,96
804,89	1779,68
805,06	1677,29
805,24	1587,18
805,41	1648,61
805,58	1591,27
805,76	1851,36
805,93	1722,34
806,10	1763,30
806,28	1771,49
806,45	1751,01
806,63	1714,15
806,80	1710,05
806,97	1597,42
807,15	1765,35
807,32	1644,52
807,49	1722,34
807,67	1587,18
807,84	1755,11
808,01	1578,98
808,19	1828,84
808,36	1798,12
808,54	1683,43
808,71	1646,57
808,88	1673,19
809,06	1644,52
809,23	1783,78
809,40	1734,63
809,58	1832,93
809,75	1791,97
809,92	1644,52
810,10	1824,74
810,27	1624,04
810,44	1726,44
810,62	1787,88
810,79	1742,82
810,96	1671,14
811,14	1744,87
811,31	1667,05
811,48	1697,77
811,66	1712,10
811,83	1796,07
812,00	1724,39
812,18	1712,10
812,35	1843,17
812,52	1685,48
812,69	1642,47
812,87	1705,96
813,04	1658,85
813,21	1722,34
813,39	1652,71
813,56	1605,61
813,73	1753,06
813,91	1617,90
814,08	1685,48
814,25	1695,72
814,42	1689,57
814,60	1681,38
814,77	1757,16
814,94	1624,04
815,12	1773,54
815,29	1781,73
815,46	1683,43
815,63	1646,57
815,81	1710,05
815,98	1615,85
816,15	1722,34
816,33	1712,10
816,50	1714,15
816,67	1669,09
816,84	1681,38
817,02	1679,33
817,19	1658,85
817,36	1804,26
817,53	1781,73
817,71	1591,27
817,88	1755,11
818,05	1708,01
818,22	1701,86
818,40	1837,03
818,57	1691,62
818,74	1734,63
818,91	1607,66
819,09	1757,16
819,26	1705,96
819,43	1679,33
819,60	1656,81
819,78	1673,19
819,95	1779,68
820,12	1632,23
820,29	1769,44
820,47	1669,09
820,64	1640,42
820,81	1669,09
820,98	1585,13
821,15	1642,47
821,33	1720,29
821,50	1626,09
821,67	1730,53
821,84	1667,05
822,02	1691,62
822,19	1716,20
822,36	1617,90
822,53	1671,14
822,70	1617,90
822,88	1624,04
823,05	1689,57
823,22	1724,39
823,39	1689,57
823,56	1726,44
823,74	1732,58
823,91	1626,09
824,08	1724,39
824,25	1613,80
824,42	1740,77
824,60	1646,57
824,77	1665,00
824,94	1697,77
825,11	1726,44
825,28	1648,61
825,45	1662,95
825,63	1630,18
825,80	1665,00
825,97	1783,78
826,14	1613,80
826,31	1619,94
826,48	1732,58
826,66	1667,05
826,83	1681,38
827,00	1675,24
827,17	1599,46
827,34	1642,47
827,51	1718,25
827,69	1632,23
827,86	1634,28
828,03	1656,81
828,20	1738,73
828,37	1638,38
828,54	1722,34
828,71	1626,09
828,89	1777,64
829,06	1617,90
829,23	1736,68
829,40	1609,70
829,57	1718,25
829,74	1798,12
829,91	1669,09
830,09	1683,43
830,26	1734,63
830,43	1755,11
830,60	1660,90
830,77	1695,72
830,94	1837,03
831,11	1759,21
831,28	1804,26
831,46	1769,44
831,63	1714,15
831,80	1814,50
831,97	1669,09
832,14	1593,32
832,31	1744,87
832,48	1687,53
832,65	1751,01
832,82	1677,29
832,99	1714,15
833,17	1624,04
833,34	1710,05
833,51	1734,63
833,68	1574,89
833,85	1740,77
834,02	1566,70
834,19	1710,05
834,36	1652,71
834,53	1667,05
834,70	1722,34
834,87	1730,53
835,04	1701,86
835,22	1669,09
835,39	1642,47
835,56	1583,08
835,73	1658,85
835,90	1765,35
836,07	1658,85
836,24	1751,01
836,41	1591,27
836,58	1691,62
836,75	1746,92
836,92	1683,43
837,09	1624,04
837,26	1665,00
837,43	1662,95
837,60	1693,67
837,77	1669,09
837,94	1728,49
838,12	1736,68
838,29	1638,38
838,46	1572,84
838,63	1628,14
838,80	1779,68
838,97	1763,30
839,14	1734,63
839,31	1755,11
839,48	1669,09
839,65	1708,01
839,82	1738,73
839,99	1679,33
840,16	1710,05
840,33	1667,05
840,50	1734,63
840,67	1638,38
840,84	1599,46
841,01	1683,43
841,18	1722,34
841,35	1732,58
841,52	1662,95
841,69	1802,21
841,86	1689,57
842,03	1673,19
842,20	1693,67
842,37	1728,49
842,54	1652,71
842,71	1742,82
842,88	1665,00
843,05	1683,43
843,22	1716,20
843,39	1798,12
843,56	1689,57
843,73	1601,51
843,90	1685,48
844,07	1718,25
844,24	1738,73
844,41	1769,44
844,58	1685,48
844,75	1703,91
844,92	1818,60
845,09	1648,61
845,26	1658,85
845,43	1755,11
845,60	1669,09
845,77	1761,25
845,94	1771,49
846,10	1763,30
846,27	1650,66
846,44	1691,62
846,61	1605,61
846,78	1781,73
846,95	1763,30
847,12	1705,96
847,29	1626,09
847,46	1646,57
847,63	1693,67
847,80	1677,29
847,97	1697,77
848,14	1933,28
848,31	1660,90
848,48	1595,37
848,65	1705,96
848,82	1753,06
848,98	1845,22
849,15	1789,92
849,32	1716,20
849,49	1767,40
849,66	1742,82
849,83	1636,33
850,00	1697,77
850,17	1708,01
850,34	1730,53
850,51	1685,48
850,68	1667,05
850,85	1820,64
851,01	1718,25
851,18	1718,25
851,35	1681,38
851,52	1658,85
851,69	1675,24
851,86	1652,71
852,03	1648,61
852,20	1693,67
852,37	1673,19
852,53	1665,00
852,70	1773,54
852,87	1708,01
853,04	1722,34
853,21	1736,68
853,38	1726,44
853,55	1826,79
853,72	1785,83
853,89	1632,23
854,05	1738,73
854,22	1693,67
854,39	1667,05
854,56	1665,00
854,73	1722,34
854,90	1642,47
855,07	1683,43
855,23	1685,48
855,40	1656,81
855,57	1701,86
855,74	1478,63
855,91	1820,64
856,08	1640,42
856,25	1636,33
856,41	1718,25
856,58	1617,90
856,75	1714,15
856,92	1603,56
857,09	1718,25
857,26	1628,14
857,42	1648,61
857,59	1691,62
857,76	1605,61
857,93	1652,71
858,10	1691,62
858,27	1630,18
858,43	1681,38
858,60	1621,99
858,77	1607,66
858,94	1697,77
859,11	1683,43
859,27	1730,53
859,44	1656,81
859,61	1769,44
859,78	1708,01
859,95	1624,04
860,12	1673,19
860,28	1814,50
860,45	1779,68
860,62	1701,86
860,79	1683,43
860,95	1658,85
861,12	1705,96
861,29	1689,57
861,46	1720,29
861,63	1658,85
861,79	1683,43
861,96	1652,71
862,13	1656,81
862,30	1767,40
862,47	1662,95
862,63	1644,52
862,80	1734,63
862,97	1656,81
863,14	1751,01
863,30	1746,92
863,47	1632,23
863,64	1779,68
863,81	1718,25
863,97	1673,19
864,14	1767,40
864,31	1640,42
864,48	1755,11
864,65	1621,99
864,81	1755,11
864,98	1730,53
865,15	1712,10
865,32	1783,78
865,48	1734,63
865,65	1818,60
865,82	1710,05
865,98	1689,57
866,15	1695,72
866,32	1681,38
866,49	1693,67
866,65	1837,03
866,82	1576,94
866,99	1697,77
867,16	1638,38
867,32	1683,43
867,49	1662,95
867,66	1650,66
867,83	1640,42
867,99	1611,75
868,16	1697,77
868,33	1638,38
868,49	1705,96
868,66	1652,71
868,83	1742,82
868,99	1685,48
869,16	1722,34
869,33	1748,97
869,50	1722,34
869,66	1605,61
869,83	1708,01
870,00	1619,94
870,16	1667,05
870,33	1712,10
870,50	1722,34
870,66	1679,33
870,83	1820,64
871,00	1615,85
871,17	1691,62
871,33	1638,38
871,50	1724,39
871,67	1724,39
871,83	1671,14
872,00	1855,46
872,17	1648,61
872,33	1761,25
872,50	1734,63
872,67	1685,48
872,83	1626,09
873,00	1681,38
873,17	1765,35
873,33	1712,10
873,50	1691,62
873,67	1675,24
873,83	1585,13
874,00	1689,57
874,16	1810,40
874,33	1701,86
874,50	1644,52
874,66	1751,01
874,83	1710,05
875,00	1822,69
875,16	1824,74
875,33	1703,91
875,50	1619,94
875,66	1646,57
875,83	1640,42
875,99	1738,73
876,16	1603,56
876,33	1578,98
876,49	1695,72
876,66	1720,29
876,83	1662,95
876,99	1566,70
877,16	1675,24
877,32	1724,39
877,49	1638,38
877,66	1714,15
877,82	1796,07
877,99	1675,24
878,15	1796,07
878,32	1703,91
878,49	1671,14
878,65	1708,01
878,82	1765,35
878,98	1626,09
879,15	1708,01
879,32	1699,81
879,48	1685,48
879,65	1699,81
879,81	1578,98
879,98	1675,24
880,15	1587,18
880,31	1701,86
880,48	1703,91
880,64	1656,81
880,81	1748,97
880,97	1851,36
881,14	1751,01
881,31	1656,81
881,47	1816,55
881,64	1619,94
881,80	1636,33
881,97	1722,34
882,13	1724,39
882,30	1595,37
882,47	1595,37
882,63	1599,46
882,80	1656,81
882,96	1665,00
883,13	1773,54
883,29	1652,71
883,46	1767,40
883,62	1755,11
883,79	1681,38
883,95	1781,73
884,12	1720,29
884,29	1794,02
884,45	1718,25
884,62	1726,44
884,78	1716,20
884,95	1753,06
885,11	1691,62
885,28	1701,86
885,44	1722,34
885,61	1722,34
885,77	1785,83
885,94	1642,47
886,10	1675,24
886,27	1740,77
886,43	1841,12
886,60	1730,53
886,76	1665,00
886,93	1712,10
887,09	1708,01
887,26	1560,55
887,42	1738,73
887,59	1746,92
887,75	1814,50
887,92	1728,49
888,08	1742,82
888,25	1730,53
888,41	1761,25
888,58	1697,77
888,74	1632,23
888,91	1662,95
>>>>>End Processed Spectral Data<<<<<
