SpectraSuite Data File
++++++++++++++++++++++++++++++++++++
Date: Mon Jun 06 14:04:37 CEST 2016
User: root
Dark Spectrum Present: No
Reference Spectrum Present: No
Number of Sampled Component Spectra: 1
Spectrometers: USB4C02835
Integration Time (usec): 100000 (USB4C02835)
Spectra Averaged: 1 (USB4C02835)
Boxcar Smoothing: 0 (USB4C02835)
Correct for Electrical Dark: No (USB4C02835)
Strobe/Lamp Enabled: No (USB4C02835)
Correct for Detector Non-linearity: No (USB4C02835)
Correct for Stray Light: No (USB4C02835)
Number of Pixels in Processed Spectrum: 3648
>>>>>Begin Processed Spectral Data<<<<<
177,47	1482,73
177,69	1482,73
177,91	1482,73
178,13	1490,92
178,36	1380,33
178,58	1677,29
178,80	1720,29
179,02	1603,56
179,24	1693,67
179,46	1693,67
179,68	1665,00
179,90	1681,38
180,13	1730,53
180,35	1601,51
180,57	1734,63
180,79	1759,21
181,01	1685,48
181,23	1679,33
181,45	1755,11
181,67	1691,62
181,90	1705,96
182,12	1720,29
182,34	1587,18
182,56	1720,29
182,78	1730,53
183,00	1634,28
183,22	1648,61
183,44	1574,89
183,66	1875,94
183,89	1804,26
184,11	1669,09
184,33	1748,97
184,55	1796,07
184,77	1753,06
184,99	1695,72
185,21	1724,39
185,43	1767,40
185,65	1697,77
185,87	1763,30
186,10	1839,08
186,32	1861,60
186,54	1742,82
186,76	1769,44
186,98	1734,63
187,20	1619,94
187,42	1712,10
187,64	1675,24
187,86	1697,77
188,08	1806,31
188,30	1771,49
188,52	1710,05
188,75	1787,88
188,97	1753,06
189,19	1644,52
189,41	1667,05
189,63	1781,73
189,85	1677,29
190,07	1634,28
190,29	1685,48
190,51	1722,34
190,73	1605,61
190,95	1800,16
191,17	1697,77
191,39	1587,18
191,61	1658,85
191,84	1695,72
192,06	1708,01
192,28	1603,56
192,50	1847,27
192,72	1742,82
192,94	1662,95
193,16	1787,88
193,38	1675,24
193,60	1644,52
193,82	1634,28
194,04	1712,10
194,26	1734,63
194,48	1701,86
194,70	1619,94
194,92	1697,77
195,14	1763,30
195,36	1720,29
195,58	1742,82
195,80	1638,38
196,02	1656,81
196,24	1710,05
196,46	1697,77
196,69	1662,95
196,91	1834,98
197,13	1730,53
197,35	1642,47
197,57	1726,44
197,79	1718,25
198,01	1705,96
198,23	1677,29
198,45	1691,62
198,67	1634,28
198,89	1728,49
199,11	1757,16
199,33	1722,34
199,55	1599,46
199,77	1718,25
199,99	1724,39
200,21	1587,18
200,43	1781,73
200,65	1650,66
200,87	1619,94
201,09	1630,18
201,31	1697,77
201,53	1734,63
201,75	1763,30
201,97	1705,96
202,19	1632,23
202,41	1712,10
202,63	1796,07
202,85	1681,38
203,07	1734,63
203,29	1687,53
203,51	1611,75
203,73	1613,80
203,95	1861,60
204,17	1726,44
204,39	1785,83
204,61	1699,81
204,83	1669,09
205,05	1800,16
205,27	1767,40
205,49	1798,12
205,71	1699,81
205,93	1628,14
206,15	1685,48
206,37	1675,24
206,59	1796,07
206,81	1646,57
207,03	1615,85
207,25	1628,14
207,47	1746,92
207,69	1677,29
207,91	1763,30
208,13	1763,30
208,34	1654,76
208,56	1667,05
208,78	1767,40
209,00	1703,91
209,22	1728,49
209,44	1697,77
209,66	1626,09
209,88	1720,29
210,10	1705,96
210,32	1697,77
210,54	1730,53
210,76	1662,95
210,98	1804,26
211,20	1611,75
211,42	1734,63
211,64	1810,40
211,86	1734,63
212,08	1791,97
212,30	1683,43
212,52	1705,96
212,74	1757,16
212,96	1751,01
213,17	1740,77
213,39	1695,72
213,61	1861,60
213,83	1746,92
214,05	1705,96
214,27	1693,67
214,49	1691,62
214,71	1644,52
214,93	1748,97
215,15	1732,58
215,37	1785,83
215,59	1589,22
215,81	1740,77
216,03	1781,73
216,24	1697,77
216,46	1710,05
216,68	1773,54
216,90	1718,25
217,12	1742,82
217,34	1724,39
217,56	1720,29
217,78	1791,97
218,00	1675,24
218,22	1734,63
218,44	1648,61
218,66	1669,09
218,87	1761,25
219,09	1609,70
219,31	1736,68
219,53	1705,96
219,75	1667,05
219,97	1699,81
220,19	1628,14
220,41	1669,09
220,63	1728,49
220,85	1642,47
221,06	1628,14
221,28	1830,88
221,50	1785,83
221,72	1650,66
221,94	1644,52
222,16	1789,92
222,38	1708,01
222,60	1736,68
222,82	1615,85
223,03	1683,43
223,25	1615,85
223,47	1708,01
223,69	1853,41
223,91	1787,88
224,13	1785,83
224,35	1673,19
224,57	1781,73
224,78	1761,25
225,00	1746,92
225,22	1699,81
225,44	1681,38
225,66	1751,01
225,88	1660,90
226,10	1632,23
226,32	1820,64
226,53	1826,79
226,75	1691,62
226,97	1652,71
227,19	1665,00
227,41	1718,25
227,63	1673,19
227,85	1691,62
228,06	1738,73
228,28	1691,62
228,50	1634,28
228,72	1701,86
228,94	1669,09
229,16	1574,89
229,37	1658,85
229,59	1673,19
229,81	1697,77
230,03	1673,19
230,25	1632,23
230,47	1677,29
230,69	1566,70
230,90	1785,83
231,12	1716,20
231,34	1695,72
231,56	1697,77
231,78	1685,48
232,00	1720,29
232,21	1701,86
232,43	1687,53
232,65	1617,90
232,87	1628,14
233,09	1607,66
233,30	1607,66
233,52	1718,25
233,74	1761,25
233,96	1703,91
234,18	1673,19
234,40	1628,14
234,61	1822,69
234,83	1724,39
235,05	1650,66
235,27	1796,07
235,49	1777,64
235,70	1687,53
235,92	1826,79
236,14	1742,82
236,36	1882,08
236,58	1665,00
236,79	1753,06
237,01	1695,72
237,23	1697,77
237,45	1740,77
237,67	1630,18
237,88	1609,70
238,10	1818,60
238,32	1619,94
238,54	1667,05
238,76	1689,57
238,97	1656,81
239,19	1695,72
239,41	1730,53
239,63	1740,77
239,85	1673,19
240,06	1728,49
240,28	1650,66
240,50	1787,88
240,72	1681,38
240,93	1683,43
241,15	1759,21
241,37	1556,46
241,59	1759,21
241,81	1695,72
242,02	1617,90
242,24	1697,77
242,46	1759,21
242,68	1566,70
242,89	1705,96
243,11	1767,40
243,33	1677,29
243,55	1689,57
243,76	1714,15
243,98	1681,38
244,20	1724,39
244,42	1652,71
244,64	1789,92
244,85	1548,26
245,07	1697,77
245,29	1759,21
245,51	1689,57
245,72	1689,57
245,94	1748,97
246,16	1665,00
246,38	1714,15
246,59	1652,71
246,81	1665,00
247,03	1677,29
247,24	1638,38
247,46	1650,66
247,68	1677,29
247,90	1728,49
248,11	1613,80
248,33	1804,26
248,55	1691,62
248,77	1769,44
248,98	1785,83
249,20	1843,17
249,42	1699,81
249,64	1656,81
249,85	1669,09
250,07	1746,92
250,29	1757,16
250,50	1753,06
250,72	1656,81
250,94	1685,48
251,16	1748,97
251,37	1714,15
251,59	1681,38
251,81	1687,53
252,02	1730,53
252,24	1632,23
252,46	1847,27
252,68	1632,23
252,89	1673,19
253,11	1683,43
253,33	1851,36
253,54	1697,77
253,76	1601,51
253,98	1708,01
254,20	1677,29
254,41	1703,91
254,63	1687,53
254,85	1624,04
255,06	1675,24
255,28	1785,83
255,50	1705,96
255,71	1689,57
255,93	1593,32
256,15	1712,10
256,36	1712,10
256,58	1628,14
256,80	1755,11
257,02	1636,33
257,23	1665,00
257,45	1730,53
257,67	1787,88
257,88	1658,85
258,10	1777,64
258,32	1642,47
258,53	1748,97
258,75	1804,26
258,97	1630,18
259,18	1718,25
259,40	1662,95
259,62	1753,06
259,83	1822,69
260,05	1669,09
260,27	1988,58
260,48	1718,25
260,70	1646,57
260,92	1658,85
261,13	1705,96
261,35	1658,85
261,57	1708,01
261,78	1644,52
262,00	1699,81
262,22	1660,90
262,43	1607,66
262,65	1736,68
262,86	1693,67
263,08	1828,84
263,30	1722,34
263,51	1593,32
263,73	1656,81
263,95	1828,84
264,16	1624,04
264,38	1693,67
264,60	1724,39
264,81	1701,86
265,03	1753,06
265,25	1728,49
265,46	1636,33
265,68	1806,31
265,89	1732,58
266,11	1615,85
266,33	1845,22
266,54	1753,06
266,76	1697,77
266,98	1759,21
267,19	1757,16
267,41	1712,10
267,62	1787,88
267,84	1558,50
268,06	1728,49
268,27	1806,31
268,49	1714,15
268,70	1781,73
268,92	1699,81
269,14	1617,90
269,35	1705,96
269,57	1650,66
269,79	1687,53
270,00	1681,38
270,22	1759,21
270,43	1587,18
270,65	1634,28
270,87	1763,30
271,08	1738,73
271,30	1738,73
271,51	1724,39
271,73	1767,40
271,95	1789,92
272,16	1751,01
272,38	1675,24
272,59	1689,57
272,81	1720,29
273,02	1732,58
273,24	1751,01
273,46	1681,38
273,67	1640,42
273,89	1689,57
274,10	1746,92
274,32	1796,07
274,54	1773,54
274,75	1761,25
274,97	1630,18
275,18	1724,39
275,40	1673,19
275,61	1699,81
275,83	1624,04
276,05	1615,85
276,26	1658,85
276,48	1724,39
276,69	1697,77
276,91	1669,09
277,12	1777,64
277,34	1808,36
277,55	1714,15
277,77	1757,16
277,99	1662,95
278,20	1638,38
278,42	1671,14
278,63	1677,29
278,85	1708,01
279,06	1644,52
279,28	1675,24
279,49	1738,73
279,71	1705,96
279,93	1689,57
280,14	1728,49
280,36	1652,71
280,57	1755,11
280,79	1726,44
281,00	1617,90
281,22	1652,71
281,43	1796,07
281,65	1583,08
281,86	1626,09
282,08	1699,81
282,29	1804,26
282,51	1644,52
282,73	1644,52
282,94	1630,18
283,16	1738,73
283,37	1834,98
283,59	1697,77
283,80	1714,15
284,02	1691,62
284,23	1665,00
284,45	1626,09
284,66	1650,66
284,88	1669,09
285,09	1689,57
285,31	1832,93
285,52	1644,52
285,74	1662,95
285,95	1730,53
286,17	1718,25
286,38	1773,54
286,60	1701,86
286,81	1679,33
287,03	1658,85
287,24	1689,57
287,46	1720,29
287,67	1624,04
287,89	1861,60
288,10	1677,29
288,32	1693,67
288,53	1742,82
288,75	1665,00
288,96	1730,53
289,18	1751,01
289,39	1660,90
289,61	1785,83
289,82	1804,26
290,04	1767,40
290,25	1660,90
290,47	1714,15
290,68	1730,53
290,90	1705,96
291,11	1626,09
291,33	1732,58
291,54	1654,76
291,76	1646,57
291,97	1740,77
292,18	1671,14
292,40	1660,90
292,61	1662,95
292,83	1822,69
293,04	1695,72
293,26	1751,01
293,47	1642,47
293,69	1691,62
293,90	1720,29
294,12	1751,01
294,33	1716,20
294,55	1685,48
294,76	1722,34
294,97	1812,45
295,19	1906,66
295,40	1718,25
295,62	1742,82
295,83	1773,54
296,05	1732,58
296,26	1712,10
296,48	1734,63
296,69	1644,52
296,90	1708,01
297,12	1748,97
297,33	1773,54
297,55	1699,81
297,76	1701,86
297,98	1755,11
298,19	1748,97
298,41	1642,47
298,62	1681,38
298,83	1789,92
299,05	1689,57
299,26	1677,29
299,48	1710,05
299,69	1728,49
299,90	1662,95
300,12	1619,94
300,33	1738,73
300,55	1791,97
300,76	1705,96
300,98	1603,56
301,19	1701,86
301,40	1689,57
301,62	1695,72
301,83	1681,38
302,05	1691,62
302,26	1687,53
302,47	1744,87
302,69	1562,60
302,90	1716,20
303,12	1593,32
303,33	1791,97
303,54	1832,93
303,76	1574,89
303,97	1703,91
304,19	1755,11
304,40	1595,37
304,61	1665,00
304,83	1800,16
305,04	1734,63
305,26	1748,97
305,47	1615,85
305,68	1724,39
305,90	1572,84
306,11	1755,11
306,33	1667,05
306,54	1703,91
306,75	1683,43
306,97	1595,37
307,18	1712,10
307,39	1677,29
307,61	1791,97
307,82	1638,38
308,04	1732,58
308,25	1753,06
308,46	1761,25
308,68	1669,09
308,89	1742,82
309,10	1755,11
309,32	1728,49
309,53	1669,09
309,74	1746,92
309,96	1675,24
310,17	1779,68
310,39	1650,66
310,60	1746,92
310,81	1689,57
311,03	1671,14
311,24	1689,57
311,45	1634,28
311,67	1771,49
311,88	1701,86
312,09	1687,53
312,31	1675,24
312,52	1744,87
312,73	1746,92
312,95	1658,85
313,16	1587,18
313,37	1767,40
313,59	1775,59
313,80	1810,40
314,01	1810,40
314,23	1732,58
314,44	1646,57
314,65	1646,57
314,87	1677,29
315,08	1691,62
315,29	1638,38
315,51	1656,81
315,72	1628,14
315,93	1783,78
316,15	1796,07
316,36	1669,09
316,57	1714,15
316,79	1699,81
317,00	1656,81
317,21	1744,87
317,43	1679,33
317,64	1673,19
317,85	1742,82
318,07	1630,18
318,28	1785,83
318,49	1853,41
318,70	1853,41
318,92	1837,03
319,13	1877,99
319,34	1810,40
319,56	1814,50
319,77	1837,03
319,98	1734,63
320,20	1783,78
320,41	1755,11
320,62	1736,68
320,83	1662,95
321,05	1896,42
321,26	1685,48
321,47	1693,67
321,69	1761,25
321,90	1691,62
322,11	1765,35
322,32	1689,57
322,54	1789,92
322,75	1683,43
322,96	1871,84
323,18	1619,94
323,39	1650,66
323,60	1675,24
323,81	1683,43
324,03	1705,96
324,24	1705,96
324,45	1687,53
324,66	1697,77
324,88	1759,21
325,09	1771,49
325,30	1730,53
325,52	1744,87
325,73	1726,44
325,94	1759,21
326,15	1650,66
326,37	1660,90
326,58	1683,43
326,79	1759,21
327,00	1642,47
327,22	1662,95
327,43	1746,92
327,64	1667,05
327,85	1683,43
328,07	1720,29
328,28	1828,84
328,49	1624,04
328,70	1677,29
328,92	1705,96
329,13	1689,57
329,34	1683,43
329,55	1789,92
329,76	1767,40
329,98	1761,25
330,19	1755,11
330,40	1712,10
330,61	1683,43
330,83	1859,56
331,04	1603,56
331,25	1769,44
331,46	1710,05
331,68	1650,66
331,89	1787,88
332,10	1734,63
332,31	1660,90
332,52	1759,21
332,74	1769,44
332,95	1660,90
333,16	1757,16
333,37	1650,66
333,58	1652,71
333,80	1744,87
334,01	1675,24
334,22	1634,28
334,43	1593,32
334,64	1759,21
334,86	1714,15
335,07	1695,72
335,28	1843,17
335,49	1658,85
335,70	1716,20
335,92	1740,77
336,13	1810,40
336,34	1642,47
336,55	1701,86
336,76	1808,36
336,98	1581,03
337,19	1675,24
337,40	1859,56
337,61	1855,46
337,82	1699,81
338,04	1730,53
338,25	1660,90
338,46	1730,53
338,67	1658,85
338,88	1685,48
339,09	1628,14
339,31	1624,04
339,52	1646,57
339,73	1652,71
339,94	1748,97
340,15	1728,49
340,36	1683,43
340,58	1656,81
340,79	1632,23
341,00	1785,83
341,21	1611,75
341,42	1843,17
341,63	1667,05
341,85	1773,54
342,06	1773,54
342,27	1644,52
342,48	1771,49
342,69	1687,53
342,90	1691,62
343,12	1753,06
343,33	1724,39
343,54	1691,62
343,75	1773,54
343,96	1601,51
344,17	1654,76
344,38	1736,68
344,60	1697,77
344,81	1624,04
345,02	1728,49
345,23	1714,15
345,44	1816,55
345,65	1751,01
345,86	1697,77
346,07	1738,73
346,29	1693,67
346,50	1755,11
346,71	1738,73
346,92	1748,97
347,13	1808,36
347,34	1759,21
347,55	1685,48
347,76	1744,87
347,98	1554,41
348,19	1705,96
348,40	1798,12
348,61	1613,80
348,82	1783,78
349,03	1753,06
349,24	1615,85
349,45	1818,60
349,66	1583,08
349,88	1744,87
350,09	1660,90
350,30	1755,11
350,51	1736,68
350,72	1648,61
350,93	1720,29
351,14	1648,61
351,35	1761,25
351,56	1693,67
351,77	1714,15
351,99	1718,25
352,20	1814,50
352,41	1791,97
352,62	1632,23
352,83	1691,62
353,04	1642,47
353,25	1609,70
353,46	1759,21
353,67	1705,96
353,88	1607,66
354,09	1728,49
354,30	1697,77
354,52	1755,11
354,73	1718,25
354,94	1705,96
355,15	1640,42
355,36	1781,73
355,57	1669,09
355,78	1779,68
355,99	1636,33
356,20	1648,61
356,41	1779,68
356,62	1742,82
356,83	1689,57
357,04	1765,35
357,25	1640,42
357,46	1667,05
357,68	1742,82
357,89	1679,33
358,10	1615,85
358,31	1673,19
358,52	1701,86
358,73	1673,19
358,94	1576,94
359,15	1652,71
359,36	1681,38
359,57	1755,11
359,78	1619,94
359,99	1681,38
360,20	1630,18
360,41	1681,38
360,62	1810,40
360,83	1712,10
361,04	1689,57
361,25	1734,63
361,46	1859,56
361,67	1685,48
361,88	1755,11
362,09	1740,77
362,30	1775,59
362,51	1595,37
362,72	1705,96
362,93	1806,31
363,14	1787,88
363,35	1722,34
363,56	1673,19
363,78	1763,30
363,99	1728,49
364,20	1636,33
364,41	1738,73
364,62	1716,20
364,83	1724,39
365,04	1652,71
365,25	1736,68
365,46	1779,68
365,67	1646,57
365,88	1662,95
366,09	1689,57
366,30	1662,95
366,51	1673,19
366,72	1599,46
366,93	1720,29
367,14	1734,63
367,35	1734,63
367,56	1718,25
367,77	1818,60
367,98	1767,40
368,18	1736,68
368,39	1746,92
368,60	1730,53
368,81	1703,91
369,02	1669,09
369,23	1617,90
369,44	1673,19
369,65	1652,71
369,86	1804,26
370,07	1771,49
370,28	1691,62
370,49	1781,73
370,70	1732,58
370,91	1646,57
371,12	1681,38
371,33	1800,16
371,54	1628,14
371,75	1742,82
371,96	1529,83
372,17	1695,72
372,38	1726,44
372,59	1736,68
372,80	1699,81
373,01	1718,25
373,22	1720,29
373,43	1714,15
373,64	1615,85
373,85	1828,84
374,06	1818,60
374,26	1718,25
374,47	1722,34
374,68	1710,05
374,89	1687,53
375,10	1763,30
375,31	1789,92
375,52	1671,14
375,73	1685,48
375,94	1742,82
376,15	1796,07
376,36	1699,81
376,57	1669,09
376,78	1673,19
376,99	1736,68
377,20	1738,73
377,40	1693,67
377,61	1828,84
377,82	1626,09
378,03	1753,06
378,24	1699,81
378,45	1658,85
378,66	1769,44
378,87	1587,18
379,08	1624,04
379,29	1646,57
379,50	1740,77
379,71	1724,39
379,91	1746,92
380,12	1710,05
380,33	1769,44
380,54	1714,15
380,75	1753,06
380,96	1665,00
381,17	1652,71
381,38	1599,46
381,59	1722,34
381,80	1691,62
382,00	1828,84
382,21	1726,44
382,42	1863,65
382,63	1761,25
382,84	1755,11
383,05	1824,74
383,26	1822,69
383,47	1787,88
383,68	1779,68
383,88	1771,49
384,09	1724,39
384,30	1832,93
384,51	1791,97
384,72	1728,49
384,93	1681,38
385,14	1730,53
385,35	1742,82
385,55	1675,24
385,76	1720,29
385,97	1697,77
386,18	1607,66
386,39	1667,05
386,60	1705,96
386,81	1751,01
387,02	1628,14
387,22	1650,66
387,43	1814,50
387,64	1742,82
387,85	1886,18
388,06	2213,85
388,27	4458,43
388,48	6703,00
388,68	8357,76
388,89	9793,39
389,10	9824,11
389,31	8703,87
389,52	7681,93
389,73	6670,23
389,93	6309,79
390,14	5857,19
390,35	5162,93
390,56	4523,96
390,77	3798,98
390,98	3026,90
391,18	2484,19
391,39	2154,46
391,60	1816,55
391,81	1861,60
392,02	1677,29
392,23	1880,04
392,43	1701,86
392,64	1734,63
392,85	1695,72
393,06	1896,42
393,27	1726,44
393,47	1728,49
393,68	1761,25
393,89	1714,15
394,10	1746,92
394,31	1613,80
394,52	1601,51
394,72	1679,33
394,93	1837,03
395,14	1593,32
395,35	1701,86
395,56	1757,16
395,76	1685,48
395,97	1759,21
396,18	1718,25
396,39	1865,70
396,60	1964,00
396,80	1847,27
397,01	1810,40
397,22	1800,16
397,43	1837,03
397,64	1685,48
397,84	1853,41
398,05	1953,76
398,26	1667,05
398,47	1853,41
398,67	1699,81
398,88	1751,01
399,09	1738,73
399,30	1708,01
399,51	1771,49
399,71	1628,14
399,92	1738,73
400,13	1705,96
400,34	1640,42
400,54	1722,34
400,75	1800,16
400,96	1785,83
401,17	1806,31
401,37	1734,63
401,58	1724,39
401,79	1738,73
402,00	1906,66
402,21	1955,81
402,41	1945,57
402,62	2007,01
402,83	1959,91
403,04	2039,78
403,24	1980,39
403,45	1837,03
403,66	1880,04
403,87	1890,28
404,07	1929,19
404,28	1914,85
404,49	1796,07
404,70	1742,82
404,90	1763,30
405,11	1753,06
405,32	1751,01
405,52	1654,76
405,73	1730,53
405,94	1669,09
406,15	1708,01
406,35	1755,11
406,56	1828,84
406,77	1771,49
406,98	1759,21
407,18	1695,72
407,39	1781,73
407,60	1773,54
407,80	1767,40
408,01	1726,44
408,22	1708,01
408,43	1695,72
408,63	1724,39
408,84	1742,82
409,05	1779,68
409,25	1679,33
409,46	1777,64
409,67	1628,14
409,88	1656,81
410,08	1765,35
410,29	1746,92
410,50	1710,05
410,70	1746,92
410,91	1652,71
411,12	1740,77
411,32	1724,39
411,53	1646,57
411,74	1738,73
411,95	1824,74
412,15	1755,11
412,36	1800,16
412,57	1712,10
412,77	1746,92
412,98	1714,15
413,19	1746,92
413,39	1705,96
413,60	1705,96
413,81	1837,03
414,01	1685,48
414,22	1789,92
414,43	1714,15
414,63	1667,05
414,84	1718,25
415,05	1685,48
415,25	1611,75
415,46	1779,68
415,67	1673,19
415,87	1818,60
416,08	1722,34
416,29	1658,85
416,49	1665,00
416,70	1648,61
416,91	1687,53
417,11	1701,86
417,32	1779,68
417,53	1763,30
417,73	1679,33
417,94	1724,39
418,15	1710,05
418,35	1693,67
418,56	1771,49
418,77	1843,17
418,97	1703,91
419,18	1720,29
419,38	1665,00
419,59	1640,42
419,80	1765,35
420,00	1665,00
420,21	1675,24
420,42	1802,21
420,62	1781,73
420,83	1658,85
421,04	1660,90
421,24	1609,70
421,45	1734,63
421,65	1775,59
421,86	1724,39
422,07	1689,57
422,27	1658,85
422,48	1789,92
422,69	1660,90
422,89	1730,53
423,10	1660,90
423,30	1615,85
423,51	1714,15
423,72	1628,14
423,92	1738,73
424,13	1640,42
424,33	1714,15
424,54	1742,82
424,75	1669,09
424,95	1730,53
425,16	1685,48
425,36	1800,16
425,57	1796,07
425,78	1744,87
425,98	1736,68
426,19	1650,66
426,39	1605,61
426,60	1718,25
426,81	1740,77
427,01	1687,53
427,22	1658,85
427,42	1648,61
427,63	1660,90
427,83	1779,68
428,04	1791,97
428,25	1679,33
428,45	1712,10
428,66	1763,30
428,86	1607,66
429,07	1703,91
429,28	1718,25
429,48	1722,34
429,69	1677,29
429,89	1755,11
430,10	1630,18
430,30	1800,16
430,51	1722,34
430,71	1601,51
430,92	1615,85
431,13	1646,57
431,33	1742,82
431,54	1742,82
431,74	1849,32
431,95	1814,50
432,15	1630,18
432,36	1740,77
432,56	1708,01
432,77	1808,36
432,98	1832,93
433,18	1710,05
433,39	1705,96
433,59	1728,49
433,80	1816,55
434,00	1796,07
434,21	1755,11
434,41	1722,34
434,62	1884,13
434,82	1589,22
435,03	1767,40
435,23	1761,25
435,44	1595,37
435,64	1656,81
435,85	1724,39
436,06	1730,53
436,26	1726,44
436,47	1740,77
436,67	1628,14
436,88	1763,30
437,08	1712,10
437,29	1789,92
437,49	1796,07
437,70	1730,53
437,90	1771,49
438,11	1873,89
438,31	1771,49
438,52	1849,32
438,72	1818,60
438,93	1869,80
439,13	1708,01
439,34	1806,31
439,54	1697,77
439,75	1800,16
439,95	1787,88
440,16	1652,71
440,36	1789,92
440,57	1751,01
440,77	1740,77
440,98	1689,57
441,18	1798,12
441,39	1705,96
441,59	1601,51
441,80	1808,36
442,00	1699,81
442,21	1814,50
442,41	1619,94
442,62	1746,92
442,82	1691,62
443,02	1796,07
443,23	1781,73
443,43	1718,25
443,64	1814,50
443,84	1705,96
444,05	1802,21
444,25	1718,25
444,46	1640,42
444,66	1693,67
444,87	1851,36
445,07	1597,42
445,28	1742,82
445,48	1890,28
445,69	1806,31
445,89	1810,40
446,09	1757,16
446,30	1988,58
446,50	2711,51
446,71	3725,26
446,91	4370,37
447,12	4786,10
447,32	4769,72
447,53	4399,04
447,73	3901,38
447,93	3526,60
448,14	3305,42
448,34	3188,69
448,55	2891,73
448,75	2938,84
448,96	2797,53
449,16	2404,32
449,36	2236,38
449,57	1984,48
449,77	1880,04
449,98	1652,71
450,18	1748,97
450,39	1869,80
450,59	1767,40
450,79	1722,34
451,00	1669,09
451,20	1787,88
451,41	1769,44
451,61	1767,40
451,81	1656,81
452,02	1646,57
452,22	1632,23
452,43	1714,15
452,63	1687,53
452,84	1705,96
453,04	1751,01
453,24	1693,67
453,45	1642,47
453,65	1777,64
453,86	1755,11
454,06	1789,92
454,26	1757,16
454,47	1662,95
454,67	1861,60
454,87	1718,25
455,08	1722,34
455,28	1814,50
455,49	1779,68
455,69	1656,81
455,89	1863,65
456,10	1789,92
456,30	1730,53
456,51	1757,16
456,71	1703,91
456,91	1726,44
457,12	1755,11
457,32	1656,81
457,52	1667,05
457,73	1808,36
457,93	1742,82
458,14	1728,49
458,34	1662,95
458,54	1669,09
458,75	1767,40
458,95	1789,92
459,15	1777,64
459,36	1755,11
459,56	1832,93
459,76	1880,04
459,97	1740,77
460,17	1763,30
460,37	1740,77
460,58	1742,82
460,78	1802,21
460,99	1687,53
461,19	1679,33
461,39	1669,09
461,60	1755,11
461,80	1806,31
462,00	1599,46
462,21	1695,72
462,41	1677,29
462,61	1628,14
462,82	1589,22
463,02	1777,64
463,22	1779,68
463,43	1791,97
463,63	1724,39
463,83	1834,98
464,04	1710,05
464,24	1701,86
464,44	1665,00
464,64	1728,49
464,85	1789,92
465,05	1796,07
465,25	1677,29
465,46	1716,20
465,66	1812,45
465,86	1732,58
466,07	1761,25
466,27	1695,72
466,47	1671,14
466,68	1677,29
466,88	1816,55
467,08	1755,11
467,29	1716,20
467,49	1746,92
467,69	1746,92
467,89	1722,34
468,10	1689,57
468,30	1736,68
468,50	1771,49
468,71	1644,52
468,91	1626,09
469,11	1775,59
469,31	1691,62
469,52	1652,71
469,72	1794,02
469,92	1861,60
470,13	1689,57
470,33	1734,63
470,53	1832,93
470,73	2148,32
470,94	2238,43
471,14	2422,75
471,34	2576,34
471,54	2406,36
471,75	2252,77
471,95	2170,85
472,15	2101,22
472,36	2140,13
472,56	2058,21
472,76	2095,07
472,96	2068,45
473,17	1929,19
473,37	1953,76
473,57	1806,31
473,77	1830,88
473,98	1802,21
474,18	1640,42
474,38	1857,51
474,58	1699,81
474,79	1701,86
474,99	1761,25
475,19	1722,34
475,39	1685,48
475,60	1812,45
475,80	1656,81
476,00	1740,77
476,20	1671,14
476,41	1650,66
476,61	1828,84
476,81	1771,49
477,01	1642,47
477,21	1871,84
477,42	1789,92
477,62	1644,52
477,82	1812,45
478,02	1695,72
478,23	1763,30
478,43	1665,00
478,63	1689,57
478,83	1789,92
479,03	1736,68
479,24	1791,97
479,44	1820,64
479,64	1675,24
479,84	1660,90
480,04	1652,71
480,25	1753,06
480,45	1701,86
480,65	1744,87
480,85	1816,55
481,06	1662,95
481,26	1775,59
481,46	1695,72
481,66	1761,25
481,86	1677,29
482,06	1753,06
482,27	1665,00
482,47	1718,25
482,67	1759,21
482,87	1730,53
483,07	1796,07
483,28	1755,11
483,48	1632,23
483,68	1699,81
483,88	1718,25
484,08	1617,90
484,29	1648,61
484,49	1746,92
484,69	1585,13
484,89	1791,97
485,09	1705,96
485,29	1773,54
485,50	1771,49
485,70	1695,72
485,90	1781,73
486,10	1798,12
486,30	1740,77
486,50	1873,89
486,71	1724,39
486,91	1818,60
487,11	1738,73
487,31	1730,53
487,51	1693,67
487,71	1667,05
487,91	1665,00
488,12	1691,62
488,32	1560,55
488,52	1681,38
488,72	1599,46
488,92	1716,20
489,12	1748,97
489,32	1759,21
489,53	1783,78
489,73	1644,52
489,93	1794,02
490,13	1675,24
490,33	1677,29
490,53	1716,20
490,73	1789,92
490,94	1652,71
491,14	1820,64
491,34	1828,84
491,54	2090,98
491,74	2594,78
491,94	2840,53
492,14	2957,27
492,34	3082,19
492,54	2842,58
492,75	2508,76
492,95	2475,99
493,15	2387,93
493,35	2334,68
493,55	2254,81
493,75	2150,37
493,95	2107,36
494,15	1961,95
494,35	1898,47
494,56	1863,65
494,76	1789,92
494,96	1828,84
495,16	1794,02
495,36	1785,83
495,56	1697,77
495,76	1767,40
495,96	1732,58
496,16	1630,18
496,36	1851,36
496,56	1757,16
496,77	1697,77
496,97	1710,05
497,17	1767,40
497,37	1652,71
497,57	1765,35
497,77	1697,77
497,97	1677,29
498,17	1722,34
498,37	1667,05
498,57	1818,60
498,77	1689,57
498,97	1796,07
499,17	1781,73
499,38	1691,62
499,58	1775,59
499,78	1753,06
499,98	1814,50
500,18	1794,02
500,38	1714,15
500,58	1845,22
500,78	2541,53
500,98	4517,82
501,18	5892,01
501,38	6694,81
501,58	7090,07
501,78	6653,85
501,98	5490,60
502,18	5056,43
502,38	4468,67
502,58	4208,58
502,78	3794,89
502,98	3573,71
503,18	3489,74
503,38	3194,83
503,59	2826,20
503,79	2691,03
503,99	2435,03
504,19	2324,44
504,39	2226,14
504,59	2166,75
504,79	2148,32
504,99	2013,15
505,19	1968,10
505,39	1916,90
505,59	1929,19
505,79	1906,66
505,99	1855,46
506,19	1810,40
506,39	1957,86
506,59	1773,54
506,79	1783,78
506,99	1796,07
507,19	1765,35
507,39	1734,63
507,59	1656,81
507,79	1720,29
507,99	1703,91
508,19	1787,88
508,39	1673,19
508,59	1777,64
508,79	1816,55
508,99	1873,89
509,19	1734,63
509,39	1771,49
509,59	1777,64
509,79	1685,48
509,99	1746,92
510,19	1796,07
510,39	1839,08
510,59	1681,38
510,79	1644,52
510,99	1662,95
511,19	1712,10
511,39	1841,12
511,59	1744,87
511,79	1867,75
511,99	1724,39
512,19	1808,36
512,38	1701,86
512,58	1775,59
512,78	1804,26
512,98	1877,99
513,18	1816,55
513,38	1605,61
513,58	1763,30
513,78	1671,14
513,98	1787,88
514,18	1662,95
514,38	1763,30
514,58	1777,64
514,78	1699,81
514,98	1687,53
515,18	1697,77
515,38	1689,57
515,58	1935,33
515,78	1720,29
515,98	1742,82
516,18	1693,67
516,38	1689,57
516,57	1722,34
516,77	1677,29
516,97	1779,68
517,17	1703,91
517,37	1603,56
517,57	1812,45
517,77	1722,34
517,97	1705,96
518,17	1730,53
518,37	1695,72
518,57	1677,29
518,77	1773,54
518,97	1691,62
519,16	1724,39
519,36	1724,39
519,56	1718,25
519,76	1607,66
519,96	1781,73
520,16	1802,21
520,36	1632,23
520,56	1826,79
520,76	1710,05
520,96	1714,15
521,16	1783,78
521,35	1730,53
521,55	1810,40
521,75	1701,86
521,95	1695,72
522,15	1730,53
522,35	1640,42
522,55	1673,19
522,75	1800,16
522,95	1738,73
523,14	1732,58
523,34	1767,40
523,54	1705,96
523,74	1787,88
523,94	1785,83
524,14	1662,95
524,34	1720,29
524,54	1763,30
524,73	1634,28
524,93	1763,30
525,13	1724,39
525,33	1646,57
525,53	1877,99
525,73	1710,05
525,93	1658,85
526,13	1757,16
526,32	1648,61
526,52	1806,31
526,72	1779,68
526,92	1755,11
527,12	1775,59
527,32	1693,67
527,52	1669,09
527,71	1769,44
527,91	1558,50
528,11	1654,76
528,31	1734,63
528,51	1646,57
528,71	1769,44
528,90	1736,68
529,10	1783,78
529,30	1753,06
529,50	1667,05
529,70	1755,11
529,90	1708,01
530,09	1753,06
530,29	1691,62
530,49	1734,63
530,69	1880,04
530,89	1665,00
531,09	1783,78
531,28	1703,91
531,48	1757,16
531,68	1808,36
531,88	1730,53
532,08	1660,90
532,28	1714,15
532,47	1763,30
532,67	1810,40
532,87	1656,81
533,07	1634,28
533,27	1779,68
533,46	1755,11
533,66	1714,15
533,86	1675,24
534,06	1658,85
534,26	1748,97
534,45	1656,81
534,65	1744,87
534,85	1767,40
535,05	1742,82
535,25	1769,44
535,44	1624,04
535,64	1791,97
535,84	1759,21
536,04	1687,53
536,24	1753,06
536,43	1726,44
536,63	1742,82
536,83	1632,23
537,03	1695,72
537,22	1628,14
537,42	1646,57
537,62	1736,68
537,82	1658,85
538,02	1824,74
538,21	1734,63
538,41	1882,08
538,61	1796,07
538,81	1728,49
539,00	1773,54
539,20	1691,62
539,40	1701,86
539,60	1771,49
539,79	1736,68
539,99	1679,33
540,19	1779,68
540,39	1681,38
540,58	1841,12
540,78	1738,73
540,98	1742,82
541,18	1804,26
541,37	1781,73
541,57	1746,92
541,77	1751,01
541,97	1712,10
542,16	1626,09
542,36	1691,62
542,56	1753,06
542,76	1818,60
542,95	1744,87
543,15	1726,44
543,35	1789,92
543,54	1763,30
543,74	1652,71
543,94	1841,12
544,14	1748,97
544,33	1767,40
544,53	1689,57
544,73	1757,16
544,93	1652,71
545,12	1681,38
545,32	1712,10
545,52	1767,40
545,71	1656,81
545,91	1685,48
546,11	1693,67
546,30	1722,34
546,50	1703,91
546,70	1751,01
546,90	1734,63
547,09	1632,23
547,29	1748,97
547,49	1671,14
547,68	1703,91
547,88	1716,20
548,08	1712,10
548,27	2207,71
548,47	1691,62
548,67	1746,92
548,87	1757,16
549,06	1751,01
549,26	1724,39
549,46	1753,06
549,65	1683,43
549,85	1775,59
550,05	1796,07
550,24	1669,09
550,44	1828,84
550,64	1746,92
550,83	1761,25
551,03	1806,31
551,23	1863,65
551,42	1746,92
551,62	1740,77
551,82	1765,35
552,01	1699,81
552,21	1824,74
552,41	1806,31
552,60	1834,98
552,80	1757,16
553,00	1742,82
553,19	1777,64
553,39	1832,93
553,59	1665,00
553,78	1781,73
553,98	1755,11
554,17	1611,75
554,37	1777,64
554,57	1828,84
554,76	1662,95
554,96	1730,53
555,16	1665,00
555,35	1800,16
555,55	1726,44
555,75	1822,69
555,94	1724,39
556,14	1630,18
556,33	1748,97
556,53	1736,68
556,73	1779,68
556,92	1701,86
557,12	1755,11
557,32	1791,97
557,51	1839,08
557,71	1740,77
557,90	1820,64
558,10	1753,06
558,30	1710,05
558,49	1718,25
558,69	1785,83
558,88	1722,34
559,08	1738,73
559,28	1755,11
559,47	1718,25
559,67	1804,26
559,86	1816,55
560,06	1734,63
560,26	1746,92
560,45	1800,16
560,65	1691,62
560,84	1816,55
561,04	1744,87
561,24	1757,16
561,43	1714,15
561,63	1771,49
561,82	1765,35
562,02	1765,35
562,22	1681,38
562,41	1675,24
562,61	1632,23
562,80	1726,44
563,00	1814,50
563,19	1724,39
563,39	1845,22
563,59	1759,21
563,78	1734,63
563,98	1744,87
564,17	1740,77
564,37	1693,67
564,56	1673,19
564,76	1630,18
564,96	1751,01
565,15	1687,53
565,35	1923,04
565,54	1714,15
565,74	1826,79
565,93	1765,35
566,13	1691,62
566,32	1794,02
566,52	1753,06
566,71	1728,49
566,91	1744,87
567,11	1763,30
567,30	1648,61
567,50	1871,84
567,69	1742,82
567,89	1738,73
568,08	1716,20
568,28	1748,97
568,47	1667,05
568,67	1771,49
568,86	1683,43
569,06	1822,69
569,25	1714,15
569,45	1679,33
569,64	1761,25
569,84	1722,34
570,04	1769,44
570,23	1705,96
570,43	1736,68
570,62	1697,77
570,82	1787,88
571,01	1679,33
571,21	1683,43
571,40	1697,77
571,60	1820,64
571,79	1728,49
571,99	1834,98
572,18	1662,95
572,38	1806,31
572,57	1703,91
572,77	1757,16
572,96	1863,65
573,16	1845,22
573,35	1720,29
573,55	1777,64
573,74	1779,68
573,94	1732,58
574,13	1781,73
574,33	1781,73
574,52	1802,21
574,71	1701,86
574,91	1734,63
575,10	1677,29
575,30	1783,78
575,49	1677,29
575,69	1722,34
575,88	1802,21
576,08	1718,25
576,27	1751,01
576,47	1767,40
576,66	1845,22
576,86	1869,80
577,05	1701,86
577,25	1794,02
577,44	1806,31
577,64	1726,44
577,83	1853,41
578,02	1650,66
578,22	1806,31
578,41	1843,17
578,61	1757,16
578,80	1685,48
579,00	1751,01
579,19	1777,64
579,39	1808,36
579,58	1802,21
579,77	1732,58
579,97	1873,89
580,16	1820,64
580,36	1808,36
580,55	1787,88
580,75	1736,68
580,94	1769,44
581,13	1867,75
581,33	1847,27
581,52	1765,35
581,72	1783,78
581,91	1763,30
582,11	1748,97
582,30	1693,67
582,49	1761,25
582,69	1894,37
582,88	1816,55
583,08	1738,73
583,27	1845,22
583,47	1691,62
583,66	1665,00
583,85	1691,62
584,05	1685,48
584,24	1765,35
584,44	1882,08
584,63	1769,44
584,82	1763,30
585,02	1761,25
585,21	1773,54
585,41	1800,16
585,60	1818,60
585,79	1931,23
585,99	1877,99
586,18	1927,14
586,37	2138,08
586,57	3321,81
586,76	9807,72
586,96	24534,67
587,15	34577,90
587,34	40631,70
587,54	42030,46
587,73	36869,58
587,93	26408,56
588,12	21624,50
588,31	18495,21
588,51	16414,47
588,70	15071,00
588,89	14008,11
589,09	12531,52
589,28	10876,76
589,47	9455,47
589,67	7970,69
589,86	6459,29
590,06	4847,54
590,25	4079,55
590,44	3182,54
590,64	2676,70
590,83	2215,90
591,02	2070,50
591,22	1947,62
591,41	1896,42
591,60	1818,60
591,80	1916,90
591,99	1671,14
592,18	1855,46
592,38	1832,93
592,57	1718,25
592,76	1705,96
592,96	1773,54
593,15	1732,58
593,34	1828,84
593,54	1791,97
593,73	1748,97
593,92	1789,92
594,12	1751,01
594,31	1689,57
594,50	1849,32
594,70	1810,40
594,89	1920,99
595,08	1689,57
595,28	1800,16
595,47	1912,80
595,66	1736,68
595,86	1726,44
596,05	1796,07
596,24	1695,72
596,43	1775,59
596,63	1820,64
596,82	1773,54
597,01	1736,68
597,21	1839,08
597,40	1806,31
597,59	1771,49
597,79	1722,34
597,98	1789,92
598,17	1708,01
598,36	1759,21
598,56	1769,44
598,75	1738,73
598,94	1736,68
599,14	1761,25
599,33	1810,40
599,52	1755,11
599,71	1791,97
599,91	1787,88
600,10	1726,44
600,29	1689,57
600,48	1783,78
600,68	1777,64
600,87	1677,29
601,06	1642,47
601,26	1714,15
601,45	1847,27
601,64	1712,10
601,83	1841,12
602,03	1765,35
602,22	1669,09
602,41	1738,73
602,60	1865,70
602,80	1828,84
602,99	1695,72
603,18	1740,77
603,37	1755,11
603,57	1734,63
603,76	1755,11
603,95	1828,84
604,14	1640,42
604,34	1701,86
604,53	1773,54
604,72	1714,15
604,91	1761,25
605,10	1779,68
605,30	1712,10
605,49	1851,36
605,68	1785,83
605,87	1798,12
606,07	1693,67
606,26	1800,16
606,45	1789,92
606,64	1746,92
606,84	1734,63
607,03	1675,24
607,22	1728,49
607,41	1656,81
607,60	1720,29
607,80	1757,16
607,99	1740,77
608,18	1804,26
608,37	1806,31
608,56	1691,62
608,76	1798,12
608,95	1845,22
609,14	1746,92
609,33	1759,21
609,52	1783,78
609,72	1718,25
609,91	1751,01
610,10	1720,29
610,29	1775,59
610,48	1761,25
610,68	1773,54
610,87	1705,96
611,06	1765,35
611,25	1691,62
611,44	1847,27
611,63	1759,21
611,83	1705,96
612,02	1716,20
612,21	1765,35
612,40	1636,33
612,59	1624,04
612,79	1695,72
612,98	1748,97
613,17	1777,64
613,36	1755,11
613,55	1841,12
613,74	1699,81
613,93	1703,91
614,13	1671,14
614,32	1683,43
614,51	1712,10
614,70	1775,59
614,89	1746,92
615,08	1791,97
615,28	2013,15
615,47	1742,82
615,66	1787,88
615,85	1669,09
616,04	1796,07
616,23	1781,73
616,42	1734,63
616,62	1779,68
616,81	1705,96
617,00	1744,87
617,19	1755,11
617,38	1634,28
617,57	1718,25
617,76	1787,88
617,95	1708,01
618,15	1759,21
618,34	1781,73
618,53	1693,67
618,72	1769,44
618,91	1732,58
619,10	1781,73
619,29	1763,30
619,48	1708,01
619,68	1624,04
619,87	1740,77
620,06	1759,21
620,25	1710,05
620,44	1712,10
620,63	1722,34
620,82	1736,68
621,01	1759,21
621,20	1714,15
621,39	1742,82
621,59	1826,79
621,78	1769,44
621,97	1673,19
622,16	1722,34
622,35	1751,01
622,54	1796,07
622,73	1865,70
622,92	1675,24
623,11	1701,86
623,30	1679,33
623,49	1820,64
623,68	1693,67
623,88	1759,21
624,07	1724,39
624,26	1626,09
624,45	1689,57
624,64	1744,87
624,83	1687,53
625,02	1699,81
625,21	1773,54
625,40	1767,40
625,59	1781,73
625,78	1722,34
625,97	1746,92
626,16	1783,78
626,35	1738,73
626,54	1787,88
626,74	1714,15
626,93	1710,05
627,12	1720,29
627,31	1785,83
627,50	1693,67
627,69	1773,54
627,88	1640,42
628,07	1720,29
628,26	1607,66
628,45	1689,57
628,64	1714,15
628,83	1693,67
629,02	1624,04
629,21	1757,16
629,40	1746,92
629,59	1626,09
629,78	1675,24
629,97	1687,53
630,16	1730,53
630,35	1675,24
630,54	1665,00
630,73	1578,98
630,92	1769,44
631,11	1705,96
631,30	1720,29
631,49	1730,53
631,68	1689,57
631,87	1703,91
632,06	1665,00
632,25	1837,03
632,44	1658,85
632,63	1716,20
632,82	1728,49
633,01	1689,57
633,20	1705,96
633,39	1660,90
633,58	1691,62
633,77	1638,38
633,96	1769,44
634,15	1865,70
634,34	1763,30
634,53	1791,97
634,72	1656,81
634,91	1671,14
635,10	1697,77
635,29	1806,31
635,48	1705,96
635,67	1755,11
635,86	1634,28
636,05	1777,64
636,24	1652,71
636,43	1714,15
636,62	1701,86
636,81	1630,18
637,00	1662,95
637,19	1779,68
637,38	1779,68
637,57	1648,61
637,76	1662,95
637,95	1759,21
638,14	1665,00
638,33	1705,96
638,52	1732,58
638,71	1671,14
638,89	1540,07
639,08	1869,80
639,27	1783,78
639,46	1732,58
639,65	1845,22
639,84	1712,10
640,03	1785,83
640,22	1724,39
640,41	1845,22
640,60	1693,67
640,79	1755,11
640,98	1693,67
641,17	1765,35
641,36	1697,77
641,55	1777,64
641,74	1562,60
641,92	1634,28
642,11	1642,47
642,30	1708,01
642,49	1699,81
642,68	1703,91
642,87	1703,91
643,06	1796,07
643,25	1695,72
643,44	1679,33
643,63	1763,30
643,82	1814,50
644,00	1689,57
644,19	1697,77
644,38	1619,94
644,57	1787,88
644,76	1669,09
644,95	1634,28
645,14	1681,38
645,33	1628,14
645,52	1785,83
645,71	1652,71
645,89	1691,62
646,08	1648,61
646,27	1667,05
646,46	1728,49
646,65	1703,91
646,84	1732,58
647,03	1665,00
647,22	1837,03
647,40	1687,53
647,59	1730,53
647,78	1650,66
647,97	1697,77
648,16	1644,52
648,35	1726,44
648,54	1753,06
648,73	1759,21
648,91	1794,02
649,10	1769,44
649,29	1597,42
649,48	1708,01
649,67	1771,49
649,86	1695,72
650,05	1648,61
650,23	1789,92
650,42	1689,57
650,61	1746,92
650,80	1767,40
650,99	1847,27
651,18	1656,81
651,36	1734,63
651,55	1656,81
651,74	1689,57
651,93	1761,25
652,12	1732,58
652,31	1695,72
652,49	1734,63
652,68	1701,86
652,87	1755,11
653,06	1777,64
653,25	1816,55
653,44	1785,83
653,62	1751,01
653,81	1665,00
654,00	1742,82
654,19	1757,16
654,38	1902,56
654,56	1757,16
654,75	1677,29
654,94	1855,46
655,13	1802,21
655,32	1693,67
655,51	1732,58
655,69	1591,27
655,88	1720,29
656,07	1751,01
656,26	1736,68
656,45	1718,25
656,63	1746,92
656,82	1775,59
657,01	1753,06
657,20	1665,00
657,38	1683,43
657,57	1710,05
657,76	1667,05
657,95	1843,17
658,14	1685,48
658,32	1724,39
658,51	1624,04
658,70	1777,64
658,89	1732,58
659,08	1662,95
659,26	1763,30
659,45	1669,09
659,64	1755,11
659,83	1605,61
660,01	1900,52
660,20	1716,20
660,39	1767,40
660,58	1605,61
660,76	1816,55
660,95	1613,80
661,14	1734,63
661,33	1675,24
661,51	1662,95
661,70	1689,57
661,89	1787,88
662,08	1734,63
662,26	1601,51
662,45	1656,81
662,64	1853,41
662,83	1771,49
663,01	1658,85
663,20	1626,09
663,39	1787,88
663,58	1757,16
663,76	1705,96
663,95	1732,58
664,14	1628,14
664,32	1691,62
664,51	1665,00
664,70	1660,90
664,89	1761,25
665,07	1646,57
665,26	1740,77
665,45	1642,47
665,64	1736,68
665,82	1751,01
666,01	1808,36
666,20	1658,85
666,38	1751,01
666,57	1791,97
666,76	2179,04
666,95	4444,09
667,13	10209,12
667,32	15101,72
667,51	17856,24
667,69	19062,49
667,88	17698,55
668,07	12392,26
668,25	9543,53
668,44	8189,83
668,63	7247,76
668,81	6940,57
669,00	6344,61
669,19	5701,54
669,38	5126,07
669,56	4607,93
669,75	4065,22
669,94	3428,30
670,12	2953,17
670,31	2549,72
670,50	2246,62
670,68	2009,06
670,87	1910,75
671,06	1849,32
671,24	1783,78
671,43	1855,46
671,62	1804,26
671,80	1654,76
671,99	1812,45
672,18	1722,34
672,36	1798,12
672,55	1789,92
672,74	1697,77
672,92	1691,62
673,11	1742,82
673,29	1626,09
673,48	1783,78
673,67	1751,01
673,85	1757,16
674,04	1648,61
674,23	1691,62
674,41	1751,01
674,60	1615,85
674,79	1619,94
674,97	1597,42
675,16	1814,50
675,34	1798,12
675,53	1732,58
675,72	1753,06
675,90	1785,83
676,09	1728,49
676,28	1705,96
676,46	1630,18
676,65	1751,01
676,83	1646,57
677,02	1728,49
677,21	1744,87
677,39	1705,96
677,58	1644,52
677,77	1720,29
677,95	1570,79
678,14	1726,44
678,32	1689,57
678,51	1726,44
678,70	1812,45
678,88	1697,77
679,07	1621,99
679,25	1751,01
679,44	1773,54
679,63	1695,72
679,81	1755,11
680,00	1742,82
680,18	1691,62
680,37	1791,97
680,55	1703,91
680,74	1675,24
680,93	1697,77
681,11	1755,11
681,30	1716,20
681,48	1759,21
681,67	1656,81
681,85	1742,82
682,04	1710,05
682,23	1769,44
682,41	1746,92
682,60	1671,14
682,78	1746,92
682,97	1570,79
683,15	1705,96
683,34	1665,00
683,53	1789,92
683,71	1644,52
683,90	1748,97
684,08	1777,64
684,27	1701,86
684,45	1710,05
684,64	1722,34
684,82	1736,68
685,01	1687,53
685,19	1738,73
685,38	1816,55
685,57	1767,40
685,75	1701,86
685,94	1628,14
686,12	1638,38
686,31	1744,87
686,49	1761,25
686,68	1560,55
686,86	1757,16
687,05	1763,30
687,23	1728,49
687,42	1677,29
687,60	1660,90
687,79	1744,87
687,97	1791,97
688,16	1775,59
688,34	1763,30
688,53	1572,84
688,71	1708,01
688,90	1765,35
689,08	1640,42
689,27	1642,47
689,45	1728,49
689,64	1734,63
689,82	1697,77
690,01	1716,20
690,19	1728,49
690,38	1722,34
690,56	1816,55
690,75	1671,14
690,93	1689,57
691,12	1679,33
691,30	1781,73
691,49	1677,29
691,67	1730,53
691,86	1744,87
692,04	1697,77
692,23	1609,70
692,41	1710,05
692,60	1718,25
692,78	1773,54
692,97	1699,81
693,15	1691,62
693,34	1861,60
693,52	1746,92
693,71	1660,90
693,89	1607,66
694,08	1632,23
694,26	1771,49
694,44	1695,72
694,63	1710,05
694,81	1646,57
695,00	1673,19
695,18	1798,12
695,37	1851,36
695,55	1710,05
695,74	1568,74
695,92	1642,47
696,10	1765,35
696,29	1695,72
696,47	1656,81
696,66	1658,85
696,84	1701,86
697,03	1710,05
697,21	1828,84
697,40	2306,01
697,58	1779,68
697,76	1701,86
697,95	1652,71
698,13	1669,09
698,32	1697,77
698,50	1712,10
698,68	1783,78
698,87	1677,29
699,05	1771,49
699,24	1658,85
699,42	1744,87
699,61	1732,58
699,79	1765,35
699,97	1689,57
700,16	1701,86
700,34	1601,51
700,53	1689,57
700,71	1849,32
700,89	1671,14
701,08	1699,81
701,26	1683,43
701,45	2113,50
701,63	1667,05
701,81	1746,92
702,00	1652,71
702,18	1724,39
702,37	1638,38
702,55	1708,01
702,73	1751,01
702,92	1665,00
703,10	1794,02
703,28	1722,34
703,47	1738,73
703,65	1761,25
703,84	1710,05
704,02	1763,30
704,20	1816,55
704,39	1699,81
704,57	1619,94
704,75	1708,01
704,94	1787,88
705,12	1738,73
705,30	1789,92
705,49	2158,56
705,67	4560,83
705,86	9396,08
706,04	12838,72
706,22	14348,07
706,41	15488,79
706,59	13705,01
706,77	9672,56
706,96	7360,40
707,14	6670,23
707,32	5842,85
707,51	5627,82
707,69	4982,71
707,87	4267,97
708,06	3575,75
708,24	2959,31
708,42	2461,66
708,61	2285,53
708,79	1886,18
708,97	1869,80
709,16	1841,12
709,34	1798,12
709,52	1675,24
709,71	1718,25
709,89	1746,92
710,07	1640,42
710,26	1583,08
710,44	1718,25
710,62	1773,54
710,80	1703,91
710,99	1757,16
711,17	1728,49
711,35	1691,62
711,54	1679,33
711,72	1783,78
711,90	1703,91
712,09	1775,59
712,27	1673,19
712,45	1746,92
712,63	1751,01
712,82	1730,53
713,00	1701,86
713,18	1759,21
713,37	1722,34
713,55	1796,07
713,73	1757,16
713,91	1662,95
714,10	1654,76
714,28	1691,62
714,46	1701,86
714,65	1714,15
714,83	1712,10
715,01	1724,39
715,19	1658,85
715,38	1710,05
715,56	1755,11
715,74	1716,20
715,92	1642,47
716,11	1775,59
716,29	1554,41
716,47	1671,14
716,65	1763,30
716,84	1609,70
717,02	1710,05
717,20	1673,19
717,38	1746,92
717,57	1726,44
717,75	1662,95
717,93	1658,85
718,11	1746,92
718,30	1615,85
718,48	1726,44
718,66	1773,54
718,84	1740,77
719,03	1624,04
719,21	1632,23
719,39	1804,26
719,57	1732,58
719,75	1783,78
719,94	1695,72
720,12	1701,86
720,30	1691,62
720,48	1767,40
720,67	1703,91
720,85	1626,09
721,03	1742,82
721,21	1681,38
721,39	1767,40
721,58	1685,48
721,76	1748,97
721,94	1697,77
722,12	1681,38
722,30	1853,41
722,49	1714,15
722,67	1697,77
722,85	1705,96
723,03	1632,23
723,21	1673,19
723,40	1691,62
723,58	1665,00
723,76	1658,85
723,94	1791,97
724,12	1763,30
724,30	1751,01
724,49	1757,16
724,67	1597,42
724,85	1751,01
725,03	1599,46
725,21	1712,10
725,40	1791,97
725,58	1576,94
725,76	1794,02
725,94	1705,96
726,12	1615,85
726,30	1789,92
726,49	1710,05
726,67	1652,71
726,85	1708,01
727,03	1791,97
727,21	2131,94
727,39	2934,74
727,57	3817,41
727,76	4247,49
727,94	4499,39
728,12	4382,65
728,30	3674,06
728,48	2979,79
728,66	2748,37
728,84	2498,52
729,03	2361,31
729,21	2183,13
729,39	1984,48
729,57	1791,97
729,75	1841,12
729,93	1867,75
730,11	1685,48
730,30	1724,39
730,48	1763,30
730,66	1751,01
730,84	1640,42
731,02	1703,91
731,20	1714,15
731,38	1728,49
731,56	1581,03
731,74	1652,71
731,93	1730,53
732,11	1716,20
732,29	1763,30
732,47	1738,73
732,65	1681,38
732,83	1785,83
733,01	1718,25
733,19	1662,95
733,37	1730,53
733,56	1697,77
733,74	1701,86
733,92	1728,49
734,10	1699,81
734,28	1685,48
734,46	1632,23
734,64	1699,81
734,82	1687,53
735,00	1593,32
735,18	1730,53
735,36	1705,96
735,54	1740,77
735,73	1716,20
735,91	1722,34
736,09	1746,92
736,27	1689,57
736,45	1705,96
736,63	1632,23
736,81	1669,09
736,99	1775,59
737,17	1757,16
737,35	1644,52
737,53	1701,86
737,71	1677,29
737,89	1802,21
738,07	1609,70
738,25	1644,52
738,43	1595,37
738,61	1652,71
738,80	1669,09
738,98	1578,98
739,16	1726,44
739,34	1730,53
739,52	1722,34
739,70	1751,01
739,88	1804,26
740,06	1794,02
740,24	1609,70
740,42	1720,29
740,60	1587,18
740,78	1708,01
740,96	1617,90
741,14	1675,24
741,32	1705,96
741,50	1679,33
741,68	1832,93
741,86	1816,55
742,04	1669,09
742,22	1701,86
742,40	1681,38
742,58	1748,97
742,76	1578,98
742,94	1705,96
743,12	1607,66
743,30	1632,23
743,48	1642,47
743,66	1671,14
743,84	1738,73
744,02	1628,14
744,20	1701,86
744,38	1609,70
744,56	1665,00
744,74	1824,74
744,92	1673,19
745,10	1742,82
745,28	1798,12
745,46	1845,22
745,64	1742,82
745,82	1800,16
746,00	1705,96
746,18	1669,09
746,36	1748,97
746,54	1777,64
746,72	1648,61
746,90	1628,14
747,08	1763,30
747,26	1681,38
747,44	1728,49
747,62	1742,82
747,80	1705,96
747,98	1695,72
748,15	1701,86
748,33	1693,67
748,51	1671,14
748,69	1765,35
748,87	1609,70
749,05	1619,94
749,23	1624,04
749,41	1763,30
749,59	1687,53
749,77	1681,38
749,95	1687,53
750,13	1660,90
750,31	1718,25
750,49	1626,09
750,67	1759,21
750,85	1748,97
751,03	1728,49
751,20	1783,78
751,38	1761,25
751,56	1699,81
751,74	1669,09
751,92	1673,19
752,10	1677,29
752,28	1748,97
752,46	1634,28
752,64	1673,19
752,82	1730,53
753,00	1753,06
753,18	1691,62
753,35	1697,77
753,53	1740,77
753,71	1650,66
753,89	1755,11
754,07	1730,53
754,25	1732,58
754,43	1699,81
754,61	1701,86
754,79	1728,49
754,97	1654,76
755,14	1816,55
755,32	1634,28
755,50	1734,63
755,68	1720,29
755,86	1650,66
756,04	1642,47
756,22	1615,85
756,40	1794,02
756,57	1789,92
756,75	1693,67
756,93	1693,67
757,11	1681,38
757,29	1564,65
757,47	1699,81
757,65	1650,66
757,82	1578,98
758,00	1667,05
758,18	1701,86
758,36	1603,56
758,54	1777,64
758,72	1656,81
758,90	1820,64
759,07	1787,88
759,25	1662,95
759,43	1732,58
759,61	1615,85
759,79	2164,70
759,97	1787,88
760,15	1640,42
760,32	1718,25
760,50	1675,24
760,68	1841,12
760,86	1564,65
761,04	1753,06
761,22	1779,68
761,39	1656,81
761,57	1775,59
761,75	1683,43
761,93	1689,57
762,11	1722,34
762,28	1689,57
762,46	1724,39
762,64	1712,10
762,82	1675,24
763,00	1759,21
763,18	1746,92
763,35	1642,47
763,53	1767,40
763,71	1730,53
763,89	1746,92
764,07	1695,72
764,24	1767,40
764,42	1789,92
764,60	1669,09
764,78	1665,00
764,96	1771,49
765,13	1759,21
765,31	1642,47
765,49	1714,15
765,67	1642,47
765,84	1722,34
766,02	1621,99
766,20	1617,90
766,38	1730,53
766,56	1703,91
766,73	1783,78
766,91	1734,63
767,09	1765,35
767,27	1716,20
767,44	1615,85
767,62	1701,86
767,80	1687,53
767,98	1652,71
768,15	1691,62
768,33	1714,15
768,51	1765,35
768,69	1779,68
768,87	1744,87
769,04	1693,67
769,22	1871,84
769,40	1798,12
769,58	1845,22
769,75	1689,57
769,93	1667,05
770,11	1718,25
770,28	1705,96
770,46	1767,40
770,64	1777,64
770,82	1642,47
770,99	1673,19
771,17	1716,20
771,35	1691,62
771,53	1744,87
771,70	1665,00
771,88	1796,07
772,06	1644,52
772,23	1677,29
772,41	1710,05
772,59	1638,38
772,77	1724,39
772,94	1656,81
773,12	1738,73
773,30	1640,42
773,47	1732,58
773,65	1636,33
773,83	1834,98
774,01	1720,29
774,18	1535,98
774,36	1669,09
774,54	1605,61
774,71	1802,21
774,89	1607,66
775,07	1712,10
775,24	1609,70
775,42	1720,29
775,60	1773,54
775,78	1681,38
775,95	1658,85
776,13	1589,22
776,31	1650,66
776,48	1697,77
776,66	1802,21
776,84	1630,18
777,01	1642,47
777,19	1619,94
777,37	1626,09
777,54	1753,06
777,72	1794,02
777,90	1640,42
778,07	1683,43
778,25	1923,04
778,43	1748,97
778,60	1634,28
778,78	1708,01
778,96	1724,39
779,13	1628,14
779,31	1806,31
779,49	1656,81
779,66	1693,67
779,84	1617,90
780,01	1710,05
780,19	1675,24
780,37	1761,25
780,54	1763,30
780,72	1658,85
780,90	1718,25
781,07	1710,05
781,25	1611,75
781,43	1800,16
781,60	1656,81
781,78	1742,82
781,95	1662,95
782,13	1669,09
782,31	1703,91
782,48	1591,27
782,66	1710,05
782,83	1779,68
783,01	1742,82
783,19	1728,49
783,36	1708,01
783,54	1679,33
783,72	1757,16
783,89	1607,66
784,07	1675,24
784,24	1656,81
784,42	1857,51
784,60	1646,57
784,77	1742,82
784,95	1697,77
785,12	1689,57
785,30	1671,14
785,47	1693,67
785,65	1624,04
785,83	1646,57
786,00	1701,86
786,18	1730,53
786,35	1601,51
786,53	1712,10
786,71	1644,52
786,88	1705,96
787,06	1720,29
787,23	1714,15
787,41	1644,52
787,58	1648,61
787,76	1636,33
787,94	1712,10
788,11	1755,11
788,29	1691,62
788,46	1689,57
788,64	1658,85
788,81	1656,81
788,99	1562,60
789,16	1619,94
789,34	1705,96
789,52	1726,44
789,69	1675,24
789,87	1640,42
790,04	1699,81
790,22	1687,53
790,39	1806,31
790,57	1597,42
790,74	1697,77
790,92	1783,78
791,09	1693,67
791,27	1712,10
791,44	1796,07
791,62	1640,42
791,79	1771,49
791,97	1634,28
792,15	1845,22
792,32	1761,25
792,50	1765,35
792,67	1728,49
792,85	1794,02
793,02	1683,43
793,20	1697,77
793,37	1632,23
793,55	1691,62
793,72	1636,33
793,90	1679,33
794,07	1773,54
794,25	1630,18
794,42	1675,24
794,60	1718,25
794,77	1705,96
794,95	1673,19
795,12	1775,59
795,30	1669,09
795,47	1599,46
795,65	1890,28
795,82	1710,05
796,00	1568,74
796,17	1669,09
796,34	1613,80
796,52	1699,81
796,69	1759,21
796,87	1736,68
797,04	1714,15
797,22	1669,09
797,39	1685,48
797,57	1812,45
797,74	1765,35
797,92	1742,82
798,09	1695,72
798,27	1728,49
798,44	1767,40
798,62	1650,66
798,79	1703,91
798,96	1712,10
799,14	1677,29
799,31	1851,36
799,49	1673,19
799,66	1677,29
799,84	1720,29
800,01	1638,38
800,19	1732,58
800,36	1654,76
800,53	1732,58
800,71	1736,68
800,88	1802,21
801,06	1730,53
801,23	1667,05
801,41	1730,53
801,58	1654,76
801,75	1679,33
801,93	1699,81
802,10	1691,62
802,28	1712,10
802,45	1730,53
802,63	1736,68
802,80	1759,21
802,97	1679,33
803,15	1615,85
803,32	1726,44
803,50	1671,14
803,67	1712,10
803,84	1687,53
804,02	1667,05
804,19	1675,24
804,37	1587,18
804,54	1738,73
804,71	1611,75
804,89	1675,24
805,06	1734,63
805,24	1613,80
805,41	1734,63
805,58	1660,90
805,76	1771,49
805,93	1714,15
806,10	1779,68
806,28	1712,10
806,45	1716,20
806,63	1705,96
806,80	1730,53
806,97	1804,26
807,15	1656,81
807,32	1714,15
807,49	1738,73
807,67	1595,37
807,84	1722,34
808,01	1699,81
808,19	1816,55
808,36	1789,92
808,54	1757,16
808,71	1628,14
808,88	1644,52
809,06	1787,88
809,23	1818,60
809,40	1628,14
809,58	1806,31
809,75	1685,48
809,92	1658,85
810,10	1826,79
810,27	1650,66
810,44	1689,57
810,62	1705,96
810,79	1669,09
810,96	1646,57
811,14	1714,15
811,31	1718,25
811,48	1757,16
811,66	1658,85
811,83	1769,44
812,00	1703,91
812,18	1722,34
812,35	1753,06
812,52	1697,77
812,69	1755,11
812,87	1687,53
813,04	1599,46
813,21	1697,77
813,39	1665,00
813,56	1767,40
813,73	1697,77
813,91	1626,09
814,08	1724,39
814,25	1730,53
814,42	1658,85
814,60	1675,24
814,77	1763,30
814,94	1779,68
815,12	1705,96
815,29	1800,16
815,46	1675,24
815,63	1697,77
815,81	1640,42
815,98	1630,18
816,15	1705,96
816,33	1687,53
816,50	1671,14
816,67	1673,19
816,84	1619,94
817,02	1673,19
817,19	1636,33
817,36	1669,09
817,53	1683,43
817,71	1753,06
817,88	1748,97
818,05	1710,05
818,22	1697,77
818,40	1841,12
818,57	1710,05
818,74	1677,29
818,91	1667,05
819,09	1757,16
819,26	1714,15
819,43	1601,51
819,60	1679,33
819,78	1654,76
819,95	1734,63
820,12	1585,13
820,29	1781,73
820,47	1787,88
820,64	1634,28
820,81	1677,29
820,98	1593,32
821,15	1697,77
821,33	1767,40
821,50	1640,42
821,67	1714,15
821,84	1697,77
822,02	1736,68
822,19	1755,11
822,36	1658,85
822,53	1695,72
822,70	1634,28
822,88	1687,53
823,05	1824,74
823,22	1705,96
823,39	1697,77
823,56	1691,62
823,74	1804,26
823,91	1607,66
824,08	1665,00
824,25	1636,33
824,42	1751,01
824,60	1531,88
824,77	1716,20
824,94	1689,57
825,11	1677,29
825,28	1591,27
825,45	1695,72
825,63	1703,91
825,80	1650,66
825,97	1761,25
826,14	1710,05
826,31	1681,38
826,48	1677,29
826,66	1587,18
826,83	1617,90
827,00	1695,72
827,17	1701,86
827,34	1615,85
827,51	1646,57
827,69	1751,01
827,86	1703,91
828,03	1671,14
828,20	1634,28
828,37	1650,66
828,54	1673,19
828,71	1667,05
828,89	1832,93
829,06	1755,11
829,23	1755,11
829,40	1609,70
829,57	1675,24
829,74	1771,49
829,91	1669,09
830,09	1679,33
830,26	1730,53
830,43	1738,73
830,60	1718,25
830,77	1718,25
830,94	1804,26
831,11	1767,40
831,28	1742,82
831,46	1783,78
831,63	1644,52
831,80	1730,53
831,97	1787,88
832,14	1679,33
832,31	1732,58
832,48	1716,20
832,65	1740,77
832,82	1662,95
832,99	1712,10
833,17	1669,09
833,34	1755,11
833,51	1724,39
833,68	1617,90
833,85	1757,16
834,02	1722,34
834,19	1611,75
834,36	1583,08
834,53	1765,35
834,70	1742,82
834,87	1738,73
835,04	1656,81
835,22	1667,05
835,39	1677,29
835,56	1699,81
835,73	1660,90
835,90	1744,87
836,07	1730,53
836,24	1677,29
836,41	1675,24
836,58	1712,10
836,75	1789,92
836,92	1751,01
837,09	1675,24
837,26	1742,82
837,43	1753,06
837,60	1673,19
837,77	1703,91
837,94	1744,87
838,12	1769,44
838,29	1753,06
838,46	1652,71
838,63	1617,90
838,80	1767,40
838,97	1708,01
839,14	1742,82
839,31	1693,67
839,48	1691,62
839,65	1624,04
839,82	1755,11
839,99	1642,47
840,16	1621,99
840,33	1673,19
840,50	1722,34
840,67	1638,38
840,84	1628,14
841,01	1685,48
841,18	1726,44
841,35	1665,00
841,52	1693,67
841,69	1851,36
841,86	1722,34
842,03	1671,14
842,20	1763,30
842,37	1671,14
842,54	1730,53
842,71	1726,44
842,88	1562,60
843,05	1685,48
843,22	1736,68
843,39	1734,63
843,56	1570,79
843,73	1669,09
843,90	1708,01
844,07	1730,53
844,24	1712,10
844,41	1720,29
844,58	1703,91
844,75	1716,20
844,92	1771,49
845,09	1648,61
845,26	1619,94
845,43	1689,57
845,60	1705,96
845,77	1755,11
845,94	1648,61
846,10	1757,16
846,27	1654,76
846,44	1669,09
846,61	1628,14
846,78	1787,88
846,95	1775,59
847,12	1714,15
847,29	1646,57
847,46	1611,75
847,63	1761,25
847,80	1654,76
847,97	1683,43
848,14	1818,60
848,31	1703,91
848,48	1708,01
848,65	1701,86
848,82	1689,57
848,98	1843,17
849,15	1728,49
849,32	1740,77
849,49	1742,82
849,66	1705,96
849,83	1675,24
850,00	1632,23
850,17	1732,58
850,34	1671,14
850,51	1693,67
850,68	1740,77
850,85	1839,08
851,01	1693,67
851,18	1736,68
851,35	1652,71
851,52	1718,25
851,69	1761,25
851,86	1642,47
852,03	1640,42
852,20	1767,40
852,37	1703,91
852,53	1626,09
852,70	1685,48
852,87	1597,42
853,04	1683,43
853,21	1652,71
853,38	1767,40
853,55	1757,16
853,72	1828,84
853,89	1673,19
854,05	1714,15
854,22	1626,09
854,39	1705,96
854,56	1787,88
854,73	1736,68
854,90	1603,56
855,07	1697,77
855,23	1728,49
855,40	1615,85
855,57	1656,81
855,74	1546,22
855,91	1837,03
856,08	1603,56
856,25	1589,22
856,41	1673,19
856,58	1644,52
856,75	1726,44
856,92	1660,90
857,09	1689,57
857,26	1677,29
857,42	1658,85
857,59	1726,44
857,76	1652,71
857,93	1697,77
858,10	1689,57
858,27	1599,46
858,43	1693,67
858,60	1705,96
858,77	1566,70
858,94	1624,04
859,11	1767,40
859,27	1640,42
859,44	1742,82
859,61	1722,34
859,78	1755,11
859,95	1654,76
860,12	1632,23
860,28	1869,80
860,45	1732,58
860,62	1703,91
860,79	1683,43
860,95	1712,10
861,12	1687,53
861,29	1755,11
861,46	1716,20
861,63	1740,77
861,79	1740,77
861,96	1626,09
862,13	1640,42
862,30	1785,83
862,47	1646,57
862,63	1740,77
862,80	1718,25
862,97	1710,05
863,14	1716,20
863,30	1656,81
863,47	1634,28
863,64	1787,88
863,81	1673,19
863,97	1705,96
864,14	1691,62
864,31	1665,00
864,48	1800,16
864,65	1710,05
864,81	1689,57
864,98	1697,77
865,15	1751,01
865,32	1771,49
865,48	1777,64
865,65	1738,73
865,82	1732,58
865,98	1695,72
866,15	1753,06
866,32	1679,33
866,49	1595,37
866,65	1751,01
866,82	1669,09
866,99	1765,35
867,16	1640,42
867,32	1656,81
867,49	1626,09
867,66	1740,77
867,83	1632,23
867,99	1601,51
868,16	1654,76
868,33	1628,14
868,49	1714,15
868,66	1695,72
868,83	1722,34
868,99	1683,43
869,16	1699,81
869,33	1834,98
869,50	1759,21
869,66	1691,62
869,83	1742,82
870,00	1644,52
870,16	1644,52
870,33	1673,19
870,50	1785,83
870,66	1677,29
870,83	1839,08
871,00	1685,48
871,17	1726,44
871,33	1771,49
871,50	1689,57
871,67	1691,62
871,83	1589,22
872,00	1773,54
872,17	1665,00
872,33	1787,88
872,50	1730,53
872,67	1679,33
872,83	1636,33
873,00	1716,20
873,17	1640,42
873,33	1730,53
873,50	1734,63
873,67	1730,53
873,83	1697,77
874,00	1701,86
874,16	1755,11
874,33	1744,87
874,50	1591,27
874,66	1669,09
874,83	1699,81
875,00	1808,36
875,16	1689,57
875,33	1796,07
875,50	1574,89
875,66	1728,49
875,83	1734,63
875,99	1744,87
876,16	1681,38
876,33	1669,09
876,49	1785,83
876,66	1699,81
876,83	1732,58
876,99	1556,46
877,16	1689,57
877,32	1714,15
877,49	1640,42
877,66	1681,38
877,82	1714,15
877,99	1669,09
878,15	1712,10
878,32	1726,44
878,49	1689,57
878,65	1724,39
878,82	1761,25
878,98	1687,53
879,15	1779,68
879,32	1730,53
879,48	1708,01
879,65	1671,14
879,81	1617,90
879,98	1687,53
880,15	1677,29
880,31	1736,68
880,48	1665,00
880,64	1722,34
880,81	1779,68
880,97	1724,39
881,14	1767,40
881,31	1599,46
881,47	1800,16
881,64	1652,71
881,80	1660,90
881,97	1708,01
882,13	1740,77
882,30	1634,28
882,47	1621,99
882,63	1626,09
882,80	1669,09
882,96	1611,75
883,13	1783,78
883,29	1583,08
883,46	1855,46
883,62	1773,54
883,79	1708,01
883,95	1757,16
884,12	1705,96
884,29	1730,53
884,45	1703,91
884,62	1667,05
884,78	1734,63
884,95	1742,82
885,11	1748,97
885,28	1742,82
885,44	1638,38
885,61	1744,87
885,77	1767,40
885,94	1687,53
886,10	1658,85
886,27	1712,10
886,43	1791,97
886,60	1703,91
886,76	1679,33
886,93	1697,77
887,09	1761,25
887,26	1656,81
887,42	1697,77
887,59	1677,29
887,75	1841,12
887,92	1771,49
888,08	1720,29
888,25	1728,49
888,41	1732,58
888,58	1660,90
888,74	1675,24
888,91	1689,57
>>>>>End Processed Spectral Data<<<<<
