SpectraSuite Data File
++++++++++++++++++++++++++++++++++++
Date: Mon Jun 06 15:12:37 CEST 2016
User: root
Dark Spectrum Present: No
Reference Spectrum Present: No
Number of Sampled Component Spectra: 1
Spectrometers: USB4C02835
Integration Time (usec): 100000 (USB4C02835)
Spectra Averaged: 1 (USB4C02835)
Boxcar Smoothing: 0 (USB4C02835)
Correct for Electrical Dark: No (USB4C02835)
Strobe/Lamp Enabled: No (USB4C02835)
Correct for Detector Non-linearity: No (USB4C02835)
Correct for Stray Light: No (USB4C02835)
Number of Pixels in Processed Spectrum: 3648
>>>>>Begin Processed Spectral Data<<<<<
177,47	1513,45
177,69	1513,45
177,91	1513,45
178,13	1445,87
178,36	1464,30
178,58	1699,81
178,80	1796,07
179,02	1615,85
179,24	1697,77
179,46	1683,43
179,68	1695,72
179,90	1736,68
180,13	1673,19
180,35	1652,71
180,57	1628,14
180,79	1779,68
181,01	1691,62
181,23	1740,77
181,45	1701,86
181,67	1726,44
181,90	1716,20
182,12	1673,19
182,34	1601,51
182,56	1714,15
182,78	1710,05
183,00	1621,99
183,22	1697,77
183,44	1624,04
183,66	1869,80
183,89	1789,92
184,11	1640,42
184,33	1791,97
184,55	1773,54
184,77	1660,90
184,99	1701,86
185,21	1660,90
185,43	1759,21
185,65	1681,38
185,87	1718,25
186,10	1863,65
186,32	1832,93
186,54	1738,73
186,76	1742,82
186,98	1763,30
187,20	1683,43
187,42	1656,81
187,64	1724,39
187,86	1683,43
188,08	1685,48
188,30	1708,01
188,52	1683,43
188,75	1767,40
188,97	1726,44
189,19	1630,18
189,41	1634,28
189,63	1705,96
189,85	1689,57
190,07	1595,37
190,29	1619,94
190,51	1699,81
190,73	1689,57
190,95	1767,40
191,17	1685,48
191,39	1613,80
191,61	1660,90
191,84	1724,39
192,06	1724,39
192,28	1662,95
192,50	1880,04
192,72	1689,57
192,94	1658,85
193,16	1767,40
193,38	1681,38
193,60	1658,85
193,82	1640,42
194,04	1761,25
194,26	1738,73
194,48	1718,25
194,70	1714,15
194,92	1697,77
195,14	1812,45
195,36	1671,14
195,58	1728,49
195,80	1755,11
196,02	1626,09
196,24	1636,33
196,46	1726,44
196,69	1697,77
196,91	1888,23
197,13	1787,88
197,35	1710,05
197,57	1773,54
197,79	1720,29
198,01	1705,96
198,23	1722,34
198,45	1708,01
198,67	1656,81
198,89	1689,57
199,11	1701,86
199,33	1648,61
199,55	1621,99
199,77	1734,63
199,99	1820,64
200,21	1703,91
200,43	1687,53
200,65	1716,20
200,87	1634,28
201,09	1624,04
201,31	1759,21
201,53	1648,61
201,75	1695,72
201,97	1757,16
202,19	1787,88
202,41	1716,20
202,63	1800,16
202,85	1773,54
203,07	1716,20
203,29	1703,91
203,51	1683,43
203,73	1691,62
203,95	1828,84
204,17	1761,25
204,39	1773,54
204,61	1669,09
204,83	1677,29
205,05	1748,97
205,27	1773,54
205,49	1814,50
205,71	1751,01
205,93	1673,19
206,15	1662,95
206,37	1779,68
206,59	1640,42
206,81	1624,04
207,03	1593,32
207,25	1624,04
207,47	1763,30
207,69	1701,86
207,91	1759,21
208,13	1814,50
208,34	1751,01
208,56	1697,77
208,78	1751,01
209,00	1667,05
209,22	1722,34
209,44	1697,77
209,66	1636,33
209,88	1722,34
210,10	1683,43
210,32	1673,19
210,54	1826,79
210,76	1716,20
210,98	1714,15
211,20	1638,38
211,42	1751,01
211,64	1769,44
211,86	1767,40
212,08	1683,43
212,30	1759,21
212,52	1654,76
212,74	1691,62
212,96	1781,73
213,17	1808,36
213,39	1689,57
213,61	1812,45
213,83	1695,72
214,05	1621,99
214,27	1765,35
214,49	1701,86
214,71	1624,04
214,93	1728,49
215,15	1720,29
215,37	1728,49
215,59	1628,14
215,81	1753,06
216,03	1771,49
216,24	1699,81
216,46	1759,21
216,68	1689,57
216,90	1761,25
217,12	1806,31
217,34	1703,91
217,56	1728,49
217,78	1746,92
218,00	1777,64
218,22	1681,38
218,44	1679,33
218,66	1726,44
218,87	1794,02
219,09	1722,34
219,31	1800,16
219,53	1751,01
219,75	1742,82
219,97	1732,58
220,19	1712,10
220,41	1728,49
220,63	1804,26
220,85	1722,34
221,06	1683,43
221,28	1794,02
221,50	1701,86
221,72	1724,39
221,94	1716,20
222,16	1701,86
222,38	1746,92
222,60	1771,49
222,82	1693,67
223,03	1744,87
223,25	1587,18
223,47	1728,49
223,69	1855,46
223,91	1734,63
224,13	1628,14
224,35	1689,57
224,57	1746,92
224,78	1755,11
225,00	1718,25
225,22	1689,57
225,44	1722,34
225,66	1726,44
225,88	1650,66
226,10	1781,73
226,32	1660,90
226,53	1820,64
226,75	1660,90
226,97	1662,95
227,19	1630,18
227,41	1634,28
227,63	1669,09
227,85	1642,47
228,06	1783,78
228,28	1728,49
228,50	1757,16
228,72	1607,66
228,94	1691,62
229,16	1595,37
229,37	1648,61
229,59	1730,53
229,81	1847,27
230,03	1646,57
230,25	1667,05
230,47	1562,60
230,69	1607,66
230,90	1753,06
231,12	1615,85
231,34	1710,05
231,56	1834,98
231,78	1636,33
232,00	1730,53
232,21	1710,05
232,43	1677,29
232,65	1578,98
232,87	1730,53
233,09	1695,72
233,30	1691,62
233,52	1728,49
233,74	1658,85
233,96	1699,81
234,18	1691,62
234,40	1673,19
234,61	1761,25
234,83	1640,42
235,05	1720,29
235,27	1822,69
235,49	1787,88
235,70	1763,30
235,92	1771,49
236,14	1656,81
236,36	1861,60
236,58	1617,90
236,79	1730,53
237,01	1683,43
237,23	1755,11
237,45	1787,88
237,67	1695,72
237,88	1673,19
238,10	1796,07
238,32	1599,46
238,54	1703,91
238,76	1673,19
238,97	1660,90
239,19	1650,66
239,41	1771,49
239,63	1728,49
239,85	1669,09
240,06	1708,01
240,28	1621,99
240,50	1748,97
240,72	1789,92
240,93	1624,04
241,15	1775,59
241,37	1693,67
241,59	1834,98
241,81	1722,34
242,02	1726,44
242,24	1771,49
242,46	1714,15
242,68	1644,52
242,89	1738,73
243,11	1843,17
243,33	1722,34
243,55	1763,30
243,76	1658,85
243,98	1669,09
244,20	1738,73
244,42	1710,05
244,64	1759,21
244,85	1716,20
245,07	1665,00
245,29	1765,35
245,51	1714,15
245,72	1679,33
245,94	1742,82
246,16	1728,49
246,38	1763,30
246,59	1624,04
246,81	1640,42
247,03	1634,28
247,24	1650,66
247,46	1683,43
247,68	1648,61
247,90	1740,77
248,11	1724,39
248,33	1773,54
248,55	1705,96
248,77	1660,90
248,98	1798,12
249,20	1808,36
249,42	1779,68
249,64	1753,06
249,85	1732,58
250,07	1712,10
250,29	1767,40
250,50	1759,21
250,72	1619,94
250,94	1685,48
251,16	1783,78
251,37	1800,16
251,59	1728,49
251,81	1724,39
252,02	1804,26
252,24	1679,33
252,46	1810,40
252,68	1712,10
252,89	1652,71
253,11	1609,70
253,33	1818,60
253,54	1736,68
253,76	1626,09
253,98	1763,30
254,20	1693,67
254,41	1638,38
254,63	1730,53
254,85	1619,94
255,06	1730,53
255,28	1785,83
255,50	1665,00
255,71	1677,29
255,93	1650,66
256,15	1710,05
256,36	1828,84
256,58	1693,67
256,80	1746,92
257,02	1691,62
257,23	1691,62
257,45	1693,67
257,67	1757,16
257,88	1648,61
258,10	1794,02
258,32	1800,16
258,53	1677,29
258,75	1748,97
258,97	1673,19
259,18	1705,96
259,40	1642,47
259,62	1800,16
259,83	1806,31
260,05	1744,87
260,27	2043,87
260,48	1720,29
260,70	1599,46
260,92	1703,91
261,13	1705,96
261,35	1609,70
261,57	1714,15
261,78	1578,98
262,00	1617,90
262,22	1701,86
262,43	1685,48
262,65	1755,11
262,86	1669,09
263,08	1855,46
263,30	1724,39
263,51	1656,81
263,73	1675,24
263,95	1763,30
264,16	1722,34
264,38	1656,81
264,60	1689,57
264,81	1660,90
265,03	1796,07
265,25	1822,69
265,46	1703,91
265,68	1763,30
265,89	1751,01
266,11	1583,08
266,33	1714,15
266,54	1689,57
266,76	1742,82
266,98	1691,62
267,19	1716,20
267,41	1667,05
267,62	1712,10
267,84	1636,33
268,06	1681,38
268,27	1687,53
268,49	1726,44
268,70	1683,43
268,92	1767,40
269,14	1677,29
269,35	1615,85
269,57	1728,49
269,79	1650,66
270,00	1705,96
270,22	1828,84
270,43	1703,91
270,65	1533,93
270,87	1755,11
271,08	1740,77
271,30	1710,05
271,51	1669,09
271,73	1755,11
271,95	1742,82
272,16	1767,40
272,38	1705,96
272,59	1742,82
272,81	1736,68
273,02	1691,62
273,24	1742,82
273,46	1765,35
273,67	1695,72
273,89	1693,67
274,10	1722,34
274,32	1753,06
274,54	1730,53
274,75	1769,44
274,97	1710,05
275,18	1687,53
275,40	1718,25
275,61	1699,81
275,83	1695,72
276,05	1628,14
276,26	1679,33
276,48	1705,96
276,69	1697,77
276,91	1681,38
277,12	1826,79
277,34	1755,11
277,55	1730,53
277,77	1759,21
277,99	1617,90
278,20	1650,66
278,42	1675,24
278,63	1687,53
278,85	1632,23
279,06	1720,29
279,28	1722,34
279,49	1818,60
279,71	1669,09
279,93	1708,01
280,14	1660,90
280,36	1658,85
280,57	1765,35
280,79	1773,54
281,00	1636,33
281,22	1730,53
281,43	1777,64
281,65	1574,89
281,86	1689,57
282,08	1751,01
282,29	1861,60
282,51	1578,98
282,73	1669,09
282,94	1591,27
283,16	1683,43
283,37	1802,21
283,59	1681,38
283,80	1769,44
284,02	1691,62
284,23	1697,77
284,45	1701,86
284,66	1705,96
284,88	1624,04
285,09	1681,38
285,31	1718,25
285,52	1681,38
285,74	1552,36
285,95	1796,07
286,17	1726,44
286,38	1789,92
286,60	1654,76
286,81	1673,19
287,03	1705,96
287,24	1673,19
287,46	1718,25
287,67	1738,73
287,89	1851,36
288,10	1632,23
288,32	1705,96
288,53	1832,93
288,75	1693,67
288,96	1789,92
289,18	1763,30
289,39	1675,24
289,61	1722,34
289,82	1812,45
290,04	1787,88
290,25	1619,94
290,47	1703,91
290,68	1642,47
290,90	1701,86
291,11	1624,04
291,33	1765,35
291,54	1703,91
291,76	1669,09
291,97	1705,96
292,18	1699,81
292,40	1611,75
292,61	1665,00
292,83	1847,27
293,04	1722,34
293,26	1685,48
293,47	1611,75
293,69	1581,03
293,90	1746,92
294,12	1722,34
294,33	1730,53
294,55	1693,67
294,76	1785,83
294,97	1748,97
295,19	1853,41
295,40	1597,42
295,62	1781,73
295,83	1710,05
296,05	1732,58
296,26	1736,68
296,48	1718,25
296,69	1681,38
296,90	1722,34
297,12	1777,64
297,33	1718,25
297,55	1671,14
297,76	1722,34
297,98	1812,45
298,19	1730,53
298,41	1638,38
298,62	1669,09
298,83	1828,84
299,05	1673,19
299,26	1648,61
299,48	1640,42
299,69	1728,49
299,90	1742,82
300,12	1593,32
300,33	1755,11
300,55	1677,29
300,76	1724,39
300,98	1671,14
301,19	1755,11
301,40	1744,87
301,62	1697,77
301,83	1736,68
302,05	1779,68
302,26	1787,88
302,47	1693,67
302,69	1677,29
302,90	1621,99
303,12	1576,94
303,33	1703,91
303,54	1810,40
303,76	1705,96
303,97	1720,29
304,19	1828,84
304,40	1689,57
304,61	1757,16
304,83	1791,97
305,04	1742,82
305,26	1734,63
305,47	1648,61
305,68	1722,34
305,90	1681,38
306,11	1781,73
306,33	1677,29
306,54	1640,42
306,75	1624,04
306,97	1583,08
307,18	1626,09
307,39	1683,43
307,61	1726,44
307,82	1650,66
308,04	1761,25
308,25	1652,71
308,46	1693,67
308,68	1812,45
308,89	1742,82
309,10	1812,45
309,32	1724,39
309,53	1689,57
309,74	1724,39
309,96	1697,77
310,17	1755,11
310,39	1720,29
310,60	1705,96
310,81	1644,52
311,03	1613,80
311,24	1726,44
311,45	1748,97
311,67	1867,75
311,88	1695,72
312,09	1679,33
312,31	1677,29
312,52	1730,53
312,73	1640,42
312,95	1671,14
313,16	1722,34
313,37	1816,55
313,59	1718,25
313,80	1783,78
314,01	1783,78
314,23	1710,05
314,44	1632,23
314,65	1615,85
314,87	1693,67
315,08	1671,14
315,29	1701,86
315,51	1636,33
315,72	1591,27
315,93	1847,27
316,15	1802,21
316,36	1691,62
316,57	1740,77
316,79	1787,88
317,00	1697,77
317,21	1796,07
317,43	1710,05
317,64	1718,25
317,85	1677,29
318,07	1669,09
318,28	1757,16
318,49	1867,75
318,70	1861,60
318,92	1826,79
319,13	1775,59
319,34	1892,32
319,56	1722,34
319,77	1865,70
319,98	1789,92
320,20	1730,53
320,41	1718,25
320,62	1767,40
320,83	1583,08
321,05	1847,27
321,26	1736,68
321,47	1724,39
321,69	1781,73
321,90	1607,66
322,11	1728,49
322,32	1736,68
322,54	1710,05
322,75	1681,38
322,96	1882,08
323,18	1593,32
323,39	1689,57
323,60	1699,81
323,81	1763,30
324,03	1712,10
324,24	1708,01
324,45	1697,77
324,66	1603,56
324,88	1744,87
325,09	1789,92
325,30	1681,38
325,52	1671,14
325,73	1785,83
325,94	1646,57
326,15	1619,94
326,37	1630,18
326,58	1703,91
326,79	1808,36
327,00	1771,49
327,22	1675,24
327,43	1656,81
327,64	1765,35
327,85	1691,62
328,07	1718,25
328,28	1814,50
328,49	1665,00
328,70	1669,09
328,92	1763,30
329,13	1703,91
329,34	1665,00
329,55	1720,29
329,76	1837,03
329,98	1644,52
330,19	1748,97
330,40	1738,73
330,61	1765,35
330,83	1787,88
331,04	1791,97
331,25	1726,44
331,46	1691,62
331,68	1603,56
331,89	1734,63
332,10	1720,29
332,31	1648,61
332,52	1689,57
332,74	1802,21
332,95	1597,42
333,16	1703,91
333,37	1755,11
333,58	1681,38
333,80	1710,05
334,01	1648,61
334,22	1689,57
334,43	1652,71
334,64	1675,24
334,86	1624,04
335,07	1615,85
335,28	1722,34
335,49	1648,61
335,70	1783,78
335,92	1785,83
336,13	1818,60
336,34	1751,01
336,55	1660,90
336,76	1701,86
336,98	1589,22
337,19	1701,86
337,40	1751,01
337,61	1767,40
337,82	1687,53
338,04	1853,41
338,25	1634,28
338,46	1755,11
338,67	1671,14
338,88	1681,38
339,09	1652,71
339,31	1722,34
339,52	1667,05
339,73	1708,01
339,94	1716,20
340,15	1730,53
340,36	1648,61
340,58	1771,49
340,79	1601,51
341,00	1761,25
341,21	1591,27
341,42	1773,54
341,63	1701,86
341,85	1720,29
342,06	1746,92
342,27	1669,09
342,48	1736,68
342,69	1644,52
342,90	1697,77
343,12	1734,63
343,33	1708,01
343,54	1669,09
343,75	1828,84
343,96	1691,62
344,17	1667,05
344,38	1722,34
344,60	1656,81
344,81	1662,95
345,02	1689,57
345,23	1746,92
345,44	1828,84
345,65	1814,50
345,86	1718,25
346,07	1667,05
346,29	1673,19
346,50	1822,69
346,71	1691,62
346,92	1742,82
347,13	1830,88
347,34	1771,49
347,55	1703,91
347,76	1804,26
347,98	1671,14
348,19	1626,09
348,40	1699,81
348,61	1673,19
348,82	1767,40
349,03	1781,73
349,24	1619,94
349,45	1724,39
349,66	1638,38
349,88	1718,25
350,09	1650,66
350,30	1755,11
350,51	1742,82
350,72	1732,58
350,93	1736,68
351,14	1650,66
351,35	1753,06
351,56	1724,39
351,77	1740,77
351,99	1703,91
352,20	1773,54
352,41	1853,41
352,62	1626,09
352,83	1683,43
353,04	1697,77
353,25	1691,62
353,46	1746,92
353,67	1824,74
353,88	1595,37
354,09	1665,00
354,30	1710,05
354,52	1787,88
354,73	1687,53
354,94	1724,39
355,15	1677,29
355,36	1796,07
355,57	1615,85
355,78	1777,64
355,99	1740,77
356,20	1744,87
356,41	1755,11
356,62	1675,24
356,83	1669,09
357,04	1802,21
357,25	1583,08
357,46	1759,21
357,68	1665,00
357,89	1650,66
358,10	1746,92
358,31	1685,48
358,52	1748,97
358,73	1660,90
358,94	1681,38
359,15	1652,71
359,36	1726,44
359,57	1689,57
359,78	1738,73
359,99	1759,21
360,20	1624,04
360,41	1648,61
360,62	1751,01
360,83	1669,09
361,04	1679,33
361,25	1677,29
361,46	1822,69
361,67	1714,15
361,88	1757,16
362,09	1802,21
362,30	1767,40
362,51	1718,25
362,72	1652,71
362,93	1791,97
363,14	1687,53
363,35	1708,01
363,56	1691,62
363,78	1753,06
363,99	1777,64
364,20	1685,48
364,41	1763,30
364,62	1824,74
364,83	1730,53
365,04	1728,49
365,25	1730,53
365,46	1763,30
365,67	1658,85
365,88	1630,18
366,09	1705,96
366,30	1642,47
366,51	1746,92
366,72	1605,61
366,93	1718,25
367,14	1687,53
367,35	1771,49
367,56	1708,01
367,77	1765,35
367,98	1730,53
368,18	1718,25
368,39	1728,49
368,60	1658,85
368,81	1746,92
369,02	1652,71
369,23	1699,81
369,44	1626,09
369,65	1644,52
369,86	1771,49
370,07	1740,77
370,28	1748,97
370,49	1710,05
370,70	1673,19
370,91	1611,75
371,12	1585,13
371,33	1763,30
371,54	1722,34
371,75	1734,63
371,96	1638,38
372,17	1710,05
372,38	1683,43
372,59	1748,97
372,80	1712,10
373,01	1689,57
373,22	1693,67
373,43	1683,43
373,64	1634,28
373,85	1783,78
374,06	1767,40
374,26	1767,40
374,47	1757,16
374,68	1810,40
374,89	1730,53
375,10	1714,15
375,31	1843,17
375,52	1660,90
375,73	1732,58
375,94	1656,81
376,15	1783,78
376,36	1669,09
376,57	1656,81
376,78	1634,28
376,99	1798,12
377,20	1759,21
377,40	1685,48
377,61	1796,07
377,82	1697,77
378,03	1753,06
378,24	1785,83
378,45	1695,72
378,66	1726,44
378,87	1621,99
379,08	1636,33
379,29	1681,38
379,50	1781,73
379,71	1677,29
379,91	1777,64
380,12	1658,85
380,33	1771,49
380,54	1753,06
380,75	1658,85
380,96	1701,86
381,17	1830,88
381,38	1683,43
381,59	1804,26
381,80	1669,09
382,00	1746,92
382,21	1693,67
382,42	1732,58
382,63	1847,27
382,84	1740,77
383,05	1755,11
383,26	1845,22
383,47	1701,86
383,68	1779,68
383,88	1753,06
384,09	1718,25
384,30	1929,19
384,51	1714,15
384,72	1650,66
384,93	1691,62
385,14	1718,25
385,35	1751,01
385,55	1665,00
385,76	1777,64
385,97	1705,96
386,18	1648,61
386,39	1656,81
386,60	1720,29
386,81	1712,10
387,02	1708,01
387,22	1679,33
387,43	1787,88
387,64	1783,78
387,85	1861,60
388,06	2181,09
388,27	4100,03
388,48	6625,18
388,68	8136,58
388,89	9494,38
389,10	9627,50
389,31	8470,40
389,52	7464,85
389,73	6637,47
389,93	6123,43
390,14	5627,82
390,35	5146,55
390,56	4411,32
390,77	3690,44
390,98	2969,55
391,18	2420,70
391,39	2119,65
391,60	1810,40
391,81	1824,74
392,02	1703,91
392,23	1898,47
392,43	1834,98
392,64	1800,16
392,85	1689,57
393,06	1785,83
393,27	1675,24
393,47	1701,86
393,68	1624,04
393,89	1681,38
394,10	1748,97
394,31	1615,85
394,52	1724,39
394,72	1636,33
394,93	1716,20
395,14	1656,81
395,35	1689,57
395,56	1724,39
395,76	1714,15
395,97	1777,64
396,18	1804,26
396,39	1845,22
396,60	1984,48
396,80	1822,69
397,01	1851,36
397,22	1849,32
397,43	1796,07
397,64	1787,88
397,84	1753,06
398,05	1906,66
398,26	1742,82
398,47	1791,97
398,67	1781,73
398,88	1665,00
399,09	1765,35
399,30	1718,25
399,51	1757,16
399,71	1652,71
399,92	1726,44
400,13	1687,53
400,34	1685,48
400,54	1714,15
400,75	1781,73
400,96	1777,64
401,17	1773,54
401,37	1724,39
401,58	1660,90
401,79	1738,73
402,00	1845,22
402,21	1980,39
402,41	1869,80
402,62	2004,96
402,83	2029,54
403,04	2035,68
403,24	2033,63
403,45	1877,99
403,66	1914,85
403,87	1888,23
404,07	1900,52
404,28	1935,33
404,49	1875,94
404,70	1767,40
404,90	1697,77
405,11	1751,01
405,32	1791,97
405,52	1644,52
405,73	1679,33
405,94	1654,76
406,15	1757,16
406,35	1685,48
406,56	1724,39
406,77	1667,05
406,98	1761,25
407,18	1652,71
407,39	1771,49
407,60	1712,10
407,80	1708,01
408,01	1677,29
408,22	1755,11
408,43	1578,98
408,63	1722,34
408,84	1751,01
409,05	1701,86
409,25	1705,96
409,46	1660,90
409,67	1667,05
409,88	1724,39
410,08	1746,92
410,29	1644,52
410,50	1740,77
410,70	1732,58
410,91	1615,85
411,12	1742,82
411,32	1693,67
411,53	1683,43
411,74	1822,69
411,95	1759,21
412,15	1773,54
412,36	1794,02
412,57	1843,17
412,77	1728,49
412,98	1722,34
413,19	1703,91
413,39	1730,53
413,60	1761,25
413,81	1785,83
414,01	1654,76
414,22	1789,92
414,43	1708,01
414,63	1683,43
414,84	1738,73
415,05	1667,05
415,25	1683,43
415,46	1748,97
415,67	1648,61
415,87	1798,12
416,08	1753,06
416,29	1708,01
416,49	1724,39
416,70	1724,39
416,91	1701,86
417,11	1724,39
417,32	1761,25
417,53	1755,11
417,73	1619,94
417,94	1685,48
418,15	1736,68
418,35	1746,92
418,56	1708,01
418,77	1882,08
418,97	1740,77
419,18	1712,10
419,38	1574,89
419,59	1681,38
419,80	1796,07
420,00	1642,47
420,21	1675,24
420,42	1763,30
420,62	1738,73
420,83	1662,95
421,04	1681,38
421,24	1638,38
421,45	1755,11
421,65	1814,50
421,86	1699,81
422,07	1712,10
422,27	1789,92
422,48	1791,97
422,69	1646,57
422,89	1712,10
423,10	1660,90
423,30	1619,94
423,51	1787,88
423,72	1744,87
423,92	1796,07
424,13	1669,09
424,33	1726,44
424,54	1773,54
424,75	1724,39
424,95	1765,35
425,16	1732,58
425,36	1695,72
425,57	1781,73
425,78	1861,60
425,98	1734,63
426,19	1769,44
426,39	1714,15
426,60	1736,68
426,81	1814,50
427,01	1687,53
427,22	1683,43
427,42	1599,46
427,63	1701,86
427,83	1751,01
428,04	1820,64
428,25	1748,97
428,45	1763,30
428,66	1742,82
428,86	1730,53
429,07	1687,53
429,28	1714,15
429,48	1695,72
429,69	1609,70
429,89	1669,09
430,10	1683,43
430,30	1771,49
430,51	1769,44
430,71	1640,42
430,92	1781,73
431,13	1685,48
431,33	1761,25
431,54	1716,20
431,74	1841,12
431,95	1826,79
432,15	1654,76
432,36	1742,82
432,56	1736,68
432,77	1851,36
432,98	1794,02
433,18	1701,86
433,39	1652,71
433,59	1712,10
433,80	1822,69
434,00	1880,04
434,21	1615,85
434,41	1669,09
434,62	1996,77
434,82	1677,29
435,03	1615,85
435,23	1693,67
435,44	1705,96
435,64	1746,92
435,85	1708,01
436,06	1798,12
436,26	1757,16
436,47	1705,96
436,67	1693,67
436,88	1675,24
437,08	1771,49
437,29	1857,51
437,49	1683,43
437,70	1800,16
437,90	1732,58
438,11	1824,74
438,31	1765,35
438,52	1882,08
438,72	1863,65
438,93	1933,28
439,13	1796,07
439,34	1826,79
439,54	1722,34
439,75	1751,01
439,95	1873,89
440,16	1720,29
440,36	1710,05
440,57	1789,92
440,77	1755,11
440,98	1814,50
441,18	1794,02
441,39	1677,29
441,59	1697,77
441,80	1806,31
442,00	1738,73
442,21	1849,32
442,41	1681,38
442,62	1779,68
442,82	1720,29
443,02	1660,90
443,23	1714,15
443,43	1677,29
443,64	1740,77
443,84	1726,44
444,05	1787,88
444,25	1724,39
444,46	1687,53
444,66	1732,58
444,87	1732,58
445,07	1705,96
445,28	1761,25
445,48	1880,04
445,69	1701,86
445,89	1871,84
446,09	1802,21
446,30	2037,73
446,50	2643,93
446,71	3729,35
446,91	4249,54
447,12	4628,41
447,32	4798,39
447,53	4163,52
447,73	3807,17
447,93	3499,98
448,14	3270,61
448,34	3121,10
448,55	2877,40
448,75	2895,83
448,96	2621,40
449,16	2312,16
449,36	2330,59
449,57	1996,77
449,77	1837,03
449,98	1740,77
450,18	1779,68
450,39	1855,46
450,59	1808,36
450,79	1834,98
451,00	1634,28
451,20	1796,07
451,41	1830,88
451,61	1744,87
451,81	1746,92
452,02	1691,62
452,22	1705,96
452,43	1714,15
452,63	1679,33
452,84	1755,11
453,04	1759,21
453,24	1728,49
453,45	1781,73
453,65	1724,39
453,86	1779,68
454,06	1732,58
454,26	1708,01
454,47	1630,18
454,67	1812,45
454,87	1699,81
455,08	1675,24
455,28	1865,70
455,49	1679,33
455,69	1681,38
455,89	1845,22
456,10	1804,26
456,30	1734,63
456,51	1826,79
456,71	1763,30
456,91	1675,24
457,12	1808,36
457,32	1759,21
457,52	1648,61
457,73	1779,68
457,93	1824,74
458,14	1665,00
458,34	1611,75
458,54	1693,67
458,75	1691,62
458,95	1806,31
459,15	1761,25
459,36	1730,53
459,56	1716,20
459,76	1806,31
459,97	1642,47
460,17	1781,73
460,37	1753,06
460,58	1777,64
460,78	1765,35
460,99	1644,52
461,19	1777,64
461,39	1628,14
461,60	1765,35
461,80	1789,92
462,00	1740,77
462,21	1699,81
462,41	1740,77
462,61	1650,66
462,82	1607,66
463,02	1714,15
463,22	1740,77
463,43	1828,84
463,63	1712,10
463,83	1837,03
464,04	1714,15
464,24	1714,15
464,44	1720,29
464,64	1683,43
464,85	1755,11
465,05	1820,64
465,25	1730,53
465,46	1757,16
465,66	1753,06
465,86	1740,77
466,07	1732,58
466,27	1687,53
466,47	1665,00
466,68	1599,46
466,88	1824,74
467,08	1812,45
467,29	1828,84
467,49	1742,82
467,69	1726,44
467,89	1826,79
468,10	1742,82
468,30	1748,97
468,50	1773,54
468,71	1740,77
468,91	1642,47
469,11	1810,40
469,31	1794,02
469,52	1695,72
469,72	1816,55
469,92	1701,86
470,13	1794,02
470,33	1789,92
470,53	1828,84
470,73	2074,59
470,94	2312,16
471,14	2281,44
471,34	2418,65
471,54	2408,41
471,75	2236,38
471,95	2183,13
472,15	2086,88
472,36	2023,39
472,56	2115,55
472,76	2041,82
472,96	2004,96
473,17	1890,28
473,37	1947,62
473,57	1800,16
473,77	1859,56
473,98	1677,29
474,18	1722,34
474,38	1884,13
474,58	1730,53
474,79	1714,15
474,99	1763,30
475,19	1820,64
475,39	1658,85
475,60	1712,10
475,80	1722,34
476,00	1730,53
476,20	1720,29
476,41	1742,82
476,61	1841,12
476,81	1816,55
477,01	1671,14
477,21	1767,40
477,42	1755,11
477,62	1740,77
477,82	1759,21
478,02	1763,30
478,23	1761,25
478,43	1681,38
478,63	1714,15
478,83	1701,86
479,03	1765,35
479,24	1794,02
479,44	1880,04
479,64	1662,95
479,84	1646,57
480,04	1669,09
480,25	1751,01
480,45	1720,29
480,65	1740,77
480,85	1773,54
481,06	1697,77
481,26	1796,07
481,46	1767,40
481,66	1701,86
481,86	1634,28
482,06	1763,30
482,27	1718,25
482,47	1685,48
482,67	1789,92
482,87	1701,86
483,07	1775,59
483,28	1757,16
483,48	1624,04
483,68	1697,77
483,88	1689,57
484,08	1642,47
484,29	1714,15
484,49	1697,77
484,69	1703,91
484,89	1845,22
485,09	1853,41
485,29	1818,60
485,50	1708,01
485,70	1697,77
485,90	1748,97
486,10	1810,40
486,30	1753,06
486,50	1779,68
486,71	1755,11
486,91	1839,08
487,11	1779,68
487,31	1675,24
487,51	1685,48
487,71	1632,23
487,91	1658,85
488,12	1710,05
488,32	1583,08
488,52	1636,33
488,72	1583,08
488,92	1742,82
489,12	1794,02
489,32	1777,64
489,53	1755,11
489,73	1652,71
489,93	1789,92
490,13	1710,05
490,33	1685,48
490,53	1769,44
490,73	1802,21
490,94	1597,42
491,14	1757,16
491,34	1822,69
491,54	2140,13
491,74	2562,01
491,94	2881,49
492,14	2963,41
492,34	2981,84
492,54	2783,19
492,75	2496,47
492,95	2365,40
493,15	2357,21
493,35	2293,72
493,55	2205,66
493,75	2021,35
493,95	2160,61
494,15	1933,28
494,35	1986,53
494,56	1789,92
494,76	1851,36
494,96	1800,16
495,16	1834,98
495,36	1773,54
495,56	1757,16
495,76	1763,30
495,96	1744,87
496,16	1726,44
496,36	1779,68
496,56	1718,25
496,77	1740,77
496,97	1755,11
497,17	1830,88
497,37	1697,77
497,57	1748,97
497,77	1726,44
497,97	1708,01
498,17	1736,68
498,37	1648,61
498,57	1816,55
498,77	1716,20
498,97	1724,39
499,17	1861,60
499,38	1714,15
499,58	1763,30
499,78	1785,83
499,98	1855,46
500,18	1742,82
500,38	1744,87
500,58	1890,28
500,78	2537,43
500,98	4427,71
501,18	5771,18
501,38	6713,24
501,58	7059,35
501,78	6598,56
501,98	5345,20
502,18	4939,70
502,38	4315,07
502,58	4097,99
502,78	3700,68
502,98	3547,08
503,18	3377,10
503,38	3209,17
503,59	2740,18
503,79	2605,02
503,99	2414,56
504,19	2238,43
504,39	2269,15
504,59	2207,71
504,79	2062,30
504,99	2041,82
505,19	1918,95
505,39	1800,16
505,59	2068,45
505,79	1908,71
505,99	1841,12
506,19	1759,21
506,39	1902,56
506,59	1783,78
506,79	1755,11
506,99	1816,55
507,19	1789,92
507,39	1777,64
507,59	1597,42
507,79	1748,97
507,99	1679,33
508,19	1791,97
508,39	1652,71
508,59	1746,92
508,79	1816,55
508,99	1808,36
509,19	1738,73
509,39	1748,97
509,59	1701,86
509,79	1699,81
509,99	1759,21
510,19	1796,07
510,39	1740,77
510,59	1763,30
510,79	1728,49
510,99	1597,42
511,19	1771,49
511,39	1855,46
511,59	1787,88
511,79	1701,86
511,99	1689,57
512,19	1767,40
512,38	1753,06
512,58	1640,42
512,78	1714,15
512,98	1730,53
513,18	1816,55
513,38	1574,89
513,58	1822,69
513,78	1675,24
513,98	1677,29
514,18	1634,28
514,38	1755,11
514,58	1736,68
514,78	1705,96
514,98	1654,76
515,18	1648,61
515,38	1665,00
515,58	1863,65
515,78	1824,74
515,98	1753,06
516,18	1775,59
516,38	1652,71
516,57	1716,20
516,77	1660,90
516,97	1789,92
517,17	1710,05
517,37	1660,90
517,57	1863,65
517,77	1769,44
517,97	1771,49
518,17	1773,54
518,37	1669,09
518,57	1705,96
518,77	1665,00
518,97	1710,05
519,16	1767,40
519,36	1863,65
519,56	1693,67
519,76	1734,63
519,96	1740,77
520,16	1791,97
520,36	1646,57
520,56	1769,44
520,76	1679,33
520,96	1863,65
521,16	1732,58
521,35	1871,84
521,55	1787,88
521,75	1785,83
521,95	1599,46
522,15	1689,57
522,35	1617,90
522,55	1605,61
522,75	1812,45
522,95	1714,15
523,14	1716,20
523,34	1681,38
523,54	1730,53
523,74	1703,91
523,94	1785,83
524,14	1667,05
524,34	1693,67
524,54	1841,12
524,73	1730,53
524,93	1796,07
525,13	1787,88
525,33	1703,91
525,53	1908,71
525,73	1755,11
525,93	1710,05
526,13	1689,57
526,32	1677,29
526,52	1880,04
526,72	1705,96
526,92	1683,43
527,12	1736,68
527,32	1632,23
527,52	1738,73
527,71	1722,34
527,91	1742,82
528,11	1708,01
528,31	1771,49
528,51	1640,42
528,71	1779,68
528,90	1712,10
529,10	1806,31
529,30	1794,02
529,50	1687,53
529,70	1753,06
529,90	1761,25
530,09	1699,81
530,29	1738,73
530,49	1671,14
530,69	1843,17
530,89	1738,73
531,09	1703,91
531,28	1712,10
531,48	1746,92
531,68	1777,64
531,88	1765,35
532,08	1800,16
532,28	1679,33
532,47	1777,64
532,67	1722,34
532,87	1757,16
533,07	1730,53
533,27	1814,50
533,46	1746,92
533,66	1720,29
533,86	1714,15
534,06	1730,53
534,26	1777,64
534,45	1726,44
534,65	1816,55
534,85	1691,62
535,05	1771,49
535,25	1855,46
535,44	1636,33
535,64	1816,55
535,84	1738,73
536,04	1744,87
536,24	1683,43
536,43	1742,82
536,63	1734,63
536,83	1730,53
537,03	1734,63
537,22	1609,70
537,42	1673,19
537,62	1757,16
537,82	1716,20
538,02	1771,49
538,21	1828,84
538,41	1771,49
538,61	1779,68
538,81	1681,38
539,00	1775,59
539,20	1697,77
539,40	1689,57
539,60	1783,78
539,79	1759,21
539,99	1656,81
540,19	1714,15
540,39	1759,21
540,58	1773,54
540,78	1853,41
540,98	1804,26
541,18	1814,50
541,37	1753,06
541,57	1738,73
541,77	1779,68
541,97	1679,33
542,16	1609,70
542,36	1675,24
542,56	1882,08
542,76	1814,50
542,95	1777,64
543,15	1687,53
543,35	1718,25
543,54	1658,85
543,74	1734,63
543,94	1794,02
544,14	1785,83
544,33	1798,12
544,53	1689,57
544,73	1736,68
544,93	1699,81
545,12	1744,87
545,32	1796,07
545,52	1753,06
545,71	1693,67
545,91	1687,53
546,11	1753,06
546,30	1640,42
546,50	1687,53
546,70	1808,36
546,90	1783,78
547,09	1636,33
547,29	1779,68
547,49	1738,73
547,68	1798,12
547,88	1722,34
548,08	1796,07
548,27	2174,94
548,47	1665,00
548,67	1728,49
548,87	1755,11
549,06	1701,86
549,26	1804,26
549,46	1761,25
549,65	1673,19
549,85	1804,26
550,05	1804,26
550,24	1693,67
550,44	1779,68
550,64	1755,11
550,83	1716,20
551,03	1865,70
551,23	1824,74
551,42	1751,01
551,62	1798,12
551,82	1669,09
552,01	1667,05
552,21	1785,83
552,41	1785,83
552,60	1810,40
552,80	1779,68
553,00	1689,57
553,19	1726,44
553,39	1820,64
553,59	1679,33
553,78	1681,38
553,98	1785,83
554,17	1722,34
554,37	1740,77
554,57	1730,53
554,76	1705,96
554,96	1724,39
555,16	1748,97
555,35	1787,88
555,55	1773,54
555,75	1761,25
555,94	1816,55
556,14	1624,04
556,33	1806,31
556,53	1751,01
556,73	1798,12
556,92	1732,58
557,12	1841,12
557,32	1798,12
557,51	1830,88
557,71	1804,26
557,90	1796,07
558,10	1765,35
558,30	1751,01
558,49	1724,39
558,69	1673,19
558,88	1849,32
559,08	1796,07
559,28	1730,53
559,47	1742,82
559,67	1779,68
559,86	1843,17
560,06	1757,16
560,26	1701,86
560,45	1798,12
560,65	1765,35
560,84	1810,40
561,04	1744,87
561,24	1748,97
561,43	1736,68
561,63	1837,03
561,82	1722,34
562,02	1761,25
562,22	1669,09
562,41	1671,14
562,61	1734,63
562,80	1636,33
563,00	1896,42
563,19	1683,43
563,39	1800,16
563,59	1834,98
563,78	1681,38
563,98	1562,60
564,17	1742,82
564,37	1638,38
564,56	1785,83
564,76	1718,25
564,96	1849,32
565,15	1779,68
565,35	1861,60
565,54	1714,15
565,74	1820,64
565,93	1755,11
566,13	1759,21
566,32	1808,36
566,52	1787,88
566,71	1728,49
566,91	1800,16
567,11	1689,57
567,30	1708,01
567,50	1781,73
567,69	1775,59
567,89	1757,16
568,08	1718,25
568,28	1779,68
568,47	1615,85
568,67	1812,45
568,86	1675,24
569,06	1785,83
569,25	1781,73
569,45	1677,29
569,64	1695,72
569,84	1705,96
570,04	1761,25
570,23	1679,33
570,43	1714,15
570,62	1718,25
570,82	1880,04
571,01	1673,19
571,21	1638,38
571,40	1767,40
571,60	1789,92
571,79	1742,82
571,99	1761,25
572,18	1658,85
572,38	1769,44
572,57	1660,90
572,77	1777,64
572,96	1839,08
573,16	1740,77
573,35	1699,81
573,55	1841,12
573,74	1783,78
573,94	1800,16
574,13	1708,01
574,33	1810,40
574,52	1849,32
574,71	1759,21
574,91	1736,68
575,10	1671,14
575,30	1683,43
575,49	1765,35
575,69	1755,11
575,88	1732,58
576,08	1787,88
576,27	1830,88
576,47	1724,39
576,66	1832,93
576,86	1808,36
577,05	1789,92
577,25	1806,31
577,44	1837,03
577,64	1748,97
577,83	1724,39
578,02	1726,44
578,22	1937,38
578,41	1828,84
578,61	1730,53
578,80	1701,86
579,00	1691,62
579,19	1697,77
579,39	1810,40
579,58	1757,16
579,77	1779,68
579,97	1935,33
580,16	1789,92
580,36	1804,26
580,55	1830,88
580,75	1779,68
580,94	1738,73
581,13	1910,75
581,33	1843,17
581,52	1724,39
581,72	1820,64
581,91	1824,74
582,11	1796,07
582,30	1732,58
582,49	1761,25
582,69	1869,80
582,88	1720,29
583,08	1837,03
583,27	1818,60
583,47	1806,31
583,66	1632,23
583,85	1705,96
584,05	1746,92
584,24	1771,49
584,44	1802,21
584,63	1773,54
584,82	1787,88
585,02	1925,09
585,21	1765,35
585,41	1812,45
585,60	1753,06
585,79	1941,47
585,99	1943,52
586,18	1880,04
586,37	2236,38
586,57	3207,12
586,76	9779,05
586,96	24143,50
587,15	33617,41
587,34	39577,00
587,54	41143,69
587,73	35587,55
587,93	25775,73
588,12	20758,21
588,31	17927,92
588,51	15994,64
588,70	14788,38
588,89	13743,92
589,09	12498,75
589,28	10821,47
589,47	9252,72
589,67	7808,90
589,86	6317,98
590,06	4814,77
590,25	3854,28
590,44	3096,53
590,64	2539,48
590,83	2174,94
591,02	2127,84
591,22	1918,95
591,41	1853,41
591,60	1796,07
591,80	1931,23
591,99	1783,78
592,18	1843,17
592,38	1882,08
592,57	1767,40
592,76	1853,41
592,96	1775,59
593,15	1800,16
593,34	1869,80
593,54	1837,03
593,73	1763,30
593,92	1794,02
594,12	1771,49
594,31	1716,20
594,50	1863,65
594,70	1773,54
594,89	1904,61
595,08	1683,43
595,28	1757,16
595,47	1945,57
595,66	1796,07
595,86	1640,42
596,05	1834,98
596,24	1777,64
596,43	1839,08
596,63	1882,08
596,82	1789,92
597,01	1789,92
597,21	1855,46
597,40	1775,59
597,59	1728,49
597,79	1773,54
597,98	1777,64
598,17	1710,05
598,36	1812,45
598,56	1753,06
598,75	1753,06
598,94	1746,92
599,14	1726,44
599,33	1701,86
599,52	1843,17
599,71	1755,11
599,91	1781,73
600,10	1806,31
600,29	1695,72
600,48	1779,68
600,68	1751,01
600,87	1710,05
601,06	1732,58
601,26	1738,73
601,45	1773,54
601,64	1763,30
601,83	1759,21
602,03	1677,29
602,22	1652,71
602,41	1847,27
602,60	1886,18
602,80	1779,68
602,99	1732,58
603,18	1669,09
603,37	1767,40
603,57	1757,16
603,76	1832,93
603,95	1759,21
604,14	1675,24
604,34	1679,33
604,53	1742,82
604,72	1738,73
604,91	1773,54
605,10	1777,64
605,30	1751,01
605,49	1888,23
605,68	1808,36
605,87	1714,15
606,07	1740,77
606,26	1730,53
606,45	1857,51
606,64	1751,01
606,84	1718,25
607,03	1693,67
607,22	1765,35
607,41	1689,57
607,60	1738,73
607,80	1746,92
607,99	1759,21
608,18	1742,82
608,37	1789,92
608,56	1695,72
608,76	1837,03
608,95	1794,02
609,14	1646,57
609,33	1732,58
609,52	1814,50
609,72	1726,44
609,91	1794,02
610,10	1673,19
610,29	1775,59
610,48	1775,59
610,68	1785,83
610,87	1701,86
611,06	1753,06
611,25	1705,96
611,44	1787,88
611,63	1722,34
611,83	1740,77
612,02	1677,29
612,21	1767,40
612,40	1638,38
612,59	1671,14
612,79	1652,71
612,98	1765,35
613,17	1869,80
613,36	1699,81
613,55	1841,12
613,74	1701,86
613,93	1658,85
614,13	1726,44
614,32	1730,53
614,51	1771,49
614,70	1773,54
614,89	1656,81
615,08	1798,12
615,28	2121,70
615,47	1566,70
615,66	1777,64
615,85	1761,25
616,04	1839,08
616,23	1691,62
616,42	1662,95
616,62	1773,54
616,81	1728,49
617,00	1740,77
617,19	1783,78
617,38	1687,53
617,57	1746,92
617,76	1765,35
617,95	1687,53
618,15	1765,35
618,34	1689,57
618,53	1658,85
618,72	1796,07
618,91	1832,93
619,10	1751,01
619,29	1691,62
619,48	1724,39
619,68	1673,19
619,87	1722,34
620,06	1701,86
620,25	1781,73
620,44	1703,91
620,63	1697,77
620,82	1800,16
621,01	1710,05
621,20	1726,44
621,39	1806,31
621,59	1693,67
621,78	1728,49
621,97	1746,92
622,16	1748,97
622,35	1710,05
622,54	1779,68
622,73	1734,63
622,92	1714,15
623,11	1806,31
623,30	1683,43
623,49	1763,30
623,68	1726,44
623,88	1742,82
624,07	1720,29
624,26	1753,06
624,45	1693,67
624,64	1746,92
624,83	1787,88
625,02	1773,54
625,21	1787,88
625,40	1714,15
625,59	1814,50
625,78	1718,25
625,97	1716,20
626,16	1861,60
626,35	1783,78
626,54	1691,62
626,74	1787,88
626,93	1681,38
627,12	1705,96
627,31	1826,79
627,50	1761,25
627,69	1812,45
627,88	1669,09
628,07	1718,25
628,26	1724,39
628,45	1648,61
628,64	1650,66
628,83	1703,91
629,02	1683,43
629,21	1695,72
629,40	1708,01
629,59	1677,29
629,78	1685,48
629,97	1755,11
630,16	1714,15
630,35	1648,61
630,54	1677,29
630,73	1669,09
630,92	1761,25
631,11	1656,81
631,30	1673,19
631,49	1794,02
631,68	1665,00
631,87	1761,25
632,06	1638,38
632,25	1818,60
632,44	1746,92
632,63	1812,45
632,82	1732,58
633,01	1583,08
633,20	1753,06
633,39	1650,66
633,58	1689,57
633,77	1791,97
633,96	1755,11
634,15	1703,91
634,34	1765,35
634,53	1742,82
634,72	1699,81
634,91	1648,61
635,10	1798,12
635,29	1712,10
635,48	1710,05
635,67	1685,48
635,86	1687,53
636,05	1787,88
636,24	1736,68
636,43	1728,49
636,62	1755,11
636,81	1628,14
637,00	1763,30
637,19	1763,30
637,38	1765,35
637,57	1705,96
637,76	1703,91
637,95	1726,44
638,14	1722,34
638,33	1652,71
638,52	1691,62
638,71	1665,00
638,89	1646,57
639,08	1880,04
639,27	1779,68
639,46	1714,15
639,65	1791,97
639,84	1740,77
640,03	1660,90
640,22	1730,53
640,41	1765,35
640,60	1632,23
640,79	1783,78
640,98	1722,34
641,17	1755,11
641,36	1746,92
641,55	1769,44
641,74	1712,10
641,92	1675,24
642,11	1701,86
642,30	1685,48
642,49	1646,57
642,68	1681,38
642,87	1757,16
643,06	1746,92
643,25	1755,11
643,44	1687,53
643,63	1714,15
643,82	1742,82
644,00	1683,43
644,19	1718,25
644,38	1681,38
644,57	1738,73
644,76	1710,05
644,95	1769,44
645,14	1697,77
645,33	1767,40
645,52	1665,00
645,71	1699,81
645,89	1689,57
646,08	1712,10
646,27	1701,86
646,46	1908,71
646,65	1708,01
646,84	1736,68
647,03	1656,81
647,22	1812,45
647,40	1775,59
647,59	1689,57
647,78	1626,09
647,97	1662,95
648,16	1636,33
648,35	1732,58
648,54	1843,17
648,73	1624,04
648,91	1695,72
649,10	1728,49
649,29	1638,38
649,48	1697,77
649,67	1638,38
649,86	1718,25
650,05	1667,05
650,23	1798,12
650,42	1669,09
650,61	1738,73
650,80	1689,57
650,99	1886,18
651,18	1722,34
651,36	1738,73
651,55	1712,10
651,74	1681,38
651,93	1675,24
652,12	1748,97
652,31	1740,77
652,49	1689,57
652,68	1624,04
652,87	1806,31
653,06	1783,78
653,25	1894,37
653,44	1697,77
653,62	1789,92
653,81	1718,25
654,00	1738,73
654,19	1796,07
654,38	1855,46
654,56	1720,29
654,75	1734,63
654,94	1781,73
655,13	1822,69
655,32	1667,05
655,51	1832,93
655,69	1636,33
655,88	1804,26
656,07	1716,20
656,26	1826,79
656,45	1603,56
656,63	1757,16
656,82	1783,78
657,01	1769,44
657,20	1693,67
657,38	1871,84
657,57	1722,34
657,76	1699,81
657,95	1759,21
658,14	1693,67
658,32	1652,71
658,51	1611,75
658,70	1705,96
658,89	1728,49
659,08	1738,73
659,26	1798,12
659,45	1722,34
659,64	1761,25
659,83	1703,91
660,01	1902,56
660,20	1689,57
660,39	1781,73
660,58	1513,45
660,76	1757,16
660,95	1677,29
661,14	1656,81
661,33	1691,62
661,51	1681,38
661,70	1716,20
661,89	1724,39
662,08	1697,77
662,26	1626,09
662,45	1701,86
662,64	1863,65
662,83	1781,73
663,01	1679,33
663,20	1650,66
663,39	1804,26
663,58	1734,63
663,76	1734,63
663,95	1757,16
664,14	1697,77
664,32	1658,85
664,51	1710,05
664,70	1609,70
664,89	1689,57
665,07	1691,62
665,26	1740,77
665,45	1595,37
665,64	1847,27
665,82	1730,53
666,01	1822,69
666,20	1703,91
666,38	1789,92
666,57	1867,75
666,76	2129,89
666,95	4462,52
667,13	10237,80
667,32	14843,68
667,51	17690,35
667,69	18700,00
667,88	17354,49
668,07	12253,00
668,25	9295,73
668,44	7944,07
668,63	7325,58
668,81	6676,38
669,00	6178,72
669,19	5562,28
669,38	4966,32
669,56	4329,41
669,75	4003,78
669,94	3411,92
670,12	2879,44
670,31	2453,47
670,50	2201,57
670,68	2039,78
670,87	1857,51
671,06	1775,59
671,24	1775,59
671,43	1869,80
671,62	1738,73
671,80	1744,87
671,99	1775,59
672,18	1642,47
672,36	1769,44
672,55	1728,49
672,74	1652,71
672,92	1708,01
673,11	1771,49
673,29	1642,47
673,48	1796,07
673,67	1712,10
673,85	1802,21
674,04	1722,34
674,23	1740,77
674,41	1775,59
674,60	1587,18
674,79	1554,41
674,97	1736,68
675,16	1730,53
675,34	1753,06
675,53	1687,53
675,72	1734,63
675,90	1777,64
676,09	1695,72
676,28	1712,10
676,46	1654,76
676,65	1787,88
676,83	1685,48
677,02	1726,44
677,21	1771,49
677,39	1800,16
677,58	1699,81
677,77	1724,39
677,95	1685,48
678,14	1732,58
678,32	1718,25
678,51	1665,00
678,70	1865,70
678,88	1693,67
679,07	1722,34
679,25	1648,61
679,44	1765,35
679,63	1665,00
679,81	1693,67
680,00	1777,64
680,18	1736,68
680,37	1822,69
680,55	1714,15
680,74	1603,56
680,93	1603,56
681,11	1744,87
681,30	1689,57
681,48	1732,58
681,67	1734,63
681,85	1695,72
682,04	1665,00
682,23	1708,01
682,41	1701,86
682,60	1576,94
682,78	1718,25
682,97	1699,81
683,15	1701,86
683,34	1734,63
683,53	1880,04
683,71	1687,53
683,90	1847,27
684,08	1824,74
684,27	1705,96
684,45	1662,95
684,64	1832,93
684,82	1763,30
685,01	1796,07
685,19	1728,49
685,38	1802,21
685,57	1708,01
685,75	1701,86
685,94	1652,71
686,12	1738,73
686,31	1712,10
686,49	1834,98
686,68	1609,70
686,86	1753,06
687,05	1718,25
687,23	1738,73
687,42	1726,44
687,60	1566,70
687,79	1763,30
687,97	1826,79
688,16	1841,12
688,34	1773,54
688,53	1632,23
688,71	1714,15
688,90	1787,88
689,08	1779,68
689,27	1566,70
689,45	1687,53
689,64	1777,64
689,82	1804,26
690,01	1767,40
690,19	1708,01
690,38	1742,82
690,56	1804,26
690,75	1626,09
690,93	1669,09
691,12	1722,34
691,30	1630,18
691,49	1697,77
691,67	1761,25
691,86	1753,06
692,04	1691,62
692,23	1691,62
692,41	1638,38
692,60	1783,78
692,78	1789,92
692,97	1662,95
693,15	1701,86
693,34	1822,69
693,52	1765,35
693,71	1705,96
693,89	1660,90
694,08	1605,61
694,26	1730,53
694,44	1720,29
694,63	1757,16
694,81	1654,76
695,00	1683,43
695,18	1742,82
695,37	1886,18
695,55	1716,20
695,74	1699,81
695,92	1689,57
696,10	1794,02
696,29	1718,25
696,47	1640,42
696,66	1710,05
696,84	1744,87
697,03	1767,40
697,21	1841,12
697,40	2297,82
697,58	1837,03
697,76	1665,00
697,95	1705,96
698,13	1630,18
698,32	1665,00
698,50	1714,15
698,68	1857,51
698,87	1652,71
699,05	1791,97
699,24	1699,81
699,42	1701,86
699,61	1683,43
699,79	1765,35
699,97	1759,21
700,16	1640,42
700,34	1708,01
700,53	1744,87
700,71	1765,35
700,89	1794,02
701,08	1679,33
701,26	1677,29
701,45	2097,12
701,63	1701,86
701,81	1730,53
702,00	1740,77
702,18	1742,82
702,37	1632,23
702,55	1748,97
702,73	1671,14
702,92	1624,04
703,10	1740,77
703,28	1646,57
703,47	1699,81
703,65	1771,49
703,84	1763,30
704,02	1705,96
704,20	1748,97
704,39	1693,67
704,57	1718,25
704,75	1746,92
704,94	1773,54
705,12	1738,73
705,30	1708,01
705,49	2271,20
705,67	4523,96
705,86	9209,72
706,04	12494,66
706,22	14171,94
706,41	14962,46
706,59	13504,31
706,77	9265,01
706,96	7276,43
707,14	6481,82
707,32	5838,76
707,51	5490,60
707,69	4874,17
707,87	4097,99
708,06	3540,94
708,24	3061,71
708,42	2389,98
708,61	2281,44
708,79	1853,41
708,97	1877,99
709,16	1853,41
709,34	1781,73
709,52	1712,10
709,71	1662,95
709,89	1736,68
710,07	1669,09
710,26	1716,20
710,44	1738,73
710,62	1769,44
710,80	1773,54
710,99	1777,64
711,17	1728,49
711,35	1685,48
711,54	1763,30
711,72	1841,12
711,90	1697,77
712,09	1730,53
712,27	1632,23
712,45	1759,21
712,63	1640,42
712,82	1687,53
713,00	1667,05
713,18	1695,72
713,37	1763,30
713,55	1687,53
713,73	1830,88
713,91	1759,21
714,10	1681,38
714,28	1695,72
714,46	1757,16
714,65	1765,35
714,83	1781,73
715,01	1693,67
715,19	1705,96
715,38	1695,72
715,56	1732,58
715,74	1644,52
715,92	1669,09
716,11	1738,73
716,29	1609,70
716,47	1769,44
716,65	1738,73
716,84	1615,85
717,02	1851,36
717,20	1648,61
717,38	1683,43
717,57	1810,40
717,75	1699,81
717,93	1781,73
718,11	1718,25
718,30	1679,33
718,48	1732,58
718,66	1761,25
718,84	1724,39
719,03	1720,29
719,21	1646,57
719,39	1724,39
719,57	1738,73
719,75	1779,68
719,94	1685,48
720,12	1658,85
720,30	1708,01
720,48	1742,82
720,67	1693,67
720,85	1644,52
721,03	1693,67
721,21	1626,09
721,39	1783,78
721,58	1705,96
721,76	1730,53
721,94	1712,10
722,12	1718,25
722,30	1800,16
722,49	1718,25
722,67	1796,07
722,85	1665,00
723,03	1697,77
723,21	1644,52
723,40	1714,15
723,58	1798,12
723,76	1742,82
723,94	1787,88
724,12	1671,14
724,30	1691,62
724,49	1718,25
724,67	1683,43
724,85	1798,12
725,03	1656,81
725,21	1796,07
725,40	1796,07
725,58	1675,24
725,76	1777,64
725,94	1759,21
726,12	1695,72
726,30	1722,34
726,49	1685,48
726,67	1722,34
726,85	1708,01
727,03	1773,54
727,21	2123,74
727,39	2914,26
727,57	3766,21
727,76	4065,22
727,94	4517,82
728,12	4345,79
728,30	3792,84
728,48	2824,15
728,66	2762,71
728,84	2451,42
729,03	2275,29
729,21	2156,51
729,39	1935,33
729,57	1869,80
729,75	1775,59
729,93	1869,80
730,11	1781,73
730,30	1673,19
730,48	1703,91
730,66	1908,71
730,84	1771,49
731,02	1687,53
731,20	1716,20
731,38	1712,10
731,56	1685,48
731,74	1638,38
731,93	1787,88
732,11	1714,15
732,29	1654,76
732,47	1753,06
732,65	1656,81
732,83	1763,30
733,01	1734,63
733,19	1675,24
733,37	1755,11
733,56	1673,19
733,74	1621,99
733,92	1865,70
734,10	1681,38
734,28	1736,68
734,46	1683,43
734,64	1679,33
734,82	1712,10
735,00	1705,96
735,18	1705,96
735,36	1673,19
735,54	1720,29
735,73	1648,61
735,91	1783,78
736,09	1732,58
736,27	1697,77
736,45	1742,82
736,63	1638,38
736,81	1705,96
736,99	1759,21
737,17	1841,12
737,35	1675,24
737,53	1673,19
737,71	1695,72
737,89	1820,64
738,07	1677,29
738,25	1691,62
738,43	1634,28
738,61	1691,62
738,80	1722,34
738,98	1634,28
739,16	1755,11
739,34	1720,29
739,52	1828,84
739,70	1736,68
739,88	1757,16
740,06	1777,64
740,24	1603,56
740,42	1779,68
740,60	1605,61
740,78	1642,47
740,96	1675,24
741,14	1689,57
741,32	1730,53
741,50	1615,85
741,68	1847,27
741,86	1744,87
742,04	1603,56
742,22	1716,20
742,40	1734,63
742,58	1808,36
742,76	1724,39
742,94	1789,92
743,12	1636,33
743,30	1726,44
743,48	1673,19
743,66	1662,95
743,84	1734,63
744,02	1644,52
744,20	1685,48
744,38	1701,86
744,56	1701,86
744,74	1812,45
744,92	1732,58
745,10	1765,35
745,28	1779,68
745,46	1796,07
745,64	1726,44
745,82	1732,58
746,00	1691,62
746,18	1677,29
746,36	1687,53
746,54	1800,16
746,72	1732,58
746,90	1669,09
747,08	1796,07
747,26	1757,16
747,44	1662,95
747,62	1722,34
747,80	1716,20
747,98	1765,35
748,15	1683,43
748,33	1777,64
748,51	1710,05
748,69	1734,63
748,87	1642,47
749,05	1656,81
749,23	1636,33
749,41	1755,11
749,59	1611,75
749,77	1781,73
749,95	1660,90
750,13	1617,90
750,31	1695,72
750,49	1742,82
750,67	1740,77
750,85	1736,68
751,03	1677,29
751,20	1828,84
751,38	1726,44
751,56	1677,29
751,74	1761,25
751,92	1679,33
752,10	1615,85
752,28	1816,55
752,46	1693,67
752,64	1740,77
752,82	1705,96
753,00	1783,78
753,18	1701,86
753,35	1689,57
753,53	1687,53
753,71	1691,62
753,89	1783,78
754,07	1695,72
754,25	1734,63
754,43	1697,77
754,61	1615,85
754,79	1699,81
754,97	1746,92
755,14	1771,49
755,32	1673,19
755,50	1691,62
755,68	1685,48
755,86	1589,22
756,04	1681,38
756,22	1705,96
756,40	1771,49
756,57	1822,69
756,75	1665,00
756,93	1757,16
757,11	1734,63
757,29	1718,25
757,47	1734,63
757,65	1701,86
757,82	1546,22
758,00	1681,38
758,18	1679,33
758,36	1683,43
758,54	1771,49
758,72	1689,57
758,90	1769,44
759,07	1677,29
759,25	1714,15
759,43	1751,01
759,61	1642,47
759,79	2129,89
759,97	1720,29
760,15	1708,01
760,32	1705,96
760,50	1695,72
760,68	1796,07
760,86	1650,66
761,04	1814,50
761,22	1708,01
761,39	1679,33
761,57	1843,17
761,75	1724,39
761,93	1687,53
762,11	1626,09
762,28	1734,63
762,46	1566,70
762,64	1689,57
762,82	1609,70
763,00	1648,61
763,18	1755,11
763,35	1650,66
763,53	1841,12
763,71	1726,44
763,89	1712,10
764,07	1785,83
764,24	1716,20
764,42	1814,50
764,60	1605,61
764,78	1767,40
764,96	1812,45
765,13	1753,06
765,31	1681,38
765,49	1732,58
765,67	1689,57
765,84	1658,85
766,02	1658,85
766,20	1564,65
766,38	1751,01
766,56	1773,54
766,73	1767,40
766,91	1685,48
767,09	1658,85
767,27	1759,21
767,44	1701,86
767,62	1728,49
767,80	1728,49
767,98	1656,81
768,15	1646,57
768,33	1738,73
768,51	1732,58
768,69	1742,82
768,87	1665,00
769,04	1642,47
769,22	1867,75
769,40	1761,25
769,58	1861,60
769,75	1740,77
769,93	1761,25
770,11	1683,43
770,28	1665,00
770,46	1738,73
770,64	1669,09
770,82	1726,44
770,99	1658,85
771,17	1787,88
771,35	1656,81
771,53	1675,24
771,70	1595,37
771,88	1716,20
772,06	1705,96
772,23	1728,49
772,41	1748,97
772,59	1654,76
772,77	1615,85
772,94	1736,68
773,12	1775,59
773,30	1748,97
773,47	1697,77
773,65	1748,97
773,83	1808,36
774,01	1656,81
774,18	1593,32
774,36	1726,44
774,54	1703,91
774,71	1697,77
774,89	1648,61
775,07	1652,71
775,24	1724,39
775,42	1648,61
775,60	1826,79
775,78	1634,28
775,95	1591,27
776,13	1652,71
776,31	1611,75
776,48	1671,14
776,66	1773,54
776,84	1603,56
777,01	1652,71
777,19	1615,85
777,37	1634,28
777,54	1783,78
777,72	1720,29
777,90	1748,97
778,07	1705,96
778,25	1916,90
778,43	1730,53
778,60	1613,80
778,78	1806,31
778,96	1806,31
779,13	1626,09
779,31	1787,88
779,49	1677,29
779,66	1767,40
779,84	1697,77
780,01	1771,49
780,19	1718,25
780,37	1818,60
780,54	1746,92
780,72	1695,72
780,90	1660,90
781,07	1708,01
781,25	1662,95
781,43	1802,21
781,60	1683,43
781,78	1726,44
781,95	1734,63
782,13	1660,90
782,31	1710,05
782,48	1650,66
782,66	1697,77
782,83	1818,60
783,01	1732,58
783,19	1734,63
783,36	1751,01
783,54	1703,91
783,72	1783,78
783,89	1636,33
784,07	1740,77
784,24	1744,87
784,42	1732,58
784,60	1642,47
784,77	1714,15
784,95	1556,46
785,12	1748,97
785,30	1683,43
785,47	1665,00
785,65	1626,09
785,83	1720,29
786,00	1681,38
786,18	1728,49
786,35	1595,37
786,53	1642,47
786,71	1759,21
786,88	1705,96
787,06	1742,82
787,23	1712,10
787,41	1697,77
787,58	1705,96
787,76	1673,19
787,94	1777,64
788,11	1710,05
788,29	1656,81
788,46	1605,61
788,64	1572,84
788,81	1693,67
788,99	1566,70
789,16	1761,25
789,34	1640,42
789,52	1720,29
789,69	1714,15
789,87	1617,90
790,04	1687,53
790,22	1710,05
790,39	1734,63
790,57	1691,62
790,74	1658,85
790,92	1740,77
791,09	1595,37
791,27	1705,96
791,44	1753,06
791,62	1714,15
791,79	1857,51
791,97	1689,57
792,15	1855,46
792,32	1730,53
792,50	1722,34
792,67	1755,11
792,85	1771,49
793,02	1732,58
793,20	1665,00
793,37	1677,29
793,55	1746,92
793,72	1652,71
793,90	1818,60
794,07	1730,53
794,25	1718,25
794,42	1681,38
794,60	1656,81
794,77	1714,15
794,95	1783,78
795,12	1736,68
795,30	1773,54
795,47	1681,38
795,65	1810,40
795,82	1685,48
796,00	1662,95
796,17	1683,43
796,34	1705,96
796,52	1710,05
796,69	1804,26
796,87	1769,44
797,04	1675,24
797,22	1701,86
797,39	1736,68
797,57	1814,50
797,74	1810,40
797,92	1703,91
798,09	1783,78
798,27	1796,07
798,44	1742,82
798,62	1632,23
798,79	1675,24
798,96	1701,86
799,14	1638,38
799,31	1830,88
799,49	1714,15
799,66	1714,15
799,84	1681,38
800,01	1675,24
800,19	1757,16
800,36	1665,00
800,53	1652,71
800,71	1740,77
800,88	1761,25
801,06	1736,68
801,23	1683,43
801,41	1646,57
801,58	1671,14
801,75	1652,71
801,93	1751,01
802,10	1748,97
802,28	1734,63
802,45	1578,98
802,63	1736,68
802,80	1806,31
802,97	1673,19
803,15	1681,38
803,32	1679,33
803,50	1685,48
803,67	1605,61
803,84	1658,85
804,02	1685,48
804,19	1703,91
804,37	1572,84
804,54	1738,73
804,71	1599,46
804,89	1652,71
805,06	1697,77
805,24	1581,03
805,41	1619,94
805,58	1675,24
805,76	1859,56
805,93	1726,44
806,10	1755,11
806,28	1673,19
806,45	1673,19
806,63	1710,05
806,80	1710,05
806,97	1667,05
807,15	1732,58
807,32	1732,58
807,49	1763,30
807,67	1652,71
807,84	1699,81
808,01	1611,75
808,19	1865,70
808,36	1763,30
808,54	1628,14
808,71	1601,51
808,88	1724,39
809,06	1740,77
809,23	1796,07
809,40	1687,53
809,58	1775,59
809,75	1732,58
809,92	1626,09
810,10	1802,21
810,27	1734,63
810,44	1775,59
810,62	1800,16
810,79	1794,02
810,96	1703,91
811,14	1701,86
811,31	1699,81
811,48	1789,92
811,66	1662,95
811,83	1779,68
812,00	1738,73
812,18	1701,86
812,35	1843,17
812,52	1667,05
812,69	1716,20
812,87	1708,01
813,04	1701,86
813,21	1626,09
813,39	1658,85
813,56	1662,95
813,73	1759,21
813,91	1628,14
814,08	1710,05
814,25	1693,67
814,42	1712,10
814,60	1710,05
814,77	1730,53
814,94	1755,11
815,12	1767,40
815,29	1851,36
815,46	1660,90
815,63	1787,88
815,81	1691,62
815,98	1697,77
816,15	1669,09
816,33	1705,96
816,50	1693,67
816,67	1722,34
816,84	1646,57
817,02	1699,81
817,19	1722,34
817,36	1771,49
817,53	1714,15
817,71	1656,81
817,88	1687,53
818,05	1677,29
818,22	1665,00
818,40	1771,49
818,57	1669,09
818,74	1832,93
818,91	1632,23
819,09	1763,30
819,26	1687,53
819,43	1624,04
819,60	1650,66
819,78	1734,63
819,95	1777,64
820,12	1669,09
820,29	1751,01
820,47	1839,08
820,64	1718,25
820,81	1673,19
820,98	1685,48
821,15	1595,37
821,33	1753,06
821,50	1650,66
821,67	1730,53
821,84	1634,28
822,02	1710,05
822,19	1751,01
822,36	1691,62
822,53	1701,86
822,70	1628,14
822,88	1683,43
823,05	1814,50
823,22	1660,90
823,39	1697,77
823,56	1742,82
823,74	1751,01
823,91	1634,28
824,08	1624,04
824,25	1607,66
824,42	1779,68
824,60	1570,79
824,77	1658,85
824,94	1681,38
825,11	1791,97
825,28	1640,42
825,45	1730,53
825,63	1767,40
825,80	1642,47
825,97	1757,16
826,14	1742,82
826,31	1636,33
826,48	1738,73
826,66	1658,85
826,83	1654,76
827,00	1730,53
827,17	1552,36
827,34	1730,53
827,51	1718,25
827,69	1648,61
827,86	1603,56
828,03	1669,09
828,20	1744,87
828,37	1675,24
828,54	1767,40
828,71	1634,28
828,89	1757,16
829,06	1687,53
829,23	1783,78
829,40	1730,53
829,57	1695,72
829,74	1806,31
829,91	1628,14
830,09	1644,52
830,26	1712,10
830,43	1777,64
830,60	1716,20
830,77	1751,01
830,94	1783,78
831,11	1751,01
831,28	1701,86
831,46	1687,53
831,63	1632,23
831,80	1691,62
831,97	1646,57
832,14	1710,05
832,31	1773,54
832,48	1714,15
832,65	1794,02
832,82	1748,97
832,99	1761,25
833,17	1673,19
833,34	1777,64
833,51	1755,11
833,68	1589,22
833,85	1671,14
834,02	1660,90
834,19	1503,21
834,36	1673,19
834,53	1669,09
834,70	1818,60
834,87	1814,50
835,04	1699,81
835,22	1724,39
835,39	1669,09
835,56	1685,48
835,73	1673,19
835,90	1726,44
836,07	1716,20
836,24	1730,53
836,41	1689,57
836,58	1617,90
836,75	1849,32
836,92	1673,19
837,09	1658,85
837,26	1728,49
837,43	1753,06
837,60	1724,39
837,77	1644,52
837,94	1705,96
838,12	1779,68
838,29	1667,05
838,46	1617,90
838,63	1689,57
838,80	1730,53
838,97	1734,63
839,14	1712,10
839,31	1736,68
839,48	1777,64
839,65	1660,90
839,82	1812,45
839,99	1722,34
840,16	1699,81
840,33	1665,00
840,50	1660,90
840,67	1697,77
840,84	1624,04
841,01	1763,30
841,18	1693,67
841,35	1642,47
841,52	1746,92
841,69	1789,92
841,86	1759,21
842,03	1665,00
842,20	1800,16
842,37	1650,66
842,54	1619,94
842,71	1689,57
842,88	1626,09
843,05	1769,44
843,22	1734,63
843,39	1753,06
843,56	1683,43
843,73	1601,51
843,90	1763,30
844,07	1691,62
844,24	1771,49
844,41	1757,16
844,58	1755,11
844,75	1738,73
844,92	1781,73
845,09	1697,77
845,26	1652,71
845,43	1714,15
845,60	1689,57
845,77	1771,49
845,94	1714,15
846,10	1771,49
846,27	1626,09
846,44	1562,60
846,61	1669,09
846,78	1679,33
846,95	1775,59
847,12	1732,58
847,29	1781,73
847,46	1648,61
847,63	1683,43
847,80	1705,96
847,97	1644,52
848,14	1796,07
848,31	1705,96
848,48	1636,33
848,65	1724,39
848,82	1650,66
848,98	1832,93
849,15	1789,92
849,32	1804,26
849,49	1781,73
849,66	1662,95
849,83	1734,63
850,00	1777,64
850,17	1742,82
850,34	1712,10
850,51	1693,67
850,68	1675,24
850,85	1853,41
851,01	1681,38
851,18	1738,73
851,35	1691,62
851,52	1761,25
851,69	1691,62
851,86	1673,19
852,03	1683,43
852,20	1816,55
852,37	1755,11
852,53	1624,04
852,70	1691,62
852,87	1755,11
853,04	1804,26
853,21	1765,35
853,38	1818,60
853,55	1761,25
853,72	1822,69
853,89	1619,94
854,05	1632,23
854,22	1640,42
854,39	1648,61
854,56	1720,29
854,73	1771,49
854,90	1640,42
855,07	1677,29
855,23	1665,00
855,40	1675,24
855,57	1675,24
855,74	1607,66
855,91	1880,04
856,08	1601,51
856,25	1581,03
856,41	1689,57
856,58	1687,53
856,75	1738,73
856,92	1601,51
857,09	1734,63
857,26	1650,66
857,42	1765,35
857,59	1748,97
857,76	1703,91
857,93	1755,11
858,10	1722,34
858,27	1656,81
858,43	1718,25
858,60	1605,61
858,77	1632,23
858,94	1652,71
859,11	1751,01
859,27	1648,61
859,44	1742,82
859,61	1738,73
859,78	1736,68
859,95	1701,86
860,12	1699,81
860,28	1804,26
860,45	1847,27
860,62	1671,14
860,79	1753,06
860,95	1689,57
861,12	1658,85
861,29	1609,70
861,46	1650,66
861,63	1746,92
861,79	1730,53
861,96	1638,38
862,13	1677,29
862,30	1796,07
862,47	1693,67
862,63	1652,71
862,80	1773,54
862,97	1728,49
863,14	1763,30
863,30	1652,71
863,47	1679,33
863,64	1812,45
863,81	1705,96
863,97	1712,10
864,14	1742,82
864,31	1689,57
864,48	1736,68
864,65	1628,14
864,81	1771,49
864,98	1753,06
865,15	1773,54
865,32	1685,48
865,48	1753,06
865,65	1832,93
865,82	1656,81
865,98	1742,82
866,15	1822,69
866,32	1693,67
866,49	1652,71
866,65	1763,30
866,82	1654,76
866,99	1681,38
867,16	1714,15
867,32	1599,46
867,49	1642,47
867,66	1703,91
867,83	1720,29
867,99	1634,28
868,16	1736,68
868,33	1689,57
868,49	1685,48
868,66	1705,96
868,83	1781,73
868,99	1720,29
869,16	1644,52
869,33	1710,05
869,50	1802,21
869,66	1697,77
869,83	1650,66
870,00	1697,77
870,16	1714,15
870,33	1673,19
870,50	1746,92
870,66	1685,48
870,83	1830,88
871,00	1667,05
871,17	1708,01
871,33	1787,88
871,50	1658,85
871,67	1740,77
871,83	1578,98
872,00	1716,20
872,17	1615,85
872,33	1845,22
872,50	1755,11
872,67	1705,96
872,83	1665,00
873,00	1710,05
873,17	1730,53
873,33	1779,68
873,50	1761,25
873,67	1630,18
873,83	1640,42
874,00	1746,92
874,16	1834,98
874,33	1716,20
874,50	1693,67
874,66	1748,97
874,83	1644,52
875,00	1724,39
875,16	1705,96
875,33	1757,16
875,50	1554,41
875,66	1673,19
875,83	1742,82
875,99	1753,06
876,16	1667,05
876,33	1642,47
876,49	1771,49
876,66	1673,19
876,83	1656,81
876,99	1689,57
877,16	1652,71
877,32	1658,85
877,49	1755,11
877,66	1705,96
877,82	1718,25
877,99	1796,07
878,15	1822,69
878,32	1755,11
878,49	1705,96
878,65	1675,24
878,82	1753,06
878,98	1583,08
879,15	1730,53
879,32	1802,21
879,48	1755,11
879,65	1736,68
879,81	1599,46
879,98	1673,19
880,15	1708,01
880,31	1746,92
880,48	1665,00
880,64	1789,92
880,81	1757,16
880,97	1751,01
881,14	1841,12
881,31	1699,81
881,47	1832,93
881,64	1667,05
881,80	1673,19
881,97	1695,72
882,13	1689,57
882,30	1628,14
882,47	1681,38
882,63	1716,20
882,80	1675,24
882,96	1705,96
883,13	1830,88
883,29	1677,29
883,46	1665,00
883,62	1843,17
883,79	1691,62
883,95	1681,38
884,12	1628,14
884,29	1736,68
884,45	1669,09
884,62	1753,06
884,78	1648,61
884,95	1771,49
885,11	1652,71
885,28	1744,87
885,44	1619,94
885,61	1705,96
885,77	1771,49
885,94	1681,38
886,10	1697,77
886,27	1691,62
886,43	1810,40
886,60	1773,54
886,76	1677,29
886,93	1687,53
887,09	1744,87
887,26	1640,42
887,42	1701,86
887,59	1753,06
887,75	1824,74
887,92	1806,31
888,08	1708,01
888,25	1798,12
888,41	1716,20
888,58	1720,29
888,74	1667,05
888,91	1689,57
>>>>>End Processed Spectral Data<<<<<
