SpectraSuite Data File
++++++++++++++++++++++++++++++++++++
Date: Mon Jun 06 16:24:17 CEST 2016
User: root
Dark Spectrum Present: No
Reference Spectrum Present: No
Number of Sampled Component Spectra: 1
Spectrometers: USB4C02835
Integration Time (usec): 100000 (USB4C02835)
Spectra Averaged: 1 (USB4C02835)
Boxcar Smoothing: 0 (USB4C02835)
Correct for Electrical Dark: No (USB4C02835)
Strobe/Lamp Enabled: No (USB4C02835)
Correct for Detector Non-linearity: No (USB4C02835)
Correct for Stray Light: No (USB4C02835)
Number of Pixels in Processed Spectrum: 3648
>>>>>Begin Processed Spectral Data<<<<<
177,47	1544,17
177,69	1544,17
177,91	1544,17
178,13	1460,20
178,36	1429,48
178,58	1662,95
178,80	1685,48
179,02	1626,09
179,24	1673,19
179,46	1716,20
179,68	1779,68
179,90	1732,58
180,13	1753,06
180,35	1673,19
180,57	1714,15
180,79	1693,67
181,01	1685,48
181,23	1828,84
181,45	1761,25
181,67	1789,92
181,90	1751,01
182,12	1669,09
182,34	1679,33
182,56	1751,01
182,78	1732,58
183,00	1714,15
183,22	1732,58
183,44	1640,42
183,66	1830,88
183,89	1773,54
184,11	1753,06
184,33	1779,68
184,55	1859,56
184,77	1755,11
184,99	1734,63
185,21	1751,01
185,43	1837,03
185,65	1662,95
185,87	1671,14
186,10	1767,40
186,32	1849,32
186,54	1740,77
186,76	1779,68
186,98	1794,02
187,20	1722,34
187,42	1695,72
187,64	1714,15
187,86	1660,90
188,08	1765,35
188,30	1677,29
188,52	1843,17
188,75	1837,03
188,97	1763,30
189,19	1705,96
189,41	1708,01
189,63	1691,62
189,85	1724,39
190,07	1613,80
190,29	1648,61
190,51	1703,91
190,73	1650,66
190,95	1808,36
191,17	1746,92
191,39	1595,37
191,61	1683,43
191,84	1728,49
192,06	1853,41
192,28	1716,20
192,50	1906,66
192,72	1748,97
192,94	1683,43
193,16	1810,40
193,38	1771,49
193,60	1636,33
193,82	1667,05
194,04	1748,97
194,26	1800,16
194,48	1701,86
194,70	1681,38
194,92	1650,66
195,14	1757,16
195,36	1675,24
195,58	1722,34
195,80	1652,71
196,02	1673,19
196,24	1636,33
196,46	1730,53
196,69	1634,28
196,91	1896,42
197,13	1689,57
197,35	1710,05
197,57	1820,64
197,79	1718,25
198,01	1746,92
198,23	1748,97
198,45	1681,38
198,67	1605,61
198,89	1759,21
199,11	1710,05
199,33	1701,86
199,55	1578,98
199,77	1605,61
199,99	1828,84
200,21	1650,66
200,43	1685,48
200,65	1626,09
200,87	1619,94
201,09	1669,09
201,31	1662,95
201,53	1742,82
201,75	1726,44
201,97	1683,43
202,19	1658,85
202,41	1685,48
202,63	1910,75
202,85	1689,57
203,07	1714,15
203,29	1740,77
203,51	1734,63
203,73	1685,48
203,95	1855,46
204,17	1755,11
204,39	1798,12
204,61	1716,20
204,83	1718,25
205,05	1771,49
205,27	1757,16
205,49	1845,22
205,71	1673,19
205,93	1640,42
206,15	1634,28
206,37	1714,15
206,59	1658,85
206,81	1728,49
207,03	1648,61
207,25	1650,66
207,47	1783,78
207,69	1689,57
207,91	1751,01
208,13	1800,16
208,34	1640,42
208,56	1708,01
208,78	1701,86
209,00	1691,62
209,22	1673,19
209,44	1712,10
209,66	1726,44
209,88	1691,62
210,10	1607,66
210,32	1697,77
210,54	1791,97
210,76	1685,48
210,98	1775,59
211,20	1644,52
211,42	1802,21
211,64	1767,40
211,86	1789,92
212,08	1720,29
212,30	1705,96
212,52	1736,68
212,74	1728,49
212,96	1722,34
213,17	1751,01
213,39	1714,15
213,61	1837,03
213,83	1751,01
214,05	1683,43
214,27	1820,64
214,49	1619,94
214,71	1701,86
214,93	1787,88
215,15	1693,67
215,37	1710,05
215,59	1609,70
215,81	1732,58
216,03	1775,59
216,24	1759,21
216,46	1642,47
216,68	1736,68
216,90	1789,92
217,12	1771,49
217,34	1669,09
217,56	1748,97
217,78	1779,68
218,00	1708,01
218,22	1730,53
218,44	1738,73
218,66	1667,05
218,87	1808,36
219,09	1677,29
219,31	1769,44
219,53	1775,59
219,75	1689,57
219,97	1718,25
220,19	1732,58
220,41	1609,70
220,63	1751,01
220,85	1748,97
221,06	1654,76
221,28	1804,26
221,50	1738,73
221,72	1685,48
221,94	1763,30
222,16	1818,60
222,38	1738,73
222,60	1787,88
222,82	1720,29
223,03	1728,49
223,25	1660,90
223,47	1748,97
223,69	1865,70
223,91	1738,73
224,13	1734,63
224,35	1654,76
224,57	1832,93
224,78	1779,68
225,00	1689,57
225,22	1703,91
225,44	1669,09
225,66	1789,92
225,88	1730,53
226,10	1742,82
226,32	1730,53
226,53	1734,63
226,75	1705,96
226,97	1767,40
227,19	1705,96
227,41	1728,49
227,63	1615,85
227,85	1605,61
228,06	1732,58
228,28	1710,05
228,50	1763,30
228,72	1644,52
228,94	1708,01
229,16	1626,09
229,37	1658,85
229,59	1701,86
229,81	1816,55
230,03	1736,68
230,25	1667,05
230,47	1708,01
230,69	1607,66
230,90	1755,11
231,12	1714,15
231,34	1726,44
231,56	1755,11
231,78	1695,72
232,00	1757,16
232,21	1687,53
232,43	1689,57
232,65	1591,27
232,87	1689,57
233,09	1730,53
233,30	1689,57
233,52	1673,19
233,74	1687,53
233,96	1701,86
234,18	1710,05
234,40	1689,57
234,61	1755,11
234,83	1669,09
235,05	1683,43
235,27	1853,41
235,49	1791,97
235,70	1673,19
235,92	1806,31
236,14	1673,19
236,36	1834,98
236,58	1691,62
236,79	1728,49
237,01	1626,09
237,23	1714,15
237,45	1847,27
237,67	1675,24
237,88	1716,20
238,10	1796,07
238,32	1611,75
238,54	1728,49
238,76	1613,80
238,97	1691,62
239,19	1654,76
239,41	1757,16
239,63	1724,39
239,85	1695,72
240,06	1632,23
240,28	1716,20
240,50	1732,58
240,72	1652,71
240,93	1611,75
241,15	1806,31
241,37	1679,33
241,59	1796,07
241,81	1691,62
242,02	1699,81
242,24	1763,30
242,46	1740,77
242,68	1662,95
242,89	1726,44
243,11	1781,73
243,33	1740,77
243,55	1718,25
243,76	1716,20
243,98	1703,91
244,20	1683,43
244,42	1763,30
244,64	1714,15
244,85	1652,71
245,07	1687,53
245,29	1716,20
245,51	1716,20
245,72	1753,06
245,94	1753,06
246,16	1744,87
246,38	1751,01
246,59	1650,66
246,81	1720,29
247,03	1716,20
247,24	1681,38
247,46	1724,39
247,68	1718,25
247,90	1722,34
248,11	1728,49
248,33	1742,82
248,55	1677,29
248,77	1697,77
248,98	1691,62
249,20	1843,17
249,42	1736,68
249,64	1718,25
249,85	1697,77
250,07	1615,85
250,29	1767,40
250,50	1728,49
250,72	1677,29
250,94	1724,39
251,16	1888,23
251,37	1736,68
251,59	1767,40
251,81	1722,34
252,02	1783,78
252,24	1648,61
252,46	1791,97
252,68	1675,24
252,89	1658,85
253,11	1644,52
253,33	1816,55
253,54	1810,40
253,76	1665,00
253,98	1708,01
254,20	1691,62
254,41	1679,33
254,63	1730,53
254,85	1679,33
255,06	1738,73
255,28	1779,68
255,50	1619,94
255,71	1736,68
255,93	1708,01
256,15	1658,85
256,36	1736,68
256,58	1695,72
256,80	1738,73
257,02	1648,61
257,23	1681,38
257,45	1624,04
257,67	1796,07
257,88	1617,90
258,10	1656,81
258,32	1757,16
258,53	1716,20
258,75	1744,87
258,97	1689,57
259,18	1763,30
259,40	1751,01
259,62	1804,26
259,83	1845,22
260,05	1761,25
260,27	2013,15
260,48	1740,77
260,70	1681,38
260,92	1687,53
261,13	1644,52
261,35	1693,67
261,57	1691,62
261,78	1617,90
262,00	1669,09
262,22	1765,35
262,43	1679,33
262,65	1693,67
262,86	1624,04
263,08	1759,21
263,30	1742,82
263,51	1552,36
263,73	1730,53
263,95	1794,02
264,16	1615,85
264,38	1705,96
264,60	1765,35
264,81	1679,33
265,03	1871,84
265,25	1775,59
265,46	1693,67
265,68	1763,30
265,89	1763,30
266,11	1636,33
266,33	1697,77
266,54	1736,68
266,76	1695,72
266,98	1763,30
267,19	1759,21
267,41	1726,44
267,62	1789,92
267,84	1609,70
268,06	1769,44
268,27	1738,73
268,49	1708,01
268,70	1783,78
268,92	1648,61
269,14	1636,33
269,35	1619,94
269,57	1738,73
269,79	1765,35
270,00	1724,39
270,22	1806,31
270,43	1642,47
270,65	1544,17
270,87	1691,62
271,08	1691,62
271,30	1738,73
271,51	1726,44
271,73	1794,02
271,95	1861,60
272,16	1689,57
272,38	1675,24
272,59	1759,21
272,81	1765,35
273,02	1705,96
273,24	1679,33
273,46	1751,01
273,67	1685,48
273,89	1703,91
274,10	1732,58
274,32	1736,68
274,54	1730,53
274,75	1798,12
274,97	1732,58
275,18	1740,77
275,40	1695,72
275,61	1691,62
275,83	1738,73
276,05	1716,20
276,26	1644,52
276,48	1687,53
276,69	1630,18
276,91	1755,11
277,12	1822,69
277,34	1810,40
277,55	1751,01
277,77	1710,05
277,99	1693,67
278,20	1626,09
278,42	1677,29
278,63	1648,61
278,85	1701,86
279,06	1624,04
279,28	1800,16
279,49	1759,21
279,71	1736,68
279,93	1677,29
280,14	1705,96
280,36	1755,11
280,57	1808,36
280,79	1783,78
281,00	1669,09
281,22	1744,87
281,43	1728,49
281,65	1611,75
281,86	1658,85
282,08	1734,63
282,29	1880,04
282,51	1677,29
282,73	1652,71
282,94	1607,66
283,16	1826,79
283,37	1722,34
283,59	1714,15
283,80	1757,16
284,02	1658,85
284,23	1701,86
284,45	1656,81
284,66	1671,14
284,88	1673,19
285,09	1800,16
285,31	1763,30
285,52	1675,24
285,74	1640,42
285,95	1820,64
286,17	1710,05
286,38	1791,97
286,60	1652,71
286,81	1681,38
287,03	1751,01
287,24	1605,61
287,46	1761,25
287,67	1800,16
287,89	1794,02
288,10	1722,34
288,32	1724,39
288,53	1812,45
288,75	1689,57
288,96	1769,44
289,18	1701,86
289,39	1714,15
289,61	1763,30
289,82	1777,64
290,04	1845,22
290,25	1699,81
290,47	1697,77
290,68	1640,42
290,90	1755,11
291,11	1613,80
291,33	1796,07
291,54	1658,85
291,76	1613,80
291,97	1746,92
292,18	1765,35
292,40	1650,66
292,61	1695,72
292,83	1875,94
293,04	1812,45
293,26	1763,30
293,47	1806,31
293,69	1626,09
293,90	1667,05
294,12	1783,78
294,33	1654,76
294,55	1701,86
294,76	1740,77
294,97	1765,35
295,19	1814,50
295,40	1695,72
295,62	1726,44
295,83	1765,35
296,05	1654,76
296,26	1765,35
296,48	1679,33
296,69	1759,21
296,90	1662,95
297,12	1787,88
297,33	1785,83
297,55	1724,39
297,76	1773,54
297,98	1810,40
298,19	1751,01
298,41	1669,09
298,62	1646,57
298,83	1849,32
299,05	1744,87
299,26	1765,35
299,48	1705,96
299,69	1769,44
299,90	1716,20
300,12	1683,43
300,33	1667,05
300,55	1722,34
300,76	1771,49
300,98	1638,38
301,19	1791,97
301,40	1699,81
301,62	1724,39
301,83	1761,25
302,05	1679,33
302,26	1757,16
302,47	1732,58
302,69	1697,77
302,90	1703,91
303,12	1595,37
303,33	1755,11
303,54	1763,30
303,76	1742,82
303,97	1710,05
304,19	1845,22
304,40	1621,99
304,61	1701,86
304,83	1839,08
305,04	1716,20
305,26	1773,54
305,47	1595,37
305,68	1740,77
305,90	1652,71
306,11	1849,32
306,33	1716,20
306,54	1697,77
306,75	1628,14
306,97	1671,14
307,18	1757,16
307,39	1624,04
307,61	1802,21
307,82	1652,71
308,04	1724,39
308,25	1693,67
308,46	1701,86
308,68	1650,66
308,89	1724,39
309,10	1822,69
309,32	1648,61
309,53	1773,54
309,74	1701,86
309,96	1673,19
310,17	1714,15
310,39	1699,81
310,60	1730,53
310,81	1658,85
311,03	1667,05
311,24	1740,77
311,45	1667,05
311,67	1746,92
311,88	1744,87
312,09	1714,15
312,31	1691,62
312,52	1691,62
312,73	1708,01
312,95	1634,28
313,16	1665,00
313,37	1794,02
313,59	1677,29
313,80	1703,91
314,01	1857,51
314,23	1660,90
314,44	1748,97
314,65	1669,09
314,87	1675,24
315,08	1695,72
315,29	1705,96
315,51	1748,97
315,72	1660,90
315,93	1886,18
316,15	1765,35
316,36	1703,91
316,57	1816,55
316,79	1742,82
317,00	1562,60
317,21	1755,11
317,43	1734,63
317,64	1683,43
317,85	1673,19
318,07	1660,90
318,28	1697,77
318,49	1847,27
318,70	1898,47
318,92	1871,84
319,13	1808,36
319,34	1880,04
319,56	1755,11
319,77	1871,84
319,98	1742,82
320,20	1769,44
320,41	1734,63
320,62	1779,68
320,83	1634,28
321,05	1906,66
321,26	1701,86
321,47	1744,87
321,69	1724,39
321,90	1648,61
322,11	1738,73
322,32	1726,44
322,54	1814,50
322,75	1667,05
322,96	1794,02
323,18	1669,09
323,39	1621,99
323,60	1785,83
323,81	1724,39
324,03	1722,34
324,24	1771,49
324,45	1691,62
324,66	1716,20
324,88	1753,06
325,09	1777,64
325,30	1652,71
325,52	1708,01
325,73	1751,01
325,94	1673,19
326,15	1585,13
326,37	1693,67
326,58	1759,21
326,79	1816,55
327,00	1675,24
327,22	1685,48
327,43	1710,05
327,64	1671,14
327,85	1705,96
328,07	1632,23
328,28	1867,75
328,49	1716,20
328,70	1730,53
328,92	1822,69
329,13	1587,18
329,34	1820,64
329,55	1779,68
329,76	1716,20
329,98	1675,24
330,19	1761,25
330,40	1648,61
330,61	1738,73
330,83	1734,63
331,04	1757,16
331,25	1748,97
331,46	1656,81
331,68	1644,52
331,89	1720,29
332,10	1669,09
332,31	1708,01
332,52	1679,33
332,74	1732,58
332,95	1615,85
333,16	1699,81
333,37	1736,68
333,58	1736,68
333,80	1660,90
334,01	1722,34
334,22	1652,71
334,43	1646,57
334,64	1736,68
334,86	1607,66
335,07	1601,51
335,28	1808,36
335,49	1648,61
335,70	1693,67
335,92	1832,93
336,13	1845,22
336,34	1744,87
336,55	1710,05
336,76	1722,34
336,98	1558,50
337,19	1712,10
337,40	1834,98
337,61	1822,69
337,82	1720,29
338,04	1818,60
338,25	1607,66
338,46	1728,49
338,67	1677,29
338,88	1652,71
339,09	1732,58
339,31	1708,01
339,52	1581,03
339,73	1665,00
339,94	1656,81
340,15	1777,64
340,36	1712,10
340,58	1626,09
340,79	1572,84
341,00	1699,81
341,21	1642,47
341,42	1808,36
341,63	1757,16
341,85	1781,73
342,06	1718,25
342,27	1658,85
342,48	1718,25
342,69	1636,33
342,90	1761,25
343,12	1701,86
343,33	1730,53
343,54	1730,53
343,75	1763,30
343,96	1705,96
344,17	1621,99
344,38	1716,20
344,60	1650,66
344,81	1734,63
345,02	1738,73
345,23	1753,06
345,44	1771,49
345,65	1812,45
345,86	1755,11
346,07	1703,91
346,29	1679,33
346,50	1687,53
346,71	1783,78
346,92	1880,04
347,13	1859,56
347,34	1777,64
347,55	1777,64
347,76	1716,20
347,98	1585,13
348,19	1695,72
348,40	1785,83
348,61	1718,25
348,82	1767,40
349,03	1796,07
349,24	1624,04
349,45	1746,92
349,66	1562,60
349,88	1712,10
350,09	1669,09
350,30	1843,17
350,51	1767,40
350,72	1689,57
350,93	1669,09
351,14	1662,95
351,35	1748,97
351,56	1732,58
351,77	1677,29
351,99	1720,29
352,20	1773,54
352,41	1781,73
352,62	1535,98
352,83	1738,73
353,04	1722,34
353,25	1677,29
353,46	1763,30
353,67	1722,34
353,88	1634,28
354,09	1777,64
354,30	1746,92
354,52	1779,68
354,73	1667,05
354,94	1720,29
355,15	1753,06
355,36	1765,35
355,57	1724,39
355,78	1738,73
355,99	1572,84
356,20	1656,81
356,41	1796,07
356,62	1691,62
356,83	1796,07
357,04	1810,40
357,25	1634,28
357,46	1626,09
357,68	1591,27
357,89	1644,52
358,10	1681,38
358,31	1650,66
358,52	1722,34
358,73	1601,51
358,94	1681,38
359,15	1722,34
359,36	1738,73
359,57	1710,05
359,78	1732,58
359,99	1708,01
360,20	1630,18
360,41	1648,61
360,62	1734,63
360,83	1728,49
361,04	1724,39
361,25	1712,10
361,46	1824,74
361,67	1703,91
361,88	1798,12
362,09	1714,15
362,30	1689,57
362,51	1566,70
362,72	1722,34
362,93	1753,06
363,14	1820,64
363,35	1746,92
363,56	1607,66
363,78	1773,54
363,99	1763,30
364,20	1759,21
364,41	1787,88
364,62	1722,34
364,83	1691,62
365,04	1767,40
365,25	1693,67
365,46	1853,41
365,67	1656,81
365,88	1607,66
366,09	1695,72
366,30	1757,16
366,51	1708,01
366,72	1603,56
366,93	1679,33
367,14	1806,31
367,35	1705,96
367,56	1697,77
367,77	1824,74
367,98	1621,99
368,18	1685,48
368,39	1691,62
368,60	1630,18
368,81	1736,68
369,02	1673,19
369,23	1738,73
369,44	1683,43
369,65	1699,81
369,86	1789,92
370,07	1767,40
370,28	1648,61
370,49	1810,40
370,70	1783,78
370,91	1691,62
371,12	1677,29
371,33	1851,36
371,54	1660,90
371,75	1804,26
371,96	1644,52
372,17	1746,92
372,38	1685,48
372,59	1734,63
372,80	1705,96
373,01	1656,81
373,22	1667,05
373,43	1689,57
373,64	1611,75
373,85	1814,50
374,06	1800,16
374,26	1732,58
374,47	1751,01
374,68	1796,07
374,89	1697,77
375,10	1687,53
375,31	1824,74
375,52	1683,43
375,73	1775,59
375,94	1714,15
376,15	1767,40
376,36	1667,05
376,57	1765,35
376,78	1722,34
376,99	1722,34
377,20	1753,06
377,40	1691,62
377,61	1794,02
377,82	1656,81
378,03	1806,31
378,24	1716,20
378,45	1652,71
378,66	1701,86
378,87	1646,57
379,08	1726,44
379,29	1710,05
379,50	1724,39
379,71	1648,61
379,91	1751,01
380,12	1755,11
380,33	1730,53
380,54	1746,92
380,75	1755,11
380,96	1656,81
381,17	1714,15
381,38	1738,73
381,59	1783,78
381,80	1718,25
382,00	1806,31
382,21	1798,12
382,42	1863,65
382,63	1832,93
382,84	1746,92
383,05	1798,12
383,26	1716,20
383,47	1734,63
383,68	1763,30
383,88	1757,16
384,09	1730,53
384,30	1845,22
384,51	1781,73
384,72	1757,16
384,93	1677,29
385,14	1775,59
385,35	1773,54
385,55	1665,00
385,76	1804,26
385,97	1753,06
386,18	1705,96
386,39	1662,95
386,60	1699,81
386,81	1710,05
387,02	1724,39
387,22	1693,67
387,43	1765,35
387,64	1771,49
387,85	1857,51
388,06	2131,94
388,27	4184,00
388,48	6672,28
388,68	8011,65
388,89	9512,81
389,10	9512,81
389,31	8423,30
389,52	7247,76
389,73	6633,37
389,93	6113,19
390,14	5855,14
390,35	5175,22
390,56	4519,87
390,77	3854,28
390,98	2959,31
391,18	2508,76
391,39	2117,60
391,60	1880,04
391,81	1865,70
392,02	1773,54
392,23	1898,47
392,43	1781,73
392,64	1834,98
392,85	1751,01
393,06	1814,50
393,27	1720,29
393,47	1665,00
393,68	1730,53
393,89	1740,77
394,10	1710,05
394,31	1603,56
394,52	1701,86
394,72	1710,05
394,93	1798,12
395,14	1720,29
395,35	1767,40
395,56	1685,48
395,76	1730,53
395,97	1787,88
396,18	1810,40
396,39	1787,88
396,60	1998,82
396,80	1873,89
397,01	1843,17
397,22	1791,97
397,43	1861,60
397,64	1748,97
397,84	1824,74
398,05	1955,81
398,26	1759,21
398,47	1755,11
398,67	1830,88
398,88	1728,49
399,09	1746,92
399,30	1599,46
399,51	1771,49
399,71	1658,85
399,92	1703,91
400,13	1763,30
400,34	1638,38
400,54	1724,39
400,75	1748,97
400,96	1753,06
401,17	1837,03
401,37	1761,25
401,58	1667,05
401,79	1665,00
402,00	1849,32
402,21	2007,01
402,41	1869,80
402,62	1959,91
402,83	2078,69
403,04	1970,15
403,24	2099,17
403,45	1906,66
403,66	1904,61
403,87	1918,95
404,07	1898,47
404,28	1945,57
404,49	1845,22
404,70	1804,26
404,90	1773,54
405,11	1748,97
405,32	1783,78
405,52	1640,42
405,73	1730,53
405,94	1681,38
406,15	1761,25
406,35	1783,78
406,56	1716,20
406,77	1708,01
406,98	1759,21
407,18	1693,67
407,39	1853,41
407,60	1673,19
407,80	1767,40
408,01	1734,63
408,22	1757,16
408,43	1660,90
408,63	1771,49
408,84	1675,24
409,05	1759,21
409,25	1695,72
409,46	1757,16
409,67	1769,44
409,88	1691,62
410,08	1710,05
410,29	1671,14
410,50	1755,11
410,70	1736,68
410,91	1658,85
411,12	1771,49
411,32	1769,44
411,53	1708,01
411,74	1845,22
411,95	1800,16
412,15	1712,10
412,36	1841,12
412,57	1787,88
412,77	1773,54
412,98	1744,87
413,19	1691,62
413,39	1677,29
413,60	1789,92
413,81	1830,88
414,01	1681,38
414,22	1667,05
414,43	1822,69
414,63	1656,81
414,84	1751,01
415,05	1722,34
415,25	1699,81
415,46	1720,29
415,67	1714,15
415,87	1638,38
416,08	1718,25
416,29	1689,57
416,49	1755,11
416,70	1646,57
416,91	1744,87
417,11	1761,25
417,32	1732,58
417,53	1781,73
417,73	1718,25
417,94	1710,05
418,15	1732,58
418,35	1804,26
418,56	1746,92
418,77	1794,02
418,97	1716,20
419,18	1742,82
419,38	1611,75
419,59	1728,49
419,80	1791,97
420,00	1730,53
420,21	1761,25
420,42	1736,68
420,62	1742,82
420,83	1648,61
421,04	1708,01
421,24	1701,86
421,45	1757,16
421,65	1773,54
421,86	1800,16
422,07	1777,64
422,27	1718,25
422,48	1730,53
422,69	1708,01
422,89	1759,21
423,10	1699,81
423,30	1652,71
423,51	1730,53
423,72	1716,20
423,92	1779,68
424,13	1654,76
424,33	1652,71
424,54	1720,29
424,75	1785,83
424,95	1726,44
425,16	1671,14
425,36	1728,49
425,57	1753,06
425,78	1761,25
425,98	1714,15
426,19	1718,25
426,39	1662,95
426,60	1712,10
426,81	1763,30
427,01	1720,29
427,22	1720,29
427,42	1675,24
427,63	1708,01
427,83	1761,25
428,04	1865,70
428,25	1763,30
428,45	1806,31
428,66	1763,30
428,86	1720,29
429,07	1691,62
429,28	1673,19
429,48	1693,67
429,69	1746,92
429,89	1785,83
430,10	1632,23
430,30	1748,97
430,51	1759,21
430,71	1705,96
430,92	1714,15
431,13	1626,09
431,33	1740,77
431,54	1689,57
431,74	1791,97
431,95	1912,80
432,15	1675,24
432,36	1658,85
432,56	1796,07
432,77	1763,30
432,98	1779,68
433,18	1828,84
433,39	1699,81
433,59	1697,77
433,80	1812,45
434,00	1781,73
434,21	1738,73
434,41	1695,72
434,62	1824,74
434,82	1697,77
435,03	1679,33
435,23	1757,16
435,44	1603,56
435,64	1728,49
435,85	1773,54
436,06	1808,36
436,26	1742,82
436,47	1769,44
436,67	1718,25
436,88	1728,49
437,08	1779,68
437,29	1845,22
437,49	1773,54
437,70	1777,64
437,90	1746,92
438,11	1888,23
438,31	1738,73
438,52	1869,80
438,72	1828,84
438,93	1968,10
439,13	1822,69
439,34	1820,64
439,54	1812,45
439,75	1832,93
439,95	1861,60
440,16	1779,68
440,36	1726,44
440,57	1777,64
440,77	1740,77
440,98	1734,63
441,18	1779,68
441,39	1730,53
441,59	1650,66
441,80	1859,56
442,00	1726,44
442,21	1861,60
442,41	1718,25
442,62	1822,69
442,82	1710,05
443,02	1730,53
443,23	1777,64
443,43	1761,25
443,64	1839,08
443,84	1642,47
444,05	1869,80
444,25	1732,58
444,46	1736,68
444,66	1757,16
444,87	1873,89
445,07	1621,99
445,28	1755,11
445,48	1804,26
445,69	1828,84
445,89	1910,75
446,09	1761,25
446,30	1996,77
446,50	2600,92
446,71	3684,30
446,91	4308,93
447,12	4593,59
447,32	4794,29
447,53	4243,39
447,73	3848,13
447,93	3573,71
448,14	3278,80
448,34	3155,92
448,55	2928,60
448,75	2811,86
448,96	2656,22
449,16	2447,32
449,36	2258,91
449,57	2031,58
449,77	1882,08
449,98	1839,08
450,18	1839,08
450,39	1855,46
450,59	1798,12
450,79	1730,53
451,00	1748,97
451,20	1830,88
451,41	1722,34
451,61	1806,31
451,81	1824,74
452,02	1798,12
452,22	1675,24
452,43	1834,98
452,63	1683,43
452,84	1712,10
453,04	1791,97
453,24	1804,26
453,45	1705,96
453,65	1798,12
453,86	1755,11
454,06	1781,73
454,26	1720,29
454,47	1728,49
454,67	1804,26
454,87	1751,01
455,08	1742,82
455,28	1785,83
455,49	1746,92
455,69	1667,05
455,89	1918,95
456,10	1802,21
456,30	1732,58
456,51	1757,16
456,71	1783,78
456,91	1732,58
457,12	1765,35
457,32	1757,16
457,52	1685,48
457,73	1777,64
457,93	1742,82
458,14	1691,62
458,34	1685,48
458,54	1714,15
458,75	1697,77
458,95	1775,59
459,15	1730,53
459,36	1816,55
459,56	1859,56
459,76	1882,08
459,97	1712,10
460,17	1746,92
460,37	1800,16
460,58	1712,10
460,78	1736,68
460,99	1742,82
461,19	1738,73
461,39	1814,50
461,60	1755,11
461,80	1812,45
462,00	1703,91
462,21	1728,49
462,41	1640,42
462,61	1712,10
462,82	1660,90
463,02	1769,44
463,22	1681,38
463,43	1843,17
463,63	1755,11
463,83	1808,36
464,04	1787,88
464,24	1763,30
464,44	1736,68
464,64	1734,63
464,85	1855,46
465,05	1796,07
465,25	1667,05
465,46	1701,86
465,66	1814,50
465,86	1785,83
466,07	1751,01
466,27	1665,00
466,47	1675,24
466,68	1724,39
466,88	1824,74
467,08	1755,11
467,29	1849,32
467,49	1730,53
467,69	1689,57
467,89	1712,10
468,10	1691,62
468,30	1738,73
468,50	1812,45
468,71	1816,55
468,91	1683,43
469,11	1923,04
469,31	1777,64
469,52	1687,53
469,72	1779,68
469,92	1798,12
470,13	1705,96
470,33	1775,59
470,53	1898,47
470,73	2097,12
470,94	2289,63
471,14	2271,20
471,34	2492,38
471,54	2367,45
471,75	2234,33
471,95	2111,46
472,15	2095,07
472,36	2058,21
472,56	2050,02
472,76	2068,45
472,96	2054,11
473,17	1857,51
473,37	1945,57
473,57	1730,53
473,77	1814,50
473,98	1718,25
474,18	1693,67
474,38	1910,75
474,58	1656,81
474,79	1751,01
474,99	1796,07
475,19	1867,75
475,39	1679,33
475,60	1734,63
475,80	1791,97
476,00	1710,05
476,20	1755,11
476,41	1814,50
476,61	1802,21
476,81	1875,94
477,01	1773,54
477,21	1787,88
477,42	1779,68
477,62	1679,33
477,82	1755,11
478,02	1595,37
478,23	1765,35
478,43	1669,09
478,63	1714,15
478,83	1755,11
479,03	1781,73
479,24	1783,78
479,44	1818,60
479,64	1751,01
479,84	1599,46
480,04	1708,01
480,25	1730,53
480,45	1775,59
480,65	1699,81
480,85	1748,97
481,06	1689,57
481,26	1720,29
481,46	1808,36
481,66	1732,58
481,86	1724,39
482,06	1779,68
482,27	1667,05
482,47	1681,38
482,67	1765,35
482,87	1734,63
483,07	1732,58
483,28	1677,29
483,48	1693,67
483,68	1724,39
483,88	1697,77
484,08	1593,32
484,29	1636,33
484,49	1691,62
484,69	1746,92
484,89	1769,44
485,09	1863,65
485,29	1810,40
485,50	1761,25
485,70	1646,57
485,90	1787,88
486,10	1826,79
486,30	1679,33
486,50	1828,84
486,71	1677,29
486,91	1720,29
487,11	1777,64
487,31	1683,43
487,51	1775,59
487,71	1708,01
487,91	1667,05
488,12	1689,57
488,32	1613,80
488,52	1701,86
488,72	1595,37
488,92	1728,49
489,12	1837,03
489,32	1804,26
489,53	1699,81
489,73	1681,38
489,93	1796,07
490,13	1753,06
490,33	1572,84
490,53	1777,64
490,73	1820,64
490,94	1673,19
491,14	1722,34
491,34	1789,92
491,54	2099,17
491,74	2627,54
491,94	3014,61
492,14	2955,22
492,34	2983,89
492,54	2842,58
492,75	2492,38
492,95	2512,86
493,15	2353,12
493,35	2285,53
493,55	2228,19
493,75	2119,65
493,95	2154,46
494,15	1970,15
494,35	1978,34
494,56	1849,32
494,76	1810,40
494,96	1775,59
495,16	1822,69
495,36	1718,25
495,56	1746,92
495,76	1767,40
495,96	1683,43
496,16	1724,39
496,36	1820,64
496,56	1808,36
496,77	1806,31
496,97	1720,29
497,17	1806,31
497,37	1683,43
497,57	1757,16
497,77	1779,68
497,97	1714,15
498,17	1718,25
498,37	1673,19
498,57	1794,02
498,77	1687,53
498,97	1724,39
499,17	1802,21
499,38	1824,74
499,58	1765,35
499,78	1695,72
499,98	1826,79
500,18	1697,77
500,38	1693,67
500,58	1933,28
500,78	2631,64
500,98	4474,81
501,18	5924,77
501,38	6715,29
501,58	6952,85
501,78	6524,83
501,98	5515,18
502,18	5093,30
502,38	4364,22
502,58	4097,99
502,78	3801,03
502,98	3549,13
503,18	3438,54
503,38	3131,34
503,59	2756,57
503,79	2719,70
503,99	2504,67
504,19	2199,52
504,39	2133,98
504,59	2224,09
504,79	2123,74
504,99	2082,78
505,19	1910,75
505,39	1912,80
505,59	1900,52
505,79	1918,95
505,99	1865,70
506,19	1869,80
506,39	1916,90
506,59	1812,45
506,79	1759,21
506,99	1812,45
507,19	1746,92
507,39	1748,97
507,59	1685,48
507,79	1796,07
507,99	1615,85
508,19	1726,44
508,39	1687,53
508,59	1708,01
508,79	1785,83
508,99	1839,08
509,19	1687,53
509,39	1830,88
509,59	1740,77
509,79	1714,15
509,99	1785,83
510,19	1841,12
510,39	1753,06
510,59	1759,21
510,79	1773,54
510,99	1642,47
511,19	1794,02
511,39	1849,32
511,59	1779,68
511,79	1787,88
511,99	1751,01
512,19	1890,28
512,38	1755,11
512,58	1675,24
512,78	1771,49
512,98	1773,54
513,18	1906,66
513,38	1695,72
513,58	1789,92
513,78	1665,00
513,98	1746,92
514,18	1726,44
514,38	1738,73
514,58	1837,03
514,78	1697,77
514,98	1718,25
515,18	1730,53
515,38	1697,77
515,58	1845,22
515,78	1652,71
515,98	1814,50
516,18	1697,77
516,38	1755,11
516,57	1683,43
516,77	1746,92
516,97	1781,73
517,17	1767,40
517,37	1624,04
517,57	1839,08
517,77	1777,64
517,97	1677,29
518,17	1802,21
518,37	1708,01
518,57	1703,91
518,77	1806,31
518,97	1697,77
519,16	1808,36
519,36	1814,50
519,56	1732,58
519,76	1816,55
519,96	1677,29
520,16	1814,50
520,36	1683,43
520,56	1816,55
520,76	1652,71
520,96	1769,44
521,16	1834,98
521,35	1810,40
521,55	1720,29
521,75	1701,86
521,95	1658,85
522,15	1736,68
522,35	1681,38
522,55	1652,71
522,75	1800,16
522,95	1794,02
523,14	1708,01
523,34	1765,35
523,54	1714,15
523,74	1791,97
523,94	1765,35
524,14	1671,14
524,34	1759,21
524,54	1818,60
524,73	1787,88
524,93	1769,44
525,13	1791,97
525,33	1675,24
525,53	1920,99
525,73	1828,84
525,93	1746,92
526,13	1757,16
526,32	1820,64
526,52	1761,25
526,72	1738,73
526,92	1779,68
527,12	1724,39
527,32	1632,23
527,52	1757,16
527,71	1779,68
527,91	1695,72
528,11	1757,16
528,31	1759,21
528,51	1689,57
528,71	1742,82
528,90	1746,92
529,10	1748,97
529,30	1857,51
529,50	1683,43
529,70	1699,81
529,90	1710,05
530,09	1759,21
530,29	1730,53
530,49	1660,90
530,69	1882,08
530,89	1736,68
531,09	1714,15
531,28	1742,82
531,48	1742,82
531,68	1816,55
531,88	1746,92
532,08	1773,54
532,28	1718,25
532,47	1759,21
532,67	1759,21
532,87	1738,73
533,07	1662,95
533,27	1771,49
533,46	1806,31
533,66	1796,07
533,86	1716,20
534,06	1669,09
534,26	1757,16
534,45	1675,24
534,65	1787,88
534,85	1816,55
535,05	1767,40
535,25	1789,92
535,44	1685,48
535,64	1775,59
535,84	1742,82
536,04	1697,77
536,24	1701,86
536,43	1730,53
536,63	1769,44
536,83	1708,01
537,03	1783,78
537,22	1677,29
537,42	1615,85
537,62	1755,11
537,82	1654,76
538,02	1759,21
538,21	1814,50
538,41	1869,80
538,61	1734,63
538,81	1746,92
539,00	1753,06
539,20	1615,85
539,40	1775,59
539,60	1853,41
539,79	1755,11
539,99	1734,63
540,19	1644,52
540,39	1800,16
540,58	1771,49
540,78	1789,92
540,98	1845,22
541,18	1822,69
541,37	1830,88
541,57	1730,53
541,77	1683,43
541,97	1677,29
542,16	1667,05
542,36	1748,97
542,56	1798,12
542,76	1814,50
542,95	1767,40
543,15	1753,06
543,35	1787,88
543,54	1630,18
543,74	1742,82
543,94	1775,59
544,14	1703,91
544,33	1738,73
544,53	1779,68
544,73	1710,05
544,93	1742,82
545,12	1724,39
545,32	1753,06
545,52	1757,16
545,71	1640,42
545,91	1617,90
546,11	1734,63
546,30	1732,58
546,50	1658,85
546,70	1744,87
546,90	1804,26
547,09	1705,96
547,29	1789,92
547,49	1755,11
547,68	1716,20
547,88	1675,24
548,08	1826,79
548,27	2160,61
548,47	1665,00
548,67	1646,57
548,87	1771,49
549,06	1671,14
549,26	1710,05
549,46	1751,01
549,65	1722,34
549,85	1775,59
550,05	1791,97
550,24	1677,29
550,44	1734,63
550,64	1728,49
550,83	1695,72
551,03	1828,84
551,23	1779,68
551,42	1738,73
551,62	1757,16
551,82	1708,01
552,01	1765,35
552,21	1834,98
552,41	1714,15
552,60	1861,60
552,80	1820,64
553,00	1699,81
553,19	1748,97
553,39	1824,74
553,59	1621,99
553,78	1789,92
553,98	1798,12
554,17	1710,05
554,37	1742,82
554,57	1769,44
554,76	1732,58
554,96	1697,77
555,16	1806,31
555,35	1746,92
555,55	1775,59
555,75	1753,06
555,94	1759,21
556,14	1656,81
556,33	1791,97
556,53	1718,25
556,73	1804,26
556,92	1808,36
557,12	1857,51
557,32	1830,88
557,51	1826,79
557,71	1765,35
557,90	1808,36
558,10	1767,40
558,30	1705,96
558,49	1736,68
558,69	1753,06
558,88	1769,44
559,08	1730,53
559,28	1708,01
559,47	1808,36
559,67	1804,26
559,86	1955,81
560,06	1794,02
560,26	1773,54
560,45	1687,53
560,65	1746,92
560,84	1800,16
561,04	1689,57
561,24	1789,92
561,43	1634,28
561,63	1841,12
561,82	1853,41
562,02	1769,44
562,22	1662,95
562,41	1699,81
562,61	1693,67
562,80	1691,62
563,00	1804,26
563,19	1814,50
563,39	1806,31
563,59	1769,44
563,78	1734,63
563,98	1615,85
564,17	1654,76
564,37	1710,05
564,56	1716,20
564,76	1671,14
564,96	1875,94
565,15	1818,60
565,35	1853,41
565,54	1660,90
565,74	1755,11
565,93	1773,54
566,13	1720,29
566,32	1769,44
566,52	1791,97
566,71	1789,92
566,91	1841,12
567,11	1759,21
567,30	1669,09
567,50	1748,97
567,69	1744,87
567,89	1742,82
568,08	1724,39
568,28	1783,78
568,47	1691,62
568,67	1791,97
568,86	1734,63
569,06	1847,27
569,25	1742,82
569,45	1732,58
569,64	1714,15
569,84	1738,73
570,04	1759,21
570,23	1779,68
570,43	1724,39
570,62	1724,39
570,82	1843,17
571,01	1658,85
571,21	1662,95
571,40	1763,30
571,60	1798,12
571,79	1789,92
571,99	1746,92
572,18	1689,57
572,38	1789,92
572,57	1703,91
572,77	1748,97
572,96	1898,47
573,16	1736,68
573,35	1763,30
573,55	1822,69
573,74	1769,44
573,94	1744,87
574,13	1728,49
574,33	1800,16
574,52	1869,80
574,71	1759,21
574,91	1828,84
575,10	1755,11
575,30	1753,06
575,49	1779,68
575,69	1734,63
575,88	1738,73
576,08	1740,77
576,27	1740,77
576,47	1796,07
576,66	1820,64
576,86	1877,99
577,05	1830,88
577,25	1789,92
577,44	1859,56
577,64	1748,97
577,83	1834,98
578,02	1701,86
578,22	1822,69
578,41	1845,22
578,61	1746,92
578,80	1720,29
579,00	1796,07
579,19	1761,25
579,39	1794,02
579,58	1828,84
579,77	1738,73
579,97	1902,56
580,16	1830,88
580,36	1820,64
580,55	1818,60
580,75	1736,68
580,94	1789,92
581,13	1857,51
581,33	1843,17
581,52	1687,53
581,72	1826,79
581,91	1865,70
582,11	1730,53
582,30	1791,97
582,49	1818,60
582,69	1888,23
582,88	1753,06
583,08	1773,54
583,27	1853,41
583,47	1818,60
583,66	1736,68
583,85	1748,97
584,05	1748,97
584,24	1765,35
584,44	1767,40
584,63	1796,07
584,82	1775,59
585,02	1773,54
585,21	1814,50
585,41	1781,73
585,60	1806,31
585,79	1886,18
585,99	1947,62
586,18	1845,22
586,37	2160,61
586,57	3428,30
586,76	9924,46
586,96	24014,48
587,15	34215,41
587,34	39865,76
587,54	41352,58
587,73	36408,79
587,93	25876,09
588,12	21290,68
588,31	18071,28
588,51	16023,31
588,70	14827,29
588,89	13989,67
589,09	12322,63
589,28	10805,08
589,47	9412,46
589,67	7987,08
589,86	6326,18
590,06	5017,52
590,25	3885,00
590,44	3069,91
590,64	2590,68
590,83	2303,96
591,02	2050,02
591,22	1898,47
591,41	2015,20
591,60	1826,79
591,80	1904,61
591,99	1775,59
592,18	1822,69
592,38	1787,88
592,57	1787,88
592,76	1777,64
592,96	1812,45
593,15	1742,82
593,34	1824,74
593,54	1843,17
593,73	1738,73
593,92	1826,79
594,12	1724,39
594,31	1701,86
594,50	1761,25
594,70	1804,26
594,89	1929,19
595,08	1697,77
595,28	1861,60
595,47	1955,81
595,66	1908,71
595,86	1626,09
596,05	1746,92
596,24	1689,57
596,43	1859,56
596,63	1753,06
596,82	1703,91
597,01	1832,93
597,21	1894,37
597,40	1781,73
597,59	1693,67
597,79	1708,01
597,98	1773,54
598,17	1753,06
598,36	1720,29
598,56	1802,21
598,75	1695,72
598,94	1726,44
599,14	1755,11
599,33	1708,01
599,52	1777,64
599,71	1728,49
599,91	1857,51
600,10	1728,49
600,29	1812,45
600,48	1783,78
600,68	1773,54
600,87	1740,77
601,06	1683,43
601,26	1763,30
601,45	1867,75
601,64	1701,86
601,83	1740,77
602,03	1777,64
602,22	1683,43
602,41	1789,92
602,60	1877,99
602,80	1769,44
602,99	1722,34
603,18	1701,86
603,37	1740,77
603,57	1753,06
603,76	1744,87
603,95	1837,03
604,14	1765,35
604,34	1740,77
604,53	1748,97
604,72	1759,21
604,91	1775,59
605,10	1824,74
605,30	1685,48
605,49	1923,04
605,68	1800,16
605,87	1736,68
606,07	1724,39
606,26	1738,73
606,45	1845,22
606,64	1816,55
606,84	1724,39
607,03	1669,09
607,22	1804,26
607,41	1755,11
607,60	1693,67
607,80	1800,16
607,99	1822,69
608,18	1683,43
608,37	1771,49
608,56	1662,95
608,76	1794,02
608,95	1828,84
609,14	1761,25
609,33	1660,90
609,52	1730,53
609,72	1755,11
609,91	1832,93
610,10	1720,29
610,29	1771,49
610,48	1791,97
610,68	1722,34
610,87	1710,05
611,06	1767,40
611,25	1734,63
611,44	1789,92
611,63	1712,10
611,83	1779,68
612,02	1742,82
612,21	1871,84
612,40	1742,82
612,59	1742,82
612,79	1742,82
612,98	1687,53
613,17	1914,85
613,36	1783,78
613,55	1890,28
613,74	1718,25
613,93	1755,11
614,13	1720,29
614,32	1687,53
614,51	1746,92
614,70	1650,66
614,89	1734,63
615,08	1746,92
615,28	2133,98
615,47	1665,00
615,66	1710,05
615,85	1642,47
616,04	1814,50
616,23	1796,07
616,42	1748,97
616,62	1654,76
616,81	1771,49
617,00	1755,11
617,19	1806,31
617,38	1701,86
617,57	1728,49
617,76	1726,44
617,95	1730,53
618,15	1759,21
618,34	1769,44
618,53	1654,76
618,72	1781,73
618,91	1789,92
619,10	1751,01
619,29	1677,29
619,48	1800,16
619,68	1689,57
619,87	1771,49
620,06	1613,80
620,25	1800,16
620,44	1730,53
620,63	1746,92
620,82	1681,38
621,01	1740,77
621,20	1679,33
621,39	1751,01
621,59	1746,92
621,78	1746,92
621,97	1644,52
622,16	1775,59
622,35	1794,02
622,54	1787,88
622,73	1841,12
622,92	1605,61
623,11	1777,64
623,30	1740,77
623,49	1771,49
623,68	1669,09
623,88	1787,88
624,07	1718,25
624,26	1714,15
624,45	1740,77
624,64	1708,01
624,83	1763,30
625,02	1767,40
625,21	1771,49
625,40	1722,34
625,59	1708,01
625,78	1679,33
625,97	1722,34
626,16	1814,50
626,35	1724,39
626,54	1726,44
626,74	1814,50
626,93	1693,67
627,12	1693,67
627,31	1839,08
627,50	1767,40
627,69	1771,49
627,88	1677,29
628,07	1683,43
628,26	1646,57
628,45	1689,57
628,64	1605,61
628,83	1773,54
629,02	1607,66
629,21	1800,16
629,40	1826,79
629,59	1697,77
629,78	1751,01
629,97	1753,06
630,16	1753,06
630,35	1652,71
630,54	1689,57
630,73	1677,29
630,92	1753,06
631,11	1642,47
631,30	1730,53
631,49	1765,35
631,68	1781,73
631,87	1695,72
632,06	1636,33
632,25	1863,65
632,44	1689,57
632,63	1708,01
632,82	1705,96
633,01	1701,86
633,20	1685,48
633,39	1656,81
633,58	1558,50
633,77	1718,25
633,96	1677,29
634,15	1791,97
634,34	1779,68
634,53	1685,48
634,72	1718,25
634,91	1587,18
635,10	1816,55
635,29	1773,54
635,48	1759,21
635,67	1681,38
635,86	1677,29
636,05	1798,12
636,24	1744,87
636,43	1685,48
636,62	1765,35
636,81	1630,18
637,00	1660,90
637,19	1761,25
637,38	1724,39
637,57	1714,15
637,76	1632,23
637,95	1728,49
638,14	1648,61
638,33	1654,76
638,52	1736,68
638,71	1738,73
638,89	1665,00
639,08	1828,84
639,27	1796,07
639,46	1681,38
639,65	1826,79
639,84	1761,25
640,03	1748,97
640,22	1636,33
640,41	1888,23
640,60	1642,47
640,79	1759,21
640,98	1746,92
641,17	1687,53
641,36	1736,68
641,55	1767,40
641,74	1630,18
641,92	1716,20
642,11	1654,76
642,30	1687,53
642,49	1705,96
642,68	1742,82
642,87	1785,83
643,06	1759,21
643,25	1685,48
643,44	1669,09
643,63	1746,92
643,82	1779,68
644,00	1730,53
644,19	1736,68
644,38	1693,67
644,57	1755,11
644,76	1714,15
644,95	1673,19
645,14	1722,34
645,33	1714,15
645,52	1656,81
645,71	1646,57
645,89	1648,61
646,08	1687,53
646,27	1722,34
646,46	1828,84
646,65	1609,70
646,84	1697,77
647,03	1656,81
647,22	1767,40
647,40	1775,59
647,59	1656,81
647,78	1665,00
647,97	1656,81
648,16	1767,40
648,35	1732,58
648,54	1816,55
648,73	1658,85
648,91	1761,25
649,10	1748,97
649,29	1759,21
649,48	1732,58
649,67	1714,15
649,86	1675,24
650,05	1697,77
650,23	1839,08
650,42	1650,66
650,61	1763,30
650,80	1761,25
650,99	1839,08
651,18	1775,59
651,36	1810,40
651,55	1728,49
651,74	1781,73
651,93	1732,58
652,12	1734,63
652,31	1730,53
652,49	1667,05
652,68	1685,48
652,87	1708,01
653,06	1763,30
653,25	1812,45
653,44	1677,29
653,62	1804,26
653,81	1681,38
654,00	1736,68
654,19	1697,77
654,38	1861,60
654,56	1767,40
654,75	1712,10
654,94	1755,11
655,13	1765,35
655,32	1699,81
655,51	1736,68
655,69	1650,66
655,88	1812,45
656,07	1615,85
656,26	1710,05
656,45	1675,24
656,63	1632,23
656,82	1796,07
657,01	1783,78
657,20	1722,34
657,38	1789,92
657,57	1673,19
657,76	1656,81
657,95	1746,92
658,14	1714,15
658,32	1746,92
658,51	1638,38
658,70	1755,11
658,89	1753,06
659,08	1685,48
659,26	1857,51
659,45	1726,44
659,64	1718,25
659,83	1705,96
660,01	1976,29
660,20	1699,81
660,39	1839,08
660,58	1613,80
660,76	1771,49
660,95	1662,95
661,14	1730,53
661,33	1658,85
661,51	1718,25
661,70	1605,61
661,89	1742,82
662,08	1712,10
662,26	1615,85
662,45	1679,33
662,64	1806,31
662,83	1757,16
663,01	1632,23
663,20	1726,44
663,39	1802,21
663,58	1619,94
663,76	1757,16
663,95	1759,21
664,14	1722,34
664,32	1632,23
664,51	1751,01
664,70	1583,08
664,89	1746,92
665,07	1638,38
665,26	1712,10
665,45	1740,77
665,64	1837,03
665,82	1736,68
666,01	1787,88
666,20	1658,85
666,38	1830,88
666,57	1914,85
666,76	2164,70
666,95	4612,03
667,13	10442,59
667,32	15294,23
667,51	17608,44
667,69	18929,38
667,88	17542,90
668,07	11939,66
668,25	9418,61
668,44	8148,87
668,63	7235,47
668,81	6901,65
669,00	6223,78
669,19	5746,60
669,38	5085,11
669,56	4442,04
669,75	3940,29
669,94	3360,72
670,12	2916,31
670,31	2582,49
670,50	2344,92
670,68	2009,06
670,87	1910,75
671,06	1794,02
671,24	1796,07
671,43	1822,69
671,62	1849,32
671,80	1726,44
671,99	1742,82
672,18	1693,67
672,36	1773,54
672,55	1685,48
672,74	1761,25
672,92	1679,33
673,11	1787,88
673,29	1746,92
673,48	1787,88
673,67	1671,14
673,85	1744,87
674,04	1648,61
674,23	1781,73
674,41	1796,07
674,60	1787,88
674,79	1667,05
674,97	1656,81
675,16	1785,83
675,34	1710,05
675,53	1726,44
675,72	1738,73
675,90	1765,35
676,09	1710,05
676,28	1742,82
676,46	1669,09
676,65	1794,02
676,83	1716,20
677,02	1712,10
677,21	1695,72
677,39	1779,68
677,58	1640,42
677,77	1689,57
677,95	1701,86
678,14	1665,00
678,32	1724,39
678,51	1660,90
678,70	1896,42
678,88	1771,49
679,07	1812,45
679,25	1757,16
679,44	1673,19
679,63	1691,62
679,81	1773,54
680,00	1785,83
680,18	1730,53
680,37	1748,97
680,55	1716,20
680,74	1632,23
680,93	1619,94
681,11	1769,44
681,30	1724,39
681,48	1738,73
681,67	1697,77
681,85	1722,34
682,04	1638,38
682,23	1787,88
682,41	1712,10
682,60	1722,34
682,78	1632,23
682,97	1667,05
683,15	1679,33
683,34	1767,40
683,53	1765,35
683,71	1617,90
683,90	1806,31
684,08	1796,07
684,27	1658,85
684,45	1740,77
684,64	1822,69
684,82	1658,85
685,01	1714,15
685,19	1642,47
685,38	1865,70
685,57	1636,33
685,75	1703,91
685,94	1734,63
686,12	1697,77
686,31	1697,77
686,49	1806,31
686,68	1726,44
686,86	1765,35
687,05	1742,82
687,23	1869,80
687,42	1708,01
687,60	1652,71
687,79	1736,68
687,97	1845,22
688,16	1796,07
688,34	1767,40
688,53	1660,90
688,71	1751,01
688,90	1767,40
689,08	1730,53
689,27	1626,09
689,45	1763,30
689,64	1806,31
689,82	1699,81
690,01	1734,63
690,19	1675,24
690,38	1724,39
690,56	1851,36
690,75	1728,49
690,93	1662,95
691,12	1646,57
691,30	1697,77
691,49	1753,06
691,67	1753,06
691,86	1769,44
692,04	1654,76
692,23	1773,54
692,41	1689,57
692,60	1824,74
692,78	1812,45
692,97	1720,29
693,15	1744,87
693,34	1818,60
693,52	1720,29
693,71	1708,01
693,89	1687,53
694,08	1652,71
694,26	1855,46
694,44	1718,25
694,63	1796,07
694,81	1720,29
695,00	1658,85
695,18	1763,30
695,37	1869,80
695,55	1734,63
695,74	1738,73
695,92	1695,72
696,10	1781,73
696,29	1640,42
696,47	1689,57
696,66	1607,66
696,84	1732,58
697,03	1697,77
697,21	1834,98
697,40	2332,64
697,58	1804,26
697,76	1636,33
697,95	1695,72
698,13	1691,62
698,32	1652,71
698,50	1744,87
698,68	1708,01
698,87	1785,83
699,05	1806,31
699,24	1679,33
699,42	1671,14
699,61	1705,96
699,79	1710,05
699,97	1652,71
700,16	1658,85
700,34	1587,18
700,53	1691,62
700,71	1800,16
700,89	1849,32
701,08	1667,05
701,26	1753,06
701,45	2189,28
701,63	1656,81
701,81	1761,25
702,00	1687,53
702,18	1785,83
702,37	1671,14
702,55	1779,68
702,73	1763,30
702,92	1624,04
703,10	1658,85
703,28	1742,82
703,47	1609,70
703,65	1832,93
703,84	1787,88
704,02	1695,72
704,20	1832,93
704,39	1734,63
704,57	1779,68
704,75	1845,22
704,94	1769,44
705,12	1658,85
705,30	1816,55
705,49	2269,15
705,67	4308,93
705,86	9254,77
706,04	12506,95
706,22	14296,87
706,41	15157,02
706,59	13461,30
706,77	9469,81
706,96	7270,29
707,14	6490,01
707,32	5873,57
707,51	5498,80
707,69	4837,30
707,87	4118,47
708,06	3444,68
708,24	3018,71
708,42	2320,35
708,61	2238,43
708,79	1800,16
708,97	1902,56
709,16	1759,21
709,34	1738,73
709,52	1779,68
709,71	1753,06
709,89	1759,21
710,07	1681,38
710,26	1660,90
710,44	1802,21
710,62	1748,97
710,80	1783,78
710,99	1695,72
711,17	1714,15
711,35	1652,71
711,54	1720,29
711,72	1785,83
711,90	1734,63
712,09	1724,39
712,27	1593,32
712,45	1800,16
712,63	1765,35
712,82	1724,39
713,00	1720,29
713,18	1767,40
713,37	1769,44
713,55	1726,44
713,73	1697,77
713,91	1800,16
714,10	1693,67
714,28	1693,67
714,46	1736,68
714,65	1695,72
714,83	1744,87
715,01	1648,61
715,19	1656,81
715,38	1656,81
715,56	1699,81
715,74	1693,67
715,92	1769,44
716,11	1810,40
716,29	1533,93
716,47	1712,10
716,65	1705,96
716,84	1619,94
717,02	1773,54
717,20	1609,70
717,38	1665,00
717,57	1685,48
717,75	1716,20
717,93	1640,42
718,11	1730,53
718,30	1712,10
718,48	1765,35
718,66	1775,59
718,84	1806,31
719,03	1720,29
719,21	1601,51
719,39	1806,31
719,57	1728,49
719,75	1812,45
719,94	1708,01
720,12	1738,73
720,30	1701,86
720,48	1834,98
720,67	1691,62
720,85	1642,47
721,03	1687,53
721,21	1642,47
721,39	1724,39
721,58	1673,19
721,76	1730,53
721,94	1767,40
722,12	1808,36
722,30	1826,79
722,49	1736,68
722,67	1720,29
722,85	1742,82
723,03	1626,09
723,21	1671,14
723,40	1677,29
723,58	1714,15
723,76	1816,55
723,94	1845,22
724,12	1687,53
724,30	1779,68
724,49	1726,44
724,67	1585,13
724,85	1814,50
725,03	1652,71
725,21	1740,77
725,40	1732,58
725,58	1662,95
725,76	1775,59
725,94	1640,42
726,12	1621,99
726,30	1748,97
726,49	1712,10
726,67	1730,53
726,85	1671,14
727,03	1748,97
727,21	2260,96
727,39	2906,07
727,57	3784,65
727,76	4126,66
727,94	4392,89
728,12	4456,38
728,30	3672,01
728,48	2934,74
728,66	2738,13
728,84	2627,54
729,03	2263,01
729,21	2189,28
729,39	1994,72
729,57	1845,22
729,75	1843,17
729,93	1837,03
730,11	1724,39
730,30	1822,69
730,48	1824,74
730,66	1736,68
730,84	1689,57
731,02	1742,82
731,20	1697,77
731,38	1730,53
731,56	1677,29
731,74	1572,84
731,93	1665,00
732,11	1779,68
732,29	1656,81
732,47	1736,68
732,65	1681,38
732,83	1759,21
733,01	1722,34
733,19	1667,05
733,37	1693,67
733,56	1785,83
733,74	1636,33
733,92	1746,92
734,10	1714,15
734,28	1738,73
734,46	1595,37
734,64	1689,57
734,82	1652,71
735,00	1603,56
735,18	1654,76
735,36	1728,49
735,54	1734,63
735,73	1734,63
735,91	1687,53
736,09	1736,68
736,27	1683,43
736,45	1726,44
736,63	1638,38
736,81	1748,97
736,99	1740,77
737,17	1834,98
737,35	1728,49
737,53	1726,44
737,71	1669,09
737,89	1755,11
738,07	1658,85
738,25	1609,70
738,43	1624,04
738,61	1691,62
738,80	1613,80
738,98	1691,62
739,16	1615,85
739,34	1673,19
739,52	1757,16
739,70	1693,67
739,88	1771,49
740,06	1843,17
740,24	1583,08
740,42	1775,59
740,60	1611,75
740,78	1710,05
740,96	1578,98
741,14	1636,33
741,32	1689,57
741,50	1685,48
741,68	1871,84
741,86	1775,59
742,04	1697,77
742,22	1673,19
742,40	1652,71
742,58	1689,57
742,76	1669,09
742,94	1820,64
743,12	1673,19
743,30	1667,05
743,48	1703,91
743,66	1683,43
743,84	1693,67
744,02	1624,04
744,20	1685,48
744,38	1677,29
744,56	1648,61
744,74	1748,97
744,92	1726,44
745,10	1724,39
745,28	1738,73
745,46	1855,46
745,64	1673,19
745,82	1746,92
746,00	1732,58
746,18	1767,40
746,36	1589,22
746,54	1736,68
746,72	1613,80
746,90	1693,67
747,08	1734,63
747,26	1636,33
747,44	1718,25
747,62	1759,21
747,80	1736,68
747,98	1777,64
748,15	1669,09
748,33	1810,40
748,51	1693,67
748,69	1701,86
748,87	1611,75
749,05	1710,05
749,23	1697,77
749,41	1757,16
749,59	1683,43
749,77	1748,97
749,95	1726,44
750,13	1611,75
750,31	1765,35
750,49	1730,53
750,67	1652,71
750,85	1785,83
751,03	1740,77
751,20	1753,06
751,38	1710,05
751,56	1691,62
751,74	1644,52
751,92	1722,34
752,10	1613,80
752,28	1742,82
752,46	1665,00
752,64	1753,06
752,82	1744,87
753,00	1814,50
753,18	1658,85
753,35	1683,43
753,53	1761,25
753,71	1742,82
753,89	1787,88
754,07	1679,33
754,25	1802,21
754,43	1675,24
754,61	1742,82
754,79	1705,96
754,97	1646,57
755,14	1820,64
755,32	1654,76
755,50	1632,23
755,68	1775,59
755,86	1742,82
756,04	1769,44
756,22	1646,57
756,40	1781,73
756,57	1896,42
756,75	1705,96
756,93	1775,59
757,11	1685,48
757,29	1685,48
757,47	1652,71
757,65	1654,76
757,82	1599,46
758,00	1693,67
758,18	1718,25
758,36	1718,25
758,54	1800,16
758,72	1646,57
758,90	1834,98
759,07	1730,53
759,25	1757,16
759,43	1740,77
759,61	1673,19
759,79	2179,04
759,97	1658,85
760,15	1726,44
760,32	1658,85
760,50	1769,44
760,68	1837,03
760,86	1738,73
761,04	1736,68
761,22	1808,36
761,39	1769,44
761,57	1746,92
761,75	1726,44
761,93	1732,58
762,11	1669,09
762,28	1751,01
762,46	1693,67
762,64	1714,15
762,82	1578,98
763,00	1677,29
763,18	1806,31
763,35	1738,73
763,53	1789,92
763,71	1658,85
763,89	1755,11
764,07	1753,06
764,24	1718,25
764,42	1716,20
764,60	1740,77
764,78	1757,16
764,96	1761,25
765,13	1814,50
765,31	1720,29
765,49	1705,96
765,67	1644,52
765,84	1601,51
766,02	1712,10
766,20	1697,77
766,38	1658,85
766,56	1712,10
766,73	1789,92
766,91	1685,48
767,09	1751,01
767,27	1742,82
767,44	1638,38
767,62	1699,81
767,80	1722,34
767,98	1681,38
768,15	1624,04
768,33	1755,11
768,51	1755,11
768,69	1740,77
768,87	1763,30
769,04	1710,05
769,22	1816,55
769,40	1847,27
769,58	1843,17
769,75	1701,86
769,93	1773,54
770,11	1728,49
770,28	1652,71
770,46	1720,29
770,64	1744,87
770,82	1677,29
770,99	1621,99
771,17	1695,72
771,35	1724,39
771,53	1783,78
771,70	1742,82
771,88	1728,49
772,06	1738,73
772,23	1667,05
772,41	1740,77
772,59	1765,35
772,77	1656,81
772,94	1699,81
773,12	1665,00
773,30	1675,24
773,47	1712,10
773,65	1665,00
773,83	1884,13
774,01	1699,81
774,18	1572,84
774,36	1652,71
774,54	1718,25
774,71	1781,73
774,89	1624,04
775,07	1671,14
775,24	1679,33
775,42	1693,67
775,60	1834,98
775,78	1720,29
775,95	1601,51
776,13	1632,23
776,31	1560,55
776,48	1689,57
776,66	1740,77
776,84	1624,04
777,01	1628,14
777,19	1726,44
777,37	1732,58
777,54	1755,11
777,72	1824,74
777,90	1705,96
778,07	1765,35
778,25	1888,23
778,43	1802,21
778,60	1701,86
778,78	1763,30
778,96	1912,80
779,13	1619,94
779,31	1796,07
779,49	1677,29
779,66	1714,15
779,84	1734,63
780,01	1673,19
780,19	1695,72
780,37	1695,72
780,54	1689,57
780,72	1619,94
780,90	1665,00
781,07	1728,49
781,25	1722,34
781,43	1658,85
781,60	1703,91
781,78	1904,61
781,95	1755,11
782,13	1648,61
782,31	1732,58
782,48	1613,80
782,66	1740,77
782,83	1806,31
783,01	1685,48
783,19	1767,40
783,36	1757,16
783,54	1636,33
783,72	1753,06
783,89	1632,23
784,07	1742,82
784,24	1746,92
784,42	1804,26
784,60	1742,82
784,77	1771,49
784,95	1613,80
785,12	1705,96
785,30	1718,25
785,47	1677,29
785,65	1669,09
785,83	1722,34
786,00	1693,67
786,18	1683,43
786,35	1689,57
786,53	1703,91
786,71	1759,21
786,88	1763,30
787,06	1718,25
787,23	1740,77
787,41	1671,14
787,58	1677,29
787,76	1583,08
787,94	1722,34
788,11	1761,25
788,29	1636,33
788,46	1626,09
788,64	1638,38
788,81	1705,96
788,99	1648,61
789,16	1671,14
789,34	1773,54
789,52	1712,10
789,69	1671,14
789,87	1574,89
790,04	1779,68
790,22	1695,72
790,39	1781,73
790,57	1615,85
790,74	1646,57
790,92	1744,87
791,09	1626,09
791,27	1673,19
791,44	1785,83
791,62	1718,25
791,79	1701,86
791,97	1703,91
792,15	1863,65
792,32	1761,25
792,50	1789,92
792,67	1810,40
792,85	1789,92
793,02	1806,31
793,20	1632,23
793,37	1628,14
793,55	1748,97
793,72	1662,95
793,90	1767,40
794,07	1740,77
794,25	1587,18
794,42	1740,77
794,60	1812,45
794,77	1705,96
794,95	1820,64
795,12	1738,73
795,30	1724,39
795,47	1677,29
795,65	1898,47
795,82	1671,14
796,00	1669,09
796,17	1710,05
796,34	1656,81
796,52	1691,62
796,69	1779,68
796,87	1812,45
797,04	1751,01
797,22	1753,06
797,39	1740,77
797,57	1832,93
797,74	1748,97
797,92	1783,78
798,09	1695,72
798,27	1779,68
798,44	1697,77
798,62	1683,43
798,79	1710,05
798,96	1718,25
799,14	1742,82
799,31	1906,66
799,49	1718,25
799,66	1726,44
799,84	1779,68
800,01	1638,38
800,19	1773,54
800,36	1599,46
800,53	1701,86
800,71	1654,76
800,88	1820,64
801,06	1689,57
801,23	1701,86
801,41	1738,73
801,58	1703,91
801,75	1642,47
801,93	1722,34
802,10	1730,53
802,28	1730,53
802,45	1640,42
802,63	1767,40
802,80	1746,92
802,97	1722,34
803,15	1681,38
803,32	1648,61
803,50	1603,56
803,67	1689,57
803,84	1695,72
804,02	1699,81
804,19	1669,09
804,37	1560,55
804,54	1656,81
804,71	1712,10
804,89	1708,01
805,06	1611,75
805,24	1624,04
805,41	1671,14
805,58	1660,90
805,76	1849,32
805,93	1726,44
806,10	1718,25
806,28	1804,26
806,45	1708,01
806,63	1738,73
806,80	1730,53
806,97	1767,40
807,15	1701,86
807,32	1822,69
807,49	1638,38
807,67	1615,85
807,84	1703,91
808,01	1646,57
808,19	1906,66
808,36	1830,88
808,54	1703,91
808,71	1744,87
808,88	1685,48
809,06	1726,44
809,23	1802,21
809,40	1644,52
809,58	1832,93
809,75	1642,47
809,92	1560,55
810,10	1804,26
810,27	1691,62
810,44	1716,20
810,62	1806,31
810,79	1744,87
810,96	1662,95
811,14	1759,21
811,31	1699,81
811,48	1810,40
811,66	1761,25
811,83	1722,34
812,00	1734,63
812,18	1734,63
812,35	1810,40
812,52	1693,67
812,69	1601,51
812,87	1732,58
813,04	1640,42
813,21	1665,00
813,39	1685,48
813,56	1630,18
813,73	1710,05
813,91	1708,01
814,08	1783,78
814,25	1656,81
814,42	1626,09
814,60	1665,00
814,77	1755,11
814,94	1736,68
815,12	1757,16
815,29	1828,84
815,46	1712,10
815,63	1767,40
815,81	1734,63
815,98	1703,91
816,15	1796,07
816,33	1691,62
816,50	1667,05
816,67	1755,11
816,84	1722,34
817,02	1658,85
817,19	1734,63
817,36	1660,90
817,53	1746,92
817,71	1679,33
817,88	1777,64
818,05	1712,10
818,22	1689,57
818,40	1869,80
818,57	1730,53
818,74	1751,01
818,91	1703,91
819,09	1738,73
819,26	1779,68
819,43	1640,42
819,60	1673,19
819,78	1736,68
819,95	1751,01
820,12	1654,76
820,29	1777,64
820,47	1800,16
820,64	1681,38
820,81	1640,42
820,98	1613,80
821,15	1714,15
821,33	1771,49
821,50	1560,55
821,67	1724,39
821,84	1734,63
822,02	1769,44
822,19	1845,22
822,36	1712,10
822,53	1656,81
822,70	1654,76
822,88	1722,34
823,05	1765,35
823,22	1746,92
823,39	1761,25
823,56	1744,87
823,74	1775,59
823,91	1652,71
824,08	1638,38
824,25	1626,09
824,42	1765,35
824,60	1624,04
824,77	1763,30
824,94	1673,19
825,11	1734,63
825,28	1613,80
825,45	1773,54
825,63	1712,10
825,80	1662,95
825,97	1767,40
826,14	1722,34
826,31	1542,12
826,48	1677,29
826,66	1695,72
826,83	1673,19
827,00	1767,40
827,17	1683,43
827,34	1802,21
827,51	1687,53
827,69	1718,25
827,86	1685,48
828,03	1728,49
828,20	1751,01
828,37	1677,29
828,54	1757,16
828,71	1703,91
828,89	1785,83
829,06	1789,92
829,23	1736,68
829,40	1695,72
829,57	1669,09
829,74	1804,26
829,91	1583,08
830,09	1658,85
830,26	1740,77
830,43	1757,16
830,60	1634,28
830,77	1685,48
830,94	1771,49
831,11	1734,63
831,28	1708,01
831,46	1810,40
831,63	1662,95
831,80	1796,07
831,97	1656,81
832,14	1693,67
832,31	1740,77
832,48	1714,15
832,65	1767,40
832,82	1785,83
832,99	1812,45
833,17	1621,99
833,34	1779,68
833,51	1619,94
833,68	1646,57
833,85	1789,92
834,02	1705,96
834,19	1660,90
834,36	1755,11
834,53	1738,73
834,70	1804,26
834,87	1728,49
835,04	1742,82
835,22	1675,24
835,39	1710,05
835,56	1677,29
835,73	1730,53
835,90	1742,82
836,07	1638,38
836,24	1716,20
836,41	1636,33
836,58	1712,10
836,75	1673,19
836,92	1738,73
837,09	1665,00
837,26	1744,87
837,43	1683,43
837,60	1738,73
837,77	1658,85
837,94	1714,15
838,12	1746,92
838,29	1779,68
838,46	1644,52
838,63	1681,38
838,80	1773,54
838,97	1771,49
839,14	1791,97
839,31	1697,77
839,48	1763,30
839,65	1765,35
839,82	1787,88
839,99	1693,67
840,16	1730,53
840,33	1636,33
840,50	1685,48
840,67	1730,53
840,84	1619,94
841,01	1775,59
841,18	1615,85
841,35	1642,47
841,52	1777,64
841,69	1802,21
841,86	1746,92
842,03	1669,09
842,20	1742,82
842,37	1652,71
842,54	1646,57
842,71	1732,58
842,88	1640,42
843,05	1773,54
843,22	1746,92
843,39	1767,40
843,56	1724,39
843,73	1738,73
843,90	1742,82
844,07	1662,95
844,24	1757,16
844,41	1722,34
844,58	1738,73
844,75	1708,01
844,92	1765,35
845,09	1689,57
845,26	1624,04
845,43	1677,29
845,60	1671,14
845,77	1757,16
845,94	1714,15
846,10	1767,40
846,27	1689,57
846,44	1667,05
846,61	1675,24
846,78	1685,48
846,95	1691,62
847,12	1714,15
847,29	1718,25
847,46	1705,96
847,63	1796,07
847,80	1677,29
847,97	1671,14
848,14	1812,45
848,31	1665,00
848,48	1642,47
848,65	1769,44
848,82	1724,39
848,98	1837,03
849,15	1701,86
849,32	1705,96
849,49	1722,34
849,66	1619,94
849,83	1755,11
850,00	1640,42
850,17	1705,96
850,34	1644,52
850,51	1703,91
850,68	1652,71
850,85	1904,61
851,01	1773,54
851,18	1691,62
851,35	1699,81
851,52	1681,38
851,69	1794,02
851,86	1660,90
852,03	1712,10
852,20	1763,30
852,37	1755,11
852,53	1687,53
852,70	1683,43
852,87	1730,53
853,04	1732,58
853,21	1736,68
853,38	1765,35
853,55	1763,30
853,72	1761,25
853,89	1613,80
854,05	1685,48
854,22	1714,15
854,39	1552,36
854,56	1697,77
854,73	1808,36
854,90	1660,90
855,07	1699,81
855,23	1660,90
855,40	1728,49
855,57	1746,92
855,74	1597,42
855,91	1871,84
856,08	1656,81
856,25	1644,52
856,41	1699,81
856,58	1648,61
856,75	1671,14
856,92	1626,09
857,09	1732,58
857,26	1603,56
857,42	1650,66
857,59	1730,53
857,76	1746,92
857,93	1738,73
858,10	1695,72
858,27	1644,52
858,43	1724,39
858,60	1703,91
858,77	1665,00
858,94	1624,04
859,11	1691,62
859,27	1806,31
859,44	1667,05
859,61	1834,98
859,78	1671,14
859,95	1669,09
860,12	1617,90
860,28	1806,31
860,45	1861,60
860,62	1626,09
860,79	1708,01
860,95	1781,73
861,12	1656,81
861,29	1712,10
861,46	1634,28
861,63	1695,72
861,79	1744,87
861,96	1710,05
862,13	1619,94
862,30	1746,92
862,47	1568,74
862,63	1642,47
862,80	1785,83
862,97	1669,09
863,14	1753,06
863,30	1798,12
863,47	1689,57
863,64	1757,16
863,81	1714,15
863,97	1751,01
864,14	1693,67
864,31	1701,86
864,48	1634,28
864,65	1775,59
864,81	1705,96
864,98	1812,45
865,15	1771,49
865,32	1753,06
865,48	1832,93
865,65	1779,68
865,82	1640,42
865,98	1722,34
866,15	1787,88
866,32	1642,47
866,49	1716,20
866,65	1800,16
866,82	1732,58
866,99	1660,90
867,16	1570,79
867,32	1675,24
867,49	1652,71
867,66	1732,58
867,83	1722,34
867,99	1593,32
868,16	1611,75
868,33	1644,52
868,49	1667,05
868,66	1677,29
868,83	1759,21
868,99	1791,97
869,16	1726,44
869,33	1796,07
869,50	1716,20
869,66	1660,90
869,83	1636,33
870,00	1652,71
870,16	1748,97
870,33	1679,33
870,50	1779,68
870,66	1777,64
870,83	1755,11
871,00	1677,29
871,17	1689,57
871,33	1837,03
871,50	1636,33
871,67	1685,48
871,83	1685,48
872,00	1806,31
872,17	1703,91
872,33	1773,54
872,50	1822,69
872,67	1681,38
872,83	1769,44
873,00	1656,81
873,17	1730,53
873,33	1714,15
873,50	1785,83
873,67	1642,47
873,83	1636,33
874,00	1669,09
874,16	1802,21
874,33	1722,34
874,50	1652,71
874,66	1640,42
874,83	1652,71
875,00	1777,64
875,16	1708,01
875,33	1757,16
875,50	1599,46
875,66	1667,05
875,83	1677,29
875,99	1814,50
876,16	1654,76
876,33	1679,33
876,49	1732,58
876,66	1710,05
876,83	1703,91
876,99	1624,04
877,16	1708,01
877,32	1714,15
877,49	1650,66
877,66	1724,39
877,82	1771,49
877,99	1753,06
878,15	1798,12
878,32	1730,53
878,49	1673,19
878,65	1714,15
878,82	1748,97
878,98	1730,53
879,15	1826,79
879,32	1781,73
879,48	1687,53
879,65	1740,77
879,81	1761,25
879,98	1642,47
880,15	1714,15
880,31	1771,49
880,48	1681,38
880,64	1755,11
880,81	1708,01
880,97	1847,27
881,14	1732,58
881,31	1665,00
881,47	1837,03
881,64	1732,58
881,80	1585,13
881,97	1736,68
882,13	1783,78
882,30	1677,29
882,47	1652,71
882,63	1628,14
882,80	1763,30
882,96	1689,57
883,13	1794,02
883,29	1697,77
883,46	1732,58
883,62	1767,40
883,79	1740,77
883,95	1714,15
884,12	1742,82
884,29	1724,39
884,45	1798,12
884,62	1779,68
884,78	1648,61
884,95	1726,44
885,11	1624,04
885,28	1773,54
885,44	1722,34
885,61	1742,82
885,77	1796,07
885,94	1753,06
886,10	1671,14
886,27	1767,40
886,43	1740,77
886,60	1806,31
886,76	1748,97
886,93	1613,80
887,09	1732,58
887,26	1613,80
887,42	1779,68
887,59	1834,98
887,75	1804,26
887,92	1742,82
888,08	1759,21
888,25	1724,39
888,41	1814,50
888,58	1746,92
888,74	1648,61
888,91	1638,38
>>>>>End Processed Spectral Data<<<<<
