SpectraSuite Data File
++++++++++++++++++++++++++++++++++++
Date: Mon Jun 06 15:37:17 CEST 2016
User: root
Dark Spectrum Present: No
Reference Spectrum Present: No
Number of Sampled Component Spectra: 1
Spectrometers: USB4C02835
Integration Time (usec): 100000 (USB4C02835)
Spectra Averaged: 1 (USB4C02835)
Boxcar Smoothing: 0 (USB4C02835)
Correct for Electrical Dark: No (USB4C02835)
Strobe/Lamp Enabled: No (USB4C02835)
Correct for Detector Non-linearity: No (USB4C02835)
Correct for Stray Light: No (USB4C02835)
Number of Pixels in Processed Spectrum: 3648
>>>>>Begin Processed Spectral Data<<<<<
177,47	1505,26
177,69	1505,26
177,91	1505,26
178,13	1413,10
178,36	1476,59
178,58	1691,62
178,80	1705,96
179,02	1624,04
179,24	1714,15
179,46	1687,53
179,68	1679,33
179,90	1687,53
180,13	1736,68
180,35	1718,25
180,57	1691,62
180,79	1787,88
181,01	1730,53
181,23	1714,15
181,45	1740,77
181,67	1755,11
181,90	1722,34
182,12	1691,62
182,34	1673,19
182,56	1730,53
182,78	1722,34
183,00	1691,62
183,22	1755,11
183,44	1640,42
183,66	1853,41
183,89	1830,88
184,11	1693,67
184,33	1679,33
184,55	1804,26
184,77	1771,49
184,99	1755,11
185,21	1695,72
185,43	1820,64
185,65	1638,38
185,87	1763,30
186,10	1853,41
186,32	1859,56
186,54	1773,54
186,76	1767,40
186,98	1732,58
187,20	1714,15
187,42	1644,52
187,64	1712,10
187,86	1742,82
188,08	1742,82
188,30	1697,77
188,52	1722,34
188,75	1812,45
188,97	1755,11
189,19	1644,52
189,41	1734,63
189,63	1759,21
189,85	1714,15
190,07	1665,00
190,29	1681,38
190,51	1794,02
190,73	1687,53
190,95	1810,40
191,17	1701,86
191,39	1617,90
191,61	1648,61
191,84	1640,42
192,06	1771,49
192,28	1595,37
192,50	1929,19
192,72	1771,49
192,94	1720,29
193,16	1708,01
193,38	1738,73
193,60	1697,77
193,82	1705,96
194,04	1826,79
194,26	1636,33
194,48	1677,29
194,70	1652,71
194,92	1679,33
195,14	1742,82
195,36	1667,05
195,58	1693,67
195,80	1671,14
196,02	1705,96
196,24	1703,91
196,46	1724,39
196,69	1736,68
196,91	1828,84
197,13	1726,44
197,35	1675,24
197,57	1845,22
197,79	1705,96
198,01	1757,16
198,23	1767,40
198,45	1720,29
198,67	1615,85
198,89	1724,39
199,11	1693,67
199,33	1667,05
199,55	1619,94
199,77	1705,96
199,99	1837,03
200,21	1699,81
200,43	1732,58
200,65	1673,19
200,87	1628,14
201,09	1683,43
201,31	1683,43
201,53	1767,40
201,75	1746,92
201,97	1763,30
202,19	1736,68
202,41	1718,25
202,63	1794,02
202,85	1714,15
203,07	1720,29
203,29	1607,66
203,51	1630,18
203,73	1640,42
203,95	1841,12
204,17	1720,29
204,39	1679,33
204,61	1705,96
204,83	1730,53
205,05	1796,07
205,27	1769,44
205,49	1845,22
205,71	1720,29
205,93	1665,00
206,15	1718,25
206,37	1722,34
206,59	1656,81
206,81	1710,05
207,03	1675,24
207,25	1675,24
207,47	1767,40
207,69	1732,58
207,91	1720,29
208,13	1794,02
208,34	1691,62
208,56	1660,90
208,78	1736,68
209,00	1689,57
209,22	1691,62
209,44	1714,15
209,66	1603,56
209,88	1658,85
210,10	1710,05
210,32	1656,81
210,54	1818,60
210,76	1658,85
210,98	1740,77
211,20	1525,74
211,42	1710,05
211,64	1787,88
211,86	1730,53
212,08	1705,96
212,30	1783,78
212,52	1710,05
212,74	1755,11
212,96	1798,12
213,17	1751,01
213,39	1710,05
213,61	1810,40
213,83	1708,01
214,05	1712,10
214,27	1712,10
214,49	1710,05
214,71	1636,33
214,93	1837,03
215,15	1771,49
215,37	1718,25
215,59	1595,37
215,81	1783,78
216,03	1757,16
216,24	1701,86
216,46	1705,96
216,68	1726,44
216,90	1718,25
217,12	1791,97
217,34	1767,40
217,56	1654,76
217,78	1773,54
218,00	1794,02
218,22	1701,86
218,44	1687,53
218,66	1761,25
218,87	1865,70
219,09	1693,67
219,31	1773,54
219,53	1671,14
219,75	1669,09
219,97	1675,24
220,19	1726,44
220,41	1652,71
220,63	1763,30
220,85	1763,30
221,06	1701,86
221,28	1740,77
221,50	1796,07
221,72	1734,63
221,94	1751,01
222,16	1701,86
222,38	1705,96
222,60	1759,21
222,82	1736,68
223,03	1757,16
223,25	1679,33
223,47	1755,11
223,69	1847,27
223,91	1748,97
224,13	1683,43
224,35	1656,81
224,57	1814,50
224,78	1730,53
225,00	1634,28
225,22	1689,57
225,44	1791,97
225,66	1701,86
225,88	1699,81
226,10	1785,83
226,32	1755,11
226,53	1796,07
226,75	1673,19
226,97	1701,86
227,19	1681,38
227,41	1689,57
227,63	1642,47
227,85	1681,38
228,06	1693,67
228,28	1722,34
228,50	1783,78
228,72	1642,47
228,94	1628,14
229,16	1669,09
229,37	1650,66
229,59	1718,25
229,81	1808,36
230,03	1720,29
230,25	1691,62
230,47	1710,05
230,69	1730,53
230,90	1781,73
231,12	1650,66
231,34	1759,21
231,56	1775,59
231,78	1654,76
232,00	1806,31
232,21	1724,39
232,43	1648,61
232,65	1542,12
232,87	1763,30
233,09	1681,38
233,30	1593,32
233,52	1773,54
233,74	1583,08
233,96	1648,61
234,18	1658,85
234,40	1742,82
234,61	1765,35
234,83	1703,91
235,05	1675,24
235,27	1871,84
235,49	1773,54
235,70	1722,34
235,92	1843,17
236,14	1685,48
236,36	1851,36
236,58	1677,29
236,79	1841,12
237,01	1683,43
237,23	1730,53
237,45	1820,64
237,67	1640,42
237,88	1710,05
238,10	1734,63
238,32	1675,24
238,54	1697,77
238,76	1669,09
238,97	1640,42
239,19	1658,85
239,41	1814,50
239,63	1765,35
239,85	1683,43
240,06	1748,97
240,28	1708,01
240,50	1746,92
240,72	1730,53
240,93	1724,39
241,15	1830,88
241,37	1636,33
241,59	1730,53
241,81	1685,48
242,02	1675,24
242,24	1794,02
242,46	1710,05
242,68	1654,76
242,89	1738,73
243,11	1740,77
243,33	1673,19
243,55	1777,64
243,76	1781,73
243,98	1705,96
244,20	1650,66
244,42	1775,59
244,64	1726,44
244,85	1703,91
245,07	1660,90
245,29	1738,73
245,51	1642,47
245,72	1705,96
245,94	1751,01
246,16	1734,63
246,38	1837,03
246,59	1656,81
246,81	1636,33
247,03	1648,61
247,24	1505,26
247,46	1732,58
247,68	1724,39
247,90	1677,29
248,11	1738,73
248,33	1763,30
248,55	1679,33
248,77	1726,44
248,98	1730,53
249,20	1802,21
249,42	1740,77
249,64	1783,78
249,85	1683,43
250,07	1728,49
250,29	1722,34
250,50	1791,97
250,72	1632,23
250,94	1765,35
251,16	1810,40
251,37	1757,16
251,59	1722,34
251,81	1675,24
252,02	1791,97
252,24	1679,33
252,46	1816,55
252,68	1619,94
252,89	1615,85
253,11	1646,57
253,33	1740,77
253,54	1808,36
253,76	1654,76
253,98	1720,29
254,20	1683,43
254,41	1671,14
254,63	1683,43
254,85	1646,57
255,06	1685,48
255,28	1695,72
255,50	1660,90
255,71	1626,09
255,93	1665,00
256,15	1693,67
256,36	1697,77
256,58	1585,13
256,80	1710,05
257,02	1720,29
257,23	1714,15
257,45	1759,21
257,67	1783,78
257,88	1640,42
258,10	1748,97
258,32	1757,16
258,53	1728,49
258,75	1808,36
258,97	1667,05
259,18	1703,91
259,40	1746,92
259,62	1783,78
259,83	1759,21
260,05	1738,73
260,27	2009,06
260,48	1771,49
260,70	1591,27
260,92	1644,52
261,13	1689,57
261,35	1660,90
261,57	1755,11
261,78	1695,72
262,00	1665,00
262,22	1779,68
262,43	1705,96
262,65	1679,33
262,86	1716,20
263,08	1810,40
263,30	1744,87
263,51	1617,90
263,73	1658,85
263,95	1748,97
264,16	1677,29
264,38	1615,85
264,60	1738,73
264,81	1689,57
265,03	1826,79
265,25	1718,25
265,46	1722,34
265,68	1759,21
265,89	1738,73
266,11	1660,90
266,33	1730,53
266,54	1789,92
266,76	1773,54
266,98	1718,25
267,19	1787,88
267,41	1740,77
267,62	1687,53
267,84	1648,61
268,06	1736,68
268,27	1652,71
268,49	1775,59
268,70	1738,73
268,92	1763,30
269,14	1693,67
269,35	1656,81
269,57	1769,44
269,79	1753,06
270,00	1673,19
270,22	1730,53
270,43	1685,48
270,65	1556,46
270,87	1742,82
271,08	1781,73
271,30	1701,86
271,51	1763,30
271,73	1742,82
271,95	1779,68
272,16	1765,35
272,38	1761,25
272,59	1671,14
272,81	1812,45
273,02	1710,05
273,24	1640,42
273,46	1767,40
273,67	1746,92
273,89	1648,61
274,10	1705,96
274,32	1738,73
274,54	1789,92
274,75	1720,29
274,97	1759,21
275,18	1761,25
275,40	1802,21
275,61	1701,86
275,83	1636,33
276,05	1642,47
276,26	1736,68
276,48	1710,05
276,69	1617,90
276,91	1695,72
277,12	1794,02
277,34	1779,68
277,55	1791,97
277,77	1722,34
277,99	1634,28
278,20	1703,91
278,42	1705,96
278,63	1640,42
278,85	1662,95
279,06	1615,85
279,28	1755,11
279,49	1765,35
279,71	1822,69
279,93	1697,77
280,14	1652,71
280,36	1673,19
280,57	1789,92
280,79	1769,44
281,00	1734,63
281,22	1681,38
281,43	1802,21
281,65	1544,17
281,86	1683,43
282,08	1648,61
282,29	1912,80
282,51	1658,85
282,73	1675,24
282,94	1617,90
283,16	1738,73
283,37	1746,92
283,59	1701,86
283,80	1703,91
284,02	1689,57
284,23	1781,73
284,45	1773,54
284,66	1665,00
284,88	1650,66
285,09	1755,11
285,31	1736,68
285,52	1669,09
285,74	1673,19
285,95	1693,67
286,17	1724,39
286,38	1796,07
286,60	1685,48
286,81	1636,33
287,03	1648,61
287,24	1683,43
287,46	1748,97
287,67	1748,97
287,89	1845,22
288,10	1669,09
288,32	1761,25
288,53	1734,63
288,75	1736,68
288,96	1802,21
289,18	1648,61
289,39	1673,19
289,61	1730,53
289,82	1847,27
290,04	1800,16
290,25	1621,99
290,47	1697,77
290,68	1703,91
290,90	1806,31
291,11	1634,28
291,33	1730,53
291,54	1693,67
291,76	1671,14
291,97	1734,63
292,18	1716,20
292,40	1695,72
292,61	1710,05
292,83	1845,22
293,04	1767,40
293,26	1753,06
293,47	1699,81
293,69	1712,10
293,90	1708,01
294,12	1781,73
294,33	1730,53
294,55	1742,82
294,76	1767,40
294,97	1734,63
295,19	1828,84
295,40	1728,49
295,62	1716,20
295,83	1806,31
296,05	1714,15
296,26	1834,98
296,48	1662,95
296,69	1675,24
296,90	1634,28
297,12	1791,97
297,33	1751,01
297,55	1683,43
297,76	1834,98
297,98	1791,97
298,19	1691,62
298,41	1685,48
298,62	1687,53
298,83	1808,36
299,05	1685,48
299,26	1656,81
299,48	1673,19
299,69	1730,53
299,90	1718,25
300,12	1617,90
300,33	1781,73
300,55	1753,06
300,76	1810,40
300,98	1638,38
301,19	1783,78
301,40	1685,48
301,62	1728,49
301,83	1708,01
302,05	1740,77
302,26	1703,91
302,47	1720,29
302,69	1699,81
302,90	1673,19
303,12	1507,30
303,33	1769,44
303,54	1757,16
303,76	1742,82
303,97	1689,57
304,19	1828,84
304,40	1683,43
304,61	1771,49
304,83	1812,45
305,04	1794,02
305,26	1796,07
305,47	1660,90
305,68	1716,20
305,90	1599,46
306,11	1712,10
306,33	1689,57
306,54	1693,67
306,75	1691,62
306,97	1605,61
307,18	1658,85
307,39	1693,67
307,61	1693,67
307,82	1716,20
308,04	1732,58
308,25	1660,90
308,46	1720,29
308,68	1671,14
308,89	1730,53
309,10	1738,73
309,32	1703,91
309,53	1730,53
309,74	1783,78
309,96	1710,05
310,17	1826,79
310,39	1757,16
310,60	1742,82
310,81	1671,14
311,03	1626,09
311,24	1730,53
311,45	1652,71
311,67	1826,79
311,88	1738,73
312,09	1630,18
312,31	1648,61
312,52	1716,20
312,73	1732,58
312,95	1654,76
313,16	1732,58
313,37	1794,02
313,59	1699,81
313,80	1863,65
314,01	1824,74
314,23	1732,58
314,44	1685,48
314,65	1697,77
314,87	1673,19
315,08	1634,28
315,29	1697,77
315,51	1687,53
315,72	1648,61
315,93	1812,45
316,15	1794,02
316,36	1697,77
316,57	1701,86
316,79	1693,67
317,00	1716,20
317,21	1761,25
317,43	1734,63
317,64	1781,73
317,85	1691,62
318,07	1673,19
318,28	1710,05
318,49	1777,64
318,70	1931,23
318,92	1859,56
319,13	1775,59
319,34	1875,94
319,56	1798,12
319,77	1814,50
319,98	1744,87
320,20	1771,49
320,41	1783,78
320,62	1738,73
320,83	1693,67
321,05	1886,18
321,26	1712,10
321,47	1724,39
321,69	1697,77
321,90	1687,53
322,11	1671,14
322,32	1804,26
322,54	1767,40
322,75	1687,53
322,96	1839,08
323,18	1644,52
323,39	1685,48
323,60	1689,57
323,81	1804,26
324,03	1677,29
324,24	1714,15
324,45	1740,77
324,66	1673,19
324,88	1746,92
325,09	1845,22
325,30	1742,82
325,52	1796,07
325,73	1736,68
325,94	1675,24
326,15	1705,96
326,37	1656,81
326,58	1761,25
326,79	1779,68
327,00	1665,00
327,22	1742,82
327,43	1677,29
327,64	1648,61
327,85	1744,87
328,07	1734,63
328,28	1802,21
328,49	1708,01
328,70	1652,71
328,92	1718,25
329,13	1734,63
329,34	1777,64
329,55	1880,04
329,76	1789,92
329,98	1683,43
330,19	1769,44
330,40	1726,44
330,61	1771,49
330,83	1722,34
331,04	1671,14
331,25	1746,92
331,46	1748,97
331,68	1624,04
331,89	1724,39
332,10	1691,62
332,31	1671,14
332,52	1693,67
332,74	1759,21
332,95	1630,18
333,16	1671,14
333,37	1804,26
333,58	1775,59
333,80	1656,81
334,01	1644,52
334,22	1748,97
334,43	1636,33
334,64	1734,63
334,86	1656,81
335,07	1667,05
335,28	1771,49
335,49	1646,57
335,70	1724,39
335,92	1753,06
336,13	1873,89
336,34	1732,58
336,55	1808,36
336,76	1746,92
336,98	1591,27
337,19	1742,82
337,40	1783,78
337,61	1880,04
337,82	1693,67
338,04	1787,88
338,25	1615,85
338,46	1679,33
338,67	1724,39
338,88	1654,76
339,09	1705,96
339,31	1675,24
339,52	1658,85
339,73	1697,77
339,94	1673,19
340,15	1763,30
340,36	1607,66
340,58	1814,50
340,79	1652,71
341,00	1763,30
341,21	1617,90
341,42	1818,60
341,63	1746,92
341,85	1748,97
342,06	1744,87
342,27	1693,67
342,48	1767,40
342,69	1607,66
342,90	1724,39
343,12	1738,73
343,33	1681,38
343,54	1730,53
343,75	1828,84
343,96	1681,38
344,17	1673,19
344,38	1730,53
344,60	1675,24
344,81	1693,67
345,02	1650,66
345,23	1748,97
345,44	1765,35
345,65	1853,41
345,86	1759,21
346,07	1699,81
346,29	1679,33
346,50	1710,05
346,71	1726,44
346,92	1738,73
347,13	1822,69
347,34	1634,28
347,55	1685,48
347,76	1701,86
347,98	1652,71
348,19	1677,29
348,40	1775,59
348,61	1732,58
348,82	1765,35
349,03	1761,25
349,24	1611,75
349,45	1822,69
349,66	1583,08
349,88	1730,53
350,09	1714,15
350,30	1830,88
350,51	1720,29
350,72	1722,34
350,93	1691,62
351,14	1636,33
351,35	1800,16
351,56	1712,10
351,77	1677,29
351,99	1716,20
352,20	1765,35
352,41	1828,84
352,62	1589,22
352,83	1724,39
353,04	1726,44
353,25	1712,10
353,46	1773,54
353,67	1748,97
353,88	1556,46
354,09	1679,33
354,30	1716,20
354,52	1798,12
354,73	1679,33
354,94	1665,00
355,15	1656,81
355,36	1865,70
355,57	1703,91
355,78	1675,24
355,99	1728,49
356,20	1611,75
356,41	1812,45
356,62	1710,05
356,83	1730,53
357,04	1822,69
357,25	1615,85
357,46	1798,12
357,68	1613,80
357,89	1687,53
358,10	1681,38
358,31	1718,25
358,52	1673,19
358,73	1646,57
358,94	1654,76
359,15	1742,82
359,36	1677,29
359,57	1781,73
359,78	1691,62
359,99	1794,02
360,20	1652,71
360,41	1650,66
360,62	1695,72
360,83	1718,25
361,04	1771,49
361,25	1695,72
361,46	1798,12
361,67	1714,15
361,88	1814,50
362,09	1738,73
362,30	1736,68
362,51	1697,77
362,72	1746,92
362,93	1695,72
363,14	1736,68
363,35	1636,33
363,56	1755,11
363,78	1796,07
363,99	1767,40
364,20	1632,23
364,41	1667,05
364,62	1886,18
364,83	1736,68
365,04	1806,31
365,25	1779,68
365,46	1814,50
365,67	1671,14
365,88	1617,90
366,09	1675,24
366,30	1669,09
366,51	1632,23
366,72	1634,28
366,93	1708,01
367,14	1744,87
367,35	1843,17
367,56	1726,44
367,77	1847,27
367,98	1705,96
368,18	1701,86
368,39	1710,05
368,60	1751,01
368,81	1755,11
369,02	1730,53
369,23	1726,44
369,44	1665,00
369,65	1726,44
369,86	1746,92
370,07	1755,11
370,28	1611,75
370,49	1718,25
370,70	1677,29
370,91	1667,05
371,12	1611,75
371,33	1779,68
371,54	1660,90
371,75	1769,44
371,96	1656,81
372,17	1701,86
372,38	1744,87
372,59	1775,59
372,80	1578,98
373,01	1742,82
373,22	1689,57
373,43	1746,92
373,64	1654,76
373,85	1791,97
374,06	1783,78
374,26	1816,55
374,47	1742,82
374,68	1820,64
374,89	1710,05
375,10	1730,53
375,31	1818,60
375,52	1681,38
375,73	1658,85
375,94	1640,42
376,15	1816,55
376,36	1652,71
376,57	1744,87
376,78	1708,01
376,99	1703,91
377,20	1806,31
377,40	1697,77
377,61	1812,45
377,82	1599,46
378,03	1777,64
378,24	1689,57
378,45	1658,85
378,66	1742,82
378,87	1662,95
379,08	1699,81
379,29	1742,82
379,50	1777,64
379,71	1722,34
379,91	1789,92
380,12	1683,43
380,33	1699,81
380,54	1779,68
380,75	1691,62
380,96	1720,29
381,17	1798,12
381,38	1728,49
381,59	1779,68
381,80	1705,96
382,00	1787,88
382,21	1744,87
382,42	1841,12
382,63	1947,62
382,84	1845,22
383,05	1818,60
383,26	1853,41
383,47	1765,35
383,68	1673,19
383,88	1726,44
384,09	1751,01
384,30	1796,07
384,51	1718,25
384,72	1703,91
384,93	1548,26
385,14	1753,06
385,35	1822,69
385,55	1675,24
385,76	1748,97
385,97	1748,97
386,18	1658,85
386,39	1708,01
386,60	1705,96
386,81	1724,39
387,02	1705,96
387,22	1654,76
387,43	1744,87
387,64	1796,07
387,85	1896,42
388,06	2230,24
388,27	4210,62
388,48	6606,75
388,68	8075,14
388,89	9320,31
389,10	9682,80
389,31	8497,02
389,52	7395,22
389,73	6526,88
389,93	6033,32
390,14	5711,78
390,35	5136,31
390,56	4454,33
390,77	3688,39
390,98	2981,84
391,18	2478,04
391,39	2133,98
391,60	1855,46
391,81	1816,55
392,02	1689,57
392,23	1849,32
392,43	1755,11
392,64	1775,59
392,85	1771,49
393,06	1708,01
393,27	1685,48
393,47	1640,42
393,68	1732,58
393,89	1693,67
394,10	1796,07
394,31	1738,73
394,52	1740,77
394,72	1671,14
394,93	1814,50
395,14	1626,09
395,35	1849,32
395,56	1685,48
395,76	1710,05
395,97	1849,32
396,18	1927,14
396,39	1867,75
396,60	2021,35
396,80	1884,13
397,01	1894,37
397,22	1820,64
397,43	1837,03
397,64	1765,35
397,84	1841,12
398,05	1966,05
398,26	1720,29
398,47	1783,78
398,67	1853,41
398,88	1732,58
399,09	1759,21
399,30	1656,81
399,51	1746,92
399,71	1669,09
399,92	1740,77
400,13	1697,77
400,34	1777,64
400,54	1738,73
400,75	1912,80
400,96	1689,57
401,17	1773,54
401,37	1873,89
401,58	1681,38
401,79	1732,58
402,00	1816,55
402,21	2066,40
402,41	1912,80
402,62	2080,74
402,83	2111,46
403,04	1970,15
403,24	2064,35
403,45	1867,75
403,66	1941,47
403,87	1880,04
404,07	1877,99
404,28	1992,67
404,49	1869,80
404,70	1812,45
404,90	1787,88
405,11	1763,30
405,32	1652,71
405,52	1671,14
405,73	1716,20
405,94	1646,57
406,15	1730,53
406,35	1818,60
406,56	1820,64
406,77	1783,78
406,98	1796,07
407,18	1648,61
407,39	1730,53
407,60	1755,11
407,80	1773,54
408,01	1683,43
408,22	1787,88
408,43	1683,43
408,63	1693,67
408,84	1755,11
409,05	1767,40
409,25	1687,53
409,46	1763,30
409,67	1662,95
409,88	1669,09
410,08	1673,19
410,29	1681,38
410,50	1730,53
410,70	1730,53
410,91	1658,85
411,12	1693,67
411,32	1630,18
411,53	1738,73
411,74	1843,17
411,95	1871,84
412,15	1791,97
412,36	1804,26
412,57	1759,21
412,77	1867,75
412,98	1740,77
413,19	1656,81
413,39	1730,53
413,60	1697,77
413,81	1822,69
414,01	1648,61
414,22	1763,30
414,43	1787,88
414,63	1746,92
414,84	1763,30
415,05	1777,64
415,25	1609,70
415,46	1812,45
415,67	1667,05
415,87	1742,82
416,08	1701,86
416,29	1767,40
416,49	1740,77
416,70	1767,40
416,91	1710,05
417,11	1703,91
417,32	1773,54
417,53	1808,36
417,73	1675,24
417,94	1751,01
418,15	1746,92
418,35	1705,96
418,56	1742,82
418,77	1902,56
418,97	1660,90
419,18	1646,57
419,38	1626,09
419,59	1726,44
419,80	1773,54
420,00	1701,86
420,21	1699,81
420,42	1744,87
420,62	1730,53
420,83	1710,05
421,04	1744,87
421,24	1718,25
421,45	1830,88
421,65	1789,92
421,86	1742,82
422,07	1796,07
422,27	1738,73
422,48	1662,95
422,69	1632,23
422,89	1746,92
423,10	1724,39
423,30	1644,52
423,51	1742,82
423,72	1730,53
423,92	1796,07
424,13	1660,90
424,33	1687,53
424,54	1726,44
424,75	1757,16
424,95	1753,06
425,16	1742,82
425,36	1728,49
425,57	1769,44
425,78	1775,59
425,98	1740,77
426,19	1701,86
426,39	1693,67
426,60	1755,11
426,81	1732,58
427,01	1785,83
427,22	1669,09
427,42	1687,53
427,63	1685,48
427,83	1740,77
428,04	1822,69
428,25	1791,97
428,45	1720,29
428,66	1810,40
428,86	1654,76
429,07	1738,73
429,28	1724,39
429,48	1738,73
429,69	1718,25
429,89	1744,87
430,10	1650,66
430,30	1757,16
430,51	1808,36
430,71	1722,34
430,92	1753,06
431,13	1669,09
431,33	1763,30
431,54	1802,21
431,74	1884,13
431,95	1820,64
432,15	1701,86
432,36	1705,96
432,56	1716,20
432,77	1773,54
432,98	1861,60
433,18	1763,30
433,39	1703,91
433,59	1751,01
433,80	1828,84
434,00	1902,56
434,21	1726,44
434,41	1667,05
434,62	1849,32
434,82	1642,47
435,03	1667,05
435,23	1708,01
435,44	1640,42
435,64	1732,58
435,85	1804,26
436,06	1746,92
436,26	1769,44
436,47	1755,11
436,67	1683,43
436,88	1726,44
437,08	1742,82
437,29	1816,55
437,49	1656,81
437,70	1857,51
437,90	1648,61
438,11	1875,94
438,31	1759,21
438,52	1900,52
438,72	1875,94
438,93	1994,72
439,13	1943,52
439,34	1818,60
439,54	1769,44
439,75	1818,60
439,95	1746,92
440,16	1718,25
440,36	1746,92
440,57	1742,82
440,77	1736,68
440,98	1632,23
441,18	1773,54
441,39	1673,19
441,59	1662,95
441,80	1845,22
442,00	1648,61
442,21	1806,31
442,41	1679,33
442,62	1787,88
442,82	1665,00
443,02	1726,44
443,23	1787,88
443,43	1763,30
443,64	1765,35
443,84	1701,86
444,05	1787,88
444,25	1783,78
444,46	1826,79
444,66	1691,62
444,87	1814,50
445,07	1728,49
445,28	1748,97
445,48	1820,64
445,69	1802,21
445,89	1902,56
446,09	1718,25
446,30	2015,20
446,50	2631,64
446,71	3696,58
446,91	4188,10
447,12	4665,27
447,32	4736,95
447,53	4216,77
447,73	3848,13
447,93	3450,83
448,14	3225,55
448,34	3278,80
448,55	2951,12
448,75	2799,57
448,96	2701,27
449,16	2418,65
449,36	2283,49
449,57	2064,35
449,77	1890,28
449,98	1742,82
450,18	1777,64
450,39	1820,64
450,59	1748,97
450,79	1761,25
451,00	1769,44
451,20	1791,97
451,41	1800,16
451,61	1722,34
451,81	1742,82
452,02	1746,92
452,22	1675,24
452,43	1703,91
452,63	1705,96
452,84	1732,58
453,04	1744,87
453,24	1734,63
453,45	1714,15
453,65	1769,44
453,86	1714,15
454,06	1781,73
454,26	1732,58
454,47	1705,96
454,67	1839,08
454,87	1736,68
455,08	1650,66
455,28	1869,80
455,49	1777,64
455,69	1652,71
455,89	1888,23
456,10	1867,75
456,30	1710,05
456,51	1755,11
456,71	1746,92
456,91	1744,87
457,12	1732,58
457,32	1726,44
457,52	1712,10
457,73	1757,16
457,93	1861,60
458,14	1736,68
458,34	1673,19
458,54	1748,97
458,75	1732,58
458,95	1804,26
459,15	1697,77
459,36	1798,12
459,56	1779,68
459,76	1867,75
459,97	1746,92
460,17	1732,58
460,37	1877,99
460,58	1759,21
460,78	1828,84
460,99	1712,10
461,19	1710,05
461,39	1624,04
461,60	1693,67
461,80	1716,20
462,00	1677,29
462,21	1769,44
462,41	1708,01
462,61	1648,61
462,82	1619,94
463,02	1796,07
463,22	1742,82
463,43	1847,27
463,63	1771,49
463,83	1886,18
464,04	1771,49
464,24	1751,01
464,44	1710,05
464,64	1716,20
464,85	1783,78
465,05	1802,21
465,25	1775,59
465,46	1734,63
465,66	1771,49
465,86	1849,32
466,07	1777,64
466,27	1744,87
466,47	1675,24
466,68	1665,00
466,88	1873,89
467,08	1800,16
467,29	1736,68
467,49	1722,34
467,69	1662,95
467,89	1779,68
468,10	1640,42
468,30	1720,29
468,50	1789,92
468,71	1769,44
468,91	1601,51
469,11	1824,74
469,31	1761,25
469,52	1701,86
469,72	1796,07
469,92	1871,84
470,13	1667,05
470,33	1781,73
470,53	1810,40
470,73	2115,55
470,94	2295,77
471,14	2330,59
471,34	2414,56
471,54	2367,45
471,75	2281,44
471,95	2131,94
472,15	2039,78
472,36	2174,94
472,56	2004,96
472,76	2039,78
472,96	2070,50
473,17	1982,43
473,37	1984,48
473,57	1810,40
473,77	1814,50
473,98	1822,69
474,18	1718,25
474,38	1873,89
474,58	1761,25
474,79	1691,62
474,99	1726,44
475,19	1859,56
475,39	1644,52
475,60	1785,83
475,80	1765,35
476,00	1660,90
476,20	1656,81
476,41	1728,49
476,61	1834,98
476,81	1755,11
477,01	1679,33
477,21	1841,12
477,42	1777,64
477,62	1681,38
477,82	1820,64
478,02	1679,33
478,23	1781,73
478,43	1710,05
478,63	1687,53
478,83	1724,39
479,03	1732,58
479,24	1777,64
479,44	1853,41
479,64	1796,07
479,84	1587,18
480,04	1679,33
480,25	1763,30
480,45	1679,33
480,65	1673,19
480,85	1839,08
481,06	1660,90
481,26	1769,44
481,46	1767,40
481,66	1751,01
481,86	1738,73
482,06	1775,59
482,27	1710,05
482,47	1697,77
482,67	1806,31
482,87	1669,09
483,07	1796,07
483,28	1697,77
483,48	1763,30
483,68	1673,19
483,88	1679,33
484,08	1603,56
484,29	1720,29
484,49	1718,25
484,69	1648,61
484,89	1902,56
485,09	1787,88
485,29	1781,73
485,50	1751,01
485,70	1681,38
485,90	1765,35
486,10	1746,92
486,30	1742,82
486,50	1814,50
486,71	1826,79
486,91	1800,16
487,11	1843,17
487,31	1675,24
487,51	1687,53
487,71	1679,33
487,91	1617,90
488,12	1746,92
488,32	1648,61
488,52	1751,01
488,72	1576,94
488,92	1779,68
489,12	1812,45
489,32	1839,08
489,53	1667,05
489,73	1718,25
489,93	1804,26
490,13	1695,72
490,33	1671,14
490,53	1738,73
490,73	1773,54
490,94	1656,81
491,14	1765,35
491,34	1834,98
491,54	2115,55
491,74	2523,10
491,94	2858,96
492,14	3059,67
492,34	2992,08
492,54	2709,46
492,75	2539,48
492,95	2400,22
493,15	2238,43
493,35	2295,77
493,55	2193,37
493,75	2152,42
493,95	2078,69
494,15	2068,45
494,35	1871,84
494,56	1847,27
494,76	1794,02
494,96	1882,08
495,16	1748,97
495,36	1716,20
495,56	1728,49
495,76	1755,11
495,96	1773,54
496,16	1695,72
496,36	1830,88
496,56	1718,25
496,77	1742,82
496,97	1644,52
497,17	1753,06
497,37	1712,10
497,57	1845,22
497,77	1783,78
497,97	1738,73
498,17	1738,73
498,37	1699,81
498,57	1806,31
498,77	1693,67
498,97	1761,25
499,17	1865,70
499,38	1679,33
499,58	1714,15
499,78	1812,45
499,98	1806,31
500,18	1738,73
500,38	1689,57
500,58	1880,04
500,78	2541,53
500,98	4364,22
501,18	5601,19
501,38	6481,82
501,58	6864,79
501,78	6426,53
501,98	5408,69
502,18	4839,35
502,38	4296,64
502,58	4052,93
502,78	3745,73
502,98	3717,06
503,18	3409,87
503,38	3069,91
503,59	2861,01
503,79	2658,26
503,99	2490,33
504,19	2260,96
504,39	2287,58
504,59	2197,47
504,79	2140,13
504,99	2095,07
505,19	2023,39
505,39	1920,99
505,59	1927,14
505,79	1869,80
505,99	1892,32
506,19	1757,16
506,39	1830,88
506,59	1804,26
506,79	1812,45
506,99	1806,31
507,19	1755,11
507,39	1738,73
507,59	1701,86
507,79	1712,10
507,99	1712,10
508,19	1742,82
508,39	1748,97
508,59	1746,92
508,79	1781,73
508,99	1789,92
509,19	1726,44
509,39	1773,54
509,59	1753,06
509,79	1656,81
509,99	1740,77
510,19	1847,27
510,39	1755,11
510,59	1812,45
510,79	1652,71
510,99	1632,23
511,19	1822,69
511,39	1853,41
511,59	1787,88
511,79	1882,08
511,99	1761,25
512,19	1796,07
512,38	1783,78
512,58	1669,09
512,78	1773,54
512,98	1769,44
513,18	1916,90
513,38	1656,81
513,58	1783,78
513,78	1712,10
513,98	1712,10
514,18	1712,10
514,38	1705,96
514,58	1800,16
514,78	1736,68
514,98	1650,66
515,18	1712,10
515,38	1552,36
515,58	1906,66
515,78	1714,15
515,98	1712,10
516,18	1724,39
516,38	1705,96
516,57	1714,15
516,77	1697,77
516,97	1775,59
517,17	1665,00
517,37	1703,91
517,57	1775,59
517,77	1726,44
517,97	1722,34
518,17	1834,98
518,37	1724,39
518,57	1705,96
518,77	1738,73
518,97	1746,92
519,16	1755,11
519,36	1759,21
519,56	1728,49
519,76	1712,10
519,96	1710,05
520,16	1855,46
520,36	1673,19
520,56	1746,92
520,76	1740,77
520,96	1785,83
521,16	1796,07
521,35	1787,88
521,55	1873,89
521,75	1712,10
521,95	1699,81
522,15	1714,15
522,35	1681,38
522,55	1697,77
522,75	1779,68
522,95	1742,82
523,14	1626,09
523,34	1744,87
523,54	1701,86
523,74	1804,26
523,94	1765,35
524,14	1701,86
524,34	1755,11
524,54	1822,69
524,73	1679,33
524,93	1726,44
525,13	1814,50
525,33	1634,28
525,53	1851,36
525,73	1834,98
525,93	1757,16
526,13	1681,38
526,32	1701,86
526,52	1820,64
526,72	1789,92
526,92	1730,53
527,12	1781,73
527,32	1679,33
527,52	1794,02
527,71	1806,31
527,91	1771,49
528,11	1677,29
528,31	1712,10
528,51	1656,81
528,71	1787,88
528,90	1806,31
529,10	1837,03
529,30	1888,23
529,50	1650,66
529,70	1787,88
529,90	1730,53
530,09	1753,06
530,29	1738,73
530,49	1724,39
530,69	1910,75
530,89	1734,63
531,09	1765,35
531,28	1728,49
531,48	1834,98
531,68	1812,45
531,88	1718,25
532,08	1796,07
532,28	1738,73
532,47	1753,06
532,67	1804,26
532,87	1716,20
533,07	1675,24
533,27	1748,97
533,46	1796,07
533,66	1732,58
533,86	1753,06
534,06	1777,64
534,26	1781,73
534,45	1757,16
534,65	1851,36
534,85	1769,44
535,05	1759,21
535,25	1839,08
535,44	1636,33
535,64	1804,26
535,84	1726,44
536,04	1718,25
536,24	1718,25
536,43	1675,24
536,63	1748,97
536,83	1703,91
537,03	1695,72
537,22	1695,72
537,42	1583,08
537,62	1718,25
537,82	1697,77
538,02	1789,92
538,21	1794,02
538,41	1929,19
538,61	1810,40
538,81	1775,59
539,00	1845,22
539,20	1648,61
539,40	1738,73
539,60	1783,78
539,79	1777,64
539,99	1845,22
540,19	1736,68
540,39	1789,92
540,58	1800,16
540,78	1814,50
540,98	1789,92
541,18	1814,50
541,37	1865,70
541,57	1755,11
541,77	1746,92
541,97	1753,06
542,16	1689,57
542,36	1757,16
542,56	1656,81
542,76	1834,98
542,95	1783,78
543,15	1763,30
543,35	1730,53
543,54	1701,86
543,74	1734,63
543,94	1763,30
544,14	1722,34
544,33	1753,06
544,53	1796,07
544,73	1753,06
544,93	1714,15
545,12	1738,73
545,32	1751,01
545,52	1718,25
545,71	1710,05
545,91	1718,25
546,11	1736,68
546,30	1697,77
546,50	1771,49
546,70	1820,64
546,90	1689,57
547,09	1652,71
547,29	1769,44
547,49	1742,82
547,68	1751,01
547,88	1685,48
548,08	1759,21
548,27	2213,85
548,47	1712,10
548,67	1742,82
548,87	1775,59
549,06	1671,14
549,26	1777,64
549,46	1732,58
549,65	1771,49
549,85	1880,04
550,05	1781,73
550,24	1669,09
550,44	1708,01
550,64	1812,45
550,83	1748,97
551,03	1789,92
551,23	1834,98
551,42	1785,83
551,62	1724,39
551,82	1787,88
552,01	1779,68
552,21	1812,45
552,41	1779,68
552,60	1785,83
552,80	1837,03
553,00	1722,34
553,19	1751,01
553,39	1804,26
553,59	1687,53
553,78	1779,68
553,98	1841,12
554,17	1718,25
554,37	1769,44
554,57	1746,92
554,76	1677,29
554,96	1753,06
555,16	1728,49
555,35	1822,69
555,55	1683,43
555,75	1808,36
555,94	1820,64
556,14	1652,71
556,33	1796,07
556,53	1742,82
556,73	1708,01
556,92	1832,93
557,12	1828,84
557,32	1877,99
557,51	1787,88
557,71	1775,59
557,90	1861,60
558,10	1798,12
558,30	1769,44
558,49	1738,73
558,69	1718,25
558,88	1748,97
559,08	1746,92
559,28	1708,01
559,47	1789,92
559,67	1748,97
559,86	1771,49
560,06	1742,82
560,26	1708,01
560,45	1759,21
560,65	1728,49
560,84	1869,80
561,04	1699,81
561,24	1820,64
561,43	1681,38
561,63	1888,23
561,82	1767,40
562,02	1810,40
562,22	1777,64
562,41	1796,07
562,61	1685,48
562,80	1705,96
563,00	1941,47
563,19	1869,80
563,39	1804,26
563,59	1834,98
563,78	1802,21
563,98	1650,66
564,17	1744,87
564,37	1712,10
564,56	1738,73
564,76	1644,52
564,96	1824,74
565,15	1804,26
565,35	1931,23
565,54	1857,51
565,74	1832,93
565,93	1830,88
566,13	1753,06
566,32	1716,20
566,52	1757,16
566,71	1804,26
566,91	1845,22
567,11	1679,33
567,30	1685,48
567,50	1834,98
567,69	1755,11
567,89	1779,68
568,08	1699,81
568,28	1740,77
568,47	1720,29
568,67	1785,83
568,86	1675,24
569,06	1746,92
569,25	1738,73
569,45	1640,42
569,64	1746,92
569,84	1714,15
570,04	1742,82
570,23	1789,92
570,43	1765,35
570,62	1722,34
570,82	1855,46
571,01	1662,95
571,21	1722,34
571,40	1744,87
571,60	1820,64
571,79	1703,91
571,99	1824,74
572,18	1732,58
572,38	1720,29
572,57	1744,87
572,77	1884,13
572,96	1914,85
573,16	1703,91
573,35	1781,73
573,55	1824,74
573,74	1845,22
573,94	1718,25
574,13	1734,63
574,33	1785,83
574,52	1816,55
574,71	1767,40
574,91	1826,79
575,10	1660,90
575,30	1728,49
575,49	1705,96
575,69	1703,91
575,88	1771,49
576,08	1740,77
576,27	1828,84
576,47	1746,92
576,66	1824,74
576,86	1785,83
577,05	1761,25
577,25	1763,30
577,44	1857,51
577,64	1712,10
577,83	1759,21
578,02	1720,29
578,22	1794,02
578,41	1877,99
578,61	1714,15
578,80	1734,63
579,00	1779,68
579,19	1759,21
579,39	1751,01
579,58	1804,26
579,77	1804,26
579,97	1890,28
580,16	1849,32
580,36	1859,56
580,55	1894,37
580,75	1781,73
580,94	1746,92
581,13	1849,32
581,33	1808,36
581,52	1734,63
581,72	1877,99
581,91	1873,89
582,11	1796,07
582,30	1822,69
582,49	1724,39
582,69	1847,27
582,88	1712,10
583,08	1789,92
583,27	1824,74
583,47	1763,30
583,66	1787,88
583,85	1767,40
584,05	1746,92
584,24	1757,16
584,44	1738,73
584,63	1798,12
584,82	1816,55
585,02	1828,84
585,21	1837,03
585,41	1908,71
585,60	1785,83
585,79	2013,15
585,99	1910,75
586,18	1900,52
586,37	2236,38
586,57	3373,00
586,76	9731,95
586,96	23666,33
587,15	33181,19
587,34	39222,70
587,54	40629,65
587,73	35030,51
587,93	25316,99
588,12	20784,83
588,31	17575,67
588,51	15652,63
588,70	14913,31
588,89	13553,46
589,09	12128,07
589,28	10542,94
589,47	9256,82
589,67	7542,67
589,86	6246,30
590,06	4861,88
590,25	3846,09
590,44	2979,79
590,64	2641,88
590,83	2301,92
591,02	2164,70
591,22	2013,15
591,41	1884,13
591,60	1736,68
591,80	1920,99
591,99	1763,30
592,18	1730,53
592,38	1927,14
592,57	1730,53
592,76	1796,07
592,96	1767,40
593,15	1837,03
593,34	1783,78
593,54	1730,53
593,73	1771,49
593,92	1867,75
594,12	1763,30
594,31	1734,63
594,50	1800,16
594,70	1877,99
594,89	1904,61
595,08	1693,67
595,28	1755,11
595,47	1898,47
595,66	1775,59
595,86	1701,86
596,05	1708,01
596,24	1703,91
596,43	1884,13
596,63	1814,50
596,82	1701,86
597,01	1781,73
597,21	1918,95
597,40	1857,51
597,59	1746,92
597,79	1693,67
597,98	1736,68
598,17	1787,88
598,36	1826,79
598,56	1748,97
598,75	1732,58
598,94	1730,53
599,14	1734,63
599,33	1726,44
599,52	1767,40
599,71	1703,91
599,91	1828,84
600,10	1818,60
600,29	1693,67
600,48	1746,92
600,68	1781,73
600,87	1738,73
601,06	1699,81
601,26	1796,07
601,45	1781,73
601,64	1755,11
601,83	1853,41
602,03	1691,62
602,22	1708,01
602,41	1849,32
602,60	1863,65
602,80	1853,41
602,99	1728,49
603,18	1685,48
603,37	1785,83
603,57	1808,36
603,76	1882,08
603,95	1912,80
604,14	1710,05
604,34	1683,43
604,53	1738,73
604,72	1755,11
604,91	1773,54
605,10	1783,78
605,30	1652,71
605,49	1955,81
605,68	1892,32
605,87	1753,06
606,07	1767,40
606,26	1781,73
606,45	1730,53
606,64	1705,96
606,84	1783,78
607,03	1744,87
607,22	1849,32
607,41	1595,37
607,60	1777,64
607,80	1791,97
607,99	1726,44
608,18	1910,75
608,37	1806,31
608,56	1658,85
608,76	1748,97
608,95	1859,56
609,14	1730,53
609,33	1748,97
609,52	1832,93
609,72	1722,34
609,91	1738,73
610,10	1767,40
610,29	1832,93
610,48	1775,59
610,68	1708,01
610,87	1769,44
611,06	1753,06
611,25	1767,40
611,44	1785,83
611,63	1689,57
611,83	1869,80
612,02	1593,32
612,21	1761,25
612,40	1640,42
612,59	1658,85
612,79	1658,85
612,98	1755,11
613,17	1767,40
613,36	1746,92
613,55	1923,04
613,74	1658,85
613,93	1730,53
614,13	1771,49
614,32	1755,11
614,51	1787,88
614,70	1701,86
614,89	1667,05
615,08	1804,26
615,28	2047,97
615,47	1677,29
615,66	1697,77
615,85	1796,07
616,04	1865,70
616,23	1777,64
616,42	1757,16
616,62	1763,30
616,81	1802,21
617,00	1738,73
617,19	1794,02
617,38	1703,91
617,57	1699,81
617,76	1789,92
617,95	1720,29
618,15	1734,63
618,34	1824,74
618,53	1681,38
618,72	1871,84
618,91	1779,68
619,10	1804,26
619,29	1722,34
619,48	1744,87
619,68	1697,77
619,87	1761,25
620,06	1656,81
620,25	1781,73
620,44	1722,34
620,63	1804,26
620,82	1738,73
621,01	1697,77
621,20	1755,11
621,39	1800,16
621,59	1789,92
621,78	1722,34
621,97	1681,38
622,16	1820,64
622,35	1761,25
622,54	1779,68
622,73	1798,12
622,92	1714,15
623,11	1757,16
623,30	1755,11
623,49	1712,10
623,68	1669,09
623,88	1845,22
624,07	1665,00
624,26	1759,21
624,45	1714,15
624,64	1734,63
624,83	1761,25
625,02	1687,53
625,21	1791,97
625,40	1753,06
625,59	1789,92
625,78	1691,62
625,97	1744,87
626,16	1787,88
626,35	1794,02
626,54	1787,88
626,74	1828,84
626,93	1732,58
627,12	1753,06
627,31	1794,02
627,50	1720,29
627,69	1763,30
627,88	1746,92
628,07	1697,77
628,26	1613,80
628,45	1716,20
628,64	1708,01
628,83	1693,67
629,02	1658,85
629,21	1820,64
629,40	1705,96
629,59	1642,47
629,78	1783,78
629,97	1669,09
630,16	1738,73
630,35	1722,34
630,54	1730,53
630,73	1726,44
630,92	1761,25
631,11	1693,67
631,30	1695,72
631,49	1722,34
631,68	1677,29
631,87	1728,49
632,06	1595,37
632,25	1841,12
632,44	1722,34
632,63	1787,88
632,82	1640,42
633,01	1748,97
633,20	1673,19
633,39	1695,72
633,58	1640,42
633,77	1732,58
633,96	1691,62
634,15	1714,15
634,34	1763,30
634,53	1738,73
634,72	1669,09
634,91	1652,71
635,10	1695,72
635,29	1730,53
635,48	1738,73
635,67	1701,86
635,86	1656,81
636,05	1761,25
636,24	1775,59
636,43	1697,77
636,62	1802,21
636,81	1630,18
637,00	1783,78
637,19	1837,03
637,38	1771,49
637,57	1703,91
637,76	1708,01
637,95	1720,29
638,14	1667,05
638,33	1730,53
638,52	1773,54
638,71	1665,00
638,89	1636,33
639,08	1927,14
639,27	1755,11
639,46	1738,73
639,65	1769,44
639,84	1732,58
640,03	1748,97
640,22	1722,34
640,41	1847,27
640,60	1652,71
640,79	1806,31
640,98	1681,38
641,17	1759,21
641,36	1796,07
641,55	1724,39
641,74	1710,05
641,92	1636,33
642,11	1650,66
642,30	1701,86
642,49	1642,47
642,68	1636,33
642,87	1855,46
643,06	1751,01
643,25	1751,01
643,44	1660,90
643,63	1632,23
643,82	1828,84
644,00	1716,20
644,19	1722,34
644,38	1703,91
644,57	1722,34
644,76	1710,05
644,95	1730,53
645,14	1685,48
645,33	1720,29
645,52	1744,87
645,71	1734,63
645,89	1652,71
646,08	1783,78
646,27	1763,30
646,46	1855,46
646,65	1732,58
646,84	1742,82
647,03	1656,81
647,22	1775,59
647,40	1716,20
647,59	1687,53
647,78	1734,63
647,97	1691,62
648,16	1662,95
648,35	1837,03
648,54	1800,16
648,73	1679,33
648,91	1767,40
649,10	1734,63
649,29	1673,19
649,48	1763,30
649,67	1779,68
649,86	1650,66
650,05	1681,38
650,23	1865,70
650,42	1642,47
650,61	1751,01
650,80	1802,21
650,99	1826,79
651,18	1771,49
651,36	1843,17
651,55	1722,34
651,74	1834,98
651,93	1761,25
652,12	1781,73
652,31	1656,81
652,49	1712,10
652,68	1732,58
652,87	1791,97
653,06	1736,68
653,25	1869,80
653,44	1660,90
653,62	1787,88
653,81	1755,11
654,00	1738,73
654,19	1734,63
654,38	1880,04
654,56	1751,01
654,75	1652,71
654,94	1775,59
655,13	1701,86
655,32	1787,88
655,51	1769,44
655,69	1685,48
655,88	1853,41
656,07	1751,01
656,26	1738,73
656,45	1624,04
656,63	1736,68
656,82	1783,78
657,01	1783,78
657,20	1677,29
657,38	1828,84
657,57	1712,10
657,76	1689,57
657,95	1834,98
658,14	1673,19
658,32	1748,97
658,51	1671,14
658,70	1748,97
658,89	1771,49
659,08	1773,54
659,26	1806,31
659,45	1703,91
659,64	1718,25
659,83	1665,00
660,01	1914,85
660,20	1826,79
660,39	1798,12
660,58	1581,03
660,76	1742,82
660,95	1697,77
661,14	1828,84
661,33	1710,05
661,51	1613,80
661,70	1695,72
661,89	1728,49
662,08	1751,01
662,26	1642,47
662,45	1708,01
662,64	1857,51
662,83	1759,21
663,01	1710,05
663,20	1658,85
663,39	1781,73
663,58	1720,29
663,76	1665,00
663,95	1748,97
664,14	1751,01
664,32	1677,29
664,51	1679,33
664,70	1650,66
664,89	1761,25
665,07	1726,44
665,26	1798,12
665,45	1597,42
665,64	1726,44
665,82	1687,53
666,01	1839,08
666,20	1677,29
666,38	1806,31
666,57	1771,49
666,76	2127,84
666,95	4407,23
667,13	10123,11
667,32	14884,64
667,51	17225,47
667,69	18478,82
667,88	17125,11
668,07	12107,59
668,25	9334,64
668,44	7903,11
668,63	7245,71
668,81	6662,04
669,00	6096,80
669,19	5572,52
669,38	4982,71
669,56	4530,11
669,75	3885,00
669,94	3282,89
670,12	2865,11
670,31	2467,80
670,50	2314,20
670,68	2039,78
670,87	1900,52
671,06	1843,17
671,24	1742,82
671,43	1820,64
671,62	1746,92
671,80	1687,53
671,99	1765,35
672,18	1759,21
672,36	1777,64
672,55	1748,97
672,74	1677,29
672,92	1683,43
673,11	1748,97
673,29	1773,54
673,48	1839,08
673,67	1753,06
673,85	1779,68
674,04	1689,57
674,23	1791,97
674,41	1853,41
674,60	1714,15
674,79	1710,05
674,97	1714,15
675,16	1695,72
675,34	1740,77
675,53	1677,29
675,72	1691,62
675,90	1789,92
676,09	1703,91
676,28	1726,44
676,46	1691,62
676,65	1742,82
676,83	1708,01
677,02	1757,16
677,21	1718,25
677,39	1787,88
677,58	1609,70
677,77	1765,35
677,95	1705,96
678,14	1693,67
678,32	1671,14
678,51	1699,81
678,70	1820,64
678,88	1617,90
679,07	1753,06
679,25	1734,63
679,44	1689,57
679,63	1644,52
679,81	1746,92
680,00	1767,40
680,18	1705,96
680,37	1802,21
680,55	1728,49
680,74	1632,23
680,93	1574,89
681,11	1812,45
681,30	1761,25
681,48	1773,54
681,67	1722,34
681,85	1689,57
682,04	1617,90
682,23	1746,92
682,41	1748,97
682,60	1712,10
682,78	1656,81
682,97	1636,33
683,15	1701,86
683,34	1708,01
683,53	1771,49
683,71	1626,09
683,90	1834,98
684,08	1789,92
684,27	1763,30
684,45	1753,06
684,64	1877,99
684,82	1675,24
685,01	1705,96
685,19	1691,62
685,38	1859,56
685,57	1746,92
685,75	1675,24
685,94	1705,96
686,12	1683,43
686,31	1660,90
686,49	1746,92
686,68	1640,42
686,86	1728,49
687,05	1693,67
687,23	1849,32
687,42	1697,77
687,60	1630,18
687,79	1726,44
687,97	1820,64
688,16	1812,45
688,34	1751,01
688,53	1617,90
688,71	1800,16
688,90	1755,11
689,08	1712,10
689,27	1681,38
689,45	1687,53
689,64	1789,92
689,82	1687,53
690,01	1712,10
690,19	1796,07
690,38	1730,53
690,56	1773,54
690,75	1689,57
690,93	1660,90
691,12	1681,38
691,30	1781,73
691,49	1679,33
691,67	1728,49
691,86	1875,94
692,04	1679,33
692,23	1753,06
692,41	1642,47
692,60	1812,45
692,78	1787,88
692,97	1640,42
693,15	1812,45
693,34	1863,65
693,52	1783,78
693,71	1697,77
693,89	1794,02
694,08	1613,80
694,26	1800,16
694,44	1775,59
694,63	1785,83
694,81	1724,39
695,00	1665,00
695,18	1806,31
695,37	1859,56
695,55	1771,49
695,74	1724,39
695,92	1675,24
696,10	1736,68
696,29	1660,90
696,47	1667,05
696,66	1589,22
696,84	1642,47
697,03	1791,97
697,21	1800,16
697,40	2267,10
697,58	1837,03
697,76	1607,66
697,95	1652,71
698,13	1701,86
698,32	1712,10
698,50	1691,62
698,68	1738,73
698,87	1722,34
699,05	1755,11
699,24	1724,39
699,42	1726,44
699,61	1689,57
699,79	1787,88
699,97	1740,77
700,16	1667,05
700,34	1587,18
700,53	1697,77
700,71	1742,82
700,89	1810,40
701,08	1669,09
701,26	1681,38
701,45	2209,76
701,63	1679,33
701,81	1699,81
702,00	1808,36
702,18	1744,87
702,37	1724,39
702,55	1767,40
702,73	1566,70
702,92	1691,62
703,10	1806,31
703,28	1626,09
703,47	1669,09
703,65	1742,82
703,84	1812,45
704,02	1607,66
704,20	1787,88
704,39	1730,53
704,57	1703,91
704,75	1767,40
704,94	1775,59
705,12	1689,57
705,30	1798,12
705,49	2209,76
705,67	4315,07
705,86	9174,90
706,04	12293,96
706,22	14110,50
706,41	14884,64
706,59	13113,14
706,77	9086,84
706,96	7122,84
707,14	6442,91
707,32	5701,54
707,51	5449,64
707,69	4802,49
707,87	4116,42
708,06	3499,98
708,24	2936,79
708,42	2306,01
708,61	2240,48
708,79	1925,09
708,97	1886,18
709,16	1773,54
709,34	1767,40
709,52	1767,40
709,71	1697,77
709,89	1744,87
710,07	1695,72
710,26	1759,21
710,44	1763,30
710,62	1861,60
710,80	1708,01
710,99	1841,12
711,17	1882,08
711,35	1703,91
711,54	1693,67
711,72	1757,16
711,90	1769,44
712,09	1738,73
712,27	1652,71
712,45	1751,01
712,63	1716,20
712,82	1722,34
713,00	1677,29
713,18	1818,60
713,37	1755,11
713,55	1757,16
713,73	1751,01
713,91	1775,59
714,10	1703,91
714,28	1738,73
714,46	1728,49
714,65	1794,02
714,83	1742,82
715,01	1716,20
715,19	1740,77
715,38	1693,67
715,56	1767,40
715,74	1613,80
715,92	1654,76
716,11	1785,83
716,29	1640,42
716,47	1619,94
716,65	1753,06
716,84	1638,38
717,02	1744,87
717,20	1624,04
717,38	1681,38
717,57	1718,25
717,75	1679,33
717,93	1710,05
718,11	1832,93
718,30	1712,10
718,48	1771,49
718,66	1851,36
718,84	1800,16
719,03	1726,44
719,21	1601,51
719,39	1789,92
719,57	1806,31
719,75	1755,11
719,94	1626,09
720,12	1644,52
720,30	1748,97
720,48	1744,87
720,67	1671,14
720,85	1626,09
721,03	1677,29
721,21	1685,48
721,39	1740,77
721,58	1810,40
721,76	1720,29
721,94	1769,44
722,12	1773,54
722,30	1779,68
722,49	1697,77
722,67	1662,95
722,85	1697,77
723,03	1644,52
723,21	1626,09
723,40	1705,96
723,58	1701,86
723,76	1767,40
723,94	1796,07
724,12	1671,14
724,30	1804,26
724,49	1724,39
724,67	1617,90
724,85	1828,84
725,03	1669,09
725,21	1748,97
725,40	1796,07
725,58	1718,25
725,76	1806,31
725,94	1660,90
726,12	1693,67
726,30	1740,77
726,49	1712,10
726,67	1677,29
726,85	1736,68
727,03	1777,64
727,21	2199,52
727,39	2885,59
727,57	3751,88
727,76	4190,14
727,94	4386,75
728,12	4216,77
728,30	3635,14
728,48	2998,23
728,66	2791,38
728,84	2543,58
729,03	2271,20
729,21	2156,51
729,39	1968,10
729,57	1888,23
729,75	1908,71
729,93	1812,45
730,11	1724,39
730,30	1734,63
730,48	1705,96
730,66	1837,03
730,84	1783,78
731,02	1648,61
731,20	1732,58
731,38	1744,87
731,56	1714,15
731,74	1654,76
731,93	1724,39
732,11	1773,54
732,29	1771,49
732,47	1714,15
732,65	1798,12
732,83	1775,59
733,01	1701,86
733,19	1566,70
733,37	1755,11
733,56	1787,88
733,74	1691,62
733,92	1765,35
734,10	1738,73
734,28	1728,49
734,46	1640,42
734,64	1767,40
734,82	1677,29
735,00	1658,85
735,18	1695,72
735,36	1667,05
735,54	1701,86
735,73	1732,58
735,91	1726,44
736,09	1781,73
736,27	1722,34
736,45	1796,07
736,63	1660,90
736,81	1763,30
736,99	1751,01
737,17	1796,07
737,35	1746,92
737,53	1769,44
737,71	1755,11
737,89	1740,77
738,07	1624,04
738,25	1716,20
738,43	1644,52
738,61	1665,00
738,80	1650,66
738,98	1667,05
739,16	1716,20
739,34	1718,25
739,52	1740,77
739,70	1699,81
739,88	1716,20
740,06	1877,99
740,24	1542,12
740,42	1849,32
740,60	1609,70
740,78	1665,00
740,96	1697,77
741,14	1736,68
741,32	1757,16
741,50	1562,60
741,68	1816,55
741,86	1748,97
742,04	1681,38
742,22	1603,56
742,40	1712,10
742,58	1732,58
742,76	1648,61
742,94	1847,27
743,12	1628,14
743,30	1712,10
743,48	1722,34
743,66	1669,09
743,84	1796,07
744,02	1689,57
744,20	1746,92
744,38	1703,91
744,56	1621,99
744,74	1855,46
744,92	1777,64
745,10	1787,88
745,28	1722,34
745,46	1853,41
745,64	1667,05
745,82	1714,15
746,00	1722,34
746,18	1726,44
746,36	1714,15
746,54	1751,01
746,72	1708,01
746,90	1619,94
747,08	1798,12
747,26	1716,20
747,44	1783,78
747,62	1693,67
747,80	1769,44
747,98	1742,82
748,15	1687,53
748,33	1830,88
748,51	1662,95
748,69	1779,68
748,87	1687,53
749,05	1671,14
749,23	1671,14
749,41	1744,87
749,59	1710,05
749,77	1746,92
749,95	1767,40
750,13	1714,15
750,31	1658,85
750,49	1785,83
750,67	1763,30
750,85	1730,53
751,03	1738,73
751,20	1849,32
751,38	1716,20
751,56	1710,05
751,74	1679,33
751,92	1718,25
752,10	1619,94
752,28	1751,01
752,46	1697,77
752,64	1695,72
752,82	1644,52
753,00	1765,35
753,18	1679,33
753,35	1650,66
753,53	1705,96
753,71	1583,08
753,89	1759,21
754,07	1681,38
754,25	1658,85
754,43	1734,63
754,61	1660,90
754,79	1634,28
754,97	1701,86
755,14	1794,02
755,32	1728,49
755,50	1722,34
755,68	1728,49
755,86	1695,72
756,04	1675,24
756,22	1673,19
756,40	1742,82
756,57	1841,12
756,75	1710,05
756,93	1808,36
757,11	1779,68
757,29	1621,99
757,47	1615,85
757,65	1619,94
757,82	1595,37
758,00	1703,91
758,18	1687,53
758,36	1646,57
758,54	1746,92
758,72	1570,79
758,90	1822,69
759,07	1687,53
759,25	1689,57
759,43	1728,49
759,61	1693,67
759,79	2138,08
759,97	1718,25
760,15	1648,61
760,32	1699,81
760,50	1701,86
760,68	1781,73
760,86	1691,62
761,04	1736,68
761,22	1746,92
761,39	1722,34
761,57	1738,73
761,75	1677,29
761,93	1734,63
762,11	1728,49
762,28	1667,05
762,46	1642,47
762,64	1689,57
762,82	1632,23
763,00	1697,77
763,18	1822,69
763,35	1648,61
763,53	1804,26
763,71	1652,71
763,89	1712,10
764,07	1730,53
764,24	1640,42
764,42	1767,40
764,60	1708,01
764,78	1753,06
764,96	1767,40
765,13	1785,83
765,31	1751,01
765,49	1820,64
765,67	1665,00
765,84	1718,25
766,02	1681,38
766,20	1560,55
766,38	1767,40
766,56	1746,92
766,73	1703,91
766,91	1705,96
767,09	1769,44
767,27	1736,68
767,44	1671,14
767,62	1753,06
767,80	1708,01
767,98	1722,34
768,15	1724,39
768,33	1791,97
768,51	1771,49
768,69	1806,31
768,87	1734,63
769,04	1689,57
769,22	1871,84
769,40	1816,55
769,58	1863,65
769,75	1640,42
769,93	1818,60
770,11	1675,24
770,28	1695,72
770,46	1730,53
770,64	1671,14
770,82	1787,88
770,99	1665,00
771,17	1789,92
771,35	1673,19
771,53	1712,10
771,70	1665,00
771,88	1695,72
772,06	1701,86
772,23	1798,12
772,41	1746,92
772,59	1689,57
772,77	1617,90
772,94	1746,92
773,12	1746,92
773,30	1642,47
773,47	1716,20
773,65	1683,43
773,83	1812,45
774,01	1785,83
774,18	1640,42
774,36	1691,62
774,54	1662,95
774,71	1742,82
774,89	1687,53
775,07	1669,09
775,24	1691,62
775,42	1595,37
775,60	1773,54
775,78	1732,58
775,95	1734,63
776,13	1740,77
776,31	1671,14
776,48	1734,63
776,66	1794,02
776,84	1675,24
777,01	1658,85
777,19	1703,91
777,37	1746,92
777,54	1761,25
777,72	1896,42
777,90	1779,68
778,07	1615,85
778,25	1865,70
778,43	1783,78
778,60	1716,20
778,78	1791,97
778,96	1779,68
779,13	1628,14
779,31	1673,19
779,49	1744,87
779,66	1689,57
779,84	1755,11
780,01	1634,28
780,19	1685,48
780,37	1808,36
780,54	1806,31
780,72	1632,23
780,90	1746,92
781,07	1740,77
781,25	1712,10
781,43	1732,58
781,60	1691,62
781,78	1818,60
781,95	1708,01
782,13	1626,09
782,31	1660,90
782,48	1603,56
782,66	1734,63
782,83	1830,88
783,01	1677,29
783,19	1701,86
783,36	1677,29
783,54	1673,19
783,72	1728,49
783,89	1701,86
784,07	1740,77
784,24	1720,29
784,42	1724,39
784,60	1796,07
784,77	1783,78
784,95	1624,04
785,12	1683,43
785,30	1755,11
785,47	1677,29
785,65	1703,91
785,83	1757,16
786,00	1736,68
786,18	1794,02
786,35	1669,09
786,53	1621,99
786,71	1677,29
786,88	1705,96
787,06	1779,68
787,23	1675,24
787,41	1630,18
787,58	1667,05
787,76	1681,38
787,94	1734,63
788,11	1781,73
788,29	1685,48
788,46	1734,63
788,64	1605,61
788,81	1742,82
788,99	1712,10
789,16	1662,95
789,34	1679,33
789,52	1710,05
789,69	1730,53
789,87	1587,18
790,04	1701,86
790,22	1716,20
790,39	1814,50
790,57	1677,29
790,74	1587,18
790,92	1742,82
791,09	1634,28
791,27	1699,81
791,44	1746,92
791,62	1708,01
791,79	1714,15
791,97	1736,68
792,15	1951,71
792,32	1755,11
792,50	1798,12
792,67	1853,41
792,85	1744,87
793,02	1773,54
793,20	1632,23
793,37	1525,74
793,55	1665,00
793,72	1591,27
793,90	1748,97
794,07	1689,57
794,25	1685,48
794,42	1722,34
794,60	1693,67
794,77	1771,49
794,95	1722,34
795,12	1832,93
795,30	1714,15
795,47	1583,08
795,65	1900,52
795,82	1730,53
796,00	1646,57
796,17	1728,49
796,34	1689,57
796,52	1787,88
796,69	1796,07
796,87	1730,53
797,04	1732,58
797,22	1726,44
797,39	1755,11
797,57	1800,16
797,74	1794,02
797,92	1710,05
798,09	1667,05
798,27	1738,73
798,44	1710,05
798,62	1716,20
798,79	1669,09
798,96	1697,77
799,14	1757,16
799,31	1882,08
799,49	1675,24
799,66	1656,81
799,84	1746,92
800,01	1599,46
800,19	1726,44
800,36	1636,33
800,53	1665,00
800,71	1748,97
800,88	1843,17
801,06	1730,53
801,23	1736,68
801,41	1658,85
801,58	1697,77
801,75	1660,90
801,93	1781,73
802,10	1714,15
802,28	1736,68
802,45	1646,57
802,63	1734,63
802,80	1679,33
802,97	1714,15
803,15	1710,05
803,32	1640,42
803,50	1632,23
803,67	1665,00
803,84	1642,47
804,02	1755,11
804,19	1691,62
804,37	1665,00
804,54	1658,85
804,71	1605,61
804,89	1751,01
805,06	1681,38
805,24	1673,19
805,41	1705,96
805,58	1691,62
805,76	1828,84
805,93	1658,85
806,10	1802,21
806,28	1794,02
806,45	1720,29
806,63	1779,68
806,80	1722,34
806,97	1767,40
807,15	1714,15
807,32	1671,14
807,49	1742,82
807,67	1626,09
807,84	1771,49
808,01	1632,23
808,19	1826,79
808,36	1800,16
808,54	1652,71
808,71	1648,61
808,88	1763,30
809,06	1712,10
809,23	1761,25
809,40	1660,90
809,58	1699,81
809,75	1736,68
809,92	1642,47
810,10	1814,50
810,27	1718,25
810,44	1746,92
810,62	1779,68
810,79	1785,83
810,96	1642,47
811,14	1646,57
811,31	1701,86
811,48	1808,36
811,66	1738,73
811,83	1812,45
812,00	1722,34
812,18	1720,29
812,35	1851,36
812,52	1669,09
812,69	1736,68
812,87	1693,67
813,04	1738,73
813,21	1689,57
813,39	1765,35
813,56	1685,48
813,73	1798,12
813,91	1644,52
814,08	1673,19
814,25	1730,53
814,42	1708,01
814,60	1703,91
814,77	1718,25
814,94	1755,11
815,12	1789,92
815,29	1820,64
815,46	1665,00
815,63	1744,87
815,81	1726,44
815,98	1665,00
816,15	1652,71
816,33	1763,30
816,50	1689,57
816,67	1654,76
816,84	1798,12
817,02	1656,81
817,19	1732,58
817,36	1646,57
817,53	1689,57
817,71	1669,09
817,88	1732,58
818,05	1769,44
818,22	1736,68
818,40	1808,36
818,57	1779,68
818,74	1791,97
818,91	1679,33
819,09	1716,20
819,26	1781,73
819,43	1683,43
819,60	1650,66
819,78	1679,33
819,95	1726,44
820,12	1617,90
820,29	1734,63
820,47	1734,63
820,64	1611,75
820,81	1591,27
820,98	1656,81
821,15	1697,77
821,33	1673,19
821,50	1621,99
821,67	1716,20
821,84	1705,96
822,02	1759,21
822,19	1791,97
822,36	1722,34
822,53	1652,71
822,70	1683,43
822,88	1669,09
823,05	1773,54
823,22	1759,21
823,39	1689,57
823,56	1705,96
823,74	1798,12
823,91	1681,38
824,08	1701,86
824,25	1656,81
824,42	1877,99
824,60	1599,46
824,77	1640,42
824,94	1626,09
825,11	1740,77
825,28	1634,28
825,45	1777,64
825,63	1755,11
825,80	1636,33
825,97	1697,77
826,14	1691,62
826,31	1607,66
826,48	1701,86
826,66	1638,38
826,83	1669,09
827,00	1740,77
827,17	1673,19
827,34	1736,68
827,51	1794,02
827,69	1691,62
827,86	1652,71
828,03	1675,24
828,20	1757,16
828,37	1712,10
828,54	1720,29
828,71	1722,34
828,89	1722,34
829,06	1765,35
829,23	1800,16
829,40	1658,85
829,57	1583,08
829,74	1687,53
829,91	1673,19
830,09	1673,19
830,26	1804,26
830,43	1753,06
830,60	1650,66
830,77	1816,55
830,94	1773,54
831,11	1710,05
831,28	1685,48
831,46	1779,68
831,63	1699,81
831,80	1751,01
831,97	1705,96
832,14	1632,23
832,31	1755,11
832,48	1724,39
832,65	1806,31
832,82	1687,53
832,99	1751,01
833,17	1611,75
833,34	1746,92
833,51	1810,40
833,68	1634,28
833,85	1791,97
834,02	1691,62
834,19	1656,81
834,36	1673,19
834,53	1734,63
834,70	1751,01
834,87	1761,25
835,04	1675,24
835,22	1732,58
835,39	1703,91
835,56	1640,42
835,73	1671,14
835,90	1675,24
836,07	1646,57
836,24	1785,83
836,41	1685,48
836,58	1681,38
836,75	1755,11
836,92	1677,29
837,09	1665,00
837,26	1785,83
837,43	1740,77
837,60	1796,07
837,77	1732,58
837,94	1736,68
838,12	1779,68
838,29	1724,39
838,46	1644,52
838,63	1605,61
838,80	1767,40
838,97	1734,63
839,14	1714,15
839,31	1710,05
839,48	1730,53
839,65	1658,85
839,82	1779,68
839,99	1755,11
840,16	1689,57
840,33	1687,53
840,50	1718,25
840,67	1693,67
840,84	1609,70
841,01	1757,16
841,18	1667,05
841,35	1624,04
841,52	1763,30
841,69	1837,03
841,86	1689,57
842,03	1718,25
842,20	1765,35
842,37	1738,73
842,54	1701,86
842,71	1736,68
842,88	1624,04
843,05	1777,64
843,22	1753,06
843,39	1814,50
843,56	1597,42
843,73	1693,67
843,90	1685,48
844,07	1695,72
844,24	1703,91
844,41	1705,96
844,58	1658,85
844,75	1642,47
844,92	1714,15
845,09	1701,86
845,26	1648,61
845,43	1767,40
845,60	1738,73
845,77	1736,68
845,94	1755,11
846,10	1740,77
846,27	1599,46
846,44	1662,95
846,61	1751,01
846,78	1656,81
846,95	1703,91
847,12	1605,61
847,29	1662,95
847,46	1691,62
847,63	1742,82
847,80	1638,38
847,97	1658,85
848,14	1839,08
848,31	1669,09
848,48	1654,76
848,65	1722,34
848,82	1665,00
848,98	1826,79
849,15	1710,05
849,32	1806,31
849,49	1757,16
849,66	1673,19
849,83	1710,05
850,00	1646,57
850,17	1746,92
850,34	1703,91
850,51	1607,66
850,68	1652,71
850,85	1814,50
851,01	1730,53
851,18	1687,53
851,35	1681,38
851,52	1730,53
851,69	1869,80
851,86	1626,09
852,03	1744,87
852,20	1808,36
852,37	1710,05
852,53	1650,66
852,70	1660,90
852,87	1714,15
853,04	1775,59
853,21	1732,58
853,38	1806,31
853,55	1814,50
853,72	1796,07
853,89	1632,23
854,05	1632,23
854,22	1679,33
854,39	1703,91
854,56	1769,44
854,73	1753,06
854,90	1595,37
855,07	1687,53
855,23	1644,52
855,40	1769,44
855,57	1650,66
855,74	1701,86
855,91	1863,65
856,08	1634,28
856,25	1656,81
856,41	1726,44
856,58	1658,85
856,75	1671,14
856,92	1683,43
857,09	1732,58
857,26	1611,75
857,42	1642,47
857,59	1718,25
857,76	1695,72
857,93	1753,06
858,10	1665,00
858,27	1718,25
858,43	1703,91
858,60	1724,39
858,77	1597,42
858,94	1746,92
859,11	1771,49
859,27	1681,38
859,44	1681,38
859,61	1861,60
859,78	1712,10
859,95	1658,85
860,12	1695,72
860,28	1777,64
860,45	1849,32
860,62	1660,90
860,79	1656,81
860,95	1691,62
861,12	1540,07
861,29	1683,43
861,46	1617,90
861,63	1701,86
861,79	1722,34
861,96	1677,29
862,13	1730,53
862,30	1765,35
862,47	1656,81
862,63	1683,43
862,80	1742,82
862,97	1785,83
863,14	1748,97
863,30	1779,68
863,47	1734,63
863,64	1812,45
863,81	1675,24
863,97	1693,67
864,14	1701,86
864,31	1734,63
864,48	1740,77
864,65	1652,71
864,81	1738,73
864,98	1730,53
865,15	1728,49
865,32	1738,73
865,48	1826,79
865,65	1761,25
865,82	1638,38
865,98	1652,71
866,15	1785,83
866,32	1646,57
866,49	1656,81
866,65	1763,30
866,82	1712,10
866,99	1671,14
867,16	1658,85
867,32	1710,05
867,49	1761,25
867,66	1714,15
867,83	1689,57
867,99	1628,14
868,16	1714,15
868,33	1652,71
868,49	1769,44
868,66	1669,09
868,83	1738,73
868,99	1722,34
869,16	1759,21
869,33	1808,36
869,50	1832,93
869,66	1730,53
869,83	1730,53
870,00	1654,76
870,16	1757,16
870,33	1685,48
870,50	1738,73
870,66	1656,81
870,83	1843,17
871,00	1775,59
871,17	1718,25
871,33	1738,73
871,50	1675,24
871,67	1730,53
871,83	1640,42
872,00	1773,54
872,17	1738,73
872,33	1839,08
872,50	1828,84
872,67	1744,87
872,83	1710,05
873,00	1675,24
873,17	1800,16
873,33	1736,68
873,50	1705,96
873,67	1665,00
873,83	1746,92
874,00	1695,72
874,16	1777,64
874,33	1724,39
874,50	1675,24
874,66	1789,92
874,83	1746,92
875,00	1775,59
875,16	1714,15
875,33	1705,96
875,50	1591,27
875,66	1693,67
875,83	1767,40
875,99	1779,68
876,16	1652,71
876,33	1595,37
876,49	1730,53
876,66	1785,83
876,83	1714,15
876,99	1615,85
877,16	1714,15
877,32	1632,23
877,49	1716,20
877,66	1685,48
877,82	1861,60
877,99	1732,58
878,15	1785,83
878,32	1767,40
878,49	1769,44
878,65	1691,62
878,82	1734,63
878,98	1705,96
879,15	1683,43
879,32	1783,78
879,48	1679,33
879,65	1789,92
879,81	1683,43
879,98	1677,29
880,15	1654,76
880,31	1742,82
880,48	1656,81
880,64	1761,25
880,81	1759,21
880,97	1802,21
881,14	1816,55
881,31	1630,18
881,47	1871,84
881,64	1728,49
881,80	1638,38
881,97	1785,83
882,13	1781,73
882,30	1675,24
882,47	1699,81
882,63	1658,85
882,80	1673,19
882,96	1621,99
883,13	1701,86
883,29	1693,67
883,46	1722,34
883,62	1804,26
883,79	1652,71
883,95	1718,25
884,12	1671,14
884,29	1746,92
884,45	1755,11
884,62	1822,69
884,78	1626,09
884,95	1775,59
885,11	1576,94
885,28	1685,48
885,44	1648,61
885,61	1726,44
885,77	1816,55
885,94	1773,54
886,10	1662,95
886,27	1695,72
886,43	1781,73
886,60	1742,82
886,76	1798,12
886,93	1630,18
887,09	1744,87
887,26	1654,76
887,42	1738,73
887,59	1798,12
887,75	1822,69
887,92	1761,25
888,08	1796,07
888,25	1783,78
888,41	1828,84
888,58	1685,48
888,74	1673,19
888,91	1699,81
>>>>>End Processed Spectral Data<<<<<
