SpectraSuite Data File
++++++++++++++++++++++++++++++++++++
Date: Mon Jun 06 13:19:57 CEST 2016
User: root
Dark Spectrum Present: No
Reference Spectrum Present: No
Number of Sampled Component Spectra: 1
Spectrometers: USB4C02835
Integration Time (usec): 100000 (USB4C02835)
Spectra Averaged: 1 (USB4C02835)
Boxcar Smoothing: 0 (USB4C02835)
Correct for Electrical Dark: No (USB4C02835)
Strobe/Lamp Enabled: No (USB4C02835)
Correct for Detector Non-linearity: No (USB4C02835)
Correct for Stray Light: No (USB4C02835)
Number of Pixels in Processed Spectrum: 3648
>>>>>Begin Processed Spectral Data<<<<<
177,47	1495,02
177,69	1495,02
177,91	1495,02
178,13	1421,29
178,36	1507,30
178,58	1695,72
178,80	1740,77
179,02	1673,19
179,24	1679,33
179,46	1662,95
179,68	1796,07
179,90	1757,16
180,13	1652,71
180,35	1572,84
180,57	1689,57
180,79	1789,92
181,01	1695,72
181,23	1779,68
181,45	1703,91
181,67	1673,19
181,90	1708,01
182,12	1654,76
182,34	1554,41
182,56	1765,35
182,78	1820,64
183,00	1665,00
183,22	1732,58
183,44	1576,94
183,66	1832,93
183,89	1812,45
184,11	1634,28
184,33	1710,05
184,55	1843,17
184,77	1732,58
184,99	1732,58
185,21	1630,18
185,43	1810,40
185,65	1642,47
185,87	1783,78
186,10	1806,31
186,32	1832,93
186,54	1679,33
186,76	1748,97
186,98	1669,09
187,20	1771,49
187,42	1605,61
187,64	1761,25
187,86	1710,05
188,08	1691,62
188,30	1650,66
188,52	1720,29
188,75	1763,30
188,97	1677,29
189,19	1654,76
189,41	1701,86
189,63	1730,53
189,85	1675,24
190,07	1609,70
190,29	1597,42
190,51	1718,25
190,73	1626,09
190,95	1705,96
191,17	1732,58
191,39	1615,85
191,61	1591,27
191,84	1675,24
192,06	1724,39
192,28	1595,37
192,50	1890,28
192,72	1740,77
192,94	1644,52
193,16	1755,11
193,38	1646,57
193,60	1609,70
193,82	1636,33
194,04	1777,64
194,26	1683,43
194,48	1697,77
194,70	1695,72
194,92	1665,00
195,14	1701,86
195,36	1615,85
195,58	1732,58
195,80	1716,20
196,02	1691,62
196,24	1757,16
196,46	1722,34
196,69	1675,24
196,91	1847,27
197,13	1685,48
197,35	1662,95
197,57	1804,26
197,79	1703,91
198,01	1732,58
198,23	1705,96
198,45	1742,82
198,67	1691,62
198,89	1695,72
199,11	1679,33
199,33	1703,91
199,55	1564,65
199,77	1751,01
199,99	1744,87
200,21	1697,77
200,43	1722,34
200,65	1634,28
200,87	1638,38
201,09	1687,53
201,31	1667,05
201,53	1841,12
201,75	1716,20
201,97	1714,15
202,19	1693,67
202,41	1763,30
202,63	1843,17
202,85	1796,07
203,07	1724,39
203,29	1650,66
203,51	1621,99
203,73	1718,25
203,95	1902,56
204,17	1734,63
204,39	1687,53
204,61	1581,03
204,83	1685,48
205,05	1761,25
205,27	1775,59
205,49	1812,45
205,71	1742,82
205,93	1681,38
206,15	1640,42
206,37	1628,14
206,59	1628,14
206,81	1626,09
207,03	1660,90
207,25	1673,19
207,47	1732,58
207,69	1562,60
207,91	1751,01
208,13	1814,50
208,34	1740,77
208,56	1626,09
208,78	1757,16
209,00	1742,82
209,22	1753,06
209,44	1714,15
209,66	1662,95
209,88	1732,58
210,10	1681,38
210,32	1662,95
210,54	1789,92
210,76	1679,33
210,98	1730,53
211,20	1611,75
211,42	1630,18
211,64	1761,25
211,86	1667,05
212,08	1701,86
212,30	1652,71
212,52	1732,58
212,74	1712,10
212,96	1685,48
213,17	1755,11
213,39	1701,86
213,61	1814,50
213,83	1724,39
214,05	1613,80
214,27	1789,92
214,49	1648,61
214,71	1685,48
214,93	1720,29
215,15	1726,44
215,37	1728,49
215,59	1646,57
215,81	1691,62
216,03	1757,16
216,24	1685,48
216,46	1708,01
216,68	1675,24
216,90	1679,33
217,12	1738,73
217,34	1718,25
217,56	1738,73
217,78	1748,97
218,00	1751,01
218,22	1701,86
218,44	1705,96
218,66	1728,49
218,87	1769,44
219,09	1724,39
219,31	1687,53
219,53	1699,81
219,75	1771,49
219,97	1660,90
220,19	1679,33
220,41	1718,25
220,63	1744,87
220,85	1736,68
221,06	1640,42
221,28	1726,44
221,50	1771,49
221,72	1689,57
221,94	1654,76
222,16	1677,29
222,38	1712,10
222,60	1710,05
222,82	1685,48
223,03	1675,24
223,25	1673,19
223,47	1689,57
223,69	1824,74
223,91	1783,78
224,13	1703,91
224,35	1703,91
224,57	1746,92
224,78	1681,38
225,00	1554,41
225,22	1714,15
225,44	1660,90
225,66	1806,31
225,88	1626,09
226,10	1845,22
226,32	1714,15
226,53	1771,49
226,75	1714,15
226,97	1679,33
227,19	1714,15
227,41	1738,73
227,63	1646,57
227,85	1607,66
228,06	1734,63
228,28	1726,44
228,50	1744,87
228,72	1667,05
228,94	1658,85
229,16	1615,85
229,37	1687,53
229,59	1591,27
229,81	1789,92
230,03	1673,19
230,25	1658,85
230,47	1581,03
230,69	1656,81
230,90	1818,60
231,12	1671,14
231,34	1699,81
231,56	1673,19
231,78	1644,52
232,00	1648,61
232,21	1681,38
232,43	1685,48
232,65	1634,28
232,87	1687,53
233,09	1701,86
233,30	1755,11
233,52	1744,87
233,74	1681,38
233,96	1681,38
234,18	1746,92
234,40	1691,62
234,61	1763,30
234,83	1701,86
235,05	1628,14
235,27	1789,92
235,49	1765,35
235,70	1658,85
235,92	1755,11
236,14	1730,53
236,36	1904,61
236,58	1628,14
236,79	1734,63
237,01	1701,86
237,23	1720,29
237,45	1796,07
237,67	1722,34
237,88	1738,73
238,10	1863,65
238,32	1636,33
238,54	1689,57
238,76	1634,28
238,97	1730,53
239,19	1701,86
239,41	1716,20
239,63	1779,68
239,85	1671,14
240,06	1708,01
240,28	1619,94
240,50	1691,62
240,72	1667,05
240,93	1689,57
241,15	1751,01
241,37	1726,44
241,59	1785,83
241,81	1714,15
242,02	1673,19
242,24	1794,02
242,46	1724,39
242,68	1748,97
242,89	1703,91
243,11	1710,05
243,33	1677,29
243,55	1697,77
243,76	1660,90
243,98	1677,29
244,20	1708,01
244,42	1630,18
244,64	1724,39
244,85	1572,84
245,07	1636,33
245,29	1660,90
245,51	1665,00
245,72	1654,76
245,94	1761,25
246,16	1708,01
246,38	1712,10
246,59	1636,33
246,81	1695,72
247,03	1665,00
247,24	1585,13
247,46	1628,14
247,68	1705,96
247,90	1726,44
248,11	1648,61
248,33	1734,63
248,55	1656,81
248,77	1716,20
248,98	1732,58
249,20	1800,16
249,42	1689,57
249,64	1677,29
249,85	1681,38
250,07	1607,66
250,29	1755,11
250,50	1773,54
250,72	1583,08
250,94	1691,62
251,16	1871,84
251,37	1722,34
251,59	1712,10
251,81	1716,20
252,02	1771,49
252,24	1654,76
252,46	1763,30
252,68	1615,85
252,89	1751,01
253,11	1673,19
253,33	1804,26
253,54	1765,35
253,76	1589,22
253,98	1658,85
254,20	1656,81
254,41	1669,09
254,63	1683,43
254,85	1630,18
255,06	1787,88
255,28	1787,88
255,50	1595,37
255,71	1808,36
255,93	1640,42
256,15	1703,91
256,36	1730,53
256,58	1726,44
256,80	1720,29
257,02	1685,48
257,23	1646,57
257,45	1705,96
257,67	1691,62
257,88	1607,66
258,10	1662,95
258,32	1662,95
258,53	1697,77
258,75	1759,21
258,97	1671,14
259,18	1671,14
259,40	1699,81
259,62	1701,86
259,83	1794,02
260,05	1767,40
260,27	2004,96
260,48	1714,15
260,70	1658,85
260,92	1656,81
261,13	1691,62
261,35	1667,05
261,57	1775,59
261,78	1632,23
262,00	1648,61
262,22	1687,53
262,43	1667,05
262,65	1687,53
262,86	1742,82
263,08	1906,66
263,30	1656,81
263,51	1611,75
263,73	1667,05
263,95	1740,77
264,16	1648,61
264,38	1695,72
264,60	1740,77
264,81	1626,09
265,03	1769,44
265,25	1738,73
265,46	1710,05
265,68	1820,64
265,89	1755,11
266,11	1566,70
266,33	1853,41
266,54	1812,45
266,76	1679,33
266,98	1716,20
267,19	1742,82
267,41	1705,96
267,62	1677,29
267,84	1587,18
268,06	1746,92
268,27	1736,68
268,49	1767,40
268,70	1798,12
268,92	1722,34
269,14	1691,62
269,35	1593,32
269,57	1734,63
269,79	1796,07
270,00	1640,42
270,22	1787,88
270,43	1632,23
270,65	1583,08
270,87	1710,05
271,08	1763,30
271,30	1746,92
271,51	1640,42
271,73	1701,86
271,95	1755,11
272,16	1654,76
272,38	1617,90
272,59	1654,76
272,81	1712,10
273,02	1718,25
273,24	1734,63
273,46	1673,19
273,67	1615,85
273,89	1689,57
274,10	1691,62
274,32	1767,40
274,54	1687,53
274,75	1656,81
274,97	1679,33
275,18	1716,20
275,40	1710,05
275,61	1732,58
275,83	1689,57
276,05	1648,61
276,26	1693,67
276,48	1732,58
276,69	1632,23
276,91	1621,99
277,12	1771,49
277,34	1736,68
277,55	1736,68
277,77	1746,92
277,99	1675,24
278,20	1652,71
278,42	1621,99
278,63	1621,99
278,85	1679,33
279,06	1660,90
279,28	1687,53
279,49	1775,59
279,71	1681,38
279,93	1689,57
280,14	1701,86
280,36	1740,77
280,57	1783,78
280,79	1671,14
281,00	1718,25
281,22	1673,19
281,43	1777,64
281,65	1550,31
281,86	1650,66
282,08	1742,82
282,29	1812,45
282,51	1605,61
282,73	1624,04
282,94	1597,42
283,16	1703,91
283,37	1779,68
283,59	1726,44
283,80	1714,15
284,02	1621,99
284,23	1730,53
284,45	1691,62
284,66	1523,69
284,88	1662,95
285,09	1734,63
285,31	1781,73
285,52	1763,30
285,74	1628,14
285,95	1720,29
286,17	1728,49
286,38	1773,54
286,60	1718,25
286,81	1640,42
287,03	1685,48
287,24	1638,38
287,46	1701,86
287,67	1744,87
287,89	1720,29
288,10	1753,06
288,32	1714,15
288,53	1740,77
288,75	1687,53
288,96	1767,40
289,18	1595,37
289,39	1681,38
289,61	1740,77
289,82	1812,45
290,04	1798,12
290,25	1589,22
290,47	1757,16
290,68	1710,05
290,90	1691,62
291,11	1630,18
291,33	1730,53
291,54	1662,95
291,76	1718,25
291,97	1665,00
292,18	1679,33
292,40	1652,71
292,61	1665,00
292,83	1841,12
293,04	1755,11
293,26	1669,09
293,47	1632,23
293,69	1660,90
293,90	1724,39
294,12	1783,78
294,33	1662,95
294,55	1632,23
294,76	1708,01
294,97	1746,92
295,19	1914,85
295,40	1617,90
295,62	1650,66
295,83	1691,62
296,05	1626,09
296,26	1746,92
296,48	1705,96
296,69	1697,77
296,90	1753,06
297,12	1722,34
297,33	1759,21
297,55	1710,05
297,76	1705,96
297,98	1712,10
298,19	1650,66
298,41	1656,81
298,62	1634,28
298,83	1761,25
299,05	1662,95
299,26	1601,51
299,48	1626,09
299,69	1791,97
299,90	1660,90
300,12	1699,81
300,33	1775,59
300,55	1675,24
300,76	1765,35
300,98	1578,98
301,19	1712,10
301,40	1722,34
301,62	1697,77
301,83	1746,92
302,05	1689,57
302,26	1671,14
302,47	1748,97
302,69	1583,08
302,90	1581,03
303,12	1550,31
303,33	1652,71
303,54	1746,92
303,76	1689,57
303,97	1736,68
304,19	1853,41
304,40	1599,46
304,61	1775,59
304,83	1855,46
305,04	1701,86
305,26	1757,16
305,47	1705,96
305,68	1703,91
305,90	1605,61
306,11	1705,96
306,33	1634,28
306,54	1615,85
306,75	1697,77
306,97	1683,43
307,18	1589,22
307,39	1640,42
307,61	1730,53
307,82	1740,77
308,04	1693,67
308,25	1683,43
308,46	1757,16
308,68	1730,53
308,89	1675,24
309,10	1841,12
309,32	1671,14
309,53	1753,06
309,74	1681,38
309,96	1691,62
310,17	1806,31
310,39	1705,96
310,60	1748,97
310,81	1681,38
311,03	1628,14
311,24	1738,73
311,45	1742,82
311,67	1806,31
311,88	1675,24
312,09	1716,20
312,31	1683,43
312,52	1660,90
312,73	1675,24
312,95	1669,09
313,16	1679,33
313,37	1748,97
313,59	1710,05
313,80	1712,10
314,01	1720,29
314,23	1685,48
314,44	1773,54
314,65	1644,52
314,87	1701,86
315,08	1681,38
315,29	1667,05
315,51	1701,86
315,72	1552,36
315,93	1853,41
316,15	1769,44
316,36	1665,00
316,57	1634,28
316,79	1785,83
317,00	1632,23
317,21	1683,43
317,43	1675,24
317,64	1695,72
317,85	1650,66
318,07	1710,05
318,28	1712,10
318,49	1755,11
318,70	1857,51
318,92	1773,54
319,13	1798,12
319,34	1845,22
319,56	1761,25
319,77	1814,50
319,98	1693,67
320,20	1767,40
320,41	1708,01
320,62	1716,20
320,83	1685,48
321,05	1873,89
321,26	1785,83
321,47	1660,90
321,69	1732,58
321,90	1673,19
322,11	1718,25
322,32	1673,19
322,54	1824,74
322,75	1617,90
322,96	1812,45
323,18	1636,33
323,39	1615,85
323,60	1615,85
323,81	1796,07
324,03	1644,52
324,24	1697,77
324,45	1654,76
324,66	1656,81
324,88	1734,63
325,09	1796,07
325,30	1697,77
325,52	1783,78
325,73	1796,07
325,94	1656,81
326,15	1628,14
326,37	1648,61
326,58	1748,97
326,79	1855,46
327,00	1701,86
327,22	1693,67
327,43	1685,48
327,64	1609,70
327,85	1712,10
328,07	1761,25
328,28	1826,79
328,49	1712,10
328,70	1724,39
328,92	1640,42
329,13	1699,81
329,34	1740,77
329,55	1837,03
329,76	1785,83
329,98	1644,52
330,19	1759,21
330,40	1765,35
330,61	1710,05
330,83	1714,15
331,04	1693,67
331,25	1667,05
331,46	1638,38
331,68	1607,66
331,89	1744,87
332,10	1689,57
332,31	1619,94
332,52	1771,49
332,74	1734,63
332,95	1628,14
333,16	1757,16
333,37	1759,21
333,58	1703,91
333,80	1640,42
334,01	1658,85
334,22	1681,38
334,43	1751,01
334,64	1669,09
334,86	1640,42
335,07	1587,18
335,28	1804,26
335,49	1669,09
335,70	1697,77
335,92	1763,30
336,13	1820,64
336,34	1730,53
336,55	1714,15
336,76	1703,91
336,98	1558,50
337,19	1585,13
337,40	1806,31
337,61	1947,62
337,82	1624,04
338,04	1734,63
338,25	1681,38
338,46	1722,34
338,67	1667,05
338,88	1679,33
339,09	1669,09
339,31	1632,23
339,52	1636,33
339,73	1742,82
339,94	1753,06
340,15	1814,50
340,36	1708,01
340,58	1665,00
340,79	1656,81
341,00	1701,86
341,21	1665,00
341,42	1736,68
341,63	1648,61
341,85	1810,40
342,06	1728,49
342,27	1628,14
342,48	1718,25
342,69	1679,33
342,90	1742,82
343,12	1759,21
343,33	1615,85
343,54	1697,77
343,75	1759,21
343,96	1640,42
344,17	1611,75
344,38	1744,87
344,60	1677,29
344,81	1654,76
345,02	1730,53
345,23	1824,74
345,44	1734,63
345,65	1669,09
345,86	1722,34
346,07	1744,87
346,29	1652,71
346,50	1751,01
346,71	1689,57
346,92	1740,77
347,13	1877,99
347,34	1724,39
347,55	1697,77
347,76	1728,49
347,98	1611,75
348,19	1757,16
348,40	1669,09
348,61	1710,05
348,82	1753,06
349,03	1736,68
349,24	1640,42
349,45	1695,72
349,66	1609,70
349,88	1773,54
350,09	1673,19
350,30	1777,64
350,51	1794,02
350,72	1720,29
350,93	1744,87
351,14	1712,10
351,35	1763,30
351,56	1767,40
351,77	1630,18
351,99	1728,49
352,20	1804,26
352,41	1757,16
352,62	1587,18
352,83	1712,10
353,04	1724,39
353,25	1685,48
353,46	1718,25
353,67	1699,81
353,88	1578,98
354,09	1689,57
354,30	1656,81
354,52	1656,81
354,73	1687,53
354,94	1626,09
355,15	1683,43
355,36	1767,40
355,57	1699,81
355,78	1658,85
355,99	1708,01
356,20	1699,81
356,41	1744,87
356,62	1648,61
356,83	1695,72
357,04	1726,44
357,25	1585,13
357,46	1705,96
357,68	1648,61
357,89	1632,23
358,10	1636,33
358,31	1753,06
358,52	1689,57
358,73	1613,80
358,94	1583,08
359,15	1714,15
359,36	1757,16
359,57	1621,99
359,78	1689,57
359,99	1665,00
360,20	1613,80
360,41	1681,38
360,62	1689,57
360,83	1677,29
361,04	1671,14
361,25	1708,01
361,46	1806,31
361,67	1634,28
361,88	1759,21
362,09	1732,58
362,30	1720,29
362,51	1662,95
362,72	1703,91
362,93	1710,05
363,14	1767,40
363,35	1716,20
363,56	1697,77
363,78	1701,86
363,99	1701,86
364,20	1630,18
364,41	1701,86
364,62	1796,07
364,83	1673,19
365,04	1722,34
365,25	1667,05
365,46	1826,79
365,67	1597,42
365,88	1626,09
366,09	1708,01
366,30	1677,29
366,51	1722,34
366,72	1634,28
366,93	1697,77
367,14	1669,09
367,35	1730,53
367,56	1669,09
367,77	1779,68
367,98	1732,58
368,18	1777,64
368,39	1779,68
368,60	1665,00
368,81	1701,86
369,02	1703,91
369,23	1703,91
369,44	1681,38
369,65	1634,28
369,86	1726,44
370,07	1777,64
370,28	1687,53
370,49	1712,10
370,70	1781,73
370,91	1632,23
371,12	1597,42
371,33	1744,87
371,54	1640,42
371,75	1728,49
371,96	1607,66
372,17	1742,82
372,38	1689,57
372,59	1716,20
372,80	1650,66
373,01	1642,47
373,22	1720,29
373,43	1671,14
373,64	1650,66
373,85	1886,18
374,06	1767,40
374,26	1785,83
374,47	1665,00
374,68	1771,49
374,89	1650,66
375,10	1675,24
375,31	1689,57
375,52	1736,68
375,73	1736,68
375,94	1683,43
376,15	1849,32
376,36	1740,77
376,57	1617,90
376,78	1654,76
376,99	1689,57
377,20	1814,50
377,40	1695,72
377,61	1736,68
377,82	1691,62
378,03	1847,27
378,24	1746,92
378,45	1685,48
378,66	1697,77
378,87	1566,70
379,08	1615,85
379,29	1630,18
379,50	1724,39
379,71	1710,05
379,91	1763,30
380,12	1710,05
380,33	1722,34
380,54	1751,01
380,75	1689,57
380,96	1738,73
381,17	1804,26
381,38	1718,25
381,59	1699,81
381,80	1720,29
382,00	1882,08
382,21	1755,11
382,42	1808,36
382,63	1918,95
382,84	1724,39
383,05	1777,64
383,26	1810,40
383,47	1736,68
383,68	1820,64
383,88	1699,81
384,09	1742,82
384,30	1798,12
384,51	1746,92
384,72	1673,19
384,93	1603,56
385,14	1757,16
385,35	1808,36
385,55	1669,09
385,76	1724,39
385,97	1732,58
386,18	1615,85
386,39	1619,94
386,60	1699,81
386,81	1716,20
387,02	1662,95
387,22	1669,09
387,43	1769,44
387,64	1834,98
387,85	1871,84
388,06	2174,94
388,27	4196,29
388,48	6696,86
388,68	8079,24
388,89	9719,66
389,10	9891,69
389,31	8677,24
389,52	7737,23
389,73	6850,46
389,93	6309,79
390,14	5879,72
390,35	5126,07
390,56	4708,28
390,77	3786,69
390,98	3067,86
391,18	2475,99
391,39	2121,70
391,60	1851,36
391,81	1880,04
392,02	1701,86
392,23	1918,95
392,43	1703,91
392,64	1800,16
392,85	1761,25
393,06	1789,92
393,27	1734,63
393,47	1671,14
393,68	1642,47
393,89	1662,95
394,10	1775,59
394,31	1714,15
394,52	1699,81
394,72	1703,91
394,93	1814,50
395,14	1591,27
395,35	1761,25
395,56	1755,11
395,76	1658,85
395,97	1775,59
396,18	1814,50
396,39	1804,26
396,60	1990,63
396,80	1877,99
397,01	1863,65
397,22	1820,64
397,43	1871,84
397,64	1734,63
397,84	1791,97
398,05	1843,17
398,26	1730,53
398,47	1759,21
398,67	1818,60
398,88	1708,01
399,09	1775,59
399,30	1746,92
399,51	1773,54
399,71	1609,70
399,92	1734,63
400,13	1759,21
400,34	1677,29
400,54	1644,52
400,75	1808,36
400,96	1759,21
401,17	1755,11
401,37	1671,14
401,58	1787,88
401,79	1820,64
402,00	1882,08
402,21	1945,57
402,41	2000,87
402,62	1988,58
402,83	1988,58
403,04	2009,06
403,24	2072,54
403,45	1824,74
403,66	1888,23
403,87	1890,28
404,07	1925,09
404,28	1894,37
404,49	1791,97
404,70	1789,92
404,90	1783,78
405,11	1705,96
405,32	1732,58
405,52	1665,00
405,73	1632,23
405,94	1691,62
406,15	1673,19
406,35	1705,96
406,56	1742,82
406,77	1638,38
406,98	1697,77
407,18	1669,09
407,39	1812,45
407,60	1683,43
407,80	1781,73
408,01	1673,19
408,22	1726,44
408,43	1718,25
408,63	1689,57
408,84	1775,59
409,05	1804,26
409,25	1712,10
409,46	1609,70
409,67	1669,09
409,88	1705,96
410,08	1705,96
410,29	1697,77
410,50	1714,15
410,70	1814,50
410,91	1665,00
411,12	1691,62
411,32	1673,19
411,53	1652,71
411,74	1765,35
411,95	1849,32
412,15	1720,29
412,36	1798,12
412,57	1681,38
412,77	1757,16
412,98	1705,96
413,19	1738,73
413,39	1746,92
413,60	1779,68
413,81	1824,74
414,01	1687,53
414,22	1751,01
414,43	1751,01
414,63	1673,19
414,84	1751,01
415,05	1728,49
415,25	1542,12
415,46	1814,50
415,67	1665,00
415,87	1740,77
416,08	1744,87
416,29	1736,68
416,49	1732,58
416,70	1705,96
416,91	1679,33
417,11	1654,76
417,32	1755,11
417,53	1744,87
417,73	1722,34
417,94	1675,24
418,15	1660,90
418,35	1705,96
418,56	1742,82
418,77	1738,73
418,97	1662,95
419,18	1693,67
419,38	1587,18
419,59	1691,62
419,80	1808,36
420,00	1634,28
420,21	1687,53
420,42	1800,16
420,62	1771,49
420,83	1603,56
421,04	1660,90
421,24	1718,25
421,45	1703,91
421,65	1722,34
421,86	1681,38
422,07	1689,57
422,27	1761,25
422,48	1669,09
422,69	1626,09
422,89	1621,99
423,10	1751,01
423,30	1673,19
423,51	1652,71
423,72	1673,19
423,92	1716,20
424,13	1648,61
424,33	1701,86
424,54	1738,73
424,75	1742,82
424,95	1781,73
425,16	1656,81
425,36	1755,11
425,57	1769,44
425,78	1734,63
425,98	1869,80
426,19	1669,09
426,39	1662,95
426,60	1744,87
426,81	1781,73
427,01	1665,00
427,22	1683,43
427,42	1624,04
427,63	1681,38
427,83	1814,50
428,04	1839,08
428,25	1695,72
428,45	1787,88
428,66	1832,93
428,86	1685,48
429,07	1705,96
429,28	1693,67
429,48	1677,29
429,69	1734,63
429,89	1767,40
430,10	1677,29
430,30	1697,77
430,51	1804,26
430,71	1691,62
430,92	1644,52
431,13	1685,48
431,33	1755,11
431,54	1765,35
431,74	1763,30
431,95	1843,17
432,15	1701,86
432,36	1773,54
432,56	1738,73
432,77	1863,65
432,98	1843,17
433,18	1726,44
433,39	1757,16
433,59	1701,86
433,80	1798,12
434,00	1890,28
434,21	1681,38
434,41	1687,53
434,62	1806,31
434,82	1658,85
435,03	1628,14
435,23	1699,81
435,44	1613,80
435,64	1738,73
435,85	1726,44
436,06	1787,88
436,26	1779,68
436,47	1771,49
436,67	1669,09
436,88	1746,92
437,08	1656,81
437,29	1761,25
437,49	1728,49
437,70	1748,97
437,90	1734,63
438,11	1814,50
438,31	1812,45
438,52	1845,22
438,72	1849,32
438,93	1925,09
439,13	1798,12
439,34	1755,11
439,54	1732,58
439,75	1773,54
439,95	1806,31
440,16	1759,21
440,36	1710,05
440,57	1787,88
440,77	1771,49
440,98	1716,20
441,18	1796,07
441,39	1712,10
441,59	1642,47
441,80	1818,60
442,00	1705,96
442,21	1763,30
442,41	1605,61
442,62	1791,97
442,82	1720,29
443,02	1701,86
443,23	1794,02
443,43	1615,85
443,64	1755,11
443,84	1697,77
444,05	1806,31
444,25	1685,48
444,46	1665,00
444,66	1695,72
444,87	1814,50
445,07	1683,43
445,28	1763,30
445,48	1771,49
445,69	1740,77
445,89	1912,80
446,09	1728,49
446,30	2023,39
446,50	2654,17
446,71	3758,02
446,91	4368,32
447,12	4640,70
447,32	4833,21
447,53	4200,38
447,73	3954,63
447,93	3502,03
448,14	3379,15
448,34	3258,32
448,55	2985,94
448,75	2904,02
448,96	2637,78
449,16	2408,41
449,36	2224,09
449,57	1959,91
449,77	1920,99
449,98	1841,12
450,18	1783,78
450,39	1861,60
450,59	1804,26
450,79	1734,63
451,00	1695,72
451,20	1759,21
451,41	1656,81
451,61	1826,79
451,81	1693,67
452,02	1693,67
452,22	1738,73
452,43	1632,23
452,63	1720,29
452,84	1728,49
453,04	1675,24
453,24	1771,49
453,45	1683,43
453,65	1687,53
453,86	1748,97
454,06	1744,87
454,26	1734,63
454,47	1736,68
454,67	1789,92
454,87	1765,35
455,08	1691,62
455,28	1763,30
455,49	1779,68
455,69	1681,38
455,89	1886,18
456,10	1748,97
456,30	1761,25
456,51	1769,44
456,71	1761,25
456,91	1755,11
457,12	1796,07
457,32	1820,64
457,52	1640,42
457,73	1771,49
457,93	1789,92
458,14	1718,25
458,34	1644,52
458,54	1691,62
458,75	1718,25
458,95	1746,92
459,15	1718,25
459,36	1806,31
459,56	1822,69
459,76	1787,88
459,97	1701,86
460,17	1714,15
460,37	1779,68
460,58	1763,30
460,78	1703,91
460,99	1687,53
461,19	1767,40
461,39	1675,24
461,60	1708,01
461,80	1746,92
462,00	1712,10
462,21	1718,25
462,41	1703,91
462,61	1712,10
462,82	1650,66
463,02	1738,73
463,22	1720,29
463,43	1742,82
463,63	1730,53
463,83	1783,78
464,04	1787,88
464,24	1726,44
464,44	1732,58
464,64	1687,53
464,85	1724,39
465,05	1816,55
465,25	1753,06
465,46	1775,59
465,66	1798,12
465,86	1763,30
466,07	1765,35
466,27	1660,90
466,47	1681,38
466,68	1642,47
466,88	1712,10
467,08	1740,77
467,29	1712,10
467,49	1779,68
467,69	1665,00
467,89	1796,07
468,10	1718,25
468,30	1755,11
468,50	1736,68
468,71	1767,40
468,91	1624,04
469,11	1839,08
469,31	1730,53
469,52	1630,18
469,72	1751,01
469,92	1902,56
470,13	1693,67
470,33	1710,05
470,53	1855,46
470,73	2078,69
470,94	2351,07
471,14	2349,02
471,34	2555,86
471,54	2392,03
471,75	2230,24
471,95	2140,13
472,15	2148,32
472,36	2015,20
472,56	2068,45
472,76	2103,26
472,96	1980,39
473,17	1935,33
473,37	1875,94
473,57	1759,21
473,77	1865,70
473,98	1761,25
474,18	1681,38
474,38	1939,43
474,58	1746,92
474,79	1662,95
474,99	1671,14
475,19	1783,78
475,39	1693,67
475,60	1775,59
475,80	1779,68
476,00	1763,30
476,20	1773,54
476,41	1634,28
476,61	1816,55
476,81	1818,60
477,01	1675,24
477,21	1927,14
477,42	1779,68
477,62	1687,53
477,82	1751,01
478,02	1714,15
478,23	1689,57
478,43	1730,53
478,63	1697,77
478,83	1787,88
479,03	1683,43
479,24	1763,30
479,44	1845,22
479,64	1669,09
479,84	1656,81
480,04	1652,71
480,25	1763,30
480,45	1675,24
480,65	1753,06
480,85	1769,44
481,06	1691,62
481,26	1753,06
481,46	1740,77
481,66	1701,86
481,86	1605,61
482,06	1736,68
482,27	1812,45
482,47	1724,39
482,67	1673,19
482,87	1648,61
483,07	1728,49
483,28	1648,61
483,48	1642,47
483,68	1667,05
483,88	1652,71
484,08	1585,13
484,29	1685,48
484,49	1705,96
484,69	1689,57
484,89	1847,27
485,09	1812,45
485,29	1726,44
485,50	1679,33
485,70	1671,14
485,90	1785,83
486,10	1720,29
486,30	1714,15
486,50	1806,31
486,71	1675,24
486,91	1742,82
487,11	1796,07
487,31	1642,47
487,51	1759,21
487,71	1640,42
487,91	1644,52
488,12	1652,71
488,32	1562,60
488,52	1695,72
488,72	1695,72
488,92	1703,91
489,12	1769,44
489,32	1800,16
489,53	1839,08
489,73	1617,90
489,93	1806,31
490,13	1718,25
490,33	1685,48
490,53	1703,91
490,73	1779,68
490,94	1656,81
491,14	1742,82
491,34	1787,88
491,54	2144,22
491,74	2574,30
491,94	2871,25
492,14	3004,37
492,34	3080,14
492,54	2725,85
492,75	2525,15
492,95	2426,84
493,15	2299,87
493,35	2299,87
493,55	2164,70
493,75	2129,89
493,95	2093,02
494,15	2080,74
494,35	1939,43
494,56	1841,12
494,76	1804,26
494,96	1806,31
495,16	1828,84
495,36	1720,29
495,56	1722,34
495,76	1662,95
495,96	1667,05
496,16	1757,16
496,36	1871,84
496,56	1748,97
496,77	1685,48
496,97	1691,62
497,17	1712,10
497,37	1673,19
497,57	1734,63
497,77	1791,97
497,97	1650,66
498,17	1736,68
498,37	1658,85
498,57	1703,91
498,77	1714,15
498,97	1794,02
499,17	1773,54
499,38	1789,92
499,58	1757,16
499,78	1828,84
499,98	1927,14
500,18	1689,57
500,38	1730,53
500,58	1877,99
500,78	2607,06
500,98	4575,16
501,18	5846,95
501,38	6721,43
501,58	7063,44
501,78	6668,19
501,98	5498,80
502,18	5003,19
502,38	4417,47
502,58	4143,04
502,78	3667,91
502,98	3731,40
503,18	3440,59
503,38	3119,06
503,59	2877,40
503,79	2645,98
503,99	2486,23
504,19	2394,08
504,39	2242,53
504,59	2203,61
504,79	2129,89
504,99	2009,06
505,19	1892,32
505,39	1857,51
505,59	2021,35
505,79	1945,57
505,99	1880,04
506,19	1802,21
506,39	1902,56
506,59	1785,83
506,79	1771,49
506,99	1865,70
507,19	1806,31
507,39	1789,92
507,59	1652,71
507,79	1697,77
507,99	1730,53
508,19	1685,48
508,39	1724,39
508,59	1728,49
508,79	1816,55
508,99	1808,36
509,19	1710,05
509,39	1720,29
509,59	1683,43
509,79	1599,46
509,99	1689,57
510,19	1767,40
510,39	1695,72
510,59	1667,05
510,79	1665,00
510,99	1679,33
511,19	1699,81
511,39	1816,55
511,59	1787,88
511,79	1804,26
511,99	1628,14
512,19	1796,07
512,38	1708,01
512,58	1679,33
512,78	1689,57
512,98	1744,87
513,18	1763,30
513,38	1712,10
513,58	1755,11
513,78	1740,77
513,98	1781,73
514,18	1683,43
514,38	1767,40
514,58	1781,73
514,78	1716,20
514,98	1632,23
515,18	1771,49
515,38	1710,05
515,58	1812,45
515,78	1658,85
515,98	1761,25
516,18	1759,21
516,38	1744,87
516,57	1689,57
516,77	1695,72
516,97	1771,49
517,17	1765,35
517,37	1607,66
517,57	1783,78
517,77	1828,84
517,97	1699,81
518,17	1714,15
518,37	1667,05
518,57	1712,10
518,77	1638,38
518,97	1767,40
519,16	1808,36
519,36	1822,69
519,56	1726,44
519,76	1734,63
519,96	1732,58
520,16	1871,84
520,36	1662,95
520,56	1730,53
520,76	1656,81
520,96	1734,63
521,16	1789,92
521,35	1787,88
521,55	1818,60
521,75	1757,16
521,95	1697,77
522,15	1753,06
522,35	1652,71
522,55	1648,61
522,75	1757,16
522,95	1660,90
523,14	1615,85
523,34	1771,49
523,54	1712,10
523,74	1783,78
523,94	1796,07
524,14	1607,66
524,34	1761,25
524,54	1832,93
524,73	1675,24
524,93	1818,60
525,13	1683,43
525,33	1662,95
525,53	1951,71
525,73	1775,59
525,93	1665,00
526,13	1695,72
526,32	1652,71
526,52	1763,30
526,72	1730,53
526,92	1783,78
527,12	1681,38
527,32	1697,77
527,52	1738,73
527,71	1755,11
527,91	1660,90
528,11	1689,57
528,31	1701,86
528,51	1695,72
528,71	1800,16
528,90	1808,36
529,10	1777,64
529,30	1730,53
529,50	1656,81
529,70	1753,06
529,90	1650,66
530,09	1742,82
530,29	1748,97
530,49	1720,29
530,69	1847,27
530,89	1761,25
531,09	1732,58
531,28	1689,57
531,48	1837,03
531,68	1716,20
531,88	1755,11
532,08	1738,73
532,28	1691,62
532,47	1810,40
532,67	1808,36
532,87	1734,63
533,07	1708,01
533,27	1783,78
533,46	1685,48
533,66	1736,68
533,86	1740,77
534,06	1671,14
534,26	1716,20
534,45	1714,15
534,65	1857,51
534,85	1800,16
535,05	1730,53
535,25	1724,39
535,44	1673,19
535,64	1724,39
535,84	1746,92
536,04	1683,43
536,24	1714,15
536,43	1744,87
536,63	1789,92
536,83	1779,68
537,03	1736,68
537,22	1658,85
537,42	1619,94
537,62	1816,55
537,82	1603,56
538,02	1759,21
538,21	1822,69
538,41	1896,42
538,61	1716,20
538,81	1687,53
539,00	1767,40
539,20	1630,18
539,40	1755,11
539,60	1787,88
539,79	1794,02
539,99	1757,16
540,19	1662,95
540,39	1736,68
540,58	1740,77
540,78	1763,30
540,98	1679,33
541,18	1804,26
541,37	1755,11
541,57	1761,25
541,77	1660,90
541,97	1669,09
542,16	1701,86
542,36	1675,24
542,56	1724,39
542,76	1920,99
542,95	1755,11
543,15	1834,98
543,35	1705,96
543,54	1705,96
543,74	1779,68
543,94	1757,16
544,14	1712,10
544,33	1734,63
544,53	1705,96
544,73	1695,72
544,93	1642,47
545,12	1757,16
545,32	1691,62
545,52	1689,57
545,71	1667,05
545,91	1736,68
546,11	1701,86
546,30	1658,85
546,50	1726,44
546,70	1769,44
546,90	1742,82
547,09	1644,52
547,29	1669,09
547,49	1742,82
547,68	1800,16
547,88	1677,29
548,08	1810,40
548,27	2285,53
548,47	1632,23
548,67	1640,42
548,87	1726,44
549,06	1732,58
549,26	1671,14
549,46	1736,68
549,65	1699,81
549,85	1724,39
550,05	1767,40
550,24	1660,90
550,44	1779,68
550,64	1804,26
550,83	1681,38
551,03	1761,25
551,23	1812,45
551,42	1826,79
551,62	1804,26
551,82	1785,83
552,01	1740,77
552,21	1791,97
552,41	1810,40
552,60	1800,16
552,80	1683,43
553,00	1775,59
553,19	1726,44
553,39	1806,31
553,59	1624,04
553,78	1740,77
553,98	1769,44
554,17	1693,67
554,37	1863,65
554,57	1796,07
554,76	1650,66
554,96	1638,38
555,16	1691,62
555,35	1685,48
555,55	1710,05
555,75	1751,01
555,94	1812,45
556,14	1689,57
556,33	1705,96
556,53	1705,96
556,73	1761,25
556,92	1783,78
557,12	1736,68
557,32	1886,18
557,51	1843,17
557,71	1751,01
557,90	1865,70
558,10	1773,54
558,30	1722,34
558,49	1689,57
558,69	1720,29
558,88	1785,83
559,08	1777,64
559,28	1759,21
559,47	1708,01
559,67	1689,57
559,86	1714,15
560,06	1759,21
560,26	1685,48
560,45	1738,73
560,65	1673,19
560,84	1771,49
561,04	1714,15
561,24	1714,15
561,43	1708,01
561,63	1777,64
561,82	1738,73
562,02	1794,02
562,22	1746,92
562,41	1673,19
562,61	1755,11
562,80	1630,18
563,00	1873,89
563,19	1777,64
563,39	1806,31
563,59	1732,58
563,78	1644,52
563,98	1658,85
564,17	1681,38
564,37	1726,44
564,56	1769,44
564,76	1687,53
564,96	1779,68
565,15	1742,82
565,35	1841,12
565,54	1730,53
565,74	1771,49
565,93	1730,53
566,13	1648,61
566,32	1839,08
566,52	1798,12
566,71	1728,49
566,91	1806,31
567,11	1638,38
567,30	1718,25
567,50	1761,25
567,69	1728,49
567,89	1757,16
568,08	1669,09
568,28	1748,97
568,47	1736,68
568,67	1810,40
568,86	1712,10
569,06	1853,41
569,25	1722,34
569,45	1716,20
569,64	1732,58
569,84	1787,88
570,04	1722,34
570,23	1671,14
570,43	1705,96
570,62	1720,29
570,82	1742,82
571,01	1667,05
571,21	1722,34
571,40	1615,85
571,60	1783,78
571,79	1738,73
571,99	1716,20
572,18	1730,53
572,38	1763,30
572,57	1775,59
572,77	1687,53
572,96	1884,13
573,16	1730,53
573,35	1726,44
573,55	1794,02
573,74	1734,63
573,94	1730,53
574,13	1701,86
574,33	1791,97
574,52	1740,77
574,71	1691,62
574,91	1689,57
575,10	1691,62
575,30	1718,25
575,49	1695,72
575,69	1767,40
575,88	1824,74
576,08	1652,71
576,27	1767,40
576,47	1763,30
576,66	1791,97
576,86	1832,93
577,05	1652,71
577,25	1751,01
577,44	1834,98
577,64	1708,01
577,83	1726,44
578,02	1640,42
578,22	1845,22
578,41	1822,69
578,61	1636,33
578,80	1773,54
579,00	1765,35
579,19	1697,77
579,39	1746,92
579,58	1796,07
579,77	1714,15
579,97	1824,74
580,16	1859,56
580,36	1794,02
580,55	1880,04
580,75	1705,96
580,94	1722,34
581,13	1798,12
581,33	1841,12
581,52	1701,86
581,72	1888,23
581,91	1884,13
582,11	1738,73
582,30	1783,78
582,49	1775,59
582,69	1869,80
582,88	1837,03
583,08	1814,50
583,27	1800,16
583,47	1742,82
583,66	1683,43
583,85	1759,21
584,05	1767,40
584,24	1828,84
584,44	1755,11
584,63	1861,60
584,82	1789,92
585,02	1828,84
585,21	1812,45
585,41	1828,84
585,60	1798,12
585,79	1918,95
585,99	1906,66
586,18	1886,18
586,37	2152,42
586,57	3422,16
586,76	10030,95
586,96	24694,41
587,15	34293,24
587,34	40920,46
587,54	42448,25
587,73	37002,70
587,93	26584,68
588,12	21509,82
588,31	18423,53
588,51	16504,58
588,70	15361,81
588,89	14276,39
589,09	12717,89
589,28	11155,29
589,47	9633,64
589,67	8091,52
589,86	6596,51
590,06	4906,93
590,25	3964,87
590,44	3123,15
590,64	2553,82
590,83	2246,62
591,02	2103,26
591,22	1927,14
591,41	1904,61
591,60	1894,37
591,80	1957,86
591,99	1761,25
592,18	1761,25
592,38	1855,46
592,57	1701,86
592,76	1777,64
592,96	1789,92
593,15	1654,76
593,34	1843,17
593,54	1695,72
593,73	1804,26
593,92	1763,30
594,12	1771,49
594,31	1796,07
594,50	1837,03
594,70	1779,68
594,89	1888,23
595,08	1769,44
595,28	1746,92
595,47	1931,23
595,66	1787,88
595,86	1662,95
596,05	1789,92
596,24	1787,88
596,43	1843,17
596,63	1755,11
596,82	1724,39
597,01	1724,39
597,21	1832,93
597,40	1779,68
597,59	1644,52
597,79	1779,68
597,98	1734,63
598,17	1744,87
598,36	1695,72
598,56	1777,64
598,75	1726,44
598,94	1742,82
599,14	1777,64
599,33	1679,33
599,52	1845,22
599,71	1669,09
599,91	1724,39
600,10	1761,25
600,29	1746,92
600,48	1738,73
600,68	1757,16
600,87	1658,85
601,06	1724,39
601,26	1689,57
601,45	1710,05
601,64	1740,77
601,83	1804,26
602,03	1757,16
602,22	1693,67
602,41	1800,16
602,60	1789,92
602,80	1822,69
602,99	1681,38
603,18	1710,05
603,37	1820,64
603,57	1701,86
603,76	1742,82
603,95	1802,21
604,14	1740,77
604,34	1716,20
604,53	1757,16
604,72	1722,34
604,91	1691,62
605,10	1738,73
605,30	1685,48
605,49	1804,26
605,68	1812,45
605,87	1722,34
606,07	1718,25
606,26	1730,53
606,45	1806,31
606,64	1767,40
606,84	1701,86
607,03	1693,67
607,22	1810,40
607,41	1722,34
607,60	1734,63
607,80	1679,33
607,99	1726,44
608,18	1765,35
608,37	1753,06
608,56	1695,72
608,76	1837,03
608,95	1796,07
609,14	1642,47
609,33	1730,53
609,52	1695,72
609,72	1712,10
609,91	1798,12
610,10	1665,00
610,29	1800,16
610,48	1718,25
610,68	1771,49
610,87	1742,82
611,06	1820,64
611,25	1673,19
611,44	1822,69
611,63	1708,01
611,83	1796,07
612,02	1642,47
612,21	1748,97
612,40	1572,84
612,59	1650,66
612,79	1654,76
612,98	1699,81
613,17	1882,08
613,36	1705,96
613,55	1789,92
613,74	1691,62
613,93	1705,96
614,13	1763,30
614,32	1800,16
614,51	1705,96
614,70	1740,77
614,89	1761,25
615,08	1738,73
615,28	2023,39
615,47	1628,14
615,66	1722,34
615,85	1755,11
616,04	1839,08
616,23	1787,88
616,42	1705,96
616,62	1691,62
616,81	1734,63
617,00	1779,68
617,19	1769,44
617,38	1705,96
617,57	1728,49
617,76	1863,65
617,95	1755,11
618,15	1722,34
618,34	1773,54
618,53	1640,42
618,72	1751,01
618,91	1701,86
619,10	1767,40
619,29	1720,29
619,48	1751,01
619,68	1671,14
619,87	1626,09
620,06	1681,38
620,25	1740,77
620,44	1708,01
620,63	1695,72
620,82	1771,49
621,01	1714,15
621,20	1746,92
621,39	1771,49
621,59	1738,73
621,78	1701,86
621,97	1728,49
622,16	1742,82
622,35	1693,67
622,54	1802,21
622,73	1806,31
622,92	1693,67
623,11	1724,39
623,30	1701,86
623,49	1740,77
623,68	1703,91
623,88	1757,16
624,07	1640,42
624,26	1621,99
624,45	1730,53
624,64	1667,05
624,83	1708,01
625,02	1714,15
625,21	1740,77
625,40	1742,82
625,59	1804,26
625,78	1771,49
625,97	1697,77
626,16	1716,20
626,35	1720,29
626,54	1755,11
626,74	1837,03
626,93	1662,95
627,12	1650,66
627,31	1761,25
627,50	1726,44
627,69	1703,91
627,88	1718,25
628,07	1800,16
628,26	1652,71
628,45	1578,98
628,64	1636,33
628,83	1767,40
629,02	1632,23
629,21	1732,58
629,40	1734,63
629,59	1701,86
629,78	1730,53
629,97	1734,63
630,16	1728,49
630,35	1724,39
630,54	1734,63
630,73	1687,53
630,92	1703,91
631,11	1615,85
631,30	1767,40
631,49	1720,29
631,68	1746,92
631,87	1665,00
632,06	1701,86
632,25	1884,13
632,44	1648,61
632,63	1679,33
632,82	1726,44
633,01	1679,33
633,20	1646,57
633,39	1658,85
633,58	1714,15
633,77	1660,90
633,96	1714,15
634,15	1751,01
634,34	1732,58
634,53	1732,58
634,72	1644,52
634,91	1585,13
635,10	1687,53
635,29	1732,58
635,48	1742,82
635,67	1779,68
635,86	1652,71
636,05	1785,83
636,24	1689,57
636,43	1679,33
636,62	1744,87
636,81	1636,33
637,00	1728,49
637,19	1712,10
637,38	1726,44
637,57	1665,00
637,76	1767,40
637,95	1714,15
638,14	1644,52
638,33	1697,77
638,52	1697,77
638,71	1667,05
638,89	1708,01
639,08	1841,12
639,27	1763,30
639,46	1673,19
639,65	1726,44
639,84	1695,72
640,03	1708,01
640,22	1722,34
640,41	1767,40
640,60	1683,43
640,79	1716,20
640,98	1667,05
641,17	1734,63
641,36	1722,34
641,55	1765,35
641,74	1619,94
641,92	1671,14
642,11	1607,66
642,30	1712,10
642,49	1673,19
642,68	1746,92
642,87	1705,96
643,06	1708,01
643,25	1732,58
643,44	1628,14
643,63	1654,76
643,82	1824,74
644,00	1626,09
644,19	1658,85
644,38	1662,95
644,57	1767,40
644,76	1658,85
644,95	1734,63
645,14	1699,81
645,33	1800,16
645,52	1712,10
645,71	1634,28
645,89	1626,09
646,08	1736,68
646,27	1726,44
646,46	1783,78
646,65	1640,42
646,84	1699,81
647,03	1722,34
647,22	1740,77
647,40	1726,44
647,59	1654,76
647,78	1628,14
647,97	1648,61
648,16	1638,38
648,35	1816,55
648,54	1796,07
648,73	1718,25
648,91	1726,44
649,10	1697,77
649,29	1640,42
649,48	1677,29
649,67	1718,25
649,86	1714,15
650,05	1619,94
650,23	1730,53
650,42	1642,47
650,61	1705,96
650,80	1716,20
650,99	1769,44
651,18	1691,62
651,36	1687,53
651,55	1710,05
651,74	1730,53
651,93	1712,10
652,12	1683,43
652,31	1759,21
652,49	1646,57
652,68	1624,04
652,87	1804,26
653,06	1703,91
653,25	1898,47
653,44	1697,77
653,62	1787,88
653,81	1726,44
654,00	1742,82
654,19	1677,29
654,38	1906,66
654,56	1660,90
654,75	1779,68
654,94	1683,43
655,13	1701,86
655,32	1724,39
655,51	1781,73
655,69	1654,76
655,88	1779,68
656,07	1679,33
656,26	1669,09
656,45	1658,85
656,63	1681,38
656,82	1751,01
657,01	1824,74
657,20	1718,25
657,38	1849,32
657,57	1703,91
657,76	1667,05
657,95	1693,67
658,14	1726,44
658,32	1740,77
658,51	1646,57
658,70	1671,14
658,89	1689,57
659,08	1740,77
659,26	1789,92
659,45	1628,14
659,64	1759,21
659,83	1630,18
660,01	1972,19
660,20	1716,20
660,39	1828,84
660,58	1574,89
660,76	1779,68
660,95	1642,47
661,14	1705,96
661,33	1650,66
661,51	1660,90
661,70	1697,77
661,89	1755,11
662,08	1662,95
662,26	1648,61
662,45	1691,62
662,64	1845,22
662,83	1753,06
663,01	1595,37
663,20	1685,48
663,39	1771,49
663,58	1773,54
663,76	1658,85
663,95	1761,25
664,14	1718,25
664,32	1701,86
664,51	1658,85
664,70	1656,81
664,89	1679,33
665,07	1660,90
665,26	1726,44
665,45	1689,57
665,64	1787,88
665,82	1734,63
666,01	1771,49
666,20	1665,00
666,38	1751,01
666,57	1826,79
666,76	2174,94
666,95	4444,09
667,13	10475,36
667,32	15222,55
667,51	17917,68
667,69	19044,06
667,88	17741,55
668,07	12263,24
668,25	9627,50
668,44	8138,63
668,63	7262,10
668,81	6881,18
669,00	6211,49
669,19	5803,94
669,38	5081,01
669,56	4650,94
669,75	3979,20
669,94	3452,88
670,12	2828,24
670,31	2496,47
670,50	2176,99
670,68	2023,39
670,87	1920,99
671,06	1763,30
671,24	1732,58
671,43	1787,88
671,62	1808,36
671,80	1728,49
671,99	1738,73
672,18	1703,91
672,36	1691,62
672,55	1679,33
672,74	1689,57
672,92	1685,48
673,11	1785,83
673,29	1615,85
673,48	1789,92
673,67	1619,94
673,85	1804,26
674,04	1730,53
674,23	1730,53
674,41	1837,03
674,60	1644,52
674,79	1615,85
674,97	1730,53
675,16	1796,07
675,34	1761,25
675,53	1662,95
675,72	1732,58
675,90	1791,97
676,09	1687,53
676,28	1798,12
676,46	1693,67
676,65	1714,15
676,83	1673,19
677,02	1660,90
677,21	1642,47
677,39	1773,54
677,58	1669,09
677,77	1722,34
677,95	1599,46
678,14	1757,16
678,32	1701,86
678,51	1669,09
678,70	1832,93
678,88	1691,62
679,07	1757,16
679,25	1681,38
679,44	1732,58
679,63	1648,61
679,81	1722,34
680,00	1822,69
680,18	1710,05
680,37	1773,54
680,55	1681,38
680,74	1695,72
680,93	1574,89
681,11	1691,62
681,30	1691,62
681,48	1689,57
681,67	1712,10
681,85	1746,92
682,04	1701,86
682,23	1736,68
682,41	1763,30
682,60	1728,49
682,78	1677,29
682,97	1681,38
683,15	1746,92
683,34	1720,29
683,53	1849,32
683,71	1597,42
683,90	1710,05
684,08	1779,68
684,27	1611,75
684,45	1648,61
684,64	1722,34
684,82	1697,77
685,01	1746,92
685,19	1699,81
685,38	1761,25
685,57	1742,82
685,75	1675,24
685,94	1626,09
686,12	1660,90
686,31	1624,04
686,49	1800,16
686,68	1533,93
686,86	1783,78
687,05	1660,90
687,23	1734,63
687,42	1665,00
687,60	1638,38
687,79	1748,97
687,97	1798,12
688,16	1734,63
688,34	1736,68
688,53	1656,81
688,71	1703,91
688,90	1761,25
689,08	1718,25
689,27	1660,90
689,45	1720,29
689,64	1654,76
689,82	1806,31
690,01	1761,25
690,19	1736,68
690,38	1681,38
690,56	1767,40
690,75	1701,86
690,93	1646,57
691,12	1718,25
691,30	1691,62
691,49	1671,14
691,67	1673,19
691,86	1824,74
692,04	1675,24
692,23	1652,71
692,41	1669,09
692,60	1847,27
692,78	1708,01
692,97	1732,58
693,15	1794,02
693,34	1769,44
693,52	1787,88
693,71	1669,09
693,89	1675,24
694,08	1730,53
694,26	1738,73
694,44	1732,58
694,63	1724,39
694,81	1624,04
695,00	1710,05
695,18	1742,82
695,37	1853,41
695,55	1638,38
695,74	1718,25
695,92	1642,47
696,10	1783,78
696,29	1669,09
696,47	1722,34
696,66	1636,33
696,84	1611,75
697,03	1695,72
697,21	1798,12
697,40	2412,51
697,58	1718,25
697,76	1705,96
697,95	1640,42
698,13	1658,85
698,32	1695,72
698,50	1714,15
698,68	1681,38
698,87	1718,25
699,05	1755,11
699,24	1687,53
699,42	1599,46
699,61	1697,77
699,79	1695,72
699,97	1724,39
700,16	1632,23
700,34	1615,85
700,53	1767,40
700,71	1761,25
700,89	1720,29
701,08	1619,94
701,26	1716,20
701,45	2054,11
701,63	1652,71
701,81	1708,01
702,00	1638,38
702,18	1732,58
702,37	1669,09
702,55	1730,53
702,73	1673,19
702,92	1624,04
703,10	1705,96
703,28	1738,73
703,47	1667,05
703,65	1726,44
703,84	1722,34
704,02	1697,77
704,20	1730,53
704,39	1697,77
704,57	1751,01
704,75	1699,81
704,94	1740,77
705,12	1681,38
705,30	1783,78
705,49	2244,57
705,67	4464,57
705,86	9408,37
706,04	12721,98
706,22	14516,00
706,41	15613,71
706,59	14018,35
706,77	9795,43
706,96	7546,76
707,14	6606,75
707,32	5990,31
707,51	5545,90
707,69	4890,55
707,87	4229,06
708,06	3557,32
708,24	3047,38
708,42	2447,32
708,61	2244,57
708,79	1830,88
708,97	1839,08
709,16	1849,32
709,34	1740,77
709,52	1640,42
709,71	1683,43
709,89	1843,17
710,07	1656,81
710,26	1636,33
710,44	1720,29
710,62	1724,39
710,80	1712,10
710,99	1810,40
711,17	1783,78
711,35	1675,24
711,54	1703,91
711,72	1748,97
711,90	1757,16
712,09	1718,25
712,27	1685,48
712,45	1753,06
712,63	1759,21
712,82	1683,43
713,00	1648,61
713,18	1751,01
713,37	1765,35
713,55	1757,16
713,73	1781,73
713,91	1751,01
714,10	1648,61
714,28	1763,30
714,46	1697,77
714,65	1742,82
714,83	1765,35
715,01	1673,19
715,19	1685,48
715,38	1646,57
715,56	1714,15
715,74	1716,20
715,92	1669,09
716,11	1796,07
716,29	1673,19
716,47	1640,42
716,65	1724,39
716,84	1542,12
717,02	1757,16
717,20	1621,99
717,38	1640,42
717,57	1675,24
717,75	1697,77
717,93	1683,43
718,11	1781,73
718,30	1650,66
718,48	1640,42
718,66	1658,85
718,84	1771,49
719,03	1734,63
719,21	1640,42
719,39	1816,55
719,57	1730,53
719,75	1738,73
719,94	1636,33
720,12	1689,57
720,30	1724,39
720,48	1703,91
720,67	1697,77
720,85	1628,14
721,03	1603,56
721,21	1722,34
721,39	1798,12
721,58	1716,20
721,76	1665,00
721,94	1667,05
722,12	1761,25
722,30	1765,35
722,49	1691,62
722,67	1710,05
722,85	1726,44
723,03	1613,80
723,21	1673,19
723,40	1732,58
723,58	1746,92
723,76	1798,12
723,94	1783,78
724,12	1697,77
724,30	1757,16
724,49	1699,81
724,67	1716,20
724,85	1781,73
725,03	1628,14
725,21	1736,68
725,40	1789,92
725,58	1710,05
725,76	1730,53
725,94	1728,49
726,12	1595,37
726,30	1726,44
726,49	1640,42
726,67	1720,29
726,85	1734,63
727,03	1712,10
727,21	2168,80
727,39	2881,49
727,57	3848,13
727,76	4270,01
727,94	4470,72
728,12	4310,97
728,30	3721,16
728,48	3004,37
728,66	2760,66
728,84	2527,19
729,03	2400,22
729,21	2150,37
729,39	2002,91
729,57	1822,69
729,75	1933,28
729,93	1816,55
730,11	1726,44
730,30	1603,56
730,48	1689,57
730,66	1802,21
730,84	1734,63
731,02	1703,91
731,20	1605,61
731,38	1650,66
731,56	1654,76
731,74	1667,05
731,93	1722,34
732,11	1716,20
732,29	1703,91
732,47	1748,97
732,65	1724,39
732,83	1765,35
733,01	1619,94
733,19	1720,29
733,37	1730,53
733,56	1695,72
733,74	1650,66
733,92	1720,29
734,10	1644,52
734,28	1751,01
734,46	1662,95
734,64	1617,90
734,82	1693,67
735,00	1665,00
735,18	1607,66
735,36	1724,39
735,54	1759,21
735,73	1669,09
735,91	1724,39
736,09	1689,57
736,27	1677,29
736,45	1718,25
736,63	1626,09
736,81	1710,05
736,99	1730,53
737,17	1755,11
737,35	1652,71
737,53	1642,47
737,71	1658,85
737,89	1779,68
738,07	1599,46
738,25	1669,09
738,43	1603,56
738,61	1738,73
738,80	1683,43
738,98	1634,28
739,16	1697,77
739,34	1675,24
739,52	1796,07
739,70	1697,77
739,88	1705,96
740,06	1794,02
740,24	1568,74
740,42	1765,35
740,60	1611,75
740,78	1687,53
740,96	1511,40
741,14	1677,29
741,32	1644,52
741,50	1675,24
741,68	1802,21
741,86	1689,57
742,04	1611,75
742,22	1607,66
742,40	1716,20
742,58	1693,67
742,76	1691,62
742,94	1722,34
743,12	1652,71
743,30	1695,72
743,48	1693,67
743,66	1646,57
743,84	1794,02
744,02	1660,90
744,20	1665,00
744,38	1667,05
744,56	1611,75
744,74	1777,64
744,92	1699,81
745,10	1783,78
745,28	1781,73
745,46	1812,45
745,64	1650,66
745,82	1722,34
746,00	1740,77
746,18	1701,86
746,36	1621,99
746,54	1734,63
746,72	1748,97
746,90	1656,81
747,08	1814,50
747,26	1675,24
747,44	1759,21
747,62	1693,67
747,80	1748,97
747,98	1746,92
748,15	1669,09
748,33	1830,88
748,51	1652,71
748,69	1765,35
748,87	1679,33
749,05	1660,90
749,23	1738,73
749,41	1669,09
749,59	1687,53
749,77	1771,49
749,95	1665,00
750,13	1615,85
750,31	1714,15
750,49	1650,66
750,67	1748,97
750,85	1851,36
751,03	1693,67
751,20	1845,22
751,38	1746,92
751,56	1697,77
751,74	1621,99
751,92	1746,92
752,10	1638,38
752,28	1761,25
752,46	1621,99
752,64	1687,53
752,82	1687,53
753,00	1669,09
753,18	1646,57
753,35	1703,91
753,53	1718,25
753,71	1626,09
753,89	1712,10
754,07	1677,29
754,25	1816,55
754,43	1740,77
754,61	1662,95
754,79	1755,11
754,97	1648,61
755,14	1761,25
755,32	1632,23
755,50	1736,68
755,68	1742,82
755,86	1603,56
756,04	1697,77
756,22	1611,75
756,40	1693,67
756,57	1800,16
756,75	1693,67
756,93	1658,85
757,11	1734,63
757,29	1660,90
757,47	1699,81
757,65	1660,90
757,82	1591,27
758,00	1681,38
758,18	1697,77
758,36	1628,14
758,54	1804,26
758,72	1689,57
758,90	1771,49
759,07	1685,48
759,25	1576,94
759,43	1787,88
759,61	1640,42
759,79	2213,85
759,97	1730,53
760,15	1716,20
760,32	1658,85
760,50	1742,82
760,68	1830,88
760,86	1619,94
761,04	1691,62
761,22	1681,38
761,39	1658,85
761,57	1722,34
761,75	1705,96
761,93	1722,34
762,11	1693,67
762,28	1726,44
762,46	1583,08
762,64	1748,97
762,82	1583,08
763,00	1744,87
763,18	1710,05
763,35	1646,57
763,53	1802,21
763,71	1640,42
763,89	1669,09
764,07	1728,49
764,24	1642,47
764,42	1806,31
764,60	1615,85
764,78	1693,67
764,96	1796,07
765,13	1763,30
765,31	1687,53
765,49	1724,39
765,67	1646,57
765,84	1660,90
766,02	1599,46
766,20	1658,85
766,38	1693,67
766,56	1708,01
766,73	1798,12
766,91	1755,11
767,09	1683,43
767,27	1650,66
767,44	1693,67
767,62	1783,78
767,80	1681,38
767,98	1650,66
768,15	1673,19
768,33	1761,25
768,51	1716,20
768,69	1755,11
768,87	1716,20
769,04	1761,25
769,22	1812,45
769,40	1851,36
769,58	1845,22
769,75	1675,24
769,93	1740,77
770,11	1591,27
770,28	1738,73
770,46	1665,00
770,64	1667,05
770,82	1660,90
770,99	1753,06
771,17	1697,77
771,35	1662,95
771,53	1669,09
771,70	1660,90
771,88	1726,44
772,06	1751,01
772,23	1677,29
772,41	1769,44
772,59	1669,09
772,77	1671,14
772,94	1724,39
773,12	1779,68
773,30	1679,33
773,47	1718,25
773,65	1662,95
773,83	1796,07
774,01	1730,53
774,18	1611,75
774,36	1720,29
774,54	1632,23
774,71	1693,67
774,89	1607,66
775,07	1689,57
775,24	1609,70
775,42	1720,29
775,60	1877,99
775,78	1794,02
775,95	1599,46
776,13	1607,66
776,31	1599,46
776,48	1662,95
776,66	1763,30
776,84	1785,83
777,01	1648,61
777,19	1642,47
777,37	1671,14
777,54	1726,44
777,72	1757,16
777,90	1732,58
778,07	1632,23
778,25	1832,93
778,43	1722,34
778,60	1677,29
778,78	1787,88
778,96	1775,59
779,13	1607,66
779,31	1767,40
779,49	1720,29
779,66	1685,48
779,84	1675,24
780,01	1636,33
780,19	1615,85
780,37	1740,77
780,54	1732,58
780,72	1712,10
780,90	1722,34
781,07	1660,90
781,25	1695,72
781,43	1705,96
781,60	1681,38
781,78	1773,54
781,95	1693,67
782,13	1660,90
782,31	1685,48
782,48	1593,32
782,66	1738,73
782,83	1818,60
783,01	1705,96
783,19	1687,53
783,36	1687,53
783,54	1712,10
783,72	1779,68
783,89	1648,61
784,07	1669,09
784,24	1681,38
784,42	1781,73
784,60	1695,72
784,77	1705,96
784,95	1624,04
785,12	1587,18
785,30	1701,86
785,47	1634,28
785,65	1683,43
785,83	1671,14
786,00	1683,43
786,18	1771,49
786,35	1654,76
786,53	1650,66
786,71	1687,53
786,88	1757,16
787,06	1773,54
787,23	1656,81
787,41	1658,85
787,58	1771,49
787,76	1650,66
787,94	1738,73
788,11	1716,20
788,29	1624,04
788,46	1677,29
788,64	1617,90
788,81	1683,43
788,99	1650,66
789,16	1638,38
789,34	1652,71
789,52	1630,18
789,69	1716,20
789,87	1687,53
790,04	1626,09
790,22	1642,47
790,39	1808,36
790,57	1634,28
790,74	1697,77
790,92	1738,73
791,09	1656,81
791,27	1757,16
791,44	1800,16
791,62	1667,05
791,79	1701,86
791,97	1681,38
792,15	1849,32
792,32	1763,30
792,50	1769,44
792,67	1769,44
792,85	1751,01
793,02	1755,11
793,20	1710,05
793,37	1585,13
793,55	1697,77
793,72	1626,09
793,90	1751,01
794,07	1673,19
794,25	1566,70
794,42	1748,97
794,60	1685,48
794,77	1630,18
794,95	1820,64
795,12	1718,25
795,30	1632,23
795,47	1523,69
795,65	1841,12
795,82	1677,29
796,00	1632,23
796,17	1669,09
796,34	1763,30
796,52	1624,04
796,69	1771,49
796,87	1740,77
797,04	1759,21
797,22	1738,73
797,39	1640,42
797,57	1759,21
797,74	1691,62
797,92	1716,20
798,09	1665,00
798,27	1753,06
798,44	1740,77
798,62	1662,95
798,79	1669,09
798,96	1759,21
799,14	1759,21
799,31	1800,16
799,49	1699,81
799,66	1691,62
799,84	1765,35
800,01	1685,48
800,19	1775,59
800,36	1550,31
800,53	1689,57
800,71	1789,92
800,88	1763,30
801,06	1683,43
801,23	1642,47
801,41	1699,81
801,58	1712,10
801,75	1671,14
801,93	1728,49
802,10	1687,53
802,28	1689,57
802,45	1634,28
802,63	1767,40
802,80	1798,12
802,97	1763,30
803,15	1607,66
803,32	1601,51
803,50	1650,66
803,67	1595,37
803,84	1589,22
804,02	1746,92
804,19	1621,99
804,37	1591,27
804,54	1576,94
804,71	1609,70
804,89	1701,86
805,06	1712,10
805,24	1568,74
805,41	1691,62
805,58	1599,46
805,76	1820,64
805,93	1716,20
806,10	1757,16
806,28	1675,24
806,45	1710,05
806,63	1736,68
806,80	1732,58
806,97	1683,43
807,15	1689,57
807,32	1771,49
807,49	1693,67
807,67	1587,18
807,84	1771,49
808,01	1665,00
808,19	1783,78
808,36	1740,77
808,54	1658,85
808,71	1572,84
808,88	1705,96
809,06	1761,25
809,23	1808,36
809,40	1619,94
809,58	1683,43
809,75	1621,99
809,92	1634,28
810,10	1816,55
810,27	1691,62
810,44	1742,82
810,62	1689,57
810,79	1718,25
810,96	1658,85
811,14	1626,09
811,31	1658,85
811,48	1708,01
811,66	1662,95
811,83	1757,16
812,00	1712,10
812,18	1767,40
812,35	1822,69
812,52	1662,95
812,69	1699,81
812,87	1652,71
813,04	1609,70
813,21	1658,85
813,39	1660,90
813,56	1658,85
813,73	1701,86
813,91	1634,28
814,08	1701,86
814,25	1697,77
814,42	1693,67
814,60	1724,39
814,77	1642,47
814,94	1660,90
815,12	1691,62
815,29	1748,97
815,46	1695,72
815,63	1695,72
815,81	1701,86
815,98	1677,29
816,15	1755,11
816,33	1691,62
816,50	1652,71
816,67	1712,10
816,84	1691,62
817,02	1675,24
817,19	1667,05
817,36	1673,19
817,53	1716,20
817,71	1628,14
817,88	1726,44
818,05	1652,71
818,22	1734,63
818,40	1830,88
818,57	1681,38
818,74	1751,01
818,91	1640,42
819,09	1802,21
819,26	1763,30
819,43	1640,42
819,60	1695,72
819,78	1691,62
819,95	1931,23
820,12	1673,19
820,29	1734,63
820,47	1746,92
820,64	1665,00
820,81	1697,77
820,98	1648,61
821,15	1640,42
821,33	1759,21
821,50	1540,07
821,67	1687,53
821,84	1615,85
822,02	1665,00
822,19	1658,85
822,36	1683,43
822,53	1632,23
822,70	1675,24
822,88	1710,05
823,05	1775,59
823,22	1748,97
823,39	1726,44
823,56	1730,53
823,74	1800,16
823,91	1669,09
824,08	1634,28
824,25	1689,57
824,42	1779,68
824,60	1591,27
824,77	1771,49
824,94	1599,46
825,11	1710,05
825,28	1585,13
825,45	1652,71
825,63	1665,00
825,80	1630,18
825,97	1701,86
826,14	1716,20
826,31	1632,23
826,48	1701,86
826,66	1628,14
826,83	1705,96
827,00	1710,05
827,17	1621,99
827,34	1726,44
827,51	1734,63
827,69	1742,82
827,86	1630,18
828,03	1695,72
828,20	1636,33
828,37	1683,43
828,54	1732,58
828,71	1564,65
828,89	1787,88
829,06	1724,39
829,23	1789,92
829,40	1583,08
829,57	1640,42
829,74	1683,43
829,91	1681,38
830,09	1624,04
830,26	1740,77
830,43	1861,60
830,60	1667,05
830,77	1777,64
830,94	1789,92
831,11	1714,15
831,28	1611,75
831,46	1796,07
831,63	1595,37
831,80	1712,10
831,97	1722,34
832,14	1746,92
832,31	1732,58
832,48	1724,39
832,65	1740,77
832,82	1720,29
832,99	1660,90
833,17	1689,57
833,34	1744,87
833,51	1710,05
833,68	1568,74
833,85	1722,34
834,02	1669,09
834,19	1638,38
834,36	1685,48
834,53	1687,53
834,70	1787,88
834,87	1716,20
835,04	1646,57
835,22	1679,33
835,39	1660,90
835,56	1669,09
835,73	1742,82
835,90	1671,14
836,07	1624,04
836,24	1798,12
836,41	1658,85
836,58	1667,05
836,75	1705,96
836,92	1677,29
837,09	1648,61
837,26	1761,25
837,43	1693,67
837,60	1691,62
837,77	1634,28
837,94	1746,92
838,12	1818,60
838,29	1679,33
838,46	1636,33
838,63	1529,83
838,80	1724,39
838,97	1730,53
839,14	1724,39
839,31	1787,88
839,48	1742,82
839,65	1587,18
839,82	1742,82
839,99	1718,25
840,16	1650,66
840,33	1708,01
840,50	1736,68
840,67	1654,76
840,84	1578,98
841,01	1796,07
841,18	1665,00
841,35	1665,00
841,52	1751,01
841,69	1765,35
841,86	1652,71
842,03	1701,86
842,20	1712,10
842,37	1710,05
842,54	1701,86
842,71	1644,52
842,88	1652,71
843,05	1791,97
843,22	1669,09
843,39	1689,57
843,56	1689,57
843,73	1640,42
843,90	1648,61
844,07	1705,96
844,24	1740,77
844,41	1685,48
844,58	1734,63
844,75	1718,25
844,92	1763,30
845,09	1687,53
845,26	1730,53
845,43	1665,00
845,60	1640,42
845,77	1734,63
845,94	1718,25
846,10	1773,54
846,27	1669,09
846,44	1648,61
846,61	1693,67
846,78	1722,34
846,95	1755,11
847,12	1673,19
847,29	1609,70
847,46	1665,00
847,63	1753,06
847,80	1646,57
847,97	1665,00
848,14	1820,64
848,31	1716,20
848,48	1632,23
848,65	1675,24
848,82	1660,90
848,98	1806,31
849,15	1665,00
849,32	1751,01
849,49	1621,99
849,66	1693,67
849,83	1699,81
850,00	1697,77
850,17	1681,38
850,34	1660,90
850,51	1691,62
850,68	1722,34
850,85	1812,45
851,01	1712,10
851,18	1734,63
851,35	1581,03
851,52	1757,16
851,69	1812,45
851,86	1662,95
852,03	1738,73
852,20	1695,72
852,37	1775,59
852,53	1605,61
852,70	1730,53
852,87	1738,73
853,04	1638,38
853,21	1691,62
853,38	1718,25
853,55	1685,48
853,72	1796,07
853,89	1626,09
854,05	1634,28
854,22	1681,38
854,39	1683,43
854,56	1742,82
854,73	1765,35
854,90	1624,04
855,07	1683,43
855,23	1652,71
855,40	1738,73
855,57	1671,14
855,74	1583,08
855,91	1923,04
856,08	1595,37
856,25	1605,61
856,41	1761,25
856,58	1665,00
856,75	1816,55
856,92	1695,72
857,09	1710,05
857,26	1636,33
857,42	1667,05
857,59	1798,12
857,76	1626,09
857,93	1677,29
858,10	1697,77
858,27	1632,23
858,43	1732,58
858,60	1650,66
858,77	1570,79
858,94	1724,39
859,11	1755,11
859,27	1695,72
859,44	1681,38
859,61	1832,93
859,78	1771,49
859,95	1683,43
860,12	1687,53
860,28	1882,08
860,45	1847,27
860,62	1693,67
860,79	1695,72
860,95	1671,14
861,12	1652,71
861,29	1658,85
861,46	1691,62
861,63	1667,05
861,79	1767,40
861,96	1658,85
862,13	1593,32
862,30	1759,21
862,47	1722,34
862,63	1628,14
862,80	1804,26
862,97	1746,92
863,14	1732,58
863,30	1691,62
863,47	1609,70
863,64	1759,21
863,81	1751,01
863,97	1716,20
864,14	1691,62
864,31	1730,53
864,48	1769,44
864,65	1667,05
864,81	1658,85
864,98	1724,39
865,15	1773,54
865,32	1714,15
865,48	1791,97
865,65	1769,44
865,82	1578,98
865,98	1669,09
866,15	1826,79
866,32	1683,43
866,49	1638,38
866,65	1839,08
866,82	1665,00
866,99	1669,09
867,16	1638,38
867,32	1683,43
867,49	1646,57
867,66	1640,42
867,83	1712,10
867,99	1624,04
868,16	1634,28
868,33	1619,94
868,49	1705,96
868,66	1611,75
868,83	1765,35
868,99	1728,49
869,16	1718,25
869,33	1724,39
869,50	1839,08
869,66	1681,38
869,83	1644,52
870,00	1656,81
870,16	1753,06
870,33	1665,00
870,50	1710,05
870,66	1656,81
870,83	1796,07
871,00	1710,05
871,17	1748,97
871,33	1714,15
871,50	1615,85
871,67	1658,85
871,83	1701,86
872,00	1824,74
872,17	1673,19
872,33	1773,54
872,50	1800,16
872,67	1681,38
872,83	1728,49
873,00	1689,57
873,17	1669,09
873,33	1763,30
873,50	1730,53
873,67	1679,33
873,83	1656,81
874,00	1730,53
874,16	1751,01
874,33	1658,85
874,50	1652,71
874,66	1687,53
874,83	1771,49
875,00	1710,05
875,16	1830,88
875,33	1716,20
875,50	1621,99
875,66	1615,85
875,83	1685,48
875,99	1697,77
876,16	1732,58
876,33	1589,22
876,49	1695,72
876,66	1804,26
876,83	1718,25
876,99	1621,99
877,16	1656,81
877,32	1703,91
877,49	1699,81
877,66	1767,40
877,82	1812,45
877,99	1714,15
878,15	1746,92
878,32	1732,58
878,49	1755,11
878,65	1654,76
878,82	1791,97
878,98	1708,01
879,15	1693,67
879,32	1804,26
879,48	1767,40
879,65	1703,91
879,81	1642,47
879,98	1632,23
880,15	1656,81
880,31	1753,06
880,48	1693,67
880,64	1742,82
880,81	1744,87
880,97	1718,25
881,14	1783,78
881,31	1757,16
881,47	1855,46
881,64	1654,76
881,80	1556,46
881,97	1679,33
882,13	1771,49
882,30	1667,05
882,47	1710,05
882,63	1558,50
882,80	1613,80
882,96	1677,29
883,13	1679,33
883,29	1677,29
883,46	1708,01
883,62	1808,36
883,79	1667,05
883,95	1755,11
884,12	1728,49
884,29	1742,82
884,45	1710,05
884,62	1677,29
884,78	1689,57
884,95	1834,98
885,11	1638,38
885,28	1703,91
885,44	1681,38
885,61	1705,96
885,77	1742,82
885,94	1699,81
886,10	1675,24
886,27	1763,30
886,43	1716,20
886,60	1783,78
886,76	1630,18
886,93	1628,14
887,09	1708,01
887,26	1595,37
887,42	1693,67
887,59	1736,68
887,75	1826,79
887,92	1775,59
888,08	1796,07
888,25	1783,78
888,41	1757,16
888,58	1603,56
888,74	1638,38
888,91	1615,85
>>>>>End Processed Spectral Data<<<<<
