SpectraSuite Data File
++++++++++++++++++++++++++++++++++++
Date: Mon Jun 06 15:45:17 CEST 2016
User: root
Dark Spectrum Present: No
Reference Spectrum Present: No
Number of Sampled Component Spectra: 1
Spectrometers: USB4C02835
Integration Time (usec): 100000 (USB4C02835)
Spectra Averaged: 1 (USB4C02835)
Boxcar Smoothing: 0 (USB4C02835)
Correct for Electrical Dark: No (USB4C02835)
Strobe/Lamp Enabled: No (USB4C02835)
Correct for Detector Non-linearity: No (USB4C02835)
Correct for Stray Light: No (USB4C02835)
Number of Pixels in Processed Spectrum: 3648
>>>>>Begin Processed Spectral Data<<<<<
177,47	1458,15
177,69	1458,15
177,91	1458,15
178,13	1402,86
178,36	1425,39
178,58	1675,24
178,80	1773,54
179,02	1736,68
179,24	1667,05
179,46	1642,47
179,68	1738,73
179,90	1638,38
180,13	1691,62
180,35	1646,57
180,57	1701,86
180,79	1746,92
181,01	1701,86
181,23	1814,50
181,45	1804,26
181,67	1779,68
181,90	1787,88
182,12	1660,90
182,34	1648,61
182,56	1746,92
182,78	1701,86
183,00	1669,09
183,22	1677,29
183,44	1591,27
183,66	1839,08
183,89	1705,96
184,11	1748,97
184,33	1738,73
184,55	1781,73
184,77	1720,29
184,99	1804,26
185,21	1726,44
185,43	1880,04
185,65	1718,25
185,87	1746,92
186,10	1773,54
186,32	1886,18
186,54	1740,77
186,76	1751,01
186,98	1814,50
187,20	1617,90
187,42	1736,68
187,64	1732,58
187,86	1640,42
188,08	1837,03
188,30	1693,67
188,52	1710,05
188,75	1755,11
188,97	1789,92
189,19	1640,42
189,41	1740,77
189,63	1755,11
189,85	1732,58
190,07	1687,53
190,29	1685,48
190,51	1771,49
190,73	1619,94
190,95	1781,73
191,17	1755,11
191,39	1595,37
191,61	1728,49
191,84	1665,00
192,06	1687,53
192,28	1566,70
192,50	1894,37
192,72	1775,59
192,94	1636,33
193,16	1712,10
193,38	1728,49
193,60	1734,63
193,82	1699,81
194,04	1806,31
194,26	1685,48
194,48	1789,92
194,70	1650,66
194,92	1771,49
195,14	1701,86
195,36	1599,46
195,58	1632,23
195,80	1722,34
196,02	1689,57
196,24	1677,29
196,46	1773,54
196,69	1607,66
196,91	1816,55
197,13	1892,32
197,35	1722,34
197,57	1757,16
197,79	1675,24
198,01	1619,94
198,23	1757,16
198,45	1722,34
198,67	1667,05
198,89	1710,05
199,11	1732,58
199,33	1687,53
199,55	1615,85
199,77	1687,53
199,99	1775,59
200,21	1650,66
200,43	1671,14
200,65	1701,86
200,87	1558,50
201,09	1726,44
201,31	1701,86
201,53	1701,86
201,75	1744,87
201,97	1718,25
202,19	1708,01
202,41	1738,73
202,63	1751,01
202,85	1755,11
203,07	1748,97
203,29	1742,82
203,51	1665,00
203,73	1724,39
203,95	1806,31
204,17	1755,11
204,39	1718,25
204,61	1708,01
204,83	1689,57
205,05	1738,73
205,27	1828,84
205,49	1798,12
205,71	1691,62
205,93	1636,33
206,15	1720,29
206,37	1736,68
206,59	1722,34
206,81	1660,90
207,03	1667,05
207,25	1667,05
207,47	1798,12
207,69	1736,68
207,91	1753,06
208,13	1767,40
208,34	1636,33
208,56	1683,43
208,78	1748,97
209,00	1697,77
209,22	1656,81
209,44	1695,72
209,66	1656,81
209,88	1744,87
210,10	1652,71
210,32	1636,33
210,54	1845,22
210,76	1669,09
210,98	1812,45
211,20	1574,89
211,42	1732,58
211,64	1804,26
211,86	1753,06
212,08	1740,77
212,30	1775,59
212,52	1757,16
212,74	1759,21
212,96	1720,29
213,17	1738,73
213,39	1701,86
213,61	1777,64
213,83	1716,20
214,05	1699,81
214,27	1765,35
214,49	1697,77
214,71	1658,85
214,93	1742,82
215,15	1687,53
215,37	1724,39
215,59	1636,33
215,81	1699,81
216,03	1710,05
216,24	1716,20
216,46	1683,43
216,68	1730,53
216,90	1744,87
217,12	1798,12
217,34	1708,01
217,56	1665,00
217,78	1794,02
218,00	1763,30
218,22	1677,29
218,44	1716,20
218,66	1693,67
218,87	1738,73
219,09	1705,96
219,31	1755,11
219,53	1665,00
219,75	1656,81
219,97	1740,77
220,19	1744,87
220,41	1755,11
220,63	1759,21
220,85	1783,78
221,06	1699,81
221,28	1804,26
221,50	1736,68
221,72	1679,33
221,94	1675,24
222,16	1734,63
222,38	1787,88
222,60	1826,79
222,82	1673,19
223,03	1732,58
223,25	1642,47
223,47	1658,85
223,69	1894,37
223,91	1669,09
224,13	1673,19
224,35	1681,38
224,57	1804,26
224,78	1785,83
225,00	1722,34
225,22	1722,34
225,44	1773,54
225,66	1658,85
225,88	1763,30
226,10	1791,97
226,32	1724,39
226,53	1791,97
226,75	1716,20
226,97	1736,68
227,19	1734,63
227,41	1693,67
227,63	1636,33
227,85	1710,05
228,06	1785,83
228,28	1720,29
228,50	1712,10
228,72	1697,77
228,94	1658,85
229,16	1626,09
229,37	1654,76
229,59	1650,66
229,81	1791,97
230,03	1685,48
230,25	1691,62
230,47	1716,20
230,69	1650,66
230,90	1734,63
231,12	1675,24
231,34	1662,95
231,56	1775,59
231,78	1662,95
232,00	1740,77
232,21	1689,57
232,43	1708,01
232,65	1574,89
232,87	1708,01
233,09	1658,85
233,30	1652,71
233,52	1662,95
233,74	1638,38
233,96	1781,73
234,18	1693,67
234,40	1740,77
234,61	1812,45
234,83	1587,18
235,05	1650,66
235,27	1888,23
235,49	1796,07
235,70	1728,49
235,92	1769,44
236,14	1619,94
236,36	1865,70
236,58	1685,48
236,79	1757,16
237,01	1734,63
237,23	1718,25
237,45	1734,63
237,67	1685,48
237,88	1699,81
238,10	1755,11
238,32	1617,90
238,54	1734,63
238,76	1705,96
238,97	1755,11
239,19	1720,29
239,41	1791,97
239,63	1746,92
239,85	1632,23
240,06	1724,39
240,28	1646,57
240,50	1722,34
240,72	1712,10
240,93	1710,05
241,15	1785,83
241,37	1705,96
241,59	1806,31
241,81	1736,68
242,02	1716,20
242,24	1714,15
242,46	1732,58
242,68	1757,16
242,89	1675,24
243,11	1822,69
243,33	1650,66
243,55	1740,77
243,76	1701,86
243,98	1736,68
244,20	1685,48
244,42	1742,82
244,64	1681,38
244,85	1673,19
245,07	1570,79
245,29	1767,40
245,51	1716,20
245,72	1755,11
245,94	1769,44
246,16	1716,20
246,38	1740,77
246,59	1640,42
246,81	1630,18
247,03	1697,77
247,24	1576,94
247,46	1701,86
247,68	1724,39
247,90	1634,28
248,11	1634,28
248,33	1724,39
248,55	1742,82
248,77	1765,35
248,98	1812,45
249,20	1814,50
249,42	1726,44
249,64	1751,01
249,85	1726,44
250,07	1730,53
250,29	1769,44
250,50	1677,29
250,72	1558,50
250,94	1767,40
251,16	1789,92
251,37	1755,11
251,59	1761,25
251,81	1710,05
252,02	1746,92
252,24	1693,67
252,46	1773,54
252,68	1644,52
252,89	1665,00
253,11	1566,70
253,33	1800,16
253,54	1775,59
253,76	1724,39
253,98	1679,33
254,20	1777,64
254,41	1693,67
254,63	1681,38
254,85	1740,77
255,06	1781,73
255,28	1746,92
255,50	1632,23
255,71	1734,63
255,93	1628,14
256,15	1654,76
256,36	1705,96
256,58	1673,19
256,80	1753,06
257,02	1673,19
257,23	1714,15
257,45	1677,29
257,67	1771,49
257,88	1697,77
258,10	1722,34
258,32	1681,38
258,53	1744,87
258,75	1759,21
258,97	1665,00
259,18	1708,01
259,40	1697,77
259,62	1806,31
259,83	1847,27
260,05	1714,15
260,27	2007,01
260,48	1812,45
260,70	1568,74
260,92	1593,32
261,13	1720,29
261,35	1710,05
261,57	1695,72
261,78	1640,42
262,00	1681,38
262,22	1683,43
262,43	1656,81
262,65	1695,72
262,86	1630,18
263,08	1855,46
263,30	1734,63
263,51	1599,46
263,73	1621,99
263,95	1789,92
264,16	1708,01
264,38	1738,73
264,60	1726,44
264,81	1703,91
265,03	1755,11
265,25	1744,87
265,46	1771,49
265,68	1814,50
265,89	1708,01
266,11	1646,57
266,33	1757,16
266,54	1841,12
266,76	1798,12
266,98	1734,63
267,19	1808,36
267,41	1748,97
267,62	1642,47
267,84	1751,01
268,06	1746,92
268,27	1740,77
268,49	1798,12
268,70	1742,82
268,92	1671,14
269,14	1644,52
269,35	1650,66
269,57	1667,05
269,79	1716,20
270,00	1677,29
270,22	1861,60
270,43	1699,81
270,65	1646,57
270,87	1701,86
271,08	1746,92
271,30	1781,73
271,51	1718,25
271,73	1761,25
271,95	1771,49
272,16	1710,05
272,38	1732,58
272,59	1730,53
272,81	1708,01
273,02	1755,11
273,24	1730,53
273,46	1755,11
273,67	1669,09
273,89	1673,19
274,10	1734,63
274,32	1785,83
274,54	1677,29
274,75	1746,92
274,97	1652,71
275,18	1791,97
275,40	1722,34
275,61	1726,44
275,83	1714,15
276,05	1583,08
276,26	1708,01
276,48	1652,71
276,69	1683,43
276,91	1695,72
277,12	1818,60
277,34	1787,88
277,55	1763,30
277,77	1716,20
277,99	1712,10
278,20	1685,48
278,42	1720,29
278,63	1716,20
278,85	1609,70
279,06	1701,86
279,28	1763,30
279,49	1761,25
279,71	1779,68
279,93	1726,44
280,14	1834,98
280,36	1662,95
280,57	1785,83
280,79	1748,97
281,00	1624,04
281,22	1695,72
281,43	1783,78
281,65	1605,61
281,86	1642,47
282,08	1630,18
282,29	1839,08
282,51	1673,19
282,73	1624,04
282,94	1613,80
283,16	1798,12
283,37	1849,32
283,59	1734,63
283,80	1708,01
284,02	1689,57
284,23	1714,15
284,45	1722,34
284,66	1677,29
284,88	1687,53
285,09	1708,01
285,31	1718,25
285,52	1665,00
285,74	1599,46
285,95	1767,40
286,17	1699,81
286,38	1779,68
286,60	1708,01
286,81	1636,33
287,03	1636,33
287,24	1619,94
287,46	1718,25
287,67	1673,19
287,89	1708,01
288,10	1716,20
288,32	1697,77
288,53	1810,40
288,75	1738,73
288,96	1753,06
289,18	1609,70
289,39	1673,19
289,61	1673,19
289,82	1810,40
290,04	1812,45
290,25	1671,14
290,47	1656,81
290,68	1716,20
290,90	1783,78
291,11	1581,03
291,33	1787,88
291,54	1650,66
291,76	1708,01
291,97	1769,44
292,18	1689,57
292,40	1679,33
292,61	1685,48
292,83	1894,37
293,04	1806,31
293,26	1691,62
293,47	1714,15
293,69	1628,14
293,90	1679,33
294,12	1746,92
294,33	1705,96
294,55	1679,33
294,76	1781,73
294,97	1751,01
295,19	1871,84
295,40	1701,86
295,62	1724,39
295,83	1759,21
296,05	1619,94
296,26	1740,77
296,48	1712,10
296,69	1751,01
296,90	1708,01
297,12	1697,77
297,33	1783,78
297,55	1689,57
297,76	1746,92
297,98	1677,29
298,19	1724,39
298,41	1773,54
298,62	1679,33
298,83	1800,16
299,05	1708,01
299,26	1693,67
299,48	1724,39
299,69	1699,81
299,90	1738,73
300,12	1693,67
300,33	1789,92
300,55	1705,96
300,76	1722,34
300,98	1646,57
301,19	1714,15
301,40	1734,63
301,62	1724,39
301,83	1691,62
302,05	1716,20
302,26	1710,05
302,47	1746,92
302,69	1794,02
302,90	1703,91
303,12	1617,90
303,33	1685,48
303,54	1826,79
303,76	1708,01
303,97	1671,14
304,19	1810,40
304,40	1685,48
304,61	1714,15
304,83	1794,02
305,04	1757,16
305,26	1742,82
305,47	1681,38
305,68	1693,67
305,90	1636,33
306,11	1730,53
306,33	1718,25
306,54	1765,35
306,75	1699,81
306,97	1591,27
307,18	1624,04
307,39	1714,15
307,61	1687,53
307,82	1800,16
308,04	1701,86
308,25	1660,90
308,46	1699,81
308,68	1783,78
308,89	1759,21
309,10	1734,63
309,32	1722,34
309,53	1701,86
309,74	1701,86
309,96	1693,67
310,17	1783,78
310,39	1718,25
310,60	1730,53
310,81	1695,72
311,03	1650,66
311,24	1759,21
311,45	1652,71
311,67	1841,12
311,88	1712,10
312,09	1658,85
312,31	1583,08
312,52	1677,29
312,73	1738,73
312,95	1705,96
313,16	1679,33
313,37	1791,97
313,59	1726,44
313,80	1834,98
314,01	1828,84
314,23	1701,86
314,44	1705,96
314,65	1646,57
314,87	1687,53
315,08	1712,10
315,29	1726,44
315,51	1730,53
315,72	1568,74
315,93	1802,21
316,15	1751,01
316,36	1658,85
316,57	1794,02
316,79	1736,68
317,00	1699,81
317,21	1712,10
317,43	1693,67
317,64	1800,16
317,85	1701,86
318,07	1718,25
318,28	1726,44
318,49	1865,70
318,70	1920,99
318,92	1869,80
319,13	1837,03
319,34	1939,43
319,56	1783,78
319,77	1837,03
319,98	1796,07
320,20	1763,30
320,41	1722,34
320,62	1767,40
320,83	1636,33
321,05	1857,51
321,26	1810,40
321,47	1734,63
321,69	1775,59
321,90	1662,95
322,11	1732,58
322,32	1732,58
322,54	1804,26
322,75	1703,91
322,96	1861,60
323,18	1656,81
323,39	1562,60
323,60	1699,81
323,81	1673,19
324,03	1656,81
324,24	1646,57
324,45	1687,53
324,66	1687,53
324,88	1832,93
325,09	1837,03
325,30	1724,39
325,52	1667,05
325,73	1738,73
325,94	1718,25
326,15	1626,09
326,37	1677,29
326,58	1740,77
326,79	1826,79
327,00	1644,52
327,22	1697,77
327,43	1703,91
327,64	1640,42
327,85	1716,20
328,07	1787,88
328,28	1794,02
328,49	1671,14
328,70	1753,06
328,92	1665,00
329,13	1710,05
329,34	1757,16
329,55	1816,55
329,76	1742,82
329,98	1669,09
330,19	1810,40
330,40	1703,91
330,61	1724,39
330,83	1689,57
331,04	1703,91
331,25	1759,21
331,46	1714,15
331,68	1660,90
331,89	1888,23
332,10	1812,45
332,31	1636,33
332,52	1697,77
332,74	1804,26
332,95	1634,28
333,16	1710,05
333,37	1763,30
333,58	1716,20
333,80	1765,35
334,01	1710,05
334,22	1705,96
334,43	1705,96
334,64	1718,25
334,86	1728,49
335,07	1638,38
335,28	1775,59
335,49	1630,18
335,70	1755,11
335,92	1783,78
336,13	1839,08
336,34	1669,09
336,55	1687,53
336,76	1714,15
336,98	1595,37
337,19	1738,73
337,40	1839,08
337,61	1841,12
337,82	1619,94
338,04	1779,68
338,25	1607,66
338,46	1644,52
338,67	1701,86
338,88	1689,57
339,09	1691,62
339,31	1619,94
339,52	1605,61
339,73	1708,01
339,94	1687,53
340,15	1812,45
340,36	1660,90
340,58	1744,87
340,79	1677,29
341,00	1724,39
341,21	1701,86
341,42	1841,12
341,63	1732,58
341,85	1726,44
342,06	1685,48
342,27	1669,09
342,48	1794,02
342,69	1583,08
342,90	1708,01
343,12	1755,11
343,33	1722,34
343,54	1738,73
343,75	1804,26
343,96	1675,24
344,17	1673,19
344,38	1787,88
344,60	1724,39
344,81	1677,29
345,02	1634,28
345,23	1744,87
345,44	1818,60
345,65	1791,97
345,86	1720,29
346,07	1697,77
346,29	1677,29
346,50	1705,96
346,71	1734,63
346,92	1769,44
347,13	1791,97
347,34	1785,83
347,55	1714,15
347,76	1687,53
347,98	1730,53
348,19	1712,10
348,40	1755,11
348,61	1716,20
348,82	1736,68
349,03	1720,29
349,24	1646,57
349,45	1765,35
349,66	1624,04
349,88	1771,49
350,09	1644,52
350,30	1740,77
350,51	1812,45
350,72	1720,29
350,93	1722,34
351,14	1685,48
351,35	1742,82
351,56	1648,61
351,77	1738,73
351,99	1740,77
352,20	1769,44
352,41	1806,31
352,62	1667,05
352,83	1699,81
353,04	1701,86
353,25	1669,09
353,46	1841,12
353,67	1810,40
353,88	1714,15
354,09	1708,01
354,30	1703,91
354,52	1751,01
354,73	1738,73
354,94	1624,04
355,15	1726,44
355,36	1808,36
355,57	1652,71
355,78	1693,67
355,99	1601,51
356,20	1644,52
356,41	1755,11
356,62	1736,68
356,83	1714,15
357,04	1787,88
357,25	1630,18
357,46	1646,57
357,68	1660,90
357,89	1634,28
358,10	1689,57
358,31	1751,01
358,52	1677,29
358,73	1646,57
358,94	1634,28
359,15	1636,33
359,36	1689,57
359,57	1761,25
359,78	1701,86
359,99	1800,16
360,20	1644,52
360,41	1673,19
360,62	1726,44
360,83	1773,54
361,04	1718,25
361,25	1724,39
361,46	1820,64
361,67	1697,77
361,88	1769,44
362,09	1755,11
362,30	1728,49
362,51	1708,01
362,72	1765,35
362,93	1779,68
363,14	1720,29
363,35	1685,48
363,56	1742,82
363,78	1800,16
363,99	1728,49
364,20	1611,75
364,41	1699,81
364,62	1810,40
364,83	1748,97
365,04	1683,43
365,25	1687,53
365,46	1777,64
365,67	1691,62
365,88	1652,71
366,09	1648,61
366,30	1689,57
366,51	1671,14
366,72	1679,33
366,93	1669,09
367,14	1705,96
367,35	1863,65
367,56	1660,90
367,77	1804,26
367,98	1718,25
368,18	1777,64
368,39	1665,00
368,60	1691,62
368,81	1837,03
369,02	1732,58
369,23	1644,52
369,44	1638,38
369,65	1693,67
369,86	1712,10
370,07	1767,40
370,28	1638,38
370,49	1703,91
370,70	1761,25
370,91	1646,57
371,12	1665,00
371,33	1769,44
371,54	1785,83
371,75	1798,12
371,96	1613,80
372,17	1662,95
372,38	1697,77
372,59	1744,87
372,80	1671,14
373,01	1640,42
373,22	1779,68
373,43	1718,25
373,64	1658,85
373,85	1818,60
374,06	1744,87
374,26	1818,60
374,47	1652,71
374,68	1847,27
374,89	1742,82
375,10	1640,42
375,31	1783,78
375,52	1665,00
375,73	1710,05
375,94	1732,58
376,15	1808,36
376,36	1630,18
376,57	1744,87
376,78	1671,14
376,99	1746,92
377,20	1740,77
377,40	1691,62
377,61	1816,55
377,82	1699,81
378,03	1724,39
378,24	1753,06
378,45	1712,10
378,66	1691,62
378,87	1660,90
379,08	1658,85
379,29	1761,25
379,50	1720,29
379,71	1765,35
379,91	1751,01
380,12	1697,77
380,33	1724,39
380,54	1654,76
380,75	1703,91
380,96	1691,62
381,17	1822,69
381,38	1720,29
381,59	1800,16
381,80	1765,35
382,00	1888,23
382,21	1740,77
382,42	1742,82
382,63	1851,36
382,84	1794,02
383,05	1781,73
383,26	1808,36
383,47	1740,77
383,68	1830,88
383,88	1828,84
384,09	1791,97
384,30	1814,50
384,51	1742,82
384,72	1660,90
384,93	1634,28
385,14	1738,73
385,35	1763,30
385,55	1624,04
385,76	1748,97
385,97	1753,06
386,18	1644,52
386,39	1654,76
386,60	1671,14
386,81	1738,73
387,02	1714,15
387,22	1671,14
387,43	1820,64
387,64	1779,68
387,85	1894,37
388,06	2150,37
388,27	4202,43
388,48	6717,34
388,68	8095,62
388,89	9602,93
389,10	9799,53
389,31	8677,24
389,52	7559,05
389,73	6541,21
389,93	6156,19
390,14	5812,14
390,35	5005,24
390,56	4550,59
390,77	3753,93
390,98	2930,64
391,18	2488,28
391,39	2068,45
391,60	1820,64
391,81	1832,93
392,02	1689,57
392,23	1861,60
392,43	1775,59
392,64	1789,92
392,85	1673,19
393,06	1898,47
393,27	1722,34
393,47	1638,38
393,68	1767,40
393,89	1732,58
394,10	1832,93
394,31	1685,48
394,52	1640,42
394,72	1667,05
394,93	1816,55
395,14	1736,68
395,35	1763,30
395,56	1726,44
395,76	1828,84
395,97	1787,88
396,18	1880,04
396,39	1834,98
396,60	2056,16
396,80	1902,56
397,01	1865,70
397,22	1869,80
397,43	1802,21
397,64	1777,64
397,84	1853,41
398,05	1796,07
398,26	1734,63
398,47	1798,12
398,67	1720,29
398,88	1798,12
399,09	1798,12
399,30	1654,76
399,51	1763,30
399,71	1677,29
399,92	1656,81
400,13	1695,72
400,34	1804,26
400,54	1722,34
400,75	1796,07
400,96	1738,73
401,17	1814,50
401,37	1675,24
401,58	1722,34
401,79	1816,55
402,00	1845,22
402,21	1918,95
402,41	1908,71
402,62	2015,20
402,83	1968,10
403,04	1937,38
403,24	2045,92
403,45	1857,51
403,66	1964,00
403,87	1880,04
404,07	1931,23
404,28	1998,82
404,49	1892,32
404,70	1832,93
404,90	1734,63
405,11	1779,68
405,32	1787,88
405,52	1726,44
405,73	1687,53
405,94	1667,05
406,15	1699,81
406,35	1701,86
406,56	1703,91
406,77	1720,29
406,98	1689,57
407,18	1718,25
407,39	1900,52
407,60	1789,92
407,80	1734,63
408,01	1667,05
408,22	1724,39
408,43	1619,94
408,63	1708,01
408,84	1736,68
409,05	1718,25
409,25	1716,20
409,46	1703,91
409,67	1718,25
409,88	1738,73
410,08	1710,05
410,29	1654,76
410,50	1785,83
410,70	1744,87
410,91	1621,99
411,12	1791,97
411,32	1744,87
411,53	1710,05
411,74	1738,73
411,95	1736,68
412,15	1697,77
412,36	1800,16
412,57	1804,26
412,77	1794,02
412,98	1738,73
413,19	1673,19
413,39	1763,30
413,60	1783,78
413,81	1808,36
414,01	1646,57
414,22	1783,78
414,43	1693,67
414,63	1720,29
414,84	1730,53
415,05	1742,82
415,25	1673,19
415,46	1771,49
415,67	1675,24
415,87	1783,78
416,08	1757,16
416,29	1714,15
416,49	1826,79
416,70	1714,15
416,91	1697,77
417,11	1683,43
417,32	1671,14
417,53	1867,75
417,73	1683,43
417,94	1607,66
418,15	1728,49
418,35	1748,97
418,56	1767,40
418,77	1818,60
418,97	1705,96
419,18	1761,25
419,38	1626,09
419,59	1652,71
419,80	1822,69
420,00	1691,62
420,21	1710,05
420,42	1710,05
420,62	1753,06
420,83	1699,81
421,04	1658,85
421,24	1634,28
421,45	1769,44
421,65	1730,53
421,86	1740,77
422,07	1710,05
422,27	1748,97
422,48	1714,15
422,69	1671,14
422,89	1658,85
423,10	1654,76
423,30	1615,85
423,51	1716,20
423,72	1730,53
423,92	1738,73
424,13	1669,09
424,33	1724,39
424,54	1834,98
424,75	1734,63
424,95	1826,79
425,16	1714,15
425,36	1710,05
425,57	1804,26
425,78	1802,21
425,98	1804,26
426,19	1734,63
426,39	1665,00
426,60	1767,40
426,81	1853,41
427,01	1736,68
427,22	1775,59
427,42	1626,09
427,63	1646,57
427,83	1816,55
428,04	1789,92
428,25	1810,40
428,45	1787,88
428,66	1777,64
428,86	1763,30
429,07	1673,19
429,28	1767,40
429,48	1654,76
429,69	1634,28
429,89	1763,30
430,10	1654,76
430,30	1771,49
430,51	1857,51
430,71	1679,33
430,92	1681,38
431,13	1632,23
431,33	1783,78
431,54	1826,79
431,74	1812,45
431,95	1798,12
432,15	1691,62
432,36	1734,63
432,56	1691,62
432,77	1808,36
432,98	1841,12
433,18	1800,16
433,39	1705,96
433,59	1722,34
433,80	1779,68
434,00	1826,79
434,21	1755,11
434,41	1718,25
434,62	1816,55
434,82	1671,14
435,03	1724,39
435,23	1716,20
435,44	1679,33
435,64	1794,02
435,85	1783,78
436,06	1751,01
436,26	1783,78
436,47	1693,67
436,67	1695,72
436,88	1626,09
437,08	1712,10
437,29	1761,25
437,49	1669,09
437,70	1724,39
437,90	1736,68
438,11	1812,45
438,31	1822,69
438,52	1859,56
438,72	1888,23
438,93	1908,71
439,13	1720,29
439,34	1818,60
439,54	1705,96
439,75	1785,83
439,95	1820,64
440,16	1689,57
440,36	1712,10
440,57	1740,77
440,77	1779,68
440,98	1748,97
441,18	1783,78
441,39	1695,72
441,59	1685,48
441,80	1920,99
442,00	1660,90
442,21	1806,31
442,41	1685,48
442,62	1822,69
442,82	1705,96
443,02	1785,83
443,23	1748,97
443,43	1638,38
443,64	1822,69
443,84	1732,58
444,05	1802,21
444,25	1738,73
444,46	1683,43
444,66	1630,18
444,87	1806,31
445,07	1617,90
445,28	1720,29
445,48	1820,64
445,69	1759,21
445,89	1890,28
446,09	1789,92
446,30	1988,58
446,50	2762,71
446,71	3770,31
446,91	4220,86
447,12	4558,78
447,32	4673,46
447,53	4220,86
447,73	3813,32
447,93	3551,18
448,14	3147,73
448,34	3260,37
448,55	2869,20
448,75	2908,12
448,96	2656,22
449,16	2336,73
449,36	2314,20
449,57	2072,54
449,77	1990,63
449,98	1851,36
450,18	1771,49
450,39	1894,37
450,59	1859,56
450,79	1767,40
451,00	1687,53
451,20	1798,12
451,41	1722,34
451,61	1802,21
451,81	1726,44
452,02	1773,54
452,22	1722,34
452,43	1710,05
452,63	1652,71
452,84	1738,73
453,04	1746,92
453,24	1796,07
453,45	1734,63
453,65	1742,82
453,86	1740,77
454,06	1783,78
454,26	1779,68
454,47	1683,43
454,67	1845,22
454,87	1742,82
455,08	1753,06
455,28	1869,80
455,49	1724,39
455,69	1683,43
455,89	1875,94
456,10	1771,49
456,30	1675,24
456,51	1767,40
456,71	1765,35
456,91	1746,92
457,12	1660,90
457,32	1818,60
457,52	1695,72
457,73	1773,54
457,93	1779,68
458,14	1732,58
458,34	1751,01
458,54	1761,25
458,75	1771,49
458,95	1841,12
459,15	1787,88
459,36	1783,78
459,56	1767,40
459,76	1839,08
459,97	1765,35
460,17	1769,44
460,37	1757,16
460,58	1755,11
460,78	1722,34
460,99	1730,53
461,19	1748,97
461,39	1746,92
461,60	1763,30
461,80	1724,39
462,00	1669,09
462,21	1677,29
462,41	1693,67
462,61	1705,96
462,82	1648,61
463,02	1794,02
463,22	1732,58
463,43	1789,92
463,63	1710,05
463,83	1834,98
464,04	1755,11
464,24	1769,44
464,44	1691,62
464,64	1834,98
464,85	1806,31
465,05	1746,92
465,25	1761,25
465,46	1628,14
465,66	1814,50
465,86	1818,60
466,07	1804,26
466,27	1779,68
466,47	1656,81
466,68	1640,42
466,88	1892,32
467,08	1798,12
467,29	1837,03
467,49	1757,16
467,69	1714,15
467,89	1779,68
468,10	1748,97
468,30	1746,92
468,50	1812,45
468,71	1753,06
468,91	1687,53
469,11	1812,45
469,31	1757,16
469,52	1634,28
469,72	1816,55
469,92	1886,18
470,13	1767,40
470,33	1824,74
470,53	1796,07
470,73	2101,22
470,94	2234,33
471,14	2260,96
471,34	2516,95
471,54	2465,75
471,75	2254,81
471,95	2179,04
472,15	2125,79
472,36	2152,42
472,56	2054,11
472,76	2062,30
472,96	1939,43
473,17	1955,81
473,37	1914,85
473,57	1791,97
473,77	1861,60
473,98	1738,73
474,18	1652,71
474,38	1898,47
474,58	1753,06
474,79	1697,77
474,99	1789,92
475,19	1757,16
475,39	1679,33
475,60	1710,05
475,80	1775,59
476,00	1701,86
476,20	1693,67
476,41	1683,43
476,61	1826,79
476,81	1861,60
477,01	1667,05
477,21	1877,99
477,42	1796,07
477,62	1671,14
477,82	1722,34
478,02	1726,44
478,23	1765,35
478,43	1658,85
478,63	1656,81
478,83	1769,44
479,03	1691,62
479,24	1861,60
479,44	1851,36
479,64	1669,09
479,84	1689,57
480,04	1675,24
480,25	1751,01
480,45	1583,08
480,65	1710,05
480,85	1787,88
481,06	1658,85
481,26	1751,01
481,46	1708,01
481,66	1757,16
481,86	1746,92
482,06	1773,54
482,27	1660,90
482,47	1718,25
482,67	1681,38
482,87	1660,90
483,07	1718,25
483,28	1720,29
483,48	1626,09
483,68	1693,67
483,88	1697,77
484,08	1667,05
484,29	1699,81
484,49	1691,62
484,69	1697,77
484,89	1834,98
485,09	1810,40
485,29	1701,86
485,50	1777,64
485,70	1710,05
485,90	1785,83
486,10	1781,73
486,30	1755,11
486,50	1814,50
486,71	1773,54
486,91	1798,12
487,11	1828,84
487,31	1652,71
487,51	1755,11
487,71	1656,81
487,91	1638,38
488,12	1619,94
488,32	1611,75
488,52	1732,58
488,72	1628,14
488,92	1785,83
489,12	1769,44
489,32	1816,55
489,53	1779,68
489,73	1656,81
489,93	1839,08
490,13	1624,04
490,33	1693,67
490,53	1728,49
490,73	1802,21
490,94	1648,61
491,14	1777,64
491,34	1806,31
491,54	2099,17
491,74	2508,76
491,94	2897,88
492,14	3010,51
492,34	3057,62
492,54	2684,89
492,75	2506,71
492,95	2420,70
493,15	2299,87
493,35	2217,95
493,55	2316,25
493,75	2138,08
493,95	2103,26
494,15	2088,93
494,35	1873,89
494,56	1894,37
494,76	1759,21
494,96	1810,40
495,16	1814,50
495,36	1802,21
495,56	1738,73
495,76	1791,97
495,96	1665,00
496,16	1701,86
496,36	1822,69
496,56	1751,01
496,77	1697,77
496,97	1701,86
497,17	1816,55
497,37	1734,63
497,57	1757,16
497,77	1742,82
497,97	1765,35
498,17	1701,86
498,37	1720,29
498,57	1804,26
498,77	1695,72
498,97	1796,07
499,17	1853,41
499,38	1689,57
499,58	1757,16
499,78	1820,64
499,98	1847,27
500,18	1734,63
500,38	1677,29
500,58	1966,05
500,78	2537,43
500,98	4425,66
501,18	5767,08
501,38	6573,98
501,58	7212,95
501,78	6508,44
501,98	5466,03
502,18	4853,69
502,38	4343,74
502,58	4153,28
502,78	3837,89
502,98	3549,13
503,18	3332,05
503,38	3209,17
503,59	2793,43
503,79	2621,40
503,99	2398,17
504,19	2379,74
504,39	2213,85
504,59	2199,52
504,79	2045,92
504,99	2090,98
505,19	1931,23
505,39	1877,99
505,59	1972,19
505,79	1863,65
505,99	1832,93
506,19	1834,98
506,39	1894,37
506,59	1712,10
506,79	1769,44
506,99	1843,17
507,19	1738,73
507,39	1734,63
507,59	1722,34
507,79	1726,44
507,99	1763,30
508,19	1751,01
508,39	1718,25
508,59	1759,21
508,79	1820,64
508,99	1785,83
509,19	1665,00
509,39	1714,15
509,59	1669,09
509,79	1691,62
509,99	1771,49
510,19	1920,99
510,39	1763,30
510,59	1728,49
510,79	1607,66
510,99	1740,77
511,19	1751,01
511,39	1867,75
511,59	1798,12
511,79	1824,74
511,99	1716,20
512,19	1855,46
512,38	1742,82
512,58	1691,62
512,78	1783,78
512,98	1818,60
513,18	1843,17
513,38	1705,96
513,58	1789,92
513,78	1714,15
513,98	1718,25
514,18	1748,97
514,38	1744,87
514,58	1794,02
514,78	1783,78
514,98	1714,15
515,18	1710,05
515,38	1681,38
515,58	1861,60
515,78	1759,21
515,98	1744,87
516,18	1779,68
516,38	1730,53
516,57	1679,33
516,77	1730,53
516,97	1828,84
517,17	1734,63
517,37	1708,01
517,57	1845,22
517,77	1716,20
517,97	1705,96
518,17	1738,73
518,37	1718,25
518,57	1671,14
518,77	1744,87
518,97	1679,33
519,16	1814,50
519,36	1875,94
519,56	1712,10
519,76	1648,61
519,96	1751,01
520,16	1855,46
520,36	1662,95
520,56	1818,60
520,76	1656,81
520,96	1695,72
521,16	1806,31
521,35	1828,84
521,55	1816,55
521,75	1652,71
521,95	1681,38
522,15	1736,68
522,35	1728,49
522,55	1714,15
522,75	1814,50
522,95	1732,58
523,14	1689,57
523,34	1814,50
523,54	1667,05
523,74	1708,01
523,94	1724,39
524,14	1671,14
524,34	1787,88
524,54	1851,36
524,73	1744,87
524,93	1751,01
525,13	1769,44
525,33	1669,09
525,53	1902,56
525,73	1755,11
525,93	1738,73
526,13	1632,23
526,32	1753,06
526,52	1738,73
526,72	1736,68
526,92	1767,40
527,12	1796,07
527,32	1683,43
527,52	1773,54
527,71	1742,82
527,91	1738,73
528,11	1734,63
528,31	1779,68
528,51	1748,97
528,71	1724,39
528,90	1802,21
529,10	1744,87
529,30	1826,79
529,50	1730,53
529,70	1744,87
529,90	1767,40
530,09	1705,96
530,29	1671,14
530,49	1710,05
530,69	1882,08
530,89	1783,78
531,09	1789,92
531,28	1644,52
531,48	1834,98
531,68	1755,11
531,88	1787,88
532,08	1814,50
532,28	1714,15
532,47	1775,59
532,67	1834,98
532,87	1789,92
533,07	1636,33
533,27	1830,88
533,46	1794,02
533,66	1734,63
533,86	1736,68
534,06	1695,72
534,26	1755,11
534,45	1697,77
534,65	1765,35
534,85	1834,98
535,05	1644,52
535,25	1773,54
535,44	1689,57
535,64	1839,08
535,84	1783,78
536,04	1730,53
536,24	1746,92
536,43	1693,67
536,63	1779,68
536,83	1730,53
537,03	1689,57
537,22	1621,99
537,42	1654,76
537,62	1730,53
537,82	1800,16
538,02	1841,12
538,21	1851,36
538,41	1951,71
538,61	1816,55
538,81	1812,45
539,00	1865,70
539,20	1724,39
539,40	1742,82
539,60	1699,81
539,79	1748,97
539,99	1656,81
540,19	1714,15
540,39	1738,73
540,58	1791,97
540,78	1779,68
540,98	1789,92
541,18	1779,68
541,37	1824,74
541,57	1779,68
541,77	1779,68
541,97	1652,71
542,16	1687,53
542,36	1675,24
542,56	1802,21
542,76	1877,99
542,95	1746,92
543,15	1753,06
543,35	1812,45
543,54	1757,16
543,74	1732,58
543,94	1804,26
544,14	1751,01
544,33	1759,21
544,53	1746,92
544,73	1691,62
544,93	1693,67
545,12	1763,30
545,32	1742,82
545,52	1689,57
545,71	1738,73
545,91	1703,91
546,11	1718,25
546,30	1718,25
546,50	1763,30
546,70	1726,44
546,90	1773,54
547,09	1716,20
547,29	1718,25
547,49	1771,49
547,68	1773,54
547,88	1740,77
548,08	1816,55
548,27	2183,13
548,47	1691,62
548,67	1757,16
548,87	1769,44
549,06	1751,01
549,26	1697,77
549,46	1763,30
549,65	1710,05
549,85	1800,16
550,05	1812,45
550,24	1677,29
550,44	1775,59
550,64	1796,07
550,83	1761,25
551,03	1818,60
551,23	1761,25
551,42	1787,88
551,62	1775,59
551,82	1726,44
552,01	1800,16
552,21	1763,30
552,41	1689,57
552,60	1765,35
552,80	1769,44
553,00	1656,81
553,19	1890,28
553,39	1837,03
553,59	1699,81
553,78	1806,31
553,98	1765,35
554,17	1705,96
554,37	1740,77
554,57	1777,64
554,76	1642,47
554,96	1658,85
555,16	1738,73
555,35	1814,50
555,55	1718,25
555,75	1703,91
555,94	1812,45
556,14	1691,62
556,33	1777,64
556,53	1806,31
556,73	1748,97
556,92	1820,64
557,12	1769,44
557,32	1890,28
557,51	1826,79
557,71	1759,21
557,90	1867,75
558,10	1843,17
558,30	1748,97
558,49	1699,81
558,69	1718,25
558,88	1726,44
559,08	1773,54
559,28	1759,21
559,47	1751,01
559,67	1701,86
559,86	1906,66
560,06	1771,49
560,26	1808,36
560,45	1662,95
560,65	1710,05
560,84	1734,63
561,04	1738,73
561,24	1798,12
561,43	1708,01
561,63	1783,78
561,82	1763,30
562,02	1818,60
562,22	1722,34
562,41	1771,49
562,61	1720,29
562,80	1697,77
563,00	1937,38
563,19	1820,64
563,39	1710,05
563,59	1832,93
563,78	1632,23
563,98	1611,75
564,17	1720,29
564,37	1632,23
564,56	1714,15
564,76	1691,62
564,96	1775,59
565,15	1759,21
565,35	1886,18
565,54	1751,01
565,74	1830,88
565,93	1738,73
566,13	1763,30
566,32	1718,25
566,52	1714,15
566,71	1718,25
566,91	1771,49
567,11	1677,29
567,30	1687,53
567,50	1724,39
567,69	1818,60
567,89	1720,29
568,08	1665,00
568,28	1777,64
568,47	1683,43
568,67	1734,63
568,86	1798,12
569,06	1816,55
569,25	1710,05
569,45	1673,19
569,64	1708,01
569,84	1697,77
570,04	1757,16
570,23	1710,05
570,43	1736,68
570,62	1814,50
570,82	1820,64
571,01	1669,09
571,21	1673,19
571,40	1656,81
571,60	1830,88
571,79	1746,92
571,99	1816,55
572,18	1669,09
572,38	1828,84
572,57	1761,25
572,77	1781,73
572,96	1894,37
573,16	1781,73
573,35	1708,01
573,55	1834,98
573,74	1818,60
573,94	1761,25
574,13	1830,88
574,33	1798,12
574,52	1832,93
574,71	1748,97
574,91	1798,12
575,10	1650,66
575,30	1722,34
575,49	1656,81
575,69	1693,67
575,88	1802,21
576,08	1773,54
576,27	1877,99
576,47	1812,45
576,66	1839,08
576,86	1808,36
577,05	1798,12
577,25	1898,47
577,44	1877,99
577,64	1683,43
577,83	1820,64
578,02	1769,44
578,22	1845,22
578,41	1822,69
578,61	1812,45
578,80	1687,53
579,00	1796,07
579,19	1701,86
579,39	1832,93
579,58	1785,83
579,77	1765,35
579,97	1886,18
580,16	1820,64
580,36	1857,51
580,55	1830,88
580,75	1701,86
580,94	1763,30
581,13	1880,04
581,33	1849,32
581,52	1837,03
581,72	1912,80
581,91	1914,85
582,11	1675,24
582,30	1837,03
582,49	1804,26
582,69	1863,65
582,88	1796,07
583,08	1744,87
583,27	1781,73
583,47	1687,53
583,66	1757,16
583,85	1753,06
584,05	1736,68
584,24	1789,92
584,44	1822,69
584,63	1812,45
584,82	1855,46
585,02	1908,71
585,21	1820,64
585,41	1853,41
585,60	1820,64
585,79	1955,81
585,99	1966,05
586,18	1933,28
586,37	2111,46
586,57	3428,30
586,76	9754,48
586,96	23871,12
587,15	33715,71
587,34	39933,34
587,54	41555,33
587,73	36261,33
587,93	25927,28
588,12	21327,55
588,31	18075,37
588,51	16170,76
588,70	14798,62
588,89	13977,39
589,09	12728,13
589,28	10813,28
589,47	9387,89
589,67	7745,42
589,86	6338,46
590,06	4956,08
590,25	3977,16
590,44	3018,71
590,64	2592,73
590,83	2252,77
591,02	2076,64
591,22	1961,95
591,41	1959,91
591,60	1849,32
591,80	1933,28
591,99	1738,73
592,18	1765,35
592,38	1859,56
592,57	1781,73
592,76	1857,51
592,96	1775,59
593,15	1755,11
593,34	1877,99
593,54	1677,29
593,73	1744,87
593,92	1771,49
594,12	1779,68
594,31	1834,98
594,50	1798,12
594,70	1755,11
594,89	1966,05
595,08	1656,81
595,28	1863,65
595,47	1923,04
595,66	1796,07
595,86	1644,52
596,05	1763,30
596,24	1677,29
596,43	1806,31
596,63	1769,44
596,82	1783,78
597,01	1771,49
597,21	1877,99
597,40	1736,68
597,59	1851,36
597,79	1761,25
597,98	1718,25
598,17	1820,64
598,36	1767,40
598,56	1738,73
598,75	1742,82
598,94	1708,01
599,14	1722,34
599,33	1720,29
599,52	1818,60
599,71	1681,38
599,91	1765,35
600,10	1748,97
600,29	1722,34
600,48	1789,92
600,68	1751,01
600,87	1724,39
601,06	1701,86
601,26	1742,82
601,45	1787,88
601,64	1753,06
601,83	1816,55
602,03	1769,44
602,22	1593,32
602,41	1898,47
602,60	1882,08
602,80	1812,45
602,99	1675,24
603,18	1681,38
603,37	1738,73
603,57	1779,68
603,76	1773,54
603,95	1824,74
604,14	1718,25
604,34	1687,53
604,53	1693,67
604,72	1777,64
604,91	1765,35
605,10	1767,40
605,30	1736,68
605,49	1912,80
605,68	1816,55
605,87	1785,83
606,07	1740,77
606,26	1689,57
606,45	1794,02
606,64	1669,09
606,84	1679,33
607,03	1779,68
607,22	1718,25
607,41	1685,48
607,60	1746,92
607,80	1791,97
607,99	1755,11
608,18	1736,68
608,37	1746,92
608,56	1738,73
608,76	1757,16
608,95	1845,22
609,14	1832,93
609,33	1804,26
609,52	1759,21
609,72	1718,25
609,91	1763,30
610,10	1699,81
610,29	1787,88
610,48	1810,40
610,68	1800,16
610,87	1685,48
611,06	1740,77
611,25	1710,05
611,44	1718,25
611,63	1685,48
611,83	1830,88
612,02	1642,47
612,21	1798,12
612,40	1638,38
612,59	1691,62
612,79	1701,86
612,98	1787,88
613,17	1808,36
613,36	1691,62
613,55	1767,40
613,74	1726,44
613,93	1683,43
614,13	1802,21
614,32	1705,96
614,51	1808,36
614,70	1693,67
614,89	1693,67
615,08	1697,77
615,28	2035,68
615,47	1673,19
615,66	1734,63
615,85	1765,35
616,04	1890,28
616,23	1683,43
616,42	1738,73
616,62	1759,21
616,81	1742,82
617,00	1638,38
617,19	1769,44
617,38	1695,72
617,57	1769,44
617,76	1755,11
617,95	1812,45
618,15	1736,68
618,34	1771,49
618,53	1675,24
618,72	1798,12
618,91	1751,01
619,10	1810,40
619,29	1714,15
619,48	1722,34
619,68	1646,57
619,87	1640,42
620,06	1650,66
620,25	1755,11
620,44	1677,29
620,63	1765,35
620,82	1789,92
621,01	1718,25
621,20	1710,05
621,39	1755,11
621,59	1804,26
621,78	1720,29
621,97	1718,25
622,16	1755,11
622,35	1781,73
622,54	1740,77
622,73	1841,12
622,92	1667,05
623,11	1857,51
623,30	1751,01
623,49	1777,64
623,68	1658,85
623,88	1804,26
624,07	1755,11
624,26	1757,16
624,45	1804,26
624,64	1665,00
624,83	1728,49
625,02	1732,58
625,21	1738,73
625,40	1767,40
625,59	1794,02
625,78	1763,30
625,97	1837,03
626,16	1773,54
626,35	1742,82
626,54	1671,14
626,74	1775,59
626,93	1683,43
627,12	1716,20
627,31	1789,92
627,50	1722,34
627,69	1837,03
627,88	1699,81
628,07	1746,92
628,26	1689,57
628,45	1771,49
628,64	1691,62
628,83	1783,78
629,02	1722,34
629,21	1785,83
629,40	1734,63
629,59	1671,14
629,78	1677,29
629,97	1714,15
630,16	1701,86
630,35	1767,40
630,54	1732,58
630,73	1761,25
630,92	1667,05
631,11	1685,48
631,30	1724,39
631,49	1830,88
631,68	1718,25
631,87	1785,83
632,06	1636,33
632,25	1890,28
632,44	1687,53
632,63	1691,62
632,82	1695,72
633,01	1718,25
633,20	1716,20
633,39	1714,15
633,58	1646,57
633,77	1724,39
633,96	1787,88
634,15	1781,73
634,34	1718,25
634,53	1689,57
634,72	1695,72
634,91	1611,75
635,10	1734,63
635,29	1785,83
635,48	1828,84
635,67	1681,38
635,86	1560,55
636,05	1783,78
636,24	1748,97
636,43	1765,35
636,62	1812,45
636,81	1652,71
637,00	1736,68
637,19	1738,73
637,38	1767,40
637,57	1648,61
637,76	1697,77
637,95	1701,86
638,14	1695,72
638,33	1712,10
638,52	1810,40
638,71	1724,39
638,89	1646,57
639,08	1824,74
639,27	1787,88
639,46	1765,35
639,65	1775,59
639,84	1681,38
640,03	1699,81
640,22	1712,10
640,41	1880,04
640,60	1656,81
640,79	1712,10
640,98	1771,49
641,17	1703,91
641,36	1722,34
641,55	1724,39
641,74	1609,70
641,92	1644,52
642,11	1714,15
642,30	1722,34
642,49	1626,09
642,68	1689,57
642,87	1773,54
643,06	1794,02
643,25	1738,73
643,44	1767,40
643,63	1660,90
643,82	1718,25
644,00	1767,40
644,19	1781,73
644,38	1683,43
644,57	1761,25
644,76	1791,97
644,95	1753,06
645,14	1787,88
645,33	1695,72
645,52	1691,62
645,71	1703,91
645,89	1642,47
646,08	1771,49
646,27	1703,91
646,46	1861,60
646,65	1605,61
646,84	1730,53
647,03	1658,85
647,22	1714,15
647,40	1765,35
647,59	1734,63
647,78	1662,95
647,97	1734,63
648,16	1667,05
648,35	1789,92
648,54	1882,08
648,73	1656,81
648,91	1748,97
649,10	1759,21
649,29	1791,97
649,48	1708,01
649,67	1710,05
649,86	1603,56
650,05	1632,23
650,23	1826,79
650,42	1734,63
650,61	1822,69
650,80	1800,16
650,99	1845,22
651,18	1714,15
651,36	1826,79
651,55	1724,39
651,74	1771,49
651,93	1662,95
652,12	1701,86
652,31	1771,49
652,49	1703,91
652,68	1679,33
652,87	1771,49
653,06	1722,34
653,25	1789,92
653,44	1701,86
653,62	1849,32
653,81	1677,29
654,00	1728,49
654,19	1753,06
654,38	1845,22
654,56	1751,01
654,75	1720,29
654,94	1777,64
655,13	1705,96
655,32	1728,49
655,51	1761,25
655,69	1675,24
655,88	1724,39
656,07	1689,57
656,26	1757,16
656,45	1669,09
656,63	1693,67
656,82	1738,73
657,01	1779,68
657,20	1683,43
657,38	1904,61
657,57	1685,48
657,76	1699,81
657,95	1796,07
658,14	1722,34
658,32	1753,06
658,51	1638,38
658,70	1732,58
658,89	1757,16
659,08	1773,54
659,26	1818,60
659,45	1695,72
659,64	1748,97
659,83	1691,62
660,01	1884,13
660,20	1740,77
660,39	1779,68
660,58	1626,09
660,76	1722,34
660,95	1662,95
661,14	1720,29
661,33	1693,67
661,51	1656,81
661,70	1697,77
661,89	1761,25
662,08	1705,96
662,26	1681,38
662,45	1652,71
662,64	1757,16
662,83	1757,16
663,01	1734,63
663,20	1687,53
663,39	1757,16
663,58	1691,62
663,76	1724,39
663,95	1738,73
664,14	1667,05
664,32	1650,66
664,51	1734,63
664,70	1634,28
664,89	1769,44
665,07	1712,10
665,26	1736,68
665,45	1662,95
665,64	1714,15
665,82	1734,63
666,01	1796,07
666,20	1710,05
666,38	1777,64
666,57	1812,45
666,76	2238,43
666,95	4577,21
667,13	10375,01
667,32	15054,62
667,51	17587,96
667,69	18783,97
667,88	17207,03
668,07	12144,45
668,25	9426,80
668,44	7972,74
668,63	7323,54
668,81	6715,29
669,00	6107,04
669,19	5515,18
669,38	5005,24
669,56	4593,59
669,75	3999,68
669,94	3383,24
670,12	2856,92
670,31	2428,89
670,50	2238,43
670,68	2060,26
670,87	1990,63
671,06	1828,84
671,24	1834,98
671,43	1789,92
671,62	1808,36
671,80	1794,02
671,99	1779,68
672,18	1759,21
672,36	1832,93
672,55	1785,83
672,74	1785,83
672,92	1730,53
673,11	1796,07
673,29	1662,95
673,48	1724,39
673,67	1705,96
673,85	1812,45
674,04	1708,01
674,23	1714,15
674,41	1757,16
674,60	1710,05
674,79	1673,19
674,97	1648,61
675,16	1751,01
675,34	1708,01
675,53	1644,52
675,72	1632,23
675,90	1677,29
676,09	1705,96
676,28	1689,57
676,46	1609,70
676,65	1753,06
676,83	1716,20
677,02	1753,06
677,21	1779,68
677,39	1798,12
677,58	1630,18
677,77	1644,52
677,95	1679,33
678,14	1687,53
678,32	1748,97
678,51	1646,57
678,70	1855,46
678,88	1693,67
679,07	1794,02
679,25	1714,15
679,44	1746,92
679,63	1660,90
679,81	1724,39
680,00	1722,34
680,18	1722,34
680,37	1699,81
680,55	1703,91
680,74	1650,66
680,93	1648,61
681,11	1722,34
681,30	1757,16
681,48	1716,20
681,67	1697,77
681,85	1753,06
682,04	1656,81
682,23	1783,78
682,41	1845,22
682,60	1699,81
682,78	1718,25
682,97	1746,92
683,15	1757,16
683,34	1765,35
683,53	1765,35
683,71	1632,23
683,90	1789,92
684,08	1794,02
684,27	1718,25
684,45	1800,16
684,64	1808,36
684,82	1601,51
685,01	1703,91
685,19	1765,35
685,38	1783,78
685,57	1726,44
685,75	1640,42
685,94	1660,90
686,12	1693,67
686,31	1716,20
686,49	1802,21
686,68	1558,50
686,86	1755,11
687,05	1679,33
687,23	1773,54
687,42	1726,44
687,60	1613,80
687,79	1699,81
687,97	1810,40
688,16	1877,99
688,34	1779,68
688,53	1556,46
688,71	1724,39
688,90	1751,01
689,08	1701,86
689,27	1669,09
689,45	1720,29
689,64	1800,16
689,82	1658,85
690,01	1710,05
690,19	1710,05
690,38	1740,77
690,56	1828,84
690,75	1632,23
690,93	1652,71
691,12	1710,05
691,30	1609,70
691,49	1642,47
691,67	1783,78
691,86	1796,07
692,04	1673,19
692,23	1701,86
692,41	1732,58
692,60	1796,07
692,78	1724,39
692,97	1628,14
693,15	1779,68
693,34	1800,16
693,52	1671,14
693,71	1615,85
693,89	1701,86
694,08	1576,94
694,26	1787,88
694,44	1773,54
694,63	1677,29
694,81	1746,92
695,00	1665,00
695,18	1687,53
695,37	1937,38
695,55	1781,73
695,74	1738,73
695,92	1652,71
696,10	1744,87
696,29	1613,80
696,47	1740,77
696,66	1652,71
696,84	1732,58
697,03	1714,15
697,21	1822,69
697,40	2287,58
697,58	1714,15
697,76	1697,77
697,95	1695,72
698,13	1656,81
698,32	1683,43
698,50	1648,61
698,68	1775,59
698,87	1802,21
699,05	1834,98
699,24	1660,90
699,42	1626,09
699,61	1718,25
699,79	1783,78
699,97	1708,01
700,16	1689,57
700,34	1685,48
700,53	1660,90
700,71	1804,26
700,89	1791,97
701,08	1695,72
701,26	1675,24
701,45	2129,89
701,63	1691,62
701,81	1648,61
702,00	1673,19
702,18	1720,29
702,37	1683,43
702,55	1748,97
702,73	1746,92
702,92	1589,22
703,10	1804,26
703,28	1699,81
703,47	1714,15
703,65	1834,98
703,84	1771,49
704,02	1726,44
704,20	1880,04
704,39	1644,52
704,57	1720,29
704,75	1728,49
704,94	1804,26
705,12	1765,35
705,30	1734,63
705,49	2246,62
705,67	4558,78
705,86	9369,46
706,04	12476,23
706,22	14292,77
706,41	15288,09
706,59	13592,37
706,77	9459,57
706,96	7284,62
707,14	6332,32
707,32	5762,98
707,51	5595,05
707,69	4878,26
707,87	4149,18
708,06	3518,41
708,24	2930,64
708,42	2414,56
708,61	2289,63
708,79	1865,70
708,97	1920,99
709,16	1701,86
709,34	1748,97
709,52	1726,44
709,71	1710,05
709,89	1781,73
710,07	1624,04
710,26	1660,90
710,44	1746,92
710,62	1806,31
710,80	1640,42
710,99	1794,02
711,17	1873,89
711,35	1767,40
711,54	1667,05
711,72	1800,16
711,90	1714,15
712,09	1759,21
712,27	1677,29
712,45	1771,49
712,63	1779,68
712,82	1714,15
713,00	1720,29
713,18	1800,16
713,37	1748,97
713,55	1769,44
713,73	1777,64
713,91	1697,77
714,10	1648,61
714,28	1726,44
714,46	1658,85
714,65	1804,26
714,83	1722,34
715,01	1665,00
715,19	1726,44
715,38	1757,16
715,56	1777,64
715,74	1654,76
715,92	1683,43
716,11	1894,37
716,29	1644,52
716,47	1742,82
716,65	1753,06
716,84	1716,20
717,02	1810,40
717,20	1687,53
717,38	1705,96
717,57	1746,92
717,75	1722,34
717,93	1767,40
718,11	1722,34
718,30	1636,33
718,48	1740,77
718,66	1781,73
718,84	1755,11
719,03	1724,39
719,21	1669,09
719,39	1814,50
719,57	1691,62
719,75	1871,84
719,94	1628,14
720,12	1693,67
720,30	1691,62
720,48	1787,88
720,67	1679,33
720,85	1665,00
721,03	1665,00
721,21	1765,35
721,39	1775,59
721,58	1742,82
721,76	1830,88
721,94	1771,49
722,12	1728,49
722,30	1816,55
722,49	1732,58
722,67	1787,88
722,85	1705,96
723,03	1581,03
723,21	1705,96
723,40	1769,44
723,58	1763,30
723,76	1816,55
723,94	1726,44
724,12	1777,64
724,30	1705,96
724,49	1738,73
724,67	1736,68
724,85	1810,40
725,03	1746,92
725,21	1773,54
725,40	1714,15
725,58	1648,61
725,76	1769,44
725,94	1734,63
726,12	1665,00
726,30	1746,92
726,49	1755,11
726,67	1736,68
726,85	1808,36
727,03	1751,01
727,21	2246,62
727,39	2901,97
727,57	3766,21
727,76	4249,54
727,94	4511,68
728,12	4265,92
728,30	3622,86
728,48	3018,71
728,66	2666,46
728,84	2648,02
729,03	2265,05
729,21	2117,60
729,39	2019,30
729,57	1884,13
729,75	1857,51
729,93	1865,70
730,11	1736,68
730,30	1724,39
730,48	1734,63
730,66	1867,75
730,84	1775,59
731,02	1777,64
731,20	1767,40
731,38	1742,82
731,56	1646,57
731,74	1710,05
731,93	1691,62
732,11	1730,53
732,29	1742,82
732,47	1726,44
732,65	1734,63
732,83	1701,86
733,01	1765,35
733,19	1640,42
733,37	1683,43
733,56	1775,59
733,74	1722,34
733,92	1806,31
734,10	1640,42
734,28	1763,30
734,46	1658,85
734,64	1669,09
734,82	1724,39
735,00	1683,43
735,18	1679,33
735,36	1654,76
735,54	1759,21
735,73	1685,48
735,91	1703,91
736,09	1789,92
736,27	1628,14
736,45	1775,59
736,63	1603,56
736,81	1726,44
736,99	1736,68
737,17	1751,01
737,35	1730,53
737,53	1665,00
737,71	1755,11
737,89	1826,79
738,07	1626,09
738,25	1574,89
738,43	1669,09
738,61	1689,57
738,80	1646,57
738,98	1691,62
739,16	1667,05
739,34	1648,61
739,52	1771,49
739,70	1730,53
739,88	1724,39
740,06	1755,11
740,24	1654,76
740,42	1845,22
740,60	1732,58
740,78	1665,00
740,96	1648,61
741,14	1638,38
741,32	1691,62
741,50	1605,61
741,68	1855,46
741,86	1728,49
742,04	1658,85
742,22	1621,99
742,40	1718,25
742,58	1800,16
742,76	1593,32
742,94	1740,77
743,12	1619,94
743,30	1710,05
743,48	1755,11
743,66	1679,33
743,84	1710,05
744,02	1669,09
744,20	1779,68
744,38	1658,85
744,56	1691,62
744,74	1767,40
744,92	1847,27
745,10	1765,35
745,28	1796,07
745,46	1832,93
745,64	1789,92
745,82	1783,78
746,00	1757,16
746,18	1683,43
746,36	1683,43
746,54	1685,48
746,72	1724,39
746,90	1699,81
747,08	1804,26
747,26	1722,34
747,44	1748,97
747,62	1726,44
747,80	1753,06
747,98	1761,25
748,15	1732,58
748,33	1824,74
748,51	1669,09
748,69	1744,87
748,87	1748,97
749,05	1710,05
749,23	1738,73
749,41	1716,20
749,59	1646,57
749,77	1726,44
749,95	1599,46
750,13	1705,96
750,31	1771,49
750,49	1693,67
750,67	1808,36
750,85	1779,68
751,03	1746,92
751,20	1849,32
751,38	1681,38
751,56	1638,38
751,74	1740,77
751,92	1773,54
752,10	1603,56
752,28	1652,71
752,46	1656,81
752,64	1734,63
752,82	1695,72
753,00	1742,82
753,18	1699,81
753,35	1695,72
753,53	1773,54
753,71	1644,52
753,89	1796,07
754,07	1785,83
754,25	1736,68
754,43	1665,00
754,61	1626,09
754,79	1787,88
754,97	1730,53
755,14	1787,88
755,32	1669,09
755,50	1761,25
755,68	1734,63
755,86	1632,23
756,04	1724,39
756,22	1673,19
756,40	1757,16
756,57	1804,26
756,75	1710,05
756,93	1816,55
757,11	1798,12
757,29	1638,38
757,47	1617,90
757,65	1705,96
757,82	1642,47
758,00	1646,57
758,18	1630,18
758,36	1695,72
758,54	1804,26
758,72	1673,19
758,90	1679,33
759,07	1714,15
759,25	1648,61
759,43	1781,73
759,61	1636,33
759,79	2148,32
759,97	1742,82
760,15	1716,20
760,32	1644,52
760,50	1716,20
760,68	1746,92
760,86	1689,57
761,04	1738,73
761,22	1781,73
761,39	1736,68
761,57	1714,15
761,75	1699,81
761,93	1673,19
762,11	1689,57
762,28	1691,62
762,46	1632,23
762,64	1746,92
762,82	1601,51
763,00	1652,71
763,18	1742,82
763,35	1591,27
763,53	1746,92
763,71	1757,16
763,89	1681,38
764,07	1734,63
764,24	1675,24
764,42	1763,30
764,60	1640,42
764,78	1785,83
764,96	1728,49
765,13	1705,96
765,31	1710,05
765,49	1746,92
765,67	1644,52
765,84	1724,39
766,02	1656,81
766,20	1628,14
766,38	1699,81
766,56	1736,68
766,73	1740,77
766,91	1640,42
767,09	1675,24
767,27	1720,29
767,44	1626,09
767,62	1740,77
767,80	1642,47
767,98	1699,81
768,15	1716,20
768,33	1839,08
768,51	1767,40
768,69	1705,96
768,87	1830,88
769,04	1701,86
769,22	1802,21
769,40	1765,35
769,58	1869,80
769,75	1675,24
769,93	1785,83
770,11	1662,95
770,28	1644,52
770,46	1767,40
770,64	1783,78
770,82	1658,85
770,99	1703,91
771,17	1726,44
771,35	1769,44
771,53	1753,06
771,70	1628,14
771,88	1796,07
772,06	1769,44
772,23	1615,85
772,41	1740,77
772,59	1714,15
772,77	1677,29
772,94	1716,20
773,12	1736,68
773,30	1669,09
773,47	1740,77
773,65	1679,33
773,83	1802,21
774,01	1734,63
774,18	1656,81
774,36	1685,48
774,54	1705,96
774,71	1748,97
774,89	1656,81
775,07	1679,33
775,24	1665,00
775,42	1656,81
775,60	1779,68
775,78	1687,53
775,95	1636,33
776,13	1632,23
776,31	1621,99
776,48	1771,49
776,66	1726,44
776,84	1658,85
777,01	1601,51
777,19	1656,81
777,37	1681,38
777,54	1650,66
777,72	1880,04
777,90	1730,53
778,07	1703,91
778,25	1845,22
778,43	1763,30
778,60	1734,63
778,78	1753,06
778,96	1810,40
779,13	1656,81
779,31	1775,59
779,49	1652,71
779,66	1783,78
779,84	1757,16
780,01	1701,86
780,19	1619,94
780,37	1800,16
780,54	1742,82
780,72	1716,20
780,90	1673,19
781,07	1701,86
781,25	1701,86
781,43	1810,40
781,60	1701,86
781,78	1744,87
781,95	1724,39
782,13	1656,81
782,31	1746,92
782,48	1619,94
782,66	1726,44
782,83	1753,06
783,01	1761,25
783,19	1804,26
783,36	1730,53
783,54	1730,53
783,72	1722,34
783,89	1624,04
784,07	1746,92
784,24	1724,39
784,42	1820,64
784,60	1738,73
784,77	1710,05
784,95	1642,47
785,12	1665,00
785,30	1718,25
785,47	1712,10
785,65	1695,72
785,83	1677,29
786,00	1626,09
786,18	1746,92
786,35	1656,81
786,53	1665,00
786,71	1751,01
786,88	1740,77
787,06	1722,34
787,23	1753,06
787,41	1615,85
787,58	1732,58
787,76	1742,82
787,94	1689,57
788,11	1783,78
788,29	1701,86
788,46	1691,62
788,64	1685,48
788,81	1697,77
788,99	1685,48
789,16	1652,71
789,34	1730,53
789,52	1646,57
789,69	1609,70
789,87	1658,85
790,04	1761,25
790,22	1767,40
790,39	1849,32
790,57	1722,34
790,74	1705,96
790,92	1775,59
791,09	1556,46
791,27	1773,54
791,44	1800,16
791,62	1699,81
791,79	1771,49
791,97	1712,10
792,15	1877,99
792,32	1796,07
792,50	1763,30
792,67	1814,50
792,85	1759,21
793,02	1773,54
793,20	1681,38
793,37	1605,61
793,55	1701,86
793,72	1585,13
793,90	1734,63
794,07	1689,57
794,25	1695,72
794,42	1693,67
794,60	1626,09
794,77	1720,29
794,95	1744,87
795,12	1714,15
795,30	1699,81
795,47	1673,19
795,65	1914,85
795,82	1685,48
796,00	1607,66
796,17	1695,72
796,34	1751,01
796,52	1712,10
796,69	1773,54
796,87	1763,30
797,04	1642,47
797,22	1777,64
797,39	1710,05
797,57	1736,68
797,74	1705,96
797,92	1767,40
798,09	1648,61
798,27	1775,59
798,44	1722,34
798,62	1746,92
798,79	1777,64
798,96	1726,44
799,14	1796,07
799,31	1902,56
799,49	1662,95
799,66	1662,95
799,84	1685,48
800,01	1644,52
800,19	1740,77
800,36	1558,50
800,53	1732,58
800,71	1759,21
800,88	1798,12
801,06	1714,15
801,23	1720,29
801,41	1699,81
801,58	1710,05
801,75	1730,53
801,93	1746,92
802,10	1730,53
802,28	1699,81
802,45	1724,39
802,63	1787,88
802,80	1753,06
802,97	1763,30
803,15	1751,01
803,32	1767,40
803,50	1656,81
803,67	1665,00
803,84	1609,70
804,02	1742,82
804,19	1642,47
804,37	1558,50
804,54	1656,81
804,71	1628,14
804,89	1656,81
805,06	1708,01
805,24	1632,23
805,41	1695,72
805,58	1705,96
805,76	1830,88
805,93	1716,20
806,10	1800,16
806,28	1689,57
806,45	1740,77
806,63	1699,81
806,80	1701,86
806,97	1705,96
807,15	1794,02
807,32	1687,53
807,49	1667,05
807,67	1652,71
807,84	1640,42
808,01	1648,61
808,19	1869,80
808,36	1791,97
808,54	1677,29
808,71	1658,85
808,88	1726,44
809,06	1773,54
809,23	1791,97
809,40	1650,66
809,58	1763,30
809,75	1763,30
809,92	1714,15
810,10	1849,32
810,27	1685,48
810,44	1701,86
810,62	1691,62
810,79	1746,92
810,96	1730,53
811,14	1697,77
811,31	1746,92
811,48	1746,92
811,66	1673,19
811,83	1720,29
812,00	1748,97
812,18	1646,57
812,35	1837,03
812,52	1710,05
812,69	1689,57
812,87	1689,57
813,04	1705,96
813,21	1693,67
813,39	1609,70
813,56	1665,00
813,73	1738,73
813,91	1685,48
814,08	1730,53
814,25	1736,68
814,42	1691,62
814,60	1697,77
814,77	1673,19
814,94	1714,15
815,12	1716,20
815,29	1800,16
815,46	1712,10
815,63	1669,09
815,81	1689,57
815,98	1689,57
816,15	1673,19
816,33	1669,09
816,50	1769,44
816,67	1673,19
816,84	1640,42
817,02	1705,96
817,19	1693,67
817,36	1746,92
817,53	1812,45
817,71	1677,29
817,88	1806,31
818,05	1708,01
818,22	1705,96
818,40	1828,84
818,57	1613,80
818,74	1724,39
818,91	1671,14
819,09	1720,29
819,26	1773,54
819,43	1658,85
819,60	1634,28
819,78	1689,57
819,95	1832,93
820,12	1617,90
820,29	1734,63
820,47	1769,44
820,64	1624,04
820,81	1583,08
820,98	1660,90
821,15	1716,20
821,33	1746,92
821,50	1624,04
821,67	1751,01
821,84	1726,44
822,02	1685,48
822,19	1759,21
822,36	1679,33
822,53	1691,62
822,70	1732,58
822,88	1710,05
823,05	1765,35
823,22	1697,77
823,39	1773,54
823,56	1673,19
823,74	1736,68
823,91	1626,09
824,08	1654,76
824,25	1753,06
824,42	1785,83
824,60	1730,53
824,77	1722,34
824,94	1646,57
825,11	1710,05
825,28	1640,42
825,45	1720,29
825,63	1742,82
825,80	1677,29
825,97	1748,97
826,14	1716,20
826,31	1578,98
826,48	1787,88
826,66	1673,19
826,83	1693,67
827,00	1753,06
827,17	1638,38
827,34	1675,24
827,51	1720,29
827,69	1759,21
827,86	1615,85
828,03	1703,91
828,20	1632,23
828,37	1644,52
828,54	1722,34
828,71	1660,90
828,89	1765,35
829,06	1730,53
829,23	1779,68
829,40	1679,33
829,57	1656,81
829,74	1757,16
829,91	1673,19
830,09	1667,05
830,26	1763,30
830,43	1771,49
830,60	1736,68
830,77	1675,24
830,94	1734,63
831,11	1773,54
831,28	1773,54
831,46	1794,02
831,63	1671,14
831,80	1716,20
831,97	1650,66
832,14	1705,96
832,31	1779,68
832,48	1699,81
832,65	1787,88
832,82	1781,73
832,99	1730,53
833,17	1591,27
833,34	1773,54
833,51	1748,97
833,68	1624,04
833,85	1802,21
834,02	1726,44
834,19	1646,57
834,36	1624,04
834,53	1699,81
834,70	1689,57
834,87	1767,40
835,04	1736,68
835,22	1665,00
835,39	1714,15
835,56	1636,33
835,73	1658,85
835,90	1732,58
836,07	1726,44
836,24	1761,25
836,41	1703,91
836,58	1675,24
836,75	1742,82
836,92	1748,97
837,09	1673,19
837,26	1697,77
837,43	1757,16
837,60	1714,15
837,77	1611,75
837,94	1802,21
838,12	1777,64
838,29	1773,54
838,46	1613,80
838,63	1669,09
838,80	1781,73
838,97	1759,21
839,14	1746,92
839,31	1722,34
839,48	1824,74
839,65	1646,57
839,82	1722,34
839,99	1736,68
840,16	1765,35
840,33	1630,18
840,50	1665,00
840,67	1677,29
840,84	1634,28
841,01	1718,25
841,18	1679,33
841,35	1675,24
841,52	1773,54
841,69	1775,59
841,86	1714,15
842,03	1722,34
842,20	1789,92
842,37	1693,67
842,54	1757,16
842,71	1699,81
842,88	1632,23
843,05	1769,44
843,22	1697,77
843,39	1712,10
843,56	1665,00
843,73	1726,44
843,90	1779,68
844,07	1638,38
844,24	1789,92
844,41	1736,68
844,58	1755,11
844,75	1658,85
844,92	1765,35
845,09	1689,57
845,26	1652,71
845,43	1675,24
845,60	1755,11
845,77	1718,25
845,94	1697,77
846,10	1751,01
846,27	1689,57
846,44	1603,56
846,61	1660,90
846,78	1781,73
846,95	1710,05
847,12	1634,28
847,29	1734,63
847,46	1570,79
847,63	1800,16
847,80	1710,05
847,97	1701,86
848,14	1783,78
848,31	1718,25
848,48	1597,42
848,65	1701,86
848,82	1691,62
848,98	1773,54
849,15	1761,25
849,32	1812,45
849,49	1837,03
849,66	1675,24
849,83	1742,82
850,00	1648,61
850,17	1832,93
850,34	1701,86
850,51	1665,00
850,68	1615,85
850,85	1740,77
851,01	1753,06
851,18	1722,34
851,35	1710,05
851,52	1697,77
851,69	1855,46
851,86	1652,71
852,03	1703,91
852,20	1759,21
852,37	1667,05
852,53	1671,14
852,70	1673,19
852,87	1748,97
853,04	1771,49
853,21	1716,20
853,38	1746,92
853,55	1748,97
853,72	1777,64
853,89	1669,09
854,05	1595,37
854,22	1638,38
854,39	1689,57
854,56	1736,68
854,73	1816,55
854,90	1746,92
855,07	1673,19
855,23	1654,76
855,40	1714,15
855,57	1724,39
855,74	1693,67
855,91	1871,84
856,08	1656,81
856,25	1669,09
856,41	1685,48
856,58	1695,72
856,75	1742,82
856,92	1650,66
857,09	1755,11
857,26	1593,32
857,42	1685,48
857,59	1769,44
857,76	1656,81
857,93	1755,11
858,10	1734,63
858,27	1648,61
858,43	1746,92
858,60	1638,38
858,77	1644,52
858,94	1740,77
859,11	1787,88
859,27	1636,33
859,44	1619,94
859,61	1875,94
859,78	1755,11
859,95	1667,05
860,12	1669,09
860,28	1824,74
860,45	1849,32
860,62	1669,09
860,79	1757,16
860,95	1650,66
861,12	1646,57
861,29	1626,09
861,46	1667,05
861,63	1708,01
861,79	1724,39
861,96	1642,47
862,13	1646,57
862,30	1759,21
862,47	1720,29
862,63	1662,95
862,80	1746,92
862,97	1845,22
863,14	1765,35
863,30	1732,58
863,47	1669,09
863,64	1751,01
863,81	1708,01
863,97	1691,62
864,14	1734,63
864,31	1656,81
864,48	1748,97
864,65	1683,43
864,81	1787,88
864,98	1732,58
865,15	1763,30
865,32	1812,45
865,48	1771,49
865,65	1822,69
865,82	1675,24
865,98	1808,36
866,15	1755,11
866,32	1662,95
866,49	1703,91
866,65	1765,35
866,82	1710,05
866,99	1732,58
867,16	1712,10
867,32	1638,38
867,49	1755,11
867,66	1736,68
867,83	1636,33
867,99	1554,41
868,16	1732,58
868,33	1705,96
868,49	1742,82
868,66	1697,77
868,83	1757,16
868,99	1689,57
869,16	1738,73
869,33	1736,68
869,50	1857,51
869,66	1748,97
869,83	1722,34
870,00	1613,80
870,16	1689,57
870,33	1665,00
870,50	1787,88
870,66	1728,49
870,83	1869,80
871,00	1681,38
871,17	1656,81
871,33	1722,34
871,50	1710,05
871,67	1738,73
871,83	1689,57
872,00	1822,69
872,17	1658,85
872,33	1791,97
872,50	1705,96
872,67	1689,57
872,83	1652,71
873,00	1734,63
873,17	1705,96
873,33	1753,06
873,50	1693,67
873,67	1679,33
873,83	1724,39
874,00	1673,19
874,16	1769,44
874,33	1673,19
874,50	1667,05
874,66	1687,53
874,83	1714,15
875,00	1757,16
875,16	1779,68
875,33	1718,25
875,50	1628,14
875,66	1675,24
875,83	1722,34
875,99	1712,10
876,16	1773,54
876,33	1689,57
876,49	1689,57
876,66	1789,92
876,83	1751,01
876,99	1679,33
877,16	1662,95
877,32	1710,05
877,49	1681,38
877,66	1726,44
877,82	1679,33
877,99	1746,92
878,15	1746,92
878,32	1626,09
878,49	1693,67
878,65	1650,66
878,82	1765,35
878,98	1695,72
879,15	1771,49
879,32	1738,73
879,48	1730,53
879,65	1662,95
879,81	1691,62
879,98	1603,56
880,15	1722,34
880,31	1785,83
880,48	1658,85
880,64	1773,54
880,81	1746,92
880,97	1800,16
881,14	1726,44
881,31	1619,94
881,47	1757,16
881,64	1726,44
881,80	1574,89
881,97	1800,16
882,13	1775,59
882,30	1656,81
882,47	1632,23
882,63	1605,61
882,80	1648,61
882,96	1714,15
883,13	1757,16
883,29	1671,14
883,46	1726,44
883,62	1751,01
883,79	1769,44
883,95	1736,68
884,12	1718,25
884,29	1724,39
884,45	1693,67
884,62	1669,09
884,78	1648,61
884,95	1775,59
885,11	1646,57
885,28	1744,87
885,44	1691,62
885,61	1710,05
885,77	1796,07
885,94	1726,44
886,10	1671,14
886,27	1728,49
886,43	1722,34
886,60	1738,73
886,76	1626,09
886,93	1630,18
887,09	1701,86
887,26	1589,22
887,42	1755,11
887,59	1746,92
887,75	1871,84
887,92	1769,44
888,08	1759,21
888,25	1810,40
888,41	1746,92
888,58	1650,66
888,74	1669,09
888,91	1581,03
>>>>>End Processed Spectral Data<<<<<
