SpectraSuite Data File
++++++++++++++++++++++++++++++++++++
Date: Mon Jun 06 12:38:57 CEST 2016
User: root
Dark Spectrum Present: No
Reference Spectrum Present: No
Number of Sampled Component Spectra: 1
Spectrometers: USB4C02835
Integration Time (usec): 100000 (USB4C02835)
Spectra Averaged: 1 (USB4C02835)
Boxcar Smoothing: 0 (USB4C02835)
Correct for Electrical Dark: No (USB4C02835)
Strobe/Lamp Enabled: No (USB4C02835)
Correct for Detector Non-linearity: No (USB4C02835)
Correct for Stray Light: No (USB4C02835)
Number of Pixels in Processed Spectrum: 3648
>>>>>Begin Processed Spectral Data<<<<<
177,47	1486,83
177,69	1486,83
177,91	1486,83
178,13	1474,54
178,36	1488,87
178,58	1644,52
178,80	1732,58
179,02	1611,75
179,24	1667,05
179,46	1738,73
179,68	1669,09
179,90	1687,53
180,13	1693,67
180,35	1708,01
180,57	1654,76
180,79	1751,01
181,01	1626,09
181,23	1705,96
181,45	1765,35
181,67	1714,15
181,90	1732,58
182,12	1650,66
182,34	1712,10
182,56	1742,82
182,78	1710,05
183,00	1689,57
183,22	1753,06
183,44	1617,90
183,66	1794,02
183,89	1802,21
184,11	1769,44
184,33	1722,34
184,55	1796,07
184,77	1703,91
184,99	1685,48
185,21	1695,72
185,43	1746,92
185,65	1708,01
185,87	1732,58
186,10	1726,44
186,32	1900,52
186,54	1710,05
186,76	1673,19
186,98	1785,83
187,20	1693,67
187,42	1652,71
187,64	1673,19
187,86	1644,52
188,08	1710,05
188,30	1656,81
188,52	1607,66
188,75	1759,21
188,97	1767,40
189,19	1667,05
189,41	1665,00
189,63	1765,35
189,85	1683,43
190,07	1619,94
190,29	1628,14
190,51	1712,10
190,73	1738,73
190,95	1771,49
191,17	1712,10
191,39	1652,71
191,61	1656,81
191,84	1615,85
192,06	1714,15
192,28	1626,09
192,50	1853,41
192,72	1720,29
192,94	1665,00
193,16	1791,97
193,38	1773,54
193,60	1677,29
193,82	1667,05
194,04	1736,68
194,26	1775,59
194,48	1716,20
194,70	1658,85
194,92	1648,61
195,14	1720,29
195,36	1669,09
195,58	1732,58
195,80	1726,44
196,02	1705,96
196,24	1726,44
196,46	1716,20
196,69	1646,57
196,91	1820,64
197,13	1701,86
197,35	1724,39
197,57	1728,49
197,79	1667,05
198,01	1716,20
198,23	1710,05
198,45	1716,20
198,67	1634,28
198,89	1675,24
199,11	1669,09
199,33	1626,09
199,55	1617,90
199,77	1615,85
199,99	1773,54
200,21	1665,00
200,43	1685,48
200,65	1658,85
200,87	1546,22
201,09	1681,38
201,31	1648,61
201,53	1755,11
201,75	1722,34
201,97	1728,49
202,19	1722,34
202,41	1740,77
202,63	1865,70
202,85	1738,73
203,07	1701,86
203,29	1677,29
203,51	1714,15
203,73	1689,57
203,95	1832,93
204,17	1683,43
204,39	1732,58
204,61	1722,34
204,83	1652,71
205,05	1771,49
205,27	1755,11
205,49	1798,12
205,71	1648,61
205,93	1648,61
206,15	1746,92
206,37	1738,73
206,59	1705,96
206,81	1720,29
207,03	1640,42
207,25	1587,18
207,47	1714,15
207,69	1740,77
207,91	1738,73
208,13	1781,73
208,34	1685,48
208,56	1611,75
208,78	1820,64
209,00	1681,38
209,22	1646,57
209,44	1640,42
209,66	1669,09
209,88	1632,23
210,10	1671,14
210,32	1726,44
210,54	1724,39
210,76	1695,72
210,98	1765,35
211,20	1607,66
211,42	1689,57
211,64	1798,12
211,86	1767,40
212,08	1816,55
212,30	1701,86
212,52	1630,18
212,74	1732,58
212,96	1710,05
213,17	1695,72
213,39	1726,44
213,61	1794,02
213,83	1722,34
214,05	1632,23
214,27	1769,44
214,49	1626,09
214,71	1624,04
214,93	1722,34
215,15	1683,43
215,37	1734,63
215,59	1642,47
215,81	1683,43
216,03	1794,02
216,24	1714,15
216,46	1624,04
216,68	1726,44
216,90	1728,49
217,12	1775,59
217,34	1656,81
217,56	1685,48
217,78	1798,12
218,00	1722,34
218,22	1656,81
218,44	1665,00
218,66	1691,62
218,87	1812,45
219,09	1619,94
219,31	1689,57
219,53	1683,43
219,75	1599,46
219,97	1736,68
220,19	1685,48
220,41	1699,81
220,63	1812,45
220,85	1732,58
221,06	1648,61
221,28	1738,73
221,50	1695,72
221,72	1714,15
221,94	1691,62
222,16	1687,53
222,38	1757,16
222,60	1779,68
222,82	1642,47
223,03	1818,60
223,25	1677,29
223,47	1794,02
223,69	1820,64
223,91	1736,68
224,13	1730,53
224,35	1726,44
224,57	1761,25
224,78	1746,92
225,00	1669,09
225,22	1656,81
225,44	1718,25
225,66	1738,73
225,88	1718,25
226,10	1732,58
226,32	1722,34
226,53	1796,07
226,75	1689,57
226,97	1626,09
227,19	1673,19
227,41	1671,14
227,63	1714,15
227,85	1619,94
228,06	1685,48
228,28	1699,81
228,50	1720,29
228,72	1695,72
228,94	1679,33
229,16	1527,78
229,37	1615,85
229,59	1621,99
229,81	1708,01
230,03	1660,90
230,25	1650,66
230,47	1564,65
230,69	1638,38
230,90	1685,48
231,12	1632,23
231,34	1662,95
231,56	1724,39
231,78	1585,13
232,00	1726,44
232,21	1691,62
232,43	1654,76
232,65	1572,84
232,87	1699,81
233,09	1708,01
233,30	1644,52
233,52	1736,68
233,74	1660,90
233,96	1703,91
234,18	1683,43
234,40	1691,62
234,61	1857,51
234,83	1609,70
235,05	1665,00
235,27	1794,02
235,49	1734,63
235,70	1679,33
235,92	1673,19
236,14	1767,40
236,36	1847,27
236,58	1671,14
236,79	1705,96
237,01	1724,39
237,23	1746,92
237,45	1779,68
237,67	1595,37
237,88	1626,09
238,10	1808,36
238,32	1685,48
238,54	1658,85
238,76	1662,95
238,97	1662,95
239,19	1660,90
239,41	1701,86
239,63	1701,86
239,85	1716,20
240,06	1738,73
240,28	1644,52
240,50	1720,29
240,72	1722,34
240,93	1693,67
241,15	1763,30
241,37	1710,05
241,59	1785,83
241,81	1705,96
242,02	1697,77
242,24	1771,49
242,46	1732,58
242,68	1650,66
242,89	1703,91
243,11	1746,92
243,33	1705,96
243,55	1628,14
243,76	1697,77
243,98	1675,24
244,20	1701,86
244,42	1658,85
244,64	1667,05
244,85	1650,66
245,07	1665,00
245,29	1722,34
245,51	1710,05
245,72	1736,68
245,94	1804,26
246,16	1744,87
246,38	1681,38
246,59	1691,62
246,81	1597,42
247,03	1574,89
247,24	1615,85
247,46	1671,14
247,68	1730,53
247,90	1736,68
248,11	1626,09
248,33	1777,64
248,55	1589,22
248,77	1705,96
248,98	1720,29
249,20	1779,68
249,42	1683,43
249,64	1771,49
249,85	1621,99
250,07	1716,20
250,29	1703,91
250,50	1796,07
250,72	1576,94
250,94	1718,25
251,16	1812,45
251,37	1759,21
251,59	1689,57
251,81	1699,81
252,02	1830,88
252,24	1640,42
252,46	1658,85
252,68	1638,38
252,89	1697,77
253,11	1544,17
253,33	1820,64
253,54	1744,87
253,76	1572,84
253,98	1626,09
254,20	1708,01
254,41	1669,09
254,63	1722,34
254,85	1667,05
255,06	1656,81
255,28	1738,73
255,50	1685,48
255,71	1722,34
255,93	1599,46
256,15	1611,75
256,36	1740,77
256,58	1621,99
256,80	1738,73
257,02	1742,82
257,23	1644,52
257,45	1632,23
257,67	1656,81
257,88	1650,66
258,10	1697,77
258,32	1730,53
258,53	1693,67
258,75	1910,75
258,97	1708,01
259,18	1769,44
259,40	1779,68
259,62	1812,45
259,83	1802,21
260,05	1767,40
260,27	1964,00
260,48	1767,40
260,70	1642,47
260,92	1632,23
261,13	1683,43
261,35	1699,81
261,57	1726,44
261,78	1619,94
262,00	1587,18
262,22	1671,14
262,43	1642,47
262,65	1669,09
262,86	1800,16
263,08	1847,27
263,30	1726,44
263,51	1597,42
263,73	1572,84
263,95	1847,27
264,16	1763,30
264,38	1656,81
264,60	1755,11
264,81	1685,48
265,03	1677,29
265,25	1716,20
265,46	1703,91
265,68	1763,30
265,89	1738,73
266,11	1648,61
266,33	1769,44
266,54	1761,25
266,76	1658,85
266,98	1734,63
267,19	1814,50
267,41	1724,39
267,62	1728,49
267,84	1525,74
268,06	1701,86
268,27	1742,82
268,49	1808,36
268,70	1726,44
268,92	1714,15
269,14	1632,23
269,35	1613,80
269,57	1720,29
269,79	1720,29
270,00	1742,82
270,22	1820,64
270,43	1665,00
270,65	1615,85
270,87	1630,18
271,08	1683,43
271,30	1757,16
271,51	1759,21
271,73	1732,58
271,95	1777,64
272,16	1652,71
272,38	1736,68
272,59	1644,52
272,81	1714,15
273,02	1757,16
273,24	1742,82
273,46	1751,01
273,67	1650,66
273,89	1640,42
274,10	1716,20
274,32	1808,36
274,54	1751,01
274,75	1632,23
274,97	1644,52
275,18	1775,59
275,40	1689,57
275,61	1699,81
275,83	1722,34
276,05	1652,71
276,26	1705,96
276,48	1722,34
276,69	1728,49
276,91	1615,85
277,12	1763,30
277,34	1693,67
277,55	1732,58
277,77	1724,39
277,99	1660,90
278,20	1626,09
278,42	1673,19
278,63	1656,81
278,85	1605,61
279,06	1628,14
279,28	1734,63
279,49	1675,24
279,71	1802,21
279,93	1734,63
280,14	1732,58
280,36	1691,62
280,57	1728,49
280,79	1789,92
281,00	1624,04
281,22	1658,85
281,43	1742,82
281,65	1572,84
281,86	1685,48
282,08	1691,62
282,29	1791,97
282,51	1642,47
282,73	1589,22
282,94	1656,81
283,16	1712,10
283,37	1808,36
283,59	1705,96
283,80	1726,44
284,02	1677,29
284,23	1687,53
284,45	1646,57
284,66	1562,60
284,88	1703,91
285,09	1800,16
285,31	1691,62
285,52	1738,73
285,74	1619,94
285,95	1804,26
286,17	1687,53
286,38	1757,16
286,60	1650,66
286,81	1681,38
287,03	1724,39
287,24	1665,00
287,46	1757,16
287,67	1644,52
287,89	1826,79
288,10	1693,67
288,32	1767,40
288,53	1767,40
288,75	1673,19
288,96	1710,05
289,18	1734,63
289,39	1734,63
289,61	1751,01
289,82	1822,69
290,04	1824,74
290,25	1638,38
290,47	1705,96
290,68	1701,86
290,90	1806,31
291,11	1646,57
291,33	1624,04
291,54	1572,84
291,76	1681,38
291,97	1609,70
292,18	1712,10
292,40	1675,24
292,61	1609,70
292,83	1777,64
293,04	1771,49
293,26	1693,67
293,47	1705,96
293,69	1673,19
293,90	1716,20
294,12	1759,21
294,33	1720,29
294,55	1687,53
294,76	1726,44
294,97	1751,01
295,19	1863,65
295,40	1638,38
295,62	1718,25
295,83	1769,44
296,05	1638,38
296,26	1761,25
296,48	1681,38
296,69	1712,10
296,90	1730,53
297,12	1689,57
297,33	1771,49
297,55	1638,38
297,76	1791,97
297,98	1765,35
298,19	1736,68
298,41	1705,96
298,62	1695,72
298,83	1820,64
299,05	1734,63
299,26	1703,91
299,48	1708,01
299,69	1738,73
299,90	1718,25
300,12	1617,90
300,33	1687,53
300,55	1644,52
300,76	1691,62
300,98	1695,72
301,19	1734,63
301,40	1669,09
301,62	1693,67
301,83	1808,36
302,05	1658,85
302,26	1708,01
302,47	1757,16
302,69	1628,14
302,90	1660,90
303,12	1583,08
303,33	1628,14
303,54	1814,50
303,76	1671,14
303,97	1757,16
304,19	1771,49
304,40	1648,61
304,61	1632,23
304,83	1804,26
305,04	1771,49
305,26	1699,81
305,47	1648,61
305,68	1708,01
305,90	1640,42
306,11	1753,06
306,33	1710,05
306,54	1779,68
306,75	1697,77
306,97	1673,19
307,18	1705,96
307,39	1748,97
307,61	1697,77
307,82	1697,77
308,04	1769,44
308,25	1665,00
308,46	1697,77
308,68	1626,09
308,89	1675,24
309,10	1703,91
309,32	1714,15
309,53	1677,29
309,74	1734,63
309,96	1736,68
310,17	1740,77
310,39	1599,46
310,60	1708,01
310,81	1646,57
311,03	1665,00
311,24	1710,05
311,45	1658,85
311,67	1771,49
311,88	1722,34
312,09	1675,24
312,31	1673,19
312,52	1724,39
312,73	1736,68
312,95	1587,18
313,16	1693,67
313,37	1693,67
313,59	1728,49
313,80	1773,54
314,01	1767,40
314,23	1681,38
314,44	1634,28
314,65	1644,52
314,87	1669,09
315,08	1716,20
315,29	1656,81
315,51	1662,95
315,72	1636,33
315,93	1748,97
316,15	1712,10
316,36	1681,38
316,57	1699,81
316,79	1607,66
317,00	1675,24
317,21	1730,53
317,43	1671,14
317,64	1742,82
317,85	1691,62
318,07	1714,15
318,28	1740,77
318,49	1810,40
318,70	1927,14
318,92	1763,30
319,13	1865,70
319,34	1890,28
319,56	1787,88
319,77	1814,50
319,98	1722,34
320,20	1734,63
320,41	1791,97
320,62	1722,34
320,83	1650,66
321,05	1808,36
321,26	1716,20
321,47	1748,97
321,69	1728,49
321,90	1665,00
322,11	1681,38
322,32	1738,73
322,54	1800,16
322,75	1673,19
322,96	1873,89
323,18	1693,67
323,39	1546,22
323,60	1585,13
323,81	1806,31
324,03	1763,30
324,24	1634,28
324,45	1746,92
324,66	1677,29
324,88	1726,44
325,09	1742,82
325,30	1695,72
325,52	1738,73
325,73	1753,06
325,94	1689,57
326,15	1683,43
326,37	1656,81
326,58	1751,01
326,79	1822,69
327,00	1615,85
327,22	1763,30
327,43	1714,15
327,64	1636,33
327,85	1685,48
328,07	1712,10
328,28	1791,97
328,49	1685,48
328,70	1669,09
328,92	1724,39
329,13	1656,81
329,34	1761,25
329,55	1814,50
329,76	1761,25
329,98	1611,75
330,19	1761,25
330,40	1640,42
330,61	1656,81
330,83	1816,55
331,04	1642,47
331,25	1705,96
331,46	1681,38
331,68	1650,66
331,89	1738,73
332,10	1724,39
332,31	1673,19
332,52	1708,01
332,74	1755,11
332,95	1597,42
333,16	1728,49
333,37	1757,16
333,58	1738,73
333,80	1738,73
334,01	1658,85
334,22	1675,24
334,43	1689,57
334,64	1632,23
334,86	1607,66
335,07	1644,52
335,28	1730,53
335,49	1607,66
335,70	1665,00
335,92	1796,07
336,13	1773,54
336,34	1681,38
336,55	1757,16
336,76	1710,05
336,98	1527,78
337,19	1722,34
337,40	1777,64
337,61	1871,84
337,82	1693,67
338,04	1685,48
338,25	1611,75
338,46	1679,33
338,67	1681,38
338,88	1617,90
339,09	1642,47
339,31	1701,86
339,52	1597,42
339,73	1654,76
339,94	1679,33
340,15	1677,29
340,36	1665,00
340,58	1662,95
340,79	1712,10
341,00	1675,24
341,21	1578,98
341,42	1861,60
341,63	1673,19
341,85	1798,12
342,06	1671,14
342,27	1626,09
342,48	1746,92
342,69	1599,46
342,90	1769,44
343,12	1738,73
343,33	1679,33
343,54	1705,96
343,75	1730,53
343,96	1662,95
344,17	1679,33
344,38	1665,00
344,60	1650,66
344,81	1658,85
345,02	1734,63
345,23	1716,20
345,44	1818,60
345,65	1736,68
345,86	1751,01
346,07	1660,90
346,29	1662,95
346,50	1742,82
346,71	1697,77
346,92	1781,73
347,13	1781,73
347,34	1781,73
347,55	1705,96
347,76	1820,64
347,98	1624,04
348,19	1728,49
348,40	1806,31
348,61	1693,67
348,82	1779,68
349,03	1699,81
349,24	1681,38
349,45	1783,78
349,66	1583,08
349,88	1722,34
350,09	1601,51
350,30	1722,34
350,51	1787,88
350,72	1660,90
350,93	1685,48
351,14	1658,85
351,35	1691,62
351,56	1654,76
351,77	1771,49
351,99	1798,12
352,20	1808,36
352,41	1769,44
352,62	1550,31
352,83	1716,20
353,04	1697,77
353,25	1724,39
353,46	1806,31
353,67	1798,12
353,88	1607,66
354,09	1730,53
354,30	1736,68
354,52	1734,63
354,73	1761,25
354,94	1689,57
355,15	1714,15
355,36	1800,16
355,57	1650,66
355,78	1710,05
355,99	1640,42
356,20	1730,53
356,41	1746,92
356,62	1728,49
356,83	1699,81
357,04	1759,21
357,25	1587,18
357,46	1619,94
357,68	1619,94
357,89	1677,29
358,10	1671,14
358,31	1720,29
358,52	1669,09
358,73	1578,98
358,94	1615,85
359,15	1720,29
359,36	1646,57
359,57	1740,77
359,78	1714,15
359,99	1695,72
360,20	1626,09
360,41	1665,00
360,62	1742,82
360,83	1746,92
361,04	1687,53
361,25	1785,83
361,46	1808,36
361,67	1681,38
361,88	1746,92
362,09	1705,96
362,30	1767,40
362,51	1589,22
362,72	1665,00
362,93	1714,15
363,14	1775,59
363,35	1687,53
363,56	1683,43
363,78	1783,78
363,99	1716,20
364,20	1626,09
364,41	1718,25
364,62	1734,63
364,83	1746,92
365,04	1724,39
365,25	1708,01
365,46	1828,84
365,67	1638,38
365,88	1585,13
366,09	1658,85
366,30	1722,34
366,51	1636,33
366,72	1652,71
366,93	1718,25
367,14	1714,15
367,35	1834,98
367,56	1757,16
367,77	1818,60
367,98	1693,67
368,18	1730,53
368,39	1695,72
368,60	1628,14
368,81	1769,44
369,02	1675,24
369,23	1720,29
369,44	1658,85
369,65	1685,48
369,86	1652,71
370,07	1726,44
370,28	1677,29
370,49	1740,77
370,70	1773,54
370,91	1613,80
371,12	1591,27
371,33	1740,77
371,54	1714,15
371,75	1783,78
371,96	1609,70
372,17	1697,77
372,38	1662,95
372,59	1732,58
372,80	1691,62
373,01	1667,05
373,22	1681,38
373,43	1734,63
373,64	1656,81
373,85	1720,29
374,06	1798,12
374,26	1757,16
374,47	1755,11
374,68	1824,74
374,89	1658,85
375,10	1722,34
375,31	1753,06
375,52	1734,63
375,73	1646,57
375,94	1693,67
376,15	1839,08
376,36	1681,38
376,57	1665,00
376,78	1603,56
376,99	1728,49
377,20	1773,54
377,40	1718,25
377,61	1820,64
377,82	1628,14
378,03	1847,27
378,24	1701,86
378,45	1728,49
378,66	1808,36
378,87	1538,02
379,08	1644,52
379,29	1603,56
379,50	1804,26
379,71	1675,24
379,91	1732,58
380,12	1701,86
380,33	1705,96
380,54	1742,82
380,75	1691,62
380,96	1716,20
381,17	1728,49
381,38	1724,39
381,59	1759,21
381,80	1720,29
382,00	1910,75
382,21	1740,77
382,42	1808,36
382,63	1830,88
382,84	1675,24
383,05	1759,21
383,26	1814,50
383,47	1730,53
383,68	1699,81
383,88	1716,20
384,09	1669,09
384,30	1800,16
384,51	1714,15
384,72	1656,81
384,93	1665,00
385,14	1718,25
385,35	1726,44
385,55	1660,90
385,76	1804,26
385,97	1708,01
386,18	1591,27
386,39	1656,81
386,60	1634,28
386,81	1705,96
387,02	1648,61
387,22	1665,00
387,43	1832,93
387,64	1697,77
387,85	1796,07
388,06	2226,14
388,27	4310,97
388,48	6913,94
388,68	8275,84
388,89	9611,12
389,10	9611,12
389,31	8617,85
389,52	7516,05
389,73	6789,02
389,93	6279,07
390,14	5889,96
390,35	5263,28
390,56	4581,31
390,77	3745,73
390,98	2979,79
391,18	2607,06
391,39	2156,51
391,60	1875,94
391,81	1849,32
392,02	1761,25
392,23	1900,52
392,43	1767,40
392,64	1718,25
392,85	1669,09
393,06	1779,68
393,27	1742,82
393,47	1771,49
393,68	1763,30
393,89	1701,86
394,10	1775,59
394,31	1665,00
394,52	1669,09
394,72	1691,62
394,93	1875,94
395,14	1761,25
395,35	1710,05
395,56	1656,81
395,76	1796,07
395,97	1775,59
396,18	1857,51
396,39	1837,03
396,60	2002,91
396,80	1916,90
397,01	1875,94
397,22	1798,12
397,43	1789,92
397,64	1759,21
397,84	1734,63
398,05	1865,70
398,26	1644,52
398,47	1742,82
398,67	1734,63
398,88	1746,92
399,09	1738,73
399,30	1740,77
399,51	1728,49
399,71	1628,14
399,92	1703,91
400,13	1726,44
400,34	1703,91
400,54	1662,95
400,75	1779,68
400,96	1679,33
401,17	1794,02
401,37	1769,44
401,58	1734,63
401,79	1738,73
402,00	1947,62
402,21	1982,43
402,41	1857,51
402,62	2074,59
402,83	1968,10
403,04	1998,82
403,24	2062,30
403,45	1824,74
403,66	1904,61
403,87	1845,22
404,07	1912,80
404,28	1865,70
404,49	1886,18
404,70	1705,96
404,90	1765,35
405,11	1746,92
405,32	1705,96
405,52	1687,53
405,73	1529,83
405,94	1615,85
406,15	1708,01
406,35	1744,87
406,56	1665,00
406,77	1759,21
406,98	1748,97
407,18	1728,49
407,39	1787,88
407,60	1689,57
407,80	1681,38
408,01	1708,01
408,22	1763,30
408,43	1681,38
408,63	1771,49
408,84	1722,34
409,05	1755,11
409,25	1609,70
409,46	1660,90
409,67	1697,77
409,88	1642,47
410,08	1701,86
410,29	1691,62
410,50	1708,01
410,70	1722,34
410,91	1634,28
411,12	1712,10
411,32	1742,82
411,53	1753,06
411,74	1726,44
411,95	1812,45
412,15	1673,19
412,36	1759,21
412,57	1736,68
412,77	1740,77
412,98	1726,44
413,19	1691,62
413,39	1712,10
413,60	1738,73
413,81	1828,84
414,01	1681,38
414,22	1695,72
414,43	1708,01
414,63	1693,67
414,84	1730,53
415,05	1734,63
415,25	1626,09
415,46	1712,10
415,67	1634,28
415,87	1691,62
416,08	1708,01
416,29	1701,86
416,49	1732,58
416,70	1755,11
416,91	1642,47
417,11	1699,81
417,32	1732,58
417,53	1802,21
417,73	1773,54
417,94	1718,25
418,15	1748,97
418,35	1746,92
418,56	1757,16
418,77	1841,12
418,97	1744,87
419,18	1617,90
419,38	1583,08
419,59	1683,43
419,80	1757,16
420,00	1699,81
420,21	1689,57
420,42	1685,48
420,62	1806,31
420,83	1687,53
421,04	1658,85
421,24	1759,21
421,45	1669,09
421,65	1695,72
421,86	1662,95
422,07	1736,68
422,27	1738,73
422,48	1769,44
422,69	1646,57
422,89	1728,49
423,10	1675,24
423,30	1695,72
423,51	1671,14
423,72	1656,81
423,92	1769,44
424,13	1587,18
424,33	1714,15
424,54	1771,49
424,75	1730,53
424,95	1783,78
425,16	1667,05
425,36	1718,25
425,57	1789,92
425,78	1695,72
425,98	1759,21
426,19	1611,75
426,39	1665,00
426,60	1695,72
426,81	1751,01
427,01	1732,58
427,22	1607,66
427,42	1642,47
427,63	1619,94
427,83	1771,49
428,04	1673,19
428,25	1818,60
428,45	1794,02
428,66	1703,91
428,86	1714,15
429,07	1648,61
429,28	1740,77
429,48	1697,77
429,69	1640,42
429,89	1791,97
430,10	1697,77
430,30	1652,71
430,51	1824,74
430,71	1681,38
430,92	1669,09
431,13	1687,53
431,33	1740,77
431,54	1685,48
431,74	1769,44
431,95	1822,69
432,15	1603,56
432,36	1740,77
432,56	1699,81
432,77	1810,40
432,98	1808,36
433,18	1689,57
433,39	1656,81
433,59	1699,81
433,80	1822,69
434,00	1804,26
434,21	1607,66
434,41	1732,58
434,62	1851,36
434,82	1636,33
435,03	1636,33
435,23	1755,11
435,44	1677,29
435,64	1665,00
435,85	1716,20
436,06	1787,88
436,26	1773,54
436,47	1660,90
436,67	1708,01
436,88	1695,72
437,08	1722,34
437,29	1785,83
437,49	1665,00
437,70	1808,36
437,90	1677,29
438,11	1892,32
438,31	1806,31
438,52	1789,92
438,72	1845,22
438,93	1880,04
439,13	1779,68
439,34	1794,02
439,54	1697,77
439,75	1853,41
439,95	1814,50
440,16	1726,44
440,36	1697,77
440,57	1841,12
440,77	1746,92
440,98	1693,67
441,18	1783,78
441,39	1617,90
441,59	1640,42
441,80	1830,88
442,00	1732,58
442,21	1728,49
442,41	1646,57
442,62	1701,86
442,82	1650,66
443,02	1726,44
443,23	1748,97
443,43	1658,85
443,64	1767,40
443,84	1683,43
444,05	1828,84
444,25	1796,07
444,46	1712,10
444,66	1703,91
444,87	1822,69
445,07	1566,70
445,28	1675,24
445,48	1822,69
445,69	1820,64
445,89	1890,28
446,09	1748,97
446,30	1957,86
446,50	2668,50
446,71	3723,21
446,91	4259,78
447,12	4876,21
447,32	4857,78
447,53	4265,92
447,73	3876,80
447,93	3618,76
448,14	3286,99
448,34	3147,73
448,55	2979,79
448,75	2815,96
448,96	2738,13
449,16	2383,84
449,36	2285,53
449,57	2066,40
449,77	1826,79
449,98	1746,92
450,18	1822,69
450,39	1818,60
450,59	1773,54
450,79	1710,05
451,00	1611,75
451,20	1798,12
451,41	1705,96
451,61	1800,16
451,81	1732,58
452,02	1734,63
452,22	1701,86
452,43	1771,49
452,63	1767,40
452,84	1701,86
453,04	1724,39
453,24	1761,25
453,45	1685,48
453,65	1800,16
453,86	1753,06
454,06	1816,55
454,26	1728,49
454,47	1718,25
454,67	1783,78
454,87	1701,86
455,08	1746,92
455,28	1744,87
455,49	1781,73
455,69	1667,05
455,89	1851,36
456,10	1824,74
456,30	1671,14
456,51	1744,87
456,71	1791,97
456,91	1769,44
457,12	1748,97
457,32	1810,40
457,52	1726,44
457,73	1841,12
457,93	1755,11
458,14	1751,01
458,34	1603,56
458,54	1660,90
458,75	1587,18
458,95	1748,97
459,15	1708,01
459,36	1796,07
459,56	1763,30
459,76	1845,22
459,97	1685,48
460,17	1734,63
460,37	1785,83
460,58	1718,25
460,78	1828,84
460,99	1744,87
461,19	1705,96
461,39	1697,77
461,60	1767,40
461,80	1796,07
462,00	1636,33
462,21	1718,25
462,41	1634,28
462,61	1734,63
462,82	1599,46
463,02	1732,58
463,22	1742,82
463,43	1714,15
463,63	1699,81
463,83	1820,64
464,04	1665,00
464,24	1796,07
464,44	1683,43
464,64	1658,85
464,85	1832,93
465,05	1748,97
465,25	1708,01
465,46	1656,81
465,66	1755,11
465,86	1808,36
466,07	1722,34
466,27	1734,63
466,47	1644,52
466,68	1638,38
466,88	1861,60
467,08	1751,01
467,29	1734,63
467,49	1728,49
467,69	1675,24
467,89	1714,15
468,10	1691,62
468,30	1736,68
468,50	1773,54
468,71	1699,81
468,91	1644,52
469,11	1880,04
469,31	1683,43
469,52	1607,66
469,72	1740,77
469,92	1765,35
470,13	1701,86
470,33	1656,81
470,53	1834,98
470,73	2131,94
470,94	2250,72
471,14	2215,90
471,34	2564,06
471,54	2359,26
471,75	2133,98
471,95	2086,88
472,15	2045,92
472,36	2185,18
472,56	2109,41
472,76	2054,11
472,96	2070,50
473,17	1902,56
473,37	1853,41
473,57	1767,40
473,77	1822,69
473,98	1744,87
474,18	1607,66
474,38	1820,64
474,58	1701,86
474,79	1757,16
474,99	1742,82
475,19	1771,49
475,39	1683,43
475,60	1710,05
475,80	1718,25
476,00	1701,86
476,20	1761,25
476,41	1714,15
476,61	1728,49
476,81	1802,21
477,01	1679,33
477,21	1787,88
477,42	1769,44
477,62	1652,71
477,82	1763,30
478,02	1685,48
478,23	1740,77
478,43	1669,09
478,63	1679,33
478,83	1755,11
479,03	1742,82
479,24	1726,44
479,44	1779,68
479,64	1679,33
479,84	1535,98
480,04	1619,94
480,25	1724,39
480,45	1667,05
480,65	1699,81
480,85	1834,98
481,06	1650,66
481,26	1742,82
481,46	1779,68
481,66	1798,12
481,86	1621,99
482,06	1814,50
482,27	1703,91
482,47	1632,23
482,67	1732,58
482,87	1724,39
483,07	1718,25
483,28	1646,57
483,48	1671,14
483,68	1693,67
483,88	1673,19
484,08	1572,84
484,29	1687,53
484,49	1693,67
484,69	1624,04
484,89	1767,40
485,09	1757,16
485,29	1720,29
485,50	1693,67
485,70	1636,33
485,90	1800,16
486,10	1740,77
486,30	1757,16
486,50	1781,73
486,71	1777,64
486,91	1744,87
487,11	1781,73
487,31	1576,94
487,51	1751,01
487,71	1718,25
487,91	1687,53
488,12	1675,24
488,32	1609,70
488,52	1665,00
488,72	1654,76
488,92	1685,48
489,12	1744,87
489,32	1763,30
489,53	1771,49
489,73	1628,14
489,93	1832,93
490,13	1730,53
490,33	1634,28
490,53	1708,01
490,73	1804,26
490,94	1595,37
491,14	1751,01
491,34	1806,31
491,54	2099,17
491,74	2582,49
491,94	2938,84
492,14	3117,01
492,34	3041,23
492,54	2731,99
492,75	2389,98
492,95	2467,80
493,15	2389,98
493,35	2250,72
493,55	2230,24
493,75	2113,50
493,95	2195,42
494,15	2076,64
494,35	1873,89
494,56	1849,32
494,76	1710,05
494,96	1816,55
495,16	1783,78
495,36	1712,10
495,56	1767,40
495,76	1718,25
495,96	1746,92
496,16	1679,33
496,36	1757,16
496,56	1763,30
496,77	1718,25
496,97	1675,24
497,17	1794,02
497,37	1632,23
497,57	1740,77
497,77	1691,62
497,97	1708,01
498,17	1683,43
498,37	1638,38
498,57	1761,25
498,77	1714,15
498,97	1755,11
499,17	1769,44
499,38	1834,98
499,58	1701,86
499,78	1763,30
499,98	1824,74
500,18	1738,73
500,38	1685,48
500,58	1929,19
500,78	2600,92
500,98	4589,50
501,18	5861,29
501,38	6735,77
501,58	7139,22
501,78	6623,13
501,98	5695,40
502,18	5072,82
502,38	4360,13
502,58	4124,61
502,78	3870,66
502,98	3633,10
503,18	3465,16
503,38	3092,43
503,59	2838,48
503,79	2664,41
503,99	2428,89
504,19	2291,68
504,39	2166,75
504,59	2193,37
504,79	2117,60
504,99	2033,63
505,19	1976,29
505,39	1904,61
505,59	1966,05
505,79	1914,85
505,99	1877,99
506,19	1787,88
506,39	1896,42
506,59	1767,40
506,79	1738,73
506,99	1724,39
507,19	1728,49
507,39	1796,07
507,59	1652,71
507,79	1681,38
507,99	1681,38
508,19	1789,92
508,39	1662,95
508,59	1757,16
508,79	1785,83
508,99	1843,17
509,19	1669,09
509,39	1716,20
509,59	1736,68
509,79	1722,34
509,99	1796,07
510,19	1837,03
510,39	1785,83
510,59	1714,15
510,79	1722,34
510,99	1675,24
511,19	1648,61
511,39	1716,20
511,59	1761,25
511,79	1806,31
511,99	1767,40
512,19	1877,99
512,38	1783,78
512,58	1773,54
512,78	1761,25
512,98	1769,44
513,18	1751,01
513,38	1603,56
513,58	1767,40
513,78	1679,33
513,98	1646,57
514,18	1691,62
514,38	1736,68
514,58	1708,01
514,78	1679,33
514,98	1695,72
515,18	1689,57
515,38	1683,43
515,58	1796,07
515,78	1660,90
515,98	1767,40
516,18	1724,39
516,38	1716,20
516,57	1712,10
516,77	1701,86
516,97	1748,97
517,17	1728,49
517,37	1654,76
517,57	1744,87
517,77	1679,33
517,97	1662,95
518,17	1789,92
518,37	1648,61
518,57	1656,81
518,77	1679,33
518,97	1683,43
519,16	1740,77
519,36	1771,49
519,56	1699,81
519,76	1746,92
519,96	1699,81
520,16	1777,64
520,36	1771,49
520,56	1810,40
520,76	1738,73
520,96	1763,30
521,16	1742,82
521,35	1818,60
521,55	1802,21
521,75	1699,81
521,95	1738,73
522,15	1689,57
522,35	1708,01
522,55	1673,19
522,75	1724,39
522,95	1689,57
523,14	1685,48
523,34	1777,64
523,54	1681,38
523,74	1738,73
523,94	1714,15
524,14	1689,57
524,34	1771,49
524,54	1855,46
524,73	1638,38
524,93	1740,77
525,13	1703,91
525,33	1624,04
525,53	1902,56
525,73	1685,48
525,93	1699,81
526,13	1703,91
526,32	1710,05
526,52	1791,97
526,72	1724,39
526,92	1734,63
527,12	1667,05
527,32	1714,15
527,52	1734,63
527,71	1779,68
527,91	1740,77
528,11	1630,18
528,31	1724,39
528,51	1632,23
528,71	1701,86
528,90	1658,85
529,10	1804,26
529,30	1837,03
529,50	1652,71
529,70	1796,07
529,90	1691,62
530,09	1734,63
530,29	1703,91
530,49	1662,95
530,69	1890,28
530,89	1712,10
531,09	1732,58
531,28	1705,96
531,48	1796,07
531,68	1818,60
531,88	1716,20
532,08	1734,63
532,28	1730,53
532,47	1791,97
532,67	1837,03
532,87	1722,34
533,07	1652,71
533,27	1775,59
533,46	1755,11
533,66	1705,96
533,86	1660,90
534,06	1689,57
534,26	1708,01
534,45	1794,02
534,65	1765,35
534,85	1712,10
535,05	1708,01
535,25	1769,44
535,44	1624,04
535,64	1822,69
535,84	1677,29
536,04	1726,44
536,24	1691,62
536,43	1687,53
536,63	1769,44
536,83	1722,34
537,03	1687,53
537,22	1638,38
537,42	1671,14
537,62	1757,16
537,82	1638,38
538,02	1730,53
538,21	1808,36
538,41	1857,51
538,61	1689,57
538,81	1746,92
539,00	1865,70
539,20	1673,19
539,40	1673,19
539,60	1742,82
539,79	1816,55
539,99	1665,00
540,19	1726,44
540,39	1691,62
540,58	1734,63
540,78	1808,36
540,98	1685,48
541,18	1728,49
541,37	1828,84
541,57	1738,73
541,77	1798,12
541,97	1636,33
542,16	1673,19
542,36	1701,86
542,56	1742,82
542,76	1830,88
542,95	1748,97
543,15	1658,85
543,35	1769,44
543,54	1726,44
543,74	1697,77
543,94	1824,74
544,14	1687,53
544,33	1685,48
544,53	1744,87
544,73	1718,25
544,93	1710,05
545,12	1718,25
545,32	1759,21
545,52	1718,25
545,71	1658,85
545,91	1673,19
546,11	1699,81
546,30	1722,34
546,50	1689,57
546,70	1708,01
546,90	1738,73
547,09	1544,17
547,29	1775,59
547,49	1787,88
547,68	1703,91
547,88	1708,01
548,08	1751,01
548,27	2152,42
548,47	1728,49
548,67	1732,58
548,87	1796,07
549,06	1658,85
549,26	1695,72
549,46	1697,77
549,65	1699,81
549,85	1742,82
550,05	1812,45
550,24	1660,90
550,44	1705,96
550,64	1712,10
550,83	1654,76
551,03	1783,78
551,23	1779,68
551,42	1726,44
551,62	1712,10
551,82	1744,87
552,01	1705,96
552,21	1834,98
552,41	1785,83
552,60	1791,97
552,80	1765,35
553,00	1779,68
553,19	1732,58
553,39	1841,12
553,59	1689,57
553,78	1710,05
553,98	1695,72
554,17	1654,76
554,37	1773,54
554,57	1822,69
554,76	1656,81
554,96	1736,68
555,16	1746,92
555,35	1814,50
555,55	1810,40
555,75	1693,67
555,94	1777,64
556,14	1646,57
556,33	1755,11
556,53	1683,43
556,73	1787,88
556,92	1761,25
557,12	1812,45
557,32	1855,46
557,51	1828,84
557,71	1789,92
557,90	1812,45
558,10	1843,17
558,30	1646,57
558,49	1734,63
558,69	1724,39
558,88	1714,15
559,08	1771,49
559,28	1728,49
559,47	1804,26
559,67	1714,15
559,86	1871,84
560,06	1720,29
560,26	1724,39
560,45	1742,82
560,65	1728,49
560,84	1726,44
561,04	1648,61
561,24	1820,64
561,43	1687,53
561,63	1849,32
561,82	1806,31
562,02	1779,68
562,22	1660,90
562,41	1716,20
562,61	1720,29
562,80	1683,43
563,00	1896,42
563,19	1742,82
563,39	1755,11
563,59	1755,11
563,78	1705,96
563,98	1603,56
564,17	1685,48
564,37	1615,85
564,56	1785,83
564,76	1687,53
564,96	1812,45
565,15	1822,69
565,35	1890,28
565,54	1730,53
565,74	1773,54
565,93	1712,10
566,13	1740,77
566,32	1777,64
566,52	1673,19
566,71	1751,01
566,91	1771,49
567,11	1744,87
567,30	1642,47
567,50	1787,88
567,69	1742,82
567,89	1701,86
568,08	1753,06
568,28	1802,21
568,47	1691,62
568,67	1755,11
568,86	1728,49
569,06	1777,64
569,25	1763,30
569,45	1677,29
569,64	1701,86
569,84	1650,66
570,04	1748,97
570,23	1708,01
570,43	1748,97
570,62	1814,50
570,82	1869,80
571,01	1660,90
571,21	1712,10
571,40	1703,91
571,60	1755,11
571,79	1832,93
571,99	1769,44
572,18	1753,06
572,38	1753,06
572,57	1763,30
572,77	1773,54
572,96	1900,52
573,16	1767,40
573,35	1656,81
573,55	1759,21
573,74	1736,68
573,94	1708,01
574,13	1683,43
574,33	1865,70
574,52	1769,44
574,71	1742,82
574,91	1724,39
575,10	1619,94
575,30	1648,61
575,49	1652,71
575,69	1736,68
575,88	1748,97
576,08	1687,53
576,27	1773,54
576,47	1722,34
576,66	1755,11
576,86	1783,78
577,05	1816,55
577,25	1843,17
577,44	1812,45
577,64	1746,92
577,83	1746,92
578,02	1742,82
578,22	1826,79
578,41	1834,98
578,61	1736,68
578,80	1708,01
579,00	1677,29
579,19	1746,92
579,39	1740,77
579,58	1753,06
579,77	1736,68
579,97	1796,07
580,16	1781,73
580,36	1832,93
580,55	1816,55
580,75	1814,50
580,94	1796,07
581,13	1783,78
581,33	1812,45
581,52	1730,53
581,72	1804,26
581,91	1900,52
582,11	1763,30
582,30	1875,94
582,49	1816,55
582,69	1830,88
582,88	1771,49
583,08	1714,15
583,27	1775,59
583,47	1738,73
583,66	1781,73
583,85	1746,92
584,05	1726,44
584,24	1800,16
584,44	1753,06
584,63	1789,92
584,82	1810,40
585,02	1853,41
585,21	1806,31
585,41	1798,12
585,60	1773,54
585,79	1867,75
585,99	1830,88
586,18	1853,41
586,37	2107,36
586,57	3346,38
586,76	9910,12
586,96	24653,45
587,15	34680,30
587,34	40838,54
587,54	42628,47
587,73	36857,29
587,93	26769,00
588,12	21638,84
588,31	18511,59
588,51	16310,02
588,70	15367,96
588,89	14417,70
589,09	12543,81
589,28	11130,71
589,47	9555,82
589,67	8148,87
589,86	6408,09
590,06	4865,97
590,25	3880,90
590,44	3147,73
590,64	2543,58
590,83	2295,77
591,02	2011,11
591,22	2011,11
591,41	1867,75
591,60	1800,16
591,80	1871,84
591,99	1812,45
592,18	1808,36
592,38	1882,08
592,57	1759,21
592,76	1865,70
592,96	1800,16
593,15	1767,40
593,34	1908,71
593,54	1748,97
593,73	1804,26
593,92	1763,30
594,12	1767,40
594,31	1808,36
594,50	1734,63
594,70	1787,88
594,89	1818,60
595,08	1693,67
595,28	1826,79
595,47	1859,56
595,66	1787,88
595,86	1603,56
596,05	1701,86
596,24	1681,38
596,43	1918,95
596,63	1748,97
596,82	1710,05
597,01	1759,21
597,21	1904,61
597,40	1777,64
597,59	1687,53
597,79	1730,53
597,98	1716,20
598,17	1783,78
598,36	1796,07
598,56	1777,64
598,75	1761,25
598,94	1744,87
599,14	1791,97
599,33	1640,42
599,52	1828,84
599,71	1730,53
599,91	1777,64
600,10	1794,02
600,29	1652,71
600,48	1800,16
600,68	1746,92
600,87	1722,34
601,06	1640,42
601,26	1697,77
601,45	1781,73
601,64	1701,86
601,83	1806,31
602,03	1705,96
602,22	1650,66
602,41	1767,40
602,60	1820,64
602,80	1761,25
602,99	1673,19
603,18	1630,18
603,37	1742,82
603,57	1730,53
603,76	1740,77
603,95	1802,21
604,14	1783,78
604,34	1699,81
604,53	1763,30
604,72	1734,63
604,91	1783,78
605,10	1708,01
605,30	1660,90
605,49	1857,51
605,68	1765,35
605,87	1771,49
606,07	1652,71
606,26	1736,68
606,45	1726,44
606,64	1769,44
606,84	1763,30
607,03	1669,09
607,22	1720,29
607,41	1701,86
607,60	1730,53
607,80	1763,30
607,99	1728,49
608,18	1783,78
608,37	1652,71
608,56	1714,15
608,76	1783,78
608,95	1845,22
609,14	1794,02
609,33	1685,48
609,52	1791,97
609,72	1763,30
609,91	1755,11
610,10	1748,97
610,29	1908,71
610,48	1820,64
610,68	1738,73
610,87	1748,97
611,06	1710,05
611,25	1718,25
611,44	1734,63
611,63	1720,29
611,83	1759,21
612,02	1681,38
612,21	1779,68
612,40	1626,09
612,59	1662,95
612,79	1660,90
612,98	1697,77
613,17	1785,83
613,36	1656,81
613,55	1828,84
613,74	1714,15
613,93	1648,61
614,13	1697,77
614,32	1845,22
614,51	1765,35
614,70	1701,86
614,89	1695,72
615,08	1767,40
615,28	1996,77
615,47	1632,23
615,66	1736,68
615,85	1759,21
616,04	1808,36
616,23	1722,34
616,42	1640,42
616,62	1705,96
616,81	1785,83
617,00	1718,25
617,19	1755,11
617,38	1718,25
617,57	1691,62
617,76	1691,62
617,95	1814,50
618,15	1759,21
618,34	1843,17
618,53	1654,76
618,72	1773,54
618,91	1787,88
619,10	1746,92
619,29	1671,14
619,48	1742,82
619,68	1734,63
619,87	1708,01
620,06	1599,46
620,25	1740,77
620,44	1726,44
620,63	1742,82
620,82	1734,63
621,01	1796,07
621,20	1630,18
621,39	1691,62
621,59	1748,97
621,78	1746,92
621,97	1685,48
622,16	1789,92
622,35	1722,34
622,54	1757,16
622,73	1724,39
622,92	1701,86
623,11	1771,49
623,30	1708,01
623,49	1716,20
623,68	1740,77
623,88	1787,88
624,07	1687,53
624,26	1716,20
624,45	1751,01
624,64	1644,52
624,83	1775,59
625,02	1689,57
625,21	1804,26
625,40	1705,96
625,59	1761,25
625,78	1679,33
625,97	1794,02
626,16	1802,21
626,35	1740,77
626,54	1665,00
626,74	1783,78
626,93	1646,57
627,12	1785,83
627,31	1712,10
627,50	1738,73
627,69	1779,68
627,88	1667,05
628,07	1710,05
628,26	1720,29
628,45	1710,05
628,64	1685,48
628,83	1685,48
629,02	1658,85
629,21	1804,26
629,40	1746,92
629,59	1648,61
629,78	1732,58
629,97	1724,39
630,16	1753,06
630,35	1734,63
630,54	1701,86
630,73	1685,48
630,92	1705,96
631,11	1697,77
631,30	1812,45
631,49	1744,87
631,68	1722,34
631,87	1808,36
632,06	1644,52
632,25	1843,17
632,44	1828,84
632,63	1714,15
632,82	1665,00
633,01	1667,05
633,20	1705,96
633,39	1744,87
633,58	1771,49
633,77	1728,49
633,96	1730,53
634,15	1791,97
634,34	1757,16
634,53	1675,24
634,72	1691,62
634,91	1691,62
635,10	1718,25
635,29	1746,92
635,48	1740,77
635,67	1683,43
635,86	1636,33
636,05	1783,78
636,24	1669,09
636,43	1736,68
636,62	1761,25
636,81	1576,94
637,00	1732,58
637,19	1722,34
637,38	1703,91
637,57	1675,24
637,76	1791,97
637,95	1677,29
638,14	1533,93
638,33	1697,77
638,52	1742,82
638,71	1599,46
638,89	1730,53
639,08	1791,97
639,27	1693,67
639,46	1705,96
639,65	1818,60
639,84	1701,86
640,03	1742,82
640,22	1718,25
640,41	1853,41
640,60	1755,11
640,79	1738,73
640,98	1712,10
641,17	1777,64
641,36	1783,78
641,55	1765,35
641,74	1669,09
641,92	1662,95
642,11	1642,47
642,30	1683,43
642,49	1683,43
642,68	1742,82
642,87	1720,29
643,06	1775,59
643,25	1718,25
643,44	1730,53
643,63	1726,44
643,82	1736,68
644,00	1665,00
644,19	1662,95
644,38	1617,90
644,57	1761,25
644,76	1665,00
644,95	1665,00
645,14	1763,30
645,33	1728,49
645,52	1769,44
645,71	1626,09
645,89	1689,57
646,08	1712,10
646,27	1683,43
646,46	1839,08
646,65	1628,14
646,84	1693,67
647,03	1701,86
647,22	1783,78
647,40	1773,54
647,59	1587,18
647,78	1665,00
647,97	1724,39
648,16	1679,33
648,35	1697,77
648,54	1755,11
648,73	1689,57
648,91	1724,39
649,10	1730,53
649,29	1673,19
649,48	1648,61
649,67	1742,82
649,86	1675,24
650,05	1685,48
650,23	1783,78
650,42	1660,90
650,61	1722,34
650,80	1769,44
650,99	1849,32
651,18	1757,16
651,36	1798,12
651,55	1699,81
651,74	1746,92
651,93	1765,35
652,12	1763,30
652,31	1724,39
652,49	1710,05
652,68	1673,19
652,87	1818,60
653,06	1730,53
653,25	1882,08
653,44	1761,25
653,62	1814,50
653,81	1687,53
654,00	1724,39
654,19	1701,86
654,38	1849,32
654,56	1761,25
654,75	1781,73
654,94	1751,01
655,13	1771,49
655,32	1689,57
655,51	1837,03
655,69	1722,34
655,88	1734,63
656,07	1683,43
656,26	1744,87
656,45	1650,66
656,63	1708,01
656,82	1710,05
657,01	1800,16
657,20	1658,85
657,38	1669,09
657,57	1683,43
657,76	1673,19
657,95	1744,87
658,14	1675,24
658,32	1728,49
658,51	1624,04
658,70	1705,96
658,89	1679,33
659,08	1710,05
659,26	1775,59
659,45	1665,00
659,64	1722,34
659,83	1734,63
660,01	1910,75
660,20	1646,57
660,39	1884,13
660,58	1599,46
660,76	1789,92
660,95	1728,49
661,14	1722,34
661,33	1624,04
661,51	1714,15
661,70	1695,72
661,89	1794,02
662,08	1681,38
662,26	1611,75
662,45	1665,00
662,64	1730,53
662,83	1804,26
663,01	1525,74
663,20	1630,18
663,39	1791,97
663,58	1822,69
663,76	1656,81
663,95	1755,11
664,14	1665,00
664,32	1734,63
664,51	1685,48
664,70	1648,61
664,89	1785,83
665,07	1632,23
665,26	1806,31
665,45	1656,81
665,64	1781,73
665,82	1751,01
666,01	1746,92
666,20	1708,01
666,38	1773,54
666,57	1826,79
666,76	2224,09
666,95	4540,35
667,13	10573,66
667,32	15542,03
667,51	17823,47
667,69	19060,45
667,88	17729,27
668,07	12435,27
668,25	9498,48
668,44	8195,97
668,63	7282,58
668,81	6891,41
669,00	6336,42
669,19	5783,46
669,38	5081,01
669,56	4589,50
669,75	4052,93
669,94	3368,91
670,12	2957,27
670,31	2594,78
670,50	2179,04
670,68	2056,16
670,87	1918,95
671,06	1753,06
671,24	1800,16
671,43	1824,74
671,62	1718,25
671,80	1658,85
671,99	1734,63
672,18	1726,44
672,36	1755,11
672,55	1736,68
672,74	1714,15
672,92	1693,67
673,11	1710,05
673,29	1662,95
673,48	1783,78
673,67	1675,24
673,85	1843,17
674,04	1636,33
674,23	1732,58
674,41	1800,16
674,60	1652,71
674,79	1632,23
674,97	1656,81
675,16	1730,53
675,34	1726,44
675,53	1628,14
675,72	1744,87
675,90	1783,78
676,09	1779,68
676,28	1648,61
676,46	1624,04
676,65	1748,97
676,83	1624,04
677,02	1667,05
677,21	1648,61
677,39	1736,68
677,58	1638,38
677,77	1595,37
677,95	1685,48
678,14	1671,14
678,32	1669,09
678,51	1675,24
678,70	1863,65
678,88	1687,53
679,07	1796,07
679,25	1665,00
679,44	1718,25
679,63	1634,28
679,81	1730,53
680,00	1712,10
680,18	1798,12
680,37	1755,11
680,55	1681,38
680,74	1613,80
680,93	1593,32
681,11	1734,63
681,30	1718,25
681,48	1705,96
681,67	1648,61
681,85	1656,81
682,04	1724,39
682,23	1701,86
682,41	1736,68
682,60	1640,42
682,78	1677,29
682,97	1710,05
683,15	1683,43
683,34	1669,09
683,53	1761,25
683,71	1673,19
683,90	1763,30
684,08	1757,16
684,27	1699,81
684,45	1736,68
684,64	1830,88
684,82	1611,75
685,01	1763,30
685,19	1714,15
685,38	1804,26
685,57	1675,24
685,75	1652,71
685,94	1689,57
686,12	1683,43
686,31	1656,81
686,49	1845,22
686,68	1576,94
686,86	1714,15
687,05	1720,29
687,23	1828,84
687,42	1662,95
687,60	1681,38
687,79	1800,16
687,97	1794,02
688,16	1732,58
688,34	1804,26
688,53	1626,09
688,71	1712,10
688,90	1751,01
689,08	1675,24
689,27	1646,57
689,45	1755,11
689,64	1775,59
689,82	1789,92
690,01	1703,91
690,19	1628,14
690,38	1681,38
690,56	1755,11
690,75	1669,09
690,93	1710,05
691,12	1685,48
691,30	1771,49
691,49	1705,96
691,67	1675,24
691,86	1751,01
692,04	1705,96
692,23	1628,14
692,41	1730,53
692,60	1865,70
692,78	1757,16
692,97	1720,29
693,15	1796,07
693,34	1814,50
693,52	1796,07
693,71	1699,81
693,89	1667,05
694,08	1603,56
694,26	1769,44
694,44	1726,44
694,63	1724,39
694,81	1638,38
695,00	1673,19
695,18	1724,39
695,37	1877,99
695,55	1701,86
695,74	1626,09
695,92	1732,58
696,10	1771,49
696,29	1662,95
696,47	1726,44
696,66	1550,31
696,84	1648,61
697,03	1710,05
697,21	1888,23
697,40	2297,82
697,58	1822,69
697,76	1697,77
697,95	1630,18
698,13	1673,19
698,32	1624,04
698,50	1691,62
698,68	1652,71
698,87	1753,06
699,05	1763,30
699,24	1722,34
699,42	1654,76
699,61	1710,05
699,79	1689,57
699,97	1744,87
700,16	1722,34
700,34	1617,90
700,53	1730,53
700,71	1708,01
700,89	1734,63
701,08	1642,47
701,26	1746,92
701,45	2043,87
701,63	1689,57
701,81	1677,29
702,00	1669,09
702,18	1697,77
702,37	1714,15
702,55	1710,05
702,73	1611,75
702,92	1634,28
703,10	1767,40
703,28	1789,92
703,47	1644,52
703,65	1716,20
703,84	1732,58
704,02	1730,53
704,20	1814,50
704,39	1677,29
704,57	1724,39
704,75	1693,67
704,94	1740,77
705,12	1738,73
705,30	1822,69
705,49	2220,00
705,67	4462,52
705,86	9494,38
706,04	12875,58
706,22	14612,26
706,41	15564,56
706,59	13942,57
706,77	9551,73
706,96	7309,20
707,14	6715,29
707,32	5916,58
707,51	5502,89
707,69	4829,11
707,87	4202,43
708,06	3604,42
708,24	2930,64
708,42	2432,99
708,61	2207,71
708,79	1812,45
708,97	1894,37
709,16	1796,07
709,34	1845,22
709,52	1705,96
709,71	1724,39
709,89	1763,30
710,07	1634,28
710,26	1656,81
710,44	1650,66
710,62	1777,64
710,80	1728,49
710,99	1859,56
711,17	1742,82
711,35	1611,75
711,54	1689,57
711,72	1794,02
711,90	1775,59
712,09	1669,09
712,27	1691,62
712,45	1660,90
712,63	1712,10
712,82	1753,06
713,00	1730,53
713,18	1798,12
713,37	1785,83
713,55	1716,20
713,73	1687,53
713,91	1808,36
714,10	1636,33
714,28	1644,52
714,46	1728,49
714,65	1761,25
714,83	1763,30
715,01	1746,92
715,19	1748,97
715,38	1656,81
715,56	1681,38
715,74	1691,62
715,92	1673,19
716,11	1718,25
716,29	1566,70
716,47	1728,49
716,65	1705,96
716,84	1626,09
717,02	1791,97
717,20	1589,22
717,38	1658,85
717,57	1648,61
717,75	1742,82
717,93	1738,73
718,11	1740,77
718,30	1669,09
718,48	1658,85
718,66	1771,49
718,84	1712,10
719,03	1660,90
719,21	1607,66
719,39	1779,68
719,57	1781,73
719,75	1820,64
719,94	1535,98
720,12	1701,86
720,30	1744,87
720,48	1712,10
720,67	1675,24
720,85	1628,14
721,03	1648,61
721,21	1646,57
721,39	1812,45
721,58	1789,92
721,76	1699,81
721,94	1728,49
722,12	1693,67
722,30	1767,40
722,49	1648,61
722,67	1642,47
722,85	1652,71
723,03	1638,38
723,21	1679,33
723,40	1755,11
723,58	1718,25
723,76	1712,10
723,94	1765,35
724,12	1714,15
724,30	1828,84
724,49	1693,67
724,67	1581,03
724,85	1820,64
725,03	1681,38
725,21	1650,66
725,40	1728,49
725,58	1652,71
725,76	1769,44
725,94	1675,24
726,12	1665,00
726,30	1720,29
726,49	1681,38
726,67	1677,29
726,85	1654,76
727,03	1798,12
727,21	2093,02
727,39	2914,26
727,57	3876,80
727,76	4343,74
727,94	4401,08
728,12	4401,08
728,30	3665,86
728,48	3022,80
728,66	2770,90
728,84	2553,82
729,03	2340,83
729,21	2183,13
729,39	1933,28
729,57	1828,84
729,75	1841,12
729,93	1796,07
730,11	1658,85
730,30	1697,77
730,48	1691,62
730,66	1722,34
730,84	1757,16
731,02	1726,44
731,20	1693,67
731,38	1726,44
731,56	1632,23
731,74	1714,15
731,93	1691,62
732,11	1714,15
732,29	1683,43
732,47	1695,72
732,65	1693,67
732,83	1779,68
733,01	1746,92
733,19	1650,66
733,37	1697,77
733,56	1759,21
733,74	1718,25
733,92	1740,77
734,10	1695,72
734,28	1708,01
734,46	1642,47
734,64	1755,11
734,82	1691,62
735,00	1738,73
735,18	1669,09
735,36	1697,77
735,54	1673,19
735,73	1740,77
735,91	1652,71
736,09	1765,35
736,27	1701,86
736,45	1681,38
736,63	1685,48
736,81	1675,24
736,99	1744,87
737,17	1753,06
737,35	1732,58
737,53	1593,32
737,71	1667,05
737,89	1738,73
738,07	1628,14
738,25	1697,77
738,43	1621,99
738,61	1667,05
738,80	1667,05
738,98	1601,51
739,16	1626,09
739,34	1714,15
739,52	1800,16
739,70	1589,22
739,88	1724,39
740,06	1759,21
740,24	1607,66
740,42	1814,50
740,60	1624,04
740,78	1660,90
740,96	1613,80
741,14	1755,11
741,32	1701,86
741,50	1597,42
741,68	1791,97
741,86	1652,71
742,04	1550,31
742,22	1703,91
742,40	1734,63
742,58	1669,09
742,76	1626,09
742,94	1697,77
743,12	1628,14
743,30	1583,08
743,48	1681,38
743,66	1646,57
743,84	1667,05
744,02	1640,42
744,20	1650,66
744,38	1650,66
744,56	1648,61
744,74	1804,26
744,92	1761,25
745,10	1808,36
745,28	1773,54
745,46	1845,22
745,64	1699,81
745,82	1767,40
746,00	1730,53
746,18	1787,88
746,36	1677,29
746,54	1730,53
746,72	1648,61
746,90	1656,81
747,08	1685,48
747,26	1671,14
747,44	1718,25
747,62	1738,73
747,80	1689,57
747,98	1867,75
748,15	1708,01
748,33	1873,89
748,51	1755,11
748,69	1742,82
748,87	1662,95
749,05	1701,86
749,23	1740,77
749,41	1763,30
749,59	1660,90
749,77	1763,30
749,95	1652,71
750,13	1703,91
750,31	1677,29
750,49	1636,33
750,67	1683,43
750,85	1718,25
751,03	1712,10
751,20	1812,45
751,38	1671,14
751,56	1615,85
751,74	1675,24
751,92	1779,68
752,10	1617,90
752,28	1785,83
752,46	1681,38
752,64	1607,66
752,82	1742,82
753,00	1744,87
753,18	1648,61
753,35	1669,09
753,53	1695,72
753,71	1566,70
753,89	1716,20
754,07	1689,57
754,25	1753,06
754,43	1669,09
754,61	1638,38
754,79	1705,96
754,97	1724,39
755,14	1759,21
755,32	1611,75
755,50	1626,09
755,68	1761,25
755,86	1607,66
756,04	1755,11
756,22	1613,80
756,40	1763,30
756,57	1808,36
756,75	1712,10
756,93	1824,74
757,11	1789,92
757,29	1669,09
757,47	1535,98
757,65	1652,71
757,82	1595,37
758,00	1662,95
758,18	1673,19
758,36	1626,09
758,54	1787,88
758,72	1675,24
758,90	1855,46
759,07	1712,10
759,25	1662,95
759,43	1722,34
759,61	1583,08
759,79	2203,61
759,97	1738,73
760,15	1687,53
760,32	1689,57
760,50	1722,34
760,68	1753,06
760,86	1609,70
761,04	1693,67
761,22	1738,73
761,39	1660,90
761,57	1677,29
761,75	1689,57
761,93	1687,53
762,11	1730,53
762,28	1740,77
762,46	1570,79
762,64	1800,16
762,82	1658,85
763,00	1677,29
763,18	1708,01
763,35	1581,03
763,53	1675,24
763,71	1685,48
763,89	1656,81
764,07	1714,15
764,24	1609,70
764,42	1755,11
764,60	1732,58
764,78	1705,96
764,96	1722,34
765,13	1781,73
765,31	1626,09
765,49	1691,62
765,67	1652,71
765,84	1732,58
766,02	1648,61
766,20	1607,66
766,38	1658,85
766,56	1738,73
766,73	1703,91
766,91	1673,19
767,09	1660,90
767,27	1720,29
767,44	1615,85
767,62	1652,71
767,80	1800,16
767,98	1683,43
768,15	1691,62
768,33	1703,91
768,51	1742,82
768,69	1691,62
768,87	1710,05
769,04	1689,57
769,22	1816,55
769,40	1843,17
769,58	1888,23
769,75	1710,05
769,93	1724,39
770,11	1691,62
770,28	1665,00
770,46	1724,39
770,64	1738,73
770,82	1728,49
770,99	1656,81
771,17	1755,11
771,35	1636,33
771,53	1644,52
771,70	1687,53
771,88	1691,62
772,06	1630,18
772,23	1681,38
772,41	1726,44
772,59	1716,20
772,77	1654,76
772,94	1746,92
773,12	1701,86
773,30	1697,77
773,47	1726,44
773,65	1621,99
773,83	1810,40
774,01	1644,52
774,18	1617,90
774,36	1662,95
774,54	1695,72
774,71	1744,87
774,89	1638,38
775,07	1650,66
775,24	1644,52
775,42	1685,48
775,60	1822,69
775,78	1667,05
775,95	1634,28
776,13	1605,61
776,31	1626,09
776,48	1652,71
776,66	1759,21
776,84	1683,43
777,01	1630,18
777,19	1744,87
777,37	1681,38
777,54	1703,91
777,72	1785,83
777,90	1765,35
778,07	1572,84
778,25	1882,08
778,43	1730,53
778,60	1669,09
778,78	1779,68
778,96	1722,34
779,13	1617,90
779,31	1853,41
779,49	1648,61
779,66	1724,39
779,84	1675,24
780,01	1722,34
780,19	1574,89
780,37	1720,29
780,54	1708,01
780,72	1613,80
780,90	1748,97
781,07	1681,38
781,25	1642,47
781,43	1755,11
781,60	1611,75
781,78	1714,15
781,95	1691,62
782,13	1677,29
782,31	1667,05
782,48	1581,03
782,66	1732,58
782,83	1794,02
783,01	1769,44
783,19	1757,16
783,36	1695,72
783,54	1710,05
783,72	1812,45
783,89	1755,11
784,07	1783,78
784,24	1673,19
784,42	1765,35
784,60	1652,71
784,77	1736,68
784,95	1611,75
785,12	1601,51
785,30	1722,34
785,47	1726,44
785,65	1632,23
785,83	1640,42
786,00	1646,57
786,18	1685,48
786,35	1615,85
786,53	1656,81
786,71	1744,87
786,88	1748,97
787,06	1703,91
787,23	1683,43
787,41	1624,04
787,58	1669,09
787,76	1722,34
787,94	1683,43
788,11	1730,53
788,29	1669,09
788,46	1636,33
788,64	1656,81
788,81	1679,33
788,99	1632,23
789,16	1673,19
789,34	1699,81
789,52	1603,56
789,69	1705,96
789,87	1595,37
790,04	1724,39
790,22	1730,53
790,39	1802,21
790,57	1624,04
790,74	1593,32
790,92	1734,63
791,09	1560,55
791,27	1697,77
791,44	1755,11
791,62	1722,34
791,79	1781,73
791,97	1714,15
792,15	1857,51
792,32	1751,01
792,50	1685,48
792,67	1794,02
792,85	1730,53
793,02	1673,19
793,20	1689,57
793,37	1615,85
793,55	1691,62
793,72	1607,66
793,90	1705,96
794,07	1638,38
794,25	1533,93
794,42	1695,72
794,60	1689,57
794,77	1779,68
794,95	1763,30
795,12	1757,16
795,30	1757,16
795,47	1605,61
795,65	1822,69
795,82	1728,49
796,00	1648,61
796,17	1689,57
796,34	1654,76
796,52	1662,95
796,69	1769,44
796,87	1677,29
797,04	1650,66
797,22	1681,38
797,39	1656,81
797,57	1746,92
797,74	1759,21
797,92	1632,23
798,09	1669,09
798,27	1779,68
798,44	1710,05
798,62	1638,38
798,79	1665,00
798,96	1654,76
799,14	1703,91
799,31	1853,41
799,49	1640,42
799,66	1611,75
799,84	1578,98
800,01	1642,47
800,19	1687,53
800,36	1611,75
800,53	1724,39
800,71	1738,73
800,88	1806,31
801,06	1665,00
801,23	1642,47
801,41	1619,94
801,58	1611,75
801,75	1619,94
801,93	1679,33
802,10	1736,68
802,28	1691,62
802,45	1607,66
802,63	1685,48
802,80	1724,39
802,97	1703,91
803,15	1683,43
803,32	1718,25
803,50	1640,42
803,67	1703,91
803,84	1652,71
804,02	1681,38
804,19	1716,20
804,37	1560,55
804,54	1658,85
804,71	1636,33
804,89	1708,01
805,06	1656,81
805,24	1652,71
805,41	1609,70
805,58	1746,92
805,76	1771,49
805,93	1654,76
806,10	1841,12
806,28	1767,40
806,45	1705,96
806,63	1830,88
806,80	1662,95
806,97	1736,68
807,15	1652,71
807,32	1689,57
807,49	1751,01
807,67	1636,33
807,84	1808,36
808,01	1626,09
808,19	1853,41
808,36	1789,92
808,54	1681,38
808,71	1671,14
808,88	1697,77
809,06	1775,59
809,23	1769,44
809,40	1638,38
809,58	1728,49
809,75	1669,09
809,92	1587,18
810,10	1779,68
810,27	1675,24
810,44	1640,42
810,62	1724,39
810,79	1734,63
810,96	1732,58
811,14	1683,43
811,31	1675,24
811,48	1701,86
811,66	1695,72
811,83	1779,68
812,00	1736,68
812,18	1783,78
812,35	1894,37
812,52	1718,25
812,69	1730,53
812,87	1617,90
813,04	1624,04
813,21	1640,42
813,39	1705,96
813,56	1638,38
813,73	1703,91
813,91	1642,47
814,08	1675,24
814,25	1656,81
814,42	1689,57
814,60	1748,97
814,77	1693,67
814,94	1781,73
815,12	1691,62
815,29	1820,64
815,46	1660,90
815,63	1710,05
815,81	1667,05
815,98	1634,28
816,15	1759,21
816,33	1714,15
816,50	1730,53
816,67	1644,52
816,84	1656,81
817,02	1597,42
817,19	1578,98
817,36	1705,96
817,53	1662,95
817,71	1652,71
817,88	1763,30
818,05	1691,62
818,22	1705,96
818,40	1761,25
818,57	1740,77
818,74	1751,01
818,91	1730,53
819,09	1757,16
819,26	1736,68
819,43	1665,00
819,60	1638,38
819,78	1628,14
819,95	1777,64
820,12	1640,42
820,29	1761,25
820,47	1667,05
820,64	1675,24
820,81	1615,85
820,98	1640,42
821,15	1599,46
821,33	1783,78
821,50	1607,66
821,67	1687,53
821,84	1665,00
822,02	1757,16
822,19	1753,06
822,36	1687,53
822,53	1703,91
822,70	1644,52
822,88	1759,21
823,05	1804,26
823,22	1630,18
823,39	1755,11
823,56	1687,53
823,74	1740,77
823,91	1658,85
824,08	1619,94
824,25	1634,28
824,42	1742,82
824,60	1673,19
824,77	1689,57
824,94	1685,48
825,11	1667,05
825,28	1611,75
825,45	1716,20
825,63	1744,87
825,80	1718,25
825,97	1730,53
826,14	1693,67
826,31	1591,27
826,48	1732,58
826,66	1654,76
826,83	1693,67
827,00	1648,61
827,17	1658,85
827,34	1726,44
827,51	1722,34
827,69	1695,72
827,86	1632,23
828,03	1746,92
828,20	1753,06
828,37	1648,61
828,54	1714,15
828,71	1660,90
828,89	1740,77
829,06	1617,90
829,23	1779,68
829,40	1652,71
829,57	1613,80
829,74	1746,92
829,91	1701,86
830,09	1632,23
830,26	1771,49
830,43	1806,31
830,60	1667,05
830,77	1777,64
830,94	1787,88
831,11	1738,73
831,28	1669,09
831,46	1839,08
831,63	1652,71
831,80	1720,29
831,97	1634,28
832,14	1660,90
832,31	1708,01
832,48	1740,77
832,65	1685,48
832,82	1716,20
832,99	1742,82
833,17	1685,48
833,34	1830,88
833,51	1767,40
833,68	1568,74
833,85	1705,96
834,02	1636,33
834,19	1615,85
834,36	1683,43
834,53	1712,10
834,70	1769,44
834,87	1656,81
835,04	1720,29
835,22	1689,57
835,39	1662,95
835,56	1669,09
835,73	1734,63
835,90	1732,58
836,07	1593,32
836,24	1728,49
836,41	1697,77
836,58	1640,42
836,75	1699,81
836,92	1652,71
837,09	1640,42
837,26	1783,78
837,43	1654,76
837,60	1669,09
837,77	1675,24
837,94	1732,58
838,12	1814,50
838,29	1630,18
838,46	1632,23
838,63	1609,70
838,80	1738,73
838,97	1742,82
839,14	1816,55
839,31	1734,63
839,48	1708,01
839,65	1578,98
839,82	1773,54
839,99	1730,53
840,16	1619,94
840,33	1601,51
840,50	1746,92
840,67	1732,58
840,84	1652,71
841,01	1662,95
841,18	1621,99
841,35	1699,81
841,52	1687,53
841,69	1785,83
841,86	1732,58
842,03	1685,48
842,20	1759,21
842,37	1632,23
842,54	1705,96
842,71	1712,10
842,88	1605,61
843,05	1714,15
843,22	1652,71
843,39	1771,49
843,56	1675,24
843,73	1634,28
843,90	1699,81
844,07	1738,73
844,24	1662,95
844,41	1730,53
844,58	1665,00
844,75	1699,81
844,92	1748,97
845,09	1751,01
845,26	1628,14
845,43	1730,53
845,60	1712,10
845,77	1705,96
845,94	1755,11
846,10	1638,38
846,27	1544,17
846,44	1599,46
846,61	1714,15
846,78	1757,16
846,95	1781,73
847,12	1685,48
847,29	1689,57
847,46	1716,20
847,63	1718,25
847,80	1615,85
847,97	1662,95
848,14	1804,26
848,31	1738,73
848,48	1589,22
848,65	1683,43
848,82	1656,81
848,98	1837,03
849,15	1652,71
849,32	1755,11
849,49	1742,82
849,66	1738,73
849,83	1685,48
850,00	1660,90
850,17	1730,53
850,34	1712,10
850,51	1673,19
850,68	1662,95
850,85	1810,40
851,01	1726,44
851,18	1753,06
851,35	1773,54
851,52	1716,20
851,69	1783,78
851,86	1718,25
852,03	1755,11
852,20	1742,82
852,37	1689,57
852,53	1548,26
852,70	1718,25
852,87	1714,15
853,04	1763,30
853,21	1691,62
853,38	1767,40
853,55	1732,58
853,72	1787,88
853,89	1628,14
854,05	1648,61
854,22	1681,38
854,39	1673,19
854,56	1730,53
854,73	1816,55
854,90	1654,76
855,07	1699,81
855,23	1673,19
855,40	1683,43
855,57	1619,94
855,74	1554,41
855,91	1873,89
856,08	1619,94
856,25	1673,19
856,41	1638,38
856,58	1617,90
856,75	1742,82
856,92	1669,09
857,09	1724,39
857,26	1640,42
857,42	1683,43
857,59	1669,09
857,76	1658,85
857,93	1718,25
858,10	1726,44
858,27	1662,95
858,43	1654,76
858,60	1607,66
858,77	1605,61
858,94	1624,04
859,11	1759,21
859,27	1615,85
859,44	1675,24
859,61	1787,88
859,78	1705,96
859,95	1550,31
860,12	1626,09
860,28	1820,64
860,45	1804,26
860,62	1636,33
860,79	1656,81
860,95	1652,71
861,12	1675,24
861,29	1681,38
861,46	1675,24
861,63	1671,14
861,79	1687,53
861,96	1667,05
862,13	1720,29
862,30	1761,25
862,47	1644,52
862,63	1607,66
862,80	1751,01
862,97	1726,44
863,14	1714,15
863,30	1710,05
863,47	1644,52
863,64	1761,25
863,81	1728,49
863,97	1640,42
864,14	1763,30
864,31	1699,81
864,48	1685,48
864,65	1730,53
864,81	1732,58
864,98	1753,06
865,15	1675,24
865,32	1800,16
865,48	1746,92
865,65	1769,44
865,82	1654,76
865,98	1736,68
866,15	1767,40
866,32	1697,77
866,49	1640,42
866,65	1701,86
866,82	1667,05
866,99	1751,01
867,16	1673,19
867,32	1630,18
867,49	1619,94
867,66	1585,13
867,83	1648,61
867,99	1624,04
868,16	1619,94
868,33	1611,75
868,49	1763,30
868,66	1617,90
868,83	1714,15
868,99	1656,81
869,16	1744,87
869,33	1746,92
869,50	1710,05
869,66	1634,28
869,83	1632,23
870,00	1671,14
870,16	1677,29
870,33	1691,62
870,50	1744,87
870,66	1726,44
870,83	1753,06
871,00	1695,72
871,17	1677,29
871,33	1703,91
871,50	1714,15
871,67	1722,34
871,83	1714,15
872,00	1810,40
872,17	1708,01
872,33	1818,60
872,50	1734,63
872,67	1642,47
872,83	1665,00
873,00	1665,00
873,17	1658,85
873,33	1693,67
873,50	1728,49
873,67	1632,23
873,83	1730,53
874,00	1728,49
874,16	1695,72
874,33	1624,04
874,50	1574,89
874,66	1648,61
874,83	1726,44
875,00	1785,83
875,16	1834,98
875,33	1744,87
875,50	1482,73
875,66	1650,66
875,83	1726,44
875,99	1730,53
876,16	1695,72
876,33	1585,13
876,49	1665,00
876,66	1710,05
876,83	1679,33
876,99	1662,95
877,16	1689,57
877,32	1683,43
877,49	1685,48
877,66	1660,90
877,82	1800,16
877,99	1685,48
878,15	1740,77
878,32	1763,30
878,49	1683,43
878,65	1630,18
878,82	1781,73
878,98	1662,95
879,15	1755,11
879,32	1669,09
879,48	1748,97
879,65	1673,19
879,81	1644,52
879,98	1728,49
880,15	1634,28
880,31	1718,25
880,48	1617,90
880,64	1705,96
880,81	1806,31
880,97	1736,68
881,14	1685,48
881,31	1644,52
881,47	1826,79
881,64	1597,42
881,80	1589,22
881,97	1779,68
882,13	1722,34
882,30	1671,14
882,47	1689,57
882,63	1597,42
882,80	1703,91
882,96	1665,00
883,13	1652,71
883,29	1708,01
883,46	1748,97
883,62	1753,06
883,79	1740,77
883,95	1734,63
884,12	1748,97
884,29	1726,44
884,45	1650,66
884,62	1691,62
884,78	1597,42
884,95	1832,93
885,11	1716,20
885,28	1642,47
885,44	1673,19
885,61	1722,34
885,77	1763,30
885,94	1718,25
886,10	1705,96
886,27	1720,29
886,43	1787,88
886,60	1738,73
886,76	1660,90
886,93	1726,44
887,09	1703,91
887,26	1619,94
887,42	1652,71
887,59	1697,77
887,75	1867,75
887,92	1748,97
888,08	1687,53
888,25	1877,99
888,41	1730,53
888,58	1757,16
888,74	1697,77
888,91	1751,01
>>>>>End Processed Spectral Data<<<<<
