SpectraSuite Data File
++++++++++++++++++++++++++++++++++++
Date: Mon Jun 06 13:29:57 CEST 2016
User: root
Dark Spectrum Present: No
Reference Spectrum Present: No
Number of Sampled Component Spectra: 1
Spectrometers: USB4C02835
Integration Time (usec): 100000 (USB4C02835)
Spectra Averaged: 1 (USB4C02835)
Boxcar Smoothing: 0 (USB4C02835)
Correct for Electrical Dark: No (USB4C02835)
Strobe/Lamp Enabled: No (USB4C02835)
Correct for Detector Non-linearity: No (USB4C02835)
Correct for Stray Light: No (USB4C02835)
Number of Pixels in Processed Spectrum: 3648
>>>>>Begin Processed Spectral Data<<<<<
177,47	1443,82
177,69	1443,82
177,91	1443,82
178,13	1495,02
178,36	1562,60
178,58	1611,75
178,80	1697,77
179,02	1660,90
179,24	1665,00
179,46	1679,33
179,68	1828,84
179,90	1599,46
180,13	1693,67
180,35	1732,58
180,57	1718,25
180,79	1736,68
181,01	1689,57
181,23	1769,44
181,45	1787,88
181,67	1712,10
181,90	1796,07
182,12	1652,71
182,34	1642,47
182,56	1720,29
182,78	1705,96
183,00	1722,34
183,22	1746,92
183,44	1533,93
183,66	1845,22
183,89	1755,11
184,11	1677,29
184,33	1714,15
184,55	1800,16
184,77	1724,39
184,99	1671,14
185,21	1654,76
185,43	1804,26
185,65	1673,19
185,87	1710,05
186,10	1875,94
186,32	1812,45
186,54	1740,77
186,76	1695,72
186,98	1855,46
187,20	1726,44
187,42	1656,81
187,64	1681,38
187,86	1753,06
188,08	1722,34
188,30	1701,86
188,52	1751,01
188,75	1800,16
188,97	1742,82
189,19	1705,96
189,41	1726,44
189,63	1716,20
189,85	1646,57
190,07	1544,17
190,29	1607,66
190,51	1701,86
190,73	1699,81
190,95	1703,91
191,17	1697,77
191,39	1650,66
191,61	1667,05
191,84	1587,18
192,06	1714,15
192,28	1601,51
192,50	1800,16
192,72	1683,43
192,94	1691,62
193,16	1697,77
193,38	1638,38
193,60	1656,81
193,82	1613,80
194,04	1757,16
194,26	1671,14
194,48	1697,77
194,70	1656,81
194,92	1660,90
195,14	1744,87
195,36	1689,57
195,58	1705,96
195,80	1634,28
196,02	1648,61
196,24	1638,38
196,46	1609,70
196,69	1656,81
196,91	1816,55
197,13	1613,80
197,35	1615,85
197,57	1794,02
197,79	1796,07
198,01	1759,21
198,23	1665,00
198,45	1724,39
198,67	1669,09
198,89	1712,10
199,11	1804,26
199,33	1708,01
199,55	1566,70
199,77	1701,86
199,99	1787,88
200,21	1681,38
200,43	1701,86
200,65	1699,81
200,87	1648,61
201,09	1697,77
201,31	1675,24
201,53	1742,82
201,75	1767,40
201,97	1742,82
202,19	1673,19
202,41	1736,68
202,63	1787,88
202,85	1673,19
203,07	1736,68
203,29	1744,87
203,51	1654,76
203,73	1599,46
203,95	1908,71
204,17	1734,63
204,39	1701,86
204,61	1662,95
204,83	1636,33
205,05	1763,30
205,27	1738,73
205,49	1820,64
205,71	1665,00
205,93	1615,85
206,15	1679,33
206,37	1703,91
206,59	1697,77
206,81	1689,57
207,03	1671,14
207,25	1621,99
207,47	1730,53
207,69	1662,95
207,91	1783,78
208,13	1769,44
208,34	1607,66
208,56	1603,56
208,78	1734,63
209,00	1728,49
209,22	1658,85
209,44	1681,38
209,66	1624,04
209,88	1683,43
210,10	1644,52
210,32	1728,49
210,54	1779,68
210,76	1689,57
210,98	1734,63
211,20	1552,36
211,42	1724,39
211,64	1730,53
211,86	1730,53
212,08	1718,25
212,30	1755,11
212,52	1744,87
212,74	1736,68
212,96	1708,01
213,17	1775,59
213,39	1746,92
213,61	1705,96
213,83	1656,81
214,05	1658,85
214,27	1730,53
214,49	1658,85
214,71	1595,37
214,93	1824,74
215,15	1697,77
215,37	1691,62
215,59	1595,37
215,81	1732,58
216,03	1822,69
216,24	1650,66
216,46	1714,15
216,68	1714,15
216,90	1669,09
217,12	1738,73
217,34	1689,57
217,56	1753,06
217,78	1728,49
218,00	1806,31
218,22	1681,38
218,44	1699,81
218,66	1730,53
218,87	1753,06
219,09	1724,39
219,31	1683,43
219,53	1697,77
219,75	1665,00
219,97	1710,05
220,19	1751,01
220,41	1679,33
220,63	1716,20
220,85	1703,91
221,06	1607,66
221,28	1714,15
221,50	1730,53
221,72	1746,92
221,94	1648,61
222,16	1695,72
222,38	1767,40
222,60	1794,02
222,82	1665,00
223,03	1730,53
223,25	1665,00
223,47	1779,68
223,69	1783,78
223,91	1726,44
224,13	1685,48
224,35	1603,56
224,57	1740,77
224,78	1714,15
225,00	1615,85
225,22	1738,73
225,44	1712,10
225,66	1771,49
225,88	1695,72
226,10	1683,43
226,32	1705,96
226,53	1824,74
226,75	1671,14
226,97	1677,29
227,19	1732,58
227,41	1624,04
227,63	1708,01
227,85	1636,33
228,06	1703,91
228,28	1673,19
228,50	1777,64
228,72	1652,71
228,94	1660,90
229,16	1548,26
229,37	1634,28
229,59	1607,66
229,81	1794,02
230,03	1787,88
230,25	1581,03
230,47	1626,09
230,69	1677,29
230,90	1841,12
231,12	1578,98
231,34	1679,33
231,56	1753,06
231,78	1568,74
232,00	1738,73
232,21	1736,68
232,43	1640,42
232,65	1591,27
232,87	1755,11
233,09	1665,00
233,30	1607,66
233,52	1699,81
233,74	1751,01
233,96	1738,73
234,18	1742,82
234,40	1673,19
234,61	1826,79
234,83	1621,99
235,05	1646,57
235,27	1871,84
235,49	1712,10
235,70	1679,33
235,92	1732,58
236,14	1619,94
236,36	1845,22
236,58	1632,23
236,79	1685,48
237,01	1654,76
237,23	1730,53
237,45	1765,35
237,67	1691,62
237,88	1648,61
238,10	1748,97
238,32	1658,85
238,54	1705,96
238,76	1714,15
238,97	1697,77
239,19	1742,82
239,41	1718,25
239,63	1787,88
239,85	1648,61
240,06	1660,90
240,28	1693,67
240,50	1734,63
240,72	1685,48
240,93	1669,09
241,15	1757,16
241,37	1734,63
241,59	1853,41
241,81	1650,66
242,02	1681,38
242,24	1726,44
242,46	1654,76
242,68	1683,43
242,89	1761,25
243,11	1689,57
243,33	1730,53
243,55	1697,77
243,76	1730,53
243,98	1712,10
244,20	1710,05
244,42	1681,38
244,64	1644,52
244,85	1652,71
245,07	1607,66
245,29	1748,97
245,51	1732,58
245,72	1669,09
245,94	1826,79
246,16	1796,07
246,38	1685,48
246,59	1626,09
246,81	1617,90
247,03	1736,68
247,24	1546,22
247,46	1646,57
247,68	1685,48
247,90	1673,19
248,11	1626,09
248,33	1787,88
248,55	1740,77
248,77	1646,57
248,98	1730,53
249,20	1779,68
249,42	1689,57
249,64	1796,07
249,85	1662,95
250,07	1675,24
250,29	1761,25
250,50	1746,92
250,72	1607,66
250,94	1699,81
251,16	1837,03
251,37	1806,31
251,59	1726,44
251,81	1718,25
252,02	1734,63
252,24	1683,43
252,46	1693,67
252,68	1665,00
252,89	1699,81
253,11	1636,33
253,33	1775,59
253,54	1832,93
253,76	1732,58
253,98	1656,81
254,20	1671,14
254,41	1548,26
254,63	1738,73
254,85	1570,79
255,06	1718,25
255,28	1710,05
255,50	1650,66
255,71	1619,94
255,93	1615,85
256,15	1701,86
256,36	1665,00
256,58	1665,00
256,80	1757,16
257,02	1734,63
257,23	1667,05
257,45	1691,62
257,67	1746,92
257,88	1693,67
258,10	1648,61
258,32	1671,14
258,53	1744,87
258,75	1769,44
258,97	1748,97
259,18	1648,61
259,40	1648,61
259,62	1761,25
259,83	1689,57
260,05	1712,10
260,27	1923,04
260,48	1732,58
260,70	1695,72
260,92	1656,81
261,13	1744,87
261,35	1714,15
261,57	1646,57
261,78	1628,14
262,00	1685,48
262,22	1724,39
262,43	1658,85
262,65	1656,81
262,86	1718,25
263,08	1783,78
263,30	1644,52
263,51	1632,23
263,73	1667,05
263,95	1880,04
264,16	1638,38
264,38	1675,24
264,60	1718,25
264,81	1708,01
265,03	1681,38
265,25	1693,67
265,46	1671,14
265,68	1742,82
265,89	1726,44
266,11	1578,98
266,33	1677,29
266,54	1724,39
266,76	1763,30
266,98	1732,58
267,19	1732,58
267,41	1800,16
267,62	1761,25
267,84	1617,90
268,06	1730,53
268,27	1691,62
268,49	1765,35
268,70	1740,77
268,92	1681,38
269,14	1607,66
269,35	1572,84
269,57	1681,38
269,79	1818,60
270,00	1734,63
270,22	1845,22
270,43	1626,09
270,65	1595,37
270,87	1671,14
271,08	1716,20
271,30	1781,73
271,51	1767,40
271,73	1791,97
271,95	1757,16
272,16	1765,35
272,38	1697,77
272,59	1691,62
272,81	1654,76
273,02	1630,18
273,24	1679,33
273,46	1724,39
273,67	1722,34
273,89	1687,53
274,10	1640,42
274,32	1685,48
274,54	1667,05
274,75	1779,68
274,97	1695,72
275,18	1669,09
275,40	1746,92
275,61	1697,77
275,83	1675,24
276,05	1626,09
276,26	1656,81
276,48	1767,40
276,69	1660,90
276,91	1658,85
277,12	1748,97
277,34	1853,41
277,55	1740,77
277,77	1660,90
277,99	1648,61
278,20	1671,14
278,42	1642,47
278,63	1560,55
278,85	1570,79
279,06	1605,61
279,28	1683,43
279,49	1769,44
279,71	1603,56
279,93	1644,52
280,14	1697,77
280,36	1691,62
280,57	1738,73
280,79	1695,72
281,00	1642,47
281,22	1683,43
281,43	1748,97
281,65	1570,79
281,86	1667,05
282,08	1759,21
282,29	1853,41
282,51	1628,14
282,73	1621,99
282,94	1681,38
283,16	1746,92
283,37	1820,64
283,59	1685,48
283,80	1683,43
284,02	1746,92
284,23	1710,05
284,45	1705,96
284,66	1710,05
284,88	1636,33
285,09	1615,85
285,31	1742,82
285,52	1748,97
285,74	1585,13
285,95	1730,53
286,17	1667,05
286,38	1732,58
286,60	1613,80
286,81	1667,05
287,03	1738,73
287,24	1716,20
287,46	1728,49
287,67	1714,15
287,89	1869,80
288,10	1708,01
288,32	1740,77
288,53	1802,21
288,75	1685,48
288,96	1699,81
289,18	1708,01
289,39	1734,63
289,61	1732,58
289,82	1828,84
290,04	1763,30
290,25	1619,94
290,47	1710,05
290,68	1662,95
290,90	1796,07
291,11	1585,13
291,33	1720,29
291,54	1673,19
291,76	1644,52
291,97	1726,44
292,18	1675,24
292,40	1722,34
292,61	1613,80
292,83	1834,98
293,04	1687,53
293,26	1671,14
293,47	1730,53
293,69	1626,09
293,90	1675,24
294,12	1734,63
294,33	1673,19
294,55	1642,47
294,76	1742,82
294,97	1720,29
295,19	1841,12
295,40	1681,38
295,62	1724,39
295,83	1757,16
296,05	1619,94
296,26	1703,91
296,48	1695,72
296,69	1685,48
296,90	1646,57
297,12	1757,16
297,33	1714,15
297,55	1660,90
297,76	1748,97
297,98	1691,62
298,19	1740,77
298,41	1697,77
298,62	1601,51
298,83	1771,49
299,05	1685,48
299,26	1656,81
299,48	1703,91
299,69	1734,63
299,90	1755,11
300,12	1736,68
300,33	1710,05
300,55	1728,49
300,76	1718,25
300,98	1648,61
301,19	1607,66
301,40	1710,05
301,62	1667,05
301,83	1814,50
302,05	1681,38
302,26	1740,77
302,47	1662,95
302,69	1568,74
302,90	1656,81
303,12	1576,94
303,33	1812,45
303,54	1775,59
303,76	1683,43
303,97	1685,48
304,19	1845,22
304,40	1683,43
304,61	1812,45
304,83	1777,64
305,04	1773,54
305,26	1718,25
305,47	1636,33
305,68	1605,61
305,90	1599,46
306,11	1710,05
306,33	1689,57
306,54	1662,95
306,75	1716,20
306,97	1611,75
307,18	1632,23
307,39	1697,77
307,61	1826,79
307,82	1683,43
308,04	1718,25
308,25	1689,57
308,46	1751,01
308,68	1689,57
308,89	1679,33
309,10	1773,54
309,32	1652,71
309,53	1699,81
309,74	1720,29
309,96	1722,34
310,17	1722,34
310,39	1679,33
310,60	1656,81
310,81	1722,34
311,03	1685,48
311,24	1769,44
311,45	1726,44
311,67	1720,29
311,88	1730,53
312,09	1708,01
312,31	1615,85
312,52	1681,38
312,73	1728,49
312,95	1591,27
313,16	1624,04
313,37	1787,88
313,59	1697,77
313,80	1695,72
314,01	1681,38
314,23	1665,00
314,44	1605,61
314,65	1613,80
314,87	1667,05
315,08	1660,90
315,29	1652,71
315,51	1656,81
315,72	1654,76
315,93	1785,83
316,15	1703,91
316,36	1642,47
316,57	1671,14
316,79	1697,77
317,00	1648,61
317,21	1730,53
317,43	1636,33
317,64	1755,11
317,85	1619,94
318,07	1621,99
318,28	1722,34
318,49	1802,21
318,70	1894,37
318,92	1796,07
319,13	1824,74
319,34	1832,93
319,56	1783,78
319,77	1826,79
319,98	1798,12
320,20	1767,40
320,41	1728,49
320,62	1669,09
320,83	1675,24
321,05	1839,08
321,26	1695,72
321,47	1636,33
321,69	1759,21
321,90	1583,08
322,11	1673,19
322,32	1748,97
322,54	1751,01
322,75	1714,15
322,96	1834,98
323,18	1687,53
323,39	1603,56
323,60	1591,27
323,81	1716,20
324,03	1665,00
324,24	1671,14
324,45	1714,15
324,66	1679,33
324,88	1748,97
325,09	1718,25
325,30	1683,43
325,52	1738,73
325,73	1693,67
325,94	1626,09
326,15	1585,13
326,37	1662,95
326,58	1742,82
326,79	1763,30
327,00	1660,90
327,22	1685,48
327,43	1695,72
327,64	1601,51
327,85	1761,25
328,07	1732,58
328,28	1767,40
328,49	1705,96
328,70	1656,81
328,92	1708,01
329,13	1708,01
329,34	1746,92
329,55	1857,51
329,76	1708,01
329,98	1728,49
330,19	1865,70
330,40	1730,53
330,61	1730,53
330,83	1759,21
331,04	1701,86
331,25	1611,75
331,46	1648,61
331,68	1636,33
331,89	1769,44
332,10	1667,05
332,31	1632,23
332,52	1621,99
332,74	1708,01
332,95	1591,27
333,16	1708,01
333,37	1671,14
333,58	1675,24
333,80	1673,19
334,01	1560,55
334,22	1673,19
334,43	1632,23
334,64	1646,57
334,86	1583,08
335,07	1695,72
335,28	1748,97
335,49	1628,14
335,70	1703,91
335,92	1787,88
336,13	1794,02
336,34	1722,34
336,55	1699,81
336,76	1724,39
336,98	1646,57
337,19	1738,73
337,40	1796,07
337,61	1863,65
337,82	1648,61
338,04	1722,34
338,25	1626,09
338,46	1738,73
338,67	1710,05
338,88	1581,03
339,09	1660,90
339,31	1744,87
339,52	1652,71
339,73	1613,80
339,94	1697,77
340,15	1753,06
340,36	1648,61
340,58	1669,09
340,79	1701,86
341,00	1681,38
341,21	1665,00
341,42	1755,11
341,63	1677,29
341,85	1781,73
342,06	1732,58
342,27	1689,57
342,48	1751,01
342,69	1589,22
342,90	1732,58
343,12	1755,11
343,33	1619,94
343,54	1755,11
343,75	1712,10
343,96	1740,77
344,17	1634,28
344,38	1718,25
344,60	1677,29
344,81	1628,14
345,02	1734,63
345,23	1767,40
345,44	1843,17
345,65	1724,39
345,86	1681,38
346,07	1781,73
346,29	1671,14
346,50	1781,73
346,71	1726,44
346,92	1761,25
347,13	1814,50
347,34	1648,61
347,55	1697,77
347,76	1771,49
347,98	1621,99
348,19	1669,09
348,40	1787,88
348,61	1665,00
348,82	1755,11
349,03	1757,16
349,24	1615,85
349,45	1787,88
349,66	1603,56
349,88	1624,04
350,09	1722,34
350,30	1773,54
350,51	1789,92
350,72	1748,97
350,93	1763,30
351,14	1595,37
351,35	1718,25
351,56	1736,68
351,77	1679,33
351,99	1708,01
352,20	1732,58
352,41	1808,36
352,62	1558,50
352,83	1705,96
353,04	1689,57
353,25	1611,75
353,46	1677,29
353,67	1658,85
353,88	1662,95
354,09	1724,39
354,30	1718,25
354,52	1728,49
354,73	1724,39
354,94	1673,19
355,15	1759,21
355,36	1812,45
355,57	1685,48
355,78	1697,77
355,99	1740,77
356,20	1671,14
356,41	1722,34
356,62	1732,58
356,83	1800,16
357,04	1767,40
357,25	1585,13
357,46	1617,90
357,68	1611,75
357,89	1632,23
358,10	1728,49
358,31	1683,43
358,52	1640,42
358,73	1644,52
358,94	1566,70
359,15	1636,33
359,36	1732,58
359,57	1748,97
359,78	1699,81
359,99	1695,72
360,20	1615,85
360,41	1632,23
360,62	1722,34
360,83	1687,53
361,04	1687,53
361,25	1710,05
361,46	1755,11
361,67	1701,86
361,88	1761,25
362,09	1783,78
362,30	1732,58
362,51	1609,70
362,72	1701,86
362,93	1718,25
363,14	1710,05
363,35	1730,53
363,56	1648,61
363,78	1783,78
363,99	1814,50
364,20	1685,48
364,41	1728,49
364,62	1832,93
364,83	1689,57
365,04	1681,38
365,25	1609,70
365,46	1816,55
365,67	1689,57
365,88	1589,22
366,09	1624,04
366,30	1753,06
366,51	1675,24
366,72	1599,46
366,93	1722,34
367,14	1718,25
367,35	1771,49
367,56	1665,00
367,77	1736,68
367,98	1714,15
368,18	1675,24
368,39	1673,19
368,60	1693,67
368,81	1724,39
369,02	1732,58
369,23	1667,05
369,44	1681,38
369,65	1722,34
369,86	1710,05
370,07	1783,78
370,28	1689,57
370,49	1744,87
370,70	1730,53
370,91	1570,79
371,12	1634,28
371,33	1697,77
371,54	1669,09
371,75	1773,54
371,96	1630,18
372,17	1662,95
372,38	1718,25
372,59	1744,87
372,80	1656,81
373,01	1734,63
373,22	1726,44
373,43	1689,57
373,64	1630,18
373,85	1720,29
374,06	1818,60
374,26	1703,91
374,47	1812,45
374,68	1771,49
374,89	1695,72
375,10	1730,53
375,31	1720,29
375,52	1658,85
375,73	1673,19
375,94	1601,51
376,15	1820,64
376,36	1665,00
376,57	1624,04
376,78	1689,57
376,99	1728,49
377,20	1808,36
377,40	1701,86
377,61	1808,36
377,82	1613,80
378,03	1804,26
378,24	1705,96
378,45	1613,80
378,66	1720,29
378,87	1691,62
379,08	1619,94
379,29	1755,11
379,50	1875,94
379,71	1689,57
379,91	1724,39
380,12	1636,33
380,33	1728,49
380,54	1693,67
380,75	1740,77
380,96	1656,81
381,17	1681,38
381,38	1683,43
381,59	1675,24
381,80	1794,02
382,00	1818,60
382,21	1720,29
382,42	1781,73
382,63	1869,80
382,84	1687,53
383,05	1722,34
383,26	1785,83
383,47	1695,72
383,68	1722,34
383,88	1736,68
384,09	1746,92
384,30	1853,41
384,51	1730,53
384,72	1685,48
384,93	1693,67
385,14	1708,01
385,35	1738,73
385,55	1595,37
385,76	1748,97
385,97	1683,43
386,18	1640,42
386,39	1587,18
386,60	1757,16
386,81	1671,14
387,02	1548,26
387,22	1599,46
387,43	1730,53
387,64	1812,45
387,85	1855,46
388,06	2230,24
388,27	4220,86
388,48	6811,54
388,68	8087,43
388,89	9717,61
389,10	9746,28
389,31	8564,61
389,52	7597,96
389,73	6643,61
389,93	6289,31
390,14	5830,57
390,35	5191,60
390,56	4540,35
390,77	3719,11
390,98	3008,47
391,18	2549,72
391,39	2107,36
391,60	1853,41
391,81	1873,89
392,02	1673,19
392,23	1861,60
392,43	1722,34
392,64	1847,27
392,85	1697,77
393,06	1794,02
393,27	1738,73
393,47	1689,57
393,68	1718,25
393,89	1746,92
394,10	1781,73
394,31	1681,38
394,52	1697,77
394,72	1693,67
394,93	1775,59
395,14	1650,66
395,35	1708,01
395,56	1599,46
395,76	1738,73
395,97	1763,30
396,18	1787,88
396,39	1853,41
396,60	2041,82
396,80	1892,32
397,01	1914,85
397,22	1734,63
397,43	1814,50
397,64	1665,00
397,84	1822,69
398,05	1832,93
398,26	1705,96
398,47	1781,73
398,67	1777,64
398,88	1644,52
399,09	1689,57
399,30	1806,31
399,51	1757,16
399,71	1652,71
399,92	1681,38
400,13	1755,11
400,34	1673,19
400,54	1767,40
400,75	1738,73
400,96	1726,44
401,17	1771,49
401,37	1712,10
401,58	1652,71
401,79	1689,57
402,00	1910,75
402,21	2002,91
402,41	1970,15
402,62	1968,10
402,83	2000,87
403,04	1951,71
403,24	2090,98
403,45	1824,74
403,66	1898,47
403,87	1855,46
404,07	1845,22
404,28	1892,32
404,49	1927,14
404,70	1773,54
404,90	1781,73
405,11	1777,64
405,32	1728,49
405,52	1665,00
405,73	1660,90
405,94	1605,61
406,15	1669,09
406,35	1767,40
406,56	1716,20
406,77	1615,85
406,98	1705,96
407,18	1705,96
407,39	1857,51
407,60	1595,37
407,80	1753,06
408,01	1654,76
408,22	1740,77
408,43	1722,34
408,63	1677,29
408,84	1734,63
409,05	1794,02
409,25	1683,43
409,46	1716,20
409,67	1681,38
409,88	1681,38
410,08	1689,57
410,29	1744,87
410,50	1714,15
410,70	1757,16
410,91	1624,04
411,12	1765,35
411,32	1699,81
411,53	1687,53
411,74	1767,40
411,95	1849,32
412,15	1798,12
412,36	1660,90
412,57	1699,81
412,77	1802,21
412,98	1658,85
413,19	1740,77
413,39	1732,58
413,60	1738,73
413,81	1810,40
414,01	1628,14
414,22	1699,81
414,43	1781,73
414,63	1697,77
414,84	1705,96
415,05	1714,15
415,25	1662,95
415,46	1732,58
415,67	1701,86
415,87	1695,72
416,08	1695,72
416,29	1734,63
416,49	1748,97
416,70	1755,11
416,91	1665,00
417,11	1703,91
417,32	1755,11
417,53	1744,87
417,73	1716,20
417,94	1726,44
418,15	1660,90
418,35	1738,73
418,56	1677,29
418,77	1847,27
418,97	1630,18
419,18	1611,75
419,38	1562,60
419,59	1691,62
419,80	1763,30
420,00	1624,04
420,21	1689,57
420,42	1726,44
420,62	1697,77
420,83	1718,25
421,04	1722,34
421,24	1638,38
421,45	1687,53
421,65	1716,20
421,86	1595,37
422,07	1685,48
422,27	1689,57
422,48	1689,57
422,69	1615,85
422,89	1669,09
423,10	1701,86
423,30	1679,33
423,51	1677,29
423,72	1734,63
423,92	1687,53
424,13	1662,95
424,33	1646,57
424,54	1740,77
424,75	1677,29
424,95	1871,84
425,16	1742,82
425,36	1677,29
425,57	1736,68
425,78	1738,73
425,98	1759,21
426,19	1681,38
426,39	1630,18
426,60	1705,96
426,81	1818,60
427,01	1634,28
427,22	1687,53
427,42	1609,70
427,63	1673,19
427,83	1748,97
428,04	1767,40
428,25	1685,48
428,45	1796,07
428,66	1851,36
428,86	1640,42
429,07	1716,20
429,28	1650,66
429,48	1683,43
429,69	1656,81
429,89	1646,57
430,10	1576,94
430,30	1755,11
430,51	1701,86
430,71	1693,67
430,92	1726,44
431,13	1677,29
431,33	1718,25
431,54	1714,15
431,74	1665,00
431,95	1859,56
432,15	1689,57
432,36	1769,44
432,56	1691,62
432,77	1730,53
432,98	1720,29
433,18	1675,24
433,39	1699,81
433,59	1648,61
433,80	1869,80
434,00	1847,27
434,21	1660,90
434,41	1636,33
434,62	1767,40
434,82	1693,67
435,03	1669,09
435,23	1810,40
435,44	1587,18
435,64	1675,24
435,85	1755,11
436,06	1732,58
436,26	1751,01
436,47	1677,29
436,67	1691,62
436,88	1755,11
437,08	1755,11
437,29	1841,12
437,49	1695,72
437,70	1818,60
437,90	1742,82
438,11	1832,93
438,31	1779,68
438,52	1904,61
438,72	1853,41
438,93	1832,93
439,13	1828,84
439,34	1800,16
439,54	1751,01
439,75	1732,58
439,95	1753,06
440,16	1751,01
440,36	1794,02
440,57	1738,73
440,77	1732,58
440,98	1687,53
441,18	1757,16
441,39	1722,34
441,59	1624,04
441,80	1853,41
442,00	1724,39
442,21	1775,59
442,41	1693,67
442,62	1832,93
442,82	1597,42
443,02	1703,91
443,23	1740,77
443,43	1648,61
443,64	1841,12
443,84	1638,38
444,05	1841,12
444,25	1822,69
444,46	1724,39
444,66	1714,15
444,87	1791,97
445,07	1609,70
445,28	1662,95
445,48	1759,21
445,69	1736,68
445,89	1791,97
446,09	1665,00
446,30	2037,73
446,50	2625,50
446,71	3751,88
446,91	4372,41
447,12	4726,71
447,32	4884,41
447,53	4272,06
447,73	3891,14
447,93	3491,79
448,14	3383,24
448,34	3141,58
448,55	2848,72
448,75	2807,77
448,96	2721,75
449,16	2406,36
449,36	2240,48
449,57	2068,45
449,77	1859,56
449,98	1808,36
450,18	1773,54
450,39	1791,97
450,59	1779,68
450,79	1763,30
451,00	1587,18
451,20	1781,73
451,41	1742,82
451,61	1769,44
451,81	1650,66
452,02	1687,53
452,22	1665,00
452,43	1665,00
452,63	1697,77
452,84	1652,71
453,04	1669,09
453,24	1716,20
453,45	1669,09
453,65	1736,68
453,86	1710,05
454,06	1783,78
454,26	1753,06
454,47	1695,72
454,67	1839,08
454,87	1730,53
455,08	1724,39
455,28	1828,84
455,49	1746,92
455,69	1667,05
455,89	1828,84
456,10	1794,02
456,30	1771,49
456,51	1740,77
456,71	1689,57
456,91	1787,88
457,12	1757,16
457,32	1744,87
457,52	1642,47
457,73	1767,40
457,93	1761,25
458,14	1673,19
458,34	1642,47
458,54	1665,00
458,75	1673,19
458,95	1755,11
459,15	1759,21
459,36	1796,07
459,56	1748,97
459,76	1820,64
459,97	1677,29
460,17	1728,49
460,37	1738,73
460,58	1677,29
460,78	1734,63
460,99	1693,67
461,19	1675,24
461,39	1619,94
461,60	1742,82
461,80	1746,92
462,00	1615,85
462,21	1732,58
462,41	1679,33
462,61	1703,91
462,82	1677,29
463,02	1765,35
463,22	1728,49
463,43	1724,39
463,63	1732,58
463,83	1763,30
464,04	1775,59
464,24	1665,00
464,44	1718,25
464,64	1796,07
464,85	1667,05
465,05	1736,68
465,25	1714,15
465,46	1656,81
465,66	1759,21
465,86	1755,11
466,07	1730,53
466,27	1662,95
466,47	1718,25
466,68	1642,47
466,88	1814,50
467,08	1656,81
467,29	1742,82
467,49	1736,68
467,69	1705,96
467,89	1701,86
468,10	1660,90
468,30	1724,39
468,50	1777,64
468,71	1769,44
468,91	1611,75
469,11	1816,55
469,31	1746,92
469,52	1638,38
469,72	1886,18
469,92	1839,08
470,13	1718,25
470,33	1716,20
470,53	1804,26
470,73	2103,26
470,94	2332,64
471,14	2439,13
471,34	2527,19
471,54	2293,72
471,75	2254,81
471,95	2068,45
472,15	2025,44
472,36	2086,88
472,56	2017,25
472,76	2064,35
472,96	2011,11
473,17	1912,80
473,37	1916,90
473,57	1820,64
473,77	1845,22
473,98	1753,06
474,18	1742,82
474,38	1902,56
474,58	1703,91
474,79	1710,05
474,99	1755,11
475,19	1808,36
475,39	1630,18
475,60	1748,97
475,80	1783,78
476,00	1732,58
476,20	1585,13
476,41	1734,63
476,61	1775,59
476,81	1753,06
477,01	1656,81
477,21	1816,55
477,42	1808,36
477,62	1656,81
477,82	1820,64
478,02	1687,53
478,23	1759,21
478,43	1683,43
478,63	1726,44
478,83	1669,09
479,03	1722,34
479,24	1796,07
479,44	1824,74
479,64	1615,85
479,84	1613,80
480,04	1687,53
480,25	1773,54
480,45	1669,09
480,65	1738,73
480,85	1773,54
481,06	1687,53
481,26	1687,53
481,46	1755,11
481,66	1755,11
481,86	1611,75
482,06	1798,12
482,27	1761,25
482,47	1673,19
482,67	1748,97
482,87	1650,66
483,07	1816,55
483,28	1689,57
483,48	1701,86
483,68	1673,19
483,88	1609,70
484,08	1593,32
484,29	1671,14
484,49	1751,01
484,69	1714,15
484,89	1761,25
485,09	1763,30
485,29	1714,15
485,50	1660,90
485,70	1714,15
485,90	1716,20
486,10	1777,64
486,30	1712,10
486,50	1751,01
486,71	1634,28
486,91	1826,79
487,11	1808,36
487,31	1601,51
487,51	1718,25
487,71	1638,38
487,91	1687,53
488,12	1675,24
488,32	1624,04
488,52	1693,67
488,72	1689,57
488,92	1697,77
489,12	1771,49
489,32	1734,63
489,53	1738,73
489,73	1681,38
489,93	1755,11
490,13	1654,76
490,33	1648,61
490,53	1759,21
490,73	1810,40
490,94	1669,09
491,14	1820,64
491,34	1812,45
491,54	2090,98
491,74	2553,82
491,94	2926,55
492,14	2998,23
492,34	2979,79
492,54	2752,47
492,75	2486,23
492,95	2469,85
493,15	2322,40
493,35	2308,06
493,55	2248,67
493,75	2160,61
493,95	2133,98
494,15	2015,20
494,35	1894,37
494,56	1863,65
494,76	1714,15
494,96	1841,12
495,16	1722,34
495,36	1679,33
495,56	1759,21
495,76	1724,39
495,96	1734,63
496,16	1689,57
496,36	1771,49
496,56	1744,87
496,77	1722,34
496,97	1675,24
497,17	1789,92
497,37	1665,00
497,57	1791,97
497,77	1726,44
497,97	1673,19
498,17	1656,81
498,37	1763,30
498,57	1773,54
498,77	1710,05
498,97	1859,56
499,17	1828,84
499,38	1714,15
499,58	1779,68
499,78	1755,11
499,98	1804,26
500,18	1769,44
500,38	1720,29
500,58	1853,41
500,78	2570,20
500,98	4562,87
501,18	5756,84
501,38	6672,28
501,58	7065,49
501,78	6623,13
501,98	5558,19
502,18	4851,64
502,38	4351,93
502,58	4116,42
502,78	3848,13
502,98	3758,02
503,18	3342,28
503,38	3147,73
503,59	2793,43
503,79	2688,98
503,99	2478,04
504,19	2303,96
504,39	2176,99
504,59	2179,04
504,79	2111,46
504,99	2017,25
505,19	1978,34
505,39	1814,50
505,59	1851,36
505,79	1920,99
505,99	1937,38
506,19	1818,60
506,39	1847,27
506,59	1742,82
506,79	1783,78
506,99	1824,74
507,19	1785,83
507,39	1771,49
507,59	1718,25
507,79	1681,38
507,99	1673,19
508,19	1697,77
508,39	1710,05
508,59	1650,66
508,79	1869,80
508,99	1818,60
509,19	1662,95
509,39	1787,88
509,59	1710,05
509,79	1705,96
509,99	1824,74
510,19	1800,16
510,39	1781,73
510,59	1675,24
510,79	1714,15
510,99	1708,01
511,19	1701,86
511,39	1804,26
511,59	1763,30
511,79	1820,64
511,99	1751,01
512,19	1775,59
512,38	1746,92
512,58	1705,96
512,78	1777,64
512,98	1789,92
513,18	1791,97
513,38	1628,14
513,58	1804,26
513,78	1755,11
513,98	1681,38
514,18	1728,49
514,38	1753,06
514,58	1755,11
514,78	1703,91
514,98	1652,71
515,18	1724,39
515,38	1701,86
515,58	1787,88
515,78	1658,85
515,98	1748,97
516,18	1767,40
516,38	1695,72
516,57	1757,16
516,77	1695,72
516,97	1779,68
517,17	1671,14
517,37	1677,29
517,57	1781,73
517,77	1714,15
517,97	1673,19
518,17	1794,02
518,37	1681,38
518,57	1718,25
518,77	1751,01
518,97	1751,01
519,16	1740,77
519,36	1822,69
519,56	1724,39
519,76	1669,09
519,96	1761,25
520,16	1746,92
520,36	1658,85
520,56	1800,16
520,76	1722,34
520,96	1671,14
521,16	1722,34
521,35	1738,73
521,55	1806,31
521,75	1691,62
521,95	1693,67
522,15	1689,57
522,35	1613,80
522,55	1751,01
522,75	1765,35
522,95	1710,05
523,14	1699,81
523,34	1714,15
523,54	1757,16
523,74	1748,97
523,94	1730,53
524,14	1669,09
524,34	1810,40
524,54	1798,12
524,73	1716,20
524,93	1748,97
525,13	1716,20
525,33	1718,25
525,53	1863,65
525,73	1828,84
525,93	1789,92
526,13	1683,43
526,32	1671,14
526,52	1802,21
526,72	1796,07
526,92	1755,11
527,12	1718,25
527,32	1685,48
527,52	1759,21
527,71	1859,56
527,91	1740,77
528,11	1701,86
528,31	1716,20
528,51	1583,08
528,71	1861,60
528,90	1789,92
529,10	1820,64
529,30	1757,16
529,50	1558,50
529,70	1773,54
529,90	1732,58
530,09	1689,57
530,29	1703,91
530,49	1675,24
530,69	1884,13
530,89	1755,11
531,09	1738,73
531,28	1716,20
531,48	1798,12
531,68	1755,11
531,88	1693,67
532,08	1794,02
532,28	1683,43
532,47	1740,77
532,67	1798,12
532,87	1759,21
533,07	1626,09
533,27	1748,97
533,46	1771,49
533,66	1742,82
533,86	1761,25
534,06	1693,67
534,26	1765,35
534,45	1724,39
534,65	1744,87
534,85	1765,35
535,05	1660,90
535,25	1802,21
535,44	1691,62
535,64	1828,84
535,84	1767,40
536,04	1726,44
536,24	1726,44
536,43	1771,49
536,63	1834,98
536,83	1650,66
537,03	1695,72
537,22	1708,01
537,42	1615,85
537,62	1841,12
537,82	1648,61
538,02	1759,21
538,21	1806,31
538,41	1855,46
538,61	1742,82
538,81	1701,86
539,00	1789,92
539,20	1652,71
539,40	1708,01
539,60	1810,40
539,79	1759,21
539,99	1724,39
540,19	1748,97
540,39	1701,86
540,58	1712,10
540,78	1740,77
540,98	1730,53
541,18	1742,82
541,37	1816,55
541,57	1701,86
541,77	1789,92
541,97	1712,10
542,16	1619,94
542,36	1703,91
542,56	1783,78
542,76	1832,93
542,95	1816,55
543,15	1677,29
543,35	1720,29
543,54	1687,53
543,74	1705,96
543,94	1855,46
544,14	1656,81
544,33	1740,77
544,53	1714,15
544,73	1726,44
544,93	1736,68
545,12	1783,78
545,32	1732,58
545,52	1693,67
545,71	1621,99
545,91	1685,48
546,11	1705,96
546,30	1740,77
546,50	1716,20
546,70	1791,97
546,90	1738,73
547,09	1609,70
547,29	1712,10
547,49	1746,92
547,68	1769,44
547,88	1720,29
548,08	1722,34
548,27	2152,42
548,47	1710,05
548,67	1675,24
548,87	1789,92
549,06	1677,29
549,26	1763,30
549,46	1779,68
549,65	1695,72
549,85	1708,01
550,05	1755,11
550,24	1652,71
550,44	1705,96
550,64	1775,59
550,83	1718,25
551,03	1789,92
551,23	1826,79
551,42	1794,02
551,62	1746,92
551,82	1701,86
552,01	1755,11
552,21	1845,22
552,41	1765,35
552,60	1781,73
552,80	1808,36
553,00	1734,63
553,19	1738,73
553,39	1806,31
553,59	1691,62
553,78	1759,21
553,98	1734,63
554,17	1607,66
554,37	1701,86
554,57	1789,92
554,76	1705,96
554,96	1736,68
555,16	1724,39
555,35	1796,07
555,55	1748,97
555,75	1701,86
555,94	1732,58
556,14	1556,46
556,33	1808,36
556,53	1779,68
556,73	1703,91
556,92	1779,68
557,12	1775,59
557,32	1873,89
557,51	1808,36
557,71	1804,26
557,90	1798,12
558,10	1880,04
558,30	1689,57
558,49	1695,72
558,69	1693,67
558,88	1734,63
559,08	1732,58
559,28	1654,76
559,47	1732,58
559,67	1673,19
559,86	1880,04
560,06	1728,49
560,26	1753,06
560,45	1732,58
560,65	1703,91
560,84	1701,86
561,04	1726,44
561,24	1695,72
561,43	1677,29
561,63	1890,28
561,82	1796,07
562,02	1808,36
562,22	1687,53
562,41	1710,05
562,61	1662,95
562,80	1681,38
563,00	1861,60
563,19	1759,21
563,39	1767,40
563,59	1783,78
563,78	1656,81
563,98	1687,53
564,17	1718,25
564,37	1628,14
564,56	1751,01
564,76	1662,95
564,96	1783,78
565,15	1777,64
565,35	1853,41
565,54	1751,01
565,74	1798,12
565,93	1820,64
566,13	1730,53
566,32	1761,25
566,52	1710,05
566,71	1742,82
566,91	1812,45
567,11	1656,81
567,30	1746,92
567,50	1775,59
567,69	1746,92
567,89	1738,73
568,08	1730,53
568,28	1728,49
568,47	1667,05
568,67	1757,16
568,86	1753,06
569,06	1775,59
569,25	1675,24
569,45	1710,05
569,64	1763,30
569,84	1744,87
570,04	1796,07
570,23	1732,58
570,43	1734,63
570,62	1742,82
570,82	1855,46
571,01	1712,10
571,21	1697,77
571,40	1742,82
571,60	1814,50
571,79	1714,15
571,99	1761,25
572,18	1636,33
572,38	1789,92
572,57	1697,77
572,77	1781,73
572,96	1871,84
573,16	1716,20
573,35	1746,92
573,55	1920,99
573,74	1759,21
573,94	1708,01
574,13	1748,97
574,33	1791,97
574,52	1849,32
574,71	1601,51
574,91	1689,57
575,10	1669,09
575,30	1646,57
575,49	1714,15
575,69	1759,21
575,88	1718,25
576,08	1722,34
576,27	1781,73
576,47	1710,05
576,66	1865,70
576,86	1763,30
577,05	1748,97
577,25	1804,26
577,44	1847,27
577,64	1687,53
577,83	1824,74
578,02	1763,30
578,22	1834,98
578,41	1851,36
578,61	1775,59
578,80	1624,04
579,00	1701,86
579,19	1714,15
579,39	1771,49
579,58	1812,45
579,77	1734,63
579,97	1832,93
580,16	1875,94
580,36	1814,50
580,55	1800,16
580,75	1740,77
580,94	1734,63
581,13	1855,46
581,33	1853,41
581,52	1779,68
581,72	1900,52
581,91	1857,51
582,11	1703,91
582,30	1775,59
582,49	1806,31
582,69	1779,68
582,88	1812,45
583,08	1767,40
583,27	1759,21
583,47	1699,81
583,66	1697,77
583,85	1662,95
584,05	1677,29
584,24	1742,82
584,44	1816,55
584,63	1837,03
584,82	1763,30
585,02	1916,90
585,21	1796,07
585,41	1779,68
585,60	1888,23
585,79	1972,19
585,99	1847,27
586,18	1837,03
586,37	2254,81
586,57	3434,44
586,76	9918,31
586,96	24393,36
587,15	34602,48
587,34	40986,00
587,54	42530,17
587,73	36943,31
587,93	26379,89
588,12	21608,12
588,31	18468,58
588,51	16510,72
588,70	15361,81
588,89	14145,32
589,09	12642,11
589,28	11102,04
589,47	9549,68
589,67	8107,91
589,86	6537,12
590,06	5013,43
590,25	3860,42
590,44	3125,20
590,64	2549,72
590,83	2324,44
591,02	2043,87
591,22	1927,14
591,41	1865,70
591,60	1800,16
591,80	1931,23
591,99	1785,83
592,18	1839,08
592,38	1806,31
592,57	1658,85
592,76	1763,30
592,96	1714,15
593,15	1751,01
593,34	1798,12
593,54	1687,53
593,73	1816,55
593,92	1769,44
594,12	1681,38
594,31	1744,87
594,50	1830,88
594,70	1800,16
594,89	1806,31
595,08	1619,94
595,28	1779,68
595,47	1898,47
595,66	1720,29
595,86	1693,67
596,05	1697,77
596,24	1744,87
596,43	1900,52
596,63	1841,12
596,82	1724,39
597,01	1771,49
597,21	1816,55
597,40	1785,83
597,59	1746,92
597,79	1648,61
597,98	1804,26
598,17	1712,10
598,36	1746,92
598,56	1744,87
598,75	1619,94
598,94	1814,50
599,14	1763,30
599,33	1714,15
599,52	1714,15
599,71	1742,82
599,91	1814,50
600,10	1841,12
600,29	1724,39
600,48	1789,92
600,68	1732,58
600,87	1755,11
601,06	1765,35
601,26	1744,87
601,45	1726,44
601,64	1757,16
601,83	1826,79
602,03	1681,38
602,22	1619,94
602,41	1802,21
602,60	1877,99
602,80	1771,49
602,99	1763,30
603,18	1740,77
603,37	1748,97
603,57	1689,57
603,76	1789,92
603,95	1806,31
604,14	1683,43
604,34	1665,00
604,53	1738,73
604,72	1753,06
604,91	1714,15
605,10	1775,59
605,30	1685,48
605,49	1730,53
605,68	1671,14
605,87	1751,01
606,07	1705,96
606,26	1720,29
606,45	1759,21
606,64	1759,21
606,84	1734,63
607,03	1734,63
607,22	1755,11
607,41	1703,91
607,60	1716,20
607,80	1796,07
607,99	1654,76
608,18	1748,97
608,37	1720,29
608,56	1667,05
608,76	1730,53
608,95	1861,60
609,14	1765,35
609,33	1738,73
609,52	1810,40
609,72	1728,49
609,91	1720,29
610,10	1703,91
610,29	1785,83
610,48	1732,58
610,68	1830,88
610,87	1771,49
611,06	1687,53
611,25	1658,85
611,44	1830,88
611,63	1763,30
611,83	1816,55
612,02	1605,61
612,21	1853,41
612,40	1691,62
612,59	1660,90
612,79	1685,48
612,98	1683,43
613,17	1789,92
613,36	1695,72
613,55	1697,77
613,74	1718,25
613,93	1695,72
614,13	1673,19
614,32	1744,87
614,51	1763,30
614,70	1632,23
614,89	1730,53
615,08	1773,54
615,28	2082,78
615,47	1669,09
615,66	1751,01
615,85	1718,25
616,04	1763,30
616,23	1742,82
616,42	1708,01
616,62	1736,68
616,81	1662,95
617,00	1718,25
617,19	1763,30
617,38	1669,09
617,57	1708,01
617,76	1738,73
617,95	1775,59
618,15	1705,96
618,34	1822,69
618,53	1669,09
618,72	1804,26
618,91	1767,40
619,10	1808,36
619,29	1693,67
619,48	1771,49
619,68	1654,76
619,87	1734,63
620,06	1652,71
620,25	1746,92
620,44	1753,06
620,63	1650,66
620,82	1726,44
621,01	1751,01
621,20	1701,86
621,39	1748,97
621,59	1763,30
621,78	1671,14
621,97	1757,16
622,16	1654,76
622,35	1712,10
622,54	1820,64
622,73	1824,74
622,92	1708,01
623,11	1857,51
623,30	1685,48
623,49	1734,63
623,68	1718,25
623,88	1767,40
624,07	1658,85
624,26	1744,87
624,45	1716,20
624,64	1683,43
624,83	1787,88
625,02	1726,44
625,21	1685,48
625,40	1710,05
625,59	1783,78
625,78	1728,49
625,97	1775,59
626,16	1726,44
626,35	1722,34
626,54	1722,34
626,74	1810,40
626,93	1632,23
627,12	1734,63
627,31	1810,40
627,50	1693,67
627,69	1855,46
627,88	1673,19
628,07	1634,28
628,26	1654,76
628,45	1665,00
628,64	1640,42
628,83	1660,90
629,02	1697,77
629,21	1769,44
629,40	1685,48
629,59	1603,56
629,78	1665,00
629,97	1697,77
630,16	1761,25
630,35	1712,10
630,54	1761,25
630,73	1609,70
630,92	1748,97
631,11	1695,72
631,30	1742,82
631,49	1738,73
631,68	1632,23
631,87	1779,68
632,06	1681,38
632,25	1740,77
632,44	1773,54
632,63	1697,77
632,82	1683,43
633,01	1646,57
633,20	1730,53
633,39	1695,72
633,58	1617,90
633,77	1712,10
633,96	1740,77
634,15	1716,20
634,34	1722,34
634,53	1695,72
634,72	1667,05
634,91	1734,63
635,10	1691,62
635,29	1771,49
635,48	1730,53
635,67	1665,00
635,86	1677,29
636,05	1798,12
636,24	1714,15
636,43	1744,87
636,62	1708,01
636,81	1517,54
637,00	1755,11
637,19	1755,11
637,38	1718,25
637,57	1685,48
637,76	1658,85
637,95	1669,09
638,14	1646,57
638,33	1673,19
638,52	1748,97
638,71	1681,38
638,89	1665,00
639,08	1843,17
639,27	1669,09
639,46	1650,66
639,65	1746,92
639,84	1697,77
640,03	1810,40
640,22	1746,92
640,41	1804,26
640,60	1624,04
640,79	1652,71
640,98	1667,05
641,17	1724,39
641,36	1683,43
641,55	1656,81
641,74	1648,61
641,92	1656,81
642,11	1677,29
642,30	1599,46
642,49	1626,09
642,68	1705,96
642,87	1718,25
643,06	1689,57
643,25	1708,01
643,44	1693,67
643,63	1632,23
643,82	1773,54
644,00	1656,81
644,19	1710,05
644,38	1617,90
644,57	1753,06
644,76	1689,57
644,95	1720,29
645,14	1751,01
645,33	1705,96
645,52	1671,14
645,71	1667,05
645,89	1650,66
646,08	1728,49
646,27	1656,81
646,46	1824,74
646,65	1677,29
646,84	1736,68
647,03	1722,34
647,22	1783,78
647,40	1691,62
647,59	1656,81
647,78	1587,18
647,97	1550,31
648,16	1671,14
648,35	1796,07
648,54	1787,88
648,73	1722,34
648,91	1820,64
649,10	1730,53
649,29	1640,42
649,48	1675,24
649,67	1744,87
649,86	1812,45
650,05	1611,75
650,23	1736,68
650,42	1660,90
650,61	1806,31
650,80	1814,50
650,99	1761,25
651,18	1712,10
651,36	1767,40
651,55	1603,56
651,74	1769,44
651,93	1699,81
652,12	1636,33
652,31	1765,35
652,49	1720,29
652,68	1624,04
652,87	1794,02
653,06	1830,88
653,25	1839,08
653,44	1722,34
653,62	1837,03
653,81	1658,85
654,00	1771,49
654,19	1677,29
654,38	1787,88
654,56	1728,49
654,75	1742,82
654,94	1810,40
655,13	1771,49
655,32	1673,19
655,51	1732,58
655,69	1693,67
655,88	1796,07
656,07	1630,18
656,26	1820,64
656,45	1669,09
656,63	1736,68
656,82	1675,24
657,01	1785,83
657,20	1652,71
657,38	1818,60
657,57	1689,57
657,76	1613,80
657,95	1824,74
658,14	1730,53
658,32	1732,58
658,51	1701,86
658,70	1660,90
658,89	1673,19
659,08	1697,77
659,26	1798,12
659,45	1630,18
659,64	1730,53
659,83	1722,34
660,01	1920,99
660,20	1789,92
660,39	1832,93
660,58	1712,10
660,76	1718,25
660,95	1615,85
661,14	1787,88
661,33	1642,47
661,51	1753,06
661,70	1689,57
661,89	1759,21
662,08	1744,87
662,26	1701,86
662,45	1626,09
662,64	1789,92
662,83	1781,73
663,01	1626,09
663,20	1697,77
663,39	1855,46
663,58	1691,62
663,76	1712,10
663,95	1755,11
664,14	1685,48
664,32	1603,56
664,51	1652,71
664,70	1511,40
664,89	1751,01
665,07	1685,48
665,26	1732,58
665,45	1644,52
665,64	1732,58
665,82	1693,67
666,01	1742,82
666,20	1667,05
666,38	1818,60
666,57	1880,04
666,76	2195,42
666,95	4390,84
667,13	10223,46
667,32	15335,19
667,51	17864,43
667,69	19242,71
667,88	17768,18
668,07	12523,33
668,25	9705,32
668,44	8322,94
668,63	7307,15
668,81	6887,32
669,00	6328,22
669,19	5519,28
669,38	5146,55
669,56	4655,03
669,75	4069,31
669,94	3364,81
670,12	2897,88
670,31	2508,76
670,50	2312,16
670,68	2054,11
670,87	1902,56
671,06	1824,74
671,24	1806,31
671,43	1781,73
671,62	1726,44
671,80	1718,25
671,99	1722,34
672,18	1697,77
672,36	1796,07
672,55	1757,16
672,74	1732,58
672,92	1679,33
673,11	1714,15
673,29	1738,73
673,48	1693,67
673,67	1644,52
673,85	1804,26
674,04	1662,95
674,23	1716,20
674,41	1771,49
674,60	1669,09
674,79	1634,28
674,97	1687,53
675,16	1812,45
675,34	1722,34
675,53	1634,28
675,72	1712,10
675,90	1818,60
676,09	1644,52
676,28	1744,87
676,46	1591,27
676,65	1703,91
676,83	1628,14
677,02	1687,53
677,21	1722,34
677,39	1714,15
677,58	1658,85
677,77	1662,95
677,95	1699,81
678,14	1685,48
678,32	1640,42
678,51	1701,86
678,70	1814,50
678,88	1601,51
679,07	1701,86
679,25	1679,33
679,44	1705,96
679,63	1615,85
679,81	1681,38
680,00	1759,21
680,18	1800,16
680,37	1693,67
680,55	1748,97
680,74	1619,94
680,93	1644,52
681,11	1791,97
681,30	1693,67
681,48	1716,20
681,67	1640,42
681,85	1658,85
682,04	1597,42
682,23	1814,50
682,41	1714,15
682,60	1683,43
682,78	1746,92
682,97	1617,90
683,15	1712,10
683,34	1712,10
683,53	1755,11
683,71	1619,94
683,90	1855,46
684,08	1734,63
684,27	1667,05
684,45	1789,92
684,64	1775,59
684,82	1652,71
685,01	1808,36
685,19	1779,68
685,38	1771,49
685,57	1683,43
685,75	1683,43
685,94	1701,86
686,12	1705,96
686,31	1656,81
686,49	1730,53
686,68	1527,78
686,86	1681,38
687,05	1669,09
687,23	1783,78
687,42	1634,28
687,60	1615,85
687,79	1695,72
687,97	1765,35
688,16	1720,29
688,34	1755,11
688,53	1630,18
688,71	1718,25
688,90	1753,06
689,08	1669,09
689,27	1595,37
689,45	1679,33
689,64	1734,63
689,82	1806,31
690,01	1658,85
690,19	1710,05
690,38	1724,39
690,56	1787,88
690,75	1634,28
690,93	1685,48
691,12	1705,96
691,30	1771,49
691,49	1708,01
691,67	1746,92
691,86	1800,16
692,04	1603,56
692,23	1689,57
692,41	1738,73
692,60	1781,73
692,78	1687,53
692,97	1697,77
693,15	1761,25
693,34	1765,35
693,52	1783,78
693,71	1636,33
693,89	1636,33
694,08	1585,13
694,26	1744,87
694,44	1730,53
694,63	1652,71
694,81	1656,81
695,00	1718,25
695,18	1751,01
695,37	1800,16
695,55	1710,05
695,74	1685,48
695,92	1693,67
696,10	1771,49
696,29	1689,57
696,47	1710,05
696,66	1591,27
696,84	1695,72
697,03	1724,39
697,21	1865,70
697,40	2293,72
697,58	1763,30
697,76	1687,53
697,95	1595,37
698,13	1695,72
698,32	1671,14
698,50	1724,39
698,68	1689,57
698,87	1732,58
699,05	1748,97
699,24	1701,86
699,42	1673,19
699,61	1626,09
699,79	1716,20
699,97	1732,58
700,16	1687,53
700,34	1624,04
700,53	1703,91
700,71	1781,73
700,89	1773,54
701,08	1701,86
701,26	1748,97
701,45	2105,31
701,63	1642,47
701,81	1705,96
702,00	1685,48
702,18	1722,34
702,37	1691,62
702,55	1748,97
702,73	1718,25
702,92	1665,00
703,10	1773,54
703,28	1730,53
703,47	1624,04
703,65	1742,82
703,84	1755,11
704,02	1746,92
704,20	1837,03
704,39	1712,10
704,57	1677,29
704,75	1773,54
704,94	1812,45
705,12	1718,25
705,30	1806,31
705,49	2263,01
705,67	4337,60
705,86	9430,90
706,04	12793,66
706,22	14556,96
706,41	15746,83
706,59	13956,91
706,77	9844,59
706,96	7479,18
707,14	6602,65
707,32	5943,21
707,51	5519,28
707,69	4878,26
707,87	4231,10
708,06	3469,26
708,24	3020,75
708,42	2455,51
708,61	2226,14
708,79	1888,23
708,97	1884,13
709,16	1832,93
709,34	1791,97
709,52	1673,19
709,71	1751,01
709,89	1734,63
710,07	1669,09
710,26	1644,52
710,44	1722,34
710,62	1775,59
710,80	1652,71
710,99	1708,01
711,17	1791,97
711,35	1705,96
711,54	1708,01
711,72	1828,84
711,90	1740,77
712,09	1775,59
712,27	1703,91
712,45	1689,57
712,63	1648,61
712,82	1619,94
713,00	1679,33
713,18	1755,11
713,37	1722,34
713,55	1714,15
713,73	1718,25
713,91	1761,25
714,10	1712,10
714,28	1710,05
714,46	1718,25
714,65	1826,79
714,83	1665,00
715,01	1693,67
715,19	1728,49
715,38	1650,66
715,56	1712,10
715,74	1660,90
715,92	1656,81
716,11	1722,34
716,29	1652,71
716,47	1720,29
716,65	1695,72
716,84	1638,38
717,02	1748,97
717,20	1564,65
717,38	1681,38
717,57	1710,05
717,75	1642,47
717,93	1611,75
718,11	1720,29
718,30	1630,18
718,48	1687,53
718,66	1746,92
718,84	1722,34
719,03	1660,90
719,21	1609,70
719,39	1796,07
719,57	1800,16
719,75	1787,88
719,94	1611,75
720,12	1683,43
720,30	1679,33
720,48	1738,73
720,67	1566,70
720,85	1636,33
721,03	1665,00
721,21	1705,96
721,39	1830,88
721,58	1675,24
721,76	1728,49
721,94	1742,82
722,12	1763,30
722,30	1773,54
722,49	1712,10
722,67	1685,48
722,85	1794,02
723,03	1689,57
723,21	1695,72
723,40	1705,96
723,58	1742,82
723,76	1689,57
723,94	1746,92
724,12	1759,21
724,30	1773,54
724,49	1710,05
724,67	1660,90
724,85	1796,07
725,03	1644,52
725,21	1705,96
725,40	1755,11
725,58	1691,62
725,76	1773,54
725,94	1736,68
726,12	1701,86
726,30	1742,82
726,49	1671,14
726,67	1669,09
726,85	1716,20
727,03	1746,92
727,21	2166,75
727,39	2863,06
727,57	3723,21
727,76	4040,64
727,94	4456,38
728,12	4474,81
728,30	3598,28
728,48	2987,99
728,66	2723,80
728,84	2555,86
729,03	2336,73
729,21	2107,36
729,39	1964,00
729,57	1824,74
729,75	1800,16
729,93	1800,16
730,11	1765,35
730,30	1722,34
730,48	1701,86
730,66	1798,12
730,84	1763,30
731,02	1748,97
731,20	1646,57
731,38	1656,81
731,56	1595,37
731,74	1595,37
731,93	1757,16
732,11	1701,86
732,29	1724,39
732,47	1861,60
732,65	1759,21
732,83	1798,12
733,01	1757,16
733,19	1640,42
733,37	1771,49
733,56	1714,15
733,74	1683,43
733,92	1796,07
734,10	1699,81
734,28	1675,24
734,46	1634,28
734,64	1644,52
734,82	1734,63
735,00	1662,95
735,18	1662,95
735,36	1693,67
735,54	1583,08
735,73	1714,15
735,91	1693,67
736,09	1705,96
736,27	1726,44
736,45	1736,68
736,63	1589,22
736,81	1701,86
736,99	1755,11
737,17	1783,78
737,35	1708,01
737,53	1771,49
737,71	1669,09
737,89	1826,79
738,07	1628,14
738,25	1708,01
738,43	1583,08
738,61	1677,29
738,80	1597,42
738,98	1642,47
739,16	1732,58
739,34	1679,33
739,52	1828,84
739,70	1689,57
739,88	1728,49
740,06	1783,78
740,24	1609,70
740,42	1791,97
740,60	1613,80
740,78	1691,62
740,96	1611,75
741,14	1599,46
741,32	1634,28
741,50	1611,75
741,68	1806,31
741,86	1757,16
742,04	1634,28
742,22	1658,85
742,40	1726,44
742,58	1755,11
742,76	1730,53
742,94	1708,01
743,12	1673,19
743,30	1581,03
743,48	1656,81
743,66	1665,00
743,84	1630,18
744,02	1685,48
744,20	1677,29
744,38	1644,52
744,56	1701,86
744,74	1800,16
744,92	1755,11
745,10	1839,08
745,28	1714,15
745,46	1837,03
745,64	1644,52
745,82	1779,68
746,00	1722,34
746,18	1767,40
746,36	1675,24
746,54	1703,91
746,72	1699,81
746,90	1591,27
747,08	1779,68
747,26	1712,10
747,44	1740,77
747,62	1744,87
747,80	1669,09
747,98	1730,53
748,15	1683,43
748,33	1804,26
748,51	1583,08
748,69	1654,76
748,87	1630,18
749,05	1671,14
749,23	1716,20
749,41	1665,00
749,59	1652,71
749,77	1781,73
749,95	1695,72
750,13	1761,25
750,31	1734,63
750,49	1638,38
750,67	1755,11
750,85	1771,49
751,03	1667,05
751,20	1802,21
751,38	1761,25
751,56	1609,70
751,74	1710,05
751,92	1775,59
752,10	1679,33
752,28	1814,50
752,46	1626,09
752,64	1748,97
752,82	1683,43
753,00	1726,44
753,18	1660,90
753,35	1628,14
753,53	1693,67
753,71	1665,00
753,89	1691,62
754,07	1615,85
754,25	1763,30
754,43	1703,91
754,61	1648,61
754,79	1710,05
754,97	1603,56
755,14	1783,78
755,32	1667,05
755,50	1710,05
755,68	1716,20
755,86	1695,72
756,04	1677,29
756,22	1591,27
756,40	1796,07
756,57	1804,26
756,75	1605,61
756,93	1734,63
757,11	1755,11
757,29	1650,66
757,47	1714,15
757,65	1685,48
757,82	1554,41
758,00	1687,53
758,18	1701,86
758,36	1648,61
758,54	1765,35
758,72	1599,46
758,90	1812,45
759,07	1642,47
759,25	1599,46
759,43	1697,77
759,61	1697,77
759,79	2156,51
759,97	1779,68
760,15	1585,13
760,32	1685,48
760,50	1714,15
760,68	1804,26
760,86	1581,03
761,04	1744,87
761,22	1648,61
761,39	1734,63
761,57	1757,16
761,75	1730,53
761,93	1722,34
762,11	1697,77
762,28	1679,33
762,46	1638,38
762,64	1814,50
762,82	1669,09
763,00	1724,39
763,18	1724,39
763,35	1650,66
763,53	1710,05
763,71	1636,33
763,89	1794,02
764,07	1767,40
764,24	1671,14
764,42	1632,23
764,60	1679,33
764,78	1652,71
764,96	1757,16
765,13	1785,83
765,31	1728,49
765,49	1671,14
765,67	1644,52
765,84	1683,43
766,02	1642,47
766,20	1585,13
766,38	1699,81
766,56	1710,05
766,73	1744,87
766,91	1669,09
767,09	1755,11
767,27	1818,60
767,44	1683,43
767,62	1703,91
767,80	1740,77
767,98	1718,25
768,15	1693,67
768,33	1716,20
768,51	1794,02
768,69	1728,49
768,87	1730,53
769,04	1636,33
769,22	1826,79
769,40	1718,25
769,58	1830,88
769,75	1681,38
769,93	1804,26
770,11	1656,81
770,28	1689,57
770,46	1660,90
770,64	1736,68
770,82	1691,62
770,99	1736,68
771,17	1685,48
771,35	1699,81
771,53	1734,63
771,70	1740,77
771,88	1734,63
772,06	1660,90
772,23	1630,18
772,41	1665,00
772,59	1716,20
772,77	1628,14
772,94	1689,57
773,12	1701,86
773,30	1636,33
773,47	1722,34
773,65	1599,46
773,83	1738,73
774,01	1703,91
774,18	1712,10
774,36	1675,24
774,54	1644,52
774,71	1685,48
774,89	1611,75
775,07	1650,66
775,24	1705,96
775,42	1617,90
775,60	1738,73
775,78	1660,90
775,95	1673,19
776,13	1583,08
776,31	1636,33
776,48	1722,34
776,66	1771,49
776,84	1669,09
777,01	1681,38
777,19	1705,96
777,37	1679,33
777,54	1738,73
777,72	1861,60
777,90	1720,29
778,07	1650,66
778,25	1861,60
778,43	1734,63
778,60	1626,09
778,78	1734,63
778,96	1773,54
779,13	1648,61
779,31	1681,38
779,49	1681,38
779,66	1716,20
779,84	1701,86
780,01	1691,62
780,19	1658,85
780,37	1761,25
780,54	1726,44
780,72	1681,38
780,90	1708,01
781,07	1695,72
781,25	1636,33
781,43	1722,34
781,60	1624,04
781,78	1734,63
781,95	1679,33
782,13	1714,15
782,31	1699,81
782,48	1562,60
782,66	1701,86
782,83	1837,03
783,01	1724,39
783,19	1765,35
783,36	1658,85
783,54	1636,33
783,72	1708,01
783,89	1650,66
784,07	1722,34
784,24	1748,97
784,42	1763,30
784,60	1722,34
784,77	1705,96
784,95	1564,65
785,12	1685,48
785,30	1802,21
785,47	1673,19
785,65	1640,42
785,83	1716,20
786,00	1654,76
786,18	1646,57
786,35	1609,70
786,53	1705,96
786,71	1732,58
786,88	1689,57
787,06	1736,68
787,23	1697,77
787,41	1677,29
787,58	1650,66
787,76	1638,38
787,94	1697,77
788,11	1624,04
788,29	1634,28
788,46	1611,75
788,64	1615,85
788,81	1656,81
788,99	1652,71
789,16	1638,38
789,34	1691,62
789,52	1681,38
789,69	1624,04
789,87	1626,09
790,04	1669,09
790,22	1603,56
790,39	1806,31
790,57	1640,42
790,74	1642,47
790,92	1705,96
791,09	1646,57
791,27	1689,57
791,44	1677,29
791,62	1632,23
791,79	1736,68
791,97	1660,90
792,15	1880,04
792,32	1734,63
792,50	1800,16
792,67	1785,83
792,85	1757,16
793,02	1755,11
793,20	1667,05
793,37	1628,14
793,55	1705,96
793,72	1693,67
793,90	1773,54
794,07	1630,18
794,25	1652,71
794,42	1681,38
794,60	1705,96
794,77	1626,09
794,95	1689,57
795,12	1740,77
795,30	1605,61
795,47	1615,85
795,65	1828,84
795,82	1726,44
796,00	1705,96
796,17	1714,15
796,34	1677,29
796,52	1701,86
796,69	1726,44
796,87	1712,10
797,04	1712,10
797,22	1640,42
797,39	1619,94
797,57	1781,73
797,74	1615,85
797,92	1751,01
798,09	1689,57
798,27	1769,44
798,44	1738,73
798,62	1665,00
798,79	1794,02
798,96	1677,29
799,14	1701,86
799,31	1834,98
799,49	1705,96
799,66	1685,48
799,84	1691,62
800,01	1673,19
800,19	1730,53
800,36	1540,07
800,53	1685,48
800,71	1687,53
800,88	1802,21
801,06	1703,91
801,23	1656,81
801,41	1703,91
801,58	1718,25
801,75	1632,23
801,93	1689,57
802,10	1746,92
802,28	1691,62
802,45	1695,72
802,63	1726,44
802,80	1736,68
802,97	1681,38
803,15	1701,86
803,32	1705,96
803,50	1716,20
803,67	1615,85
803,84	1644,52
804,02	1677,29
804,19	1650,66
804,37	1665,00
804,54	1628,14
804,71	1636,33
804,89	1691,62
805,06	1591,27
805,24	1677,29
805,41	1603,56
805,58	1656,81
805,76	1771,49
805,93	1695,72
806,10	1669,09
806,28	1736,68
806,45	1665,00
806,63	1638,38
806,80	1746,92
806,97	1648,61
807,15	1695,72
807,32	1675,24
807,49	1746,92
807,67	1669,09
807,84	1740,77
808,01	1654,76
808,19	1861,60
808,36	1783,78
808,54	1603,56
808,71	1605,61
808,88	1701,86
809,06	1705,96
809,23	1783,78
809,40	1726,44
809,58	1691,62
809,75	1662,95
809,92	1638,38
810,10	1796,07
810,27	1671,14
810,44	1730,53
810,62	1744,87
810,79	1701,86
810,96	1642,47
811,14	1611,75
811,31	1693,67
811,48	1669,09
811,66	1636,33
811,83	1783,78
812,00	1697,77
812,18	1718,25
812,35	1837,03
812,52	1720,29
812,69	1644,52
812,87	1648,61
813,04	1609,70
813,21	1689,57
813,39	1685,48
813,56	1640,42
813,73	1771,49
813,91	1593,32
814,08	1734,63
814,25	1724,39
814,42	1665,00
814,60	1665,00
814,77	1712,10
814,94	1632,23
815,12	1693,67
815,29	1769,44
815,46	1665,00
815,63	1724,39
815,81	1644,52
815,98	1697,77
816,15	1708,01
816,33	1685,48
816,50	1648,61
816,67	1693,67
816,84	1697,77
817,02	1591,27
817,19	1710,05
817,36	1746,92
817,53	1705,96
817,71	1601,51
817,88	1734,63
818,05	1695,72
818,22	1665,00
818,40	1804,26
818,57	1660,90
818,74	1646,57
818,91	1617,90
819,09	1710,05
819,26	1771,49
819,43	1683,43
819,60	1638,38
819,78	1607,66
819,95	1755,11
820,12	1675,24
820,29	1722,34
820,47	1673,19
820,64	1673,19
820,81	1673,19
820,98	1740,77
821,15	1634,28
821,33	1767,40
821,50	1665,00
821,67	1738,73
821,84	1669,09
822,02	1773,54
822,19	1722,34
822,36	1624,04
822,53	1636,33
822,70	1646,57
822,88	1642,47
823,05	1773,54
823,22	1689,57
823,39	1773,54
823,56	1763,30
823,74	1816,55
823,91	1695,72
824,08	1611,75
824,25	1654,76
824,42	1744,87
824,60	1589,22
824,77	1714,15
824,94	1689,57
825,11	1738,73
825,28	1552,36
825,45	1662,95
825,63	1705,96
825,80	1554,41
825,97	1779,68
826,14	1665,00
826,31	1617,90
826,48	1834,98
826,66	1587,18
826,83	1701,86
827,00	1673,19
827,17	1677,29
827,34	1685,48
827,51	1687,53
827,69	1724,39
827,86	1669,09
828,03	1685,48
828,20	1665,00
828,37	1724,39
828,54	1738,73
828,71	1652,71
828,89	1820,64
829,06	1640,42
829,23	1787,88
829,40	1687,53
829,57	1613,80
829,74	1763,30
829,91	1691,62
830,09	1665,00
830,26	1746,92
830,43	1761,25
830,60	1658,85
830,77	1701,86
830,94	1746,92
831,11	1728,49
831,28	1667,05
831,46	1722,34
831,63	1662,95
831,80	1650,66
831,97	1673,19
832,14	1677,29
832,31	1755,11
832,48	1638,38
832,65	1746,92
832,82	1708,01
832,99	1683,43
833,17	1650,66
833,34	1722,34
833,51	1748,97
833,68	1642,47
833,85	1779,68
834,02	1587,18
834,19	1673,19
834,36	1607,66
834,53	1648,61
834,70	1681,38
834,87	1783,78
835,04	1773,54
835,22	1662,95
835,39	1681,38
835,56	1609,70
835,73	1687,53
835,90	1769,44
836,07	1552,36
836,24	1742,82
836,41	1673,19
836,58	1687,53
836,75	1767,40
836,92	1646,57
837,09	1751,01
837,26	1679,33
837,43	1724,39
837,60	1736,68
837,77	1628,14
837,94	1746,92
838,12	1720,29
838,29	1720,29
838,46	1665,00
838,63	1654,76
838,80	1697,77
838,97	1794,02
839,14	1820,64
839,31	1718,25
839,48	1679,33
839,65	1685,48
839,82	1626,09
839,99	1712,10
840,16	1681,38
840,33	1677,29
840,50	1757,16
840,67	1658,85
840,84	1507,30
841,01	1748,97
841,18	1632,23
841,35	1630,18
841,52	1726,44
841,69	1796,07
841,86	1691,62
842,03	1679,33
842,20	1708,01
842,37	1679,33
842,54	1667,05
842,71	1718,25
842,88	1630,18
843,05	1712,10
843,22	1734,63
843,39	1761,25
843,56	1644,52
843,73	1685,48
843,90	1681,38
844,07	1681,38
844,24	1755,11
844,41	1742,82
844,58	1687,53
844,75	1671,14
844,92	1753,06
845,09	1652,71
845,26	1730,53
845,43	1669,09
845,60	1634,28
845,77	1769,44
845,94	1689,57
846,10	1759,21
846,27	1572,84
846,44	1630,18
846,61	1673,19
846,78	1720,29
846,95	1716,20
847,12	1673,19
847,29	1677,29
847,46	1636,33
847,63	1738,73
847,80	1716,20
847,97	1685,48
848,14	1816,55
848,31	1695,72
848,48	1673,19
848,65	1716,20
848,82	1658,85
848,98	1824,74
849,15	1763,30
849,32	1742,82
849,49	1785,83
849,66	1677,29
849,83	1650,66
850,00	1675,24
850,17	1693,67
850,34	1669,09
850,51	1652,71
850,68	1689,57
850,85	1781,73
851,01	1697,77
851,18	1724,39
851,35	1671,14
851,52	1644,52
851,69	1765,35
851,86	1585,13
852,03	1734,63
852,20	1804,26
852,37	1720,29
852,53	1589,22
852,70	1728,49
852,87	1669,09
853,04	1734,63
853,21	1638,38
853,38	1744,87
853,55	1748,97
853,72	1751,01
853,89	1712,10
854,05	1648,61
854,22	1638,38
854,39	1701,86
854,56	1640,42
854,73	1730,53
854,90	1607,66
855,07	1685,48
855,23	1695,72
855,40	1648,61
855,57	1660,90
855,74	1615,85
855,91	1849,32
856,08	1595,37
856,25	1632,23
856,41	1730,53
856,58	1697,77
856,75	1677,29
856,92	1609,70
857,09	1757,16
857,26	1665,00
857,42	1716,20
857,59	1787,88
857,76	1687,53
857,93	1673,19
858,10	1714,15
858,27	1564,65
858,43	1628,14
858,60	1667,05
858,77	1697,77
858,94	1660,90
859,11	1814,50
859,27	1550,31
859,44	1689,57
859,61	1757,16
859,78	1718,25
859,95	1691,62
860,12	1718,25
860,28	1814,50
860,45	1808,36
860,62	1714,15
860,79	1660,90
860,95	1605,61
861,12	1638,38
861,29	1630,18
861,46	1712,10
861,63	1671,14
861,79	1685,48
861,96	1650,66
862,13	1736,68
862,30	1794,02
862,47	1632,23
862,63	1722,34
862,80	1736,68
862,97	1708,01
863,14	1701,86
863,30	1763,30
863,47	1722,34
863,64	1755,11
863,81	1677,29
863,97	1642,47
864,14	1669,09
864,31	1722,34
864,48	1636,33
864,65	1691,62
864,81	1720,29
864,98	1689,57
865,15	1763,30
865,32	1693,67
865,48	1767,40
865,65	1761,25
865,82	1632,23
865,98	1681,38
866,15	1804,26
866,32	1701,86
866,49	1710,05
866,65	1796,07
866,82	1603,56
866,99	1687,53
867,16	1671,14
867,32	1656,81
867,49	1687,53
867,66	1644,52
867,83	1656,81
867,99	1611,75
868,16	1714,15
868,33	1570,79
868,49	1781,73
868,66	1689,57
868,83	1742,82
868,99	1710,05
869,16	1730,53
869,33	1720,29
869,50	1718,25
869,66	1656,81
869,83	1703,91
870,00	1658,85
870,16	1744,87
870,33	1677,29
870,50	1755,11
870,66	1734,63
870,83	1847,27
871,00	1693,67
871,17	1761,25
871,33	1740,77
871,50	1701,86
871,67	1648,61
871,83	1646,57
872,00	1771,49
872,17	1660,90
872,33	1767,40
872,50	1732,58
872,67	1691,62
872,83	1648,61
873,00	1699,81
873,17	1687,53
873,33	1703,91
873,50	1812,45
873,67	1632,23
873,83	1642,47
874,00	1628,14
874,16	1742,82
874,33	1699,81
874,50	1648,61
874,66	1722,34
874,83	1748,97
875,00	1777,64
875,16	1763,30
875,33	1728,49
875,50	1624,04
875,66	1644,52
875,83	1714,15
875,99	1755,11
876,16	1652,71
876,33	1646,57
876,49	1716,20
876,66	1746,92
876,83	1615,85
876,99	1632,23
877,16	1689,57
877,32	1683,43
877,49	1687,53
877,66	1718,25
877,82	1853,41
877,99	1708,01
878,15	1699,81
878,32	1734,63
878,49	1714,15
878,65	1656,81
878,82	1787,88
878,98	1634,28
879,15	1726,44
879,32	1751,01
879,48	1720,29
879,65	1654,76
879,81	1701,86
879,98	1615,85
880,15	1708,01
880,31	1705,96
880,48	1601,51
880,64	1849,32
880,81	1609,70
880,97	1787,88
881,14	1722,34
881,31	1665,00
881,47	1816,55
881,64	1587,18
881,80	1617,90
881,97	1816,55
882,13	1718,25
882,30	1595,37
882,47	1615,85
882,63	1695,72
882,80	1708,01
882,96	1671,14
883,13	1746,92
883,29	1652,71
883,46	1751,01
883,62	1755,11
883,79	1630,18
883,95	1765,35
884,12	1636,33
884,29	1708,01
884,45	1675,24
884,62	1728,49
884,78	1681,38
884,95	1742,82
885,11	1656,81
885,28	1671,14
885,44	1673,19
885,61	1675,24
885,77	1759,21
885,94	1722,34
886,10	1753,06
886,27	1689,57
886,43	1757,16
886,60	1683,43
886,76	1720,29
886,93	1683,43
887,09	1699,81
887,26	1652,71
887,42	1720,29
887,59	1714,15
887,75	1806,31
887,92	1730,53
888,08	1697,77
888,25	1785,83
888,41	1742,82
888,58	1693,67
888,74	1601,51
888,91	1660,90
>>>>>End Processed Spectral Data<<<<<
