SpectraSuite Data File
++++++++++++++++++++++++++++++++++++
Date: Mon Jun 06 12:12:17 CEST 2016
User: root
Dark Spectrum Present: No
Reference Spectrum Present: No
Number of Sampled Component Spectra: 1
Spectrometers: USB4C02835
Integration Time (usec): 100000 (USB4C02835)
Spectra Averaged: 1 (USB4C02835)
Boxcar Smoothing: 0 (USB4C02835)
Correct for Electrical Dark: No (USB4C02835)
Strobe/Lamp Enabled: No (USB4C02835)
Correct for Detector Non-linearity: No (USB4C02835)
Correct for Stray Light: No (USB4C02835)
Number of Pixels in Processed Spectrum: 3648
>>>>>Begin Processed Spectral Data<<<<<
177,47	1431,53
177,69	1431,53
177,91	1431,53
178,13	1472,49
178,36	1523,69
178,58	1683,43
178,80	1679,33
179,02	1634,28
179,24	1665,00
179,46	1599,46
179,68	1726,44
179,90	1681,38
180,13	1660,90
180,35	1621,99
180,57	1748,97
180,79	1761,25
181,01	1728,49
181,23	1775,59
181,45	1834,98
181,67	1740,77
181,90	1660,90
182,12	1648,61
182,34	1587,18
182,56	1755,11
182,78	1695,72
183,00	1636,33
183,22	1730,53
183,44	1642,47
183,66	1845,22
183,89	1912,80
184,11	1703,91
184,33	1662,95
184,55	1828,84
184,77	1673,19
184,99	1742,82
185,21	1767,40
185,43	1812,45
185,65	1656,81
185,87	1742,82
186,10	1802,21
186,32	1785,83
186,54	1740,77
186,76	1673,19
186,98	1724,39
187,20	1703,91
187,42	1705,96
187,64	1687,53
187,86	1665,00
188,08	1781,73
188,30	1650,66
188,52	1660,90
188,75	1802,21
188,97	1761,25
189,19	1589,22
189,41	1724,39
189,63	1615,85
189,85	1652,71
190,07	1527,78
190,29	1624,04
190,51	1648,61
190,73	1578,98
190,95	1765,35
191,17	1712,10
191,39	1624,04
191,61	1624,04
191,84	1679,33
192,06	1765,35
192,28	1624,04
192,50	1859,56
192,72	1705,96
192,94	1693,67
193,16	1818,60
193,38	1738,73
193,60	1720,29
193,82	1751,01
194,04	1736,68
194,26	1710,05
194,48	1705,96
194,70	1685,48
194,92	1656,81
195,14	1691,62
195,36	1652,71
195,58	1716,20
195,80	1720,29
196,02	1658,85
196,24	1681,38
196,46	1742,82
196,69	1761,25
196,91	1920,99
197,13	1693,67
197,35	1632,23
197,57	1755,11
197,79	1779,68
198,01	1687,53
198,23	1765,35
198,45	1738,73
198,67	1654,76
198,89	1718,25
199,11	1687,53
199,33	1644,52
199,55	1521,64
199,77	1660,90
199,99	1771,49
200,21	1658,85
200,43	1714,15
200,65	1581,03
200,87	1603,56
201,09	1675,24
201,31	1615,85
201,53	1738,73
201,75	1699,81
201,97	1691,62
202,19	1611,75
202,41	1660,90
202,63	1755,11
202,85	1726,44
203,07	1771,49
203,29	1724,39
203,51	1615,85
203,73	1615,85
203,95	1814,50
204,17	1699,81
204,39	1724,39
204,61	1708,01
204,83	1675,24
205,05	1705,96
205,27	1728,49
205,49	1771,49
205,71	1632,23
205,93	1652,71
206,15	1652,71
206,37	1652,71
206,59	1673,19
206,81	1736,68
207,03	1572,84
207,25	1634,28
207,47	1714,15
207,69	1736,68
207,91	1759,21
208,13	1716,20
208,34	1683,43
208,56	1615,85
208,78	1697,77
209,00	1675,24
209,22	1650,66
209,44	1671,14
209,66	1642,47
209,88	1689,57
210,10	1636,33
210,32	1669,09
210,54	1703,91
210,76	1624,04
210,98	1718,25
211,20	1554,41
211,42	1652,71
211,64	1736,68
211,86	1810,40
212,08	1654,76
212,30	1607,66
212,52	1648,61
212,74	1724,39
212,96	1640,42
213,17	1716,20
213,39	1742,82
213,61	1761,25
213,83	1814,50
214,05	1665,00
214,27	1742,82
214,49	1630,18
214,71	1650,66
214,93	1767,40
215,15	1714,15
215,37	1683,43
215,59	1556,46
215,81	1746,92
216,03	1703,91
216,24	1652,71
216,46	1624,04
216,68	1691,62
216,90	1746,92
217,12	1677,29
217,34	1697,77
217,56	1736,68
217,78	1705,96
218,00	1697,77
218,22	1714,15
218,44	1736,68
218,66	1669,09
218,87	1789,92
219,09	1656,81
219,31	1697,77
219,53	1669,09
219,75	1697,77
219,97	1677,29
220,19	1689,57
220,41	1730,53
220,63	1720,29
220,85	1638,38
221,06	1644,52
221,28	1781,73
221,50	1767,40
221,72	1632,23
221,94	1705,96
222,16	1667,05
222,38	1710,05
222,60	1714,15
222,82	1624,04
223,03	1669,09
223,25	1597,42
223,47	1675,24
223,69	1853,41
223,91	1699,81
224,13	1665,00
224,35	1662,95
224,57	1806,31
224,78	1712,10
225,00	1660,90
225,22	1683,43
225,44	1722,34
225,66	1744,87
225,88	1652,71
226,10	1685,48
226,32	1757,16
226,53	1796,07
226,75	1714,15
226,97	1689,57
227,19	1685,48
227,41	1665,00
227,63	1677,29
227,85	1615,85
228,06	1708,01
228,28	1671,14
228,50	1691,62
228,72	1613,80
228,94	1683,43
229,16	1576,94
229,37	1603,56
229,59	1607,66
229,81	1771,49
230,03	1644,52
230,25	1632,23
230,47	1613,80
230,69	1566,70
230,90	1720,29
231,12	1708,01
231,34	1732,58
231,56	1759,21
231,78	1603,56
232,00	1683,43
232,21	1621,99
232,43	1611,75
232,65	1550,31
232,87	1726,44
233,09	1593,32
233,30	1656,81
233,52	1769,44
233,74	1677,29
233,96	1644,52
234,18	1701,86
234,40	1697,77
234,61	1804,26
234,83	1570,79
235,05	1585,13
235,27	1814,50
235,49	1785,83
235,70	1736,68
235,92	1791,97
236,14	1638,38
236,36	1783,78
236,58	1603,56
236,79	1665,00
237,01	1683,43
237,23	1640,42
237,45	1800,16
237,67	1687,53
237,88	1679,33
238,10	1763,30
238,32	1636,33
238,54	1642,47
238,76	1667,05
238,97	1640,42
239,19	1636,33
239,41	1662,95
239,63	1771,49
239,85	1656,81
240,06	1638,38
240,28	1732,58
240,50	1716,20
240,72	1687,53
240,93	1685,48
241,15	1736,68
241,37	1701,86
241,59	1748,97
241,81	1632,23
242,02	1652,71
242,24	1640,42
242,46	1671,14
242,68	1665,00
242,89	1691,62
243,11	1714,15
243,33	1648,61
243,55	1685,48
243,76	1669,09
243,98	1597,42
244,20	1705,96
244,42	1726,44
244,64	1646,57
244,85	1683,43
245,07	1671,14
245,29	1687,53
245,51	1650,66
245,72	1662,95
245,94	1699,81
246,16	1705,96
246,38	1751,01
246,59	1640,42
246,81	1673,19
247,03	1654,76
247,24	1619,94
247,46	1693,67
247,68	1714,15
247,90	1607,66
248,11	1667,05
248,33	1783,78
248,55	1693,67
248,77	1765,35
248,98	1703,91
249,20	1841,12
249,42	1681,38
249,64	1613,80
249,85	1665,00
250,07	1685,48
250,29	1771,49
250,50	1742,82
250,72	1673,19
250,94	1757,16
251,16	1814,50
251,37	1753,06
251,59	1714,15
251,81	1744,87
252,02	1740,77
252,24	1683,43
252,46	1773,54
252,68	1583,08
252,89	1691,62
253,11	1611,75
253,33	1724,39
253,54	1759,21
253,76	1642,47
253,98	1675,24
254,20	1671,14
254,41	1677,29
254,63	1769,44
254,85	1658,85
255,06	1724,39
255,28	1708,01
255,50	1656,81
255,71	1626,09
255,93	1703,91
256,15	1683,43
256,36	1730,53
256,58	1691,62
256,80	1689,57
257,02	1755,11
257,23	1638,38
257,45	1681,38
257,67	1724,39
257,88	1611,75
258,10	1685,48
258,32	1742,82
258,53	1640,42
258,75	1736,68
258,97	1566,70
259,18	1691,62
259,40	1673,19
259,62	1773,54
259,83	1742,82
260,05	1681,38
260,27	1972,19
260,48	1746,92
260,70	1578,98
260,92	1767,40
261,13	1681,38
261,35	1656,81
261,57	1732,58
261,78	1544,17
262,00	1675,24
262,22	1710,05
262,43	1648,61
262,65	1703,91
262,86	1652,71
263,08	1777,64
263,30	1685,48
263,51	1597,42
263,73	1587,18
263,95	1701,86
264,16	1611,75
264,38	1689,57
264,60	1697,77
264,81	1669,09
265,03	1722,34
265,25	1763,30
265,46	1669,09
265,68	1796,07
265,89	1740,77
266,11	1574,89
266,33	1722,34
266,54	1775,59
266,76	1726,44
266,98	1701,86
267,19	1812,45
267,41	1701,86
267,62	1685,48
267,84	1603,56
268,06	1759,21
268,27	1644,52
268,49	1734,63
268,70	1804,26
268,92	1726,44
269,14	1531,88
269,35	1591,27
269,57	1667,05
269,79	1785,83
270,00	1626,09
270,22	1798,12
270,43	1636,33
270,65	1546,22
270,87	1730,53
271,08	1689,57
271,30	1681,38
271,51	1691,62
271,73	1712,10
271,95	1730,53
272,16	1708,01
272,38	1671,14
272,59	1669,09
272,81	1740,77
273,02	1654,76
273,24	1761,25
273,46	1673,19
273,67	1710,05
273,89	1628,14
274,10	1601,51
274,32	1658,85
274,54	1701,86
274,75	1730,53
274,97	1755,11
275,18	1722,34
275,40	1708,01
275,61	1689,57
275,83	1665,00
276,05	1589,22
276,26	1611,75
276,48	1732,58
276,69	1689,57
276,91	1652,71
277,12	1796,07
277,34	1746,92
277,55	1755,11
277,77	1677,29
277,99	1662,95
278,20	1613,80
278,42	1611,75
278,63	1714,15
278,85	1697,77
279,06	1677,29
279,28	1708,01
279,49	1667,05
279,71	1689,57
279,93	1695,72
280,14	1738,73
280,36	1648,61
280,57	1665,00
280,79	1753,06
281,00	1656,81
281,22	1710,05
281,43	1779,68
281,65	1540,07
281,86	1667,05
282,08	1689,57
282,29	1845,22
282,51	1683,43
282,73	1693,67
282,94	1632,23
283,16	1644,52
283,37	1806,31
283,59	1677,29
283,80	1720,29
284,02	1665,00
284,23	1744,87
284,45	1648,61
284,66	1748,97
284,88	1648,61
285,09	1613,80
285,31	1734,63
285,52	1679,33
285,74	1591,27
285,95	1738,73
286,17	1675,24
286,38	1818,60
286,60	1728,49
286,81	1683,43
287,03	1681,38
287,24	1679,33
287,46	1742,82
287,67	1693,67
287,89	1808,36
288,10	1597,42
288,32	1685,48
288,53	1740,77
288,75	1722,34
288,96	1746,92
289,18	1738,73
289,39	1607,66
289,61	1724,39
289,82	1810,40
290,04	1755,11
290,25	1669,09
290,47	1646,57
290,68	1687,53
290,90	1648,61
291,11	1638,38
291,33	1742,82
291,54	1609,70
291,76	1619,94
291,97	1673,19
292,18	1714,15
292,40	1689,57
292,61	1630,18
292,83	1791,97
293,04	1665,00
293,26	1738,73
293,47	1695,72
293,69	1701,86
293,90	1697,77
294,12	1708,01
294,33	1703,91
294,55	1695,72
294,76	1751,01
294,97	1738,73
295,19	1787,88
295,40	1679,33
295,62	1724,39
295,83	1746,92
296,05	1617,90
296,26	1751,01
296,48	1654,76
296,69	1642,47
296,90	1693,67
297,12	1712,10
297,33	1761,25
297,55	1761,25
297,76	1783,78
297,98	1734,63
298,19	1714,15
298,41	1662,95
298,62	1630,18
298,83	1779,68
299,05	1697,77
299,26	1695,72
299,48	1673,19
299,69	1705,96
299,90	1681,38
300,12	1658,85
300,33	1757,16
300,55	1656,81
300,76	1812,45
300,98	1658,85
301,19	1697,77
301,40	1671,14
301,62	1660,90
301,83	1705,96
302,05	1685,48
302,26	1648,61
302,47	1677,29
302,69	1585,13
302,90	1748,97
303,12	1546,22
303,33	1736,68
303,54	1855,46
303,76	1687,53
303,97	1644,52
304,19	1794,02
304,40	1558,50
304,61	1767,40
304,83	1865,70
305,04	1681,38
305,26	1716,20
305,47	1601,51
305,68	1705,96
305,90	1601,51
306,11	1771,49
306,33	1732,58
306,54	1636,33
306,75	1685,48
306,97	1677,29
307,18	1665,00
307,39	1578,98
307,61	1701,86
307,82	1742,82
308,04	1708,01
308,25	1615,85
308,46	1699,81
308,68	1751,01
308,89	1722,34
309,10	1714,15
309,32	1693,67
309,53	1648,61
309,74	1740,77
309,96	1703,91
310,17	1722,34
310,39	1632,23
310,60	1685,48
310,81	1681,38
311,03	1660,90
311,24	1746,92
311,45	1624,04
311,67	1728,49
311,88	1681,38
312,09	1685,48
312,31	1689,57
312,52	1685,48
312,73	1599,46
312,95	1591,27
313,16	1662,95
313,37	1777,64
313,59	1677,29
313,80	1769,44
314,01	1779,68
314,23	1669,09
314,44	1703,91
314,65	1624,04
314,87	1671,14
315,08	1646,57
315,29	1667,05
315,51	1644,52
315,72	1605,61
315,93	1863,65
316,15	1789,92
316,36	1667,05
316,57	1691,62
316,79	1693,67
317,00	1644,52
317,21	1736,68
317,43	1634,28
317,64	1677,29
317,85	1607,66
318,07	1662,95
318,28	1730,53
318,49	1726,44
318,70	1906,66
318,92	1734,63
319,13	1796,07
319,34	1828,84
319,56	1757,16
319,77	1812,45
319,98	1746,92
320,20	1789,92
320,41	1742,82
320,62	1759,21
320,83	1671,14
321,05	1841,12
321,26	1654,76
321,47	1681,38
321,69	1777,64
321,90	1638,38
322,11	1675,24
322,32	1691,62
322,54	1742,82
322,75	1724,39
322,96	1849,32
323,18	1605,61
323,39	1599,46
323,60	1699,81
323,81	1722,34
324,03	1658,85
324,24	1646,57
324,45	1679,33
324,66	1753,06
324,88	1714,15
325,09	1796,07
325,30	1679,33
325,52	1644,52
325,73	1785,83
325,94	1689,57
326,15	1607,66
326,37	1650,66
326,58	1787,88
326,79	1742,82
327,00	1576,94
327,22	1708,01
327,43	1701,86
327,64	1636,33
327,85	1751,01
328,07	1697,77
328,28	1748,97
328,49	1675,24
328,70	1665,00
328,92	1732,58
329,13	1724,39
329,34	1734,63
329,55	1853,41
329,76	1722,34
329,98	1687,53
330,19	1781,73
330,40	1712,10
330,61	1732,58
330,83	1757,16
331,04	1607,66
331,25	1722,34
331,46	1648,61
331,68	1644,52
331,89	1734,63
332,10	1646,57
332,31	1574,89
332,52	1665,00
332,74	1789,92
332,95	1603,56
333,16	1695,72
333,37	1761,25
333,58	1642,47
333,80	1724,39
334,01	1617,90
334,22	1644,52
334,43	1626,09
334,64	1679,33
334,86	1574,89
335,07	1605,61
335,28	1720,29
335,49	1671,14
335,70	1726,44
335,92	1769,44
336,13	1787,88
336,34	1726,44
336,55	1650,66
336,76	1724,39
336,98	1583,08
337,19	1658,85
337,40	1847,27
337,61	1863,65
337,82	1712,10
338,04	1781,73
338,25	1619,94
338,46	1650,66
338,67	1699,81
338,88	1632,23
339,09	1665,00
339,31	1626,09
339,52	1613,80
339,73	1632,23
339,94	1650,66
340,15	1791,97
340,36	1716,20
340,58	1650,66
340,79	1642,47
341,00	1734,63
341,21	1607,66
341,42	1847,27
341,63	1671,14
341,85	1716,20
342,06	1687,53
342,27	1703,91
342,48	1746,92
342,69	1665,00
342,90	1695,72
343,12	1757,16
343,33	1689,57
343,54	1722,34
343,75	1665,00
343,96	1687,53
344,17	1652,71
344,38	1724,39
344,60	1648,61
344,81	1640,42
345,02	1681,38
345,23	1826,79
345,44	1820,64
345,65	1697,77
345,86	1693,67
346,07	1669,09
346,29	1697,77
346,50	1740,77
346,71	1675,24
346,92	1755,11
347,13	1794,02
347,34	1636,33
347,55	1720,29
347,76	1673,19
347,98	1593,32
348,19	1667,05
348,40	1789,92
348,61	1634,28
348,82	1748,97
349,03	1714,15
349,24	1671,14
349,45	1824,74
349,66	1619,94
349,88	1667,05
350,09	1667,05
350,30	1761,25
350,51	1802,21
350,72	1689,57
350,93	1677,29
351,14	1662,95
351,35	1730,53
351,56	1718,25
351,77	1675,24
351,99	1728,49
352,20	1732,58
352,41	1669,09
352,62	1587,18
352,83	1617,90
353,04	1683,43
353,25	1660,90
353,46	1761,25
353,67	1746,92
353,88	1562,60
354,09	1685,48
354,30	1660,90
354,52	1712,10
354,73	1640,42
354,94	1701,86
355,15	1617,90
355,36	1826,79
355,57	1648,61
355,78	1689,57
355,99	1699,81
356,20	1650,66
356,41	1699,81
356,62	1699,81
356,83	1761,25
357,04	1726,44
357,25	1597,42
357,46	1687,53
357,68	1656,81
357,89	1587,18
358,10	1708,01
358,31	1681,38
358,52	1619,94
358,73	1693,67
358,94	1753,06
359,15	1601,51
359,36	1785,83
359,57	1738,73
359,78	1765,35
359,99	1656,81
360,20	1650,66
360,41	1593,32
360,62	1787,88
360,83	1662,95
361,04	1685,48
361,25	1689,57
361,46	1710,05
361,67	1763,30
361,88	1701,86
362,09	1746,92
362,30	1683,43
362,51	1638,38
362,72	1710,05
362,93	1787,88
363,14	1703,91
363,35	1669,09
363,56	1634,28
363,78	1769,44
363,99	1773,54
364,20	1689,57
364,41	1650,66
364,62	1845,22
364,83	1669,09
365,04	1671,14
365,25	1689,57
365,46	1771,49
365,67	1703,91
365,88	1656,81
366,09	1675,24
366,30	1658,85
366,51	1718,25
366,72	1583,08
366,93	1730,53
367,14	1740,77
367,35	1794,02
367,56	1744,87
367,77	1746,92
367,98	1630,18
368,18	1693,67
368,39	1744,87
368,60	1667,05
368,81	1669,09
369,02	1699,81
369,23	1632,23
369,44	1597,42
369,65	1697,77
369,86	1728,49
370,07	1730,53
370,28	1683,43
370,49	1720,29
370,70	1708,01
370,91	1665,00
371,12	1640,42
371,33	1734,63
371,54	1669,09
371,75	1761,25
371,96	1599,46
372,17	1689,57
372,38	1656,81
372,59	1757,16
372,80	1691,62
373,01	1757,16
373,22	1628,14
373,43	1705,96
373,64	1595,37
373,85	1714,15
374,06	1753,06
374,26	1722,34
374,47	1642,47
374,68	1783,78
374,89	1656,81
375,10	1683,43
375,31	1789,92
375,52	1652,71
375,73	1720,29
375,94	1638,38
376,15	1730,53
376,36	1632,23
376,57	1607,66
376,78	1765,35
376,99	1734,63
377,20	1703,91
377,40	1701,86
377,61	1705,96
377,82	1613,80
378,03	1789,92
378,24	1765,35
378,45	1705,96
378,66	1761,25
378,87	1560,55
379,08	1529,83
379,29	1624,04
379,50	1796,07
379,71	1697,77
379,91	1789,92
380,12	1697,77
380,33	1669,09
380,54	1689,57
380,75	1652,71
380,96	1636,33
381,17	1671,14
381,38	1791,97
381,59	1738,73
381,80	1671,14
382,00	1746,92
382,21	1722,34
382,42	1771,49
382,63	1865,70
382,84	1738,73
383,05	1722,34
383,26	1816,55
383,47	1677,29
383,68	1683,43
383,88	1771,49
384,09	1796,07
384,30	1699,81
384,51	1718,25
384,72	1650,66
384,93	1638,38
385,14	1650,66
385,35	1675,24
385,55	1619,94
385,76	1730,53
385,97	1714,15
386,18	1648,61
386,39	1681,38
386,60	1658,85
386,81	1615,85
387,02	1699,81
387,22	1714,15
387,43	1765,35
387,64	1691,62
387,85	1841,12
388,06	2162,66
388,27	4415,42
388,48	6760,34
388,68	8365,95
388,89	9899,88
389,10	10016,62
389,31	8486,78
389,52	7577,48
389,73	6672,28
389,93	6379,42
390,14	6002,60
390,35	5164,98
390,56	4507,58
390,77	3774,41
390,98	3076,05
391,18	2549,72
391,39	2084,83
391,60	1832,93
391,81	1877,99
392,02	1691,62
392,23	1779,68
392,43	1677,29
392,64	1828,84
392,85	1656,81
393,06	1800,16
393,27	1681,38
393,47	1603,56
393,68	1722,34
393,89	1665,00
394,10	1806,31
394,31	1617,90
394,52	1611,75
394,72	1720,29
394,93	1775,59
395,14	1638,38
395,35	1783,78
395,56	1683,43
395,76	1705,96
395,97	1775,59
396,18	1902,56
396,39	1925,09
396,60	2068,45
396,80	1935,33
397,01	1822,69
397,22	1802,21
397,43	1869,80
397,64	1734,63
397,84	1765,35
398,05	1830,88
398,26	1734,63
398,47	1773,54
398,67	1767,40
398,88	1708,01
399,09	1681,38
399,30	1665,00
399,51	1644,52
399,71	1656,81
399,92	1738,73
400,13	1722,34
400,34	1665,00
400,54	1769,44
400,75	1804,26
400,96	1775,59
401,17	1845,22
401,37	1746,92
401,58	1644,52
401,79	1761,25
402,00	1941,47
402,21	1994,72
402,41	1994,72
402,62	1886,18
402,83	1980,39
403,04	1880,04
403,24	2047,97
403,45	1869,80
403,66	1976,29
403,87	1900,52
404,07	1822,69
404,28	1884,13
404,49	1824,74
404,70	1751,01
404,90	1703,91
405,11	1781,73
405,32	1728,49
405,52	1642,47
405,73	1640,42
405,94	1679,33
406,15	1714,15
406,35	1755,11
406,56	1748,97
406,77	1710,05
406,98	1662,95
407,18	1705,96
407,39	1796,07
407,60	1687,53
407,80	1687,53
408,01	1701,86
408,22	1718,25
408,43	1667,05
408,63	1804,26
408,84	1765,35
409,05	1748,97
409,25	1669,09
409,46	1679,33
409,67	1665,00
409,88	1675,24
410,08	1609,70
410,29	1636,33
410,50	1771,49
410,70	1691,62
410,91	1615,85
411,12	1695,72
411,32	1671,14
411,53	1654,76
411,74	1746,92
411,95	1800,16
412,15	1753,06
412,36	1804,26
412,57	1736,68
412,77	1779,68
412,98	1771,49
413,19	1699,81
413,39	1781,73
413,60	1767,40
413,81	1744,87
414,01	1656,81
414,22	1720,29
414,43	1701,86
414,63	1662,95
414,84	1724,39
415,05	1712,10
415,25	1624,04
415,46	1714,15
415,67	1662,95
415,87	1714,15
416,08	1677,29
416,29	1675,24
416,49	1759,21
416,70	1648,61
416,91	1708,01
417,11	1609,70
417,32	1644,52
417,53	1740,77
417,73	1726,44
417,94	1691,62
418,15	1740,77
418,35	1708,01
418,56	1650,66
418,77	1843,17
418,97	1607,66
419,18	1673,19
419,38	1595,37
419,59	1712,10
419,80	1787,88
420,00	1619,94
420,21	1732,58
420,42	1767,40
420,62	1820,64
420,83	1697,77
421,04	1728,49
421,24	1691,62
421,45	1720,29
421,65	1701,86
421,86	1646,57
422,07	1744,87
422,27	1669,09
422,48	1740,77
422,69	1652,71
422,89	1654,76
423,10	1652,71
423,30	1679,33
423,51	1662,95
423,72	1705,96
423,92	1716,20
424,13	1648,61
424,33	1662,95
424,54	1734,63
424,75	1736,68
424,95	1701,86
425,16	1705,96
425,36	1685,48
425,57	1763,30
425,78	1695,72
425,98	1794,02
426,19	1695,72
426,39	1785,83
426,60	1697,77
426,81	1806,31
427,01	1673,19
427,22	1624,04
427,42	1630,18
427,63	1609,70
427,83	1759,21
428,04	1767,40
428,25	1802,21
428,45	1726,44
428,66	1765,35
428,86	1699,81
429,07	1714,15
429,28	1667,05
429,48	1671,14
429,69	1587,18
429,89	1787,88
430,10	1654,76
430,30	1839,08
430,51	1785,83
430,71	1648,61
430,92	1726,44
431,13	1632,23
431,33	1648,61
431,54	1677,29
431,74	1759,21
431,95	1806,31
432,15	1601,51
432,36	1714,15
432,56	1738,73
432,77	1785,83
432,98	1808,36
433,18	1697,77
433,39	1695,72
433,59	1665,00
433,80	1736,68
434,00	1753,06
434,21	1746,92
434,41	1642,47
434,62	1755,11
434,82	1568,74
435,03	1705,96
435,23	1761,25
435,44	1603,56
435,64	1697,77
435,85	1765,35
436,06	1775,59
436,26	1730,53
436,47	1753,06
436,67	1667,05
436,88	1712,10
437,08	1732,58
437,29	1832,93
437,49	1683,43
437,70	1753,06
437,90	1722,34
438,11	1812,45
438,31	1777,64
438,52	1931,23
438,72	1806,31
438,93	1873,89
439,13	1734,63
439,34	1820,64
439,54	1732,58
439,75	1800,16
439,95	1849,32
440,16	1710,05
440,36	1818,60
440,57	1767,40
440,77	1701,86
440,98	1728,49
441,18	1800,16
441,39	1701,86
441,59	1654,76
441,80	1806,31
442,00	1722,34
442,21	1800,16
442,41	1675,24
442,62	1742,82
442,82	1703,91
443,02	1689,57
443,23	1736,68
443,43	1699,81
443,64	1794,02
443,84	1644,52
444,05	1822,69
444,25	1724,39
444,46	1759,21
444,66	1785,83
444,87	1820,64
445,07	1628,14
445,28	1759,21
445,48	1834,98
445,69	1742,82
445,89	1867,75
446,09	1628,14
446,30	1968,10
446,50	2623,45
446,71	3780,55
446,91	4345,79
447,12	4796,34
447,32	4884,41
447,53	4298,69
447,73	3954,63
447,93	3553,23
448,14	3311,57
448,34	3133,39
448,55	2867,16
448,75	2836,44
448,96	2658,26
449,16	2410,46
449,36	2248,67
449,57	2072,54
449,77	1875,94
449,98	1730,53
450,18	1830,88
450,39	1830,88
450,59	1789,92
450,79	1748,97
451,00	1771,49
451,20	1779,68
451,41	1697,77
451,61	1753,06
451,81	1751,01
452,02	1660,90
452,22	1673,19
452,43	1724,39
452,63	1660,90
452,84	1677,29
453,04	1662,95
453,24	1695,72
453,45	1683,43
453,65	1736,68
453,86	1767,40
454,06	1796,07
454,26	1781,73
454,47	1714,15
454,67	1697,77
454,87	1757,16
455,08	1669,09
455,28	1837,03
455,49	1708,01
455,69	1613,80
455,89	1843,17
456,10	1902,56
456,30	1746,92
456,51	1773,54
456,71	1820,64
456,91	1744,87
457,12	1710,05
457,32	1779,68
457,52	1685,48
457,73	1828,84
457,93	1757,16
458,14	1730,53
458,34	1654,76
458,54	1683,43
458,75	1736,68
458,95	1730,53
459,15	1771,49
459,36	1746,92
459,56	1748,97
459,76	1834,98
459,97	1800,16
460,17	1759,21
460,37	1820,64
460,58	1691,62
460,78	1732,58
460,99	1693,67
461,19	1789,92
461,39	1648,61
461,60	1757,16
461,80	1681,38
462,00	1634,28
462,21	1703,91
462,41	1683,43
462,61	1652,71
462,82	1689,57
463,02	1763,30
463,22	1724,39
463,43	1789,92
463,63	1730,53
463,83	1798,12
464,04	1720,29
464,24	1730,53
464,44	1708,01
464,64	1695,72
464,85	1746,92
465,05	1779,68
465,25	1708,01
465,46	1757,16
465,66	1779,68
465,86	1755,11
466,07	1714,15
466,27	1685,48
466,47	1595,37
466,68	1585,13
466,88	1837,03
467,08	1734,63
467,29	1744,87
467,49	1757,16
467,69	1699,81
467,89	1644,52
468,10	1675,24
468,30	1705,96
468,50	1763,30
468,71	1718,25
468,91	1660,90
469,11	1757,16
469,31	1732,58
469,52	1708,01
469,72	1726,44
469,92	1730,53
470,13	1673,19
470,33	1640,42
470,53	1824,74
470,73	2039,78
470,94	2383,84
471,14	2330,59
471,34	2449,37
471,54	2406,36
471,75	2256,86
471,95	2127,84
472,15	2045,92
472,36	2115,55
472,56	2050,02
472,76	2017,25
472,96	1998,82
473,17	1884,13
473,37	1943,52
473,57	1834,98
473,77	1806,31
473,98	1726,44
474,18	1626,09
474,38	1955,81
474,58	1697,77
474,79	1650,66
474,99	1714,15
475,19	1802,21
475,39	1634,28
475,60	1705,96
475,80	1736,68
476,00	1751,01
476,20	1603,56
476,41	1828,84
476,61	1789,92
476,81	1779,68
477,01	1726,44
477,21	1877,99
477,42	1738,73
477,62	1654,76
477,82	1785,83
478,02	1699,81
478,23	1755,11
478,43	1624,04
478,63	1697,77
478,83	1748,97
479,03	1673,19
479,24	1789,92
479,44	1851,36
479,64	1636,33
479,84	1628,14
480,04	1642,47
480,25	1837,03
480,45	1613,80
480,65	1734,63
480,85	1822,69
481,06	1732,58
481,26	1697,77
481,46	1746,92
481,66	1613,80
481,86	1669,09
482,06	1828,84
482,27	1761,25
482,47	1671,14
482,67	1738,73
482,87	1626,09
483,07	1738,73
483,28	1673,19
483,48	1689,57
483,68	1642,47
483,88	1679,33
484,08	1621,99
484,29	1644,52
484,49	1748,97
484,69	1660,90
484,89	1726,44
485,09	1695,72
485,29	1837,03
485,50	1746,92
485,70	1722,34
485,90	1763,30
486,10	1722,34
486,30	1746,92
486,50	1716,20
486,71	1718,25
486,91	1791,97
487,11	1740,77
487,31	1619,94
487,51	1658,85
487,71	1658,85
487,91	1603,56
488,12	1642,47
488,32	1603,56
488,52	1716,20
488,72	1640,42
488,92	1675,24
489,12	1746,92
489,32	1705,96
489,53	1753,06
489,73	1648,61
489,93	1771,49
490,13	1720,29
490,33	1607,66
490,53	1716,20
490,73	1800,16
490,94	1669,09
491,14	1781,73
491,34	1904,61
491,54	2164,70
491,74	2553,82
491,94	2897,88
492,14	3074,00
492,34	2963,41
492,54	2779,09
492,75	2469,85
492,95	2432,99
493,15	2385,88
493,35	2222,05
493,55	2295,77
493,75	2119,65
493,95	2172,89
494,15	2027,49
494,35	1830,88
494,56	1808,36
494,76	1718,25
494,96	1763,30
495,16	1708,01
495,36	1728,49
495,56	1742,82
495,76	1736,68
495,96	1767,40
496,16	1763,30
496,36	1765,35
496,56	1769,44
496,77	1722,34
496,97	1722,34
497,17	1644,52
497,37	1644,52
497,57	1804,26
497,77	1738,73
497,97	1677,29
498,17	1744,87
498,37	1718,25
498,57	1785,83
498,77	1607,66
498,97	1755,11
499,17	1789,92
499,38	1742,82
499,58	1751,01
499,78	1746,92
499,98	1751,01
500,18	1634,28
500,38	1751,01
500,58	1927,14
500,78	2512,86
500,98	4595,64
501,18	5875,62
501,38	6698,91
501,58	7022,48
501,78	6797,21
501,98	5588,91
502,18	4937,65
502,38	4540,35
502,58	4202,43
502,78	3719,11
502,98	3590,09
503,18	3491,79
503,38	3229,65
503,59	2871,25
503,79	2701,27
503,99	2547,67
504,19	2271,20
504,39	2211,81
504,59	2105,31
504,79	2097,12
504,99	1984,48
505,19	1865,70
505,39	1920,99
505,59	1939,43
505,79	1892,32
505,99	1855,46
506,19	1814,50
506,39	1871,84
506,59	1773,54
506,79	1691,62
506,99	1789,92
507,19	1736,68
507,39	1779,68
507,59	1705,96
507,79	1701,86
507,99	1705,96
508,19	1775,59
508,39	1624,04
508,59	1646,57
508,79	1771,49
508,99	1763,30
509,19	1681,38
509,39	1708,01
509,59	1658,85
509,79	1701,86
509,99	1773,54
510,19	1800,16
510,39	1746,92
510,59	1748,97
510,79	1722,34
510,99	1665,00
511,19	1665,00
511,39	1755,11
511,59	1746,92
511,79	1771,49
511,99	1744,87
512,19	1787,88
512,38	1656,81
512,58	1599,46
512,78	1658,85
512,98	1818,60
513,18	1808,36
513,38	1593,32
513,58	1804,26
513,78	1673,19
513,98	1712,10
514,18	1648,61
514,38	1667,05
514,58	1818,60
514,78	1650,66
514,98	1632,23
515,18	1771,49
515,38	1654,76
515,58	1779,68
515,78	1683,43
515,98	1742,82
516,18	1761,25
516,38	1728,49
516,57	1689,57
516,77	1724,39
516,97	1794,02
517,17	1701,86
517,37	1593,32
517,57	1722,34
517,77	1794,02
517,97	1671,14
518,17	1722,34
518,37	1665,00
518,57	1689,57
518,77	1632,23
518,97	1734,63
519,16	1771,49
519,36	1779,68
519,56	1689,57
519,76	1730,53
519,96	1691,62
520,16	1822,69
520,36	1708,01
520,56	1798,12
520,76	1646,57
520,96	1669,09
521,16	1804,26
521,35	1771,49
521,55	1855,46
521,75	1738,73
521,95	1689,57
522,15	1689,57
522,35	1671,14
522,55	1681,38
522,75	1765,35
522,95	1599,46
523,14	1675,24
523,34	1720,29
523,54	1634,28
523,74	1710,05
523,94	1732,58
524,14	1638,38
524,34	1798,12
524,54	1812,45
524,73	1689,57
524,93	1728,49
525,13	1748,97
525,33	1689,57
525,53	1933,28
525,73	1787,88
525,93	1693,67
526,13	1687,53
526,32	1701,86
526,52	1767,40
526,72	1736,68
526,92	1753,06
527,12	1695,72
527,32	1619,94
527,52	1738,73
527,71	1742,82
527,91	1665,00
528,11	1640,42
528,31	1691,62
528,51	1644,52
528,71	1732,58
528,90	1820,64
529,10	1755,11
529,30	1757,16
529,50	1632,23
529,70	1751,01
529,90	1724,39
530,09	1722,34
530,29	1636,33
530,49	1660,90
530,69	1800,16
530,89	1722,34
531,09	1740,77
531,28	1648,61
531,48	1773,54
531,68	1699,81
531,88	1734,63
532,08	1726,44
532,28	1720,29
532,47	1849,32
532,67	1771,49
532,87	1808,36
533,07	1734,63
533,27	1738,73
533,46	1751,01
533,66	1732,58
533,86	1724,39
534,06	1712,10
534,26	1751,01
534,45	1714,15
534,65	1816,55
534,85	1746,92
535,05	1705,96
535,25	1822,69
535,44	1607,66
535,64	1732,58
535,84	1646,57
536,04	1761,25
536,24	1607,66
536,43	1675,24
536,63	1769,44
536,83	1681,38
537,03	1646,57
537,22	1617,90
537,42	1640,42
537,62	1755,11
537,82	1665,00
538,02	1761,25
538,21	1755,11
538,41	1904,61
538,61	1738,73
538,81	1769,44
539,00	1779,68
539,20	1603,56
539,40	1689,57
539,60	1818,60
539,79	1740,77
539,99	1681,38
540,19	1638,38
540,39	1712,10
540,58	1724,39
540,78	1832,93
540,98	1708,01
541,18	1746,92
541,37	1699,81
541,57	1712,10
541,77	1728,49
541,97	1660,90
542,16	1652,71
542,36	1708,01
542,56	1777,64
542,76	1828,84
542,95	1816,55
543,15	1710,05
543,35	1726,44
543,54	1640,42
543,74	1726,44
543,94	1755,11
544,14	1699,81
544,33	1691,62
544,53	1732,58
544,73	1781,73
544,93	1671,14
545,12	1687,53
545,32	1732,58
545,52	1662,95
545,71	1640,42
545,91	1681,38
546,11	1763,30
546,30	1720,29
546,50	1730,53
546,70	1763,30
546,90	1710,05
547,09	1693,67
547,29	1671,14
547,49	1712,10
547,68	1714,15
547,88	1619,94
548,08	1832,93
548,27	2162,66
548,47	1724,39
548,67	1687,53
548,87	1708,01
549,06	1654,76
549,26	1759,21
549,46	1710,05
549,65	1624,04
549,85	1771,49
550,05	1857,51
550,24	1628,14
550,44	1724,39
550,64	1742,82
550,83	1687,53
551,03	1791,97
551,23	1783,78
551,42	1675,24
551,62	1759,21
551,82	1677,29
552,01	1640,42
552,21	1806,31
552,41	1765,35
552,60	1755,11
552,80	1722,34
553,00	1607,66
553,19	1757,16
553,39	1800,16
553,59	1638,38
553,78	1732,58
553,98	1640,42
554,17	1650,66
554,37	1765,35
554,57	1740,77
554,76	1683,43
554,96	1685,48
555,16	1705,96
555,35	1708,01
555,55	1822,69
555,75	1746,92
555,94	1728,49
556,14	1705,96
556,33	1773,54
556,53	1763,30
556,73	1662,95
556,92	1701,86
557,12	1845,22
557,32	1814,50
557,51	1804,26
557,71	1734,63
557,90	1820,64
558,10	1818,60
558,30	1716,20
558,49	1716,20
558,69	1734,63
558,88	1755,11
559,08	1769,44
559,28	1691,62
559,47	1691,62
559,67	1732,58
559,86	1896,42
560,06	1763,30
560,26	1714,15
560,45	1697,77
560,65	1675,24
560,84	1767,40
561,04	1689,57
561,24	1753,06
561,43	1687,53
561,63	1710,05
561,82	1675,24
562,02	1877,99
562,22	1695,72
562,41	1667,05
562,61	1746,92
562,80	1658,85
563,00	1892,32
563,19	1746,92
563,39	1816,55
563,59	1791,97
563,78	1662,95
563,98	1624,04
564,17	1742,82
564,37	1593,32
564,56	1654,76
564,76	1615,85
564,96	1771,49
565,15	1755,11
565,35	1884,13
565,54	1603,56
565,74	1787,88
565,93	1689,57
566,13	1771,49
566,32	1759,21
566,52	1703,91
566,71	1681,38
566,91	1757,16
567,11	1650,66
567,30	1660,90
567,50	1703,91
567,69	1726,44
567,89	1699,81
568,08	1705,96
568,28	1710,05
568,47	1685,48
568,67	1689,57
568,86	1718,25
569,06	1779,68
569,25	1683,43
569,45	1693,67
569,64	1660,90
569,84	1693,67
570,04	1818,60
570,23	1662,95
570,43	1714,15
570,62	1679,33
570,82	1818,60
571,01	1703,91
571,21	1744,87
571,40	1691,62
571,60	1763,30
571,79	1708,01
571,99	1755,11
572,18	1738,73
572,38	1710,05
572,57	1746,92
572,77	1744,87
572,96	1890,28
573,16	1726,44
573,35	1701,86
573,55	1839,08
573,74	1720,29
573,94	1699,81
574,13	1710,05
574,33	1834,98
574,52	1757,16
574,71	1779,68
574,91	1703,91
575,10	1658,85
575,30	1669,09
575,49	1665,00
575,69	1720,29
575,88	1781,73
576,08	1705,96
576,27	1845,22
576,47	1789,92
576,66	1765,35
576,86	1822,69
577,05	1755,11
577,25	1804,26
577,44	1871,84
577,64	1724,39
577,83	1785,83
578,02	1742,82
578,22	1824,74
578,41	1802,21
578,61	1757,16
578,80	1730,53
579,00	1822,69
579,19	1652,71
579,39	1710,05
579,58	1771,49
579,77	1703,91
579,97	1777,64
580,16	1816,55
580,36	1824,74
580,55	1787,88
580,75	1718,25
580,94	1755,11
581,13	1822,69
581,33	1888,23
581,52	1779,68
581,72	1843,17
581,91	1837,03
582,11	1648,61
582,30	1734,63
582,49	1757,16
582,69	1800,16
582,88	1767,40
583,08	1777,64
583,27	1734,63
583,47	1751,01
583,66	1759,21
583,85	1751,01
584,05	1779,68
584,24	1812,45
584,44	1763,30
584,63	1847,27
584,82	1765,35
585,02	1720,29
585,21	1841,12
585,41	1861,60
585,60	1751,01
585,79	1906,66
585,99	1927,14
586,18	1843,17
586,37	2144,22
586,57	3360,72
586,76	9908,07
586,96	24897,16
587,15	34831,85
587,34	40869,26
587,54	42878,32
587,73	37131,72
587,93	26560,11
588,12	21585,59
588,31	18859,74
588,51	16690,95
588,70	15230,74
588,89	14303,01
589,09	12676,93
589,28	11405,14
589,47	9869,16
589,67	8198,02
589,86	6432,67
590,06	4966,32
590,25	4001,73
590,44	3186,64
590,64	2549,72
590,83	2228,19
591,02	2172,89
591,22	2035,68
591,41	1849,32
591,60	1804,26
591,80	1908,71
591,99	1794,02
592,18	1798,12
592,38	1828,84
592,57	1777,64
592,76	1816,55
592,96	1734,63
593,15	1734,63
593,34	1748,97
593,54	1748,97
593,73	1771,49
593,92	1806,31
594,12	1738,73
594,31	1804,26
594,50	1812,45
594,70	1826,79
594,89	1863,65
595,08	1724,39
595,28	1779,68
595,47	1914,85
595,66	1675,24
595,86	1718,25
596,05	1783,78
596,24	1667,05
596,43	1796,07
596,63	1845,22
596,82	1789,92
597,01	1740,77
597,21	1839,08
597,40	1769,44
597,59	1722,34
597,79	1652,71
597,98	1816,55
598,17	1783,78
598,36	1726,44
598,56	1755,11
598,75	1665,00
598,94	1781,73
599,14	1722,34
599,33	1720,29
599,52	1724,39
599,71	1791,97
599,91	1759,21
600,10	1767,40
600,29	1773,54
600,48	1744,87
600,68	1865,70
600,87	1720,29
601,06	1683,43
601,26	1714,15
601,45	1701,86
601,64	1644,52
601,83	1806,31
602,03	1781,73
602,22	1705,96
602,41	1769,44
602,60	1871,84
602,80	1748,97
602,99	1710,05
603,18	1679,33
603,37	1757,16
603,57	1705,96
603,76	1746,92
603,95	1742,82
604,14	1714,15
604,34	1640,42
604,53	1794,02
604,72	1695,72
604,91	1705,96
605,10	1759,21
605,30	1632,23
605,49	1798,12
605,68	1734,63
605,87	1751,01
606,07	1757,16
606,26	1701,86
606,45	1705,96
606,64	1769,44
606,84	1728,49
607,03	1685,48
607,22	1695,72
607,41	1771,49
607,60	1660,90
607,80	1771,49
607,99	1685,48
608,18	1751,01
608,37	1705,96
608,56	1648,61
608,76	1714,15
608,95	1820,64
609,14	1738,73
609,33	1771,49
609,52	1757,16
609,72	1771,49
609,91	1755,11
610,10	1705,96
610,29	1777,64
610,48	1845,22
610,68	1763,30
610,87	1669,09
611,06	1746,92
611,25	1789,92
611,44	1716,20
611,63	1689,57
611,83	1796,07
612,02	1630,18
612,21	1781,73
612,40	1617,90
612,59	1621,99
612,79	1667,05
612,98	1662,95
613,17	1787,88
613,36	1648,61
613,55	1794,02
613,74	1652,71
613,93	1705,96
614,13	1781,73
614,32	1742,82
614,51	1753,06
614,70	1742,82
614,89	1681,38
615,08	1796,07
615,28	2015,20
615,47	1599,46
615,66	1753,06
615,85	1736,68
616,04	1869,80
616,23	1732,58
616,42	1732,58
616,62	1736,68
616,81	1708,01
617,00	1703,91
617,19	1744,87
617,38	1699,81
617,57	1673,19
617,76	1740,77
617,95	1712,10
618,15	1744,87
618,34	1771,49
618,53	1636,33
618,72	1767,40
618,91	1869,80
619,10	1816,55
619,29	1718,25
619,48	1701,86
619,68	1589,22
619,87	1763,30
620,06	1609,70
620,25	1722,34
620,44	1689,57
620,63	1714,15
620,82	1615,85
621,01	1753,06
621,20	1742,82
621,39	1636,33
621,59	1787,88
621,78	1722,34
621,97	1597,42
622,16	1730,53
622,35	1689,57
622,54	1738,73
622,73	1806,31
622,92	1681,38
623,11	1783,78
623,30	1665,00
623,49	1734,63
623,68	1656,81
623,88	1820,64
624,07	1687,53
624,26	1703,91
624,45	1787,88
624,64	1681,38
624,83	1697,77
625,02	1716,20
625,21	1699,81
625,40	1679,33
625,59	1730,53
625,78	1742,82
625,97	1853,41
626,16	1695,72
626,35	1714,15
626,54	1673,19
626,74	1802,21
626,93	1701,86
627,12	1642,47
627,31	1744,87
627,50	1791,97
627,69	1740,77
627,88	1638,38
628,07	1710,05
628,26	1589,22
628,45	1632,23
628,64	1691,62
628,83	1742,82
629,02	1638,38
629,21	1755,11
629,40	1710,05
629,59	1656,81
629,78	1714,15
629,97	1771,49
630,16	1734,63
630,35	1730,53
630,54	1757,16
630,73	1681,38
630,92	1763,30
631,11	1683,43
631,30	1708,01
631,49	1767,40
631,68	1697,77
631,87	1734,63
632,06	1669,09
632,25	1796,07
632,44	1617,90
632,63	1695,72
632,82	1667,05
633,01	1650,66
633,20	1636,33
633,39	1613,80
633,58	1599,46
633,77	1710,05
633,96	1777,64
634,15	1783,78
634,34	1755,11
634,53	1683,43
634,72	1689,57
634,91	1669,09
635,10	1728,49
635,29	1767,40
635,48	1748,97
635,67	1677,29
635,86	1597,42
636,05	1796,07
636,24	1732,58
636,43	1712,10
636,62	1701,86
636,81	1574,89
637,00	1699,81
637,19	1697,77
637,38	1677,29
637,57	1673,19
637,76	1669,09
637,95	1730,53
638,14	1748,97
638,33	1611,75
638,52	1746,92
638,71	1626,09
638,89	1628,14
639,08	1871,84
639,27	1804,26
639,46	1701,86
639,65	1775,59
639,84	1767,40
640,03	1820,64
640,22	1712,10
640,41	1820,64
640,60	1714,15
640,79	1730,53
640,98	1708,01
641,17	1746,92
641,36	1675,24
641,55	1703,91
641,74	1630,18
641,92	1699,81
642,11	1634,28
642,30	1724,39
642,49	1615,85
642,68	1691,62
642,87	1701,86
643,06	1787,88
643,25	1679,33
643,44	1609,70
643,63	1695,72
643,82	1677,29
644,00	1572,84
644,19	1638,38
644,38	1628,14
644,57	1724,39
644,76	1710,05
644,95	1642,47
645,14	1687,53
645,33	1699,81
645,52	1722,34
645,71	1683,43
645,89	1607,66
646,08	1687,53
646,27	1660,90
646,46	1806,31
646,65	1660,90
646,84	1689,57
647,03	1697,77
647,22	1816,55
647,40	1730,53
647,59	1611,75
647,78	1624,04
647,97	1630,18
648,16	1652,71
648,35	1785,83
648,54	1796,07
648,73	1710,05
648,91	1763,30
649,10	1712,10
649,29	1636,33
649,48	1660,90
649,67	1763,30
649,86	1724,39
650,05	1654,76
650,23	1757,16
650,42	1568,74
650,61	1708,01
650,80	1767,40
650,99	1787,88
651,18	1683,43
651,36	1746,92
651,55	1720,29
651,74	1695,72
651,93	1660,90
652,12	1685,48
652,31	1693,67
652,49	1671,14
652,68	1703,91
652,87	1755,11
653,06	1652,71
653,25	1767,40
653,44	1624,04
653,62	1748,97
653,81	1677,29
654,00	1708,01
654,19	1673,19
654,38	1910,75
654,56	1722,34
654,75	1738,73
654,94	1783,78
655,13	1677,29
655,32	1710,05
655,51	1677,29
655,69	1705,96
655,88	1701,86
656,07	1607,66
656,26	1742,82
656,45	1656,81
656,63	1787,88
656,82	1761,25
657,01	1757,16
657,20	1689,57
657,38	1787,88
657,57	1722,34
657,76	1660,90
657,95	1722,34
658,14	1591,27
658,32	1738,73
658,51	1753,06
658,70	1765,35
658,89	1660,90
659,08	1757,16
659,26	1812,45
659,45	1597,42
659,64	1679,33
659,83	1574,89
660,01	1845,22
660,20	1734,63
660,39	1748,97
660,58	1585,13
660,76	1683,43
660,95	1599,46
661,14	1714,15
661,33	1667,05
661,51	1630,18
661,70	1589,22
661,89	1744,87
662,08	1681,38
662,26	1599,46
662,45	1699,81
662,64	1775,59
662,83	1816,55
663,01	1685,48
663,20	1626,09
663,39	1767,40
663,58	1685,48
663,76	1736,68
663,95	1828,84
664,14	1699,81
664,32	1667,05
664,51	1591,27
664,70	1576,94
664,89	1710,05
665,07	1609,70
665,26	1748,97
665,45	1630,18
665,64	1724,39
665,82	1832,93
666,01	1759,21
666,20	1689,57
666,38	1763,30
666,57	1816,55
666,76	2140,13
666,95	4415,42
667,13	10547,04
667,32	15597,33
667,51	17893,10
667,69	19205,85
667,88	17737,46
668,07	12451,65
668,25	9635,69
668,44	8124,29
668,63	7423,89
668,81	6891,41
669,00	6240,16
669,19	5865,38
669,38	5169,07
669,56	4558,78
669,75	3975,11
669,94	3352,52
670,12	2877,40
670,31	2506,71
670,50	2252,77
670,68	2086,88
670,87	2017,25
671,06	1802,21
671,24	1751,01
671,43	1818,60
671,62	1763,30
671,80	1675,24
671,99	1794,02
672,18	1658,85
672,36	1753,06
672,55	1734,63
672,74	1738,73
672,92	1683,43
673,11	1779,68
673,29	1677,29
673,48	1742,82
673,67	1697,77
673,85	1818,60
674,04	1660,90
674,23	1683,43
674,41	1791,97
674,60	1726,44
674,79	1585,13
674,97	1761,25
675,16	1800,16
675,34	1673,19
675,53	1693,67
675,72	1828,84
675,90	1820,64
676,09	1613,80
676,28	1708,01
676,46	1578,98
676,65	1767,40
676,83	1628,14
677,02	1683,43
677,21	1714,15
677,39	1740,77
677,58	1654,76
677,77	1656,81
677,95	1710,05
678,14	1665,00
678,32	1619,94
678,51	1601,51
678,70	1781,73
678,88	1701,86
679,07	1691,62
679,25	1736,68
679,44	1718,25
679,63	1613,80
679,81	1724,39
680,00	1798,12
680,18	1798,12
680,37	1783,78
680,55	1718,25
680,74	1662,95
680,93	1640,42
681,11	1724,39
681,30	1732,58
681,48	1771,49
681,67	1691,62
681,85	1761,25
682,04	1632,23
682,23	1763,30
682,41	1693,67
682,60	1734,63
682,78	1683,43
682,97	1638,38
683,15	1673,19
683,34	1777,64
683,53	1787,88
683,71	1624,04
683,90	1763,30
684,08	1783,78
684,27	1681,38
684,45	1648,61
684,64	1724,39
684,82	1705,96
685,01	1658,85
685,19	1644,52
685,38	1763,30
685,57	1673,19
685,75	1701,86
685,94	1613,80
686,12	1636,33
686,31	1624,04
686,49	1789,92
686,68	1642,47
686,86	1734,63
687,05	1710,05
687,23	1759,21
687,42	1611,75
687,60	1662,95
687,79	1720,29
687,97	1785,83
688,16	1771,49
688,34	1708,01
688,53	1607,66
688,71	1751,01
688,90	1830,88
689,08	1650,66
689,27	1660,90
689,45	1789,92
689,64	1730,53
689,82	1667,05
690,01	1697,77
690,19	1789,92
690,38	1673,19
690,56	1714,15
690,75	1613,80
690,93	1634,28
691,12	1718,25
691,30	1740,77
691,49	1642,47
691,67	1705,96
691,86	1738,73
692,04	1589,22
692,23	1705,96
692,41	1638,38
692,60	1824,74
692,78	1724,39
692,97	1732,58
693,15	1658,85
693,34	1808,36
693,52	1767,40
693,71	1673,19
693,89	1554,41
694,08	1615,85
694,26	1714,15
694,44	1722,34
694,63	1834,98
694,81	1677,29
695,00	1691,62
695,18	1755,11
695,37	1781,73
695,55	1824,74
695,74	1677,29
695,92	1587,18
696,10	1802,21
696,29	1638,38
696,47	1662,95
696,66	1613,80
696,84	1724,39
697,03	1705,96
697,21	1798,12
697,40	2263,01
697,58	1718,25
697,76	1691,62
697,95	1603,56
698,13	1638,38
698,32	1601,51
698,50	1755,11
698,68	1775,59
698,87	1728,49
699,05	1755,11
699,24	1585,13
699,42	1669,09
699,61	1703,91
699,79	1726,44
699,97	1673,19
700,16	1576,94
700,34	1636,33
700,53	1654,76
700,71	1826,79
700,89	1769,44
701,08	1734,63
701,26	1720,29
701,45	2125,79
701,63	1675,24
701,81	1685,48
702,00	1712,10
702,18	1746,92
702,37	1691,62
702,55	1714,15
702,73	1718,25
702,92	1538,02
703,10	1765,35
703,28	1701,86
703,47	1656,81
703,65	1699,81
703,84	1708,01
704,02	1679,33
704,20	1826,79
704,39	1673,19
704,57	1718,25
704,75	1787,88
704,94	1742,82
705,12	1701,86
705,30	1820,64
705,49	2297,82
705,67	4540,35
705,86	9596,78
706,04	12748,61
706,22	14774,05
706,41	15599,38
706,59	14206,76
706,77	9697,13
706,96	7548,81
707,14	6643,61
707,32	6131,62
707,51	5674,92
707,69	5083,06
707,87	4358,08
708,06	3573,71
708,24	3065,81
708,42	2414,56
708,61	2283,49
708,79	1914,85
708,97	1875,94
709,16	1736,68
709,34	1796,07
709,52	1804,26
709,71	1794,02
709,89	1732,58
710,07	1650,66
710,26	1626,09
710,44	1771,49
710,62	1816,55
710,80	1669,09
710,99	1679,33
711,17	1816,55
711,35	1607,66
711,54	1589,22
711,72	1734,63
711,90	1693,67
712,09	1693,67
712,27	1683,43
712,45	1710,05
712,63	1656,81
712,82	1681,38
713,00	1671,14
713,18	1771,49
713,37	1822,69
713,55	1755,11
713,73	1732,58
713,91	1771,49
714,10	1718,25
714,28	1806,31
714,46	1732,58
714,65	1697,77
714,83	1785,83
715,01	1722,34
715,19	1656,81
715,38	1644,52
715,56	1597,42
715,74	1654,76
715,92	1658,85
716,11	1845,22
716,29	1603,56
716,47	1660,90
716,65	1654,76
716,84	1540,07
717,02	1722,34
717,20	1615,85
717,38	1675,24
717,57	1730,53
717,75	1677,29
717,93	1650,66
718,11	1705,96
718,30	1671,14
718,48	1736,68
718,66	1738,73
718,84	1689,57
719,03	1646,57
719,21	1632,23
719,39	1781,73
719,57	1757,16
719,75	1757,16
719,94	1636,33
720,12	1679,33
720,30	1665,00
720,48	1767,40
720,67	1669,09
720,85	1574,89
721,03	1634,28
721,21	1662,95
721,39	1771,49
721,58	1683,43
721,76	1751,01
721,94	1677,29
722,12	1710,05
722,30	1746,92
722,49	1738,73
722,67	1785,83
722,85	1742,82
723,03	1689,57
723,21	1712,10
723,40	1644,52
723,58	1724,39
723,76	1662,95
723,94	1726,44
724,12	1685,48
724,30	1765,35
724,49	1730,53
724,67	1607,66
724,85	1757,16
725,03	1634,28
725,21	1740,77
725,40	1775,59
725,58	1648,61
725,76	1771,49
725,94	1728,49
726,12	1744,87
726,30	1693,67
726,49	1669,09
726,67	1671,14
726,85	1708,01
727,03	1816,55
727,21	2146,27
727,39	2906,07
727,57	3829,70
727,76	4202,43
727,94	4509,63
728,12	4335,55
728,30	3760,07
728,48	3000,27
728,66	2795,48
728,84	2525,15
729,03	2289,63
729,21	2142,18
729,39	1982,43
729,57	1800,16
729,75	1779,68
729,93	1777,64
730,11	1748,97
730,30	1691,62
730,48	1718,25
730,66	1787,88
730,84	1740,77
731,02	1660,90
731,20	1656,81
731,38	1648,61
731,56	1671,14
731,74	1640,42
731,93	1660,90
732,11	1726,44
732,29	1701,86
732,47	1796,07
732,65	1632,23
732,83	1794,02
733,01	1640,42
733,19	1716,20
733,37	1712,10
733,56	1759,21
733,74	1665,00
733,92	1816,55
734,10	1619,94
734,28	1679,33
734,46	1558,50
734,64	1681,38
734,82	1564,65
735,00	1665,00
735,18	1763,30
735,36	1650,66
735,54	1705,96
735,73	1722,34
735,91	1718,25
736,09	1798,12
736,27	1673,19
736,45	1734,63
736,63	1638,38
736,81	1671,14
736,99	1824,74
737,17	1779,68
737,35	1665,00
737,53	1763,30
737,71	1699,81
737,89	1779,68
738,07	1650,66
738,25	1605,61
738,43	1607,66
738,61	1683,43
738,80	1624,04
738,98	1632,23
739,16	1679,33
739,34	1654,76
739,52	1771,49
739,70	1693,67
739,88	1785,83
740,06	1716,20
740,24	1632,23
740,42	1701,86
740,60	1587,18
740,78	1708,01
740,96	1611,75
741,14	1644,52
741,32	1710,05
741,50	1617,90
741,68	1742,82
741,86	1765,35
742,04	1662,95
742,22	1636,33
742,40	1615,85
742,58	1671,14
742,76	1617,90
742,94	1787,88
743,12	1630,18
743,30	1724,39
743,48	1677,29
743,66	1628,14
743,84	1730,53
744,02	1693,67
744,20	1656,81
744,38	1673,19
744,56	1644,52
744,74	1781,73
744,92	1642,47
745,10	1734,63
745,28	1685,48
745,46	1720,29
745,64	1634,28
745,82	1730,53
746,00	1662,95
746,18	1683,43
746,36	1681,38
746,54	1726,44
746,72	1703,91
746,90	1693,67
747,08	1708,01
747,26	1724,39
747,44	1738,73
747,62	1710,05
747,80	1685,48
747,98	1734,63
748,15	1697,77
748,33	1804,26
748,51	1642,47
748,69	1732,58
748,87	1609,70
749,05	1669,09
749,23	1693,67
749,41	1710,05
749,59	1658,85
749,77	1738,73
749,95	1701,86
750,13	1646,57
750,31	1751,01
750,49	1714,15
750,67	1708,01
750,85	1830,88
751,03	1744,87
751,20	1869,80
751,38	1748,97
751,56	1667,05
751,74	1751,01
751,92	1665,00
752,10	1607,66
752,28	1710,05
752,46	1646,57
752,64	1656,81
752,82	1658,85
753,00	1708,01
753,18	1662,95
753,35	1603,56
753,53	1716,20
753,71	1605,61
753,89	1765,35
754,07	1699,81
754,25	1714,15
754,43	1724,39
754,61	1568,74
754,79	1697,77
754,97	1656,81
755,14	1712,10
755,32	1638,38
755,50	1714,15
755,68	1626,09
755,86	1671,14
756,04	1615,85
756,22	1576,94
756,40	1730,53
756,57	1832,93
756,75	1730,53
756,93	1740,77
757,11	1683,43
757,29	1652,71
757,47	1660,90
757,65	1662,95
757,82	1544,17
758,00	1673,19
758,18	1708,01
758,36	1673,19
758,54	1816,55
758,72	1626,09
758,90	1738,73
759,07	1759,21
759,25	1681,38
759,43	1689,57
759,61	1624,04
759,79	2191,33
759,97	1771,49
760,15	1677,29
760,32	1648,61
760,50	1689,57
760,68	1802,21
760,86	1595,37
761,04	1783,78
761,22	1701,86
761,39	1732,58
761,57	1753,06
761,75	1677,29
761,93	1712,10
762,11	1652,71
762,28	1677,29
762,46	1681,38
762,64	1744,87
762,82	1685,48
763,00	1691,62
763,18	1761,25
763,35	1611,75
763,53	1759,21
763,71	1699,81
763,89	1708,01
764,07	1705,96
764,24	1671,14
764,42	1730,53
764,60	1636,33
764,78	1736,68
764,96	1791,97
765,13	1789,92
765,31	1624,04
765,49	1744,87
765,67	1638,38
765,84	1673,19
766,02	1679,33
766,20	1632,23
766,38	1755,11
766,56	1851,36
766,73	1732,58
766,91	1626,09
767,09	1632,23
767,27	1673,19
767,44	1681,38
767,62	1675,24
767,80	1814,50
767,98	1689,57
768,15	1611,75
768,33	1626,09
768,51	1667,05
768,69	1685,48
768,87	1699,81
769,04	1740,77
769,22	1869,80
769,40	1808,36
769,58	1820,64
769,75	1695,72
769,93	1732,58
770,11	1681,38
770,28	1632,23
770,46	1689,57
770,64	1650,66
770,82	1722,34
770,99	1640,42
771,17	1746,92
771,35	1673,19
771,53	1621,99
771,70	1699,81
771,88	1732,58
772,06	1681,38
772,23	1701,86
772,41	1744,87
772,59	1648,61
772,77	1630,18
772,94	1662,95
773,12	1746,92
773,30	1617,90
773,47	1634,28
773,65	1685,48
773,83	1884,13
774,01	1652,71
774,18	1626,09
774,36	1611,75
774,54	1615,85
774,71	1650,66
774,89	1535,98
775,07	1615,85
775,24	1748,97
775,42	1673,19
775,60	1806,31
775,78	1652,71
775,95	1621,99
776,13	1630,18
776,31	1585,13
776,48	1755,11
776,66	1808,36
776,84	1640,42
777,01	1708,01
777,19	1652,71
777,37	1656,81
777,54	1763,30
777,72	1871,84
777,90	1638,38
778,07	1714,15
778,25	1830,88
778,43	1755,11
778,60	1638,38
778,78	1697,77
778,96	1783,78
779,13	1607,66
779,31	1783,78
779,49	1667,05
779,66	1593,32
779,84	1714,15
780,01	1718,25
780,19	1716,20
780,37	1656,81
780,54	1755,11
780,72	1658,85
780,90	1673,19
781,07	1681,38
781,25	1710,05
781,43	1695,72
781,60	1716,20
781,78	1757,16
781,95	1740,77
782,13	1656,81
782,31	1693,67
782,48	1611,75
782,66	1642,47
782,83	1796,07
783,01	1642,47
783,19	1726,44
783,36	1642,47
783,54	1632,23
783,72	1673,19
783,89	1669,09
784,07	1705,96
784,24	1703,91
784,42	1765,35
784,60	1638,38
784,77	1720,29
784,95	1570,79
785,12	1640,42
785,30	1722,34
785,47	1658,85
785,65	1609,70
785,83	1665,00
786,00	1665,00
786,18	1695,72
786,35	1667,05
786,53	1636,33
786,71	1812,45
786,88	1742,82
787,06	1632,23
787,23	1691,62
787,41	1675,24
787,58	1701,86
787,76	1691,62
787,94	1718,25
788,11	1777,64
788,29	1660,90
788,46	1617,90
788,64	1691,62
788,81	1628,14
788,99	1662,95
789,16	1693,67
789,34	1755,11
789,52	1634,28
789,69	1626,09
789,87	1585,13
790,04	1632,23
790,22	1783,78
790,39	1740,77
790,57	1703,91
790,74	1634,28
790,92	1703,91
791,09	1615,85
791,27	1667,05
791,44	1718,25
791,62	1697,77
791,79	1724,39
791,97	1624,04
792,15	1882,08
792,32	1681,38
792,50	1714,15
792,67	1789,92
792,85	1718,25
793,02	1689,57
793,20	1701,86
793,37	1632,23
793,55	1681,38
793,72	1611,75
793,90	1705,96
794,07	1638,38
794,25	1695,72
794,42	1703,91
794,60	1644,52
794,77	1679,33
794,95	1730,53
795,12	1724,39
795,30	1673,19
795,47	1642,47
795,65	1814,50
795,82	1708,01
796,00	1583,08
796,17	1689,57
796,34	1701,86
796,52	1697,77
796,69	1722,34
796,87	1693,67
797,04	1691,62
797,22	1697,77
797,39	1724,39
797,57	1759,21
797,74	1703,91
797,92	1677,29
798,09	1611,75
798,27	1783,78
798,44	1746,92
798,62	1646,57
798,79	1693,67
798,96	1742,82
799,14	1669,09
799,31	1789,92
799,49	1738,73
799,66	1681,38
799,84	1703,91
800,01	1603,56
800,19	1701,86
800,36	1613,80
800,53	1712,10
800,71	1716,20
800,88	1730,53
801,06	1644,52
801,23	1697,77
801,41	1603,56
801,58	1718,25
801,75	1599,46
801,93	1751,01
802,10	1722,34
802,28	1675,24
802,45	1665,00
802,63	1751,01
802,80	1759,21
802,97	1665,00
803,15	1689,57
803,32	1683,43
803,50	1632,23
803,67	1613,80
803,84	1656,81
804,02	1761,25
804,19	1732,58
804,37	1632,23
804,54	1683,43
804,71	1660,90
804,89	1652,71
805,06	1642,47
805,24	1609,70
805,41	1570,79
805,58	1587,18
805,76	1767,40
805,93	1734,63
806,10	1771,49
806,28	1699,81
806,45	1722,34
806,63	1710,05
806,80	1712,10
806,97	1751,01
807,15	1654,76
807,32	1701,86
807,49	1708,01
807,67	1619,94
807,84	1695,72
808,01	1609,70
808,19	1767,40
808,36	1804,26
808,54	1624,04
808,71	1609,70
808,88	1699,81
809,06	1726,44
809,23	1775,59
809,40	1617,90
809,58	1771,49
809,75	1710,05
809,92	1665,00
810,10	1851,36
810,27	1677,29
810,44	1689,57
810,62	1687,53
810,79	1716,20
810,96	1689,57
811,14	1701,86
811,31	1730,53
811,48	1751,01
811,66	1697,77
811,83	1732,58
812,00	1736,68
812,18	1673,19
812,35	1761,25
812,52	1687,53
812,69	1689,57
812,87	1665,00
813,04	1587,18
813,21	1697,77
813,39	1593,32
813,56	1679,33
813,73	1714,15
813,91	1691,62
814,08	1605,61
814,25	1705,96
814,42	1617,90
814,60	1619,94
814,77	1777,64
814,94	1697,77
815,12	1759,21
815,29	1720,29
815,46	1660,90
815,63	1656,81
815,81	1665,00
815,98	1601,51
816,15	1705,96
816,33	1673,19
816,50	1753,06
816,67	1720,29
816,84	1677,29
817,02	1644,52
817,19	1654,76
817,36	1607,66
817,53	1681,38
817,71	1613,80
817,88	1726,44
818,05	1705,96
818,22	1619,94
818,40	1726,44
818,57	1734,63
818,74	1779,68
818,91	1755,11
819,09	1626,09
819,26	1660,90
819,43	1609,70
819,60	1697,77
819,78	1693,67
819,95	1703,91
820,12	1667,05
820,29	1667,05
820,47	1730,53
820,64	1705,96
820,81	1656,81
820,98	1619,94
821,15	1613,80
821,33	1728,49
821,50	1560,55
821,67	1710,05
821,84	1738,73
822,02	1624,04
822,19	1697,77
822,36	1701,86
822,53	1662,95
822,70	1656,81
822,88	1683,43
823,05	1816,55
823,22	1656,81
823,39	1683,43
823,56	1660,90
823,74	1740,77
823,91	1691,62
824,08	1591,27
824,25	1673,19
824,42	1826,79
824,60	1640,42
824,77	1648,61
824,94	1679,33
825,11	1689,57
825,28	1552,36
825,45	1681,38
825,63	1708,01
825,80	1667,05
825,97	1710,05
826,14	1656,81
826,31	1599,46
826,48	1714,15
826,66	1662,95
826,83	1636,33
827,00	1701,86
827,17	1628,14
827,34	1648,61
827,51	1601,51
827,69	1656,81
827,86	1646,57
828,03	1714,15
828,20	1658,85
828,37	1636,33
828,54	1740,77
828,71	1691,62
828,89	1726,44
829,06	1599,46
829,23	1787,88
829,40	1599,46
829,57	1673,19
829,74	1710,05
829,91	1730,53
830,09	1656,81
830,26	1755,11
830,43	1775,59
830,60	1714,15
830,77	1769,44
830,94	1679,33
831,11	1703,91
831,28	1730,53
831,46	1730,53
831,63	1665,00
831,80	1689,57
831,97	1656,81
832,14	1607,66
832,31	1656,81
832,48	1705,96
832,65	1744,87
832,82	1724,39
832,99	1656,81
833,17	1660,90
833,34	1845,22
833,51	1695,72
833,68	1605,61
833,85	1775,59
834,02	1591,27
834,19	1583,08
834,36	1712,10
834,53	1689,57
834,70	1669,09
834,87	1732,58
835,04	1656,81
835,22	1642,47
835,39	1669,09
835,56	1605,61
835,73	1595,37
835,90	1736,68
836,07	1603,56
836,24	1695,72
836,41	1669,09
836,58	1648,61
836,75	1722,34
836,92	1636,33
837,09	1687,53
837,26	1634,28
837,43	1708,01
837,60	1814,50
837,77	1636,33
837,94	1738,73
838,12	1718,25
838,29	1669,09
838,46	1640,42
838,63	1656,81
838,80	1808,36
838,97	1677,29
839,14	1667,05
839,31	1718,25
839,48	1710,05
839,65	1615,85
839,82	1699,81
839,99	1642,47
840,16	1691,62
840,33	1640,42
840,50	1728,49
840,67	1568,74
840,84	1558,50
841,01	1716,20
841,18	1624,04
841,35	1691,62
841,52	1714,15
841,69	1771,49
841,86	1705,96
842,03	1648,61
842,20	1736,68
842,37	1615,85
842,54	1675,24
842,71	1703,91
842,88	1605,61
843,05	1773,54
843,22	1658,85
843,39	1761,25
843,56	1701,86
843,73	1703,91
843,90	1695,72
844,07	1667,05
844,24	1710,05
844,41	1730,53
844,58	1583,08
844,75	1662,95
844,92	1712,10
845,09	1675,24
845,26	1595,37
845,43	1687,53
845,60	1701,86
845,77	1761,25
845,94	1644,52
846,10	1636,33
846,27	1609,70
846,44	1642,47
846,61	1560,55
846,78	1703,91
846,95	1726,44
847,12	1671,14
847,29	1626,09
847,46	1693,67
847,63	1728,49
847,80	1562,60
847,97	1669,09
848,14	1806,31
848,31	1746,92
848,48	1626,09
848,65	1654,76
848,82	1695,72
848,98	1818,60
849,15	1695,72
849,32	1697,77
849,49	1693,67
849,66	1695,72
849,83	1656,81
850,00	1624,04
850,17	1673,19
850,34	1716,20
850,51	1697,77
850,68	1687,53
850,85	1843,17
851,01	1658,85
851,18	1581,03
851,35	1675,24
851,52	1677,29
851,69	1824,74
851,86	1624,04
852,03	1718,25
852,20	1718,25
852,37	1738,73
852,53	1607,66
852,70	1675,24
852,87	1703,91
853,04	1804,26
853,21	1714,15
853,38	1785,83
853,55	1814,50
853,72	1751,01
853,89	1669,09
854,05	1636,33
854,22	1675,24
854,39	1753,06
854,56	1708,01
854,73	1751,01
854,90	1681,38
855,07	1642,47
855,23	1648,61
855,40	1695,72
855,57	1642,47
855,74	1638,38
855,91	1869,80
856,08	1587,18
856,25	1628,14
856,41	1710,05
856,58	1632,23
856,75	1705,96
856,92	1617,90
857,09	1712,10
857,26	1644,52
857,42	1689,57
857,59	1765,35
857,76	1665,00
857,93	1697,77
858,10	1648,61
858,27	1650,66
858,43	1658,85
858,60	1652,71
858,77	1640,42
858,94	1654,76
859,11	1818,60
859,27	1660,90
859,44	1601,51
859,61	1820,64
859,78	1730,53
859,95	1630,18
860,12	1675,24
860,28	1808,36
860,45	1806,31
860,62	1691,62
860,79	1693,67
860,95	1673,19
861,12	1691,62
861,29	1652,71
861,46	1660,90
861,63	1650,66
861,79	1697,77
861,96	1632,23
862,13	1705,96
862,30	1755,11
862,47	1689,57
862,63	1613,80
862,80	1710,05
862,97	1744,87
863,14	1708,01
863,30	1644,52
863,47	1632,23
863,64	1736,68
863,81	1726,44
863,97	1683,43
864,14	1710,05
864,31	1669,09
864,48	1765,35
864,65	1572,84
864,81	1740,77
864,98	1787,88
865,15	1736,68
865,32	1718,25
865,48	1683,43
865,65	1763,30
865,82	1667,05
865,98	1677,29
866,15	1695,72
866,32	1730,53
866,49	1665,00
866,65	1718,25
866,82	1595,37
866,99	1769,44
867,16	1601,51
867,32	1648,61
867,49	1632,23
867,66	1673,19
867,83	1599,46
867,99	1640,42
868,16	1683,43
868,33	1665,00
868,49	1701,86
868,66	1712,10
868,83	1779,68
868,99	1665,00
869,16	1691,62
869,33	1667,05
869,50	1828,84
869,66	1691,62
869,83	1699,81
870,00	1601,51
870,16	1718,25
870,33	1701,86
870,50	1705,96
870,66	1683,43
870,83	1845,22
871,00	1619,94
871,17	1757,16
871,33	1724,39
871,50	1746,92
871,67	1710,05
871,83	1607,66
872,00	1757,16
872,17	1718,25
872,33	1847,27
872,50	1818,60
872,67	1648,61
872,83	1677,29
873,00	1650,66
873,17	1624,04
873,33	1656,81
873,50	1773,54
873,67	1599,46
873,83	1621,99
874,00	1609,70
874,16	1775,59
874,33	1683,43
874,50	1644,52
874,66	1804,26
874,83	1615,85
875,00	1714,15
875,16	1705,96
875,33	1689,57
875,50	1542,12
875,66	1583,08
875,83	1662,95
875,99	1710,05
876,16	1769,44
876,33	1634,28
876,49	1728,49
876,66	1708,01
876,83	1599,46
876,99	1650,66
877,16	1669,09
877,32	1669,09
877,49	1648,61
877,66	1724,39
877,82	1722,34
877,99	1658,85
878,15	1746,92
878,32	1667,05
878,49	1656,81
878,65	1634,28
878,82	1712,10
878,98	1691,62
879,15	1781,73
879,32	1720,29
879,48	1656,81
879,65	1748,97
879,81	1671,14
879,98	1640,42
880,15	1648,61
880,31	1785,83
880,48	1705,96
880,64	1841,12
880,81	1718,25
880,97	1771,49
881,14	1751,01
881,31	1689,57
881,47	1771,49
881,64	1671,14
881,80	1624,04
881,97	1677,29
882,13	1763,30
882,30	1665,00
882,47	1613,80
882,63	1640,42
882,80	1665,00
882,96	1699,81
883,13	1740,77
883,29	1648,61
883,46	1742,82
883,62	1681,38
883,79	1624,04
883,95	1759,21
884,12	1640,42
884,29	1671,14
884,45	1656,81
884,62	1705,96
884,78	1691,62
884,95	1712,10
885,11	1603,56
885,28	1740,77
885,44	1632,23
885,61	1746,92
885,77	1708,01
885,94	1687,53
886,10	1708,01
886,27	1699,81
886,43	1708,01
886,60	1740,77
886,76	1701,86
886,93	1652,71
887,09	1726,44
887,26	1626,09
887,42	1687,53
887,59	1703,91
887,75	1861,60
887,92	1689,57
888,08	1777,64
888,25	1767,40
888,41	1748,97
888,58	1751,01
888,74	1601,51
888,91	1691,62
>>>>>End Processed Spectral Data<<<<<
