SpectraSuite Data File
++++++++++++++++++++++++++++++++++++
Date: Mon Jun 06 12:44:17 CEST 2016
User: root
Dark Spectrum Present: No
Reference Spectrum Present: No
Number of Sampled Component Spectra: 1
Spectrometers: USB4C02835
Integration Time (usec): 100000 (USB4C02835)
Spectra Averaged: 1 (USB4C02835)
Boxcar Smoothing: 0 (USB4C02835)
Correct for Electrical Dark: No (USB4C02835)
Strobe/Lamp Enabled: No (USB4C02835)
Correct for Detector Non-linearity: No (USB4C02835)
Correct for Stray Light: No (USB4C02835)
Number of Pixels in Processed Spectrum: 3648
>>>>>Begin Processed Spectral Data<<<<<
177,47	1460,20
177,69	1460,20
177,91	1460,20
178,13	1421,29
178,36	1419,24
178,58	1695,72
178,80	1722,34
179,02	1642,47
179,24	1669,09
179,46	1724,39
179,68	1705,96
179,90	1701,86
180,13	1796,07
180,35	1660,90
180,57	1695,72
180,79	1828,84
181,01	1714,15
181,23	1757,16
181,45	1773,54
181,67	1726,44
181,90	1742,82
182,12	1603,56
182,34	1644,52
182,56	1708,01
182,78	1708,01
183,00	1669,09
183,22	1679,33
183,44	1576,94
183,66	1781,73
183,89	1705,96
184,11	1681,38
184,33	1669,09
184,55	1755,11
184,77	1736,68
184,99	1697,77
185,21	1593,32
185,43	1796,07
185,65	1697,77
185,87	1748,97
186,10	1886,18
186,32	1746,92
186,54	1759,21
186,76	1757,16
186,98	1705,96
187,20	1732,58
187,42	1705,96
187,64	1759,21
187,86	1753,06
188,08	1738,73
188,30	1675,24
188,52	1634,28
188,75	1722,34
188,97	1779,68
189,19	1689,57
189,41	1689,57
189,63	1753,06
189,85	1689,57
190,07	1667,05
190,29	1640,42
190,51	1746,92
190,73	1558,50
190,95	1693,67
191,17	1656,81
191,39	1650,66
191,61	1675,24
191,84	1642,47
192,06	1689,57
192,28	1615,85
192,50	1818,60
192,72	1705,96
192,94	1679,33
193,16	1806,31
193,38	1748,97
193,60	1591,27
193,82	1771,49
194,04	1755,11
194,26	1769,44
194,48	1658,85
194,70	1632,23
194,92	1599,46
195,14	1695,72
195,36	1621,99
195,58	1691,62
195,80	1710,05
196,02	1714,15
196,24	1662,95
196,46	1648,61
196,69	1652,71
196,91	1771,49
197,13	1689,57
197,35	1673,19
197,57	1839,08
197,79	1742,82
198,01	1685,48
198,23	1751,01
198,45	1734,63
198,67	1607,66
198,89	1744,87
199,11	1718,25
199,33	1640,42
199,55	1556,46
199,77	1705,96
199,99	1734,63
200,21	1626,09
200,43	1697,77
200,65	1605,61
200,87	1583,08
201,09	1720,29
201,31	1712,10
201,53	1669,09
201,75	1648,61
201,97	1710,05
202,19	1705,96
202,41	1804,26
202,63	1828,84
202,85	1673,19
203,07	1849,32
203,29	1652,71
203,51	1624,04
203,73	1619,94
203,95	1882,08
204,17	1722,34
204,39	1669,09
204,61	1679,33
204,83	1691,62
205,05	1771,49
205,27	1791,97
205,49	1734,63
205,71	1730,53
205,93	1597,42
206,15	1703,91
206,37	1607,66
206,59	1675,24
206,81	1734,63
207,03	1658,85
207,25	1652,71
207,47	1730,53
207,69	1755,11
207,91	1716,20
208,13	1712,10
208,34	1685,48
208,56	1652,71
208,78	1730,53
209,00	1624,04
209,22	1578,98
209,44	1648,61
209,66	1662,95
209,88	1759,21
210,10	1701,86
210,32	1644,52
210,54	1755,11
210,76	1687,53
210,98	1681,38
211,20	1636,33
211,42	1708,01
211,64	1775,59
211,86	1675,24
212,08	1712,10
212,30	1718,25
212,52	1632,23
212,74	1781,73
212,96	1720,29
213,17	1718,25
213,39	1683,43
213,61	1808,36
213,83	1703,91
214,05	1658,85
214,27	1769,44
214,49	1693,67
214,71	1679,33
214,93	1763,30
215,15	1675,24
215,37	1703,91
215,59	1640,42
215,81	1675,24
216,03	1718,25
216,24	1703,91
216,46	1667,05
216,68	1652,71
216,90	1740,77
217,12	1751,01
217,34	1701,86
217,56	1763,30
217,78	1665,00
218,00	1771,49
218,22	1679,33
218,44	1701,86
218,66	1728,49
218,87	1757,16
219,09	1662,95
219,31	1714,15
219,53	1669,09
219,75	1662,95
219,97	1638,38
220,19	1714,15
220,41	1665,00
220,63	1841,12
220,85	1687,53
221,06	1697,77
221,28	1718,25
221,50	1708,01
221,72	1679,33
221,94	1718,25
222,16	1718,25
222,38	1738,73
222,60	1730,53
222,82	1669,09
223,03	1712,10
223,25	1638,38
223,47	1787,88
223,69	1853,41
223,91	1765,35
224,13	1703,91
224,35	1701,86
224,57	1765,35
224,78	1710,05
225,00	1656,81
225,22	1775,59
225,44	1656,81
225,66	1648,61
225,88	1697,77
226,10	1769,44
226,32	1716,20
226,53	1665,00
226,75	1662,95
226,97	1613,80
227,19	1660,90
227,41	1701,86
227,63	1714,15
227,85	1615,85
228,06	1808,36
228,28	1685,48
228,50	1683,43
228,72	1636,33
228,94	1744,87
229,16	1648,61
229,37	1624,04
229,59	1652,71
229,81	1755,11
230,03	1658,85
230,25	1636,33
230,47	1581,03
230,69	1615,85
230,90	1771,49
231,12	1681,38
231,34	1701,86
231,56	1822,69
231,78	1589,22
232,00	1669,09
232,21	1701,86
232,43	1648,61
232,65	1603,56
232,87	1691,62
233,09	1646,57
233,30	1650,66
233,52	1703,91
233,74	1679,33
233,96	1722,34
234,18	1648,61
234,40	1718,25
234,61	1740,77
234,83	1591,27
235,05	1697,77
235,27	1904,61
235,49	1898,47
235,70	1742,82
235,92	1791,97
236,14	1742,82
236,36	1808,36
236,58	1665,00
236,79	1746,92
237,01	1689,57
237,23	1787,88
237,45	1814,50
237,67	1705,96
237,88	1671,14
238,10	1816,55
238,32	1624,04
238,54	1693,67
238,76	1652,71
238,97	1759,21
239,19	1693,67
239,41	1746,92
239,63	1726,44
239,85	1665,00
240,06	1714,15
240,28	1705,96
240,50	1839,08
240,72	1669,09
240,93	1724,39
241,15	1781,73
241,37	1699,81
241,59	1763,30
241,81	1677,29
242,02	1720,29
242,24	1697,77
242,46	1734,63
242,68	1759,21
242,89	1794,02
243,11	1839,08
243,33	1677,29
243,55	1708,01
243,76	1740,77
243,98	1703,91
244,20	1687,53
244,42	1759,21
244,64	1691,62
244,85	1642,47
245,07	1683,43
245,29	1626,09
245,51	1748,97
245,72	1701,86
245,94	1720,29
246,16	1728,49
246,38	1677,29
246,59	1658,85
246,81	1685,48
247,03	1648,61
247,24	1617,90
247,46	1619,94
247,68	1722,34
247,90	1705,96
248,11	1607,66
248,33	1656,81
248,55	1710,05
248,77	1679,33
248,98	1748,97
249,20	1779,68
249,42	1671,14
249,64	1689,57
249,85	1689,57
250,07	1624,04
250,29	1708,01
250,50	1771,49
250,72	1597,42
250,94	1734,63
251,16	1830,88
251,37	1789,92
251,59	1720,29
251,81	1755,11
252,02	1746,92
252,24	1679,33
252,46	1777,64
252,68	1652,71
252,89	1640,42
253,11	1619,94
253,33	1761,25
253,54	1769,44
253,76	1636,33
253,98	1687,53
254,20	1716,20
254,41	1671,14
254,63	1722,34
254,85	1638,38
255,06	1591,27
255,28	1701,86
255,50	1679,33
255,71	1652,71
255,93	1656,81
256,15	1656,81
256,36	1771,49
256,58	1685,48
256,80	1652,71
257,02	1652,71
257,23	1632,23
257,45	1730,53
257,67	1732,58
257,88	1628,14
258,10	1691,62
258,32	1738,73
258,53	1703,91
258,75	1830,88
258,97	1662,95
259,18	1675,24
259,40	1626,09
259,62	1849,32
259,83	1753,06
260,05	1710,05
260,27	1912,80
260,48	1830,88
260,70	1558,50
260,92	1718,25
261,13	1806,31
261,35	1605,61
261,57	1738,73
261,78	1587,18
262,00	1746,92
262,22	1675,24
262,43	1644,52
262,65	1722,34
262,86	1710,05
263,08	1859,56
263,30	1675,24
263,51	1597,42
263,73	1691,62
263,95	1755,11
264,16	1673,19
264,38	1660,90
264,60	1734,63
264,81	1736,68
265,03	1746,92
265,25	1765,35
265,46	1683,43
265,68	1779,68
265,89	1806,31
266,11	1566,70
266,33	1724,39
266,54	1755,11
266,76	1753,06
266,98	1701,86
267,19	1773,54
267,41	1740,77
267,62	1685,48
267,84	1595,37
268,06	1736,68
268,27	1679,33
268,49	1712,10
268,70	1730,53
268,92	1673,19
269,14	1683,43
269,35	1648,61
269,57	1677,29
269,79	1718,25
270,00	1611,75
270,22	1810,40
270,43	1615,85
270,65	1560,55
270,87	1695,72
271,08	1726,44
271,30	1738,73
271,51	1671,14
271,73	1759,21
271,95	1763,30
272,16	1710,05
272,38	1673,19
272,59	1689,57
272,81	1732,58
273,02	1708,01
273,24	1677,29
273,46	1802,21
273,67	1613,80
273,89	1683,43
274,10	1722,34
274,32	1755,11
274,54	1675,24
274,75	1693,67
274,97	1673,19
275,18	1669,09
275,40	1789,92
275,61	1775,59
275,83	1646,57
276,05	1642,47
276,26	1722,34
276,48	1736,68
276,69	1603,56
276,91	1640,42
277,12	1748,97
277,34	1705,96
277,55	1763,30
277,77	1687,53
277,99	1699,81
278,20	1718,25
278,42	1654,76
278,63	1671,14
278,85	1681,38
279,06	1595,37
279,28	1736,68
279,49	1785,83
279,71	1722,34
279,93	1757,16
280,14	1679,33
280,36	1644,52
280,57	1740,77
280,79	1728,49
281,00	1599,46
281,22	1689,57
281,43	1759,21
281,65	1525,74
281,86	1599,46
282,08	1771,49
282,29	1826,79
282,51	1595,37
282,73	1617,90
282,94	1630,18
283,16	1789,92
283,37	1781,73
283,59	1689,57
283,80	1652,71
284,02	1710,05
284,23	1730,53
284,45	1714,15
284,66	1658,85
284,88	1589,22
285,09	1779,68
285,31	1710,05
285,52	1699,81
285,74	1628,14
285,95	1736,68
286,17	1722,34
286,38	1787,88
286,60	1601,51
286,81	1673,19
287,03	1656,81
287,24	1751,01
287,46	1681,38
287,67	1669,09
287,89	1767,40
288,10	1703,91
288,32	1687,53
288,53	1761,25
288,75	1732,58
288,96	1679,33
289,18	1621,99
289,39	1621,99
289,61	1779,68
289,82	1777,64
290,04	1820,64
290,25	1578,98
290,47	1695,72
290,68	1669,09
290,90	1736,68
291,11	1640,42
291,33	1748,97
291,54	1648,61
291,76	1675,24
291,97	1667,05
292,18	1730,53
292,40	1708,01
292,61	1609,70
292,83	1861,60
293,04	1728,49
293,26	1718,25
293,47	1687,53
293,69	1671,14
293,90	1634,28
294,12	1742,82
294,33	1701,86
294,55	1695,72
294,76	1798,12
294,97	1689,57
295,19	1843,17
295,40	1699,81
295,62	1757,16
295,83	1716,20
296,05	1615,85
296,26	1736,68
296,48	1656,81
296,69	1726,44
296,90	1724,39
297,12	1693,67
297,33	1740,77
297,55	1617,90
297,76	1757,16
297,98	1759,21
298,19	1697,77
298,41	1662,95
298,62	1687,53
298,83	1783,78
299,05	1763,30
299,26	1621,99
299,48	1681,38
299,69	1691,62
299,90	1736,68
300,12	1710,05
300,33	1839,08
300,55	1720,29
300,76	1656,81
300,98	1671,14
301,19	1798,12
301,40	1673,19
301,62	1609,70
301,83	1703,91
302,05	1683,43
302,26	1695,72
302,47	1656,81
302,69	1615,85
302,90	1638,38
303,12	1665,00
303,33	1802,21
303,54	1771,49
303,76	1628,14
303,97	1652,71
304,19	1832,93
304,40	1621,99
304,61	1724,39
304,83	1791,97
305,04	1712,10
305,26	1732,58
305,47	1669,09
305,68	1712,10
305,90	1648,61
306,11	1671,14
306,33	1718,25
306,54	1708,01
306,75	1611,75
306,97	1589,22
307,18	1656,81
307,39	1689,57
307,61	1771,49
307,82	1697,77
308,04	1748,97
308,25	1658,85
308,46	1742,82
308,68	1710,05
308,89	1748,97
309,10	1705,96
309,32	1705,96
309,53	1746,92
309,74	1746,92
309,96	1685,48
310,17	1728,49
310,39	1697,77
310,60	1720,29
310,81	1638,38
311,03	1615,85
311,24	1669,09
311,45	1632,23
311,67	1785,83
311,88	1753,06
312,09	1630,18
312,31	1695,72
312,52	1697,77
312,73	1679,33
312,95	1632,23
313,16	1669,09
313,37	1851,36
313,59	1667,05
313,80	1718,25
314,01	1808,36
314,23	1603,56
314,44	1681,38
314,65	1615,85
314,87	1677,29
315,08	1630,18
315,29	1675,24
315,51	1628,14
315,72	1689,57
315,93	1681,38
316,15	1775,59
316,36	1689,57
316,57	1740,77
316,79	1755,11
317,00	1699,81
317,21	1732,58
317,43	1621,99
317,64	1724,39
317,85	1613,80
318,07	1720,29
318,28	1714,15
318,49	1814,50
318,70	1886,18
318,92	1800,16
319,13	1732,58
319,34	1896,42
319,56	1746,92
319,77	1794,02
319,98	1703,91
320,20	1755,11
320,41	1806,31
320,62	1724,39
320,83	1656,81
321,05	1826,79
321,26	1734,63
321,47	1654,76
321,69	1724,39
321,90	1679,33
322,11	1724,39
322,32	1751,01
322,54	1730,53
322,75	1751,01
322,96	1947,62
323,18	1667,05
323,39	1632,23
323,60	1660,90
323,81	1685,48
324,03	1595,37
324,24	1798,12
324,45	1734,63
324,66	1689,57
324,88	1736,68
325,09	1779,68
325,30	1667,05
325,52	1703,91
325,73	1738,73
325,94	1675,24
326,15	1675,24
326,37	1699,81
326,58	1724,39
326,79	1824,74
327,00	1722,34
327,22	1658,85
327,43	1648,61
327,64	1624,04
327,85	1658,85
328,07	1744,87
328,28	1744,87
328,49	1757,16
328,70	1761,25
328,92	1665,00
329,13	1746,92
329,34	1738,73
329,55	1777,64
329,76	1720,29
329,98	1728,49
330,19	1755,11
330,40	1751,01
330,61	1705,96
330,83	1771,49
331,04	1665,00
331,25	1687,53
331,46	1683,43
331,68	1681,38
331,89	1847,27
332,10	1685,48
332,31	1587,18
332,52	1681,38
332,74	1853,41
332,95	1671,14
333,16	1728,49
333,37	1771,49
333,58	1648,61
333,80	1624,04
334,01	1609,70
334,22	1673,19
334,43	1628,14
334,64	1673,19
334,86	1564,65
335,07	1744,87
335,28	1763,30
335,49	1660,90
335,70	1730,53
335,92	1753,06
336,13	1832,93
336,34	1787,88
336,55	1710,05
336,76	1726,44
336,98	1634,28
337,19	1691,62
337,40	1708,01
337,61	1818,60
337,82	1697,77
338,04	1716,20
338,25	1609,70
338,46	1671,14
338,67	1734,63
338,88	1589,22
339,09	1648,61
339,31	1619,94
339,52	1757,16
339,73	1667,05
339,94	1691,62
340,15	1685,48
340,36	1564,65
340,58	1667,05
340,79	1683,43
341,00	1701,86
341,21	1642,47
341,42	1820,64
341,63	1638,38
341,85	1677,29
342,06	1730,53
342,27	1693,67
342,48	1744,87
342,69	1660,90
342,90	1783,78
343,12	1681,38
343,33	1650,66
343,54	1781,73
343,75	1765,35
343,96	1652,71
344,17	1581,03
344,38	1718,25
344,60	1662,95
344,81	1638,38
345,02	1685,48
345,23	1812,45
345,44	1798,12
345,65	1767,40
345,86	1734,63
346,07	1738,73
346,29	1748,97
346,50	1759,21
346,71	1798,12
346,92	1822,69
347,13	1832,93
347,34	1652,71
347,55	1615,85
347,76	1712,10
347,98	1591,27
348,19	1662,95
348,40	1757,16
348,61	1744,87
348,82	1767,40
349,03	1734,63
349,24	1665,00
349,45	1794,02
349,66	1687,53
349,88	1695,72
350,09	1697,77
350,30	1755,11
350,51	1742,82
350,72	1722,34
350,93	1740,77
351,14	1654,76
351,35	1767,40
351,56	1791,97
351,77	1677,29
351,99	1720,29
352,20	1736,68
352,41	1740,77
352,62	1632,23
352,83	1722,34
353,04	1720,29
353,25	1714,15
353,46	1785,83
353,67	1730,53
353,88	1619,94
354,09	1720,29
354,30	1710,05
354,52	1730,53
354,73	1718,25
354,94	1656,81
355,15	1728,49
355,36	1734,63
355,57	1609,70
355,78	1734,63
355,99	1603,56
356,20	1638,38
356,41	1728,49
356,62	1665,00
356,83	1742,82
357,04	1816,55
357,25	1597,42
357,46	1669,09
357,68	1599,46
357,89	1624,04
358,10	1650,66
358,31	1720,29
358,52	1636,33
358,73	1689,57
358,94	1644,52
359,15	1648,61
359,36	1722,34
359,57	1673,19
359,78	1689,57
359,99	1730,53
360,20	1638,38
360,41	1697,77
360,62	1748,97
360,83	1728,49
361,04	1722,34
361,25	1691,62
361,46	1755,11
361,67	1716,20
361,88	1724,39
362,09	1808,36
362,30	1767,40
362,51	1654,76
362,72	1710,05
362,93	1742,82
363,14	1746,92
363,35	1687,53
363,56	1613,80
363,78	1742,82
363,99	1740,77
364,20	1617,90
364,41	1673,19
364,62	1869,80
364,83	1683,43
365,04	1673,19
365,25	1671,14
365,46	1787,88
365,67	1705,96
365,88	1634,28
366,09	1681,38
366,30	1673,19
366,51	1734,63
366,72	1652,71
366,93	1738,73
367,14	1751,01
367,35	1753,06
367,56	1665,00
367,77	1810,40
367,98	1681,38
368,18	1751,01
368,39	1738,73
368,60	1665,00
368,81	1767,40
369,02	1765,35
369,23	1714,15
369,44	1566,70
369,65	1679,33
369,86	1755,11
370,07	1648,61
370,28	1712,10
370,49	1695,72
370,70	1724,39
370,91	1615,85
371,12	1658,85
371,33	1736,68
371,54	1679,33
371,75	1859,56
371,96	1644,52
372,17	1705,96
372,38	1648,61
372,59	1705,96
372,80	1675,24
373,01	1699,81
373,22	1775,59
373,43	1675,24
373,64	1583,08
373,85	1728,49
374,06	1837,03
374,26	1779,68
374,47	1685,48
374,68	1734,63
374,89	1710,05
375,10	1681,38
375,31	1746,92
375,52	1732,58
375,73	1732,58
375,94	1628,14
376,15	1806,31
376,36	1712,10
376,57	1660,90
376,78	1665,00
376,99	1708,01
377,20	1804,26
377,40	1632,23
377,61	1775,59
377,82	1617,90
378,03	1746,92
378,24	1720,29
378,45	1730,53
378,66	1689,57
378,87	1603,56
379,08	1613,80
379,29	1628,14
379,50	1787,88
379,71	1648,61
379,91	1695,72
380,12	1714,15
380,33	1710,05
380,54	1763,30
380,75	1746,92
380,96	1708,01
381,17	1751,01
381,38	1726,44
381,59	1759,21
381,80	1744,87
382,00	1763,30
382,21	1722,34
382,42	1775,59
382,63	1970,15
382,84	1705,96
383,05	1746,92
383,26	1843,17
383,47	1701,86
383,68	1757,16
383,88	1757,16
384,09	1705,96
384,30	1820,64
384,51	1679,33
384,72	1708,01
384,93	1644,52
385,14	1734,63
385,35	1755,11
385,55	1695,72
385,76	1759,21
385,97	1710,05
386,18	1732,58
386,39	1712,10
386,60	1667,05
386,81	1695,72
387,02	1759,21
387,22	1744,87
387,43	1755,11
387,64	1761,25
387,85	1937,38
388,06	2256,86
388,27	4323,26
388,48	6803,35
388,68	8130,44
388,89	9766,76
389,10	9981,80
389,31	8607,61
389,52	7620,49
389,73	6731,67
389,93	6363,04
390,14	5775,27
390,35	5134,26
390,56	4554,68
390,77	3848,13
390,98	3065,81
391,18	2488,28
391,39	2103,26
391,60	1855,46
391,81	1818,60
392,02	1738,73
392,23	1843,17
392,43	1806,31
392,64	1757,16
392,85	1740,77
393,06	1800,16
393,27	1724,39
393,47	1648,61
393,68	1660,90
393,89	1570,79
394,10	1773,54
394,31	1679,33
394,52	1630,18
394,72	1671,14
394,93	1789,92
395,14	1587,18
395,35	1705,96
395,56	1671,14
395,76	1722,34
395,97	1794,02
396,18	1857,51
396,39	1785,83
396,60	1996,77
396,80	1869,80
397,01	1779,68
397,22	1853,41
397,43	1798,12
397,64	1779,68
397,84	1701,86
398,05	1910,75
398,26	1779,68
398,47	1769,44
398,67	1818,60
398,88	1697,77
399,09	1753,06
399,30	1662,95
399,51	1724,39
399,71	1550,31
399,92	1740,77
400,13	1662,95
400,34	1748,97
400,54	1619,94
400,75	1808,36
400,96	1679,33
401,17	1765,35
401,37	1769,44
401,58	1665,00
401,79	1771,49
402,00	1755,11
402,21	2043,87
402,41	1898,47
402,62	1953,76
402,83	2136,03
403,04	1966,05
403,24	2158,56
403,45	1802,21
403,66	1955,81
403,87	1884,13
404,07	1953,76
404,28	1918,95
404,49	1830,88
404,70	1787,88
404,90	1734,63
405,11	1765,35
405,32	1738,73
405,52	1654,76
405,73	1681,38
405,94	1624,04
406,15	1691,62
406,35	1665,00
406,56	1730,53
406,77	1734,63
406,98	1736,68
407,18	1650,66
407,39	1740,77
407,60	1699,81
407,80	1787,88
408,01	1679,33
408,22	1771,49
408,43	1652,71
408,63	1728,49
408,84	1787,88
409,05	1736,68
409,25	1685,48
409,46	1671,14
409,67	1640,42
409,88	1619,94
410,08	1703,91
410,29	1632,23
410,50	1671,14
410,70	1665,00
410,91	1705,96
411,12	1687,53
411,32	1701,86
411,53	1759,21
411,74	1798,12
411,95	1751,01
412,15	1755,11
412,36	1767,40
412,57	1691,62
412,77	1796,07
412,98	1662,95
413,19	1720,29
413,39	1761,25
413,60	1728,49
413,81	1841,12
414,01	1689,57
414,22	1732,58
414,43	1759,21
414,63	1646,57
414,84	1837,03
415,05	1708,01
415,25	1746,92
415,46	1789,92
415,67	1638,38
415,87	1701,86
416,08	1771,49
416,29	1630,18
416,49	1753,06
416,70	1683,43
416,91	1638,38
417,11	1685,48
417,32	1730,53
417,53	1691,62
417,73	1763,30
417,94	1638,38
418,15	1660,90
418,35	1703,91
418,56	1691,62
418,77	1859,56
418,97	1751,01
419,18	1675,24
419,38	1542,12
419,59	1665,00
419,80	1763,30
420,00	1675,24
420,21	1726,44
420,42	1740,77
420,62	1755,11
420,83	1748,97
421,04	1728,49
421,24	1710,05
421,45	1701,86
421,65	1730,53
421,86	1689,57
422,07	1746,92
422,27	1652,71
422,48	1671,14
422,69	1597,42
422,89	1693,67
423,10	1689,57
423,30	1720,29
423,51	1667,05
423,72	1718,25
423,92	1769,44
424,13	1656,81
424,33	1769,44
424,54	1826,79
424,75	1681,38
424,95	1865,70
425,16	1701,86
425,36	1693,67
425,57	1771,49
425,78	1722,34
425,98	1808,36
426,19	1636,33
426,39	1673,19
426,60	1736,68
426,81	1806,31
427,01	1740,77
427,22	1642,47
427,42	1576,94
427,63	1681,38
427,83	1759,21
428,04	1753,06
428,25	1761,25
428,45	1779,68
428,66	1787,88
428,86	1662,95
429,07	1683,43
429,28	1667,05
429,48	1630,18
429,69	1638,38
429,89	1734,63
430,10	1576,94
430,30	1726,44
430,51	1757,16
430,71	1624,04
430,92	1714,15
431,13	1685,48
431,33	1695,72
431,54	1738,73
431,74	1765,35
431,95	1800,16
432,15	1660,90
432,36	1710,05
432,56	1714,15
432,77	1847,27
432,98	1744,87
433,18	1726,44
433,39	1634,28
433,59	1677,29
433,80	1806,31
434,00	1865,70
434,21	1671,14
434,41	1679,33
434,62	1746,92
434,82	1740,77
435,03	1656,81
435,23	1703,91
435,44	1607,66
435,64	1757,16
435,85	1759,21
436,06	1767,40
436,26	1755,11
436,47	1701,86
436,67	1636,33
436,88	1679,33
437,08	1673,19
437,29	1791,97
437,49	1703,91
437,70	1779,68
437,90	1740,77
438,11	1880,04
438,31	1755,11
438,52	1877,99
438,72	1886,18
438,93	1892,32
439,13	1785,83
439,34	1804,26
439,54	1738,73
439,75	1714,15
439,95	1783,78
440,16	1722,34
440,36	1757,16
440,57	1808,36
440,77	1699,81
440,98	1824,74
441,18	1677,29
441,39	1650,66
441,59	1652,71
441,80	1798,12
442,00	1681,38
442,21	1826,79
442,41	1683,43
442,62	1701,86
442,82	1701,86
443,02	1767,40
443,23	1761,25
443,43	1705,96
443,64	1755,11
443,84	1720,29
444,05	1812,45
444,25	1767,40
444,46	1660,90
444,66	1748,97
444,87	1796,07
445,07	1587,18
445,28	1675,24
445,48	1740,77
445,69	1748,97
445,89	1898,47
446,09	1730,53
446,30	2074,59
446,50	2607,06
446,71	3608,52
446,91	4175,81
447,12	4806,58
447,32	4743,10
447,53	4247,49
447,73	3868,61
447,93	3491,79
448,14	3356,62
448,34	3188,69
448,55	2961,36
448,75	2834,39
448,96	2648,02
449,16	2396,12
449,36	2279,39
449,57	2056,16
449,77	1892,32
449,98	1769,44
450,18	1802,21
450,39	1785,83
450,59	1726,44
450,79	1734,63
451,00	1615,85
451,20	1748,97
451,41	1726,44
451,61	1832,93
451,81	1744,87
452,02	1701,86
452,22	1693,67
452,43	1669,09
452,63	1648,61
452,84	1667,05
453,04	1701,86
453,24	1767,40
453,45	1665,00
453,65	1779,68
453,86	1814,50
454,06	1693,67
454,26	1732,58
454,47	1640,42
454,67	1802,21
454,87	1763,30
455,08	1695,72
455,28	1841,12
455,49	1716,20
455,69	1697,77
455,89	1845,22
456,10	1837,03
456,30	1751,01
456,51	1748,97
456,71	1720,29
456,91	1759,21
457,12	1734,63
457,32	1769,44
457,52	1656,81
457,73	1785,83
457,93	1742,82
458,14	1775,59
458,34	1683,43
458,54	1708,01
458,75	1779,68
458,95	1816,55
459,15	1802,21
459,36	1785,83
459,56	1802,21
459,76	1832,93
459,97	1699,81
460,17	1728,49
460,37	1740,77
460,58	1771,49
460,78	1763,30
460,99	1683,43
461,19	1738,73
461,39	1738,73
461,60	1699,81
461,80	1804,26
462,00	1701,86
462,21	1681,38
462,41	1642,47
462,61	1656,81
462,82	1662,95
463,02	1789,92
463,22	1683,43
463,43	1841,12
463,63	1708,01
463,83	1867,75
464,04	1761,25
464,24	1701,86
464,44	1714,15
464,64	1796,07
464,85	1732,58
465,05	1796,07
465,25	1773,54
465,46	1738,73
465,66	1708,01
465,86	1744,87
466,07	1660,90
466,27	1718,25
466,47	1615,85
466,68	1677,29
466,88	1810,40
467,08	1757,16
467,29	1816,55
467,49	1751,01
467,69	1708,01
467,89	1718,25
468,10	1673,19
468,30	1816,55
468,50	1798,12
468,71	1740,77
468,91	1689,57
469,11	1843,17
469,31	1673,19
469,52	1683,43
469,72	1826,79
469,92	1855,46
470,13	1722,34
470,33	1712,10
470,53	1816,55
470,73	2066,40
470,94	2279,39
471,14	2250,72
471,34	2531,29
471,54	2379,74
471,75	2209,76
471,95	2115,55
472,15	2144,22
472,36	2095,07
472,56	2115,55
472,76	2031,58
472,96	1957,86
473,17	1918,95
473,37	1980,39
473,57	1759,21
473,77	1839,08
473,98	1816,55
474,18	1689,57
474,38	1873,89
474,58	1720,29
474,79	1710,05
474,99	1826,79
475,19	1757,16
475,39	1705,96
475,60	1697,77
475,80	1624,04
476,00	1681,38
476,20	1708,01
476,41	1722,34
476,61	1816,55
476,81	1904,61
477,01	1626,09
477,21	1781,73
477,42	1783,78
477,62	1697,77
477,82	1740,77
478,02	1736,68
478,23	1736,68
478,43	1636,33
478,63	1681,38
478,83	1724,39
479,03	1761,25
479,24	1796,07
479,44	1849,32
479,64	1648,61
479,84	1585,13
480,04	1734,63
480,25	1730,53
480,45	1689,57
480,65	1722,34
480,85	1775,59
481,06	1677,29
481,26	1880,04
481,46	1699,81
481,66	1689,57
481,86	1669,09
482,06	1806,31
482,27	1736,68
482,47	1730,53
482,67	1830,88
482,87	1642,47
483,07	1824,74
483,28	1771,49
483,48	1681,38
483,68	1644,52
483,88	1650,66
484,08	1662,95
484,29	1611,75
484,49	1673,19
484,69	1687,53
484,89	1806,31
485,09	1785,83
485,29	1656,81
485,50	1763,30
485,70	1673,19
485,90	1775,59
486,10	1740,77
486,30	1710,05
486,50	1755,11
486,71	1751,01
486,91	1775,59
487,11	1779,68
487,31	1644,52
487,51	1804,26
487,71	1720,29
487,91	1714,15
488,12	1691,62
488,32	1583,08
488,52	1701,86
488,72	1605,61
488,92	1673,19
489,12	1767,40
489,32	1736,68
489,53	1654,76
489,73	1656,81
489,93	1787,88
490,13	1738,73
490,33	1621,99
490,53	1740,77
490,73	1830,88
490,94	1615,85
491,14	1771,49
491,34	1800,16
491,54	2105,31
491,74	2480,09
491,94	2992,08
492,14	2990,03
492,34	3043,28
492,54	2672,60
492,75	2512,86
492,95	2365,40
493,15	2349,02
493,35	2242,53
493,55	2230,24
493,75	2062,30
493,95	2205,66
494,15	1906,66
494,35	1908,71
494,56	1849,32
494,76	1759,21
494,96	1738,73
495,16	1777,64
495,36	1716,20
495,56	1771,49
495,76	1751,01
495,96	1658,85
496,16	1669,09
496,36	1818,60
496,56	1708,01
496,77	1744,87
496,97	1746,92
497,17	1863,65
497,37	1599,46
497,57	1767,40
497,77	1722,34
497,97	1757,16
498,17	1673,19
498,37	1740,77
498,57	1787,88
498,77	1802,21
498,97	1701,86
499,17	1800,16
499,38	1714,15
499,58	1873,89
499,78	1728,49
499,98	1824,74
500,18	1718,25
500,38	1708,01
500,58	1886,18
500,78	2564,06
500,98	4597,69
501,18	5824,42
501,38	6707,10
501,58	7069,59
501,78	6639,51
501,98	5576,62
502,18	5058,48
502,38	4304,83
502,58	4145,09
502,78	3819,46
502,98	3708,87
503,18	3336,14
503,38	3180,50
503,59	2815,96
503,79	2742,23
503,99	2451,42
504,19	2328,54
504,39	2191,33
504,59	2127,84
504,79	2050,02
504,99	1927,14
505,19	1902,56
505,39	1918,95
505,59	2013,15
505,79	1964,00
505,99	1755,11
506,19	1726,44
506,39	1806,31
506,59	1757,16
506,79	1722,34
506,99	1781,73
507,19	1820,64
507,39	1720,29
507,59	1662,95
507,79	1613,80
507,99	1654,76
508,19	1634,28
508,39	1685,48
508,59	1736,68
508,79	1779,68
508,99	1771,49
509,19	1611,75
509,39	1769,44
509,59	1699,81
509,79	1638,38
509,99	1794,02
510,19	1822,69
510,39	1705,96
510,59	1701,86
510,79	1656,81
510,99	1654,76
511,19	1681,38
511,39	1810,40
511,59	1834,98
511,79	1775,59
511,99	1714,15
512,19	1814,50
512,38	1724,39
512,58	1693,67
512,78	1746,92
512,98	1730,53
513,18	1767,40
513,38	1638,38
513,58	1695,72
513,78	1742,82
513,98	1724,39
514,18	1755,11
514,38	1753,06
514,58	1794,02
514,78	1689,57
514,98	1699,81
515,18	1742,82
515,38	1693,67
515,58	1787,88
515,78	1628,14
515,98	1703,91
516,18	1724,39
516,38	1689,57
516,57	1769,44
516,77	1757,16
516,97	1826,79
517,17	1761,25
517,37	1714,15
517,57	1671,14
517,77	1656,81
517,97	1634,28
518,17	1689,57
518,37	1705,96
518,57	1619,94
518,77	1652,71
518,97	1662,95
519,16	1740,77
519,36	1822,69
519,56	1648,61
519,76	1705,96
519,96	1783,78
520,16	1847,27
520,36	1697,77
520,56	1837,03
520,76	1632,23
520,96	1775,59
521,16	1783,78
521,35	1781,73
521,55	1785,83
521,75	1720,29
521,95	1689,57
522,15	1687,53
522,35	1603,56
522,55	1607,66
522,75	1767,40
522,95	1744,87
523,14	1689,57
523,34	1710,05
523,54	1650,66
523,74	1763,30
523,94	1710,05
524,14	1683,43
524,34	1753,06
524,54	1761,25
524,73	1673,19
524,93	1730,53
525,13	1773,54
525,33	1638,38
525,53	1800,16
525,73	1740,77
525,93	1787,88
526,13	1738,73
526,32	1744,87
526,52	1734,63
526,72	1837,03
526,92	1748,97
527,12	1779,68
527,32	1697,77
527,52	1714,15
527,71	1744,87
527,91	1791,97
528,11	1665,00
528,31	1724,39
528,51	1654,76
528,71	1759,21
528,90	1757,16
529,10	1828,84
529,30	1802,21
529,50	1630,18
529,70	1738,73
529,90	1634,28
530,09	1746,92
530,29	1617,90
530,49	1673,19
530,69	1847,27
530,89	1718,25
531,09	1816,55
531,28	1703,91
531,48	1861,60
531,68	1755,11
531,88	1656,81
532,08	1820,64
532,28	1675,24
532,47	1744,87
532,67	1787,88
532,87	1673,19
533,07	1703,91
533,27	1796,07
533,46	1689,57
533,66	1751,01
533,86	1746,92
534,06	1697,77
534,26	1667,05
534,45	1769,44
534,65	1791,97
534,85	1691,62
535,05	1755,11
535,25	1759,21
535,44	1652,71
535,64	1798,12
535,84	1732,58
536,04	1697,77
536,24	1705,96
536,43	1738,73
536,63	1808,36
536,83	1691,62
537,03	1832,93
537,22	1632,23
537,42	1607,66
537,62	1759,21
537,82	1703,91
538,02	1738,73
538,21	1773,54
538,41	1845,22
538,61	1761,25
538,81	1806,31
539,00	1730,53
539,20	1648,61
539,40	1701,86
539,60	1808,36
539,79	1828,84
539,99	1626,09
540,19	1585,13
540,39	1703,91
540,58	1767,40
540,78	1855,46
540,98	1779,68
541,18	1812,45
541,37	1728,49
541,57	1757,16
541,77	1738,73
541,97	1681,38
542,16	1613,80
542,36	1757,16
542,56	1691,62
542,76	1775,59
542,95	1810,40
543,15	1777,64
543,35	1720,29
543,54	1671,14
543,74	1695,72
543,94	1726,44
544,14	1679,33
544,33	1746,92
544,53	1738,73
544,73	1697,77
544,93	1675,24
545,12	1746,92
545,32	1728,49
545,52	1716,20
545,71	1703,91
545,91	1693,67
546,11	1695,72
546,30	1716,20
546,50	1652,71
546,70	1779,68
546,90	1748,97
547,09	1634,28
547,29	1691,62
547,49	1775,59
547,68	1673,19
547,88	1611,75
548,08	1746,92
548,27	2189,28
548,47	1673,19
548,67	1695,72
548,87	1804,26
549,06	1677,29
549,26	1810,40
549,46	1761,25
549,65	1658,85
549,85	1718,25
550,05	1761,25
550,24	1714,15
550,44	1765,35
550,64	1751,01
550,83	1812,45
551,03	1796,07
551,23	1781,73
551,42	1767,40
551,62	1685,48
551,82	1656,81
552,01	1705,96
552,21	1804,26
552,41	1804,26
552,60	1732,58
552,80	1751,01
553,00	1691,62
553,19	1685,48
553,39	1849,32
553,59	1665,00
553,78	1710,05
553,98	1812,45
554,17	1574,89
554,37	1757,16
554,57	1703,91
554,76	1689,57
554,96	1724,39
555,16	1789,92
555,35	1806,31
555,55	1822,69
555,75	1712,10
555,94	1726,44
556,14	1605,61
556,33	1736,68
556,53	1679,33
556,73	1701,86
556,92	1761,25
557,12	1806,31
557,32	1892,32
557,51	1773,54
557,71	1812,45
557,90	1794,02
558,10	1777,64
558,30	1681,38
558,49	1685,48
558,69	1683,43
558,88	1794,02
559,08	1742,82
559,28	1779,68
559,47	1755,11
559,67	1779,68
559,86	1828,84
560,06	1720,29
560,26	1701,86
560,45	1753,06
560,65	1705,96
560,84	1796,07
561,04	1769,44
561,24	1714,15
561,43	1710,05
561,63	1847,27
561,82	1794,02
562,02	1834,98
562,22	1656,81
562,41	1638,38
562,61	1689,57
562,80	1675,24
563,00	1888,23
563,19	1742,82
563,39	1724,39
563,59	1796,07
563,78	1691,62
563,98	1689,57
564,17	1638,38
564,37	1673,19
564,56	1720,29
564,76	1654,76
564,96	1834,98
565,15	1691,62
565,35	1834,98
565,54	1730,53
565,74	1841,12
565,93	1689,57
566,13	1673,19
566,32	1673,19
566,52	1746,92
566,71	1765,35
566,91	1804,26
567,11	1734,63
567,30	1691,62
567,50	1626,09
567,69	1806,31
567,89	1775,59
568,08	1695,72
568,28	1714,15
568,47	1654,76
568,67	1744,87
568,86	1689,57
569,06	1785,83
569,25	1697,77
569,45	1787,88
569,64	1701,86
569,84	1712,10
570,04	1767,40
570,23	1683,43
570,43	1710,05
570,62	1775,59
570,82	1816,55
571,01	1714,15
571,21	1734,63
571,40	1716,20
571,60	1849,32
571,79	1734,63
571,99	1740,77
572,18	1640,42
572,38	1689,57
572,57	1646,57
572,77	1767,40
572,96	1828,84
573,16	1738,73
573,35	1779,68
573,55	1763,30
573,74	1757,16
573,94	1730,53
574,13	1703,91
574,33	1839,08
574,52	1832,93
574,71	1781,73
574,91	1798,12
575,10	1753,06
575,30	1683,43
575,49	1712,10
575,69	1665,00
575,88	1796,07
576,08	1685,48
576,27	1742,82
576,47	1785,83
576,66	1765,35
576,86	1837,03
577,05	1708,01
577,25	1787,88
577,44	1859,56
577,64	1675,24
577,83	1718,25
578,02	1812,45
578,22	1853,41
578,41	1798,12
578,61	1738,73
578,80	1714,15
579,00	1808,36
579,19	1703,91
579,39	1814,50
579,58	1832,93
579,77	1771,49
579,97	1845,22
580,16	1865,70
580,36	1802,21
580,55	1837,03
580,75	1857,51
580,94	1732,58
581,13	1785,83
581,33	1816,55
581,52	1794,02
581,72	1884,13
581,91	1734,63
582,11	1787,88
582,30	1781,73
582,49	1765,35
582,69	1812,45
582,88	1785,83
583,08	1757,16
583,27	1806,31
583,47	1789,92
583,66	1699,81
583,85	1728,49
584,05	1794,02
584,24	1765,35
584,44	1779,68
584,63	1802,21
584,82	1865,70
585,02	1863,65
585,21	1812,45
585,41	1824,74
585,60	1818,60
585,79	1912,80
585,99	1918,95
586,18	1871,84
586,37	2220,00
586,57	3459,02
586,76	9762,67
586,96	24583,82
587,15	34446,83
587,34	40883,60
587,54	42452,34
587,73	36683,22
587,93	26513,00
588,12	21436,09
588,31	18415,34
588,51	16586,50
588,70	15181,59
588,89	14126,89
589,09	12560,19
589,28	11194,20
589,47	9510,77
589,67	7950,21
589,86	6285,22
590,06	5076,91
590,25	3942,34
590,44	3110,86
590,64	2594,78
590,83	2263,01
591,02	2062,30
591,22	1964,00
591,41	1912,80
591,60	1843,17
591,80	1912,80
591,99	1740,77
592,18	1816,55
592,38	1828,84
592,57	1779,68
592,76	1822,69
592,96	1818,60
593,15	1806,31
593,34	1845,22
593,54	1787,88
593,73	1800,16
593,92	1724,39
594,12	1736,68
594,31	1765,35
594,50	1818,60
594,70	1822,69
594,89	1904,61
595,08	1560,55
595,28	1730,53
595,47	1925,09
595,66	1800,16
595,86	1644,52
596,05	1660,90
596,24	1693,67
596,43	1794,02
596,63	1810,40
596,82	1779,68
597,01	1632,23
597,21	1820,64
597,40	1763,30
597,59	1748,97
597,79	1712,10
597,98	1787,88
598,17	1738,73
598,36	1716,20
598,56	1814,50
598,75	1667,05
598,94	1716,20
599,14	1681,38
599,33	1738,73
599,52	1699,81
599,71	1734,63
599,91	1812,45
600,10	1720,29
600,29	1796,07
600,48	1738,73
600,68	1730,53
600,87	1718,25
601,06	1734,63
601,26	1757,16
601,45	1789,92
601,64	1751,01
601,83	1796,07
602,03	1683,43
602,22	1640,42
602,41	1765,35
602,60	1961,95
602,80	1738,73
602,99	1697,77
603,18	1767,40
603,37	1689,57
603,57	1783,78
603,76	1810,40
603,95	1826,79
604,14	1753,06
604,34	1701,86
604,53	1771,49
604,72	1761,25
604,91	1730,53
605,10	1763,30
605,30	1673,19
605,49	1869,80
605,68	1785,83
605,87	1669,09
606,07	1656,81
606,26	1726,44
606,45	1671,14
606,64	1777,64
606,84	1703,91
607,03	1742,82
607,22	1804,26
607,41	1703,91
607,60	1667,05
607,80	1791,97
607,99	1695,72
608,18	1791,97
608,37	1681,38
608,56	1658,85
608,76	1738,73
608,95	1738,73
609,14	1732,58
609,33	1703,91
609,52	1771,49
609,72	1796,07
609,91	1806,31
610,10	1767,40
610,29	1771,49
610,48	1769,44
610,68	1781,73
610,87	1675,24
611,06	1794,02
611,25	1769,44
611,44	1800,16
611,63	1716,20
611,83	1777,64
612,02	1644,52
612,21	1804,26
612,40	1701,86
612,59	1701,86
612,79	1626,09
612,98	1660,90
613,17	1775,59
613,36	1710,05
613,55	1787,88
613,74	1712,10
613,93	1695,72
614,13	1769,44
614,32	1751,01
614,51	1826,79
614,70	1734,63
614,89	1705,96
615,08	1785,83
615,28	2009,06
615,47	1636,33
615,66	1718,25
615,85	1726,44
616,04	1804,26
616,23	1726,44
616,42	1744,87
616,62	1708,01
616,81	1769,44
617,00	1644,52
617,19	1806,31
617,38	1681,38
617,57	1828,84
617,76	1742,82
617,95	1777,64
618,15	1695,72
618,34	1724,39
618,53	1675,24
618,72	1742,82
618,91	1767,40
619,10	1732,58
619,29	1765,35
619,48	1673,19
619,68	1585,13
619,87	1695,72
620,06	1591,27
620,25	1738,73
620,44	1724,39
620,63	1652,71
620,82	1779,68
621,01	1624,04
621,20	1736,68
621,39	1691,62
621,59	1753,06
621,78	1697,77
621,97	1673,19
622,16	1787,88
622,35	1718,25
622,54	1697,77
622,73	1794,02
622,92	1613,80
623,11	1781,73
623,30	1726,44
623,49	1736,68
623,68	1630,18
623,88	1853,41
624,07	1632,23
624,26	1730,53
624,45	1753,06
624,64	1705,96
624,83	1765,35
625,02	1753,06
625,21	1662,95
625,40	1681,38
625,59	1777,64
625,78	1771,49
625,97	1859,56
626,16	1767,40
626,35	1728,49
626,54	1726,44
626,74	1888,23
626,93	1685,48
627,12	1630,18
627,31	1761,25
627,50	1777,64
627,69	1824,74
627,88	1681,38
628,07	1746,92
628,26	1597,42
628,45	1687,53
628,64	1685,48
628,83	1716,20
629,02	1613,80
629,21	1705,96
629,40	1742,82
629,59	1712,10
629,78	1712,10
629,97	1732,58
630,16	1665,00
630,35	1712,10
630,54	1724,39
630,73	1617,90
630,92	1716,20
631,11	1740,77
631,30	1710,05
631,49	1753,06
631,68	1650,66
631,87	1767,40
632,06	1689,57
632,25	1845,22
632,44	1828,84
632,63	1761,25
632,82	1703,91
633,01	1607,66
633,20	1687,53
633,39	1701,86
633,58	1695,72
633,77	1716,20
633,96	1751,01
634,15	1834,98
634,34	1734,63
634,53	1755,11
634,72	1685,48
634,91	1675,24
635,10	1732,58
635,29	1671,14
635,48	1751,01
635,67	1650,66
635,86	1722,34
636,05	1787,88
636,24	1669,09
636,43	1806,31
636,62	1722,34
636,81	1574,89
637,00	1726,44
637,19	1738,73
637,38	1724,39
637,57	1660,90
637,76	1667,05
637,95	1681,38
638,14	1708,01
638,33	1691,62
638,52	1705,96
638,71	1619,94
638,89	1601,51
639,08	1789,92
639,27	1691,62
639,46	1683,43
639,65	1837,03
639,84	1638,38
640,03	1814,50
640,22	1665,00
640,41	1798,12
640,60	1619,94
640,79	1685,48
640,98	1705,96
641,17	1748,97
641,36	1654,76
641,55	1701,86
641,74	1646,57
641,92	1611,75
642,11	1667,05
642,30	1738,73
642,49	1673,19
642,68	1656,81
642,87	1738,73
643,06	1755,11
643,25	1617,90
643,44	1681,38
643,63	1744,87
643,82	1738,73
644,00	1736,68
644,19	1732,58
644,38	1681,38
644,57	1697,77
644,76	1746,92
644,95	1738,73
645,14	1685,48
645,33	1607,66
645,52	1753,06
645,71	1650,66
645,89	1546,22
646,08	1691,62
646,27	1714,15
646,46	1771,49
646,65	1646,57
646,84	1738,73
647,03	1611,75
647,22	1736,68
647,40	1787,88
647,59	1667,05
647,78	1705,96
647,97	1679,33
648,16	1621,99
648,35	1744,87
648,54	1804,26
648,73	1726,44
648,91	1785,83
649,10	1667,05
649,29	1779,68
649,48	1691,62
649,67	1665,00
649,86	1665,00
650,05	1658,85
650,23	1841,12
650,42	1634,28
650,61	1789,92
650,80	1787,88
650,99	1845,22
651,18	1665,00
651,36	1787,88
651,55	1646,57
651,74	1751,01
651,93	1697,77
652,12	1710,05
652,31	1607,66
652,49	1730,53
652,68	1703,91
652,87	1798,12
653,06	1648,61
653,25	1800,16
653,44	1703,91
653,62	1734,63
653,81	1738,73
654,00	1665,00
654,19	1742,82
654,38	1824,74
654,56	1695,72
654,75	1662,95
654,94	1775,59
655,13	1757,16
655,32	1697,77
655,51	1695,72
655,69	1658,85
655,88	1755,11
656,07	1656,81
656,26	1781,73
656,45	1615,85
656,63	1740,77
656,82	1798,12
657,01	1771,49
657,20	1685,48
657,38	1810,40
657,57	1726,44
657,76	1654,76
657,95	1744,87
658,14	1648,61
658,32	1648,61
658,51	1675,24
658,70	1716,20
658,89	1708,01
659,08	1656,81
659,26	1765,35
659,45	1683,43
659,64	1730,53
659,83	1693,67
660,01	1982,43
660,20	1654,76
660,39	1873,89
660,58	1665,00
660,76	1675,24
660,95	1640,42
661,14	1726,44
661,33	1650,66
661,51	1636,33
661,70	1701,86
661,89	1757,16
662,08	1767,40
662,26	1607,66
662,45	1658,85
662,64	1757,16
662,83	1761,25
663,01	1613,80
663,20	1652,71
663,39	1843,17
663,58	1767,40
663,76	1685,48
663,95	1763,30
664,14	1656,81
664,32	1730,53
664,51	1695,72
664,70	1628,14
664,89	1759,21
665,07	1628,14
665,26	1718,25
665,45	1710,05
665,64	1800,16
665,82	1771,49
666,01	1769,44
666,20	1638,38
666,38	1806,31
666,57	1841,12
666,76	2133,98
666,95	4382,65
667,13	10553,18
667,32	15261,46
667,51	18028,27
667,69	18822,88
667,88	17692,40
668,07	12248,90
668,25	9504,62
668,44	8062,85
668,63	7401,36
668,81	6922,13
669,00	6285,22
669,19	5748,65
669,38	5119,92
669,56	4673,46
669,75	4112,32
669,94	3434,44
670,12	2863,06
670,31	2580,44
670,50	2191,33
670,68	2017,25
670,87	1951,71
671,06	1748,97
671,24	1806,31
671,43	1892,32
671,62	1763,30
671,80	1769,44
671,99	1767,40
672,18	1685,48
672,36	1736,68
672,55	1665,00
672,74	1753,06
672,92	1693,67
673,11	1710,05
673,29	1687,53
673,48	1828,84
673,67	1669,09
673,85	1839,08
674,04	1656,81
674,23	1751,01
674,41	1812,45
674,60	1617,90
674,79	1595,37
674,97	1710,05
675,16	1691,62
675,34	1705,96
675,53	1701,86
675,72	1732,58
675,90	1806,31
676,09	1693,67
676,28	1716,20
676,46	1660,90
676,65	1839,08
676,83	1744,87
677,02	1712,10
677,21	1650,66
677,39	1751,01
677,58	1710,05
677,77	1681,38
677,95	1667,05
678,14	1740,77
678,32	1683,43
678,51	1685,48
678,70	1869,80
678,88	1710,05
679,07	1695,72
679,25	1722,34
679,44	1665,00
679,63	1683,43
679,81	1710,05
680,00	1808,36
680,18	1728,49
680,37	1769,44
680,55	1753,06
680,74	1550,31
680,93	1667,05
681,11	1685,48
681,30	1644,52
681,48	1734,63
681,67	1634,28
681,85	1697,77
682,04	1677,29
682,23	1736,68
682,41	1720,29
682,60	1748,97
682,78	1714,15
682,97	1595,37
683,15	1703,91
683,34	1708,01
683,53	1828,84
683,71	1714,15
683,90	1757,16
684,08	1759,21
684,27	1677,29
684,45	1705,96
684,64	1761,25
684,82	1640,42
685,01	1705,96
685,19	1683,43
685,38	1806,31
685,57	1720,29
685,75	1662,95
685,94	1712,10
686,12	1607,66
686,31	1677,29
686,49	1765,35
686,68	1626,09
686,86	1722,34
687,05	1724,39
687,23	1837,03
687,42	1710,05
687,60	1687,53
687,79	1771,49
687,97	1824,74
688,16	1798,12
688,34	1746,92
688,53	1619,94
688,71	1789,92
688,90	1755,11
689,08	1726,44
689,27	1650,66
689,45	1789,92
689,64	1755,11
689,82	1742,82
690,01	1699,81
690,19	1705,96
690,38	1708,01
690,56	1748,97
690,75	1652,71
690,93	1667,05
691,12	1665,00
691,30	1691,62
691,49	1714,15
691,67	1677,29
691,86	1822,69
692,04	1656,81
692,23	1742,82
692,41	1658,85
692,60	1841,12
692,78	1685,48
692,97	1687,53
693,15	1689,57
693,34	1820,64
693,52	1783,78
693,71	1685,48
693,89	1689,57
694,08	1673,19
694,26	1789,92
694,44	1755,11
694,63	1691,62
694,81	1617,90
695,00	1650,66
695,18	1800,16
695,37	1816,55
695,55	1658,85
695,74	1691,62
695,92	1701,86
696,10	1787,88
696,29	1624,04
696,47	1689,57
696,66	1624,04
696,84	1675,24
697,03	1636,33
697,21	1841,12
697,40	2322,40
697,58	1796,07
697,76	1687,53
697,95	1665,00
698,13	1560,55
698,32	1720,29
698,50	1695,72
698,68	1695,72
698,87	1722,34
699,05	1851,36
699,24	1736,68
699,42	1705,96
699,61	1755,11
699,79	1759,21
699,97	1673,19
700,16	1689,57
700,34	1652,71
700,53	1742,82
700,71	1857,51
700,89	1757,16
701,08	1691,62
701,26	1746,92
701,45	2054,11
701,63	1617,90
701,81	1632,23
702,00	1611,75
702,18	1669,09
702,37	1689,57
702,55	1736,68
702,73	1665,00
702,92	1669,09
703,10	1658,85
703,28	1724,39
703,47	1617,90
703,65	1763,30
703,84	1705,96
704,02	1734,63
704,20	1751,01
704,39	1677,29
704,57	1691,62
704,75	1781,73
704,94	1738,73
705,12	1681,38
705,30	1783,78
705,49	2226,14
705,67	4526,01
705,86	9541,49
706,04	12808,00
706,22	14681,89
706,41	15652,63
706,59	13766,45
706,77	9594,73
706,96	7450,51
707,14	6610,84
707,32	6004,64
707,51	5576,62
707,69	4902,84
707,87	4206,53
708,06	3542,99
708,24	2983,89
708,42	2451,42
708,61	2281,44
708,79	1880,04
708,97	1857,51
709,16	1808,36
709,34	1759,21
709,52	1693,67
709,71	1722,34
709,89	1800,16
710,07	1710,05
710,26	1667,05
710,44	1783,78
710,62	1789,92
710,80	1730,53
710,99	1703,91
711,17	1718,25
711,35	1656,81
711,54	1722,34
711,72	1753,06
711,90	1740,77
712,09	1732,58
712,27	1691,62
712,45	1718,25
712,63	1673,19
712,82	1669,09
713,00	1677,29
713,18	1763,30
713,37	1689,57
713,55	1753,06
713,73	1699,81
713,91	1802,21
714,10	1673,19
714,28	1693,67
714,46	1691,62
714,65	1648,61
714,83	1740,77
715,01	1677,29
715,19	1738,73
715,38	1617,90
715,56	1759,21
715,74	1654,76
715,92	1673,19
716,11	1687,53
716,29	1595,37
716,47	1796,07
716,65	1638,38
716,84	1617,90
717,02	1710,05
717,20	1642,47
717,38	1648,61
717,57	1689,57
717,75	1722,34
717,93	1662,95
718,11	1703,91
718,30	1687,53
718,48	1740,77
718,66	1822,69
718,84	1757,16
719,03	1724,39
719,21	1695,72
719,39	1771,49
719,57	1693,67
719,75	1685,48
719,94	1650,66
720,12	1662,95
720,30	1724,39
720,48	1796,07
720,67	1634,28
720,85	1642,47
721,03	1703,91
721,21	1597,42
721,39	1738,73
721,58	1744,87
721,76	1730,53
721,94	1753,06
722,12	1683,43
722,30	1800,16
722,49	1656,81
722,67	1695,72
722,85	1724,39
723,03	1669,09
723,21	1681,38
723,40	1748,97
723,58	1853,41
723,76	1787,88
723,94	1798,12
724,12	1628,14
724,30	1740,77
724,49	1785,83
724,67	1714,15
724,85	1787,88
725,03	1671,14
725,21	1724,39
725,40	1736,68
725,58	1665,00
725,76	1775,59
725,94	1742,82
726,12	1646,57
726,30	1662,95
726,49	1658,85
726,67	1697,77
726,85	1681,38
727,03	1751,01
727,21	2084,83
727,39	2893,78
727,57	3782,60
727,76	4224,96
727,94	4401,08
728,12	4333,50
728,30	3755,97
728,48	3028,95
728,66	2781,14
728,84	2562,01
729,03	2287,58
729,21	2174,94
729,39	1886,18
729,57	1906,66
729,75	1789,92
729,93	1877,99
730,11	1708,01
730,30	1710,05
730,48	1640,42
730,66	1779,68
730,84	1720,29
731,02	1705,96
731,20	1650,66
731,38	1740,77
731,56	1681,38
731,74	1611,75
731,93	1722,34
732,11	1669,09
732,29	1746,92
732,47	1759,21
732,65	1665,00
732,83	1826,79
733,01	1748,97
733,19	1667,05
733,37	1685,48
733,56	1699,81
733,74	1691,62
733,92	1810,40
734,10	1697,77
734,28	1746,92
734,46	1642,47
734,64	1609,70
734,82	1683,43
735,00	1615,85
735,18	1689,57
735,36	1685,48
735,54	1667,05
735,73	1771,49
735,91	1822,69
736,09	1679,33
736,27	1693,67
736,45	1726,44
736,63	1619,94
736,81	1656,81
736,99	1691,62
737,17	1845,22
737,35	1642,47
737,53	1701,86
737,71	1687,53
737,89	1837,03
738,07	1658,85
738,25	1621,99
738,43	1595,37
738,61	1714,15
738,80	1615,85
738,98	1603,56
739,16	1738,73
739,34	1611,75
739,52	1789,92
739,70	1697,77
739,88	1783,78
740,06	1791,97
740,24	1605,61
740,42	1769,44
740,60	1609,70
740,78	1650,66
740,96	1624,04
741,14	1701,86
741,32	1746,92
741,50	1658,85
741,68	1902,56
741,86	1826,79
742,04	1636,33
742,22	1613,80
742,40	1667,05
742,58	1812,45
742,76	1687,53
742,94	1824,74
743,12	1669,09
743,30	1730,53
743,48	1734,63
743,66	1687,53
743,84	1626,09
744,02	1708,01
744,20	1630,18
744,38	1693,67
744,56	1648,61
744,74	1812,45
744,92	1705,96
745,10	1767,40
745,28	1714,15
745,46	1753,06
745,64	1693,67
745,82	1775,59
746,00	1726,44
746,18	1744,87
746,36	1689,57
746,54	1742,82
746,72	1712,10
746,90	1646,57
747,08	1828,84
747,26	1628,14
747,44	1787,88
747,62	1730,53
747,80	1761,25
747,98	1796,07
748,15	1621,99
748,33	1755,11
748,51	1740,77
748,69	1767,40
748,87	1703,91
749,05	1724,39
749,23	1734,63
749,41	1759,21
749,59	1703,91
749,77	1755,11
749,95	1718,25
750,13	1675,24
750,31	1705,96
750,49	1705,96
750,67	1748,97
750,85	1779,68
751,03	1722,34
751,20	1789,92
751,38	1669,09
751,56	1771,49
751,74	1679,33
751,92	1660,90
752,10	1599,46
752,28	1751,01
752,46	1679,33
752,64	1751,01
752,82	1683,43
753,00	1673,19
753,18	1656,81
753,35	1615,85
753,53	1667,05
753,71	1730,53
753,89	1814,50
754,07	1683,43
754,25	1732,58
754,43	1712,10
754,61	1566,70
754,79	1744,87
754,97	1648,61
755,14	1761,25
755,32	1650,66
755,50	1685,48
755,68	1710,05
755,86	1710,05
756,04	1699,81
756,22	1550,31
756,40	1746,92
756,57	1791,97
756,75	1648,61
756,93	1708,01
757,11	1810,40
757,29	1593,32
757,47	1722,34
757,65	1642,47
757,82	1558,50
758,00	1685,48
758,18	1619,94
758,36	1679,33
758,54	1757,16
758,72	1632,23
758,90	1777,64
759,07	1720,29
759,25	1605,61
759,43	1689,57
759,61	1576,94
759,79	2230,24
759,97	1705,96
760,15	1701,86
760,32	1634,28
760,50	1693,67
760,68	1847,27
760,86	1585,13
761,04	1812,45
761,22	1759,21
761,39	1642,47
761,57	1806,31
761,75	1656,81
761,93	1660,90
762,11	1681,38
762,28	1691,62
762,46	1712,10
762,64	1773,54
762,82	1626,09
763,00	1689,57
763,18	1757,16
763,35	1722,34
763,53	1703,91
763,71	1753,06
763,89	1724,39
764,07	1701,86
764,24	1671,14
764,42	1722,34
764,60	1630,18
764,78	1683,43
764,96	1718,25
765,13	1728,49
765,31	1650,66
765,49	1734,63
765,67	1619,94
765,84	1632,23
766,02	1613,80
766,20	1628,14
766,38	1724,39
766,56	1695,72
766,73	1667,05
766,91	1781,73
767,09	1748,97
767,27	1734,63
767,44	1650,66
767,62	1759,21
767,80	1667,05
767,98	1693,67
768,15	1679,33
768,33	1746,92
768,51	1689,57
768,69	1722,34
768,87	1726,44
769,04	1693,67
769,22	1849,32
769,40	1796,07
769,58	1863,65
769,75	1755,11
769,93	1714,15
770,11	1681,38
770,28	1699,81
770,46	1755,11
770,64	1751,01
770,82	1714,15
770,99	1697,77
771,17	1730,53
771,35	1699,81
771,53	1751,01
771,70	1693,67
771,88	1718,25
772,06	1617,90
772,23	1740,77
772,41	1712,10
772,59	1617,90
772,77	1609,70
772,94	1611,75
773,12	1742,82
773,30	1615,85
773,47	1697,77
773,65	1685,48
773,83	1826,79
774,01	1669,09
774,18	1611,75
774,36	1738,73
774,54	1646,57
774,71	1734,63
774,89	1675,24
775,07	1601,51
775,24	1673,19
775,42	1744,87
775,60	1761,25
775,78	1648,61
775,95	1665,00
776,13	1636,33
776,31	1554,41
776,48	1720,29
776,66	1765,35
776,84	1632,23
777,01	1660,90
777,19	1738,73
777,37	1654,76
777,54	1689,57
777,72	1824,74
777,90	1658,85
778,07	1675,24
778,25	1781,73
778,43	1716,20
778,60	1679,33
778,78	1716,20
778,96	1728,49
779,13	1660,90
779,31	1787,88
779,49	1710,05
779,66	1689,57
779,84	1652,71
780,01	1742,82
780,19	1574,89
780,37	1712,10
780,54	1751,01
780,72	1697,77
780,90	1691,62
781,07	1656,81
781,25	1671,14
781,43	1783,78
781,60	1732,58
781,78	1757,16
781,95	1763,30
782,13	1679,33
782,31	1701,86
782,48	1566,70
782,66	1638,38
782,83	1814,50
783,01	1775,59
783,19	1794,02
783,36	1675,24
783,54	1570,79
783,72	1736,68
783,89	1630,18
784,07	1671,14
784,24	1724,39
784,42	1796,07
784,60	1669,09
784,77	1673,19
784,95	1644,52
785,12	1677,29
785,30	1638,38
785,47	1675,24
785,65	1636,33
785,83	1722,34
786,00	1656,81
786,18	1673,19
786,35	1660,90
786,53	1669,09
786,71	1757,16
786,88	1638,38
787,06	1718,25
787,23	1589,22
787,41	1615,85
787,58	1634,28
787,76	1726,44
787,94	1677,29
788,11	1718,25
788,29	1673,19
788,46	1669,09
788,64	1583,08
788,81	1681,38
788,99	1738,73
789,16	1630,18
789,34	1710,05
789,52	1658,85
789,69	1683,43
789,87	1640,42
790,04	1693,67
790,22	1742,82
790,39	1720,29
790,57	1662,95
790,74	1720,29
790,92	1724,39
791,09	1624,04
791,27	1732,58
791,44	1806,31
791,62	1658,85
791,79	1751,01
791,97	1660,90
792,15	1794,02
792,32	1744,87
792,50	1742,82
792,67	1783,78
792,85	1744,87
793,02	1677,29
793,20	1642,47
793,37	1640,42
793,55	1708,01
793,72	1628,14
793,90	1736,68
794,07	1675,24
794,25	1662,95
794,42	1710,05
794,60	1687,53
794,77	1726,44
794,95	1744,87
795,12	1673,19
795,30	1716,20
795,47	1576,94
795,65	1863,65
795,82	1705,96
796,00	1710,05
796,17	1683,43
796,34	1660,90
796,52	1665,00
796,69	1771,49
796,87	1712,10
797,04	1689,57
797,22	1671,14
797,39	1779,68
797,57	1724,39
797,74	1732,58
797,92	1701,86
798,09	1669,09
798,27	1720,29
798,44	1710,05
798,62	1724,39
798,79	1740,77
798,96	1734,63
799,14	1703,91
799,31	1853,41
799,49	1656,81
799,66	1650,66
799,84	1665,00
800,01	1654,76
800,19	1683,43
800,36	1585,13
800,53	1765,35
800,71	1685,48
800,88	1822,69
801,06	1675,24
801,23	1656,81
801,41	1677,29
801,58	1724,39
801,75	1673,19
801,93	1681,38
802,10	1781,73
802,28	1705,96
802,45	1679,33
802,63	1759,21
802,80	1695,72
802,97	1724,39
803,15	1693,67
803,32	1722,34
803,50	1634,28
803,67	1583,08
803,84	1687,53
804,02	1660,90
804,19	1626,09
804,37	1568,74
804,54	1634,28
804,71	1679,33
804,89	1699,81
805,06	1648,61
805,24	1593,32
805,41	1703,91
805,58	1667,05
805,76	1892,32
805,93	1632,23
806,10	1765,35
806,28	1751,01
806,45	1724,39
806,63	1734,63
806,80	1712,10
806,97	1617,90
807,15	1677,29
807,32	1687,53
807,49	1720,29
807,67	1665,00
807,84	1699,81
808,01	1558,50
808,19	1904,61
808,36	1810,40
808,54	1654,76
808,71	1669,09
808,88	1708,01
809,06	1705,96
809,23	1779,68
809,40	1642,47
809,58	1814,50
809,75	1687,53
809,92	1675,24
810,10	1908,71
810,27	1763,30
810,44	1755,11
810,62	1722,34
810,79	1687,53
810,96	1632,23
811,14	1665,00
811,31	1710,05
811,48	1738,73
811,66	1660,90
811,83	1722,34
812,00	1734,63
812,18	1726,44
812,35	1777,64
812,52	1628,14
812,69	1685,48
812,87	1671,14
813,04	1679,33
813,21	1693,67
813,39	1636,33
813,56	1595,37
813,73	1740,77
813,91	1605,61
814,08	1738,73
814,25	1769,44
814,42	1595,37
814,60	1742,82
814,77	1734,63
814,94	1656,81
815,12	1681,38
815,29	1730,53
815,46	1656,81
815,63	1652,71
815,81	1640,42
815,98	1687,53
816,15	1730,53
816,33	1607,66
816,50	1671,14
816,67	1767,40
816,84	1660,90
817,02	1677,29
817,19	1714,15
817,36	1744,87
817,53	1712,10
817,71	1632,23
817,88	1753,06
818,05	1708,01
818,22	1681,38
818,40	1802,21
818,57	1642,47
818,74	1718,25
818,91	1615,85
819,09	1794,02
819,26	1730,53
819,43	1677,29
819,60	1667,05
819,78	1746,92
819,95	1773,54
820,12	1644,52
820,29	1781,73
820,47	1779,68
820,64	1646,57
820,81	1617,90
820,98	1660,90
821,15	1632,23
821,33	1687,53
821,50	1646,57
821,67	1718,25
821,84	1697,77
822,02	1673,19
822,19	1710,05
822,36	1683,43
822,53	1699,81
822,70	1689,57
822,88	1677,29
823,05	1775,59
823,22	1705,96
823,39	1742,82
823,56	1746,92
823,74	1742,82
823,91	1656,81
824,08	1671,14
824,25	1644,52
824,42	1730,53
824,60	1613,80
824,77	1712,10
824,94	1734,63
825,11	1708,01
825,28	1634,28
825,45	1665,00
825,63	1755,11
825,80	1599,46
825,97	1716,20
826,14	1753,06
826,31	1583,08
826,48	1730,53
826,66	1673,19
826,83	1687,53
827,00	1751,01
827,17	1728,49
827,34	1669,09
827,51	1603,56
827,69	1746,92
827,86	1675,24
828,03	1718,25
828,20	1722,34
828,37	1642,47
828,54	1734,63
828,71	1699,81
828,89	1712,10
829,06	1769,44
829,23	1763,30
829,40	1667,05
829,57	1701,86
829,74	1822,69
829,91	1615,85
830,09	1658,85
830,26	1720,29
830,43	1812,45
830,60	1689,57
830,77	1689,57
830,94	1759,21
831,11	1812,45
831,28	1646,57
831,46	1779,68
831,63	1697,77
831,80	1730,53
831,97	1662,95
832,14	1642,47
832,31	1804,26
832,48	1681,38
832,65	1798,12
832,82	1705,96
832,99	1667,05
833,17	1660,90
833,34	1781,73
833,51	1767,40
833,68	1583,08
833,85	1753,06
834,02	1638,38
834,19	1703,91
834,36	1650,66
834,53	1693,67
834,70	1718,25
834,87	1751,01
835,04	1667,05
835,22	1681,38
835,39	1593,32
835,56	1603,56
835,73	1791,97
835,90	1722,34
836,07	1650,66
836,24	1800,16
836,41	1617,90
836,58	1624,04
836,75	1691,62
836,92	1755,11
837,09	1630,18
837,26	1736,68
837,43	1697,77
837,60	1718,25
837,77	1738,73
837,94	1716,20
838,12	1830,88
838,29	1744,87
838,46	1591,27
838,63	1634,28
838,80	1796,07
838,97	1703,91
839,14	1648,61
839,31	1656,81
839,48	1730,53
839,65	1697,77
839,82	1734,63
839,99	1734,63
840,16	1738,73
840,33	1640,42
840,50	1708,01
840,67	1742,82
840,84	1542,12
841,01	1708,01
841,18	1714,15
841,35	1726,44
841,52	1675,24
841,69	1822,69
841,86	1738,73
842,03	1677,29
842,20	1710,05
842,37	1679,33
842,54	1677,29
842,71	1697,77
842,88	1705,96
843,05	1765,35
843,22	1656,81
843,39	1710,05
843,56	1626,09
843,73	1687,53
843,90	1728,49
844,07	1697,77
844,24	1681,38
844,41	1699,81
844,58	1689,57
844,75	1679,33
844,92	1695,72
845,09	1621,99
845,26	1665,00
845,43	1730,53
845,60	1742,82
845,77	1775,59
845,94	1656,81
846,10	1755,11
846,27	1673,19
846,44	1585,13
846,61	1677,29
846,78	1685,48
846,95	1708,01
847,12	1718,25
847,29	1720,29
847,46	1712,10
847,63	1740,77
847,80	1699,81
847,97	1673,19
848,14	1763,30
848,31	1652,71
848,48	1660,90
848,65	1732,58
848,82	1572,84
848,98	1828,84
849,15	1744,87
849,32	1724,39
849,49	1740,77
849,66	1669,09
849,83	1689,57
850,00	1656,81
850,17	1736,68
850,34	1705,96
850,51	1613,80
850,68	1736,68
850,85	1814,50
851,01	1714,15
851,18	1791,97
851,35	1677,29
851,52	1736,68
851,69	1736,68
851,86	1613,80
852,03	1751,01
852,20	1781,73
852,37	1648,61
852,53	1632,23
852,70	1665,00
852,87	1656,81
853,04	1775,59
853,21	1753,06
853,38	1789,92
853,55	1851,36
853,72	1730,53
853,89	1697,77
854,05	1689,57
854,22	1687,53
854,39	1640,42
854,56	1687,53
854,73	1701,86
854,90	1677,29
855,07	1693,67
855,23	1718,25
855,40	1628,14
855,57	1652,71
855,74	1611,75
855,91	1767,40
856,08	1624,04
856,25	1595,37
856,41	1691,62
856,58	1683,43
856,75	1734,63
856,92	1628,14
857,09	1761,25
857,26	1650,66
857,42	1660,90
857,59	1777,64
857,76	1695,72
857,93	1720,29
858,10	1738,73
858,27	1640,42
858,43	1767,40
858,60	1683,43
858,77	1683,43
858,94	1642,47
859,11	1767,40
859,27	1691,62
859,44	1669,09
859,61	1828,84
859,78	1734,63
859,95	1628,14
860,12	1576,94
860,28	1822,69
860,45	1789,92
860,62	1593,32
860,79	1681,38
860,95	1621,99
861,12	1652,71
861,29	1656,81
861,46	1578,98
861,63	1669,09
861,79	1656,81
861,96	1691,62
862,13	1673,19
862,30	1732,58
862,47	1628,14
862,63	1665,00
862,80	1740,77
862,97	1775,59
863,14	1783,78
863,30	1697,77
863,47	1636,33
863,64	1769,44
863,81	1738,73
863,97	1720,29
864,14	1679,33
864,31	1671,14
864,48	1624,04
864,65	1705,96
864,81	1744,87
864,98	1697,77
865,15	1779,68
865,32	1712,10
865,48	1748,97
865,65	1763,30
865,82	1726,44
865,98	1730,53
866,15	1781,73
866,32	1703,91
866,49	1773,54
866,65	1800,16
866,82	1652,71
866,99	1652,71
867,16	1648,61
867,32	1613,80
867,49	1665,00
867,66	1667,05
867,83	1662,95
867,99	1632,23
868,16	1677,29
868,33	1685,48
868,49	1652,71
868,66	1708,01
868,83	1693,67
868,99	1710,05
869,16	1701,86
869,33	1751,01
869,50	1732,58
869,66	1650,66
869,83	1632,23
870,00	1611,75
870,16	1718,25
870,33	1708,01
870,50	1730,53
870,66	1689,57
870,83	1861,60
871,00	1665,00
871,17	1730,53
871,33	1689,57
871,50	1791,97
871,67	1677,29
871,83	1697,77
872,00	1816,55
872,17	1624,04
872,33	1767,40
872,50	1738,73
872,67	1662,95
872,83	1621,99
873,00	1671,14
873,17	1710,05
873,33	1679,33
873,50	1681,38
873,67	1609,70
873,83	1656,81
874,00	1658,85
874,16	1785,83
874,33	1703,91
874,50	1630,18
874,66	1703,91
874,83	1708,01
875,00	1685,48
875,16	1734,63
875,33	1757,16
875,50	1640,42
875,66	1638,38
875,83	1673,19
875,99	1791,97
876,16	1665,00
876,33	1673,19
876,49	1689,57
876,66	1689,57
876,83	1626,09
876,99	1693,67
877,16	1705,96
877,32	1660,90
877,49	1730,53
877,66	1767,40
877,82	1783,78
877,99	1689,57
878,15	1665,00
878,32	1683,43
878,49	1716,20
878,65	1662,95
878,82	1767,40
878,98	1673,19
879,15	1787,88
879,32	1708,01
879,48	1662,95
879,65	1646,57
879,81	1691,62
879,98	1638,38
880,15	1679,33
880,31	1736,68
880,48	1683,43
880,64	1718,25
880,81	1703,91
880,97	1753,06
881,14	1773,54
881,31	1701,86
881,47	1837,03
881,64	1673,19
881,80	1562,60
881,97	1699,81
882,13	1767,40
882,30	1673,19
882,47	1648,61
882,63	1667,05
882,80	1681,38
882,96	1697,77
883,13	1716,20
883,29	1691,62
883,46	1738,73
883,62	1812,45
883,79	1677,29
883,95	1710,05
884,12	1628,14
884,29	1724,39
884,45	1644,52
884,62	1685,48
884,78	1650,66
884,95	1687,53
885,11	1632,23
885,28	1767,40
885,44	1687,53
885,61	1687,53
885,77	1791,97
885,94	1734,63
886,10	1660,90
886,27	1697,77
886,43	1798,12
886,60	1732,58
886,76	1673,19
886,93	1648,61
887,09	1656,81
887,26	1677,29
887,42	1751,01
887,59	1783,78
887,75	1773,54
887,92	1773,54
888,08	1714,15
888,25	1732,58
888,41	1728,49
888,58	1675,24
888,74	1710,05
888,91	1695,72
>>>>>End Processed Spectral Data<<<<<
