SpectraSuite Data File
++++++++++++++++++++++++++++++++++++
Date: Mon Jun 06 14:27:17 CEST 2016
User: root
Dark Spectrum Present: No
Reference Spectrum Present: No
Number of Sampled Component Spectra: 1
Spectrometers: USB4C02835
Integration Time (usec): 100000 (USB4C02835)
Spectra Averaged: 1 (USB4C02835)
Boxcar Smoothing: 0 (USB4C02835)
Correct for Electrical Dark: No (USB4C02835)
Strobe/Lamp Enabled: No (USB4C02835)
Correct for Detector Non-linearity: No (USB4C02835)
Correct for Stray Light: No (USB4C02835)
Number of Pixels in Processed Spectrum: 3648
>>>>>Begin Processed Spectral Data<<<<<
177,47	1460,20
177,69	1460,20
177,91	1460,20
178,13	1509,35
178,36	1400,81
178,58	1687,53
178,80	1691,62
179,02	1734,63
179,24	1671,14
179,46	1636,33
179,68	1689,57
179,90	1675,24
180,13	1712,10
180,35	1648,61
180,57	1665,00
180,79	1730,53
181,01	1734,63
181,23	1626,09
181,45	1730,53
181,67	1718,25
181,90	1789,92
182,12	1669,09
182,34	1628,14
182,56	1708,01
182,78	1640,42
183,00	1650,66
183,22	1738,73
183,44	1576,94
183,66	1830,88
183,89	1681,38
184,11	1759,21
184,33	1705,96
184,55	1751,01
184,77	1617,90
184,99	1675,24
185,21	1675,24
185,43	1818,60
185,65	1697,77
185,87	1681,38
186,10	1765,35
186,32	1783,78
186,54	1744,87
186,76	1783,78
186,98	1738,73
187,20	1675,24
187,42	1695,72
187,64	1712,10
187,86	1769,44
188,08	1802,21
188,30	1677,29
188,52	1695,72
188,75	1781,73
188,97	1861,60
189,19	1683,43
189,41	1689,57
189,63	1751,01
189,85	1658,85
190,07	1685,48
190,29	1699,81
190,51	1697,77
190,73	1665,00
190,95	1691,62
191,17	1679,33
191,39	1656,81
191,61	1640,42
191,84	1701,86
192,06	1763,30
192,28	1648,61
192,50	1855,46
192,72	1722,34
192,94	1642,47
193,16	1710,05
193,38	1751,01
193,60	1621,99
193,82	1693,67
194,04	1712,10
194,26	1761,25
194,48	1681,38
194,70	1685,48
194,92	1638,38
195,14	1832,93
195,36	1673,19
195,58	1781,73
195,80	1710,05
196,02	1658,85
196,24	1615,85
196,46	1718,25
196,69	1683,43
196,91	1834,98
197,13	1632,23
197,35	1667,05
197,57	1746,92
197,79	1716,20
198,01	1804,26
198,23	1683,43
198,45	1679,33
198,67	1605,61
198,89	1730,53
199,11	1765,35
199,33	1660,90
199,55	1626,09
199,77	1671,14
199,99	1800,16
200,21	1589,22
200,43	1705,96
200,65	1671,14
200,87	1540,07
201,09	1667,05
201,31	1611,75
201,53	1822,69
201,75	1724,39
201,97	1718,25
202,19	1693,67
202,41	1677,29
202,63	1753,06
202,85	1691,62
203,07	1699,81
203,29	1708,01
203,51	1634,28
203,73	1628,14
203,95	1877,99
204,17	1746,92
204,39	1757,16
204,61	1658,85
204,83	1718,25
205,05	1796,07
205,27	1746,92
205,49	1785,83
205,71	1734,63
205,93	1656,81
206,15	1667,05
206,37	1611,75
206,59	1665,00
206,81	1632,23
207,03	1644,52
207,25	1761,25
207,47	1753,06
207,69	1787,88
207,91	1769,44
208,13	1705,96
208,34	1681,38
208,56	1650,66
208,78	1722,34
209,00	1636,33
209,22	1673,19
209,44	1644,52
209,66	1671,14
209,88	1728,49
210,10	1634,28
210,32	1691,62
210,54	1783,78
210,76	1701,86
210,98	1665,00
211,20	1566,70
211,42	1683,43
211,64	1718,25
211,86	1701,86
212,08	1662,95
212,30	1691,62
212,52	1681,38
212,74	1716,20
212,96	1642,47
213,17	1779,68
213,39	1732,58
213,61	1740,77
213,83	1746,92
214,05	1587,18
214,27	1775,59
214,49	1691,62
214,71	1732,58
214,93	1740,77
215,15	1691,62
215,37	1724,39
215,59	1697,77
215,81	1716,20
216,03	1757,16
216,24	1708,01
216,46	1665,00
216,68	1693,67
216,90	1767,40
217,12	1738,73
217,34	1683,43
217,56	1755,11
217,78	1685,48
218,00	1765,35
218,22	1683,43
218,44	1685,48
218,66	1710,05
218,87	1753,06
219,09	1693,67
219,31	1695,72
219,53	1779,68
219,75	1681,38
219,97	1724,39
220,19	1701,86
220,41	1806,31
220,63	1798,12
220,85	1738,73
221,06	1671,14
221,28	1769,44
221,50	1718,25
221,72	1703,91
221,94	1751,01
222,16	1740,77
222,38	1744,87
222,60	1714,15
222,82	1681,38
223,03	1755,11
223,25	1560,55
223,47	1777,64
223,69	1753,06
223,91	1656,81
224,13	1703,91
224,35	1703,91
224,57	1791,97
224,78	1695,72
225,00	1652,71
225,22	1687,53
225,44	1753,06
225,66	1710,05
225,88	1675,24
226,10	1712,10
226,32	1673,19
226,53	1796,07
226,75	1673,19
226,97	1710,05
227,19	1703,91
227,41	1673,19
227,63	1748,97
227,85	1619,94
228,06	1693,67
228,28	1648,61
228,50	1755,11
228,72	1656,81
228,94	1681,38
229,16	1638,38
229,37	1671,14
229,59	1675,24
229,81	1765,35
230,03	1738,73
230,25	1652,71
230,47	1679,33
230,69	1595,37
230,90	1767,40
231,12	1667,05
231,34	1722,34
231,56	1724,39
231,78	1607,66
232,00	1755,11
232,21	1613,80
232,43	1609,70
232,65	1554,41
232,87	1671,14
233,09	1611,75
233,30	1665,00
233,52	1732,58
233,74	1646,57
233,96	1689,57
234,18	1734,63
234,40	1691,62
234,61	1845,22
234,83	1617,90
235,05	1607,66
235,27	1822,69
235,49	1798,12
235,70	1779,68
235,92	1800,16
236,14	1783,78
236,36	1816,55
236,58	1634,28
236,79	1705,96
237,01	1679,33
237,23	1712,10
237,45	1886,18
237,67	1615,85
237,88	1611,75
238,10	1789,92
238,32	1638,38
238,54	1699,81
238,76	1693,67
238,97	1603,56
239,19	1724,39
239,41	1724,39
239,63	1820,64
239,85	1697,77
240,06	1773,54
240,28	1583,08
240,50	1822,69
240,72	1697,77
240,93	1574,89
241,15	1787,88
241,37	1587,18
241,59	1736,68
241,81	1701,86
242,02	1720,29
242,24	1740,77
242,46	1740,77
242,68	1650,66
242,89	1724,39
243,11	1726,44
243,33	1636,33
243,55	1642,47
243,76	1757,16
243,98	1665,00
244,20	1681,38
244,42	1742,82
244,64	1691,62
244,85	1595,37
245,07	1689,57
245,29	1724,39
245,51	1675,24
245,72	1681,38
245,94	1722,34
246,16	1732,58
246,38	1705,96
246,59	1718,25
246,81	1701,86
247,03	1675,24
247,24	1630,18
247,46	1630,18
247,68	1671,14
247,90	1656,81
248,11	1624,04
248,33	1755,11
248,55	1697,77
248,77	1720,29
248,98	1763,30
249,20	1755,11
249,42	1724,39
249,64	1724,39
249,85	1718,25
250,07	1636,33
250,29	1730,53
250,50	1734,63
250,72	1693,67
250,94	1781,73
251,16	1769,44
251,37	1843,17
251,59	1740,77
251,81	1691,62
252,02	1757,16
252,24	1736,68
252,46	1775,59
252,68	1595,37
252,89	1656,81
253,11	1679,33
253,33	1757,16
253,54	1767,40
253,76	1667,05
253,98	1699,81
254,20	1716,20
254,41	1632,23
254,63	1714,15
254,85	1656,81
255,06	1691,62
255,28	1681,38
255,50	1619,94
255,71	1636,33
255,93	1601,51
256,15	1767,40
256,36	1714,15
256,58	1687,53
256,80	1728,49
257,02	1697,77
257,23	1578,98
257,45	1710,05
257,67	1757,16
257,88	1658,85
258,10	1720,29
258,32	1734,63
258,53	1726,44
258,75	1748,97
258,97	1689,57
259,18	1695,72
259,40	1720,29
259,62	1798,12
259,83	1722,34
260,05	1783,78
260,27	2019,30
260,48	1791,97
260,70	1628,14
260,92	1697,77
261,13	1667,05
261,35	1691,62
261,57	1705,96
261,78	1687,53
262,00	1634,28
262,22	1828,84
262,43	1644,52
262,65	1660,90
262,86	1775,59
263,08	1892,32
263,30	1722,34
263,51	1615,85
263,73	1689,57
263,95	1806,31
264,16	1714,15
264,38	1658,85
264,60	1746,92
264,81	1648,61
265,03	1773,54
265,25	1783,78
265,46	1660,90
265,68	1832,93
265,89	1724,39
266,11	1587,18
266,33	1693,67
266,54	1755,11
266,76	1730,53
266,98	1773,54
267,19	1693,67
267,41	1701,86
267,62	1652,71
267,84	1658,85
268,06	1830,88
268,27	1677,29
268,49	1695,72
268,70	1798,12
268,92	1718,25
269,14	1716,20
269,35	1665,00
269,57	1787,88
269,79	1714,15
270,00	1626,09
270,22	1767,40
270,43	1593,32
270,65	1611,75
270,87	1705,96
271,08	1755,11
271,30	1728,49
271,51	1673,19
271,73	1732,58
271,95	1783,78
272,16	1769,44
272,38	1689,57
272,59	1665,00
272,81	1730,53
273,02	1746,92
273,24	1753,06
273,46	1734,63
273,67	1648,61
273,89	1626,09
274,10	1632,23
274,32	1689,57
274,54	1757,16
274,75	1724,39
274,97	1675,24
275,18	1746,92
275,40	1648,61
275,61	1732,58
275,83	1681,38
276,05	1665,00
276,26	1742,82
276,48	1677,29
276,69	1689,57
276,91	1669,09
277,12	1751,01
277,34	1718,25
277,55	1736,68
277,77	1728,49
277,99	1673,19
278,20	1634,28
278,42	1624,04
278,63	1675,24
278,85	1591,27
279,06	1665,00
279,28	1830,88
279,49	1744,87
279,71	1708,01
279,93	1728,49
280,14	1695,72
280,36	1595,37
280,57	1740,77
280,79	1621,99
281,00	1632,23
281,22	1638,38
281,43	1710,05
281,65	1556,46
281,86	1525,74
282,08	1693,67
282,29	1785,83
282,51	1687,53
282,73	1632,23
282,94	1599,46
283,16	1751,01
283,37	1822,69
283,59	1714,15
283,80	1689,57
284,02	1652,71
284,23	1683,43
284,45	1648,61
284,66	1613,80
284,88	1632,23
285,09	1761,25
285,31	1789,92
285,52	1648,61
285,74	1626,09
285,95	1791,97
286,17	1722,34
286,38	1808,36
286,60	1648,61
286,81	1677,29
287,03	1724,39
287,24	1662,95
287,46	1796,07
287,67	1695,72
287,89	1869,80
288,10	1718,25
288,32	1693,67
288,53	1732,58
288,75	1691,62
288,96	1757,16
289,18	1742,82
289,39	1601,51
289,61	1693,67
289,82	1832,93
290,04	1773,54
290,25	1769,44
290,47	1671,14
290,68	1730,53
290,90	1841,12
291,11	1529,83
291,33	1705,96
291,54	1691,62
291,76	1701,86
291,97	1728,49
292,18	1722,34
292,40	1683,43
292,61	1648,61
292,83	1824,74
293,04	1742,82
293,26	1730,53
293,47	1701,86
293,69	1660,90
293,90	1751,01
294,12	1814,50
294,33	1722,34
294,55	1716,20
294,76	1785,83
294,97	1726,44
295,19	1837,03
295,40	1738,73
295,62	1716,20
295,83	1677,29
296,05	1685,48
296,26	1751,01
296,48	1630,18
296,69	1710,05
296,90	1753,06
297,12	1728,49
297,33	1794,02
297,55	1701,86
297,76	1699,81
297,98	1708,01
298,19	1730,53
298,41	1736,68
298,62	1669,09
298,83	1781,73
299,05	1771,49
299,26	1595,37
299,48	1738,73
299,69	1687,53
299,90	1693,67
300,12	1671,14
300,33	1751,01
300,55	1763,30
300,76	1705,96
300,98	1628,14
301,19	1796,07
301,40	1720,29
301,62	1648,61
301,83	1755,11
302,05	1648,61
302,26	1718,25
302,47	1658,85
302,69	1607,66
302,90	1718,25
303,12	1538,02
303,33	1679,33
303,54	1787,88
303,76	1757,16
303,97	1673,19
304,19	1822,69
304,40	1619,94
304,61	1701,86
304,83	1851,36
305,04	1742,82
305,26	1781,73
305,47	1697,77
305,68	1681,38
305,90	1642,47
306,11	1810,40
306,33	1689,57
306,54	1660,90
306,75	1722,34
306,97	1613,80
307,18	1628,14
307,39	1638,38
307,61	1814,50
307,82	1697,77
308,04	1650,66
308,25	1683,43
308,46	1740,77
308,68	1761,25
308,89	1732,58
309,10	1796,07
309,32	1728,49
309,53	1738,73
309,74	1662,95
309,96	1624,04
310,17	1769,44
310,39	1634,28
310,60	1728,49
310,81	1773,54
311,03	1648,61
311,24	1787,88
311,45	1689,57
311,67	1816,55
311,88	1671,14
312,09	1652,71
312,31	1726,44
312,52	1658,85
312,73	1675,24
312,95	1687,53
313,16	1648,61
313,37	1789,92
313,59	1759,21
313,80	1753,06
314,01	1765,35
314,23	1697,77
314,44	1695,72
314,65	1533,93
314,87	1726,44
315,08	1624,04
315,29	1574,89
315,51	1644,52
315,72	1574,89
315,93	1857,51
316,15	1761,25
316,36	1687,53
316,57	1742,82
316,79	1724,39
317,00	1648,61
317,21	1748,97
317,43	1667,05
317,64	1685,48
317,85	1669,09
318,07	1662,95
318,28	1744,87
318,49	1794,02
318,70	1910,75
318,92	1746,92
319,13	1783,78
319,34	1812,45
319,56	1791,97
319,77	1699,81
319,98	1714,15
320,20	1712,10
320,41	1708,01
320,62	1777,64
320,83	1640,42
321,05	1798,12
321,26	1681,38
321,47	1640,42
321,69	1726,44
321,90	1624,04
322,11	1669,09
322,32	1791,97
322,54	1828,84
322,75	1634,28
322,96	1769,44
323,18	1611,75
323,39	1693,67
323,60	1662,95
323,81	1816,55
324,03	1703,91
324,24	1695,72
324,45	1710,05
324,66	1683,43
324,88	1716,20
325,09	1800,16
325,30	1748,97
325,52	1716,20
325,73	1740,77
325,94	1656,81
326,15	1578,98
326,37	1656,81
326,58	1714,15
326,79	1781,73
327,00	1656,81
327,22	1726,44
327,43	1708,01
327,64	1626,09
327,85	1761,25
328,07	1714,15
328,28	1779,68
328,49	1695,72
328,70	1716,20
328,92	1726,44
329,13	1683,43
329,34	1677,29
329,55	1763,30
329,76	1691,62
329,98	1691,62
330,19	1771,49
330,40	1748,97
330,61	1701,86
330,83	1734,63
331,04	1757,16
331,25	1767,40
331,46	1574,89
331,68	1587,18
331,89	1753,06
332,10	1718,25
332,31	1613,80
332,52	1718,25
332,74	1814,50
332,95	1638,38
333,16	1742,82
333,37	1728,49
333,58	1744,87
333,80	1806,31
334,01	1638,38
334,22	1712,10
334,43	1662,95
334,64	1736,68
334,86	1652,71
335,07	1658,85
335,28	1796,07
335,49	1634,28
335,70	1759,21
335,92	1650,66
336,13	1812,45
336,34	1779,68
336,55	1740,77
336,76	1669,09
336,98	1566,70
337,19	1691,62
337,40	1794,02
337,61	1847,27
337,82	1716,20
338,04	1677,29
338,25	1615,85
338,46	1722,34
338,67	1714,15
338,88	1566,70
339,09	1607,66
339,31	1654,76
339,52	1660,90
339,73	1681,38
339,94	1701,86
340,15	1710,05
340,36	1630,18
340,58	1693,67
340,79	1581,03
341,00	1796,07
341,21	1640,42
341,42	1751,01
341,63	1675,24
341,85	1740,77
342,06	1650,66
342,27	1615,85
342,48	1712,10
342,69	1669,09
342,90	1755,11
343,12	1742,82
343,33	1660,90
343,54	1761,25
343,75	1753,06
343,96	1710,05
344,17	1634,28
344,38	1738,73
344,60	1642,47
344,81	1652,71
345,02	1732,58
345,23	1718,25
345,44	1751,01
345,65	1775,59
345,86	1800,16
346,07	1718,25
346,29	1654,76
346,50	1652,71
346,71	1730,53
346,92	1794,02
347,13	1822,69
347,34	1732,58
347,55	1654,76
347,76	1798,12
347,98	1609,70
348,19	1683,43
348,40	1843,17
348,61	1689,57
348,82	1808,36
349,03	1798,12
349,24	1671,14
349,45	1861,60
349,66	1540,07
349,88	1746,92
350,09	1626,09
350,30	1773,54
350,51	1800,16
350,72	1671,14
350,93	1689,57
351,14	1626,09
351,35	1712,10
351,56	1742,82
351,77	1675,24
351,99	1710,05
352,20	1759,21
352,41	1808,36
352,62	1597,42
352,83	1746,92
353,04	1716,20
353,25	1628,14
353,46	1808,36
353,67	1773,54
353,88	1593,32
354,09	1720,29
354,30	1742,82
354,52	1708,01
354,73	1677,29
354,94	1714,15
355,15	1652,71
355,36	1783,78
355,57	1650,66
355,78	1753,06
355,99	1712,10
356,20	1697,77
356,41	1773,54
356,62	1697,77
356,83	1673,19
357,04	1730,53
357,25	1626,09
357,46	1693,67
357,68	1617,90
357,89	1624,04
358,10	1693,67
358,31	1671,14
358,52	1726,44
358,73	1583,08
358,94	1654,76
359,15	1705,96
359,36	1779,68
359,57	1640,42
359,78	1718,25
359,99	1726,44
360,20	1665,00
360,41	1773,54
360,62	1763,30
360,83	1667,05
361,04	1740,77
361,25	1734,63
361,46	1824,74
361,67	1748,97
361,88	1708,01
362,09	1761,25
362,30	1759,21
362,51	1648,61
362,72	1724,39
362,93	1746,92
363,14	1748,97
363,35	1714,15
363,56	1665,00
363,78	1759,21
363,99	1740,77
364,20	1669,09
364,41	1697,77
364,62	1738,73
364,83	1650,66
365,04	1695,72
365,25	1740,77
365,46	1857,51
365,67	1652,71
365,88	1638,38
366,09	1681,38
366,30	1732,58
366,51	1681,38
366,72	1671,14
366,93	1748,97
367,14	1742,82
367,35	1853,41
367,56	1648,61
367,77	1751,01
367,98	1683,43
368,18	1759,21
368,39	1736,68
368,60	1665,00
368,81	1718,25
369,02	1738,73
369,23	1732,58
369,44	1650,66
369,65	1675,24
369,86	1718,25
370,07	1703,91
370,28	1595,37
370,49	1640,42
370,70	1681,38
370,91	1681,38
371,12	1660,90
371,33	1773,54
371,54	1662,95
371,75	1761,25
371,96	1560,55
372,17	1695,72
372,38	1734,63
372,59	1773,54
372,80	1708,01
373,01	1677,29
373,22	1730,53
373,43	1761,25
373,64	1599,46
373,85	1744,87
374,06	1830,88
374,26	1777,64
374,47	1667,05
374,68	1800,16
374,89	1763,30
375,10	1656,81
375,31	1726,44
375,52	1695,72
375,73	1716,20
375,94	1601,51
376,15	1789,92
376,36	1660,90
376,57	1759,21
376,78	1728,49
376,99	1718,25
377,20	1755,11
377,40	1673,19
377,61	1787,88
377,82	1540,07
378,03	1689,57
378,24	1767,40
378,45	1736,68
378,66	1708,01
378,87	1593,32
379,08	1593,32
379,29	1677,29
379,50	1820,64
379,71	1656,81
379,91	1724,39
380,12	1656,81
380,33	1681,38
380,54	1726,44
380,75	1636,33
380,96	1675,24
381,17	1718,25
381,38	1755,11
381,59	1755,11
381,80	1677,29
382,00	1800,16
382,21	1732,58
382,42	1851,36
382,63	1783,78
382,84	1769,44
383,05	1767,40
383,26	1730,53
383,47	1791,97
383,68	1710,05
383,88	1818,60
384,09	1775,59
384,30	1865,70
384,51	1748,97
384,72	1656,81
384,93	1675,24
385,14	1603,56
385,35	1730,53
385,55	1581,03
385,76	1796,07
385,97	1736,68
386,18	1634,28
386,39	1677,29
386,60	1757,16
386,81	1708,01
387,02	1665,00
387,22	1761,25
387,43	1824,74
387,64	1806,31
387,85	1839,08
388,06	2187,23
388,27	4394,94
388,48	6754,20
388,68	8404,86
388,89	9693,04
389,10	9840,49
389,31	8619,90
389,52	7702,41
389,73	6856,60
389,93	6297,50
390,14	5935,01
390,35	5261,23
390,56	4679,61
390,77	3811,27
390,98	2990,03
391,18	2570,20
391,39	2129,89
391,60	1877,99
391,81	1847,27
392,02	1712,10
392,23	1806,31
392,43	1710,05
392,64	1800,16
392,85	1738,73
393,06	1812,45
393,27	1775,59
393,47	1675,24
393,68	1720,29
393,89	1638,38
394,10	1861,60
394,31	1656,81
394,52	1685,48
394,72	1718,25
394,93	1710,05
395,14	1607,66
395,35	1683,43
395,56	1689,57
395,76	1746,92
395,97	1748,97
396,18	1783,78
396,39	1888,23
396,60	2039,78
396,80	1906,66
397,01	1869,80
397,22	1820,64
397,43	1789,92
397,64	1730,53
397,84	1751,01
398,05	1871,84
398,26	1777,64
398,47	1771,49
398,67	1806,31
398,88	1695,72
399,09	1779,68
399,30	1708,01
399,51	1722,34
399,71	1667,05
399,92	1710,05
400,13	1722,34
400,34	1720,29
400,54	1673,19
400,75	1822,69
400,96	1726,44
401,17	1716,20
401,37	1746,92
401,58	1708,01
401,79	1679,33
402,00	1806,31
402,21	2064,35
402,41	1892,32
402,62	1916,90
402,83	2025,44
403,04	1992,67
403,24	2072,54
403,45	1916,90
403,66	1923,04
403,87	1837,03
404,07	1863,65
404,28	1988,58
404,49	1904,61
404,70	1748,97
404,90	1783,78
405,11	1777,64
405,32	1796,07
405,52	1708,01
405,73	1669,09
405,94	1634,28
406,15	1699,81
406,35	1701,86
406,56	1730,53
406,77	1701,86
406,98	1736,68
407,18	1626,09
407,39	1871,84
407,60	1699,81
407,80	1781,73
408,01	1679,33
408,22	1732,58
408,43	1640,42
408,63	1744,87
408,84	1712,10
409,05	1789,92
409,25	1677,29
409,46	1667,05
409,67	1693,67
409,88	1642,47
410,08	1650,66
410,29	1660,90
410,50	1695,72
410,70	1738,73
410,91	1660,90
411,12	1701,86
411,32	1660,90
411,53	1705,96
411,74	1824,74
411,95	1818,60
412,15	1665,00
412,36	1771,49
412,57	1791,97
412,77	1771,49
412,98	1718,25
413,19	1683,43
413,39	1822,69
413,60	1775,59
413,81	1800,16
414,01	1683,43
414,22	1746,92
414,43	1755,11
414,63	1673,19
414,84	1724,39
415,05	1761,25
415,25	1646,57
415,46	1759,21
415,67	1687,53
415,87	1689,57
416,08	1718,25
416,29	1693,67
416,49	1720,29
416,70	1642,47
416,91	1646,57
417,11	1720,29
417,32	1710,05
417,53	1726,44
417,73	1718,25
417,94	1662,95
418,15	1708,01
418,35	1730,53
418,56	1705,96
418,77	1859,56
418,97	1718,25
419,18	1632,23
419,38	1581,03
419,59	1681,38
419,80	1781,73
420,00	1617,90
420,21	1595,37
420,42	1738,73
420,62	1671,14
420,83	1675,24
421,04	1732,58
421,24	1689,57
421,45	1665,00
421,65	1632,23
421,86	1675,24
422,07	1718,25
422,27	1724,39
422,48	1736,68
422,69	1605,61
422,89	1708,01
423,10	1632,23
423,30	1621,99
423,51	1697,77
423,72	1773,54
423,92	1740,77
424,13	1630,18
424,33	1734,63
424,54	1785,83
424,75	1652,71
424,95	1785,83
425,16	1691,62
425,36	1722,34
425,57	1808,36
425,78	1730,53
425,98	1751,01
426,19	1628,14
426,39	1710,05
426,60	1697,77
426,81	1816,55
427,01	1775,59
427,22	1675,24
427,42	1607,66
427,63	1675,24
427,83	1724,39
428,04	1785,83
428,25	1683,43
428,45	1734,63
428,66	1753,06
428,86	1677,29
429,07	1685,48
429,28	1691,62
429,48	1662,95
429,69	1640,42
429,89	1722,34
430,10	1570,79
430,30	1693,67
430,51	1822,69
430,71	1667,05
430,92	1755,11
431,13	1712,10
431,33	1773,54
431,54	1732,58
431,74	1800,16
431,95	1877,99
432,15	1628,14
432,36	1726,44
432,56	1759,21
432,77	1853,41
432,98	1814,50
433,18	1775,59
433,39	1697,77
433,59	1740,77
433,80	1808,36
434,00	1732,58
434,21	1705,96
434,41	1720,29
434,62	1787,88
434,82	1699,81
435,03	1615,85
435,23	1703,91
435,44	1603,56
435,64	1753,06
435,85	1789,92
436,06	1691,62
436,26	1718,25
436,47	1689,57
436,67	1648,61
436,88	1693,67
437,08	1685,48
437,29	1761,25
437,49	1734,63
437,70	1732,58
437,90	1742,82
438,11	1900,52
438,31	1806,31
438,52	1845,22
438,72	1834,98
438,93	1820,64
439,13	1705,96
439,34	1804,26
439,54	1826,79
439,75	1851,36
439,95	1843,17
440,16	1665,00
440,36	1763,30
440,57	1728,49
440,77	1691,62
440,98	1677,29
441,18	1685,48
441,39	1722,34
441,59	1689,57
441,80	1853,41
442,00	1669,09
442,21	1751,01
442,41	1681,38
442,62	1806,31
442,82	1660,90
443,02	1761,25
443,23	1761,25
443,43	1689,57
443,64	1839,08
443,84	1632,23
444,05	1923,04
444,25	1701,86
444,46	1761,25
444,66	1699,81
444,87	1855,46
445,07	1603,56
445,28	1712,10
445,48	1871,84
445,69	1816,55
445,89	1886,18
446,09	1812,45
446,30	2072,54
446,50	2709,46
446,71	3715,02
446,91	4294,59
447,12	4859,83
447,32	4872,12
447,53	4476,86
447,73	3856,33
447,93	3502,03
448,14	3252,17
448,34	3319,76
448,55	2938,84
448,75	2901,97
448,96	2654,17
449,16	2426,84
449,36	2314,20
449,57	1988,58
449,77	1869,80
449,98	1832,93
450,18	1816,55
450,39	1808,36
450,59	1738,73
450,79	1761,25
451,00	1740,77
451,20	1837,03
451,41	1675,24
451,61	1740,77
451,81	1718,25
452,02	1722,34
452,22	1761,25
452,43	1718,25
452,63	1699,81
452,84	1746,92
453,04	1658,85
453,24	1806,31
453,45	1724,39
453,65	1710,05
453,86	1701,86
454,06	1705,96
454,26	1796,07
454,47	1718,25
454,67	1800,16
454,87	1734,63
455,08	1806,31
455,28	1880,04
455,49	1730,53
455,69	1673,19
455,89	1816,55
456,10	1845,22
456,30	1720,29
456,51	1839,08
456,71	1712,10
456,91	1777,64
457,12	1720,29
457,32	1751,01
457,52	1669,09
457,73	1773,54
457,93	1789,92
458,14	1716,20
458,34	1632,23
458,54	1703,91
458,75	1763,30
458,95	1880,04
459,15	1624,04
459,36	1740,77
459,56	1767,40
459,76	1837,03
459,97	1736,68
460,17	1699,81
460,37	1767,40
460,58	1785,83
460,78	1761,25
460,99	1738,73
461,19	1701,86
461,39	1671,14
461,60	1724,39
461,80	1703,91
462,00	1669,09
462,21	1724,39
462,41	1667,05
462,61	1656,81
462,82	1654,76
463,02	1820,64
463,22	1691,62
463,43	1779,68
463,63	1753,06
463,83	1877,99
464,04	1738,73
464,24	1675,24
464,44	1755,11
464,64	1742,82
464,85	1855,46
465,05	1751,01
465,25	1697,77
465,46	1771,49
465,66	1783,78
465,86	1812,45
466,07	1701,86
466,27	1734,63
466,47	1632,23
466,68	1638,38
466,88	1804,26
467,08	1753,06
467,29	1834,98
467,49	1755,11
467,69	1677,29
467,89	1708,01
468,10	1689,57
468,30	1763,30
468,50	1742,82
468,71	1716,20
468,91	1640,42
469,11	1822,69
469,31	1720,29
469,52	1673,19
469,72	1886,18
469,92	1853,41
470,13	1748,97
470,33	1687,53
470,53	1871,84
470,73	2082,78
470,94	2258,91
471,14	2394,08
471,34	2527,19
471,54	2435,03
471,75	2172,89
471,95	2119,65
472,15	2123,74
472,36	2121,70
472,56	2140,13
472,76	2013,15
472,96	1976,29
473,17	1959,91
473,37	1941,47
473,57	1732,58
473,77	1871,84
473,98	1837,03
474,18	1646,57
474,38	1884,13
474,58	1660,90
474,79	1736,68
474,99	1740,77
475,19	1855,46
475,39	1611,75
475,60	1763,30
475,80	1769,44
476,00	1744,87
476,20	1732,58
476,41	1765,35
476,61	1794,02
476,81	1810,40
477,01	1687,53
477,21	1804,26
477,42	1791,97
477,62	1671,14
477,82	1837,03
478,02	1705,96
478,23	1718,25
478,43	1722,34
478,63	1675,24
478,83	1708,01
479,03	1683,43
479,24	1857,51
479,44	1853,41
479,64	1632,23
479,84	1587,18
480,04	1677,29
480,25	1703,91
480,45	1697,77
480,65	1697,77
480,85	1814,50
481,06	1673,19
481,26	1701,86
481,46	1767,40
481,66	1744,87
481,86	1708,01
482,06	1765,35
482,27	1814,50
482,47	1748,97
482,67	1748,97
482,87	1724,39
483,07	1890,28
483,28	1691,62
483,48	1652,71
483,68	1755,11
483,88	1640,42
484,08	1634,28
484,29	1683,43
484,49	1726,44
484,69	1656,81
484,89	1712,10
485,09	1773,54
485,29	1726,44
485,50	1779,68
485,70	1689,57
485,90	1748,97
486,10	1748,97
486,30	1738,73
486,50	1740,77
486,71	1724,39
486,91	1812,45
487,11	1679,33
487,31	1607,66
487,51	1755,11
487,71	1652,71
487,91	1656,81
488,12	1617,90
488,32	1509,35
488,52	1669,09
488,72	1673,19
488,92	1761,25
489,12	1828,84
489,32	1818,60
489,53	1730,53
489,73	1607,66
489,93	1865,70
490,13	1697,77
490,33	1624,04
490,53	1757,16
490,73	1814,50
490,94	1634,28
491,14	1783,78
491,34	1818,60
491,54	2162,66
491,74	2633,69
491,94	2813,91
492,14	3000,27
492,34	3055,57
492,54	2738,13
492,75	2537,43
492,95	2398,17
493,15	2342,88
493,35	2377,69
493,55	2230,24
493,75	2129,89
493,95	2181,09
494,15	1953,76
494,35	1943,52
494,56	1818,60
494,76	1753,06
494,96	1822,69
495,16	1763,30
495,36	1712,10
495,56	1785,83
495,76	1791,97
495,96	1689,57
496,16	1703,91
496,36	1783,78
496,56	1759,21
496,77	1718,25
496,97	1712,10
497,17	1744,87
497,37	1675,24
497,57	1789,92
497,77	1742,82
497,97	1671,14
498,17	1716,20
498,37	1759,21
498,57	1732,58
498,77	1656,81
498,97	1734,63
499,17	1814,50
499,38	1693,67
499,58	1728,49
499,78	1787,88
499,98	1767,40
500,18	1724,39
500,38	1708,01
500,58	1841,12
500,78	2484,19
500,98	4569,02
501,18	5949,35
501,38	6899,61
501,58	7292,82
501,78	6805,40
501,98	5568,43
502,18	5023,67
502,38	4474,81
502,58	4128,70
502,78	3864,52
502,98	3579,85
503,18	3323,85
503,38	3174,35
503,59	2736,09
503,79	2738,13
503,99	2514,91
504,19	2260,96
504,39	2224,09
504,59	2109,41
504,79	2189,28
504,99	2103,26
505,19	1855,46
505,39	1884,13
505,59	1853,41
505,79	1875,94
505,99	1845,22
506,19	1789,92
506,39	1828,84
506,59	1787,88
506,79	1785,83
506,99	1720,29
507,19	1748,97
507,39	1708,01
507,59	1755,11
507,79	1679,33
507,99	1662,95
508,19	1773,54
508,39	1656,81
508,59	1652,71
508,79	1839,08
508,99	1800,16
509,19	1769,44
509,39	1732,58
509,59	1699,81
509,79	1624,04
509,99	1773,54
510,19	1798,12
510,39	1771,49
510,59	1718,25
510,79	1699,81
510,99	1669,09
511,19	1705,96
511,39	1798,12
511,59	1822,69
511,79	1804,26
511,99	1839,08
512,19	1834,98
512,38	1800,16
512,58	1667,05
512,78	1712,10
512,98	1804,26
513,18	1855,46
513,38	1677,29
513,58	1759,21
513,78	1742,82
513,98	1699,81
514,18	1742,82
514,38	1734,63
514,58	1722,34
514,78	1695,72
514,98	1632,23
515,18	1722,34
515,38	1665,00
515,58	1771,49
515,78	1738,73
515,98	1689,57
516,18	1787,88
516,38	1767,40
516,57	1691,62
516,77	1640,42
516,97	1753,06
517,17	1673,19
517,37	1699,81
517,57	1732,58
517,77	1673,19
517,97	1679,33
518,17	1828,84
518,37	1679,33
518,57	1673,19
518,77	1681,38
518,97	1755,11
519,16	1701,86
519,36	1824,74
519,56	1611,75
519,76	1683,43
519,96	1734,63
520,16	1849,32
520,36	1691,62
520,56	1734,63
520,76	1615,85
520,96	1761,25
521,16	1789,92
521,35	1751,01
521,55	1773,54
521,75	1757,16
521,95	1687,53
522,15	1734,63
522,35	1646,57
522,55	1675,24
522,75	1759,21
522,95	1695,72
523,14	1656,81
523,34	1759,21
523,54	1679,33
523,74	1771,49
523,94	1730,53
524,14	1683,43
524,34	1781,73
524,54	1818,60
524,73	1763,30
524,93	1726,44
525,13	1783,78
525,33	1638,38
525,53	1806,31
525,73	1775,59
525,93	1761,25
526,13	1652,71
526,32	1687,53
526,52	1789,92
526,72	1808,36
526,92	1722,34
527,12	1796,07
527,32	1667,05
527,52	1748,97
527,71	1769,44
527,91	1683,43
528,11	1693,67
528,31	1746,92
528,51	1652,71
528,71	1748,97
528,90	1779,68
529,10	1869,80
529,30	1740,77
529,50	1550,31
529,70	1894,37
529,90	1716,20
530,09	1716,20
530,29	1609,70
530,49	1771,49
530,69	1896,42
530,89	1722,34
531,09	1849,32
531,28	1599,46
531,48	1775,59
531,68	1691,62
531,88	1783,78
532,08	1724,39
532,28	1736,68
532,47	1755,11
532,67	1812,45
532,87	1761,25
533,07	1703,91
533,27	1779,68
533,46	1761,25
533,66	1744,87
533,86	1773,54
534,06	1679,33
534,26	1738,73
534,45	1685,48
534,65	1761,25
534,85	1765,35
535,05	1720,29
535,25	1798,12
535,44	1746,92
535,64	1734,63
535,84	1703,91
536,04	1742,82
536,24	1742,82
536,43	1738,73
536,63	1812,45
536,83	1712,10
537,03	1691,62
537,22	1671,14
537,42	1665,00
537,62	1660,90
537,82	1675,24
538,02	1814,50
538,21	1849,32
538,41	2009,06
538,61	1828,84
538,81	1722,34
539,00	1802,21
539,20	1667,05
539,40	1656,81
539,60	1781,73
539,79	1806,31
539,99	1665,00
540,19	1773,54
540,39	1746,92
540,58	1783,78
540,78	1771,49
540,98	1726,44
541,18	1705,96
541,37	1826,79
541,57	1714,15
541,77	1816,55
541,97	1640,42
542,16	1712,10
542,36	1724,39
542,56	1716,20
542,76	1837,03
542,95	1822,69
543,15	1751,01
543,35	1898,47
543,54	1720,29
543,74	1716,20
543,94	1826,79
544,14	1732,58
544,33	1710,05
544,53	1779,68
544,73	1714,15
544,93	1681,38
545,12	1697,77
545,32	1779,68
545,52	1755,11
545,71	1648,61
545,91	1730,53
546,11	1656,81
546,30	1826,79
546,50	1722,34
546,70	1785,83
546,90	1765,35
547,09	1669,09
547,29	1675,24
547,49	1806,31
547,68	1742,82
547,88	1763,30
548,08	1720,29
548,27	2150,37
548,47	1679,33
548,67	1751,01
548,87	1683,43
549,06	1714,15
549,26	1871,84
549,46	1783,78
549,65	1705,96
549,85	1740,77
550,05	1724,39
550,24	1742,82
550,44	1738,73
550,64	1748,97
550,83	1730,53
551,03	1771,49
551,23	1755,11
551,42	1814,50
551,62	1734,63
551,82	1800,16
552,01	1689,57
552,21	1843,17
552,41	1765,35
552,60	1800,16
552,80	1716,20
553,00	1710,05
553,19	1798,12
553,39	1787,88
553,59	1722,34
553,78	1748,97
553,98	1718,25
554,17	1677,29
554,37	1771,49
554,57	1730,53
554,76	1736,68
554,96	1722,34
555,16	1740,77
555,35	1738,73
555,55	1798,12
555,75	1779,68
555,94	1724,39
556,14	1654,76
556,33	1734,63
556,53	1724,39
556,73	1767,40
556,92	1755,11
557,12	1822,69
557,32	1865,70
557,51	1681,38
557,71	1675,24
557,90	1861,60
558,10	1818,60
558,30	1689,57
558,49	1736,68
558,69	1720,29
558,88	1767,40
559,08	1767,40
559,28	1689,57
559,47	1718,25
559,67	1730,53
559,86	1787,88
560,06	1683,43
560,26	1646,57
560,45	1808,36
560,65	1703,91
560,84	1767,40
561,04	1712,10
561,24	1765,35
561,43	1677,29
561,63	1824,74
561,82	1818,60
562,02	1673,19
562,22	1679,33
562,41	1689,57
562,61	1658,85
562,80	1722,34
563,00	1935,33
563,19	1810,40
563,39	1705,96
563,59	1779,68
563,78	1665,00
563,98	1660,90
564,17	1728,49
564,37	1679,33
564,56	1687,53
564,76	1697,77
564,96	1845,22
565,15	1777,64
565,35	1912,80
565,54	1669,09
565,74	1812,45
565,93	1748,97
566,13	1794,02
566,32	1775,59
566,52	1787,88
566,71	1773,54
566,91	1755,11
567,11	1783,78
567,30	1662,95
567,50	1779,68
567,69	1699,81
567,89	1708,01
568,08	1617,90
568,28	1818,60
568,47	1634,28
568,67	1759,21
568,86	1705,96
569,06	1798,12
569,25	1755,11
569,45	1665,00
569,64	1689,57
569,84	1693,67
570,04	1814,50
570,23	1748,97
570,43	1740,77
570,62	1740,77
570,82	1820,64
571,01	1658,85
571,21	1779,68
571,40	1716,20
571,60	1669,09
571,79	1736,68
571,99	1736,68
572,18	1724,39
572,38	1783,78
572,57	1636,33
572,77	1685,48
572,96	1894,37
573,16	1730,53
573,35	1699,81
573,55	1851,36
573,74	1834,98
573,94	1685,48
574,13	1685,48
574,33	1785,83
574,52	1843,17
574,71	1714,15
574,91	1779,68
575,10	1677,29
575,30	1785,83
575,49	1660,90
575,69	1652,71
575,88	1748,97
576,08	1798,12
576,27	1751,01
576,47	1689,57
576,66	1814,50
576,86	1757,16
577,05	1769,44
577,25	1755,11
577,44	1861,60
577,64	1789,92
577,83	1783,78
578,02	1699,81
578,22	1818,60
578,41	1806,31
578,61	1722,34
578,80	1683,43
579,00	1703,91
579,19	1705,96
579,39	1691,62
579,58	1884,13
579,77	1701,86
579,97	1843,17
580,16	1837,03
580,36	1810,40
580,55	1820,64
580,75	1765,35
580,94	1773,54
581,13	1925,09
581,33	1947,62
581,52	1703,91
581,72	1871,84
581,91	1804,26
582,11	1732,58
582,30	1814,50
582,49	1726,44
582,69	1765,35
582,88	1816,55
583,08	1744,87
583,27	1761,25
583,47	1755,11
583,66	1771,49
583,85	1746,92
584,05	1740,77
584,24	1687,53
584,44	1726,44
584,63	1849,32
584,82	1773,54
585,02	1882,08
585,21	1832,93
585,41	1841,12
585,60	1785,83
585,79	1892,32
585,99	1849,32
586,18	1830,88
586,37	2133,98
586,57	3536,84
586,76	9848,68
586,96	24868,48
587,15	35274,21
587,34	41053,58
587,54	42820,98
587,73	37424,58
587,93	26902,12
588,12	21687,99
588,31	18411,24
588,51	16617,22
588,70	15267,61
588,89	14370,60
589,09	12904,25
589,28	11179,86
589,47	9666,41
589,67	7968,65
589,86	6655,90
590,06	4960,18
590,25	4110,27
590,44	3176,40
590,64	2621,40
590,83	2263,01
591,02	2164,70
591,22	1902,56
591,41	1867,75
591,60	1871,84
591,80	1949,67
591,99	1830,88
592,18	1820,64
592,38	1761,25
592,57	1701,86
592,76	1837,03
592,96	1853,41
593,15	1703,91
593,34	1845,22
593,54	1714,15
593,73	1751,01
593,92	1732,58
594,12	1691,62
594,31	1773,54
594,50	1843,17
594,70	1767,40
594,89	1806,31
595,08	1656,81
595,28	1804,26
595,47	1986,53
595,66	1810,40
595,86	1687,53
596,05	1732,58
596,24	1646,57
596,43	1775,59
596,63	1845,22
596,82	1820,64
597,01	1738,73
597,21	1877,99
597,40	1802,21
597,59	1746,92
597,79	1748,97
597,98	1791,97
598,17	1753,06
598,36	1722,34
598,56	1726,44
598,75	1718,25
598,94	1734,63
599,14	1740,77
599,33	1785,83
599,52	1689,57
599,71	1742,82
599,91	1814,50
600,10	1751,01
600,29	1695,72
600,48	1806,31
600,68	1730,53
600,87	1724,39
601,06	1726,44
601,26	1730,53
601,45	1816,55
601,64	1753,06
601,83	1812,45
602,03	1699,81
602,22	1656,81
602,41	1769,44
602,60	1828,84
602,80	1789,92
602,99	1763,30
603,18	1722,34
603,37	1738,73
603,57	1732,58
603,76	1830,88
603,95	1791,97
604,14	1763,30
604,34	1667,05
604,53	1701,86
604,72	1712,10
604,91	1779,68
605,10	1720,29
605,30	1669,09
605,49	1898,47
605,68	1837,03
605,87	1714,15
606,07	1640,42
606,26	1730,53
606,45	1781,73
606,64	1712,10
606,84	1730,53
607,03	1712,10
607,22	1748,97
607,41	1710,05
607,60	1660,90
607,80	1796,07
607,99	1681,38
608,18	1748,97
608,37	1781,73
608,56	1695,72
608,76	1716,20
608,95	1834,98
609,14	1740,77
609,33	1779,68
609,52	1787,88
609,72	1701,86
609,91	1789,92
610,10	1669,09
610,29	1796,07
610,48	1800,16
610,68	1738,73
610,87	1669,09
611,06	1732,58
611,25	1708,01
611,44	1806,31
611,63	1691,62
611,83	1843,17
612,02	1642,47
612,21	1810,40
612,40	1638,38
612,59	1712,10
612,79	1619,94
612,98	1853,41
613,17	1796,07
613,36	1726,44
613,55	1796,07
613,74	1691,62
613,93	1716,20
614,13	1755,11
614,32	1732,58
614,51	1695,72
614,70	1748,97
614,89	1681,38
615,08	1798,12
615,28	2064,35
615,47	1689,57
615,66	1724,39
615,85	1714,15
616,04	1796,07
616,23	1753,06
616,42	1669,09
616,62	1662,95
616,81	1724,39
617,00	1720,29
617,19	1781,73
617,38	1724,39
617,57	1671,14
617,76	1824,74
617,95	1757,16
618,15	1767,40
618,34	1748,97
618,53	1617,90
618,72	1806,31
618,91	1734,63
619,10	1804,26
619,29	1703,91
619,48	1724,39
619,68	1673,19
619,87	1699,81
620,06	1689,57
620,25	1759,21
620,44	1742,82
620,63	1724,39
620,82	1724,39
621,01	1757,16
621,20	1751,01
621,39	1689,57
621,59	1730,53
621,78	1665,00
621,97	1638,38
622,16	1800,16
622,35	1843,17
622,54	1755,11
622,73	1757,16
622,92	1591,27
623,11	1732,58
623,30	1697,77
623,49	1777,64
623,68	1636,33
623,88	1705,96
624,07	1667,05
624,26	1685,48
624,45	1718,25
624,64	1677,29
624,83	1740,77
625,02	1697,77
625,21	1736,68
625,40	1746,92
625,59	1845,22
625,78	1763,30
625,97	1779,68
626,16	1818,60
626,35	1761,25
626,54	1673,19
626,74	1791,97
626,93	1781,73
627,12	1681,38
627,31	1722,34
627,50	1787,88
627,69	1710,05
627,88	1714,15
628,07	1724,39
628,26	1712,10
628,45	1650,66
628,64	1611,75
628,83	1697,77
629,02	1646,57
629,21	1751,01
629,40	1773,54
629,59	1578,98
629,78	1677,29
629,97	1691,62
630,16	1718,25
630,35	1728,49
630,54	1677,29
630,73	1583,08
630,92	1701,86
631,11	1660,90
631,30	1722,34
631,49	1734,63
631,68	1753,06
631,87	1736,68
632,06	1632,23
632,25	1877,99
632,44	1726,44
632,63	1744,87
632,82	1683,43
633,01	1712,10
633,20	1681,38
633,39	1570,79
633,58	1683,43
633,77	1785,83
633,96	1742,82
634,15	1824,74
634,34	1667,05
634,53	1673,19
634,72	1730,53
634,91	1640,42
635,10	1763,30
635,29	1798,12
635,48	1742,82
635,67	1667,05
635,86	1662,95
636,05	1857,51
636,24	1693,67
636,43	1693,67
636,62	1744,87
636,81	1650,66
637,00	1736,68
637,19	1812,45
637,38	1720,29
637,57	1730,53
637,76	1730,53
637,95	1783,78
638,14	1656,81
638,33	1722,34
638,52	1738,73
638,71	1642,47
638,89	1642,47
639,08	1857,51
639,27	1751,01
639,46	1665,00
639,65	1812,45
639,84	1757,16
640,03	1773,54
640,22	1626,09
640,41	1787,88
640,60	1673,19
640,79	1791,97
640,98	1710,05
641,17	1787,88
641,36	1640,42
641,55	1693,67
641,74	1712,10
641,92	1656,81
642,11	1642,47
642,30	1658,85
642,49	1716,20
642,68	1652,71
642,87	1773,54
643,06	1769,44
643,25	1726,44
643,44	1726,44
643,63	1677,29
643,82	1748,97
644,00	1687,53
644,19	1708,01
644,38	1644,52
644,57	1722,34
644,76	1689,57
644,95	1718,25
645,14	1695,72
645,33	1677,29
645,52	1818,60
645,71	1583,08
645,89	1714,15
646,08	1718,25
646,27	1669,09
646,46	1828,84
646,65	1667,05
646,84	1763,30
647,03	1669,09
647,22	1736,68
647,40	1705,96
647,59	1703,91
647,78	1701,86
647,97	1640,42
648,16	1632,23
648,35	1824,74
648,54	1857,51
648,73	1730,53
648,91	1804,26
649,10	1714,15
649,29	1740,77
649,48	1751,01
649,67	1714,15
649,86	1652,71
650,05	1687,53
650,23	1652,71
650,42	1652,71
650,61	1726,44
650,80	1820,64
650,99	1861,60
651,18	1796,07
651,36	1818,60
651,55	1722,34
651,74	1791,97
651,93	1687,53
652,12	1800,16
652,31	1710,05
652,49	1705,96
652,68	1763,30
652,87	1820,64
653,06	1626,09
653,25	1789,92
653,44	1669,09
653,62	1820,64
653,81	1652,71
654,00	1720,29
654,19	1724,39
654,38	1996,77
654,56	1738,73
654,75	1652,71
654,94	1763,30
655,13	1732,58
655,32	1724,39
655,51	1771,49
655,69	1613,80
655,88	1744,87
656,07	1656,81
656,26	1761,25
656,45	1665,00
656,63	1634,28
656,82	1705,96
657,01	1806,31
657,20	1656,81
657,38	1761,25
657,57	1701,86
657,76	1619,94
657,95	1787,88
658,14	1656,81
658,32	1667,05
658,51	1730,53
658,70	1804,26
658,89	1693,67
659,08	1726,44
659,26	1710,05
659,45	1703,91
659,64	1775,59
659,83	1644,52
660,01	1812,45
660,20	1695,72
660,39	1843,17
660,58	1646,57
660,76	1705,96
660,95	1646,57
661,14	1746,92
661,33	1736,68
661,51	1669,09
661,70	1744,87
661,89	1736,68
662,08	1699,81
662,26	1646,57
662,45	1689,57
662,64	1796,07
662,83	1730,53
663,01	1722,34
663,20	1656,81
663,39	1814,50
663,58	1683,43
663,76	1730,53
663,95	1757,16
664,14	1665,00
664,32	1703,91
664,51	1767,40
664,70	1658,85
664,89	1787,88
665,07	1628,14
665,26	1802,21
665,45	1662,95
665,64	1789,92
665,82	1718,25
666,01	1798,12
666,20	1669,09
666,38	1824,74
666,57	1783,78
666,76	2211,81
666,95	4429,76
667,13	10487,65
667,32	15447,83
667,51	18163,43
667,69	19226,33
667,88	17886,96
668,07	12595,01
668,25	9840,49
668,44	8071,04
668,63	7425,93
668,81	6870,94
669,00	6305,70
669,19	5789,61
669,38	5171,12
669,56	4609,98
669,75	4097,99
669,94	3444,68
670,12	2983,89
670,31	2465,75
670,50	2242,53
670,68	2050,02
670,87	1906,66
671,06	1755,11
671,24	1841,12
671,43	1824,74
671,62	1781,73
671,80	1730,53
671,99	1775,59
672,18	1744,87
672,36	1761,25
672,55	1802,21
672,74	1665,00
672,92	1810,40
673,11	1767,40
673,29	1597,42
673,48	1773,54
673,67	1671,14
673,85	1812,45
674,04	1695,72
674,23	1732,58
674,41	1865,70
674,60	1660,90
674,79	1667,05
674,97	1648,61
675,16	1769,44
675,34	1763,30
675,53	1708,01
675,72	1699,81
675,90	1785,83
676,09	1689,57
676,28	1708,01
676,46	1718,25
676,65	1734,63
676,83	1681,38
677,02	1658,85
677,21	1658,85
677,39	1714,15
677,58	1589,22
677,77	1665,00
677,95	1679,33
678,14	1724,39
678,32	1724,39
678,51	1683,43
678,70	1759,21
678,88	1716,20
679,07	1740,77
679,25	1703,91
679,44	1642,47
679,63	1587,18
679,81	1714,15
680,00	1748,97
680,18	1732,58
680,37	1837,03
680,55	1722,34
680,74	1617,90
680,93	1605,61
681,11	1669,09
681,30	1642,47
681,48	1712,10
681,67	1748,97
681,85	1724,39
682,04	1740,77
682,23	1763,30
682,41	1728,49
682,60	1685,48
682,78	1716,20
682,97	1681,38
683,15	1716,20
683,34	1818,60
683,53	1802,21
683,71	1703,91
683,90	1753,06
684,08	1796,07
684,27	1671,14
684,45	1693,67
684,64	1734,63
684,82	1697,77
685,01	1662,95
685,19	1697,77
685,38	1822,69
685,57	1740,77
685,75	1712,10
685,94	1718,25
686,12	1683,43
686,31	1679,33
686,49	1769,44
686,68	1636,33
686,86	1681,38
687,05	1705,96
687,23	1837,03
687,42	1652,71
687,60	1611,75
687,79	1738,73
687,97	1789,92
688,16	1794,02
688,34	1804,26
688,53	1621,99
688,71	1632,23
688,90	1767,40
689,08	1757,16
689,27	1650,66
689,45	1740,77
689,64	1705,96
689,82	1732,58
690,01	1775,59
690,19	1734,63
690,38	1730,53
690,56	1712,10
690,75	1693,67
690,93	1648,61
691,12	1669,09
691,30	1679,33
691,49	1599,46
691,67	1687,53
691,86	1755,11
692,04	1730,53
692,23	1701,86
692,41	1638,38
692,60	1804,26
692,78	1742,82
692,97	1615,85
693,15	1681,38
693,34	1789,92
693,52	1822,69
693,71	1724,39
693,89	1619,94
694,08	1667,05
694,26	1751,01
694,44	1746,92
694,63	1714,15
694,81	1593,32
695,00	1673,19
695,18	1695,72
695,37	1863,65
695,55	1798,12
695,74	1611,75
695,92	1701,86
696,10	1806,31
696,29	1640,42
696,47	1716,20
696,66	1640,42
696,84	1708,01
697,03	1583,08
697,21	1796,07
697,40	2250,72
697,58	1859,56
697,76	1708,01
697,95	1609,70
698,13	1603,56
698,32	1701,86
698,50	1652,71
698,68	1705,96
698,87	1683,43
699,05	1828,84
699,24	1740,77
699,42	1712,10
699,61	1705,96
699,79	1716,20
699,97	1730,53
700,16	1675,24
700,34	1699,81
700,53	1804,26
700,71	1814,50
700,89	1728,49
701,08	1701,86
701,26	1687,53
701,45	2111,46
701,63	1665,00
701,81	1656,81
702,00	1626,09
702,18	1693,67
702,37	1658,85
702,55	1820,64
702,73	1677,29
702,92	1611,75
703,10	1755,11
703,28	1769,44
703,47	1654,76
703,65	1755,11
703,84	1796,07
704,02	1708,01
704,20	1820,64
704,39	1687,53
704,57	1755,11
704,75	1818,60
704,94	1761,25
705,12	1683,43
705,30	1789,92
705,49	2232,29
705,67	4523,96
705,86	9506,67
706,04	12767,04
706,22	14757,66
706,41	15591,19
706,59	14044,97
706,77	9973,61
706,96	7446,41
707,14	6696,86
707,32	6057,89
707,51	5605,29
707,69	4820,92
707,87	4192,19
708,06	3557,32
708,24	2979,79
708,42	2463,71
708,61	2238,43
708,79	1894,37
708,97	1910,75
709,16	1796,07
709,34	1738,73
709,52	1791,97
709,71	1714,15
709,89	1775,59
710,07	1701,86
710,26	1662,95
710,44	1658,85
710,62	1767,40
710,80	1761,25
710,99	1816,55
711,17	1781,73
711,35	1677,29
711,54	1615,85
711,72	1748,97
711,90	1701,86
712,09	1660,90
712,27	1611,75
712,45	1769,44
712,63	1705,96
712,82	1728,49
713,00	1669,09
713,18	1705,96
713,37	1716,20
713,55	1765,35
713,73	1746,92
713,91	1726,44
714,10	1763,30
714,28	1699,81
714,46	1753,06
714,65	1720,29
714,83	1765,35
715,01	1773,54
715,19	1687,53
715,38	1646,57
715,56	1738,73
715,74	1665,00
715,92	1654,76
716,11	1753,06
716,29	1611,75
716,47	1669,09
716,65	1667,05
716,84	1638,38
717,02	1714,15
717,20	1585,13
717,38	1726,44
717,57	1730,53
717,75	1716,20
717,93	1669,09
718,11	1683,43
718,30	1679,33
718,48	1800,16
718,66	1726,44
718,84	1705,96
719,03	1673,19
719,21	1615,85
719,39	1751,01
719,57	1701,86
719,75	1748,97
719,94	1691,62
720,12	1705,96
720,30	1757,16
720,48	1808,36
720,67	1728,49
720,85	1726,44
721,03	1689,57
721,21	1662,95
721,39	1753,06
721,58	1701,86
721,76	1665,00
721,94	1685,48
722,12	1701,86
722,30	1734,63
722,49	1658,85
722,67	1628,14
722,85	1695,72
723,03	1658,85
723,21	1714,15
723,40	1716,20
723,58	1742,82
723,76	1763,30
723,94	1683,43
724,12	1720,29
724,30	1716,20
724,49	1759,21
724,67	1665,00
724,85	1726,44
725,03	1615,85
725,21	1720,29
725,40	1693,67
725,58	1632,23
725,76	1789,92
725,94	1697,77
726,12	1636,33
726,30	1753,06
726,49	1699,81
726,67	1683,43
726,85	1691,62
727,03	1746,92
727,21	2183,13
727,39	2850,77
727,57	3942,34
727,76	4224,96
727,94	4515,77
728,12	4458,43
728,30	3727,30
728,48	2957,27
728,66	2811,86
728,84	2566,10
729,03	2369,50
729,21	2093,02
729,39	1978,34
729,57	1851,36
729,75	1761,25
729,93	1820,64
730,11	1732,58
730,30	1718,25
730,48	1675,24
730,66	1769,44
730,84	1818,60
731,02	1742,82
731,20	1697,77
731,38	1621,99
731,56	1722,34
731,74	1671,14
731,93	1695,72
732,11	1671,14
732,29	1644,52
732,47	1757,16
732,65	1708,01
732,83	1742,82
733,01	1697,77
733,19	1740,77
733,37	1732,58
733,56	1703,91
733,74	1730,53
733,92	1781,73
734,10	1755,11
734,28	1685,48
734,46	1574,89
734,64	1701,86
734,82	1652,71
735,00	1687,53
735,18	1730,53
735,36	1708,01
735,54	1697,77
735,73	1679,33
735,91	1718,25
736,09	1812,45
736,27	1718,25
736,45	1732,58
736,63	1638,38
736,81	1652,71
736,99	1724,39
737,17	1720,29
737,35	1765,35
737,53	1775,59
737,71	1726,44
737,89	1742,82
738,07	1681,38
738,25	1615,85
738,43	1646,57
738,61	1695,72
738,80	1695,72
738,98	1646,57
739,16	1701,86
739,34	1654,76
739,52	1796,07
739,70	1701,86
739,88	1714,15
740,06	1748,97
740,24	1642,47
740,42	1767,40
740,60	1593,32
740,78	1701,86
740,96	1632,23
741,14	1740,77
741,32	1722,34
741,50	1665,00
741,68	1816,55
741,86	1791,97
742,04	1646,57
742,22	1712,10
742,40	1751,01
742,58	1746,92
742,76	1691,62
742,94	1738,73
743,12	1697,77
743,30	1679,33
743,48	1757,16
743,66	1660,90
743,84	1714,15
744,02	1679,33
744,20	1744,87
744,38	1701,86
744,56	1673,19
744,74	1759,21
744,92	1650,66
745,10	1748,97
745,28	1751,01
745,46	1806,31
745,64	1601,51
745,82	1763,30
746,00	1710,05
746,18	1660,90
746,36	1632,23
746,54	1728,49
746,72	1675,24
746,90	1605,61
747,08	1812,45
747,26	1736,68
747,44	1781,73
747,62	1751,01
747,80	1744,87
747,98	1818,60
748,15	1695,72
748,33	1779,68
748,51	1583,08
748,69	1705,96
748,87	1728,49
749,05	1685,48
749,23	1660,90
749,41	1763,30
749,59	1720,29
749,77	1716,20
749,95	1677,29
750,13	1687,53
750,31	1781,73
750,49	1681,38
750,67	1753,06
750,85	1845,22
751,03	1722,34
751,20	1822,69
751,38	1724,39
751,56	1708,01
751,74	1681,38
751,92	1710,05
752,10	1621,99
752,28	1728,49
752,46	1736,68
752,64	1744,87
752,82	1628,14
753,00	1722,34
753,18	1632,23
753,35	1691,62
753,53	1759,21
753,71	1654,76
753,89	1814,50
754,07	1724,39
754,25	1763,30
754,43	1744,87
754,61	1615,85
754,79	1746,92
754,97	1644,52
755,14	1695,72
755,32	1658,85
755,50	1685,48
755,68	1791,97
755,86	1660,90
756,04	1599,46
756,22	1638,38
756,40	1746,92
756,57	1841,12
756,75	1681,38
756,93	1693,67
757,11	1820,64
757,29	1630,18
757,47	1644,52
757,65	1660,90
757,82	1619,94
758,00	1632,23
758,18	1644,52
758,36	1683,43
758,54	1755,11
758,72	1648,61
758,90	1751,01
759,07	1726,44
759,25	1587,18
759,43	1679,33
759,61	1689,57
759,79	2193,37
759,97	1693,67
760,15	1662,95
760,32	1724,39
760,50	1646,57
760,68	1742,82
760,86	1617,90
761,04	1763,30
761,22	1728,49
761,39	1710,05
761,57	1771,49
761,75	1726,44
761,93	1701,86
762,11	1746,92
762,28	1689,57
762,46	1611,75
762,64	1730,53
762,82	1681,38
763,00	1572,84
763,18	1816,55
763,35	1701,86
763,53	1796,07
763,71	1716,20
763,89	1665,00
764,07	1724,39
764,24	1720,29
764,42	1695,72
764,60	1673,19
764,78	1646,57
764,96	1697,77
765,13	1722,34
765,31	1701,86
765,49	1812,45
765,67	1615,85
765,84	1654,76
766,02	1669,09
766,20	1634,28
766,38	1724,39
766,56	1716,20
766,73	1736,68
766,91	1751,01
767,09	1798,12
767,27	1740,77
767,44	1642,47
767,62	1689,57
767,80	1804,26
767,98	1714,15
768,15	1658,85
768,33	1728,49
768,51	1746,92
768,69	1734,63
768,87	1804,26
769,04	1665,00
769,22	1837,03
769,40	1773,54
769,58	1849,32
769,75	1675,24
769,93	1734,63
770,11	1738,73
770,28	1634,28
770,46	1755,11
770,64	1642,47
770,82	1609,70
770,99	1615,85
771,17	1748,97
771,35	1673,19
771,53	1701,86
771,70	1638,38
771,88	1775,59
772,06	1679,33
772,23	1736,68
772,41	1789,92
772,59	1736,68
772,77	1673,19
772,94	1720,29
773,12	1734,63
773,30	1613,80
773,47	1705,96
773,65	1642,47
773,83	1773,54
774,01	1691,62
774,18	1550,31
774,36	1726,44
774,54	1591,27
774,71	1679,33
774,89	1634,28
775,07	1603,56
775,24	1644,52
775,42	1587,18
775,60	1851,36
775,78	1615,85
775,95	1685,48
776,13	1644,52
776,31	1554,41
776,48	1693,67
776,66	1759,21
776,84	1673,19
777,01	1714,15
777,19	1587,18
777,37	1712,10
777,54	1660,90
777,72	1761,25
777,90	1722,34
778,07	1632,23
778,25	1886,18
778,43	1714,15
778,60	1654,76
778,78	1761,25
778,96	1828,84
779,13	1714,15
779,31	1767,40
779,49	1632,23
779,66	1654,76
779,84	1660,90
780,01	1712,10
780,19	1611,75
780,37	1804,26
780,54	1738,73
780,72	1638,38
780,90	1691,62
781,07	1710,05
781,25	1619,94
781,43	1787,88
781,60	1687,53
781,78	1763,30
781,95	1716,20
782,13	1615,85
782,31	1701,86
782,48	1644,52
782,66	1828,84
782,83	1818,60
783,01	1701,86
783,19	1724,39
783,36	1660,90
783,54	1636,33
783,72	1677,29
783,89	1685,48
784,07	1667,05
784,24	1734,63
784,42	1748,97
784,60	1724,39
784,77	1728,49
784,95	1523,69
785,12	1681,38
785,30	1701,86
785,47	1667,05
785,65	1648,61
785,83	1722,34
786,00	1656,81
786,18	1648,61
786,35	1644,52
786,53	1685,48
786,71	1732,58
786,88	1697,77
787,06	1705,96
787,23	1695,72
787,41	1681,38
787,58	1726,44
787,76	1628,14
787,94	1693,67
788,11	1624,04
788,29	1634,28
788,46	1705,96
788,64	1646,57
788,81	1650,66
788,99	1601,51
789,16	1650,66
789,34	1689,57
789,52	1742,82
789,69	1722,34
789,87	1634,28
790,04	1718,25
790,22	1603,56
790,39	1783,78
790,57	1660,90
790,74	1638,38
790,92	1763,30
791,09	1640,42
791,27	1685,48
791,44	1826,79
791,62	1746,92
791,79	1658,85
791,97	1689,57
792,15	1908,71
792,32	1742,82
792,50	1720,29
792,67	1787,88
792,85	1751,01
793,02	1687,53
793,20	1626,09
793,37	1613,80
793,55	1644,52
793,72	1665,00
793,90	1738,73
794,07	1654,76
794,25	1665,00
794,42	1685,48
794,60	1628,14
794,77	1748,97
794,95	1718,25
795,12	1656,81
795,30	1708,01
795,47	1560,55
795,65	1882,08
795,82	1724,39
796,00	1677,29
796,17	1748,97
796,34	1710,05
796,52	1703,91
796,69	1720,29
796,87	1699,81
797,04	1736,68
797,22	1789,92
797,39	1759,21
797,57	1781,73
797,74	1640,42
797,92	1703,91
798,09	1636,33
798,27	1775,59
798,44	1705,96
798,62	1701,86
798,79	1722,34
798,96	1748,97
799,14	1599,46
799,31	1804,26
799,49	1652,71
799,66	1681,38
799,84	1779,68
800,01	1591,27
800,19	1679,33
800,36	1652,71
800,53	1718,25
800,71	1652,71
800,88	1732,58
801,06	1718,25
801,23	1599,46
801,41	1740,77
801,58	1742,82
801,75	1673,19
801,93	1779,68
802,10	1748,97
802,28	1632,23
802,45	1695,72
802,63	1751,01
802,80	1812,45
802,97	1701,86
803,15	1730,53
803,32	1656,81
803,50	1611,75
803,67	1634,28
803,84	1669,09
804,02	1714,15
804,19	1669,09
804,37	1576,94
804,54	1671,14
804,71	1644,52
804,89	1710,05
805,06	1632,23
805,24	1619,94
805,41	1644,52
805,58	1652,71
805,76	1869,80
805,93	1753,06
806,10	1753,06
806,28	1638,38
806,45	1732,58
806,63	1753,06
806,80	1740,77
806,97	1710,05
807,15	1714,15
807,32	1660,90
807,49	1701,86
807,67	1595,37
807,84	1738,73
808,01	1556,46
808,19	1767,40
808,36	1794,02
808,54	1673,19
808,71	1679,33
808,88	1800,16
809,06	1771,49
809,23	1777,64
809,40	1671,14
809,58	1740,77
809,75	1753,06
809,92	1677,29
810,10	1843,17
810,27	1673,19
810,44	1724,39
810,62	1771,49
810,79	1710,05
810,96	1675,24
811,14	1693,67
811,31	1724,39
811,48	1705,96
811,66	1591,27
811,83	1781,73
812,00	1736,68
812,18	1763,30
812,35	1791,97
812,52	1669,09
812,69	1691,62
812,87	1703,91
813,04	1644,52
813,21	1710,05
813,39	1679,33
813,56	1652,71
813,73	1763,30
813,91	1636,33
814,08	1753,06
814,25	1775,59
814,42	1591,27
814,60	1667,05
814,77	1791,97
814,94	1763,30
815,12	1691,62
815,29	1857,51
815,46	1607,66
815,63	1665,00
815,81	1662,95
815,98	1617,90
816,15	1689,57
816,33	1722,34
816,50	1716,20
816,67	1665,00
816,84	1665,00
817,02	1601,51
817,19	1695,72
817,36	1648,61
817,53	1712,10
817,71	1671,14
817,88	1712,10
818,05	1695,72
818,22	1681,38
818,40	1834,98
818,57	1634,28
818,74	1693,67
818,91	1681,38
819,09	1728,49
819,26	1718,25
819,43	1632,23
819,60	1603,56
819,78	1755,11
819,95	1800,16
820,12	1656,81
820,29	1800,16
820,47	1771,49
820,64	1699,81
820,81	1665,00
820,98	1634,28
821,15	1708,01
821,33	1791,97
821,50	1675,24
821,67	1855,46
821,84	1679,33
822,02	1753,06
822,19	1720,29
822,36	1673,19
822,53	1753,06
822,70	1648,61
822,88	1673,19
823,05	1837,03
823,22	1656,81
823,39	1746,92
823,56	1718,25
823,74	1765,35
823,91	1646,57
824,08	1638,38
824,25	1646,57
824,42	1777,64
824,60	1642,47
824,77	1736,68
824,94	1648,61
825,11	1705,96
825,28	1554,41
825,45	1755,11
825,63	1718,25
825,80	1624,04
825,97	1740,77
826,14	1619,94
826,31	1630,18
826,48	1734,63
826,66	1677,29
826,83	1679,33
827,00	1742,82
827,17	1642,47
827,34	1636,33
827,51	1673,19
827,69	1693,67
827,86	1685,48
828,03	1656,81
828,20	1734,63
828,37	1640,42
828,54	1763,30
828,71	1732,58
828,89	1796,07
829,06	1677,29
829,23	1777,64
829,40	1638,38
829,57	1708,01
829,74	1710,05
829,91	1722,34
830,09	1681,38
830,26	1773,54
830,43	1757,16
830,60	1683,43
830,77	1730,53
830,94	1759,21
831,11	1777,64
831,28	1662,95
831,46	1773,54
831,63	1619,94
831,80	1640,42
831,97	1728,49
832,14	1708,01
832,31	1693,67
832,48	1697,77
832,65	1779,68
832,82	1701,86
832,99	1701,86
833,17	1701,86
833,34	1841,12
833,51	1757,16
833,68	1642,47
833,85	1738,73
834,02	1673,19
834,19	1691,62
834,36	1644,52
834,53	1689,57
834,70	1732,58
834,87	1775,59
835,04	1718,25
835,22	1621,99
835,39	1722,34
835,56	1650,66
835,73	1673,19
835,90	1769,44
836,07	1562,60
836,24	1781,73
836,41	1640,42
836,58	1701,86
836,75	1740,77
836,92	1742,82
837,09	1665,00
837,26	1697,77
837,43	1730,53
837,60	1708,01
837,77	1716,20
837,94	1740,77
838,12	1722,34
838,29	1751,01
838,46	1644,52
838,63	1675,24
838,80	1783,78
838,97	1763,30
839,14	1615,85
839,31	1691,62
839,48	1785,83
839,65	1701,86
839,82	1728,49
839,99	1644,52
840,16	1734,63
840,33	1656,81
840,50	1626,09
840,67	1683,43
840,84	1601,51
841,01	1720,29
841,18	1708,01
841,35	1689,57
841,52	1699,81
841,69	1736,68
841,86	1662,95
842,03	1718,25
842,20	1650,66
842,37	1697,77
842,54	1677,29
842,71	1730,53
842,88	1691,62
843,05	1708,01
843,22	1626,09
843,39	1785,83
843,56	1665,00
843,73	1656,81
843,90	1689,57
844,07	1705,96
844,24	1687,53
844,41	1783,78
844,58	1728,49
844,75	1716,20
844,92	1701,86
845,09	1724,39
845,26	1656,81
845,43	1730,53
845,60	1730,53
845,77	1736,68
845,94	1677,29
846,10	1773,54
846,27	1550,31
846,44	1599,46
846,61	1576,94
846,78	1683,43
846,95	1767,40
847,12	1652,71
847,29	1679,33
847,46	1603,56
847,63	1705,96
847,80	1673,19
847,97	1667,05
848,14	1789,92
848,31	1648,61
848,48	1544,17
848,65	1714,15
848,82	1681,38
848,98	1771,49
849,15	1748,97
849,32	1771,49
849,49	1804,26
849,66	1624,04
849,83	1730,53
850,00	1699,81
850,17	1710,05
850,34	1691,62
850,51	1677,29
850,68	1638,38
850,85	1832,93
851,01	1703,91
851,18	1689,57
851,35	1691,62
851,52	1755,11
851,69	1742,82
851,86	1603,56
852,03	1724,39
852,20	1824,74
852,37	1699,81
852,53	1556,46
852,70	1689,57
852,87	1730,53
853,04	1734,63
853,21	1738,73
853,38	1748,97
853,55	1738,73
853,72	1804,26
853,89	1601,51
854,05	1656,81
854,22	1730,53
854,39	1681,38
854,56	1724,39
854,73	1810,40
854,90	1617,90
855,07	1697,77
855,23	1644,52
855,40	1646,57
855,57	1665,00
855,74	1607,66
855,91	1920,99
856,08	1648,61
856,25	1726,44
856,41	1669,09
856,58	1687,53
856,75	1800,16
856,92	1691,62
857,09	1800,16
857,26	1589,22
857,42	1720,29
857,59	1673,19
857,76	1671,14
857,93	1644,52
858,10	1773,54
858,27	1673,19
858,43	1703,91
858,60	1701,86
858,77	1638,38
858,94	1691,62
859,11	1624,04
859,27	1617,90
859,44	1726,44
859,61	1837,03
859,78	1677,29
859,95	1722,34
860,12	1677,29
860,28	1847,27
860,45	1828,84
860,62	1701,86
860,79	1669,09
860,95	1621,99
861,12	1648,61
861,29	1640,42
861,46	1624,04
861,63	1634,28
861,79	1740,77
861,96	1683,43
862,13	1683,43
862,30	1777,64
862,47	1675,24
862,63	1683,43
862,80	1732,58
862,97	1812,45
863,14	1714,15
863,30	1744,87
863,47	1632,23
863,64	1783,78
863,81	1699,81
863,97	1734,63
864,14	1642,47
864,31	1669,09
864,48	1710,05
864,65	1624,04
864,81	1753,06
864,98	1759,21
865,15	1714,15
865,32	1679,33
865,48	1814,50
865,65	1701,86
865,82	1599,46
865,98	1683,43
866,15	1712,10
866,32	1718,25
866,49	1644,52
866,65	1820,64
866,82	1705,96
866,99	1693,67
867,16	1640,42
867,32	1587,18
867,49	1687,53
867,66	1656,81
867,83	1656,81
867,99	1605,61
868,16	1693,67
868,33	1685,48
868,49	1699,81
868,66	1681,38
868,83	1794,02
868,99	1650,66
869,16	1681,38
869,33	1785,83
869,50	1699,81
869,66	1730,53
869,83	1751,01
870,00	1667,05
870,16	1714,15
870,33	1720,29
870,50	1748,97
870,66	1652,71
870,83	1837,03
871,00	1695,72
871,17	1634,28
871,33	1751,01
871,50	1638,38
871,67	1689,57
871,83	1677,29
872,00	1791,97
872,17	1648,61
872,33	1722,34
872,50	1812,45
872,67	1660,90
872,83	1644,52
873,00	1673,19
873,17	1689,57
873,33	1728,49
873,50	1777,64
873,67	1644,52
873,83	1660,90
874,00	1732,58
874,16	1660,90
874,33	1619,94
874,50	1669,09
874,66	1695,72
874,83	1648,61
875,00	1722,34
875,16	1767,40
875,33	1808,36
875,50	1552,36
875,66	1673,19
875,83	1703,91
875,99	1742,82
876,16	1685,48
876,33	1662,95
876,49	1761,25
876,66	1693,67
876,83	1695,72
876,99	1654,76
877,16	1710,05
877,32	1642,47
877,49	1697,77
877,66	1720,29
877,82	1773,54
877,99	1701,86
878,15	1695,72
878,32	1691,62
878,49	1781,73
878,65	1716,20
878,82	1757,16
878,98	1691,62
879,15	1740,77
879,32	1738,73
879,48	1773,54
879,65	1677,29
879,81	1599,46
879,98	1697,77
880,15	1673,19
880,31	1714,15
880,48	1609,70
880,64	1781,73
880,81	1693,67
880,97	1769,44
881,14	1822,69
881,31	1724,39
881,47	1863,65
881,64	1730,53
881,80	1587,18
881,97	1648,61
882,13	1740,77
882,30	1644,52
882,47	1701,86
882,63	1714,15
882,80	1656,81
882,96	1658,85
883,13	1869,80
883,29	1689,57
883,46	1619,94
883,62	1847,27
883,79	1724,39
883,95	1728,49
884,12	1730,53
884,29	1757,16
884,45	1675,24
884,62	1769,44
884,78	1638,38
884,95	1775,59
885,11	1650,66
885,28	1765,35
885,44	1640,42
885,61	1636,33
885,77	1781,73
885,94	1677,29
886,10	1669,09
886,27	1734,63
886,43	1712,10
886,60	1767,40
886,76	1681,38
886,93	1652,71
887,09	1673,19
887,26	1695,72
887,42	1644,52
887,59	1687,53
887,75	1771,49
887,92	1746,92
888,08	1738,73
888,25	1837,03
888,41	1728,49
888,58	1708,01
888,74	1640,42
888,91	1665,00
>>>>>End Processed Spectral Data<<<<<
