SpectraSuite Data File
++++++++++++++++++++++++++++++++++++
Date: Mon Jun 06 15:16:37 CEST 2016
User: root
Dark Spectrum Present: No
Reference Spectrum Present: No
Number of Sampled Component Spectra: 1
Spectrometers: USB4C02835
Integration Time (usec): 100000 (USB4C02835)
Spectra Averaged: 1 (USB4C02835)
Boxcar Smoothing: 0 (USB4C02835)
Correct for Electrical Dark: No (USB4C02835)
Strobe/Lamp Enabled: No (USB4C02835)
Correct for Detector Non-linearity: No (USB4C02835)
Correct for Stray Light: No (USB4C02835)
Number of Pixels in Processed Spectrum: 3648
>>>>>Begin Processed Spectral Data<<<<<
177,47	1531,88
177,69	1531,88
177,91	1531,88
178,13	1499,11
178,36	1505,26
178,58	1607,66
178,80	1671,14
179,02	1626,09
179,24	1652,71
179,46	1773,54
179,68	1779,68
179,90	1654,76
180,13	1701,86
180,35	1730,53
180,57	1728,49
180,79	1746,92
181,01	1658,85
181,23	1771,49
181,45	1853,41
181,67	1724,39
181,90	1669,09
182,12	1597,42
182,34	1544,17
182,56	1804,26
182,78	1718,25
183,00	1695,72
183,22	1736,68
183,44	1697,77
183,66	1865,70
183,89	1775,59
184,11	1761,25
184,33	1804,26
184,55	1785,83
184,77	1740,77
184,99	1724,39
185,21	1746,92
185,43	1816,55
185,65	1703,91
185,87	1708,01
186,10	1865,70
186,32	1863,65
186,54	1722,34
186,76	1722,34
186,98	1783,78
187,20	1710,05
187,42	1703,91
187,64	1691,62
187,86	1767,40
188,08	1783,78
188,30	1679,33
188,52	1660,90
188,75	1767,40
188,97	1767,40
189,19	1669,09
189,41	1699,81
189,63	1720,29
189,85	1658,85
190,07	1699,81
190,29	1669,09
190,51	1777,64
190,73	1628,14
190,95	1650,66
191,17	1656,81
191,39	1624,04
191,61	1601,51
191,84	1615,85
192,06	1777,64
192,28	1617,90
192,50	1873,89
192,72	1728,49
192,94	1650,66
193,16	1810,40
193,38	1759,21
193,60	1720,29
193,82	1738,73
194,04	1738,73
194,26	1732,58
194,48	1734,63
194,70	1681,38
194,92	1673,19
195,14	1767,40
195,36	1687,53
195,58	1722,34
195,80	1644,52
196,02	1753,06
196,24	1722,34
196,46	1736,68
196,69	1585,13
196,91	1880,04
197,13	1687,53
197,35	1714,15
197,57	1773,54
197,79	1683,43
198,01	1798,12
198,23	1730,53
198,45	1708,01
198,67	1693,67
198,89	1724,39
199,11	1697,77
199,33	1656,81
199,55	1581,03
199,77	1654,76
199,99	1808,36
200,21	1644,52
200,43	1738,73
200,65	1677,29
200,87	1689,57
201,09	1720,29
201,31	1767,40
201,53	1779,68
201,75	1718,25
201,97	1748,97
202,19	1695,72
202,41	1705,96
202,63	1796,07
202,85	1755,11
203,07	1638,38
203,29	1660,90
203,51	1650,66
203,73	1718,25
203,95	1886,18
204,17	1755,11
204,39	1714,15
204,61	1636,33
204,83	1705,96
205,05	1806,31
205,27	1814,50
205,49	1757,16
205,71	1710,05
205,93	1624,04
206,15	1677,29
206,37	1730,53
206,59	1751,01
206,81	1570,79
207,03	1669,09
207,25	1636,33
207,47	1742,82
207,69	1656,81
207,91	1746,92
208,13	1759,21
208,34	1640,42
208,56	1646,57
208,78	1783,78
209,00	1728,49
209,22	1671,14
209,44	1673,19
209,66	1701,86
209,88	1753,06
210,10	1669,09
210,32	1701,86
210,54	1796,07
210,76	1605,61
210,98	1738,73
211,20	1583,08
211,42	1693,67
211,64	1718,25
211,86	1744,87
212,08	1695,72
212,30	1710,05
212,52	1693,67
212,74	1695,72
212,96	1785,83
213,17	1822,69
213,39	1689,57
213,61	1748,97
213,83	1640,42
214,05	1683,43
214,27	1757,16
214,49	1665,00
214,71	1648,61
214,93	1714,15
215,15	1724,39
215,37	1769,44
215,59	1581,03
215,81	1755,11
216,03	1775,59
216,24	1689,57
216,46	1689,57
216,68	1703,91
216,90	1794,02
217,12	1779,68
217,34	1751,01
217,56	1830,88
217,78	1761,25
218,00	1732,58
218,22	1722,34
218,44	1730,53
218,66	1714,15
218,87	1775,59
219,09	1730,53
219,31	1775,59
219,53	1685,48
219,75	1654,76
219,97	1849,32
220,19	1785,83
220,41	1699,81
220,63	1837,03
220,85	1722,34
221,06	1720,29
221,28	1800,16
221,50	1712,10
221,72	1722,34
221,94	1695,72
222,16	1658,85
222,38	1732,58
222,60	1761,25
222,82	1673,19
223,03	1648,61
223,25	1634,28
223,47	1730,53
223,69	1791,97
223,91	1738,73
224,13	1748,97
224,35	1689,57
224,57	1728,49
224,78	1775,59
225,00	1648,61
225,22	1669,09
225,44	1738,73
225,66	1716,20
225,88	1607,66
226,10	1646,57
226,32	1673,19
226,53	1761,25
226,75	1691,62
226,97	1662,95
227,19	1716,20
227,41	1720,29
227,63	1583,08
227,85	1540,07
228,06	1722,34
228,28	1689,57
228,50	1716,20
228,72	1660,90
228,94	1720,29
229,16	1677,29
229,37	1685,48
229,59	1728,49
229,81	1818,60
230,03	1667,05
230,25	1648,61
230,47	1658,85
230,69	1636,33
230,90	1824,74
231,12	1708,01
231,34	1689,57
231,56	1787,88
231,78	1578,98
232,00	1798,12
232,21	1634,28
232,43	1607,66
232,65	1640,42
232,87	1771,49
233,09	1603,56
233,30	1656,81
233,52	1681,38
233,74	1730,53
233,96	1585,13
234,18	1708,01
234,40	1712,10
234,61	1839,08
234,83	1605,61
235,05	1644,52
235,27	1859,56
235,49	1759,21
235,70	1665,00
235,92	1722,34
236,14	1730,53
236,36	1888,23
236,58	1611,75
236,79	1732,58
237,01	1755,11
237,23	1693,67
237,45	1742,82
237,67	1642,47
237,88	1642,47
238,10	1783,78
238,32	1732,58
238,54	1662,95
238,76	1773,54
238,97	1693,67
239,19	1632,23
239,41	1767,40
239,63	1734,63
239,85	1640,42
240,06	1718,25
240,28	1710,05
240,50	1724,39
240,72	1775,59
240,93	1693,67
241,15	1777,64
241,37	1693,67
241,59	1779,68
241,81	1705,96
242,02	1740,77
242,24	1736,68
242,46	1771,49
242,68	1605,61
242,89	1761,25
243,11	1773,54
243,33	1820,64
243,55	1773,54
243,76	1759,21
243,98	1685,48
244,20	1699,81
244,42	1777,64
244,64	1701,86
244,85	1667,05
245,07	1681,38
245,29	1740,77
245,51	1765,35
245,72	1681,38
245,94	1765,35
246,16	1662,95
246,38	1777,64
246,59	1697,77
246,81	1746,92
247,03	1742,82
247,24	1554,41
247,46	1720,29
247,68	1726,44
247,90	1734,63
248,11	1634,28
248,33	1738,73
248,55	1722,34
248,77	1693,67
248,98	1685,48
249,20	1771,49
249,42	1730,53
249,64	1722,34
249,85	1705,96
250,07	1603,56
250,29	1763,30
250,50	1730,53
250,72	1671,14
250,94	1748,97
251,16	1894,37
251,37	1804,26
251,59	1734,63
251,81	1705,96
252,02	1794,02
252,24	1669,09
252,46	1847,27
252,68	1693,67
252,89	1716,20
253,11	1665,00
253,33	1839,08
253,54	1796,07
253,76	1613,80
253,98	1722,34
254,20	1693,67
254,41	1632,23
254,63	1736,68
254,85	1656,81
255,06	1697,77
255,28	1757,16
255,50	1673,19
255,71	1630,18
255,93	1636,33
256,15	1662,95
256,36	1763,30
256,58	1701,86
256,80	1726,44
257,02	1648,61
257,23	1701,86
257,45	1740,77
257,67	1677,29
257,88	1609,70
258,10	1714,15
258,32	1675,24
258,53	1710,05
258,75	1714,15
258,97	1638,38
259,18	1654,76
259,40	1773,54
259,62	1826,79
259,83	1787,88
260,05	1689,57
260,27	1990,63
260,48	1697,77
260,70	1671,14
260,92	1648,61
261,13	1673,19
261,35	1665,00
261,57	1701,86
261,78	1611,75
262,00	1681,38
262,22	1716,20
262,43	1728,49
262,65	1685,48
262,86	1742,82
263,08	1828,84
263,30	1738,73
263,51	1605,61
263,73	1646,57
263,95	1787,88
264,16	1607,66
264,38	1609,70
264,60	1753,06
264,81	1654,76
265,03	1697,77
265,25	1748,97
265,46	1642,47
265,68	1736,68
265,89	1738,73
266,11	1648,61
266,33	1714,15
266,54	1808,36
266,76	1652,71
266,98	1708,01
267,19	1800,16
267,41	1808,36
267,62	1705,96
267,84	1595,37
268,06	1675,24
268,27	1687,53
268,49	1783,78
268,70	1832,93
268,92	1673,19
269,14	1673,19
269,35	1585,13
269,57	1693,67
269,79	1722,34
270,00	1617,90
270,22	1753,06
270,43	1720,29
270,65	1560,55
270,87	1734,63
271,08	1714,15
271,30	1757,16
271,51	1689,57
271,73	1732,58
271,95	1656,81
272,16	1705,96
272,38	1773,54
272,59	1726,44
272,81	1730,53
273,02	1714,15
273,24	1755,11
273,46	1710,05
273,67	1601,51
273,89	1712,10
274,10	1718,25
274,32	1726,44
274,54	1746,92
274,75	1710,05
274,97	1697,77
275,18	1748,97
275,40	1724,39
275,61	1652,71
275,83	1712,10
276,05	1601,51
276,26	1757,16
276,48	1806,31
276,69	1662,95
276,91	1701,86
277,12	1800,16
277,34	1751,01
277,55	1808,36
277,77	1673,19
277,99	1650,66
278,20	1660,90
278,42	1652,71
278,63	1693,67
278,85	1705,96
279,06	1638,38
279,28	1708,01
279,49	1820,64
279,71	1681,38
279,93	1755,11
280,14	1736,68
280,36	1755,11
280,57	1746,92
280,79	1742,82
281,00	1652,71
281,22	1683,43
281,43	1744,87
281,65	1585,13
281,86	1691,62
282,08	1691,62
282,29	1755,11
282,51	1705,96
282,73	1634,28
282,94	1576,94
283,16	1740,77
283,37	1804,26
283,59	1738,73
283,80	1757,16
284,02	1697,77
284,23	1734,63
284,45	1708,01
284,66	1656,81
284,88	1691,62
285,09	1683,43
285,31	1718,25
285,52	1740,77
285,74	1667,05
285,95	1789,92
286,17	1701,86
286,38	1761,25
286,60	1640,42
286,81	1724,39
287,03	1650,66
287,24	1701,86
287,46	1834,98
287,67	1679,33
287,89	1789,92
288,10	1705,96
288,32	1675,24
288,53	1669,09
288,75	1710,05
288,96	1789,92
289,18	1646,57
289,39	1726,44
289,61	1767,40
289,82	1789,92
290,04	1771,49
290,25	1652,71
290,47	1720,29
290,68	1665,00
290,90	1777,64
291,11	1675,24
291,33	1869,80
291,54	1609,70
291,76	1734,63
291,97	1646,57
292,18	1710,05
292,40	1669,09
292,61	1675,24
292,83	1781,73
293,04	1689,57
293,26	1705,96
293,47	1740,77
293,69	1669,09
293,90	1708,01
294,12	1832,93
294,33	1660,90
294,55	1708,01
294,76	1753,06
294,97	1767,40
295,19	1812,45
295,40	1701,86
295,62	1716,20
295,83	1771,49
296,05	1691,62
296,26	1812,45
296,48	1679,33
296,69	1714,15
296,90	1796,07
297,12	1720,29
297,33	1791,97
297,55	1644,52
297,76	1691,62
297,98	1765,35
298,19	1736,68
298,41	1748,97
298,62	1662,95
298,83	1736,68
299,05	1732,58
299,26	1613,80
299,48	1718,25
299,69	1701,86
299,90	1720,29
300,12	1667,05
300,33	1798,12
300,55	1742,82
300,76	1787,88
300,98	1630,18
301,19	1763,30
301,40	1644,52
301,62	1662,95
301,83	1753,06
302,05	1769,44
302,26	1753,06
302,47	1736,68
302,69	1642,47
302,90	1708,01
303,12	1585,13
303,33	1708,01
303,54	1789,92
303,76	1662,95
303,97	1693,67
304,19	1746,92
304,40	1603,56
304,61	1738,73
304,83	1810,40
305,04	1787,88
305,26	1802,21
305,47	1671,14
305,68	1646,57
305,90	1697,77
306,11	1771,49
306,33	1667,05
306,54	1671,14
306,75	1685,48
306,97	1533,93
307,18	1617,90
307,39	1640,42
307,61	1839,08
307,82	1714,15
308,04	1806,31
308,25	1697,77
308,46	1728,49
308,68	1708,01
308,89	1656,81
309,10	1746,92
309,32	1740,77
309,53	1730,53
309,74	1738,73
309,96	1675,24
310,17	1761,25
310,39	1648,61
310,60	1761,25
310,81	1632,23
311,03	1628,14
311,24	1804,26
311,45	1693,67
311,67	1880,04
311,88	1708,01
312,09	1650,66
312,31	1724,39
312,52	1679,33
312,73	1716,20
312,95	1636,33
313,16	1660,90
313,37	1832,93
313,59	1828,84
313,80	1777,64
314,01	1787,88
314,23	1640,42
314,44	1732,58
314,65	1656,81
314,87	1669,09
315,08	1652,71
315,29	1714,15
315,51	1665,00
315,72	1648,61
315,93	1767,40
316,15	1683,43
316,36	1763,30
316,57	1761,25
316,79	1763,30
317,00	1740,77
317,21	1789,92
317,43	1656,81
317,64	1683,43
317,85	1591,27
318,07	1669,09
318,28	1734,63
318,49	1800,16
318,70	1877,99
318,92	1947,62
319,13	1759,21
319,34	1877,99
319,56	1785,83
319,77	1826,79
319,98	1828,84
320,20	1746,92
320,41	1812,45
320,62	1802,21
320,83	1683,43
321,05	1789,92
321,26	1738,73
321,47	1710,05
321,69	1810,40
321,90	1714,15
322,11	1740,77
322,32	1699,81
322,54	1736,68
322,75	1736,68
322,96	1843,17
323,18	1619,94
323,39	1615,85
323,60	1640,42
323,81	1761,25
324,03	1720,29
324,24	1755,11
324,45	1703,91
324,66	1746,92
324,88	1761,25
325,09	1834,98
325,30	1716,20
325,52	1699,81
325,73	1761,25
325,94	1644,52
326,15	1597,42
326,37	1669,09
326,58	1726,44
326,79	1783,78
327,00	1681,38
327,22	1763,30
327,43	1673,19
327,64	1771,49
327,85	1732,58
328,07	1783,78
328,28	1697,77
328,49	1607,66
328,70	1701,86
328,92	1697,77
329,13	1660,90
329,34	1667,05
329,55	1873,89
329,76	1751,01
329,98	1679,33
330,19	1837,03
330,40	1755,11
330,61	1757,16
330,83	1726,44
331,04	1619,94
331,25	1759,21
331,46	1687,53
331,68	1615,85
331,89	1777,64
332,10	1734,63
332,31	1665,00
332,52	1628,14
332,74	1718,25
332,95	1660,90
333,16	1652,71
333,37	1671,14
333,58	1703,91
333,80	1681,38
334,01	1626,09
334,22	1654,76
334,43	1683,43
334,64	1718,25
334,86	1634,28
335,07	1656,81
335,28	1796,07
335,49	1578,98
335,70	1691,62
335,92	1820,64
336,13	1785,83
336,34	1791,97
336,55	1701,86
336,76	1740,77
336,98	1566,70
337,19	1751,01
337,40	1814,50
337,61	1826,79
337,82	1693,67
338,04	1773,54
338,25	1642,47
338,46	1703,91
338,67	1689,57
338,88	1642,47
339,09	1617,90
339,31	1617,90
339,52	1652,71
339,73	1665,00
339,94	1814,50
340,15	1697,77
340,36	1699,81
340,58	1705,96
340,79	1671,14
341,00	1806,31
341,21	1634,28
341,42	1794,02
341,63	1703,91
341,85	1785,83
342,06	1728,49
342,27	1669,09
342,48	1751,01
342,69	1626,09
342,90	1705,96
343,12	1785,83
343,33	1689,57
343,54	1802,21
343,75	1849,32
343,96	1665,00
344,17	1656,81
344,38	1708,01
344,60	1695,72
344,81	1695,72
345,02	1738,73
345,23	1781,73
345,44	1757,16
345,65	1726,44
345,86	1724,39
346,07	1632,23
346,29	1665,00
346,50	1695,72
346,71	1701,86
346,92	1708,01
347,13	1830,88
347,34	1746,92
347,55	1685,48
347,76	1785,83
347,98	1589,22
348,19	1671,14
348,40	1781,73
348,61	1673,19
348,82	1837,03
349,03	1753,06
349,24	1662,95
349,45	1781,73
349,66	1628,14
349,88	1691,62
350,09	1632,23
350,30	1822,69
350,51	1732,58
350,72	1742,82
350,93	1658,85
351,14	1589,22
351,35	1761,25
351,56	1697,77
351,77	1724,39
351,99	1720,29
352,20	1781,73
352,41	1771,49
352,62	1576,94
352,83	1701,86
353,04	1642,47
353,25	1755,11
353,46	1796,07
353,67	1798,12
353,88	1646,57
354,09	1683,43
354,30	1675,24
354,52	1746,92
354,73	1744,87
354,94	1679,33
355,15	1773,54
355,36	1843,17
355,57	1751,01
355,78	1802,21
355,99	1697,77
356,20	1632,23
356,41	1751,01
356,62	1726,44
356,83	1609,70
357,04	1812,45
357,25	1538,02
357,46	1671,14
357,68	1578,98
357,89	1726,44
358,10	1667,05
358,31	1632,23
358,52	1720,29
358,73	1716,20
358,94	1650,66
359,15	1699,81
359,36	1771,49
359,57	1722,34
359,78	1677,29
359,99	1712,10
360,20	1691,62
360,41	1654,76
360,62	1660,90
360,83	1730,53
361,04	1785,83
361,25	1683,43
361,46	1822,69
361,67	1726,44
361,88	1740,77
362,09	1791,97
362,30	1722,34
362,51	1613,80
362,72	1716,20
362,93	1753,06
363,14	1738,73
363,35	1705,96
363,56	1681,38
363,78	1779,68
363,99	1759,21
364,20	1736,68
364,41	1652,71
364,62	1871,84
364,83	1701,86
365,04	1710,05
365,25	1705,96
365,46	1834,98
365,67	1583,08
365,88	1759,21
366,09	1724,39
366,30	1697,77
366,51	1671,14
366,72	1683,43
366,93	1800,16
367,14	1720,29
367,35	1796,07
367,56	1689,57
367,77	1732,58
367,98	1697,77
368,18	1761,25
368,39	1828,84
368,60	1701,86
368,81	1742,82
369,02	1724,39
369,23	1744,87
369,44	1658,85
369,65	1675,24
369,86	1728,49
370,07	1746,92
370,28	1722,34
370,49	1812,45
370,70	1689,57
370,91	1576,94
371,12	1611,75
371,33	1742,82
371,54	1716,20
371,75	1820,64
371,96	1591,27
372,17	1751,01
372,38	1673,19
372,59	1789,92
372,80	1644,52
373,01	1699,81
373,22	1734,63
373,43	1771,49
373,64	1701,86
373,85	1853,41
374,06	1744,87
374,26	1695,72
374,47	1724,39
374,68	1832,93
374,89	1695,72
375,10	1763,30
375,31	1779,68
375,52	1720,29
375,73	1771,49
375,94	1626,09
376,15	1738,73
376,36	1755,11
376,57	1705,96
376,78	1628,14
376,99	1738,73
377,20	1808,36
377,40	1660,90
377,61	1806,31
377,82	1669,09
378,03	1746,92
378,24	1730,53
378,45	1665,00
378,66	1753,06
378,87	1638,38
379,08	1630,18
379,29	1617,90
379,50	1812,45
379,71	1697,77
379,91	1769,44
380,12	1703,91
380,33	1732,58
380,54	1751,01
380,75	1738,73
380,96	1714,15
381,17	1787,88
381,38	1773,54
381,59	1808,36
381,80	1730,53
382,00	1882,08
382,21	1751,01
382,42	1769,44
382,63	1861,60
382,84	1751,01
383,05	1767,40
383,26	1855,46
383,47	1701,86
383,68	1789,92
383,88	1742,82
384,09	1728,49
384,30	1773,54
384,51	1767,40
384,72	1703,91
384,93	1728,49
385,14	1806,31
385,35	1820,64
385,55	1697,77
385,76	1812,45
385,97	1722,34
386,18	1705,96
386,39	1665,00
386,60	1710,05
386,81	1634,28
387,02	1619,94
387,22	1667,05
387,43	1785,83
387,64	1796,07
387,85	1869,80
388,06	2133,98
388,27	4251,58
388,48	6600,60
388,68	7874,44
388,89	9428,85
389,10	9492,34
389,31	8435,58
389,52	7370,64
389,73	6447,01
389,93	6080,42
390,14	5705,64
390,35	5103,54
390,56	4521,92
390,77	3721,16
390,98	2947,03
391,18	2492,38
391,39	2088,93
391,60	1894,37
391,81	1751,01
392,02	1738,73
392,23	1890,28
392,43	1796,07
392,64	1820,64
392,85	1738,73
393,06	1828,84
393,27	1722,34
393,47	1576,94
393,68	1708,01
393,89	1695,72
394,10	1822,69
394,31	1613,80
394,52	1708,01
394,72	1724,39
394,93	1787,88
395,14	1626,09
395,35	1738,73
395,56	1773,54
395,76	1705,96
395,97	1804,26
396,18	1886,18
396,39	1861,60
396,60	2043,87
396,80	1871,84
397,01	1853,41
397,22	1847,27
397,43	1904,61
397,64	1708,01
397,84	1767,40
398,05	1910,75
398,26	1779,68
398,47	1783,78
398,67	1818,60
398,88	1691,62
399,09	1796,07
399,30	1787,88
399,51	1724,39
399,71	1699,81
399,92	1738,73
400,13	1718,25
400,34	1624,04
400,54	1710,05
400,75	1820,64
400,96	1689,57
401,17	1726,44
401,37	1734,63
401,58	1796,07
401,79	1730,53
402,00	1875,94
402,21	1970,15
402,41	1943,52
402,62	1990,63
402,83	2054,11
403,04	1990,63
403,24	2088,93
403,45	1841,12
403,66	1961,95
403,87	1806,31
404,07	1974,24
404,28	1853,41
404,49	1853,41
404,70	1728,49
404,90	1853,41
405,11	1693,67
405,32	1705,96
405,52	1648,61
405,73	1730,53
405,94	1695,72
406,15	1763,30
406,35	1726,44
406,56	1744,87
406,77	1701,86
406,98	1712,10
407,18	1648,61
407,39	1703,91
407,60	1701,86
407,80	1726,44
408,01	1751,01
408,22	1779,68
408,43	1759,21
408,63	1806,31
408,84	1783,78
409,05	1751,01
409,25	1617,90
409,46	1685,48
409,67	1665,00
409,88	1761,25
410,08	1751,01
410,29	1757,16
410,50	1724,39
410,70	1755,11
410,91	1615,85
411,12	1763,30
411,32	1697,77
411,53	1685,48
411,74	1814,50
411,95	1767,40
412,15	1718,25
412,36	1841,12
412,57	1783,78
412,77	1794,02
412,98	1710,05
413,19	1791,97
413,39	1822,69
413,60	1798,12
413,81	1794,02
414,01	1660,90
414,22	1726,44
414,43	1738,73
414,63	1652,71
414,84	1753,06
415,05	1730,53
415,25	1693,67
415,46	1808,36
415,67	1714,15
415,87	1824,74
416,08	1687,53
416,29	1734,63
416,49	1787,88
416,70	1746,92
416,91	1732,58
417,11	1701,86
417,32	1730,53
417,53	1687,53
417,73	1763,30
417,94	1742,82
418,15	1751,01
418,35	1724,39
418,56	1722,34
418,77	1804,26
418,97	1734,63
419,18	1665,00
419,38	1527,78
419,59	1738,73
419,80	1816,55
420,00	1650,66
420,21	1732,58
420,42	1748,97
420,62	1738,73
420,83	1640,42
421,04	1738,73
421,24	1669,09
421,45	1683,43
421,65	1767,40
421,86	1714,15
422,07	1689,57
422,27	1732,58
422,48	1769,44
422,69	1751,01
422,89	1763,30
423,10	1718,25
423,30	1603,56
423,51	1728,49
423,72	1751,01
423,92	1691,62
424,13	1658,85
424,33	1718,25
424,54	1771,49
424,75	1724,39
424,95	1861,60
425,16	1718,25
425,36	1658,85
425,57	1732,58
425,78	1636,33
425,98	1759,21
426,19	1650,66
426,39	1697,77
426,60	1779,68
426,81	1812,45
427,01	1742,82
427,22	1652,71
427,42	1646,57
427,63	1732,58
427,83	1726,44
428,04	1818,60
428,25	1808,36
428,45	1845,22
428,66	1714,15
428,86	1660,90
429,07	1685,48
429,28	1687,53
429,48	1699,81
429,69	1734,63
429,89	1701,86
430,10	1662,95
430,30	1681,38
430,51	1757,16
430,71	1712,10
430,92	1683,43
431,13	1671,14
431,33	1730,53
431,54	1665,00
431,74	1824,74
431,95	1859,56
432,15	1689,57
432,36	1703,91
432,56	1685,48
432,77	1794,02
432,98	1834,98
433,18	1748,97
433,39	1681,38
433,59	1724,39
433,80	1761,25
434,00	1830,88
434,21	1695,72
434,41	1701,86
434,62	1816,55
434,82	1619,94
435,03	1675,24
435,23	1771,49
435,44	1617,90
435,64	1787,88
435,85	1765,35
436,06	1779,68
436,26	1675,24
436,47	1712,10
436,67	1665,00
436,88	1701,86
437,08	1740,77
437,29	1808,36
437,49	1818,60
437,70	1839,08
437,90	1808,36
438,11	1898,47
438,31	1691,62
438,52	1865,70
438,72	1824,74
438,93	1832,93
439,13	1755,11
439,34	1791,97
439,54	1716,20
439,75	1753,06
439,95	1857,51
440,16	1734,63
440,36	1851,36
440,57	1767,40
440,77	1798,12
440,98	1705,96
441,18	1796,07
441,39	1675,24
441,59	1722,34
441,80	1828,84
442,00	1726,44
442,21	1837,03
442,41	1693,67
442,62	1791,97
442,82	1708,01
443,02	1718,25
443,23	1677,29
443,43	1652,71
443,64	1775,59
443,84	1726,44
444,05	1882,08
444,25	1757,16
444,46	1744,87
444,66	1714,15
444,87	1800,16
445,07	1607,66
445,28	1734,63
445,48	1718,25
445,69	1730,53
445,89	1834,98
446,09	1746,92
446,30	1908,71
446,50	2623,45
446,71	3551,18
446,91	4165,57
447,12	4528,06
447,32	4720,57
447,53	4263,87
447,73	3813,32
447,93	3522,51
448,14	3186,64
448,34	3190,74
448,55	2772,95
448,75	2793,43
448,96	2731,99
449,16	2418,65
449,36	2236,38
449,57	2004,96
449,77	1959,91
449,98	1806,31
450,18	1849,32
450,39	1794,02
450,59	1808,36
450,79	1730,53
451,00	1650,66
451,20	1931,23
451,41	1718,25
451,61	1812,45
451,81	1708,01
452,02	1730,53
452,22	1738,73
452,43	1699,81
452,63	1705,96
452,84	1710,05
453,04	1714,15
453,24	1785,83
453,45	1691,62
453,65	1775,59
453,86	1822,69
454,06	1755,11
454,26	1681,38
454,47	1701,86
454,67	1802,21
454,87	1716,20
455,08	1773,54
455,28	1804,26
455,49	1693,67
455,69	1720,29
455,89	1863,65
456,10	1794,02
456,30	1730,53
456,51	1732,58
456,71	1820,64
456,91	1728,49
457,12	1683,43
457,32	1761,25
457,52	1748,97
457,73	1781,73
457,93	1808,36
458,14	1701,86
458,34	1642,47
458,54	1742,82
458,75	1681,38
458,95	1738,73
459,15	1714,15
459,36	1775,59
459,56	1746,92
459,76	1828,84
459,97	1755,11
460,17	1708,01
460,37	1865,70
460,58	1773,54
460,78	1787,88
460,99	1748,97
461,19	1714,15
461,39	1697,77
461,60	1765,35
461,80	1677,29
462,00	1705,96
462,21	1759,21
462,41	1677,29
462,61	1656,81
462,82	1609,70
463,02	1726,44
463,22	1740,77
463,43	1761,25
463,63	1746,92
463,83	1769,44
464,04	1820,64
464,24	1744,87
464,44	1667,05
464,64	1693,67
464,85	1789,92
465,05	1783,78
465,25	1726,44
465,46	1710,05
465,66	1826,79
465,86	1697,77
466,07	1804,26
466,27	1732,58
466,47	1652,71
466,68	1656,81
466,88	1867,75
467,08	1763,30
467,29	1818,60
467,49	1763,30
467,69	1691,62
467,89	1703,91
468,10	1640,42
468,30	1683,43
468,50	1800,16
468,71	1798,12
468,91	1685,48
469,11	1871,84
469,31	1800,16
469,52	1669,09
469,72	1839,08
469,92	1886,18
470,13	1755,11
470,33	1728,49
470,53	1845,22
470,73	1984,48
470,94	2265,05
471,14	2377,69
471,34	2459,61
471,54	2383,84
471,75	2279,39
471,95	2136,03
472,15	2039,78
472,36	2111,46
472,56	2088,93
472,76	2056,16
472,96	2009,06
473,17	1927,14
473,37	1798,12
473,57	1769,44
473,77	1748,97
473,98	1785,83
474,18	1687,53
474,38	1853,41
474,58	1753,06
474,79	1636,33
474,99	1759,21
475,19	1820,64
475,39	1669,09
475,60	1705,96
475,80	1755,11
476,00	1748,97
476,20	1644,52
476,41	1726,44
476,61	1843,17
476,81	1843,17
477,01	1710,05
477,21	1837,03
477,42	1777,64
477,62	1687,53
477,82	1783,78
478,02	1796,07
478,23	1820,64
478,43	1662,95
478,63	1708,01
478,83	1744,87
479,03	1703,91
479,24	1804,26
479,44	1794,02
479,64	1728,49
479,84	1656,81
480,04	1660,90
480,25	1724,39
480,45	1636,33
480,65	1701,86
480,85	1736,68
481,06	1728,49
481,26	1759,21
481,46	1730,53
481,66	1685,48
481,86	1640,42
482,06	1755,11
482,27	1718,25
482,47	1751,01
482,67	1783,78
482,87	1691,62
483,07	1816,55
483,28	1636,33
483,48	1689,57
483,68	1718,25
483,88	1703,91
484,08	1642,47
484,29	1669,09
484,49	1705,96
484,69	1710,05
484,89	1791,97
485,09	1845,22
485,29	1773,54
485,50	1785,83
485,70	1685,48
485,90	1787,88
486,10	1751,01
486,30	1734,63
486,50	1761,25
486,71	1718,25
486,91	1873,89
487,11	1730,53
487,31	1648,61
487,51	1660,90
487,71	1691,62
487,91	1619,94
488,12	1624,04
488,32	1650,66
488,52	1681,38
488,72	1638,38
488,92	1693,67
489,12	1828,84
489,32	1857,51
489,53	1812,45
489,73	1732,58
489,93	1789,92
490,13	1726,44
490,33	1681,38
490,53	1687,53
490,73	1861,60
490,94	1636,33
491,14	1757,16
491,34	1775,59
491,54	2131,94
491,74	2537,43
491,94	2871,25
492,14	3069,91
492,34	3008,47
492,54	2766,81
492,75	2494,43
492,95	2385,88
493,15	2299,87
493,35	2336,73
493,55	2201,57
493,75	2125,79
493,95	2115,55
494,15	2025,44
494,35	1959,91
494,56	1834,98
494,76	1824,74
494,96	1783,78
495,16	1822,69
495,36	1724,39
495,56	1748,97
495,76	1769,44
495,96	1761,25
496,16	1744,87
496,36	1902,56
496,56	1734,63
496,77	1773,54
496,97	1638,38
497,17	1701,86
497,37	1665,00
497,57	1779,68
497,77	1777,64
497,97	1669,09
498,17	1710,05
498,37	1712,10
498,57	1757,16
498,77	1726,44
498,97	1710,05
499,17	1767,40
499,38	1757,16
499,58	1779,68
499,78	1748,97
499,98	1824,74
500,18	1681,38
500,38	1736,68
500,58	1898,47
500,78	2492,38
500,98	4513,72
501,18	5719,98
501,38	6651,80
501,58	6864,79
501,78	6459,29
501,98	5343,15
502,18	5007,28
502,38	4298,69
502,58	3948,48
502,78	3696,58
502,98	3700,68
503,18	3471,31
503,38	3096,53
503,59	2779,09
503,79	2676,70
503,99	2387,93
504,19	2289,63
504,39	2142,18
504,59	2154,46
504,79	2170,85
504,99	2045,92
505,19	1937,38
505,39	1896,42
505,59	1984,48
505,79	1845,22
505,99	1849,32
506,19	1804,26
506,39	1957,86
506,59	1794,02
506,79	1742,82
506,99	1818,60
507,19	1753,06
507,39	1755,11
507,59	1791,97
507,79	1730,53
507,99	1722,34
508,19	1714,15
508,39	1728,49
508,59	1683,43
508,79	1841,12
508,99	1849,32
509,19	1691,62
509,39	1824,74
509,59	1722,34
509,79	1667,05
509,99	1730,53
510,19	1841,12
510,39	1839,08
510,59	1740,77
510,79	1710,05
510,99	1736,68
511,19	1734,63
511,39	1810,40
511,59	1812,45
511,79	1808,36
511,99	1714,15
512,19	1898,47
512,38	1703,91
512,58	1673,19
512,78	1759,21
512,98	1755,11
513,18	1787,88
513,38	1708,01
513,58	1800,16
513,78	1775,59
513,98	1755,11
514,18	1742,82
514,38	1738,73
514,58	1814,50
514,78	1695,72
514,98	1679,33
515,18	1716,20
515,38	1638,38
515,58	1820,64
515,78	1695,72
515,98	1771,49
516,18	1724,39
516,38	1734,63
516,57	1716,20
516,77	1759,21
516,97	1734,63
517,17	1705,96
517,37	1583,08
517,57	1736,68
517,77	1751,01
517,97	1718,25
518,17	1812,45
518,37	1699,81
518,57	1634,28
518,77	1718,25
518,97	1673,19
519,16	1761,25
519,36	1824,74
519,56	1732,58
519,76	1740,77
519,96	1742,82
520,16	1783,78
520,36	1628,14
520,56	1845,22
520,76	1669,09
520,96	1732,58
521,16	1808,36
521,35	1794,02
521,55	1853,41
521,75	1771,49
521,95	1730,53
522,15	1757,16
522,35	1660,90
522,55	1744,87
522,75	1753,06
522,95	1675,24
523,14	1660,90
523,34	1794,02
523,54	1728,49
523,74	1804,26
523,94	1816,55
524,14	1656,81
524,34	1753,06
524,54	1849,32
524,73	1755,11
524,93	1726,44
525,13	1761,25
525,33	1650,66
525,53	1882,08
525,73	1753,06
525,93	1798,12
526,13	1718,25
526,32	1744,87
526,52	1824,74
526,72	1832,93
526,92	1703,91
527,12	1796,07
527,32	1681,38
527,52	1761,25
527,71	1767,40
527,91	1775,59
528,11	1720,29
528,31	1767,40
528,51	1683,43
528,71	1791,97
528,90	1693,67
529,10	1779,68
529,30	1857,51
529,50	1550,31
529,70	1785,83
529,90	1681,38
530,09	1701,86
530,29	1611,75
530,49	1757,16
530,69	1877,99
530,89	1794,02
531,09	1798,12
531,28	1748,97
531,48	1714,15
531,68	1744,87
531,88	1744,87
532,08	1816,55
532,28	1646,57
532,47	1701,86
532,67	1798,12
532,87	1773,54
533,07	1658,85
533,27	1755,11
533,46	1761,25
533,66	1736,68
533,86	1767,40
534,06	1724,39
534,26	1785,83
534,45	1673,19
534,65	1822,69
534,85	1742,82
535,05	1648,61
535,25	1816,55
535,44	1665,00
535,64	1800,16
535,84	1748,97
536,04	1701,86
536,24	1789,92
536,43	1708,01
536,63	1771,49
536,83	1718,25
537,03	1789,92
537,22	1632,23
537,42	1669,09
537,62	1744,87
537,82	1654,76
538,02	1830,88
538,21	1781,73
538,41	1918,95
538,61	1740,77
538,81	1703,91
539,00	1800,16
539,20	1681,38
539,40	1785,83
539,60	1779,68
539,79	1861,60
539,99	1701,86
540,19	1699,81
540,39	1767,40
540,58	1779,68
540,78	1802,21
540,98	1820,64
541,18	1722,34
541,37	1769,44
541,57	1755,11
541,77	1787,88
541,97	1734,63
542,16	1714,15
542,36	1708,01
542,56	1687,53
542,76	1843,17
542,95	1841,12
543,15	1753,06
543,35	1710,05
543,54	1701,86
543,74	1761,25
543,94	1849,32
544,14	1724,39
544,33	1837,03
544,53	1757,16
544,73	1665,00
544,93	1716,20
545,12	1777,64
545,32	1757,16
545,52	1673,19
545,71	1687,53
545,91	1722,34
546,11	1763,30
546,30	1609,70
546,50	1722,34
546,70	1794,02
546,90	1789,92
547,09	1667,05
547,29	1820,64
547,49	1746,92
547,68	1736,68
547,88	1640,42
548,08	1785,83
548,27	2164,70
548,47	1732,58
548,67	1734,63
548,87	1738,73
549,06	1742,82
549,26	1626,09
549,46	1761,25
549,65	1710,05
549,85	1769,44
550,05	1746,92
550,24	1679,33
550,44	1787,88
550,64	1718,25
550,83	1777,64
551,03	1892,32
551,23	1710,05
551,42	1804,26
551,62	1673,19
551,82	1742,82
552,01	1769,44
552,21	1787,88
552,41	1816,55
552,60	1861,60
552,80	1648,61
553,00	1710,05
553,19	1734,63
553,39	1802,21
553,59	1701,86
553,78	1755,11
553,98	1722,34
554,17	1646,57
554,37	1679,33
554,57	1755,11
554,76	1648,61
554,96	1787,88
555,16	1775,59
555,35	1740,77
555,55	1773,54
555,75	1798,12
555,94	1789,92
556,14	1617,90
556,33	1685,48
556,53	1714,15
556,73	1669,09
556,92	1748,97
557,12	1861,60
557,32	1918,95
557,51	1796,07
557,71	1753,06
557,90	1820,64
558,10	1824,74
558,30	1671,14
558,49	1701,86
558,69	1701,86
558,88	1877,99
559,08	1699,81
559,28	1761,25
559,47	1638,38
559,67	1796,07
559,86	1812,45
560,06	1763,30
560,26	1730,53
560,45	1849,32
560,65	1738,73
560,84	1796,07
561,04	1724,39
561,24	1734,63
561,43	1732,58
561,63	1777,64
561,82	1675,24
562,02	1763,30
562,22	1720,29
562,41	1705,96
562,61	1705,96
562,80	1705,96
563,00	1998,82
563,19	1828,84
563,39	1734,63
563,59	1890,28
563,78	1695,72
563,98	1689,57
564,17	1656,81
564,37	1632,23
564,56	1722,34
564,76	1638,38
564,96	1820,64
565,15	1763,30
565,35	1896,42
565,54	1757,16
565,74	1759,21
565,93	1820,64
566,13	1720,29
566,32	1695,72
566,52	1841,12
566,71	1726,44
566,91	1865,70
567,11	1710,05
567,30	1718,25
567,50	1853,41
567,69	1732,58
567,89	1712,10
568,08	1705,96
568,28	1779,68
568,47	1697,77
568,67	1771,49
568,86	1712,10
569,06	1808,36
569,25	1738,73
569,45	1650,66
569,64	1714,15
569,84	1703,91
570,04	1736,68
570,23	1759,21
570,43	1726,44
570,62	1724,39
570,82	1767,40
571,01	1597,42
571,21	1720,29
571,40	1691,62
571,60	1746,92
571,79	1748,97
571,99	1687,53
572,18	1681,38
572,38	1785,83
572,57	1751,01
572,77	1751,01
572,96	1775,59
573,16	1714,15
573,35	1714,15
573,55	1853,41
573,74	1699,81
573,94	1751,01
574,13	1673,19
574,33	1828,84
574,52	1798,12
574,71	1773,54
574,91	1808,36
575,10	1734,63
575,30	1699,81
575,49	1724,39
575,69	1765,35
575,88	1722,34
576,08	1783,78
576,27	1751,01
576,47	1789,92
576,66	1839,08
576,86	1837,03
577,05	1763,30
577,25	1726,44
577,44	1869,80
577,64	1773,54
577,83	1777,64
578,02	1769,44
578,22	1783,78
578,41	1859,56
578,61	1773,54
578,80	1714,15
579,00	1738,73
579,19	1779,68
579,39	1808,36
579,58	1857,51
579,77	1759,21
579,97	1867,75
580,16	1757,16
580,36	1816,55
580,55	1877,99
580,75	1771,49
580,94	1830,88
581,13	1816,55
581,33	1875,94
581,52	1781,73
581,72	1910,75
581,91	1806,31
582,11	1744,87
582,30	1822,69
582,49	1832,93
582,69	1781,73
582,88	1806,31
583,08	1779,68
583,27	1775,59
583,47	1804,26
583,66	1644,52
583,85	1724,39
584,05	1708,01
584,24	1759,21
584,44	1763,30
584,63	1804,26
584,82	1902,56
585,02	1832,93
585,21	1918,95
585,41	1800,16
585,60	1783,78
585,79	1974,24
585,99	1880,04
586,18	1869,80
586,37	2189,28
586,57	3416,01
586,76	9717,61
586,96	23709,33
587,15	33297,92
587,34	39232,94
587,54	40877,46
587,73	35466,72
587,93	25566,84
588,12	20922,05
588,31	17661,68
588,51	15896,33
588,70	14845,73
588,89	13428,53
589,09	12156,74
589,28	10733,40
589,47	9150,32
589,67	7761,80
589,86	6131,62
590,06	4773,82
590,25	3772,36
590,44	3014,61
590,64	2574,30
590,83	2234,33
591,02	2119,65
591,22	1918,95
591,41	1892,32
591,60	1869,80
591,80	1953,76
591,99	1761,25
592,18	1841,12
592,38	1791,97
592,57	1812,45
592,76	1767,40
592,96	1748,97
593,15	1748,97
593,34	1824,74
593,54	1710,05
593,73	1781,73
593,92	1742,82
594,12	1742,82
594,31	1779,68
594,50	1853,41
594,70	1763,30
594,89	1857,51
595,08	1673,19
595,28	1794,02
595,47	1908,71
595,66	1798,12
595,86	1753,06
596,05	1732,58
596,24	1662,95
596,43	1880,04
596,63	1802,21
596,82	1763,30
597,01	1753,06
597,21	1812,45
597,40	1759,21
597,59	1832,93
597,79	1759,21
597,98	1791,97
598,17	1806,31
598,36	1734,63
598,56	1746,92
598,75	1669,09
598,94	1789,92
599,14	1742,82
599,33	1753,06
599,52	1787,88
599,71	1789,92
599,91	1783,78
600,10	1734,63
600,29	1734,63
600,48	1804,26
600,68	1837,03
600,87	1765,35
601,06	1695,72
601,26	1732,58
601,45	1861,60
601,64	1708,01
601,83	1738,73
602,03	1705,96
602,22	1673,19
602,41	1798,12
602,60	1845,22
602,80	1783,78
602,99	1751,01
603,18	1662,95
603,37	1775,59
603,57	1734,63
603,76	1837,03
603,95	1759,21
604,14	1732,58
604,34	1638,38
604,53	1732,58
604,72	1734,63
604,91	1800,16
605,10	1767,40
605,30	1705,96
605,49	1791,97
605,68	1802,21
605,87	1738,73
606,07	1714,15
606,26	1738,73
606,45	1761,25
606,64	1734,63
606,84	1687,53
607,03	1755,11
607,22	1812,45
607,41	1751,01
607,60	1734,63
607,80	1763,30
607,99	1787,88
608,18	1730,53
608,37	1738,73
608,56	1665,00
608,76	1724,39
608,95	1884,13
609,14	1771,49
609,33	1789,92
609,52	1796,07
609,72	1724,39
609,91	1763,30
610,10	1730,53
610,29	1855,46
610,48	1724,39
610,68	1730,53
610,87	1779,68
611,06	1751,01
611,25	1775,59
611,44	1763,30
611,63	1697,77
611,83	1814,50
612,02	1648,61
612,21	1771,49
612,40	1636,33
612,59	1701,86
612,79	1693,67
612,98	1789,92
613,17	1890,28
613,36	1755,11
613,55	1771,49
613,74	1732,58
613,93	1734,63
614,13	1681,38
614,32	1705,96
614,51	1779,68
614,70	1693,67
614,89	1755,11
615,08	1834,98
615,28	2000,87
615,47	1695,72
615,66	1730,53
615,85	1769,44
616,04	1820,64
616,23	1718,25
616,42	1740,77
616,62	1787,88
616,81	1740,77
617,00	1773,54
617,19	1759,21
617,38	1755,11
617,57	1675,24
617,76	1744,87
617,95	1800,16
618,15	1761,25
618,34	1814,50
618,53	1701,86
618,72	1759,21
618,91	1767,40
619,10	1783,78
619,29	1810,40
619,48	1738,73
619,68	1660,90
619,87	1626,09
620,06	1675,24
620,25	1765,35
620,44	1693,67
620,63	1722,34
620,82	1755,11
621,01	1806,31
621,20	1646,57
621,39	1681,38
621,59	1755,11
621,78	1751,01
621,97	1714,15
622,16	1761,25
622,35	1765,35
622,54	1742,82
622,73	1748,97
622,92	1660,90
623,11	1748,97
623,30	1703,91
623,49	1763,30
623,68	1621,99
623,88	1861,60
624,07	1740,77
624,26	1679,33
624,45	1785,83
624,64	1683,43
624,83	1816,55
625,02	1736,68
625,21	1703,91
625,40	1705,96
625,59	1769,44
625,78	1802,21
625,97	1810,40
626,16	1767,40
626,35	1781,73
626,54	1730,53
626,74	1779,68
626,93	1701,86
627,12	1736,68
627,31	1759,21
627,50	1845,22
627,69	1794,02
627,88	1589,22
628,07	1751,01
628,26	1669,09
628,45	1695,72
628,64	1667,05
628,83	1724,39
629,02	1673,19
629,21	1783,78
629,40	1746,92
629,59	1632,23
629,78	1722,34
629,97	1701,86
630,16	1724,39
630,35	1718,25
630,54	1665,00
630,73	1669,09
630,92	1701,86
631,11	1701,86
631,30	1708,01
631,49	1820,64
631,68	1660,90
631,87	1755,11
632,06	1667,05
632,25	1816,55
632,44	1785,83
632,63	1783,78
632,82	1697,77
633,01	1730,53
633,20	1730,53
633,39	1720,29
633,58	1644,52
633,77	1667,05
633,96	1748,97
634,15	1837,03
634,34	1812,45
634,53	1722,34
634,72	1679,33
634,91	1595,37
635,10	1771,49
635,29	1751,01
635,48	1755,11
635,67	1722,34
635,86	1656,81
636,05	1781,73
636,24	1669,09
636,43	1648,61
636,62	1767,40
636,81	1562,60
637,00	1771,49
637,19	1843,17
637,38	1773,54
637,57	1648,61
637,76	1701,86
637,95	1671,14
638,14	1724,39
638,33	1681,38
638,52	1652,71
638,71	1677,29
638,89	1634,28
639,08	1738,73
639,27	1773,54
639,46	1675,24
639,65	1796,07
639,84	1730,53
640,03	1783,78
640,22	1675,24
640,41	1861,60
640,60	1632,23
640,79	1738,73
640,98	1710,05
641,17	1669,09
641,36	1695,72
641,55	1798,12
641,74	1624,04
641,92	1669,09
642,11	1615,85
642,30	1722,34
642,49	1736,68
642,68	1730,53
642,87	1716,20
643,06	1687,53
643,25	1722,34
643,44	1693,67
643,63	1783,78
643,82	1816,55
644,00	1697,77
644,19	1740,77
644,38	1640,42
644,57	1742,82
644,76	1681,38
644,95	1697,77
645,14	1753,06
645,33	1677,29
645,52	1716,20
645,71	1677,29
645,89	1675,24
646,08	1759,21
646,27	1673,19
646,46	1802,21
646,65	1669,09
646,84	1789,92
647,03	1705,96
647,22	1806,31
647,40	1705,96
647,59	1779,68
647,78	1660,90
647,97	1689,57
648,16	1648,61
648,35	1851,36
648,54	1820,64
648,73	1687,53
648,91	1816,55
649,10	1710,05
649,29	1722,34
649,48	1771,49
649,67	1691,62
649,86	1740,77
650,05	1777,64
650,23	1849,32
650,42	1677,29
650,61	1728,49
650,80	1810,40
650,99	1851,36
651,18	1810,40
651,36	1808,36
651,55	1648,61
651,74	1798,12
651,93	1665,00
652,12	1677,29
652,31	1779,68
652,49	1673,19
652,68	1800,16
652,87	1783,78
653,06	1787,88
653,25	1791,97
653,44	1746,92
653,62	1855,46
653,81	1718,25
654,00	1675,24
654,19	1738,73
654,38	1914,85
654,56	1705,96
654,75	1687,53
654,94	1746,92
655,13	1712,10
655,32	1671,14
655,51	1728,49
655,69	1669,09
655,88	1785,83
656,07	1683,43
656,26	1804,26
656,45	1632,23
656,63	1632,23
656,82	1712,10
657,01	1814,50
657,20	1689,57
657,38	1798,12
657,57	1734,63
657,76	1605,61
657,95	1714,15
658,14	1634,28
658,32	1787,88
658,51	1652,71
658,70	1732,58
658,89	1710,05
659,08	1695,72
659,26	1826,79
659,45	1693,67
659,64	1693,67
659,83	1665,00
660,01	1931,23
660,20	1669,09
660,39	1804,26
660,58	1644,52
660,76	1767,40
660,95	1710,05
661,14	1742,82
661,33	1646,57
661,51	1640,42
661,70	1740,77
661,89	1794,02
662,08	1710,05
662,26	1632,23
662,45	1671,14
662,64	1808,36
662,83	1742,82
663,01	1673,19
663,20	1742,82
663,39	1822,69
663,58	1734,63
663,76	1779,68
663,95	1777,64
664,14	1632,23
664,32	1837,03
664,51	1701,86
664,70	1632,23
664,89	1705,96
665,07	1673,19
665,26	1738,73
665,45	1638,38
665,64	1779,68
665,82	1642,47
666,01	1755,11
666,20	1732,58
666,38	1832,93
666,57	1830,88
666,76	2215,90
666,95	4489,15
667,13	10254,18
667,32	14782,24
667,51	17172,22
667,69	18532,07
667,88	17075,96
668,07	11978,57
668,25	9269,11
668,44	7817,10
668,63	7237,52
668,81	6614,94
669,00	6129,57
669,19	5584,81
669,38	4925,36
669,56	4571,07
669,75	3934,15
669,94	3338,19
670,12	2840,53
670,31	2504,67
670,50	2240,48
670,68	2019,30
670,87	1951,71
671,06	1791,97
671,24	1806,31
671,43	1812,45
671,62	1738,73
671,80	1685,48
671,99	1771,49
672,18	1763,30
672,36	1724,39
672,55	1794,02
672,74	1826,79
672,92	1665,00
673,11	1783,78
673,29	1705,96
673,48	1685,48
673,67	1677,29
673,85	1781,73
674,04	1685,48
674,23	1751,01
674,41	1886,18
674,60	1658,85
674,79	1638,38
674,97	1679,33
675,16	1798,12
675,34	1755,11
675,53	1665,00
675,72	1775,59
675,90	1834,98
676,09	1697,77
676,28	1705,96
676,46	1636,33
676,65	1763,30
676,83	1703,91
677,02	1724,39
677,21	1718,25
677,39	1865,70
677,58	1687,53
677,77	1693,67
677,95	1650,66
678,14	1683,43
678,32	1728,49
678,51	1636,33
678,70	1867,75
678,88	1755,11
679,07	1652,71
679,25	1644,52
679,44	1697,77
679,63	1691,62
679,81	1718,25
680,00	1822,69
680,18	1777,64
680,37	1808,36
680,55	1722,34
680,74	1650,66
680,93	1611,75
681,11	1740,77
681,30	1718,25
681,48	1791,97
681,67	1798,12
681,85	1691,62
682,04	1562,60
682,23	1806,31
682,41	1736,68
682,60	1673,19
682,78	1728,49
682,97	1738,73
683,15	1652,71
683,34	1724,39
683,53	1771,49
683,71	1671,14
683,90	1742,82
684,08	1822,69
684,27	1699,81
684,45	1783,78
684,64	1800,16
684,82	1744,87
685,01	1681,38
685,19	1691,62
685,38	1843,17
685,57	1652,71
685,75	1603,56
685,94	1695,72
686,12	1695,72
686,31	1734,63
686,49	1787,88
686,68	1708,01
686,86	1757,16
687,05	1705,96
687,23	1816,55
687,42	1683,43
687,60	1660,90
687,79	1841,12
687,97	1832,93
688,16	1759,21
688,34	1728,49
688,53	1581,03
688,71	1724,39
688,90	1773,54
689,08	1681,38
689,27	1656,81
689,45	1744,87
689,64	1730,53
689,82	1789,92
690,01	1751,01
690,19	1751,01
690,38	1751,01
690,56	1771,49
690,75	1681,38
690,93	1738,73
691,12	1746,92
691,30	1734,63
691,49	1695,72
691,67	1708,01
691,86	1812,45
692,04	1720,29
692,23	1697,77
692,41	1708,01
692,60	1845,22
692,78	1753,06
692,97	1716,20
693,15	1705,96
693,34	1820,64
693,52	1769,44
693,71	1644,52
693,89	1714,15
694,08	1665,00
694,26	1746,92
694,44	1697,77
694,63	1710,05
694,81	1550,31
695,00	1673,19
695,18	1755,11
695,37	1906,66
695,55	1722,34
695,74	1699,81
695,92	1687,53
696,10	1839,08
696,29	1642,47
696,47	1662,95
696,66	1597,42
696,84	1693,67
697,03	1787,88
697,21	1820,64
697,40	2338,78
697,58	1781,73
697,76	1697,77
697,95	1677,29
698,13	1621,99
698,32	1734,63
698,50	1730,53
698,68	1798,12
698,87	1734,63
699,05	1753,06
699,24	1681,38
699,42	1708,01
699,61	1714,15
699,79	1689,57
699,97	1724,39
700,16	1630,18
700,34	1564,65
700,53	1718,25
700,71	1847,27
700,89	1689,57
701,08	1652,71
701,26	1757,16
701,45	2080,74
701,63	1683,43
701,81	1669,09
702,00	1681,38
702,18	1703,91
702,37	1695,72
702,55	1746,92
702,73	1681,38
702,92	1744,87
703,10	1730,53
703,28	1714,15
703,47	1683,43
703,65	1755,11
703,84	1771,49
704,02	1669,09
704,20	1761,25
704,39	1617,90
704,57	1691,62
704,75	1753,06
704,94	1765,35
705,12	1687,53
705,30	1837,03
705,49	2271,20
705,67	4366,27
705,86	9162,61
706,04	12154,69
706,22	14147,37
706,41	15132,44
706,59	13424,44
706,77	9262,96
706,96	7077,78
707,14	6553,50
707,32	5889,96
707,51	5414,83
707,69	4753,34
707,87	4143,04
708,06	3516,36
708,24	2867,16
708,42	2344,92
708,61	2224,09
708,79	1894,37
708,97	1886,18
709,16	1828,84
709,34	1851,36
709,52	1744,87
709,71	1705,96
709,89	1738,73
710,07	1646,57
710,26	1599,46
710,44	1726,44
710,62	1744,87
710,80	1728,49
710,99	1744,87
711,17	1714,15
711,35	1730,53
711,54	1714,15
711,72	1779,68
711,90	1722,34
712,09	1703,91
712,27	1710,05
712,45	1732,58
712,63	1683,43
712,82	1722,34
713,00	1714,15
713,18	1761,25
713,37	1738,73
713,55	1738,73
713,73	1755,11
713,91	1822,69
714,10	1734,63
714,28	1703,91
714,46	1783,78
714,65	1736,68
714,83	1763,30
715,01	1785,83
715,19	1716,20
715,38	1732,58
715,56	1716,20
715,74	1677,29
715,92	1738,73
716,11	1757,16
716,29	1626,09
716,47	1718,25
716,65	1720,29
716,84	1646,57
717,02	1779,68
717,20	1587,18
717,38	1716,20
717,57	1720,29
717,75	1673,19
717,93	1687,53
718,11	1689,57
718,30	1675,24
718,48	1720,29
718,66	1777,64
718,84	1687,53
719,03	1726,44
719,21	1652,71
719,39	1814,50
719,57	1779,68
719,75	1718,25
719,94	1656,81
720,12	1687,53
720,30	1714,15
720,48	1662,95
720,67	1712,10
720,85	1693,67
721,03	1654,76
721,21	1689,57
721,39	1810,40
721,58	1800,16
721,76	1726,44
721,94	1812,45
722,12	1705,96
722,30	1822,69
722,49	1730,53
722,67	1759,21
722,85	1740,77
723,03	1656,81
723,21	1646,57
723,40	1775,59
723,58	1705,96
723,76	1755,11
723,94	1734,63
724,12	1679,33
724,30	1738,73
724,49	1779,68
724,67	1667,05
724,85	1705,96
725,03	1603,56
725,21	1767,40
725,40	1763,30
725,58	1611,75
725,76	1744,87
725,94	1742,82
726,12	1734,63
726,30	1753,06
726,49	1720,29
726,67	1683,43
726,85	1736,68
727,03	1841,12
727,21	2052,06
727,39	2959,31
727,57	3723,21
727,76	4044,74
727,94	4378,56
728,12	4409,28
728,30	3565,51
728,48	2916,31
728,66	2754,52
728,84	2537,43
729,03	2312,16
729,21	2197,47
729,39	2033,63
729,57	1855,46
729,75	1869,80
729,93	1884,13
730,11	1673,19
730,30	1734,63
730,48	1718,25
730,66	1775,59
730,84	1826,79
731,02	1697,77
731,20	1638,38
731,38	1740,77
731,56	1677,29
731,74	1669,09
731,93	1710,05
732,11	1716,20
732,29	1677,29
732,47	1796,07
732,65	1748,97
732,83	1771,49
733,01	1742,82
733,19	1617,90
733,37	1658,85
733,56	1734,63
733,74	1675,24
733,92	1834,98
734,10	1658,85
734,28	1755,11
734,46	1660,90
734,64	1671,14
734,82	1726,44
735,00	1689,57
735,18	1654,76
735,36	1705,96
735,54	1615,85
735,73	1691,62
735,91	1724,39
736,09	1734,63
736,27	1740,77
736,45	1775,59
736,63	1665,00
736,81	1685,48
736,99	1685,48
737,17	1767,40
737,35	1767,40
737,53	1685,48
737,71	1619,94
737,89	1763,30
738,07	1624,04
738,25	1656,81
738,43	1675,24
738,61	1701,86
738,80	1595,37
738,98	1697,77
739,16	1652,71
739,34	1697,77
739,52	1718,25
739,70	1742,82
739,88	1765,35
740,06	1839,08
740,24	1673,19
740,42	1755,11
740,60	1738,73
740,78	1763,30
740,96	1613,80
741,14	1673,19
741,32	1783,78
741,50	1599,46
741,68	1820,64
741,86	1804,26
742,04	1667,05
742,22	1632,23
742,40	1757,16
742,58	1789,92
742,76	1648,61
742,94	1775,59
743,12	1636,33
743,30	1667,05
743,48	1697,77
743,66	1640,42
743,84	1724,39
744,02	1710,05
744,20	1724,39
744,38	1634,28
744,56	1683,43
744,74	1746,92
744,92	1740,77
745,10	1718,25
745,28	1734,63
745,46	1822,69
745,64	1724,39
745,82	1816,55
746,00	1699,81
746,18	1738,73
746,36	1673,19
746,54	1714,15
746,72	1671,14
746,90	1665,00
747,08	1816,55
747,26	1783,78
747,44	1691,62
747,62	1734,63
747,80	1708,01
747,98	1759,21
748,15	1701,86
748,33	1794,02
748,51	1720,29
748,69	1726,44
748,87	1732,58
749,05	1630,18
749,23	1705,96
749,41	1732,58
749,59	1679,33
749,77	1843,17
749,95	1689,57
750,13	1603,56
750,31	1796,07
750,49	1681,38
750,67	1738,73
750,85	1837,03
751,03	1710,05
751,20	1839,08
751,38	1710,05
751,56	1703,91
751,74	1781,73
751,92	1701,86
752,10	1699,81
752,28	1814,50
752,46	1611,75
752,64	1683,43
752,82	1724,39
753,00	1724,39
753,18	1644,52
753,35	1714,15
753,53	1748,97
753,71	1701,86
753,89	1736,68
754,07	1748,97
754,25	1732,58
754,43	1716,20
754,61	1636,33
754,79	1679,33
754,97	1693,67
755,14	1775,59
755,32	1642,47
755,50	1722,34
755,68	1714,15
755,86	1679,33
756,04	1730,53
756,22	1617,90
756,40	1834,98
756,57	1861,60
756,75	1708,01
756,93	1777,64
757,11	1781,73
757,29	1667,05
757,47	1671,14
757,65	1646,57
757,82	1566,70
758,00	1615,85
758,18	1703,91
758,36	1660,90
758,54	1843,17
758,72	1611,75
758,90	1738,73
759,07	1648,61
759,25	1708,01
759,43	1748,97
759,61	1677,29
759,79	2181,09
759,97	1779,68
760,15	1658,85
760,32	1720,29
760,50	1705,96
760,68	1732,58
760,86	1681,38
761,04	1798,12
761,22	1712,10
761,39	1714,15
761,57	1814,50
761,75	1705,96
761,93	1748,97
762,11	1755,11
762,28	1693,67
762,46	1646,57
762,64	1830,88
762,82	1656,81
763,00	1677,29
763,18	1708,01
763,35	1728,49
763,53	1722,34
763,71	1714,15
763,89	1728,49
764,07	1728,49
764,24	1710,05
764,42	1701,86
764,60	1751,01
764,78	1720,29
764,96	1806,31
765,13	1769,44
765,31	1765,35
765,49	1742,82
765,67	1656,81
765,84	1652,71
766,02	1656,81
766,20	1660,90
766,38	1705,96
766,56	1732,58
766,73	1714,15
766,91	1665,00
767,09	1726,44
767,27	1787,88
767,44	1607,66
767,62	1675,24
767,80	1689,57
767,98	1710,05
768,15	1705,96
768,33	1787,88
768,51	1716,20
768,69	1806,31
768,87	1660,90
769,04	1675,24
769,22	1806,31
769,40	1857,51
769,58	1869,80
769,75	1791,97
769,93	1683,43
770,11	1802,21
770,28	1589,22
770,46	1697,77
770,64	1658,85
770,82	1687,53
770,99	1763,30
771,17	1759,21
771,35	1679,33
771,53	1640,42
771,70	1787,88
771,88	1734,63
772,06	1742,82
772,23	1759,21
772,41	1695,72
772,59	1710,05
772,77	1578,98
772,94	1685,48
773,12	1753,06
773,30	1675,24
773,47	1796,07
773,65	1714,15
773,83	1888,23
774,01	1644,52
774,18	1552,36
774,36	1722,34
774,54	1656,81
774,71	1724,39
774,89	1624,04
775,07	1675,24
775,24	1695,72
775,42	1593,32
775,60	1804,26
775,78	1679,33
775,95	1683,43
776,13	1669,09
776,31	1578,98
776,48	1730,53
776,66	1703,91
776,84	1669,09
777,01	1644,52
777,19	1642,47
777,37	1724,39
777,54	1685,48
777,72	1812,45
777,90	1744,87
778,07	1677,29
778,25	1898,47
778,43	1789,92
778,60	1716,20
778,78	1781,73
778,96	1722,34
779,13	1714,15
779,31	1730,53
779,49	1732,58
779,66	1785,83
779,84	1695,72
780,01	1636,33
780,19	1624,04
780,37	1859,56
780,54	1746,92
780,72	1679,33
780,90	1652,71
781,07	1730,53
781,25	1593,32
781,43	1732,58
781,60	1720,29
781,78	1718,25
781,95	1642,47
782,13	1636,33
782,31	1699,81
782,48	1587,18
782,66	1710,05
782,83	1892,32
783,01	1710,05
783,19	1777,64
783,36	1691,62
783,54	1708,01
783,72	1712,10
783,89	1615,85
784,07	1734,63
784,24	1675,24
784,42	1783,78
784,60	1626,09
784,77	1714,15
784,95	1624,04
785,12	1660,90
785,30	1718,25
785,47	1736,68
785,65	1640,42
785,83	1732,58
786,00	1689,57
786,18	1775,59
786,35	1650,66
786,53	1658,85
786,71	1755,11
786,88	1759,21
787,06	1771,49
787,23	1751,01
787,41	1660,90
787,58	1697,77
787,76	1685,48
787,94	1742,82
788,11	1732,58
788,29	1654,76
788,46	1574,89
788,64	1640,42
788,81	1658,85
788,99	1730,53
789,16	1744,87
789,34	1732,58
789,52	1705,96
789,69	1689,57
789,87	1621,99
790,04	1642,47
790,22	1662,95
790,39	1839,08
790,57	1640,42
790,74	1626,09
790,92	1781,73
791,09	1640,42
791,27	1738,73
791,44	1771,49
791,62	1724,39
791,79	1783,78
791,97	1689,57
792,15	1888,23
792,32	1722,34
792,50	1755,11
792,67	1810,40
792,85	1861,60
793,02	1763,30
793,20	1738,73
793,37	1525,74
793,55	1656,81
793,72	1611,75
793,90	1755,11
794,07	1660,90
794,25	1634,28
794,42	1728,49
794,60	1632,23
794,77	1761,25
794,95	1720,29
795,12	1693,67
795,30	1765,35
795,47	1570,79
795,65	1939,43
795,82	1699,81
796,00	1677,29
796,17	1691,62
796,34	1652,71
796,52	1734,63
796,69	1775,59
796,87	1730,53
797,04	1773,54
797,22	1687,53
797,39	1746,92
797,57	1802,21
797,74	1693,67
797,92	1693,67
798,09	1753,06
798,27	1724,39
798,44	1697,77
798,62	1665,00
798,79	1691,62
798,96	1742,82
799,14	1712,10
799,31	1837,03
799,49	1705,96
799,66	1669,09
799,84	1742,82
800,01	1642,47
800,19	1730,53
800,36	1558,50
800,53	1740,77
800,71	1781,73
800,88	1818,60
801,06	1665,00
801,23	1656,81
801,41	1628,14
801,58	1730,53
801,75	1697,77
801,93	1720,29
802,10	1746,92
802,28	1751,01
802,45	1708,01
802,63	1808,36
802,80	1767,40
802,97	1630,18
803,15	1687,53
803,32	1703,91
803,50	1640,42
803,67	1746,92
803,84	1705,96
804,02	1650,66
804,19	1714,15
804,37	1632,23
804,54	1716,20
804,71	1687,53
804,89	1679,33
805,06	1689,57
805,24	1634,28
805,41	1673,19
805,58	1660,90
805,76	1775,59
805,93	1714,15
806,10	1794,02
806,28	1822,69
806,45	1802,21
806,63	1744,87
806,80	1794,02
806,97	1767,40
807,15	1765,35
807,32	1673,19
807,49	1705,96
807,67	1656,81
807,84	1746,92
808,01	1669,09
808,19	1824,74
808,36	1845,22
808,54	1648,61
808,71	1621,99
808,88	1669,09
809,06	1736,68
809,23	1791,97
809,40	1679,33
809,58	1777,64
809,75	1654,76
809,92	1673,19
810,10	1863,65
810,27	1791,97
810,44	1701,86
810,62	1751,01
810,79	1599,46
810,96	1685,48
811,14	1701,86
811,31	1724,39
811,48	1777,64
811,66	1681,38
811,83	1832,93
812,00	1730,53
812,18	1673,19
812,35	1855,46
812,52	1689,57
812,69	1751,01
812,87	1701,86
813,04	1681,38
813,21	1689,57
813,39	1669,09
813,56	1628,14
813,73	1785,83
813,91	1630,18
814,08	1705,96
814,25	1736,68
814,42	1624,04
814,60	1712,10
814,77	1763,30
814,94	1720,29
815,12	1775,59
815,29	1779,68
815,46	1628,14
815,63	1736,68
815,81	1734,63
815,98	1669,09
816,15	1662,95
816,33	1734,63
816,50	1652,71
816,67	1742,82
816,84	1685,48
817,02	1650,66
817,19	1613,80
817,36	1640,42
817,53	1769,44
817,71	1654,76
817,88	1777,64
818,05	1689,57
818,22	1568,74
818,40	1869,80
818,57	1755,11
818,74	1710,05
818,91	1656,81
819,09	1714,15
819,26	1789,92
819,43	1671,14
819,60	1705,96
819,78	1701,86
819,95	1781,73
820,12	1705,96
820,29	1789,92
820,47	1724,39
820,64	1718,25
820,81	1654,76
820,98	1644,52
821,15	1681,38
821,33	1755,11
821,50	1642,47
821,67	1685,48
821,84	1695,72
822,02	1777,64
822,19	1783,78
822,36	1640,42
822,53	1689,57
822,70	1550,31
822,88	1691,62
823,05	1812,45
823,22	1726,44
823,39	1755,11
823,56	1683,43
823,74	1810,40
823,91	1669,09
824,08	1642,47
824,25	1660,90
824,42	1787,88
824,60	1617,90
824,77	1685,48
824,94	1650,66
825,11	1765,35
825,28	1714,15
825,45	1658,85
825,63	1757,16
825,80	1646,57
825,97	1794,02
826,14	1677,29
826,31	1632,23
826,48	1740,77
826,66	1714,15
826,83	1650,66
827,00	1679,33
827,17	1708,01
827,34	1710,05
827,51	1685,48
827,69	1736,68
827,86	1634,28
828,03	1667,05
828,20	1705,96
828,37	1705,96
828,54	1703,91
828,71	1705,96
828,89	1826,79
829,06	1695,72
829,23	1744,87
829,40	1697,77
829,57	1701,86
829,74	1742,82
829,91	1697,77
830,09	1634,28
830,26	1751,01
830,43	1896,42
830,60	1775,59
830,77	1714,15
830,94	1804,26
831,11	1775,59
831,28	1681,38
831,46	1767,40
831,63	1640,42
831,80	1804,26
831,97	1662,95
832,14	1683,43
832,31	1757,16
832,48	1624,04
832,65	1652,71
832,82	1740,77
832,99	1703,91
833,17	1599,46
833,34	1832,93
833,51	1728,49
833,68	1630,18
833,85	1757,16
834,02	1726,44
834,19	1671,14
834,36	1630,18
834,53	1691,62
834,70	1804,26
834,87	1763,30
835,04	1691,62
835,22	1656,81
835,39	1638,38
835,56	1652,71
835,73	1771,49
835,90	1695,72
836,07	1736,68
836,24	1775,59
836,41	1601,51
836,58	1642,47
836,75	1728,49
836,92	1656,81
837,09	1583,08
837,26	1843,17
837,43	1736,68
837,60	1685,48
837,77	1689,57
837,94	1669,09
838,12	1740,77
838,29	1726,44
838,46	1617,90
838,63	1646,57
838,80	1802,21
838,97	1755,11
839,14	1679,33
839,31	1755,11
839,48	1689,57
839,65	1683,43
839,82	1734,63
839,99	1804,26
840,16	1744,87
840,33	1722,34
840,50	1687,53
840,67	1669,09
840,84	1595,37
841,01	1751,01
841,18	1722,34
841,35	1644,52
841,52	1826,79
841,69	1810,40
841,86	1660,90
842,03	1648,61
842,20	1759,21
842,37	1759,21
842,54	1757,16
842,71	1693,67
842,88	1679,33
843,05	1787,88
843,22	1697,77
843,39	1763,30
843,56	1599,46
843,73	1732,58
843,90	1773,54
844,07	1687,53
844,24	1689,57
844,41	1787,88
844,58	1726,44
844,75	1640,42
844,92	1746,92
845,09	1798,12
845,26	1683,43
845,43	1679,33
845,60	1658,85
845,77	1787,88
845,94	1665,00
846,10	1773,54
846,27	1556,46
846,44	1634,28
846,61	1669,09
846,78	1746,92
846,95	1775,59
847,12	1720,29
847,29	1675,24
847,46	1648,61
847,63	1777,64
847,80	1701,86
847,97	1802,21
848,14	1773,54
848,31	1763,30
848,48	1642,47
848,65	1677,29
848,82	1683,43
848,98	1832,93
849,15	1763,30
849,32	1746,92
849,49	1742,82
849,66	1740,77
849,83	1669,09
850,00	1640,42
850,17	1789,92
850,34	1753,06
850,51	1646,57
850,68	1691,62
850,85	1834,98
851,01	1718,25
851,18	1689,57
851,35	1662,95
851,52	1710,05
851,69	1787,88
851,86	1607,66
852,03	1722,34
852,20	1687,53
852,37	1697,77
852,53	1548,26
852,70	1699,81
852,87	1779,68
853,04	1798,12
853,21	1708,01
853,38	1785,83
853,55	1783,78
853,72	1832,93
853,89	1673,19
854,05	1607,66
854,22	1720,29
854,39	1697,77
854,56	1669,09
854,73	1726,44
854,90	1673,19
855,07	1683,43
855,23	1648,61
855,40	1701,86
855,57	1679,33
855,74	1656,81
855,91	1916,90
856,08	1619,94
856,25	1648,61
856,41	1679,33
856,58	1617,90
856,75	1691,62
856,92	1654,76
857,09	1755,11
857,26	1708,01
857,42	1640,42
857,59	1767,40
857,76	1669,09
857,93	1699,81
858,10	1718,25
858,27	1642,47
858,43	1722,34
858,60	1671,14
858,77	1599,46
858,94	1658,85
859,11	1828,84
859,27	1681,38
859,44	1669,09
859,61	1796,07
859,78	1804,26
859,95	1718,25
860,12	1683,43
860,28	1826,79
860,45	1818,60
860,62	1726,44
860,79	1693,67
860,95	1654,76
861,12	1662,95
861,29	1675,24
861,46	1769,44
861,63	1691,62
861,79	1681,38
861,96	1609,70
862,13	1691,62
862,30	1734,63
862,47	1630,18
862,63	1648,61
862,80	1806,31
862,97	1687,53
863,14	1810,40
863,30	1726,44
863,47	1656,81
863,64	1744,87
863,81	1755,11
863,97	1755,11
864,14	1742,82
864,31	1724,39
864,48	1728,49
864,65	1705,96
864,81	1802,21
864,98	1761,25
865,15	1708,01
865,32	1734,63
865,48	1761,25
865,65	1794,02
865,82	1665,00
865,98	1722,34
866,15	1730,53
866,32	1714,15
866,49	1630,18
866,65	1853,41
866,82	1691,62
866,99	1705,96
867,16	1671,14
867,32	1689,57
867,49	1632,23
867,66	1640,42
867,83	1652,71
867,99	1626,09
868,16	1628,14
868,33	1628,14
868,49	1757,16
868,66	1568,74
868,83	1728,49
868,99	1675,24
869,16	1796,07
869,33	1816,55
869,50	1748,97
869,66	1730,53
869,83	1691,62
870,00	1701,86
870,16	1767,40
870,33	1736,68
870,50	1755,11
870,66	1726,44
870,83	1832,93
871,00	1652,71
871,17	1656,81
871,33	1708,01
871,50	1677,29
871,67	1697,77
871,83	1697,77
872,00	1800,16
872,17	1740,77
872,33	1869,80
872,50	1722,34
872,67	1699,81
872,83	1771,49
873,00	1740,77
873,17	1730,53
873,33	1824,74
873,50	1701,86
873,67	1660,90
873,83	1607,66
874,00	1679,33
874,16	1783,78
874,33	1751,01
874,50	1658,85
874,66	1720,29
874,83	1665,00
875,00	1841,12
875,16	1751,01
875,33	1773,54
875,50	1578,98
875,66	1632,23
875,83	1783,78
875,99	1771,49
876,16	1714,15
876,33	1609,70
876,49	1691,62
876,66	1732,58
876,83	1742,82
876,99	1593,32
877,16	1720,29
877,32	1716,20
877,49	1703,91
877,66	1718,25
877,82	1763,30
877,99	1714,15
878,15	1759,21
878,32	1652,71
878,49	1714,15
878,65	1675,24
878,82	1808,36
878,98	1708,01
879,15	1738,73
879,32	1746,92
879,48	1759,21
879,65	1628,14
879,81	1662,95
879,98	1705,96
880,15	1720,29
880,31	1744,87
880,48	1624,04
880,64	1775,59
880,81	1693,67
880,97	1763,30
881,14	1816,55
881,31	1681,38
881,47	1808,36
881,64	1716,20
881,80	1613,80
881,97	1697,77
882,13	1769,44
882,30	1714,15
882,47	1679,33
882,63	1628,14
882,80	1722,34
882,96	1769,44
883,13	1785,83
883,29	1714,15
883,46	1755,11
883,62	1802,21
883,79	1748,97
883,95	1757,16
884,12	1705,96
884,29	1736,68
884,45	1720,29
884,62	1720,29
884,78	1611,75
884,95	1777,64
885,11	1648,61
885,28	1695,72
885,44	1671,14
885,61	1761,25
885,77	1775,59
885,94	1708,01
886,10	1744,87
886,27	1675,24
886,43	1740,77
886,60	1699,81
886,76	1683,43
886,93	1654,76
887,09	1746,92
887,26	1583,08
887,42	1626,09
887,59	1724,39
887,75	1775,59
887,92	1742,82
888,08	1699,81
888,25	1740,77
888,41	1724,39
888,58	1685,48
888,74	1718,25
888,91	1685,48
>>>>>End Processed Spectral Data<<<<<
