SpectraSuite Data File
++++++++++++++++++++++++++++++++++++
Date: Mon Jun 06 17:31:37 CEST 2016
User: root
Dark Spectrum Present: No
Reference Spectrum Present: No
Number of Sampled Component Spectra: 1
Spectrometers: USB4C02835
Integration Time (usec): 100000 (USB4C02835)
Spectra Averaged: 1 (USB4C02835)
Boxcar Smoothing: 0 (USB4C02835)
Correct for Electrical Dark: No (USB4C02835)
Strobe/Lamp Enabled: No (USB4C02835)
Correct for Detector Non-linearity: No (USB4C02835)
Correct for Stray Light: No (USB4C02835)
Number of Pixels in Processed Spectrum: 3648
>>>>>Begin Processed Spectral Data<<<<<
177,47	1490,92
177,69	1490,92
177,91	1490,92
178,13	1484,78
178,36	1480,68
178,58	1650,66
178,80	1777,64
179,02	1685,48
179,24	1634,28
179,46	1703,91
179,68	1767,40
179,90	1710,05
180,13	1720,29
180,35	1648,61
180,57	1681,38
180,79	1814,50
181,01	1683,43
181,23	1746,92
181,45	1757,16
181,67	1775,59
181,90	1732,58
182,12	1648,61
182,34	1654,76
182,56	1744,87
182,78	1732,58
183,00	1695,72
183,22	1681,38
183,44	1671,14
183,66	1857,51
183,89	1699,81
184,11	1681,38
184,33	1816,55
184,55	1777,64
184,77	1744,87
184,99	1699,81
185,21	1746,92
185,43	1933,28
185,65	1605,61
185,87	1779,68
186,10	1832,93
186,32	1800,16
186,54	1718,25
186,76	1732,58
186,98	1816,55
187,20	1746,92
187,42	1669,09
187,64	1701,86
187,86	1681,38
188,08	1726,44
188,30	1691,62
188,52	1640,42
188,75	1734,63
188,97	1763,30
189,19	1689,57
189,41	1673,19
189,63	1708,01
189,85	1710,05
190,07	1675,24
190,29	1665,00
190,51	1796,07
190,73	1624,04
190,95	1781,73
191,17	1708,01
191,39	1621,99
191,61	1705,96
191,84	1783,78
192,06	1744,87
192,28	1646,57
192,50	1859,56
192,72	1720,29
192,94	1697,77
193,16	1757,16
193,38	1771,49
193,60	1652,71
193,82	1669,09
194,04	1728,49
194,26	1734,63
194,48	1691,62
194,70	1646,57
194,92	1671,14
195,14	1787,88
195,36	1687,53
195,58	1675,24
195,80	1732,58
196,02	1648,61
196,24	1726,44
196,46	1728,49
196,69	1722,34
196,91	1837,03
197,13	1632,23
197,35	1665,00
197,57	1810,40
197,79	1705,96
198,01	1718,25
198,23	1724,39
198,45	1738,73
198,67	1578,98
198,89	1669,09
199,11	1714,15
199,33	1673,19
199,55	1605,61
199,77	1636,33
199,99	1796,07
200,21	1671,14
200,43	1708,01
200,65	1634,28
200,87	1615,85
201,09	1771,49
201,31	1789,92
201,53	1767,40
201,75	1767,40
201,97	1714,15
202,19	1742,82
202,41	1687,53
202,63	1834,98
202,85	1652,71
203,07	1771,49
203,29	1683,43
203,51	1689,57
203,73	1660,90
203,95	1814,50
204,17	1730,53
204,39	1775,59
204,61	1724,39
204,83	1648,61
205,05	1714,15
205,27	1710,05
205,49	1820,64
205,71	1787,88
205,93	1699,81
206,15	1718,25
206,37	1763,30
206,59	1755,11
206,81	1654,76
207,03	1652,71
207,25	1669,09
207,47	1773,54
207,69	1683,43
207,91	1773,54
208,13	1779,68
208,34	1656,81
208,56	1648,61
208,78	1730,53
209,00	1689,57
209,22	1644,52
209,44	1701,86
209,66	1624,04
209,88	1748,97
210,10	1736,68
210,32	1787,88
210,54	1785,83
210,76	1753,06
210,98	1839,08
211,20	1652,71
211,42	1656,81
211,64	1828,84
211,86	1759,21
212,08	1738,73
212,30	1740,77
212,52	1708,01
212,74	1626,09
212,96	1736,68
213,17	1697,77
213,39	1755,11
213,61	1877,99
213,83	1742,82
214,05	1683,43
214,27	1751,01
214,49	1605,61
214,71	1710,05
214,93	1814,50
215,15	1726,44
215,37	1816,55
215,59	1699,81
215,81	1732,58
216,03	1787,88
216,24	1732,58
216,46	1705,96
216,68	1665,00
216,90	1777,64
217,12	1857,51
217,34	1640,42
217,56	1779,68
217,78	1769,44
218,00	1746,92
218,22	1695,72
218,44	1734,63
218,66	1720,29
218,87	1871,84
219,09	1679,33
219,31	1771,49
219,53	1757,16
219,75	1681,38
219,97	1675,24
220,19	1742,82
220,41	1744,87
220,63	1767,40
220,85	1759,21
221,06	1689,57
221,28	1779,68
221,50	1775,59
221,72	1681,38
221,94	1656,81
222,16	1701,86
222,38	1742,82
222,60	1769,44
222,82	1677,29
223,03	1712,10
223,25	1718,25
223,47	1810,40
223,69	1826,79
223,91	1683,43
224,13	1687,53
224,35	1689,57
224,57	1748,97
224,78	1736,68
225,00	1687,53
225,22	1677,29
225,44	1701,86
225,66	1779,68
225,88	1660,90
226,10	1769,44
226,32	1787,88
226,53	1828,84
226,75	1697,77
226,97	1728,49
227,19	1755,11
227,41	1691,62
227,63	1642,47
227,85	1652,71
228,06	1759,21
228,28	1720,29
228,50	1781,73
228,72	1730,53
228,94	1697,77
229,16	1640,42
229,37	1652,71
229,59	1611,75
229,81	1691,62
230,03	1742,82
230,25	1644,52
230,47	1677,29
230,69	1619,94
230,90	1783,78
231,12	1628,14
231,34	1742,82
231,56	1853,41
231,78	1595,37
232,00	1734,63
232,21	1658,85
232,43	1701,86
232,65	1624,04
232,87	1769,44
233,09	1650,66
233,30	1802,21
233,52	1755,11
233,74	1712,10
233,96	1619,94
234,18	1751,01
234,40	1693,67
234,61	1722,34
234,83	1607,66
235,05	1720,29
235,27	1814,50
235,49	1796,07
235,70	1699,81
235,92	1779,68
236,14	1732,58
236,36	1906,66
236,58	1660,90
236,79	1775,59
237,01	1736,68
237,23	1689,57
237,45	1832,93
237,67	1578,98
237,88	1714,15
238,10	1787,88
238,32	1714,15
238,54	1781,73
238,76	1734,63
238,97	1691,62
239,19	1662,95
239,41	1738,73
239,63	1804,26
239,85	1783,78
240,06	1673,19
240,28	1705,96
240,50	1843,17
240,72	1783,78
240,93	1697,77
241,15	1734,63
241,37	1714,15
241,59	1732,58
241,81	1632,23
242,02	1806,31
242,24	1685,48
242,46	1730,53
242,68	1626,09
242,89	1716,20
243,11	1693,67
243,33	1730,53
243,55	1759,21
243,76	1685,48
243,98	1689,57
244,20	1710,05
244,42	1685,48
244,64	1720,29
244,85	1662,95
245,07	1675,24
245,29	1751,01
245,51	1726,44
245,72	1701,86
245,94	1757,16
246,16	1738,73
246,38	1830,88
246,59	1660,90
246,81	1705,96
247,03	1716,20
247,24	1665,00
247,46	1671,14
247,68	1732,58
247,90	1683,43
248,11	1701,86
248,33	1798,12
248,55	1669,09
248,77	1771,49
248,98	1714,15
249,20	1777,64
249,42	1730,53
249,64	1763,30
249,85	1708,01
250,07	1669,09
250,29	1789,92
250,50	1724,39
250,72	1613,80
250,94	1708,01
251,16	1900,52
251,37	1665,00
251,59	1740,77
251,81	1761,25
252,02	1722,34
252,24	1691,62
252,46	1834,98
252,68	1673,19
252,89	1697,77
253,11	1648,61
253,33	1861,60
253,54	1804,26
253,76	1724,39
253,98	1697,77
254,20	1685,48
254,41	1624,04
254,63	1675,24
254,85	1662,95
255,06	1712,10
255,28	1705,96
255,50	1708,01
255,71	1714,15
255,93	1634,28
256,15	1740,77
256,36	1746,92
256,58	1636,33
256,80	1748,97
257,02	1714,15
257,23	1722,34
257,45	1697,77
257,67	1781,73
257,88	1617,90
258,10	1781,73
258,32	1791,97
258,53	1665,00
258,75	1867,75
258,97	1673,19
259,18	1720,29
259,40	1685,48
259,62	1742,82
259,83	1841,12
260,05	1751,01
260,27	1968,10
260,48	1808,36
260,70	1658,85
260,92	1665,00
261,13	1714,15
261,35	1697,77
261,57	1755,11
261,78	1611,75
262,00	1703,91
262,22	1681,38
262,43	1714,15
262,65	1619,94
262,86	1673,19
263,08	1812,45
263,30	1701,86
263,51	1650,66
263,73	1699,81
263,95	1826,79
264,16	1636,33
264,38	1673,19
264,60	1677,29
264,81	1693,67
265,03	1744,87
265,25	1761,25
265,46	1642,47
265,68	1794,02
265,89	1767,40
266,11	1562,60
266,33	1763,30
266,54	1708,01
266,76	1744,87
266,98	1769,44
267,19	1816,55
267,41	1769,44
267,62	1703,91
267,84	1677,29
268,06	1775,59
268,27	1740,77
268,49	1742,82
268,70	1734,63
268,92	1730,53
269,14	1681,38
269,35	1615,85
269,57	1718,25
269,79	1757,16
270,00	1722,34
270,22	1798,12
270,43	1601,51
270,65	1626,09
270,87	1789,92
271,08	1783,78
271,30	1769,44
271,51	1730,53
271,73	1755,11
271,95	1742,82
272,16	1759,21
272,38	1683,43
272,59	1771,49
272,81	1777,64
273,02	1804,26
273,24	1757,16
273,46	1773,54
273,67	1699,81
273,89	1679,33
274,10	1665,00
274,32	1767,40
274,54	1787,88
274,75	1724,39
274,97	1708,01
275,18	1712,10
275,40	1755,11
275,61	1765,35
275,83	1675,24
276,05	1669,09
276,26	1701,86
276,48	1785,83
276,69	1646,57
276,91	1619,94
277,12	1796,07
277,34	1724,39
277,55	1744,87
277,77	1705,96
277,99	1675,24
278,20	1662,95
278,42	1626,09
278,63	1665,00
278,85	1665,00
279,06	1665,00
279,28	1783,78
279,49	1773,54
279,71	1691,62
279,93	1644,52
280,14	1761,25
280,36	1628,14
280,57	1820,64
280,79	1740,77
281,00	1710,05
281,22	1753,06
281,43	1767,40
281,65	1683,43
281,86	1699,81
282,08	1746,92
282,29	1859,56
282,51	1675,24
282,73	1660,90
282,94	1607,66
283,16	1738,73
283,37	1812,45
283,59	1691,62
283,80	1685,48
284,02	1689,57
284,23	1740,77
284,45	1687,53
284,66	1710,05
284,88	1683,43
285,09	1794,02
285,31	1701,86
285,52	1765,35
285,74	1613,80
285,95	1738,73
286,17	1689,57
286,38	1730,53
286,60	1619,94
286,81	1705,96
287,03	1761,25
287,24	1650,66
287,46	1738,73
287,67	1732,58
287,89	1865,70
288,10	1679,33
288,32	1716,20
288,53	1746,92
288,75	1777,64
288,96	1705,96
289,18	1695,72
289,39	1695,72
289,61	1738,73
289,82	1873,89
290,04	1703,91
290,25	1632,23
290,47	1720,29
290,68	1683,43
290,90	1757,16
291,11	1662,95
291,33	1806,31
291,54	1646,57
291,76	1681,38
291,97	1695,72
292,18	1738,73
292,40	1669,09
292,61	1748,97
292,83	1816,55
293,04	1734,63
293,26	1638,38
293,47	1724,39
293,69	1683,43
293,90	1701,86
294,12	1757,16
294,33	1693,67
294,55	1720,29
294,76	1763,30
294,97	1740,77
295,19	1845,22
295,40	1722,34
295,62	1748,97
295,83	1773,54
296,05	1677,29
296,26	1726,44
296,48	1708,01
296,69	1757,16
296,90	1703,91
297,12	1759,21
297,33	1779,68
297,55	1728,49
297,76	1738,73
297,98	1804,26
298,19	1667,05
298,41	1699,81
298,62	1689,57
298,83	1785,83
299,05	1785,83
299,26	1662,95
299,48	1640,42
299,69	1705,96
299,90	1757,16
300,12	1673,19
300,33	1789,92
300,55	1755,11
300,76	1740,77
300,98	1693,67
301,19	1683,43
301,40	1738,73
301,62	1689,57
301,83	1748,97
302,05	1685,48
302,26	1734,63
302,47	1746,92
302,69	1603,56
302,90	1720,29
303,12	1566,70
303,33	1728,49
303,54	1806,31
303,76	1669,09
303,97	1689,57
304,19	1804,26
304,40	1644,52
304,61	1742,82
304,83	1804,26
305,04	1765,35
305,26	1771,49
305,47	1689,57
305,68	1632,23
305,90	1658,85
306,11	1718,25
306,33	1701,86
306,54	1652,71
306,75	1665,00
306,97	1615,85
307,18	1710,05
307,39	1765,35
307,61	1796,07
307,82	1685,48
308,04	1730,53
308,25	1658,85
308,46	1808,36
308,68	1751,01
308,89	1685,48
309,10	1775,59
309,32	1787,88
309,53	1730,53
309,74	1816,55
309,96	1669,09
310,17	1810,40
310,39	1730,53
310,60	1789,92
310,81	1697,77
311,03	1703,91
311,24	1683,43
311,45	1781,73
311,67	1896,42
311,88	1726,44
312,09	1656,81
312,31	1730,53
312,52	1677,29
312,73	1757,16
312,95	1556,46
313,16	1689,57
313,37	1759,21
313,59	1771,49
313,80	1726,44
314,01	1800,16
314,23	1673,19
314,44	1689,57
314,65	1646,57
314,87	1636,33
315,08	1669,09
315,29	1626,09
315,51	1642,47
315,72	1656,81
315,93	1867,75
316,15	1832,93
316,36	1665,00
316,57	1777,64
316,79	1767,40
317,00	1726,44
317,21	1708,01
317,43	1732,58
317,64	1732,58
317,85	1693,67
318,07	1765,35
318,28	1730,53
318,49	1832,93
318,70	1920,99
318,92	1855,46
319,13	1812,45
319,34	1898,47
319,56	1828,84
319,77	1845,22
319,98	1791,97
320,20	1796,07
320,41	1746,92
320,62	1720,29
320,83	1640,42
321,05	1863,65
321,26	1798,12
321,47	1783,78
321,69	1804,26
321,90	1675,24
322,11	1712,10
322,32	1693,67
322,54	1757,16
322,75	1712,10
322,96	1802,21
323,18	1640,42
323,39	1605,61
323,60	1652,71
323,81	1755,11
324,03	1705,96
324,24	1697,77
324,45	1834,98
324,66	1738,73
324,88	1806,31
325,09	1757,16
325,30	1660,90
325,52	1689,57
325,73	1773,54
325,94	1679,33
326,15	1611,75
326,37	1687,53
326,58	1859,56
326,79	1751,01
327,00	1755,11
327,22	1746,92
327,43	1652,71
327,64	1626,09
327,85	1677,29
328,07	1755,11
328,28	1851,36
328,49	1714,15
328,70	1734,63
328,92	1798,12
329,13	1716,20
329,34	1779,68
329,55	1765,35
329,76	1773,54
329,98	1683,43
330,19	1714,15
330,40	1751,01
330,61	1748,97
330,83	1771,49
331,04	1697,77
331,25	1751,01
331,46	1667,05
331,68	1601,51
331,89	1804,26
332,10	1695,72
332,31	1665,00
332,52	1734,63
332,74	1689,57
332,95	1648,61
333,16	1701,86
333,37	1712,10
333,58	1712,10
333,80	1703,91
334,01	1656,81
334,22	1658,85
334,43	1560,55
334,64	1718,25
334,86	1611,75
335,07	1617,90
335,28	1800,16
335,49	1695,72
335,70	1744,87
335,92	1763,30
336,13	1914,85
336,34	1708,01
336,55	1695,72
336,76	1660,90
336,98	1708,01
337,19	1660,90
337,40	1775,59
337,61	1859,56
337,82	1701,86
338,04	1761,25
338,25	1699,81
338,46	1662,95
338,67	1671,14
338,88	1693,67
339,09	1691,62
339,31	1751,01
339,52	1648,61
339,73	1595,37
339,94	1703,91
340,15	1734,63
340,36	1673,19
340,58	1683,43
340,79	1650,66
341,00	1757,16
341,21	1671,14
341,42	1820,64
341,63	1703,91
341,85	1757,16
342,06	1689,57
342,27	1734,63
342,48	1714,15
342,69	1728,49
342,90	1773,54
343,12	1759,21
343,33	1693,67
343,54	1818,60
343,75	1806,31
343,96	1742,82
344,17	1685,48
344,38	1798,12
344,60	1726,44
344,81	1673,19
345,02	1734,63
345,23	1734,63
345,44	1763,30
345,65	1763,30
345,86	1681,38
346,07	1689,57
346,29	1656,81
346,50	1775,59
346,71	1732,58
346,92	1857,51
347,13	1912,80
347,34	1734,63
347,55	1767,40
347,76	1685,48
347,98	1636,33
348,19	1699,81
348,40	1814,50
348,61	1757,16
348,82	1802,21
349,03	1806,31
349,24	1712,10
349,45	1800,16
349,66	1568,74
349,88	1757,16
350,09	1736,68
350,30	1820,64
350,51	1794,02
350,72	1751,01
350,93	1736,68
351,14	1667,05
351,35	1671,14
351,56	1689,57
351,77	1689,57
351,99	1677,29
352,20	1816,55
352,41	1810,40
352,62	1603,56
352,83	1701,86
353,04	1624,04
353,25	1736,68
353,46	1767,40
353,67	1808,36
353,88	1640,42
354,09	1708,01
354,30	1677,29
354,52	1761,25
354,73	1669,09
354,94	1757,16
355,15	1708,01
355,36	1753,06
355,57	1669,09
355,78	1685,48
355,99	1667,05
356,20	1724,39
356,41	1796,07
356,62	1705,96
356,83	1724,39
357,04	1806,31
357,25	1699,81
357,46	1785,83
357,68	1611,75
357,89	1730,53
358,10	1697,77
358,31	1722,34
358,52	1699,81
358,73	1630,18
358,94	1613,80
359,15	1679,33
359,36	1779,68
359,57	1728,49
359,78	1722,34
359,99	1720,29
360,20	1679,33
360,41	1722,34
360,62	1726,44
360,83	1738,73
361,04	1730,53
361,25	1826,79
361,46	1877,99
361,67	1714,15
361,88	1740,77
362,09	1710,05
362,30	1755,11
362,51	1675,24
362,72	1710,05
362,93	1759,21
363,14	1703,91
363,35	1804,26
363,56	1683,43
363,78	1765,35
363,99	1722,34
364,20	1648,61
364,41	1714,15
364,62	1800,16
364,83	1689,57
365,04	1697,77
365,25	1681,38
365,46	1837,03
365,67	1695,72
365,88	1624,04
366,09	1667,05
366,30	1738,73
366,51	1732,58
366,72	1589,22
366,93	1677,29
367,14	1642,47
367,35	1767,40
367,56	1695,72
367,77	1843,17
367,98	1712,10
368,18	1763,30
368,39	1769,44
368,60	1675,24
368,81	1785,83
369,02	1787,88
369,23	1656,81
369,44	1619,94
369,65	1722,34
369,86	1673,19
370,07	1746,92
370,28	1646,57
370,49	1736,68
370,70	1722,34
370,91	1652,71
371,12	1628,14
371,33	1755,11
371,54	1726,44
371,75	1748,97
371,96	1607,66
372,17	1722,34
372,38	1699,81
372,59	1761,25
372,80	1687,53
373,01	1728,49
373,22	1718,25
373,43	1740,77
373,64	1724,39
373,85	1783,78
374,06	1851,36
374,26	1783,78
374,47	1759,21
374,68	1802,21
374,89	1722,34
375,10	1744,87
375,31	1746,92
375,52	1734,63
375,73	1689,57
375,94	1691,62
376,15	1882,08
376,36	1667,05
376,57	1699,81
376,78	1669,09
376,99	1812,45
377,20	1804,26
377,40	1708,01
377,61	1898,47
377,82	1693,67
378,03	1785,83
378,24	1767,40
378,45	1759,21
378,66	1755,11
378,87	1662,95
379,08	1554,41
379,29	1728,49
379,50	1839,08
379,71	1695,72
379,91	1748,97
380,12	1769,44
380,33	1687,53
380,54	1681,38
380,75	1773,54
380,96	1697,77
381,17	1849,32
381,38	1755,11
381,59	1783,78
381,80	1724,39
382,00	1863,65
382,21	1734,63
382,42	1824,74
382,63	1884,13
382,84	1806,31
383,05	1808,36
383,26	1830,88
383,47	1665,00
383,68	1781,73
383,88	1751,01
384,09	1765,35
384,30	1759,21
384,51	1800,16
384,72	1742,82
384,93	1673,19
385,14	1824,74
385,35	1824,74
385,55	1628,14
385,76	1820,64
385,97	1742,82
386,18	1658,85
386,39	1685,48
386,60	1771,49
386,81	1665,00
387,02	1634,28
387,22	1652,71
387,43	1816,55
387,64	1773,54
387,85	1888,23
388,06	2217,95
388,27	4222,91
388,48	6768,54
388,68	8271,75
388,89	9625,45
389,10	9881,45
389,31	8660,86
389,52	7784,33
389,73	6930,33
389,93	6426,53
390,14	5969,83
390,35	5199,79
390,56	4601,79
390,77	3745,73
390,98	3043,28
391,18	2541,53
391,39	2211,81
391,60	1871,84
391,81	1777,64
392,02	1683,43
392,23	1880,04
392,43	1728,49
392,64	1748,97
392,85	1665,00
393,06	1818,60
393,27	1701,86
393,47	1640,42
393,68	1800,16
393,89	1720,29
394,10	1808,36
394,31	1681,38
394,52	1646,57
394,72	1734,63
394,93	1765,35
395,14	1685,48
395,35	1757,16
395,56	1640,42
395,76	1785,83
395,97	1834,98
396,18	1849,32
396,39	1832,93
396,60	2084,83
396,80	1910,75
397,01	1908,71
397,22	1884,13
397,43	1798,12
397,64	1689,57
397,84	1771,49
398,05	1906,66
398,26	1763,30
398,47	1757,16
398,67	1800,16
398,88	1742,82
399,09	1730,53
399,30	1726,44
399,51	1779,68
399,71	1652,71
399,92	1763,30
400,13	1773,54
400,34	1685,48
400,54	1757,16
400,75	1773,54
400,96	1738,73
401,17	1802,21
401,37	1753,06
401,58	1691,62
401,79	1724,39
402,00	1877,99
402,21	1941,47
402,41	2015,20
402,62	1945,57
402,83	2013,15
403,04	1992,67
403,24	2021,35
403,45	1824,74
403,66	1910,75
403,87	1834,98
404,07	1927,14
404,28	1980,39
404,49	1849,32
404,70	1802,21
404,90	1748,97
405,11	1834,98
405,32	1808,36
405,52	1738,73
405,73	1701,86
405,94	1703,91
406,15	1755,11
406,35	1837,03
406,56	1787,88
406,77	1814,50
406,98	1738,73
407,18	1689,57
407,39	1806,31
407,60	1740,77
407,80	1761,25
408,01	1619,94
408,22	1800,16
408,43	1656,81
408,63	1724,39
408,84	1724,39
409,05	1765,35
409,25	1624,04
409,46	1697,77
409,67	1718,25
409,88	1736,68
410,08	1740,77
410,29	1660,90
410,50	1773,54
410,70	1783,78
410,91	1691,62
411,12	1757,16
411,32	1720,29
411,53	1689,57
411,74	1796,07
411,95	1810,40
412,15	1783,78
412,36	1804,26
412,57	1820,64
412,77	1796,07
412,98	1740,77
413,19	1748,97
413,39	1738,73
413,60	1810,40
413,81	1783,78
414,01	1691,62
414,22	1691,62
414,43	1779,68
414,63	1662,95
414,84	1820,64
415,05	1820,64
415,25	1687,53
415,46	1779,68
415,67	1740,77
415,87	1710,05
416,08	1740,77
416,29	1646,57
416,49	1812,45
416,70	1744,87
416,91	1726,44
417,11	1650,66
417,32	1763,30
417,53	1753,06
417,73	1789,92
417,94	1687,53
418,15	1675,24
418,35	1705,96
418,56	1720,29
418,77	1851,36
418,97	1687,53
419,18	1665,00
419,38	1624,04
419,59	1675,24
419,80	1738,73
420,00	1679,33
420,21	1779,68
420,42	1773,54
420,62	1732,58
420,83	1697,77
421,04	1710,05
421,24	1716,20
421,45	1744,87
421,65	1779,68
421,86	1736,68
422,07	1761,25
422,27	1716,20
422,48	1736,68
422,69	1742,82
422,89	1738,73
423,10	1705,96
423,30	1695,72
423,51	1710,05
423,72	1755,11
423,92	1751,01
424,13	1605,61
424,33	1771,49
424,54	1761,25
424,75	1716,20
424,95	1785,83
425,16	1748,97
425,36	1695,72
425,57	1697,77
425,78	1681,38
425,98	1755,11
426,19	1646,57
426,39	1687,53
426,60	1689,57
426,81	1769,44
427,01	1736,68
427,22	1734,63
427,42	1626,09
427,63	1722,34
427,83	1857,51
428,04	1851,36
428,25	1851,36
428,45	1751,01
428,66	1708,01
428,86	1714,15
429,07	1697,77
429,28	1716,20
429,48	1636,33
429,69	1699,81
429,89	1726,44
430,10	1648,61
430,30	1806,31
430,51	1761,25
430,71	1744,87
430,92	1740,77
431,13	1667,05
431,33	1814,50
431,54	1769,44
431,74	1816,55
431,95	1826,79
432,15	1699,81
432,36	1658,85
432,56	1726,44
432,77	1816,55
432,98	1882,08
433,18	1697,77
433,39	1720,29
433,59	1738,73
433,80	1867,75
434,00	1900,52
434,21	1701,86
434,41	1724,39
434,62	1824,74
434,82	1667,05
435,03	1687,53
435,23	1728,49
435,44	1660,90
435,64	1814,50
435,85	1738,73
436,06	1718,25
436,26	1748,97
436,47	1802,21
436,67	1634,28
436,88	1740,77
437,08	1753,06
437,29	1785,83
437,49	1761,25
437,70	1808,36
437,90	1765,35
438,11	1871,84
438,31	1794,02
438,52	1855,46
438,72	1896,42
438,93	1927,14
439,13	1855,46
439,34	1796,07
439,54	1894,37
439,75	1759,21
439,95	1808,36
440,16	1746,92
440,36	1667,05
440,57	1738,73
440,77	1697,77
440,98	1716,20
441,18	1820,64
441,39	1703,91
441,59	1730,53
441,80	1843,17
442,00	1658,85
442,21	1845,22
442,41	1718,25
442,62	1751,01
442,82	1787,88
443,02	1744,87
443,23	1877,99
443,43	1691,62
443,64	1837,03
443,84	1628,14
444,05	1845,22
444,25	1773,54
444,46	1712,10
444,66	1755,11
444,87	1814,50
445,07	1675,24
445,28	1718,25
445,48	1820,64
445,69	1808,36
445,89	1941,47
446,09	1726,44
446,30	1984,48
446,50	2617,30
446,71	3674,06
446,91	4560,83
447,12	4714,42
447,32	5001,14
447,53	4534,20
447,73	3919,81
447,93	3588,04
448,14	3311,57
448,34	3170,26
448,55	2922,45
448,75	2852,82
448,96	2779,09
449,16	2496,47
449,36	2303,96
449,57	2031,58
449,77	1880,04
449,98	1814,50
450,18	1783,78
450,39	1781,73
450,59	1839,08
450,79	1779,68
451,00	1744,87
451,20	1771,49
451,41	1705,96
451,61	1695,72
451,81	1769,44
452,02	1710,05
452,22	1726,44
452,43	1679,33
452,63	1740,77
452,84	1767,40
453,04	1708,01
453,24	1740,77
453,45	1687,53
453,65	1691,62
453,86	1796,07
454,06	1783,78
454,26	1753,06
454,47	1687,53
454,67	1816,55
454,87	1781,73
455,08	1781,73
455,28	1814,50
455,49	1681,38
455,69	1740,77
455,89	1849,32
456,10	1873,89
456,30	1671,14
456,51	1834,98
456,71	1783,78
456,91	1761,25
457,12	1708,01
457,32	1847,27
457,52	1697,77
457,73	1726,44
457,93	1740,77
458,14	1714,15
458,34	1609,70
458,54	1720,29
458,75	1730,53
458,95	1837,03
459,15	1748,97
459,36	1730,53
459,56	1775,59
459,76	1871,84
459,97	1744,87
460,17	1771,49
460,37	1820,64
460,58	1744,87
460,78	1845,22
460,99	1714,15
461,19	1763,30
461,39	1624,04
461,60	1765,35
461,80	1812,45
462,00	1705,96
462,21	1685,48
462,41	1607,66
462,61	1701,86
462,82	1636,33
463,02	1751,01
463,22	1699,81
463,43	1787,88
463,63	1800,16
463,83	1775,59
464,04	1816,55
464,24	1763,30
464,44	1726,44
464,64	1798,12
464,85	1785,83
465,05	1796,07
465,25	1714,15
465,46	1798,12
465,66	1814,50
465,86	1800,16
466,07	1773,54
466,27	1767,40
466,47	1679,33
466,68	1691,62
466,88	1796,07
467,08	1748,97
467,29	1832,93
467,49	1787,88
467,69	1796,07
467,89	1751,01
468,10	1761,25
468,30	1675,24
468,50	1863,65
468,71	1773,54
468,91	1642,47
469,11	1853,41
469,31	1744,87
469,52	1703,91
469,72	1839,08
469,92	1843,17
470,13	1665,00
470,33	1705,96
470,53	1787,88
470,73	2107,36
470,94	2363,36
471,14	2342,88
471,34	2629,59
471,54	2392,03
471,75	2232,29
471,95	2158,56
472,15	2127,84
472,36	2179,04
472,56	2166,75
472,76	2013,15
472,96	2052,06
473,17	2035,68
473,37	1882,08
473,57	1755,11
473,77	1820,64
473,98	1736,68
474,18	1736,68
474,38	1834,98
474,58	1656,81
474,79	1728,49
474,99	1781,73
475,19	1816,55
475,39	1726,44
475,60	1804,26
475,80	1703,91
476,00	1798,12
476,20	1667,05
476,41	1742,82
476,61	1830,88
476,81	1837,03
477,01	1746,92
477,21	1890,28
477,42	1839,08
477,62	1656,81
477,82	1847,27
478,02	1681,38
478,23	1851,36
478,43	1716,20
478,63	1621,99
478,83	1769,44
479,03	1744,87
479,24	1871,84
479,44	1877,99
479,64	1636,33
479,84	1624,04
480,04	1759,21
480,25	1742,82
480,45	1630,18
480,65	1665,00
480,85	1787,88
481,06	1691,62
481,26	1800,16
481,46	1781,73
481,66	1716,20
481,86	1755,11
482,06	1869,80
482,27	1781,73
482,47	1746,92
482,67	1669,09
482,87	1783,78
483,07	1746,92
483,28	1667,05
483,48	1673,19
483,68	1753,06
483,88	1697,77
484,08	1660,90
484,29	1634,28
484,49	1730,53
484,69	1703,91
484,89	1763,30
485,09	1855,46
485,29	1806,31
485,50	1683,43
485,70	1742,82
485,90	1755,11
486,10	1734,63
486,30	1722,34
486,50	1761,25
486,71	1748,97
486,91	1769,44
487,11	1732,58
487,31	1597,42
487,51	1777,64
487,71	1640,42
487,91	1662,95
488,12	1763,30
488,32	1611,75
488,52	1705,96
488,72	1607,66
488,92	1787,88
489,12	1796,07
489,32	1771,49
489,53	1808,36
489,73	1691,62
489,93	1875,94
490,13	1640,42
490,33	1642,47
490,53	1742,82
490,73	1861,60
490,94	1710,05
491,14	1771,49
491,34	1814,50
491,54	2111,46
491,74	2568,15
491,94	2904,02
492,14	3121,10
492,34	2990,03
492,54	2834,39
492,75	2564,06
492,95	2578,39
493,15	2357,21
493,35	2275,29
493,55	2242,53
493,75	2209,76
493,95	2111,46
494,15	2007,01
494,35	1941,47
494,56	1900,52
494,76	1855,46
494,96	1908,71
495,16	1826,79
495,36	1701,86
495,56	1763,30
495,76	1697,77
495,96	1746,92
496,16	1738,73
496,36	1806,31
496,56	1763,30
496,77	1826,79
496,97	1710,05
497,17	1849,32
497,37	1693,67
497,57	1742,82
497,77	1810,40
497,97	1667,05
498,17	1742,82
498,37	1660,90
498,57	1808,36
498,77	1705,96
498,97	1800,16
499,17	1796,07
499,38	1675,24
499,58	1728,49
499,78	1802,21
499,98	1757,16
500,18	1753,06
500,38	1718,25
500,58	1902,56
500,78	2480,09
500,98	4640,70
501,18	5945,25
501,38	6938,52
501,58	7311,25
501,78	6776,73
501,98	5623,72
502,18	4999,09
502,38	4544,44
502,58	4200,38
502,78	3852,23
502,98	3801,03
503,18	3448,78
503,38	3293,13
503,59	2887,64
503,79	2719,70
503,99	2500,57
504,19	2324,44
504,39	2215,90
504,59	2199,52
504,79	2115,55
504,99	2095,07
505,19	1888,23
505,39	1910,75
505,59	2004,96
505,79	1902,56
505,99	1861,60
506,19	1804,26
506,39	1935,33
506,59	1771,49
506,79	1718,25
506,99	1779,68
507,19	1718,25
507,39	1789,92
507,59	1738,73
507,79	1734,63
507,99	1691,62
508,19	1734,63
508,39	1783,78
508,59	1755,11
508,79	1875,94
508,99	1841,12
509,19	1714,15
509,39	1779,68
509,59	1710,05
509,79	1708,01
509,99	1802,21
510,19	1761,25
510,39	1757,16
510,59	1718,25
510,79	1755,11
510,99	1693,67
511,19	1742,82
511,39	1814,50
511,59	1828,84
511,79	1800,16
511,99	1757,16
512,19	1787,88
512,38	1703,91
512,58	1742,82
512,78	1746,92
512,98	1892,32
513,18	1857,51
513,38	1716,20
513,58	1783,78
513,78	1673,19
513,98	1734,63
514,18	1732,58
514,38	1728,49
514,58	1800,16
514,78	1730,53
514,98	1693,67
515,18	1759,21
515,38	1701,86
515,58	1857,51
515,78	1783,78
515,98	1687,53
516,18	1771,49
516,38	1759,21
516,57	1685,48
516,77	1708,01
516,97	1779,68
517,17	1736,68
517,37	1630,18
517,57	1839,08
517,77	1736,68
517,97	1699,81
518,17	1802,21
518,37	1718,25
518,57	1718,25
518,77	1769,44
518,97	1677,29
519,16	1738,73
519,36	1808,36
519,56	1781,73
519,76	1658,85
519,96	1677,29
520,16	1820,64
520,36	1699,81
520,56	1816,55
520,76	1759,21
520,96	1730,53
521,16	1777,64
521,35	1861,60
521,55	1812,45
521,75	1789,92
521,95	1806,31
522,15	1703,91
522,35	1687,53
522,55	1677,29
522,75	1798,12
522,95	1763,30
523,14	1703,91
523,34	1777,64
523,54	1697,77
523,74	1820,64
523,94	1810,40
524,14	1679,33
524,34	1771,49
524,54	1802,21
524,73	1746,92
524,93	1820,64
525,13	1724,39
525,33	1681,38
525,53	1882,08
525,73	1830,88
525,93	1724,39
526,13	1714,15
526,32	1697,77
526,52	1834,98
526,72	1763,30
526,92	1720,29
527,12	1652,71
527,32	1669,09
527,52	1730,53
527,71	1708,01
527,91	1691,62
528,11	1779,68
528,31	1728,49
528,51	1679,33
528,71	1742,82
528,90	1808,36
529,10	1775,59
529,30	1812,45
529,50	1609,70
529,70	1804,26
529,90	1736,68
530,09	1755,11
530,29	1695,72
530,49	1798,12
530,69	1837,03
530,89	1732,58
531,09	1759,21
531,28	1724,39
531,48	1781,73
531,68	1759,21
531,88	1681,38
532,08	1783,78
532,28	1763,30
532,47	1851,36
532,67	1837,03
532,87	1787,88
533,07	1712,10
533,27	1794,02
533,46	1814,50
533,66	1806,31
533,86	1736,68
534,06	1744,87
534,26	1742,82
534,45	1724,39
534,65	1789,92
534,85	1845,22
535,05	1722,34
535,25	1812,45
535,44	1699,81
535,64	1818,60
535,84	1705,96
536,04	1640,42
536,24	1796,07
536,43	1726,44
536,63	1796,07
536,83	1730,53
537,03	1787,88
537,22	1624,04
537,42	1679,33
537,62	1783,78
537,82	1798,12
538,02	1753,06
538,21	1853,41
538,41	1886,18
538,61	1742,82
538,81	1742,82
539,00	1839,08
539,20	1683,43
539,40	1742,82
539,60	1685,48
539,79	1796,07
539,99	1763,30
540,19	1685,48
540,39	1683,43
540,58	1726,44
540,78	1763,30
540,98	1802,21
541,18	1853,41
541,37	1783,78
541,57	1812,45
541,77	1773,54
541,97	1714,15
542,16	1675,24
542,36	1736,68
542,56	1779,68
542,76	1826,79
542,95	1796,07
543,15	1742,82
543,35	1775,59
543,54	1732,58
543,74	1724,39
543,94	1865,70
544,14	1714,15
544,33	1800,16
544,53	1759,21
544,73	1734,63
544,93	1761,25
545,12	1701,86
545,32	1804,26
545,52	1742,82
545,71	1599,46
545,91	1742,82
546,11	1718,25
546,30	1667,05
546,50	1701,86
546,70	1736,68
546,90	1738,73
547,09	1740,77
547,29	1726,44
547,49	1761,25
547,68	1716,20
547,88	1687,53
548,08	1783,78
548,27	2148,32
548,47	1738,73
548,67	1738,73
548,87	1789,92
549,06	1748,97
549,26	1771,49
549,46	1767,40
549,65	1787,88
549,85	1722,34
550,05	1791,97
550,24	1648,61
550,44	1693,67
550,64	1791,97
550,83	1796,07
551,03	1787,88
551,23	1771,49
551,42	1798,12
551,62	1773,54
551,82	1767,40
552,01	1787,88
552,21	1771,49
552,41	1787,88
552,60	1847,27
552,80	1773,54
553,00	1718,25
553,19	1851,36
553,39	1884,13
553,59	1734,63
553,78	1730,53
553,98	1695,72
554,17	1689,57
554,37	1763,30
554,57	1841,12
554,76	1705,96
554,96	1738,73
555,16	1761,25
555,35	1769,44
555,55	1771,49
555,75	1742,82
555,94	1796,07
556,14	1632,23
556,33	1757,16
556,53	1730,53
556,73	1705,96
556,92	1769,44
557,12	1816,55
557,32	1837,03
557,51	1900,52
557,71	1744,87
557,90	1785,83
558,10	1800,16
558,30	1779,68
558,49	1798,12
558,69	1703,91
558,88	1847,27
559,08	1824,74
559,28	1748,97
559,47	1763,30
559,67	1753,06
559,86	1873,89
560,06	1834,98
560,26	1767,40
560,45	1814,50
560,65	1732,58
560,84	1863,65
561,04	1773,54
561,24	1847,27
561,43	1662,95
561,63	1816,55
561,82	1791,97
562,02	1755,11
562,22	1695,72
562,41	1675,24
562,61	1671,14
562,80	1665,00
563,00	1869,80
563,19	1810,40
563,39	1761,25
563,59	1804,26
563,78	1726,44
563,98	1574,89
564,17	1757,16
564,37	1712,10
564,56	1757,16
564,76	1705,96
564,96	1822,69
565,15	1728,49
565,35	1918,95
565,54	1720,29
565,74	1779,68
565,93	1804,26
566,13	1705,96
566,32	1767,40
566,52	1767,40
566,71	1759,21
566,91	1796,07
567,11	1734,63
567,30	1722,34
567,50	1771,49
567,69	1773,54
567,89	1751,01
568,08	1710,05
568,28	1804,26
568,47	1718,25
568,67	1777,64
568,86	1687,53
569,06	1816,55
569,25	1699,81
569,45	1757,16
569,64	1751,01
569,84	1765,35
570,04	1855,46
570,23	1705,96
570,43	1654,76
570,62	1740,77
570,82	1785,83
571,01	1714,15
571,21	1728,49
571,40	1726,44
571,60	1849,32
571,79	1773,54
571,99	1744,87
572,18	1789,92
572,38	1789,92
572,57	1730,53
572,77	1746,92
572,96	1849,32
573,16	1787,88
573,35	1695,72
573,55	1837,03
573,74	1839,08
573,94	1787,88
574,13	1685,48
574,33	1865,70
574,52	1834,98
574,71	1775,59
574,91	1751,01
575,10	1779,68
575,30	1671,14
575,49	1722,34
575,69	1755,11
575,88	1822,69
576,08	1681,38
576,27	1781,73
576,47	1685,48
576,66	1888,23
576,86	1830,88
577,05	1806,31
577,25	1906,66
577,44	1849,32
577,64	1740,77
577,83	1822,69
578,02	1714,15
578,22	1742,82
578,41	1880,04
578,61	1757,16
578,80	1738,73
579,00	1785,83
579,19	1703,91
579,39	1812,45
579,58	1867,75
579,77	1785,83
579,97	1820,64
580,16	1851,36
580,36	1802,21
580,55	1849,32
580,75	1785,83
580,94	1853,41
581,13	1916,90
581,33	1841,12
581,52	1787,88
581,72	1869,80
581,91	1898,47
582,11	1730,53
582,30	1753,06
582,49	1783,78
582,69	1906,66
582,88	1746,92
583,08	1775,59
583,27	1820,64
583,47	1785,83
583,66	1783,78
583,85	1656,81
584,05	1794,02
584,24	1830,88
584,44	1806,31
584,63	1802,21
584,82	1865,70
585,02	1849,32
585,21	1800,16
585,41	1828,84
585,60	1820,64
585,79	1955,81
585,99	1986,53
586,18	1845,22
586,37	2164,70
586,57	3397,58
586,76	10024,81
586,96	24792,71
587,15	34878,96
587,34	40908,18
587,54	42343,80
587,73	36773,33
587,93	26404,46
588,12	21575,35
588,31	18241,26
588,51	16293,64
588,70	15312,66
588,89	14266,15
589,09	12760,89
589,28	11140,95
589,47	9410,42
589,67	8052,61
589,86	6477,73
590,06	4908,98
590,25	3958,72
590,44	3196,88
590,64	2582,49
590,83	2242,53
591,02	2093,02
591,22	2017,25
591,41	1970,15
591,60	1902,56
591,80	1871,84
591,99	1689,57
592,18	1845,22
592,38	1826,79
592,57	1757,16
592,76	1853,41
592,96	1789,92
593,15	1759,21
593,34	1779,68
593,54	1757,16
593,73	1798,12
593,92	1781,73
594,12	1855,46
594,31	1718,25
594,50	1822,69
594,70	1757,16
594,89	1853,41
595,08	1697,77
595,28	1851,36
595,47	1849,32
595,66	1861,60
595,86	1650,66
596,05	1798,12
596,24	1693,67
596,43	1863,65
596,63	1814,50
596,82	1798,12
597,01	1781,73
597,21	1873,89
597,40	1753,06
597,59	1839,08
597,79	1798,12
597,98	1834,98
598,17	1746,92
598,36	1775,59
598,56	1886,18
598,75	1695,72
598,94	1748,97
599,14	1849,32
599,33	1734,63
599,52	1794,02
599,71	1744,87
599,91	1877,99
600,10	1822,69
600,29	1701,86
600,48	1818,60
600,68	1787,88
600,87	1736,68
601,06	1685,48
601,26	1736,68
601,45	1789,92
601,64	1748,97
601,83	1900,52
602,03	1783,78
602,22	1644,52
602,41	1814,50
602,60	1927,14
602,80	1789,92
602,99	1871,84
603,18	1724,39
603,37	1759,21
603,57	1777,64
603,76	1822,69
603,95	1863,65
604,14	1759,21
604,34	1714,15
604,53	1642,47
604,72	1777,64
604,91	1777,64
605,10	1734,63
605,30	1697,77
605,49	1890,28
605,68	1806,31
605,87	1781,73
606,07	1730,53
606,26	1781,73
606,45	1761,25
606,64	1771,49
606,84	1708,01
607,03	1763,30
607,22	1853,41
607,41	1712,10
607,60	1652,71
607,80	1818,60
607,99	1738,73
608,18	1783,78
608,37	1708,01
608,56	1689,57
608,76	1720,29
608,95	1834,98
609,14	1783,78
609,33	1775,59
609,52	1857,51
609,72	1796,07
609,91	1714,15
610,10	1742,82
610,29	1791,97
610,48	1800,16
610,68	1822,69
610,87	1753,06
611,06	1822,69
611,25	1730,53
611,44	1820,64
611,63	1730,53
611,83	1855,46
612,02	1634,28
612,21	1777,64
612,40	1708,01
612,59	1673,19
612,79	1693,67
612,98	1822,69
613,17	1771,49
613,36	1751,01
613,55	1863,65
613,74	1665,00
613,93	1710,05
614,13	1716,20
614,32	1734,63
614,51	1755,11
614,70	1710,05
614,89	1699,81
615,08	1701,86
615,28	2023,39
615,47	1685,48
615,66	1767,40
615,85	1710,05
616,04	1861,60
616,23	1744,87
616,42	1746,92
616,62	1718,25
616,81	1867,75
617,00	1722,34
617,19	1732,58
617,38	1716,20
617,57	1732,58
617,76	1767,40
617,95	1697,77
618,15	1740,77
618,34	1798,12
618,53	1634,28
618,72	1798,12
618,91	1810,40
619,10	1839,08
619,29	1730,53
619,48	1730,53
619,68	1708,01
619,87	1755,11
620,06	1751,01
620,25	1822,69
620,44	1724,39
620,63	1734,63
620,82	1738,73
621,01	1724,39
621,20	1691,62
621,39	1705,96
621,59	1720,29
621,78	1753,06
621,97	1781,73
622,16	1771,49
622,35	1828,84
622,54	1787,88
622,73	1740,77
622,92	1724,39
623,11	1787,88
623,30	1658,85
623,49	1845,22
623,68	1703,91
623,88	1789,92
624,07	1699,81
624,26	1681,38
624,45	1714,15
624,64	1646,57
624,83	1783,78
625,02	1718,25
625,21	1740,77
625,40	1765,35
625,59	1863,65
625,78	1705,96
625,97	1789,92
626,16	1791,97
626,35	1699,81
626,54	1740,77
626,74	1794,02
626,93	1681,38
627,12	1718,25
627,31	1785,83
627,50	1740,77
627,69	1849,32
627,88	1689,57
628,07	1746,92
628,26	1652,71
628,45	1703,91
628,64	1660,90
628,83	1685,48
629,02	1669,09
629,21	1746,92
629,40	1775,59
629,59	1708,01
629,78	1781,73
629,97	1710,05
630,16	1755,11
630,35	1720,29
630,54	1697,77
630,73	1669,09
630,92	1716,20
631,11	1656,81
631,30	1755,11
631,49	1775,59
631,68	1787,88
631,87	1677,29
632,06	1626,09
632,25	1929,19
632,44	1757,16
632,63	1814,50
632,82	1683,43
633,01	1630,18
633,20	1767,40
633,39	1671,14
633,58	1728,49
633,77	1691,62
633,96	1703,91
634,15	1759,21
634,34	1710,05
634,53	1730,53
634,72	1695,72
634,91	1607,66
635,10	1757,16
635,29	1783,78
635,48	1796,07
635,67	1734,63
635,86	1710,05
636,05	1767,40
636,24	1759,21
636,43	1742,82
636,62	1708,01
636,81	1701,86
637,00	1777,64
637,19	1746,92
637,38	1753,06
637,57	1640,42
637,76	1746,92
637,95	1740,77
638,14	1691,62
638,33	1714,15
638,52	1740,77
638,71	1652,71
638,89	1634,28
639,08	1951,71
639,27	1791,97
639,46	1736,68
639,65	1724,39
639,84	1810,40
640,03	1832,93
640,22	1722,34
640,41	1859,56
640,60	1771,49
640,79	1705,96
640,98	1703,91
641,17	1738,73
641,36	1720,29
641,55	1816,55
641,74	1630,18
641,92	1626,09
642,11	1726,44
642,30	1716,20
642,49	1703,91
642,68	1781,73
642,87	1753,06
643,06	1722,34
643,25	1642,47
643,44	1689,57
643,63	1755,11
643,82	1759,21
644,00	1624,04
644,19	1722,34
644,38	1650,66
644,57	1755,11
644,76	1769,44
644,95	1765,35
645,14	1718,25
645,33	1705,96
645,52	1757,16
645,71	1665,00
645,89	1671,14
646,08	1746,92
646,27	1724,39
646,46	1830,88
646,65	1642,47
646,84	1847,27
647,03	1658,85
647,22	1777,64
647,40	1781,73
647,59	1693,67
647,78	1755,11
647,97	1652,71
648,16	1695,72
648,35	1744,87
648,54	1787,88
648,73	1730,53
648,91	1808,36
649,10	1673,19
649,29	1640,42
649,48	1798,12
649,67	1804,26
649,86	1689,57
650,05	1667,05
650,23	1767,40
650,42	1611,75
650,61	1779,68
650,80	1734,63
650,99	1834,98
651,18	1746,92
651,36	1818,60
651,55	1738,73
651,74	1767,40
651,93	1677,29
652,12	1773,54
652,31	1734,63
652,49	1744,87
652,68	1753,06
652,87	1867,75
653,06	1675,24
653,25	1871,84
653,44	1787,88
653,62	1808,36
653,81	1746,92
654,00	1871,84
654,19	1656,81
654,38	1920,99
654,56	1724,39
654,75	1660,90
654,94	1804,26
655,13	1794,02
655,32	1697,77
655,51	1759,21
655,69	1722,34
655,88	1779,68
656,07	1652,71
656,26	1724,39
656,45	1685,48
656,63	1691,62
656,82	1744,87
657,01	1769,44
657,20	1669,09
657,38	1748,97
657,57	1705,96
657,76	1652,71
657,95	1781,73
658,14	1681,38
658,32	1693,67
658,51	1777,64
658,70	1740,77
658,89	1779,68
659,08	1771,49
659,26	1816,55
659,45	1724,39
659,64	1800,16
659,83	1626,09
660,01	1902,56
660,20	1701,86
660,39	1865,70
660,58	1611,75
660,76	1765,35
660,95	1628,14
661,14	1769,44
661,33	1683,43
661,51	1738,73
661,70	1753,06
661,89	1755,11
662,08	1681,38
662,26	1722,34
662,45	1669,09
662,64	1789,92
662,83	1763,30
663,01	1638,38
663,20	1673,19
663,39	1783,78
663,58	1699,81
663,76	1753,06
663,95	1740,77
664,14	1693,67
664,32	1671,14
664,51	1636,33
664,70	1638,38
664,89	1816,55
665,07	1650,66
665,26	1800,16
665,45	1675,24
665,64	1802,21
665,82	1679,33
666,01	1746,92
666,20	1572,84
666,38	1814,50
666,57	1769,44
666,76	2203,61
666,95	4720,57
667,13	10653,53
667,32	15714,06
667,51	18091,76
667,69	19465,94
667,88	17749,75
668,07	12271,43
668,25	9729,90
668,44	8245,12
668,63	7358,35
668,81	6748,06
669,00	6266,78
669,19	5740,46
669,38	5191,60
669,56	4593,59
669,75	4061,12
669,94	3420,11
670,12	2877,40
670,31	2672,60
670,50	2277,34
670,68	2088,93
670,87	1961,95
671,06	1845,22
671,24	1816,55
671,43	1818,60
671,62	1726,44
671,80	1716,20
671,99	1730,53
672,18	1673,19
672,36	1798,12
672,55	1714,15
672,74	1695,72
672,92	1742,82
673,11	1767,40
673,29	1650,66
673,48	1773,54
673,67	1697,77
673,85	1798,12
674,04	1710,05
674,23	1708,01
674,41	1933,28
674,60	1652,71
674,79	1691,62
674,97	1644,52
675,16	1730,53
675,34	1808,36
675,53	1691,62
675,72	1783,78
675,90	1853,41
676,09	1679,33
676,28	1751,01
676,46	1626,09
676,65	1724,39
676,83	1712,10
677,02	1748,97
677,21	1755,11
677,39	1759,21
677,58	1691,62
677,77	1665,00
677,95	1669,09
678,14	1742,82
678,32	1667,05
678,51	1695,72
678,70	1869,80
678,88	1740,77
679,07	1751,01
679,25	1738,73
679,44	1691,62
679,63	1669,09
679,81	1656,81
680,00	1761,25
680,18	1802,21
680,37	1828,84
680,55	1738,73
680,74	1759,21
680,93	1599,46
681,11	1753,06
681,30	1722,34
681,48	1773,54
681,67	1724,39
681,85	1697,77
682,04	1726,44
682,23	1728,49
682,41	1736,68
682,60	1601,51
682,78	1716,20
682,97	1701,86
683,15	1816,55
683,34	1765,35
683,53	1828,84
683,71	1683,43
683,90	1767,40
684,08	1871,84
684,27	1677,29
684,45	1736,68
684,64	1781,73
684,82	1658,85
685,01	1697,77
685,19	1712,10
685,38	1783,78
685,57	1738,73
685,75	1714,15
685,94	1755,11
686,12	1654,76
686,31	1748,97
686,49	1871,84
686,68	1683,43
686,86	1740,77
687,05	1671,14
687,23	1810,40
687,42	1697,77
687,60	1665,00
687,79	1781,73
687,97	1779,68
688,16	1785,83
688,34	1828,84
688,53	1693,67
688,71	1779,68
688,90	1742,82
689,08	1751,01
689,27	1628,14
689,45	1697,77
689,64	1722,34
689,82	1734,63
690,01	1738,73
690,19	1757,16
690,38	1751,01
690,56	1765,35
690,75	1703,91
690,93	1744,87
691,12	1693,67
691,30	1685,48
691,49	1781,73
691,67	1689,57
691,86	1785,83
692,04	1665,00
692,23	1650,66
692,41	1720,29
692,60	1779,68
692,78	1728,49
692,97	1759,21
693,15	1759,21
693,34	1816,55
693,52	1716,20
693,71	1718,25
693,89	1791,97
694,08	1558,50
694,26	1777,64
694,44	1763,30
694,63	1748,97
694,81	1691,62
695,00	1658,85
695,18	1773,54
695,37	1882,08
695,55	1763,30
695,74	1624,04
695,92	1648,61
696,10	1802,21
696,29	1554,41
696,47	1630,18
696,66	1685,48
696,84	1656,81
697,03	1714,15
697,21	1898,47
697,40	2336,73
697,58	1789,92
697,76	1654,76
697,95	1656,81
698,13	1628,14
698,32	1683,43
698,50	1685,48
698,68	1759,21
698,87	1691,62
699,05	1865,70
699,24	1783,78
699,42	1701,86
699,61	1736,68
699,79	1708,01
699,97	1746,92
700,16	1648,61
700,34	1667,05
700,53	1660,90
700,71	1796,07
700,89	1769,44
701,08	1781,73
701,26	1703,91
701,45	2140,13
701,63	1703,91
701,81	1691,62
702,00	1646,57
702,18	1673,19
702,37	1701,86
702,55	1746,92
702,73	1724,39
702,92	1615,85
703,10	1761,25
703,28	1765,35
703,47	1660,90
703,65	1699,81
703,84	1800,16
704,02	1701,86
704,20	1841,12
704,39	1708,01
704,57	1677,29
704,75	1746,92
704,94	1796,07
705,12	1689,57
705,30	1816,55
705,49	2310,11
705,67	4521,92
705,86	9631,60
706,04	12752,70
706,22	14448,42
706,41	15341,33
706,59	13772,59
706,77	9557,87
706,96	7505,81
707,14	6776,73
707,32	6023,08
707,51	5631,91
707,69	5062,58
707,87	4122,56
708,06	3620,81
708,24	2934,74
708,42	2457,56
708,61	2254,81
708,79	2027,49
708,97	1845,22
709,16	1841,12
709,34	1738,73
709,52	1755,11
709,71	1716,20
709,89	1843,17
710,07	1714,15
710,26	1697,77
710,44	1814,50
710,62	1730,53
710,80	1757,16
710,99	1761,25
711,17	1757,16
711,35	1726,44
711,54	1740,77
711,72	1755,11
711,90	1822,69
712,09	1714,15
712,27	1642,47
712,45	1748,97
712,63	1724,39
712,82	1785,83
713,00	1718,25
713,18	1787,88
713,37	1714,15
713,55	1804,26
713,73	1726,44
713,91	1779,68
714,10	1662,95
714,28	1681,38
714,46	1755,11
714,65	1740,77
714,83	1740,77
715,01	1701,86
715,19	1734,63
715,38	1705,96
715,56	1789,92
715,74	1796,07
715,92	1677,29
716,11	1773,54
716,29	1595,37
716,47	1726,44
716,65	1744,87
716,84	1636,33
717,02	1755,11
717,20	1722,34
717,38	1628,14
717,57	1732,58
717,75	1710,05
717,93	1720,29
718,11	1765,35
718,30	1681,38
718,48	1746,92
718,66	1746,92
718,84	1769,44
719,03	1665,00
719,21	1615,85
719,39	1800,16
719,57	1812,45
719,75	1832,93
719,94	1699,81
720,12	1779,68
720,30	1677,29
720,48	1794,02
720,67	1673,19
720,85	1626,09
721,03	1722,34
721,21	1595,37
721,39	1800,16
721,58	1714,15
721,76	1751,01
721,94	1701,86
722,12	1746,92
722,30	1818,60
722,49	1695,72
722,67	1675,24
722,85	1742,82
723,03	1624,04
723,21	1689,57
723,40	1812,45
723,58	1779,68
723,76	1773,54
723,94	1814,50
724,12	1785,83
724,30	1822,69
724,49	1705,96
724,67	1689,57
724,85	1841,12
725,03	1689,57
725,21	1722,34
725,40	1834,98
725,58	1667,05
725,76	1771,49
725,94	1791,97
726,12	1658,85
726,30	1640,42
726,49	1732,58
726,67	1644,52
726,85	1802,21
727,03	1914,85
727,21	2238,43
727,39	2965,46
727,57	3909,57
727,76	4181,95
727,94	4609,98
728,12	4509,63
728,30	3639,24
728,48	2932,69
728,66	2766,81
728,84	2594,78
729,03	2330,59
729,21	2084,83
729,39	2099,17
729,57	1820,64
729,75	1730,53
729,93	1791,97
730,11	1800,16
730,30	1744,87
730,48	1738,73
730,66	1765,35
730,84	1845,22
731,02	1679,33
731,20	1751,01
731,38	1685,48
731,56	1650,66
731,74	1726,44
731,93	1730,53
732,11	1689,57
732,29	1724,39
732,47	1742,82
732,65	1751,01
732,83	1800,16
733,01	1753,06
733,19	1630,18
733,37	1751,01
733,56	1740,77
733,74	1667,05
733,92	1773,54
734,10	1712,10
734,28	1771,49
734,46	1595,37
734,64	1689,57
734,82	1751,01
735,00	1677,29
735,18	1605,61
735,36	1720,29
735,54	1689,57
735,73	1726,44
735,91	1740,77
736,09	1722,34
736,27	1640,42
736,45	1759,21
736,63	1644,52
736,81	1675,24
736,99	1814,50
737,17	1822,69
737,35	1615,85
737,53	1751,01
737,71	1705,96
737,89	1812,45
738,07	1701,86
738,25	1734,63
738,43	1613,80
738,61	1736,68
738,80	1646,57
738,98	1667,05
739,16	1697,77
739,34	1724,39
739,52	1849,32
739,70	1679,33
739,88	1718,25
740,06	1832,93
740,24	1624,04
740,42	1773,54
740,60	1578,98
740,78	1679,33
740,96	1607,66
741,14	1730,53
741,32	1730,53
741,50	1662,95
741,68	1822,69
741,86	1781,73
742,04	1708,01
742,22	1619,94
742,40	1697,77
742,58	1746,92
742,76	1677,29
742,94	1742,82
743,12	1624,04
743,30	1679,33
743,48	1830,88
743,66	1697,77
743,84	1701,86
744,02	1687,53
744,20	1705,96
744,38	1595,37
744,56	1685,48
744,74	1869,80
744,92	1734,63
745,10	1810,40
745,28	1744,87
745,46	1847,27
745,64	1705,96
745,82	1779,68
746,00	1685,48
746,18	1841,12
746,36	1652,71
746,54	1767,40
746,72	1697,77
746,90	1683,43
747,08	1751,01
747,26	1753,06
747,44	1796,07
747,62	1769,44
747,80	1693,67
747,98	1808,36
748,15	1689,57
748,33	1783,78
748,51	1757,16
748,69	1789,92
748,87	1720,29
749,05	1683,43
749,23	1634,28
749,41	1740,77
749,59	1746,92
749,77	1794,02
749,95	1685,48
750,13	1730,53
750,31	1759,21
750,49	1748,97
750,67	1812,45
750,85	1798,12
751,03	1777,64
751,20	1800,16
751,38	1691,62
751,56	1738,73
751,74	1728,49
751,92	1654,76
752,10	1665,00
752,28	1763,30
752,46	1675,24
752,64	1753,06
752,82	1740,77
753,00	1802,21
753,18	1648,61
753,35	1701,86
753,53	1716,20
753,71	1691,62
753,89	1765,35
754,07	1685,48
754,25	1695,72
754,43	1730,53
754,61	1691,62
754,79	1691,62
754,97	1689,57
755,14	1808,36
755,32	1603,56
755,50	1703,91
755,68	1675,24
755,86	1685,48
756,04	1677,29
756,22	1705,96
756,40	1724,39
756,57	1787,88
756,75	1701,86
756,93	1781,73
757,11	1738,73
757,29	1695,72
757,47	1697,77
757,65	1708,01
757,82	1601,51
758,00	1671,14
758,18	1630,18
758,36	1615,85
758,54	1773,54
758,72	1662,95
758,90	1701,86
759,07	1701,86
759,25	1638,38
759,43	1787,88
759,61	1652,71
759,79	2183,13
759,97	1697,77
760,15	1689,57
760,32	1681,38
760,50	1703,91
760,68	1757,16
760,86	1611,75
761,04	1759,21
761,22	1691,62
761,39	1755,11
761,57	1669,09
761,75	1724,39
761,93	1714,15
762,11	1705,96
762,28	1710,05
762,46	1617,90
762,64	1796,07
762,82	1697,77
763,00	1710,05
763,18	1757,16
763,35	1658,85
763,53	1755,11
763,71	1722,34
763,89	1746,92
764,07	1699,81
764,24	1796,07
764,42	1789,92
764,60	1763,30
764,78	1722,34
764,96	1794,02
765,13	1794,02
765,31	1679,33
765,49	1689,57
765,67	1718,25
765,84	1765,35
766,02	1687,53
766,20	1652,71
766,38	1775,59
766,56	1742,82
766,73	1806,31
766,91	1673,19
767,09	1705,96
767,27	1746,92
767,44	1640,42
767,62	1783,78
767,80	1736,68
767,98	1724,39
768,15	1736,68
768,33	1748,97
768,51	1687,53
768,69	1802,21
768,87	1720,29
769,04	1765,35
769,22	1796,07
769,40	1755,11
769,58	1902,56
769,75	1693,67
769,93	1845,22
770,11	1742,82
770,28	1658,85
770,46	1773,54
770,64	1785,83
770,82	1691,62
770,99	1703,91
771,17	1791,97
771,35	1671,14
771,53	1621,99
771,70	1738,73
771,88	1751,01
772,06	1673,19
772,23	1665,00
772,41	1751,01
772,59	1759,21
772,77	1656,81
772,94	1683,43
773,12	1742,82
773,30	1751,01
773,47	1751,01
773,65	1708,01
773,83	1830,88
774,01	1761,25
774,18	1597,42
774,36	1724,39
774,54	1636,33
774,71	1732,58
774,89	1646,57
775,07	1705,96
775,24	1753,06
775,42	1660,90
775,60	1763,30
775,78	1675,24
775,95	1730,53
776,13	1611,75
776,31	1574,89
776,48	1759,21
776,66	1732,58
776,84	1726,44
777,01	1718,25
777,19	1662,95
777,37	1779,68
777,54	1769,44
777,72	1839,08
777,90	1779,68
778,07	1716,20
778,25	1910,75
778,43	1671,14
778,60	1714,15
778,78	1820,64
778,96	1724,39
779,13	1654,76
779,31	1677,29
779,49	1732,58
779,66	1705,96
779,84	1742,82
780,01	1767,40
780,19	1660,90
780,37	1775,59
780,54	1726,44
780,72	1779,68
780,90	1734,63
781,07	1697,77
781,25	1689,57
781,43	1802,21
781,60	1710,05
781,78	1787,88
781,95	1738,73
782,13	1705,96
782,31	1671,14
782,48	1695,72
782,66	1724,39
782,83	1871,84
783,01	1742,82
783,19	1759,21
783,36	1683,43
783,54	1652,71
783,72	1705,96
783,89	1691,62
784,07	1753,06
784,24	1675,24
784,42	1779,68
784,60	1656,81
784,77	1693,67
784,95	1576,94
785,12	1667,05
785,30	1691,62
785,47	1712,10
785,65	1660,90
785,83	1712,10
786,00	1699,81
786,18	1763,30
786,35	1617,90
786,53	1701,86
786,71	1730,53
786,88	1822,69
787,06	1724,39
787,23	1677,29
787,41	1695,72
787,58	1679,33
787,76	1644,52
787,94	1753,06
788,11	1697,77
788,29	1748,97
788,46	1658,85
788,64	1673,19
788,81	1746,92
788,99	1710,05
789,16	1660,90
789,34	1732,58
789,52	1654,76
789,69	1679,33
789,87	1599,46
790,04	1689,57
790,22	1665,00
790,39	1828,84
790,57	1669,09
790,74	1677,29
790,92	1730,53
791,09	1617,90
791,27	1722,34
791,44	1763,30
791,62	1683,43
791,79	1820,64
791,97	1693,67
792,15	1939,43
792,32	1806,31
792,50	1798,12
792,67	1884,13
792,85	1791,97
793,02	1771,49
793,20	1687,53
793,37	1722,34
793,55	1699,81
793,72	1611,75
793,90	1759,21
794,07	1679,33
794,25	1699,81
794,42	1734,63
794,60	1724,39
794,77	1808,36
794,95	1730,53
795,12	1789,92
795,30	1636,33
795,47	1613,80
795,65	1855,46
795,82	1771,49
796,00	1640,42
796,17	1644,52
796,34	1712,10
796,52	1708,01
796,69	1759,21
796,87	1667,05
797,04	1767,40
797,22	1755,11
797,39	1755,11
797,57	1796,07
797,74	1732,58
797,92	1751,01
798,09	1726,44
798,27	1814,50
798,44	1740,77
798,62	1619,94
798,79	1730,53
798,96	1775,59
799,14	1761,25
799,31	1814,50
799,49	1722,34
799,66	1695,72
799,84	1783,78
800,01	1683,43
800,19	1726,44
800,36	1624,04
800,53	1730,53
800,71	1697,77
800,88	1828,84
801,06	1619,94
801,23	1693,67
801,41	1648,61
801,58	1652,71
801,75	1730,53
801,93	1759,21
802,10	1656,81
802,28	1695,72
802,45	1708,01
802,63	1710,05
802,80	1736,68
802,97	1662,95
803,15	1669,09
803,32	1734,63
803,50	1669,09
803,67	1621,99
803,84	1638,38
804,02	1769,44
804,19	1687,53
804,37	1587,18
804,54	1624,04
804,71	1724,39
804,89	1693,67
805,06	1734,63
805,24	1720,29
805,41	1705,96
805,58	1619,94
805,76	1773,54
805,93	1716,20
806,10	1771,49
806,28	1746,92
806,45	1695,72
806,63	1685,48
806,80	1777,64
806,97	1654,76
807,15	1720,29
807,32	1695,72
807,49	1728,49
807,67	1675,24
807,84	1722,34
808,01	1642,47
808,19	1832,93
808,36	1804,26
808,54	1638,38
808,71	1636,33
808,88	1722,34
809,06	1816,55
809,23	1828,84
809,40	1650,66
809,58	1775,59
809,75	1724,39
809,92	1714,15
810,10	1923,04
810,27	1728,49
810,44	1767,40
810,62	1759,21
810,79	1708,01
810,96	1697,77
811,14	1691,62
811,31	1714,15
811,48	1742,82
811,66	1746,92
811,83	1757,16
812,00	1740,77
812,18	1779,68
812,35	1798,12
812,52	1656,81
812,69	1724,39
812,87	1720,29
813,04	1697,77
813,21	1746,92
813,39	1718,25
813,56	1583,08
813,73	1808,36
813,91	1673,19
814,08	1759,21
814,25	1734,63
814,42	1601,51
814,60	1771,49
814,77	1755,11
814,94	1697,77
815,12	1718,25
815,29	1785,83
815,46	1765,35
815,63	1703,91
815,81	1691,62
815,98	1671,14
816,15	1732,58
816,33	1791,97
816,50	1724,39
816,67	1693,67
816,84	1708,01
817,02	1681,38
817,19	1730,53
817,36	1783,78
817,53	1724,39
817,71	1609,70
817,88	1734,63
818,05	1695,72
818,22	1673,19
818,40	1814,50
818,57	1746,92
818,74	1808,36
818,91	1720,29
819,09	1759,21
819,26	1738,73
819,43	1667,05
819,60	1667,05
819,78	1693,67
819,95	1826,79
820,12	1648,61
820,29	1771,49
820,47	1728,49
820,64	1730,53
820,81	1650,66
820,98	1665,00
821,15	1701,86
821,33	1748,97
821,50	1646,57
821,67	1718,25
821,84	1652,71
822,02	1751,01
822,19	1718,25
822,36	1742,82
822,53	1656,81
822,70	1695,72
822,88	1681,38
823,05	1761,25
823,22	1732,58
823,39	1708,01
823,56	1712,10
823,74	1802,21
823,91	1675,24
824,08	1681,38
824,25	1642,47
824,42	1759,21
824,60	1685,48
824,77	1763,30
824,94	1712,10
825,11	1732,58
825,28	1644,52
825,45	1740,77
825,63	1685,48
825,80	1648,61
825,97	1791,97
826,14	1716,20
826,31	1648,61
826,48	1779,68
826,66	1705,96
826,83	1701,86
827,00	1763,30
827,17	1640,42
827,34	1705,96
827,51	1734,63
827,69	1781,73
827,86	1671,14
828,03	1644,52
828,20	1646,57
828,37	1716,20
828,54	1773,54
828,71	1687,53
828,89	1775,59
829,06	1693,67
829,23	1699,81
829,40	1656,81
829,57	1673,19
829,74	1759,21
829,91	1701,86
830,09	1671,14
830,26	1738,73
830,43	1785,83
830,60	1712,10
830,77	1806,31
830,94	1740,77
831,11	1751,01
831,28	1773,54
831,46	1759,21
831,63	1720,29
831,80	1677,29
831,97	1695,72
832,14	1712,10
832,31	1701,86
832,48	1708,01
832,65	1734,63
832,82	1619,94
832,99	1738,73
833,17	1644,52
833,34	1773,54
833,51	1726,44
833,68	1626,09
833,85	1720,29
834,02	1724,39
834,19	1681,38
834,36	1634,28
834,53	1716,20
834,70	1734,63
834,87	1800,16
835,04	1746,92
835,22	1607,66
835,39	1632,23
835,56	1613,80
835,73	1681,38
835,90	1773,54
836,07	1718,25
836,24	1755,11
836,41	1681,38
836,58	1689,57
836,75	1746,92
836,92	1697,77
837,09	1714,15
837,26	1714,15
837,43	1648,61
837,60	1757,16
837,77	1701,86
837,94	1755,11
838,12	1765,35
838,29	1775,59
838,46	1669,09
838,63	1636,33
838,80	1787,88
838,97	1738,73
839,14	1708,01
839,31	1789,92
839,48	1716,20
839,65	1710,05
839,82	1724,39
839,99	1769,44
840,16	1720,29
840,33	1642,47
840,50	1753,06
840,67	1671,14
840,84	1574,89
841,01	1759,21
841,18	1718,25
841,35	1775,59
841,52	1808,36
841,69	1830,88
841,86	1687,53
842,03	1724,39
842,20	1814,50
842,37	1718,25
842,54	1740,77
842,71	1763,30
842,88	1714,15
843,05	1787,88
843,22	1687,53
843,39	1722,34
843,56	1658,85
843,73	1677,29
843,90	1703,91
844,07	1718,25
844,24	1730,53
844,41	1767,40
844,58	1685,48
844,75	1675,24
844,92	1710,05
845,09	1804,26
845,26	1697,77
845,43	1705,96
845,60	1640,42
845,77	1769,44
845,94	1705,96
846,10	1785,83
846,27	1681,38
846,44	1673,19
846,61	1716,20
846,78	1689,57
846,95	1763,30
847,12	1742,82
847,29	1699,81
847,46	1576,94
847,63	1755,11
847,80	1687,53
847,97	1753,06
848,14	1800,16
848,31	1722,34
848,48	1671,14
848,65	1783,78
848,82	1734,63
848,98	1820,64
849,15	1708,01
849,32	1818,60
849,49	1787,88
849,66	1714,15
849,83	1720,29
850,00	1617,90
850,17	1691,62
850,34	1765,35
850,51	1630,18
850,68	1720,29
850,85	1865,70
851,01	1681,38
851,18	1755,11
851,35	1679,33
851,52	1781,73
851,69	1714,15
851,86	1691,62
852,03	1718,25
852,20	1724,39
852,37	1660,90
852,53	1624,04
852,70	1734,63
852,87	1705,96
853,04	1791,97
853,21	1740,77
853,38	1804,26
853,55	1779,68
853,72	1877,99
853,89	1640,42
854,05	1708,01
854,22	1685,48
854,39	1710,05
854,56	1763,30
854,73	1853,41
854,90	1683,43
855,07	1687,53
855,23	1689,57
855,40	1697,77
855,57	1714,15
855,74	1624,04
855,91	1904,61
856,08	1648,61
856,25	1632,23
856,41	1662,95
856,58	1660,90
856,75	1693,67
856,92	1652,71
857,09	1804,26
857,26	1660,90
857,42	1728,49
857,59	1791,97
857,76	1742,82
857,93	1699,81
858,10	1665,00
858,27	1689,57
858,43	1699,81
858,60	1656,81
858,77	1656,81
858,94	1677,29
859,11	1767,40
859,27	1708,01
859,44	1716,20
859,61	1843,17
859,78	1775,59
859,95	1658,85
860,12	1685,48
860,28	1806,31
860,45	1849,32
860,62	1697,77
860,79	1708,01
860,95	1662,95
861,12	1669,09
861,29	1748,97
861,46	1751,01
861,63	1732,58
861,79	1765,35
861,96	1675,24
862,13	1748,97
862,30	1699,81
862,47	1693,67
862,63	1761,25
862,80	1708,01
862,97	1716,20
863,14	1701,86
863,30	1685,48
863,47	1646,57
863,64	1763,30
863,81	1759,21
863,97	1742,82
864,14	1726,44
864,31	1695,72
864,48	1730,53
864,65	1646,57
864,81	1804,26
864,98	1728,49
865,15	1714,15
865,32	1832,93
865,48	1796,07
865,65	1787,88
865,82	1685,48
865,98	1751,01
866,15	1714,15
866,32	1630,18
866,49	1603,56
866,65	1828,84
866,82	1681,38
866,99	1677,29
867,16	1654,76
867,32	1720,29
867,49	1724,39
867,66	1712,10
867,83	1644,52
867,99	1626,09
868,16	1728,49
868,33	1669,09
868,49	1673,19
868,66	1697,77
868,83	1738,73
868,99	1740,77
869,16	1718,25
869,33	1748,97
869,50	1681,38
869,66	1779,68
869,83	1708,01
870,00	1673,19
870,16	1710,05
870,33	1726,44
870,50	1701,86
870,66	1667,05
870,83	1820,64
871,00	1720,29
871,17	1761,25
871,33	1791,97
871,50	1699,81
871,67	1697,77
871,83	1644,52
872,00	1767,40
872,17	1603,56
872,33	1804,26
872,50	1726,44
872,67	1683,43
872,83	1679,33
873,00	1736,68
873,17	1722,34
873,33	1746,92
873,50	1726,44
873,67	1662,95
873,83	1751,01
874,00	1697,77
874,16	1798,12
874,33	1777,64
874,50	1724,39
874,66	1671,14
874,83	1722,34
875,00	1800,16
875,16	1718,25
875,33	1751,01
875,50	1589,22
875,66	1705,96
875,83	1708,01
875,99	1837,03
876,16	1632,23
876,33	1738,73
876,49	1744,87
876,66	1681,38
876,83	1677,29
876,99	1644,52
877,16	1738,73
877,32	1722,34
877,49	1787,88
877,66	1665,00
877,82	1771,49
877,99	1687,53
878,15	1841,12
878,32	1767,40
878,49	1781,73
878,65	1667,05
878,82	1744,87
878,98	1755,11
879,15	1705,96
879,32	1767,40
879,48	1718,25
879,65	1736,68
879,81	1660,90
879,98	1769,44
880,15	1624,04
880,31	1783,78
880,48	1699,81
880,64	1781,73
880,81	1738,73
880,97	1908,71
881,14	1765,35
881,31	1660,90
881,47	1783,78
881,64	1699,81
881,80	1634,28
881,97	1665,00
882,13	1789,92
882,30	1626,09
882,47	1644,52
882,63	1652,71
882,80	1648,61
882,96	1617,90
883,13	1785,83
883,29	1724,39
883,46	1730,53
883,62	1925,09
883,79	1650,66
883,95	1771,49
884,12	1701,86
884,29	1724,39
884,45	1705,96
884,62	1753,06
884,78	1722,34
884,95	1810,40
885,11	1585,13
885,28	1748,97
885,44	1656,81
885,61	1744,87
885,77	1742,82
885,94	1613,80
886,10	1791,97
886,27	1767,40
886,43	1779,68
886,60	1767,40
886,76	1662,95
886,93	1691,62
887,09	1691,62
887,26	1654,76
887,42	1740,77
887,59	1763,30
887,75	1755,11
887,92	1794,02
888,08	1802,21
888,25	1855,46
888,41	1718,25
888,58	1736,68
888,74	1673,19
888,91	1656,81
>>>>>End Processed Spectral Data<<<<<
