SpectraSuite Data File
++++++++++++++++++++++++++++++++++++
Date: Mon Jun 06 13:34:37 CEST 2016
User: root
Dark Spectrum Present: No
Reference Spectrum Present: No
Number of Sampled Component Spectra: 1
Spectrometers: USB4C02835
Integration Time (usec): 100000 (USB4C02835)
Spectra Averaged: 1 (USB4C02835)
Boxcar Smoothing: 0 (USB4C02835)
Correct for Electrical Dark: No (USB4C02835)
Strobe/Lamp Enabled: No (USB4C02835)
Correct for Detector Non-linearity: No (USB4C02835)
Correct for Stray Light: No (USB4C02835)
Number of Pixels in Processed Spectrum: 3648
>>>>>Begin Processed Spectral Data<<<<<
177,47	1458,15
177,69	1458,15
177,91	1458,15
178,13	1464,30
178,36	1447,91
178,58	1685,48
178,80	1712,10
179,02	1591,27
179,24	1710,05
179,46	1691,62
179,68	1763,30
179,90	1640,42
180,13	1708,01
180,35	1626,09
180,57	1662,95
180,79	1722,34
181,01	1642,47
181,23	1689,57
181,45	1771,49
181,67	1718,25
181,90	1775,59
182,12	1615,85
182,34	1613,80
182,56	1712,10
182,78	1724,39
183,00	1683,43
183,22	1765,35
183,44	1601,51
183,66	1841,12
183,89	1802,21
184,11	1650,66
184,33	1746,92
184,55	1736,68
184,77	1740,77
184,99	1695,72
185,21	1701,86
185,43	1871,84
185,65	1628,14
185,87	1804,26
186,10	1841,12
186,32	1802,21
186,54	1624,04
186,76	1716,20
186,98	1656,81
187,20	1767,40
187,42	1710,05
187,64	1802,21
187,86	1669,09
188,08	1710,05
188,30	1626,09
188,52	1691,62
188,75	1765,35
188,97	1744,87
189,19	1722,34
189,41	1665,00
189,63	1769,44
189,85	1726,44
190,07	1648,61
190,29	1617,90
190,51	1738,73
190,73	1601,51
190,95	1791,97
191,17	1765,35
191,39	1695,72
191,61	1636,33
191,84	1636,33
192,06	1691,62
192,28	1538,02
192,50	1853,41
192,72	1757,16
192,94	1685,48
193,16	1740,77
193,38	1695,72
193,60	1570,79
193,82	1632,23
194,04	1726,44
194,26	1798,12
194,48	1718,25
194,70	1662,95
194,92	1667,05
195,14	1673,19
195,36	1701,86
195,58	1759,21
195,80	1701,86
196,02	1605,61
196,24	1714,15
196,46	1730,53
196,69	1605,61
196,91	1822,69
197,13	1665,00
197,35	1656,81
197,57	1822,69
197,79	1718,25
198,01	1714,15
198,23	1722,34
198,45	1693,67
198,67	1675,24
198,89	1636,33
199,11	1697,77
199,33	1738,73
199,55	1621,99
199,77	1677,29
199,99	1669,09
200,21	1665,00
200,43	1789,92
200,65	1615,85
200,87	1619,94
201,09	1632,23
201,31	1648,61
201,53	1701,86
201,75	1775,59
201,97	1671,14
202,19	1728,49
202,41	1746,92
202,63	1853,41
202,85	1662,95
203,07	1763,30
203,29	1697,77
203,51	1595,37
203,73	1708,01
203,95	1789,92
204,17	1710,05
204,39	1683,43
204,61	1693,67
204,83	1714,15
205,05	1746,92
205,27	1755,11
205,49	1789,92
205,71	1742,82
205,93	1626,09
206,15	1705,96
206,37	1658,85
206,59	1640,42
206,81	1697,77
207,03	1601,51
207,25	1648,61
207,47	1726,44
207,69	1685,48
207,91	1755,11
208,13	1726,44
208,34	1671,14
208,56	1574,89
208,78	1712,10
209,00	1783,78
209,22	1671,14
209,44	1624,04
209,66	1626,09
209,88	1634,28
210,10	1628,14
210,32	1634,28
210,54	1697,77
210,76	1589,22
210,98	1722,34
211,20	1517,54
211,42	1665,00
211,64	1699,81
211,86	1736,68
212,08	1708,01
212,30	1675,24
212,52	1759,21
212,74	1716,20
212,96	1615,85
213,17	1808,36
213,39	1765,35
213,61	1791,97
213,83	1683,43
214,05	1566,70
214,27	1722,34
214,49	1607,66
214,71	1658,85
214,93	1789,92
215,15	1712,10
215,37	1738,73
215,59	1611,75
215,81	1673,19
216,03	1761,25
216,24	1714,15
216,46	1617,90
216,68	1777,64
216,90	1679,33
217,12	1689,57
217,34	1728,49
217,56	1712,10
217,78	1732,58
218,00	1773,54
218,22	1652,71
218,44	1724,39
218,66	1781,73
218,87	1765,35
219,09	1669,09
219,31	1720,29
219,53	1679,33
219,75	1708,01
219,97	1679,33
220,19	1753,06
220,41	1654,76
220,63	1796,07
220,85	1681,38
221,06	1636,33
221,28	1705,96
221,50	1683,43
221,72	1644,52
221,94	1671,14
222,16	1654,76
222,38	1759,21
222,60	1654,76
222,82	1730,53
223,03	1691,62
223,25	1667,05
223,47	1646,57
223,69	1828,84
223,91	1751,01
224,13	1656,81
224,35	1662,95
224,57	1714,15
224,78	1695,72
225,00	1669,09
225,22	1751,01
225,44	1726,44
225,66	1816,55
225,88	1650,66
226,10	1744,87
226,32	1644,52
226,53	1812,45
226,75	1695,72
226,97	1701,86
227,19	1728,49
227,41	1615,85
227,63	1705,96
227,85	1675,24
228,06	1734,63
228,28	1699,81
228,50	1783,78
228,72	1632,23
228,94	1708,01
229,16	1630,18
229,37	1607,66
229,59	1652,71
229,81	1794,02
230,03	1714,15
230,25	1615,85
230,47	1665,00
230,69	1613,80
230,90	1773,54
231,12	1624,04
231,34	1689,57
231,56	1708,01
231,78	1675,24
232,00	1685,48
232,21	1720,29
232,43	1667,05
232,65	1621,99
232,87	1734,63
233,09	1683,43
233,30	1671,14
233,52	1765,35
233,74	1746,92
233,96	1662,95
234,18	1728,49
234,40	1691,62
234,61	1830,88
234,83	1665,00
235,05	1656,81
235,27	1785,83
235,49	1703,91
235,70	1703,91
235,92	1781,73
236,14	1710,05
236,36	1877,99
236,58	1667,05
236,79	1734,63
237,01	1689,57
237,23	1603,56
237,45	1705,96
237,67	1615,85
237,88	1673,19
238,10	1732,58
238,32	1660,90
238,54	1695,72
238,76	1660,90
238,97	1652,71
239,19	1689,57
239,41	1722,34
239,63	1738,73
239,85	1689,57
240,06	1669,09
240,28	1677,29
240,50	1693,67
240,72	1718,25
240,93	1718,25
241,15	1798,12
241,37	1656,81
241,59	1771,49
241,81	1710,05
242,02	1755,11
242,24	1736,68
242,46	1703,91
242,68	1708,01
242,89	1806,31
243,11	1724,39
243,33	1628,14
243,55	1753,06
243,76	1732,58
243,98	1679,33
244,20	1634,28
244,42	1718,25
244,64	1683,43
244,85	1669,09
245,07	1660,90
245,29	1699,81
245,51	1665,00
245,72	1687,53
245,94	1691,62
246,16	1734,63
246,38	1791,97
246,59	1708,01
246,81	1677,29
247,03	1660,90
247,24	1685,48
247,46	1693,67
247,68	1740,77
247,90	1691,62
248,11	1652,71
248,33	1738,73
248,55	1710,05
248,77	1710,05
248,98	1677,29
249,20	1794,02
249,42	1730,53
249,64	1773,54
249,85	1693,67
250,07	1683,43
250,29	1683,43
250,50	1732,58
250,72	1628,14
250,94	1689,57
251,16	1863,65
251,37	1765,35
251,59	1624,04
251,81	1708,01
252,02	1759,21
252,24	1740,77
252,46	1744,87
252,68	1675,24
252,89	1695,72
253,11	1679,33
253,33	1769,44
253,54	1769,44
253,76	1591,27
253,98	1687,53
254,20	1683,43
254,41	1689,57
254,63	1640,42
254,85	1611,75
255,06	1765,35
255,28	1697,77
255,50	1673,19
255,71	1583,08
255,93	1644,52
256,15	1787,88
256,36	1734,63
256,58	1615,85
256,80	1751,01
257,02	1650,66
257,23	1673,19
257,45	1675,24
257,67	1779,68
257,88	1638,38
258,10	1611,75
258,32	1685,48
258,53	1746,92
258,75	1787,88
258,97	1699,81
259,18	1736,68
259,40	1658,85
259,62	1843,17
259,83	1767,40
260,05	1732,58
260,27	1927,14
260,48	1732,58
260,70	1558,50
260,92	1679,33
261,13	1693,67
261,35	1697,77
261,57	1744,87
261,78	1626,09
262,00	1644,52
262,22	1693,67
262,43	1660,90
262,65	1648,61
262,86	1693,67
263,08	1859,56
263,30	1681,38
263,51	1617,90
263,73	1607,66
263,95	1779,68
264,16	1681,38
264,38	1755,11
264,60	1708,01
264,81	1687,53
265,03	1697,77
265,25	1812,45
265,46	1705,96
265,68	1650,66
265,89	1701,86
266,11	1624,04
266,33	1808,36
266,54	1767,40
266,76	1720,29
266,98	1697,77
267,19	1767,40
267,41	1718,25
267,62	1705,96
267,84	1638,38
268,06	1724,39
268,27	1759,21
268,49	1665,00
268,70	1687,53
268,92	1695,72
269,14	1642,47
269,35	1603,56
269,57	1681,38
269,79	1722,34
270,00	1681,38
270,22	1779,68
270,43	1769,44
270,65	1552,36
270,87	1701,86
271,08	1732,58
271,30	1705,96
271,51	1697,77
271,73	1722,34
271,95	1798,12
272,16	1767,40
272,38	1685,48
272,59	1660,90
272,81	1771,49
273,02	1660,90
273,24	1650,66
273,46	1753,06
273,67	1730,53
273,89	1562,60
274,10	1601,51
274,32	1710,05
274,54	1791,97
274,75	1712,10
274,97	1681,38
275,18	1812,45
275,40	1800,16
275,61	1648,61
275,83	1708,01
276,05	1652,71
276,26	1691,62
276,48	1740,77
276,69	1673,19
276,91	1691,62
277,12	1742,82
277,34	1755,11
277,55	1767,40
277,77	1644,52
277,99	1658,85
278,20	1697,77
278,42	1624,04
278,63	1740,77
278,85	1679,33
279,06	1679,33
279,28	1746,92
279,49	1656,81
279,71	1720,29
279,93	1767,40
280,14	1683,43
280,36	1636,33
280,57	1648,61
280,79	1703,91
281,00	1615,85
281,22	1683,43
281,43	1732,58
281,65	1593,32
281,86	1591,27
282,08	1748,97
282,29	1732,58
282,51	1593,32
282,73	1636,33
282,94	1617,90
283,16	1783,78
283,37	1798,12
283,59	1714,15
283,80	1685,48
284,02	1691,62
284,23	1640,42
284,45	1624,04
284,66	1724,39
284,88	1708,01
285,09	1708,01
285,31	1738,73
285,52	1656,81
285,74	1615,85
285,95	1787,88
286,17	1759,21
286,38	1728,49
286,60	1671,14
286,81	1660,90
287,03	1697,77
287,24	1724,39
287,46	1746,92
287,67	1695,72
287,89	1787,88
288,10	1716,20
288,32	1714,15
288,53	1744,87
288,75	1708,01
288,96	1687,53
289,18	1636,33
289,39	1669,09
289,61	1814,50
289,82	1798,12
290,04	1822,69
290,25	1648,61
290,47	1759,21
290,68	1656,81
290,90	1804,26
291,11	1656,81
291,33	1716,20
291,54	1630,18
291,76	1755,11
291,97	1738,73
292,18	1712,10
292,40	1650,66
292,61	1675,24
292,83	1882,08
293,04	1779,68
293,26	1755,11
293,47	1738,73
293,69	1626,09
293,90	1759,21
294,12	1785,83
294,33	1699,81
294,55	1726,44
294,76	1779,68
294,97	1818,60
295,19	1837,03
295,40	1646,57
295,62	1714,15
295,83	1701,86
296,05	1673,19
296,26	1724,39
296,48	1665,00
296,69	1648,61
296,90	1632,23
297,12	1820,64
297,33	1755,11
297,55	1714,15
297,76	1753,06
297,98	1779,68
298,19	1734,63
298,41	1677,29
298,62	1636,33
298,83	1740,77
299,05	1802,21
299,26	1697,77
299,48	1654,76
299,69	1738,73
299,90	1720,29
300,12	1658,85
300,33	1732,58
300,55	1656,81
300,76	1773,54
300,98	1630,18
301,19	1746,92
301,40	1660,90
301,62	1701,86
301,83	1746,92
302,05	1710,05
302,26	1689,57
302,47	1662,95
302,69	1720,29
302,90	1675,24
303,12	1615,85
303,33	1738,73
303,54	1755,11
303,76	1576,94
303,97	1751,01
304,19	1851,36
304,40	1734,63
304,61	1665,00
304,83	1828,84
305,04	1761,25
305,26	1742,82
305,47	1644,52
305,68	1720,29
305,90	1654,76
306,11	1759,21
306,33	1753,06
306,54	1763,30
306,75	1675,24
306,97	1630,18
307,18	1613,80
307,39	1636,33
307,61	1769,44
307,82	1609,70
308,04	1773,54
308,25	1656,81
308,46	1839,08
308,68	1681,38
308,89	1710,05
309,10	1724,39
309,32	1724,39
309,53	1695,72
309,74	1656,81
309,96	1665,00
310,17	1724,39
310,39	1660,90
310,60	1724,39
310,81	1710,05
311,03	1593,32
311,24	1804,26
311,45	1677,29
311,67	1845,22
311,88	1658,85
312,09	1708,01
312,31	1624,04
312,52	1654,76
312,73	1669,09
312,95	1578,98
313,16	1638,38
313,37	1810,40
313,59	1685,48
313,80	1679,33
314,01	1718,25
314,23	1677,29
314,44	1710,05
314,65	1591,27
314,87	1642,47
315,08	1697,77
315,29	1712,10
315,51	1701,86
315,72	1660,90
315,93	1837,03
316,15	1779,68
316,36	1648,61
316,57	1628,14
316,79	1701,86
317,00	1697,77
317,21	1714,15
317,43	1619,94
317,64	1652,71
317,85	1697,77
318,07	1701,86
318,28	1722,34
318,49	1800,16
318,70	1923,04
318,92	1890,28
319,13	1816,55
319,34	1853,41
319,56	1800,16
319,77	1734,63
319,98	1771,49
320,20	1712,10
320,41	1708,01
320,62	1710,05
320,83	1685,48
321,05	1765,35
321,26	1703,91
321,47	1730,53
321,69	1800,16
321,90	1556,46
322,11	1673,19
322,32	1720,29
322,54	1724,39
322,75	1589,22
322,96	1791,97
323,18	1615,85
323,39	1591,27
323,60	1662,95
323,81	1740,77
324,03	1660,90
324,24	1732,58
324,45	1701,86
324,66	1703,91
324,88	1822,69
325,09	1681,38
325,30	1726,44
325,52	1701,86
325,73	1683,43
325,94	1683,43
326,15	1621,99
326,37	1619,94
326,58	1720,29
326,79	1798,12
327,00	1591,27
327,22	1748,97
327,43	1669,09
327,64	1630,18
327,85	1718,25
328,07	1736,68
328,28	1804,26
328,49	1646,57
328,70	1736,68
328,92	1662,95
329,13	1665,00
329,34	1720,29
329,55	1804,26
329,76	1742,82
329,98	1671,14
330,19	1738,73
330,40	1681,38
330,61	1705,96
330,83	1710,05
331,04	1671,14
331,25	1710,05
331,46	1712,10
331,68	1683,43
331,89	1730,53
332,10	1677,29
332,31	1685,48
332,52	1708,01
332,74	1734,63
332,95	1642,47
333,16	1771,49
333,37	1800,16
333,58	1734,63
333,80	1732,58
334,01	1673,19
334,22	1710,05
334,43	1677,29
334,64	1683,43
334,86	1636,33
335,07	1658,85
335,28	1812,45
335,49	1595,37
335,70	1796,07
335,92	1732,58
336,13	1746,92
336,34	1675,24
336,55	1740,77
336,76	1716,20
336,98	1599,46
337,19	1673,19
337,40	1796,07
337,61	1869,80
337,82	1667,05
338,04	1751,01
338,25	1609,70
338,46	1673,19
338,67	1683,43
338,88	1634,28
339,09	1634,28
339,31	1591,27
339,52	1648,61
339,73	1644,52
339,94	1566,70
340,15	1736,68
340,36	1656,81
340,58	1767,40
340,79	1619,94
341,00	1722,34
341,21	1699,81
341,42	1775,59
341,63	1693,67
341,85	1693,67
342,06	1746,92
342,27	1628,14
342,48	1763,30
342,69	1658,85
342,90	1779,68
343,12	1789,92
343,33	1677,29
343,54	1781,73
343,75	1763,30
343,96	1746,92
344,17	1679,33
344,38	1691,62
344,60	1673,19
344,81	1689,57
345,02	1609,70
345,23	1701,86
345,44	1783,78
345,65	1828,84
345,86	1734,63
346,07	1746,92
346,29	1634,28
346,50	1716,20
346,71	1718,25
346,92	1781,73
347,13	1812,45
347,34	1769,44
347,55	1632,23
347,76	1675,24
347,98	1630,18
348,19	1705,96
348,40	1779,68
348,61	1624,04
348,82	1767,40
349,03	1716,20
349,24	1630,18
349,45	1767,40
349,66	1552,36
349,88	1753,06
350,09	1607,66
350,30	1720,29
350,51	1820,64
350,72	1720,29
350,93	1652,71
351,14	1671,14
351,35	1724,39
351,56	1712,10
351,77	1720,29
351,99	1726,44
352,20	1828,84
352,41	1779,68
352,62	1613,80
352,83	1708,01
353,04	1632,23
353,25	1726,44
353,46	1744,87
353,67	1726,44
353,88	1570,79
354,09	1718,25
354,30	1699,81
354,52	1724,39
354,73	1718,25
354,94	1640,42
355,15	1683,43
355,36	1843,17
355,57	1691,62
355,78	1783,78
355,99	1654,76
356,20	1693,67
356,41	1710,05
356,62	1681,38
356,83	1726,44
357,04	1812,45
357,25	1697,77
357,46	1646,57
357,68	1650,66
357,89	1699,81
358,10	1611,75
358,31	1748,97
358,52	1658,85
358,73	1581,03
358,94	1738,73
359,15	1681,38
359,36	1697,77
359,57	1669,09
359,78	1656,81
359,99	1773,54
360,20	1665,00
360,41	1640,42
360,62	1755,11
360,83	1748,97
361,04	1644,52
361,25	1763,30
361,46	1742,82
361,67	1648,61
361,88	1791,97
362,09	1769,44
362,30	1724,39
362,51	1644,52
362,72	1779,68
362,93	1656,81
363,14	1798,12
363,35	1656,81
363,56	1634,28
363,78	1746,92
363,99	1732,58
364,20	1671,14
364,41	1662,95
364,62	1861,60
364,83	1730,53
365,04	1722,34
365,25	1708,01
365,46	1814,50
365,67	1619,94
365,88	1624,04
366,09	1675,24
366,30	1675,24
366,51	1636,33
366,72	1607,66
366,93	1669,09
367,14	1683,43
367,35	1708,01
367,56	1720,29
367,77	1783,78
367,98	1624,04
368,18	1683,43
368,39	1755,11
368,60	1677,29
368,81	1689,57
369,02	1591,27
369,23	1712,10
369,44	1681,38
369,65	1679,33
369,86	1681,38
370,07	1779,68
370,28	1611,75
370,49	1687,53
370,70	1697,77
370,91	1632,23
371,12	1619,94
371,33	1800,16
371,54	1722,34
371,75	1775,59
371,96	1560,55
372,17	1699,81
372,38	1703,91
372,59	1693,67
372,80	1660,90
373,01	1759,21
373,22	1742,82
373,43	1777,64
373,64	1656,81
373,85	1828,84
374,06	1763,30
374,26	1708,01
374,47	1730,53
374,68	1791,97
374,89	1691,62
375,10	1646,57
375,31	1722,34
375,52	1748,97
375,73	1648,61
375,94	1603,56
376,15	1800,16
376,36	1628,14
376,57	1681,38
376,78	1634,28
376,99	1718,25
377,20	1787,88
377,40	1763,30
377,61	1865,70
377,82	1609,70
378,03	1826,79
378,24	1689,57
378,45	1617,90
378,66	1769,44
378,87	1718,25
379,08	1591,27
379,29	1638,38
379,50	1791,97
379,71	1568,74
379,91	1740,77
380,12	1710,05
380,33	1695,72
380,54	1697,77
380,75	1683,43
380,96	1648,61
381,17	1734,63
381,38	1699,81
381,59	1777,64
381,80	1699,81
382,00	1789,92
382,21	1710,05
382,42	1865,70
382,63	1861,60
382,84	1730,53
383,05	1763,30
383,26	1822,69
383,47	1738,73
383,68	1738,73
383,88	1751,01
384,09	1701,86
384,30	1734,63
384,51	1746,92
384,72	1703,91
384,93	1613,80
385,14	1748,97
385,35	1732,58
385,55	1630,18
385,76	1781,73
385,97	1683,43
386,18	1621,99
386,39	1665,00
386,60	1693,67
386,81	1650,66
387,02	1626,09
387,22	1673,19
387,43	1767,40
387,64	1736,68
387,85	1871,84
388,06	2131,94
388,27	4302,78
388,48	6782,87
388,68	8124,29
388,89	9463,66
389,10	9619,31
389,31	8476,54
389,52	7563,15
389,73	6604,70
389,93	6244,26
390,14	5889,96
390,35	5156,79
390,56	4495,29
390,77	3755,97
390,98	2979,79
391,18	2547,67
391,39	2066,40
391,60	1759,21
391,81	1900,52
392,02	1732,58
392,23	1830,88
392,43	1660,90
392,64	1822,69
392,85	1701,86
393,06	1800,16
393,27	1691,62
393,47	1617,90
393,68	1740,77
393,89	1726,44
394,10	1681,38
394,31	1697,77
394,52	1732,58
394,72	1667,05
394,93	1751,01
395,14	1689,57
395,35	1753,06
395,56	1640,42
395,76	1722,34
395,97	1847,27
396,18	1806,31
396,39	1834,98
396,60	2058,21
396,80	1828,84
397,01	1822,69
397,22	1834,98
397,43	1812,45
397,64	1759,21
397,84	1796,07
398,05	1855,46
398,26	1701,86
398,47	1828,84
398,67	1746,92
398,88	1720,29
399,09	1689,57
399,30	1693,67
399,51	1722,34
399,71	1679,33
399,92	1673,19
400,13	1757,16
400,34	1714,15
400,54	1667,05
400,75	1787,88
400,96	1652,71
401,17	1834,98
401,37	1701,86
401,58	1687,53
401,79	1783,78
402,00	1865,70
402,21	1961,95
402,41	1955,81
402,62	1984,48
402,83	2000,87
403,04	2043,87
403,24	2029,54
403,45	1765,35
403,66	1882,08
403,87	1951,71
404,07	1863,65
404,28	1849,32
404,49	1890,28
404,70	1753,06
404,90	1761,25
405,11	1773,54
405,32	1787,88
405,52	1665,00
405,73	1642,47
405,94	1697,77
406,15	1802,21
406,35	1728,49
406,56	1730,53
406,77	1693,67
406,98	1726,44
407,18	1648,61
407,39	1757,16
407,60	1652,71
407,80	1722,34
408,01	1677,29
408,22	1685,48
408,43	1660,90
408,63	1794,02
408,84	1791,97
409,05	1755,11
409,25	1644,52
409,46	1626,09
409,67	1705,96
409,88	1703,91
410,08	1617,90
410,29	1671,14
410,50	1720,29
410,70	1718,25
410,91	1683,43
411,12	1697,77
411,32	1683,43
411,53	1679,33
411,74	1855,46
411,95	1775,59
412,15	1771,49
412,36	1775,59
412,57	1796,07
412,77	1767,40
412,98	1742,82
413,19	1638,38
413,39	1759,21
413,60	1740,77
413,81	1843,17
414,01	1665,00
414,22	1753,06
414,43	1753,06
414,63	1746,92
414,84	1730,53
415,05	1685,48
415,25	1660,90
415,46	1691,62
415,67	1732,58
415,87	1753,06
416,08	1746,92
416,29	1671,14
416,49	1708,01
416,70	1675,24
416,91	1755,11
417,11	1728,49
417,32	1775,59
417,53	1708,01
417,73	1699,81
417,94	1691,62
418,15	1742,82
418,35	1677,29
418,56	1708,01
418,77	1892,32
418,97	1705,96
419,18	1699,81
419,38	1490,92
419,59	1671,14
419,80	1814,50
420,00	1718,25
420,21	1703,91
420,42	1753,06
420,62	1714,15
420,83	1648,61
421,04	1746,92
421,24	1673,19
421,45	1812,45
421,65	1777,64
421,86	1675,24
422,07	1687,53
422,27	1652,71
422,48	1710,05
422,69	1683,43
422,89	1708,01
423,10	1658,85
423,30	1671,14
423,51	1701,86
423,72	1673,19
423,92	1689,57
424,13	1652,71
424,33	1695,72
424,54	1761,25
424,75	1701,86
424,95	1759,21
425,16	1765,35
425,36	1646,57
425,57	1812,45
425,78	1746,92
425,98	1767,40
426,19	1755,11
426,39	1640,42
426,60	1718,25
426,81	1832,93
427,01	1726,44
427,22	1671,14
427,42	1587,18
427,63	1640,42
427,83	1806,31
428,04	1798,12
428,25	1722,34
428,45	1804,26
428,66	1763,30
428,86	1714,15
429,07	1675,24
429,28	1697,77
429,48	1677,29
429,69	1669,09
429,89	1714,15
430,10	1597,42
430,30	1826,79
430,51	1796,07
430,71	1609,70
430,92	1732,58
431,13	1593,32
431,33	1738,73
431,54	1783,78
431,74	1796,07
431,95	1839,08
432,15	1701,86
432,36	1673,19
432,56	1808,36
432,77	1869,80
432,98	1820,64
433,18	1689,57
433,39	1718,25
433,59	1615,85
433,80	1853,41
434,00	1820,64
434,21	1712,10
434,41	1681,38
434,62	1781,73
434,82	1613,80
435,03	1681,38
435,23	1703,91
435,44	1624,04
435,64	1662,95
435,85	1734,63
436,06	1724,39
436,26	1748,97
436,47	1705,96
436,67	1662,95
436,88	1648,61
437,08	1775,59
437,29	1718,25
437,49	1757,16
437,70	1714,15
437,90	1687,53
438,11	1837,03
438,31	1775,59
438,52	1865,70
438,72	1839,08
438,93	1849,32
439,13	1732,58
439,34	1865,70
439,54	1789,92
439,75	1777,64
439,95	1765,35
440,16	1648,61
440,36	1753,06
440,57	1796,07
440,77	1732,58
440,98	1726,44
441,18	1816,55
441,39	1714,15
441,59	1574,89
441,80	1806,31
442,00	1732,58
442,21	1814,50
442,41	1603,56
442,62	1744,87
442,82	1796,07
443,02	1710,05
443,23	1757,16
443,43	1705,96
443,64	1748,97
443,84	1624,04
444,05	1837,03
444,25	1691,62
444,46	1689,57
444,66	1767,40
444,87	1832,93
445,07	1679,33
445,28	1738,73
445,48	1832,93
445,69	1753,06
445,89	1882,08
446,09	1685,48
446,30	1988,58
446,50	2598,87
446,71	3686,34
446,91	4200,38
447,12	4683,70
447,32	4720,57
447,53	4310,97
447,73	3844,04
447,93	3534,79
448,14	3330,00
448,34	3254,22
448,55	2846,68
448,75	2850,77
448,96	2684,89
449,16	2455,51
449,36	2281,44
449,57	2052,06
449,77	1927,14
449,98	1839,08
450,18	1796,07
450,39	1818,60
450,59	1798,12
450,79	1650,66
451,00	1701,86
451,20	1755,11
451,41	1781,73
451,61	1806,31
451,81	1746,92
452,02	1697,77
452,22	1695,72
452,43	1738,73
452,63	1773,54
452,84	1726,44
453,04	1740,77
453,24	1769,44
453,45	1677,29
453,65	1759,21
453,86	1771,49
454,06	1716,20
454,26	1773,54
454,47	1617,90
454,67	1853,41
454,87	1673,19
455,08	1746,92
455,28	1800,16
455,49	1798,12
455,69	1755,11
455,89	1837,03
456,10	1808,36
456,30	1757,16
456,51	1734,63
456,71	1705,96
456,91	1757,16
457,12	1708,01
457,32	1720,29
457,52	1708,01
457,73	1779,68
457,93	1798,12
458,14	1728,49
458,34	1687,53
458,54	1660,90
458,75	1701,86
458,95	1773,54
459,15	1724,39
459,36	1695,72
459,56	1734,63
459,76	1873,89
459,97	1728,49
460,17	1687,53
460,37	1722,34
460,58	1703,91
460,78	1853,41
460,99	1742,82
461,19	1781,73
461,39	1742,82
461,60	1697,77
461,80	1771,49
462,00	1689,57
462,21	1777,64
462,41	1630,18
462,61	1693,67
462,82	1699,81
463,02	1689,57
463,22	1697,77
463,43	1808,36
463,63	1705,96
463,83	1822,69
464,04	1748,97
464,24	1765,35
464,44	1701,86
464,64	1785,83
464,85	1740,77
465,05	1767,40
465,25	1767,40
465,46	1730,53
465,66	1791,97
465,86	1767,40
466,07	1708,01
466,27	1716,20
466,47	1540,07
466,68	1705,96
466,88	1740,77
467,08	1738,73
467,29	1818,60
467,49	1728,49
467,69	1753,06
467,89	1791,97
468,10	1718,25
468,30	1718,25
468,50	1834,98
468,71	1785,83
468,91	1607,66
469,11	1867,75
469,31	1679,33
469,52	1646,57
469,72	1775,59
469,92	1865,70
470,13	1691,62
470,33	1695,72
470,53	1824,74
470,73	2090,98
470,94	2297,82
471,14	2295,77
471,34	2494,43
471,54	2355,16
471,75	2297,82
471,95	2090,98
472,15	2090,98
472,36	2064,35
472,56	2062,30
472,76	1988,58
472,96	1990,63
473,17	1867,75
473,37	1912,80
473,57	1847,27
473,77	1888,23
473,98	1724,39
474,18	1615,85
474,38	1851,36
474,58	1662,95
474,79	1687,53
474,99	1806,31
475,19	1775,59
475,39	1644,52
475,60	1683,43
475,80	1705,96
476,00	1685,48
476,20	1652,71
476,41	1724,39
476,61	1845,22
476,81	1814,50
477,01	1632,23
477,21	1787,88
477,42	1783,78
477,62	1697,77
477,82	1820,64
478,02	1734,63
478,23	1662,95
478,43	1716,20
478,63	1693,67
478,83	1660,90
479,03	1660,90
479,24	1693,67
479,44	1732,58
479,64	1652,71
479,84	1562,60
480,04	1656,81
480,25	1796,07
480,45	1695,72
480,65	1658,85
480,85	1789,92
481,06	1632,23
481,26	1708,01
481,46	1738,73
481,66	1718,25
481,86	1658,85
482,06	1783,78
482,27	1777,64
482,47	1759,21
482,67	1710,05
482,87	1714,15
483,07	1779,68
483,28	1669,09
483,48	1591,27
483,68	1757,16
483,88	1628,14
484,08	1591,27
484,29	1589,22
484,49	1689,57
484,69	1722,34
484,89	1802,21
485,09	1736,68
485,29	1859,56
485,50	1757,16
485,70	1691,62
485,90	1781,73
486,10	1751,01
486,30	1746,92
486,50	1759,21
486,71	1755,11
486,91	1736,68
487,11	1753,06
487,31	1673,19
487,51	1734,63
487,71	1665,00
487,91	1624,04
488,12	1615,85
488,32	1648,61
488,52	1658,85
488,72	1679,33
488,92	1701,86
489,12	1769,44
489,32	1751,01
489,53	1816,55
489,73	1605,61
489,93	1867,75
490,13	1640,42
490,33	1621,99
490,53	1656,81
490,73	1779,68
490,94	1710,05
491,14	1687,53
491,34	1902,56
491,54	2119,65
491,74	2580,44
491,94	2883,54
492,14	2987,99
492,34	2944,98
492,54	2701,27
492,75	2426,84
492,95	2351,07
493,15	2342,88
493,35	2303,96
493,55	2248,67
493,75	2133,98
493,95	2133,98
494,15	2054,11
494,35	1904,61
494,56	1853,41
494,76	1800,16
494,96	1796,07
495,16	1826,79
495,36	1697,77
495,56	1796,07
495,76	1689,57
495,96	1697,77
496,16	1767,40
496,36	1812,45
496,56	1669,09
496,77	1734,63
496,97	1656,81
497,17	1716,20
497,37	1605,61
497,57	1826,79
497,77	1722,34
497,97	1691,62
498,17	1681,38
498,37	1701,86
498,57	1724,39
498,77	1771,49
498,97	1839,08
499,17	1730,53
499,38	1726,44
499,58	1683,43
499,78	1724,39
499,98	1794,02
500,18	1738,73
500,38	1675,24
500,58	1871,84
500,78	2498,52
500,98	4446,14
501,18	5793,70
501,38	6629,27
501,58	7024,53
501,78	6592,41
501,98	5541,80
502,18	5027,76
502,38	4366,27
502,58	4089,79
502,78	3725,26
502,98	3594,19
503,18	3489,74
503,38	3200,98
503,59	2783,19
503,79	2729,94
503,99	2535,39
504,19	2353,12
504,39	2242,53
504,59	2170,85
504,79	2058,21
504,99	2056,16
505,19	1910,75
505,39	1886,18
505,59	2031,58
505,79	1935,33
505,99	1802,21
506,19	1796,07
506,39	1816,55
506,59	1759,21
506,79	1730,53
506,99	1869,80
507,19	1773,54
507,39	1716,20
507,59	1656,81
507,79	1716,20
507,99	1697,77
508,19	1738,73
508,39	1712,10
508,59	1654,76
508,79	1841,12
508,99	1830,88
509,19	1675,24
509,39	1802,21
509,59	1689,57
509,79	1722,34
509,99	1738,73
510,19	1767,40
510,39	1791,97
510,59	1798,12
510,79	1740,77
510,99	1705,96
511,19	1730,53
511,39	1824,74
511,59	1740,77
511,79	1755,11
511,99	1765,35
512,19	1755,11
512,38	1703,91
512,58	1732,58
512,78	1775,59
512,98	1736,68
513,18	1820,64
513,38	1640,42
513,58	1734,63
513,78	1693,67
513,98	1621,99
514,18	1736,68
514,38	1685,48
514,58	1718,25
514,78	1781,73
514,98	1695,72
515,18	1761,25
515,38	1638,38
515,58	1763,30
515,78	1755,11
515,98	1787,88
516,18	1697,77
516,38	1673,19
516,57	1753,06
516,77	1642,47
516,97	1759,21
517,17	1703,91
517,37	1603,56
517,57	1773,54
517,77	1697,77
517,97	1718,25
518,17	1767,40
518,37	1648,61
518,57	1671,14
518,77	1724,39
518,97	1755,11
519,16	1753,06
519,36	1787,88
519,56	1679,33
519,76	1703,91
519,96	1677,29
520,16	1783,78
520,36	1619,94
520,56	1859,56
520,76	1656,81
520,96	1708,01
521,16	1769,44
521,35	1740,77
521,55	1810,40
521,75	1652,71
521,95	1710,05
522,15	1714,15
522,35	1693,67
522,55	1679,33
522,75	1767,40
522,95	1671,14
523,14	1626,09
523,34	1796,07
523,54	1757,16
523,74	1761,25
523,94	1748,97
524,14	1675,24
524,34	1822,69
524,54	1796,07
524,73	1722,34
524,93	1785,83
525,13	1634,28
525,33	1650,66
525,53	1904,61
525,73	1779,68
525,93	1712,10
526,13	1730,53
526,32	1724,39
526,52	1781,73
526,72	1742,82
526,92	1705,96
527,12	1681,38
527,32	1671,14
527,52	1753,06
527,71	1755,11
527,91	1699,81
528,11	1646,57
528,31	1681,38
528,51	1624,04
528,71	1742,82
528,90	1826,79
529,10	1767,40
529,30	1812,45
529,50	1636,33
529,70	1814,50
529,90	1695,72
530,09	1779,68
530,29	1650,66
530,49	1685,48
530,69	1845,22
530,89	1681,38
531,09	1740,77
531,28	1665,00
531,48	1822,69
531,68	1728,49
531,88	1800,16
532,08	1783,78
532,28	1710,05
532,47	1763,30
532,67	1705,96
532,87	1714,15
533,07	1701,86
533,27	1808,36
533,46	1744,87
533,66	1734,63
533,86	1703,91
534,06	1779,68
534,26	1742,82
534,45	1630,18
534,65	1783,78
534,85	1714,15
535,05	1638,38
535,25	1796,07
535,44	1677,29
535,64	1728,49
535,84	1699,81
536,04	1720,29
536,24	1759,21
536,43	1658,85
536,63	1714,15
536,83	1675,24
537,03	1726,44
537,22	1652,71
537,42	1656,81
537,62	1712,10
537,82	1742,82
538,02	1814,50
538,21	1771,49
538,41	1855,46
538,61	1753,06
538,81	1806,31
539,00	1841,12
539,20	1671,14
539,40	1710,05
539,60	1763,30
539,79	1783,78
539,99	1753,06
540,19	1703,91
540,39	1732,58
540,58	1685,48
540,78	1824,74
540,98	1755,11
541,18	1812,45
541,37	1755,11
541,57	1720,29
541,77	1648,61
541,97	1701,86
542,16	1728,49
542,36	1632,23
542,56	1832,93
542,76	1830,88
542,95	1761,25
543,15	1716,20
543,35	1722,34
543,54	1710,05
543,74	1648,61
543,94	1796,07
544,14	1761,25
544,33	1744,87
544,53	1697,77
544,73	1687,53
544,93	1699,81
545,12	1755,11
545,32	1697,77
545,52	1748,97
545,71	1695,72
545,91	1720,29
546,11	1671,14
546,30	1695,72
546,50	1714,15
546,70	1828,84
546,90	1767,40
547,09	1599,46
547,29	1716,20
547,49	1800,16
547,68	1761,25
547,88	1574,89
548,08	1669,09
548,27	2179,04
548,47	1771,49
548,67	1763,30
548,87	1740,77
549,06	1710,05
549,26	1724,39
549,46	1705,96
549,65	1695,72
549,85	1759,21
550,05	1759,21
550,24	1720,29
550,44	1771,49
550,64	1722,34
550,83	1675,24
551,03	1730,53
551,23	1785,83
551,42	1800,16
551,62	1693,67
551,82	1699,81
552,01	1697,77
552,21	1875,94
552,41	1800,16
552,60	1781,73
552,80	1710,05
553,00	1722,34
553,19	1714,15
553,39	1849,32
553,59	1665,00
553,78	1802,21
553,98	1785,83
554,17	1695,72
554,37	1753,06
554,57	1824,74
554,76	1613,80
554,96	1726,44
555,16	1781,73
555,35	1742,82
555,55	1755,11
555,75	1728,49
555,94	1765,35
556,14	1640,42
556,33	1791,97
556,53	1722,34
556,73	1699,81
556,92	1767,40
557,12	1857,51
557,32	1841,12
557,51	1796,07
557,71	1753,06
557,90	1761,25
558,10	1841,12
558,30	1742,82
558,49	1705,96
558,69	1714,15
558,88	1839,08
559,08	1783,78
559,28	1681,38
559,47	1708,01
559,67	1804,26
559,86	1834,98
560,06	1738,73
560,26	1679,33
560,45	1710,05
560,65	1701,86
560,84	1841,12
561,04	1744,87
561,24	1779,68
561,43	1675,24
561,63	1894,37
561,82	1798,12
562,02	1828,84
562,22	1726,44
562,41	1609,70
562,61	1654,76
562,80	1646,57
563,00	1923,04
563,19	1714,15
563,39	1820,64
563,59	1763,30
563,78	1646,57
563,98	1626,09
564,17	1667,05
564,37	1667,05
564,56	1714,15
564,76	1656,81
564,96	1746,92
565,15	1732,58
565,35	1939,43
565,54	1701,86
565,74	1775,59
565,93	1841,12
566,13	1705,96
566,32	1777,64
566,52	1828,84
566,71	1669,09
566,91	1824,74
567,11	1806,31
567,30	1615,85
567,50	1816,55
567,69	1787,88
567,89	1705,96
568,08	1591,27
568,28	1742,82
568,47	1710,05
568,67	1824,74
568,86	1677,29
569,06	1888,23
569,25	1667,05
569,45	1710,05
569,64	1712,10
569,84	1781,73
570,04	1779,68
570,23	1722,34
570,43	1730,53
570,62	1746,92
570,82	1853,41
571,01	1658,85
571,21	1708,01
571,40	1628,14
571,60	1755,11
571,79	1742,82
571,99	1761,25
572,18	1675,24
572,38	1736,68
572,57	1742,82
572,77	1738,73
572,96	1927,14
573,16	1675,24
573,35	1703,91
573,55	1822,69
573,74	1771,49
573,94	1699,81
574,13	1691,62
574,33	1810,40
574,52	1789,92
574,71	1724,39
574,91	1769,44
575,10	1652,71
575,30	1714,15
575,49	1710,05
575,69	1710,05
575,88	1822,69
576,08	1722,34
576,27	1832,93
576,47	1738,73
576,66	1857,51
576,86	1798,12
577,05	1726,44
577,25	1824,74
577,44	1873,89
577,64	1720,29
577,83	1708,01
578,02	1705,96
578,22	1839,08
578,41	1841,12
578,61	1802,21
578,80	1691,62
579,00	1691,62
579,19	1789,92
579,39	1843,17
579,58	1851,36
579,77	1722,34
579,97	1845,22
580,16	1810,40
580,36	1789,92
580,55	1839,08
580,75	1703,91
580,94	1738,73
581,13	1910,75
581,33	1877,99
581,52	1738,73
581,72	1959,91
581,91	1822,69
582,11	1761,25
582,30	1746,92
582,49	1796,07
582,69	1900,52
582,88	1824,74
583,08	1757,16
583,27	1785,83
583,47	1773,54
583,66	1675,24
583,85	1710,05
584,05	1736,68
584,24	1759,21
584,44	1796,07
584,63	1843,17
584,82	1767,40
585,02	1828,84
585,21	1812,45
585,41	1961,95
585,60	1800,16
585,79	1933,28
585,99	1871,84
586,18	1912,80
586,37	2154,46
586,57	3307,47
586,76	9873,26
586,96	24354,44
587,15	34295,28
587,34	39953,82
587,54	41749,89
587,73	36351,45
587,93	26132,08
588,12	21417,66
588,31	18222,83
588,51	16187,14
588,70	15363,86
588,89	14106,41
589,09	12556,10
589,28	10911,58
589,47	9344,88
589,67	7899,02
589,86	6442,91
590,06	4958,13
590,25	3895,24
590,44	3176,40
590,64	2512,86
590,83	2275,29
591,02	2050,02
591,22	1931,23
591,41	1837,03
591,60	1818,60
591,80	1943,52
591,99	1767,40
592,18	1753,06
592,38	1763,30
592,57	1798,12
592,76	1812,45
592,96	1814,50
593,15	1744,87
593,34	1828,84
593,54	1712,10
593,73	1746,92
593,92	1800,16
594,12	1808,36
594,31	1734,63
594,50	1767,40
594,70	1710,05
594,89	1877,99
595,08	1742,82
595,28	1802,21
595,47	1900,52
595,66	1742,82
595,86	1759,21
596,05	1796,07
596,24	1693,67
596,43	1818,60
596,63	1761,25
596,82	1722,34
597,01	1701,86
597,21	1877,99
597,40	1767,40
597,59	1865,70
597,79	1718,25
597,98	1689,57
598,17	1740,77
598,36	1746,92
598,56	1738,73
598,75	1677,29
598,94	1779,68
599,14	1693,67
599,33	1677,29
599,52	1763,30
599,71	1732,58
599,91	1757,16
600,10	1767,40
600,29	1791,97
600,48	1701,86
600,68	1757,16
600,87	1732,58
601,06	1681,38
601,26	1708,01
601,45	1742,82
601,64	1730,53
601,83	1787,88
602,03	1669,09
602,22	1640,42
602,41	1687,53
602,60	1986,53
602,80	1763,30
602,99	1751,01
603,18	1730,53
603,37	1746,92
603,57	1789,92
603,76	1708,01
603,95	1816,55
604,14	1730,53
604,34	1728,49
604,53	1744,87
604,72	1783,78
604,91	1746,92
605,10	1757,16
605,30	1593,32
605,49	1931,23
605,68	1785,83
605,87	1689,57
606,07	1624,04
606,26	1683,43
606,45	1724,39
606,64	1787,88
606,84	1667,05
607,03	1753,06
607,22	1773,54
607,41	1755,11
607,60	1675,24
607,80	1802,21
607,99	1701,86
608,18	1718,25
608,37	1732,58
608,56	1626,09
608,76	1753,06
608,95	1781,73
609,14	1748,97
609,33	1662,95
609,52	1787,88
609,72	1779,68
609,91	1771,49
610,10	1722,34
610,29	1841,12
610,48	1834,98
610,68	1849,32
610,87	1744,87
611,06	1736,68
611,25	1689,57
611,44	1800,16
611,63	1708,01
611,83	1722,34
612,02	1656,81
612,21	1800,16
612,40	1638,38
612,59	1638,38
612,79	1728,49
612,98	1644,52
613,17	1789,92
613,36	1775,59
613,55	1849,32
613,74	1634,28
613,93	1685,48
614,13	1716,20
614,32	1746,92
614,51	1781,73
614,70	1744,87
614,89	1710,05
615,08	1771,49
615,28	2072,54
615,47	1673,19
615,66	1720,29
615,85	1742,82
616,04	1800,16
616,23	1724,39
616,42	1746,92
616,62	1730,53
616,81	1748,97
617,00	1681,38
617,19	1757,16
617,38	1712,10
617,57	1834,98
617,76	1814,50
617,95	1826,79
618,15	1746,92
618,34	1740,77
618,53	1624,04
618,72	1738,73
618,91	1877,99
619,10	1798,12
619,29	1703,91
619,48	1722,34
619,68	1673,19
619,87	1634,28
620,06	1724,39
620,25	1746,92
620,44	1736,68
620,63	1785,83
620,82	1681,38
621,01	1693,67
621,20	1671,14
621,39	1716,20
621,59	1742,82
621,78	1699,81
621,97	1669,09
622,16	1726,44
622,35	1769,44
622,54	1728,49
622,73	1787,88
622,92	1597,42
623,11	1691,62
623,30	1701,86
623,49	1763,30
623,68	1679,33
623,88	1773,54
624,07	1691,62
624,26	1656,81
624,45	1710,05
624,64	1644,52
624,83	1748,97
625,02	1710,05
625,21	1744,87
625,40	1771,49
625,59	1757,16
625,78	1804,26
625,97	1710,05
626,16	1730,53
626,35	1665,00
626,54	1728,49
626,74	1781,73
626,93	1681,38
627,12	1701,86
627,31	1744,87
627,50	1773,54
627,69	1785,83
627,88	1667,05
628,07	1697,77
628,26	1691,62
628,45	1650,66
628,64	1679,33
628,83	1736,68
629,02	1593,32
629,21	1785,83
629,40	1695,72
629,59	1677,29
629,78	1660,90
629,97	1705,96
630,16	1759,21
630,35	1640,42
630,54	1658,85
630,73	1642,47
630,92	1675,24
631,11	1685,48
631,30	1744,87
631,49	1800,16
631,68	1757,16
631,87	1699,81
632,06	1652,71
632,25	1849,32
632,44	1753,06
632,63	1748,97
632,82	1613,80
633,01	1624,04
633,20	1753,06
633,39	1660,90
633,58	1578,98
633,77	1771,49
633,96	1753,06
634,15	1779,68
634,34	1697,77
634,53	1748,97
634,72	1710,05
634,91	1716,20
635,10	1722,34
635,29	1771,49
635,48	1703,91
635,67	1632,23
635,86	1658,85
636,05	1802,21
636,24	1658,85
636,43	1794,02
636,62	1705,96
636,81	1581,03
637,00	1720,29
637,19	1689,57
637,38	1714,15
637,57	1708,01
637,76	1771,49
637,95	1726,44
638,14	1634,28
638,33	1748,97
638,52	1718,25
638,71	1660,90
638,89	1621,99
639,08	1843,17
639,27	1712,10
639,46	1695,72
639,65	1812,45
639,84	1763,30
640,03	1822,69
640,22	1679,33
640,41	1841,12
640,60	1685,48
640,79	1714,15
640,98	1728,49
641,17	1779,68
641,36	1716,20
641,55	1665,00
641,74	1626,09
641,92	1691,62
642,11	1712,10
642,30	1775,59
642,49	1648,61
642,68	1673,19
642,87	1734,63
643,06	1751,01
643,25	1714,15
643,44	1769,44
643,63	1708,01
643,82	1705,96
644,00	1652,71
644,19	1679,33
644,38	1679,33
644,57	1705,96
644,76	1718,25
644,95	1701,86
645,14	1722,34
645,33	1724,39
645,52	1703,91
645,71	1624,04
645,89	1591,27
646,08	1726,44
646,27	1701,86
646,46	1822,69
646,65	1660,90
646,84	1701,86
647,03	1646,57
647,22	1736,68
647,40	1746,92
647,59	1689,57
647,78	1636,33
647,97	1624,04
648,16	1599,46
648,35	1748,97
648,54	1732,58
648,73	1683,43
648,91	1847,27
649,10	1794,02
649,29	1656,81
649,48	1665,00
649,67	1738,73
649,86	1689,57
650,05	1634,28
650,23	1798,12
650,42	1589,22
650,61	1781,73
650,80	1712,10
650,99	1837,03
651,18	1767,40
651,36	1781,73
651,55	1636,33
651,74	1804,26
651,93	1683,43
652,12	1609,70
652,31	1730,53
652,49	1667,05
652,68	1722,34
652,87	1714,15
653,06	1699,81
653,25	1773,54
653,44	1736,68
653,62	1791,97
653,81	1687,53
654,00	1753,06
654,19	1757,16
654,38	1849,32
654,56	1740,77
654,75	1656,81
654,94	1685,48
655,13	1671,14
655,32	1781,73
655,51	1679,33
655,69	1710,05
655,88	1718,25
656,07	1718,25
656,26	1804,26
656,45	1650,66
656,63	1673,19
656,82	1804,26
657,01	1677,29
657,20	1726,44
657,38	1773,54
657,57	1685,48
657,76	1660,90
657,95	1724,39
658,14	1630,18
658,32	1724,39
658,51	1675,24
658,70	1685,48
658,89	1691,62
659,08	1779,68
659,26	1738,73
659,45	1665,00
659,64	1724,39
659,83	1691,62
660,01	1951,71
660,20	1771,49
660,39	1812,45
660,58	1626,09
660,76	1802,21
660,95	1603,56
661,14	1767,40
661,33	1708,01
661,51	1669,09
661,70	1652,71
661,89	1740,77
662,08	1730,53
662,26	1626,09
662,45	1646,57
662,64	1734,63
662,83	1767,40
663,01	1642,47
663,20	1689,57
663,39	1877,99
663,58	1726,44
663,76	1705,96
663,95	1773,54
664,14	1632,23
664,32	1683,43
664,51	1654,76
664,70	1669,09
664,89	1765,35
665,07	1574,89
665,26	1740,77
665,45	1714,15
665,64	1767,40
665,82	1695,72
666,01	1675,24
666,20	1697,77
666,38	1765,35
666,57	1851,36
666,76	2217,95
666,95	4394,94
667,13	10172,26
667,32	15056,67
667,51	17719,03
667,69	19013,34
667,88	17493,75
668,07	12285,76
668,25	9297,78
668,44	8081,28
668,63	7282,58
668,81	6864,79
669,00	6180,77
669,19	5521,32
669,38	4990,90
669,56	4530,11
669,75	4007,87
669,94	3393,48
670,12	2887,64
670,31	2553,82
670,50	2289,63
670,68	2148,32
670,87	1892,32
671,06	1740,77
671,24	1783,78
671,43	1800,16
671,62	1740,77
671,80	1650,66
671,99	1705,96
672,18	1699,81
672,36	1796,07
672,55	1806,31
672,74	1769,44
672,92	1705,96
673,11	1796,07
673,29	1603,56
673,48	1751,01
673,67	1646,57
673,85	1826,79
674,04	1624,04
674,23	1716,20
674,41	1796,07
674,60	1683,43
674,79	1630,18
674,97	1648,61
675,16	1722,34
675,34	1742,82
675,53	1683,43
675,72	1697,77
675,90	1761,25
676,09	1660,90
676,28	1697,77
676,46	1595,37
676,65	1800,16
676,83	1673,19
677,02	1736,68
677,21	1693,67
677,39	1714,15
677,58	1644,52
677,77	1677,29
677,95	1644,52
678,14	1669,09
678,32	1691,62
678,51	1656,81
678,70	1757,16
678,88	1683,43
679,07	1791,97
679,25	1697,77
679,44	1708,01
679,63	1646,57
679,81	1675,24
680,00	1755,11
680,18	1802,21
680,37	1769,44
680,55	1697,77
680,74	1632,23
680,93	1624,04
681,11	1669,09
681,30	1693,67
681,48	1685,48
681,67	1734,63
681,85	1683,43
682,04	1703,91
682,23	1769,44
682,41	1722,34
682,60	1679,33
682,78	1705,96
682,97	1695,72
683,15	1726,44
683,34	1740,77
683,53	1779,68
683,71	1632,23
683,90	1781,73
684,08	1802,21
684,27	1691,62
684,45	1748,97
684,64	1730,53
684,82	1660,90
685,01	1757,16
685,19	1751,01
685,38	1851,36
685,57	1742,82
685,75	1648,61
685,94	1701,86
686,12	1685,48
686,31	1712,10
686,49	1746,92
686,68	1648,61
686,86	1755,11
687,05	1671,14
687,23	1796,07
687,42	1695,72
687,60	1581,03
687,79	1755,11
687,97	1816,55
688,16	1855,46
688,34	1791,97
688,53	1568,74
688,71	1740,77
688,90	1738,73
689,08	1638,38
689,27	1578,98
689,45	1751,01
689,64	1751,01
689,82	1732,58
690,01	1767,40
690,19	1726,44
690,38	1748,97
690,56	1785,83
690,75	1607,66
690,93	1722,34
691,12	1652,71
691,30	1763,30
691,49	1681,38
691,67	1730,53
691,86	1851,36
692,04	1699,81
692,23	1689,57
692,41	1732,58
692,60	1851,36
692,78	1742,82
692,97	1693,67
693,15	1718,25
693,34	1826,79
693,52	1771,49
693,71	1619,94
693,89	1613,80
694,08	1636,33
694,26	1757,16
694,44	1699,81
694,63	1724,39
694,81	1667,05
695,00	1667,05
695,18	1701,86
695,37	1765,35
695,55	1648,61
695,74	1640,42
695,92	1662,95
696,10	1796,07
696,29	1583,08
696,47	1712,10
696,66	1705,96
696,84	1689,57
697,03	1675,24
697,21	1837,03
697,40	2232,29
697,58	1781,73
697,76	1619,94
697,95	1710,05
698,13	1591,27
698,32	1738,73
698,50	1669,09
698,68	1773,54
698,87	1740,77
699,05	1847,27
699,24	1714,15
699,42	1734,63
699,61	1689,57
699,79	1722,34
699,97	1679,33
700,16	1691,62
700,34	1730,53
700,53	1710,05
700,71	1767,40
700,89	1726,44
701,08	1646,57
701,26	1695,72
701,45	2144,22
701,63	1671,14
701,81	1757,16
702,00	1646,57
702,18	1642,47
702,37	1656,81
702,55	1773,54
702,73	1734,63
702,92	1652,71
703,10	1705,96
703,28	1765,35
703,47	1572,84
703,65	1761,25
703,84	1751,01
704,02	1640,42
704,20	1722,34
704,39	1658,85
704,57	1660,90
704,75	1755,11
704,94	1685,48
705,12	1769,44
705,30	1820,64
705,49	2260,96
705,67	4376,51
705,86	9107,32
706,04	12504,90
706,22	14296,87
706,41	15288,09
706,59	13479,73
706,77	9492,34
706,96	7380,88
707,14	6524,83
707,32	5779,37
707,51	5423,02
707,69	4995,00
707,87	4341,69
708,06	3428,30
708,24	2981,84
708,42	2414,56
708,61	2230,24
708,79	1841,12
708,97	1894,37
709,16	1841,12
709,34	1746,92
709,52	1744,87
709,71	1767,40
709,89	1714,15
710,07	1726,44
710,26	1724,39
710,44	1726,44
710,62	1785,83
710,80	1669,09
710,99	1744,87
711,17	1716,20
711,35	1660,90
711,54	1701,86
711,72	1812,45
711,90	1734,63
712,09	1660,90
712,27	1673,19
712,45	1710,05
712,63	1765,35
712,82	1804,26
713,00	1732,58
713,18	1736,68
713,37	1769,44
713,55	1769,44
713,73	1669,09
713,91	1742,82
714,10	1615,85
714,28	1742,82
714,46	1771,49
714,65	1751,01
714,83	1742,82
715,01	1736,68
715,19	1681,38
715,38	1712,10
715,56	1730,53
715,74	1648,61
715,92	1658,85
716,11	1796,07
716,29	1595,37
716,47	1689,57
716,65	1587,18
716,84	1593,32
717,02	1740,77
717,20	1564,65
717,38	1648,61
717,57	1705,96
717,75	1734,63
717,93	1681,38
718,11	1775,59
718,30	1656,81
718,48	1763,30
718,66	1716,20
718,84	1796,07
719,03	1779,68
719,21	1656,81
719,39	1728,49
719,57	1740,77
719,75	1738,73
719,94	1673,19
720,12	1701,86
720,30	1710,05
720,48	1810,40
720,67	1648,61
720,85	1630,18
721,03	1693,67
721,21	1708,01
721,39	1720,29
721,58	1687,53
721,76	1681,38
721,94	1714,15
722,12	1748,97
722,30	1794,02
722,49	1632,23
722,67	1642,47
722,85	1789,92
723,03	1593,32
723,21	1665,00
723,40	1714,15
723,58	1796,07
723,76	1695,72
723,94	1714,15
724,12	1755,11
724,30	1732,58
724,49	1771,49
724,67	1701,86
724,85	1828,84
725,03	1650,66
725,21	1787,88
725,40	1732,58
725,58	1671,14
725,76	1759,21
725,94	1748,97
726,12	1630,18
726,30	1679,33
726,49	1679,33
726,67	1701,86
726,85	1611,75
727,03	1761,25
727,21	2142,18
727,39	2891,73
727,57	3803,08
727,76	4059,07
727,94	4405,18
728,12	4382,65
728,30	3698,63
728,48	2959,31
728,66	2836,44
728,84	2572,25
729,03	2338,78
729,21	2148,32
729,39	1902,56
729,57	1853,41
729,75	1820,64
729,93	1773,54
730,11	1683,43
730,30	1703,91
730,48	1687,53
730,66	1814,50
730,84	1720,29
731,02	1708,01
731,20	1591,27
731,38	1656,81
731,56	1615,85
731,74	1671,14
731,93	1720,29
732,11	1751,01
732,29	1632,23
732,47	1742,82
732,65	1701,86
732,83	1839,08
733,01	1730,53
733,19	1658,85
733,37	1718,25
733,56	1681,38
733,74	1701,86
733,92	1744,87
734,10	1654,76
734,28	1837,03
734,46	1593,32
734,64	1619,94
734,82	1658,85
735,00	1656,81
735,18	1617,90
735,36	1662,95
735,54	1705,96
735,73	1742,82
735,91	1720,29
736,09	1794,02
736,27	1689,57
736,45	1742,82
736,63	1628,14
736,81	1691,62
736,99	1767,40
737,17	1787,88
737,35	1603,56
737,53	1716,20
737,71	1708,01
737,89	1718,25
738,07	1595,37
738,25	1675,24
738,43	1558,50
738,61	1642,47
738,80	1667,05
738,98	1652,71
739,16	1699,81
739,34	1650,66
739,52	1761,25
739,70	1726,44
739,88	1798,12
740,06	1777,64
740,24	1570,79
740,42	1781,73
740,60	1587,18
740,78	1630,18
740,96	1607,66
741,14	1665,00
741,32	1757,16
741,50	1636,33
741,68	1865,70
741,86	1802,21
742,04	1634,28
742,22	1628,14
742,40	1779,68
742,58	1718,25
742,76	1642,47
742,94	1830,88
743,12	1675,24
743,30	1712,10
743,48	1728,49
743,66	1636,33
743,84	1685,48
744,02	1695,72
744,20	1685,48
744,38	1583,08
744,56	1660,90
744,74	1763,30
744,92	1753,06
745,10	1757,16
745,28	1648,61
745,46	1800,16
745,64	1638,38
745,82	1771,49
746,00	1699,81
746,18	1695,72
746,36	1654,76
746,54	1689,57
746,72	1710,05
746,90	1660,90
747,08	1736,68
747,26	1624,04
747,44	1787,88
747,62	1759,21
747,80	1677,29
747,98	1810,40
748,15	1626,09
748,33	1785,83
748,51	1650,66
748,69	1759,21
748,87	1619,94
749,05	1681,38
749,23	1677,29
749,41	1738,73
749,59	1644,52
749,77	1732,58
749,95	1665,00
750,13	1716,20
750,31	1740,77
750,49	1691,62
750,67	1675,24
750,85	1855,46
751,03	1720,29
751,20	1851,36
751,38	1708,01
751,56	1669,09
751,74	1748,97
751,92	1755,11
752,10	1605,61
752,28	1718,25
752,46	1675,24
752,64	1679,33
752,82	1759,21
753,00	1708,01
753,18	1656,81
753,35	1724,39
753,53	1720,29
753,71	1708,01
753,89	1765,35
754,07	1644,52
754,25	1675,24
754,43	1773,54
754,61	1656,81
754,79	1771,49
754,97	1708,01
755,14	1734,63
755,32	1667,05
755,50	1724,39
755,68	1775,59
755,86	1605,61
756,04	1581,03
756,22	1595,37
756,40	1732,58
756,57	1751,01
756,75	1677,29
756,93	1769,44
757,11	1777,64
757,29	1572,84
757,47	1652,71
757,65	1585,13
757,82	1595,37
758,00	1708,01
758,18	1679,33
758,36	1734,63
758,54	1812,45
758,72	1640,42
758,90	1773,54
759,07	1609,70
759,25	1691,62
759,43	1662,95
759,61	1640,42
759,79	2207,71
759,97	1736,68
760,15	1658,85
760,32	1628,14
760,50	1738,73
760,68	1826,79
760,86	1591,27
761,04	1751,01
761,22	1732,58
761,39	1708,01
761,57	1802,21
761,75	1724,39
761,93	1662,95
762,11	1705,96
762,28	1669,09
762,46	1740,77
762,64	1763,30
762,82	1619,94
763,00	1638,38
763,18	1675,24
763,35	1638,38
763,53	1744,87
763,71	1646,57
763,89	1710,05
764,07	1679,33
764,24	1665,00
764,42	1761,25
764,60	1640,42
764,78	1742,82
764,96	1751,01
765,13	1759,21
765,31	1757,16
765,49	1812,45
765,67	1724,39
765,84	1599,46
766,02	1642,47
766,20	1638,38
766,38	1728,49
766,56	1724,39
766,73	1765,35
766,91	1689,57
767,09	1636,33
767,27	1689,57
767,44	1673,19
767,62	1757,16
767,80	1662,95
767,98	1699,81
768,15	1712,10
768,33	1722,34
768,51	1751,01
768,69	1808,36
768,87	1753,06
769,04	1705,96
769,22	1783,78
769,40	1722,34
769,58	1785,83
769,75	1662,95
769,93	1757,16
770,11	1638,38
770,28	1630,18
770,46	1775,59
770,64	1734,63
770,82	1736,68
770,99	1646,57
771,17	1710,05
771,35	1703,91
771,53	1632,23
771,70	1689,57
771,88	1757,16
772,06	1746,92
772,23	1689,57
772,41	1726,44
772,59	1636,33
772,77	1710,05
772,94	1714,15
773,12	1730,53
773,30	1560,55
773,47	1716,20
773,65	1767,40
773,83	1763,30
774,01	1638,38
774,18	1574,89
774,36	1583,08
774,54	1626,09
774,71	1775,59
774,89	1572,84
775,07	1718,25
775,24	1810,40
775,42	1748,97
775,60	1708,01
775,78	1638,38
775,95	1644,52
776,13	1603,56
776,31	1597,42
776,48	1748,97
776,66	1738,73
776,84	1665,00
777,01	1714,15
777,19	1681,38
777,37	1671,14
777,54	1669,09
777,72	1816,55
777,90	1753,06
778,07	1658,85
778,25	1910,75
778,43	1787,88
778,60	1603,56
778,78	1759,21
778,96	1769,44
779,13	1638,38
779,31	1691,62
779,49	1697,77
779,66	1722,34
779,84	1757,16
780,01	1701,86
780,19	1726,44
780,37	1806,31
780,54	1730,53
780,72	1714,15
780,90	1662,95
781,07	1658,85
781,25	1603,56
781,43	1718,25
781,60	1751,01
781,78	1787,88
781,95	1708,01
782,13	1546,22
782,31	1705,96
782,48	1517,54
782,66	1714,15
782,83	1791,97
783,01	1669,09
783,19	1701,86
783,36	1714,15
783,54	1675,24
783,72	1738,73
783,89	1767,40
784,07	1708,01
784,24	1646,57
784,42	1769,44
784,60	1748,97
784,77	1767,40
784,95	1572,84
785,12	1789,92
785,30	1722,34
785,47	1705,96
785,65	1595,37
785,83	1652,71
786,00	1652,71
786,18	1648,61
786,35	1675,24
786,53	1683,43
786,71	1769,44
786,88	1667,05
787,06	1710,05
787,23	1718,25
787,41	1609,70
787,58	1726,44
787,76	1642,47
787,94	1656,81
788,11	1703,91
788,29	1619,94
788,46	1644,52
788,64	1566,70
788,81	1654,76
788,99	1626,09
789,16	1624,04
789,34	1732,58
789,52	1751,01
789,69	1638,38
789,87	1607,66
790,04	1728,49
790,22	1714,15
790,39	1787,88
790,57	1689,57
790,74	1667,05
790,92	1808,36
791,09	1574,89
791,27	1675,24
791,44	1769,44
791,62	1697,77
791,79	1683,43
791,97	1662,95
792,15	1918,95
792,32	1716,20
792,50	1705,96
792,67	1714,15
792,85	1787,88
793,02	1714,15
793,20	1601,51
793,37	1642,47
793,55	1699,81
793,72	1654,76
793,90	1722,34
794,07	1720,29
794,25	1644,52
794,42	1720,29
794,60	1687,53
794,77	1703,91
794,95	1716,20
795,12	1744,87
795,30	1693,67
795,47	1679,33
795,65	1812,45
795,82	1710,05
796,00	1624,04
796,17	1722,34
796,34	1642,47
796,52	1705,96
796,69	1705,96
796,87	1769,44
797,04	1746,92
797,22	1751,01
797,39	1779,68
797,57	1783,78
797,74	1705,96
797,92	1695,72
798,09	1665,00
798,27	1765,35
798,44	1693,67
798,62	1691,62
798,79	1734,63
798,96	1665,00
799,14	1710,05
799,31	1828,84
799,49	1646,57
799,66	1662,95
799,84	1730,53
800,01	1626,09
800,19	1728,49
800,36	1591,27
800,53	1660,90
800,71	1689,57
800,88	1824,74
801,06	1619,94
801,23	1656,81
801,41	1693,67
801,58	1607,66
801,75	1662,95
801,93	1679,33
802,10	1673,19
802,28	1693,67
802,45	1718,25
802,63	1685,48
802,80	1841,12
802,97	1691,62
803,15	1724,39
803,32	1595,37
803,50	1601,51
803,67	1673,19
803,84	1619,94
804,02	1673,19
804,19	1693,67
804,37	1554,41
804,54	1673,19
804,71	1677,29
804,89	1673,19
805,06	1701,86
805,24	1720,29
805,41	1656,81
805,58	1634,28
805,76	1839,08
805,93	1642,47
806,10	1832,93
806,28	1677,29
806,45	1753,06
806,63	1753,06
806,80	1748,97
806,97	1675,24
807,15	1648,61
807,32	1665,00
807,49	1640,42
807,67	1605,61
807,84	1691,62
808,01	1636,33
808,19	1787,88
808,36	1787,88
808,54	1587,18
808,71	1654,76
808,88	1697,77
809,06	1705,96
809,23	1802,21
809,40	1624,04
809,58	1724,39
809,75	1708,01
809,92	1621,99
810,10	1742,82
810,27	1708,01
810,44	1787,88
810,62	1726,44
810,79	1734,63
810,96	1566,70
811,14	1730,53
811,31	1763,30
811,48	1732,58
811,66	1628,14
811,83	1751,01
812,00	1685,48
812,18	1691,62
812,35	1806,31
812,52	1658,85
812,69	1667,05
812,87	1611,75
813,04	1685,48
813,21	1777,64
813,39	1724,39
813,56	1726,44
813,73	1763,30
813,91	1599,46
814,08	1701,86
814,25	1767,40
814,42	1574,89
814,60	1726,44
814,77	1730,53
814,94	1703,91
815,12	1683,43
815,29	1744,87
815,46	1689,57
815,63	1665,00
815,81	1671,14
815,98	1730,53
816,15	1714,15
816,33	1695,72
816,50	1615,85
816,67	1669,09
816,84	1689,57
817,02	1673,19
817,19	1644,52
817,36	1681,38
817,53	1714,15
817,71	1583,08
817,88	1748,97
818,05	1658,85
818,22	1734,63
818,40	1810,40
818,57	1572,84
818,74	1753,06
818,91	1767,40
819,09	1677,29
819,26	1779,68
819,43	1624,04
819,60	1640,42
819,78	1681,38
819,95	1789,92
820,12	1648,61
820,29	1693,67
820,47	1787,88
820,64	1724,39
820,81	1568,74
820,98	1656,81
821,15	1650,66
821,33	1699,81
821,50	1634,28
821,67	1687,53
821,84	1656,81
822,02	1804,26
822,19	1804,26
822,36	1613,80
822,53	1722,34
822,70	1652,71
822,88	1722,34
823,05	1796,07
823,22	1648,61
823,39	1722,34
823,56	1687,53
823,74	1798,12
823,91	1673,19
824,08	1583,08
824,25	1689,57
824,42	1830,88
824,60	1675,24
824,77	1681,38
824,94	1728,49
825,11	1730,53
825,28	1644,52
825,45	1675,24
825,63	1724,39
825,80	1603,56
825,97	1714,15
826,14	1689,57
826,31	1599,46
826,48	1798,12
826,66	1640,42
826,83	1699,81
827,00	1728,49
827,17	1665,00
827,34	1671,14
827,51	1667,05
827,69	1683,43
827,86	1630,18
828,03	1689,57
828,20	1726,44
828,37	1626,09
828,54	1669,09
828,71	1599,46
828,89	1716,20
829,06	1705,96
829,23	1769,44
829,40	1593,32
829,57	1693,67
829,74	1767,40
829,91	1624,04
830,09	1685,48
830,26	1716,20
830,43	1783,78
830,60	1687,53
830,77	1722,34
830,94	1779,68
831,11	1724,39
831,28	1615,85
831,46	1759,21
831,63	1701,86
831,80	1781,73
831,97	1650,66
832,14	1753,06
832,31	1683,43
832,48	1701,86
832,65	1744,87
832,82	1662,95
832,99	1771,49
833,17	1624,04
833,34	1755,11
833,51	1652,71
833,68	1619,94
833,85	1777,64
834,02	1685,48
834,19	1648,61
834,36	1662,95
834,53	1671,14
834,70	1712,10
834,87	1779,68
835,04	1718,25
835,22	1671,14
835,39	1650,66
835,56	1658,85
835,73	1611,75
835,90	1646,57
836,07	1644,52
836,24	1726,44
836,41	1708,01
836,58	1658,85
836,75	1744,87
836,92	1699,81
837,09	1718,25
837,26	1705,96
837,43	1624,04
837,60	1728,49
837,77	1689,57
837,94	1718,25
838,12	1751,01
838,29	1724,39
838,46	1593,32
838,63	1660,90
838,80	1757,16
838,97	1771,49
839,14	1681,38
839,31	1757,16
839,48	1779,68
839,65	1675,24
839,82	1742,82
839,99	1695,72
840,16	1687,53
840,33	1724,39
840,50	1714,15
840,67	1673,19
840,84	1568,74
841,01	1654,76
841,18	1658,85
841,35	1665,00
841,52	1730,53
841,69	1824,74
841,86	1722,34
842,03	1748,97
842,20	1685,48
842,37	1671,14
842,54	1708,01
842,71	1712,10
842,88	1615,85
843,05	1789,92
843,22	1644,52
843,39	1689,57
843,56	1677,29
843,73	1705,96
843,90	1730,53
844,07	1673,19
844,24	1775,59
844,41	1804,26
844,58	1714,15
844,75	1716,20
844,92	1679,33
845,09	1673,19
845,26	1646,57
845,43	1701,86
845,60	1685,48
845,77	1828,84
845,94	1703,91
846,10	1685,48
846,27	1642,47
846,44	1558,50
846,61	1624,04
846,78	1699,81
846,95	1787,88
847,12	1669,09
847,29	1656,81
847,46	1638,38
847,63	1740,77
847,80	1601,51
847,97	1634,28
848,14	1814,50
848,31	1685,48
848,48	1554,41
848,65	1771,49
848,82	1677,29
848,98	1779,68
849,15	1748,97
849,32	1771,49
849,49	1769,44
849,66	1681,38
849,83	1675,24
850,00	1611,75
850,17	1753,06
850,34	1705,96
850,51	1699,81
850,68	1705,96
850,85	1789,92
851,01	1722,34
851,18	1796,07
851,35	1705,96
851,52	1832,93
851,69	1714,15
851,86	1697,77
852,03	1726,44
852,20	1806,31
852,37	1681,38
852,53	1642,47
852,70	1628,14
852,87	1648,61
853,04	1734,63
853,21	1642,47
853,38	1734,63
853,55	1794,02
853,72	1691,62
853,89	1708,01
854,05	1656,81
854,22	1656,81
854,39	1724,39
854,56	1683,43
854,73	1699,81
854,90	1646,57
855,07	1742,82
855,23	1736,68
855,40	1665,00
855,57	1677,29
855,74	1632,23
855,91	1875,94
856,08	1613,80
856,25	1703,91
856,41	1599,46
856,58	1658,85
856,75	1691,62
856,92	1658,85
857,09	1673,19
857,26	1585,13
857,42	1701,86
857,59	1753,06
857,76	1626,09
857,93	1658,85
858,10	1693,67
858,27	1658,85
858,43	1656,81
858,60	1572,84
858,77	1626,09
858,94	1660,90
859,11	1710,05
859,27	1699,81
859,44	1630,18
859,61	1802,21
859,78	1671,14
859,95	1734,63
860,12	1621,99
860,28	1802,21
860,45	1763,30
860,62	1730,53
860,79	1734,63
860,95	1654,76
861,12	1656,81
861,29	1677,29
861,46	1650,66
861,63	1634,28
861,79	1742,82
861,96	1660,90
862,13	1703,91
862,30	1744,87
862,47	1669,09
862,63	1662,95
862,80	1716,20
862,97	1714,15
863,14	1677,29
863,30	1722,34
863,47	1683,43
863,64	1787,88
863,81	1837,03
863,97	1697,77
864,14	1710,05
864,31	1632,23
864,48	1726,44
864,65	1652,71
864,81	1689,57
864,98	1738,73
865,15	1736,68
865,32	1761,25
865,48	1759,21
865,65	1755,11
865,82	1599,46
865,98	1667,05
866,15	1853,41
866,32	1644,52
866,49	1748,97
866,65	1765,35
866,82	1683,43
866,99	1712,10
867,16	1808,36
867,32	1699,81
867,49	1667,05
867,66	1697,77
867,83	1722,34
867,99	1675,24
868,16	1646,57
868,33	1591,27
868,49	1654,76
868,66	1693,67
868,83	1771,49
868,99	1675,24
869,16	1691,62
869,33	1710,05
869,50	1796,07
869,66	1646,57
869,83	1665,00
870,00	1611,75
870,16	1789,92
870,33	1708,01
870,50	1736,68
870,66	1648,61
870,83	1785,83
871,00	1687,53
871,17	1683,43
871,33	1744,87
871,50	1697,77
871,67	1695,72
871,83	1587,18
872,00	1775,59
872,17	1640,42
872,33	1775,59
872,50	1732,58
872,67	1656,81
872,83	1697,77
873,00	1757,16
873,17	1695,72
873,33	1658,85
873,50	1761,25
873,67	1650,66
873,83	1593,32
874,00	1712,10
874,16	1701,86
874,33	1712,10
874,50	1652,71
874,66	1783,78
874,83	1697,77
875,00	1789,92
875,16	1667,05
875,33	1708,01
875,50	1601,51
875,66	1621,99
875,83	1652,71
875,99	1662,95
876,16	1753,06
876,33	1597,42
876,49	1732,58
876,66	1656,81
876,83	1673,19
876,99	1628,14
877,16	1734,63
877,32	1695,72
877,49	1634,28
877,66	1697,77
877,82	1810,40
877,99	1677,29
878,15	1714,15
878,32	1710,05
878,49	1710,05
878,65	1710,05
878,82	1753,06
878,98	1665,00
879,15	1755,11
879,32	1724,39
879,48	1742,82
879,65	1656,81
879,81	1673,19
879,98	1687,53
880,15	1660,90
880,31	1714,15
880,48	1691,62
880,64	1771,49
880,81	1779,68
880,97	1734,63
881,14	1763,30
881,31	1624,04
881,47	1871,84
881,64	1728,49
881,80	1605,61
881,97	1687,53
882,13	1802,21
882,30	1656,81
882,47	1632,23
882,63	1652,71
882,80	1669,09
882,96	1683,43
883,13	1716,20
883,29	1708,01
883,46	1734,63
883,62	1837,03
883,79	1650,66
883,95	1683,43
884,12	1689,57
884,29	1732,58
884,45	1630,18
884,62	1759,21
884,78	1701,86
884,95	1746,92
885,11	1685,48
885,28	1763,30
885,44	1732,58
885,61	1689,57
885,77	1779,68
885,94	1683,43
886,10	1710,05
886,27	1730,53
886,43	1769,44
886,60	1759,21
886,76	1712,10
886,93	1626,09
887,09	1673,19
887,26	1665,00
887,42	1712,10
887,59	1794,02
887,75	1796,07
887,92	1732,58
888,08	1744,87
888,25	1730,53
888,41	1757,16
888,58	1751,01
888,74	1656,81
888,91	1671,14
>>>>>End Processed Spectral Data<<<<<
