SpectraSuite Data File
++++++++++++++++++++++++++++++++++++
Date: Mon Jun 06 17:24:17 CEST 2016
User: root
Dark Spectrum Present: No
Reference Spectrum Present: No
Number of Sampled Component Spectra: 1
Spectrometers: USB4C02835
Integration Time (usec): 100000 (USB4C02835)
Spectra Averaged: 1 (USB4C02835)
Boxcar Smoothing: 0 (USB4C02835)
Correct for Electrical Dark: No (USB4C02835)
Strobe/Lamp Enabled: No (USB4C02835)
Correct for Detector Non-linearity: No (USB4C02835)
Correct for Stray Light: No (USB4C02835)
Number of Pixels in Processed Spectrum: 3648
>>>>>Begin Processed Spectral Data<<<<<
177,47	1527,78
177,69	1527,78
177,91	1527,78
178,13	1501,16
178,36	1454,06
178,58	1607,66
178,80	1734,63
179,02	1611,75
179,24	1683,43
179,46	1693,67
179,68	1791,97
179,90	1738,73
180,13	1691,62
180,35	1685,48
180,57	1703,91
180,79	1742,82
181,01	1695,72
181,23	1755,11
181,45	1839,08
181,67	1861,60
181,90	1800,16
182,12	1720,29
182,34	1636,33
182,56	1677,29
182,78	1751,01
183,00	1652,71
183,22	1718,25
183,44	1619,94
183,66	1834,98
183,89	1841,12
184,11	1736,68
184,33	1791,97
184,55	1890,28
184,77	1730,53
184,99	1740,77
185,21	1665,00
185,43	1853,41
185,65	1662,95
185,87	1720,29
186,10	1826,79
186,32	1837,03
186,54	1728,49
186,76	1751,01
186,98	1769,44
187,20	1714,15
187,42	1662,95
187,64	1767,40
187,86	1779,68
188,08	1761,25
188,30	1691,62
188,52	1697,77
188,75	1818,60
188,97	1826,79
189,19	1644,52
189,41	1628,14
189,63	1781,73
189,85	1742,82
190,07	1708,01
190,29	1572,84
190,51	1748,97
190,73	1677,29
190,95	1787,88
191,17	1650,66
191,39	1578,98
191,61	1677,29
191,84	1665,00
192,06	1671,14
192,28	1650,66
192,50	1912,80
192,72	1742,82
192,94	1730,53
193,16	1771,49
193,38	1744,87
193,60	1581,03
193,82	1665,00
194,04	1853,41
194,26	1804,26
194,48	1705,96
194,70	1679,33
194,92	1632,23
195,14	1742,82
195,36	1691,62
195,58	1681,38
195,80	1673,19
196,02	1570,79
196,24	1689,57
196,46	1808,36
196,69	1675,24
196,91	1869,80
197,13	1779,68
197,35	1599,46
197,57	1755,11
197,79	1832,93
198,01	1695,72
198,23	1716,20
198,45	1726,44
198,67	1648,61
198,89	1691,62
199,11	1738,73
199,33	1701,86
199,55	1644,52
199,77	1636,33
199,99	1759,21
200,21	1681,38
200,43	1746,92
200,65	1630,18
200,87	1589,22
201,09	1751,01
201,31	1656,81
201,53	1769,44
201,75	1755,11
201,97	1730,53
202,19	1708,01
202,41	1769,44
202,63	1798,12
202,85	1757,16
203,07	1763,30
203,29	1699,81
203,51	1675,24
203,73	1660,90
203,95	1882,08
204,17	1646,57
204,39	1787,88
204,61	1662,95
204,83	1638,38
205,05	1785,83
205,27	1812,45
205,49	1751,01
205,71	1763,30
205,93	1640,42
206,15	1681,38
206,37	1662,95
206,59	1609,70
206,81	1615,85
207,03	1695,72
207,25	1636,33
207,47	1753,06
207,69	1712,10
207,91	1722,34
208,13	1789,92
208,34	1673,19
208,56	1652,71
208,78	1779,68
209,00	1734,63
209,22	1730,53
209,44	1722,34
209,66	1617,90
209,88	1738,73
210,10	1714,15
210,32	1734,63
210,54	1783,78
210,76	1701,86
210,98	1763,30
211,20	1587,18
211,42	1675,24
211,64	1783,78
211,86	1687,53
212,08	1730,53
212,30	1665,00
212,52	1648,61
212,74	1746,92
212,96	1595,37
213,17	1738,73
213,39	1724,39
213,61	1708,01
213,83	1705,96
214,05	1640,42
214,27	1800,16
214,49	1746,92
214,71	1703,91
214,93	1773,54
215,15	1699,81
215,37	1785,83
215,59	1644,52
215,81	1738,73
216,03	1753,06
216,24	1671,14
216,46	1693,67
216,68	1751,01
216,90	1828,84
217,12	1726,44
217,34	1708,01
217,56	1720,29
217,78	1771,49
218,00	1822,69
218,22	1738,73
218,44	1726,44
218,66	1710,05
218,87	1830,88
219,09	1732,58
219,31	1771,49
219,53	1742,82
219,75	1769,44
219,97	1675,24
220,19	1689,57
220,41	1665,00
220,63	1869,80
220,85	1816,55
221,06	1712,10
221,28	1730,53
221,50	1779,68
221,72	1783,78
221,94	1714,15
222,16	1689,57
222,38	1755,11
222,60	1734,63
222,82	1683,43
223,03	1712,10
223,25	1615,85
223,47	1744,87
223,69	1748,97
223,91	1755,11
224,13	1759,21
224,35	1691,62
224,57	1767,40
224,78	1753,06
225,00	1640,42
225,22	1687,53
225,44	1710,05
225,66	1767,40
225,88	1726,44
226,10	1732,58
226,32	1716,20
226,53	1816,55
226,75	1681,38
226,97	1791,97
227,19	1720,29
227,41	1624,04
227,63	1742,82
227,85	1591,27
228,06	1763,30
228,28	1681,38
228,50	1746,92
228,72	1654,76
228,94	1691,62
229,16	1615,85
229,37	1714,15
229,59	1650,66
229,81	1771,49
230,03	1726,44
230,25	1619,94
230,47	1615,85
230,69	1669,09
230,90	1720,29
231,12	1742,82
231,34	1638,38
231,56	1683,43
231,78	1640,42
232,00	1738,73
232,21	1703,91
232,43	1683,43
232,65	1617,90
232,87	1755,11
233,09	1640,42
233,30	1693,67
233,52	1794,02
233,74	1613,80
233,96	1718,25
234,18	1738,73
234,40	1746,92
234,61	1763,30
234,83	1636,33
235,05	1648,61
235,27	1855,46
235,49	1775,59
235,70	1738,73
235,92	1820,64
236,14	1730,53
236,36	1863,65
236,58	1708,01
236,79	1765,35
237,01	1656,81
237,23	1644,52
237,45	1863,65
237,67	1746,92
237,88	1755,11
238,10	1853,41
238,32	1609,70
238,54	1658,85
238,76	1699,81
238,97	1697,77
239,19	1609,70
239,41	1746,92
239,63	1791,97
239,85	1703,91
240,06	1703,91
240,28	1718,25
240,50	1810,40
240,72	1828,84
240,93	1675,24
241,15	1777,64
241,37	1714,15
241,59	1763,30
241,81	1615,85
242,02	1710,05
242,24	1775,59
242,46	1746,92
242,68	1630,18
242,89	1796,07
243,11	1734,63
243,33	1685,48
243,55	1712,10
243,76	1744,87
243,98	1619,94
244,20	1771,49
244,42	1761,25
244,64	1718,25
244,85	1658,85
245,07	1673,19
245,29	1820,64
245,51	1667,05
245,72	1783,78
245,94	1744,87
246,16	1746,92
246,38	1773,54
246,59	1722,34
246,81	1771,49
247,03	1730,53
247,24	1642,47
247,46	1738,73
247,68	1746,92
247,90	1640,42
248,11	1722,34
248,33	1720,29
248,55	1624,04
248,77	1675,24
248,98	1781,73
249,20	1814,50
249,42	1755,11
249,64	1654,76
249,85	1685,48
250,07	1724,39
250,29	1685,48
250,50	1767,40
250,72	1667,05
250,94	1742,82
251,16	1869,80
251,37	1783,78
251,59	1720,29
251,81	1806,31
252,02	1773,54
252,24	1681,38
252,46	1724,39
252,68	1673,19
252,89	1679,33
253,11	1628,14
253,33	1841,12
253,54	1800,16
253,76	1626,09
253,98	1662,95
254,20	1705,96
254,41	1644,52
254,63	1701,86
254,85	1591,27
255,06	1751,01
255,28	1728,49
255,50	1665,00
255,71	1701,86
255,93	1654,76
256,15	1763,30
256,36	1744,87
256,58	1734,63
256,80	1781,73
257,02	1785,83
257,23	1656,81
257,45	1724,39
257,67	1789,92
257,88	1677,29
258,10	1708,01
258,32	1736,68
258,53	1677,29
258,75	1839,08
258,97	1734,63
259,18	1683,43
259,40	1718,25
259,62	1818,60
259,83	1789,92
260,05	1699,81
260,27	1994,72
260,48	1759,21
260,70	1601,51
260,92	1744,87
261,13	1794,02
261,35	1718,25
261,57	1746,92
261,78	1626,09
262,00	1751,01
262,22	1738,73
262,43	1714,15
262,65	1699,81
262,86	1718,25
263,08	1839,08
263,30	1771,49
263,51	1673,19
263,73	1722,34
263,95	1779,68
264,16	1665,00
264,38	1701,86
264,60	1751,01
264,81	1714,15
265,03	1822,69
265,25	1798,12
265,46	1757,16
265,68	1822,69
265,89	1781,73
266,11	1599,46
266,33	1746,92
266,54	1681,38
266,76	1781,73
266,98	1695,72
267,19	1787,88
267,41	1769,44
267,62	1791,97
267,84	1640,42
268,06	1654,76
268,27	1716,20
268,49	1812,45
268,70	1779,68
268,92	1714,15
269,14	1705,96
269,35	1626,09
269,57	1695,72
269,79	1724,39
270,00	1724,39
270,22	1798,12
270,43	1640,42
270,65	1595,37
270,87	1697,77
271,08	1804,26
271,30	1732,58
271,51	1748,97
271,73	1703,91
271,95	1753,06
272,16	1767,40
272,38	1726,44
272,59	1701,86
272,81	1730,53
273,02	1716,20
273,24	1695,72
273,46	1779,68
273,67	1693,67
273,89	1658,85
274,10	1689,57
274,32	1742,82
274,54	1789,92
274,75	1777,64
274,97	1648,61
275,18	1734,63
275,40	1732,58
275,61	1675,24
275,83	1714,15
276,05	1640,42
276,26	1691,62
276,48	1773,54
276,69	1734,63
276,91	1652,71
277,12	1763,30
277,34	1691,62
277,55	1775,59
277,77	1701,86
277,99	1705,96
278,20	1689,57
278,42	1693,67
278,63	1662,95
278,85	1675,24
279,06	1638,38
279,28	1734,63
279,49	1734,63
279,71	1802,21
279,93	1724,39
280,14	1667,05
280,36	1667,05
280,57	1728,49
280,79	1716,20
281,00	1708,01
281,22	1699,81
281,43	1804,26
281,65	1624,04
281,86	1644,52
282,08	1740,77
282,29	1863,65
282,51	1650,66
282,73	1640,42
282,94	1644,52
283,16	1732,58
283,37	1767,40
283,59	1845,22
283,80	1714,15
284,02	1685,48
284,23	1695,72
284,45	1640,42
284,66	1652,71
284,88	1751,01
285,09	1798,12
285,31	1796,07
285,52	1693,67
285,74	1660,90
285,95	1785,83
286,17	1724,39
286,38	1751,01
286,60	1716,20
286,81	1695,72
287,03	1710,05
287,24	1748,97
287,46	1712,10
287,67	1665,00
287,89	1890,28
288,10	1738,73
288,32	1644,52
288,53	1740,77
288,75	1673,19
288,96	1724,39
289,18	1632,23
289,39	1685,48
289,61	1775,59
289,82	1814,50
290,04	1814,50
290,25	1654,76
290,47	1695,72
290,68	1677,29
290,90	1757,16
291,11	1560,55
291,33	1767,40
291,54	1587,18
291,76	1699,81
291,97	1785,83
292,18	1708,01
292,40	1708,01
292,61	1691,62
292,83	1828,84
293,04	1759,21
293,26	1732,58
293,47	1683,43
293,69	1667,05
293,90	1699,81
294,12	1814,50
294,33	1714,15
294,55	1656,81
294,76	1818,60
294,97	1751,01
295,19	1902,56
295,40	1714,15
295,62	1695,72
295,83	1781,73
296,05	1591,27
296,26	1722,34
296,48	1697,77
296,69	1660,90
296,90	1751,01
297,12	1767,40
297,33	1802,21
297,55	1720,29
297,76	1738,73
297,98	1738,73
298,19	1726,44
298,41	1705,96
298,62	1667,05
298,83	1814,50
299,05	1732,58
299,26	1683,43
299,48	1615,85
299,69	1748,97
299,90	1763,30
300,12	1679,33
300,33	1806,31
300,55	1710,05
300,76	1785,83
300,98	1667,05
301,19	1695,72
301,40	1708,01
301,62	1712,10
301,83	1726,44
302,05	1681,38
302,26	1701,86
302,47	1783,78
302,69	1626,09
302,90	1734,63
303,12	1566,70
303,33	1722,34
303,54	1787,88
303,76	1722,34
303,97	1701,86
304,19	1824,74
304,40	1658,85
304,61	1644,52
304,83	1814,50
305,04	1759,21
305,26	1689,57
305,47	1697,77
305,68	1728,49
305,90	1695,72
306,11	1775,59
306,33	1660,90
306,54	1615,85
306,75	1740,77
306,97	1699,81
307,18	1679,33
307,39	1646,57
307,61	1726,44
307,82	1695,72
308,04	1740,77
308,25	1642,47
308,46	1705,96
308,68	1746,92
308,89	1665,00
309,10	1812,45
309,32	1724,39
309,53	1646,57
309,74	1716,20
309,96	1765,35
310,17	1789,92
310,39	1648,61
310,60	1693,67
310,81	1757,16
311,03	1611,75
311,24	1736,68
311,45	1671,14
311,67	1820,64
311,88	1759,21
312,09	1710,05
312,31	1724,39
312,52	1679,33
312,73	1716,20
312,95	1613,80
313,16	1642,47
313,37	1814,50
313,59	1732,58
313,80	1781,73
314,01	1800,16
314,23	1730,53
314,44	1746,92
314,65	1587,18
314,87	1675,24
315,08	1675,24
315,29	1710,05
315,51	1658,85
315,72	1617,90
315,93	1845,22
316,15	1769,44
316,36	1660,90
316,57	1779,68
316,79	1798,12
317,00	1685,48
317,21	1736,68
317,43	1646,57
317,64	1726,44
317,85	1693,67
318,07	1689,57
318,28	1744,87
318,49	1847,27
318,70	1920,99
318,92	1884,13
319,13	1839,08
319,34	1818,60
319,56	1753,06
319,77	1820,64
319,98	1841,12
320,20	1773,54
320,41	1837,03
320,62	1767,40
320,83	1648,61
321,05	1796,07
321,26	1730,53
321,47	1685,48
321,69	1699,81
321,90	1599,46
322,11	1665,00
322,32	1710,05
322,54	1837,03
322,75	1710,05
322,96	1783,78
323,18	1654,76
323,39	1599,46
323,60	1658,85
323,81	1759,21
324,03	1644,52
324,24	1638,38
324,45	1708,01
324,66	1685,48
324,88	1785,83
325,09	1794,02
325,30	1624,04
325,52	1710,05
325,73	1730,53
325,94	1675,24
326,15	1679,33
326,37	1695,72
326,58	1820,64
326,79	1816,55
327,00	1675,24
327,22	1755,11
327,43	1665,00
327,64	1683,43
327,85	1755,11
328,07	1685,48
328,28	1816,55
328,49	1705,96
328,70	1708,01
328,92	1665,00
329,13	1644,52
329,34	1738,73
329,55	1775,59
329,76	1794,02
329,98	1656,81
330,19	1818,60
330,40	1728,49
330,61	1769,44
330,83	1710,05
331,04	1681,38
331,25	1808,36
331,46	1734,63
331,68	1640,42
331,89	1769,44
332,10	1699,81
332,31	1640,42
332,52	1640,42
332,74	1759,21
332,95	1691,62
333,16	1705,96
333,37	1742,82
333,58	1734,63
333,80	1736,68
334,01	1681,38
334,22	1748,97
334,43	1628,14
334,64	1712,10
334,86	1675,24
335,07	1644,52
335,28	1828,84
335,49	1628,14
335,70	1820,64
335,92	1738,73
336,13	1855,46
336,34	1757,16
336,55	1716,20
336,76	1726,44
336,98	1613,80
337,19	1681,38
337,40	1746,92
337,61	1884,13
337,82	1787,88
338,04	1837,03
338,25	1669,09
338,46	1730,53
338,67	1699,81
338,88	1634,28
339,09	1677,29
339,31	1714,15
339,52	1708,01
339,73	1624,04
339,94	1701,86
340,15	1777,64
340,36	1738,73
340,58	1730,53
340,79	1673,19
341,00	1771,49
341,21	1595,37
341,42	1806,31
341,63	1718,25
341,85	1761,25
342,06	1697,77
342,27	1665,00
342,48	1759,21
342,69	1624,04
342,90	1665,00
343,12	1744,87
343,33	1667,05
343,54	1765,35
343,75	1830,88
343,96	1718,25
344,17	1757,16
344,38	1665,00
344,60	1660,90
344,81	1665,00
345,02	1718,25
345,23	1755,11
345,44	1834,98
345,65	1781,73
345,86	1791,97
346,07	1710,05
346,29	1763,30
346,50	1736,68
346,71	1755,11
346,92	1834,98
347,13	1810,40
347,34	1687,53
347,55	1751,01
347,76	1726,44
347,98	1665,00
348,19	1742,82
348,40	1802,21
348,61	1685,48
348,82	1791,97
349,03	1755,11
349,24	1693,67
349,45	1855,46
349,66	1624,04
349,88	1761,25
350,09	1656,81
350,30	1853,41
350,51	1820,64
350,72	1699,81
350,93	1730,53
351,14	1722,34
351,35	1771,49
351,56	1716,20
351,77	1626,09
351,99	1740,77
352,20	1763,30
352,41	1738,73
352,62	1564,65
352,83	1794,02
353,04	1753,06
353,25	1697,77
353,46	1734,63
353,67	1740,77
353,88	1615,85
354,09	1693,67
354,30	1732,58
354,52	1738,73
354,73	1617,90
354,94	1699,81
355,15	1744,87
355,36	1781,73
355,57	1730,53
355,78	1779,68
355,99	1673,19
356,20	1736,68
356,41	1751,01
356,62	1673,19
356,83	1710,05
357,04	1828,84
357,25	1640,42
357,46	1705,96
357,68	1611,75
357,89	1595,37
358,10	1738,73
358,31	1722,34
358,52	1779,68
358,73	1593,32
358,94	1650,66
359,15	1753,06
359,36	1857,51
359,57	1701,86
359,78	1681,38
359,99	1794,02
360,20	1671,14
360,41	1712,10
360,62	1744,87
360,83	1710,05
361,04	1714,15
361,25	1769,44
361,46	1781,73
361,67	1695,72
361,88	1779,68
362,09	1755,11
362,30	1716,20
362,51	1648,61
362,72	1685,48
362,93	1767,40
363,14	1744,87
363,35	1683,43
363,56	1697,77
363,78	1796,07
363,99	1742,82
364,20	1611,75
364,41	1701,86
364,62	1824,74
364,83	1679,33
365,04	1675,24
365,25	1673,19
365,46	1794,02
365,67	1673,19
365,88	1609,70
366,09	1640,42
366,30	1720,29
366,51	1724,39
366,72	1748,97
366,93	1755,11
367,14	1712,10
367,35	1796,07
367,56	1746,92
367,77	1841,12
367,98	1693,67
368,18	1783,78
368,39	1753,06
368,60	1640,42
368,81	1787,88
369,02	1767,40
369,23	1699,81
369,44	1615,85
369,65	1718,25
369,86	1722,34
370,07	1787,88
370,28	1716,20
370,49	1769,44
370,70	1734,63
370,91	1656,81
371,12	1660,90
371,33	1855,46
371,54	1683,43
371,75	1804,26
371,96	1607,66
372,17	1779,68
372,38	1650,66
372,59	1761,25
372,80	1734,63
373,01	1675,24
373,22	1634,28
373,43	1777,64
373,64	1646,57
373,85	1787,88
374,06	1861,60
374,26	1779,68
374,47	1789,92
374,68	1800,16
374,89	1726,44
375,10	1673,19
375,31	1783,78
375,52	1732,58
375,73	1791,97
375,94	1583,08
376,15	1689,57
376,36	1673,19
376,57	1677,29
376,78	1730,53
376,99	1728,49
377,20	1794,02
377,40	1699,81
377,61	1787,88
377,82	1624,04
378,03	1832,93
378,24	1728,49
378,45	1722,34
378,66	1763,30
378,87	1619,94
379,08	1624,04
379,29	1736,68
379,50	1814,50
379,71	1730,53
379,91	1744,87
380,12	1726,44
380,33	1697,77
380,54	1744,87
380,75	1687,53
380,96	1722,34
381,17	1746,92
381,38	1720,29
381,59	1751,01
381,80	1734,63
382,00	1892,32
382,21	1806,31
382,42	1832,93
382,63	1869,80
382,84	1779,68
383,05	1824,74
383,26	1863,65
383,47	1718,25
383,68	1843,17
383,88	1695,72
384,09	1677,29
384,30	1806,31
384,51	1732,58
384,72	1736,68
384,93	1701,86
385,14	1701,86
385,35	1773,54
385,55	1587,18
385,76	1820,64
385,97	1632,23
386,18	1566,70
386,39	1697,77
386,60	1636,33
386,81	1656,81
387,02	1665,00
387,22	1751,01
387,43	1714,15
387,64	1810,40
387,85	1937,38
388,06	2252,77
388,27	4200,38
388,48	6776,73
388,68	8210,31
388,89	9484,14
389,10	9809,77
389,31	8591,23
389,52	7712,65
389,73	6762,39
389,93	6299,55
390,14	5885,86
390,35	5156,79
390,56	4616,12
390,77	3839,94
390,98	3067,86
391,18	2439,13
391,39	2123,74
391,60	1871,84
391,81	1777,64
392,02	1732,58
392,23	1906,66
392,43	1794,02
392,64	1867,75
392,85	1806,31
393,06	1845,22
393,27	1728,49
393,47	1652,71
393,68	1773,54
393,89	1718,25
394,10	1746,92
394,31	1789,92
394,52	1632,23
394,72	1738,73
394,93	1814,50
395,14	1671,14
395,35	1820,64
395,56	1636,33
395,76	1671,14
395,97	1822,69
396,18	1822,69
396,39	1761,25
396,60	2084,83
396,80	1857,51
397,01	1837,03
397,22	1882,08
397,43	1849,32
397,64	1689,57
397,84	1847,27
398,05	1861,60
398,26	1724,39
398,47	1794,02
398,67	1812,45
398,88	1732,58
399,09	1701,86
399,30	1705,96
399,51	1710,05
399,71	1587,18
399,92	1634,28
400,13	1697,77
400,34	1695,72
400,54	1685,48
400,75	1818,60
400,96	1712,10
401,17	1812,45
401,37	1697,77
401,58	1716,20
401,79	1701,86
402,00	1884,13
402,21	2013,15
402,41	1974,24
402,62	2031,58
402,83	2093,02
403,04	1978,34
403,24	2129,89
403,45	1812,45
403,66	1918,95
403,87	1902,56
404,07	1945,57
404,28	1880,04
404,49	1826,79
404,70	1804,26
404,90	1806,31
405,11	1820,64
405,32	1751,01
405,52	1697,77
405,73	1675,24
405,94	1656,81
406,15	1648,61
406,35	1808,36
406,56	1781,73
406,77	1636,33
406,98	1730,53
407,18	1722,34
407,39	1798,12
407,60	1601,51
407,80	1732,58
408,01	1648,61
408,22	1746,92
408,43	1703,91
408,63	1738,73
408,84	1763,30
409,05	1820,64
409,25	1697,77
409,46	1794,02
409,67	1738,73
409,88	1656,81
410,08	1771,49
410,29	1759,21
410,50	1806,31
410,70	1732,58
410,91	1710,05
411,12	1748,97
411,32	1724,39
411,53	1716,20
411,74	1814,50
411,95	1820,64
412,15	1773,54
412,36	1812,45
412,57	1763,30
412,77	1771,49
412,98	1759,21
413,19	1689,57
413,39	1703,91
413,60	1777,64
413,81	1802,21
414,01	1712,10
414,22	1804,26
414,43	1814,50
414,63	1667,05
414,84	1863,65
415,05	1703,91
415,25	1732,58
415,46	1714,15
415,67	1701,86
415,87	1742,82
416,08	1638,38
416,29	1703,91
416,49	1757,16
416,70	1660,90
416,91	1673,19
417,11	1757,16
417,32	1816,55
417,53	1767,40
417,73	1767,40
417,94	1632,23
418,15	1675,24
418,35	1724,39
418,56	1687,53
418,77	1853,41
418,97	1748,97
419,18	1685,48
419,38	1568,74
419,59	1730,53
419,80	1787,88
420,00	1742,82
420,21	1681,38
420,42	1742,82
420,62	1712,10
420,83	1669,09
421,04	1718,25
421,24	1720,29
421,45	1761,25
421,65	1775,59
421,86	1705,96
422,07	1773,54
422,27	1708,01
422,48	1789,92
422,69	1681,38
422,89	1742,82
423,10	1662,95
423,30	1607,66
423,51	1755,11
423,72	1708,01
423,92	1734,63
424,13	1660,90
424,33	1753,06
424,54	1730,53
424,75	1734,63
424,95	1808,36
425,16	1824,74
425,36	1730,53
425,57	1847,27
425,78	1767,40
425,98	1787,88
426,19	1642,47
426,39	1658,85
426,60	1740,77
426,81	1742,82
427,01	1658,85
427,22	1652,71
427,42	1638,38
427,63	1658,85
427,83	1771,49
428,04	1855,46
428,25	1804,26
428,45	1736,68
428,66	1837,03
428,86	1705,96
429,07	1751,01
429,28	1724,39
429,48	1703,91
429,69	1628,14
429,89	1665,00
430,10	1652,71
430,30	1765,35
430,51	1806,31
430,71	1716,20
430,92	1701,86
431,13	1755,11
431,33	1769,44
431,54	1787,88
431,74	1789,92
431,95	1816,55
432,15	1578,98
432,36	1771,49
432,56	1894,37
432,77	1763,30
432,98	1767,40
433,18	1656,81
433,39	1777,64
433,59	1730,53
433,80	1867,75
434,00	1818,60
434,21	1726,44
434,41	1675,24
434,62	1990,63
434,82	1726,44
435,03	1626,09
435,23	1771,49
435,44	1607,66
435,64	1759,21
435,85	1683,43
436,06	1681,38
436,26	1826,79
436,47	1757,16
436,67	1716,20
436,88	1673,19
437,08	1734,63
437,29	1763,30
437,49	1767,40
437,70	1730,53
437,90	1736,68
438,11	1787,88
438,31	1785,83
438,52	1853,41
438,72	1861,60
438,93	1943,52
439,13	1843,17
439,34	1841,12
439,54	1820,64
439,75	1800,16
439,95	1894,37
440,16	1744,87
440,36	1730,53
440,57	1808,36
440,77	1689,57
440,98	1751,01
441,18	1771,49
441,39	1644,52
441,59	1701,86
441,80	1853,41
442,00	1732,58
442,21	1785,83
442,41	1679,33
442,62	1751,01
442,82	1699,81
443,02	1751,01
443,23	1685,48
443,43	1759,21
443,64	1740,77
443,84	1705,96
444,05	1828,84
444,25	1740,77
444,46	1677,29
444,66	1771,49
444,87	1834,98
445,07	1574,89
445,28	1665,00
445,48	1796,07
445,69	1828,84
445,89	1877,99
446,09	1765,35
446,30	2070,50
446,50	2740,18
446,71	3577,80
446,91	4313,02
447,12	4782,01
447,32	4968,37
447,53	4382,65
447,73	3995,59
447,93	3565,51
448,14	3364,81
448,34	3149,78
448,55	2944,98
448,75	2846,68
448,96	2738,13
449,16	2398,17
449,36	2246,62
449,57	2056,16
449,77	1888,23
449,98	1818,60
450,18	1816,55
450,39	1748,97
450,59	1810,40
450,79	1746,92
451,00	1689,57
451,20	1738,73
451,41	1724,39
451,61	1785,83
451,81	1771,49
452,02	1722,34
452,22	1759,21
452,43	1755,11
452,63	1679,33
452,84	1742,82
453,04	1718,25
453,24	1834,98
453,45	1730,53
453,65	1697,77
453,86	1720,29
454,06	1798,12
454,26	1755,11
454,47	1693,67
454,67	1800,16
454,87	1810,40
455,08	1712,10
455,28	1920,99
455,49	1736,68
455,69	1712,10
455,89	1826,79
456,10	1775,59
456,30	1785,83
456,51	1800,16
456,71	1798,12
456,91	1824,74
457,12	1746,92
457,32	1785,83
457,52	1667,05
457,73	1796,07
457,93	1779,68
458,14	1716,20
458,34	1658,85
458,54	1685,48
458,75	1720,29
458,95	1761,25
459,15	1763,30
459,36	1765,35
459,56	1703,91
459,76	1787,88
459,97	1777,64
460,17	1746,92
460,37	1751,01
460,58	1675,24
460,78	1783,78
460,99	1697,77
461,19	1753,06
461,39	1689,57
461,60	1722,34
461,80	1736,68
462,00	1642,47
462,21	1763,30
462,41	1650,66
462,61	1683,43
462,82	1630,18
463,02	1808,36
463,22	1728,49
463,43	1767,40
463,63	1744,87
463,83	1849,32
464,04	1779,68
464,24	1736,68
464,44	1681,38
464,64	1804,26
464,85	1806,31
465,05	1800,16
465,25	1761,25
465,46	1757,16
465,66	1769,44
465,86	1771,49
466,07	1753,06
466,27	1691,62
466,47	1714,15
466,68	1652,71
466,88	1830,88
467,08	1730,53
467,29	1662,95
467,49	1839,08
467,69	1777,64
467,89	1804,26
468,10	1695,72
468,30	1689,57
468,50	1812,45
468,71	1769,44
468,91	1593,32
469,11	1867,75
469,31	1671,14
469,52	1673,19
469,72	1775,59
469,92	1886,18
470,13	1677,29
470,33	1716,20
470,53	1812,45
470,73	2105,31
470,94	2252,77
471,14	2328,54
471,34	2488,28
471,54	2394,08
471,75	2234,33
471,95	2158,56
472,15	2162,66
472,36	2183,13
472,56	2090,98
472,76	2017,25
472,96	1976,29
473,17	1918,95
473,37	1939,43
473,57	1697,77
473,77	1871,84
473,98	1794,02
474,18	1714,15
474,38	1834,98
474,58	1716,20
474,79	1642,47
474,99	1767,40
475,19	1781,73
475,39	1665,00
475,60	1687,53
475,80	1771,49
476,00	1808,36
476,20	1689,57
476,41	1771,49
476,61	1843,17
476,81	1800,16
477,01	1742,82
477,21	2009,06
477,42	1882,08
477,62	1648,61
477,82	1808,36
478,02	1691,62
478,23	1755,11
478,43	1656,81
478,63	1658,85
478,83	1673,19
479,03	1738,73
479,24	1845,22
479,44	1804,26
479,64	1689,57
479,84	1630,18
480,04	1652,71
480,25	1775,59
480,45	1744,87
480,65	1699,81
480,85	1898,47
481,06	1675,24
481,26	1736,68
481,46	1779,68
481,66	1828,84
481,86	1640,42
482,06	1875,94
482,27	1665,00
482,47	1705,96
482,67	1789,92
482,87	1687,53
483,07	1859,56
483,28	1636,33
483,48	1671,14
483,68	1685,48
483,88	1710,05
484,08	1564,65
484,29	1675,24
484,49	1734,63
484,69	1708,01
484,89	1806,31
485,09	1781,73
485,29	1820,64
485,50	1763,30
485,70	1728,49
485,90	1832,93
486,10	1767,40
486,30	1757,16
486,50	1832,93
486,71	1771,49
486,91	1773,54
487,11	1751,01
487,31	1578,98
487,51	1783,78
487,71	1697,77
487,91	1738,73
488,12	1685,48
488,32	1644,52
488,52	1671,14
488,72	1683,43
488,92	1742,82
489,12	1841,12
489,32	1855,46
489,53	1703,91
489,73	1726,44
489,93	1806,31
490,13	1685,48
490,33	1679,33
490,53	1697,77
490,73	1845,22
490,94	1609,70
491,14	1789,92
491,34	1904,61
491,54	2181,09
491,74	2535,39
491,94	2897,88
492,14	2975,70
492,34	3051,47
492,54	2768,85
492,75	2406,36
492,95	2500,57
493,15	2394,08
493,35	2215,90
493,55	2203,61
493,75	2099,17
493,95	2183,13
494,15	2013,15
494,35	1914,85
494,56	1880,04
494,76	1847,27
494,96	1828,84
495,16	1818,60
495,36	1791,97
495,56	1738,73
495,76	1757,16
495,96	1761,25
496,16	1705,96
496,36	1845,22
496,56	1691,62
496,77	1763,30
496,97	1740,77
497,17	1785,83
497,37	1705,96
497,57	1720,29
497,77	1755,11
497,97	1648,61
498,17	1660,90
498,37	1714,15
498,57	1816,55
498,77	1648,61
498,97	1744,87
499,17	1787,88
499,38	1798,12
499,58	1781,73
499,78	1806,31
499,98	1828,84
500,18	1800,16
500,38	1695,72
500,58	1869,80
500,78	2686,94
500,98	4665,27
501,18	5949,35
501,38	6832,02
501,58	7047,06
501,78	6786,97
501,98	5679,02
502,18	5019,57
502,38	4448,19
502,58	4014,02
502,78	3946,44
502,98	3606,47
503,18	3475,40
503,38	3186,64
503,59	2854,87
503,79	2631,64
503,99	2484,19
504,19	2330,59
504,39	2183,13
504,59	2156,51
504,79	2150,37
504,99	2050,02
505,19	1841,12
505,39	1918,95
505,59	1961,95
505,79	1929,19
505,99	1810,40
506,19	1832,93
506,39	1931,23
506,59	1720,29
506,79	1771,49
506,99	1837,03
507,19	1755,11
507,39	1746,92
507,59	1599,46
507,79	1685,48
507,99	1693,67
508,19	1783,78
508,39	1691,62
508,59	1763,30
508,79	1755,11
508,99	1906,66
509,19	1736,68
509,39	1757,16
509,59	1705,96
509,79	1736,68
509,99	1765,35
510,19	1783,78
510,39	1728,49
510,59	1748,97
510,79	1841,12
510,99	1652,71
511,19	1796,07
511,39	1800,16
511,59	1810,40
511,79	1781,73
511,99	1828,84
512,19	1810,40
512,38	1775,59
512,58	1880,04
512,78	1732,58
512,98	1757,16
513,18	1810,40
513,38	1708,01
513,58	1759,21
513,78	1769,44
513,98	1765,35
514,18	1757,16
514,38	1695,72
514,58	1769,44
514,78	1705,96
514,98	1685,48
515,18	1736,68
515,38	1667,05
515,58	1869,80
515,78	1701,86
515,98	1708,01
516,18	1802,21
516,38	1800,16
516,57	1652,71
516,77	1701,86
516,97	1802,21
517,17	1703,91
517,37	1675,24
517,57	1841,12
517,77	1800,16
517,97	1763,30
518,17	1794,02
518,37	1708,01
518,57	1662,95
518,77	1726,44
518,97	1701,86
519,16	1748,97
519,36	1880,04
519,56	1751,01
519,76	1765,35
519,96	1701,86
520,16	1869,80
520,36	1689,57
520,56	1781,73
520,76	1689,57
520,96	1714,15
521,16	1753,06
521,35	1867,75
521,55	1849,32
521,75	1767,40
521,95	1648,61
522,15	1773,54
522,35	1644,52
522,55	1716,20
522,75	1751,01
522,95	1720,29
523,14	1722,34
523,34	1761,25
523,54	1738,73
523,74	1732,58
523,94	1738,73
524,14	1640,42
524,34	1822,69
524,54	1834,98
524,73	1701,86
524,93	1742,82
525,13	1791,97
525,33	1689,57
525,53	1904,61
525,73	1773,54
525,93	1779,68
526,13	1722,34
526,32	1722,34
526,52	1753,06
526,72	1787,88
526,92	1751,01
527,12	1697,77
527,32	1716,20
527,52	1857,51
527,71	1775,59
527,91	1718,25
528,11	1738,73
528,31	1763,30
528,51	1673,19
528,71	1863,65
528,90	1814,50
529,10	1869,80
529,30	1736,68
529,50	1595,37
529,70	1769,44
529,90	1714,15
530,09	1718,25
530,29	1673,19
530,49	1695,72
530,69	1925,09
530,89	1722,34
531,09	1789,92
531,28	1794,02
531,48	1794,02
531,68	1748,97
531,88	1714,15
532,08	1802,21
532,28	1767,40
532,47	1742,82
532,67	1765,35
532,87	1697,77
533,07	1691,62
533,27	1740,77
533,46	1773,54
533,66	1802,21
533,86	1781,73
534,06	1744,87
534,26	1746,92
534,45	1798,12
534,65	1734,63
534,85	1722,34
535,05	1746,92
535,25	1769,44
535,44	1673,19
535,64	1753,06
535,84	1744,87
536,04	1767,40
536,24	1720,29
536,43	1695,72
536,63	1804,26
536,83	1671,14
537,03	1773,54
537,22	1640,42
537,42	1632,23
537,62	1767,40
537,82	1816,55
538,02	1832,93
538,21	1828,84
538,41	1914,85
538,61	1787,88
538,81	1699,81
539,00	1787,88
539,20	1677,29
539,40	1738,73
539,60	1796,07
539,79	1791,97
539,99	1730,53
540,19	1662,95
540,39	1726,44
540,58	1746,92
540,78	1800,16
540,98	1818,60
541,18	1837,03
541,37	1816,55
541,57	1701,86
541,77	1810,40
541,97	1712,10
542,16	1685,48
542,36	1681,38
542,56	1808,36
542,76	1867,75
542,95	1779,68
543,15	1755,11
543,35	1753,06
543,54	1724,39
543,74	1708,01
543,94	1785,83
544,14	1732,58
544,33	1732,58
544,53	1716,20
544,73	1689,57
544,93	1744,87
545,12	1742,82
545,32	1804,26
545,52	1738,73
545,71	1656,81
545,91	1677,29
546,11	1773,54
546,30	1714,15
546,50	1701,86
546,70	1789,92
546,90	1779,68
547,09	1710,05
547,29	1779,68
547,49	1710,05
547,68	1634,28
547,88	1832,93
548,08	1765,35
548,27	2140,13
548,47	1720,29
548,67	1748,97
548,87	1701,86
549,06	1685,48
549,26	1763,30
549,46	1716,20
549,65	1675,24
549,85	1804,26
550,05	1832,93
550,24	1626,09
550,44	1718,25
550,64	1710,05
550,83	1744,87
551,03	1865,70
551,23	1810,40
551,42	1794,02
551,62	1755,11
551,82	1656,81
552,01	1728,49
552,21	1783,78
552,41	1806,31
552,60	1830,88
552,80	1794,02
553,00	1679,33
553,19	1746,92
553,39	1800,16
553,59	1630,18
553,78	1728,49
553,98	1810,40
554,17	1640,42
554,37	1708,01
554,57	1806,31
554,76	1710,05
554,96	1736,68
555,16	1755,11
555,35	1787,88
555,55	1726,44
555,75	1728,49
555,94	1841,12
556,14	1662,95
556,33	1841,12
556,53	1767,40
556,73	1734,63
556,92	1810,40
557,12	1845,22
557,32	1839,08
557,51	1871,84
557,71	1771,49
557,90	1837,03
558,10	1771,49
558,30	1783,78
558,49	1718,25
558,69	1808,36
558,88	1820,64
559,08	1791,97
559,28	1794,02
559,47	1740,77
559,67	1810,40
559,86	1800,16
560,06	1779,68
560,26	1718,25
560,45	1814,50
560,65	1800,16
560,84	1806,31
561,04	1818,60
561,24	1769,44
561,43	1722,34
561,63	1857,51
561,82	1773,54
562,02	1775,59
562,22	1769,44
562,41	1644,52
562,61	1763,30
562,80	1652,71
563,00	1929,19
563,19	1761,25
563,39	1769,44
563,59	1800,16
563,78	1691,62
563,98	1626,09
564,17	1722,34
564,37	1673,19
564,56	1730,53
564,76	1703,91
564,96	1812,45
565,15	1800,16
565,35	1875,94
565,54	1687,53
565,74	1691,62
565,93	1722,34
566,13	1781,73
566,32	1800,16
566,52	1726,44
566,71	1773,54
566,91	1853,41
567,11	1771,49
567,30	1624,04
567,50	1769,44
567,69	1771,49
567,89	1722,34
568,08	1669,09
568,28	1742,82
568,47	1703,91
568,67	1783,78
568,86	1687,53
569,06	1824,74
569,25	1675,24
569,45	1763,30
569,64	1699,81
569,84	1695,72
570,04	1773,54
570,23	1740,77
570,43	1730,53
570,62	1826,79
570,82	1812,45
571,01	1701,86
571,21	1708,01
571,40	1669,09
571,60	1742,82
571,79	1744,87
571,99	1736,68
572,18	1656,81
572,38	1757,16
572,57	1718,25
572,77	1818,60
572,96	1832,93
573,16	1777,64
573,35	1753,06
573,55	1816,55
573,74	1736,68
573,94	1748,97
574,13	1683,43
574,33	1796,07
574,52	1800,16
574,71	1783,78
574,91	1783,78
575,10	1714,15
575,30	1730,53
575,49	1714,15
575,69	1738,73
575,88	1794,02
576,08	1722,34
576,27	1757,16
576,47	1751,01
576,66	1757,16
576,86	1785,83
577,05	1748,97
577,25	1802,21
577,44	1808,36
577,64	1714,15
577,83	1816,55
578,02	1748,97
578,22	1832,93
578,41	1769,44
578,61	1730,53
578,80	1656,81
579,00	1834,98
579,19	1804,26
579,39	1761,25
579,58	1769,44
579,77	1832,93
579,97	1869,80
580,16	1832,93
580,36	1796,07
580,55	1910,75
580,75	1714,15
580,94	1816,55
581,13	1863,65
581,33	1828,84
581,52	1814,50
581,72	1880,04
581,91	1861,60
582,11	1734,63
582,30	1824,74
582,49	1820,64
582,69	1904,61
582,88	1828,84
583,08	1757,16
583,27	1816,55
583,47	1806,31
583,66	1767,40
583,85	1751,01
584,05	1720,29
584,24	1839,08
584,44	1839,08
584,63	1791,97
584,82	1759,21
585,02	1886,18
585,21	1796,07
585,41	1812,45
585,60	1877,99
585,79	1968,10
585,99	1910,75
586,18	1847,27
586,37	2211,81
586,57	3442,64
586,76	9797,48
586,96	24473,23
587,15	34452,98
587,34	40420,76
587,54	42452,34
587,73	36879,82
587,93	26576,49
588,12	21829,30
588,31	18444,01
588,51	16277,26
588,70	15079,19
588,89	14370,60
589,09	12441,41
589,28	11136,85
589,47	9404,27
589,67	7927,69
589,86	6530,97
590,06	5011,38
590,25	3903,43
590,44	3110,86
590,64	2623,45
590,83	2303,96
591,02	2062,30
591,22	1908,71
591,41	1824,74
591,60	1849,32
591,80	1923,04
591,99	1796,07
592,18	1791,97
592,38	1822,69
592,57	1689,57
592,76	1791,97
592,96	1753,06
593,15	1757,16
593,34	1814,50
593,54	1759,21
593,73	1787,88
593,92	1808,36
594,12	1742,82
594,31	1810,40
594,50	1824,74
594,70	1841,12
594,89	1925,09
595,08	1679,33
595,28	1869,80
595,47	1966,05
595,66	1849,32
595,86	1689,57
596,05	1771,49
596,24	1710,05
596,43	1857,51
596,63	1900,52
596,82	1753,06
597,01	1822,69
597,21	1863,65
597,40	1769,44
597,59	1759,21
597,79	1718,25
597,98	1779,68
598,17	1789,92
598,36	1742,82
598,56	1712,10
598,75	1742,82
598,94	1814,50
599,14	1732,58
599,33	1703,91
599,52	1800,16
599,71	1830,88
599,91	1830,88
600,10	1798,12
600,29	1726,44
600,48	1716,20
600,68	1787,88
600,87	1763,30
601,06	1818,60
601,26	1710,05
601,45	1705,96
601,64	1708,01
601,83	1910,75
602,03	1724,39
602,22	1648,61
602,41	1820,64
602,60	1837,03
602,80	1828,84
602,99	1726,44
603,18	1796,07
603,37	1701,86
603,57	1746,92
603,76	1791,97
603,95	1794,02
604,14	1730,53
604,34	1685,48
604,53	1681,38
604,72	1779,68
604,91	1818,60
605,10	1751,01
605,30	1658,85
605,49	1886,18
605,68	1789,92
605,87	1726,44
606,07	1705,96
606,26	1787,88
606,45	1757,16
606,64	1724,39
606,84	1765,35
607,03	1738,73
607,22	1746,92
607,41	1732,58
607,60	1746,92
607,80	1804,26
607,99	1708,01
608,18	1683,43
608,37	1712,10
608,56	1681,38
608,76	1812,45
608,95	1920,99
609,14	1773,54
609,33	1787,88
609,52	1837,03
609,72	1710,05
609,91	1781,73
610,10	1732,58
610,29	1736,68
610,48	1736,68
610,68	1732,58
610,87	1759,21
611,06	1859,56
611,25	1769,44
611,44	1841,12
611,63	1697,77
611,83	1757,16
612,02	1714,15
612,21	1871,84
612,40	1658,85
612,59	1736,68
612,79	1697,77
612,98	1671,14
613,17	1839,08
613,36	1722,34
613,55	1841,12
613,74	1705,96
613,93	1677,29
614,13	1785,83
614,32	1777,64
614,51	1714,15
614,70	1703,91
614,89	1728,49
615,08	1810,40
615,28	2127,84
615,47	1679,33
615,66	1740,77
615,85	1734,63
616,04	1867,75
616,23	1679,33
616,42	1730,53
616,62	1708,01
616,81	1759,21
617,00	1708,01
617,19	1830,88
617,38	1730,53
617,57	1783,78
617,76	1785,83
617,95	1804,26
618,15	1781,73
618,34	1816,55
618,53	1695,72
618,72	1804,26
618,91	1853,41
619,10	1775,59
619,29	1775,59
619,48	1773,54
619,68	1660,90
619,87	1681,38
620,06	1718,25
620,25	1787,88
620,44	1742,82
620,63	1740,77
620,82	1744,87
621,01	1800,16
621,20	1685,48
621,39	1746,92
621,59	1757,16
621,78	1673,19
621,97	1787,88
622,16	1722,34
622,35	1746,92
622,54	1771,49
622,73	1761,25
622,92	1699,81
623,11	1804,26
623,30	1798,12
623,49	1701,86
623,68	1718,25
623,88	1755,11
624,07	1673,19
624,26	1746,92
624,45	1722,34
624,64	1685,48
624,83	1765,35
625,02	1755,11
625,21	1632,23
625,40	1759,21
625,59	1781,73
625,78	1648,61
625,97	1742,82
626,16	1806,31
626,35	1777,64
626,54	1710,05
626,74	1757,16
626,93	1658,85
627,12	1671,14
627,31	1808,36
627,50	1718,25
627,69	1744,87
627,88	1656,81
628,07	1726,44
628,26	1728,49
628,45	1705,96
628,64	1644,52
628,83	1759,21
629,02	1740,77
629,21	1746,92
629,40	1726,44
629,59	1673,19
629,78	1753,06
629,97	1683,43
630,16	1746,92
630,35	1746,92
630,54	1712,10
630,73	1646,57
630,92	1748,97
631,11	1679,33
631,30	1732,58
631,49	1828,84
631,68	1771,49
631,87	1701,86
632,06	1710,05
632,25	1871,84
632,44	1644,52
632,63	1804,26
632,82	1693,67
633,01	1685,48
633,20	1712,10
633,39	1703,91
633,58	1667,05
633,77	1765,35
633,96	1748,97
634,15	1775,59
634,34	1744,87
634,53	1753,06
634,72	1728,49
634,91	1689,57
635,10	1677,29
635,29	1849,32
635,48	1787,88
635,67	1732,58
635,86	1685,48
636,05	1796,07
636,24	1701,86
636,43	1734,63
636,62	1730,53
636,81	1611,75
637,00	1716,20
637,19	1730,53
637,38	1695,72
637,57	1679,33
637,76	1687,53
637,95	1726,44
638,14	1658,85
638,33	1693,67
638,52	1759,21
638,71	1685,48
638,89	1699,81
639,08	1828,84
639,27	1763,30
639,46	1740,77
639,65	1779,68
639,84	1734,63
640,03	1824,74
640,22	1705,96
640,41	1882,08
640,60	1718,25
640,79	1708,01
640,98	1679,33
641,17	1691,62
641,36	1714,15
641,55	1740,77
641,74	1667,05
641,92	1630,18
642,11	1669,09
642,30	1705,96
642,49	1755,11
642,68	1714,15
642,87	1730,53
643,06	1785,83
643,25	1742,82
643,44	1699,81
643,63	1759,21
643,82	1708,01
644,00	1650,66
644,19	1769,44
644,38	1644,52
644,57	1771,49
644,76	1765,35
644,95	1654,76
645,14	1771,49
645,33	1697,77
645,52	1710,05
645,71	1718,25
645,89	1675,24
646,08	1726,44
646,27	1718,25
646,46	1871,84
646,65	1708,01
646,84	1804,26
647,03	1714,15
647,22	1812,45
647,40	1742,82
647,59	1689,57
647,78	1720,29
647,97	1646,57
648,16	1677,29
648,35	1773,54
648,54	1763,30
648,73	1712,10
648,91	1771,49
649,10	1736,68
649,29	1730,53
649,48	1755,11
649,67	1724,39
649,86	1714,15
650,05	1701,86
650,23	1804,26
650,42	1650,66
650,61	1761,25
650,80	1734,63
650,99	1904,61
651,18	1763,30
651,36	1789,92
651,55	1681,38
651,74	1789,92
651,93	1701,86
652,12	1683,43
652,31	1710,05
652,49	1667,05
652,68	1701,86
652,87	1843,17
653,06	1710,05
653,25	1783,78
653,44	1753,06
653,62	1771,49
653,81	1699,81
654,00	1714,15
654,19	1726,44
654,38	1880,04
654,56	1822,69
654,75	1677,29
654,94	1841,12
655,13	1708,01
655,32	1679,33
655,51	1755,11
655,69	1759,21
655,88	1802,21
656,07	1665,00
656,26	1722,34
656,45	1648,61
656,63	1718,25
656,82	1677,29
657,01	1765,35
657,20	1697,77
657,38	1769,44
657,57	1714,15
657,76	1656,81
657,95	1730,53
658,14	1726,44
658,32	1703,91
658,51	1726,44
658,70	1722,34
658,89	1759,21
659,08	1771,49
659,26	1783,78
659,45	1681,38
659,64	1710,05
659,83	1712,10
660,01	1927,14
660,20	1746,92
660,39	1845,22
660,58	1734,63
660,76	1798,12
660,95	1665,00
661,14	1755,11
661,33	1728,49
661,51	1783,78
661,70	1781,73
661,89	1763,30
662,08	1783,78
662,26	1689,57
662,45	1736,68
662,64	1814,50
662,83	1732,58
663,01	1699,81
663,20	1738,73
663,39	1824,74
663,58	1763,30
663,76	1701,86
663,95	1703,91
664,14	1671,14
664,32	1742,82
664,51	1667,05
664,70	1669,09
664,89	1726,44
665,07	1638,38
665,26	1763,30
665,45	1669,09
665,64	1781,73
665,82	1650,66
666,01	1804,26
666,20	1669,09
666,38	1761,25
666,57	1826,79
666,76	2244,57
666,95	4517,82
667,13	10639,20
667,32	15169,30
667,51	18116,33
667,69	19257,05
667,88	17712,88
668,07	12275,52
668,25	9570,16
668,44	8163,20
668,63	7313,30
668,81	6875,03
669,00	6203,30
669,19	5713,83
669,38	5009,33
669,56	4661,18
669,75	3975,11
669,94	3493,83
670,12	3004,37
670,31	2527,19
670,50	2248,67
670,68	2056,16
670,87	1927,14
671,06	1814,50
671,24	1845,22
671,43	1839,08
671,62	1804,26
671,80	1683,43
671,99	1742,82
672,18	1718,25
672,36	1796,07
672,55	1810,40
672,74	1755,11
672,92	1720,29
673,11	1771,49
673,29	1630,18
673,48	1773,54
673,67	1685,48
673,85	1832,93
674,04	1656,81
674,23	1703,91
674,41	1834,98
674,60	1642,47
674,79	1693,67
674,97	1708,01
675,16	1757,16
675,34	1791,97
675,53	1675,24
675,72	1757,16
675,90	1834,98
676,09	1671,14
676,28	1726,44
676,46	1652,71
676,65	1722,34
676,83	1757,16
677,02	1724,39
677,21	1740,77
677,39	1759,21
677,58	1722,34
677,77	1720,29
677,95	1693,67
678,14	1646,57
678,32	1734,63
678,51	1667,05
678,70	1808,36
678,88	1763,30
679,07	1648,61
679,25	1738,73
679,44	1710,05
679,63	1660,90
679,81	1746,92
680,00	1730,53
680,18	1861,60
680,37	1781,73
680,55	1685,48
680,74	1677,29
680,93	1611,75
681,11	1843,17
681,30	1730,53
681,48	1798,12
681,67	1687,53
681,85	1746,92
682,04	1665,00
682,23	1802,21
682,41	1759,21
682,60	1693,67
682,78	1761,25
682,97	1660,90
683,15	1708,01
683,34	1722,34
683,53	1783,78
683,71	1609,70
683,90	1841,12
684,08	1843,17
684,27	1732,58
684,45	1763,30
684,64	1845,22
684,82	1650,66
685,01	1753,06
685,19	1708,01
685,38	1824,74
685,57	1740,77
685,75	1697,77
685,94	1640,42
686,12	1705,96
686,31	1710,05
686,49	1849,32
686,68	1658,85
686,86	1714,15
687,05	1615,85
687,23	1787,88
687,42	1767,40
687,60	1642,47
687,79	1748,97
687,97	1759,21
688,16	1814,50
688,34	1759,21
688,53	1650,66
688,71	1699,81
688,90	1742,82
689,08	1644,52
689,27	1724,39
689,45	1703,91
689,64	1660,90
689,82	1753,06
690,01	1693,67
690,19	1755,11
690,38	1751,01
690,56	1869,80
690,75	1667,05
690,93	1701,86
691,12	1660,90
691,30	1767,40
691,49	1732,58
691,67	1734,63
691,86	1765,35
692,04	1607,66
692,23	1675,24
692,41	1681,38
692,60	1925,09
692,78	1703,91
692,97	1654,76
693,15	1714,15
693,34	1851,36
693,52	1794,02
693,71	1654,76
693,89	1669,09
694,08	1669,09
694,26	1726,44
694,44	1773,54
694,63	1722,34
694,81	1652,71
695,00	1732,58
695,18	1769,44
695,37	1804,26
695,55	1724,39
695,74	1697,77
695,92	1705,96
696,10	1857,51
696,29	1634,28
696,47	1699,81
696,66	1648,61
696,84	1673,19
697,03	1669,09
697,21	1779,68
697,40	2324,44
697,58	1794,02
697,76	1755,11
697,95	1720,29
698,13	1660,90
698,32	1724,39
698,50	1732,58
698,68	1779,68
698,87	1720,29
699,05	1818,60
699,24	1693,67
699,42	1736,68
699,61	1765,35
699,79	1761,25
699,97	1695,72
700,16	1691,62
700,34	1726,44
700,53	1773,54
700,71	1796,07
700,89	1728,49
701,08	1751,01
701,26	1763,30
701,45	2111,46
701,63	1683,43
701,81	1771,49
702,00	1609,70
702,18	1687,53
702,37	1675,24
702,55	1759,21
702,73	1724,39
702,92	1699,81
703,10	1724,39
703,28	1720,29
703,47	1665,00
703,65	1789,92
703,84	1759,21
704,02	1724,39
704,20	1812,45
704,39	1718,25
704,57	1687,53
704,75	1791,97
704,94	1718,25
705,12	1714,15
705,30	1753,06
705,49	2285,53
705,67	4364,22
705,86	9430,90
706,04	12648,26
706,22	14403,36
706,41	15609,62
706,59	13680,43
706,77	9627,50
706,96	7370,64
707,14	6776,73
707,32	6039,46
707,51	5685,16
707,69	4851,64
707,87	4319,17
708,06	3518,41
708,24	2994,13
708,42	2422,75
708,61	2359,26
708,79	1894,37
708,97	1900,52
709,16	1828,84
709,34	1761,25
709,52	1691,62
709,71	1607,66
709,89	1744,87
710,07	1667,05
710,26	1683,43
710,44	1722,34
710,62	1757,16
710,80	1695,72
710,99	1724,39
711,17	1744,87
711,35	1710,05
711,54	1691,62
711,72	1839,08
711,90	1611,75
712,09	1687,53
712,27	1701,86
712,45	1761,25
712,63	1705,96
712,82	1816,55
713,00	1771,49
713,18	1767,40
713,37	1705,96
713,55	1681,38
713,73	1744,87
713,91	1751,01
714,10	1671,14
714,28	1636,33
714,46	1791,97
714,65	1730,53
714,83	1798,12
715,01	1681,38
715,19	1710,05
715,38	1695,72
715,56	1789,92
715,74	1671,14
715,92	1730,53
716,11	1767,40
716,29	1648,61
716,47	1693,67
716,65	1652,71
716,84	1638,38
717,02	1804,26
717,20	1673,19
717,38	1669,09
717,57	1740,77
717,75	1748,97
717,93	1695,72
718,11	1716,20
718,30	1679,33
718,48	1714,15
718,66	1748,97
718,84	1781,73
719,03	1734,63
719,21	1650,66
719,39	1896,42
719,57	1703,91
719,75	1796,07
719,94	1728,49
720,12	1628,14
720,30	1759,21
720,48	1755,11
720,67	1648,61
720,85	1685,48
721,03	1701,86
721,21	1734,63
721,39	1771,49
721,58	1738,73
721,76	1671,14
721,94	1779,68
722,12	1736,68
722,30	1718,25
722,49	1718,25
722,67	1765,35
722,85	1720,29
723,03	1685,48
723,21	1689,57
723,40	1712,10
723,58	1812,45
723,76	1757,16
723,94	1748,97
724,12	1689,57
724,30	1814,50
724,49	1763,30
724,67	1738,73
724,85	1755,11
725,03	1650,66
725,21	1716,20
725,40	1804,26
725,58	1679,33
725,76	1703,91
725,94	1718,25
726,12	1669,09
726,30	1771,49
726,49	1751,01
726,67	1716,20
726,85	1701,86
727,03	1789,92
727,21	2142,18
727,39	3002,32
727,57	3925,96
727,76	4155,33
727,94	4405,18
728,12	4296,64
728,30	3768,26
728,48	3004,37
728,66	2803,67
728,84	2582,49
729,03	2269,15
729,21	2109,41
729,39	2033,63
729,57	1839,08
729,75	1796,07
729,93	1783,78
730,11	1787,88
730,30	1751,01
730,48	1777,64
730,66	1759,21
730,84	1832,93
731,02	1710,05
731,20	1691,62
731,38	1794,02
731,56	1679,33
731,74	1705,96
731,93	1732,58
732,11	1691,62
732,29	1763,30
732,47	1703,91
732,65	1765,35
732,83	1916,90
733,01	1716,20
733,19	1701,86
733,37	1703,91
733,56	1757,16
733,74	1638,38
733,92	1748,97
734,10	1710,05
734,28	1763,30
734,46	1615,85
734,64	1675,24
734,82	1673,19
735,00	1675,24
735,18	1677,29
735,36	1730,53
735,54	1767,40
735,73	1701,86
735,91	1775,59
736,09	1746,92
736,27	1705,96
736,45	1839,08
736,63	1632,23
736,81	1667,05
736,99	1837,03
737,17	1742,82
737,35	1712,10
737,53	1718,25
737,71	1765,35
737,89	1740,77
738,07	1701,86
738,25	1716,20
738,43	1621,99
738,61	1777,64
738,80	1617,90
738,98	1681,38
739,16	1669,09
739,34	1675,24
739,52	1779,68
739,70	1697,77
739,88	1726,44
740,06	1769,44
740,24	1574,89
740,42	1791,97
740,60	1648,61
740,78	1638,38
740,96	1644,52
741,14	1675,24
741,32	1773,54
741,50	1693,67
741,68	1779,68
741,86	1726,44
742,04	1632,23
742,22	1634,28
742,40	1777,64
742,58	1820,64
742,76	1646,57
742,94	1806,31
743,12	1642,47
743,30	1718,25
743,48	1773,54
743,66	1699,81
743,84	1775,59
744,02	1636,33
744,20	1783,78
744,38	1705,96
744,56	1681,38
744,74	1820,64
744,92	1730,53
745,10	1781,73
745,28	1701,86
745,46	1794,02
745,64	1720,29
745,82	1763,30
746,00	1779,68
746,18	1818,60
746,36	1695,72
746,54	1853,41
746,72	1726,44
746,90	1667,05
747,08	1748,97
747,26	1742,82
747,44	1726,44
747,62	1800,16
747,80	1697,77
747,98	1730,53
748,15	1669,09
748,33	1843,17
748,51	1732,58
748,69	1718,25
748,87	1619,94
749,05	1628,14
749,23	1675,24
749,41	1722,34
749,59	1744,87
749,77	1703,91
749,95	1730,53
750,13	1736,68
750,31	1755,11
750,49	1681,38
750,67	1765,35
750,85	1763,30
751,03	1712,10
751,20	1890,28
751,38	1720,29
751,56	1630,18
751,74	1738,73
751,92	1697,77
752,10	1607,66
752,28	1746,92
752,46	1712,10
752,64	1740,77
752,82	1658,85
753,00	1734,63
753,18	1705,96
753,35	1673,19
753,53	1794,02
753,71	1695,72
753,89	1757,16
754,07	1738,73
754,25	1781,73
754,43	1687,53
754,61	1689,57
754,79	1732,58
754,97	1615,85
755,14	1839,08
755,32	1691,62
755,50	1720,29
755,68	1753,06
755,86	1652,71
756,04	1648,61
756,22	1583,08
756,40	1767,40
756,57	1826,79
756,75	1650,66
756,93	1767,40
757,11	1798,12
757,29	1656,81
757,47	1691,62
757,65	1628,14
757,82	1675,24
758,00	1705,96
758,18	1734,63
758,36	1628,14
758,54	1767,40
758,72	1603,56
758,90	1730,53
759,07	1759,21
759,25	1695,72
759,43	1818,60
759,61	1722,34
759,79	2217,95
759,97	1689,57
760,15	1761,25
760,32	1671,14
760,50	1820,64
760,68	1822,69
760,86	1660,90
761,04	1771,49
761,22	1732,58
761,39	1732,58
761,57	1675,24
761,75	1740,77
761,93	1732,58
762,11	1615,85
762,28	1624,04
762,46	1681,38
762,64	1732,58
762,82	1656,81
763,00	1726,44
763,18	1746,92
763,35	1626,09
763,53	1720,29
763,71	1705,96
763,89	1648,61
764,07	1718,25
764,24	1675,24
764,42	1695,72
764,60	1714,15
764,78	1693,67
764,96	1812,45
765,13	1730,53
765,31	1652,71
765,49	1716,20
765,67	1650,66
765,84	1613,80
766,02	1656,81
766,20	1701,86
766,38	1705,96
766,56	1705,96
766,73	1763,30
766,91	1662,95
767,09	1726,44
767,27	1736,68
767,44	1595,37
767,62	1814,50
767,80	1665,00
767,98	1718,25
768,15	1638,38
768,33	1796,07
768,51	1751,01
768,69	1708,01
768,87	1675,24
769,04	1736,68
769,22	1812,45
769,40	1791,97
769,58	1916,90
769,75	1673,19
769,93	1914,85
770,11	1679,33
770,28	1665,00
770,46	1765,35
770,64	1660,90
770,82	1708,01
770,99	1681,38
771,17	1732,58
771,35	1720,29
771,53	1665,00
771,70	1642,47
771,88	1728,49
772,06	1734,63
772,23	1708,01
772,41	1710,05
772,59	1683,43
772,77	1656,81
772,94	1693,67
773,12	1751,01
773,30	1746,92
773,47	1681,38
773,65	1681,38
773,83	1759,21
774,01	1701,86
774,18	1589,22
774,36	1734,63
774,54	1667,05
774,71	1734,63
774,89	1611,75
775,07	1712,10
775,24	1732,58
775,42	1662,95
775,60	1787,88
775,78	1634,28
775,95	1689,57
776,13	1632,23
776,31	1589,22
776,48	1677,29
776,66	1814,50
776,84	1740,77
777,01	1636,33
777,19	1665,00
777,37	1712,10
777,54	1705,96
777,72	1806,31
777,90	1746,92
778,07	1662,95
778,25	1896,42
778,43	1726,44
778,60	1701,86
778,78	1708,01
778,96	1699,81
779,13	1656,81
779,31	1753,06
779,49	1673,19
779,66	1656,81
779,84	1677,29
780,01	1761,25
780,19	1683,43
780,37	1742,82
780,54	1806,31
780,72	1654,76
780,90	1779,68
781,07	1722,34
781,25	1673,19
781,43	1685,48
781,60	1726,44
781,78	1824,74
781,95	1665,00
782,13	1632,23
782,31	1716,20
782,48	1605,61
782,66	1683,43
782,83	1810,40
783,01	1816,55
783,19	1689,57
783,36	1689,57
783,54	1646,57
783,72	1779,68
783,89	1716,20
784,07	1794,02
784,24	1789,92
784,42	1783,78
784,60	1738,73
784,77	1697,77
784,95	1626,09
785,12	1728,49
785,30	1773,54
785,47	1634,28
785,65	1675,24
785,83	1716,20
786,00	1726,44
786,18	1789,92
786,35	1634,28
786,53	1718,25
786,71	1816,55
786,88	1751,01
787,06	1765,35
787,23	1665,00
787,41	1671,14
787,58	1742,82
787,76	1619,94
787,94	1740,77
788,11	1728,49
788,29	1593,32
788,46	1685,48
788,64	1681,38
788,81	1722,34
788,99	1683,43
789,16	1669,09
789,34	1748,97
789,52	1619,94
789,69	1642,47
789,87	1662,95
790,04	1656,81
790,22	1767,40
790,39	1849,32
790,57	1679,33
790,74	1642,47
790,92	1736,68
791,09	1628,14
791,27	1734,63
791,44	1699,81
791,62	1681,38
791,79	1781,73
791,97	1617,90
792,15	1888,23
792,32	1804,26
792,50	1732,58
792,67	1787,88
792,85	1775,59
793,02	1763,30
793,20	1662,95
793,37	1638,38
793,55	1730,53
793,72	1644,52
793,90	1705,96
794,07	1687,53
794,25	1671,14
794,42	1699,81
794,60	1691,62
794,77	1759,21
794,95	1773,54
795,12	1742,82
795,30	1665,00
795,47	1595,37
795,65	1927,14
795,82	1703,91
796,00	1642,47
796,17	1673,19
796,34	1646,57
796,52	1671,14
796,69	1722,34
796,87	1695,72
797,04	1699,81
797,22	1757,16
797,39	1716,20
797,57	1820,64
797,74	1767,40
797,92	1722,34
798,09	1691,62
798,27	1783,78
798,44	1726,44
798,62	1705,96
798,79	1726,44
798,96	1701,86
799,14	1755,11
799,31	1851,36
799,49	1738,73
799,66	1734,63
799,84	1716,20
800,01	1574,89
800,19	1697,77
800,36	1619,94
800,53	1757,16
800,71	1769,44
800,88	1828,84
801,06	1660,90
801,23	1648,61
801,41	1677,29
801,58	1732,58
801,75	1718,25
801,93	1789,92
802,10	1830,88
802,28	1652,71
802,45	1665,00
802,63	1712,10
802,80	1796,07
802,97	1730,53
803,15	1720,29
803,32	1712,10
803,50	1648,61
803,67	1705,96
803,84	1697,77
804,02	1761,25
804,19	1783,78
804,37	1587,18
804,54	1566,70
804,71	1685,48
804,89	1697,77
805,06	1685,48
805,24	1587,18
805,41	1726,44
805,58	1677,29
805,76	1796,07
805,93	1669,09
806,10	1837,03
806,28	1779,68
806,45	1757,16
806,63	1699,81
806,80	1738,73
806,97	1681,38
807,15	1773,54
807,32	1757,16
807,49	1687,53
807,67	1648,61
807,84	1804,26
808,01	1638,38
808,19	1802,21
808,36	1894,37
808,54	1744,87
808,71	1769,44
808,88	1740,77
809,06	1740,77
809,23	1781,73
809,40	1679,33
809,58	1791,97
809,75	1646,57
809,92	1599,46
810,10	1847,27
810,27	1701,86
810,44	1742,82
810,62	1775,59
810,79	1671,14
810,96	1640,42
811,14	1640,42
811,31	1791,97
811,48	1689,57
811,66	1767,40
811,83	1787,88
812,00	1667,05
812,18	1732,58
812,35	1853,41
812,52	1673,19
812,69	1644,52
812,87	1705,96
813,04	1669,09
813,21	1720,29
813,39	1677,29
813,56	1593,32
813,73	1783,78
813,91	1656,81
814,08	1761,25
814,25	1757,16
814,42	1650,66
814,60	1656,81
814,77	1708,01
814,94	1685,48
815,12	1738,73
815,29	1849,32
815,46	1687,53
815,63	1736,68
815,81	1710,05
815,98	1710,05
816,15	1671,14
816,33	1689,57
816,50	1628,14
816,67	1726,44
816,84	1740,77
817,02	1605,61
817,19	1695,72
817,36	1724,39
817,53	1718,25
817,71	1656,81
817,88	1798,12
818,05	1736,68
818,22	1714,15
818,40	1894,37
818,57	1656,81
818,74	1767,40
818,91	1755,11
819,09	1742,82
819,26	1781,73
819,43	1738,73
819,60	1667,05
819,78	1742,82
819,95	1847,27
820,12	1695,72
820,29	1761,25
820,47	1763,30
820,64	1632,23
820,81	1630,18
820,98	1730,53
821,15	1757,16
821,33	1843,17
821,50	1716,20
821,67	1683,43
821,84	1673,19
822,02	1763,30
822,19	1742,82
822,36	1677,29
822,53	1742,82
822,70	1595,37
822,88	1708,01
823,05	1814,50
823,22	1628,14
823,39	1751,01
823,56	1642,47
823,74	1771,49
823,91	1736,68
824,08	1568,74
824,25	1630,18
824,42	1820,64
824,60	1566,70
824,77	1667,05
824,94	1642,47
825,11	1787,88
825,28	1654,76
825,45	1718,25
825,63	1656,81
825,80	1675,24
825,97	1714,15
826,14	1619,94
826,31	1568,74
826,48	1740,77
826,66	1669,09
826,83	1665,00
827,00	1785,83
827,17	1640,42
827,34	1640,42
827,51	1665,00
827,69	1808,36
827,86	1593,32
828,03	1730,53
828,20	1812,45
828,37	1724,39
828,54	1660,90
828,71	1701,86
828,89	1834,98
829,06	1683,43
829,23	1773,54
829,40	1603,56
829,57	1667,05
829,74	1824,74
829,91	1726,44
830,09	1650,66
830,26	1753,06
830,43	1730,53
830,60	1712,10
830,77	1691,62
830,94	1734,63
831,11	1781,73
831,28	1763,30
831,46	1757,16
831,63	1691,62
831,80	1656,81
831,97	1708,01
832,14	1755,11
832,31	1732,58
832,48	1722,34
832,65	1724,39
832,82	1695,72
832,99	1738,73
833,17	1648,61
833,34	1812,45
833,51	1757,16
833,68	1634,28
833,85	1701,86
834,02	1667,05
834,19	1681,38
834,36	1665,00
834,53	1712,10
834,70	1806,31
834,87	1755,11
835,04	1703,91
835,22	1628,14
835,39	1662,95
835,56	1652,71
835,73	1642,47
835,90	1746,92
836,07	1632,23
836,24	1802,21
836,41	1740,77
836,58	1708,01
836,75	1845,22
836,92	1751,01
837,09	1732,58
837,26	1781,73
837,43	1732,58
837,60	1771,49
837,77	1667,05
837,94	1732,58
838,12	1767,40
838,29	1775,59
838,46	1634,28
838,63	1646,57
838,80	1834,98
838,97	1761,25
839,14	1753,06
839,31	1736,68
839,48	1777,64
839,65	1673,19
839,82	1714,15
839,99	1699,81
840,16	1738,73
840,33	1726,44
840,50	1689,57
840,67	1646,57
840,84	1624,04
841,01	1656,81
841,18	1765,35
841,35	1722,34
841,52	1742,82
841,69	1757,16
841,86	1699,81
842,03	1742,82
842,20	1738,73
842,37	1718,25
842,54	1712,10
842,71	1640,42
842,88	1691,62
843,05	1740,77
843,22	1726,44
843,39	1736,68
843,56	1697,77
843,73	1654,76
843,90	1710,05
844,07	1718,25
844,24	1818,60
844,41	1755,11
844,58	1646,57
844,75	1736,68
844,92	1761,25
845,09	1697,77
845,26	1603,56
845,43	1781,73
845,60	1660,90
845,77	1826,79
845,94	1732,58
846,10	1740,77
846,27	1628,14
846,44	1654,76
846,61	1654,76
846,78	1691,62
846,95	1834,98
847,12	1636,33
847,29	1712,10
847,46	1611,75
847,63	1722,34
847,80	1673,19
847,97	1640,42
848,14	1847,27
848,31	1673,19
848,48	1632,23
848,65	1783,78
848,82	1685,48
848,98	1798,12
849,15	1734,63
849,32	1796,07
849,49	1740,77
849,66	1744,87
849,83	1710,05
850,00	1640,42
850,17	1755,11
850,34	1744,87
850,51	1634,28
850,68	1665,00
850,85	1830,88
851,01	1730,53
851,18	1742,82
851,35	1681,38
851,52	1798,12
851,69	1734,63
851,86	1683,43
852,03	1667,05
852,20	1742,82
852,37	1697,77
852,53	1662,95
852,70	1656,81
852,87	1732,58
853,04	1777,64
853,21	1697,77
853,38	1806,31
853,55	1763,30
853,72	1787,88
853,89	1726,44
854,05	1648,61
854,22	1667,05
854,39	1689,57
854,56	1728,49
854,73	1820,64
854,90	1644,52
855,07	1685,48
855,23	1677,29
855,40	1689,57
855,57	1726,44
855,74	1576,94
855,91	1812,45
856,08	1683,43
856,25	1619,94
856,41	1628,14
856,58	1751,01
856,75	1785,83
856,92	1675,24
857,09	1746,92
857,26	1677,29
857,42	1697,77
857,59	1755,11
857,76	1708,01
857,93	1771,49
858,10	1771,49
858,27	1691,62
858,43	1759,21
858,60	1665,00
858,77	1648,61
858,94	1701,86
859,11	1804,26
859,27	1718,25
859,44	1755,11
859,61	1855,46
859,78	1751,01
859,95	1640,42
860,12	1687,53
860,28	1816,55
860,45	1863,65
860,62	1710,05
860,79	1787,88
860,95	1705,96
861,12	1665,00
861,29	1677,29
861,46	1665,00
861,63	1701,86
861,79	1720,29
861,96	1683,43
862,13	1634,28
862,30	1806,31
862,47	1628,14
862,63	1730,53
862,80	1783,78
862,97	1804,26
863,14	1693,67
863,30	1640,42
863,47	1671,14
863,64	1812,45
863,81	1640,42
863,97	1638,38
864,14	1814,50
864,31	1685,48
864,48	1687,53
864,65	1652,71
864,81	1771,49
864,98	1757,16
865,15	1724,39
865,32	1753,06
865,48	1783,78
865,65	1810,40
865,82	1697,77
865,98	1648,61
866,15	1765,35
866,32	1730,53
866,49	1710,05
866,65	1826,79
866,82	1701,86
866,99	1693,67
867,16	1740,77
867,32	1675,24
867,49	1701,86
867,66	1640,42
867,83	1626,09
867,99	1533,93
868,16	1689,57
868,33	1667,05
868,49	1685,48
868,66	1753,06
868,83	1783,78
868,99	1671,14
869,16	1699,81
869,33	1683,43
869,50	1808,36
869,66	1665,00
869,83	1718,25
870,00	1656,81
870,16	1773,54
870,33	1738,73
870,50	1740,77
870,66	1685,48
870,83	1771,49
871,00	1681,38
871,17	1779,68
871,33	1708,01
871,50	1710,05
871,67	1681,38
871,83	1730,53
872,00	1783,78
872,17	1681,38
872,33	1781,73
872,50	1710,05
872,67	1701,86
872,83	1617,90
873,00	1685,48
873,17	1652,71
873,33	1738,73
873,50	1751,01
873,67	1644,52
873,83	1681,38
874,00	1763,30
874,16	1796,07
874,33	1738,73
874,50	1632,23
874,66	1679,33
874,83	1667,05
875,00	1724,39
875,16	1662,95
875,33	1714,15
875,50	1562,60
875,66	1740,77
875,83	1691,62
875,99	1751,01
876,16	1837,03
876,33	1642,47
876,49	1652,71
876,66	1769,44
876,83	1638,38
876,99	1583,08
877,16	1695,72
877,32	1689,57
877,49	1681,38
877,66	1648,61
877,82	1818,60
877,99	1775,59
878,15	1820,64
878,32	1734,63
878,49	1751,01
878,65	1716,20
878,82	1716,20
878,98	1681,38
879,15	1724,39
879,32	1738,73
879,48	1607,66
879,65	1718,25
879,81	1689,57
879,98	1703,91
880,15	1728,49
880,31	1722,34
880,48	1640,42
880,64	1791,97
880,81	1751,01
880,97	1837,03
881,14	1773,54
881,31	1726,44
881,47	1820,64
881,64	1720,29
881,80	1583,08
881,97	1765,35
882,13	1767,40
882,30	1679,33
882,47	1662,95
882,63	1624,04
882,80	1738,73
882,96	1644,52
883,13	1722,34
883,29	1712,10
883,46	1724,39
883,62	1841,12
883,79	1716,20
883,95	1791,97
884,12	1691,62
884,29	1759,21
884,45	1673,19
884,62	1763,30
884,78	1673,19
884,95	1853,41
885,11	1654,76
885,28	1718,25
885,44	1732,58
885,61	1761,25
885,77	1703,91
885,94	1794,02
886,10	1701,86
886,27	1669,09
886,43	1791,97
886,60	1746,92
886,76	1683,43
886,93	1697,77
887,09	1671,14
887,26	1621,99
887,42	1722,34
887,59	1703,91
887,75	1820,64
887,92	1837,03
888,08	1769,44
888,25	1857,51
888,41	1738,73
888,58	1791,97
888,74	1650,66
888,91	1693,67
>>>>>End Processed Spectral Data<<<<<
