SpectraSuite Data File
++++++++++++++++++++++++++++++++++++
Date: Mon Jun 06 15:11:57 CEST 2016
User: root
Dark Spectrum Present: No
Reference Spectrum Present: No
Number of Sampled Component Spectra: 1
Spectrometers: USB4C02835
Integration Time (usec): 100000 (USB4C02835)
Spectra Averaged: 1 (USB4C02835)
Boxcar Smoothing: 0 (USB4C02835)
Correct for Electrical Dark: No (USB4C02835)
Strobe/Lamp Enabled: No (USB4C02835)
Correct for Detector Non-linearity: No (USB4C02835)
Correct for Stray Light: No (USB4C02835)
Number of Pixels in Processed Spectrum: 3648
>>>>>Begin Processed Spectral Data<<<<<
177,47	1427,43
177,69	1427,43
177,91	1427,43
178,13	1441,77
178,36	1529,83
178,58	1755,11
178,80	1755,11
179,02	1634,28
179,24	1662,95
179,46	1779,68
179,68	1812,45
179,90	1769,44
180,13	1671,14
180,35	1648,61
180,57	1671,14
180,79	1714,15
181,01	1689,57
181,23	1771,49
181,45	1724,39
181,67	1748,97
181,90	1718,25
182,12	1705,96
182,34	1613,80
182,56	1673,19
182,78	1710,05
183,00	1773,54
183,22	1722,34
183,44	1566,70
183,66	1857,51
183,89	1857,51
184,11	1748,97
184,33	1689,57
184,55	1783,78
184,77	1736,68
184,99	1701,86
185,21	1660,90
185,43	1877,99
185,65	1665,00
185,87	1683,43
186,10	1820,64
186,32	1853,41
186,54	1714,15
186,76	1689,57
186,98	1777,64
187,20	1718,25
187,42	1716,20
187,64	1683,43
187,86	1718,25
188,08	1699,81
188,30	1714,15
188,52	1701,86
188,75	1742,82
188,97	1730,53
189,19	1660,90
189,41	1609,70
189,63	1730,53
189,85	1710,05
190,07	1679,33
190,29	1669,09
190,51	1759,21
190,73	1671,14
190,95	1728,49
191,17	1748,97
191,39	1693,67
191,61	1652,71
191,84	1675,24
192,06	1771,49
192,28	1607,66
192,50	1849,32
192,72	1724,39
192,94	1730,53
193,16	1841,12
193,38	1798,12
193,60	1658,85
193,82	1615,85
194,04	1857,51
194,26	1781,73
194,48	1748,97
194,70	1691,62
194,92	1689,57
195,14	1828,84
195,36	1683,43
195,58	1771,49
195,80	1726,44
196,02	1701,86
196,24	1736,68
196,46	1777,64
196,69	1685,48
196,91	1761,25
197,13	1744,87
197,35	1648,61
197,57	1802,21
197,79	1751,01
198,01	1730,53
198,23	1800,16
198,45	1779,68
198,67	1681,38
198,89	1599,46
199,11	1656,81
199,33	1628,14
199,55	1591,27
199,77	1638,38
199,99	1701,86
200,21	1660,90
200,43	1765,35
200,65	1658,85
200,87	1683,43
201,09	1673,19
201,31	1665,00
201,53	1757,16
201,75	1718,25
201,97	1687,53
202,19	1658,85
202,41	1675,24
202,63	1857,51
202,85	1742,82
203,07	1656,81
203,29	1730,53
203,51	1675,24
203,73	1683,43
203,95	1931,23
204,17	1785,83
204,39	1710,05
204,61	1665,00
204,83	1722,34
205,05	1734,63
205,27	1779,68
205,49	1822,69
205,71	1701,86
205,93	1660,90
206,15	1703,91
206,37	1712,10
206,59	1669,09
206,81	1652,71
207,03	1708,01
207,25	1626,09
207,47	1720,29
207,69	1701,86
207,91	1779,68
208,13	1783,78
208,34	1646,57
208,56	1734,63
208,78	1755,11
209,00	1671,14
209,22	1665,00
209,44	1734,63
209,66	1619,94
209,88	1685,48
210,10	1734,63
210,32	1671,14
210,54	1843,17
210,76	1628,14
210,98	1697,77
211,20	1609,70
211,42	1753,06
211,64	1873,89
211,86	1656,81
212,08	1740,77
212,30	1708,01
212,52	1679,33
212,74	1724,39
212,96	1738,73
213,17	1787,88
213,39	1685,48
213,61	1755,11
213,83	1671,14
214,05	1685,48
214,27	1800,16
214,49	1650,66
214,71	1673,19
214,93	1796,07
215,15	1701,86
215,37	1748,97
215,59	1609,70
215,81	1804,26
216,03	1810,40
216,24	1705,96
216,46	1665,00
216,68	1763,30
216,90	1775,59
217,12	1777,64
217,34	1738,73
217,56	1665,00
217,78	1746,92
218,00	1759,21
218,22	1662,95
218,44	1675,24
218,66	1710,05
218,87	1828,84
219,09	1712,10
219,31	1847,27
219,53	1798,12
219,75	1683,43
219,97	1685,48
220,19	1712,10
220,41	1667,05
220,63	1789,92
220,85	1697,77
221,06	1708,01
221,28	1736,68
221,50	1730,53
221,72	1728,49
221,94	1646,57
222,16	1667,05
222,38	1726,44
222,60	1708,01
222,82	1634,28
223,03	1759,21
223,25	1665,00
223,47	1714,15
223,69	1791,97
223,91	1681,38
224,13	1701,86
224,35	1613,80
224,57	1683,43
224,78	1748,97
225,00	1644,52
225,22	1656,81
225,44	1701,86
225,66	1701,86
225,88	1718,25
226,10	1732,58
226,32	1665,00
226,53	1890,28
226,75	1751,01
226,97	1740,77
227,19	1621,99
227,41	1697,77
227,63	1691,62
227,85	1665,00
228,06	1619,94
228,28	1720,29
228,50	1779,68
228,72	1671,14
228,94	1693,67
229,16	1611,75
229,37	1650,66
229,59	1683,43
229,81	1763,30
230,03	1710,05
230,25	1654,76
230,47	1687,53
230,69	1683,43
230,90	1779,68
231,12	1648,61
231,34	1718,25
231,56	1722,34
231,78	1624,04
232,00	1724,39
232,21	1734,63
232,43	1677,29
232,65	1640,42
232,87	1738,73
233,09	1638,38
233,30	1607,66
233,52	1695,72
233,74	1814,50
233,96	1726,44
234,18	1697,77
234,40	1712,10
234,61	1806,31
234,83	1607,66
235,05	1583,08
235,27	1830,88
235,49	1751,01
235,70	1683,43
235,92	1820,64
236,14	1703,91
236,36	1849,32
236,58	1570,79
236,79	1736,68
237,01	1722,34
237,23	1662,95
237,45	1925,09
237,67	1660,90
237,88	1726,44
238,10	1740,77
238,32	1687,53
238,54	1685,48
238,76	1746,92
238,97	1681,38
239,19	1628,14
239,41	1724,39
239,63	1798,12
239,85	1701,86
240,06	1669,09
240,28	1681,38
240,50	1865,70
240,72	1753,06
240,93	1759,21
241,15	1771,49
241,37	1710,05
241,59	1710,05
241,81	1656,81
242,02	1656,81
242,24	1742,82
242,46	1722,34
242,68	1597,42
242,89	1705,96
243,11	1712,10
243,33	1669,09
243,55	1740,77
243,76	1783,78
243,98	1738,73
244,20	1761,25
244,42	1656,81
244,64	1779,68
244,85	1597,42
245,07	1708,01
245,29	1701,86
245,51	1681,38
245,72	1800,16
245,94	1679,33
246,16	1710,05
246,38	1742,82
246,59	1646,57
246,81	1740,77
247,03	1640,42
247,24	1665,00
247,46	1679,33
247,68	1755,11
247,90	1687,53
248,11	1697,77
248,33	1794,02
248,55	1673,19
248,77	1677,29
248,98	1720,29
249,20	1802,21
249,42	1665,00
249,64	1748,97
249,85	1673,19
250,07	1654,76
250,29	1691,62
250,50	1660,90
250,72	1648,61
250,94	1667,05
251,16	1849,32
251,37	1736,68
251,59	1767,40
251,81	1769,44
252,02	1718,25
252,24	1701,86
252,46	1763,30
252,68	1660,90
252,89	1665,00
253,11	1566,70
253,33	1744,87
253,54	1822,69
253,76	1708,01
253,98	1662,95
254,20	1669,09
254,41	1654,76
254,63	1628,14
254,85	1646,57
255,06	1746,92
255,28	1726,44
255,50	1697,77
255,71	1675,24
255,93	1681,38
256,15	1665,00
256,36	1794,02
256,58	1679,33
256,80	1755,11
257,02	1681,38
257,23	1603,56
257,45	1734,63
257,67	1771,49
257,88	1611,75
258,10	1716,20
258,32	1724,39
258,53	1722,34
258,75	1779,68
258,97	1660,90
259,18	1740,77
259,40	1658,85
259,62	1822,69
259,83	1798,12
260,05	1800,16
260,27	1988,58
260,48	1816,55
260,70	1689,57
260,92	1685,48
261,13	1724,39
261,35	1662,95
261,57	1679,33
261,78	1597,42
262,00	1699,81
262,22	1779,68
262,43	1689,57
262,65	1665,00
262,86	1720,29
263,08	1812,45
263,30	1703,91
263,51	1667,05
263,73	1687,53
263,95	1857,51
264,16	1708,01
264,38	1742,82
264,60	1748,97
264,81	1697,77
265,03	1775,59
265,25	1769,44
265,46	1703,91
265,68	1853,41
265,89	1656,81
266,11	1648,61
266,33	1732,58
266,54	1775,59
266,76	1791,97
266,98	1685,48
267,19	1718,25
267,41	1773,54
267,62	1769,44
267,84	1703,91
268,06	1748,97
268,27	1705,96
268,49	1828,84
268,70	1736,68
268,92	1736,68
269,14	1708,01
269,35	1632,23
269,57	1691,62
269,79	1769,44
270,00	1621,99
270,22	1828,84
270,43	1652,71
270,65	1619,94
270,87	1716,20
271,08	1675,24
271,30	1722,34
271,51	1628,14
271,73	1615,85
271,95	1802,21
272,16	1652,71
272,38	1705,96
272,59	1685,48
272,81	1693,67
273,02	1648,61
273,24	1724,39
273,46	1695,72
273,67	1650,66
273,89	1695,72
274,10	1673,19
274,32	1794,02
274,54	1728,49
274,75	1677,29
274,97	1767,40
275,18	1800,16
275,40	1769,44
275,61	1652,71
275,83	1730,53
276,05	1669,09
276,26	1636,33
276,48	1755,11
276,69	1611,75
276,91	1703,91
277,12	1753,06
277,34	1757,16
277,55	1800,16
277,77	1720,29
277,99	1679,33
278,20	1681,38
278,42	1675,24
278,63	1703,91
278,85	1632,23
279,06	1587,18
279,28	1771,49
279,49	1722,34
279,71	1783,78
279,93	1763,30
280,14	1732,58
280,36	1681,38
280,57	1763,30
280,79	1808,36
281,00	1691,62
281,22	1701,86
281,43	1816,55
281,65	1615,85
281,86	1662,95
282,08	1773,54
282,29	1785,83
282,51	1669,09
282,73	1693,67
282,94	1626,09
283,16	1773,54
283,37	1802,21
283,59	1708,01
283,80	1701,86
284,02	1667,05
284,23	1757,16
284,45	1624,04
284,66	1683,43
284,88	1636,33
285,09	1716,20
285,31	1695,72
285,52	1744,87
285,74	1665,00
285,95	1753,06
286,17	1730,53
286,38	1693,67
286,60	1660,90
286,81	1603,56
287,03	1701,86
287,24	1726,44
287,46	1720,29
287,67	1681,38
287,89	1796,07
288,10	1673,19
288,32	1718,25
288,53	1763,30
288,75	1751,01
288,96	1759,21
289,18	1628,14
289,39	1681,38
289,61	1734,63
289,82	1853,41
290,04	1718,25
290,25	1634,28
290,47	1695,72
290,68	1728,49
290,90	1791,97
291,11	1638,38
291,33	1699,81
291,54	1703,91
291,76	1685,48
291,97	1751,01
292,18	1732,58
292,40	1691,62
292,61	1640,42
292,83	1791,97
293,04	1722,34
293,26	1751,01
293,47	1710,05
293,69	1658,85
293,90	1708,01
294,12	1787,88
294,33	1763,30
294,55	1648,61
294,76	1773,54
294,97	1697,77
295,19	1759,21
295,40	1705,96
295,62	1777,64
295,83	1724,39
296,05	1687,53
296,26	1673,19
296,48	1644,52
296,69	1697,77
296,90	1658,85
297,12	1701,86
297,33	1789,92
297,55	1677,29
297,76	1718,25
297,98	1734,63
298,19	1675,24
298,41	1689,57
298,62	1654,76
298,83	1787,88
299,05	1746,92
299,26	1708,01
299,48	1673,19
299,69	1742,82
299,90	1724,39
300,12	1697,77
300,33	1730,53
300,55	1710,05
300,76	1765,35
300,98	1642,47
301,19	1814,50
301,40	1716,20
301,62	1656,81
301,83	1708,01
302,05	1665,00
302,26	1708,01
302,47	1662,95
302,69	1644,52
302,90	1683,43
303,12	1583,08
303,33	1705,96
303,54	1781,73
303,76	1738,73
303,97	1757,16
304,19	1783,78
304,40	1626,09
304,61	1794,02
304,83	1767,40
305,04	1794,02
305,26	1744,87
305,47	1738,73
305,68	1587,18
305,90	1587,18
306,11	1746,92
306,33	1667,05
306,54	1677,29
306,75	1648,61
306,97	1607,66
307,18	1691,62
307,39	1654,76
307,61	1796,07
307,82	1742,82
308,04	1699,81
308,25	1642,47
308,46	1728,49
308,68	1675,24
308,89	1648,61
309,10	1796,07
309,32	1753,06
309,53	1687,53
309,74	1648,61
309,96	1732,58
310,17	1724,39
310,39	1728,49
310,60	1759,21
310,81	1718,25
311,03	1650,66
311,24	1718,25
311,45	1693,67
311,67	1787,88
311,88	1703,91
312,09	1636,33
312,31	1611,75
312,52	1705,96
312,73	1693,67
312,95	1615,85
313,16	1710,05
313,37	1802,21
313,59	1705,96
313,80	1701,86
314,01	1828,84
314,23	1644,52
314,44	1699,81
314,65	1630,18
314,87	1636,33
315,08	1654,76
315,29	1771,49
315,51	1691,62
315,72	1640,42
315,93	1847,27
316,15	1771,49
316,36	1642,47
316,57	1695,72
316,79	1763,30
317,00	1683,43
317,21	1699,81
317,43	1675,24
317,64	1675,24
317,85	1624,04
318,07	1683,43
318,28	1722,34
318,49	1837,03
318,70	1888,23
318,92	1763,30
319,13	1847,27
319,34	1875,94
319,56	1802,21
319,77	1785,83
319,98	1779,68
320,20	1775,59
320,41	1697,77
320,62	1771,49
320,83	1589,22
321,05	1789,92
321,26	1738,73
321,47	1640,42
321,69	1697,77
321,90	1683,43
322,11	1652,71
322,32	1761,25
322,54	1765,35
322,75	1634,28
322,96	1863,65
323,18	1558,50
323,39	1634,28
323,60	1638,38
323,81	1769,44
324,03	1697,77
324,24	1679,33
324,45	1718,25
324,66	1603,56
324,88	1779,68
325,09	1843,17
325,30	1728,49
325,52	1701,86
325,73	1681,38
325,94	1689,57
326,15	1675,24
326,37	1660,90
326,58	1761,25
326,79	1812,45
327,00	1673,19
327,22	1753,06
327,43	1705,96
327,64	1638,38
327,85	1759,21
328,07	1744,87
328,28	1791,97
328,49	1718,25
328,70	1683,43
328,92	1773,54
329,13	1669,09
329,34	1693,67
329,55	1789,92
329,76	1826,79
329,98	1730,53
330,19	1787,88
330,40	1722,34
330,61	1701,86
330,83	1763,30
331,04	1646,57
331,25	1703,91
331,46	1695,72
331,68	1638,38
331,89	1744,87
332,10	1718,25
332,31	1595,37
332,52	1732,58
332,74	1771,49
332,95	1673,19
333,16	1759,21
333,37	1781,73
333,58	1611,75
333,80	1652,71
334,01	1630,18
334,22	1767,40
334,43	1585,13
334,64	1640,42
334,86	1734,63
335,07	1710,05
335,28	1746,92
335,49	1646,57
335,70	1751,01
335,92	1763,30
336,13	1757,16
336,34	1667,05
336,55	1656,81
336,76	1597,42
336,98	1564,65
337,19	1718,25
337,40	1679,33
337,61	1882,08
337,82	1624,04
338,04	1785,83
338,25	1624,04
338,46	1699,81
338,67	1669,09
338,88	1683,43
339,09	1699,81
339,31	1587,18
339,52	1587,18
339,73	1644,52
339,94	1751,01
340,15	1781,73
340,36	1673,19
340,58	1693,67
340,79	1673,19
341,00	1751,01
341,21	1669,09
341,42	1773,54
341,63	1708,01
341,85	1730,53
342,06	1658,85
342,27	1591,27
342,48	1744,87
342,69	1689,57
342,90	1714,15
343,12	1712,10
343,33	1617,90
343,54	1757,16
343,75	1826,79
343,96	1757,16
344,17	1689,57
344,38	1710,05
344,60	1583,08
344,81	1710,05
345,02	1708,01
345,23	1822,69
345,44	1783,78
345,65	1710,05
345,86	1718,25
346,07	1712,10
346,29	1703,91
346,50	1685,48
346,71	1839,08
346,92	1794,02
347,13	1863,65
347,34	1691,62
347,55	1720,29
347,76	1683,43
347,98	1619,94
348,19	1654,76
348,40	1775,59
348,61	1697,77
348,82	1783,78
349,03	1748,97
349,24	1619,94
349,45	1816,55
349,66	1671,14
349,88	1701,86
350,09	1665,00
350,30	1791,97
350,51	1822,69
350,72	1662,95
350,93	1716,20
351,14	1589,22
351,35	1599,46
351,56	1755,11
351,77	1656,81
351,99	1765,35
352,20	1816,55
352,41	1761,25
352,62	1642,47
352,83	1708,01
353,04	1789,92
353,25	1546,22
353,46	1787,88
353,67	1726,44
353,88	1630,18
354,09	1746,92
354,30	1693,67
354,52	1714,15
354,73	1683,43
354,94	1658,85
355,15	1742,82
355,36	1738,73
355,57	1652,71
355,78	1769,44
355,99	1619,94
356,20	1644,52
356,41	1738,73
356,62	1753,06
356,83	1732,58
357,04	1820,64
357,25	1558,50
357,46	1652,71
357,68	1644,52
357,89	1624,04
358,10	1681,38
358,31	1705,96
358,52	1683,43
358,73	1632,23
358,94	1689,57
359,15	1722,34
359,36	1748,97
359,57	1603,56
359,78	1701,86
359,99	1785,83
360,20	1689,57
360,41	1761,25
360,62	1720,29
360,83	1697,77
361,04	1763,30
361,25	1757,16
361,46	1877,99
361,67	1740,77
361,88	1767,40
362,09	1775,59
362,30	1697,77
362,51	1621,99
362,72	1804,26
362,93	1681,38
363,14	1765,35
363,35	1689,57
363,56	1646,57
363,78	1777,64
363,99	1681,38
364,20	1697,77
364,41	1759,21
364,62	1810,40
364,83	1710,05
365,04	1685,48
365,25	1658,85
365,46	1808,36
365,67	1685,48
365,88	1632,23
366,09	1671,14
366,30	1779,68
366,51	1746,92
366,72	1638,38
366,93	1656,81
367,14	1708,01
367,35	1808,36
367,56	1720,29
367,77	1873,89
367,98	1732,58
368,18	1787,88
368,39	1699,81
368,60	1591,27
368,81	1744,87
369,02	1755,11
369,23	1738,73
369,44	1552,36
369,65	1681,38
369,86	1695,72
370,07	1773,54
370,28	1675,24
370,49	1671,14
370,70	1744,87
370,91	1667,05
371,12	1673,19
371,33	1882,08
371,54	1705,96
371,75	1722,34
371,96	1615,85
372,17	1744,87
372,38	1673,19
372,59	1720,29
372,80	1648,61
373,01	1640,42
373,22	1736,68
373,43	1701,86
373,64	1662,95
373,85	1665,00
374,06	1798,12
374,26	1767,40
374,47	1705,96
374,68	1804,26
374,89	1740,77
375,10	1738,73
375,31	1753,06
375,52	1703,91
375,73	1720,29
375,94	1667,05
376,15	1834,98
376,36	1681,38
376,57	1599,46
376,78	1712,10
376,99	1722,34
377,20	1753,06
377,40	1683,43
377,61	1816,55
377,82	1617,90
378,03	1828,84
378,24	1708,01
378,45	1738,73
378,66	1720,29
378,87	1673,19
379,08	1646,57
379,29	1662,95
379,50	1720,29
379,71	1683,43
379,91	1755,11
380,12	1695,72
380,33	1724,39
380,54	1740,77
380,75	1720,29
380,96	1681,38
381,17	1798,12
381,38	1734,63
381,59	1656,81
381,80	1746,92
382,00	1898,47
382,21	1736,68
382,42	1896,42
382,63	1851,36
382,84	1738,73
383,05	1751,01
383,26	1837,03
383,47	1708,01
383,68	1753,06
383,88	1755,11
384,09	1740,77
384,30	1871,84
384,51	1779,68
384,72	1673,19
384,93	1728,49
385,14	1781,73
385,35	1759,21
385,55	1640,42
385,76	1839,08
385,97	1755,11
386,18	1636,33
386,39	1753,06
386,60	1708,01
386,81	1724,39
387,02	1611,75
387,22	1609,70
387,43	1763,30
387,64	1814,50
387,85	1859,56
388,06	2207,71
388,27	4239,30
388,48	6715,29
388,68	8007,56
388,89	9400,18
389,10	9414,51
389,31	8396,67
389,52	7481,23
389,73	6543,26
389,93	6150,05
390,14	5588,91
390,35	5093,30
390,56	4489,15
390,77	3762,12
390,98	2983,89
391,18	2424,80
391,39	2138,08
391,60	1869,80
391,81	1824,74
392,02	1800,16
392,23	1867,75
392,43	1757,16
392,64	1767,40
392,85	1789,92
393,06	1804,26
393,27	1757,16
393,47	1638,38
393,68	1734,63
393,89	1726,44
394,10	1718,25
394,31	1714,15
394,52	1675,24
394,72	1718,25
394,93	1767,40
395,14	1624,04
395,35	1748,97
395,56	1656,81
395,76	1683,43
395,97	1847,27
396,18	1853,41
396,39	1861,60
396,60	1970,15
396,80	1920,99
397,01	1783,78
397,22	1882,08
397,43	1861,60
397,64	1806,31
397,84	1740,77
398,05	1906,66
398,26	1738,73
398,47	1804,26
398,67	1724,39
398,88	1724,39
399,09	1785,83
399,30	1712,10
399,51	1699,81
399,71	1665,00
399,92	1705,96
400,13	1675,24
400,34	1683,43
400,54	1615,85
400,75	1767,40
400,96	1685,48
401,17	1808,36
401,37	1746,92
401,58	1757,16
401,79	1703,91
402,00	1861,60
402,21	1982,43
402,41	1970,15
402,62	2019,30
402,83	2029,54
403,04	2007,01
403,24	2004,96
403,45	1851,36
403,66	1861,60
403,87	1822,69
404,07	1931,23
404,28	1888,23
404,49	1904,61
404,70	1841,12
404,90	1785,83
405,11	1748,97
405,32	1802,21
405,52	1683,43
405,73	1669,09
405,94	1693,67
406,15	1738,73
406,35	1705,96
406,56	1720,29
406,77	1724,39
406,98	1806,31
407,18	1644,52
407,39	1789,92
407,60	1730,53
407,80	1703,91
408,01	1681,38
408,22	1669,09
408,43	1656,81
408,63	1767,40
408,84	1683,43
409,05	1806,31
409,25	1699,81
409,46	1601,51
409,67	1771,49
409,88	1695,72
410,08	1755,11
410,29	1685,48
410,50	1759,21
410,70	1730,53
410,91	1626,09
411,12	1681,38
411,32	1730,53
411,53	1681,38
411,74	1783,78
411,95	1820,64
412,15	1701,86
412,36	1767,40
412,57	1873,89
412,77	1791,97
412,98	1755,11
413,19	1783,78
413,39	1730,53
413,60	1773,54
413,81	1791,97
414,01	1683,43
414,22	1810,40
414,43	1761,25
414,63	1738,73
414,84	1773,54
415,05	1632,23
415,25	1667,05
415,46	1773,54
415,67	1679,33
415,87	1626,09
416,08	1656,81
416,29	1734,63
416,49	1736,68
416,70	1689,57
416,91	1648,61
417,11	1650,66
417,32	1728,49
417,53	1710,05
417,73	1744,87
417,94	1640,42
418,15	1763,30
418,35	1654,76
418,56	1658,85
418,77	1736,68
418,97	1744,87
419,18	1712,10
419,38	1611,75
419,59	1656,81
419,80	1775,59
420,00	1671,14
420,21	1708,01
420,42	1740,77
420,62	1742,82
420,83	1693,67
421,04	1712,10
421,24	1736,68
421,45	1740,77
421,65	1699,81
421,86	1720,29
422,07	1691,62
422,27	1757,16
422,48	1677,29
422,69	1599,46
422,89	1708,01
423,10	1660,90
423,30	1609,70
423,51	1634,28
423,72	1724,39
423,92	1718,25
424,13	1734,63
424,33	1689,57
424,54	1812,45
424,75	1732,58
424,95	1734,63
425,16	1742,82
425,36	1734,63
425,57	1791,97
425,78	1658,85
425,98	1798,12
426,19	1671,14
426,39	1671,14
426,60	1781,73
426,81	1841,12
427,01	1767,40
427,22	1732,58
427,42	1628,14
427,63	1667,05
427,83	1818,60
428,04	1802,21
428,25	1802,21
428,45	1783,78
428,66	1814,50
428,86	1697,77
429,07	1693,67
429,28	1771,49
429,48	1726,44
429,69	1648,61
429,89	1714,15
430,10	1675,24
430,30	1722,34
430,51	1812,45
430,71	1716,20
430,92	1712,10
431,13	1722,34
431,33	1757,16
431,54	1691,62
431,74	1820,64
431,95	1798,12
432,15	1665,00
432,36	1695,72
432,56	1748,97
432,77	1845,22
432,98	1832,93
433,18	1755,11
433,39	1648,61
433,59	1740,77
433,80	1882,08
434,00	1820,64
434,21	1740,77
434,41	1665,00
434,62	1978,34
434,82	1665,00
435,03	1703,91
435,23	1753,06
435,44	1593,32
435,64	1660,90
435,85	1757,16
436,06	1763,30
436,26	1732,58
436,47	1662,95
436,67	1703,91
436,88	1662,95
437,08	1771,49
437,29	1800,16
437,49	1730,53
437,70	1744,87
437,90	1718,25
438,11	1949,67
438,31	1806,31
438,52	1863,65
438,72	1861,60
438,93	1916,90
439,13	1701,86
439,34	1828,84
439,54	1796,07
439,75	1744,87
439,95	1789,92
440,16	1685,48
440,36	1763,30
440,57	1826,79
440,77	1722,34
440,98	1744,87
441,18	1755,11
441,39	1730,53
441,59	1693,67
441,80	1877,99
442,00	1755,11
442,21	1794,02
442,41	1689,57
442,62	1789,92
442,82	1708,01
443,02	1708,01
443,23	1755,11
443,43	1701,86
443,64	1816,55
443,84	1730,53
444,05	1804,26
444,25	1751,01
444,46	1730,53
444,66	1759,21
444,87	1820,64
445,07	1652,71
445,28	1687,53
445,48	1814,50
445,69	1781,73
445,89	1830,88
446,09	1757,16
446,30	2050,02
446,50	2674,65
446,71	3618,76
446,91	4167,62
447,12	4564,92
447,32	4816,82
447,53	4155,33
447,73	3772,36
447,93	3422,16
448,14	3237,84
448,34	3172,30
448,55	2953,17
448,75	2754,52
448,96	2639,83
449,16	2394,08
449,36	2211,81
449,57	1929,19
449,77	1980,39
449,98	1794,02
450,18	1810,40
450,39	1783,78
450,59	1773,54
450,79	1705,96
451,00	1746,92
451,20	1808,36
451,41	1767,40
451,61	1767,40
451,81	1710,05
452,02	1683,43
452,22	1730,53
452,43	1697,77
452,63	1730,53
452,84	1615,85
453,04	1705,96
453,24	1783,78
453,45	1683,43
453,65	1736,68
453,86	1730,53
454,06	1746,92
454,26	1691,62
454,47	1705,96
454,67	1861,60
454,87	1763,30
455,08	1658,85
455,28	1763,30
455,49	1757,16
455,69	1671,14
455,89	1914,85
456,10	1732,58
456,30	1757,16
456,51	1769,44
456,71	1755,11
456,91	1705,96
457,12	1843,17
457,32	1783,78
457,52	1644,52
457,73	1832,93
457,93	1804,26
458,14	1640,42
458,34	1695,72
458,54	1816,55
458,75	1681,38
458,95	1787,88
459,15	1716,20
459,36	1773,54
459,56	1789,92
459,76	1849,32
459,97	1763,30
460,17	1738,73
460,37	1757,16
460,58	1662,95
460,78	1697,77
460,99	1689,57
461,19	1695,72
461,39	1681,38
461,60	1751,01
461,80	1808,36
462,00	1732,58
462,21	1740,77
462,41	1644,52
462,61	1718,25
462,82	1638,38
463,02	1789,92
463,22	1701,86
463,43	1746,92
463,63	1761,25
463,83	1816,55
464,04	1755,11
464,24	1802,21
464,44	1716,20
464,64	1718,25
464,85	1755,11
465,05	1683,43
465,25	1738,73
465,46	1648,61
465,66	1763,30
465,86	1742,82
466,07	1751,01
466,27	1736,68
466,47	1624,04
466,68	1656,81
466,88	1818,60
467,08	1767,40
467,29	1787,88
467,49	1662,95
467,69	1787,88
467,89	1775,59
468,10	1734,63
468,30	1761,25
468,50	1814,50
468,71	1808,36
468,91	1654,76
469,11	1826,79
469,31	1703,91
469,52	1681,38
469,72	1787,88
469,92	1839,08
470,13	1748,97
470,33	1794,02
470,53	1796,07
470,73	2050,02
470,94	2297,82
471,14	2267,10
471,34	2486,23
471,54	2381,79
471,75	2193,37
471,95	2172,89
472,15	2045,92
472,36	2021,35
472,56	2047,97
472,76	2025,44
472,96	1943,52
473,17	1955,81
473,37	1906,66
473,57	1777,64
473,77	1759,21
473,98	1751,01
474,18	1730,53
474,38	1949,67
474,58	1693,67
474,79	1716,20
474,99	1730,53
475,19	1703,91
475,39	1662,95
475,60	1705,96
475,80	1763,30
476,00	1744,87
476,20	1724,39
476,41	1753,06
476,61	1855,46
476,81	1712,10
477,01	1720,29
477,21	1877,99
477,42	1759,21
477,62	1687,53
477,82	1808,36
478,02	1656,81
478,23	1755,11
478,43	1615,85
478,63	1621,99
478,83	1683,43
479,03	1746,92
479,24	1814,50
479,44	1855,46
479,64	1755,11
479,84	1605,61
480,04	1722,34
480,25	1787,88
480,45	1603,56
480,65	1757,16
480,85	1718,25
481,06	1697,77
481,26	1787,88
481,46	1765,35
481,66	1796,07
481,86	1589,22
482,06	1847,27
482,27	1691,62
482,47	1693,67
482,67	1738,73
482,87	1759,21
483,07	1832,93
483,28	1773,54
483,48	1730,53
483,68	1710,05
483,88	1667,05
484,08	1585,13
484,29	1689,57
484,49	1652,71
484,69	1726,44
484,89	1843,17
485,09	1773,54
485,29	1775,59
485,50	1789,92
485,70	1724,39
485,90	1775,59
486,10	1769,44
486,30	1796,07
486,50	1861,60
486,71	1783,78
486,91	1751,01
487,11	1853,41
487,31	1642,47
487,51	1751,01
487,71	1660,90
487,91	1583,08
488,12	1607,66
488,32	1609,70
488,52	1693,67
488,72	1607,66
488,92	1787,88
489,12	1765,35
489,32	1761,25
489,53	1759,21
489,73	1669,09
489,93	1832,93
490,13	1722,34
490,33	1617,90
490,53	1724,39
490,73	1837,03
490,94	1652,71
491,14	1718,25
491,34	1857,51
491,54	2125,79
491,74	2547,67
491,94	2818,00
492,14	2963,41
492,34	2973,65
492,54	2680,79
492,75	2486,23
492,95	2504,67
493,15	2291,68
493,35	2267,10
493,55	2252,77
493,75	2080,74
493,95	2156,51
494,15	2031,58
494,35	1941,47
494,56	1781,73
494,76	1757,16
494,96	1863,65
495,16	1814,50
495,36	1755,11
495,56	1746,92
495,76	1755,11
495,96	1656,81
496,16	1599,46
496,36	1800,16
496,56	1751,01
496,77	1759,21
496,97	1724,39
497,17	1791,97
497,37	1665,00
497,57	1646,57
497,77	1789,92
497,97	1665,00
498,17	1701,86
498,37	1681,38
498,57	1675,24
498,77	1701,86
498,97	1826,79
499,17	1796,07
499,38	1730,53
499,58	1812,45
499,78	1740,77
499,98	1869,80
500,18	1746,92
500,38	1660,90
500,58	1900,52
500,78	2578,39
500,98	4431,80
501,18	5781,42
501,38	6514,59
501,58	7051,16
501,78	6442,91
501,98	5304,24
502,18	4904,89
502,38	4380,61
502,58	3962,82
502,78	3600,33
502,98	3518,41
503,18	3508,17
503,38	3121,10
503,59	2820,05
503,79	2686,94
503,99	2404,32
504,19	2289,63
504,39	2181,09
504,59	2078,69
504,79	2183,13
504,99	2082,78
505,19	1886,18
505,39	1902,56
505,59	1980,39
505,79	1904,61
505,99	1771,49
506,19	1877,99
506,39	1869,80
506,59	1783,78
506,79	1738,73
506,99	1877,99
507,19	1744,87
507,39	1820,64
507,59	1730,53
507,79	1662,95
507,99	1691,62
508,19	1701,86
508,39	1724,39
508,59	1794,02
508,79	1779,68
508,99	1826,79
509,19	1701,86
509,39	1699,81
509,59	1636,33
509,79	1644,52
509,99	1763,30
510,19	1806,31
510,39	1791,97
510,59	1689,57
510,79	1667,05
510,99	1710,05
511,19	1708,01
511,39	1834,98
511,59	1816,55
511,79	1759,21
511,99	1718,25
512,19	1802,21
512,38	1773,54
512,58	1701,86
512,78	1740,77
512,98	1853,41
513,18	1783,78
513,38	1632,23
513,58	1779,68
513,78	1746,92
513,98	1771,49
514,18	1753,06
514,38	1708,01
514,58	1718,25
514,78	1669,09
514,98	1693,67
515,18	1746,92
515,38	1744,87
515,58	1834,98
515,78	1748,97
515,98	1742,82
516,18	1705,96
516,38	1734,63
516,57	1746,92
516,77	1765,35
516,97	1699,81
517,17	1701,86
517,37	1636,33
517,57	1779,68
517,77	1730,53
517,97	1697,77
518,17	1767,40
518,37	1685,48
518,57	1665,00
518,77	1742,82
518,97	1701,86
519,16	1810,40
519,36	1757,16
519,56	1834,98
519,76	1703,91
519,96	1646,57
520,16	1832,93
520,36	1681,38
520,56	1847,27
520,76	1630,18
520,96	1701,86
521,16	1822,69
521,35	1773,54
521,55	1785,83
521,75	1722,34
521,95	1757,16
522,15	1755,11
522,35	1656,81
522,55	1693,67
522,75	1781,73
522,95	1687,53
523,14	1732,58
523,34	1753,06
523,54	1689,57
523,74	1796,07
523,94	1783,78
524,14	1638,38
524,34	1845,22
524,54	1834,98
524,73	1724,39
524,93	1732,58
525,13	1804,26
525,33	1767,40
525,53	1839,08
525,73	1736,68
525,93	1785,83
526,13	1724,39
526,32	1763,30
526,52	1837,03
526,72	1753,06
526,92	1660,90
527,12	1738,73
527,32	1652,71
527,52	1781,73
527,71	1685,48
527,91	1734,63
528,11	1712,10
528,31	1787,88
528,51	1630,18
528,71	1738,73
528,90	1708,01
529,10	1779,68
529,30	1892,32
529,50	1513,45
529,70	1777,64
529,90	1716,20
530,09	1716,20
530,29	1615,85
530,49	1652,71
530,69	1859,56
530,89	1767,40
531,09	1740,77
531,28	1667,05
531,48	1804,26
531,68	1765,35
531,88	1767,40
532,08	1759,21
532,28	1685,48
532,47	1787,88
532,67	1847,27
532,87	1779,68
533,07	1716,20
533,27	1763,30
533,46	1808,36
533,66	1677,29
533,86	1681,38
534,06	1746,92
534,26	1738,73
534,45	1697,77
534,65	1845,22
534,85	1769,44
535,05	1687,53
535,25	1804,26
535,44	1656,81
535,64	1783,78
535,84	1714,15
536,04	1718,25
536,24	1742,82
536,43	1714,15
536,63	1712,10
536,83	1681,38
537,03	1734,63
537,22	1630,18
537,42	1638,38
537,62	1759,21
537,82	1630,18
538,02	1734,63
538,21	1763,30
538,41	1873,89
538,61	1757,16
538,81	1800,16
539,00	1843,17
539,20	1658,85
539,40	1667,05
539,60	1847,27
539,79	1738,73
539,99	1791,97
540,19	1648,61
540,39	1712,10
540,58	1742,82
540,78	1814,50
540,98	1701,86
541,18	1873,89
541,37	1789,92
541,57	1708,01
541,77	1806,31
541,97	1728,49
542,16	1648,61
542,36	1775,59
542,56	1759,21
542,76	1865,70
542,95	1810,40
543,15	1783,78
543,35	1789,92
543,54	1654,76
543,74	1746,92
543,94	1783,78
544,14	1724,39
544,33	1728,49
544,53	1775,59
544,73	1650,66
544,93	1673,19
545,12	1712,10
545,32	1769,44
545,52	1693,67
545,71	1648,61
545,91	1753,06
546,11	1673,19
546,30	1722,34
546,50	1757,16
546,70	1746,92
546,90	1728,49
547,09	1708,01
547,29	1710,05
547,49	1781,73
547,68	1742,82
547,88	1660,90
548,08	1746,92
548,27	2222,05
548,47	1812,45
548,67	1695,72
548,87	1798,12
549,06	1708,01
549,26	1757,16
549,46	1769,44
549,65	1660,90
549,85	1730,53
550,05	1857,51
550,24	1648,61
550,44	1697,77
550,64	1787,88
550,83	1726,44
551,03	1767,40
551,23	1802,21
551,42	1765,35
551,62	1761,25
551,82	1753,06
552,01	1783,78
552,21	1734,63
552,41	1789,92
552,60	1839,08
552,80	1763,30
553,00	1794,02
553,19	1726,44
553,39	1826,79
553,59	1632,23
553,78	1712,10
553,98	1755,11
554,17	1679,33
554,37	1728,49
554,57	1763,30
554,76	1695,72
554,96	1703,91
555,16	1783,78
555,35	1781,73
555,55	1810,40
555,75	1710,05
555,94	1796,07
556,14	1640,42
556,33	1769,44
556,53	1734,63
556,73	1869,80
556,92	1785,83
557,12	1894,37
557,32	1853,41
557,51	1830,88
557,71	1716,20
557,90	1839,08
558,10	1763,30
558,30	1730,53
558,49	1701,86
558,69	1730,53
558,88	1742,82
559,08	1779,68
559,28	1732,58
559,47	1779,68
559,67	1775,59
559,86	1794,02
560,06	1738,73
560,26	1740,77
560,45	1830,88
560,65	1660,90
560,84	1824,74
561,04	1757,16
561,24	1800,16
561,43	1628,14
561,63	1841,12
561,82	1791,97
562,02	1732,58
562,22	1671,14
562,41	1697,77
562,61	1734,63
562,80	1689,57
563,00	1904,61
563,19	1769,44
563,39	1755,11
563,59	1798,12
563,78	1689,57
563,98	1632,23
564,17	1642,47
564,37	1632,23
564,56	1654,76
564,76	1720,29
564,96	1800,16
565,15	1755,11
565,35	1896,42
565,54	1746,92
565,74	1724,39
565,93	1730,53
566,13	1703,91
566,32	1765,35
566,52	1781,73
566,71	1781,73
566,91	1871,84
567,11	1804,26
567,30	1687,53
567,50	1771,49
567,69	1763,30
567,89	1763,30
568,08	1648,61
568,28	1693,67
568,47	1726,44
568,67	1759,21
568,86	1740,77
569,06	1818,60
569,25	1697,77
569,45	1714,15
569,64	1681,38
569,84	1732,58
570,04	1734,63
570,23	1759,21
570,43	1699,81
570,62	1755,11
570,82	1794,02
571,01	1689,57
571,21	1675,24
571,40	1656,81
571,60	1759,21
571,79	1710,05
571,99	1761,25
572,18	1708,01
572,38	1753,06
572,57	1703,91
572,77	1738,73
572,96	1941,47
573,16	1800,16
573,35	1708,01
573,55	1759,21
573,74	1724,39
573,94	1648,61
574,13	1732,58
574,33	1845,22
574,52	1775,59
574,71	1800,16
574,91	1693,67
575,10	1708,01
575,30	1746,92
575,49	1738,73
575,69	1712,10
575,88	1771,49
576,08	1705,96
576,27	1812,45
576,47	1734,63
576,66	1822,69
576,86	1791,97
577,05	1726,44
577,25	1800,16
577,44	1857,51
577,64	1767,40
577,83	1757,16
578,02	1677,29
578,22	1820,64
578,41	1828,84
578,61	1697,77
578,80	1744,87
579,00	1804,26
579,19	1789,92
579,39	1798,12
579,58	1791,97
579,77	1777,64
579,97	1791,97
580,16	1824,74
580,36	1863,65
580,55	1789,92
580,75	1753,06
580,94	1808,36
581,13	1888,23
581,33	1849,32
581,52	1755,11
581,72	1822,69
581,91	1826,79
582,11	1783,78
582,30	1822,69
582,49	1820,64
582,69	1828,84
582,88	1820,64
583,08	1773,54
583,27	1814,50
583,47	1812,45
583,66	1798,12
583,85	1701,86
584,05	1769,44
584,24	1816,55
584,44	1806,31
584,63	1783,78
584,82	1775,59
585,02	1947,62
585,21	1847,27
585,41	1884,13
585,60	1748,97
585,79	1925,09
585,99	1902,56
586,18	1826,79
586,37	2246,62
586,57	3303,37
586,76	9611,12
586,96	24147,60
587,15	33398,27
587,34	39533,99
587,54	41080,21
587,73	35573,22
587,93	25654,90
588,12	20958,91
588,31	17972,97
588,51	15599,38
588,70	14878,49
588,89	13831,98
589,09	12222,28
589,28	10856,28
589,47	9222,00
589,67	7823,24
589,86	6148,00
590,06	4892,60
590,25	3741,64
590,44	3063,76
590,64	2564,06
590,83	2164,70
591,02	2107,36
591,22	1957,86
591,41	1910,75
591,60	1814,50
591,80	1894,37
591,99	1736,68
592,18	1810,40
592,38	1798,12
592,57	1787,88
592,76	1859,56
592,96	1845,22
593,15	1736,68
593,34	1859,56
593,54	1839,08
593,73	1763,30
593,92	1748,97
594,12	1740,77
594,31	1759,21
594,50	1798,12
594,70	1714,15
594,89	1920,99
595,08	1677,29
595,28	1753,06
595,47	1904,61
595,66	1863,65
595,86	1722,34
596,05	1796,07
596,24	1695,72
596,43	1783,78
596,63	1816,55
596,82	1708,01
597,01	1757,16
597,21	1857,51
597,40	1871,84
597,59	1718,25
597,79	1736,68
597,98	1837,03
598,17	1714,15
598,36	1701,86
598,56	1740,77
598,75	1626,09
598,94	1775,59
599,14	1718,25
599,33	1724,39
599,52	1738,73
599,71	1734,63
599,91	1826,79
600,10	1810,40
600,29	1705,96
600,48	1832,93
600,68	1738,73
600,87	1775,59
601,06	1652,71
601,26	1796,07
601,45	1798,12
601,64	1771,49
601,83	1798,12
602,03	1718,25
602,22	1671,14
602,41	1771,49
602,60	1877,99
602,80	1798,12
602,99	1775,59
603,18	1701,86
603,37	1796,07
603,57	1738,73
603,76	1783,78
603,95	1834,98
604,14	1718,25
604,34	1638,38
604,53	1800,16
604,72	1808,36
604,91	1808,36
605,10	1814,50
605,30	1634,28
605,49	1912,80
605,68	1767,40
605,87	1755,11
606,07	1728,49
606,26	1718,25
606,45	1779,68
606,64	1695,72
606,84	1808,36
607,03	1662,95
607,22	1746,92
607,41	1718,25
607,60	1820,64
607,80	1816,55
607,99	1644,52
608,18	1718,25
608,37	1771,49
608,56	1712,10
608,76	1755,11
608,95	1751,01
609,14	1796,07
609,33	1777,64
609,52	1824,74
609,72	1675,24
609,91	1832,93
610,10	1724,39
610,29	1839,08
610,48	1798,12
610,68	1796,07
610,87	1675,24
611,06	1867,75
611,25	1765,35
611,44	1755,11
611,63	1708,01
611,83	1890,28
612,02	1691,62
612,21	1855,46
612,40	1585,13
612,59	1751,01
612,79	1640,42
612,98	1740,77
613,17	1859,56
613,36	1740,77
613,55	1796,07
613,74	1728,49
613,93	1732,58
614,13	1730,53
614,32	1734,63
614,51	1787,88
614,70	1783,78
614,89	1701,86
615,08	1789,92
615,28	2013,15
615,47	1667,05
615,66	1791,97
615,85	1730,53
616,04	1798,12
616,23	1765,35
616,42	1718,25
616,62	1726,44
616,81	1765,35
617,00	1783,78
617,19	1748,97
617,38	1683,43
617,57	1771,49
617,76	1742,82
617,95	1738,73
618,15	1777,64
618,34	1748,97
618,53	1689,57
618,72	1796,07
618,91	1796,07
619,10	1859,56
619,29	1787,88
619,48	1718,25
619,68	1669,09
619,87	1789,92
620,06	1693,67
620,25	1673,19
620,44	1716,20
620,63	1761,25
620,82	1759,21
621,01	1800,16
621,20	1658,85
621,39	1789,92
621,59	1718,25
621,78	1714,15
621,97	1697,77
622,16	1832,93
622,35	1769,44
622,54	1789,92
622,73	1832,93
622,92	1609,70
623,11	1832,93
623,30	1802,21
623,49	1804,26
623,68	1697,77
623,88	1755,11
624,07	1787,88
624,26	1705,96
624,45	1726,44
624,64	1689,57
624,83	1791,97
625,02	1746,92
625,21	1718,25
625,40	1710,05
625,59	1812,45
625,78	1710,05
625,97	1806,31
626,16	1810,40
626,35	1873,89
626,54	1740,77
626,74	1779,68
626,93	1722,34
627,12	1716,20
627,31	1789,92
627,50	1755,11
627,69	1736,68
627,88	1656,81
628,07	1718,25
628,26	1581,03
628,45	1683,43
628,64	1609,70
628,83	1771,49
629,02	1662,95
629,21	1785,83
629,40	1757,16
629,59	1624,04
629,78	1740,77
629,97	1800,16
630,16	1691,62
630,35	1703,91
630,54	1658,85
630,73	1726,44
630,92	1662,95
631,11	1626,09
631,30	1669,09
631,49	1787,88
631,68	1718,25
631,87	1691,62
632,06	1654,76
632,25	1916,90
632,44	1765,35
632,63	1660,90
632,82	1593,32
633,01	1705,96
633,20	1677,29
633,39	1665,00
633,58	1660,90
633,77	1748,97
633,96	1730,53
634,15	1716,20
634,34	1789,92
634,53	1691,62
634,72	1669,09
634,91	1652,71
635,10	1695,72
635,29	1767,40
635,48	1701,86
635,67	1621,99
635,86	1640,42
636,05	1765,35
636,24	1685,48
636,43	1753,06
636,62	1769,44
636,81	1636,33
637,00	1669,09
637,19	1798,12
637,38	1763,30
637,57	1755,11
637,76	1710,05
637,95	1755,11
638,14	1665,00
638,33	1675,24
638,52	1716,20
638,71	1662,95
638,89	1630,18
639,08	1814,50
639,27	1765,35
639,46	1701,86
639,65	1751,01
639,84	1759,21
640,03	1892,32
640,22	1640,42
640,41	1839,08
640,60	1730,53
640,79	1765,35
640,98	1660,90
641,17	1773,54
641,36	1683,43
641,55	1734,63
641,74	1675,24
641,92	1634,28
642,11	1699,81
642,30	1738,73
642,49	1685,48
642,68	1697,77
642,87	1687,53
643,06	1660,90
643,25	1689,57
643,44	1648,61
643,63	1775,59
643,82	1769,44
644,00	1681,38
644,19	1714,15
644,38	1720,29
644,57	1763,30
644,76	1730,53
644,95	1759,21
645,14	1695,72
645,33	1714,15
645,52	1775,59
645,71	1650,66
645,89	1656,81
646,08	1699,81
646,27	1767,40
646,46	1726,44
646,65	1603,56
646,84	1744,87
647,03	1660,90
647,22	1800,16
647,40	1734,63
647,59	1755,11
647,78	1603,56
647,97	1607,66
648,16	1624,04
648,35	1701,86
648,54	1771,49
648,73	1695,72
648,91	1773,54
649,10	1705,96
649,29	1710,05
649,48	1730,53
649,67	1716,20
649,86	1781,73
650,05	1605,61
650,23	1691,62
650,42	1603,56
650,61	1708,01
650,80	1787,88
650,99	1841,12
651,18	1765,35
651,36	1701,86
651,55	1681,38
651,74	1718,25
651,93	1734,63
652,12	1705,96
652,31	1712,10
652,49	1705,96
652,68	1775,59
652,87	1787,88
653,06	1791,97
653,25	1757,16
653,44	1667,05
653,62	1814,50
653,81	1681,38
654,00	1746,92
654,19	1791,97
654,38	1865,70
654,56	1748,97
654,75	1726,44
654,94	1785,83
655,13	1734,63
655,32	1624,04
655,51	1779,68
655,69	1671,14
655,88	1718,25
656,07	1714,15
656,26	1765,35
656,45	1669,09
656,63	1695,72
656,82	1726,44
657,01	1828,84
657,20	1699,81
657,38	1796,07
657,57	1703,91
657,76	1720,29
657,95	1769,44
658,14	1781,73
658,32	1748,97
658,51	1662,95
658,70	1720,29
658,89	1759,21
659,08	1789,92
659,26	1728,49
659,45	1691,62
659,64	1746,92
659,83	1665,00
660,01	1880,04
660,20	1740,77
660,39	1804,26
660,58	1562,60
660,76	1779,68
660,95	1742,82
661,14	1730,53
661,33	1630,18
661,51	1714,15
661,70	1681,38
661,89	1757,16
662,08	1701,86
662,26	1665,00
662,45	1701,86
662,64	1812,45
662,83	1720,29
663,01	1685,48
663,20	1718,25
663,39	1832,93
663,58	1691,62
663,76	1703,91
663,95	1751,01
664,14	1601,51
664,32	1669,09
664,51	1644,52
664,70	1644,52
664,89	1779,68
665,07	1578,98
665,26	1837,03
665,45	1656,81
665,64	1787,88
665,82	1798,12
666,01	1732,58
666,20	1691,62
666,38	1775,59
666,57	1826,79
666,76	2123,74
666,95	4405,18
667,13	10364,77
667,32	15007,52
667,51	17467,13
667,69	18458,34
667,88	17086,20
668,07	11857,74
668,25	9269,11
668,44	7876,49
668,63	7124,88
668,81	6791,06
669,00	6084,52
669,19	5545,90
669,38	4890,55
669,56	4437,95
669,75	3991,49
669,94	3313,61
670,12	2871,25
670,31	2590,68
670,50	2242,53
670,68	2025,44
670,87	1943,52
671,06	1820,64
671,24	1828,84
671,43	1789,92
671,62	1759,21
671,80	1673,19
671,99	1718,25
672,18	1689,57
672,36	1796,07
672,55	1726,44
672,74	1730,53
672,92	1665,00
673,11	1755,11
673,29	1632,23
673,48	1738,73
673,67	1726,44
673,85	1757,16
674,04	1779,68
674,23	1701,86
674,41	1734,63
674,60	1701,86
674,79	1605,61
674,97	1691,62
675,16	1771,49
675,34	1759,21
675,53	1736,68
675,72	1757,16
675,90	1863,65
676,09	1699,81
676,28	1687,53
676,46	1658,85
676,65	1771,49
676,83	1695,72
677,02	1720,29
677,21	1753,06
677,39	1736,68
677,58	1593,32
677,77	1660,90
677,95	1587,18
678,14	1708,01
678,32	1742,82
678,51	1617,90
678,70	1908,71
678,88	1640,42
679,07	1701,86
679,25	1656,81
679,44	1722,34
679,63	1671,14
679,81	1720,29
680,00	1693,67
680,18	1775,59
680,37	1755,11
680,55	1755,11
680,74	1673,19
680,93	1538,02
681,11	1693,67
681,30	1728,49
681,48	1804,26
681,67	1687,53
681,85	1753,06
682,04	1771,49
682,23	1744,87
682,41	1751,01
682,60	1693,67
682,78	1740,77
682,97	1644,52
683,15	1736,68
683,34	1730,53
683,53	1822,69
683,71	1665,00
683,90	1806,31
684,08	1820,64
684,27	1726,44
684,45	1703,91
684,64	1755,11
684,82	1730,53
685,01	1662,95
685,19	1669,09
685,38	1837,03
685,57	1771,49
685,75	1636,33
685,94	1677,29
686,12	1679,33
686,31	1734,63
686,49	1820,64
686,68	1578,98
686,86	1728,49
687,05	1744,87
687,23	1759,21
687,42	1669,09
687,60	1613,80
687,79	1660,90
687,97	1808,36
688,16	1697,77
688,34	1742,82
688,53	1650,66
688,71	1724,39
688,90	1779,68
689,08	1720,29
689,27	1638,38
689,45	1718,25
689,64	1718,25
689,82	1740,77
690,01	1771,49
690,19	1783,78
690,38	1693,67
690,56	1748,97
690,75	1630,18
690,93	1656,81
691,12	1589,22
691,30	1742,82
691,49	1695,72
691,67	1695,72
691,86	1824,74
692,04	1697,77
692,23	1728,49
692,41	1736,68
692,60	1834,98
692,78	1814,50
692,97	1761,25
693,15	1724,39
693,34	1730,53
693,52	1714,15
693,71	1617,90
693,89	1742,82
694,08	1615,85
694,26	1683,43
694,44	1787,88
694,63	1714,15
694,81	1705,96
695,00	1691,62
695,18	1765,35
695,37	1839,08
695,55	1667,05
695,74	1624,04
695,92	1617,90
696,10	1820,64
696,29	1611,75
696,47	1695,72
696,66	1644,52
696,84	1720,29
697,03	1619,94
697,21	1816,55
697,40	2328,54
697,58	1753,06
697,76	1648,61
697,95	1714,15
698,13	1650,66
698,32	1662,95
698,50	1691,62
698,68	1777,64
698,87	1783,78
699,05	1820,64
699,24	1714,15
699,42	1724,39
699,61	1705,96
699,79	1689,57
699,97	1748,97
700,16	1640,42
700,34	1652,71
700,53	1695,72
700,71	1818,60
700,89	1759,21
701,08	1722,34
701,26	1656,81
701,45	2103,26
701,63	1705,96
701,81	1724,39
702,00	1652,71
702,18	1675,24
702,37	1658,85
702,55	1751,01
702,73	1673,19
702,92	1636,33
703,10	1714,15
703,28	1763,30
703,47	1628,14
703,65	1808,36
703,84	1828,84
704,02	1656,81
704,20	1761,25
704,39	1613,80
704,57	1683,43
704,75	1822,69
704,94	1759,21
705,12	1683,43
705,30	1789,92
705,49	2340,83
705,67	4431,80
705,86	9238,39
706,04	12222,28
706,22	13879,08
706,41	14989,08
706,59	13371,19
706,77	9230,20
706,96	7245,71
707,14	6569,88
707,32	5849,00
707,51	5433,26
707,69	4906,93
707,87	4075,46
708,06	3387,34
708,24	2910,16
708,42	2338,78
708,61	2236,38
708,79	1781,73
708,97	1845,22
709,16	1761,25
709,34	1724,39
709,52	1740,77
709,71	1681,38
709,89	1789,92
710,07	1648,61
710,26	1662,95
710,44	1769,44
710,62	1767,40
710,80	1769,44
710,99	1724,39
711,17	1853,41
711,35	1671,14
711,54	1701,86
711,72	1865,70
711,90	1742,82
712,09	1683,43
712,27	1697,77
712,45	1759,21
712,63	1677,29
712,82	1673,19
713,00	1708,01
713,18	1767,40
713,37	1742,82
713,55	1843,17
713,73	1703,91
713,91	1744,87
714,10	1695,72
714,28	1730,53
714,46	1681,38
714,65	1654,76
714,83	1769,44
715,01	1726,44
715,19	1681,38
715,38	1681,38
715,56	1755,11
715,74	1671,14
715,92	1624,04
716,11	1771,49
716,29	1603,56
716,47	1708,01
716,65	1730,53
716,84	1617,90
717,02	1705,96
717,20	1626,09
717,38	1726,44
717,57	1691,62
717,75	1796,07
717,93	1687,53
718,11	1751,01
718,30	1669,09
718,48	1748,97
718,66	1748,97
718,84	1730,53
719,03	1687,53
719,21	1564,65
719,39	1837,03
719,57	1691,62
719,75	1796,07
719,94	1640,42
720,12	1722,34
720,30	1679,33
720,48	1736,68
720,67	1673,19
720,85	1640,42
721,03	1685,48
721,21	1632,23
721,39	1767,40
721,58	1689,57
721,76	1656,81
721,94	1746,92
722,12	1730,53
722,30	1798,12
722,49	1665,00
722,67	1681,38
722,85	1644,52
723,03	1654,76
723,21	1601,51
723,40	1734,63
723,58	1761,25
723,76	1742,82
723,94	1763,30
724,12	1685,48
724,30	1806,31
724,49	1746,92
724,67	1566,70
724,85	1771,49
725,03	1634,28
725,21	1730,53
725,40	1734,63
725,58	1626,09
725,76	1865,70
725,94	1748,97
726,12	1712,10
726,30	1705,96
726,49	1705,96
726,67	1685,48
726,85	1771,49
727,03	1830,88
727,21	2172,89
727,39	2932,69
727,57	3755,97
727,76	4155,33
727,94	4370,37
728,12	4206,53
728,30	3727,30
728,48	2873,30
728,66	2719,70
728,84	2549,72
729,03	2342,88
729,21	2047,97
729,39	1951,71
729,57	1796,07
729,75	1830,88
729,93	1822,69
730,11	1677,29
730,30	1675,24
730,48	1726,44
730,66	1783,78
730,84	1730,53
731,02	1730,53
731,20	1681,38
731,38	1763,30
731,56	1669,09
731,74	1613,80
731,93	1712,10
732,11	1734,63
732,29	1734,63
732,47	1785,83
732,65	1642,47
732,83	1791,97
733,01	1773,54
733,19	1699,81
733,37	1796,07
733,56	1726,44
733,74	1716,20
733,92	1767,40
734,10	1658,85
734,28	1734,63
734,46	1644,52
734,64	1652,71
734,82	1685,48
735,00	1681,38
735,18	1714,15
735,36	1699,81
735,54	1673,19
735,73	1691,62
735,91	1785,83
736,09	1783,78
736,27	1734,63
736,45	1746,92
736,63	1656,81
736,81	1771,49
736,99	1697,77
737,17	1794,02
737,35	1722,34
737,53	1660,90
737,71	1736,68
737,89	1773,54
738,07	1593,32
738,25	1687,53
738,43	1603,56
738,61	1683,43
738,80	1648,61
738,98	1681,38
739,16	1695,72
739,34	1638,38
739,52	1814,50
739,70	1714,15
739,88	1720,29
740,06	1744,87
740,24	1609,70
740,42	1746,92
740,60	1640,42
740,78	1677,29
740,96	1619,94
741,14	1667,05
741,32	1716,20
741,50	1669,09
741,68	1757,16
741,86	1742,82
742,04	1646,57
742,22	1654,76
742,40	1624,04
742,58	1736,68
742,76	1744,87
742,94	1751,01
743,12	1587,18
743,30	1642,47
743,48	1755,11
743,66	1660,90
743,84	1757,16
744,02	1705,96
744,20	1667,05
744,38	1671,14
744,56	1673,19
744,74	1873,89
744,92	1697,77
745,10	1849,32
745,28	1708,01
745,46	1796,07
745,64	1689,57
745,82	1734,63
746,00	1746,92
746,18	1787,88
746,36	1695,72
746,54	1769,44
746,72	1728,49
746,90	1632,23
747,08	1761,25
747,26	1712,10
747,44	1757,16
747,62	1689,57
747,80	1757,16
747,98	1734,63
748,15	1740,77
748,33	1755,11
748,51	1677,29
748,69	1779,68
748,87	1669,09
749,05	1701,86
749,23	1783,78
749,41	1759,21
749,59	1726,44
749,77	1785,83
749,95	1679,33
750,13	1652,71
750,31	1697,77
750,49	1632,23
750,67	1765,35
750,85	1744,87
751,03	1765,35
751,20	1822,69
751,38	1626,09
751,56	1695,72
751,74	1814,50
751,92	1718,25
752,10	1611,75
752,28	1656,81
752,46	1691,62
752,64	1757,16
752,82	1712,10
753,00	1740,77
753,18	1716,20
753,35	1617,90
753,53	1662,95
753,71	1667,05
753,89	1789,92
754,07	1677,29
754,25	1763,30
754,43	1732,58
754,61	1656,81
754,79	1771,49
754,97	1677,29
755,14	1796,07
755,32	1599,46
755,50	1656,81
755,68	1730,53
755,86	1656,81
756,04	1609,70
756,22	1601,51
756,40	1777,64
756,57	1789,92
756,75	1656,81
756,93	1726,44
757,11	1769,44
757,29	1677,29
757,47	1703,91
757,65	1654,76
757,82	1603,56
758,00	1628,14
758,18	1632,23
758,36	1679,33
758,54	1822,69
758,72	1669,09
758,90	1757,16
759,07	1734,63
759,25	1689,57
759,43	1689,57
759,61	1597,42
759,79	2183,13
759,97	1751,01
760,15	1691,62
760,32	1652,71
760,50	1751,01
760,68	1779,68
760,86	1630,18
761,04	1767,40
761,22	1738,73
761,39	1730,53
761,57	1691,62
761,75	1695,72
761,93	1734,63
762,11	1650,66
762,28	1683,43
762,46	1748,97
762,64	1789,92
762,82	1601,51
763,00	1687,53
763,18	1781,73
763,35	1662,95
763,53	1714,15
763,71	1642,47
763,89	1693,67
764,07	1695,72
764,24	1791,97
764,42	1718,25
764,60	1683,43
764,78	1767,40
764,96	1789,92
765,13	1763,30
765,31	1718,25
765,49	1701,86
765,67	1662,95
765,84	1636,33
766,02	1726,44
766,20	1626,09
766,38	1753,06
766,56	1718,25
766,73	1779,68
766,91	1611,75
767,09	1699,81
767,27	1763,30
767,44	1615,85
767,62	1794,02
767,80	1738,73
767,98	1718,25
768,15	1714,15
768,33	1757,16
768,51	1724,39
768,69	1742,82
768,87	1652,71
769,04	1759,21
769,22	1826,79
769,40	1794,02
769,58	1796,07
769,75	1783,78
769,93	1804,26
770,11	1718,25
770,28	1642,47
770,46	1746,92
770,64	1755,11
770,82	1673,19
770,99	1708,01
771,17	1753,06
771,35	1648,61
771,53	1734,63
771,70	1658,85
771,88	1705,96
772,06	1683,43
772,23	1724,39
772,41	1796,07
772,59	1572,84
772,77	1624,04
772,94	1693,67
773,12	1730,53
773,30	1665,00
773,47	1777,64
773,65	1683,43
773,83	1794,02
774,01	1705,96
774,18	1660,90
774,36	1726,44
774,54	1632,23
774,71	1783,78
774,89	1566,70
775,07	1693,67
775,24	1624,04
775,42	1660,90
775,60	1753,06
775,78	1669,09
775,95	1603,56
776,13	1632,23
776,31	1613,80
776,48	1701,86
776,66	1763,30
776,84	1755,11
777,01	1675,24
777,19	1632,23
777,37	1695,72
777,54	1736,68
777,72	1785,83
777,90	1703,91
778,07	1800,16
778,25	1849,32
778,43	1751,01
778,60	1687,53
778,78	1734,63
778,96	1781,73
779,13	1611,75
779,31	1779,68
779,49	1648,61
779,66	1720,29
779,84	1683,43
780,01	1726,44
780,19	1583,08
780,37	1748,97
780,54	1808,36
780,72	1671,14
780,90	1634,28
781,07	1701,86
781,25	1744,87
781,43	1744,87
781,60	1652,71
781,78	1738,73
781,95	1791,97
782,13	1691,62
782,31	1626,09
782,48	1640,42
782,66	1681,38
782,83	1849,32
783,01	1703,91
783,19	1773,54
783,36	1716,20
783,54	1638,38
783,72	1720,29
783,89	1654,76
784,07	1720,29
784,24	1767,40
784,42	1832,93
784,60	1718,25
784,77	1740,77
784,95	1632,23
785,12	1705,96
785,30	1767,40
785,47	1609,70
785,65	1636,33
785,83	1652,71
786,00	1578,98
786,18	1681,38
786,35	1624,04
786,53	1681,38
786,71	1728,49
786,88	1726,44
787,06	1642,47
787,23	1734,63
787,41	1591,27
787,58	1679,33
787,76	1665,00
787,94	1765,35
788,11	1687,53
788,29	1695,72
788,46	1708,01
788,64	1628,14
788,81	1617,90
788,99	1660,90
789,16	1628,14
789,34	1669,09
789,52	1665,00
789,69	1648,61
789,87	1603,56
790,04	1611,75
790,22	1748,97
790,39	1808,36
790,57	1669,09
790,74	1718,25
790,92	1738,73
791,09	1652,71
791,27	1648,61
791,44	1785,83
791,62	1687,53
791,79	1751,01
791,97	1738,73
792,15	1863,65
792,32	1662,95
792,50	1697,77
792,67	1826,79
792,85	1722,34
793,02	1736,68
793,20	1654,76
793,37	1650,66
793,55	1591,27
793,72	1671,14
793,90	1703,91
794,07	1677,29
794,25	1665,00
794,42	1718,25
794,60	1703,91
794,77	1714,15
794,95	1718,25
795,12	1816,55
795,30	1691,62
795,47	1595,37
795,65	1910,75
795,82	1759,21
796,00	1644,52
796,17	1667,05
796,34	1644,52
796,52	1765,35
796,69	1763,30
796,87	1755,11
797,04	1640,42
797,22	1714,15
797,39	1691,62
797,57	1697,77
797,74	1746,92
797,92	1679,33
798,09	1638,38
798,27	1710,05
798,44	1746,92
798,62	1728,49
798,79	1714,15
798,96	1734,63
799,14	1732,58
799,31	1877,99
799,49	1593,32
799,66	1744,87
799,84	1742,82
800,01	1701,86
800,19	1730,53
800,36	1658,85
800,53	1732,58
800,71	1734,63
800,88	1765,35
801,06	1736,68
801,23	1734,63
801,41	1722,34
801,58	1589,22
801,75	1632,23
801,93	1701,86
802,10	1695,72
802,28	1708,01
802,45	1644,52
802,63	1740,77
802,80	1757,16
802,97	1695,72
803,15	1730,53
803,32	1642,47
803,50	1693,67
803,67	1652,71
803,84	1636,33
804,02	1718,25
804,19	1703,91
804,37	1576,94
804,54	1669,09
804,71	1681,38
804,89	1669,09
805,06	1628,14
805,24	1701,86
805,41	1624,04
805,58	1634,28
805,76	1875,94
805,93	1679,33
806,10	1710,05
806,28	1779,68
806,45	1693,67
806,63	1726,44
806,80	1777,64
806,97	1748,97
807,15	1703,91
807,32	1677,29
807,49	1761,25
807,67	1648,61
807,84	1757,16
808,01	1640,42
808,19	1810,40
808,36	1869,80
808,54	1681,38
808,71	1628,14
808,88	1714,15
809,06	1812,45
809,23	1769,44
809,40	1669,09
809,58	1779,68
809,75	1701,86
809,92	1699,81
810,10	1861,60
810,27	1746,92
810,44	1675,24
810,62	1800,16
810,79	1652,71
810,96	1632,23
811,14	1742,82
811,31	1794,02
811,48	1667,05
811,66	1665,00
811,83	1783,78
812,00	1685,48
812,18	1775,59
812,35	1845,22
812,52	1697,77
812,69	1734,63
812,87	1636,33
813,04	1675,24
813,21	1689,57
813,39	1648,61
813,56	1609,70
813,73	1740,77
813,91	1597,42
814,08	1746,92
814,25	1712,10
814,42	1587,18
814,60	1677,29
814,77	1675,24
814,94	1753,06
815,12	1671,14
815,29	1796,07
815,46	1675,24
815,63	1650,66
815,81	1759,21
815,98	1669,09
816,15	1703,91
816,33	1773,54
816,50	1679,33
816,67	1658,85
816,84	1685,48
817,02	1640,42
817,19	1673,19
817,36	1765,35
817,53	1734,63
817,71	1640,42
817,88	1761,25
818,05	1746,92
818,22	1683,43
818,40	1822,69
818,57	1771,49
818,74	1769,44
818,91	1681,38
819,09	1771,49
819,26	1734,63
819,43	1677,29
819,60	1669,09
819,78	1642,47
819,95	1753,06
820,12	1705,96
820,29	1822,69
820,47	1687,53
820,64	1662,95
820,81	1599,46
820,98	1669,09
821,15	1650,66
821,33	1742,82
821,50	1669,09
821,67	1681,38
821,84	1675,24
822,02	1759,21
822,19	1757,16
822,36	1636,33
822,53	1578,98
822,70	1603,56
822,88	1757,16
823,05	1771,49
823,22	1722,34
823,39	1722,34
823,56	1693,67
823,74	1796,07
823,91	1693,67
824,08	1656,81
824,25	1679,33
824,42	1783,78
824,60	1601,51
824,77	1656,81
824,94	1671,14
825,11	1783,78
825,28	1660,90
825,45	1693,67
825,63	1738,73
825,80	1693,67
825,97	1683,43
826,14	1755,11
826,31	1656,81
826,48	1753,06
826,66	1716,20
826,83	1665,00
827,00	1748,97
827,17	1689,57
827,34	1714,15
827,51	1751,01
827,69	1777,64
827,86	1601,51
828,03	1701,86
828,20	1644,52
828,37	1660,90
828,54	1681,38
828,71	1599,46
828,89	1796,07
829,06	1761,25
829,23	1763,30
829,40	1660,90
829,57	1613,80
829,74	1818,60
829,91	1695,72
830,09	1685,48
830,26	1701,86
830,43	1734,63
830,60	1615,85
830,77	1714,15
830,94	1738,73
831,11	1673,19
831,28	1740,77
831,46	1763,30
831,63	1677,29
831,80	1783,78
831,97	1724,39
832,14	1605,61
832,31	1757,16
832,48	1728,49
832,65	1791,97
832,82	1687,53
832,99	1742,82
833,17	1636,33
833,34	1697,77
833,51	1621,99
833,68	1660,90
833,85	1796,07
834,02	1644,52
834,19	1667,05
834,36	1722,34
834,53	1626,09
834,70	1722,34
834,87	1802,21
835,04	1673,19
835,22	1671,14
835,39	1695,72
835,56	1687,53
835,73	1669,09
835,90	1693,67
836,07	1644,52
836,24	1673,19
836,41	1695,72
836,58	1665,00
836,75	1701,86
836,92	1697,77
837,09	1718,25
837,26	1628,14
837,43	1746,92
837,60	1730,53
837,77	1681,38
837,94	1736,68
838,12	1744,87
838,29	1718,25
838,46	1640,42
838,63	1630,18
838,80	1791,97
838,97	1716,20
839,14	1761,25
839,31	1755,11
839,48	1765,35
839,65	1681,38
839,82	1734,63
839,99	1714,15
840,16	1769,44
840,33	1662,95
840,50	1775,59
840,67	1722,34
840,84	1568,74
841,01	1716,20
841,18	1685,48
841,35	1761,25
841,52	1740,77
841,69	1810,40
841,86	1636,33
842,03	1705,96
842,20	1740,77
842,37	1738,73
842,54	1787,88
842,71	1699,81
842,88	1607,66
843,05	1769,44
843,22	1693,67
843,39	1742,82
843,56	1732,58
843,73	1695,72
843,90	1681,38
844,07	1755,11
844,24	1689,57
844,41	1759,21
844,58	1730,53
844,75	1746,92
844,92	1658,85
845,09	1685,48
845,26	1720,29
845,43	1667,05
845,60	1660,90
845,77	1701,86
845,94	1683,43
846,10	1755,11
846,27	1681,38
846,44	1691,62
846,61	1673,19
846,78	1681,38
846,95	1708,01
847,12	1667,05
847,29	1675,24
847,46	1617,90
847,63	1763,30
847,80	1681,38
847,97	1751,01
848,14	1839,08
848,31	1681,38
848,48	1677,29
848,65	1732,58
848,82	1656,81
848,98	1867,75
849,15	1730,53
849,32	1783,78
849,49	1767,40
849,66	1701,86
849,83	1671,14
850,00	1634,28
850,17	1748,97
850,34	1665,00
850,51	1724,39
850,68	1693,67
850,85	1839,08
851,01	1738,73
851,18	1695,72
851,35	1644,52
851,52	1705,96
851,69	1789,92
851,86	1574,89
852,03	1669,09
852,20	1767,40
852,37	1658,85
852,53	1617,90
852,70	1714,15
852,87	1716,20
853,04	1783,78
853,21	1708,01
853,38	1691,62
853,55	1701,86
853,72	1794,02
853,89	1691,62
854,05	1626,09
854,22	1656,81
854,39	1746,92
854,56	1720,29
854,73	1828,84
854,90	1628,14
855,07	1640,42
855,23	1703,91
855,40	1703,91
855,57	1755,11
855,74	1662,95
855,91	1851,36
856,08	1599,46
856,25	1738,73
856,41	1599,46
856,58	1689,57
856,75	1775,59
856,92	1667,05
857,09	1726,44
857,26	1695,72
857,42	1665,00
857,59	1722,34
857,76	1693,67
857,93	1751,01
858,10	1730,53
858,27	1548,26
858,43	1722,34
858,60	1636,33
858,77	1710,05
858,94	1718,25
859,11	1730,53
859,27	1730,53
859,44	1687,53
859,61	1771,49
859,78	1781,73
859,95	1626,09
860,12	1695,72
860,28	1871,84
860,45	1847,27
860,62	1671,14
860,79	1710,05
860,95	1699,81
861,12	1548,26
861,29	1705,96
861,46	1630,18
861,63	1675,24
861,79	1761,25
861,96	1673,19
862,13	1652,71
862,30	1781,73
862,47	1691,62
862,63	1648,61
862,80	1693,67
862,97	1781,73
863,14	1697,77
863,30	1724,39
863,47	1691,62
863,64	1767,40
863,81	1681,38
863,97	1671,14
864,14	1724,39
864,31	1730,53
864,48	1761,25
864,65	1718,25
864,81	1830,88
864,98	1628,14
865,15	1785,83
865,32	1800,16
865,48	1779,68
865,65	1777,64
865,82	1675,24
865,98	1744,87
866,15	1691,62
866,32	1685,48
866,49	1728,49
866,65	1789,92
866,82	1646,57
866,99	1681,38
867,16	1640,42
867,32	1630,18
867,49	1720,29
867,66	1722,34
867,83	1718,25
867,99	1628,14
868,16	1738,73
868,33	1656,81
868,49	1724,39
868,66	1640,42
868,83	1804,26
868,99	1763,30
869,16	1744,87
869,33	1744,87
869,50	1808,36
869,66	1652,71
869,83	1734,63
870,00	1675,24
870,16	1703,91
870,33	1693,67
870,50	1775,59
870,66	1628,14
870,83	1800,16
871,00	1734,63
871,17	1771,49
871,33	1732,58
871,50	1652,71
871,67	1712,10
871,83	1574,89
872,00	1902,56
872,17	1691,62
872,33	1806,31
872,50	1748,97
872,67	1701,86
872,83	1603,56
873,00	1697,77
873,17	1646,57
873,33	1794,02
873,50	1697,77
873,67	1669,09
873,83	1656,81
874,00	1691,62
874,16	1753,06
874,33	1781,73
874,50	1679,33
874,66	1755,11
874,83	1724,39
875,00	1783,78
875,16	1751,01
875,33	1763,30
875,50	1566,70
875,66	1636,33
875,83	1685,48
875,99	1742,82
876,16	1724,39
876,33	1654,76
876,49	1710,05
876,66	1767,40
876,83	1716,20
876,99	1689,57
877,16	1720,29
877,32	1734,63
877,49	1722,34
877,66	1660,90
877,82	1771,49
877,99	1726,44
878,15	1787,88
878,32	1771,49
878,49	1742,82
878,65	1652,71
878,82	1789,92
878,98	1615,85
879,15	1804,26
879,32	1742,82
879,48	1673,19
879,65	1671,14
879,81	1687,53
879,98	1720,29
880,15	1714,15
880,31	1708,01
880,48	1736,68
880,64	1730,53
880,81	1714,15
880,97	1863,65
881,14	1779,68
881,31	1660,90
881,47	1845,22
881,64	1630,18
881,80	1583,08
881,97	1624,04
882,13	1722,34
882,30	1685,48
882,47	1691,62
882,63	1689,57
882,80	1738,73
882,96	1710,05
883,13	1787,88
883,29	1705,96
883,46	1667,05
883,62	1808,36
883,79	1775,59
883,95	1697,77
884,12	1687,53
884,29	1773,54
884,45	1701,86
884,62	1708,01
884,78	1656,81
884,95	1755,11
885,11	1613,80
885,28	1675,24
885,44	1607,66
885,61	1714,15
885,77	1751,01
885,94	1695,72
886,10	1722,34
886,27	1714,15
886,43	1794,02
886,60	1763,30
886,76	1783,78
886,93	1671,14
887,09	1732,58
887,26	1611,75
887,42	1638,38
887,59	1816,55
887,75	1839,08
887,92	1771,49
888,08	1767,40
888,25	1714,15
888,41	1703,91
888,58	1685,48
888,74	1617,90
888,91	1685,48
>>>>>End Processed Spectral Data<<<<<
