SpectraSuite Data File
++++++++++++++++++++++++++++++++++++
Date: Mon Jun 06 14:24:17 CEST 2016
User: root
Dark Spectrum Present: No
Reference Spectrum Present: No
Number of Sampled Component Spectra: 1
Spectrometers: USB4C02835
Integration Time (usec): 100000 (USB4C02835)
Spectra Averaged: 1 (USB4C02835)
Boxcar Smoothing: 0 (USB4C02835)
Correct for Electrical Dark: No (USB4C02835)
Strobe/Lamp Enabled: No (USB4C02835)
Correct for Detector Non-linearity: No (USB4C02835)
Correct for Stray Light: No (USB4C02835)
Number of Pixels in Processed Spectrum: 3648
>>>>>Begin Processed Spectral Data<<<<<
177,47	1533,93
177,69	1533,93
177,91	1533,93
178,13	1501,16
178,36	1452,01
178,58	1685,48
178,80	1783,78
179,02	1630,18
179,24	1609,70
179,46	1660,90
179,68	1779,68
179,90	1710,05
180,13	1761,25
180,35	1687,53
180,57	1693,67
180,79	1777,64
181,01	1705,96
181,23	1714,15
181,45	1824,74
181,67	1740,77
181,90	1740,77
182,12	1669,09
182,34	1699,81
182,56	1724,39
182,78	1722,34
183,00	1652,71
183,22	1693,67
183,44	1576,94
183,66	1789,92
183,89	1853,41
184,11	1705,96
184,33	1800,16
184,55	1773,54
184,77	1677,29
184,99	1701,86
185,21	1712,10
185,43	1877,99
185,65	1617,90
185,87	1740,77
186,10	1798,12
186,32	1818,60
186,54	1667,05
186,76	1777,64
186,98	1669,09
187,20	1705,96
187,42	1708,01
187,64	1611,75
187,86	1744,87
188,08	1724,39
188,30	1689,57
188,52	1732,58
188,75	1763,30
188,97	1800,16
189,19	1708,01
189,41	1691,62
189,63	1730,53
189,85	1669,09
190,07	1687,53
190,29	1593,32
190,51	1665,00
190,73	1562,60
190,95	1757,16
191,17	1658,85
191,39	1591,27
191,61	1800,16
191,84	1665,00
192,06	1771,49
192,28	1642,47
192,50	1820,64
192,72	1769,44
192,94	1654,76
193,16	1759,21
193,38	1787,88
193,60	1632,23
193,82	1667,05
194,04	1728,49
194,26	1652,71
194,48	1779,68
194,70	1705,96
194,92	1628,14
195,14	1718,25
195,36	1642,47
195,58	1705,96
195,80	1695,72
196,02	1658,85
196,24	1621,99
196,46	1740,77
196,69	1697,77
196,91	1880,04
197,13	1724,39
197,35	1617,90
197,57	1771,49
197,79	1763,30
198,01	1753,06
198,23	1710,05
198,45	1665,00
198,67	1720,29
198,89	1652,71
199,11	1617,90
199,33	1650,66
199,55	1593,32
199,77	1712,10
199,99	1726,44
200,21	1697,77
200,43	1689,57
200,65	1650,66
200,87	1626,09
201,09	1710,05
201,31	1671,14
201,53	1759,21
201,75	1742,82
201,97	1767,40
202,19	1646,57
202,41	1675,24
202,63	1783,78
202,85	1662,95
203,07	1781,73
203,29	1687,53
203,51	1624,04
203,73	1732,58
203,95	1920,99
204,17	1716,20
204,39	1759,21
204,61	1689,57
204,83	1677,29
205,05	1656,81
205,27	1794,02
205,49	1769,44
205,71	1681,38
205,93	1673,19
206,15	1701,86
206,37	1675,24
206,59	1683,43
206,81	1652,71
207,03	1695,72
207,25	1636,33
207,47	1679,33
207,69	1693,67
207,91	1730,53
208,13	1746,92
208,34	1603,56
208,56	1648,61
208,78	1763,30
209,00	1736,68
209,22	1728,49
209,44	1726,44
209,66	1652,71
209,88	1648,61
210,10	1699,81
210,32	1726,44
210,54	1710,05
210,76	1742,82
210,98	1734,63
211,20	1583,08
211,42	1738,73
211,64	1830,88
211,86	1740,77
212,08	1697,77
212,30	1771,49
212,52	1685,48
212,74	1722,34
212,96	1724,39
213,17	1748,97
213,39	1724,39
213,61	1767,40
213,83	1628,14
214,05	1626,09
214,27	1687,53
214,49	1652,71
214,71	1757,16
214,93	1738,73
215,15	1746,92
215,37	1689,57
215,59	1576,94
215,81	1755,11
216,03	1730,53
216,24	1718,25
216,46	1673,19
216,68	1703,91
216,90	1755,11
217,12	1695,72
217,34	1687,53
217,56	1820,64
217,78	1789,92
218,00	1759,21
218,22	1714,15
218,44	1732,58
218,66	1660,90
218,87	1767,40
219,09	1621,99
219,31	1728,49
219,53	1609,70
219,75	1681,38
219,97	1685,48
220,19	1710,05
220,41	1742,82
220,63	1781,73
220,85	1665,00
221,06	1648,61
221,28	1810,40
221,50	1730,53
221,72	1660,90
221,94	1726,44
222,16	1673,19
222,38	1708,01
222,60	1691,62
222,82	1699,81
223,03	1759,21
223,25	1718,25
223,47	1730,53
223,69	1814,50
223,91	1728,49
224,13	1656,81
224,35	1703,91
224,57	1779,68
224,78	1755,11
225,00	1669,09
225,22	1710,05
225,44	1665,00
225,66	1789,92
225,88	1722,34
226,10	1746,92
226,32	1781,73
226,53	1882,08
226,75	1722,34
226,97	1675,24
227,19	1734,63
227,41	1634,28
227,63	1601,51
227,85	1607,66
228,06	1677,29
228,28	1662,95
228,50	1753,06
228,72	1583,08
228,94	1568,74
229,16	1591,27
229,37	1626,09
229,59	1679,33
229,81	1791,97
230,03	1748,97
230,25	1691,62
230,47	1634,28
230,69	1656,81
230,90	1695,72
231,12	1675,24
231,34	1675,24
231,56	1773,54
231,78	1673,19
232,00	1714,15
232,21	1644,52
232,43	1693,67
232,65	1624,04
232,87	1751,01
233,09	1658,85
233,30	1726,44
233,52	1783,78
233,74	1679,33
233,96	1687,53
234,18	1742,82
234,40	1679,33
234,61	1865,70
234,83	1660,90
235,05	1626,09
235,27	1791,97
235,49	1714,15
235,70	1691,62
235,92	1667,05
236,14	1685,48
236,36	1841,12
236,58	1634,28
236,79	1755,11
237,01	1759,21
237,23	1742,82
237,45	1814,50
237,67	1636,33
237,88	1736,68
238,10	1767,40
238,32	1634,28
238,54	1701,86
238,76	1738,73
238,97	1671,14
239,19	1628,14
239,41	1763,30
239,63	1736,68
239,85	1601,51
240,06	1685,48
240,28	1699,81
240,50	1685,48
240,72	1712,10
240,93	1712,10
241,15	1779,68
241,37	1695,72
241,59	1724,39
241,81	1714,15
242,02	1624,04
242,24	1665,00
242,46	1720,29
242,68	1642,47
242,89	1701,86
243,11	1763,30
243,33	1734,63
243,55	1691,62
243,76	1662,95
243,98	1712,10
244,20	1705,96
244,42	1767,40
244,64	1667,05
244,85	1708,01
245,07	1654,76
245,29	1701,86
245,51	1662,95
245,72	1755,11
245,94	1683,43
246,16	1673,19
246,38	1759,21
246,59	1763,30
246,81	1673,19
247,03	1703,91
247,24	1607,66
247,46	1644,52
247,68	1744,87
247,90	1667,05
248,11	1720,29
248,33	1710,05
248,55	1710,05
248,77	1665,00
248,98	1748,97
249,20	1783,78
249,42	1761,25
249,64	1738,73
249,85	1675,24
250,07	1691,62
250,29	1685,48
250,50	1701,86
250,72	1632,23
250,94	1787,88
251,16	1820,64
251,37	1837,03
251,59	1699,81
251,81	1748,97
252,02	1828,84
252,24	1628,14
252,46	1757,16
252,68	1650,66
252,89	1718,25
253,11	1662,95
253,33	1802,21
253,54	1804,26
253,76	1697,77
253,98	1611,75
254,20	1751,01
254,41	1679,33
254,63	1732,58
254,85	1695,72
255,06	1744,87
255,28	1751,01
255,50	1718,25
255,71	1693,67
255,93	1644,52
256,15	1673,19
256,36	1636,33
256,58	1746,92
256,80	1732,58
257,02	1681,38
257,23	1621,99
257,45	1632,23
257,67	1705,96
257,88	1652,71
258,10	1712,10
258,32	1677,29
258,53	1644,52
258,75	1775,59
258,97	1679,33
259,18	1695,72
259,40	1710,05
259,62	1755,11
259,83	1794,02
260,05	1826,79
260,27	1900,52
260,48	1746,92
260,70	1624,04
260,92	1734,63
261,13	1701,86
261,35	1765,35
261,57	1746,92
261,78	1640,42
262,00	1658,85
262,22	1740,77
262,43	1611,75
262,65	1669,09
262,86	1742,82
263,08	1791,97
263,30	1740,77
263,51	1648,61
263,73	1677,29
263,95	1810,40
264,16	1716,20
264,38	1630,18
264,60	1671,14
264,81	1701,86
265,03	1726,44
265,25	1714,15
265,46	1712,10
265,68	1781,73
265,89	1703,91
266,11	1568,74
266,33	1708,01
266,54	1710,05
266,76	1652,71
266,98	1738,73
267,19	1732,58
267,41	1781,73
267,62	1654,76
267,84	1656,81
268,06	1748,97
268,27	1671,14
268,49	1708,01
268,70	1822,69
268,92	1708,01
269,14	1636,33
269,35	1611,75
269,57	1759,21
269,79	1771,49
270,00	1652,71
270,22	1804,26
270,43	1656,81
270,65	1646,57
270,87	1687,53
271,08	1763,30
271,30	1703,91
271,51	1814,50
271,73	1691,62
271,95	1771,49
272,16	1767,40
272,38	1765,35
272,59	1669,09
272,81	1724,39
273,02	1710,05
273,24	1730,53
273,46	1728,49
273,67	1667,05
273,89	1583,08
274,10	1642,47
274,32	1771,49
274,54	1691,62
274,75	1730,53
274,97	1615,85
275,18	1716,20
275,40	1785,83
275,61	1720,29
275,83	1681,38
276,05	1583,08
276,26	1769,44
276,48	1710,05
276,69	1753,06
276,91	1626,09
277,12	1822,69
277,34	1683,43
277,55	1742,82
277,77	1748,97
277,99	1695,72
278,20	1660,90
278,42	1656,81
278,63	1701,86
278,85	1644,52
279,06	1624,04
279,28	1705,96
279,49	1703,91
279,71	1722,34
279,93	1730,53
280,14	1744,87
280,36	1624,04
280,57	1705,96
280,79	1806,31
281,00	1599,46
281,22	1687,53
281,43	1779,68
281,65	1652,71
281,86	1654,76
282,08	1646,57
282,29	1822,69
282,51	1722,34
282,73	1624,04
282,94	1599,46
283,16	1677,29
283,37	1677,29
283,59	1658,85
283,80	1730,53
284,02	1656,81
284,23	1761,25
284,45	1710,05
284,66	1630,18
284,88	1595,37
285,09	1695,72
285,31	1787,88
285,52	1710,05
285,74	1611,75
285,95	1787,88
286,17	1796,07
286,38	1753,06
286,60	1710,05
286,81	1728,49
287,03	1716,20
287,24	1722,34
287,46	1742,82
287,67	1701,86
287,89	1861,60
288,10	1699,81
288,32	1624,04
288,53	1791,97
288,75	1644,52
288,96	1638,38
289,18	1644,52
289,39	1744,87
289,61	1771,49
289,82	1810,40
290,04	1771,49
290,25	1665,00
290,47	1705,96
290,68	1599,46
290,90	1787,88
291,11	1574,89
291,33	1730,53
291,54	1585,13
291,76	1705,96
291,97	1701,86
292,18	1660,90
292,40	1646,57
292,61	1626,09
292,83	1812,45
293,04	1832,93
293,26	1800,16
293,47	1755,11
293,69	1648,61
293,90	1576,94
294,12	1789,92
294,33	1708,01
294,55	1701,86
294,76	1810,40
294,97	1777,64
295,19	1837,03
295,40	1671,14
295,62	1771,49
295,83	1759,21
296,05	1597,42
296,26	1722,34
296,48	1638,38
296,69	1693,67
296,90	1601,51
297,12	1730,53
297,33	1779,68
297,55	1705,96
297,76	1673,19
297,98	1775,59
298,19	1701,86
298,41	1691,62
298,62	1683,43
298,83	1855,46
299,05	1779,68
299,26	1587,18
299,48	1636,33
299,69	1677,29
299,90	1708,01
300,12	1673,19
300,33	1691,62
300,55	1642,47
300,76	1654,76
300,98	1636,33
301,19	1708,01
301,40	1652,71
301,62	1677,29
301,83	1679,33
302,05	1689,57
302,26	1693,67
302,47	1689,57
302,69	1587,18
302,90	1687,53
303,12	1646,57
303,33	1722,34
303,54	1775,59
303,76	1665,00
303,97	1681,38
304,19	1884,13
304,40	1710,05
304,61	1660,90
304,83	1759,21
305,04	1781,73
305,26	1714,15
305,47	1705,96
305,68	1759,21
305,90	1636,33
306,11	1804,26
306,33	1787,88
306,54	1714,15
306,75	1667,05
306,97	1593,32
307,18	1593,32
307,39	1669,09
307,61	1712,10
307,82	1695,72
308,04	1697,77
308,25	1708,01
308,46	1681,38
308,68	1697,77
308,89	1722,34
309,10	1812,45
309,32	1703,91
309,53	1753,06
309,74	1720,29
309,96	1626,09
310,17	1798,12
310,39	1669,09
310,60	1728,49
310,81	1757,16
311,03	1599,46
311,24	1796,07
311,45	1697,77
311,67	1880,04
311,88	1669,09
312,09	1687,53
312,31	1693,67
312,52	1724,39
312,73	1658,85
312,95	1667,05
313,16	1656,81
313,37	1701,86
313,59	1718,25
313,80	1777,64
314,01	1757,16
314,23	1681,38
314,44	1671,14
314,65	1611,75
314,87	1634,28
315,08	1675,24
315,29	1705,96
315,51	1599,46
315,72	1679,33
315,93	1847,27
316,15	1738,73
316,36	1669,09
316,57	1746,92
316,79	1748,97
317,00	1613,80
317,21	1728,49
317,43	1687,53
317,64	1765,35
317,85	1693,67
318,07	1609,70
318,28	1691,62
318,49	1765,35
318,70	1873,89
318,92	1789,92
319,13	1806,31
319,34	1908,71
319,56	1748,97
319,77	1765,35
319,98	1751,01
320,20	1789,92
320,41	1736,68
320,62	1734,63
320,83	1648,61
321,05	1806,31
321,26	1773,54
321,47	1650,66
321,69	1814,50
321,90	1624,04
322,11	1677,29
322,32	1679,33
322,54	1751,01
322,75	1708,01
322,96	1818,60
323,18	1673,19
323,39	1591,27
323,60	1738,73
323,81	1767,40
324,03	1550,31
324,24	1746,92
324,45	1720,29
324,66	1665,00
324,88	1734,63
325,09	1748,97
325,30	1681,38
325,52	1689,57
325,73	1646,57
325,94	1628,14
326,15	1601,51
326,37	1703,91
326,58	1697,77
326,79	1734,63
327,00	1601,51
327,22	1773,54
327,43	1642,47
327,64	1624,04
327,85	1689,57
328,07	1599,46
328,28	1851,36
328,49	1697,77
328,70	1638,38
328,92	1662,95
329,13	1648,61
329,34	1689,57
329,55	1771,49
329,76	1757,16
329,98	1593,32
330,19	1834,98
330,40	1712,10
330,61	1722,34
330,83	1699,81
331,04	1669,09
331,25	1730,53
331,46	1701,86
331,68	1624,04
331,89	1697,77
332,10	1722,34
332,31	1624,04
332,52	1720,29
332,74	1689,57
332,95	1660,90
333,16	1644,52
333,37	1802,21
333,58	1712,10
333,80	1708,01
334,01	1619,94
334,22	1716,20
334,43	1628,14
334,64	1607,66
334,86	1632,23
335,07	1658,85
335,28	1800,16
335,49	1638,38
335,70	1740,77
335,92	1816,55
336,13	1886,18
336,34	1697,77
336,55	1769,44
336,76	1759,21
336,98	1589,22
337,19	1714,15
337,40	1789,92
337,61	1773,54
337,82	1677,29
338,04	1800,16
338,25	1689,57
338,46	1648,61
338,67	1658,85
338,88	1628,14
339,09	1642,47
339,31	1718,25
339,52	1615,85
339,73	1570,79
339,94	1759,21
340,15	1798,12
340,36	1660,90
340,58	1734,63
340,79	1654,76
341,00	1683,43
341,21	1630,18
341,42	1794,02
341,63	1693,67
341,85	1789,92
342,06	1697,77
342,27	1656,81
342,48	1751,01
342,69	1708,01
342,90	1748,97
343,12	1781,73
343,33	1656,81
343,54	1695,72
343,75	1720,29
343,96	1660,90
344,17	1734,63
344,38	1687,53
344,60	1650,66
344,81	1669,09
345,02	1681,38
345,23	1759,21
345,44	1703,91
345,65	1742,82
345,86	1710,05
346,07	1697,77
346,29	1691,62
346,50	1697,77
346,71	1683,43
346,92	1751,01
347,13	1855,46
347,34	1683,43
347,55	1578,98
347,76	1716,20
347,98	1591,27
348,19	1642,47
348,40	1767,40
348,61	1609,70
348,82	1812,45
349,03	1742,82
349,24	1650,66
349,45	1826,79
349,66	1574,89
349,88	1701,86
350,09	1681,38
350,30	1697,77
350,51	1755,11
350,72	1699,81
350,93	1708,01
351,14	1621,99
351,35	1671,14
351,56	1687,53
351,77	1716,20
351,99	1740,77
352,20	1820,64
352,41	1720,29
352,62	1632,23
352,83	1665,00
353,04	1691,62
353,25	1720,29
353,46	1794,02
353,67	1808,36
353,88	1589,22
354,09	1773,54
354,30	1642,47
354,52	1710,05
354,73	1662,95
354,94	1728,49
355,15	1718,25
355,36	1761,25
355,57	1646,57
355,78	1726,44
355,99	1675,24
356,20	1746,92
356,41	1773,54
356,62	1712,10
356,83	1687,53
357,04	1779,68
357,25	1581,03
357,46	1740,77
357,68	1566,70
357,89	1673,19
358,10	1634,28
358,31	1716,20
358,52	1720,29
358,73	1601,51
358,94	1634,28
359,15	1693,67
359,36	1761,25
359,57	1716,20
359,78	1660,90
359,99	1730,53
360,20	1660,90
360,41	1718,25
360,62	1755,11
360,83	1699,81
361,04	1683,43
361,25	1761,25
361,46	1806,31
361,67	1773,54
361,88	1695,72
362,09	1751,01
362,30	1656,81
362,51	1705,96
362,72	1722,34
362,93	1839,08
363,14	1748,97
363,35	1687,53
363,56	1669,09
363,78	1796,07
363,99	1718,25
364,20	1611,75
364,41	1765,35
364,62	1798,12
364,83	1734,63
365,04	1730,53
365,25	1652,71
365,46	1759,21
365,67	1646,57
365,88	1605,61
366,09	1736,68
366,30	1689,57
366,51	1755,11
366,72	1683,43
366,93	1695,72
367,14	1738,73
367,35	1798,12
367,56	1656,81
367,77	1703,91
367,98	1652,71
368,18	1759,21
368,39	1748,97
368,60	1642,47
368,81	1787,88
369,02	1636,33
369,23	1734,63
369,44	1599,46
369,65	1603,56
369,86	1726,44
370,07	1759,21
370,28	1697,77
370,49	1718,25
370,70	1763,30
370,91	1634,28
371,12	1722,34
371,33	1839,08
371,54	1665,00
371,75	1783,78
371,96	1558,50
372,17	1671,14
372,38	1710,05
372,59	1763,30
372,80	1644,52
373,01	1665,00
373,22	1644,52
373,43	1736,68
373,64	1693,67
373,85	1781,73
374,06	1775,59
374,26	1687,53
374,47	1669,09
374,68	1765,35
374,89	1773,54
375,10	1701,86
375,31	1703,91
375,52	1705,96
375,73	1714,15
375,94	1624,04
376,15	1826,79
376,36	1718,25
376,57	1669,09
376,78	1673,19
376,99	1748,97
377,20	1744,87
377,40	1679,33
377,61	1812,45
377,82	1687,53
378,03	1779,68
378,24	1738,73
378,45	1658,85
378,66	1720,29
378,87	1632,23
379,08	1619,94
379,29	1677,29
379,50	1775,59
379,71	1693,67
379,91	1722,34
380,12	1781,73
380,33	1665,00
380,54	1716,20
380,75	1644,52
380,96	1677,29
381,17	1746,92
381,38	1658,85
381,59	1740,77
381,80	1734,63
382,00	1738,73
382,21	1781,73
382,42	1804,26
382,63	1896,42
382,84	1755,11
383,05	1712,10
383,26	1732,58
383,47	1734,63
383,68	1705,96
383,88	1753,06
384,09	1753,06
384,30	1834,98
384,51	1714,15
384,72	1755,11
384,93	1613,80
385,14	1716,20
385,35	1779,68
385,55	1638,38
385,76	1734,63
385,97	1695,72
386,18	1665,00
386,39	1675,24
386,60	1640,42
386,81	1648,61
387,02	1718,25
387,22	1648,61
387,43	1890,28
387,64	1777,64
387,85	1820,64
388,06	2217,95
388,27	4347,84
388,48	7028,63
388,68	8441,73
388,89	10026,86
389,10	10028,90
389,31	8808,31
389,52	7616,40
389,73	6860,70
389,93	6379,42
390,14	5881,77
390,35	5441,45
390,56	4695,99
390,77	3731,40
390,98	3084,24
391,18	2512,86
391,39	2115,55
391,60	1826,79
391,81	1894,37
392,02	1744,87
392,23	1910,75
392,43	1763,30
392,64	1720,29
392,85	1720,29
393,06	1828,84
393,27	1691,62
393,47	1703,91
393,68	1720,29
393,89	1722,34
394,10	1757,16
394,31	1708,01
394,52	1677,29
394,72	1681,38
394,93	1798,12
395,14	1703,91
395,35	1734,63
395,56	1660,90
395,76	1724,39
395,97	1753,06
396,18	1847,27
396,39	1810,40
396,60	2058,21
396,80	1929,19
397,01	1826,79
397,22	1761,25
397,43	1902,56
397,64	1767,40
397,84	1783,78
398,05	1849,32
398,26	1742,82
398,47	1769,44
398,67	1691,62
398,88	1681,38
399,09	1787,88
399,30	1732,58
399,51	1775,59
399,71	1640,42
399,92	1763,30
400,13	1744,87
400,34	1665,00
400,54	1689,57
400,75	1779,68
400,96	1742,82
401,17	1787,88
401,37	1714,15
401,58	1691,62
401,79	1701,86
402,00	1859,56
402,21	2013,15
402,41	1933,28
402,62	2002,91
402,83	1978,34
403,04	1949,67
403,24	2033,63
403,45	1859,56
403,66	1937,38
403,87	1914,85
404,07	1804,26
404,28	1912,80
404,49	1826,79
404,70	1812,45
404,90	1777,64
405,11	1736,68
405,32	1806,31
405,52	1644,52
405,73	1574,89
405,94	1626,09
406,15	1771,49
406,35	1761,25
406,56	1611,75
406,77	1697,77
406,98	1738,73
407,18	1689,57
407,39	1796,07
407,60	1675,24
407,80	1714,15
408,01	1718,25
408,22	1757,16
408,43	1638,38
408,63	1773,54
408,84	1779,68
409,05	1662,95
409,25	1648,61
409,46	1681,38
409,67	1646,57
409,88	1677,29
410,08	1705,96
410,29	1652,71
410,50	1796,07
410,70	1718,25
410,91	1601,51
411,12	1734,63
411,32	1722,34
411,53	1703,91
411,74	1791,97
411,95	1759,21
412,15	1761,25
412,36	1800,16
412,57	1712,10
412,77	1746,92
412,98	1746,92
413,19	1697,77
413,39	1730,53
413,60	1779,68
413,81	1781,73
414,01	1646,57
414,22	1697,77
414,43	1757,16
414,63	1650,66
414,84	1763,30
415,05	1720,29
415,25	1677,29
415,46	1759,21
415,67	1595,37
415,87	1697,77
416,08	1718,25
416,29	1722,34
416,49	1652,71
416,70	1675,24
416,91	1652,71
417,11	1748,97
417,32	1746,92
417,53	1773,54
417,73	1751,01
417,94	1681,38
418,15	1781,73
418,35	1699,81
418,56	1722,34
418,77	1796,07
418,97	1814,50
419,18	1693,67
419,38	1576,94
419,59	1746,92
419,80	1855,46
420,00	1669,09
420,21	1746,92
420,42	1757,16
420,62	1791,97
420,83	1671,14
421,04	1716,20
421,24	1714,15
421,45	1783,78
421,65	1769,44
421,86	1656,81
422,07	1796,07
422,27	1779,68
422,48	1669,09
422,69	1718,25
422,89	1796,07
423,10	1701,86
423,30	1701,86
423,51	1724,39
423,72	1767,40
423,92	1800,16
424,13	1679,33
424,33	1685,48
424,54	1734,63
424,75	1675,24
424,95	1832,93
425,16	1710,05
425,36	1648,61
425,57	1718,25
425,78	1722,34
425,98	1761,25
426,19	1605,61
426,39	1665,00
426,60	1687,53
426,81	1738,73
427,01	1734,63
427,22	1675,24
427,42	1581,03
427,63	1638,38
427,83	1763,30
428,04	1794,02
428,25	1814,50
428,45	1812,45
428,66	1769,44
428,86	1673,19
429,07	1689,57
429,28	1673,19
429,48	1730,53
429,69	1693,67
429,89	1615,85
430,10	1597,42
430,30	1738,73
430,51	1757,16
430,71	1708,01
430,92	1705,96
431,13	1669,09
431,33	1748,97
431,54	1744,87
431,74	1765,35
431,95	1834,98
432,15	1624,04
432,36	1738,73
432,56	1681,38
432,77	1775,59
432,98	1798,12
433,18	1740,77
433,39	1699,81
433,59	1681,38
433,80	1855,46
434,00	1804,26
434,21	1726,44
434,41	1656,81
434,62	1818,60
434,82	1648,61
435,03	1636,33
435,23	1685,48
435,44	1632,23
435,64	1660,90
435,85	1730,53
436,06	1673,19
436,26	1708,01
436,47	1751,01
436,67	1675,24
436,88	1746,92
437,08	1748,97
437,29	1796,07
437,49	1646,57
437,70	1744,87
437,90	1746,92
438,11	1812,45
438,31	1843,17
438,52	1841,12
438,72	1804,26
438,93	1880,04
439,13	1753,06
439,34	1845,22
439,54	1761,25
439,75	1755,11
439,95	1814,50
440,16	1746,92
440,36	1771,49
440,57	1742,82
440,77	1751,01
440,98	1794,02
441,18	1751,01
441,39	1656,81
441,59	1689,57
441,80	1794,02
442,00	1755,11
442,21	1783,78
442,41	1630,18
442,62	1837,03
442,82	1648,61
443,02	1744,87
443,23	1724,39
443,43	1679,33
443,64	1783,78
443,84	1687,53
444,05	1804,26
444,25	1703,91
444,46	1705,96
444,66	1751,01
444,87	1816,55
445,07	1703,91
445,28	1814,50
445,48	1781,73
445,69	1787,88
445,89	1869,80
446,09	1759,21
446,30	1986,53
446,50	2705,37
446,71	3755,97
446,91	4425,66
447,12	4759,48
447,32	4951,99
447,53	4409,28
447,73	3805,13
447,93	3629,00
448,14	3344,33
448,34	3248,08
448,55	2897,88
448,75	2803,67
448,96	2795,48
449,16	2435,03
449,36	2330,59
449,57	2045,92
449,77	1984,48
449,98	1798,12
450,18	1855,46
450,39	1781,73
450,59	1791,97
450,79	1722,34
451,00	1699,81
451,20	1812,45
451,41	1726,44
451,61	1767,40
451,81	1699,81
452,02	1701,86
452,22	1673,19
452,43	1730,53
452,63	1681,38
452,84	1763,30
453,04	1734,63
453,24	1693,67
453,45	1722,34
453,65	1748,97
453,86	1705,96
454,06	1841,12
454,26	1669,09
454,47	1732,58
454,67	1781,73
454,87	1710,05
455,08	1652,71
455,28	1814,50
455,49	1724,39
455,69	1658,85
455,89	1777,64
456,10	1818,60
456,30	1708,01
456,51	1748,97
456,71	1751,01
456,91	1791,97
457,12	1785,83
457,32	1701,86
457,52	1699,81
457,73	1814,50
457,93	1822,69
458,14	1693,67
458,34	1613,80
458,54	1697,77
458,75	1728,49
458,95	1697,77
459,15	1722,34
459,36	1757,16
459,56	1796,07
459,76	1871,84
459,97	1742,82
460,17	1734,63
460,37	1796,07
460,58	1714,15
460,78	1755,11
460,99	1675,24
461,19	1720,29
461,39	1705,96
461,60	1701,86
461,80	1777,64
462,00	1687,53
462,21	1685,48
462,41	1722,34
462,61	1617,90
462,82	1642,47
463,02	1763,30
463,22	1671,14
463,43	1791,97
463,63	1810,40
463,83	1771,49
464,04	1800,16
464,24	1767,40
464,44	1687,53
464,64	1724,39
464,85	1720,29
465,05	1755,11
465,25	1742,82
465,46	1771,49
465,66	1785,83
465,86	1812,45
466,07	1742,82
466,27	1722,34
466,47	1673,19
466,68	1673,19
466,88	1824,74
467,08	1746,92
467,29	1699,81
467,49	1771,49
467,69	1722,34
467,89	1767,40
468,10	1712,10
468,30	1732,58
468,50	1816,55
468,71	1738,73
468,91	1607,66
469,11	1839,08
469,31	1791,97
469,52	1656,81
469,72	1837,03
469,92	1822,69
470,13	1736,68
470,33	1765,35
470,53	1800,16
470,73	2045,92
470,94	2293,72
471,14	2340,83
471,34	2553,82
471,54	2430,94
471,75	2334,68
471,95	2166,75
472,15	2054,11
472,36	2029,54
472,56	2041,82
472,76	2074,59
472,96	1986,53
473,17	2047,97
473,37	1880,04
473,57	1767,40
473,77	1746,92
473,98	1708,01
474,18	1675,24
474,38	1918,95
474,58	1740,77
474,79	1689,57
474,99	1726,44
475,19	1701,86
475,39	1751,01
475,60	1839,08
475,80	1699,81
476,00	1689,57
476,20	1734,63
476,41	1783,78
476,61	1794,02
476,81	1820,64
477,01	1708,01
477,21	1824,74
477,42	1699,81
477,62	1773,54
477,82	1775,59
478,02	1685,48
478,23	1705,96
478,43	1679,33
478,63	1791,97
478,83	1714,15
479,03	1660,90
479,24	1843,17
479,44	1820,64
479,64	1744,87
479,84	1589,22
480,04	1738,73
480,25	1773,54
480,45	1621,99
480,65	1642,47
480,85	1767,40
481,06	1812,45
481,26	1697,77
481,46	1771,49
481,66	1693,67
481,86	1673,19
482,06	1785,83
482,27	1736,68
482,47	1687,53
482,67	1726,44
482,87	1716,20
483,07	1746,92
483,28	1718,25
483,48	1568,74
483,68	1759,21
483,88	1576,94
484,08	1609,70
484,29	1669,09
484,49	1665,00
484,69	1697,77
484,89	1861,60
485,09	1759,21
485,29	1787,88
485,50	1755,11
485,70	1701,86
485,90	1857,51
486,10	1738,73
486,30	1746,92
486,50	1787,88
486,71	1755,11
486,91	1712,10
487,11	1738,73
487,31	1648,61
487,51	1763,30
487,71	1652,71
487,91	1642,47
488,12	1650,66
488,32	1560,55
488,52	1734,63
488,72	1570,79
488,92	1755,11
489,12	1763,30
489,32	1779,68
489,53	1800,16
489,73	1720,29
489,93	1787,88
490,13	1667,05
490,33	1652,71
490,53	1730,53
490,73	1771,49
490,94	1662,95
491,14	1796,07
491,34	1810,40
491,54	2117,60
491,74	2590,68
491,94	2885,59
492,14	3084,24
492,34	3002,32
492,54	2838,48
492,75	2478,04
492,95	2516,95
493,15	2254,81
493,35	2244,57
493,55	2238,43
493,75	2160,61
493,95	2099,17
494,15	2070,50
494,35	1861,60
494,56	1787,88
494,76	1746,92
494,96	1775,59
495,16	1800,16
495,36	1738,73
495,56	1755,11
495,76	1746,92
495,96	1746,92
496,16	1667,05
496,36	1718,25
496,56	1691,62
496,77	1751,01
496,97	1771,49
497,17	1734,63
497,37	1697,77
497,57	1681,38
497,77	1708,01
497,97	1746,92
498,17	1712,10
498,37	1818,60
498,57	1767,40
498,77	1693,67
498,97	1722,34
499,17	1851,36
499,38	1718,25
499,58	1744,87
499,78	1736,68
499,98	1742,82
500,18	1734,63
500,38	1703,91
500,58	1908,71
500,78	2555,86
500,98	4657,08
501,18	5924,77
501,38	7051,16
501,58	7126,93
501,78	6711,19
501,98	5672,87
502,18	5070,77
502,38	4503,48
502,58	4186,05
502,78	3872,71
502,98	3768,26
503,18	3526,60
503,38	3313,61
503,59	2953,17
503,79	2650,07
503,99	2504,67
504,19	2373,60
504,39	2172,89
504,59	2168,80
504,79	2136,03
504,99	2070,50
505,19	1970,15
505,39	1894,37
505,59	1998,82
505,79	1914,85
505,99	1837,03
506,19	1771,49
506,39	1927,14
506,59	1675,24
506,79	1798,12
506,99	1802,21
507,19	1791,97
507,39	1724,39
507,59	1681,38
507,79	1636,33
507,99	1736,68
508,19	1722,34
508,39	1705,96
508,59	1734,63
508,79	1736,68
508,99	1806,31
509,19	1605,61
509,39	1765,35
509,59	1683,43
509,79	1693,67
509,99	1771,49
510,19	1787,88
510,39	1769,44
510,59	1744,87
510,79	1787,88
510,99	1658,85
511,19	1751,01
511,39	1824,74
511,59	1785,83
511,79	1804,26
511,99	1644,52
512,19	1785,83
512,38	1759,21
512,58	1701,86
512,78	1712,10
512,98	1689,57
513,18	1855,46
513,38	1601,51
513,58	1783,78
513,78	1712,10
513,98	1769,44
514,18	1771,49
514,38	1759,21
514,58	1730,53
514,78	1640,42
514,98	1708,01
515,18	1681,38
515,38	1646,57
515,58	1857,51
515,78	1697,77
515,98	1689,57
516,18	1763,30
516,38	1685,48
516,57	1734,63
516,77	1757,16
516,97	1755,11
517,17	1710,05
517,37	1648,61
517,57	1828,84
517,77	1638,38
517,97	1742,82
518,17	1834,98
518,37	1726,44
518,57	1621,99
518,77	1722,34
518,97	1724,39
519,16	1742,82
519,36	1843,17
519,56	1753,06
519,76	1701,86
519,96	1683,43
520,16	1800,16
520,36	1658,85
520,56	1767,40
520,76	1595,37
520,96	1662,95
521,16	1800,16
521,35	1798,12
521,55	1789,92
521,75	1718,25
521,95	1697,77
522,15	1746,92
522,35	1648,61
522,55	1665,00
522,75	1785,83
522,95	1730,53
523,14	1634,28
523,34	1755,11
523,54	1669,09
523,74	1761,25
523,94	1787,88
524,14	1640,42
524,34	1740,77
524,54	1804,26
524,73	1767,40
524,93	1689,57
525,13	1775,59
525,33	1701,86
525,53	1873,89
525,73	1796,07
525,93	1722,34
526,13	1732,58
526,32	1726,44
526,52	1863,65
526,72	1789,92
526,92	1701,86
527,12	1763,30
527,32	1634,28
527,52	1755,11
527,71	1722,34
527,91	1720,29
528,11	1662,95
528,31	1718,25
528,51	1675,24
528,71	1761,25
528,90	1769,44
529,10	1832,93
529,30	1839,08
529,50	1705,96
529,70	1683,43
529,90	1724,39
530,09	1703,91
530,29	1646,57
530,49	1726,44
530,69	1927,14
530,89	1757,16
531,09	1677,29
531,28	1716,20
531,48	1730,53
531,68	1732,58
531,88	1761,25
532,08	1826,79
532,28	1669,09
532,47	1736,68
532,67	1763,30
532,87	1708,01
533,07	1703,91
533,27	1791,97
533,46	1693,67
533,66	1761,25
533,86	1740,77
534,06	1808,36
534,26	1736,68
534,45	1738,73
534,65	1767,40
534,85	1798,12
535,05	1691,62
535,25	1771,49
535,44	1660,90
535,64	1738,73
535,84	1757,16
536,04	1720,29
536,24	1718,25
536,43	1699,81
536,63	1699,81
536,83	1734,63
537,03	1736,68
537,22	1642,47
537,42	1660,90
537,62	1771,49
537,82	1685,48
538,02	1783,78
538,21	1812,45
538,41	1914,85
538,61	1763,30
538,81	1654,76
539,00	1806,31
539,20	1632,23
539,40	1685,48
539,60	1732,58
539,79	1714,15
539,99	1769,44
540,19	1677,29
540,39	1753,06
540,58	1738,73
540,78	1826,79
540,98	1724,39
541,18	1808,36
541,37	1787,88
541,57	1701,86
541,77	1761,25
541,97	1626,09
542,16	1595,37
542,36	1722,34
542,56	1820,64
542,76	1869,80
542,95	1783,78
543,15	1755,11
543,35	1716,20
543,54	1675,24
543,74	1689,57
543,94	1812,45
544,14	1689,57
544,33	1738,73
544,53	1683,43
544,73	1701,86
544,93	1681,38
545,12	1665,00
545,32	1689,57
545,52	1660,90
545,71	1722,34
545,91	1630,18
546,11	1699,81
546,30	1703,91
546,50	1759,21
546,70	1726,44
546,90	1769,44
547,09	1640,42
547,29	1767,40
547,49	1806,31
547,68	1734,63
547,88	1703,91
548,08	1693,67
548,27	2207,71
548,47	1658,85
548,67	1748,97
548,87	1822,69
549,06	1697,77
549,26	1621,99
549,46	1794,02
549,65	1761,25
549,85	1697,77
550,05	1753,06
550,24	1665,00
550,44	1763,30
550,64	1781,73
550,83	1644,52
551,03	1837,03
551,23	1804,26
551,42	1728,49
551,62	1656,81
551,82	1708,01
552,01	1746,92
552,21	1791,97
552,41	1691,62
552,60	1746,92
552,80	1763,30
553,00	1677,29
553,19	1734,63
553,39	1886,18
553,59	1648,61
553,78	1777,64
553,98	1730,53
554,17	1619,94
554,37	1716,20
554,57	1748,97
554,76	1619,94
554,96	1691,62
555,16	1783,78
555,35	1744,87
555,55	1798,12
555,75	1765,35
555,94	1738,73
556,14	1705,96
556,33	1751,01
556,53	1761,25
556,73	1800,16
556,92	1767,40
557,12	1849,32
557,32	1863,65
557,51	1896,42
557,71	1755,11
557,90	1839,08
558,10	1783,78
558,30	1728,49
558,49	1759,21
558,69	1695,72
558,88	1804,26
559,08	1740,77
559,28	1759,21
559,47	1763,30
559,67	1740,77
559,86	1834,98
560,06	1736,68
560,26	1738,73
560,45	1755,11
560,65	1689,57
560,84	1861,60
561,04	1667,05
561,24	1791,97
561,43	1746,92
561,63	1802,21
561,82	1759,21
562,02	1738,73
562,22	1697,77
562,41	1716,20
562,61	1658,85
562,80	1654,76
563,00	1896,42
563,19	1726,44
563,39	1769,44
563,59	1777,64
563,78	1722,34
563,98	1648,61
564,17	1705,96
564,37	1589,22
564,56	1697,77
564,76	1638,38
564,96	1849,32
565,15	1771,49
565,35	1861,60
565,54	1699,81
565,74	1757,16
565,93	1732,58
566,13	1703,91
566,32	1738,73
566,52	1744,87
566,71	1771,49
566,91	1755,11
567,11	1738,73
567,30	1697,77
567,50	1824,74
567,69	1722,34
567,89	1697,77
568,08	1673,19
568,28	1837,03
568,47	1662,95
568,67	1740,77
568,86	1726,44
569,06	1775,59
569,25	1695,72
569,45	1705,96
569,64	1697,77
569,84	1662,95
570,04	1812,45
570,23	1626,09
570,43	1695,72
570,62	1837,03
570,82	1861,60
571,01	1675,24
571,21	1681,38
571,40	1716,20
571,60	1718,25
571,79	1783,78
571,99	1730,53
572,18	1673,19
572,38	1871,84
572,57	1746,92
572,77	1828,84
572,96	1869,80
573,16	1742,82
573,35	1687,53
573,55	1789,92
573,74	1773,54
573,94	1746,92
574,13	1783,78
574,33	1771,49
574,52	1877,99
574,71	1730,53
574,91	1746,92
575,10	1685,48
575,30	1763,30
575,49	1685,48
575,69	1671,14
575,88	1705,96
576,08	1685,48
576,27	1748,97
576,47	1724,39
576,66	1837,03
576,86	1802,21
577,05	1761,25
577,25	1796,07
577,44	1853,41
577,64	1710,05
577,83	1830,88
578,02	1744,87
578,22	1781,73
578,41	1837,03
578,61	1716,20
578,80	1662,95
579,00	1765,35
579,19	1751,01
579,39	1798,12
579,58	1837,03
579,77	1773,54
579,97	1796,07
580,16	1738,73
580,36	1808,36
580,55	1822,69
580,75	1775,59
580,94	1796,07
581,13	1832,93
581,33	1816,55
581,52	1738,73
581,72	1890,28
581,91	1918,95
582,11	1716,20
582,30	1771,49
582,49	1722,34
582,69	1808,36
582,88	1769,44
583,08	1697,77
583,27	1849,32
583,47	1748,97
583,66	1710,05
583,85	1742,82
584,05	1755,11
584,24	1810,40
584,44	1763,30
584,63	1789,92
584,82	1851,36
585,02	1865,70
585,21	1837,03
585,41	1781,73
585,60	1812,45
585,79	1894,37
585,99	1871,84
586,18	1853,41
586,37	2195,42
586,57	3383,24
586,76	10041,19
586,96	25388,67
587,15	35528,16
587,34	41954,69
587,54	43414,89
587,73	37799,36
587,93	27317,86
588,12	22228,65
588,31	18640,61
588,51	16940,80
588,70	15824,65
588,89	14585,63
589,09	13008,70
589,28	11491,15
589,47	9695,08
589,67	8195,97
589,86	6477,73
590,06	5005,24
590,25	4024,26
590,44	3215,31
590,64	2645,98
590,83	2318,30
591,02	2099,17
591,22	2007,01
591,41	1904,61
591,60	1820,64
591,80	1896,42
591,99	1730,53
592,18	1777,64
592,38	1804,26
592,57	1708,01
592,76	1781,73
592,96	1765,35
593,15	1724,39
593,34	1814,50
593,54	1767,40
593,73	1783,78
593,92	1771,49
594,12	1767,40
594,31	1794,02
594,50	1693,67
594,70	1753,06
594,89	1847,27
595,08	1638,38
595,28	1806,31
595,47	1837,03
595,66	1783,78
595,86	1646,57
596,05	1746,92
596,24	1675,24
596,43	1767,40
596,63	1839,08
596,82	1814,50
597,01	1761,25
597,21	1845,22
597,40	1804,26
597,59	1767,40
597,79	1712,10
597,98	1722,34
598,17	1742,82
598,36	1728,49
598,56	1818,60
598,75	1828,84
598,94	1683,43
599,14	1742,82
599,33	1642,47
599,52	1738,73
599,71	1761,25
599,91	1796,07
600,10	1800,16
600,29	1783,78
600,48	1789,92
600,68	1740,77
600,87	1845,22
601,06	1712,10
601,26	1791,97
601,45	1804,26
601,64	1724,39
601,83	1839,08
602,03	1677,29
602,22	1697,77
602,41	1812,45
602,60	1884,13
602,80	1734,63
602,99	1748,97
603,18	1673,19
603,37	1765,35
603,57	1695,72
603,76	1810,40
603,95	1789,92
604,14	1751,01
604,34	1677,29
604,53	1701,86
604,72	1755,11
604,91	1765,35
605,10	1724,39
605,30	1632,23
605,49	1857,51
605,68	1689,57
605,87	1810,40
606,07	1718,25
606,26	1787,88
606,45	1689,57
606,64	1738,73
606,84	1722,34
607,03	1755,11
607,22	1798,12
607,41	1738,73
607,60	1734,63
607,80	1826,79
607,99	1710,05
608,18	1806,31
608,37	1732,58
608,56	1734,63
608,76	1746,92
608,95	1830,88
609,14	1746,92
609,33	1828,84
609,52	1806,31
609,72	1724,39
609,91	1746,92
610,10	1785,83
610,29	1755,11
610,48	1779,68
610,68	1769,44
610,87	1712,10
611,06	1699,81
611,25	1742,82
611,44	1796,07
611,63	1759,21
611,83	1751,01
612,02	1605,61
612,21	1796,07
612,40	1699,81
612,59	1667,05
612,79	1636,33
612,98	1740,77
613,17	1806,31
613,36	1673,19
613,55	1732,58
613,74	1710,05
613,93	1705,96
614,13	1779,68
614,32	1673,19
614,51	1798,12
614,70	1634,28
614,89	1699,81
615,08	1798,12
615,28	2058,21
615,47	1687,53
615,66	1693,67
615,85	1730,53
616,04	1791,97
616,23	1740,77
616,42	1665,00
616,62	1761,25
616,81	1763,30
617,00	1775,59
617,19	1796,07
617,38	1710,05
617,57	1705,96
617,76	1853,41
617,95	1742,82
618,15	1695,72
618,34	1769,44
618,53	1728,49
618,72	1800,16
618,91	1806,31
619,10	1828,84
619,29	1716,20
619,48	1669,09
619,68	1679,33
619,87	1738,73
620,06	1640,42
620,25	1718,25
620,44	1751,01
620,63	1677,29
620,82	1701,86
621,01	1685,48
621,20	1724,39
621,39	1804,26
621,59	1703,91
621,78	1789,92
621,97	1632,23
622,16	1652,71
622,35	1736,68
622,54	1775,59
622,73	1802,21
622,92	1648,61
623,11	1755,11
623,30	1742,82
623,49	1753,06
623,68	1665,00
623,88	1812,45
624,07	1705,96
624,26	1665,00
624,45	1712,10
624,64	1687,53
624,83	1730,53
625,02	1683,43
625,21	1767,40
625,40	1642,47
625,59	1853,41
625,78	1734,63
625,97	1818,60
626,16	1777,64
626,35	1787,88
626,54	1703,91
626,74	1861,60
626,93	1781,73
627,12	1673,19
627,31	1718,25
627,50	1726,44
627,69	1837,03
627,88	1689,57
628,07	1705,96
628,26	1597,42
628,45	1716,20
628,64	1640,42
628,83	1771,49
629,02	1601,51
629,21	1710,05
629,40	1759,21
629,59	1634,28
629,78	1740,77
629,97	1767,40
630,16	1724,39
630,35	1740,77
630,54	1650,66
630,73	1693,67
630,92	1714,15
631,11	1640,42
631,30	1791,97
631,49	1751,01
631,68	1665,00
631,87	1716,20
632,06	1648,61
632,25	1880,04
632,44	1689,57
632,63	1716,20
632,82	1630,18
633,01	1693,67
633,20	1701,86
633,39	1646,57
633,58	1552,36
633,77	1673,19
633,96	1742,82
634,15	1718,25
634,34	1751,01
634,53	1658,85
634,72	1728,49
634,91	1658,85
635,10	1789,92
635,29	1787,88
635,48	1732,58
635,67	1720,29
635,86	1619,94
636,05	1820,64
636,24	1714,15
636,43	1785,83
636,62	1722,34
636,81	1646,57
637,00	1744,87
637,19	1828,84
637,38	1712,10
637,57	1681,38
637,76	1693,67
637,95	1761,25
638,14	1593,32
638,33	1683,43
638,52	1634,28
638,71	1699,81
638,89	1722,34
639,08	1841,12
639,27	1789,92
639,46	1714,15
639,65	1802,21
639,84	1703,91
640,03	1806,31
640,22	1728,49
640,41	1828,84
640,60	1708,01
640,79	1718,25
640,98	1746,92
641,17	1662,95
641,36	1734,63
641,55	1695,72
641,74	1703,91
641,92	1662,95
642,11	1708,01
642,30	1714,15
642,49	1626,09
642,68	1708,01
642,87	1767,40
643,06	1732,58
643,25	1656,81
643,44	1687,53
643,63	1632,23
643,82	1748,97
644,00	1708,01
644,19	1712,10
644,38	1701,86
644,57	1652,71
644,76	1722,34
644,95	1738,73
645,14	1734,63
645,33	1763,30
645,52	1675,24
645,71	1640,42
645,89	1607,66
646,08	1689,57
646,27	1671,14
646,46	1865,70
646,65	1601,51
646,84	1734,63
647,03	1642,47
647,22	1753,06
647,40	1755,11
647,59	1708,01
647,78	1617,90
647,97	1697,77
648,16	1712,10
648,35	1771,49
648,54	1738,73
648,73	1728,49
648,91	1777,64
649,10	1701,86
649,29	1695,72
649,48	1726,44
649,67	1691,62
649,86	1730,53
650,05	1640,42
650,23	1787,88
650,42	1685,48
650,61	1812,45
650,80	1740,77
650,99	1837,03
651,18	1695,72
651,36	1730,53
651,55	1669,09
651,74	1777,64
651,93	1730,53
652,12	1705,96
652,31	1689,57
652,49	1615,85
652,68	1658,85
652,87	1785,83
653,06	1681,38
653,25	1787,88
653,44	1617,90
653,62	1812,45
653,81	1662,95
654,00	1730,53
654,19	1839,08
654,38	1912,80
654,56	1818,60
654,75	1683,43
654,94	1708,01
655,13	1773,54
655,32	1667,05
655,51	1710,05
655,69	1662,95
655,88	1753,06
656,07	1597,42
656,26	1771,49
656,45	1640,42
656,63	1767,40
656,82	1691,62
657,01	1755,11
657,20	1716,20
657,38	1773,54
657,57	1703,91
657,76	1634,28
657,95	1789,92
658,14	1658,85
658,32	1724,39
658,51	1662,95
658,70	1748,97
658,89	1742,82
659,08	1705,96
659,26	1773,54
659,45	1675,24
659,64	1708,01
659,83	1566,70
660,01	1951,71
660,20	1671,14
660,39	1877,99
660,58	1558,50
660,76	1673,19
660,95	1683,43
661,14	1705,96
661,33	1656,81
661,51	1755,11
661,70	1675,24
661,89	1701,86
662,08	1767,40
662,26	1683,43
662,45	1650,66
662,64	1814,50
662,83	1732,58
663,01	1673,19
663,20	1685,48
663,39	1777,64
663,58	1687,53
663,76	1689,57
663,95	1771,49
664,14	1677,29
664,32	1667,05
664,51	1718,25
664,70	1632,23
664,89	1730,53
665,07	1662,95
665,26	1767,40
665,45	1628,14
665,64	1765,35
665,82	1755,11
666,01	1794,02
666,20	1701,86
666,38	1744,87
666,57	1869,80
666,76	2164,70
666,95	4587,45
667,13	10622,81
667,32	15589,14
667,51	18374,38
667,69	19711,70
667,88	18267,88
668,07	12656,45
668,25	9740,14
668,44	8304,51
668,63	7442,32
668,81	6881,18
669,00	6492,06
669,19	5900,20
669,38	5185,46
669,56	4595,64
669,75	3958,72
669,94	3467,21
670,12	2977,75
670,31	2590,68
670,50	2283,49
670,68	2045,92
670,87	1912,80
671,06	1779,68
671,24	1818,60
671,43	1824,74
671,62	1746,92
671,80	1660,90
671,99	1822,69
672,18	1761,25
672,36	1730,53
672,55	1671,14
672,74	1787,88
672,92	1742,82
673,11	1755,11
673,29	1677,29
673,48	1734,63
673,67	1703,91
673,85	1738,73
674,04	1673,19
674,23	1716,20
674,41	1804,26
674,60	1654,76
674,79	1665,00
674,97	1689,57
675,16	1779,68
675,34	1796,07
675,53	1687,53
675,72	1810,40
675,90	1777,64
676,09	1738,73
676,28	1783,78
676,46	1658,85
676,65	1800,16
676,83	1724,39
677,02	1669,09
677,21	1759,21
677,39	1767,40
677,58	1640,42
677,77	1697,77
677,95	1681,38
678,14	1681,38
678,32	1669,09
678,51	1665,00
678,70	1841,12
678,88	1695,72
679,07	1683,43
679,25	1710,05
679,44	1683,43
679,63	1611,75
679,81	1720,29
680,00	1806,31
680,18	1728,49
680,37	1714,15
680,55	1714,15
680,74	1669,09
680,93	1611,75
681,11	1705,96
681,30	1685,48
681,48	1726,44
681,67	1716,20
681,85	1755,11
682,04	1665,00
682,23	1718,25
682,41	1695,72
682,60	1695,72
682,78	1718,25
682,97	1669,09
683,15	1687,53
683,34	1703,91
683,53	1791,97
683,71	1609,70
683,90	1843,17
684,08	1804,26
684,27	1697,77
684,45	1691,62
684,64	1716,20
684,82	1751,01
685,01	1746,92
685,19	1712,10
685,38	1724,39
685,57	1720,29
685,75	1681,38
685,94	1624,04
686,12	1552,36
686,31	1722,34
686,49	1757,16
686,68	1589,22
686,86	1740,77
687,05	1705,96
687,23	1685,48
687,42	1662,95
687,60	1609,70
687,79	1779,68
687,97	1753,06
688,16	1775,59
688,34	1779,68
688,53	1593,32
688,71	1771,49
688,90	1730,53
689,08	1642,47
689,27	1619,94
689,45	1746,92
689,64	1677,29
689,82	1677,29
690,01	1671,14
690,19	1671,14
690,38	1732,58
690,56	1712,10
690,75	1683,43
690,93	1689,57
691,12	1669,09
691,30	1742,82
691,49	1689,57
691,67	1746,92
691,86	1863,65
692,04	1648,61
692,23	1636,33
692,41	1632,23
692,60	1685,48
692,78	1722,34
692,97	1738,73
693,15	1683,43
693,34	1853,41
693,52	1705,96
693,71	1660,90
693,89	1681,38
694,08	1652,71
694,26	1800,16
694,44	1816,55
694,63	1761,25
694,81	1699,81
695,00	1703,91
695,18	1689,57
695,37	1816,55
695,55	1730,53
695,74	1736,68
695,92	1658,85
696,10	1810,40
696,29	1726,44
696,47	1669,09
696,66	1648,61
696,84	1656,81
697,03	1701,86
697,21	1822,69
697,40	2320,35
697,58	1767,40
697,76	1748,97
697,95	1697,77
698,13	1548,26
698,32	1656,81
698,50	1687,53
698,68	1787,88
698,87	1753,06
699,05	1720,29
699,24	1705,96
699,42	1667,05
699,61	1767,40
699,79	1658,85
699,97	1753,06
700,16	1681,38
700,34	1632,23
700,53	1716,20
700,71	1779,68
700,89	1712,10
701,08	1724,39
701,26	1720,29
701,45	2054,11
701,63	1636,33
701,81	1755,11
702,00	1660,90
702,18	1689,57
702,37	1665,00
702,55	1763,30
702,73	1642,47
702,92	1683,43
703,10	1771,49
703,28	1744,87
703,47	1615,85
703,65	1814,50
703,84	1679,33
704,02	1773,54
704,20	1732,58
704,39	1621,99
704,57	1726,44
704,75	1703,91
704,94	1759,21
705,12	1691,62
705,30	1775,59
705,49	2209,76
705,67	4544,44
705,86	9447,28
706,04	13063,99
706,22	15027,99
706,41	15963,92
706,59	14163,75
706,77	9887,59
706,96	7505,81
707,14	6717,34
707,32	6186,91
707,51	5629,87
707,69	5078,96
707,87	4425,66
708,06	3590,09
708,24	3074,00
708,42	2445,27
708,61	2332,64
708,79	1888,23
708,97	1839,08
709,16	1789,92
709,34	1736,68
709,52	1730,53
709,71	1716,20
709,89	1798,12
710,07	1669,09
710,26	1650,66
710,44	1742,82
710,62	1763,30
710,80	1646,57
710,99	1761,25
711,17	1810,40
711,35	1697,77
711,54	1646,57
711,72	1753,06
711,90	1681,38
712,09	1742,82
712,27	1755,11
712,45	1626,09
712,63	1640,42
712,82	1665,00
713,00	1761,25
713,18	1697,77
713,37	1789,92
713,55	1785,83
713,73	1769,44
713,91	1767,40
714,10	1656,81
714,28	1652,71
714,46	1742,82
714,65	1716,20
714,83	1722,34
715,01	1689,57
715,19	1669,09
715,38	1644,52
715,56	1716,20
715,74	1703,91
715,92	1638,38
716,11	1832,93
716,29	1583,08
716,47	1779,68
716,65	1619,94
716,84	1650,66
717,02	1736,68
717,20	1583,08
717,38	1691,62
717,57	1753,06
717,75	1689,57
717,93	1685,48
718,11	1757,16
718,30	1644,52
718,48	1738,73
718,66	1763,30
718,84	1751,01
719,03	1716,20
719,21	1665,00
719,39	1781,73
719,57	1751,01
719,75	1783,78
719,94	1695,72
720,12	1658,85
720,30	1697,77
720,48	1789,92
720,67	1613,80
720,85	1681,38
721,03	1710,05
721,21	1660,90
721,39	1804,26
721,58	1738,73
721,76	1683,43
721,94	1693,67
722,12	1701,86
722,30	1744,87
722,49	1615,85
722,67	1701,86
722,85	1708,01
723,03	1630,18
723,21	1660,90
723,40	1748,97
723,58	1703,91
723,76	1785,83
723,94	1757,16
724,12	1703,91
724,30	1798,12
724,49	1765,35
724,67	1640,42
724,85	1796,07
725,03	1607,66
725,21	1714,15
725,40	1730,53
725,58	1669,09
725,76	1734,63
725,94	1740,77
726,12	1718,25
726,30	1593,32
726,49	1744,87
726,67	1695,72
726,85	1806,31
727,03	1746,92
727,21	2125,79
727,39	2942,93
727,57	3962,82
727,76	4374,46
727,94	4483,00
728,12	4622,27
728,30	3817,41
728,48	3041,23
728,66	2775,00
728,84	2611,16
729,03	2263,01
729,21	2205,66
729,39	1968,10
729,57	1832,93
729,75	1806,31
729,93	1869,80
730,11	1648,61
730,30	1681,38
730,48	1699,81
730,66	1845,22
730,84	1783,78
731,02	1734,63
731,20	1677,29
731,38	1787,88
731,56	1665,00
731,74	1613,80
731,93	1685,48
732,11	1742,82
732,29	1632,23
732,47	1748,97
732,65	1730,53
732,83	1777,64
733,01	1769,44
733,19	1632,23
733,37	1705,96
733,56	1724,39
733,74	1697,77
733,92	1773,54
734,10	1617,90
734,28	1767,40
734,46	1636,33
734,64	1742,82
734,82	1624,04
735,00	1685,48
735,18	1634,28
735,36	1720,29
735,54	1693,67
735,73	1646,57
735,91	1718,25
736,09	1808,36
736,27	1671,14
736,45	1654,76
736,63	1669,09
736,81	1634,28
736,99	1714,15
737,17	1730,53
737,35	1683,43
737,53	1689,57
737,71	1732,58
737,89	1791,97
738,07	1593,32
738,25	1611,75
738,43	1589,22
738,61	1677,29
738,80	1667,05
738,98	1630,18
739,16	1621,99
739,34	1681,38
739,52	1820,64
739,70	1632,23
739,88	1767,40
740,06	1796,07
740,24	1525,74
740,42	1853,41
740,60	1583,08
740,78	1660,90
740,96	1599,46
741,14	1701,86
741,32	1718,25
741,50	1583,08
741,68	1789,92
741,86	1759,21
742,04	1591,27
742,22	1603,56
742,40	1720,29
742,58	1738,73
742,76	1671,14
742,94	1716,20
743,12	1570,79
743,30	1646,57
743,48	1722,34
743,66	1699,81
743,84	1689,57
744,02	1636,33
744,20	1656,81
744,38	1591,27
744,56	1636,33
744,74	1728,49
744,92	1660,90
745,10	1832,93
745,28	1693,67
745,46	1822,69
745,64	1665,00
745,82	1679,33
746,00	1699,81
746,18	1681,38
746,36	1640,42
746,54	1738,73
746,72	1658,85
746,90	1609,70
747,08	1806,31
747,26	1656,81
747,44	1681,38
747,62	1708,01
747,80	1718,25
747,98	1742,82
748,15	1689,57
748,33	1755,11
748,51	1689,57
748,69	1765,35
748,87	1685,48
749,05	1677,29
749,23	1691,62
749,41	1720,29
749,59	1708,01
749,77	1726,44
749,95	1542,12
750,13	1597,42
750,31	1767,40
750,49	1667,05
750,67	1769,44
750,85	1830,88
751,03	1720,29
751,20	1832,93
751,38	1724,39
751,56	1703,91
751,74	1705,96
751,92	1726,44
752,10	1609,70
752,28	1859,56
752,46	1660,90
752,64	1736,68
752,82	1726,44
753,00	1724,39
753,18	1681,38
753,35	1687,53
753,53	1728,49
753,71	1613,80
753,89	1753,06
754,07	1626,09
754,25	1751,01
754,43	1710,05
754,61	1640,42
754,79	1771,49
754,97	1681,38
755,14	1787,88
755,32	1617,90
755,50	1734,63
755,68	1779,68
755,86	1691,62
756,04	1695,72
756,22	1621,99
756,40	1714,15
756,57	1861,60
756,75	1740,77
756,93	1753,06
757,11	1796,07
757,29	1640,42
757,47	1697,77
757,65	1638,38
757,82	1564,65
758,00	1611,75
758,18	1615,85
758,36	1667,05
758,54	1832,93
758,72	1607,66
758,90	1751,01
759,07	1710,05
759,25	1677,29
759,43	1744,87
759,61	1646,57
759,79	2213,85
759,97	1726,44
760,15	1724,39
760,32	1679,33
760,50	1640,42
760,68	1753,06
760,86	1583,08
761,04	1794,02
761,22	1708,01
761,39	1755,11
761,57	1722,34
761,75	1720,29
761,93	1693,67
762,11	1724,39
762,28	1681,38
762,46	1572,84
762,64	1748,97
762,82	1667,05
763,00	1669,09
763,18	1751,01
763,35	1636,33
763,53	1802,21
763,71	1669,09
763,89	1767,40
764,07	1669,09
764,24	1677,29
764,42	1765,35
764,60	1665,00
764,78	1787,88
764,96	1794,02
765,13	1765,35
765,31	1755,11
765,49	1742,82
765,67	1601,51
765,84	1732,58
766,02	1636,33
766,20	1603,56
766,38	1763,30
766,56	1767,40
766,73	1767,40
766,91	1654,76
767,09	1681,38
767,27	1759,21
767,44	1669,09
767,62	1687,53
767,80	1742,82
767,98	1677,29
768,15	1718,25
768,33	1773,54
768,51	1718,25
768,69	1712,10
768,87	1705,96
769,04	1712,10
769,22	1841,12
769,40	1777,64
769,58	1906,66
769,75	1712,10
769,93	1677,29
770,11	1757,16
770,28	1648,61
770,46	1738,73
770,64	1740,77
770,82	1687,53
770,99	1701,86
771,17	1677,29
771,35	1673,19
771,53	1693,67
771,70	1665,00
771,88	1736,68
772,06	1615,85
772,23	1724,39
772,41	1722,34
772,59	1683,43
772,77	1591,27
772,94	1689,57
773,12	1718,25
773,30	1712,10
773,47	1730,53
773,65	1667,05
773,83	1746,92
774,01	1681,38
774,18	1581,03
774,36	1638,38
774,54	1652,71
774,71	1691,62
774,89	1585,13
775,07	1619,94
775,24	1671,14
775,42	1744,87
775,60	1828,84
775,78	1720,29
775,95	1648,61
776,13	1578,98
776,31	1589,22
776,48	1632,23
776,66	1748,97
776,84	1652,71
777,01	1675,24
777,19	1624,04
777,37	1665,00
777,54	1781,73
777,72	1849,32
777,90	1660,90
778,07	1626,09
778,25	1841,12
778,43	1783,78
778,60	1654,76
778,78	1732,58
778,96	1769,44
779,13	1609,70
779,31	1728,49
779,49	1685,48
779,66	1695,72
779,84	1685,48
780,01	1718,25
780,19	1681,38
780,37	1722,34
780,54	1773,54
780,72	1642,47
780,90	1640,42
781,07	1630,18
781,25	1730,53
781,43	1796,07
781,60	1720,29
781,78	1753,06
781,95	1736,68
782,13	1710,05
782,31	1652,71
782,48	1613,80
782,66	1701,86
782,83	1804,26
783,01	1705,96
783,19	1722,34
783,36	1675,24
783,54	1615,85
783,72	1771,49
783,89	1681,38
784,07	1746,92
784,24	1665,00
784,42	1738,73
784,60	1695,72
784,77	1697,77
784,95	1621,99
785,12	1632,23
785,30	1710,05
785,47	1589,22
785,65	1621,99
785,83	1710,05
786,00	1644,52
786,18	1691,62
786,35	1640,42
786,53	1601,51
786,71	1746,92
786,88	1763,30
787,06	1724,39
787,23	1730,53
787,41	1662,95
787,58	1677,29
787,76	1695,72
787,94	1705,96
788,11	1720,29
788,29	1636,33
788,46	1685,48
788,64	1621,99
788,81	1644,52
788,99	1681,38
789,16	1665,00
789,34	1685,48
789,52	1669,09
789,69	1730,53
789,87	1611,75
790,04	1617,90
790,22	1712,10
790,39	1861,60
790,57	1685,48
790,74	1603,56
790,92	1787,88
791,09	1689,57
791,27	1693,67
791,44	1789,92
791,62	1728,49
791,79	1740,77
791,97	1687,53
792,15	1949,67
792,32	1753,06
792,50	1705,96
792,67	1775,59
792,85	1779,68
793,02	1662,95
793,20	1669,09
793,37	1722,34
793,55	1652,71
793,72	1624,04
793,90	1701,86
794,07	1701,86
794,25	1603,56
794,42	1730,53
794,60	1712,10
794,77	1595,37
794,95	1787,88
795,12	1724,39
795,30	1673,19
795,47	1581,03
795,65	1808,36
795,82	1605,61
796,00	1660,90
796,17	1740,77
796,34	1683,43
796,52	1765,35
796,69	1658,85
796,87	1640,42
797,04	1740,77
797,22	1724,39
797,39	1732,58
797,57	1722,34
797,74	1730,53
797,92	1708,01
798,09	1710,05
798,27	1746,92
798,44	1757,16
798,62	1632,23
798,79	1755,11
798,96	1646,57
799,14	1705,96
799,31	1824,74
799,49	1740,77
799,66	1683,43
799,84	1660,90
800,01	1630,18
800,19	1695,72
800,36	1564,65
800,53	1669,09
800,71	1681,38
800,88	1798,12
801,06	1652,71
801,23	1589,22
801,41	1705,96
801,58	1712,10
801,75	1697,77
801,93	1716,20
802,10	1712,10
802,28	1615,85
802,45	1648,61
802,63	1734,63
802,80	1767,40
802,97	1681,38
803,15	1665,00
803,32	1675,24
803,50	1689,57
803,67	1705,96
803,84	1742,82
804,02	1626,09
804,19	1611,75
804,37	1589,22
804,54	1693,67
804,71	1673,19
804,89	1716,20
805,06	1640,42
805,24	1611,75
805,41	1675,24
805,58	1644,52
805,76	1816,55
805,93	1724,39
806,10	1781,73
806,28	1777,64
806,45	1755,11
806,63	1796,07
806,80	1720,29
806,97	1681,38
807,15	1724,39
807,32	1697,77
807,49	1699,81
807,67	1632,23
807,84	1748,97
808,01	1615,85
808,19	1753,06
808,36	1748,97
808,54	1599,46
808,71	1632,23
808,88	1638,38
809,06	1701,86
809,23	1816,55
809,40	1693,67
809,58	1689,57
809,75	1662,95
809,92	1693,67
810,10	1771,49
810,27	1705,96
810,44	1691,62
810,62	1751,01
810,79	1615,85
810,96	1683,43
811,14	1677,29
811,31	1802,21
811,48	1736,68
811,66	1728,49
811,83	1753,06
812,00	1740,77
812,18	1765,35
812,35	1865,70
812,52	1675,24
812,69	1736,68
812,87	1695,72
813,04	1673,19
813,21	1726,44
813,39	1669,09
813,56	1597,42
813,73	1669,09
813,91	1658,85
814,08	1712,10
814,25	1650,66
814,42	1613,80
814,60	1679,33
814,77	1734,63
814,94	1714,15
815,12	1685,48
815,29	1806,31
815,46	1712,10
815,63	1783,78
815,81	1656,81
815,98	1689,57
816,15	1714,15
816,33	1724,39
816,50	1685,48
816,67	1730,53
816,84	1607,66
817,02	1673,19
817,19	1699,81
817,36	1755,11
817,53	1722,34
817,71	1611,75
817,88	1734,63
818,05	1656,81
818,22	1714,15
818,40	1746,92
818,57	1755,11
818,74	1667,05
818,91	1681,38
819,09	1714,15
819,26	1718,25
819,43	1693,67
819,60	1703,91
819,78	1695,72
819,95	1828,84
820,12	1607,66
820,29	1724,39
820,47	1798,12
820,64	1687,53
820,81	1628,14
820,98	1708,01
821,15	1628,14
821,33	1718,25
821,50	1613,80
821,67	1708,01
821,84	1724,39
822,02	1765,35
822,19	1728,49
822,36	1636,33
822,53	1671,14
822,70	1591,27
822,88	1738,73
823,05	1757,16
823,22	1669,09
823,39	1722,34
823,56	1761,25
823,74	1794,02
823,91	1640,42
824,08	1683,43
824,25	1619,94
824,42	1785,83
824,60	1632,23
824,77	1640,42
824,94	1648,61
825,11	1681,38
825,28	1652,71
825,45	1734,63
825,63	1722,34
825,80	1658,85
825,97	1667,05
826,14	1779,68
826,31	1650,66
826,48	1665,00
826,66	1687,53
826,83	1693,67
827,00	1689,57
827,17	1634,28
827,34	1708,01
827,51	1615,85
827,69	1669,09
827,86	1617,90
828,03	1619,94
828,20	1714,15
828,37	1701,86
828,54	1681,38
828,71	1560,55
828,89	1859,56
829,06	1701,86
829,23	1710,05
829,40	1748,97
829,57	1640,42
829,74	1751,01
829,91	1667,05
830,09	1646,57
830,26	1794,02
830,43	1736,68
830,60	1640,42
830,77	1810,40
830,94	1716,20
831,11	1714,15
831,28	1662,95
831,46	1849,32
831,63	1685,48
831,80	1775,59
831,97	1687,53
832,14	1615,85
832,31	1681,38
832,48	1751,01
832,65	1765,35
832,82	1730,53
832,99	1732,58
833,17	1636,33
833,34	1798,12
833,51	1708,01
833,68	1695,72
833,85	1783,78
834,02	1619,94
834,19	1652,71
834,36	1632,23
834,53	1722,34
834,70	1728,49
834,87	1687,53
835,04	1722,34
835,22	1710,05
835,39	1654,76
835,56	1658,85
835,73	1636,33
835,90	1791,97
836,07	1685,48
836,24	1742,82
836,41	1703,91
836,58	1687,53
836,75	1708,01
836,92	1712,10
837,09	1697,77
837,26	1839,08
837,43	1687,53
837,60	1687,53
837,77	1656,81
837,94	1683,43
838,12	1755,11
838,29	1658,85
838,46	1626,09
838,63	1697,77
838,80	1830,88
838,97	1687,53
839,14	1708,01
839,31	1652,71
839,48	1675,24
839,65	1689,57
839,82	1742,82
839,99	1703,91
840,16	1726,44
840,33	1656,81
840,50	1720,29
840,67	1550,31
840,84	1566,70
841,01	1744,87
841,18	1628,14
841,35	1701,86
841,52	1718,25
841,69	1773,54
841,86	1671,14
842,03	1636,33
842,20	1724,39
842,37	1693,67
842,54	1689,57
842,71	1708,01
842,88	1597,42
843,05	1714,15
843,22	1683,43
843,39	1652,71
843,56	1724,39
843,73	1646,57
843,90	1636,33
844,07	1712,10
844,24	1718,25
844,41	1705,96
844,58	1734,63
844,75	1650,66
844,92	1734,63
845,09	1773,54
845,26	1730,53
845,43	1724,39
845,60	1644,52
845,77	1820,64
845,94	1775,59
846,10	1810,40
846,27	1648,61
846,44	1628,14
846,61	1640,42
846,78	1710,05
846,95	1751,01
847,12	1755,11
847,29	1662,95
847,46	1628,14
847,63	1708,01
847,80	1683,43
847,97	1751,01
848,14	1820,64
848,31	1646,57
848,48	1671,14
848,65	1740,77
848,82	1705,96
848,98	1863,65
849,15	1742,82
849,32	1712,10
849,49	1761,25
849,66	1615,85
849,83	1626,09
850,00	1683,43
850,17	1734,63
850,34	1765,35
850,51	1640,42
850,68	1683,43
850,85	1884,13
851,01	1681,38
851,18	1703,91
851,35	1710,05
851,52	1781,73
851,69	1841,12
851,86	1640,42
852,03	1613,80
852,20	1738,73
852,37	1583,08
852,53	1589,22
852,70	1726,44
852,87	1681,38
853,04	1677,29
853,21	1697,77
853,38	1691,62
853,55	1744,87
853,72	1701,86
853,89	1646,57
854,05	1689,57
854,22	1603,56
854,39	1609,70
854,56	1763,30
854,73	1773,54
854,90	1675,24
855,07	1617,90
855,23	1771,49
855,40	1697,77
855,57	1654,76
855,74	1609,70
855,91	1824,74
856,08	1697,77
856,25	1658,85
856,41	1660,90
856,58	1701,86
856,75	1705,96
856,92	1609,70
857,09	1751,01
857,26	1538,02
857,42	1658,85
857,59	1685,48
857,76	1632,23
857,93	1746,92
858,10	1722,34
858,27	1689,57
858,43	1665,00
858,60	1765,35
858,77	1587,18
858,94	1683,43
859,11	1787,88
859,27	1617,90
859,44	1679,33
859,61	1806,31
859,78	1693,67
859,95	1665,00
860,12	1697,77
860,28	1765,35
860,45	1738,73
860,62	1628,14
860,79	1701,86
860,95	1763,30
861,12	1648,61
861,29	1667,05
861,46	1630,18
861,63	1665,00
861,79	1746,92
861,96	1572,84
862,13	1634,28
862,30	1681,38
862,47	1693,67
862,63	1624,04
862,80	1695,72
862,97	1699,81
863,14	1705,96
863,30	1718,25
863,47	1656,81
863,64	1767,40
863,81	1648,61
863,97	1716,20
864,14	1679,33
864,31	1720,29
864,48	1732,58
864,65	1697,77
864,81	1763,30
864,98	1726,44
865,15	1742,82
865,32	1718,25
865,48	1824,74
865,65	1714,15
865,82	1714,15
865,98	1796,07
866,15	1748,97
866,32	1738,73
866,49	1693,67
866,65	1740,77
866,82	1585,13
866,99	1705,96
867,16	1675,24
867,32	1609,70
867,49	1667,05
867,66	1681,38
867,83	1619,94
867,99	1701,86
868,16	1728,49
868,33	1529,83
868,49	1695,72
868,66	1658,85
868,83	1791,97
868,99	1685,48
869,16	1667,05
869,33	1751,01
869,50	1783,78
869,66	1771,49
869,83	1681,38
870,00	1603,56
870,16	1818,60
870,33	1726,44
870,50	1697,77
870,66	1767,40
870,83	1761,25
871,00	1744,87
871,17	1714,15
871,33	1685,48
871,50	1656,81
871,67	1720,29
871,83	1701,86
872,00	1742,82
872,17	1660,90
872,33	1789,92
872,50	1779,68
872,67	1669,09
872,83	1617,90
873,00	1658,85
873,17	1753,06
873,33	1802,21
873,50	1746,92
873,67	1615,85
873,83	1656,81
874,00	1736,68
874,16	1773,54
874,33	1726,44
874,50	1654,76
874,66	1671,14
874,83	1675,24
875,00	1730,53
875,16	1697,77
875,33	1746,92
875,50	1636,33
875,66	1675,24
875,83	1691,62
875,99	1779,68
876,16	1689,57
876,33	1710,05
876,49	1718,25
876,66	1691,62
876,83	1691,62
876,99	1607,66
877,16	1630,18
877,32	1691,62
877,49	1708,01
877,66	1726,44
877,82	1679,33
877,99	1714,15
878,15	1703,91
878,32	1710,05
878,49	1689,57
878,65	1636,33
878,82	1787,88
878,98	1613,80
879,15	1667,05
879,32	1753,06
879,48	1667,05
879,65	1626,09
879,81	1599,46
879,98	1687,53
880,15	1619,94
880,31	1708,01
880,48	1603,56
880,64	1759,21
880,81	1683,43
880,97	1787,88
881,14	1777,64
881,31	1689,57
881,47	1806,31
881,64	1689,57
881,80	1636,33
881,97	1710,05
882,13	1742,82
882,30	1701,86
882,47	1675,24
882,63	1611,75
882,80	1667,05
882,96	1626,09
883,13	1804,26
883,29	1671,14
883,46	1767,40
883,62	1785,83
883,79	1722,34
883,95	1759,21
884,12	1730,53
884,29	1765,35
884,45	1722,34
884,62	1736,68
884,78	1665,00
884,95	1781,73
885,11	1665,00
885,28	1654,76
885,44	1689,57
885,61	1748,97
885,77	1828,84
885,94	1734,63
886,10	1675,24
886,27	1607,66
886,43	1830,88
886,60	1824,74
886,76	1646,57
886,93	1595,37
887,09	1669,09
887,26	1576,94
887,42	1714,15
887,59	1794,02
887,75	1828,84
887,92	1816,55
888,08	1796,07
888,25	1773,54
888,41	1753,06
888,58	1748,97
888,74	1685,48
888,91	1701,86
>>>>>End Processed Spectral Data<<<<<
