SpectraSuite Data File
++++++++++++++++++++++++++++++++++++
Date: Mon Jun 06 14:25:57 CEST 2016
User: root
Dark Spectrum Present: No
Reference Spectrum Present: No
Number of Sampled Component Spectra: 1
Spectrometers: USB4C02835
Integration Time (usec): 100000 (USB4C02835)
Spectra Averaged: 1 (USB4C02835)
Boxcar Smoothing: 0 (USB4C02835)
Correct for Electrical Dark: No (USB4C02835)
Strobe/Lamp Enabled: No (USB4C02835)
Correct for Detector Non-linearity: No (USB4C02835)
Correct for Stray Light: No (USB4C02835)
Number of Pixels in Processed Spectrum: 3648
>>>>>Begin Processed Spectral Data<<<<<
177,47	1503,21
177,69	1503,21
177,91	1503,21
178,13	1443,82
178,36	1511,40
178,58	1644,52
178,80	1718,25
179,02	1656,81
179,24	1572,84
179,46	1693,67
179,68	1689,57
179,90	1679,33
180,13	1697,77
180,35	1621,99
180,57	1693,67
180,79	1736,68
181,01	1660,90
181,23	1744,87
181,45	1746,92
181,67	1736,68
181,90	1757,16
182,12	1681,38
182,34	1634,28
182,56	1746,92
182,78	1716,20
183,00	1669,09
183,22	1689,57
183,44	1665,00
183,66	1851,36
183,89	1869,80
184,11	1820,64
184,33	1767,40
184,55	1806,31
184,77	1736,68
184,99	1685,48
185,21	1673,19
185,43	1857,51
185,65	1718,25
185,87	1710,05
186,10	1843,17
186,32	1894,37
186,54	1748,97
186,76	1757,16
186,98	1789,92
187,20	1697,77
187,42	1691,62
187,64	1769,44
187,86	1660,90
188,08	1726,44
188,30	1697,77
188,52	1697,77
188,75	1744,87
188,97	1730,53
189,19	1650,66
189,41	1716,20
189,63	1691,62
189,85	1714,15
190,07	1624,04
190,29	1634,28
190,51	1720,29
190,73	1687,53
190,95	1812,45
191,17	1716,20
191,39	1566,70
191,61	1617,90
191,84	1689,57
192,06	1763,30
192,28	1632,23
192,50	1894,37
192,72	1691,62
192,94	1681,38
193,16	1773,54
193,38	1759,21
193,60	1648,61
193,82	1728,49
194,04	1728,49
194,26	1603,56
194,48	1636,33
194,70	1677,29
194,92	1720,29
195,14	1777,64
195,36	1656,81
195,58	1660,90
195,80	1681,38
196,02	1615,85
196,24	1746,92
196,46	1767,40
196,69	1755,11
196,91	1820,64
197,13	1712,10
197,35	1693,67
197,57	1816,55
197,79	1712,10
198,01	1710,05
198,23	1740,77
198,45	1669,09
198,67	1669,09
198,89	1742,82
199,11	1662,95
199,33	1634,28
199,55	1619,94
199,77	1720,29
199,99	1761,25
200,21	1630,18
200,43	1705,96
200,65	1693,67
200,87	1568,74
201,09	1673,19
201,31	1738,73
201,53	1748,97
201,75	1669,09
201,97	1753,06
202,19	1712,10
202,41	1742,82
202,63	1779,68
202,85	1734,63
203,07	1665,00
203,29	1683,43
203,51	1718,25
203,73	1646,57
203,95	1888,23
204,17	1722,34
204,39	1683,43
204,61	1665,00
204,83	1730,53
205,05	1751,01
205,27	1691,62
205,49	1789,92
205,71	1724,39
205,93	1677,29
206,15	1832,93
206,37	1642,47
206,59	1691,62
206,81	1662,95
207,03	1738,73
207,25	1587,18
207,47	1736,68
207,69	1716,20
207,91	1730,53
208,13	1763,30
208,34	1613,80
208,56	1607,66
208,78	1744,87
209,00	1705,96
209,22	1673,19
209,44	1722,34
209,66	1693,67
209,88	1720,29
210,10	1765,35
210,32	1691,62
210,54	1759,21
210,76	1648,61
210,98	1718,25
211,20	1495,02
211,42	1640,42
211,64	1705,96
211,86	1718,25
212,08	1718,25
212,30	1693,67
212,52	1665,00
212,74	1771,49
212,96	1665,00
213,17	1730,53
213,39	1742,82
213,61	1785,83
213,83	1697,77
214,05	1662,95
214,27	1738,73
214,49	1679,33
214,71	1665,00
214,93	1787,88
215,15	1708,01
215,37	1665,00
215,59	1697,77
215,81	1794,02
216,03	1771,49
216,24	1746,92
216,46	1656,81
216,68	1753,06
216,90	1689,57
217,12	1755,11
217,34	1675,24
217,56	1773,54
217,78	1849,32
218,00	1714,15
218,22	1712,10
218,44	1611,75
218,66	1710,05
218,87	1857,51
219,09	1697,77
219,31	1689,57
219,53	1669,09
219,75	1691,62
219,97	1613,80
220,19	1695,72
220,41	1730,53
220,63	1677,29
220,85	1705,96
221,06	1677,29
221,28	1763,30
221,50	1763,30
221,72	1714,15
221,94	1697,77
222,16	1626,09
222,38	1740,77
222,60	1734,63
222,82	1683,43
223,03	1724,39
223,25	1626,09
223,47	1763,30
223,69	1738,73
223,91	1621,99
224,13	1755,11
224,35	1646,57
224,57	1824,74
224,78	1736,68
225,00	1689,57
225,22	1679,33
225,44	1691,62
225,66	1720,29
225,88	1691,62
226,10	1794,02
226,32	1746,92
226,53	1726,44
226,75	1701,86
226,97	1626,09
227,19	1714,15
227,41	1642,47
227,63	1665,00
227,85	1683,43
228,06	1759,21
228,28	1677,29
228,50	1775,59
228,72	1656,81
228,94	1650,66
229,16	1566,70
229,37	1615,85
229,59	1621,99
229,81	1763,30
230,03	1689,57
230,25	1648,61
230,47	1607,66
230,69	1662,95
230,90	1816,55
231,12	1646,57
231,34	1734,63
231,56	1845,22
231,78	1628,14
232,00	1724,39
232,21	1708,01
232,43	1689,57
232,65	1552,36
232,87	1732,58
233,09	1626,09
233,30	1697,77
233,52	1722,34
233,74	1714,15
233,96	1685,48
234,18	1603,56
234,40	1673,19
234,61	1771,49
234,83	1708,01
235,05	1605,61
235,27	1824,74
235,49	1798,12
235,70	1705,96
235,92	1763,30
236,14	1724,39
236,36	1822,69
236,58	1683,43
236,79	1714,15
237,01	1691,62
237,23	1652,71
237,45	1787,88
237,67	1601,51
237,88	1759,21
238,10	1722,34
238,32	1611,75
238,54	1646,57
238,76	1726,44
238,97	1638,38
239,19	1716,20
239,41	1759,21
239,63	1849,32
239,85	1613,80
240,06	1673,19
240,28	1734,63
240,50	1683,43
240,72	1689,57
240,93	1736,68
241,15	1685,48
241,37	1667,05
241,59	1808,36
241,81	1710,05
242,02	1619,94
242,24	1734,63
242,46	1791,97
242,68	1679,33
242,89	1740,77
243,11	1802,21
243,33	1689,57
243,55	1740,77
243,76	1734,63
243,98	1753,06
244,20	1748,97
244,42	1673,19
244,64	1771,49
244,85	1628,14
245,07	1669,09
245,29	1816,55
245,51	1658,85
245,72	1703,91
245,94	1746,92
246,16	1691,62
246,38	1781,73
246,59	1685,48
246,81	1671,14
247,03	1644,52
247,24	1615,85
247,46	1718,25
247,68	1630,18
247,90	1710,05
248,11	1683,43
248,33	1781,73
248,55	1679,33
248,77	1665,00
248,98	1804,26
249,20	1765,35
249,42	1644,52
249,64	1728,49
249,85	1615,85
250,07	1650,66
250,29	1703,91
250,50	1730,53
250,72	1677,29
250,94	1734,63
251,16	1800,16
251,37	1763,30
251,59	1722,34
251,81	1767,40
252,02	1787,88
252,24	1744,87
252,46	1751,01
252,68	1708,01
252,89	1722,34
253,11	1669,09
253,33	1845,22
253,54	1681,38
253,76	1572,84
253,98	1705,96
254,20	1767,40
254,41	1550,31
254,63	1660,90
254,85	1640,42
255,06	1738,73
255,28	1726,44
255,50	1746,92
255,71	1701,86
255,93	1693,67
256,15	1714,15
256,36	1724,39
256,58	1652,71
256,80	1710,05
257,02	1691,62
257,23	1726,44
257,45	1712,10
257,67	1742,82
257,88	1699,81
258,10	1757,16
258,32	1767,40
258,53	1683,43
258,75	1697,77
258,97	1632,23
259,18	1718,25
259,40	1728,49
259,62	1814,50
259,83	1783,78
260,05	1697,77
260,27	1955,81
260,48	1748,97
260,70	1638,38
260,92	1785,83
261,13	1673,19
261,35	1716,20
261,57	1736,68
261,78	1654,76
262,00	1566,70
262,22	1677,29
262,43	1628,14
262,65	1722,34
262,86	1728,49
263,08	1808,36
263,30	1697,77
263,51	1581,03
263,73	1652,71
263,95	1818,60
264,16	1642,47
264,38	1691,62
264,60	1779,68
264,81	1710,05
265,03	1751,01
265,25	1744,87
265,46	1671,14
265,68	1771,49
265,89	1699,81
266,11	1675,24
266,33	1691,62
266,54	1775,59
266,76	1691,62
266,98	1667,05
267,19	1777,64
267,41	1710,05
267,62	1648,61
267,84	1671,14
268,06	1726,44
268,27	1755,11
268,49	1796,07
268,70	1746,92
268,92	1652,71
269,14	1681,38
269,35	1578,98
269,57	1685,48
269,79	1771,49
270,00	1673,19
270,22	1865,70
270,43	1648,61
270,65	1593,32
270,87	1607,66
271,08	1656,81
271,30	1710,05
271,51	1701,86
271,73	1720,29
271,95	1757,16
272,16	1681,38
272,38	1648,61
272,59	1660,90
272,81	1761,25
273,02	1701,86
273,24	1722,34
273,46	1748,97
273,67	1716,20
273,89	1720,29
274,10	1632,23
274,32	1779,68
274,54	1679,33
274,75	1757,16
274,97	1632,23
275,18	1781,73
275,40	1701,86
275,61	1716,20
275,83	1681,38
276,05	1703,91
276,26	1699,81
276,48	1732,58
276,69	1693,67
276,91	1718,25
277,12	1767,40
277,34	1822,69
277,55	1744,87
277,77	1755,11
277,99	1673,19
278,20	1667,05
278,42	1708,01
278,63	1710,05
278,85	1718,25
279,06	1679,33
279,28	1687,53
279,49	1705,96
279,71	1769,44
279,93	1695,72
280,14	1691,62
280,36	1693,67
280,57	1656,81
280,79	1722,34
281,00	1681,38
281,22	1628,14
281,43	1806,31
281,65	1519,59
281,86	1673,19
282,08	1746,92
282,29	1837,03
282,51	1554,41
282,73	1626,09
282,94	1644,52
283,16	1697,77
283,37	1812,45
283,59	1652,71
283,80	1699,81
284,02	1626,09
284,23	1720,29
284,45	1607,66
284,66	1714,15
284,88	1656,81
285,09	1763,30
285,31	1718,25
285,52	1712,10
285,74	1632,23
285,95	1701,86
286,17	1671,14
286,38	1699,81
286,60	1662,95
286,81	1621,99
287,03	1693,67
287,24	1689,57
287,46	1673,19
287,67	1736,68
287,89	1775,59
288,10	1740,77
288,32	1830,88
288,53	1802,21
288,75	1738,73
288,96	1708,01
289,18	1716,20
289,39	1669,09
289,61	1873,89
289,82	1794,02
290,04	1701,86
290,25	1689,57
290,47	1673,19
290,68	1648,61
290,90	1767,40
291,11	1662,95
291,33	1689,57
291,54	1673,19
291,76	1609,70
291,97	1699,81
292,18	1677,29
292,40	1667,05
292,61	1691,62
292,83	1820,64
293,04	1738,73
293,26	1701,86
293,47	1716,20
293,69	1665,00
293,90	1726,44
294,12	1742,82
294,33	1748,97
294,55	1642,47
294,76	1769,44
294,97	1753,06
295,19	1804,26
295,40	1642,47
295,62	1648,61
295,83	1712,10
296,05	1609,70
296,26	1771,49
296,48	1632,23
296,69	1716,20
296,90	1636,33
297,12	1755,11
297,33	1783,78
297,55	1720,29
297,76	1693,67
297,98	1787,88
298,19	1648,61
298,41	1710,05
298,62	1660,90
298,83	1759,21
299,05	1705,96
299,26	1615,85
299,48	1650,66
299,69	1763,30
299,90	1742,82
300,12	1673,19
300,33	1791,97
300,55	1660,90
300,76	1765,35
300,98	1562,60
301,19	1738,73
301,40	1699,81
301,62	1662,95
301,83	1683,43
302,05	1757,16
302,26	1705,96
302,47	1751,01
302,69	1646,57
302,90	1710,05
303,12	1640,42
303,33	1730,53
303,54	1824,74
303,76	1638,38
303,97	1720,29
304,19	1814,50
304,40	1652,71
304,61	1683,43
304,83	1771,49
305,04	1769,44
305,26	1724,39
305,47	1662,95
305,68	1720,29
305,90	1632,23
306,11	1724,39
306,33	1691,62
306,54	1619,94
306,75	1708,01
306,97	1652,71
307,18	1609,70
307,39	1685,48
307,61	1761,25
307,82	1689,57
308,04	1763,30
308,25	1677,29
308,46	1765,35
308,68	1708,01
308,89	1654,76
309,10	1738,73
309,32	1665,00
309,53	1656,81
309,74	1742,82
309,96	1658,85
310,17	1724,39
310,39	1687,53
310,60	1724,39
310,81	1718,25
311,03	1648,61
311,24	1689,57
311,45	1777,64
311,67	1822,69
311,88	1710,05
312,09	1718,25
312,31	1673,19
312,52	1722,34
312,73	1615,85
312,95	1587,18
313,16	1632,23
313,37	1734,63
313,59	1656,81
313,80	1685,48
314,01	1802,21
314,23	1646,57
314,44	1691,62
314,65	1628,14
314,87	1615,85
315,08	1722,34
315,29	1642,47
315,51	1628,14
315,72	1638,38
315,93	1785,83
316,15	1699,81
316,36	1691,62
316,57	1675,24
316,79	1726,44
317,00	1671,14
317,21	1738,73
317,43	1677,29
317,64	1673,19
317,85	1654,76
318,07	1640,42
318,28	1718,25
318,49	1816,55
318,70	1925,09
318,92	1808,36
319,13	1785,83
319,34	1861,60
319,56	1794,02
319,77	1826,79
319,98	1794,02
320,20	1751,01
320,41	1665,00
320,62	1685,48
320,83	1679,33
321,05	1812,45
321,26	1697,77
321,47	1681,38
321,69	1757,16
321,90	1568,74
322,11	1673,19
322,32	1650,66
322,54	1810,40
322,75	1640,42
322,96	1722,34
323,18	1705,96
323,39	1640,42
323,60	1660,90
323,81	1724,39
324,03	1697,77
324,24	1601,51
324,45	1767,40
324,66	1632,23
324,88	1791,97
325,09	1873,89
325,30	1701,86
325,52	1714,15
325,73	1708,01
325,94	1703,91
326,15	1583,08
326,37	1757,16
326,58	1726,44
326,79	1804,26
327,00	1679,33
327,22	1748,97
327,43	1718,25
327,64	1603,56
327,85	1701,86
328,07	1705,96
328,28	1759,21
328,49	1697,77
328,70	1689,57
328,92	1685,48
329,13	1693,67
329,34	1761,25
329,55	1800,16
329,76	1732,58
329,98	1697,77
330,19	1822,69
330,40	1726,44
330,61	1718,25
330,83	1714,15
331,04	1734,63
331,25	1742,82
331,46	1658,85
331,68	1568,74
331,89	1691,62
332,10	1654,76
332,31	1660,90
332,52	1720,29
332,74	1816,55
332,95	1591,27
333,16	1732,58
333,37	1738,73
333,58	1712,10
333,80	1658,85
334,01	1568,74
334,22	1683,43
334,43	1705,96
334,64	1636,33
334,86	1558,50
335,07	1609,70
335,28	1724,39
335,49	1689,57
335,70	1820,64
335,92	1767,40
336,13	1820,64
336,34	1751,01
336,55	1724,39
336,76	1697,77
336,98	1574,89
337,19	1716,20
337,40	1886,18
337,61	1804,26
337,82	1640,42
338,04	1775,59
338,25	1624,04
338,46	1691,62
338,67	1845,22
338,88	1665,00
339,09	1654,76
339,31	1697,77
339,52	1650,66
339,73	1581,03
339,94	1673,19
340,15	1767,40
340,36	1677,29
340,58	1613,80
340,79	1677,29
341,00	1800,16
341,21	1619,94
341,42	1796,07
341,63	1736,68
341,85	1783,78
342,06	1775,59
342,27	1636,33
342,48	1734,63
342,69	1617,90
342,90	1695,72
343,12	1728,49
343,33	1683,43
343,54	1777,64
343,75	1699,81
343,96	1718,25
344,17	1757,16
344,38	1689,57
344,60	1675,24
344,81	1640,42
345,02	1697,77
345,23	1736,68
345,44	1806,31
345,65	1689,57
345,86	1736,68
346,07	1665,00
346,29	1718,25
346,50	1755,11
346,71	1718,25
346,92	1769,44
347,13	1800,16
347,34	1677,29
347,55	1665,00
347,76	1724,39
347,98	1589,22
348,19	1617,90
348,40	1796,07
348,61	1712,10
348,82	1781,73
349,03	1765,35
349,24	1581,03
349,45	1755,11
349,66	1599,46
349,88	1683,43
350,09	1669,09
350,30	1769,44
350,51	1718,25
350,72	1751,01
350,93	1730,53
351,14	1665,00
351,35	1726,44
351,56	1710,05
351,77	1722,34
351,99	1722,34
352,20	1767,40
352,41	1824,74
352,62	1638,38
352,83	1740,77
353,04	1693,67
353,25	1673,19
353,46	1744,87
353,67	1765,35
353,88	1648,61
354,09	1667,05
354,30	1718,25
354,52	1718,25
354,73	1701,86
354,94	1738,73
355,15	1744,87
355,36	1810,40
355,57	1656,81
355,78	1712,10
355,99	1619,94
356,20	1724,39
356,41	1753,06
356,62	1705,96
356,83	1712,10
357,04	1779,68
357,25	1609,70
357,46	1738,73
357,68	1660,90
357,89	1671,14
358,10	1667,05
358,31	1654,76
358,52	1644,52
358,73	1648,61
358,94	1599,46
359,15	1740,77
359,36	1722,34
359,57	1671,14
359,78	1642,47
359,99	1777,64
360,20	1585,13
360,41	1730,53
360,62	1669,09
360,83	1730,53
361,04	1728,49
361,25	1742,82
361,46	1849,32
361,67	1728,49
361,88	1701,86
362,09	1746,92
362,30	1734,63
362,51	1683,43
362,72	1738,73
362,93	1787,88
363,14	1748,97
363,35	1701,86
363,56	1597,42
363,78	1771,49
363,99	1798,12
364,20	1710,05
364,41	1683,43
364,62	1751,01
364,83	1748,97
365,04	1656,81
365,25	1736,68
365,46	1806,31
365,67	1673,19
365,88	1599,46
366,09	1683,43
366,30	1724,39
366,51	1667,05
366,72	1642,47
366,93	1701,86
367,14	1732,58
367,35	1724,39
367,56	1683,43
367,77	1746,92
367,98	1615,85
368,18	1667,05
368,39	1654,76
368,60	1767,40
368,81	1746,92
369,02	1744,87
369,23	1757,16
369,44	1599,46
369,65	1673,19
369,86	1765,35
370,07	1718,25
370,28	1576,94
370,49	1646,57
370,70	1783,78
370,91	1638,38
371,12	1587,18
371,33	1744,87
371,54	1673,19
371,75	1796,07
371,96	1601,51
372,17	1712,10
372,38	1679,33
372,59	1744,87
372,80	1695,72
373,01	1644,52
373,22	1728,49
373,43	1683,43
373,64	1656,81
373,85	1767,40
374,06	1759,21
374,26	1789,92
374,47	1632,23
374,68	1796,07
374,89	1689,57
375,10	1701,86
375,31	1769,44
375,52	1742,82
375,73	1667,05
375,94	1685,48
376,15	1730,53
376,36	1585,13
376,57	1753,06
376,78	1650,66
376,99	1665,00
377,20	1656,81
377,40	1681,38
377,61	1871,84
377,82	1726,44
378,03	1814,50
378,24	1763,30
378,45	1730,53
378,66	1734,63
378,87	1626,09
379,08	1621,99
379,29	1705,96
379,50	1716,20
379,71	1632,23
379,91	1736,68
380,12	1699,81
380,33	1665,00
380,54	1718,25
380,75	1673,19
380,96	1716,20
381,17	1697,77
381,38	1753,06
381,59	1726,44
381,80	1665,00
382,00	1859,56
382,21	1753,06
382,42	1912,80
382,63	1816,55
382,84	1746,92
383,05	1757,16
383,26	1781,73
383,47	1669,09
383,68	1712,10
383,88	1675,24
384,09	1759,21
384,30	1828,84
384,51	1708,01
384,72	1646,57
384,93	1673,19
385,14	1722,34
385,35	1761,25
385,55	1624,04
385,76	1826,79
385,97	1667,05
386,18	1691,62
386,39	1585,13
386,60	1724,39
386,81	1669,09
387,02	1701,86
387,22	1630,18
387,43	1740,77
387,64	1798,12
387,85	1822,69
388,06	2222,05
388,27	4315,07
388,48	6848,41
388,68	8331,14
388,89	9697,13
389,10	9842,54
389,31	8673,15
389,52	7614,35
389,73	6961,05
389,93	6432,67
390,14	5928,87
390,35	5240,75
390,56	4624,31
390,77	3807,17
390,98	3047,38
391,18	2512,86
391,39	2162,66
391,60	1871,84
391,81	1810,40
392,02	1710,05
392,23	1777,64
392,43	1753,06
392,64	1746,92
392,85	1697,77
393,06	1812,45
393,27	1687,53
393,47	1665,00
393,68	1738,73
393,89	1703,91
394,10	1826,79
394,31	1710,05
394,52	1619,94
394,72	1658,85
394,93	1806,31
395,14	1712,10
395,35	1699,81
395,56	1671,14
395,76	1726,44
395,97	1861,60
396,18	1853,41
396,39	1812,45
396,60	2015,20
396,80	1855,46
397,01	1871,84
397,22	1841,12
397,43	1849,32
397,64	1808,36
397,84	1837,03
398,05	1927,14
398,26	1722,34
398,47	1849,32
398,67	1800,16
398,88	1763,30
399,09	1779,68
399,30	1783,78
399,51	1705,96
399,71	1632,23
399,92	1679,33
400,13	1691,62
400,34	1744,87
400,54	1630,18
400,75	1755,11
400,96	1710,05
401,17	1804,26
401,37	1683,43
401,58	1685,48
401,79	1740,77
402,00	1822,69
402,21	1953,76
402,41	1953,76
402,62	1980,39
402,83	2076,64
403,04	1935,33
403,24	2015,20
403,45	1814,50
403,66	1826,79
403,87	1886,18
404,07	1892,32
404,28	1877,99
404,49	1869,80
404,70	1691,62
404,90	1753,06
405,11	1689,57
405,32	1683,43
405,52	1693,67
405,73	1642,47
405,94	1679,33
406,15	1701,86
406,35	1708,01
406,56	1697,77
406,77	1746,92
406,98	1753,06
407,18	1687,53
407,39	1705,96
407,60	1730,53
407,80	1720,29
408,01	1687,53
408,22	1765,35
408,43	1679,33
408,63	1783,78
408,84	1742,82
409,05	1763,30
409,25	1669,09
409,46	1658,85
409,67	1650,66
409,88	1636,33
410,08	1724,39
410,29	1652,71
410,50	1742,82
410,70	1820,64
410,91	1689,57
411,12	1677,29
411,32	1681,38
411,53	1730,53
411,74	1742,82
411,95	1794,02
412,15	1675,24
412,36	1806,31
412,57	1742,82
412,77	1785,83
412,98	1607,66
413,19	1712,10
413,39	1740,77
413,60	1834,98
413,81	1834,98
414,01	1681,38
414,22	1738,73
414,43	1755,11
414,63	1726,44
414,84	1757,16
415,05	1746,92
415,25	1667,05
415,46	1685,48
415,67	1714,15
415,87	1724,39
416,08	1689,57
416,29	1722,34
416,49	1712,10
416,70	1648,61
416,91	1671,14
417,11	1714,15
417,32	1767,40
417,53	1732,58
417,73	1718,25
417,94	1697,77
418,15	1712,10
418,35	1738,73
418,56	1687,53
418,77	1814,50
418,97	1685,48
419,18	1708,01
419,38	1603,56
419,59	1646,57
419,80	1728,49
420,00	1652,71
420,21	1753,06
420,42	1742,82
420,62	1728,49
420,83	1675,24
421,04	1720,29
421,24	1718,25
421,45	1791,97
421,65	1771,49
421,86	1691,62
422,07	1832,93
422,27	1736,68
422,48	1751,01
422,69	1572,84
422,89	1685,48
423,10	1687,53
423,30	1624,04
423,51	1673,19
423,72	1628,14
423,92	1767,40
424,13	1617,90
424,33	1769,44
424,54	1808,36
424,75	1724,39
424,95	1888,23
425,16	1714,15
425,36	1681,38
425,57	1777,64
425,78	1742,82
425,98	1773,54
426,19	1708,01
426,39	1660,90
426,60	1773,54
426,81	1734,63
427,01	1724,39
427,22	1697,77
427,42	1603,56
427,63	1697,77
427,83	1777,64
428,04	1816,55
428,25	1771,49
428,45	1812,45
428,66	1722,34
428,86	1650,66
429,07	1665,00
429,28	1773,54
429,48	1662,95
429,69	1650,66
429,89	1720,29
430,10	1615,85
430,30	1642,47
430,51	1798,12
430,71	1597,42
430,92	1720,29
431,13	1693,67
431,33	1761,25
431,54	1679,33
431,74	1834,98
431,95	1826,79
432,15	1628,14
432,36	1746,92
432,56	1726,44
432,77	1779,68
432,98	1796,07
433,18	1724,39
433,39	1656,81
433,59	1687,53
433,80	1783,78
434,00	1863,65
434,21	1695,72
434,41	1609,70
434,62	1830,88
434,82	1708,01
435,03	1746,92
435,23	1757,16
435,44	1632,23
435,64	1779,68
435,85	1755,11
436,06	1765,35
436,26	1791,97
436,47	1665,00
436,67	1720,29
436,88	1736,68
437,08	1681,38
437,29	1742,82
437,49	1697,77
437,70	1746,92
437,90	1705,96
438,11	1894,37
438,31	1845,22
438,52	1845,22
438,72	1918,95
438,93	1918,95
439,13	1769,44
439,34	1767,40
439,54	1771,49
439,75	1816,55
439,95	1761,25
440,16	1677,29
440,36	1763,30
440,57	1722,34
440,77	1773,54
440,98	1841,12
441,18	1710,05
441,39	1667,05
441,59	1619,94
441,80	1894,37
442,00	1736,68
442,21	1845,22
442,41	1703,91
442,62	1781,73
442,82	1685,48
443,02	1718,25
443,23	1751,01
443,43	1667,05
443,64	1777,64
443,84	1695,72
444,05	1845,22
444,25	1755,11
444,46	1771,49
444,66	1677,29
444,87	1849,32
445,07	1619,94
445,28	1705,96
445,48	1826,79
445,69	1656,81
445,89	1812,45
446,09	1783,78
446,30	2009,06
446,50	2680,79
446,71	3753,93
446,91	4401,08
447,12	4736,95
447,32	4868,02
447,53	4411,32
447,73	4038,59
447,93	3596,23
448,14	3348,43
448,34	3178,45
448,55	2942,93
448,75	2918,36
448,96	2727,89
449,16	2414,56
449,36	2267,10
449,57	2019,30
449,77	1871,84
449,98	1779,68
450,18	1834,98
450,39	1824,74
450,59	1826,79
450,79	1791,97
451,00	1734,63
451,20	1767,40
451,41	1712,10
451,61	1730,53
451,81	1621,99
452,02	1669,09
452,22	1693,67
452,43	1738,73
452,63	1656,81
452,84	1701,86
453,04	1757,16
453,24	1755,11
453,45	1722,34
453,65	1732,58
453,86	1798,12
454,06	1779,68
454,26	1755,11
454,47	1683,43
454,67	1871,84
454,87	1720,29
455,08	1798,12
455,28	1849,32
455,49	1748,97
455,69	1675,24
455,89	1873,89
456,10	1769,44
456,30	1722,34
456,51	1712,10
456,71	1699,81
456,91	1724,39
457,12	1662,95
457,32	1757,16
457,52	1683,43
457,73	1710,05
457,93	1857,51
458,14	1699,81
458,34	1683,43
458,54	1699,81
458,75	1757,16
458,95	1789,92
459,15	1726,44
459,36	1751,01
459,56	1738,73
459,76	1804,26
459,97	1738,73
460,17	1791,97
460,37	1828,84
460,58	1683,43
460,78	1730,53
460,99	1740,77
461,19	1685,48
461,39	1742,82
461,60	1695,72
461,80	1787,88
462,00	1667,05
462,21	1697,77
462,41	1617,90
462,61	1617,90
462,82	1677,29
463,02	1677,29
463,22	1734,63
463,43	1845,22
463,63	1773,54
463,83	1781,73
464,04	1724,39
464,24	1746,92
464,44	1708,01
464,64	1726,44
464,85	1675,24
465,05	1847,27
465,25	1751,01
465,46	1689,57
465,66	1708,01
465,86	1755,11
466,07	1716,20
466,27	1755,11
466,47	1583,08
466,68	1638,38
466,88	1757,16
467,08	1757,16
467,29	1822,69
467,49	1683,43
467,69	1777,64
467,89	1779,68
468,10	1726,44
468,30	1744,87
468,50	1845,22
468,71	1738,73
468,91	1693,67
469,11	1783,78
469,31	1724,39
469,52	1703,91
469,72	1845,22
469,92	1867,75
470,13	1738,73
470,33	1845,22
470,53	1814,50
470,73	2103,26
470,94	2256,86
471,14	2353,12
471,34	2424,80
471,54	2336,73
471,75	2158,56
471,95	2131,94
472,15	2037,73
472,36	2103,26
472,56	2080,74
472,76	2072,54
472,96	2074,59
473,17	1982,43
473,37	1910,75
473,57	1791,97
473,77	1849,32
473,98	1757,16
474,18	1669,09
474,38	1927,14
474,58	1714,15
474,79	1640,42
474,99	1845,22
475,19	1812,45
475,39	1642,47
475,60	1783,78
475,80	1761,25
476,00	1730,53
476,20	1738,73
476,41	1742,82
476,61	1726,44
476,81	1751,01
477,01	1697,77
477,21	1837,03
477,42	1794,02
477,62	1671,14
477,82	1841,12
478,02	1697,77
478,23	1701,86
478,43	1683,43
478,63	1646,57
478,83	1738,73
479,03	1689,57
479,24	1794,02
479,44	1853,41
479,64	1595,37
479,84	1591,27
480,04	1652,71
480,25	1761,25
480,45	1677,29
480,65	1677,29
480,85	1820,64
481,06	1701,86
481,26	1738,73
481,46	1722,34
481,66	1718,25
481,86	1689,57
482,06	1736,68
482,27	1652,71
482,47	1798,12
482,67	1767,40
482,87	1667,05
483,07	1746,92
483,28	1740,77
483,48	1701,86
483,68	1677,29
483,88	1691,62
484,08	1601,51
484,29	1650,66
484,49	1683,43
484,69	1646,57
484,89	1818,60
485,09	1728,49
485,29	1785,83
485,50	1751,01
485,70	1677,29
485,90	1814,50
486,10	1697,77
486,30	1800,16
486,50	1748,97
486,71	1738,73
486,91	1726,44
487,11	1867,75
487,31	1695,72
487,51	1708,01
487,71	1652,71
487,91	1597,42
488,12	1665,00
488,32	1652,71
488,52	1632,23
488,72	1638,38
488,92	1699,81
489,12	1802,21
489,32	1787,88
489,53	1746,92
489,73	1619,94
489,93	1716,20
490,13	1751,01
490,33	1624,04
490,53	1734,63
490,73	1791,97
490,94	1685,48
491,14	1810,40
491,34	1783,78
491,54	2209,76
491,74	2539,48
491,94	2811,86
492,14	3082,19
492,34	3026,90
492,54	2754,52
492,75	2449,37
492,95	2512,86
493,15	2414,56
493,35	2301,92
493,55	2256,86
493,75	2115,55
493,95	2129,89
494,15	2043,87
494,35	1845,22
494,56	1798,12
494,76	1779,68
494,96	1824,74
495,16	1804,26
495,36	1777,64
495,56	1773,54
495,76	1775,59
495,96	1722,34
496,16	1648,61
496,36	1787,88
496,56	1665,00
496,77	1783,78
496,97	1779,68
497,17	1742,82
497,37	1687,53
497,57	1789,92
497,77	1708,01
497,97	1607,66
498,17	1683,43
498,37	1687,53
498,57	1724,39
498,77	1646,57
498,97	1726,44
499,17	1845,22
499,38	1761,25
499,58	1734,63
499,78	1796,07
499,98	1847,27
500,18	1714,15
500,38	1728,49
500,58	1880,04
500,78	2537,43
500,98	4532,15
501,18	5820,33
501,38	6686,62
501,58	7317,39
501,78	6596,51
501,98	5537,71
502,18	5074,87
502,38	4507,58
502,58	4106,18
502,78	3764,17
502,98	3643,34
503,18	3434,44
503,38	3221,45
503,59	2901,97
503,79	2740,18
503,99	2541,53
504,19	2412,51
504,39	2299,87
504,59	2179,04
504,79	2142,18
504,99	1961,95
505,19	1920,99
505,39	1804,26
505,59	1935,33
505,79	1898,47
505,99	1832,93
506,19	1779,68
506,39	1785,83
506,59	1781,73
506,79	1779,68
506,99	1822,69
507,19	1718,25
507,39	1779,68
507,59	1675,24
507,79	1646,57
507,99	1667,05
508,19	1724,39
508,39	1640,42
508,59	1621,99
508,79	1820,64
508,99	1736,68
509,19	1656,81
509,39	1769,44
509,59	1611,75
509,79	1726,44
509,99	1748,97
510,19	1773,54
510,39	1789,92
510,59	1755,11
510,79	1697,77
510,99	1701,86
511,19	1779,68
511,39	1812,45
511,59	1791,97
511,79	1777,64
511,99	1757,16
512,19	1785,83
512,38	1695,72
512,58	1685,48
512,78	1726,44
512,98	1810,40
513,18	1824,74
513,38	1652,71
513,58	1828,84
513,78	1689,57
513,98	1724,39
514,18	1681,38
514,38	1744,87
514,58	1681,38
514,78	1712,10
514,98	1658,85
515,18	1722,34
515,38	1687,53
515,58	1931,23
515,78	1714,15
515,98	1716,20
516,18	1789,92
516,38	1718,25
516,57	1677,29
516,77	1660,90
516,97	1746,92
517,17	1712,10
517,37	1634,28
517,57	1775,59
517,77	1716,20
517,97	1669,09
518,17	1728,49
518,37	1675,24
518,57	1683,43
518,77	1769,44
518,97	1626,09
519,16	1683,43
519,36	1796,07
519,56	1718,25
519,76	1734,63
519,96	1730,53
520,16	1800,16
520,36	1691,62
520,56	1796,07
520,76	1710,05
520,96	1730,53
521,16	1839,08
521,35	1824,74
521,55	1800,16
521,75	1732,58
521,95	1691,62
522,15	1726,44
522,35	1705,96
522,55	1652,71
522,75	1810,40
522,95	1673,19
523,14	1783,78
523,34	1828,84
523,54	1687,53
523,74	1806,31
523,94	1810,40
524,14	1665,00
524,34	1681,38
524,54	1798,12
524,73	1701,86
524,93	1720,29
525,13	1740,77
525,33	1677,29
525,53	1814,50
525,73	1800,16
525,93	1759,21
526,13	1640,42
526,32	1724,39
526,52	1746,92
526,72	1759,21
526,92	1665,00
527,12	1662,95
527,32	1722,34
527,52	1808,36
527,71	1767,40
527,91	1757,16
528,11	1712,10
528,31	1683,43
528,51	1679,33
528,71	1775,59
528,90	1716,20
529,10	1814,50
529,30	1734,63
529,50	1609,70
529,70	1765,35
529,90	1763,30
530,09	1703,91
530,29	1591,27
530,49	1701,86
530,69	1816,55
530,89	1720,29
531,09	1882,08
531,28	1753,06
531,48	1720,29
531,68	1728,49
531,88	1732,58
532,08	1738,73
532,28	1714,15
532,47	1753,06
532,67	1779,68
532,87	1748,97
533,07	1691,62
533,27	1888,23
533,46	1775,59
533,66	1697,77
533,86	1726,44
534,06	1695,72
534,26	1685,48
534,45	1759,21
534,65	1714,15
534,85	1759,21
535,05	1697,77
535,25	1791,97
535,44	1673,19
535,64	1673,19
535,84	1796,07
536,04	1720,29
536,24	1734,63
536,43	1714,15
536,63	1785,83
536,83	1677,29
537,03	1679,33
537,22	1697,77
537,42	1708,01
537,62	1675,24
537,82	1673,19
538,02	1748,97
538,21	1802,21
538,41	1847,27
538,61	1728,49
538,81	1736,68
539,00	1818,60
539,20	1650,66
539,40	1740,77
539,60	1779,68
539,79	1779,68
539,99	1693,67
540,19	1656,81
540,39	1820,64
540,58	1691,62
540,78	1796,07
540,98	1722,34
541,18	1689,57
541,37	1779,68
541,57	1724,39
541,77	1800,16
541,97	1634,28
542,16	1660,90
542,36	1662,95
542,56	1734,63
542,76	1818,60
542,95	1726,44
543,15	1767,40
543,35	1787,88
543,54	1671,14
543,74	1714,15
543,94	1757,16
544,14	1658,85
544,33	1775,59
544,53	1724,39
544,73	1703,91
544,93	1732,58
545,12	1781,73
545,32	1699,81
545,52	1736,68
545,71	1687,53
545,91	1703,91
546,11	1697,77
546,30	1734,63
546,50	1742,82
546,70	1740,77
546,90	1726,44
547,09	1650,66
547,29	1767,40
547,49	1763,30
547,68	1685,48
547,88	1675,24
548,08	1730,53
548,27	2195,42
548,47	1652,71
548,67	1679,33
548,87	1773,54
549,06	1746,92
549,26	1693,67
549,46	1763,30
549,65	1726,44
549,85	1744,87
550,05	1789,92
550,24	1660,90
550,44	1773,54
550,64	1718,25
550,83	1738,73
551,03	1798,12
551,23	1818,60
551,42	1777,64
551,62	1708,01
551,82	1767,40
552,01	1773,54
552,21	1798,12
552,41	1802,21
552,60	1804,26
552,80	1724,39
553,00	1738,73
553,19	1771,49
553,39	1816,55
553,59	1665,00
553,78	1714,15
553,98	1767,40
554,17	1726,44
554,37	1757,16
554,57	1771,49
554,76	1611,75
554,96	1740,77
555,16	1775,59
555,35	1736,68
555,55	1695,72
555,75	1736,68
555,94	1740,77
556,14	1681,38
556,33	1658,85
556,53	1730,53
556,73	1787,88
556,92	1816,55
557,12	1841,12
557,32	1794,02
557,51	1763,30
557,71	1763,30
557,90	1796,07
558,10	1816,55
558,30	1726,44
558,49	1705,96
558,69	1744,87
558,88	1816,55
559,08	1804,26
559,28	1753,06
559,47	1726,44
559,67	1736,68
559,86	1791,97
560,06	1689,57
560,26	1748,97
560,45	1783,78
560,65	1761,25
560,84	1748,97
561,04	1734,63
561,24	1722,34
561,43	1671,14
561,63	1785,83
561,82	1746,92
562,02	1759,21
562,22	1624,04
562,41	1609,70
562,61	1757,16
562,80	1708,01
563,00	1892,32
563,19	1734,63
563,39	1789,92
563,59	1781,73
563,78	1662,95
563,98	1691,62
564,17	1748,97
564,37	1650,66
564,56	1767,40
564,76	1683,43
564,96	1882,08
565,15	1789,92
565,35	1759,21
565,54	1724,39
565,74	1841,12
565,93	1826,79
566,13	1746,92
566,32	1722,34
566,52	1740,77
566,71	1691,62
566,91	1818,60
567,11	1726,44
567,30	1736,68
567,50	1765,35
567,69	1767,40
567,89	1755,11
568,08	1755,11
568,28	1726,44
568,47	1769,44
568,67	1685,48
568,86	1718,25
569,06	1849,32
569,25	1714,15
569,45	1681,38
569,64	1685,48
569,84	1761,25
570,04	1800,16
570,23	1695,72
570,43	1720,29
570,62	1736,68
570,82	1808,36
571,01	1738,73
571,21	1658,85
571,40	1687,53
571,60	1746,92
571,79	1753,06
571,99	1724,39
572,18	1708,01
572,38	1751,01
572,57	1724,39
572,77	1820,64
572,96	1861,60
573,16	1798,12
573,35	1791,97
573,55	1828,84
573,74	1740,77
573,94	1736,68
574,13	1720,29
574,33	1826,79
574,52	1826,79
574,71	1755,11
574,91	1769,44
575,10	1667,05
575,30	1748,97
575,49	1689,57
575,69	1683,43
575,88	1775,59
576,08	1718,25
576,27	1820,64
576,47	1710,05
576,66	1898,47
576,86	1814,50
577,05	1701,86
577,25	1751,01
577,44	1773,54
577,64	1714,15
577,83	1773,54
578,02	1736,68
578,22	1812,45
578,41	1773,54
578,61	1650,66
578,80	1570,79
579,00	1703,91
579,19	1755,11
579,39	1773,54
579,58	1789,92
579,77	1763,30
579,97	1791,97
580,16	1814,50
580,36	1849,32
580,55	1837,03
580,75	1740,77
580,94	1748,97
581,13	1822,69
581,33	1853,41
581,52	1728,49
581,72	1791,97
581,91	1822,69
582,11	1675,24
582,30	1787,88
582,49	1800,16
582,69	1830,88
582,88	1781,73
583,08	1763,30
583,27	1763,30
583,47	1794,02
583,66	1718,25
583,85	1716,20
584,05	1710,05
584,24	1818,60
584,44	1773,54
584,63	1753,06
584,82	1837,03
585,02	1855,46
585,21	1841,12
585,41	1781,73
585,60	1722,34
585,79	1898,47
585,99	1914,85
586,18	1910,75
586,37	2156,51
586,57	3469,26
586,76	9936,74
586,96	24825,48
587,15	35007,98
587,34	40818,07
587,54	42706,29
587,73	37086,67
587,93	26736,23
588,12	21946,03
588,31	18499,30
588,51	16387,85
588,70	15372,05
588,89	14440,23
589,09	12719,93
589,28	11054,94
589,47	9377,65
589,67	8140,68
589,86	6485,92
590,06	4925,36
590,25	3932,10
590,44	3041,23
590,64	2615,26
590,83	2365,40
591,02	2054,11
591,22	1959,91
591,41	1916,90
591,60	1824,74
591,80	1935,33
591,99	1691,62
592,18	1736,68
592,38	1875,94
592,57	1751,01
592,76	1814,50
592,96	1818,60
593,15	1767,40
593,34	1861,60
593,54	1722,34
593,73	1738,73
593,92	1724,39
594,12	1759,21
594,31	1783,78
594,50	1888,23
594,70	1767,40
594,89	1875,94
595,08	1669,09
595,28	1804,26
595,47	1990,63
595,66	1787,88
595,86	1611,75
596,05	1730,53
596,24	1681,38
596,43	1820,64
596,63	1865,70
596,82	1775,59
597,01	1759,21
597,21	1861,60
597,40	1849,32
597,59	1734,63
597,79	1755,11
597,98	1724,39
598,17	1789,92
598,36	1759,21
598,56	1767,40
598,75	1705,96
598,94	1730,53
599,14	1689,57
599,33	1675,24
599,52	1832,93
599,71	1738,73
599,91	1794,02
600,10	1773,54
600,29	1722,34
600,48	1789,92
600,68	1804,26
600,87	1710,05
601,06	1710,05
601,26	1755,11
601,45	1740,77
601,64	1683,43
601,83	1757,16
602,03	1687,53
602,22	1589,22
602,41	1802,21
602,60	1855,46
602,80	1716,20
602,99	1806,31
603,18	1738,73
603,37	1724,39
603,57	1742,82
603,76	1675,24
603,95	1839,08
604,14	1736,68
604,34	1615,85
604,53	1722,34
604,72	1753,06
604,91	1900,52
605,10	1824,74
605,30	1732,58
605,49	1816,55
605,68	1843,17
605,87	1791,97
606,07	1740,77
606,26	1740,77
606,45	1791,97
606,64	1736,68
606,84	1712,10
607,03	1708,01
607,22	1757,16
607,41	1703,91
607,60	1748,97
607,80	1824,74
607,99	1746,92
608,18	1728,49
608,37	1785,83
608,56	1751,01
608,76	1796,07
608,95	1808,36
609,14	1708,01
609,33	1787,88
609,52	1728,49
609,72	1693,67
609,91	1724,39
610,10	1742,82
610,29	1722,34
610,48	1812,45
610,68	1746,92
610,87	1746,92
611,06	1755,11
611,25	1656,81
611,44	1722,34
611,63	1765,35
611,83	1839,08
612,02	1683,43
612,21	1820,64
612,40	1603,56
612,59	1722,34
612,79	1724,39
612,98	1732,58
613,17	1751,01
613,36	1771,49
613,55	1863,65
613,74	1677,29
613,93	1714,15
614,13	1761,25
614,32	1710,05
614,51	1761,25
614,70	1673,19
614,89	1650,66
615,08	1742,82
615,28	2047,97
615,47	1677,29
615,66	1730,53
615,85	1728,49
616,04	1748,97
616,23	1726,44
616,42	1796,07
616,62	1759,21
616,81	1716,20
617,00	1673,19
617,19	1734,63
617,38	1677,29
617,57	1718,25
617,76	1718,25
617,95	1767,40
618,15	1763,30
618,34	1759,21
618,53	1718,25
618,72	1736,68
618,91	1800,16
619,10	1779,68
619,29	1689,57
619,48	1755,11
619,68	1685,48
619,87	1708,01
620,06	1636,33
620,25	1787,88
620,44	1703,91
620,63	1744,87
620,82	1701,86
621,01	1728,49
621,20	1646,57
621,39	1738,73
621,59	1726,44
621,78	1761,25
621,97	1742,82
622,16	1779,68
622,35	1736,68
622,54	1787,88
622,73	1753,06
622,92	1669,09
623,11	1820,64
623,30	1714,15
623,49	1759,21
623,68	1654,76
623,88	1781,73
624,07	1705,96
624,26	1687,53
624,45	1699,81
624,64	1644,52
624,83	1748,97
625,02	1642,47
625,21	1759,21
625,40	1751,01
625,59	1775,59
625,78	1751,01
625,97	1724,39
626,16	1837,03
626,35	1748,97
626,54	1656,81
626,74	1738,73
626,93	1617,90
627,12	1662,95
627,31	1808,36
627,50	1746,92
627,69	1765,35
627,88	1660,90
628,07	1693,67
628,26	1648,61
628,45	1568,74
628,64	1566,70
628,83	1656,81
629,02	1634,28
629,21	1857,51
629,40	1730,53
629,59	1677,29
629,78	1771,49
629,97	1726,44
630,16	1746,92
630,35	1689,57
630,54	1730,53
630,73	1671,14
630,92	1681,38
631,11	1673,19
631,30	1677,29
631,49	1722,34
631,68	1718,25
631,87	1775,59
632,06	1691,62
632,25	1828,84
632,44	1746,92
632,63	1685,48
632,82	1722,34
633,01	1656,81
633,20	1703,91
633,39	1722,34
633,58	1597,42
633,77	1728,49
633,96	1703,91
634,15	1728,49
634,34	1800,16
634,53	1751,01
634,72	1783,78
634,91	1685,48
635,10	1773,54
635,29	1703,91
635,48	1697,77
635,67	1644,52
635,86	1679,33
636,05	1736,68
636,24	1705,96
636,43	1703,91
636,62	1783,78
636,81	1597,42
637,00	1734,63
637,19	1742,82
637,38	1748,97
637,57	1656,81
637,76	1722,34
637,95	1755,11
638,14	1656,81
638,33	1697,77
638,52	1644,52
638,71	1681,38
638,89	1667,05
639,08	1865,70
639,27	1794,02
639,46	1691,62
639,65	1755,11
639,84	1761,25
640,03	1730,53
640,22	1705,96
640,41	1904,61
640,60	1658,85
640,79	1652,71
640,98	1736,68
641,17	1724,39
641,36	1675,24
641,55	1751,01
641,74	1634,28
641,92	1632,23
642,11	1566,70
642,30	1730,53
642,49	1722,34
642,68	1673,19
642,87	1773,54
643,06	1701,86
643,25	1722,34
643,44	1693,67
643,63	1689,57
643,82	1755,11
644,00	1587,18
644,19	1705,96
644,38	1638,38
644,57	1841,12
644,76	1667,05
644,95	1703,91
645,14	1691,62
645,33	1689,57
645,52	1730,53
645,71	1636,33
645,89	1630,18
646,08	1773,54
646,27	1751,01
646,46	1869,80
646,65	1652,71
646,84	1689,57
647,03	1644,52
647,22	1730,53
647,40	1722,34
647,59	1685,48
647,78	1695,72
647,97	1617,90
648,16	1689,57
648,35	1845,22
648,54	1726,44
648,73	1771,49
648,91	1763,30
649,10	1767,40
649,29	1705,96
649,48	1675,24
649,67	1603,56
649,86	1701,86
650,05	1640,42
650,23	1748,97
650,42	1689,57
650,61	1644,52
650,80	1650,66
650,99	1791,97
651,18	1761,25
651,36	1738,73
651,55	1615,85
651,74	1744,87
651,93	1652,71
652,12	1681,38
652,31	1720,29
652,49	1734,63
652,68	1636,33
652,87	1753,06
653,06	1722,34
653,25	1880,04
653,44	1722,34
653,62	1837,03
653,81	1660,90
654,00	1746,92
654,19	1699,81
654,38	1880,04
654,56	1767,40
654,75	1669,09
654,94	1798,12
655,13	1679,33
655,32	1728,49
655,51	1794,02
655,69	1662,95
655,88	1769,44
656,07	1636,33
656,26	1757,16
656,45	1624,04
656,63	1697,77
656,82	1734,63
657,01	1656,81
657,20	1615,85
657,38	1722,34
657,57	1695,72
657,76	1695,72
657,95	1718,25
658,14	1720,29
658,32	1753,06
658,51	1626,09
658,70	1710,05
658,89	1751,01
659,08	1751,01
659,26	1800,16
659,45	1615,85
659,64	1722,34
659,83	1660,90
660,01	1853,41
660,20	1650,66
660,39	1865,70
660,58	1617,90
660,76	1716,20
660,95	1624,04
661,14	1742,82
661,33	1689,57
661,51	1726,44
661,70	1628,14
661,89	1710,05
662,08	1693,67
662,26	1630,18
662,45	1673,19
662,64	1767,40
662,83	1806,31
663,01	1624,04
663,20	1660,90
663,39	1767,40
663,58	1654,76
663,76	1742,82
663,95	1753,06
664,14	1665,00
664,32	1755,11
664,51	1656,81
664,70	1632,23
664,89	1769,44
665,07	1628,14
665,26	1748,97
665,45	1636,33
665,64	1767,40
665,82	1697,77
666,01	1794,02
666,20	1656,81
666,38	1845,22
666,57	1818,60
666,76	2199,52
666,95	4429,76
667,13	10524,51
667,32	15310,61
667,51	18095,85
667,69	19271,39
667,88	17893,10
668,07	12504,90
668,25	9768,81
668,44	8198,02
668,63	7432,08
668,81	6799,26
669,00	6363,04
669,19	5783,46
669,38	5109,68
669,56	4554,68
669,75	3977,16
669,94	3465,16
670,12	2908,12
670,31	2588,63
670,50	2211,81
670,68	2023,39
670,87	1877,99
671,06	1841,12
671,24	1812,45
671,43	1865,70
671,62	1746,92
671,80	1667,05
671,99	1732,58
672,18	1726,44
672,36	1787,88
672,55	1740,77
672,74	1714,15
672,92	1765,35
673,11	1757,16
673,29	1708,01
673,48	1730,53
673,67	1697,77
673,85	1787,88
674,04	1732,58
674,23	1816,55
674,41	1787,88
674,60	1697,77
674,79	1675,24
674,97	1648,61
675,16	1695,72
675,34	1775,59
675,53	1607,66
675,72	1728,49
675,90	1783,78
676,09	1757,16
676,28	1740,77
676,46	1558,50
676,65	1771,49
676,83	1669,09
677,02	1755,11
677,21	1689,57
677,39	1777,64
677,58	1621,99
677,77	1724,39
677,95	1632,23
678,14	1728,49
678,32	1759,21
678,51	1689,57
678,70	1847,27
678,88	1667,05
679,07	1777,64
679,25	1671,14
679,44	1765,35
679,63	1613,80
679,81	1687,53
680,00	1771,49
680,18	1671,14
680,37	1751,01
680,55	1716,20
680,74	1607,66
680,93	1671,14
681,11	1734,63
681,30	1736,68
681,48	1710,05
681,67	1703,91
681,85	1697,77
682,04	1642,47
682,23	1781,73
682,41	1734,63
682,60	1638,38
682,78	1693,67
682,97	1638,38
683,15	1751,01
683,34	1720,29
683,53	1781,73
683,71	1640,42
683,90	1863,65
684,08	1810,40
684,27	1665,00
684,45	1701,86
684,64	1738,73
684,82	1570,79
685,01	1757,16
685,19	1726,44
685,38	1763,30
685,57	1722,34
685,75	1681,38
685,94	1681,38
686,12	1677,29
686,31	1695,72
686,49	1855,46
686,68	1619,94
686,86	1794,02
687,05	1681,38
687,23	1796,07
687,42	1705,96
687,60	1607,66
687,79	1818,60
687,97	1755,11
688,16	1773,54
688,34	1771,49
688,53	1687,53
688,71	1742,82
688,90	1710,05
689,08	1705,96
689,27	1597,42
689,45	1771,49
689,64	1744,87
689,82	1712,10
690,01	1648,61
690,19	1650,66
690,38	1746,92
690,56	1783,78
690,75	1667,05
690,93	1773,54
691,12	1658,85
691,30	1718,25
691,49	1644,52
691,67	1683,43
691,86	1765,35
692,04	1576,94
692,23	1648,61
692,41	1759,21
692,60	1810,40
692,78	1763,30
692,97	1712,10
693,15	1773,54
693,34	1765,35
693,52	1730,53
693,71	1763,30
693,89	1611,75
694,08	1617,90
694,26	1722,34
694,44	1751,01
694,63	1759,21
694,81	1634,28
695,00	1697,77
695,18	1796,07
695,37	1718,25
695,55	1726,44
695,74	1783,78
695,92	1679,33
696,10	1798,12
696,29	1591,27
696,47	1660,90
696,66	1767,40
696,84	1470,44
697,03	1708,01
697,21	1869,80
697,40	2320,35
697,58	1763,30
697,76	1816,55
697,95	1730,53
698,13	1665,00
698,32	1648,61
698,50	1728,49
698,68	1779,68
698,87	1654,76
699,05	1783,78
699,24	1652,71
699,42	1683,43
699,61	1691,62
699,79	1734,63
699,97	1697,77
700,16	1634,28
700,34	1665,00
700,53	1710,05
700,71	1763,30
700,89	1710,05
701,08	1740,77
701,26	1718,25
701,45	2074,59
701,63	1638,38
701,81	1705,96
702,00	1710,05
702,18	1687,53
702,37	1718,25
702,55	1808,36
702,73	1718,25
702,92	1609,70
703,10	1748,97
703,28	1705,96
703,47	1658,85
703,65	1759,21
703,84	1751,01
704,02	1634,28
704,20	1779,68
704,39	1656,81
704,57	1652,71
704,75	1804,26
704,94	1738,73
705,12	1759,21
705,30	1814,50
705,49	2232,29
705,67	4487,10
705,86	9494,38
706,04	12687,17
706,22	14741,28
706,41	15314,71
706,59	14155,56
706,77	9793,39
706,96	7501,71
707,14	6756,25
707,32	5935,01
707,51	5736,36
707,69	4980,66
707,87	4196,29
708,06	3516,36
708,24	2953,17
708,42	2396,12
708,61	2269,15
708,79	1863,65
708,97	1908,71
709,16	1804,26
709,34	1730,53
709,52	1740,77
709,71	1691,62
709,89	1734,63
710,07	1615,85
710,26	1626,09
710,44	1667,05
710,62	1785,83
710,80	1681,38
710,99	1796,07
711,17	1816,55
711,35	1695,72
711,54	1656,81
711,72	1779,68
711,90	1730,53
712,09	1744,87
712,27	1689,57
712,45	1757,16
712,63	1679,33
712,82	1757,16
713,00	1722,34
713,18	1763,30
713,37	1718,25
713,55	1687,53
713,73	1716,20
713,91	1783,78
714,10	1673,19
714,28	1611,75
714,46	1724,39
714,65	1736,68
714,83	1689,57
715,01	1732,58
715,19	1744,87
715,38	1628,14
715,56	1685,48
715,74	1642,47
715,92	1597,42
716,11	1767,40
716,29	1673,19
716,47	1703,91
716,65	1703,91
716,84	1626,09
717,02	1720,29
717,20	1667,05
717,38	1665,00
717,57	1761,25
717,75	1619,94
717,93	1724,39
718,11	1779,68
718,30	1671,14
718,48	1746,92
718,66	1806,31
718,84	1720,29
719,03	1671,14
719,21	1642,47
719,39	1796,07
719,57	1785,83
719,75	1734,63
719,94	1658,85
720,12	1648,61
720,30	1708,01
720,48	1728,49
720,67	1665,00
720,85	1601,51
721,03	1652,71
721,21	1611,75
721,39	1673,19
721,58	1740,77
721,76	1730,53
721,94	1755,11
722,12	1722,34
722,30	1724,39
722,49	1738,73
722,67	1732,58
722,85	1705,96
723,03	1652,71
723,21	1697,77
723,40	1781,73
723,58	1746,92
723,76	1724,39
723,94	1832,93
724,12	1615,85
724,30	1787,88
724,49	1785,83
724,67	1662,95
724,85	1796,07
725,03	1554,41
725,21	1699,81
725,40	1730,53
725,58	1656,81
725,76	1765,35
725,94	1595,37
726,12	1603,56
726,30	1628,14
726,49	1775,59
726,67	1609,70
726,85	1687,53
727,03	1785,83
727,21	2115,55
727,39	2934,74
727,57	3852,23
727,76	4179,90
727,94	4390,84
728,12	4356,03
728,30	3655,62
728,48	3074,00
728,66	2748,37
728,84	2574,30
729,03	2375,64
729,21	2131,94
729,39	1994,72
729,57	1834,98
729,75	1800,16
729,93	1722,34
730,11	1759,21
730,30	1738,73
730,48	1656,81
730,66	1834,98
730,84	1693,67
731,02	1714,15
731,20	1646,57
731,38	1644,52
731,56	1621,99
731,74	1617,90
731,93	1753,06
732,11	1724,39
732,29	1691,62
732,47	1640,42
732,65	1654,76
732,83	1779,68
733,01	1748,97
733,19	1677,29
733,37	1742,82
733,56	1712,10
733,74	1710,05
733,92	1736,68
734,10	1724,39
734,28	1767,40
734,46	1605,61
734,64	1701,86
734,82	1738,73
735,00	1673,19
735,18	1726,44
735,36	1789,92
735,54	1658,85
735,73	1705,96
735,91	1800,16
736,09	1771,49
736,27	1742,82
736,45	1744,87
736,63	1599,46
736,81	1642,47
736,99	1808,36
737,17	1814,50
737,35	1697,77
737,53	1710,05
737,71	1634,28
737,89	1775,59
738,07	1632,23
738,25	1705,96
738,43	1615,85
738,61	1710,05
738,80	1652,71
738,98	1701,86
739,16	1665,00
739,34	1656,81
739,52	1734,63
739,70	1677,29
739,88	1769,44
740,06	1746,92
740,24	1593,32
740,42	1714,15
740,60	1632,23
740,78	1603,56
740,96	1630,18
741,14	1626,09
741,32	1722,34
741,50	1681,38
741,68	1796,07
741,86	1871,84
742,04	1669,09
742,22	1576,94
742,40	1767,40
742,58	1734,63
742,76	1613,80
742,94	1710,05
743,12	1714,15
743,30	1673,19
743,48	1703,91
743,66	1648,61
743,84	1753,06
744,02	1681,38
744,20	1718,25
744,38	1605,61
744,56	1675,24
744,74	1851,36
744,92	1740,77
745,10	1783,78
745,28	1681,38
745,46	1845,22
745,64	1675,24
745,82	1775,59
746,00	1726,44
746,18	1759,21
746,36	1652,71
746,54	1718,25
746,72	1697,77
746,90	1626,09
747,08	1724,39
747,26	1673,19
747,44	1742,82
747,62	1781,73
747,80	1681,38
747,98	1693,67
748,15	1650,66
748,33	1810,40
748,51	1740,77
748,69	1734,63
748,87	1748,97
749,05	1726,44
749,23	1595,37
749,41	1701,86
749,59	1716,20
749,77	1730,53
749,95	1689,57
750,13	1677,29
750,31	1703,91
750,49	1691,62
750,67	1753,06
750,85	1812,45
751,03	1728,49
751,20	1734,63
751,38	1736,68
751,56	1605,61
751,74	1691,62
751,92	1658,85
752,10	1617,90
752,28	1757,16
752,46	1685,48
752,64	1748,97
752,82	1675,24
753,00	1804,26
753,18	1650,66
753,35	1640,42
753,53	1673,19
753,71	1710,05
753,89	1667,05
754,07	1626,09
754,25	1701,86
754,43	1679,33
754,61	1560,55
754,79	1716,20
754,97	1722,34
755,14	1820,64
755,32	1615,85
755,50	1712,10
755,68	1685,48
755,86	1615,85
756,04	1621,99
756,22	1564,65
756,40	1785,83
756,57	1785,83
756,75	1673,19
756,93	1818,60
757,11	1771,49
757,29	1744,87
757,47	1669,09
757,65	1624,04
757,82	1587,18
758,00	1652,71
758,18	1699,81
758,36	1605,61
758,54	1855,46
758,72	1630,18
758,90	1771,49
759,07	1748,97
759,25	1630,18
759,43	1689,57
759,61	1636,33
759,79	2203,61
759,97	1740,77
760,15	1644,52
760,32	1654,76
760,50	1757,16
760,68	1812,45
760,86	1642,47
761,04	1781,73
761,22	1714,15
761,39	1722,34
761,57	1705,96
761,75	1703,91
761,93	1705,96
762,11	1722,34
762,28	1718,25
762,46	1685,48
762,64	1716,20
762,82	1687,53
763,00	1722,34
763,18	1828,84
763,35	1662,95
763,53	1769,44
763,71	1716,20
763,89	1726,44
764,07	1722,34
764,24	1701,86
764,42	1808,36
764,60	1718,25
764,78	1767,40
764,96	1748,97
765,13	1757,16
765,31	1708,01
765,49	1808,36
765,67	1650,66
765,84	1648,61
766,02	1669,09
766,20	1599,46
766,38	1740,77
766,56	1740,77
766,73	1783,78
766,91	1630,18
767,09	1697,77
767,27	1755,11
767,44	1599,46
767,62	1699,81
767,80	1673,19
767,98	1724,39
768,15	1660,90
768,33	1751,01
768,51	1736,68
768,69	1734,63
768,87	1771,49
769,04	1802,21
769,22	1818,60
769,40	1820,64
769,58	1871,84
769,75	1716,20
769,93	1759,21
770,11	1708,01
770,28	1634,28
770,46	1736,68
770,64	1730,53
770,82	1744,87
770,99	1730,53
771,17	1775,59
771,35	1701,86
771,53	1603,56
771,70	1658,85
771,88	1771,49
772,06	1705,96
772,23	1673,19
772,41	1730,53
772,59	1665,00
772,77	1662,95
772,94	1714,15
773,12	1726,44
773,30	1705,96
773,47	1751,01
773,65	1632,23
773,83	1834,98
774,01	1748,97
774,18	1634,28
774,36	1621,99
774,54	1687,53
774,71	1669,09
774,89	1671,14
775,07	1640,42
775,24	1720,29
775,42	1671,14
775,60	1714,15
775,78	1648,61
775,95	1587,18
776,13	1728,49
776,31	1558,50
776,48	1687,53
776,66	1773,54
776,84	1687,53
777,01	1646,57
777,19	1640,42
777,37	1660,90
777,54	1765,35
777,72	1755,11
777,90	1712,10
778,07	1710,05
778,25	1861,60
778,43	1732,58
778,60	1640,42
778,78	1800,16
778,96	1816,55
779,13	1617,90
779,31	1726,44
779,49	1773,54
779,66	1673,19
779,84	1673,19
780,01	1701,86
780,19	1656,81
780,37	1775,59
780,54	1783,78
780,72	1662,95
780,90	1699,81
781,07	1746,92
781,25	1705,96
781,43	1820,64
781,60	1757,16
781,78	1771,49
781,95	1681,38
782,13	1642,47
782,31	1701,86
782,48	1560,55
782,66	1748,97
782,83	1787,88
783,01	1724,39
783,19	1771,49
783,36	1658,85
783,54	1611,75
783,72	1759,21
783,89	1722,34
784,07	1730,53
784,24	1736,68
784,42	1796,07
784,60	1679,33
784,77	1697,77
784,95	1554,41
785,12	1712,10
785,30	1701,86
785,47	1570,79
785,65	1703,91
785,83	1708,01
786,00	1667,05
786,18	1677,29
786,35	1609,70
786,53	1615,85
786,71	1746,92
786,88	1755,11
787,06	1785,83
787,23	1658,85
787,41	1640,42
787,58	1656,81
787,76	1691,62
787,94	1720,29
788,11	1726,44
788,29	1646,57
788,46	1703,91
788,64	1634,28
788,81	1599,46
788,99	1638,38
789,16	1697,77
789,34	1710,05
789,52	1681,38
789,69	1611,75
789,87	1660,90
790,04	1710,05
790,22	1718,25
790,39	1822,69
790,57	1658,85
790,74	1693,67
790,92	1705,96
791,09	1642,47
791,27	1724,39
791,44	1773,54
791,62	1730,53
791,79	1691,62
791,97	1722,34
792,15	1863,65
792,32	1759,21
792,50	1789,92
792,67	1875,94
792,85	1771,49
793,02	1677,29
793,20	1652,71
793,37	1619,94
793,55	1662,95
793,72	1697,77
793,90	1748,97
794,07	1687,53
794,25	1654,76
794,42	1734,63
794,60	1656,81
794,77	1705,96
794,95	1689,57
795,12	1685,48
795,30	1644,52
795,47	1654,76
795,65	1882,08
795,82	1677,29
796,00	1638,38
796,17	1685,48
796,34	1634,28
796,52	1726,44
796,69	1734,63
796,87	1732,58
797,04	1673,19
797,22	1841,12
797,39	1705,96
797,57	1742,82
797,74	1742,82
797,92	1699,81
798,09	1673,19
798,27	1734,63
798,44	1687,53
798,62	1652,71
798,79	1738,73
798,96	1718,25
799,14	1691,62
799,31	1800,16
799,49	1677,29
799,66	1718,25
799,84	1736,68
800,01	1583,08
800,19	1765,35
800,36	1576,94
800,53	1767,40
800,71	1716,20
800,88	1767,40
801,06	1738,73
801,23	1654,76
801,41	1699,81
801,58	1671,14
801,75	1665,00
801,93	1718,25
802,10	1746,92
802,28	1624,04
802,45	1744,87
802,63	1755,11
802,80	1771,49
802,97	1687,53
803,15	1679,33
803,32	1630,18
803,50	1638,38
803,67	1658,85
803,84	1685,48
804,02	1681,38
804,19	1695,72
804,37	1640,42
804,54	1660,90
804,71	1638,38
804,89	1662,95
805,06	1626,09
805,24	1662,95
805,41	1632,23
805,58	1613,80
805,76	1937,38
805,93	1697,77
806,10	1804,26
806,28	1689,57
806,45	1673,19
806,63	1714,15
806,80	1648,61
806,97	1763,30
807,15	1652,71
807,32	1665,00
807,49	1761,25
807,67	1681,38
807,84	1734,63
808,01	1607,66
808,19	1804,26
808,36	1828,84
808,54	1609,70
808,71	1652,71
808,88	1718,25
809,06	1708,01
809,23	1863,65
809,40	1636,33
809,58	1755,11
809,75	1697,77
809,92	1740,77
810,10	1755,11
810,27	1691,62
810,44	1654,76
810,62	1636,33
810,79	1783,78
810,96	1703,91
811,14	1626,09
811,31	1722,34
811,48	1740,77
811,66	1683,43
811,83	1759,21
812,00	1699,81
812,18	1720,29
812,35	1824,74
812,52	1585,13
812,69	1691,62
812,87	1654,76
813,04	1650,66
813,21	1712,10
813,39	1648,61
813,56	1615,85
813,73	1740,77
813,91	1646,57
814,08	1712,10
814,25	1695,72
814,42	1611,75
814,60	1683,43
814,77	1701,86
814,94	1767,40
815,12	1718,25
815,29	1751,01
815,46	1589,22
815,63	1708,01
815,81	1667,05
815,98	1656,81
816,15	1697,77
816,33	1650,66
816,50	1699,81
816,67	1669,09
816,84	1708,01
817,02	1566,70
817,19	1708,01
817,36	1681,38
817,53	1697,77
817,71	1624,04
817,88	1841,12
818,05	1710,05
818,22	1648,61
818,40	1730,53
818,57	1708,01
818,74	1617,90
818,91	1640,42
819,09	1732,58
819,26	1746,92
819,43	1609,70
819,60	1665,00
819,78	1646,57
819,95	1757,16
820,12	1599,46
820,29	1880,04
820,47	1753,06
820,64	1634,28
820,81	1601,51
820,98	1714,15
821,15	1714,15
821,33	1775,59
821,50	1654,76
821,67	1718,25
821,84	1617,90
822,02	1716,20
822,19	1728,49
822,36	1685,48
822,53	1671,14
822,70	1593,32
822,88	1611,75
823,05	1802,21
823,22	1722,34
823,39	1738,73
823,56	1718,25
823,74	1748,97
823,91	1564,65
824,08	1548,26
824,25	1648,61
824,42	1814,50
824,60	1662,95
824,77	1755,11
824,94	1679,33
825,11	1738,73
825,28	1615,85
825,45	1773,54
825,63	1652,71
825,80	1587,18
825,97	1697,77
826,14	1738,73
826,31	1601,51
826,48	1773,54
826,66	1681,38
826,83	1652,71
827,00	1734,63
827,17	1644,52
827,34	1779,68
827,51	1654,76
827,69	1671,14
827,86	1669,09
828,03	1634,28
828,20	1818,60
828,37	1693,67
828,54	1718,25
828,71	1570,79
828,89	1822,69
829,06	1734,63
829,23	1742,82
829,40	1689,57
829,57	1718,25
829,74	1691,62
829,91	1679,33
830,09	1634,28
830,26	1755,11
830,43	1769,44
830,60	1679,33
830,77	1746,92
830,94	1685,48
831,11	1728,49
831,28	1701,86
831,46	1718,25
831,63	1703,91
831,80	1746,92
831,97	1703,91
832,14	1691,62
832,31	1779,68
832,48	1691,62
832,65	1832,93
832,82	1697,77
832,99	1730,53
833,17	1701,86
833,34	1820,64
833,51	1794,02
833,68	1599,46
833,85	1732,58
834,02	1638,38
834,19	1599,46
834,36	1697,77
834,53	1615,85
834,70	1751,01
834,87	1748,97
835,04	1742,82
835,22	1658,85
835,39	1640,42
835,56	1689,57
835,73	1705,96
835,90	1812,45
836,07	1634,28
836,24	1763,30
836,41	1677,29
836,58	1665,00
836,75	1779,68
836,92	1718,25
837,09	1632,23
837,26	1718,25
837,43	1761,25
837,60	1693,67
837,77	1691,62
837,94	1683,43
838,12	1814,50
838,29	1685,48
838,46	1591,27
838,63	1595,37
838,80	1832,93
838,97	1781,73
839,14	1662,95
839,31	1767,40
839,48	1665,00
839,65	1632,23
839,82	1845,22
839,99	1695,72
840,16	1734,63
840,33	1636,33
840,50	1755,11
840,67	1566,70
840,84	1648,61
841,01	1662,95
841,18	1599,46
841,35	1650,66
841,52	1763,30
841,69	1814,50
841,86	1685,48
842,03	1695,72
842,20	1726,44
842,37	1642,47
842,54	1705,96
842,71	1722,34
842,88	1574,89
843,05	1720,29
843,22	1716,20
843,39	1720,29
843,56	1687,53
843,73	1742,82
843,90	1708,01
844,07	1650,66
844,24	1757,16
844,41	1744,87
844,58	1746,92
844,75	1775,59
844,92	1703,91
845,09	1763,30
845,26	1691,62
845,43	1787,88
845,60	1751,01
845,77	1740,77
845,94	1751,01
846,10	1740,77
846,27	1654,76
846,44	1650,66
846,61	1691,62
846,78	1773,54
846,95	1767,40
847,12	1677,29
847,29	1708,01
847,46	1624,04
847,63	1718,25
847,80	1665,00
847,97	1605,61
848,14	1785,83
848,31	1697,77
848,48	1628,14
848,65	1656,81
848,82	1644,52
848,98	1849,32
849,15	1765,35
849,32	1783,78
849,49	1673,19
849,66	1685,48
849,83	1671,14
850,00	1644,52
850,17	1777,64
850,34	1720,29
850,51	1595,37
850,68	1695,72
850,85	1812,45
851,01	1701,86
851,18	1730,53
851,35	1705,96
851,52	1722,34
851,69	1802,21
851,86	1574,89
852,03	1671,14
852,20	1730,53
852,37	1689,57
852,53	1533,93
852,70	1652,71
852,87	1810,40
853,04	1800,16
853,21	1701,86
853,38	1744,87
853,55	1736,68
853,72	1771,49
853,89	1660,90
854,05	1689,57
854,22	1665,00
854,39	1624,04
854,56	1722,34
854,73	1714,15
854,90	1644,52
855,07	1699,81
855,23	1662,95
855,40	1703,91
855,57	1615,85
855,74	1578,98
855,91	1871,84
856,08	1701,86
856,25	1642,47
856,41	1634,28
856,58	1673,19
856,75	1718,25
856,92	1589,22
857,09	1787,88
857,26	1632,23
857,42	1742,82
857,59	1701,86
857,76	1673,19
857,93	1755,11
858,10	1779,68
858,27	1669,09
858,43	1699,81
858,60	1695,72
858,77	1636,33
858,94	1650,66
859,11	1744,87
859,27	1689,57
859,44	1624,04
859,61	1875,94
859,78	1732,58
859,95	1554,41
860,12	1632,23
860,28	1785,83
860,45	1785,83
860,62	1650,66
860,79	1673,19
860,95	1701,86
861,12	1677,29
861,29	1642,47
861,46	1611,75
861,63	1667,05
861,79	1697,77
861,96	1708,01
862,13	1714,15
862,30	1775,59
862,47	1652,71
862,63	1728,49
862,80	1771,49
862,97	1775,59
863,14	1767,40
863,30	1771,49
863,47	1708,01
863,64	1740,77
863,81	1681,38
863,97	1714,15
864,14	1703,91
864,31	1658,85
864,48	1679,33
864,65	1667,05
864,81	1746,92
864,98	1714,15
865,15	1695,72
865,32	1724,39
865,48	1789,92
865,65	1796,07
865,82	1673,19
865,98	1695,72
866,15	1773,54
866,32	1636,33
866,49	1722,34
866,65	1687,53
866,82	1566,70
866,99	1662,95
867,16	1644,52
867,32	1665,00
867,49	1642,47
867,66	1654,76
867,83	1685,48
867,99	1583,08
868,16	1675,24
868,33	1630,18
868,49	1650,66
868,66	1740,77
868,83	1734,63
868,99	1726,44
869,16	1683,43
869,33	1757,16
869,50	1773,54
869,66	1701,86
869,83	1705,96
870,00	1683,43
870,16	1638,38
870,33	1699,81
870,50	1771,49
870,66	1769,44
870,83	1794,02
871,00	1662,95
871,17	1722,34
871,33	1798,12
871,50	1642,47
871,67	1667,05
871,83	1646,57
872,00	1791,97
872,17	1644,52
872,33	1757,16
872,50	1783,78
872,67	1683,43
872,83	1687,53
873,00	1722,34
873,17	1658,85
873,33	1734,63
873,50	1798,12
873,67	1673,19
873,83	1748,97
874,00	1724,39
874,16	1759,21
874,33	1662,95
874,50	1615,85
874,66	1742,82
874,83	1667,05
875,00	1761,25
875,16	1691,62
875,33	1812,45
875,50	1650,66
875,66	1689,57
875,83	1730,53
875,99	1779,68
876,16	1736,68
876,33	1660,90
876,49	1683,43
876,66	1724,39
876,83	1679,33
876,99	1621,99
877,16	1652,71
877,32	1708,01
877,49	1703,91
877,66	1671,14
877,82	1732,58
877,99	1724,39
878,15	1746,92
878,32	1728,49
878,49	1757,16
878,65	1675,24
878,82	1763,30
878,98	1656,81
879,15	1751,01
879,32	1779,68
879,48	1712,10
879,65	1677,29
879,81	1570,79
879,98	1669,09
880,15	1628,14
880,31	1767,40
880,48	1638,38
880,64	1755,11
880,81	1751,01
880,97	1730,53
881,14	1685,48
881,31	1679,33
881,47	1794,02
881,64	1636,33
881,80	1601,51
881,97	1759,21
882,13	1744,87
882,30	1619,94
882,47	1638,38
882,63	1630,18
882,80	1677,29
882,96	1677,29
883,13	1708,01
883,29	1685,48
883,46	1701,86
883,62	1783,78
883,79	1689,57
883,95	1705,96
884,12	1689,57
884,29	1724,39
884,45	1718,25
884,62	1714,15
884,78	1699,81
884,95	1787,88
885,11	1703,91
885,28	1720,29
885,44	1701,86
885,61	1722,34
885,77	1775,59
885,94	1699,81
886,10	1708,01
886,27	1730,53
886,43	1822,69
886,60	1783,78
886,76	1644,52
886,93	1671,14
887,09	1683,43
887,26	1636,33
887,42	1654,76
887,59	1789,92
887,75	1826,79
887,92	1757,16
888,08	1728,49
888,25	1822,69
888,41	1714,15
888,58	1783,78
888,74	1648,61
888,91	1646,57
>>>>>End Processed Spectral Data<<<<<
