SpectraSuite Data File
++++++++++++++++++++++++++++++++++++
Date: Mon Jun 06 13:44:17 CEST 2016
User: root
Dark Spectrum Present: No
Reference Spectrum Present: No
Number of Sampled Component Spectra: 1
Spectrometers: USB4C02835
Integration Time (usec): 100000 (USB4C02835)
Spectra Averaged: 1 (USB4C02835)
Boxcar Smoothing: 0 (USB4C02835)
Correct for Electrical Dark: No (USB4C02835)
Strobe/Lamp Enabled: No (USB4C02835)
Correct for Detector Non-linearity: No (USB4C02835)
Correct for Stray Light: No (USB4C02835)
Number of Pixels in Processed Spectrum: 3648
>>>>>Begin Processed Spectral Data<<<<<
177,47	1449,96
177,69	1449,96
177,91	1449,96
178,13	1435,63
178,36	1433,58
178,58	1648,61
178,80	1738,73
179,02	1636,33
179,24	1665,00
179,46	1673,19
179,68	1837,03
179,90	1640,42
180,13	1675,24
180,35	1626,09
180,57	1708,01
180,79	1650,66
181,01	1730,53
181,23	1789,92
181,45	1730,53
181,67	1738,73
181,90	1765,35
182,12	1718,25
182,34	1636,33
182,56	1726,44
182,78	1691,62
183,00	1703,91
183,22	1673,19
183,44	1611,75
183,66	1800,16
183,89	1726,44
184,11	1687,53
184,33	1746,92
184,55	1828,84
184,77	1751,01
184,99	1783,78
185,21	1652,71
185,43	1824,74
185,65	1578,98
185,87	1740,77
186,10	1751,01
186,32	1761,25
186,54	1734,63
186,76	1681,38
186,98	1777,64
187,20	1665,00
187,42	1695,72
187,64	1775,59
187,86	1689,57
188,08	1714,15
188,30	1675,24
188,52	1667,05
188,75	1769,44
188,97	1796,07
189,19	1632,23
189,41	1742,82
189,63	1710,05
189,85	1726,44
190,07	1617,90
190,29	1632,23
190,51	1687,53
190,73	1658,85
190,95	1746,92
191,17	1724,39
191,39	1626,09
191,61	1689,57
191,84	1648,61
192,06	1757,16
192,28	1665,00
192,50	1875,94
192,72	1748,97
192,94	1708,01
193,16	1796,07
193,38	1669,09
193,60	1613,80
193,82	1628,14
194,04	1665,00
194,26	1734,63
194,48	1675,24
194,70	1640,42
194,92	1677,29
195,14	1761,25
195,36	1662,95
195,58	1708,01
195,80	1724,39
196,02	1652,71
196,24	1681,38
196,46	1800,16
196,69	1585,13
196,91	1863,65
197,13	1665,00
197,35	1652,71
197,57	1794,02
197,79	1722,34
198,01	1665,00
198,23	1718,25
198,45	1777,64
198,67	1687,53
198,89	1722,34
199,11	1642,47
199,33	1695,72
199,55	1568,74
199,77	1681,38
199,99	1724,39
200,21	1695,72
200,43	1705,96
200,65	1554,41
200,87	1581,03
201,09	1648,61
201,31	1642,47
201,53	1724,39
201,75	1744,87
201,97	1691,62
202,19	1687,53
202,41	1761,25
202,63	1828,84
202,85	1751,01
203,07	1722,34
203,29	1656,81
203,51	1611,75
203,73	1673,19
203,95	1841,12
204,17	1699,81
204,39	1755,11
204,61	1685,48
204,83	1722,34
205,05	1734,63
205,27	1763,30
205,49	1757,16
205,71	1714,15
205,93	1585,13
206,15	1609,70
206,37	1669,09
206,59	1656,81
206,81	1652,71
207,03	1683,43
207,25	1669,09
207,47	1779,68
207,69	1656,81
207,91	1675,24
208,13	1720,29
208,34	1675,24
208,56	1634,28
208,78	1695,72
209,00	1660,90
209,22	1683,43
209,44	1689,57
209,66	1712,10
209,88	1671,14
210,10	1714,15
210,32	1654,76
210,54	1771,49
210,76	1675,24
210,98	1798,12
211,20	1550,31
211,42	1724,39
211,64	1763,30
211,86	1718,25
212,08	1675,24
212,30	1691,62
212,52	1710,05
212,74	1755,11
212,96	1703,91
213,17	1716,20
213,39	1740,77
213,61	1794,02
213,83	1697,77
214,05	1632,23
214,27	1767,40
214,49	1640,42
214,71	1617,90
214,93	1804,26
215,15	1671,14
215,37	1708,01
215,59	1617,90
215,81	1669,09
216,03	1798,12
216,24	1652,71
216,46	1726,44
216,68	1726,44
216,90	1728,49
217,12	1789,92
217,34	1689,57
217,56	1736,68
217,78	1783,78
218,00	1687,53
218,22	1699,81
218,44	1716,20
218,66	1658,85
218,87	1734,63
219,09	1671,14
219,31	1718,25
219,53	1697,77
219,75	1640,42
219,97	1683,43
220,19	1705,96
220,41	1710,05
220,63	1775,59
220,85	1732,58
221,06	1662,95
221,28	1765,35
221,50	1771,49
221,72	1689,57
221,94	1697,77
222,16	1689,57
222,38	1796,07
222,60	1710,05
222,82	1697,77
223,03	1740,77
223,25	1699,81
223,47	1775,59
223,69	1720,29
223,91	1673,19
224,13	1763,30
224,35	1667,05
224,57	1736,68
224,78	1665,00
225,00	1697,77
225,22	1697,77
225,44	1656,81
225,66	1751,01
225,88	1714,15
226,10	1705,96
226,32	1677,29
226,53	1791,97
226,75	1656,81
226,97	1708,01
227,19	1642,47
227,41	1693,67
227,63	1693,67
227,85	1646,57
228,06	1701,86
228,28	1755,11
228,50	1810,40
228,72	1679,33
228,94	1669,09
229,16	1650,66
229,37	1644,52
229,59	1624,04
229,81	1650,66
230,03	1712,10
230,25	1683,43
230,47	1708,01
230,69	1607,66
230,90	1736,68
231,12	1675,24
231,34	1734,63
231,56	1740,77
231,78	1615,85
232,00	1665,00
232,21	1710,05
232,43	1708,01
232,65	1634,28
232,87	1740,77
233,09	1667,05
233,30	1722,34
233,52	1726,44
233,74	1701,86
233,96	1710,05
234,18	1648,61
234,40	1738,73
234,61	1746,92
234,83	1628,14
235,05	1595,37
235,27	1824,74
235,49	1843,17
235,70	1691,62
235,92	1796,07
236,14	1675,24
236,36	1853,41
236,58	1644,52
236,79	1808,36
237,01	1744,87
237,23	1771,49
237,45	1841,12
237,67	1673,19
237,88	1695,72
238,10	1781,73
238,32	1626,09
238,54	1667,05
238,76	1689,57
238,97	1718,25
239,19	1681,38
239,41	1769,44
239,63	1890,28
239,85	1691,62
240,06	1771,49
240,28	1644,52
240,50	1714,15
240,72	1726,44
240,93	1662,95
241,15	1783,78
241,37	1683,43
241,59	1763,30
241,81	1644,52
242,02	1728,49
242,24	1675,24
242,46	1767,40
242,68	1740,77
242,89	1744,87
243,11	1712,10
243,33	1708,01
243,55	1789,92
243,76	1718,25
243,98	1677,29
244,20	1697,77
244,42	1740,77
244,64	1812,45
244,85	1675,24
245,07	1570,79
245,29	1734,63
245,51	1669,09
245,72	1667,05
245,94	1779,68
246,16	1701,86
246,38	1785,83
246,59	1636,33
246,81	1646,57
247,03	1703,91
247,24	1576,94
247,46	1656,81
247,68	1714,15
247,90	1621,99
248,11	1679,33
248,33	1755,11
248,55	1732,58
248,77	1681,38
248,98	1748,97
249,20	1802,21
249,42	1693,67
249,64	1720,29
249,85	1732,58
250,07	1624,04
250,29	1746,92
250,50	1724,39
250,72	1626,09
250,94	1681,38
251,16	1822,69
251,37	1796,07
251,59	1685,48
251,81	1695,72
252,02	1853,41
252,24	1671,14
252,46	1828,84
252,68	1660,90
252,89	1679,33
253,11	1574,89
253,33	1820,64
253,54	1724,39
253,76	1677,29
253,98	1703,91
254,20	1726,44
254,41	1578,98
254,63	1609,70
254,85	1656,81
255,06	1675,24
255,28	1771,49
255,50	1728,49
255,71	1634,28
255,93	1648,61
256,15	1660,90
256,36	1791,97
256,58	1683,43
256,80	1777,64
257,02	1738,73
257,23	1619,94
257,45	1732,58
257,67	1712,10
257,88	1669,09
258,10	1710,05
258,32	1710,05
258,53	1697,77
258,75	1740,77
258,97	1738,73
259,18	1693,67
259,40	1708,01
259,62	1773,54
259,83	1667,05
260,05	1744,87
260,27	1984,48
260,48	1761,25
260,70	1648,61
260,92	1695,72
261,13	1593,32
261,35	1693,67
261,57	1607,66
261,78	1603,56
262,00	1605,61
262,22	1685,48
262,43	1697,77
262,65	1634,28
262,86	1646,57
263,08	1765,35
263,30	1746,92
263,51	1640,42
263,73	1667,05
263,95	1748,97
264,16	1589,22
264,38	1609,70
264,60	1697,77
264,81	1685,48
265,03	1730,53
265,25	1757,16
265,46	1665,00
265,68	1720,29
265,89	1697,77
266,11	1632,23
266,33	1744,87
266,54	1740,77
266,76	1740,77
266,98	1671,14
267,19	1740,77
267,41	1675,24
267,62	1714,15
267,84	1574,89
268,06	1738,73
268,27	1654,76
268,49	1722,34
268,70	1748,97
268,92	1677,29
269,14	1689,57
269,35	1660,90
269,57	1673,19
269,79	1703,91
270,00	1599,46
270,22	1769,44
270,43	1681,38
270,65	1619,94
270,87	1769,44
271,08	1708,01
271,30	1685,48
271,51	1656,81
271,73	1714,15
271,95	1732,58
272,16	1699,81
272,38	1685,48
272,59	1720,29
272,81	1753,06
273,02	1708,01
273,24	1701,86
273,46	1685,48
273,67	1667,05
273,89	1636,33
274,10	1642,47
274,32	1757,16
274,54	1714,15
274,75	1800,16
274,97	1673,19
275,18	1783,78
275,40	1693,67
275,61	1708,01
275,83	1685,48
276,05	1644,52
276,26	1665,00
276,48	1742,82
276,69	1675,24
276,91	1681,38
277,12	1800,16
277,34	1710,05
277,55	1734,63
277,77	1765,35
277,99	1642,47
278,20	1615,85
278,42	1712,10
278,63	1611,75
278,85	1658,85
279,06	1605,61
279,28	1834,98
279,49	1769,44
279,71	1695,72
279,93	1705,96
280,14	1701,86
280,36	1611,75
280,57	1685,48
280,79	1693,67
281,00	1652,71
281,22	1675,24
281,43	1708,01
281,65	1527,78
281,86	1640,42
282,08	1730,53
282,29	1849,32
282,51	1595,37
282,73	1621,99
282,94	1650,66
283,16	1658,85
283,37	1845,22
283,59	1708,01
283,80	1656,81
284,02	1673,19
284,23	1716,20
284,45	1671,14
284,66	1654,76
284,88	1691,62
285,09	1705,96
285,31	1769,44
285,52	1675,24
285,74	1665,00
285,95	1763,30
286,17	1611,75
286,38	1730,53
286,60	1724,39
286,81	1683,43
287,03	1652,71
287,24	1699,81
287,46	1746,92
287,67	1656,81
287,89	1804,26
288,10	1638,38
288,32	1751,01
288,53	1726,44
288,75	1708,01
288,96	1656,81
289,18	1667,05
289,39	1730,53
289,61	1779,68
289,82	1779,68
290,04	1781,73
290,25	1695,72
290,47	1693,67
290,68	1644,52
290,90	1710,05
291,11	1662,95
291,33	1732,58
291,54	1728,49
291,76	1667,05
291,97	1742,82
292,18	1726,44
292,40	1634,28
292,61	1652,71
292,83	1724,39
293,04	1716,20
293,26	1646,57
293,47	1726,44
293,69	1701,86
293,90	1681,38
294,12	1759,21
294,33	1697,77
294,55	1703,91
294,76	1720,29
294,97	1734,63
295,19	1794,02
295,40	1654,76
295,62	1726,44
295,83	1804,26
296,05	1673,19
296,26	1779,68
296,48	1693,67
296,69	1689,57
296,90	1714,15
297,12	1755,11
297,33	1779,68
297,55	1744,87
297,76	1771,49
297,98	1791,97
298,19	1691,62
298,41	1677,29
298,62	1648,61
298,83	1787,88
299,05	1714,15
299,26	1703,91
299,48	1703,91
299,69	1730,53
299,90	1757,16
300,12	1558,50
300,33	1761,25
300,55	1689,57
300,76	1669,09
300,98	1611,75
301,19	1710,05
301,40	1656,81
301,62	1705,96
301,83	1650,66
302,05	1648,61
302,26	1669,09
302,47	1716,20
302,69	1687,53
302,90	1697,77
303,12	1619,94
303,33	1718,25
303,54	1806,31
303,76	1675,24
303,97	1724,39
304,19	1755,11
304,40	1605,61
304,61	1726,44
304,83	1763,30
305,04	1693,67
305,26	1738,73
305,47	1695,72
305,68	1677,29
305,90	1644,52
306,11	1765,35
306,33	1675,24
306,54	1681,38
306,75	1624,04
306,97	1609,70
307,18	1673,19
307,39	1757,16
307,61	1699,81
307,82	1699,81
308,04	1755,11
308,25	1671,14
308,46	1687,53
308,68	1652,71
308,89	1673,19
309,10	1755,11
309,32	1671,14
309,53	1738,73
309,74	1728,49
309,96	1619,94
310,17	1718,25
310,39	1671,14
310,60	1701,86
310,81	1705,96
311,03	1632,23
311,24	1763,30
311,45	1728,49
311,67	1761,25
311,88	1705,96
312,09	1589,22
312,31	1658,85
312,52	1697,77
312,73	1679,33
312,95	1681,38
313,16	1658,85
313,37	1804,26
313,59	1773,54
313,80	1751,01
314,01	1796,07
314,23	1669,09
314,44	1732,58
314,65	1652,71
314,87	1691,62
315,08	1771,49
315,29	1712,10
315,51	1718,25
315,72	1630,18
315,93	1759,21
316,15	1734,63
316,36	1632,23
316,57	1726,44
316,79	1691,62
317,00	1652,71
317,21	1683,43
317,43	1675,24
317,64	1738,73
317,85	1626,09
318,07	1595,37
318,28	1722,34
318,49	1779,68
318,70	1920,99
318,92	1851,36
319,13	1824,74
319,34	1796,07
319,56	1824,74
319,77	1744,87
319,98	1730,53
320,20	1740,77
320,41	1777,64
320,62	1763,30
320,83	1691,62
321,05	1810,40
321,26	1769,44
321,47	1748,97
321,69	1742,82
321,90	1662,95
322,11	1740,77
322,32	1748,97
322,54	1798,12
322,75	1716,20
322,96	1853,41
323,18	1581,03
323,39	1615,85
323,60	1648,61
323,81	1820,64
324,03	1632,23
324,24	1712,10
324,45	1708,01
324,66	1703,91
324,88	1767,40
325,09	1769,44
325,30	1798,12
325,52	1744,87
325,73	1683,43
325,94	1648,61
326,15	1564,65
326,37	1673,19
326,58	1714,15
326,79	1755,11
327,00	1621,99
327,22	1751,01
327,43	1779,68
327,64	1662,95
327,85	1701,86
328,07	1730,53
328,28	1837,03
328,49	1683,43
328,70	1714,15
328,92	1658,85
329,13	1708,01
329,34	1714,15
329,55	1820,64
329,76	1765,35
329,98	1683,43
330,19	1771,49
330,40	1751,01
330,61	1689,57
330,83	1695,72
331,04	1640,42
331,25	1646,57
331,46	1697,77
331,68	1673,19
331,89	1812,45
332,10	1740,77
332,31	1615,85
332,52	1724,39
332,74	1738,73
332,95	1611,75
333,16	1650,66
333,37	1744,87
333,58	1677,29
333,80	1748,97
334,01	1574,89
334,22	1648,61
334,43	1591,27
334,64	1658,85
334,86	1648,61
335,07	1650,66
335,28	1787,88
335,49	1607,66
335,70	1699,81
335,92	1703,91
336,13	1886,18
336,34	1697,77
336,55	1705,96
336,76	1748,97
336,98	1667,05
337,19	1718,25
337,40	1816,55
337,61	1849,32
337,82	1656,81
338,04	1675,24
338,25	1685,48
338,46	1673,19
338,67	1695,72
338,88	1605,61
339,09	1630,18
339,31	1636,33
339,52	1595,37
339,73	1626,09
339,94	1669,09
340,15	1708,01
340,36	1732,58
340,58	1693,67
340,79	1658,85
341,00	1703,91
341,21	1638,38
341,42	1746,92
341,63	1634,28
341,85	1755,11
342,06	1712,10
342,27	1693,67
342,48	1767,40
342,69	1667,05
342,90	1669,09
343,12	1757,16
343,33	1599,46
343,54	1726,44
343,75	1806,31
343,96	1650,66
344,17	1667,05
344,38	1773,54
344,60	1687,53
344,81	1601,51
345,02	1683,43
345,23	1771,49
345,44	1806,31
345,65	1691,62
345,86	1748,97
346,07	1687,53
346,29	1626,09
346,50	1722,34
346,71	1714,15
346,92	1796,07
347,13	1828,84
347,34	1669,09
347,55	1662,95
347,76	1712,10
347,98	1607,66
348,19	1636,33
348,40	1755,11
348,61	1703,91
348,82	1726,44
349,03	1740,77
349,24	1656,81
349,45	1867,75
349,66	1578,98
349,88	1722,34
350,09	1617,90
350,30	1724,39
350,51	1791,97
350,72	1771,49
350,93	1763,30
351,14	1662,95
351,35	1730,53
351,56	1679,33
351,77	1677,29
351,99	1740,77
352,20	1763,30
352,41	1771,49
352,62	1599,46
352,83	1658,85
353,04	1738,73
353,25	1683,43
353,46	1787,88
353,67	1724,39
353,88	1595,37
354,09	1759,21
354,30	1685,48
354,52	1732,58
354,73	1673,19
354,94	1662,95
355,15	1712,10
355,36	1804,26
355,57	1720,29
355,78	1736,68
355,99	1671,14
356,20	1669,09
356,41	1781,73
356,62	1744,87
356,83	1730,53
357,04	1787,88
357,25	1574,89
357,46	1683,43
357,68	1642,47
357,89	1681,38
358,10	1640,42
358,31	1740,77
358,52	1689,57
358,73	1624,04
358,94	1697,77
359,15	1603,56
359,36	1769,44
359,57	1699,81
359,78	1624,04
359,99	1716,20
360,20	1613,80
360,41	1656,81
360,62	1769,44
360,83	1679,33
361,04	1783,78
361,25	1699,81
361,46	1779,68
361,67	1693,67
361,88	1765,35
362,09	1740,77
362,30	1751,01
362,51	1656,81
362,72	1640,42
362,93	1722,34
363,14	1751,01
363,35	1744,87
363,56	1642,47
363,78	1683,43
363,99	1814,50
364,20	1726,44
364,41	1718,25
364,62	1818,60
364,83	1759,21
365,04	1642,47
365,25	1724,39
365,46	1904,61
365,67	1673,19
365,88	1644,52
366,09	1710,05
366,30	1640,42
366,51	1724,39
366,72	1615,85
366,93	1671,14
367,14	1722,34
367,35	1804,26
367,56	1681,38
367,77	1816,55
367,98	1646,57
368,18	1734,63
368,39	1775,59
368,60	1587,18
368,81	1742,82
369,02	1660,90
369,23	1673,19
369,44	1665,00
369,65	1570,79
369,86	1757,16
370,07	1769,44
370,28	1642,47
370,49	1812,45
370,70	1724,39
370,91	1675,24
371,12	1634,28
371,33	1779,68
371,54	1679,33
371,75	1810,40
371,96	1554,41
372,17	1738,73
372,38	1681,38
372,59	1734,63
372,80	1677,29
373,01	1705,96
373,22	1720,29
373,43	1695,72
373,64	1656,81
373,85	1703,91
374,06	1773,54
374,26	1875,94
374,47	1740,77
374,68	1740,77
374,89	1767,40
375,10	1685,48
375,31	1759,21
375,52	1734,63
375,73	1738,73
375,94	1646,57
376,15	1771,49
376,36	1644,52
376,57	1689,57
376,78	1648,61
376,99	1718,25
377,20	1724,39
377,40	1630,18
377,61	1742,82
377,82	1611,75
378,03	1824,74
378,24	1708,01
378,45	1648,61
378,66	1685,48
378,87	1662,95
379,08	1607,66
379,29	1701,86
379,50	1757,16
379,71	1689,57
379,91	1708,01
380,12	1679,33
380,33	1722,34
380,54	1697,77
380,75	1738,73
380,96	1753,06
381,17	1736,68
381,38	1716,20
381,59	1685,48
381,80	1697,77
382,00	1847,27
382,21	1742,82
382,42	1853,41
382,63	1877,99
382,84	1673,19
383,05	1730,53
383,26	1794,02
383,47	1673,19
383,68	1816,55
383,88	1714,15
384,09	1724,39
384,30	1775,59
384,51	1716,20
384,72	1722,34
384,93	1650,66
385,14	1630,18
385,35	1746,92
385,55	1646,57
385,76	1761,25
385,97	1740,77
386,18	1687,53
386,39	1597,42
386,60	1611,75
386,81	1771,49
387,02	1654,76
387,22	1624,04
387,43	1832,93
387,64	1734,63
387,85	1865,70
388,06	2232,29
388,27	4331,45
388,48	6799,26
388,68	8288,13
388,89	9594,73
389,10	9822,06
389,31	8462,21
389,52	7344,02
389,73	6643,61
389,93	6268,83
390,14	5715,88
390,35	5150,64
390,56	4679,61
390,77	3774,41
390,98	2998,23
391,18	2484,19
391,39	2129,89
391,60	1810,40
391,81	1814,50
392,02	1775,59
392,23	1828,84
392,43	1730,53
392,64	1810,40
392,85	1746,92
393,06	1845,22
393,27	1673,19
393,47	1646,57
393,68	1726,44
393,89	1701,86
394,10	1765,35
394,31	1646,57
394,52	1693,67
394,72	1730,53
394,93	1757,16
395,14	1589,22
395,35	1763,30
395,56	1613,80
395,76	1757,16
395,97	1791,97
396,18	1828,84
396,39	1892,32
396,60	2011,11
396,80	1923,04
397,01	1822,69
397,22	1863,65
397,43	1896,42
397,64	1712,10
397,84	1783,78
398,05	1828,84
398,26	1849,32
398,47	1787,88
398,67	1812,45
398,88	1695,72
399,09	1740,77
399,30	1673,19
399,51	1763,30
399,71	1605,61
399,92	1730,53
400,13	1679,33
400,34	1693,67
400,54	1740,77
400,75	1830,88
400,96	1763,30
401,17	1814,50
401,37	1755,11
401,58	1667,05
401,79	1634,28
402,00	1865,70
402,21	2015,20
402,41	1982,43
402,62	1900,52
402,83	1986,53
403,04	1966,05
403,24	2129,89
403,45	1779,68
403,66	1941,47
403,87	1822,69
404,07	1882,08
404,28	1918,95
404,49	1871,84
404,70	1808,36
404,90	1748,97
405,11	1691,62
405,32	1785,83
405,52	1671,14
405,73	1671,14
405,94	1583,08
406,15	1734,63
406,35	1675,24
406,56	1816,55
406,77	1683,43
406,98	1734,63
407,18	1640,42
407,39	1796,07
407,60	1669,09
407,80	1665,00
408,01	1662,95
408,22	1720,29
408,43	1613,80
408,63	1710,05
408,84	1769,44
409,05	1691,62
409,25	1675,24
409,46	1624,04
409,67	1675,24
409,88	1683,43
410,08	1716,20
410,29	1685,48
410,50	1722,34
410,70	1783,78
410,91	1669,09
411,12	1703,91
411,32	1734,63
411,53	1699,81
411,74	1763,30
411,95	1773,54
412,15	1705,96
412,36	1806,31
412,57	1746,92
412,77	1753,06
412,98	1705,96
413,19	1751,01
413,39	1744,87
413,60	1718,25
413,81	1820,64
414,01	1662,95
414,22	1728,49
414,43	1744,87
414,63	1660,90
414,84	1701,86
415,05	1751,01
415,25	1613,80
415,46	1722,34
415,67	1720,29
415,87	1675,24
416,08	1677,29
416,29	1714,15
416,49	1783,78
416,70	1720,29
416,91	1675,24
417,11	1732,58
417,32	1708,01
417,53	1773,54
417,73	1771,49
417,94	1773,54
418,15	1757,16
418,35	1656,81
418,56	1748,97
418,77	1837,03
418,97	1703,91
419,18	1720,29
419,38	1638,38
419,59	1683,43
419,80	1806,31
420,00	1650,66
420,21	1619,94
420,42	1773,54
420,62	1708,01
420,83	1648,61
421,04	1736,68
421,24	1634,28
421,45	1779,68
421,65	1710,05
421,86	1701,86
422,07	1748,97
422,27	1730,53
422,48	1757,16
422,69	1648,61
422,89	1671,14
423,10	1648,61
423,30	1578,98
423,51	1736,68
423,72	1779,68
423,92	1710,05
424,13	1597,42
424,33	1693,67
424,54	1720,29
424,75	1765,35
424,95	1820,64
425,16	1763,30
425,36	1695,72
425,57	1753,06
425,78	1679,33
425,98	1718,25
426,19	1617,90
426,39	1689,57
426,60	1800,16
426,81	1744,87
427,01	1677,29
427,22	1701,86
427,42	1611,75
427,63	1716,20
427,83	1794,02
428,04	1810,40
428,25	1785,83
428,45	1689,57
428,66	1800,16
428,86	1685,48
429,07	1705,96
429,28	1757,16
429,48	1787,88
429,69	1687,53
429,89	1748,97
430,10	1624,04
430,30	1714,15
430,51	1751,01
430,71	1644,52
430,92	1675,24
431,13	1656,81
431,33	1685,48
431,54	1714,15
431,74	1800,16
431,95	1834,98
432,15	1656,81
432,36	1714,15
432,56	1730,53
432,77	1787,88
432,98	1763,30
433,18	1755,11
433,39	1740,77
433,59	1771,49
433,80	1816,55
434,00	1832,93
434,21	1658,85
434,41	1630,18
434,62	1861,60
434,82	1626,09
435,03	1683,43
435,23	1771,49
435,44	1665,00
435,64	1794,02
435,85	1755,11
436,06	1804,26
436,26	1730,53
436,47	1689,57
436,67	1607,66
436,88	1730,53
437,08	1740,77
437,29	1796,07
437,49	1791,97
437,70	1767,40
437,90	1763,30
438,11	1824,74
438,31	1789,92
438,52	1882,08
438,72	1798,12
438,93	1902,56
439,13	1824,74
439,34	1837,03
439,54	1742,82
439,75	1732,58
439,95	1818,60
440,16	1685,48
440,36	1771,49
440,57	1767,40
440,77	1798,12
440,98	1685,48
441,18	1816,55
441,39	1687,53
441,59	1613,80
441,80	1865,70
442,00	1675,24
442,21	1736,68
442,41	1681,38
442,62	1794,02
442,82	1693,67
443,02	1642,47
443,23	1769,44
443,43	1695,72
443,64	1755,11
443,84	1632,23
444,05	1773,54
444,25	1714,15
444,46	1716,20
444,66	1687,53
444,87	1839,08
445,07	1675,24
445,28	1806,31
445,48	1798,12
445,69	1755,11
445,89	1892,32
446,09	1746,92
446,30	2062,30
446,50	2645,98
446,71	3676,10
446,91	4351,93
447,12	4743,10
447,32	4779,96
447,53	4298,69
447,73	3903,43
447,93	3454,92
448,14	3330,00
448,34	3291,09
448,55	2926,55
448,75	2879,44
448,96	2766,81
449,16	2508,76
449,36	2246,62
449,57	2131,94
449,77	1902,56
449,98	1751,01
450,18	1892,32
450,39	1796,07
450,59	1708,01
450,79	1777,64
451,00	1751,01
451,20	1746,92
451,41	1789,92
451,61	1773,54
451,81	1720,29
452,02	1757,16
452,22	1685,48
452,43	1673,19
452,63	1726,44
452,84	1763,30
453,04	1718,25
453,24	1736,68
453,45	1726,44
453,65	1714,15
453,86	1673,19
454,06	1755,11
454,26	1691,62
454,47	1767,40
454,67	1861,60
454,87	1751,01
455,08	1726,44
455,28	1849,32
455,49	1769,44
455,69	1679,33
455,89	1828,84
456,10	1798,12
456,30	1714,15
456,51	1779,68
456,71	1781,73
456,91	1796,07
457,12	1775,59
457,32	1775,59
457,52	1677,29
457,73	1699,81
457,93	1804,26
458,14	1671,14
458,34	1667,05
458,54	1740,77
458,75	1644,52
458,95	1726,44
459,15	1728,49
459,36	1691,62
459,56	1761,25
459,76	1853,41
459,97	1789,92
460,17	1710,05
460,37	1765,35
460,58	1744,87
460,78	1738,73
460,99	1714,15
461,19	1751,01
461,39	1716,20
461,60	1720,29
461,80	1734,63
462,00	1699,81
462,21	1703,91
462,41	1701,86
462,61	1744,87
462,82	1632,23
463,02	1757,16
463,22	1687,53
463,43	1763,30
463,63	1742,82
463,83	1783,78
464,04	1720,29
464,24	1744,87
464,44	1675,24
464,64	1673,19
464,85	1689,57
465,05	1798,12
465,25	1753,06
465,46	1665,00
465,66	1781,73
465,86	1789,92
466,07	1624,04
466,27	1726,44
466,47	1691,62
466,68	1624,04
466,88	1802,21
467,08	1753,06
467,29	1791,97
467,49	1769,44
467,69	1773,54
467,89	1777,64
468,10	1816,55
468,30	1732,58
468,50	1746,92
468,71	1736,68
468,91	1615,85
469,11	1791,97
469,31	1818,60
469,52	1689,57
469,72	1886,18
469,92	1779,68
470,13	1705,96
470,33	1783,78
470,53	1845,22
470,73	2095,07
470,94	2328,54
471,14	2396,12
471,34	2559,96
471,54	2394,08
471,75	2189,28
471,95	2133,98
472,15	2054,11
472,36	2072,54
472,56	2119,65
472,76	2119,65
472,96	1916,90
473,17	1863,65
473,37	1982,43
473,57	1796,07
473,77	1812,45
473,98	1744,87
474,18	1753,06
474,38	1910,75
474,58	1636,33
474,79	1734,63
474,99	1867,75
475,19	1757,16
475,39	1665,00
475,60	1744,87
475,80	1779,68
476,00	1718,25
476,20	1701,86
476,41	1814,50
476,61	1753,06
476,81	1771,49
477,01	1673,19
477,21	1824,74
477,42	1826,79
477,62	1675,24
477,82	1816,55
478,02	1714,15
478,23	1718,25
478,43	1677,29
478,63	1769,44
478,83	1654,76
479,03	1677,29
479,24	1773,54
479,44	1808,36
479,64	1695,72
479,84	1636,33
480,04	1691,62
480,25	1726,44
480,45	1591,27
480,65	1632,23
480,85	1701,86
481,06	1687,53
481,26	1755,11
481,46	1785,83
481,66	1767,40
481,86	1636,33
482,06	1718,25
482,27	1636,33
482,47	1722,34
482,67	1679,33
482,87	1691,62
483,07	1759,21
483,28	1685,48
483,48	1691,62
483,68	1695,72
483,88	1730,53
484,08	1683,43
484,29	1609,70
484,49	1740,77
484,69	1671,14
484,89	1691,62
485,09	1757,16
485,29	1746,92
485,50	1808,36
485,70	1687,53
485,90	1736,68
486,10	1738,73
486,30	1755,11
486,50	1847,27
486,71	1738,73
486,91	1703,91
487,11	1773,54
487,31	1581,03
487,51	1677,29
487,71	1652,71
487,91	1640,42
488,12	1685,48
488,32	1619,94
488,52	1697,77
488,72	1675,24
488,92	1720,29
489,12	1697,77
489,32	1755,11
489,53	1775,59
489,73	1642,47
489,93	1734,63
490,13	1640,42
490,33	1650,66
490,53	1665,00
490,73	1796,07
490,94	1628,14
491,14	1740,77
491,34	1931,23
491,54	2095,07
491,74	2598,87
491,94	2826,20
492,14	2949,08
492,34	2947,03
492,54	2703,32
492,75	2353,12
492,95	2439,13
493,15	2267,10
493,35	2242,53
493,55	2166,75
493,75	2152,42
493,95	2230,24
494,15	1927,14
494,35	1939,43
494,56	1882,08
494,76	1755,11
494,96	1828,84
495,16	1779,68
495,36	1759,21
495,56	1662,95
495,76	1732,58
495,96	1718,25
496,16	1613,80
496,36	1812,45
496,56	1716,20
496,77	1804,26
496,97	1773,54
497,17	1800,16
497,37	1705,96
497,57	1810,40
497,77	1695,72
497,97	1581,03
498,17	1697,77
498,37	1640,42
498,57	1695,72
498,77	1691,62
498,97	1806,31
499,17	1906,66
499,38	1673,19
499,58	1755,11
499,78	1867,75
499,98	1755,11
500,18	1736,68
500,38	1669,09
500,58	1853,41
500,78	2508,76
500,98	4440,00
501,18	5883,81
501,38	6682,52
501,58	7071,64
501,78	6690,71
501,98	5498,80
502,18	4906,93
502,38	4272,06
502,58	4126,66
502,78	3684,30
502,98	3657,67
503,18	3502,03
503,38	3182,54
503,59	2818,00
503,79	2582,49
503,99	2478,04
504,19	2379,74
504,39	2242,53
504,59	2148,32
504,79	2041,82
504,99	2035,68
505,19	1927,14
505,39	1894,37
505,59	1951,71
505,79	1943,52
505,99	1806,31
506,19	1791,97
506,39	1855,46
506,59	1761,25
506,79	1791,97
506,99	1765,35
507,19	1732,58
507,39	1773,54
507,59	1683,43
507,79	1732,58
507,99	1722,34
508,19	1714,15
508,39	1718,25
508,59	1796,07
508,79	1855,46
508,99	1859,56
509,19	1691,62
509,39	1771,49
509,59	1708,01
509,79	1646,57
509,99	1703,91
510,19	1812,45
510,39	1726,44
510,59	1722,34
510,79	1677,29
510,99	1640,42
511,19	1732,58
511,39	1869,80
511,59	1791,97
511,79	1767,40
511,99	1630,18
512,19	1826,79
512,38	1708,01
512,58	1763,30
512,78	1771,49
512,98	1759,21
513,18	1812,45
513,38	1681,38
513,58	1734,63
513,78	1673,19
513,98	1738,73
514,18	1714,15
514,38	1697,77
514,58	1787,88
514,78	1634,28
514,98	1705,96
515,18	1783,78
515,38	1693,67
515,58	1853,41
515,78	1660,90
515,98	1806,31
516,18	1773,54
516,38	1681,38
516,57	1730,53
516,77	1753,06
516,97	1716,20
517,17	1658,85
517,37	1595,37
517,57	1781,73
517,77	1705,96
517,97	1724,39
518,17	1695,72
518,37	1732,58
518,57	1714,15
518,77	1718,25
518,97	1716,20
519,16	1761,25
519,36	1791,97
519,56	1632,23
519,76	1693,67
519,96	1791,97
520,16	1808,36
520,36	1703,91
520,56	1781,73
520,76	1738,73
520,96	1613,80
521,16	1746,92
521,35	1806,31
521,55	1894,37
521,75	1681,38
521,95	1673,19
522,15	1605,61
522,35	1591,27
522,55	1644,52
522,75	1775,59
522,95	1718,25
523,14	1601,51
523,34	1628,14
523,54	1699,81
523,74	1816,55
523,94	1804,26
524,14	1628,14
524,34	1761,25
524,54	1720,29
524,73	1724,39
524,93	1730,53
525,13	1699,81
525,33	1560,55
525,53	1847,27
525,73	1759,21
525,93	1769,44
526,13	1701,86
526,32	1718,25
526,52	1724,39
526,72	1806,31
526,92	1705,96
527,12	1714,15
527,32	1701,86
527,52	1732,58
527,71	1734,63
527,91	1710,05
528,11	1677,29
528,31	1728,49
528,51	1683,43
528,71	1812,45
528,90	1785,83
529,10	1783,78
529,30	1828,84
529,50	1585,13
529,70	1742,82
529,90	1673,19
530,09	1751,01
530,29	1701,86
530,49	1673,19
530,69	1949,67
530,89	1843,17
531,09	1820,64
531,28	1685,48
531,48	1818,60
531,68	1820,64
531,88	1742,82
532,08	1804,26
532,28	1718,25
532,47	1759,21
532,67	1769,44
532,87	1880,04
533,07	1714,15
533,27	1728,49
533,46	1697,77
533,66	1675,24
533,86	1759,21
534,06	1701,86
534,26	1722,34
534,45	1751,01
534,65	1720,29
534,85	1691,62
535,05	1722,34
535,25	1742,82
535,44	1705,96
535,64	1685,48
535,84	1728,49
536,04	1703,91
536,24	1640,42
536,43	1603,56
536,63	1814,50
536,83	1757,16
537,03	1724,39
537,22	1667,05
537,42	1673,19
537,62	1773,54
537,82	1658,85
538,02	1732,58
538,21	1796,07
538,41	1853,41
538,61	1755,11
538,81	1714,15
539,00	1800,16
539,20	1669,09
539,40	1695,72
539,60	1703,91
539,79	1785,83
539,99	1773,54
540,19	1642,47
540,39	1722,34
540,58	1724,39
540,78	1822,69
540,98	1734,63
541,18	1746,92
541,37	1810,40
541,57	1724,39
541,77	1714,15
541,97	1718,25
542,16	1636,33
542,36	1665,00
542,56	1753,06
542,76	1869,80
542,95	1718,25
543,15	1714,15
543,35	1763,30
543,54	1718,25
543,74	1607,66
543,94	1757,16
544,14	1644,52
544,33	1701,86
544,53	1718,25
544,73	1681,38
544,93	1720,29
545,12	1759,21
545,32	1689,57
545,52	1734,63
545,71	1658,85
545,91	1689,57
546,11	1708,01
546,30	1652,71
546,50	1722,34
546,70	1703,91
546,90	1783,78
547,09	1603,56
547,29	1724,39
547,49	1734,63
547,68	1828,84
547,88	1683,43
548,08	1712,10
548,27	2160,61
548,47	1738,73
548,67	1742,82
548,87	1693,67
549,06	1734,63
549,26	1761,25
549,46	1800,16
549,65	1718,25
549,85	1773,54
550,05	1753,06
550,24	1613,80
550,44	1714,15
550,64	1671,14
550,83	1722,34
551,03	1767,40
551,23	1804,26
551,42	1798,12
551,62	1652,71
551,82	1734,63
552,01	1759,21
552,21	1837,03
552,41	1759,21
552,60	1763,30
552,80	1736,68
553,00	1669,09
553,19	1757,16
553,39	1814,50
553,59	1679,33
553,78	1818,60
553,98	1687,53
554,17	1703,91
554,37	1837,03
554,57	1787,88
554,76	1619,94
554,96	1757,16
555,16	1742,82
555,35	1802,21
555,55	1863,65
555,75	1734,63
555,94	1679,33
556,14	1671,14
556,33	1806,31
556,53	1658,85
556,73	1722,34
556,92	1708,01
557,12	1828,84
557,32	1861,60
557,51	1798,12
557,71	1837,03
557,90	1796,07
558,10	1767,40
558,30	1691,62
558,49	1748,97
558,69	1779,68
558,88	1691,62
559,08	1701,86
559,28	1660,90
559,47	1646,57
559,67	1781,73
559,86	1812,45
560,06	1730,53
560,26	1787,88
560,45	1777,64
560,65	1726,44
560,84	1748,97
561,04	1703,91
561,24	1783,78
561,43	1648,61
561,63	1814,50
561,82	1683,43
562,02	1744,87
562,22	1681,38
562,41	1652,71
562,61	1665,00
562,80	1687,53
563,00	1865,70
563,19	1787,88
563,39	1777,64
563,59	1757,16
563,78	1708,01
563,98	1640,42
564,17	1703,91
564,37	1665,00
564,56	1687,53
564,76	1714,15
564,96	1828,84
565,15	1710,05
565,35	1810,40
565,54	1697,77
565,74	1679,33
565,93	1716,20
566,13	1714,15
566,32	1738,73
566,52	1695,72
566,71	1695,72
566,91	1837,03
567,11	1763,30
567,30	1699,81
567,50	1828,84
567,69	1779,68
567,89	1777,64
568,08	1677,29
568,28	1783,78
568,47	1785,83
568,67	1714,15
568,86	1714,15
569,06	1775,59
569,25	1759,21
569,45	1673,19
569,64	1685,48
569,84	1669,09
570,04	1724,39
570,23	1738,73
570,43	1748,97
570,62	1710,05
570,82	1865,70
571,01	1691,62
571,21	1697,77
571,40	1634,28
571,60	1789,92
571,79	1748,97
571,99	1691,62
572,18	1687,53
572,38	1742,82
572,57	1710,05
572,77	1781,73
572,96	1853,41
573,16	1710,05
573,35	1705,96
573,55	1771,49
573,74	1834,98
573,94	1662,95
574,13	1669,09
574,33	1771,49
574,52	1830,88
574,71	1714,15
574,91	1794,02
575,10	1601,51
575,30	1716,20
575,49	1744,87
575,69	1691,62
575,88	1775,59
576,08	1720,29
576,27	1789,92
576,47	1753,06
576,66	1857,51
576,86	1839,08
577,05	1767,40
577,25	1857,51
577,44	1920,99
577,64	1669,09
577,83	1734,63
578,02	1736,68
578,22	1783,78
578,41	1787,88
578,61	1648,61
578,80	1689,57
579,00	1808,36
579,19	1808,36
579,39	1738,73
579,58	1785,83
579,77	1726,44
579,97	1914,85
580,16	1804,26
580,36	1789,92
580,55	1882,08
580,75	1759,21
580,94	1726,44
581,13	1853,41
581,33	1871,84
581,52	1730,53
581,72	1873,89
581,91	1890,28
582,11	1767,40
582,30	1755,11
582,49	1759,21
582,69	1877,99
582,88	1767,40
583,08	1699,81
583,27	1841,12
583,47	1734,63
583,66	1665,00
583,85	1732,58
584,05	1845,22
584,24	1757,16
584,44	1665,00
584,63	1785,83
584,82	1855,46
585,02	1820,64
585,21	1791,97
585,41	1789,92
585,60	1800,16
585,79	1834,98
585,99	1877,99
586,18	1877,99
586,37	2187,23
586,57	3389,39
586,76	9891,69
586,96	24446,60
587,15	34207,22
587,34	40416,66
587,54	42032,51
587,73	36978,12
587,93	26484,33
588,12	21542,58
588,31	18337,51
588,51	16246,54
588,70	14919,45
588,89	14171,94
589,09	12674,88
589,28	11026,26
589,47	9377,65
589,67	7878,54
589,86	6449,05
590,06	4833,21
590,25	3925,96
590,44	3057,62
590,64	2549,72
590,83	2322,40
591,02	2078,69
591,22	1982,43
591,41	1898,47
591,60	1832,93
591,80	1955,81
591,99	1806,31
592,18	1751,01
592,38	1800,16
592,57	1738,73
592,76	1748,97
592,96	1855,46
593,15	1746,92
593,34	1886,18
593,54	1701,86
593,73	1781,73
593,92	1820,64
594,12	1755,11
594,31	1757,16
594,50	1785,83
594,70	1757,16
594,89	1904,61
595,08	1638,38
595,28	1804,26
595,47	1994,72
595,66	1845,22
595,86	1693,67
596,05	1734,63
596,24	1624,04
596,43	1871,84
596,63	1834,98
596,82	1773,54
597,01	1779,68
597,21	1824,74
597,40	1796,07
597,59	1734,63
597,79	1724,39
597,98	1820,64
598,17	1753,06
598,36	1804,26
598,56	1730,53
598,75	1693,67
598,94	1714,15
599,14	1669,09
599,33	1665,00
599,52	1785,83
599,71	1728,49
599,91	1751,01
600,10	1769,44
600,29	1738,73
600,48	1771,49
600,68	1783,78
600,87	1761,25
601,06	1732,58
601,26	1718,25
601,45	1808,36
601,64	1710,05
601,83	1775,59
602,03	1710,05
602,22	1652,71
602,41	1794,02
602,60	1904,61
602,80	1755,11
602,99	1810,40
603,18	1693,67
603,37	1794,02
603,57	1744,87
603,76	1777,64
603,95	1820,64
604,14	1753,06
604,34	1693,67
604,53	1759,21
604,72	1783,78
604,91	1802,21
605,10	1834,98
605,30	1716,20
605,49	1869,80
605,68	1738,73
605,87	1779,68
606,07	1759,21
606,26	1716,20
606,45	1824,74
606,64	1689,57
606,84	1685,48
607,03	1660,90
607,22	1742,82
607,41	1636,33
607,60	1740,77
607,80	1732,58
607,99	1675,24
608,18	1734,63
608,37	1798,12
608,56	1689,57
608,76	1791,97
608,95	1839,08
609,14	1701,86
609,33	1791,97
609,52	1771,49
609,72	1673,19
609,91	1771,49
610,10	1722,34
610,29	1869,80
610,48	1757,16
610,68	1781,73
610,87	1667,05
611,06	1812,45
611,25	1728,49
611,44	1839,08
611,63	1701,86
611,83	1787,88
612,02	1703,91
612,21	1886,18
612,40	1695,72
612,59	1724,39
612,79	1626,09
612,98	1751,01
613,17	1806,31
613,36	1753,06
613,55	1847,27
613,74	1732,58
613,93	1738,73
614,13	1722,34
614,32	1677,29
614,51	1738,73
614,70	1761,25
614,89	1710,05
615,08	1773,54
615,28	2131,94
615,47	1714,15
615,66	1718,25
615,85	1710,05
616,04	1787,88
616,23	1738,73
616,42	1710,05
616,62	1701,86
616,81	1712,10
617,00	1677,29
617,19	1716,20
617,38	1615,85
617,57	1755,11
617,76	1755,11
617,95	1720,29
618,15	1742,82
618,34	1806,31
618,53	1656,81
618,72	1746,92
618,91	1740,77
619,10	1853,41
619,29	1632,23
619,48	1767,40
619,68	1640,42
619,87	1712,10
620,06	1652,71
620,25	1818,60
620,44	1677,29
620,63	1720,29
620,82	1656,81
621,01	1730,53
621,20	1675,24
621,39	1738,73
621,59	1722,34
621,78	1697,77
621,97	1724,39
622,16	1769,44
622,35	1775,59
622,54	1779,68
622,73	1837,03
622,92	1658,85
623,11	1751,01
623,30	1724,39
623,49	1787,88
623,68	1708,01
623,88	1828,84
624,07	1689,57
624,26	1679,33
624,45	1689,57
624,64	1726,44
624,83	1718,25
625,02	1736,68
625,21	1724,39
625,40	1689,57
625,59	1820,64
625,78	1734,63
625,97	1763,30
626,16	1832,93
626,35	1773,54
626,54	1693,67
626,74	1828,84
626,93	1742,82
627,12	1642,47
627,31	1751,01
627,50	1798,12
627,69	1783,78
627,88	1654,76
628,07	1642,47
628,26	1570,79
628,45	1683,43
628,64	1544,17
628,83	1763,30
629,02	1654,76
629,21	1779,68
629,40	1708,01
629,59	1701,86
629,78	1697,77
629,97	1720,29
630,16	1740,77
630,35	1667,05
630,54	1689,57
630,73	1710,05
630,92	1671,14
631,11	1759,21
631,30	1652,71
631,49	1871,84
631,68	1724,39
631,87	1656,81
632,06	1667,05
632,25	1771,49
632,44	1746,92
632,63	1730,53
632,82	1634,28
633,01	1701,86
633,20	1748,97
633,39	1675,24
633,58	1695,72
633,77	1667,05
633,96	1734,63
634,15	1755,11
634,34	1634,28
634,53	1687,53
634,72	1626,09
634,91	1646,57
635,10	1720,29
635,29	1753,06
635,48	1703,91
635,67	1683,43
635,86	1695,72
636,05	1796,07
636,24	1697,77
636,43	1757,16
636,62	1695,72
636,81	1644,52
637,00	1738,73
637,19	1693,67
637,38	1767,40
637,57	1673,19
637,76	1759,21
637,95	1742,82
638,14	1687,53
638,33	1660,90
638,52	1759,21
638,71	1615,85
638,89	1708,01
639,08	1787,88
639,27	1744,87
639,46	1662,95
639,65	1787,88
639,84	1761,25
640,03	1769,44
640,22	1683,43
640,41	1937,38
640,60	1679,33
640,79	1738,73
640,98	1685,48
641,17	1714,15
641,36	1763,30
641,55	1748,97
641,74	1693,67
641,92	1615,85
642,11	1593,32
642,30	1626,09
642,49	1660,90
642,68	1669,09
642,87	1751,01
643,06	1744,87
643,25	1654,76
643,44	1734,63
643,63	1662,95
643,82	1779,68
644,00	1626,09
644,19	1740,77
644,38	1671,14
644,57	1726,44
644,76	1759,21
644,95	1693,67
645,14	1658,85
645,33	1683,43
645,52	1691,62
645,71	1648,61
645,89	1607,66
646,08	1658,85
646,27	1679,33
646,46	1783,78
646,65	1630,18
646,84	1710,05
647,03	1605,61
647,22	1818,60
647,40	1748,97
647,59	1710,05
647,78	1611,75
647,97	1607,66
648,16	1716,20
648,35	1822,69
648,54	1808,36
648,73	1732,58
648,91	1785,83
649,10	1767,40
649,29	1689,57
649,48	1691,62
649,67	1718,25
649,86	1718,25
650,05	1722,34
650,23	1773,54
650,42	1679,33
650,61	1753,06
650,80	1687,53
650,99	1851,36
651,18	1730,53
651,36	1740,77
651,55	1677,29
651,74	1695,72
651,93	1701,86
652,12	1665,00
652,31	1671,14
652,49	1763,30
652,68	1695,72
652,87	1767,40
653,06	1679,33
653,25	1877,99
653,44	1665,00
653,62	1798,12
653,81	1697,77
654,00	1744,87
654,19	1777,64
654,38	1853,41
654,56	1740,77
654,75	1695,72
654,94	1769,44
655,13	1757,16
655,32	1656,81
655,51	1753,06
655,69	1691,62
655,88	1632,23
656,07	1617,90
656,26	1769,44
656,45	1658,85
656,63	1638,38
656,82	1681,38
657,01	1738,73
657,20	1630,18
657,38	1781,73
657,57	1687,53
657,76	1617,90
657,95	1816,55
658,14	1695,72
658,32	1728,49
658,51	1646,57
658,70	1720,29
658,89	1722,34
659,08	1726,44
659,26	1775,59
659,45	1718,25
659,64	1773,54
659,83	1630,18
660,01	1892,32
660,20	1710,05
660,39	1828,84
660,58	1640,42
660,76	1751,01
660,95	1673,19
661,14	1765,35
661,33	1603,56
661,51	1722,34
661,70	1658,85
661,89	1753,06
662,08	1732,58
662,26	1548,26
662,45	1689,57
662,64	1742,82
662,83	1701,86
663,01	1667,05
663,20	1736,68
663,39	1763,30
663,58	1669,09
663,76	1673,19
663,95	1755,11
664,14	1656,81
664,32	1667,05
664,51	1611,75
664,70	1558,50
664,89	1742,82
665,07	1662,95
665,26	1736,68
665,45	1683,43
665,64	1746,92
665,82	1738,73
666,01	1759,21
666,20	1687,53
666,38	1716,20
666,57	1796,07
666,76	2193,37
666,95	4421,56
667,13	10309,47
667,32	15177,50
667,51	17753,84
667,69	18728,67
667,88	17950,45
668,07	12449,60
668,25	9650,03
668,44	8001,41
668,63	7595,92
668,81	6774,68
669,00	6457,25
669,19	5701,54
669,38	5148,59
669,56	4587,45
669,75	4026,31
669,94	3452,88
670,12	2928,60
670,31	2586,58
670,50	2254,81
670,68	2062,30
670,87	1894,37
671,06	1822,69
671,24	1832,93
671,43	1886,18
671,62	1730,53
671,80	1759,21
671,99	1783,78
672,18	1710,05
672,36	1798,12
672,55	1726,44
672,74	1673,19
672,92	1736,68
673,11	1740,77
673,29	1687,53
673,48	1816,55
673,67	1722,34
673,85	1779,68
674,04	1751,01
674,23	1714,15
674,41	1851,36
674,60	1636,33
674,79	1552,36
674,97	1662,95
675,16	1714,15
675,34	1761,25
675,53	1644,52
675,72	1738,73
675,90	1742,82
676,09	1718,25
676,28	1714,15
676,46	1630,18
676,65	1691,62
676,83	1544,17
677,02	1724,39
677,21	1726,44
677,39	1714,15
677,58	1681,38
677,77	1705,96
677,95	1660,90
678,14	1660,90
678,32	1632,23
678,51	1619,94
678,70	1890,28
678,88	1591,27
679,07	1773,54
679,25	1718,25
679,44	1693,67
679,63	1687,53
679,81	1673,19
680,00	1847,27
680,18	1785,83
680,37	1699,81
680,55	1726,44
680,74	1648,61
680,93	1656,81
681,11	1771,49
681,30	1699,81
681,48	1753,06
681,67	1738,73
681,85	1751,01
682,04	1677,29
682,23	1771,49
682,41	1671,14
682,60	1615,85
682,78	1806,31
682,97	1603,56
683,15	1732,58
683,34	1777,64
683,53	1789,92
683,71	1605,61
683,90	1746,92
684,08	1826,79
684,27	1665,00
684,45	1732,58
684,64	1785,83
684,82	1738,73
685,01	1736,68
685,19	1683,43
685,38	1830,88
685,57	1681,38
685,75	1640,42
685,94	1673,19
686,12	1771,49
686,31	1644,52
686,49	1763,30
686,68	1693,67
686,86	1718,25
687,05	1685,48
687,23	1746,92
687,42	1626,09
687,60	1624,04
687,79	1718,25
687,97	1824,74
688,16	1746,92
688,34	1732,58
688,53	1611,75
688,71	1763,30
688,90	1773,54
689,08	1703,91
689,27	1656,81
689,45	1761,25
689,64	1714,15
689,82	1812,45
690,01	1712,10
690,19	1685,48
690,38	1724,39
690,56	1812,45
690,75	1675,24
690,93	1710,05
691,12	1679,33
691,30	1722,34
691,49	1693,67
691,67	1665,00
691,86	1789,92
692,04	1679,33
692,23	1652,71
692,41	1644,52
692,60	1892,32
692,78	1720,29
692,97	1701,86
693,15	1708,01
693,34	1787,88
693,52	1734,63
693,71	1708,01
693,89	1632,23
694,08	1632,23
694,26	1671,14
694,44	1722,34
694,63	1763,30
694,81	1677,29
695,00	1654,76
695,18	1710,05
695,37	1865,70
695,55	1703,91
695,74	1677,29
695,92	1621,99
696,10	1773,54
696,29	1646,57
696,47	1746,92
696,66	1621,99
696,84	1687,53
697,03	1665,00
697,21	1902,56
697,40	2318,30
697,58	1771,49
697,76	1712,10
697,95	1708,01
698,13	1697,77
698,32	1724,39
698,50	1710,05
698,68	1685,48
698,87	1771,49
699,05	1773,54
699,24	1726,44
699,42	1699,81
699,61	1689,57
699,79	1675,24
699,97	1757,16
700,16	1642,47
700,34	1630,18
700,53	1726,44
700,71	1740,77
700,89	1857,51
701,08	1730,53
701,26	1738,73
701,45	2015,20
701,63	1691,62
701,81	1736,68
702,00	1730,53
702,18	1755,11
702,37	1652,71
702,55	1720,29
702,73	1626,09
702,92	1722,34
703,10	1728,49
703,28	1705,96
703,47	1621,99
703,65	1816,55
703,84	1718,25
704,02	1744,87
704,20	1720,29
704,39	1640,42
704,57	1665,00
704,75	1720,29
704,94	1751,01
705,12	1730,53
705,30	1689,57
705,49	2252,77
705,67	4388,80
705,86	9265,01
706,04	12480,32
706,22	14272,29
706,41	15394,58
706,59	13918,00
706,77	9592,69
706,96	7423,89
707,14	6588,32
707,32	5896,10
707,51	5590,95
707,69	4925,36
707,87	4204,48
708,06	3573,71
708,24	2990,03
708,42	2449,37
708,61	2248,67
708,79	1947,62
708,97	1873,89
709,16	1775,59
709,34	1802,21
709,52	1736,68
709,71	1732,58
709,89	1742,82
710,07	1636,33
710,26	1624,04
710,44	1632,23
710,62	1798,12
710,80	1669,09
710,99	1693,67
711,17	1751,01
711,35	1695,72
711,54	1720,29
711,72	1705,96
711,90	1763,30
712,09	1656,81
712,27	1673,19
712,45	1644,52
712,63	1658,85
712,82	1724,39
713,00	1730,53
713,18	1648,61
713,37	1742,82
713,55	1769,44
713,73	1695,72
713,91	1708,01
714,10	1734,63
714,28	1716,20
714,46	1718,25
714,65	1726,44
714,83	1689,57
715,01	1660,90
715,19	1718,25
715,38	1716,20
715,56	1693,67
715,74	1665,00
715,92	1634,28
716,11	1742,82
716,29	1603,56
716,47	1634,28
716,65	1705,96
716,84	1632,23
717,02	1683,43
717,20	1591,27
717,38	1677,29
717,57	1748,97
717,75	1650,66
717,93	1675,24
718,11	1746,92
718,30	1597,42
718,48	1705,96
718,66	1748,97
718,84	1775,59
719,03	1716,20
719,21	1642,47
719,39	1724,39
719,57	1779,68
719,75	1791,97
719,94	1693,67
720,12	1693,67
720,30	1628,14
720,48	1794,02
720,67	1638,38
720,85	1695,72
721,03	1734,63
721,21	1624,04
721,39	1697,77
721,58	1732,58
721,76	1718,25
721,94	1742,82
722,12	1675,24
722,30	1759,21
722,49	1638,38
722,67	1748,97
722,85	1720,29
723,03	1660,90
723,21	1683,43
723,40	1730,53
723,58	1757,16
723,76	1681,38
723,94	1722,34
724,12	1703,91
724,30	1767,40
724,49	1732,58
724,67	1628,14
724,85	1783,78
725,03	1648,61
725,21	1769,44
725,40	1789,92
725,58	1642,47
725,76	1722,34
725,94	1695,72
726,12	1640,42
726,30	1669,09
726,49	1718,25
726,67	1665,00
726,85	1744,87
727,03	1751,01
727,21	2203,61
727,39	2893,78
727,57	3708,87
727,76	4274,11
727,94	4405,18
728,12	4351,93
728,30	3760,07
728,48	2985,94
728,66	2875,35
728,84	2648,02
729,03	2359,26
729,21	2084,83
729,39	2011,11
729,57	1869,80
729,75	1812,45
729,93	1880,04
730,11	1722,34
730,30	1705,96
730,48	1699,81
730,66	1779,68
730,84	1775,59
731,02	1738,73
731,20	1691,62
731,38	1701,86
731,56	1624,04
731,74	1650,66
731,93	1712,10
732,11	1689,57
732,29	1708,01
732,47	1748,97
732,65	1701,86
732,83	1794,02
733,01	1701,86
733,19	1568,74
733,37	1722,34
733,56	1693,67
733,74	1685,48
733,92	1740,77
734,10	1675,24
734,28	1722,34
734,46	1712,10
734,64	1689,57
734,82	1652,71
735,00	1734,63
735,18	1701,86
735,36	1701,86
735,54	1642,47
735,73	1716,20
735,91	1720,29
736,09	1812,45
736,27	1669,09
736,45	1753,06
736,63	1603,56
736,81	1689,57
736,99	1720,29
737,17	1724,39
737,35	1777,64
737,53	1712,10
737,71	1716,20
737,89	1724,39
738,07	1701,86
738,25	1652,71
738,43	1679,33
738,61	1615,85
738,80	1691,62
738,98	1681,38
739,16	1665,00
739,34	1654,76
739,52	1785,83
739,70	1738,73
739,88	1724,39
740,06	1730,53
740,24	1667,05
740,42	1761,25
740,60	1535,98
740,78	1683,43
740,96	1619,94
741,14	1693,67
741,32	1738,73
741,50	1683,43
741,68	1832,93
741,86	1718,25
742,04	1662,95
742,22	1665,00
742,40	1732,58
742,58	1789,92
742,76	1695,72
742,94	1724,39
743,12	1576,94
743,30	1652,71
743,48	1732,58
743,66	1755,11
743,84	1773,54
744,02	1660,90
744,20	1638,38
744,38	1740,77
744,56	1683,43
744,74	1751,01
744,92	1703,91
745,10	1718,25
745,28	1703,91
745,46	1781,73
745,64	1693,67
745,82	1822,69
746,00	1630,18
746,18	1671,14
746,36	1681,38
746,54	1689,57
746,72	1742,82
746,90	1619,94
747,08	1794,02
747,26	1677,29
747,44	1818,60
747,62	1691,62
747,80	1728,49
747,98	1785,83
748,15	1648,61
748,33	1847,27
748,51	1652,71
748,69	1755,11
748,87	1669,09
749,05	1621,99
749,23	1699,81
749,41	1753,06
749,59	1683,43
749,77	1818,60
749,95	1665,00
750,13	1660,90
750,31	1781,73
750,49	1669,09
750,67	1767,40
750,85	1748,97
751,03	1718,25
751,20	1912,80
751,38	1730,53
751,56	1615,85
751,74	1738,73
751,92	1738,73
752,10	1648,61
752,28	1787,88
752,46	1714,15
752,64	1617,90
752,82	1626,09
753,00	1820,64
753,18	1695,72
753,35	1722,34
753,53	1648,61
753,71	1615,85
753,89	1736,68
754,07	1691,62
754,25	1812,45
754,43	1712,10
754,61	1656,81
754,79	1742,82
754,97	1718,25
755,14	1734,63
755,32	1638,38
755,50	1738,73
755,68	1697,77
755,86	1656,81
756,04	1607,66
756,22	1585,13
756,40	1697,77
756,57	1777,64
756,75	1662,95
756,93	1728,49
757,11	1681,38
757,29	1650,66
757,47	1710,05
757,65	1630,18
757,82	1601,51
758,00	1728,49
758,18	1683,43
758,36	1650,66
758,54	1859,56
758,72	1671,14
758,90	1732,58
759,07	1673,19
759,25	1665,00
759,43	1708,01
759,61	1652,71
759,79	2166,75
759,97	1771,49
760,15	1587,18
760,32	1712,10
760,50	1730,53
760,68	1789,92
760,86	1613,80
761,04	1642,47
761,22	1771,49
761,39	1742,82
761,57	1714,15
761,75	1667,05
761,93	1728,49
762,11	1662,95
762,28	1705,96
762,46	1697,77
762,64	1751,01
762,82	1673,19
763,00	1779,68
763,18	1783,78
763,35	1632,23
763,53	1730,53
763,71	1681,38
763,89	1759,21
764,07	1714,15
764,24	1798,12
764,42	1759,21
764,60	1740,77
764,78	1730,53
764,96	1665,00
765,13	1722,34
765,31	1685,48
765,49	1757,16
765,67	1736,68
765,84	1636,33
766,02	1681,38
766,20	1634,28
766,38	1710,05
766,56	1705,96
766,73	1767,40
766,91	1724,39
767,09	1740,77
767,27	1810,40
767,44	1578,98
767,62	1728,49
767,80	1683,43
767,98	1789,92
768,15	1642,47
768,33	1701,86
768,51	1744,87
768,69	1699,81
768,87	1730,53
769,04	1742,82
769,22	1773,54
769,40	1755,11
769,58	1826,79
769,75	1718,25
769,93	1828,84
770,11	1701,86
770,28	1597,42
770,46	1779,68
770,64	1695,72
770,82	1705,96
770,99	1683,43
771,17	1718,25
771,35	1624,04
771,53	1767,40
771,70	1720,29
771,88	1728,49
772,06	1806,31
772,23	1748,97
772,41	1710,05
772,59	1695,72
772,77	1675,24
772,94	1740,77
773,12	1779,68
773,30	1615,85
773,47	1728,49
773,65	1681,38
773,83	1812,45
774,01	1781,73
774,18	1609,70
774,36	1714,15
774,54	1609,70
774,71	1730,53
774,89	1566,70
775,07	1626,09
775,24	1689,57
775,42	1720,29
775,60	1767,40
775,78	1615,85
775,95	1619,94
776,13	1601,51
776,31	1564,65
776,48	1689,57
776,66	1691,62
776,84	1695,72
777,01	1683,43
777,19	1679,33
777,37	1697,77
777,54	1714,15
777,72	1810,40
777,90	1679,33
778,07	1665,00
778,25	1841,12
778,43	1714,15
778,60	1667,05
778,78	1814,50
778,96	1787,88
779,13	1636,33
779,31	1783,78
779,49	1683,43
779,66	1679,33
779,84	1656,81
780,01	1648,61
780,19	1644,52
780,37	1703,91
780,54	1697,77
780,72	1675,24
780,90	1644,52
781,07	1697,77
781,25	1650,66
781,43	1740,77
781,60	1648,61
781,78	1851,36
781,95	1705,96
782,13	1626,09
782,31	1710,05
782,48	1626,09
782,66	1665,00
782,83	1826,79
783,01	1714,15
783,19	1779,68
783,36	1621,99
783,54	1665,00
783,72	1699,81
783,89	1644,52
784,07	1734,63
784,24	1771,49
784,42	1806,31
784,60	1699,81
784,77	1703,91
784,95	1523,69
785,12	1605,61
785,30	1720,29
785,47	1662,95
785,65	1732,58
785,83	1669,09
786,00	1689,57
786,18	1644,52
786,35	1677,29
786,53	1656,81
786,71	1740,77
786,88	1759,21
787,06	1771,49
787,23	1701,86
787,41	1626,09
787,58	1708,01
787,76	1642,47
787,94	1732,58
788,11	1642,47
788,29	1644,52
788,46	1730,53
788,64	1644,52
788,81	1675,24
788,99	1691,62
789,16	1654,76
789,34	1646,57
789,52	1679,33
789,69	1660,90
789,87	1587,18
790,04	1748,97
790,22	1703,91
790,39	1832,93
790,57	1644,52
790,74	1650,66
790,92	1746,92
791,09	1636,33
791,27	1703,91
791,44	1757,16
791,62	1656,81
791,79	1775,59
791,97	1744,87
792,15	1816,55
792,32	1777,64
792,50	1777,64
792,67	1761,25
792,85	1728,49
793,02	1751,01
793,20	1628,14
793,37	1595,37
793,55	1652,71
793,72	1603,56
793,90	1746,92
794,07	1640,42
794,25	1615,85
794,42	1624,04
794,60	1671,14
794,77	1761,25
794,95	1732,58
795,12	1830,88
795,30	1640,42
795,47	1736,68
795,65	1857,51
795,82	1669,09
796,00	1646,57
796,17	1685,48
796,34	1658,85
796,52	1751,01
796,69	1728,49
796,87	1716,20
797,04	1800,16
797,22	1765,35
797,39	1724,39
797,57	1734,63
797,74	1722,34
797,92	1638,38
798,09	1708,01
798,27	1699,81
798,44	1714,15
798,62	1642,47
798,79	1751,01
798,96	1771,49
799,14	1730,53
799,31	1816,55
799,49	1763,30
799,66	1630,18
799,84	1728,49
800,01	1642,47
800,19	1708,01
800,36	1570,79
800,53	1665,00
800,71	1759,21
800,88	1751,01
801,06	1652,71
801,23	1681,38
801,41	1732,58
801,58	1681,38
801,75	1646,57
801,93	1687,53
802,10	1785,83
802,28	1705,96
802,45	1673,19
802,63	1722,34
802,80	1757,16
802,97	1613,80
803,15	1728,49
803,32	1677,29
803,50	1658,85
803,67	1578,98
803,84	1603,56
804,02	1693,67
804,19	1730,53
804,37	1601,51
804,54	1695,72
804,71	1718,25
804,89	1656,81
805,06	1642,47
805,24	1642,47
805,41	1665,00
805,58	1675,24
805,76	1820,64
805,93	1728,49
806,10	1751,01
806,28	1679,33
806,45	1681,38
806,63	1708,01
806,80	1730,53
806,97	1628,14
807,15	1714,15
807,32	1708,01
807,49	1691,62
807,67	1636,33
807,84	1677,29
808,01	1572,84
808,19	1777,64
808,36	1812,45
808,54	1708,01
808,71	1656,81
808,88	1714,15
809,06	1763,30
809,23	1816,55
809,40	1665,00
809,58	1714,15
809,75	1681,38
809,92	1619,94
810,10	1822,69
810,27	1671,14
810,44	1689,57
810,62	1740,77
810,79	1714,15
810,96	1708,01
811,14	1701,86
811,31	1665,00
811,48	1763,30
811,66	1683,43
811,83	1773,54
812,00	1724,39
812,18	1759,21
812,35	1718,25
812,52	1656,81
812,69	1650,66
812,87	1695,72
813,04	1701,86
813,21	1730,53
813,39	1628,14
813,56	1591,27
813,73	1708,01
813,91	1673,19
814,08	1693,67
814,25	1708,01
814,42	1632,23
814,60	1712,10
814,77	1683,43
814,94	1759,21
815,12	1746,92
815,29	1748,97
815,46	1767,40
815,63	1660,90
815,81	1656,81
815,98	1658,85
816,15	1691,62
816,33	1732,58
816,50	1677,29
816,67	1703,91
816,84	1669,09
817,02	1665,00
817,19	1701,86
817,36	1685,48
817,53	1693,67
817,71	1636,33
817,88	1755,11
818,05	1693,67
818,22	1646,57
818,40	1712,10
818,57	1738,73
818,74	1751,01
818,91	1703,91
819,09	1779,68
819,26	1751,01
819,43	1679,33
819,60	1685,48
819,78	1669,09
819,95	1802,21
820,12	1667,05
820,29	1703,91
820,47	1748,97
820,64	1660,90
820,81	1609,70
820,98	1636,33
821,15	1646,57
821,33	1789,92
821,50	1660,90
821,67	1712,10
821,84	1652,71
822,02	1726,44
822,19	1683,43
822,36	1681,38
822,53	1642,47
822,70	1630,18
822,88	1714,15
823,05	1808,36
823,22	1665,00
823,39	1761,25
823,56	1748,97
823,74	1820,64
823,91	1621,99
824,08	1648,61
824,25	1665,00
824,42	1816,55
824,60	1597,42
824,77	1767,40
824,94	1656,81
825,11	1685,48
825,28	1546,22
825,45	1640,42
825,63	1689,57
825,80	1697,77
825,97	1714,15
826,14	1703,91
826,31	1619,94
826,48	1656,81
826,66	1617,90
826,83	1673,19
827,00	1806,31
827,17	1714,15
827,34	1603,56
827,51	1652,71
827,69	1710,05
827,86	1607,66
828,03	1681,38
828,20	1736,68
828,37	1714,15
828,54	1710,05
828,71	1613,80
828,89	1730,53
829,06	1794,02
829,23	1720,29
829,40	1630,18
829,57	1609,70
829,74	1685,48
829,91	1722,34
830,09	1650,66
830,26	1708,01
830,43	1777,64
830,60	1662,95
830,77	1679,33
830,94	1763,30
831,11	1732,58
831,28	1656,81
831,46	1734,63
831,63	1683,43
831,80	1714,15
831,97	1654,76
832,14	1609,70
832,31	1746,92
832,48	1716,20
832,65	1787,88
832,82	1712,10
832,99	1751,01
833,17	1638,38
833,34	1767,40
833,51	1738,73
833,68	1648,61
833,85	1761,25
834,02	1671,14
834,19	1595,37
834,36	1689,57
834,53	1693,67
834,70	1738,73
834,87	1769,44
835,04	1648,61
835,22	1665,00
835,39	1677,29
835,56	1677,29
835,73	1619,94
835,90	1755,11
836,07	1665,00
836,24	1802,21
836,41	1687,53
836,58	1685,48
836,75	1714,15
836,92	1738,73
837,09	1626,09
837,26	1660,90
837,43	1800,16
837,60	1726,44
837,77	1638,38
837,94	1724,39
838,12	1748,97
838,29	1673,19
838,46	1632,23
838,63	1611,75
838,80	1798,12
838,97	1755,11
839,14	1736,68
839,31	1632,23
839,48	1712,10
839,65	1607,66
839,82	1755,11
839,99	1734,63
840,16	1742,82
840,33	1683,43
840,50	1748,97
840,67	1703,91
840,84	1648,61
841,01	1695,72
841,18	1656,81
841,35	1716,20
841,52	1751,01
841,69	1771,49
841,86	1683,43
842,03	1679,33
842,20	1730,53
842,37	1665,00
842,54	1796,07
842,71	1736,68
842,88	1630,18
843,05	1751,01
843,22	1714,15
843,39	1769,44
843,56	1724,39
843,73	1638,38
843,90	1730,53
844,07	1689,57
844,24	1714,15
844,41	1710,05
844,58	1728,49
844,75	1671,14
844,92	1722,34
845,09	1665,00
845,26	1683,43
845,43	1722,34
845,60	1751,01
845,77	1732,58
845,94	1675,24
846,10	1708,01
846,27	1615,85
846,44	1603,56
846,61	1599,46
846,78	1714,15
846,95	1624,04
847,12	1705,96
847,29	1746,92
847,46	1648,61
847,63	1751,01
847,80	1638,38
847,97	1810,40
848,14	1777,64
848,31	1576,94
848,48	1560,55
848,65	1728,49
848,82	1548,26
848,98	1861,60
849,15	1736,68
849,32	1744,87
849,49	1742,82
849,66	1697,77
849,83	1796,07
850,00	1562,60
850,17	1695,72
850,34	1701,86
850,51	1693,67
850,68	1671,14
850,85	1822,69
851,01	1744,87
851,18	1767,40
851,35	1638,38
851,52	1791,97
851,69	1798,12
851,86	1636,33
852,03	1736,68
852,20	1771,49
852,37	1673,19
852,53	1681,38
852,70	1740,77
852,87	1710,05
853,04	1789,92
853,21	1697,77
853,38	1808,36
853,55	1791,97
853,72	1765,35
853,89	1626,09
854,05	1673,19
854,22	1599,46
854,39	1693,67
854,56	1720,29
854,73	1701,86
854,90	1665,00
855,07	1650,66
855,23	1689,57
855,40	1640,42
855,57	1660,90
855,74	1599,46
855,91	1849,32
856,08	1679,33
856,25	1587,18
856,41	1572,84
856,58	1724,39
856,75	1665,00
856,92	1554,41
857,09	1738,73
857,26	1615,85
857,42	1708,01
857,59	1771,49
857,76	1667,05
857,93	1753,06
858,10	1751,01
858,27	1636,33
858,43	1697,77
858,60	1640,42
858,77	1652,71
858,94	1685,48
859,11	1728,49
859,27	1697,77
859,44	1683,43
859,61	1818,60
859,78	1740,77
859,95	1675,24
860,12	1658,85
860,28	1734,63
860,45	1785,83
860,62	1683,43
860,79	1648,61
860,95	1677,29
861,12	1671,14
861,29	1691,62
861,46	1656,81
861,63	1665,00
861,79	1726,44
861,96	1632,23
862,13	1587,18
862,30	1712,10
862,47	1591,27
862,63	1675,24
862,80	1783,78
862,97	1748,97
863,14	1734,63
863,30	1699,81
863,47	1642,47
863,64	1767,40
863,81	1705,96
863,97	1667,05
864,14	1677,29
864,31	1654,76
864,48	1667,05
864,65	1656,81
864,81	1722,34
864,98	1701,86
865,15	1710,05
865,32	1728,49
865,48	1808,36
865,65	1771,49
865,82	1669,09
865,98	1718,25
866,15	1746,92
866,32	1744,87
866,49	1640,42
866,65	1798,12
866,82	1609,70
866,99	1665,00
867,16	1650,66
867,32	1724,39
867,49	1675,24
867,66	1705,96
867,83	1671,14
867,99	1607,66
868,16	1667,05
868,33	1660,90
868,49	1675,24
868,66	1718,25
868,83	1718,25
868,99	1718,25
869,16	1652,71
869,33	1802,21
869,50	1791,97
869,66	1677,29
869,83	1699,81
870,00	1595,37
870,16	1712,10
870,33	1626,09
870,50	1720,29
870,66	1718,25
870,83	1880,04
871,00	1665,00
871,17	1677,29
871,33	1640,42
871,50	1652,71
871,67	1771,49
871,83	1609,70
872,00	1742,82
872,17	1720,29
872,33	1791,97
872,50	1789,92
872,67	1644,52
872,83	1695,72
873,00	1748,97
873,17	1714,15
873,33	1791,97
873,50	1763,30
873,67	1642,47
873,83	1558,50
874,00	1718,25
874,16	1681,38
874,33	1677,29
874,50	1603,56
874,66	1751,01
874,83	1748,97
875,00	1787,88
875,16	1732,58
875,33	1656,81
875,50	1605,61
875,66	1640,42
875,83	1728,49
875,99	1730,53
876,16	1767,40
876,33	1605,61
876,49	1724,39
876,66	1679,33
876,83	1683,43
876,99	1554,41
877,16	1654,76
877,32	1716,20
877,49	1703,91
877,66	1722,34
877,82	1710,05
877,99	1644,52
878,15	1650,66
878,32	1769,44
878,49	1716,20
878,65	1640,42
878,82	1736,68
878,98	1576,94
879,15	1783,78
879,32	1742,82
879,48	1665,00
879,65	1634,28
879,81	1746,92
879,98	1662,95
880,15	1673,19
880,31	1763,30
880,48	1671,14
880,64	1822,69
880,81	1849,32
880,97	1800,16
881,14	1746,92
881,31	1591,27
881,47	1888,23
881,64	1654,76
881,80	1718,25
881,97	1654,76
882,13	1779,68
882,30	1626,09
882,47	1650,66
882,63	1665,00
882,80	1591,27
882,96	1630,18
883,13	1777,64
883,29	1712,10
883,46	1732,58
883,62	1826,79
883,79	1753,06
883,95	1755,11
884,12	1746,92
884,29	1718,25
884,45	1683,43
884,62	1626,09
884,78	1669,09
884,95	1751,01
885,11	1652,71
885,28	1738,73
885,44	1730,53
885,61	1654,76
885,77	1759,21
885,94	1718,25
886,10	1689,57
886,27	1632,23
886,43	1738,73
886,60	1791,97
886,76	1644,52
886,93	1648,61
887,09	1708,01
887,26	1581,03
887,42	1689,57
887,59	1779,68
887,75	1851,36
887,92	1697,77
888,08	1761,25
888,25	1730,53
888,41	1740,77
888,58	1648,61
888,74	1681,38
888,91	1636,33
>>>>>End Processed Spectral Data<<<<<
