SpectraSuite Data File
++++++++++++++++++++++++++++++++++++
Date: Mon Jun 06 12:22:37 CEST 2016
User: root
Dark Spectrum Present: No
Reference Spectrum Present: No
Number of Sampled Component Spectra: 1
Spectrometers: USB4C02835
Integration Time (usec): 100000 (USB4C02835)
Spectra Averaged: 1 (USB4C02835)
Boxcar Smoothing: 0 (USB4C02835)
Correct for Electrical Dark: No (USB4C02835)
Strobe/Lamp Enabled: No (USB4C02835)
Correct for Detector Non-linearity: No (USB4C02835)
Correct for Stray Light: No (USB4C02835)
Number of Pixels in Processed Spectrum: 3648
>>>>>Begin Processed Spectral Data<<<<<
177,47	1482,73
177,69	1482,73
177,91	1482,73
178,13	1468,39
178,36	1468,39
178,58	1660,90
178,80	1701,86
179,02	1644,52
179,24	1611,75
179,46	1773,54
179,68	1718,25
179,90	1687,53
180,13	1732,58
180,35	1595,37
180,57	1656,81
180,79	1734,63
181,01	1677,29
181,23	1742,82
181,45	1845,22
181,67	1753,06
181,90	1746,92
182,12	1708,01
182,34	1630,18
182,56	1673,19
182,78	1624,04
183,00	1716,20
183,22	1699,81
183,44	1599,46
183,66	1834,98
183,89	1869,80
184,11	1728,49
184,33	1726,44
184,55	1755,11
184,77	1730,53
184,99	1720,29
185,21	1679,33
185,43	1812,45
185,65	1662,95
185,87	1773,54
186,10	1884,13
186,32	1828,84
186,54	1671,14
186,76	1716,20
186,98	1767,40
187,20	1726,44
187,42	1642,47
187,64	1632,23
187,86	1679,33
188,08	1710,05
188,30	1677,29
188,52	1714,15
188,75	1734,63
188,97	1718,25
189,19	1728,49
189,41	1722,34
189,63	1699,81
189,85	1656,81
190,07	1583,08
190,29	1601,51
190,51	1699,81
190,73	1587,18
190,95	1767,40
191,17	1759,21
191,39	1695,72
191,61	1632,23
191,84	1634,28
192,06	1626,09
192,28	1654,76
192,50	1845,22
192,72	1716,20
192,94	1685,48
193,16	1728,49
193,38	1697,77
193,60	1646,57
193,82	1638,38
194,04	1808,36
194,26	1722,34
194,48	1652,71
194,70	1658,85
194,92	1681,38
195,14	1716,20
195,36	1646,57
195,58	1681,38
195,80	1634,28
196,02	1603,56
196,24	1740,77
196,46	1640,42
196,69	1648,61
196,91	1796,07
197,13	1654,76
197,35	1701,86
197,57	1755,11
197,79	1748,97
198,01	1689,57
198,23	1681,38
198,45	1677,29
198,67	1755,11
198,89	1687,53
199,11	1689,57
199,33	1710,05
199,55	1552,36
199,77	1693,67
199,99	1753,06
200,21	1675,24
200,43	1755,11
200,65	1703,91
200,87	1609,70
201,09	1634,28
201,31	1658,85
201,53	1736,68
201,75	1691,62
201,97	1699,81
202,19	1751,01
202,41	1624,04
202,63	1859,56
202,85	1748,97
203,07	1691,62
203,29	1599,46
203,51	1611,75
203,73	1697,77
203,95	1834,98
204,17	1689,57
204,39	1703,91
204,61	1656,81
204,83	1626,09
205,05	1662,95
205,27	1767,40
205,49	1869,80
205,71	1685,48
205,93	1599,46
206,15	1714,15
206,37	1744,87
206,59	1677,29
206,81	1677,29
207,03	1646,57
207,25	1621,99
207,47	1685,48
207,69	1648,61
207,91	1763,30
208,13	1767,40
208,34	1621,99
208,56	1740,77
208,78	1728,49
209,00	1671,14
209,22	1726,44
209,44	1691,62
209,66	1755,11
209,88	1693,67
210,10	1619,94
210,32	1654,76
210,54	1773,54
210,76	1658,85
210,98	1728,49
211,20	1587,18
211,42	1712,10
211,64	1693,67
211,86	1812,45
212,08	1642,47
212,30	1761,25
212,52	1705,96
212,74	1708,01
212,96	1730,53
213,17	1703,91
213,39	1777,64
213,61	1796,07
213,83	1777,64
214,05	1638,38
214,27	1880,04
214,49	1646,57
214,71	1748,97
214,93	1714,15
215,15	1660,90
215,37	1751,01
215,59	1595,37
215,81	1667,05
216,03	1785,83
216,24	1695,72
216,46	1662,95
216,68	1679,33
216,90	1712,10
217,12	1746,92
217,34	1697,77
217,56	1781,73
217,78	1781,73
218,00	1718,25
218,22	1699,81
218,44	1687,53
218,66	1751,01
218,87	1804,26
219,09	1603,56
219,31	1716,20
219,53	1703,91
219,75	1681,38
219,97	1662,95
220,19	1697,77
220,41	1785,83
220,63	1726,44
220,85	1667,05
221,06	1748,97
221,28	1779,68
221,50	1710,05
221,72	1703,91
221,94	1642,47
222,16	1644,52
222,38	1742,82
222,60	1802,21
222,82	1638,38
223,03	1781,73
223,25	1576,94
223,47	1785,83
223,69	1787,88
223,91	1722,34
224,13	1701,86
224,35	1665,00
224,57	1730,53
224,78	1699,81
225,00	1599,46
225,22	1693,67
225,44	1648,61
225,66	1689,57
225,88	1624,04
226,10	1777,64
226,32	1748,97
226,53	1830,88
226,75	1716,20
226,97	1656,81
227,19	1742,82
227,41	1646,57
227,63	1687,53
227,85	1581,03
228,06	1632,23
228,28	1748,97
228,50	1652,71
228,72	1683,43
228,94	1734,63
229,16	1638,38
229,37	1648,61
229,59	1611,75
229,81	1734,63
230,03	1667,05
230,25	1677,29
230,47	1654,76
230,69	1648,61
230,90	1724,39
231,12	1726,44
231,34	1685,48
231,56	1791,97
231,78	1630,18
232,00	1701,86
232,21	1720,29
232,43	1619,94
232,65	1615,85
232,87	1699,81
233,09	1619,94
233,30	1712,10
233,52	1734,63
233,74	1669,09
233,96	1652,71
234,18	1667,05
234,40	1703,91
234,61	1824,74
234,83	1632,23
235,05	1654,76
235,27	1880,04
235,49	1701,86
235,70	1732,58
235,92	1767,40
236,14	1718,25
236,36	1855,46
236,58	1591,27
236,79	1724,39
237,01	1730,53
237,23	1722,34
237,45	1800,16
237,67	1677,29
237,88	1689,57
238,10	1757,16
238,32	1619,94
238,54	1656,81
238,76	1628,14
238,97	1675,24
239,19	1677,29
239,41	1779,68
239,63	1716,20
239,85	1660,90
240,06	1675,24
240,28	1564,65
240,50	1695,72
240,72	1744,87
240,93	1728,49
241,15	1757,16
241,37	1669,09
241,59	1820,64
241,81	1701,86
242,02	1669,09
242,24	1736,68
242,46	1712,10
242,68	1581,03
242,89	1652,71
243,11	1710,05
243,33	1703,91
243,55	1767,40
243,76	1705,96
243,98	1646,57
244,20	1697,77
244,42	1759,21
244,64	1755,11
244,85	1708,01
245,07	1656,81
245,29	1712,10
245,51	1691,62
245,72	1603,56
245,94	1791,97
246,16	1728,49
246,38	1693,67
246,59	1667,05
246,81	1630,18
247,03	1744,87
247,24	1638,38
247,46	1648,61
247,68	1746,92
247,90	1691,62
248,11	1728,49
248,33	1726,44
248,55	1714,15
248,77	1675,24
248,98	1732,58
249,20	1755,11
249,42	1624,04
249,64	1738,73
249,85	1603,56
250,07	1613,80
250,29	1638,38
250,50	1728,49
250,72	1609,70
250,94	1671,14
251,16	1785,83
251,37	1755,11
251,59	1708,01
251,81	1681,38
252,02	1794,02
252,24	1677,29
252,46	1753,06
252,68	1679,33
252,89	1765,35
253,11	1617,90
253,33	1773,54
253,54	1734,63
253,76	1603,56
253,98	1689,57
254,20	1751,01
254,41	1656,81
254,63	1658,85
254,85	1630,18
255,06	1662,95
255,28	1759,21
255,50	1697,77
255,71	1644,52
255,93	1656,81
256,15	1654,76
256,36	1787,88
256,58	1683,43
256,80	1660,90
257,02	1710,05
257,23	1654,76
257,45	1742,82
257,67	1687,53
257,88	1697,77
258,10	1710,05
258,32	1736,68
258,53	1667,05
258,75	1787,88
258,97	1671,14
259,18	1656,81
259,40	1767,40
259,62	1826,79
259,83	1685,48
260,05	1757,16
260,27	1918,95
260,48	1644,52
260,70	1673,19
260,92	1640,42
261,13	1683,43
261,35	1665,00
261,57	1771,49
261,78	1583,08
262,00	1599,46
262,22	1767,40
262,43	1613,80
262,65	1634,28
262,86	1791,97
263,08	1771,49
263,30	1757,16
263,51	1574,89
263,73	1673,19
263,95	1710,05
264,16	1644,52
264,38	1736,68
264,60	1722,34
264,81	1675,24
265,03	1724,39
265,25	1695,72
265,46	1650,66
265,68	1748,97
265,89	1681,38
266,11	1626,09
266,33	1734,63
266,54	1769,44
266,76	1689,57
266,98	1689,57
267,19	1804,26
267,41	1714,15
267,62	1621,99
267,84	1695,72
268,06	1746,92
268,27	1812,45
268,49	1755,11
268,70	1732,58
268,92	1677,29
269,14	1697,77
269,35	1574,89
269,57	1724,39
269,79	1708,01
270,00	1595,37
270,22	1791,97
270,43	1660,90
270,65	1587,18
270,87	1703,91
271,08	1714,15
271,30	1759,21
271,51	1689,57
271,73	1738,73
271,95	1769,44
272,16	1689,57
272,38	1691,62
272,59	1658,85
272,81	1763,30
273,02	1660,90
273,24	1652,71
273,46	1701,86
273,67	1603,56
273,89	1638,38
274,10	1624,04
274,32	1730,53
274,54	1679,33
274,75	1728,49
274,97	1650,66
275,18	1746,92
275,40	1734,63
275,61	1773,54
275,83	1675,24
276,05	1708,01
276,26	1730,53
276,48	1726,44
276,69	1701,86
276,91	1624,04
277,12	1800,16
277,34	1746,92
277,55	1763,30
277,77	1679,33
277,99	1634,28
278,20	1640,42
278,42	1591,27
278,63	1634,28
278,85	1642,47
279,06	1572,84
279,28	1806,31
279,49	1675,24
279,71	1689,57
279,93	1648,61
280,14	1665,00
280,36	1617,90
280,57	1710,05
280,79	1712,10
281,00	1708,01
281,22	1626,09
281,43	1787,88
281,65	1566,70
281,86	1648,61
282,08	1722,34
282,29	1759,21
282,51	1642,47
282,73	1648,61
282,94	1533,93
283,16	1761,25
283,37	1767,40
283,59	1726,44
283,80	1755,11
284,02	1665,00
284,23	1740,77
284,45	1691,62
284,66	1624,04
284,88	1619,94
285,09	1730,53
285,31	1703,91
285,52	1710,05
285,74	1591,27
285,95	1716,20
286,17	1740,77
286,38	1732,58
286,60	1679,33
286,81	1693,67
287,03	1701,86
287,24	1779,68
287,46	1691,62
287,67	1693,67
287,89	1773,54
288,10	1744,87
288,32	1744,87
288,53	1834,98
288,75	1724,39
288,96	1703,91
289,18	1617,90
289,39	1730,53
289,61	1693,67
289,82	1783,78
290,04	1820,64
290,25	1591,27
290,47	1599,46
290,68	1640,42
290,90	1742,82
291,11	1638,38
291,33	1765,35
291,54	1626,09
291,76	1611,75
291,97	1705,96
292,18	1701,86
292,40	1669,09
292,61	1611,75
292,83	1900,52
293,04	1724,39
293,26	1628,14
293,47	1628,14
293,69	1683,43
293,90	1712,10
294,12	1761,25
294,33	1687,53
294,55	1771,49
294,76	1832,93
294,97	1660,90
295,19	1826,79
295,40	1656,81
295,62	1781,73
295,83	1716,20
296,05	1658,85
296,26	1802,21
296,48	1685,48
296,69	1701,86
296,90	1634,28
297,12	1679,33
297,33	1732,58
297,55	1658,85
297,76	1742,82
297,98	1789,92
298,19	1697,77
298,41	1746,92
298,62	1669,09
298,83	1783,78
299,05	1679,33
299,26	1648,61
299,48	1665,00
299,69	1701,86
299,90	1634,28
300,12	1738,73
300,33	1689,57
300,55	1640,42
300,76	1722,34
300,98	1652,71
301,19	1777,64
301,40	1665,00
301,62	1738,73
301,83	1701,86
302,05	1697,77
302,26	1689,57
302,47	1757,16
302,69	1603,56
302,90	1710,05
303,12	1669,09
303,33	1796,07
303,54	1796,07
303,76	1652,71
303,97	1652,71
304,19	1656,81
304,40	1675,24
304,61	1708,01
304,83	1757,16
305,04	1705,96
305,26	1726,44
305,47	1744,87
305,68	1677,29
305,90	1595,37
306,11	1724,39
306,33	1687,53
306,54	1705,96
306,75	1708,01
306,97	1609,70
307,18	1621,99
307,39	1601,51
307,61	1806,31
307,82	1667,05
308,04	1732,58
308,25	1628,14
308,46	1730,53
308,68	1697,77
308,89	1703,91
309,10	1724,39
309,32	1781,73
309,53	1691,62
309,74	1705,96
309,96	1671,14
310,17	1718,25
310,39	1695,72
310,60	1714,15
310,81	1685,48
311,03	1607,66
311,24	1734,63
311,45	1656,81
311,67	1744,87
311,88	1667,05
312,09	1693,67
312,31	1644,52
312,52	1638,38
312,73	1722,34
312,95	1603,56
313,16	1636,33
313,37	1880,04
313,59	1675,24
313,80	1759,21
314,01	1771,49
314,23	1697,77
314,44	1708,01
314,65	1638,38
314,87	1619,94
315,08	1724,39
315,29	1701,86
315,51	1654,76
315,72	1710,05
315,93	1796,07
316,15	1773,54
316,36	1650,66
316,57	1701,86
316,79	1746,92
317,00	1669,09
317,21	1751,01
317,43	1665,00
317,64	1675,24
317,85	1607,66
318,07	1677,29
318,28	1791,97
318,49	1771,49
318,70	1931,23
318,92	1818,60
319,13	1773,54
319,34	1892,32
319,56	1714,15
319,77	1820,64
319,98	1763,30
320,20	1677,29
320,41	1826,79
320,62	1767,40
320,83	1640,42
321,05	1798,12
321,26	1716,20
321,47	1638,38
321,69	1669,09
321,90	1630,18
322,11	1648,61
322,32	1726,44
322,54	1761,25
322,75	1642,47
322,96	1783,78
323,18	1646,57
323,39	1548,26
323,60	1628,14
323,81	1689,57
324,03	1693,67
324,24	1644,52
324,45	1703,91
324,66	1572,84
324,88	1738,73
325,09	1841,12
325,30	1701,86
325,52	1662,95
325,73	1689,57
325,94	1607,66
326,15	1578,98
326,37	1681,38
326,58	1724,39
326,79	1783,78
327,00	1646,57
327,22	1705,96
327,43	1687,53
327,64	1603,56
327,85	1724,39
328,07	1660,90
328,28	1783,78
328,49	1636,33
328,70	1767,40
328,92	1746,92
329,13	1656,81
329,34	1755,11
329,55	1730,53
329,76	1753,06
329,98	1656,81
330,19	1777,64
330,40	1746,92
330,61	1656,81
330,83	1748,97
331,04	1628,14
331,25	1714,15
331,46	1687,53
331,68	1642,47
331,89	1791,97
332,10	1568,74
332,31	1634,28
332,52	1701,86
332,74	1767,40
332,95	1630,18
333,16	1665,00
333,37	1699,81
333,58	1560,55
333,80	1755,11
334,01	1617,90
334,22	1697,77
334,43	1624,04
334,64	1658,85
334,86	1638,38
335,07	1607,66
335,28	1779,68
335,49	1619,94
335,70	1755,11
335,92	1767,40
336,13	1779,68
336,34	1701,86
336,55	1781,73
336,76	1759,21
336,98	1564,65
337,19	1650,66
337,40	1769,44
337,61	1806,31
337,82	1669,09
338,04	1726,44
338,25	1632,23
338,46	1691,62
338,67	1609,70
338,88	1632,23
339,09	1644,52
339,31	1599,46
339,52	1656,81
339,73	1587,18
339,94	1671,14
340,15	1812,45
340,36	1683,43
340,58	1757,16
340,79	1599,46
341,00	1728,49
341,21	1638,38
341,42	1837,03
341,63	1681,38
341,85	1787,88
342,06	1697,77
342,27	1697,77
342,48	1714,15
342,69	1626,09
342,90	1708,01
343,12	1681,38
343,33	1648,61
343,54	1710,05
343,75	1697,77
343,96	1705,96
344,17	1597,42
344,38	1716,20
344,60	1636,33
344,81	1701,86
345,02	1703,91
345,23	1746,92
345,44	1761,25
345,65	1753,06
345,86	1693,67
346,07	1669,09
346,29	1673,19
346,50	1804,26
346,71	1634,28
346,92	1695,72
347,13	1855,46
347,34	1640,42
347,55	1632,23
347,76	1697,77
347,98	1669,09
348,19	1662,95
348,40	1767,40
348,61	1671,14
348,82	1708,01
349,03	1755,11
349,24	1677,29
349,45	1751,01
349,66	1621,99
349,88	1775,59
350,09	1669,09
350,30	1787,88
350,51	1791,97
350,72	1740,77
350,93	1691,62
351,14	1642,47
351,35	1662,95
351,56	1691,62
351,77	1683,43
351,99	1695,72
352,20	1796,07
352,41	1773,54
352,62	1644,52
352,83	1656,81
353,04	1759,21
353,25	1615,85
353,46	1742,82
353,67	1714,15
353,88	1591,27
354,09	1716,20
354,30	1751,01
354,52	1740,77
354,73	1755,11
354,94	1656,81
355,15	1693,67
355,36	1773,54
355,57	1601,51
355,78	1738,73
355,99	1619,94
356,20	1624,04
356,41	1730,53
356,62	1771,49
356,83	1665,00
357,04	1773,54
357,25	1675,24
357,46	1568,74
357,68	1576,94
357,89	1656,81
358,10	1669,09
358,31	1732,58
358,52	1652,71
358,73	1578,98
358,94	1626,09
359,15	1712,10
359,36	1720,29
359,57	1630,18
359,78	1665,00
359,99	1681,38
360,20	1665,00
360,41	1662,95
360,62	1714,15
360,83	1693,67
361,04	1738,73
361,25	1654,76
361,46	1755,11
361,67	1626,09
361,88	1734,63
362,09	1753,06
362,30	1748,97
362,51	1646,57
362,72	1685,48
362,93	1800,16
363,14	1740,77
363,35	1732,58
363,56	1626,09
363,78	1689,57
363,99	1705,96
364,20	1574,89
364,41	1665,00
364,62	1703,91
364,83	1796,07
365,04	1703,91
365,25	1667,05
365,46	1781,73
365,67	1636,33
365,88	1607,66
366,09	1705,96
366,30	1632,23
366,51	1689,57
366,72	1642,47
366,93	1732,58
367,14	1662,95
367,35	1802,21
367,56	1726,44
367,77	1798,12
367,98	1728,49
368,18	1705,96
368,39	1648,61
368,60	1732,58
368,81	1724,39
369,02	1691,62
369,23	1734,63
369,44	1572,84
369,65	1679,33
369,86	1681,38
370,07	1769,44
370,28	1689,57
370,49	1689,57
370,70	1738,73
370,91	1617,90
371,12	1660,90
371,33	1736,68
371,54	1693,67
371,75	1757,16
371,96	1671,14
372,17	1632,23
372,38	1730,53
372,59	1814,50
372,80	1632,23
373,01	1767,40
373,22	1746,92
373,43	1624,04
373,64	1665,00
373,85	1800,16
374,06	1767,40
374,26	1685,48
374,47	1673,19
374,68	1724,39
374,89	1742,82
375,10	1675,24
375,31	1724,39
375,52	1746,92
375,73	1718,25
375,94	1619,94
376,15	1804,26
376,36	1615,85
376,57	1644,52
376,78	1685,48
376,99	1765,35
377,20	1841,12
377,40	1673,19
377,61	1800,16
377,82	1605,61
378,03	1800,16
378,24	1732,58
378,45	1796,07
378,66	1687,53
378,87	1609,70
379,08	1595,37
379,29	1607,66
379,50	1767,40
379,71	1650,66
379,91	1714,15
380,12	1726,44
380,33	1718,25
380,54	1660,90
380,75	1740,77
380,96	1667,05
381,17	1767,40
381,38	1767,40
381,59	1769,44
381,80	1695,72
382,00	1767,40
382,21	1660,90
382,42	1806,31
382,63	1888,23
382,84	1794,02
383,05	1789,92
383,26	1789,92
383,47	1624,04
383,68	1771,49
383,88	1718,25
384,09	1669,09
384,30	1779,68
384,51	1714,15
384,72	1669,09
384,93	1636,33
385,14	1660,90
385,35	1773,54
385,55	1562,60
385,76	1746,92
385,97	1753,06
386,18	1683,43
386,39	1650,66
386,60	1703,91
386,81	1722,34
387,02	1665,00
387,22	1650,66
387,43	1798,12
387,64	1824,74
387,85	1886,18
388,06	2285,53
388,27	4347,84
388,48	6748,06
388,68	8392,58
388,89	9701,23
389,10	9783,15
389,31	8591,23
389,52	7681,93
389,73	6758,30
389,93	6262,69
390,14	5947,30
390,35	5275,57
390,56	4659,13
390,77	3841,99
390,98	3094,48
391,18	2437,08
391,39	2146,27
391,60	1867,75
391,81	1834,98
392,02	1665,00
392,23	1871,84
392,43	1724,39
392,64	1785,83
392,85	1712,10
393,06	1802,21
393,27	1691,62
393,47	1621,99
393,68	1761,25
393,89	1728,49
394,10	1773,54
394,31	1652,71
394,52	1648,61
394,72	1662,95
394,93	1748,97
395,14	1638,38
395,35	1697,77
395,56	1617,90
395,76	1763,30
395,97	1812,45
396,18	1773,54
396,39	1802,21
396,60	2074,59
396,80	1906,66
397,01	1857,51
397,22	1818,60
397,43	1855,46
397,64	1779,68
397,84	1841,12
398,05	1869,80
398,26	1701,86
398,47	1789,92
398,67	1787,88
398,88	1769,44
399,09	1710,05
399,30	1677,29
399,51	1660,90
399,71	1642,47
399,92	1662,95
400,13	1683,43
400,34	1583,08
400,54	1728,49
400,75	1814,50
400,96	1726,44
401,17	1755,11
401,37	1718,25
401,58	1699,81
401,79	1710,05
402,00	1769,44
402,21	2039,78
402,41	1900,52
402,62	1988,58
402,83	1953,76
403,04	1937,38
403,24	2011,11
403,45	1775,59
403,66	1880,04
403,87	1781,73
404,07	1882,08
404,28	1847,27
404,49	1767,40
404,70	1757,16
404,90	1810,40
405,11	1779,68
405,32	1804,26
405,52	1665,00
405,73	1591,27
405,94	1712,10
406,15	1728,49
406,35	1794,02
406,56	1800,16
406,77	1673,19
406,98	1667,05
407,18	1714,15
407,39	1781,73
407,60	1652,71
407,80	1716,20
408,01	1603,56
408,22	1748,97
408,43	1632,23
408,63	1687,53
408,84	1697,77
409,05	1761,25
409,25	1660,90
409,46	1642,47
409,67	1597,42
409,88	1642,47
410,08	1716,20
410,29	1681,38
410,50	1746,92
410,70	1714,15
410,91	1691,62
411,12	1751,01
411,32	1705,96
411,53	1693,67
411,74	1816,55
411,95	1816,55
412,15	1761,25
412,36	1757,16
412,57	1759,21
412,77	1763,30
412,98	1681,38
413,19	1630,18
413,39	1732,58
413,60	1712,10
413,81	1853,41
414,01	1624,04
414,22	1714,15
414,43	1843,17
414,63	1660,90
414,84	1751,01
415,05	1744,87
415,25	1669,09
415,46	1765,35
415,67	1703,91
415,87	1722,34
416,08	1685,48
416,29	1705,96
416,49	1765,35
416,70	1671,14
416,91	1679,33
417,11	1613,80
417,32	1763,30
417,53	1693,67
417,73	1777,64
417,94	1675,24
418,15	1675,24
418,35	1699,81
418,56	1656,81
418,77	1791,97
418,97	1675,24
419,18	1708,01
419,38	1583,08
419,59	1722,34
419,80	1789,92
420,00	1665,00
420,21	1718,25
420,42	1755,11
420,62	1726,44
420,83	1685,48
421,04	1687,53
421,24	1757,16
421,45	1783,78
421,65	1748,97
421,86	1703,91
422,07	1726,44
422,27	1705,96
422,48	1722,34
422,69	1689,57
422,89	1667,05
423,10	1691,62
423,30	1648,61
423,51	1761,25
423,72	1673,19
423,92	1740,77
424,13	1619,94
424,33	1619,94
424,54	1777,64
424,75	1697,77
424,95	1834,98
425,16	1769,44
425,36	1638,38
425,57	1804,26
425,78	1712,10
425,98	1814,50
426,19	1689,57
426,39	1673,19
426,60	1697,77
426,81	1761,25
427,01	1660,90
427,22	1599,46
427,42	1603,56
427,63	1650,66
427,83	1708,01
428,04	1869,80
428,25	1830,88
428,45	1748,97
428,66	1763,30
428,86	1773,54
429,07	1691,62
429,28	1708,01
429,48	1697,77
429,69	1673,19
429,89	1681,38
430,10	1718,25
430,30	1716,20
430,51	1755,11
430,71	1607,66
430,92	1734,63
431,13	1685,48
431,33	1748,97
431,54	1681,38
431,74	1726,44
431,95	1824,74
432,15	1675,24
432,36	1718,25
432,56	1744,87
432,77	1814,50
432,98	1787,88
433,18	1738,73
433,39	1748,97
433,59	1716,20
433,80	1849,32
434,00	1886,18
434,21	1607,66
434,41	1736,68
434,62	1798,12
434,82	1681,38
435,03	1730,53
435,23	1765,35
435,44	1628,14
435,64	1730,53
435,85	1658,85
436,06	1728,49
436,26	1761,25
436,47	1691,62
436,67	1683,43
436,88	1712,10
437,08	1744,87
437,29	1689,57
437,49	1751,01
437,70	1734,63
437,90	1640,42
438,11	1851,36
438,31	1771,49
438,52	1816,55
438,72	1804,26
438,93	1865,70
439,13	1771,49
439,34	1839,08
439,54	1751,01
439,75	1826,79
439,95	1763,30
440,16	1763,30
440,36	1683,43
440,57	1644,52
440,77	1742,82
440,98	1626,09
441,18	1710,05
441,39	1703,91
441,59	1636,33
441,80	1808,36
442,00	1675,24
442,21	1804,26
442,41	1632,23
442,62	1746,92
442,82	1708,01
443,02	1681,38
443,23	1738,73
443,43	1632,23
443,64	1853,41
443,84	1597,42
444,05	1757,16
444,25	1753,06
444,46	1679,33
444,66	1765,35
444,87	1748,97
445,07	1652,71
445,28	1689,57
445,48	1867,75
445,69	1751,01
445,89	1804,26
446,09	1693,67
446,30	1968,10
446,50	2754,52
446,71	3772,36
446,91	4384,70
447,12	4624,31
447,32	4724,66
447,53	4323,26
447,73	3911,62
447,93	3469,26
448,14	3338,19
448,34	3303,37
448,55	2854,87
448,75	2764,76
448,96	2631,64
449,16	2389,98
449,36	2387,93
449,57	2050,02
449,77	1865,70
449,98	1787,88
450,18	1753,06
450,39	1816,55
450,59	1740,77
450,79	1673,19
451,00	1640,42
451,20	1890,28
451,41	1638,38
451,61	1726,44
451,81	1732,58
452,02	1658,85
452,22	1701,86
452,43	1748,97
452,63	1640,42
452,84	1701,86
453,04	1714,15
453,24	1757,16
453,45	1722,34
453,65	1691,62
453,86	1718,25
454,06	1718,25
454,26	1697,77
454,47	1689,57
454,67	1822,69
454,87	1777,64
455,08	1683,43
455,28	1828,84
455,49	1783,78
455,69	1675,24
455,89	1873,89
456,10	1761,25
456,30	1708,01
456,51	1734,63
456,71	1753,06
456,91	1728,49
457,12	1736,68
457,32	1765,35
457,52	1595,37
457,73	1734,63
457,93	1734,63
458,14	1748,97
458,34	1593,32
458,54	1673,19
458,75	1652,71
458,95	1783,78
459,15	1712,10
459,36	1730,53
459,56	1730,53
459,76	1875,94
459,97	1781,73
460,17	1759,21
460,37	1783,78
460,58	1671,14
460,78	1718,25
460,99	1640,42
461,19	1656,81
461,39	1705,96
461,60	1681,38
461,80	1748,97
462,00	1646,57
462,21	1699,81
462,41	1701,86
462,61	1658,85
462,82	1691,62
463,02	1785,83
463,22	1777,64
463,43	1728,49
463,63	1714,15
463,83	1830,88
464,04	1718,25
464,24	1746,92
464,44	1652,71
464,64	1689,57
464,85	1726,44
465,05	1800,16
465,25	1748,97
465,46	1693,67
465,66	1751,01
465,86	1759,21
466,07	1716,20
466,27	1779,68
466,47	1603,56
466,68	1624,04
466,88	1841,12
467,08	1759,21
467,29	1822,69
467,49	1677,29
467,69	1683,43
467,89	1751,01
468,10	1714,15
468,30	1720,29
468,50	1755,11
468,71	1791,97
468,91	1630,18
469,11	1775,59
469,31	1632,23
469,52	1656,81
469,72	1863,65
469,92	1785,83
470,13	1757,16
470,33	1787,88
470,53	1857,51
470,73	2076,64
470,94	2320,35
471,14	2369,50
471,34	2551,77
471,54	2398,17
471,75	2244,57
471,95	2131,94
472,15	2035,68
472,36	2097,12
472,56	2064,35
472,76	2090,98
472,96	1976,29
473,17	1935,33
473,37	1984,48
473,57	1796,07
473,77	1843,17
473,98	1703,91
474,18	1757,16
474,38	1880,04
474,58	1800,16
474,79	1646,57
474,99	1746,92
475,19	1816,55
475,39	1644,52
475,60	1718,25
475,80	1771,49
476,00	1689,57
476,20	1665,00
476,41	1675,24
476,61	1849,32
476,81	1736,68
477,01	1626,09
477,21	1873,89
477,42	1759,21
477,62	1660,90
477,82	1818,60
478,02	1693,67
478,23	1703,91
478,43	1671,14
478,63	1646,57
478,83	1728,49
479,03	1660,90
479,24	1791,97
479,44	1769,44
479,64	1693,67
479,84	1574,89
480,04	1595,37
480,25	1714,15
480,45	1617,90
480,65	1689,57
480,85	1781,73
481,06	1636,33
481,26	1728,49
481,46	1746,92
481,66	1744,87
481,86	1650,66
482,06	1769,44
482,27	1673,19
482,47	1746,92
482,67	1794,02
482,87	1689,57
483,07	1728,49
483,28	1714,15
483,48	1669,09
483,68	1658,85
483,88	1697,77
484,08	1552,36
484,29	1595,37
484,49	1726,44
484,69	1634,28
484,89	1761,25
485,09	1822,69
485,29	1716,20
485,50	1755,11
485,70	1677,29
485,90	1759,21
486,10	1697,77
486,30	1734,63
486,50	1705,96
486,71	1724,39
486,91	1751,01
487,11	1794,02
487,31	1583,08
487,51	1720,29
487,71	1662,95
487,91	1599,46
488,12	1644,52
488,32	1562,60
488,52	1705,96
488,72	1615,85
488,92	1730,53
489,12	1779,68
489,32	1755,11
489,53	1699,81
489,73	1621,99
489,93	1871,84
490,13	1662,95
490,33	1609,70
490,53	1716,20
490,73	1828,84
490,94	1628,14
491,14	1832,93
491,34	1845,22
491,54	2119,65
491,74	2539,48
491,94	2920,40
492,14	3117,01
492,34	3020,75
492,54	2727,89
492,75	2465,75
492,95	2420,70
493,15	2389,98
493,35	2320,35
493,55	2228,19
493,75	2115,55
493,95	2050,02
494,15	1988,58
494,35	1920,99
494,56	1834,98
494,76	1746,92
494,96	1775,59
495,16	1769,44
495,36	1708,01
495,56	1738,73
495,76	1710,05
495,96	1638,38
496,16	1746,92
496,36	1740,77
496,56	1751,01
496,77	1769,44
496,97	1738,73
497,17	1820,64
497,37	1730,53
497,57	1757,16
497,77	1734,63
497,97	1679,33
498,17	1705,96
498,37	1626,09
498,57	1800,16
498,77	1699,81
498,97	1761,25
499,17	1828,84
499,38	1748,97
499,58	1773,54
499,78	1787,88
499,98	1849,32
500,18	1753,06
500,38	1691,62
500,58	1935,33
500,78	2422,75
500,98	4513,72
501,18	5769,13
501,38	6817,69
501,58	6993,81
501,78	6553,50
501,98	5523,37
502,18	4925,36
502,38	4501,44
502,58	4077,51
502,78	3692,49
502,98	3676,10
503,18	3315,66
503,38	3135,44
503,59	2740,18
503,79	2713,56
503,99	2426,84
504,19	2263,01
504,39	2267,10
504,59	2226,14
504,79	2150,37
504,99	1970,15
505,19	1880,04
505,39	1861,60
505,59	1927,14
505,79	1970,15
505,99	1794,02
506,19	1771,49
506,39	1841,12
506,59	1759,21
506,79	1697,77
506,99	1738,73
507,19	1804,26
507,39	1736,68
507,59	1656,81
507,79	1689,57
507,99	1636,33
508,19	1712,10
508,39	1681,38
508,59	1724,39
508,79	1759,21
508,99	1810,40
509,19	1677,29
509,39	1818,60
509,59	1724,39
509,79	1751,01
509,99	1759,21
510,19	1783,78
510,39	1755,11
510,59	1753,06
510,79	1718,25
510,99	1693,67
511,19	1761,25
511,39	1837,03
511,59	1767,40
511,79	1751,01
511,99	1703,91
512,19	1832,93
512,38	1744,87
512,58	1662,95
512,78	1765,35
512,98	1802,21
513,18	1837,03
513,38	1687,53
513,58	1757,16
513,78	1665,00
513,98	1681,38
514,18	1710,05
514,38	1742,82
514,58	1712,10
514,78	1603,56
514,98	1642,47
515,18	1722,34
515,38	1644,52
515,58	1802,21
515,78	1722,34
515,98	1722,34
516,18	1765,35
516,38	1800,16
516,57	1673,19
516,77	1744,87
516,97	1783,78
517,17	1736,68
517,37	1660,90
517,57	1845,22
517,77	1730,53
517,97	1628,14
518,17	1714,15
518,37	1705,96
518,57	1652,71
518,77	1705,96
518,97	1730,53
519,16	1775,59
519,36	1802,21
519,56	1724,39
519,76	1708,01
519,96	1765,35
520,16	1763,30
520,36	1636,33
520,56	1808,36
520,76	1652,71
520,96	1732,58
521,16	1759,21
521,35	1818,60
521,55	1751,01
521,75	1730,53
521,95	1652,71
522,15	1710,05
522,35	1685,48
522,55	1656,81
522,75	1865,70
522,95	1648,61
523,14	1658,85
523,34	1787,88
523,54	1695,72
523,74	1724,39
523,94	1740,77
524,14	1712,10
524,34	1689,57
524,54	1732,58
524,73	1714,15
524,93	1703,91
525,13	1726,44
525,33	1665,00
525,53	1908,71
525,73	1699,81
525,93	1763,30
526,13	1669,09
526,32	1714,15
526,52	1755,11
526,72	1812,45
526,92	1720,29
527,12	1691,62
527,32	1714,15
527,52	1730,53
527,71	1761,25
527,91	1691,62
528,11	1636,33
528,31	1720,29
528,51	1662,95
528,71	1757,16
528,90	1763,30
529,10	1783,78
529,30	1898,47
529,50	1628,14
529,70	1738,73
529,90	1681,38
530,09	1732,58
530,29	1683,43
530,49	1708,01
530,69	1851,36
530,89	1683,43
531,09	1757,16
531,28	1662,95
531,48	1773,54
531,68	1705,96
531,88	1671,14
532,08	1724,39
532,28	1753,06
532,47	1728,49
532,67	1818,60
532,87	1730,53
533,07	1671,14
533,27	1763,30
533,46	1740,77
533,66	1697,77
533,86	1720,29
534,06	1654,76
534,26	1689,57
534,45	1677,29
534,65	1763,30
534,85	1705,96
535,05	1755,11
535,25	1771,49
535,44	1701,86
535,64	1746,92
535,84	1724,39
536,04	1705,96
536,24	1679,33
536,43	1640,42
536,63	1767,40
536,83	1722,34
537,03	1738,73
537,22	1615,85
537,42	1652,71
537,62	1755,11
537,82	1669,09
538,02	1794,02
538,21	1808,36
538,41	1880,04
538,61	1785,83
538,81	1708,01
539,00	1814,50
539,20	1660,90
539,40	1728,49
539,60	1802,21
539,79	1718,25
539,99	1679,33
540,19	1634,28
540,39	1767,40
540,58	1722,34
540,78	1832,93
540,98	1730,53
541,18	1714,15
541,37	1781,73
541,57	1675,24
541,77	1773,54
541,97	1673,19
542,16	1626,09
542,36	1671,14
542,56	1771,49
542,76	1832,93
542,95	1771,49
543,15	1791,97
543,35	1785,83
543,54	1593,32
543,74	1724,39
543,94	1779,68
544,14	1724,39
544,33	1787,88
544,53	1746,92
544,73	1671,14
544,93	1681,38
545,12	1683,43
545,32	1677,29
545,52	1753,06
545,71	1679,33
545,91	1691,62
546,11	1697,77
546,30	1677,29
546,50	1724,39
546,70	1693,67
546,90	1732,58
547,09	1630,18
547,29	1773,54
547,49	1775,59
547,68	1781,73
547,88	1716,20
548,08	1755,11
548,27	2193,37
548,47	1619,94
548,67	1656,81
548,87	1771,49
549,06	1742,82
549,26	1751,01
549,46	1693,67
549,65	1763,30
549,85	1740,77
550,05	1802,21
550,24	1628,14
550,44	1779,68
550,64	1693,67
550,83	1720,29
551,03	1814,50
551,23	1845,22
551,42	1767,40
551,62	1716,20
551,82	1736,68
552,01	1703,91
552,21	1726,44
552,41	1691,62
552,60	1761,25
552,80	1683,43
553,00	1722,34
553,19	1679,33
553,39	1800,16
553,59	1611,75
553,78	1767,40
553,98	1732,58
554,17	1648,61
554,37	1753,06
554,57	1681,38
554,76	1671,14
554,96	1789,92
555,16	1683,43
555,35	1691,62
555,55	1699,81
555,75	1722,34
555,94	1720,29
556,14	1628,14
556,33	1730,53
556,53	1734,63
556,73	1722,34
556,92	1771,49
557,12	1787,88
557,32	1720,29
557,51	1884,13
557,71	1771,49
557,90	1845,22
558,10	1894,37
558,30	1687,53
558,49	1767,40
558,69	1748,97
558,88	1755,11
559,08	1779,68
559,28	1716,20
559,47	1693,67
559,67	1761,25
559,86	1812,45
560,06	1710,05
560,26	1755,11
560,45	1804,26
560,65	1789,92
560,84	1824,74
561,04	1681,38
561,24	1789,92
561,43	1673,19
561,63	1888,23
561,82	1730,53
562,02	1722,34
562,22	1732,58
562,41	1636,33
562,61	1679,33
562,80	1619,94
563,00	1816,55
563,19	1757,16
563,39	1691,62
563,59	1736,68
563,78	1746,92
563,98	1658,85
564,17	1724,39
564,37	1617,90
564,56	1716,20
564,76	1636,33
564,96	1845,22
565,15	1798,12
565,35	1894,37
565,54	1679,33
565,74	1832,93
565,93	1763,30
566,13	1689,57
566,32	1769,44
566,52	1773,54
566,71	1728,49
566,91	1724,39
567,11	1755,11
567,30	1722,34
567,50	1751,01
567,69	1791,97
567,89	1783,78
568,08	1695,72
568,28	1822,69
568,47	1669,09
568,67	1734,63
568,86	1730,53
569,06	1787,88
569,25	1757,16
569,45	1636,33
569,64	1699,81
569,84	1763,30
570,04	1720,29
570,23	1667,05
570,43	1712,10
570,62	1744,87
570,82	1812,45
571,01	1626,09
571,21	1697,77
571,40	1681,38
571,60	1777,64
571,79	1779,68
571,99	1738,73
572,18	1667,05
572,38	1796,07
572,57	1710,05
572,77	1675,24
572,96	1824,74
573,16	1730,53
573,35	1714,15
573,55	1839,08
573,74	1708,01
573,94	1701,86
574,13	1736,68
574,33	1771,49
574,52	1822,69
574,71	1699,81
574,91	1804,26
575,10	1589,22
575,30	1697,77
575,49	1642,47
575,69	1718,25
575,88	1771,49
576,08	1726,44
576,27	1769,44
576,47	1789,92
576,66	1761,25
576,86	1834,98
577,05	1683,43
577,25	1728,49
577,44	1839,08
577,64	1708,01
577,83	1730,53
578,02	1744,87
578,22	1714,15
578,41	1871,84
578,61	1703,91
578,80	1646,57
579,00	1785,83
579,19	1755,11
579,39	1824,74
579,58	1859,56
579,77	1769,44
579,97	1765,35
580,16	1828,84
580,36	1820,64
580,55	1834,98
580,75	1800,16
580,94	1738,73
581,13	1853,41
581,33	1785,83
581,52	1765,35
581,72	1789,92
581,91	1791,97
582,11	1740,77
582,30	1708,01
582,49	1771,49
582,69	1890,28
582,88	1865,70
583,08	1781,73
583,27	1812,45
583,47	1742,82
583,66	1660,90
583,85	1630,18
584,05	1783,78
584,24	1810,40
584,44	1800,16
584,63	1759,21
584,82	1767,40
585,02	1824,74
585,21	1861,60
585,41	1796,07
585,60	1759,21
585,79	1900,52
585,99	1925,09
586,18	1834,98
586,37	2217,95
586,57	3432,40
586,76	9916,26
586,96	24999,55
587,15	34874,86
587,34	40682,90
587,54	42726,77
587,73	37045,71
587,93	26629,74
588,12	21763,76
588,31	18501,35
588,51	16543,49
588,70	15294,23
588,89	14313,25
589,09	12590,91
589,28	11018,07
589,47	9484,14
589,67	8062,85
589,86	6487,96
590,06	4995,00
590,25	3819,46
590,44	3104,72
590,64	2596,82
590,83	2279,39
591,02	2078,69
591,22	1910,75
591,41	1851,36
591,60	1814,50
591,80	1994,72
591,99	1730,53
592,18	1742,82
592,38	1785,83
592,57	1679,33
592,76	1828,84
592,96	1804,26
593,15	1775,59
593,34	1830,88
593,54	1687,53
593,73	1740,77
593,92	1820,64
594,12	1730,53
594,31	1765,35
594,50	1802,21
594,70	1802,21
594,89	1796,07
595,08	1646,57
595,28	1787,88
595,47	1931,23
595,66	1687,53
595,86	1718,25
596,05	1673,19
596,24	1693,67
596,43	1865,70
596,63	1757,16
596,82	1796,07
597,01	1710,05
597,21	1796,07
597,40	1761,25
597,59	1675,24
597,79	1716,20
597,98	1759,21
598,17	1802,21
598,36	1689,57
598,56	1751,01
598,75	1644,52
598,94	1753,06
599,14	1718,25
599,33	1769,44
599,52	1761,25
599,71	1728,49
599,91	1875,94
600,10	1779,68
600,29	1675,24
600,48	1732,58
600,68	1757,16
600,87	1734,63
601,06	1716,20
601,26	1673,19
601,45	1708,01
601,64	1669,09
601,83	1820,64
602,03	1722,34
602,22	1759,21
602,41	1804,26
602,60	1916,90
602,80	1857,51
602,99	1677,29
603,18	1636,33
603,37	1705,96
603,57	1689,57
603,76	1796,07
603,95	1728,49
604,14	1730,53
604,34	1798,12
604,53	1773,54
604,72	1728,49
604,91	1759,21
605,10	1773,54
605,30	1701,86
605,49	1785,83
605,68	1724,39
605,87	1796,07
606,07	1662,95
606,26	1691,62
606,45	1765,35
606,64	1789,92
606,84	1634,28
607,03	1722,34
607,22	1812,45
607,41	1658,85
607,60	1658,85
607,80	1806,31
607,99	1744,87
608,18	1734,63
608,37	1714,15
608,56	1619,94
608,76	1798,12
608,95	1839,08
609,14	1785,83
609,33	1736,68
609,52	1773,54
609,72	1722,34
609,91	1748,97
610,10	1759,21
610,29	1646,57
610,48	1734,63
610,68	1728,49
610,87	1777,64
611,06	1705,96
611,25	1660,90
611,44	1757,16
611,63	1718,25
611,83	1761,25
612,02	1701,86
612,21	1755,11
612,40	1695,72
612,59	1748,97
612,79	1761,25
612,98	1720,29
613,17	1777,64
613,36	1658,85
613,55	1716,20
613,74	1669,09
613,93	1734,63
614,13	1740,77
614,32	1763,30
614,51	1773,54
614,70	1724,39
614,89	1642,47
615,08	1765,35
615,28	2039,78
615,47	1650,66
615,66	1699,81
615,85	1744,87
616,04	1841,12
616,23	1742,82
616,42	1705,96
616,62	1693,67
616,81	1816,55
617,00	1689,57
617,19	1738,73
617,38	1669,09
617,57	1687,53
617,76	1738,73
617,95	1726,44
618,15	1662,95
618,34	1753,06
618,53	1593,32
618,72	1794,02
618,91	1775,59
619,10	1839,08
619,29	1687,53
619,48	1693,67
619,68	1662,95
619,87	1726,44
620,06	1689,57
620,25	1761,25
620,44	1699,81
620,63	1714,15
620,82	1720,29
621,01	1726,44
621,20	1718,25
621,39	1718,25
621,59	1738,73
621,78	1677,29
621,97	1781,73
622,16	1691,62
622,35	1699,81
622,54	1691,62
622,73	1703,91
622,92	1675,24
623,11	1691,62
623,30	1656,81
623,49	1718,25
623,68	1591,27
623,88	1855,46
624,07	1669,09
624,26	1693,67
624,45	1748,97
624,64	1685,48
624,83	1742,82
625,02	1650,66
625,21	1742,82
625,40	1789,92
625,59	1763,30
625,78	1734,63
625,97	1820,64
626,16	1773,54
626,35	1730,53
626,54	1669,09
626,74	1775,59
626,93	1656,81
627,12	1759,21
627,31	1746,92
627,50	1753,06
627,69	1722,34
627,88	1699,81
628,07	1720,29
628,26	1642,47
628,45	1640,42
628,64	1630,18
628,83	1689,57
629,02	1617,90
629,21	1832,93
629,40	1765,35
629,59	1650,66
629,78	1701,86
629,97	1710,05
630,16	1681,38
630,35	1765,35
630,54	1615,85
630,73	1697,77
630,92	1791,97
631,11	1677,29
631,30	1687,53
631,49	1724,39
631,68	1724,39
631,87	1712,10
632,06	1703,91
632,25	1867,75
632,44	1714,15
632,63	1708,01
632,82	1681,38
633,01	1630,18
633,20	1667,05
633,39	1652,71
633,58	1599,46
633,77	1734,63
633,96	1812,45
634,15	1738,73
634,34	1701,86
634,53	1757,16
634,72	1701,86
634,91	1634,28
635,10	1640,42
635,29	1755,11
635,48	1708,01
635,67	1677,29
635,86	1714,15
636,05	1769,44
636,24	1646,57
636,43	1802,21
636,62	1751,01
636,81	1585,13
637,00	1738,73
637,19	1730,53
637,38	1673,19
637,57	1609,70
637,76	1701,86
637,95	1732,58
638,14	1675,24
638,33	1648,61
638,52	1759,21
638,71	1609,70
638,89	1665,00
639,08	1779,68
639,27	1744,87
639,46	1644,52
639,65	1759,21
639,84	1763,30
640,03	1853,41
640,22	1652,71
640,41	1894,37
640,60	1693,67
640,79	1734,63
640,98	1714,15
641,17	1789,92
641,36	1796,07
641,55	1763,30
641,74	1630,18
641,92	1607,66
642,11	1546,22
642,30	1671,14
642,49	1679,33
642,68	1744,87
642,87	1695,72
643,06	1701,86
643,25	1671,14
643,44	1656,81
643,63	1699,81
643,82	1665,00
644,00	1699,81
644,19	1738,73
644,38	1634,28
644,57	1683,43
644,76	1748,97
644,95	1611,75
645,14	1646,57
645,33	1679,33
645,52	1669,09
645,71	1724,39
645,89	1648,61
646,08	1687,53
646,27	1724,39
646,46	1779,68
646,65	1632,23
646,84	1677,29
647,03	1595,37
647,22	1796,07
647,40	1699,81
647,59	1726,44
647,78	1603,56
647,97	1566,70
648,16	1710,05
648,35	1798,12
648,54	1775,59
648,73	1621,99
648,91	1744,87
649,10	1730,53
649,29	1689,57
649,48	1714,15
649,67	1761,25
649,86	1712,10
650,05	1640,42
650,23	1775,59
650,42	1681,38
650,61	1718,25
650,80	1701,86
650,99	1841,12
651,18	1748,97
651,36	1748,97
651,55	1701,86
651,74	1783,78
651,93	1742,82
652,12	1691,62
652,31	1665,00
652,49	1634,28
652,68	1703,91
652,87	1779,68
653,06	1671,14
653,25	1802,21
653,44	1615,85
653,62	1796,07
653,81	1683,43
654,00	1695,72
654,19	1728,49
654,38	1863,65
654,56	1785,83
654,75	1730,53
654,94	1732,58
655,13	1697,77
655,32	1677,29
655,51	1714,15
655,69	1650,66
655,88	1765,35
656,07	1703,91
656,26	1744,87
656,45	1593,32
656,63	1714,15
656,82	1779,68
657,01	1732,58
657,20	1587,18
657,38	1812,45
657,57	1691,62
657,76	1693,67
657,95	1796,07
658,14	1763,30
658,32	1783,78
658,51	1634,28
658,70	1722,34
658,89	1720,29
659,08	1705,96
659,26	1701,86
659,45	1656,81
659,64	1705,96
659,83	1646,57
660,01	1796,07
660,20	1759,21
660,39	1753,06
660,58	1624,04
660,76	1697,77
660,95	1644,52
661,14	1705,96
661,33	1685,48
661,51	1650,66
661,70	1705,96
661,89	1710,05
662,08	1628,14
662,26	1677,29
662,45	1609,70
662,64	1935,33
662,83	1791,97
663,01	1712,10
663,20	1742,82
663,39	1738,73
663,58	1708,01
663,76	1705,96
663,95	1804,26
664,14	1783,78
664,32	1718,25
664,51	1603,56
664,70	1560,55
664,89	1660,90
665,07	1662,95
665,26	1791,97
665,45	1652,71
665,64	1689,57
665,82	1753,06
666,01	1705,96
666,20	1662,95
666,38	1847,27
666,57	1787,88
666,76	2220,00
666,95	4444,09
667,13	10370,91
667,32	15394,58
667,51	17886,96
667,69	19361,50
667,88	17772,27
668,07	12334,92
668,25	9535,34
668,44	8159,11
668,63	7380,88
668,81	6784,92
669,00	6338,46
669,19	5748,65
669,38	5130,16
669,56	4636,60
669,75	3942,34
669,94	3426,25
670,12	2871,25
670,31	2508,76
670,50	2209,76
670,68	2045,92
670,87	1828,84
671,06	1814,50
671,24	1832,93
671,43	1841,12
671,62	1724,39
671,80	1681,38
671,99	1748,97
672,18	1710,05
672,36	1775,59
672,55	1669,09
672,74	1755,11
672,92	1652,71
673,11	1742,82
673,29	1603,56
673,48	1722,34
673,67	1765,35
673,85	1699,81
674,04	1662,95
674,23	1703,91
674,41	1853,41
674,60	1617,90
674,79	1677,29
674,97	1628,14
675,16	1755,11
675,34	1804,26
675,53	1624,04
675,72	1826,79
675,90	1736,68
676,09	1630,18
676,28	1710,05
676,46	1695,72
676,65	1789,92
676,83	1605,61
677,02	1693,67
677,21	1748,97
677,39	1671,14
677,58	1720,29
677,77	1703,91
677,95	1746,92
678,14	1626,09
678,32	1689,57
678,51	1638,38
678,70	1832,93
678,88	1636,33
679,07	1736,68
679,25	1658,85
679,44	1675,24
679,63	1538,02
679,81	1736,68
680,00	1712,10
680,18	1701,86
680,37	1781,73
680,55	1677,29
680,74	1648,61
680,93	1695,72
681,11	1660,90
681,30	1732,58
681,48	1689,57
681,67	1652,71
681,85	1679,33
682,04	1640,42
682,23	1755,11
682,41	1697,77
682,60	1638,38
682,78	1660,90
682,97	1624,04
683,15	1669,09
683,34	1802,21
683,53	1763,30
683,71	1607,66
683,90	1763,30
684,08	1734,63
684,27	1681,38
684,45	1662,95
684,64	1695,72
684,82	1654,76
685,01	1830,88
685,19	1710,05
685,38	1697,77
685,57	1662,95
685,75	1683,43
685,94	1650,66
686,12	1656,81
686,31	1701,86
686,49	1820,64
686,68	1640,42
686,86	1730,53
687,05	1714,15
687,23	1773,54
687,42	1683,43
687,60	1609,70
687,79	1724,39
687,97	1810,40
688,16	1720,29
688,34	1841,12
688,53	1632,23
688,71	1734,63
688,90	1839,08
689,08	1619,94
689,27	1660,90
689,45	1748,97
689,64	1734,63
689,82	1732,58
690,01	1679,33
690,19	1783,78
690,38	1716,20
690,56	1742,82
690,75	1640,42
690,93	1695,72
691,12	1658,85
691,30	1667,05
691,49	1675,24
691,67	1751,01
691,86	1830,88
692,04	1662,95
692,23	1671,14
692,41	1599,46
692,60	1767,40
692,78	1742,82
692,97	1578,98
693,15	1734,63
693,34	1853,41
693,52	1755,11
693,71	1677,29
693,89	1648,61
694,08	1746,92
694,26	1736,68
694,44	1767,40
694,63	1724,39
694,81	1640,42
695,00	1662,95
695,18	1759,21
695,37	1869,80
695,55	1789,92
695,74	1708,01
695,92	1673,19
696,10	1744,87
696,29	1593,32
696,47	1699,81
696,66	1660,90
696,84	1656,81
697,03	1740,77
697,21	1810,40
697,40	2256,86
697,58	1804,26
697,76	1710,05
697,95	1630,18
698,13	1595,37
698,32	1656,81
698,50	1658,85
698,68	1751,01
698,87	1714,15
699,05	1806,31
699,24	1695,72
699,42	1660,90
699,61	1640,42
699,79	1695,72
699,97	1697,77
700,16	1656,81
700,34	1650,66
700,53	1826,79
700,71	1789,92
700,89	1757,16
701,08	1701,86
701,26	1669,09
701,45	2111,46
701,63	1693,67
701,81	1646,57
702,00	1677,29
702,18	1720,29
702,37	1726,44
702,55	1724,39
702,73	1685,48
702,92	1722,34
703,10	1810,40
703,28	1710,05
703,47	1611,75
703,65	1779,68
703,84	1718,25
704,02	1638,38
704,20	1746,92
704,39	1497,07
704,57	1757,16
704,75	1703,91
704,94	1787,88
705,12	1724,39
705,30	1773,54
705,49	2217,95
705,67	4362,17
705,86	9537,39
706,04	12904,25
706,22	14731,04
706,41	15623,95
706,59	13999,91
706,77	9756,52
706,96	7604,11
707,14	6768,54
707,32	5928,87
707,51	5719,98
707,69	4915,12
707,87	4243,39
708,06	3600,33
708,24	3078,10
708,42	2478,04
708,61	2230,24
708,79	1873,89
708,97	1877,99
709,16	1734,63
709,34	1705,96
709,52	1710,05
709,71	1718,25
709,89	1771,49
710,07	1638,38
710,26	1730,53
710,44	1718,25
710,62	1650,66
710,80	1697,77
710,99	1742,82
711,17	1794,02
711,35	1667,05
711,54	1681,38
711,72	1730,53
711,90	1779,68
712,09	1714,15
712,27	1607,66
712,45	1652,71
712,63	1705,96
712,82	1716,20
713,00	1644,52
713,18	1710,05
713,37	1728,49
713,55	1783,78
713,73	1689,57
713,91	1802,21
714,10	1660,90
714,28	1658,85
714,46	1648,61
714,65	1740,77
714,83	1791,97
715,01	1738,73
715,19	1681,38
715,38	1611,75
715,56	1714,15
715,74	1640,42
715,92	1638,38
716,11	1667,05
716,29	1648,61
716,47	1708,01
716,65	1609,70
716,84	1578,98
717,02	1771,49
717,20	1632,23
717,38	1632,23
717,57	1734,63
717,75	1785,83
717,93	1705,96
718,11	1665,00
718,30	1576,94
718,48	1681,38
718,66	1736,68
718,84	1804,26
719,03	1681,38
719,21	1630,18
719,39	1816,55
719,57	1775,59
719,75	1746,92
719,94	1705,96
720,12	1665,00
720,30	1740,77
720,48	1740,77
720,67	1705,96
720,85	1601,51
721,03	1679,33
721,21	1656,81
721,39	1708,01
721,58	1771,49
721,76	1687,53
721,94	1712,10
722,12	1683,43
722,30	1796,07
722,49	1701,86
722,67	1701,86
722,85	1755,11
723,03	1654,76
723,21	1638,38
723,40	1679,33
723,58	1808,36
723,76	1691,62
723,94	1779,68
724,12	1671,14
724,30	1742,82
724,49	1689,57
724,67	1566,70
724,85	1751,01
725,03	1634,28
725,21	1767,40
725,40	1769,44
725,58	1679,33
725,76	1759,21
725,94	1722,34
726,12	1687,53
726,30	1728,49
726,49	1638,38
726,67	1652,71
726,85	1662,95
727,03	1796,07
727,21	2109,41
727,39	2893,78
727,57	3803,08
727,76	4202,43
727,94	4425,66
728,12	4390,84
728,30	3706,82
728,48	2840,53
728,66	2779,09
728,84	2430,94
729,03	2291,68
729,21	2097,12
729,39	1978,34
729,57	1830,88
729,75	1820,64
729,93	1808,36
730,11	1699,81
730,30	1714,15
730,48	1734,63
730,66	1759,21
730,84	1740,77
731,02	1712,10
731,20	1673,19
731,38	1689,57
731,56	1726,44
731,74	1662,95
731,93	1699,81
732,11	1699,81
732,29	1687,53
732,47	1753,06
732,65	1689,57
732,83	1847,27
733,01	1787,88
733,19	1568,74
733,37	1705,96
733,56	1736,68
733,74	1605,61
733,92	1746,92
734,10	1658,85
734,28	1679,33
734,46	1615,85
734,64	1705,96
734,82	1640,42
735,00	1652,71
735,18	1693,67
735,36	1685,48
735,54	1757,16
735,73	1642,47
735,91	1720,29
736,09	1656,81
736,27	1763,30
736,45	1650,66
736,63	1593,32
736,81	1654,76
736,99	1691,62
737,17	1728,49
737,35	1730,53
737,53	1701,86
737,71	1679,33
737,89	1712,10
738,07	1720,29
738,25	1640,42
738,43	1611,75
738,61	1658,85
738,80	1617,90
738,98	1607,66
739,16	1665,00
739,34	1587,18
739,52	1767,40
739,70	1679,33
739,88	1757,16
740,06	1714,15
740,24	1642,47
740,42	1796,07
740,60	1507,30
740,78	1714,15
740,96	1550,31
741,14	1718,25
741,32	1681,38
741,50	1546,22
741,68	1843,17
741,86	1798,12
742,04	1619,94
742,22	1693,67
742,40	1701,86
742,58	1697,77
742,76	1640,42
742,94	1712,10
743,12	1607,66
743,30	1718,25
743,48	1699,81
743,66	1689,57
743,84	1718,25
744,02	1658,85
744,20	1644,52
744,38	1685,48
744,56	1681,38
744,74	1781,73
744,92	1755,11
745,10	1796,07
745,28	1777,64
745,46	1785,83
745,64	1673,19
745,82	1785,83
746,00	1665,00
746,18	1712,10
746,36	1648,61
746,54	1759,21
746,72	1697,77
746,90	1687,53
747,08	1769,44
747,26	1669,09
747,44	1693,67
747,62	1640,42
747,80	1734,63
747,98	1701,86
748,15	1648,61
748,33	1699,81
748,51	1652,71
748,69	1781,73
748,87	1656,81
749,05	1744,87
749,23	1751,01
749,41	1677,29
749,59	1738,73
749,77	1710,05
749,95	1685,48
750,13	1648,61
750,31	1734,63
750,49	1673,19
750,67	1689,57
750,85	1718,25
751,03	1679,33
751,20	1847,27
751,38	1691,62
751,56	1673,19
751,74	1632,23
751,92	1716,20
752,10	1632,23
752,28	1675,24
752,46	1632,23
752,64	1697,77
752,82	1648,61
753,00	1783,78
753,18	1615,85
753,35	1630,18
753,53	1660,90
753,71	1644,52
753,89	1683,43
754,07	1628,14
754,25	1716,20
754,43	1687,53
754,61	1671,14
754,79	1771,49
754,97	1685,48
755,14	1746,92
755,32	1662,95
755,50	1779,68
755,68	1687,53
755,86	1654,76
756,04	1691,62
756,22	1603,56
756,40	1708,01
756,57	1722,34
756,75	1652,71
756,93	1814,50
757,11	1734,63
757,29	1683,43
757,47	1613,80
757,65	1621,99
757,82	1648,61
758,00	1562,60
758,18	1642,47
758,36	1693,67
758,54	1755,11
758,72	1628,14
758,90	1767,40
759,07	1726,44
759,25	1624,04
759,43	1697,77
759,61	1591,27
759,79	2279,39
759,97	1767,40
760,15	1607,66
760,32	1675,24
760,50	1748,97
760,68	1789,92
760,86	1546,22
761,04	1863,65
761,22	1701,86
761,39	1703,91
761,57	1716,20
761,75	1695,72
761,93	1701,86
762,11	1665,00
762,28	1681,38
762,46	1685,48
762,64	1701,86
762,82	1652,71
763,00	1644,52
763,18	1746,92
763,35	1638,38
763,53	1648,61
763,71	1744,87
763,89	1769,44
764,07	1593,32
764,24	1714,15
764,42	1744,87
764,60	1619,94
764,78	1687,53
764,96	1775,59
765,13	1710,05
765,31	1646,57
765,49	1699,81
765,67	1689,57
765,84	1675,24
766,02	1677,29
766,20	1630,18
766,38	1757,16
766,56	1691,62
766,73	1626,09
766,91	1679,33
767,09	1652,71
767,27	1726,44
767,44	1681,38
767,62	1773,54
767,80	1726,44
767,98	1685,48
768,15	1705,96
768,33	1757,16
768,51	1751,01
768,69	1757,16
768,87	1765,35
769,04	1783,78
769,22	1757,16
769,40	1759,21
769,58	1851,36
769,75	1673,19
769,93	1773,54
770,11	1667,05
770,28	1632,23
770,46	1703,91
770,64	1691,62
770,82	1701,86
770,99	1687,53
771,17	1681,38
771,35	1603,56
771,53	1708,01
771,70	1767,40
771,88	1691,62
772,06	1677,29
772,23	1681,38
772,41	1710,05
772,59	1662,95
772,77	1576,94
772,94	1662,95
773,12	1734,63
773,30	1671,14
773,47	1615,85
773,65	1695,72
773,83	1834,98
774,01	1728,49
774,18	1583,08
774,36	1671,14
774,54	1624,04
774,71	1738,73
774,89	1630,18
775,07	1677,29
775,24	1632,23
775,42	1621,99
775,60	1789,92
775,78	1693,67
775,95	1572,84
776,13	1597,42
776,31	1554,41
776,48	1722,34
776,66	1673,19
776,84	1693,67
777,01	1662,95
777,19	1574,89
777,37	1642,47
777,54	1669,09
777,72	1822,69
777,90	1748,97
778,07	1630,18
778,25	1914,85
778,43	1753,06
778,60	1642,47
778,78	1718,25
778,96	1767,40
779,13	1601,51
779,31	1732,58
779,49	1648,61
779,66	1701,86
779,84	1667,05
780,01	1654,76
780,19	1624,04
780,37	1771,49
780,54	1705,96
780,72	1646,57
780,90	1718,25
781,07	1683,43
781,25	1648,61
781,43	1726,44
781,60	1673,19
781,78	1662,95
781,95	1748,97
782,13	1703,91
782,31	1757,16
782,48	1538,02
782,66	1728,49
782,83	1804,26
783,01	1660,90
783,19	1679,33
783,36	1636,33
783,54	1669,09
783,72	1789,92
783,89	1716,20
784,07	1738,73
784,24	1718,25
784,42	1773,54
784,60	1748,97
784,77	1591,27
784,95	1591,27
785,12	1658,85
785,30	1689,57
785,47	1673,19
785,65	1673,19
785,83	1650,66
786,00	1607,66
786,18	1683,43
786,35	1634,28
786,53	1603,56
786,71	1767,40
786,88	1763,30
787,06	1636,33
787,23	1671,14
787,41	1656,81
787,58	1681,38
787,76	1597,42
787,94	1703,91
788,11	1658,85
788,29	1667,05
788,46	1652,71
788,64	1650,66
788,81	1656,81
788,99	1671,14
789,16	1650,66
789,34	1613,80
789,52	1710,05
789,69	1689,57
789,87	1599,46
790,04	1681,38
790,22	1677,29
790,39	1800,16
790,57	1626,09
790,74	1601,51
790,92	1779,68
791,09	1605,61
791,27	1675,24
791,44	1791,97
791,62	1658,85
791,79	1656,81
791,97	1652,71
792,15	1859,56
792,32	1628,14
792,50	1787,88
792,67	1732,58
792,85	1742,82
793,02	1685,48
793,20	1728,49
793,37	1644,52
793,55	1746,92
793,72	1626,09
793,90	1800,16
794,07	1640,42
794,25	1665,00
794,42	1765,35
794,60	1689,57
794,77	1708,01
794,95	1693,67
795,12	1763,30
795,30	1689,57
795,47	1609,70
795,65	1804,26
795,82	1744,87
796,00	1662,95
796,17	1648,61
796,34	1669,09
796,52	1693,67
796,69	1734,63
796,87	1662,95
797,04	1712,10
797,22	1671,14
797,39	1714,15
797,57	1742,82
797,74	1636,33
797,92	1665,00
798,09	1695,72
798,27	1804,26
798,44	1746,92
798,62	1615,85
798,79	1708,01
798,96	1679,33
799,14	1681,38
799,31	1812,45
799,49	1640,42
799,66	1621,99
799,84	1771,49
800,01	1662,95
800,19	1697,77
800,36	1638,38
800,53	1740,77
800,71	1716,20
800,88	1742,82
801,06	1652,71
801,23	1642,47
801,41	1699,81
801,58	1669,09
801,75	1755,11
801,93	1714,15
802,10	1751,01
802,28	1667,05
802,45	1591,27
802,63	1644,52
802,80	1767,40
802,97	1673,19
803,15	1710,05
803,32	1613,80
803,50	1634,28
803,67	1636,33
803,84	1695,72
804,02	1718,25
804,19	1675,24
804,37	1611,75
804,54	1636,33
804,71	1624,04
804,89	1677,29
805,06	1599,46
805,24	1718,25
805,41	1638,38
805,58	1648,61
805,76	1826,79
805,93	1687,53
806,10	1726,44
806,28	1712,10
806,45	1738,73
806,63	1710,05
806,80	1787,88
806,97	1683,43
807,15	1677,29
807,32	1673,19
807,49	1675,24
807,67	1593,32
807,84	1714,15
808,01	1570,79
808,19	1781,73
808,36	1718,25
808,54	1656,81
808,71	1667,05
808,88	1705,96
809,06	1677,29
809,23	1783,78
809,40	1601,51
809,58	1724,39
809,75	1685,48
809,92	1615,85
810,10	1800,16
810,27	1671,14
810,44	1814,50
810,62	1769,44
810,79	1734,63
810,96	1617,90
811,14	1587,18
811,31	1781,73
811,48	1640,42
811,66	1650,66
811,83	1746,92
812,00	1710,05
812,18	1697,77
812,35	1802,21
812,52	1619,94
812,69	1683,43
812,87	1609,70
813,04	1595,37
813,21	1669,09
813,39	1660,90
813,56	1605,61
813,73	1718,25
813,91	1626,09
814,08	1693,67
814,25	1734,63
814,42	1599,46
814,60	1656,81
814,77	1722,34
814,94	1697,77
815,12	1689,57
815,29	1828,84
815,46	1642,47
815,63	1800,16
815,81	1617,90
815,98	1751,01
816,15	1667,05
816,33	1681,38
816,50	1695,72
816,67	1658,85
816,84	1681,38
817,02	1597,42
817,19	1683,43
817,36	1615,85
817,53	1753,06
817,71	1705,96
817,88	1787,88
818,05	1720,29
818,22	1701,86
818,40	1697,77
818,57	1744,87
818,74	1677,29
818,91	1722,34
819,09	1755,11
819,26	1804,26
819,43	1607,66
819,60	1640,42
819,78	1638,38
819,95	1753,06
820,12	1660,90
820,29	1783,78
820,47	1736,68
820,64	1679,33
820,81	1568,74
820,98	1681,38
821,15	1632,23
821,33	1695,72
821,50	1648,61
821,67	1675,24
821,84	1673,19
822,02	1808,36
822,19	1769,44
822,36	1716,20
822,53	1705,96
822,70	1630,18
822,88	1644,52
823,05	1683,43
823,22	1681,38
823,39	1677,29
823,56	1658,85
823,74	1837,03
823,91	1595,37
824,08	1673,19
824,25	1628,14
824,42	1828,84
824,60	1619,94
824,77	1617,90
824,94	1718,25
825,11	1681,38
825,28	1673,19
825,45	1732,58
825,63	1699,81
825,80	1632,23
825,97	1667,05
826,14	1740,77
826,31	1591,27
826,48	1730,53
826,66	1634,28
826,83	1710,05
827,00	1665,00
827,17	1640,42
827,34	1667,05
827,51	1624,04
827,69	1669,09
827,86	1621,99
828,03	1699,81
828,20	1734,63
828,37	1671,14
828,54	1724,39
828,71	1638,38
828,89	1753,06
829,06	1701,86
829,23	1751,01
829,40	1658,85
829,57	1683,43
829,74	1779,68
829,91	1660,90
830,09	1646,57
830,26	1769,44
830,43	1726,44
830,60	1708,01
830,77	1742,82
830,94	1804,26
831,11	1699,81
831,28	1662,95
831,46	1748,97
831,63	1632,23
831,80	1763,30
831,97	1619,94
832,14	1581,03
832,31	1748,97
832,48	1681,38
832,65	1712,10
832,82	1673,19
832,99	1654,76
833,17	1648,61
833,34	1755,11
833,51	1738,73
833,68	1619,94
833,85	1738,73
834,02	1585,13
834,19	1630,18
834,36	1669,09
834,53	1691,62
834,70	1787,88
834,87	1773,54
835,04	1656,81
835,22	1617,90
835,39	1708,01
835,56	1642,47
835,73	1615,85
835,90	1746,92
836,07	1644,52
836,24	1761,25
836,41	1632,23
836,58	1624,04
836,75	1691,62
836,92	1710,05
837,09	1669,09
837,26	1734,63
837,43	1665,00
837,60	1710,05
837,77	1671,14
837,94	1779,68
838,12	1716,20
838,29	1703,91
838,46	1679,33
838,63	1607,66
838,80	1796,07
838,97	1701,86
839,14	1685,48
839,31	1703,91
839,48	1687,53
839,65	1701,86
839,82	1753,06
839,99	1722,34
840,16	1701,86
840,33	1708,01
840,50	1660,90
840,67	1542,12
840,84	1589,22
841,01	1726,44
841,18	1669,09
841,35	1705,96
841,52	1685,48
841,69	1841,12
841,86	1656,81
842,03	1654,76
842,20	1714,15
842,37	1632,23
842,54	1677,29
842,71	1724,39
842,88	1593,32
843,05	1697,77
843,22	1695,72
843,39	1720,29
843,56	1726,44
843,73	1638,38
843,90	1634,28
844,07	1626,09
844,24	1667,05
844,41	1779,68
844,58	1722,34
844,75	1724,39
844,92	1685,48
845,09	1595,37
845,26	1662,95
845,43	1763,30
845,60	1675,24
845,77	1781,73
845,94	1724,39
846,10	1665,00
846,27	1617,90
846,44	1714,15
846,61	1621,99
846,78	1708,01
846,95	1773,54
847,12	1665,00
847,29	1705,96
847,46	1570,79
847,63	1691,62
847,80	1667,05
847,97	1626,09
848,14	1855,46
848,31	1724,39
848,48	1624,04
848,65	1650,66
848,82	1626,09
848,98	1771,49
849,15	1751,01
849,32	1738,73
849,49	1705,96
849,66	1679,33
849,83	1742,82
850,00	1638,38
850,17	1689,57
850,34	1687,53
850,51	1654,76
850,68	1693,67
850,85	1716,20
851,01	1728,49
851,18	1599,46
851,35	1648,61
851,52	1665,00
851,69	1785,83
851,86	1566,70
852,03	1714,15
852,20	1624,04
852,37	1665,00
852,53	1644,52
852,70	1673,19
852,87	1673,19
853,04	1804,26
853,21	1640,42
853,38	1718,25
853,55	1708,01
853,72	1740,77
853,89	1669,09
854,05	1671,14
854,22	1722,34
854,39	1648,61
854,56	1771,49
854,73	1746,92
854,90	1718,25
855,07	1765,35
855,23	1595,37
855,40	1708,01
855,57	1708,01
855,74	1527,78
855,91	1855,46
856,08	1525,74
856,25	1581,03
856,41	1662,95
856,58	1609,70
856,75	1652,71
856,92	1568,74
857,09	1800,16
857,26	1626,09
857,42	1681,38
857,59	1658,85
857,76	1695,72
857,93	1693,67
858,10	1693,67
858,27	1605,61
858,43	1703,91
858,60	1638,38
858,77	1585,13
858,94	1642,47
859,11	1771,49
859,27	1726,44
859,44	1685,48
859,61	1841,12
859,78	1773,54
859,95	1757,16
860,12	1689,57
860,28	1773,54
860,45	1810,40
860,62	1687,53
860,79	1619,94
860,95	1673,19
861,12	1587,18
861,29	1693,67
861,46	1654,76
861,63	1619,94
861,79	1634,28
861,96	1611,75
862,13	1583,08
862,30	1705,96
862,47	1675,24
862,63	1578,98
862,80	1757,16
862,97	1693,67
863,14	1667,05
863,30	1710,05
863,47	1605,61
863,64	1738,73
863,81	1652,71
863,97	1660,90
864,14	1695,72
864,31	1642,47
864,48	1765,35
864,65	1691,62
864,81	1755,11
864,98	1662,95
865,15	1695,72
865,32	1673,19
865,48	1699,81
865,65	1714,15
865,82	1673,19
865,98	1800,16
866,15	1718,25
866,32	1714,15
866,49	1667,05
866,65	1746,92
866,82	1566,70
866,99	1646,57
867,16	1660,90
867,32	1644,52
867,49	1636,33
867,66	1665,00
867,83	1660,90
867,99	1603,56
868,16	1697,77
868,33	1675,24
868,49	1701,86
868,66	1619,94
868,83	1718,25
868,99	1675,24
869,16	1679,33
869,33	1742,82
869,50	1681,38
869,66	1656,81
869,83	1630,18
870,00	1621,99
870,16	1699,81
870,33	1722,34
870,50	1785,83
870,66	1720,29
870,83	1712,10
871,00	1679,33
871,17	1755,11
871,33	1767,40
871,50	1742,82
871,67	1665,00
871,83	1617,90
872,00	1791,97
872,17	1640,42
872,33	1816,55
872,50	1757,16
872,67	1703,91
872,83	1665,00
873,00	1716,20
873,17	1705,96
873,33	1767,40
873,50	1724,39
873,67	1628,14
873,83	1597,42
874,00	1691,62
874,16	1689,57
874,33	1675,24
874,50	1640,42
874,66	1665,00
874,83	1710,05
875,00	1789,92
875,16	1689,57
875,33	1730,53
875,50	1591,27
875,66	1650,66
875,83	1708,01
875,99	1757,16
876,16	1593,32
876,33	1632,23
876,49	1673,19
876,66	1708,01
876,83	1705,96
876,99	1660,90
877,16	1654,76
877,32	1705,96
877,49	1744,87
877,66	1683,43
877,82	1767,40
877,99	1679,33
878,15	1755,11
878,32	1763,30
878,49	1705,96
878,65	1648,61
878,82	1728,49
878,98	1640,42
879,15	1777,64
879,32	1673,19
879,48	1669,09
879,65	1748,97
879,81	1609,70
879,98	1624,04
880,15	1660,90
880,31	1734,63
880,48	1591,27
880,64	1703,91
880,81	1716,20
880,97	1849,32
881,14	1724,39
881,31	1687,53
881,47	1761,25
881,64	1624,04
881,80	1546,22
881,97	1671,14
882,13	1800,16
882,30	1617,90
882,47	1675,24
882,63	1665,00
882,80	1658,85
882,96	1652,71
883,13	1753,06
883,29	1656,81
883,46	1683,43
883,62	1832,93
883,79	1650,66
883,95	1734,63
884,12	1744,87
884,29	1759,21
884,45	1677,29
884,62	1699,81
884,78	1570,79
884,95	1783,78
885,11	1642,47
885,28	1724,39
885,44	1660,90
885,61	1677,29
885,77	1751,01
885,94	1699,81
886,10	1771,49
886,27	1673,19
886,43	1746,92
886,60	1791,97
886,76	1652,71
886,93	1650,66
887,09	1783,78
887,26	1587,18
887,42	1728,49
887,59	1748,97
887,75	1763,30
887,92	1808,36
888,08	1673,19
888,25	1794,02
888,41	1679,33
888,58	1673,19
888,74	1619,94
888,91	1751,01
>>>>>End Processed Spectral Data<<<<<
