SpectraSuite Data File
++++++++++++++++++++++++++++++++++++
Date: Sun Apr 03 19:55:55 CEST 2016
User: root
Dark Spectrum Present: No
Reference Spectrum Present: No
Number of Sampled Component Spectra: 1
Spectrometers: USB4C02835
Integration Time (usec): 10000 (USB4C02835)
Spectra Averaged: 1 (USB4C02835)
Boxcar Smoothing: 0 (USB4C02835)
Correct for Electrical Dark: No (USB4C02835)
Strobe/Lamp Enabled: No (USB4C02835)
Correct for Detector Non-linearity: No (USB4C02835)
Correct for Stray Light: No (USB4C02835)
Number of Pixels in Processed Spectrum: 3648
>>>>>Begin Processed Spectral Data<<<<<
177,47	1253,36
177,69	1253,36
177,91	1253,36
178,13	1273,84
178,36	1292,27
178,58	1234,93
178,80	1292,27
179,02	1273,84
179,24	1282,03
179,46	1214,45
179,68	1243,12
179,90	1265,64
180,13	1230,83
180,35	1316,84
180,57	1316,84
180,79	1279,98
181,01	1265,64
181,23	1347,56
181,45	1222,64
181,67	1275,88
181,90	1245,16
182,12	1265,64
182,34	1226,73
182,56	1236,97
182,78	1290,22
183,00	1253,36
183,22	1302,51
183,44	1183,73
183,66	1265,64
183,89	1271,79
184,11	1296,36
184,33	1267,69
184,55	1255,40
184,77	1222,64
184,99	1234,93
185,21	1288,17
185,43	1310,70
185,65	1232,88
185,87	1282,03
186,10	1282,03
186,32	1353,71
186,54	1234,93
186,76	1261,55
186,98	1329,13
187,20	1253,36
187,42	1329,13
187,64	1306,60
187,86	1265,64
188,08	1206,25
188,30	1167,34
188,52	1232,88
188,75	1296,36
188,97	1290,22
189,19	1292,27
189,41	1310,70
189,63	1239,02
189,85	1124,33
190,07	1327,08
190,29	1247,21
190,51	1247,21
190,73	1245,16
190,95	1316,84
191,17	1284,08
191,39	1228,78
191,61	1200,11
191,84	1353,71
192,06	1333,23
192,28	1261,55
192,50	1343,47
192,72	1288,17
192,94	1267,69
193,16	1243,12
193,38	1232,88
193,60	1222,64
193,82	1341,42
194,04	1234,93
194,26	1333,23
194,48	1277,93
194,70	1271,79
194,92	1181,68
195,14	1247,21
195,36	1232,88
195,58	1239,02
195,80	1249,26
196,02	1202,16
196,24	1265,64
196,46	1277,93
196,69	1298,41
196,91	1259,50
197,13	1279,98
197,35	1236,97
197,57	1337,32
197,79	1294,32
198,01	1343,47
198,23	1263,60
198,45	1286,12
198,67	1263,60
198,89	1216,49
199,11	1351,66
199,33	1257,45
199,55	1265,64
199,77	1202,16
199,99	1243,12
200,21	1239,02
200,43	1277,93
200,65	1247,21
200,87	1320,94
201,09	1232,88
201,31	1198,06
201,53	1284,08
201,75	1304,56
201,97	1282,03
202,19	1306,60
202,41	1241,07
202,63	1271,79
202,85	1216,49
203,07	1273,84
203,29	1196,01
203,51	1282,03
203,73	1257,45
203,95	1337,32
204,17	1271,79
204,39	1247,21
204,61	1241,07
204,83	1325,04
205,05	1284,08
205,27	1282,03
205,49	1236,97
205,71	1216,49
205,93	1292,27
206,15	1249,26
206,37	1261,55
206,59	1275,88
206,81	1269,74
207,03	1298,41
207,25	1337,32
207,47	1294,32
207,69	1263,60
207,91	1302,51
208,13	1294,32
208,34	1269,74
208,56	1234,93
208,78	1308,65
209,00	1267,69
209,22	1239,02
209,44	1302,51
209,66	1263,60
209,88	1144,81
210,10	1296,36
210,32	1294,32
210,54	1294,32
210,76	1335,28
210,98	1198,06
211,20	1269,74
211,42	1296,36
211,64	1265,64
211,86	1212,40
212,08	1320,94
212,30	1249,26
212,52	1255,40
212,74	1273,84
212,96	1234,93
213,17	1282,03
213,39	1322,99
213,61	1282,03
213,83	1308,65
214,05	1294,32
214,27	1284,08
214,49	1261,55
214,71	1232,88
214,93	1259,50
215,15	1347,56
215,37	1294,32
215,59	1196,01
215,81	1279,98
216,03	1271,79
216,24	1359,85
216,46	1271,79
216,68	1335,28
216,90	1288,17
217,12	1259,50
217,34	1265,64
217,56	1306,60
217,78	1273,84
218,00	1273,84
218,22	1331,18
218,44	1312,75
218,66	1228,78
218,87	1290,22
219,09	1251,31
219,31	1286,12
219,53	1302,51
219,75	1230,83
219,97	1183,73
220,19	1277,93
220,41	1247,21
220,63	1255,40
220,85	1282,03
221,06	1279,98
221,28	1228,78
221,50	1271,79
221,72	1236,97
221,94	1253,36
222,16	1263,60
222,38	1257,45
222,60	1318,89
222,82	1335,28
223,03	1239,02
223,25	1273,84
223,47	1282,03
223,69	1273,84
223,91	1325,04
224,13	1269,74
224,35	1306,60
224,57	1286,12
224,78	1247,21
225,00	1241,07
225,22	1267,69
225,44	1191,92
225,66	1308,65
225,88	1292,27
226,10	1181,68
226,32	1198,06
226,53	1296,36
226,75	1247,21
226,97	1232,88
227,19	1208,30
227,41	1320,94
227,63	1239,02
227,85	1267,69
228,06	1269,74
228,28	1232,88
228,50	1275,88
228,72	1245,16
228,94	1331,18
229,16	1261,55
229,37	1298,41
229,59	1208,30
229,81	1339,37
230,03	1273,84
230,25	1271,79
230,47	1226,73
230,69	1269,74
230,90	1239,02
231,12	1159,15
231,34	1198,06
231,56	1290,22
231,78	1177,58
232,00	1304,56
232,21	1279,98
232,43	1255,40
232,65	1228,78
232,87	1222,64
233,09	1249,26
233,30	1230,83
233,52	1275,88
233,74	1232,88
233,96	1220,59
234,18	1273,84
234,40	1210,35
234,61	1214,45
234,83	1333,23
235,05	1249,26
235,27	1239,02
235,49	1296,36
235,70	1282,03
235,92	1236,97
236,14	1269,74
236,36	1230,83
236,58	1251,31
236,79	1263,60
237,01	1236,97
237,23	1331,18
237,45	1316,84
237,67	1310,70
237,88	1282,03
238,10	1279,98
238,32	1273,84
238,54	1257,45
238,76	1226,73
238,97	1335,28
239,19	1296,36
239,41	1257,45
239,63	1288,17
239,85	1277,93
240,06	1298,41
240,28	1318,89
240,50	1265,64
240,72	1249,26
240,93	1236,97
241,15	1353,71
241,37	1304,56
241,59	1298,41
241,81	1239,02
242,02	1288,17
242,24	1304,56
242,46	1273,84
242,68	1273,84
242,89	1279,98
243,11	1308,65
243,33	1241,07
243,55	1216,49
243,76	1284,08
243,98	1239,02
244,20	1288,17
244,42	1316,84
244,64	1263,60
244,85	1284,08
245,07	1284,08
245,29	1302,51
245,51	1232,88
245,72	1296,36
245,94	1265,64
246,16	1282,03
246,38	1292,27
246,59	1232,88
246,81	1241,07
247,03	1245,16
247,24	1302,51
247,46	1241,07
247,68	1226,73
247,90	1275,88
248,11	1296,36
248,33	1249,26
248,55	1243,12
248,77	1298,41
248,98	1208,30
249,20	1183,73
249,42	1279,98
249,64	1329,13
249,85	1253,36
250,07	1302,51
250,29	1329,13
250,50	1253,36
250,72	1251,31
250,94	1277,93
251,16	1341,42
251,37	1243,12
251,59	1230,83
251,81	1322,99
252,02	1308,65
252,24	1292,27
252,46	1304,56
252,68	1249,26
252,89	1269,74
253,11	1247,21
253,33	1218,54
253,54	1245,16
253,76	1345,52
253,98	1255,40
254,20	1257,45
254,41	1214,45
254,63	1312,75
254,85	1261,55
255,06	1273,84
255,28	1273,84
255,50	1292,27
255,71	1241,07
255,93	1302,51
256,15	1335,28
256,36	1251,31
256,58	1302,51
256,80	1308,65
257,02	1239,02
257,23	1273,84
257,45	1349,61
257,67	1271,79
257,88	1216,49
258,10	1157,10
258,32	1241,07
258,53	1322,99
258,75	1286,12
258,97	1234,93
259,18	1239,02
259,40	1300,46
259,62	1183,73
259,83	1236,97
260,05	1271,79
260,27	1259,50
260,48	1241,07
260,70	1331,18
260,92	1306,60
261,13	1308,65
261,35	1222,64
261,57	1310,70
261,78	1310,70
262,00	1284,08
262,22	1275,88
262,43	1261,55
262,65	1224,69
262,86	1335,28
263,08	1259,50
263,30	1253,36
263,51	1189,87
263,73	1249,26
263,95	1300,46
264,16	1306,60
264,38	1263,60
264,60	1267,69
264,81	1302,51
265,03	1200,11
265,25	1259,50
265,46	1345,52
265,68	1228,78
265,89	1220,59
266,11	1310,70
266,33	1302,51
266,54	1249,26
266,76	1333,23
266,98	1236,97
267,19	1267,69
267,41	1322,99
267,62	1253,36
267,84	1247,21
268,06	1224,69
268,27	1349,61
268,49	1282,03
268,70	1333,23
268,92	1249,26
269,14	1249,26
269,35	1226,73
269,57	1249,26
269,79	1316,84
270,00	1327,08
270,22	1292,27
270,43	1198,06
270,65	1273,84
270,87	1247,21
271,08	1292,27
271,30	1290,22
271,51	1247,21
271,73	1294,32
271,95	1288,17
272,16	1292,27
272,38	1279,98
272,59	1306,60
272,81	1271,79
273,02	1243,12
273,24	1286,12
273,46	1275,88
273,67	1265,64
273,89	1243,12
274,10	1230,83
274,32	1271,79
274,54	1298,41
274,75	1257,45
274,97	1273,84
275,18	1269,74
275,40	1230,83
275,61	1216,49
275,83	1279,98
276,05	1261,55
276,26	1314,80
276,48	1277,93
276,69	1302,51
276,91	1298,41
277,12	1284,08
277,34	1279,98
277,55	1349,61
277,77	1259,50
277,99	1251,31
278,20	1269,74
278,42	1306,60
278,63	1228,78
278,85	1257,45
279,06	1292,27
279,28	1253,36
279,49	1314,80
279,71	1300,46
279,93	1245,16
280,14	1261,55
280,36	1232,88
280,57	1255,40
280,79	1282,03
281,00	1259,50
281,22	1341,42
281,43	1273,84
281,65	1269,74
281,86	1232,88
282,08	1253,36
282,29	1320,94
282,51	1230,83
282,73	1269,74
282,94	1273,84
283,16	1327,08
283,37	1294,32
283,59	1236,97
283,80	1275,88
284,02	1298,41
284,23	1200,11
284,45	1247,21
284,66	1271,79
284,88	1296,36
285,09	1320,94
285,31	1241,07
285,52	1261,55
285,74	1245,16
285,95	1259,50
286,17	1284,08
286,38	1236,97
286,60	1216,49
286,81	1243,12
287,03	1318,89
287,24	1288,17
287,46	1296,36
287,67	1261,55
287,89	1304,56
288,10	1349,61
288,32	1198,06
288,53	1255,40
288,75	1273,84
288,96	1275,88
289,18	1245,16
289,39	1239,02
289,61	1159,15
289,82	1255,40
290,04	1257,45
290,25	1282,03
290,47	1337,32
290,68	1255,40
290,90	1253,36
291,11	1251,31
291,33	1255,40
291,54	1335,28
291,76	1282,03
291,97	1288,17
292,18	1296,36
292,40	1212,40
292,61	1269,74
292,83	1306,60
293,04	1292,27
293,26	1292,27
293,47	1159,15
293,69	1232,88
293,90	1290,22
294,12	1241,07
294,33	1253,36
294,55	1220,59
294,76	1277,93
294,97	1261,55
295,19	1245,16
295,40	1265,64
295,62	1296,36
295,83	1249,26
296,05	1273,84
296,26	1306,60
296,48	1275,88
296,69	1265,64
296,90	1290,22
297,12	1245,16
297,33	1325,04
297,55	1216,49
297,76	1253,36
297,98	1234,93
298,19	1322,99
298,41	1212,40
298,62	1290,22
298,83	1255,40
299,05	1177,58
299,26	1232,88
299,48	1261,55
299,69	1294,32
299,90	1271,79
300,12	1279,98
300,33	1275,88
300,55	1286,12
300,76	1277,93
300,98	1269,74
301,19	1263,60
301,40	1204,21
301,62	1277,93
301,83	1234,93
302,05	1284,08
302,26	1277,93
302,47	1232,88
302,69	1257,45
302,90	1298,41
303,12	1300,46
303,33	1273,84
303,54	1286,12
303,76	1298,41
303,97	1300,46
304,19	1255,40
304,40	1292,27
304,61	1345,52
304,83	1257,45
305,04	1277,93
305,26	1302,51
305,47	1241,07
305,68	1220,59
305,90	1232,88
306,11	1241,07
306,33	1263,60
306,54	1273,84
306,75	1208,30
306,97	1300,46
307,18	1273,84
307,39	1284,08
307,61	1224,69
307,82	1251,31
308,04	1282,03
308,25	1167,34
308,46	1189,87
308,68	1284,08
308,89	1232,88
309,10	1288,17
309,32	1261,55
309,53	1222,64
309,74	1279,98
309,96	1277,93
310,17	1310,70
310,39	1304,56
310,60	1282,03
310,81	1255,40
311,03	1370,09
311,24	1259,50
311,45	1222,64
311,67	1351,66
311,88	1245,16
312,09	1134,57
312,31	1349,61
312,52	1286,12
312,73	1337,32
312,95	1265,64
313,16	1290,22
313,37	1263,60
313,59	1277,93
313,80	1161,20
314,01	1224,69
314,23	1304,56
314,44	1325,04
314,65	1198,06
314,87	1277,93
315,08	1214,45
315,29	1232,88
315,51	1198,06
315,72	1234,93
315,93	1347,56
316,15	1208,30
316,36	1314,80
316,57	1226,73
316,79	1273,84
317,00	1259,50
317,21	1185,77
317,43	1243,12
317,64	1306,60
317,85	1282,03
318,07	1241,07
318,28	1263,60
318,49	1333,23
318,70	1249,26
318,92	1298,41
319,13	1296,36
319,34	1333,23
319,56	1288,17
319,77	1288,17
319,98	1241,07
320,20	1220,59
320,41	1255,40
320,62	1318,89
320,83	1290,22
321,05	1316,84
321,26	1314,80
321,47	1212,40
321,69	1357,80
321,90	1216,49
322,11	1300,46
322,32	1183,73
322,54	1269,74
322,75	1245,16
322,96	1314,80
323,18	1265,64
323,39	1267,69
323,60	1241,07
323,81	1337,32
324,03	1239,02
324,24	1275,88
324,45	1243,12
324,66	1210,35
324,88	1279,98
325,09	1345,52
325,30	1265,64
325,52	1290,22
325,73	1261,55
325,94	1273,84
326,15	1214,45
326,37	1263,60
326,58	1210,35
326,79	1288,17
327,00	1257,45
327,22	1282,03
327,43	1286,12
327,64	1279,98
327,85	1230,83
328,07	1284,08
328,28	1300,46
328,49	1284,08
328,70	1296,36
328,92	1263,60
329,13	1329,13
329,34	1263,60
329,55	1261,55
329,76	1245,16
329,98	1241,07
330,19	1296,36
330,40	1232,88
330,61	1245,16
330,83	1282,03
331,04	1230,83
331,25	1243,12
331,46	1247,21
331,68	1239,02
331,89	1306,60
332,10	1259,50
332,31	1314,80
332,52	1226,73
332,74	1288,17
332,95	1290,22
333,16	1265,64
333,37	1261,55
333,58	1273,84
333,80	1232,88
334,01	1247,21
334,22	1241,07
334,43	1277,93
334,64	1263,60
334,86	1232,88
335,07	1232,88
335,28	1269,74
335,49	1322,99
335,70	1255,40
335,92	1249,26
336,13	1296,36
336,34	1298,41
336,55	1267,69
336,76	1329,13
336,98	1245,16
337,19	1284,08
337,40	1359,85
337,61	1230,83
337,82	1251,31
338,04	1228,78
338,25	1286,12
338,46	1290,22
338,67	1236,97
338,88	1286,12
339,09	1247,21
339,31	1304,56
339,52	1304,56
339,73	1288,17
339,94	1263,60
340,15	1241,07
340,36	1255,40
340,58	1288,17
340,79	1327,08
341,00	1273,84
341,21	1239,02
341,42	1255,40
341,63	1290,22
341,85	1257,45
342,06	1271,79
342,27	1263,60
342,48	1255,40
342,69	1261,55
342,90	1239,02
343,12	1333,23
343,33	1265,64
343,54	1220,59
343,75	1247,21
343,96	1196,01
344,17	1282,03
344,38	1249,26
344,60	1341,42
344,81	1261,55
345,02	1259,50
345,23	1329,13
345,44	1308,65
345,65	1286,12
345,86	1286,12
346,07	1232,88
346,29	1282,03
346,50	1335,28
346,71	1312,75
346,92	1273,84
347,13	1335,28
347,34	1196,01
347,55	1243,12
347,76	1169,39
347,98	1253,36
348,19	1302,51
348,40	1325,04
348,61	1251,31
348,82	1212,40
349,03	1314,80
349,24	1232,88
349,45	1202,16
349,66	1198,06
349,88	1267,69
350,09	1288,17
350,30	1312,75
350,51	1261,55
350,72	1331,18
350,93	1310,70
351,14	1298,41
351,35	1273,84
351,56	1288,17
351,77	1216,49
351,99	1257,45
352,20	1273,84
352,41	1208,30
352,62	1263,60
352,83	1310,70
353,04	1277,93
353,25	1253,36
353,46	1304,56
353,67	1224,69
353,88	1179,63
354,09	1200,11
354,30	1288,17
354,52	1222,64
354,73	1275,88
354,94	1263,60
355,15	1220,59
355,36	1286,12
355,57	1292,27
355,78	1236,97
355,99	1290,22
356,20	1376,24
356,41	1263,60
356,62	1329,13
356,83	1290,22
357,04	1257,45
357,25	1310,70
357,46	1288,17
357,68	1304,56
357,89	1275,88
358,10	1249,26
358,31	1259,50
358,52	1226,73
358,73	1241,07
358,94	1312,75
359,15	1245,16
359,36	1243,12
359,57	1241,07
359,78	1273,84
359,99	1308,65
360,20	1236,97
360,41	1275,88
360,62	1261,55
360,83	1247,21
361,04	1357,80
361,25	1228,78
361,46	1257,45
361,67	1271,79
361,88	1214,45
362,09	1271,79
362,30	1241,07
362,51	1210,35
362,72	1230,83
362,93	1200,11
363,14	1251,31
363,35	1259,50
363,56	1232,88
363,78	1273,84
363,99	1243,12
364,20	1290,22
364,41	1273,84
364,62	1216,49
364,83	1214,45
365,04	1210,35
365,25	1241,07
365,46	1255,40
365,67	1236,97
365,88	1220,59
366,09	1277,93
366,30	1263,60
366,51	1282,03
366,72	1253,36
366,93	1257,45
367,14	1263,60
367,35	1288,17
367,56	1284,08
367,77	1282,03
367,98	1316,84
368,18	1314,80
368,39	1282,03
368,60	1234,93
368,81	1247,21
369,02	1230,83
369,23	1333,23
369,44	1267,69
369,65	1275,88
369,86	1239,02
370,07	1265,64
370,28	1210,35
370,49	1234,93
370,70	1308,65
370,91	1243,12
371,12	1292,27
371,33	1245,16
371,54	1290,22
371,75	1337,32
371,96	1185,77
372,17	1204,21
372,38	1286,12
372,59	1292,27
372,80	1251,31
373,01	1234,93
373,22	1306,60
373,43	1308,65
373,64	1241,07
373,85	1247,21
374,06	1288,17
374,26	1282,03
374,47	1249,26
374,68	1255,40
374,89	1253,36
375,10	1251,31
375,31	1271,79
375,52	1228,78
375,73	1253,36
375,94	1269,74
376,15	1308,65
376,36	1208,30
376,57	1286,12
376,78	1269,74
376,99	1302,51
377,20	1298,41
377,40	1234,93
377,61	1286,12
377,82	1204,21
378,03	1214,45
378,24	1337,32
378,45	1249,26
378,66	1288,17
378,87	1222,64
379,08	1302,51
379,29	1314,80
379,50	1247,21
379,71	1282,03
379,91	1288,17
380,12	1255,40
380,33	1261,55
380,54	1226,73
380,75	1224,69
380,96	1222,64
381,17	1224,69
381,38	1173,49
381,59	1263,60
381,80	1304,56
382,00	1271,79
382,21	1331,18
382,42	1298,41
382,63	1322,99
382,84	1255,40
383,05	1322,99
383,26	1300,46
383,47	1263,60
383,68	1306,60
383,88	1255,40
384,09	1277,93
384,30	1312,75
384,51	1230,83
384,72	1273,84
384,93	1196,01
385,14	1345,52
385,35	1214,45
385,55	1230,83
385,76	1265,64
385,97	1294,32
386,18	1288,17
386,39	1232,88
386,60	1230,83
386,81	1183,73
387,02	1318,89
387,22	1226,73
387,43	1224,69
387,64	1196,01
387,85	1234,93
388,06	1306,60
388,27	1314,80
388,48	1171,44
388,68	1329,13
388,89	1306,60
389,10	1265,64
389,31	1327,08
389,52	1263,60
389,73	1310,70
389,93	1263,60
390,14	1232,88
390,35	1230,83
390,56	1286,12
390,77	1277,93
390,98	1255,40
391,18	1255,40
391,39	1296,36
391,60	1267,69
391,81	1249,26
392,02	1234,93
392,23	1251,31
392,43	1286,12
392,64	1212,40
392,85	1290,22
393,06	1261,55
393,27	1343,47
393,47	1202,16
393,68	1337,32
393,89	1234,93
394,10	1247,21
394,31	1165,29
394,52	1298,41
394,72	1349,61
394,93	1236,97
395,14	1216,49
395,35	1234,93
395,56	1228,78
395,76	1290,22
395,97	1253,36
396,18	1325,04
396,39	1204,21
396,60	1329,13
396,80	1310,70
397,01	1241,07
397,22	1304,56
397,43	1224,69
397,64	1269,74
397,84	1292,27
398,05	1200,11
398,26	1193,97
398,47	1282,03
398,67	1286,12
398,88	1241,07
399,09	1284,08
399,30	1288,17
399,51	1218,54
399,71	1304,56
399,92	1320,94
400,13	1304,56
400,34	1265,64
400,54	1206,25
400,75	1302,51
400,96	1308,65
401,17	1271,79
401,37	1320,94
401,58	1279,98
401,79	1245,16
402,00	1296,36
402,21	1310,70
402,41	1257,45
402,62	1185,77
402,83	1224,69
403,04	1212,40
403,24	1284,08
403,45	1214,45
403,66	1296,36
403,87	1202,16
404,07	1255,40
404,28	1257,45
404,49	1255,40
404,70	1296,36
404,90	1161,20
405,11	1267,69
405,32	1253,36
405,52	1255,40
405,73	1216,49
405,94	1247,21
406,15	1261,55
406,35	1222,64
406,56	1310,70
406,77	1216,49
406,98	1224,69
407,18	1241,07
407,39	1212,40
407,60	1265,64
407,80	1230,83
408,01	1191,92
408,22	1304,56
408,43	1329,13
408,63	1282,03
408,84	1234,93
409,05	1183,73
409,25	1239,02
409,46	1257,45
409,67	1302,51
409,88	1269,74
410,08	1296,36
410,29	1269,74
410,50	1224,69
410,70	1290,22
410,91	1198,06
411,12	1230,83
411,32	1171,44
411,53	1228,78
411,74	1282,03
411,95	1208,30
412,15	1261,55
412,36	1306,60
412,57	1286,12
412,77	1226,73
412,98	1226,73
413,19	1271,79
413,39	1286,12
413,60	1198,06
413,81	1271,79
414,01	1161,20
414,22	1312,75
414,43	1255,40
414,63	1286,12
414,84	1265,64
415,05	1095,66
415,25	1253,36
415,46	1300,46
415,67	1247,21
415,87	1253,36
416,08	1263,60
416,29	1320,94
416,49	1198,06
416,70	1261,55
416,91	1265,64
417,11	1337,32
417,32	1263,60
417,53	1314,80
417,73	1271,79
417,94	1171,44
418,15	1261,55
418,35	1279,98
418,56	1232,88
418,77	1279,98
418,97	1239,02
419,18	1243,12
419,38	1210,35
419,59	1267,69
419,80	1288,17
420,00	1327,08
420,21	1282,03
420,42	1259,50
420,62	1267,69
420,83	1200,11
421,04	1259,50
421,24	1243,12
421,45	1220,59
421,65	1312,75
421,86	1216,49
422,07	1253,36
422,27	1265,64
422,48	1286,12
422,69	1378,28
422,89	1277,93
423,10	1298,41
423,30	1277,93
423,51	1265,64
423,72	1251,31
423,92	1310,70
424,13	1191,92
424,33	1251,31
424,54	1208,30
424,75	1226,73
424,95	1183,73
425,16	1329,13
425,36	1345,52
425,57	1263,60
425,78	1171,44
425,98	1265,64
426,19	1337,32
426,39	1318,89
426,60	1241,07
426,81	1255,40
427,01	1279,98
427,22	1255,40
427,42	1282,03
427,63	1241,07
427,83	1304,56
428,04	1286,12
428,25	1335,28
428,45	1173,49
428,66	1322,99
428,86	1290,22
429,07	1304,56
429,28	1214,45
429,48	1255,40
429,69	1277,93
429,89	1263,60
430,10	1220,59
430,30	1288,17
430,51	1228,78
430,71	1263,60
430,92	1245,16
431,13	1249,26
431,33	1271,79
431,54	1224,69
431,74	1234,93
431,95	1179,63
432,15	1230,83
432,36	1312,75
432,56	1314,80
432,77	1312,75
432,98	1214,45
433,18	1220,59
433,39	1279,98
433,59	1269,74
433,80	1275,88
434,00	1288,17
434,21	1333,23
434,41	1298,41
434,62	1302,51
434,82	1198,06
435,03	1257,45
435,23	1290,22
435,44	1239,02
435,64	1271,79
435,85	1228,78
436,06	1236,97
436,26	1279,98
436,47	1314,80
436,67	1253,36
436,88	1296,36
437,08	1320,94
437,29	1251,31
437,49	1312,75
437,70	1271,79
437,90	1308,65
438,11	1275,88
438,31	1288,17
438,52	1265,64
438,72	1234,93
438,93	1314,80
439,13	1341,42
439,34	1265,64
439,54	1239,02
439,75	1218,54
439,95	1226,73
440,16	1230,83
440,36	1216,49
440,57	1269,74
440,77	1208,30
440,98	1265,64
441,18	1239,02
441,39	1249,26
441,59	1263,60
441,80	1243,12
442,00	1329,13
442,21	1304,56
442,41	1218,54
442,62	1259,50
442,82	1269,74
443,02	1304,56
443,23	1308,65
443,43	1273,84
443,64	1288,17
443,84	1351,66
444,05	1208,30
444,25	1224,69
444,46	1228,78
444,66	1312,75
444,87	1359,85
445,07	1273,84
445,28	1288,17
445,48	1304,56
445,69	1296,36
445,89	1232,88
446,09	1234,93
446,30	1255,40
446,50	1241,07
446,71	1294,32
446,91	1292,27
447,12	1239,02
447,32	1255,40
447,53	1222,64
447,73	1257,45
447,93	1331,18
448,14	1314,80
448,34	1241,07
448,55	1286,12
448,75	1226,73
448,96	1302,51
449,16	1282,03
449,36	1284,08
449,57	1271,79
449,77	1302,51
449,98	1290,22
450,18	1357,80
450,39	1249,26
450,59	1322,99
450,79	1241,07
451,00	1267,69
451,20	1257,45
451,41	1267,69
451,61	1241,07
451,81	1312,75
452,02	1269,74
452,22	1239,02
452,43	1355,76
452,63	1234,93
452,84	1376,24
453,04	1351,66
453,24	1267,69
453,45	1249,26
453,65	1239,02
453,86	1261,55
454,06	1261,55
454,26	1302,51
454,47	1355,76
454,67	1298,41
454,87	1347,56
455,08	1296,36
455,28	1292,27
455,49	1171,44
455,69	1259,50
455,89	1320,94
456,10	1290,22
456,30	1232,88
456,51	1306,60
456,71	1288,17
456,91	1331,18
457,12	1355,76
457,32	1265,64
457,52	1259,50
457,73	1296,36
457,93	1345,52
458,14	1314,80
458,34	1261,55
458,54	1267,69
458,75	1206,25
458,95	1236,97
459,15	1288,17
459,36	1333,23
459,56	1318,89
459,76	1292,27
459,97	1368,04
460,17	1357,80
460,37	1286,12
460,58	1263,60
460,78	1284,08
460,99	1261,55
461,19	1273,84
461,39	1296,36
461,60	1286,12
461,80	1333,23
462,00	1273,84
462,21	1253,36
462,41	1249,26
462,61	1306,60
462,82	1232,88
463,02	1267,69
463,22	1241,07
463,43	1273,84
463,63	1247,21
463,83	1322,99
464,04	1245,16
464,24	1265,64
464,44	1261,55
464,64	1292,27
464,85	1212,40
465,05	1245,16
465,25	1249,26
465,46	1302,51
465,66	1255,40
465,86	1234,93
466,07	1253,36
466,27	1279,98
466,47	1267,69
466,68	1271,79
466,88	1282,03
467,08	1282,03
467,29	1273,84
467,49	1304,56
467,69	1349,61
467,89	1206,25
468,10	1314,80
468,30	1243,12
468,50	1290,22
468,71	1300,46
468,91	1306,60
469,11	1306,60
469,31	1212,40
469,52	1216,49
469,72	1296,36
469,92	1271,79
470,13	1222,64
470,33	1357,80
470,53	1222,64
470,73	1314,80
470,94	1316,84
471,14	1269,74
471,34	1290,22
471,54	1265,64
471,75	1294,32
471,95	1349,61
472,15	1261,55
472,36	1325,04
472,56	1210,35
472,76	1288,17
472,96	1208,30
473,17	1236,97
473,37	1257,45
473,57	1292,27
473,77	1277,93
473,98	1273,84
474,18	1173,49
474,38	1292,27
474,58	1257,45
474,79	1253,36
474,99	1253,36
475,19	1202,16
475,39	1196,01
475,60	1304,56
475,80	1284,08
476,00	1222,64
476,20	1277,93
476,41	1226,73
476,61	1343,47
476,81	1286,12
477,01	1249,26
477,21	1296,36
477,42	1284,08
477,62	1210,35
477,82	1279,98
478,02	1306,60
478,23	1345,52
478,43	1224,69
478,63	1216,49
478,83	1322,99
479,03	1292,27
479,24	1220,59
479,44	1292,27
479,64	1255,40
479,84	1304,56
480,04	1202,16
480,25	1325,04
480,45	1314,80
480,65	1290,22
480,85	1204,21
481,06	1318,89
481,26	1296,36
481,46	1318,89
481,66	1183,73
481,86	1224,69
482,06	1263,60
482,27	1255,40
482,47	1288,17
482,67	1241,07
482,87	1230,83
483,07	1292,27
483,28	1273,84
483,48	1216,49
483,68	1247,21
483,88	1314,80
484,08	1255,40
484,29	1314,80
484,49	1312,75
484,69	1286,12
484,89	1279,98
485,09	1249,26
485,29	1296,36
485,50	1222,64
485,70	1304,56
485,90	1220,59
486,10	1261,55
486,30	1282,03
486,50	1337,32
486,71	1296,36
486,91	1370,09
487,11	1236,97
487,31	1239,02
487,51	1288,17
487,71	1290,22
487,91	1245,16
488,12	1292,27
488,32	1247,21
488,52	1271,79
488,72	1279,98
488,92	1294,32
489,12	1216,49
489,32	1288,17
489,53	1304,56
489,73	1218,54
489,93	1314,80
490,13	1271,79
490,33	1279,98
490,53	1333,23
490,73	1214,45
490,94	1320,94
491,14	1257,45
491,34	1288,17
491,54	1228,78
491,74	1271,79
491,94	1234,93
492,14	1212,40
492,34	1286,12
492,54	1265,64
492,75	1269,74
492,95	1224,69
493,15	1210,35
493,35	1253,36
493,55	1290,22
493,75	1331,18
493,95	1251,31
494,15	1234,93
494,35	1279,98
494,56	1249,26
494,76	1255,40
494,96	1304,56
495,16	1232,88
495,36	1224,69
495,56	1228,78
495,76	1314,80
495,96	1255,40
496,16	1265,64
496,36	1282,03
496,56	1277,93
496,77	1288,17
496,97	1249,26
497,17	1271,79
497,37	1279,98
497,57	1271,79
497,77	1304,56
497,97	1329,13
498,17	1267,69
498,37	1318,89
498,57	1210,35
498,77	1253,36
498,97	1230,83
499,17	1189,87
499,38	1261,55
499,58	1224,69
499,78	1245,16
499,98	1222,64
500,18	1222,64
500,38	1239,02
500,58	1337,32
500,78	1288,17
500,98	1255,40
501,18	1269,74
501,38	1292,27
501,58	1302,51
501,78	1253,36
501,98	1265,64
502,18	1261,55
502,38	1247,21
502,58	1247,21
502,78	1265,64
502,98	1263,60
503,18	1253,36
503,38	1249,26
503,59	1226,73
503,79	1282,03
503,99	1286,12
504,19	1341,42
504,39	1282,03
504,59	1224,69
504,79	1247,21
504,99	1298,41
505,19	1222,64
505,39	1296,36
505,59	1282,03
505,79	1259,50
505,99	1322,99
506,19	1357,80
506,39	1359,85
506,59	1271,79
506,79	1318,89
506,99	1341,42
507,19	1204,21
507,39	1288,17
507,59	1286,12
507,79	1343,47
507,99	1241,07
508,19	1255,40
508,39	1251,31
508,59	1327,08
508,79	1296,36
508,99	1228,78
509,19	1234,93
509,39	1265,64
509,59	1269,74
509,79	1273,84
509,99	1179,63
510,19	1341,42
510,39	1290,22
510,59	1239,02
510,79	1273,84
510,99	1347,56
511,19	1226,73
511,39	1310,70
511,59	1361,90
511,79	1298,41
511,99	1263,60
512,19	1279,98
512,38	1296,36
512,58	1288,17
512,78	1275,88
512,98	1357,80
513,18	1302,51
513,38	1263,60
513,58	1339,37
513,78	1220,59
513,98	1284,08
514,18	1380,33
514,38	1232,88
514,58	1257,45
514,78	1269,74
514,98	1286,12
515,18	1230,83
515,38	1277,93
515,58	1294,32
515,78	1261,55
515,98	1265,64
516,18	1337,32
516,38	1279,98
516,57	1318,89
516,77	1298,41
516,97	1282,03
517,17	1320,94
517,37	1282,03
517,57	1259,50
517,77	1337,32
517,97	1288,17
518,17	1320,94
518,37	1349,61
518,57	1357,80
518,77	1232,88
518,97	1355,76
519,16	1331,18
519,36	1212,40
519,56	1271,79
519,76	1247,21
519,96	1277,93
520,16	1193,97
520,36	1210,35
520,56	1318,89
520,76	1308,65
520,96	1273,84
521,16	1269,74
521,35	1210,35
521,55	1374,19
521,75	1224,69
521,95	1263,60
522,15	1294,32
522,35	1335,28
522,55	1245,16
522,75	1200,11
522,95	1265,64
523,14	1361,90
523,34	1261,55
523,54	1206,25
523,74	1189,87
523,94	1372,14
524,14	1296,36
524,34	1341,42
524,54	1253,36
524,73	1345,52
524,93	1226,73
525,13	1322,99
525,33	1269,74
525,53	1236,97
525,73	1275,88
525,93	1310,70
526,13	1218,54
526,32	1247,21
526,52	1357,80
526,72	1257,45
526,92	1253,36
527,12	1257,45
527,32	1290,22
527,52	1296,36
527,71	1263,60
527,91	1302,51
528,11	1306,60
528,31	1300,46
528,51	1308,65
528,71	1388,52
528,90	1298,41
529,10	1232,88
529,30	1232,88
529,50	1298,41
529,70	1261,55
529,90	1253,36
530,09	1286,12
530,29	1331,18
530,49	1288,17
530,69	1232,88
530,89	1298,41
531,09	1306,60
531,28	1282,03
531,48	1318,89
531,68	1249,26
531,88	1320,94
532,08	1267,69
532,28	1267,69
532,47	1322,99
532,67	1318,89
532,87	1314,80
533,07	1255,40
533,27	1273,84
533,46	1286,12
533,66	1271,79
533,86	1284,08
534,06	1267,69
534,26	1263,60
534,45	1312,75
534,65	1314,80
534,85	1277,93
535,05	1300,46
535,25	1241,07
535,44	1245,16
535,64	1279,98
535,84	1245,16
536,04	1269,74
536,24	1220,59
536,43	1282,03
536,63	1310,70
536,83	1271,79
537,03	1249,26
537,22	1230,83
537,42	1314,80
537,62	1288,17
537,82	1263,60
538,02	1284,08
538,21	1378,28
538,41	1259,50
538,61	1224,69
538,81	1247,21
539,00	1308,65
539,20	1279,98
539,40	1327,08
539,60	1277,93
539,79	1314,80
539,99	1177,58
540,19	1226,73
540,39	1286,12
540,58	1212,40
540,78	1265,64
540,98	1226,73
541,18	1339,37
541,37	1325,04
541,57	1226,73
541,77	1273,84
541,97	1296,36
542,16	1288,17
542,36	1212,40
542,56	1347,56
542,76	1239,02
542,95	1316,84
543,15	1347,56
543,35	1327,08
543,54	1265,64
543,74	1296,36
543,94	1314,80
544,14	1261,55
544,33	1218,54
544,53	1282,03
544,73	1314,80
544,93	1212,40
545,12	1284,08
545,32	1261,55
545,52	1327,08
545,71	1251,31
545,91	1269,74
546,11	1306,60
546,30	1314,80
546,50	1265,64
546,70	1271,79
546,90	1320,94
547,09	1265,64
547,29	1325,04
547,49	1277,93
547,68	1288,17
547,88	1353,71
548,08	1243,12
548,27	1341,42
548,47	1241,07
548,67	1208,30
548,87	1327,08
549,06	1284,08
549,26	1290,22
549,46	1259,50
549,65	1200,11
549,85	1257,45
550,05	1331,18
550,24	1339,37
550,44	1275,88
550,64	1236,97
550,83	1269,74
551,03	1259,50
551,23	1259,50
551,42	1282,03
551,62	1284,08
551,82	1232,88
552,01	1263,60
552,21	1284,08
552,41	1218,54
552,60	1206,25
552,80	1226,73
553,00	1257,45
553,19	1296,36
553,39	1279,98
553,59	1163,25
553,78	1261,55
553,98	1251,31
554,17	1251,31
554,37	1271,79
554,57	1226,73
554,76	1296,36
554,96	1284,08
555,16	1277,93
555,35	1214,45
555,55	1314,80
555,75	1214,45
555,94	1312,75
556,14	1198,06
556,33	1249,26
556,53	1259,50
556,73	1296,36
556,92	1282,03
557,12	1363,95
557,32	1296,36
557,51	1345,52
557,71	1337,32
557,90	1312,75
558,10	1247,21
558,30	1304,56
558,49	1212,40
558,69	1269,74
558,88	1329,13
559,08	1345,52
559,28	1251,31
559,47	1341,42
559,67	1253,36
559,86	1292,27
560,06	1247,21
560,26	1294,32
560,45	1255,40
560,65	1265,64
560,84	1318,89
561,04	1286,12
561,24	1183,73
561,43	1265,64
561,63	1257,45
561,82	1312,75
562,02	1239,02
562,22	1292,27
562,41	1296,36
562,61	1259,50
562,80	1247,21
563,00	1279,98
563,19	1335,28
563,39	1259,50
563,59	1255,40
563,78	1310,70
563,98	1284,08
564,17	1306,60
564,37	1263,60
564,56	1296,36
564,76	1292,27
564,96	1216,49
565,15	1343,47
565,35	1224,69
565,54	1302,51
565,74	1212,40
565,93	1296,36
566,13	1306,60
566,32	1220,59
566,52	1343,47
566,71	1263,60
566,91	1349,61
567,11	1327,08
567,30	1249,26
567,50	1290,22
567,69	1366,00
567,89	1359,85
568,08	1351,66
568,28	1239,02
568,47	1241,07
568,67	1292,27
568,86	1300,46
569,06	1329,13
569,25	1368,04
569,45	1312,75
569,64	1228,78
569,84	1335,28
570,04	1292,27
570,23	1308,65
570,43	1282,03
570,62	1290,22
570,82	1208,30
571,01	1329,13
571,21	1275,88
571,40	1282,03
571,60	1343,47
571,79	1349,61
571,99	1329,13
572,18	1255,40
572,38	1277,93
572,57	1243,12
572,77	1325,04
572,96	1341,42
573,16	1247,21
573,35	1267,69
573,55	1277,93
573,74	1279,98
573,94	1239,02
574,13	1271,79
574,33	1294,32
574,52	1314,80
574,71	1202,16
574,91	1277,93
575,10	1216,49
575,30	1300,46
575,49	1329,13
575,69	1220,59
575,88	1208,30
576,08	1302,51
576,27	1267,69
576,47	1284,08
576,66	1296,36
576,86	1247,21
577,05	1300,46
577,25	1273,84
577,44	1298,41
577,64	1232,88
577,83	1282,03
578,02	1183,73
578,22	1273,84
578,41	1241,07
578,61	1359,85
578,80	1273,84
579,00	1363,95
579,19	1304,56
579,39	1247,21
579,58	1290,22
579,77	1292,27
579,97	1318,89
580,16	1239,02
580,36	1290,22
580,55	1314,80
580,75	1296,36
580,94	1300,46
581,13	1359,85
581,33	1310,70
581,52	1259,50
581,72	1255,40
581,91	1271,79
582,11	1265,64
582,30	1263,60
582,49	1273,84
582,69	1232,88
582,88	1282,03
583,08	1232,88
583,27	1243,12
583,47	1259,50
583,66	1259,50
583,85	1249,26
584,05	1310,70
584,24	1308,65
584,44	1204,21
584,63	1290,22
584,82	1302,51
585,02	1294,32
585,21	1265,64
585,41	1269,74
585,60	1353,71
585,79	1210,35
585,99	1277,93
586,18	1255,40
586,37	1333,23
586,57	1292,27
586,76	1259,50
586,96	1271,79
587,15	1339,37
587,34	1341,42
587,54	1320,94
587,73	1318,89
587,93	1288,17
588,12	1359,85
588,31	1282,03
588,51	1355,76
588,70	1249,26
588,89	1331,18
589,09	1288,17
589,28	1316,84
589,47	1273,84
589,67	1304,56
589,86	1222,64
590,06	1251,31
590,25	1310,70
590,44	1331,18
590,64	1312,75
590,83	1300,46
591,02	1257,45
591,22	1239,02
591,41	1320,94
591,60	1257,45
591,80	1302,51
591,99	1222,64
592,18	1290,22
592,38	1257,45
592,57	1290,22
592,76	1224,69
592,96	1294,32
593,15	1214,45
593,34	1234,93
593,54	1343,47
593,73	1306,60
593,92	1282,03
594,12	1306,60
594,31	1310,70
594,50	1253,36
594,70	1198,06
594,89	1290,22
595,08	1337,32
595,28	1318,89
595,47	1298,41
595,66	1277,93
595,86	1259,50
596,05	1253,36
596,24	1294,32
596,43	1275,88
596,63	1312,75
596,82	1314,80
597,01	1292,27
597,21	1322,99
597,40	1306,60
597,59	1245,16
597,79	1239,02
597,98	1271,79
598,17	1286,12
598,36	1370,09
598,56	1267,69
598,75	1257,45
598,94	1314,80
599,14	1355,76
599,33	1290,22
599,52	1271,79
599,71	1179,63
599,91	1312,75
600,10	1253,36
600,29	1345,52
600,48	1308,65
600,68	1314,80
600,87	1363,95
601,06	1306,60
601,26	1277,93
601,45	1261,55
601,64	1271,79
601,83	1304,56
602,03	1224,69
602,22	1312,75
602,41	1271,79
602,60	1306,60
602,80	1349,61
602,99	1304,56
603,18	1247,21
603,37	1296,36
603,57	1302,51
603,76	1312,75
603,95	1277,93
604,14	1296,36
604,34	1316,84
604,53	1279,98
604,72	1343,47
604,91	1314,80
605,10	1343,47
605,30	1296,36
605,49	1263,60
605,68	1275,88
605,87	1263,60
606,07	1263,60
606,26	1228,78
606,45	1314,80
606,64	1206,25
606,84	1327,08
607,03	1261,55
607,22	1265,64
607,41	1198,06
607,60	1302,51
607,80	1306,60
607,99	1327,08
608,18	1288,17
608,37	1267,69
608,56	1284,08
608,76	1304,56
608,95	1265,64
609,14	1325,04
609,33	1273,84
609,52	1288,17
609,72	1284,08
609,91	1288,17
610,10	1310,70
610,29	1296,36
610,48	1292,27
610,68	1277,93
610,87	1284,08
611,06	1363,95
611,25	1322,99
611,44	1374,19
611,63	1366,00
611,83	1318,89
612,02	1310,70
612,21	1359,85
612,40	1263,60
612,59	1345,52
612,79	1245,16
612,98	1335,28
613,17	1255,40
613,36	1282,03
613,55	1239,02
613,74	1296,36
613,93	1232,88
614,13	1288,17
614,32	1302,51
614,51	1294,32
614,70	1200,11
614,89	1267,69
615,08	1366,00
615,28	1277,93
615,47	1273,84
615,66	1279,98
615,85	1304,56
616,04	1329,13
616,23	1316,84
616,42	1214,45
616,62	1329,13
616,81	1275,88
617,00	1298,41
617,19	1304,56
617,38	1241,07
617,57	1314,80
617,76	1312,75
617,95	1292,27
618,15	1271,79
618,34	1339,37
618,53	1224,69
618,72	1216,49
618,91	1271,79
619,10	1322,99
619,29	1267,69
619,48	1294,32
619,68	1343,47
619,87	1277,93
620,06	1224,69
620,25	1329,13
620,44	1290,22
620,63	1267,69
620,82	1277,93
621,01	1263,60
621,20	1241,07
621,39	1327,08
621,59	1314,80
621,78	1359,85
621,97	1288,17
622,16	1284,08
622,35	1302,51
622,54	1368,04
622,73	1265,64
622,92	1241,07
623,11	1253,36
623,30	1157,10
623,49	1273,84
623,68	1255,40
623,88	1331,18
624,07	1298,41
624,26	1212,40
624,45	1308,65
624,64	1333,23
624,83	1288,17
625,02	1316,84
625,21	1306,60
625,40	1318,89
625,59	1286,12
625,78	1302,51
625,97	1294,32
626,16	1296,36
626,35	1370,09
626,54	1249,26
626,74	1279,98
626,93	1314,80
627,12	1282,03
627,31	1296,36
627,50	1304,56
627,69	1343,47
627,88	1277,93
628,07	1370,09
628,26	1236,97
628,45	1232,88
628,64	1310,70
628,83	1239,02
629,02	1343,47
629,21	1322,99
629,40	1331,18
629,59	1298,41
629,78	1222,64
629,97	1249,26
630,16	1339,37
630,35	1325,04
630,54	1298,41
630,73	1314,80
630,92	1320,94
631,11	1329,13
631,30	1331,18
631,49	1374,19
631,68	1337,32
631,87	1425,39
632,06	1421,29
632,25	1409,00
632,44	1460,20
632,63	1411,05
632,82	1484,78
633,01	1429,48
633,20	1435,63
633,39	1394,67
633,58	1507,30
633,77	1409,00
633,96	1445,87
634,15	1587,18
634,34	1828,84
634,53	2021,35
634,72	1708,01
634,91	1441,77
635,10	1509,35
635,29	1880,04
635,48	2045,92
635,67	2076,64
635,86	1910,75
636,05	1777,64
636,24	1728,49
636,43	1574,89
636,62	1427,43
636,81	1380,33
637,00	1406,95
637,19	1341,42
637,38	1413,10
637,57	1392,62
637,76	1320,94
637,95	1318,89
638,14	1294,32
638,33	1304,56
638,52	1241,07
638,71	1261,55
638,89	1294,32
639,08	1306,60
639,27	1214,45
639,46	1255,40
639,65	1279,98
639,84	1284,08
640,03	1282,03
640,22	1331,18
640,41	1183,73
640,60	1302,51
640,79	1302,51
640,98	1265,64
641,17	1222,64
641,36	1300,46
641,55	1339,37
641,74	1353,71
641,92	1245,16
642,11	1337,32
642,30	1288,17
642,49	1292,27
642,68	1273,84
642,87	1325,04
643,06	1241,07
643,25	1312,75
643,44	1218,54
643,63	1294,32
643,82	1241,07
644,00	1290,22
644,19	1273,84
644,38	1230,83
644,57	1236,97
644,76	1251,31
644,95	1255,40
645,14	1286,12
645,33	1386,47
645,52	1253,36
645,71	1306,60
645,89	1251,31
646,08	1273,84
646,27	1236,97
646,46	1288,17
646,65	1329,13
646,84	1339,37
647,03	1255,40
647,22	1288,17
647,40	1269,74
647,59	1286,12
647,78	1230,83
647,97	1216,49
648,16	1304,56
648,35	1288,17
648,54	1265,64
648,73	1318,89
648,91	1286,12
649,10	1359,85
649,29	1277,93
649,48	1312,75
649,67	1294,32
649,86	1292,27
650,05	1296,36
650,23	1271,79
650,42	1286,12
650,61	1288,17
650,80	1247,21
650,99	1236,97
651,18	1304,56
651,36	1269,74
651,55	1388,52
651,74	1230,83
651,93	1232,88
652,12	1300,46
652,31	1265,64
652,49	1337,32
652,68	1302,51
652,87	1259,50
653,06	1255,40
653,25	1241,07
653,44	1271,79
653,62	1337,32
653,81	1247,21
654,00	1314,80
654,19	1333,23
654,38	1273,84
654,56	1241,07
654,75	1370,09
654,94	1294,32
655,13	1220,59
655,32	1322,99
655,51	1265,64
655,69	1345,52
655,88	1183,73
656,07	1316,84
656,26	1279,98
656,45	1249,26
656,63	1236,97
656,82	1312,75
657,01	1232,88
657,20	1259,50
657,38	1228,78
657,57	1263,60
657,76	1277,93
657,95	1234,93
658,14	1255,40
658,32	1284,08
658,51	1290,22
658,70	1284,08
658,89	1277,93
659,08	1279,98
659,26	1267,69
659,45	1263,60
659,64	1265,64
659,83	1279,98
660,01	1308,65
660,20	1228,78
660,39	1282,03
660,58	1275,88
660,76	1304,56
660,95	1212,40
661,14	1282,03
661,33	1269,74
661,51	1400,81
661,70	1267,69
661,89	1216,49
662,08	1222,64
662,26	1288,17
662,45	1298,41
662,64	1196,01
662,83	1308,65
663,01	1249,26
663,20	1337,32
663,39	1224,69
663,58	1265,64
663,76	1251,31
663,95	1198,06
664,14	1335,28
664,32	1255,40
664,51	1212,40
664,70	1284,08
664,89	1245,16
665,07	1273,84
665,26	1318,89
665,45	1216,49
665,64	1255,40
665,82	1216,49
666,01	1259,50
666,20	1224,69
666,38	1269,74
666,57	1284,08
666,76	1267,69
666,95	1257,45
667,13	1316,84
667,32	1247,21
667,51	1308,65
667,69	1265,64
667,88	1261,55
668,07	1335,28
668,25	1271,79
668,44	1275,88
668,63	1325,04
668,81	1226,73
669,00	1247,21
669,19	1234,93
669,38	1366,00
669,56	1296,36
669,75	1296,36
669,94	1277,93
670,12	1325,04
670,31	1257,45
670,50	1193,97
670,68	1290,22
670,87	1302,51
671,06	1304,56
671,24	1265,64
671,43	1275,88
671,62	1255,40
671,80	1333,23
671,99	1241,07
672,18	1296,36
672,36	1320,94
672,55	1261,55
672,74	1247,21
672,92	1247,21
673,11	1173,49
673,29	1216,49
673,48	1298,41
673,67	1296,36
673,85	1230,83
674,04	1263,60
674,23	1230,83
674,41	1257,45
674,60	1212,40
674,79	1273,84
674,97	1296,36
675,16	1206,25
675,34	1296,36
675,53	1275,88
675,72	1198,06
675,90	1302,51
676,09	1265,64
676,28	1300,46
676,46	1308,65
676,65	1271,79
676,83	1333,23
677,02	1198,06
677,21	1273,84
677,39	1230,83
677,58	1271,79
677,77	1245,16
677,95	1298,41
678,14	1296,36
678,32	1198,06
678,51	1284,08
678,70	1300,46
678,88	1304,56
679,07	1298,41
679,25	1279,98
679,44	1245,16
679,63	1181,68
679,81	1212,40
680,00	1296,36
680,18	1259,50
680,37	1284,08
680,55	1273,84
680,74	1247,21
680,93	1294,32
681,11	1279,98
681,30	1263,60
681,48	1343,47
681,67	1228,78
681,85	1286,12
682,04	1279,98
682,23	1286,12
682,41	1282,03
682,60	1267,69
682,78	1253,36
682,97	1273,84
683,15	1349,61
683,34	1290,22
683,53	1353,71
683,71	1267,69
683,90	1273,84
684,08	1269,74
684,27	1273,84
684,45	1228,78
684,64	1241,07
684,82	1318,89
685,01	1261,55
685,19	1243,12
685,38	1333,23
685,57	1304,56
685,75	1265,64
685,94	1265,64
686,12	1308,65
686,31	1206,25
686,49	1259,50
686,68	1247,21
686,86	1232,88
687,05	1298,41
687,23	1306,60
687,42	1331,18
687,60	1271,79
687,79	1294,32
687,97	1232,88
688,16	1243,12
688,34	1320,94
688,53	1300,46
688,71	1277,93
688,90	1206,25
689,08	1265,64
689,27	1292,27
689,45	1243,12
689,64	1232,88
689,82	1228,78
690,01	1329,13
690,19	1329,13
690,38	1316,84
690,56	1279,98
690,75	1275,88
690,93	1208,30
691,12	1214,45
691,30	1257,45
691,49	1269,74
691,67	1316,84
691,86	1267,69
692,04	1282,03
692,23	1269,74
692,41	1255,40
692,60	1224,69
692,78	1320,94
692,97	1249,26
693,15	1288,17
693,34	1257,45
693,52	1247,21
693,71	1210,35
693,89	1306,60
694,08	1275,88
694,26	1273,84
694,44	1202,16
694,63	1265,64
694,81	1249,26
695,00	1331,18
695,18	1304,56
695,37	1314,80
695,55	1349,61
695,74	1247,21
695,92	1255,40
696,10	1300,46
696,29	1234,93
696,47	1308,65
696,66	1271,79
696,84	1204,21
697,03	1329,13
697,21	1302,51
697,40	1370,09
697,58	1325,04
697,76	1273,84
697,95	1245,16
698,13	1255,40
698,32	1290,22
698,50	1353,71
698,68	1314,80
698,87	1318,89
699,05	1298,41
699,24	1251,31
699,42	1286,12
699,61	1234,93
699,79	1243,12
699,97	1257,45
700,16	1290,22
700,34	1314,80
700,53	1234,93
700,71	1269,74
700,89	1249,26
701,08	1200,11
701,26	1318,89
701,45	1298,41
701,63	1222,64
701,81	1341,42
702,00	1187,82
702,18	1245,16
702,37	1320,94
702,55	1191,92
702,73	1320,94
702,92	1202,16
703,10	1329,13
703,28	1277,93
703,47	1269,74
703,65	1290,22
703,84	1331,18
704,02	1267,69
704,20	1370,09
704,39	1279,98
704,57	1277,93
704,75	1269,74
704,94	1265,64
705,12	1277,93
705,30	1245,16
705,49	1245,16
705,67	1286,12
705,86	1296,36
706,04	1232,88
706,22	1265,64
706,41	1208,30
706,59	1298,41
706,77	1222,64
706,96	1288,17
707,14	1335,28
707,32	1247,21
707,51	1202,16
707,69	1220,59
707,87	1269,74
708,06	1298,41
708,24	1230,83
708,42	1286,12
708,61	1339,37
708,79	1306,60
708,97	1251,31
709,16	1263,60
709,34	1286,12
709,52	1234,93
709,71	1218,54
709,89	1232,88
710,07	1359,85
710,26	1220,59
710,44	1253,36
710,62	1339,37
710,80	1271,79
710,99	1318,89
711,17	1312,75
711,35	1304,56
711,54	1267,69
711,72	1251,31
711,90	1193,97
712,09	1269,74
712,27	1261,55
712,45	1208,30
712,63	1337,32
712,82	1273,84
713,00	1271,79
713,18	1290,22
713,37	1253,36
713,55	1255,40
713,73	1339,37
713,91	1255,40
714,10	1214,45
714,28	1271,79
714,46	1257,45
714,65	1279,98
714,83	1239,02
715,01	1210,35
715,19	1304,56
715,38	1196,01
715,56	1241,07
715,74	1216,49
715,92	1333,23
716,11	1202,16
716,29	1204,21
716,47	1169,39
716,65	1210,35
716,84	1329,13
717,02	1208,30
717,20	1316,84
717,38	1337,32
717,57	1294,32
717,75	1220,59
717,93	1306,60
718,11	1275,88
718,30	1232,88
718,48	1298,41
718,66	1312,75
718,84	1267,69
719,03	1267,69
719,21	1318,89
719,39	1222,64
719,57	1204,21
719,75	1239,02
719,94	1279,98
720,12	1302,51
720,30	1249,26
720,48	1269,74
720,67	1282,03
720,85	1222,64
721,03	1312,75
721,21	1265,64
721,39	1361,90
721,58	1271,79
721,76	1288,17
721,94	1277,93
722,12	1232,88
722,30	1259,50
722,49	1265,64
722,67	1261,55
722,85	1296,36
723,03	1232,88
723,21	1265,64
723,40	1277,93
723,58	1288,17
723,76	1282,03
723,94	1257,45
724,12	1089,52
724,30	1290,22
724,49	1314,80
724,67	1247,21
724,85	1255,40
725,03	1284,08
725,21	1251,31
725,40	1306,60
725,58	1185,77
725,76	1255,40
725,94	1251,31
726,12	1302,51
726,30	1304,56
726,49	1255,40
726,67	1327,08
726,85	1255,40
727,03	1290,22
727,21	1173,49
727,39	1232,88
727,57	1273,84
727,76	1282,03
727,94	1236,97
728,12	1282,03
728,30	1271,79
728,48	1230,83
728,66	1249,26
728,84	1277,93
729,03	1249,26
729,21	1288,17
729,39	1259,50
729,57	1265,64
729,75	1222,64
729,93	1292,27
730,11	1249,26
730,30	1308,65
730,48	1329,13
730,66	1290,22
730,84	1208,30
731,02	1294,32
731,20	1228,78
731,38	1239,02
731,56	1253,36
731,74	1232,88
731,93	1247,21
732,11	1245,16
732,29	1251,31
732,47	1325,04
732,65	1243,12
732,83	1253,36
733,01	1263,60
733,19	1247,21
733,37	1308,65
733,56	1292,27
733,74	1273,84
733,92	1241,07
734,10	1269,74
734,28	1304,56
734,46	1271,79
734,64	1241,07
734,82	1282,03
735,00	1320,94
735,18	1263,60
735,36	1257,45
735,54	1251,31
735,73	1261,55
735,91	1241,07
736,09	1302,51
736,27	1255,40
736,45	1222,64
736,63	1236,97
736,81	1251,31
736,99	1335,28
737,17	1214,45
737,35	1247,21
737,53	1245,16
737,71	1232,88
737,89	1255,40
738,07	1222,64
738,25	1243,12
738,43	1255,40
738,61	1232,88
738,80	1300,46
738,98	1253,36
739,16	1263,60
739,34	1261,55
739,52	1187,82
739,70	1257,45
739,88	1267,69
740,06	1298,41
740,24	1279,98
740,42	1239,02
740,60	1310,70
740,78	1243,12
740,96	1306,60
741,14	1300,46
741,32	1208,30
741,50	1245,16
741,68	1288,17
741,86	1290,22
742,04	1284,08
742,22	1251,31
742,40	1249,26
742,58	1214,45
742,76	1273,84
742,94	1327,08
743,12	1333,23
743,30	1298,41
743,48	1259,50
743,66	1222,64
743,84	1263,60
744,02	1306,60
744,20	1245,16
744,38	1228,78
744,56	1290,22
744,74	1302,51
744,92	1355,76
745,10	1277,93
745,28	1327,08
745,46	1255,40
745,64	1241,07
745,82	1335,28
746,00	1316,84
746,18	1296,36
746,36	1208,30
746,54	1304,56
746,72	1300,46
746,90	1255,40
747,08	1349,61
747,26	1249,26
747,44	1230,83
747,62	1234,93
747,80	1300,46
747,98	1218,54
748,15	1243,12
748,33	1269,74
748,51	1230,83
748,69	1318,89
748,87	1218,54
749,05	1234,93
749,23	1251,31
749,41	1275,88
749,59	1337,32
749,77	1284,08
749,95	1255,40
750,13	1249,26
750,31	1273,84
750,49	1220,59
750,67	1275,88
750,85	1251,31
751,03	1304,56
751,20	1279,98
751,38	1230,83
751,56	1279,98
751,74	1288,17
751,92	1257,45
752,10	1239,02
752,28	1202,16
752,46	1269,74
752,64	1263,60
752,82	1236,97
753,00	1249,26
753,18	1351,66
753,35	1249,26
753,53	1251,31
753,71	1228,78
753,89	1257,45
754,07	1214,45
754,25	1273,84
754,43	1294,32
754,61	1312,75
754,79	1202,16
754,97	1279,98
755,14	1298,41
755,32	1220,59
755,50	1202,16
755,68	1386,47
755,86	1234,93
756,04	1306,60
756,22	1298,41
756,40	1288,17
756,57	1294,32
756,75	1271,79
756,93	1279,98
757,11	1298,41
757,29	1269,74
757,47	1279,98
757,65	1228,78
757,82	1275,88
758,00	1345,52
758,18	1249,26
758,36	1378,28
758,54	1265,64
758,72	1318,89
758,90	1249,26
759,07	1279,98
759,25	1265,64
759,43	1224,69
759,61	1222,64
759,79	1288,17
759,97	1288,17
760,15	1222,64
760,32	1310,70
760,50	1279,98
760,68	1286,12
760,86	1314,80
761,04	1345,52
761,22	1249,26
761,39	1239,02
761,57	1333,23
761,75	1245,16
761,93	1241,07
762,11	1271,79
762,28	1304,56
762,46	1263,60
762,64	1294,32
762,82	1361,90
763,00	1306,60
763,18	1224,69
763,35	1251,31
763,53	1277,93
763,71	1306,60
763,89	1249,26
764,07	1298,41
764,24	1255,40
764,42	1275,88
764,60	1210,35
764,78	1255,40
764,96	1300,46
765,13	1275,88
765,31	1222,64
765,49	1288,17
765,67	1257,45
765,84	1290,22
766,02	1322,99
766,20	1304,56
766,38	1273,84
766,56	1245,16
766,73	1325,04
766,91	1273,84
767,09	1304,56
767,27	1290,22
767,44	1273,84
767,62	1247,21
767,80	1300,46
767,98	1255,40
768,15	1257,45
768,33	1216,49
768,51	1275,88
768,69	1224,69
768,87	1239,02
769,04	1216,49
769,22	1230,83
769,40	1232,88
769,58	1337,32
769,75	1261,55
769,93	1279,98
770,11	1294,32
770,28	1306,60
770,46	1310,70
770,64	1265,64
770,82	1212,40
770,99	1327,08
771,17	1259,50
771,35	1257,45
771,53	1257,45
771,70	1318,89
771,88	1339,37
772,06	1181,68
772,23	1341,42
772,41	1216,49
772,59	1236,97
772,77	1275,88
772,94	1228,78
773,12	1224,69
773,30	1261,55
773,47	1263,60
773,65	1193,97
773,83	1253,36
774,01	1255,40
774,18	1165,29
774,36	1251,31
774,54	1279,98
774,71	1310,70
774,89	1239,02
775,07	1228,78
775,24	1333,23
775,42	1167,34
775,60	1222,64
775,78	1300,46
775,95	1271,79
776,13	1261,55
776,31	1271,79
776,48	1277,93
776,66	1271,79
776,84	1265,64
777,01	1300,46
777,19	1241,07
777,37	1290,22
777,54	1271,79
777,72	1318,89
777,90	1210,35
778,07	1288,17
778,25	1249,26
778,43	1343,47
778,60	1175,53
778,78	1257,45
778,96	1241,07
779,13	1230,83
779,31	1241,07
779,49	1357,80
779,66	1257,45
779,84	1296,36
780,01	1261,55
780,19	1290,22
780,37	1228,78
780,54	1273,84
780,72	1271,79
780,90	1265,64
781,07	1234,93
781,25	1273,84
781,43	1269,74
781,60	1284,08
781,78	1296,36
781,95	1271,79
782,13	1255,40
782,31	1282,03
782,48	1241,07
782,66	1277,93
782,83	1384,43
783,01	1273,84
783,19	1314,80
783,36	1259,50
783,54	1222,64
783,72	1329,13
783,89	1245,16
784,07	1302,51
784,24	1179,63
784,42	1296,36
784,60	1290,22
784,77	1202,16
784,95	1230,83
785,12	1320,94
785,30	1306,60
785,47	1279,98
785,65	1249,26
785,83	1290,22
786,00	1239,02
786,18	1259,50
786,35	1249,26
786,53	1257,45
786,71	1224,69
786,88	1253,36
787,06	1187,82
787,23	1290,22
787,41	1239,02
787,58	1212,40
787,76	1337,32
787,94	1202,16
788,11	1210,35
788,29	1300,46
788,46	1230,83
788,64	1286,12
788,81	1261,55
788,99	1267,69
789,16	1183,73
789,34	1300,46
789,52	1224,69
789,69	1294,32
789,87	1210,35
790,04	1267,69
790,22	1290,22
790,39	1349,61
790,57	1214,45
790,74	1298,41
790,92	1255,40
791,09	1304,56
791,27	1308,65
791,44	1249,26
791,62	1298,41
791,79	1322,99
791,97	1286,12
792,15	1339,37
792,32	1255,40
792,50	1320,94
792,67	1249,26
792,85	1255,40
793,02	1267,69
793,20	1288,17
793,37	1247,21
793,55	1253,36
793,72	1273,84
793,90	1265,64
794,07	1245,16
794,25	1279,98
794,42	1267,69
794,60	1241,07
794,77	1296,36
794,95	1249,26
795,12	1220,59
795,30	1236,97
795,47	1333,23
795,65	1322,99
795,82	1204,21
796,00	1314,80
796,17	1259,50
796,34	1267,69
796,52	1267,69
796,69	1247,21
796,87	1249,26
797,04	1331,18
797,22	1325,04
797,39	1263,60
797,57	1241,07
797,74	1175,53
797,92	1224,69
798,09	1247,21
798,27	1259,50
798,44	1222,64
798,62	1247,21
798,79	1294,32
798,96	1193,97
799,14	1265,64
799,31	1306,60
799,49	1279,98
799,66	1230,83
799,84	1282,03
800,01	1302,51
800,19	1296,36
800,36	1277,93
800,53	1273,84
800,71	1294,32
800,88	1345,52
801,06	1306,60
801,23	1230,83
801,41	1216,49
801,58	1312,75
801,75	1245,16
801,93	1286,12
802,10	1265,64
802,28	1349,61
802,45	1198,06
802,63	1222,64
802,80	1286,12
802,97	1181,68
803,15	1294,32
803,32	1292,27
803,50	1241,07
803,67	1236,97
803,84	1269,74
804,02	1247,21
804,19	1261,55
804,37	1193,97
804,54	1292,27
804,71	1304,56
804,89	1247,21
805,06	1331,18
805,24	1257,45
805,41	1230,83
805,58	1265,64
805,76	1247,21
805,93	1253,36
806,10	1273,84
806,28	1279,98
806,45	1245,16
806,63	1314,80
806,80	1263,60
806,97	1210,35
807,15	1259,50
807,32	1298,41
807,49	1259,50
807,67	1288,17
807,84	1271,79
808,01	1251,31
808,19	1232,88
808,36	1224,69
808,54	1249,26
808,71	1251,31
808,88	1290,22
809,06	1267,69
809,23	1271,79
809,40	1261,55
809,58	1218,54
809,75	1290,22
809,92	1310,70
810,10	1292,27
810,27	1306,60
810,44	1257,45
810,62	1236,97
810,79	1189,87
810,96	1302,51
811,14	1304,56
811,31	1304,56
811,48	1269,74
811,66	1224,69
811,83	1284,08
812,00	1284,08
812,18	1288,17
812,35	1353,71
812,52	1318,89
812,69	1269,74
812,87	1218,54
813,04	1196,01
813,21	1279,98
813,39	1273,84
813,56	1220,59
813,73	1232,88
813,91	1206,25
814,08	1257,45
814,25	1236,97
814,42	1275,88
814,60	1267,69
814,77	1253,36
814,94	1210,35
815,12	1232,88
815,29	1269,74
815,46	1296,36
815,63	1220,59
815,81	1206,25
815,98	1259,50
816,15	1290,22
816,33	1302,51
816,50	1343,47
816,67	1196,01
816,84	1320,94
817,02	1282,03
817,19	1239,02
817,36	1189,87
817,53	1187,82
817,71	1232,88
817,88	1298,41
818,05	1243,12
818,22	1322,99
818,40	1347,56
818,57	1292,27
818,74	1267,69
818,91	1228,78
819,09	1251,31
819,26	1273,84
819,43	1335,28
819,60	1216,49
819,78	1314,80
819,95	1316,84
820,12	1251,31
820,29	1345,52
820,47	1259,50
820,64	1212,40
820,81	1316,84
820,98	1277,93
821,15	1265,64
821,33	1265,64
821,50	1310,70
821,67	1232,88
821,84	1234,93
822,02	1271,79
822,19	1284,08
822,36	1222,64
822,53	1179,63
822,70	1257,45
822,88	1279,98
823,05	1331,18
823,22	1216,49
823,39	1294,32
823,56	1251,31
823,74	1245,16
823,91	1290,22
824,08	1212,40
824,25	1304,56
824,42	1282,03
824,60	1245,16
824,77	1214,45
824,94	1302,51
825,11	1247,21
825,28	1259,50
825,45	1273,84
825,63	1253,36
825,80	1275,88
825,97	1185,77
826,14	1247,21
826,31	1306,60
826,48	1302,51
826,66	1290,22
826,83	1314,80
827,00	1183,73
827,17	1282,03
827,34	1265,64
827,51	1224,69
827,69	1224,69
827,86	1218,54
828,03	1216,49
828,20	1263,60
828,37	1255,40
828,54	1378,28
828,71	1226,73
828,89	1265,64
829,06	1202,16
829,23	1290,22
829,40	1245,16
829,57	1298,41
829,74	1269,74
829,91	1269,74
830,09	1230,83
830,26	1302,51
830,43	1224,69
830,60	1277,93
830,77	1265,64
830,94	1277,93
831,11	1310,70
831,28	1279,98
831,46	1279,98
831,63	1261,55
831,80	1304,56
831,97	1288,17
832,14	1214,45
832,31	1261,55
832,48	1226,73
832,65	1247,21
832,82	1322,99
832,99	1243,12
833,17	1269,74
833,34	1273,84
833,51	1253,36
833,68	1220,59
833,85	1296,36
834,02	1216,49
834,19	1353,71
834,36	1249,26
834,53	1216,49
834,70	1298,41
834,87	1308,65
835,04	1286,12
835,22	1208,30
835,39	1275,88
835,56	1327,08
835,73	1265,64
835,90	1232,88
836,07	1241,07
836,24	1183,73
836,41	1308,65
836,58	1320,94
836,75	1234,93
836,92	1300,46
837,09	1300,46
837,26	1294,32
837,43	1267,69
837,60	1310,70
837,77	1253,36
837,94	1267,69
838,12	1337,32
838,29	1361,90
838,46	1304,56
838,63	1263,60
838,80	1269,74
838,97	1259,50
839,14	1222,64
839,31	1218,54
839,48	1294,32
839,65	1228,78
839,82	1273,84
839,99	1212,40
840,16	1273,84
840,33	1239,02
840,50	1300,46
840,67	1232,88
840,84	1341,42
841,01	1228,78
841,18	1292,27
841,35	1286,12
841,52	1236,97
841,69	1284,08
841,86	1282,03
842,03	1284,08
842,20	1255,40
842,37	1239,02
842,54	1265,64
842,71	1222,64
842,88	1286,12
843,05	1275,88
843,22	1261,55
843,39	1314,80
843,56	1292,27
843,73	1247,21
843,90	1279,98
844,07	1298,41
844,24	1249,26
844,41	1290,22
844,58	1241,07
844,75	1275,88
844,92	1279,98
845,09	1286,12
845,26	1300,46
845,43	1279,98
845,60	1271,79
845,77	1286,12
845,94	1271,79
846,10	1159,15
846,27	1232,88
846,44	1372,14
846,61	1282,03
846,78	1261,55
846,95	1263,60
847,12	1253,36
847,29	1261,55
847,46	1191,92
847,63	1234,93
847,80	1257,45
847,97	1239,02
848,14	1312,75
848,31	1241,07
848,48	1282,03
848,65	1263,60
848,82	1241,07
848,98	1282,03
849,15	1294,32
849,32	1296,36
849,49	1294,32
849,66	1329,13
849,83	1259,50
850,00	1239,02
850,17	1302,51
850,34	1275,88
850,51	1204,21
850,68	1259,50
850,85	1181,68
851,01	1314,80
851,18	1316,84
851,35	1265,64
851,52	1247,21
851,69	1249,26
851,86	1214,45
852,03	1292,27
852,20	1320,94
852,37	1312,75
852,53	1259,50
852,70	1294,32
852,87	1228,78
853,04	1286,12
853,21	1220,59
853,38	1296,36
853,55	1243,12
853,72	1304,56
853,89	1284,08
854,05	1189,87
854,22	1279,98
854,39	1290,22
854,56	1261,55
854,73	1345,52
854,90	1228,78
855,07	1265,64
855,23	1234,93
855,40	1333,23
855,57	1255,40
855,74	1273,84
855,91	1249,26
856,08	1265,64
856,25	1261,55
856,41	1261,55
856,58	1216,49
856,75	1249,26
856,92	1249,26
857,09	1314,80
857,26	1196,01
857,42	1304,56
857,59	1298,41
857,76	1243,12
857,93	1167,34
858,10	1267,69
858,27	1349,61
858,43	1249,26
858,60	1224,69
858,77	1306,60
858,94	1277,93
859,11	1269,74
859,27	1298,41
859,44	1253,36
859,61	1249,26
859,78	1298,41
859,95	1228,78
860,12	1257,45
860,28	1257,45
860,45	1370,09
860,62	1271,79
860,79	1247,21
860,95	1255,40
861,12	1275,88
861,29	1277,93
861,46	1353,71
861,63	1357,80
861,79	1310,70
861,96	1298,41
862,13	1277,93
862,30	1288,17
862,47	1224,69
862,63	1265,64
862,80	1273,84
862,97	1251,31
863,14	1259,50
863,30	1306,60
863,47	1296,36
863,64	1202,16
863,81	1273,84
863,97	1279,98
864,14	1232,88
864,31	1265,64
864,48	1245,16
864,65	1279,98
864,81	1265,64
864,98	1251,31
865,15	1359,85
865,32	1271,79
865,48	1249,26
865,65	1279,98
865,82	1308,65
865,98	1286,12
866,15	1245,16
866,32	1271,79
866,49	1331,18
866,65	1234,93
866,82	1208,30
866,99	1245,16
867,16	1259,50
867,32	1312,75
867,49	1312,75
867,66	1251,31
867,83	1271,79
867,99	1253,36
868,16	1200,11
868,33	1267,69
868,49	1206,25
868,66	1327,08
868,83	1300,46
868,99	1316,84
869,16	1263,60
869,33	1269,74
869,50	1339,37
869,66	1243,12
869,83	1308,65
870,00	1300,46
870,16	1294,32
870,33	1261,55
870,50	1322,99
870,66	1298,41
870,83	1288,17
871,00	1302,51
871,17	1210,35
871,33	1304,56
871,50	1322,99
871,67	1230,83
871,83	1263,60
872,00	1234,93
872,17	1273,84
872,33	1239,02
872,50	1279,98
872,67	1259,50
872,83	1236,97
873,00	1239,02
873,17	1312,75
873,33	1259,50
873,50	1255,40
873,67	1267,69
873,83	1329,13
874,00	1224,69
874,16	1300,46
874,33	1236,97
874,50	1222,64
874,66	1275,88
874,83	1247,21
875,00	1243,12
875,16	1253,36
875,33	1239,02
875,50	1247,21
875,66	1247,21
875,83	1265,64
875,99	1232,88
876,16	1304,56
876,33	1200,11
876,49	1298,41
876,66	1243,12
876,83	1296,36
876,99	1247,21
877,16	1314,80
877,32	1290,22
877,49	1300,46
877,66	1187,82
877,82	1325,04
877,99	1302,51
878,15	1253,36
878,32	1275,88
878,49	1230,83
878,65	1245,16
878,82	1269,74
878,98	1218,54
879,15	1208,30
879,32	1320,94
879,48	1273,84
879,65	1363,95
879,81	1255,40
879,98	1290,22
880,15	1331,18
880,31	1290,22
880,48	1269,74
880,64	1261,55
880,81	1228,78
880,97	1335,28
881,14	1306,60
881,31	1300,46
881,47	1263,60
881,64	1286,12
881,80	1304,56
881,97	1265,64
882,13	1255,40
882,30	1230,83
882,47	1253,36
882,63	1279,98
882,80	1220,59
882,96	1243,12
883,13	1234,93
883,29	1327,08
883,46	1294,32
883,62	1267,69
883,79	1255,40
883,95	1273,84
884,12	1261,55
884,29	1259,50
884,45	1218,54
884,62	1284,08
884,78	1296,36
884,95	1320,94
885,11	1257,45
885,28	1269,74
885,44	1253,36
885,61	1282,03
885,77	1316,84
885,94	1304,56
886,10	1306,60
886,27	1224,69
886,43	1298,41
886,60	1234,93
886,76	1298,41
886,93	1259,50
887,09	1261,55
887,26	1220,59
887,42	1294,32
887,59	1249,26
887,75	1253,36
887,92	1279,98
888,08	1257,45
888,25	1314,80
888,41	1284,08
888,58	1277,93
888,74	1241,07
888,91	1284,08
>>>>>End Processed Spectral Data<<<<<
