SpectraSuite Data File
++++++++++++++++++++++++++++++++++++
Date: Sun Apr 03 19:55:21 CEST 2016
User: root
Dark Spectrum Present: No
Reference Spectrum Present: No
Number of Sampled Component Spectra: 1
Spectrometers: USB4C02835
Integration Time (usec): 10000 (USB4C02835)
Spectra Averaged: 1 (USB4C02835)
Boxcar Smoothing: 0 (USB4C02835)
Correct for Electrical Dark: No (USB4C02835)
Strobe/Lamp Enabled: No (USB4C02835)
Correct for Detector Non-linearity: No (USB4C02835)
Correct for Stray Light: No (USB4C02835)
Number of Pixels in Processed Spectrum: 3648
>>>>>Begin Processed Spectral Data<<<<<
177,47	1290,22
177,69	1290,22
177,91	1290,22
178,13	1263,60
178,36	1204,21
178,58	1255,40
178,80	1277,93
179,02	1253,36
179,24	1306,60
179,46	1251,31
179,68	1261,55
179,90	1177,58
180,13	1361,90
180,35	1232,88
180,57	1363,95
180,79	1363,95
181,01	1191,92
181,23	1159,15
181,45	1304,56
181,67	1196,01
181,90	1261,55
182,12	1277,93
182,34	1263,60
182,56	1296,36
182,78	1284,08
183,00	1357,80
183,22	1234,93
183,44	1257,45
183,66	1292,27
183,89	1275,88
184,11	1322,99
184,33	1257,45
184,55	1247,21
184,77	1253,36
184,99	1253,36
185,21	1261,55
185,43	1261,55
185,65	1259,50
185,87	1306,60
186,10	1183,73
186,32	1249,26
186,54	1239,02
186,76	1200,11
186,98	1292,27
187,20	1230,83
187,42	1204,21
187,64	1243,12
187,86	1277,93
188,08	1228,78
188,30	1290,22
188,52	1329,13
188,75	1277,93
188,97	1306,60
189,19	1277,93
189,41	1253,36
189,63	1327,08
189,85	1247,21
190,07	1292,27
190,29	1308,65
190,51	1261,55
190,73	1257,45
190,95	1298,41
191,17	1236,97
191,39	1294,32
191,61	1304,56
191,84	1308,65
192,06	1277,93
192,28	1214,45
192,50	1269,74
192,72	1376,24
192,94	1314,80
193,16	1265,64
193,38	1279,98
193,60	1202,16
193,82	1337,32
194,04	1257,45
194,26	1210,35
194,48	1292,27
194,70	1265,64
194,92	1318,89
195,14	1298,41
195,36	1183,73
195,58	1286,12
195,80	1239,02
196,02	1275,88
196,24	1349,61
196,46	1196,01
196,69	1263,60
196,91	1308,65
197,13	1314,80
197,35	1189,87
197,57	1236,97
197,79	1171,44
198,01	1200,11
198,23	1236,97
198,45	1298,41
198,67	1322,99
198,89	1347,56
199,11	1279,98
199,33	1259,50
199,55	1263,60
199,77	1286,12
199,99	1249,26
200,21	1249,26
200,43	1275,88
200,65	1298,41
200,87	1271,79
201,09	1245,16
201,31	1284,08
201,53	1249,26
201,75	1261,55
201,97	1150,96
202,19	1247,21
202,41	1263,60
202,63	1259,50
202,85	1273,84
203,07	1312,75
203,29	1234,93
203,51	1337,32
203,73	1294,32
203,95	1271,79
204,17	1267,69
204,39	1257,45
204,61	1263,60
204,83	1175,53
205,05	1279,98
205,27	1277,93
205,49	1212,40
205,71	1251,31
205,93	1286,12
206,15	1304,56
206,37	1273,84
206,59	1255,40
206,81	1273,84
207,03	1253,36
207,25	1202,16
207,47	1265,64
207,69	1224,69
207,91	1251,31
208,13	1314,80
208,34	1245,16
208,56	1230,83
208,78	1220,59
209,00	1200,11
209,22	1214,45
209,44	1263,60
209,66	1302,51
209,88	1322,99
210,10	1308,65
210,32	1226,73
210,54	1210,35
210,76	1222,64
210,98	1263,60
211,20	1273,84
211,42	1247,21
211,64	1234,93
211,86	1228,78
212,08	1245,16
212,30	1257,45
212,52	1263,60
212,74	1308,65
212,96	1249,26
213,17	1193,97
213,39	1220,59
213,61	1286,12
213,83	1288,17
214,05	1263,60
214,27	1316,84
214,49	1255,40
214,71	1245,16
214,93	1271,79
215,15	1298,41
215,37	1282,03
215,59	1282,03
215,81	1308,65
216,03	1251,31
216,24	1306,60
216,46	1325,04
216,68	1298,41
216,90	1277,93
217,12	1224,69
217,34	1177,58
217,56	1304,56
217,78	1300,46
218,00	1243,12
218,22	1216,49
218,44	1191,92
218,66	1222,64
218,87	1257,45
219,09	1269,74
219,31	1300,46
219,53	1249,26
219,75	1230,83
219,97	1232,88
220,19	1325,04
220,41	1241,07
220,63	1318,89
220,85	1335,28
221,06	1290,22
221,28	1284,08
221,50	1249,26
221,72	1288,17
221,94	1296,36
222,16	1216,49
222,38	1261,55
222,60	1318,89
222,82	1298,41
223,03	1263,60
223,25	1275,88
223,47	1322,99
223,69	1279,98
223,91	1277,93
224,13	1214,45
224,35	1249,26
224,57	1263,60
224,78	1298,41
225,00	1273,84
225,22	1282,03
225,44	1247,21
225,66	1277,93
225,88	1288,17
226,10	1251,31
226,32	1257,45
226,53	1282,03
226,75	1269,74
226,97	1220,59
227,19	1173,49
227,41	1286,12
227,63	1275,88
227,85	1269,74
228,06	1306,60
228,28	1204,21
228,50	1251,31
228,72	1161,20
228,94	1216,49
229,16	1245,16
229,37	1204,21
229,59	1259,50
229,81	1273,84
230,03	1249,26
230,25	1263,60
230,47	1236,97
230,69	1327,08
230,90	1267,69
231,12	1300,46
231,34	1314,80
231,56	1265,64
231,78	1292,27
232,00	1226,73
232,21	1210,35
232,43	1251,31
232,65	1284,08
232,87	1282,03
233,09	1298,41
233,30	1241,07
233,52	1253,36
233,74	1267,69
233,96	1255,40
234,18	1269,74
234,40	1212,40
234,61	1282,03
234,83	1216,49
235,05	1320,94
235,27	1259,50
235,49	1380,33
235,70	1259,50
235,92	1263,60
236,14	1234,93
236,36	1206,25
236,58	1261,55
236,79	1267,69
237,01	1255,40
237,23	1261,55
237,45	1335,28
237,67	1273,84
237,88	1286,12
238,10	1239,02
238,32	1282,03
238,54	1290,22
238,76	1304,56
238,97	1277,93
239,19	1298,41
239,41	1269,74
239,63	1257,45
239,85	1210,35
240,06	1286,12
240,28	1304,56
240,50	1275,88
240,72	1296,36
240,93	1335,28
241,15	1304,56
241,37	1267,69
241,59	1357,80
241,81	1257,45
242,02	1306,60
242,24	1286,12
242,46	1267,69
242,68	1308,65
242,89	1298,41
243,11	1267,69
243,33	1261,55
243,55	1286,12
243,76	1220,59
243,98	1359,85
244,20	1228,78
244,42	1263,60
244,64	1255,40
244,85	1198,06
245,07	1236,97
245,29	1241,07
245,51	1257,45
245,72	1265,64
245,94	1253,36
246,16	1210,35
246,38	1290,22
246,59	1247,21
246,81	1290,22
247,03	1335,28
247,24	1230,83
247,46	1265,64
247,68	1206,25
247,90	1273,84
248,11	1265,64
248,33	1320,94
248,55	1355,76
248,77	1212,40
248,98	1214,45
249,20	1288,17
249,42	1265,64
249,64	1282,03
249,85	1230,83
250,07	1241,07
250,29	1351,66
250,50	1247,21
250,72	1286,12
250,94	1249,26
251,16	1279,98
251,37	1253,36
251,59	1310,70
251,81	1302,51
252,02	1255,40
252,24	1208,30
252,46	1263,60
252,68	1232,88
252,89	1259,50
253,11	1241,07
253,33	1279,98
253,54	1241,07
253,76	1269,74
253,98	1306,60
254,20	1239,02
254,41	1325,04
254,63	1212,40
254,85	1282,03
255,06	1296,36
255,28	1329,13
255,50	1261,55
255,71	1216,49
255,93	1267,69
256,15	1300,46
256,36	1279,98
256,58	1279,98
256,80	1220,59
257,02	1226,73
257,23	1288,17
257,45	1257,45
257,67	1353,71
257,88	1253,36
258,10	1251,31
258,32	1265,64
258,53	1357,80
258,75	1243,12
258,97	1243,12
259,18	1251,31
259,40	1214,45
259,62	1269,74
259,83	1345,52
260,05	1251,31
260,27	1279,98
260,48	1288,17
260,70	1257,45
260,92	1310,70
261,13	1310,70
261,35	1331,18
261,57	1282,03
261,78	1236,97
262,00	1277,93
262,22	1247,21
262,43	1292,27
262,65	1212,40
262,86	1267,69
263,08	1320,94
263,30	1261,55
263,51	1292,27
263,73	1208,30
263,95	1251,31
264,16	1269,74
264,38	1312,75
264,60	1263,60
264,81	1267,69
265,03	1234,93
265,25	1265,64
265,46	1318,89
265,68	1318,89
265,89	1294,32
266,11	1261,55
266,33	1275,88
266,54	1210,35
266,76	1300,46
266,98	1181,68
267,19	1288,17
267,41	1275,88
267,62	1214,45
267,84	1290,22
268,06	1267,69
268,27	1259,50
268,49	1290,22
268,70	1196,01
268,92	1318,89
269,14	1316,84
269,35	1163,25
269,57	1236,97
269,79	1290,22
270,00	1290,22
270,22	1257,45
270,43	1306,60
270,65	1257,45
270,87	1327,08
271,08	1339,37
271,30	1284,08
271,51	1300,46
271,73	1277,93
271,95	1298,41
272,16	1259,50
272,38	1333,23
272,59	1259,50
272,81	1292,27
273,02	1241,07
273,24	1277,93
273,46	1196,01
273,67	1222,64
273,89	1243,12
274,10	1228,78
274,32	1265,64
274,54	1263,60
274,75	1308,65
274,97	1273,84
275,18	1306,60
275,40	1300,46
275,61	1212,40
275,83	1232,88
276,05	1308,65
276,26	1255,40
276,48	1306,60
276,69	1226,73
276,91	1331,18
277,12	1306,60
277,34	1220,59
277,55	1265,64
277,77	1304,56
277,99	1318,89
278,20	1310,70
278,42	1265,64
278,63	1245,16
278,85	1253,36
279,06	1331,18
279,28	1302,51
279,49	1212,40
279,71	1263,60
279,93	1253,36
280,14	1325,04
280,36	1288,17
280,57	1247,21
280,79	1275,88
281,00	1310,70
281,22	1191,92
281,43	1279,98
281,65	1269,74
281,86	1284,08
282,08	1220,59
282,29	1296,36
282,51	1265,64
282,73	1306,60
282,94	1247,21
283,16	1239,02
283,37	1218,54
283,59	1325,04
283,80	1243,12
284,02	1275,88
284,23	1302,51
284,45	1294,32
284,66	1265,64
284,88	1290,22
285,09	1249,26
285,31	1265,64
285,52	1239,02
285,74	1292,27
285,95	1265,64
286,17	1271,79
286,38	1300,46
286,60	1222,64
286,81	1261,55
287,03	1239,02
287,24	1314,80
287,46	1275,88
287,67	1234,93
287,89	1261,55
288,10	1226,73
288,32	1302,51
288,53	1222,64
288,75	1265,64
288,96	1327,08
289,18	1302,51
289,39	1236,97
289,61	1261,55
289,82	1314,80
290,04	1251,31
290,25	1249,26
290,47	1224,69
290,68	1271,79
290,90	1306,60
291,11	1269,74
291,33	1271,79
291,54	1265,64
291,76	1253,36
291,97	1230,83
292,18	1269,74
292,40	1212,40
292,61	1200,11
292,83	1279,98
293,04	1253,36
293,26	1216,49
293,47	1279,98
293,69	1179,63
293,90	1224,69
294,12	1308,65
294,33	1290,22
294,55	1296,36
294,76	1236,97
294,97	1208,30
295,19	1292,27
295,40	1331,18
295,62	1290,22
295,83	1210,35
296,05	1253,36
296,26	1243,12
296,48	1247,21
296,69	1167,34
296,90	1298,41
297,12	1306,60
297,33	1312,75
297,55	1230,83
297,76	1249,26
297,98	1300,46
298,19	1255,40
298,41	1308,65
298,62	1300,46
298,83	1329,13
299,05	1241,07
299,26	1228,78
299,48	1304,56
299,69	1236,97
299,90	1224,69
300,12	1239,02
300,33	1275,88
300,55	1228,78
300,76	1298,41
300,98	1167,34
301,19	1269,74
301,40	1222,64
301,62	1241,07
301,83	1308,65
302,05	1284,08
302,26	1241,07
302,47	1312,75
302,69	1261,55
302,90	1282,03
303,12	1271,79
303,33	1191,92
303,54	1222,64
303,76	1239,02
303,97	1257,45
304,19	1249,26
304,40	1257,45
304,61	1304,56
304,83	1222,64
305,04	1232,88
305,26	1304,56
305,47	1294,32
305,68	1234,93
305,90	1232,88
306,11	1259,50
306,33	1228,78
306,54	1306,60
306,75	1329,13
306,97	1249,26
307,18	1368,04
307,39	1267,69
307,61	1300,46
307,82	1214,45
308,04	1206,25
308,25	1243,12
308,46	1318,89
308,68	1249,26
308,89	1216,49
309,10	1308,65
309,32	1249,26
309,53	1273,84
309,74	1200,11
309,96	1241,07
310,17	1241,07
310,39	1275,88
310,60	1304,56
310,81	1263,60
311,03	1290,22
311,24	1275,88
311,45	1290,22
311,67	1284,08
311,88	1288,17
312,09	1239,02
312,31	1210,35
312,52	1183,73
312,73	1284,08
312,95	1294,32
313,16	1243,12
313,37	1269,74
313,59	1239,02
313,80	1255,40
314,01	1243,12
314,23	1300,46
314,44	1224,69
314,65	1322,99
314,87	1292,27
315,08	1269,74
315,29	1290,22
315,51	1245,16
315,72	1265,64
315,93	1226,73
316,15	1308,65
316,36	1257,45
316,57	1249,26
316,79	1279,98
317,00	1241,07
317,21	1273,84
317,43	1181,68
317,64	1284,08
317,85	1277,93
318,07	1273,84
318,28	1284,08
318,49	1243,12
318,70	1325,04
318,92	1243,12
319,13	1232,88
319,34	1333,23
319,56	1282,03
319,77	1296,36
319,98	1304,56
320,20	1208,30
320,41	1265,64
320,62	1282,03
320,83	1261,55
321,05	1349,61
321,26	1306,60
321,47	1234,93
321,69	1253,36
321,90	1245,16
322,11	1298,41
322,32	1243,12
322,54	1243,12
322,75	1241,07
322,96	1247,21
323,18	1347,56
323,39	1234,93
323,60	1232,88
323,81	1286,12
324,03	1239,02
324,24	1257,45
324,45	1265,64
324,66	1236,97
324,88	1273,84
325,09	1257,45
325,30	1271,79
325,52	1255,40
325,73	1300,46
325,94	1290,22
326,15	1261,55
326,37	1292,27
326,58	1245,16
326,79	1304,56
327,00	1318,89
327,22	1269,74
327,43	1265,64
327,64	1267,69
327,85	1279,98
328,07	1255,40
328,28	1267,69
328,49	1290,22
328,70	1232,88
328,92	1300,46
329,13	1284,08
329,34	1292,27
329,55	1261,55
329,76	1236,97
329,98	1239,02
330,19	1241,07
330,40	1220,59
330,61	1327,08
330,83	1181,68
331,04	1271,79
331,25	1265,64
331,46	1243,12
331,68	1189,87
331,89	1271,79
332,10	1206,25
332,31	1224,69
332,52	1279,98
332,74	1310,70
332,95	1241,07
333,16	1376,24
333,37	1325,04
333,58	1265,64
333,80	1234,93
334,01	1200,11
334,22	1257,45
334,43	1247,21
334,64	1245,16
334,86	1241,07
335,07	1279,98
335,28	1308,65
335,49	1275,88
335,70	1204,21
335,92	1187,82
336,13	1359,85
336,34	1271,79
336,55	1310,70
336,76	1206,25
336,98	1296,36
337,19	1261,55
337,40	1298,41
337,61	1316,84
337,82	1191,92
338,04	1275,88
338,25	1245,16
338,46	1247,21
338,67	1247,21
338,88	1263,60
339,09	1249,26
339,31	1298,41
339,52	1249,26
339,73	1200,11
339,94	1333,23
340,15	1290,22
340,36	1193,97
340,58	1273,84
340,79	1271,79
341,00	1234,93
341,21	1314,80
341,42	1325,04
341,63	1271,79
341,85	1271,79
342,06	1255,40
342,27	1261,55
342,48	1249,26
342,69	1310,70
342,90	1282,03
343,12	1265,64
343,33	1253,36
343,54	1261,55
343,75	1208,30
343,96	1253,36
344,17	1232,88
344,38	1263,60
344,60	1183,73
344,81	1284,08
345,02	1294,32
345,23	1304,56
345,44	1282,03
345,65	1329,13
345,86	1277,93
346,07	1259,50
346,29	1224,69
346,50	1282,03
346,71	1277,93
346,92	1294,32
347,13	1187,82
347,34	1222,64
347,55	1247,21
347,76	1298,41
347,98	1292,27
348,19	1261,55
348,40	1284,08
348,61	1241,07
348,82	1314,80
349,03	1228,78
349,24	1214,45
349,45	1259,50
349,66	1306,60
349,88	1257,45
350,09	1296,36
350,30	1148,91
350,51	1265,64
350,72	1236,97
350,93	1204,21
351,14	1282,03
351,35	1347,56
351,56	1269,74
351,77	1282,03
351,99	1210,35
352,20	1312,75
352,41	1286,12
352,62	1302,51
352,83	1296,36
353,04	1226,73
353,25	1273,84
353,46	1318,89
353,67	1236,97
353,88	1265,64
354,09	1206,25
354,30	1316,84
354,52	1257,45
354,73	1247,21
354,94	1228,78
355,15	1275,88
355,36	1300,46
355,57	1245,16
355,78	1296,36
355,99	1236,97
356,20	1310,70
356,41	1322,99
356,62	1284,08
356,83	1253,36
357,04	1333,23
357,25	1337,32
357,46	1161,20
357,68	1271,79
357,89	1228,78
358,10	1325,04
358,31	1239,02
358,52	1284,08
358,73	1277,93
358,94	1302,51
359,15	1302,51
359,36	1325,04
359,57	1304,56
359,78	1265,64
359,99	1265,64
360,20	1228,78
360,41	1257,45
360,62	1298,41
360,83	1275,88
361,04	1304,56
361,25	1261,55
361,46	1347,56
361,67	1210,35
361,88	1310,70
362,09	1275,88
362,30	1220,59
362,51	1261,55
362,72	1273,84
362,93	1327,08
363,14	1282,03
363,35	1263,60
363,56	1286,12
363,78	1257,45
363,99	1226,73
364,20	1253,36
364,41	1206,25
364,62	1247,21
364,83	1261,55
365,04	1251,31
365,25	1275,88
365,46	1247,21
365,67	1312,75
365,88	1300,46
366,09	1288,17
366,30	1189,87
366,51	1290,22
366,72	1241,07
366,93	1259,50
367,14	1273,84
367,35	1298,41
367,56	1265,64
367,77	1247,21
367,98	1269,74
368,18	1212,40
368,39	1296,36
368,60	1310,70
368,81	1279,98
369,02	1267,69
369,23	1263,60
369,44	1259,50
369,65	1247,21
369,86	1302,51
370,07	1241,07
370,28	1292,27
370,49	1261,55
370,70	1253,36
370,91	1234,93
371,12	1220,59
371,33	1318,89
371,54	1271,79
371,75	1236,97
371,96	1273,84
372,17	1320,94
372,38	1288,17
372,59	1302,51
372,80	1286,12
373,01	1284,08
373,22	1282,03
373,43	1282,03
373,64	1269,74
373,85	1245,16
374,06	1200,11
374,26	1210,35
374,47	1292,27
374,68	1257,45
374,89	1284,08
375,10	1279,98
375,31	1241,07
375,52	1245,16
375,73	1224,69
375,94	1257,45
376,15	1259,50
376,36	1263,60
376,57	1304,56
376,78	1150,96
376,99	1279,98
377,20	1318,89
377,40	1306,60
377,61	1228,78
377,82	1279,98
378,03	1198,06
378,24	1220,59
378,45	1253,36
378,66	1249,26
378,87	1210,35
379,08	1265,64
379,29	1228,78
379,50	1241,07
379,71	1267,69
379,91	1339,37
380,12	1343,47
380,33	1236,97
380,54	1325,04
380,75	1261,55
380,96	1224,69
381,17	1241,07
381,38	1247,21
381,59	1230,83
381,80	1228,78
382,00	1327,08
382,21	1232,88
382,42	1247,21
382,63	1243,12
382,84	1353,71
383,05	1310,70
383,26	1269,74
383,47	1292,27
383,68	1273,84
383,88	1302,51
384,09	1230,83
384,30	1245,16
384,51	1318,89
384,72	1255,40
384,93	1232,88
385,14	1380,33
385,35	1214,45
385,55	1222,64
385,76	1320,94
385,97	1241,07
386,18	1210,35
386,39	1282,03
386,60	1251,31
386,81	1343,47
387,02	1257,45
387,22	1302,51
387,43	1257,45
387,64	1331,18
387,85	1253,36
388,06	1267,69
388,27	1279,98
388,48	1265,64
388,68	1327,08
388,89	1263,60
389,10	1265,64
389,31	1226,73
389,52	1310,70
389,73	1327,08
389,93	1271,79
390,14	1277,93
390,35	1294,32
390,56	1275,88
390,77	1249,26
390,98	1296,36
391,18	1325,04
391,39	1284,08
391,60	1286,12
391,81	1269,74
392,02	1318,89
392,23	1284,08
392,43	1288,17
392,64	1243,12
392,85	1224,69
393,06	1322,99
393,27	1259,50
393,47	1236,97
393,68	1196,01
393,89	1263,60
394,10	1294,32
394,31	1257,45
394,52	1243,12
394,72	1249,26
394,93	1310,70
395,14	1286,12
395,35	1271,79
395,56	1273,84
395,76	1353,71
395,97	1286,12
396,18	1277,93
396,39	1273,84
396,60	1265,64
396,80	1284,08
397,01	1255,40
397,22	1273,84
397,43	1210,35
397,64	1243,12
397,84	1239,02
398,05	1306,60
398,26	1236,97
398,47	1210,35
398,67	1277,93
398,88	1222,64
399,09	1310,70
399,30	1277,93
399,51	1232,88
399,71	1298,41
399,92	1279,98
400,13	1263,60
400,34	1263,60
400,54	1312,75
400,75	1339,37
400,96	1282,03
401,17	1245,16
401,37	1241,07
401,58	1286,12
401,79	1265,64
402,00	1339,37
402,21	1265,64
402,41	1191,92
402,62	1198,06
402,83	1284,08
403,04	1247,21
403,24	1206,25
403,45	1390,57
403,66	1284,08
403,87	1275,88
404,07	1247,21
404,28	1241,07
404,49	1269,74
404,70	1279,98
404,90	1263,60
405,11	1218,54
405,32	1232,88
405,52	1271,79
405,73	1325,04
405,94	1226,73
406,15	1241,07
406,35	1216,49
406,56	1234,93
406,77	1263,60
406,98	1247,21
407,18	1249,26
407,39	1253,36
407,60	1290,22
407,80	1265,64
408,01	1271,79
408,22	1247,21
408,43	1245,16
408,63	1249,26
408,84	1374,19
409,05	1318,89
409,25	1134,57
409,46	1253,36
409,67	1296,36
409,88	1288,17
410,08	1339,37
410,29	1234,93
410,50	1288,17
410,70	1243,12
410,91	1243,12
411,12	1312,75
411,32	1249,26
411,53	1228,78
411,74	1232,88
411,95	1249,26
412,15	1306,60
412,36	1236,97
412,57	1294,32
412,77	1232,88
412,98	1245,16
413,19	1249,26
413,39	1300,46
413,60	1275,88
413,81	1257,45
414,01	1294,32
414,22	1331,18
414,43	1304,56
414,63	1216,49
414,84	1169,39
415,05	1318,89
415,25	1257,45
415,46	1306,60
415,67	1218,54
415,87	1208,30
416,08	1261,55
416,29	1191,92
416,49	1216,49
416,70	1314,80
416,91	1306,60
417,11	1198,06
417,32	1259,50
417,53	1343,47
417,73	1298,41
417,94	1241,07
418,15	1239,02
418,35	1185,77
418,56	1282,03
418,77	1239,02
418,97	1277,93
419,18	1187,82
419,38	1177,58
419,59	1304,56
419,80	1263,60
420,00	1339,37
420,21	1314,80
420,42	1243,12
420,62	1286,12
420,83	1304,56
421,04	1292,27
421,24	1257,45
421,45	1232,88
421,65	1228,78
421,86	1296,36
422,07	1284,08
422,27	1300,46
422,48	1239,02
422,69	1259,50
422,89	1282,03
423,10	1222,64
423,30	1269,74
423,51	1220,59
423,72	1282,03
423,92	1343,47
424,13	1263,60
424,33	1253,36
424,54	1296,36
424,75	1284,08
424,95	1265,64
425,16	1320,94
425,36	1294,32
425,57	1347,56
425,78	1308,65
425,98	1322,99
426,19	1318,89
426,39	1196,01
426,60	1263,60
426,81	1245,16
427,01	1241,07
427,22	1331,18
427,42	1277,93
427,63	1259,50
427,83	1234,93
428,04	1261,55
428,25	1318,89
428,45	1239,02
428,66	1241,07
428,86	1292,27
429,07	1298,41
429,28	1298,41
429,48	1269,74
429,69	1255,40
429,89	1247,21
430,10	1298,41
430,30	1288,17
430,51	1327,08
430,71	1267,69
430,92	1282,03
431,13	1320,94
431,33	1259,50
431,54	1230,83
431,74	1216,49
431,95	1318,89
432,15	1265,64
432,36	1310,70
432,56	1216,49
432,77	1306,60
432,98	1204,21
433,18	1249,26
433,39	1222,64
433,59	1310,70
433,80	1302,51
434,00	1214,45
434,21	1286,12
434,41	1279,98
434,62	1239,02
434,82	1208,30
435,03	1277,93
435,23	1208,30
435,44	1296,36
435,64	1271,79
435,85	1312,75
436,06	1247,21
436,26	1261,55
436,47	1247,21
436,67	1255,40
436,88	1259,50
437,08	1214,45
437,29	1210,35
437,49	1265,64
437,70	1214,45
437,90	1255,40
438,11	1275,88
438,31	1290,22
438,52	1222,64
438,72	1320,94
438,93	1245,16
439,13	1329,13
439,34	1265,64
439,54	1294,32
439,75	1255,40
439,95	1288,17
440,16	1302,51
440,36	1253,36
440,57	1245,16
440,77	1286,12
440,98	1277,93
441,18	1296,36
441,39	1253,36
441,59	1275,88
441,80	1261,55
442,00	1265,64
442,21	1288,17
442,41	1236,97
442,62	1259,50
442,82	1265,64
443,02	1300,46
443,23	1341,42
443,43	1279,98
443,64	1271,79
443,84	1239,02
444,05	1269,74
444,25	1202,16
444,46	1300,46
444,66	1222,64
444,87	1273,84
445,07	1249,26
445,28	1273,84
445,48	1267,69
445,69	1216,49
445,89	1314,80
446,09	1245,16
446,30	1294,32
446,50	1286,12
446,71	1261,55
446,91	1298,41
447,12	1239,02
447,32	1325,04
447,53	1288,17
447,73	1339,37
447,93	1304,56
448,14	1222,64
448,34	1284,08
448,55	1288,17
448,75	1196,01
448,96	1265,64
449,16	1294,32
449,36	1298,41
449,57	1279,98
449,77	1290,22
449,98	1257,45
450,18	1288,17
450,39	1228,78
450,59	1277,93
450,79	1288,17
451,00	1228,78
451,20	1269,74
451,41	1273,84
451,61	1232,88
451,81	1288,17
452,02	1259,50
452,22	1234,93
452,43	1279,98
452,63	1273,84
452,84	1265,64
453,04	1265,64
453,24	1376,24
453,45	1159,15
453,65	1279,98
453,86	1312,75
454,06	1265,64
454,26	1302,51
454,47	1214,45
454,67	1337,32
454,87	1304,56
455,08	1234,93
455,28	1218,54
455,49	1314,80
455,69	1263,60
455,89	1296,36
456,10	1236,97
456,30	1277,93
456,51	1300,46
456,71	1271,79
456,91	1314,80
457,12	1304,56
457,32	1249,26
457,52	1245,16
457,73	1239,02
457,93	1310,70
458,14	1228,78
458,34	1290,22
458,54	1282,03
458,75	1314,80
458,95	1300,46
459,15	1318,89
459,36	1275,88
459,56	1253,36
459,76	1234,93
459,97	1331,18
460,17	1220,59
460,37	1325,04
460,58	1292,27
460,78	1277,93
460,99	1263,60
461,19	1325,04
461,39	1325,04
461,60	1261,55
461,80	1306,60
462,00	1284,08
462,21	1269,74
462,41	1251,31
462,61	1296,36
462,82	1353,71
463,02	1331,18
463,22	1312,75
463,43	1259,50
463,63	1236,97
463,83	1282,03
464,04	1212,40
464,24	1257,45
464,44	1269,74
464,64	1282,03
464,85	1271,79
465,05	1273,84
465,25	1267,69
465,46	1277,93
465,66	1306,60
465,86	1284,08
466,07	1239,02
466,27	1241,07
466,47	1261,55
466,68	1267,69
466,88	1343,47
467,08	1230,83
467,29	1261,55
467,49	1243,12
467,69	1249,26
467,89	1329,13
468,10	1234,93
468,30	1265,64
468,50	1279,98
468,71	1290,22
468,91	1304,56
469,11	1239,02
469,31	1298,41
469,52	1390,57
469,72	1241,07
469,92	1304,56
470,13	1212,40
470,33	1263,60
470,53	1282,03
470,73	1255,40
470,94	1273,84
471,14	1269,74
471,34	1273,84
471,54	1243,12
471,75	1282,03
471,95	1304,56
472,15	1251,31
472,36	1282,03
472,56	1259,50
472,76	1292,27
472,96	1218,54
473,17	1288,17
473,37	1279,98
473,57	1204,21
473,77	1316,84
473,98	1236,97
474,18	1257,45
474,38	1298,41
474,58	1294,32
474,79	1345,52
474,99	1288,17
475,19	1310,70
475,39	1271,79
475,60	1329,13
475,80	1208,30
476,00	1275,88
476,20	1357,80
476,41	1245,16
476,61	1261,55
476,81	1259,50
477,01	1277,93
477,21	1228,78
477,42	1329,13
477,62	1257,45
477,82	1325,04
478,02	1298,41
478,23	1243,12
478,43	1210,35
478,63	1312,75
478,83	1255,40
479,03	1327,08
479,24	1214,45
479,44	1288,17
479,64	1241,07
479,84	1310,70
480,04	1245,16
480,25	1277,93
480,45	1290,22
480,65	1200,11
480,85	1212,40
481,06	1304,56
481,26	1230,83
481,46	1206,25
481,66	1312,75
481,86	1208,30
482,06	1232,88
482,27	1298,41
482,47	1298,41
482,67	1294,32
482,87	1202,16
483,07	1247,21
483,28	1279,98
483,48	1310,70
483,68	1275,88
483,88	1294,32
484,08	1269,74
484,29	1267,69
484,49	1294,32
484,69	1290,22
484,89	1253,36
485,09	1314,80
485,29	1261,55
485,50	1329,13
485,70	1259,50
485,90	1259,50
486,10	1243,12
486,30	1241,07
486,50	1298,41
486,71	1308,65
486,91	1251,31
487,11	1247,21
487,31	1308,65
487,51	1226,73
487,71	1318,89
487,91	1226,73
488,12	1275,88
488,32	1343,47
488,52	1275,88
488,72	1306,60
488,92	1308,65
489,12	1226,73
489,32	1290,22
489,53	1325,04
489,73	1212,40
489,93	1306,60
490,13	1239,02
490,33	1257,45
490,53	1265,64
490,73	1265,64
490,94	1288,17
491,14	1288,17
491,34	1267,69
491,54	1275,88
491,74	1306,60
491,94	1277,93
492,14	1284,08
492,34	1261,55
492,54	1275,88
492,75	1279,98
492,95	1273,84
493,15	1265,64
493,35	1294,32
493,55	1384,43
493,75	1214,45
493,95	1228,78
494,15	1269,74
494,35	1259,50
494,56	1255,40
494,76	1298,41
494,96	1263,60
495,16	1253,36
495,36	1247,21
495,56	1304,56
495,76	1247,21
495,96	1329,13
496,16	1251,31
496,36	1275,88
496,56	1265,64
496,77	1245,16
496,97	1263,60
497,17	1351,66
497,37	1204,21
497,57	1351,66
497,77	1292,27
497,97	1239,02
498,17	1306,60
498,37	1247,21
498,57	1271,79
498,77	1255,40
498,97	1294,32
499,17	1279,98
499,38	1206,25
499,58	1208,30
499,78	1243,12
499,98	1331,18
500,18	1296,36
500,38	1216,49
500,58	1271,79
500,78	1232,88
500,98	1259,50
501,18	1320,94
501,38	1327,08
501,58	1335,28
501,78	1306,60
501,98	1304,56
502,18	1204,21
502,38	1314,80
502,58	1288,17
502,78	1290,22
502,98	1253,36
503,18	1325,04
503,38	1232,88
503,59	1247,21
503,79	1335,28
503,99	1273,84
504,19	1255,40
504,39	1304,56
504,59	1337,32
504,79	1265,64
504,99	1218,54
505,19	1245,16
505,39	1255,40
505,59	1241,07
505,79	1267,69
505,99	1267,69
506,19	1288,17
506,39	1261,55
506,59	1296,36
506,79	1300,46
506,99	1294,32
507,19	1226,73
507,39	1308,65
507,59	1284,08
507,79	1263,60
507,99	1337,32
508,19	1261,55
508,39	1257,45
508,59	1304,56
508,79	1282,03
508,99	1327,08
509,19	1277,93
509,39	1269,74
509,59	1308,65
509,79	1228,78
509,99	1232,88
510,19	1251,31
510,39	1275,88
510,59	1273,84
510,79	1382,38
510,99	1279,98
511,19	1234,93
511,39	1263,60
511,59	1290,22
511,79	1345,52
511,99	1294,32
512,19	1269,74
512,38	1269,74
512,58	1247,21
512,78	1257,45
512,98	1333,23
513,18	1392,62
513,38	1265,64
513,58	1241,07
513,78	1259,50
513,98	1249,26
514,18	1255,40
514,38	1302,51
514,58	1212,40
514,78	1261,55
514,98	1249,26
515,18	1241,07
515,38	1292,27
515,58	1275,88
515,78	1302,51
515,98	1183,73
516,18	1265,64
516,38	1282,03
516,57	1298,41
516,77	1216,49
516,97	1282,03
517,17	1200,11
517,37	1222,64
517,57	1300,46
517,77	1329,13
517,97	1265,64
518,17	1290,22
518,37	1279,98
518,57	1288,17
518,77	1257,45
518,97	1269,74
519,16	1290,22
519,36	1314,80
519,56	1279,98
519,76	1261,55
519,96	1236,97
520,16	1251,31
520,36	1271,79
520,56	1245,16
520,76	1206,25
520,96	1234,93
521,16	1222,64
521,35	1300,46
521,55	1298,41
521,75	1306,60
521,95	1318,89
522,15	1318,89
522,35	1232,88
522,55	1236,97
522,75	1279,98
522,95	1304,56
523,14	1286,12
523,34	1337,32
523,54	1322,99
523,74	1282,03
523,94	1339,37
524,14	1267,69
524,34	1257,45
524,54	1292,27
524,73	1273,84
524,93	1310,70
525,13	1239,02
525,33	1290,22
525,53	1245,16
525,73	1298,41
525,93	1273,84
526,13	1257,45
526,32	1282,03
526,52	1261,55
526,72	1263,60
526,92	1304,56
527,12	1267,69
527,32	1320,94
527,52	1312,75
527,71	1298,41
527,91	1322,99
528,11	1353,71
528,31	1310,70
528,51	1282,03
528,71	1216,49
528,90	1265,64
529,10	1357,80
529,30	1292,27
529,50	1333,23
529,70	1288,17
529,90	1288,17
530,09	1275,88
530,29	1236,97
530,49	1265,64
530,69	1339,37
530,89	1286,12
531,09	1298,41
531,28	1331,18
531,48	1210,35
531,68	1265,64
531,88	1259,50
532,08	1249,26
532,28	1269,74
532,47	1234,93
532,67	1253,36
532,87	1196,01
533,07	1320,94
533,27	1282,03
533,46	1265,64
533,66	1251,31
533,86	1245,16
534,06	1335,28
534,26	1312,75
534,45	1255,40
534,65	1239,02
534,85	1296,36
535,05	1306,60
535,25	1241,07
535,44	1290,22
535,64	1282,03
535,84	1290,22
536,04	1212,40
536,24	1282,03
536,43	1261,55
536,63	1390,57
536,83	1286,12
537,03	1222,64
537,22	1269,74
537,42	1300,46
537,62	1322,99
537,82	1243,12
538,02	1325,04
538,21	1282,03
538,41	1296,36
538,61	1273,84
538,81	1228,78
539,00	1296,36
539,20	1341,42
539,40	1234,93
539,60	1212,40
539,79	1300,46
539,99	1273,84
540,19	1300,46
540,39	1269,74
540,58	1251,31
540,78	1275,88
540,98	1239,02
541,18	1320,94
541,37	1304,56
541,57	1294,32
541,77	1314,80
541,97	1232,88
542,16	1322,99
542,36	1284,08
542,56	1308,65
542,76	1138,67
542,95	1298,41
543,15	1318,89
543,35	1241,07
543,54	1286,12
543,74	1304,56
543,94	1284,08
544,14	1335,28
544,33	1284,08
544,53	1239,02
544,73	1343,47
544,93	1296,36
545,12	1275,88
545,32	1318,89
545,52	1368,04
545,71	1241,07
545,91	1228,78
546,11	1286,12
546,30	1214,45
546,50	1306,60
546,70	1230,83
546,90	1251,31
547,09	1269,74
547,29	1236,97
547,49	1251,31
547,68	1228,78
547,88	1286,12
548,08	1359,85
548,27	1374,19
548,47	1263,60
548,67	1261,55
548,87	1302,51
549,06	1325,04
549,26	1261,55
549,46	1331,18
549,65	1245,16
549,85	1318,89
550,05	1247,21
550,24	1288,17
550,44	1251,31
550,64	1300,46
550,83	1249,26
551,03	1320,94
551,23	1325,04
551,42	1273,84
551,62	1247,21
551,82	1316,84
552,01	1302,51
552,21	1318,89
552,41	1241,07
552,60	1282,03
552,80	1335,28
553,00	1320,94
553,19	1259,50
553,39	1349,61
553,59	1255,40
553,78	1277,93
553,98	1236,97
554,17	1236,97
554,37	1273,84
554,57	1267,69
554,76	1320,94
554,96	1284,08
555,16	1241,07
555,35	1253,36
555,55	1300,46
555,75	1265,64
555,94	1271,79
556,14	1159,15
556,33	1261,55
556,53	1294,32
556,73	1290,22
556,92	1284,08
557,12	1298,41
557,32	1302,51
557,51	1304,56
557,71	1255,40
557,90	1286,12
558,10	1220,59
558,30	1329,13
558,49	1286,12
558,69	1251,31
558,88	1290,22
559,08	1286,12
559,28	1282,03
559,47	1249,26
559,67	1312,75
559,86	1251,31
560,06	1292,27
560,26	1290,22
560,45	1234,93
560,65	1361,90
560,84	1282,03
561,04	1273,84
561,24	1290,22
561,43	1247,21
561,63	1259,50
561,82	1368,04
562,02	1355,76
562,22	1288,17
562,41	1318,89
562,61	1216,49
562,80	1290,22
563,00	1314,80
563,19	1269,74
563,39	1327,08
563,59	1282,03
563,78	1273,84
563,98	1214,45
564,17	1269,74
564,37	1185,77
564,56	1290,22
564,76	1249,26
564,96	1288,17
565,15	1214,45
565,35	1253,36
565,54	1320,94
565,74	1189,87
565,93	1261,55
566,13	1312,75
566,32	1271,79
566,52	1261,55
566,71	1251,31
566,91	1327,08
567,11	1302,51
567,30	1318,89
567,50	1253,36
567,69	1320,94
567,89	1198,06
568,08	1384,43
568,28	1304,56
568,47	1286,12
568,67	1335,28
568,86	1279,98
569,06	1230,83
569,25	1288,17
569,45	1275,88
569,64	1306,60
569,84	1298,41
570,04	1261,55
570,23	1288,17
570,43	1288,17
570,62	1259,50
570,82	1304,56
571,01	1273,84
571,21	1320,94
571,40	1261,55
571,60	1290,22
571,79	1331,18
571,99	1337,32
572,18	1286,12
572,38	1329,13
572,57	1277,93
572,77	1361,90
572,96	1322,99
573,16	1331,18
573,35	1210,35
573,55	1318,89
573,74	1255,40
573,94	1216,49
574,13	1245,16
574,33	1259,50
574,52	1212,40
574,71	1275,88
574,91	1294,32
575,10	1318,89
575,30	1267,69
575,49	1351,66
575,69	1269,74
575,88	1290,22
576,08	1263,60
576,27	1282,03
576,47	1271,79
576,66	1232,88
576,86	1222,64
577,05	1294,32
577,25	1282,03
577,44	1275,88
577,64	1314,80
577,83	1318,89
578,02	1302,51
578,22	1208,30
578,41	1247,21
578,61	1236,97
578,80	1314,80
579,00	1265,64
579,19	1220,59
579,39	1376,24
579,58	1282,03
579,77	1327,08
579,97	1300,46
580,16	1314,80
580,36	1216,49
580,55	1288,17
580,75	1290,22
580,94	1300,46
581,13	1263,60
581,33	1282,03
581,52	1322,99
581,72	1259,50
581,91	1236,97
582,11	1306,60
582,30	1290,22
582,49	1232,88
582,69	1300,46
582,88	1292,27
583,08	1279,98
583,27	1189,87
583,47	1267,69
583,66	1253,36
583,85	1218,54
584,05	1306,60
584,24	1183,73
584,44	1265,64
584,63	1286,12
584,82	1286,12
585,02	1230,83
585,21	1327,08
585,41	1290,22
585,60	1402,86
585,79	1339,37
585,99	1275,88
586,18	1265,64
586,37	1275,88
586,57	1279,98
586,76	1239,02
586,96	1339,37
587,15	1314,80
587,34	1288,17
587,54	1265,64
587,73	1292,27
587,93	1253,36
588,12	1275,88
588,31	1243,12
588,51	1298,41
588,70	1376,24
588,89	1173,49
589,09	1241,07
589,28	1296,36
589,47	1312,75
589,67	1222,64
589,86	1234,93
590,06	1322,99
590,25	1304,56
590,44	1284,08
590,64	1318,89
590,83	1304,56
591,02	1267,69
591,22	1153,01
591,41	1273,84
591,60	1196,01
591,80	1271,79
591,99	1312,75
592,18	1335,28
592,38	1277,93
592,57	1277,93
592,76	1269,74
592,96	1259,50
593,15	1294,32
593,34	1261,55
593,54	1267,69
593,73	1259,50
593,92	1257,45
594,12	1290,22
594,31	1245,16
594,50	1279,98
594,70	1282,03
594,89	1347,56
595,08	1275,88
595,28	1232,88
595,47	1341,42
595,66	1286,12
595,86	1282,03
596,05	1339,37
596,24	1220,59
596,43	1298,41
596,63	1257,45
596,82	1310,70
597,01	1320,94
597,21	1271,79
597,40	1308,65
597,59	1320,94
597,79	1357,80
597,98	1312,75
598,17	1320,94
598,36	1306,60
598,56	1265,64
598,75	1292,27
598,94	1273,84
599,14	1261,55
599,33	1318,89
599,52	1261,55
599,71	1335,28
599,91	1273,84
600,10	1234,93
600,29	1265,64
600,48	1232,88
600,68	1265,64
600,87	1282,03
601,06	1298,41
601,26	1300,46
601,45	1243,12
601,64	1245,16
601,83	1322,99
602,03	1249,26
602,22	1271,79
602,41	1261,55
602,60	1347,56
602,80	1292,27
602,99	1312,75
603,18	1314,80
603,37	1294,32
603,57	1349,61
603,76	1312,75
603,95	1325,04
604,14	1298,41
604,34	1216,49
604,53	1243,12
604,72	1277,93
604,91	1241,07
605,10	1310,70
605,30	1253,36
605,49	1245,16
605,68	1236,97
605,87	1245,16
606,07	1208,30
606,26	1288,17
606,45	1363,95
606,64	1290,22
606,84	1304,56
607,03	1189,87
607,22	1279,98
607,41	1257,45
607,60	1239,02
607,80	1214,45
607,99	1277,93
608,18	1333,23
608,37	1208,30
608,56	1308,65
608,76	1325,04
608,95	1284,08
609,14	1355,76
609,33	1318,89
609,52	1273,84
609,72	1249,26
609,91	1314,80
610,10	1322,99
610,29	1320,94
610,48	1304,56
610,68	1325,04
610,87	1261,55
611,06	1284,08
611,25	1243,12
611,44	1282,03
611,63	1232,88
611,83	1251,31
612,02	1286,12
612,21	1314,80
612,40	1359,85
612,59	1294,32
612,79	1257,45
612,98	1241,07
613,17	1300,46
613,36	1314,80
613,55	1296,36
613,74	1296,36
613,93	1298,41
614,13	1302,51
614,32	1304,56
614,51	1316,84
614,70	1210,35
614,89	1304,56
615,08	1290,22
615,28	1312,75
615,47	1269,74
615,66	1294,32
615,85	1245,16
616,04	1269,74
616,23	1261,55
616,42	1335,28
616,62	1298,41
616,81	1298,41
617,00	1282,03
617,19	1288,17
617,38	1314,80
617,57	1353,71
617,76	1239,02
617,95	1255,40
618,15	1239,02
618,34	1308,65
618,53	1269,74
618,72	1308,65
618,91	1210,35
619,10	1282,03
619,29	1320,94
619,48	1273,84
619,68	1288,17
619,87	1234,93
620,06	1269,74
620,25	1318,89
620,44	1263,60
620,63	1318,89
620,82	1265,64
621,01	1314,80
621,20	1302,51
621,39	1255,40
621,59	1314,80
621,78	1294,32
621,97	1257,45
622,16	1314,80
622,35	1308,65
622,54	1361,90
622,73	1269,74
622,92	1339,37
623,11	1282,03
623,30	1271,79
623,49	1275,88
623,68	1241,07
623,88	1296,36
624,07	1245,16
624,26	1275,88
624,45	1402,86
624,64	1253,36
624,83	1298,41
625,02	1294,32
625,21	1220,59
625,40	1290,22
625,59	1294,32
625,78	1284,08
625,97	1325,04
626,16	1288,17
626,35	1333,23
626,54	1316,84
626,74	1265,64
626,93	1269,74
627,12	1314,80
627,31	1226,73
627,50	1314,80
627,69	1255,40
627,88	1361,90
628,07	1279,98
628,26	1343,47
628,45	1263,60
628,64	1333,23
628,83	1226,73
629,02	1279,98
629,21	1351,66
629,40	1277,93
629,59	1269,74
629,78	1271,79
629,97	1288,17
630,16	1271,79
630,35	1267,69
630,54	1329,13
630,73	1257,45
630,92	1302,51
631,11	1263,60
631,30	1353,71
631,49	1314,80
631,68	1390,57
631,87	1589,22
632,06	2172,89
632,25	1748,97
632,44	1810,40
632,63	1791,97
632,82	1746,92
633,01	2136,03
633,20	1863,65
633,39	2269,15
633,58	2584,54
633,77	2754,52
633,96	3141,58
634,15	4472,76
634,34	7899,02
634,53	13229,88
634,72	18499,30
634,91	20819,65
635,10	18966,24
635,29	14634,78
635,48	10215,27
635,67	6879,13
635,86	4730,81
636,05	3360,72
636,24	2605,02
636,43	2236,38
636,62	2095,07
636,81	1869,80
637,00	1759,21
637,19	1527,78
637,38	1533,93
637,57	1589,22
637,76	1396,71
637,95	1398,76
638,14	1474,54
638,33	1388,52
638,52	1312,75
638,71	1337,32
638,89	1355,76
639,08	1366,00
639,27	1310,70
639,46	1265,64
639,65	1273,84
639,84	1300,46
640,03	1314,80
640,22	1273,84
640,41	1302,51
640,60	1212,40
640,79	1265,64
640,98	1265,64
641,17	1327,08
641,36	1302,51
641,55	1236,97
641,74	1249,26
641,92	1349,61
642,11	1306,60
642,30	1265,64
642,49	1277,93
642,68	1269,74
642,87	1286,12
643,06	1308,65
643,25	1226,73
643,44	1271,79
643,63	1259,50
643,82	1271,79
644,00	1261,55
644,19	1304,56
644,38	1300,46
644,57	1255,40
644,76	1298,41
644,95	1308,65
645,14	1312,75
645,33	1288,17
645,52	1298,41
645,71	1245,16
645,89	1245,16
646,08	1239,02
646,27	1236,97
646,46	1286,12
646,65	1261,55
646,84	1259,50
647,03	1368,04
647,22	1282,03
647,40	1230,83
647,59	1241,07
647,78	1325,04
647,97	1232,88
648,16	1355,76
648,35	1300,46
648,54	1341,42
648,73	1265,64
648,91	1296,36
649,10	1331,18
649,29	1253,36
649,48	1284,08
649,67	1245,16
649,86	1269,74
650,05	1282,03
650,23	1368,04
650,42	1269,74
650,61	1216,49
650,80	1265,64
650,99	1298,41
651,18	1282,03
651,36	1277,93
651,55	1318,89
651,74	1269,74
651,93	1257,45
652,12	1282,03
652,31	1253,36
652,49	1320,94
652,68	1310,70
652,87	1185,77
653,06	1265,64
653,25	1173,49
653,44	1347,56
653,62	1228,78
653,81	1245,16
654,00	1290,22
654,19	1277,93
654,38	1390,57
654,56	1222,64
654,75	1294,32
654,94	1271,79
655,13	1255,40
655,32	1265,64
655,51	1175,53
655,69	1257,45
655,88	1277,93
656,07	1220,59
656,26	1308,65
656,45	1243,12
656,63	1245,16
656,82	1183,73
657,01	1269,74
657,20	1333,23
657,38	1347,56
657,57	1275,88
657,76	1282,03
657,95	1327,08
658,14	1286,12
658,32	1257,45
658,51	1247,21
658,70	1290,22
658,89	1243,12
659,08	1261,55
659,26	1212,40
659,45	1239,02
659,64	1198,06
659,83	1253,36
660,01	1320,94
660,20	1226,73
660,39	1314,80
660,58	1191,92
660,76	1275,88
660,95	1329,13
661,14	1265,64
661,33	1261,55
661,51	1318,89
661,70	1232,88
661,89	1296,36
662,08	1251,31
662,26	1286,12
662,45	1226,73
662,64	1277,93
662,83	1298,41
663,01	1302,51
663,20	1210,35
663,39	1261,55
663,58	1288,17
663,76	1325,04
663,95	1243,12
664,14	1329,13
664,32	1296,36
664,51	1249,26
664,70	1279,98
664,89	1296,36
665,07	1282,03
665,26	1257,45
665,45	1249,26
665,64	1277,93
665,82	1269,74
666,01	1279,98
666,20	1282,03
666,38	1220,59
666,57	1290,22
666,76	1337,32
666,95	1191,92
667,13	1314,80
667,32	1327,08
667,51	1183,73
667,69	1239,02
667,88	1226,73
668,07	1267,69
668,25	1282,03
668,44	1247,21
668,63	1275,88
668,81	1265,64
669,00	1284,08
669,19	1269,74
669,38	1279,98
669,56	1255,40
669,75	1296,36
669,94	1322,99
670,12	1234,93
670,31	1222,64
670,50	1292,27
670,68	1216,49
670,87	1366,00
671,06	1251,31
671,24	1329,13
671,43	1310,70
671,62	1273,84
671,80	1286,12
671,99	1202,16
672,18	1239,02
672,36	1337,32
672,55	1267,69
672,74	1275,88
672,92	1196,01
673,11	1263,60
673,29	1298,41
673,48	1308,65
673,67	1232,88
673,85	1275,88
674,04	1236,97
674,23	1372,14
674,41	1236,97
674,60	1173,49
674,79	1261,55
674,97	1296,36
675,16	1304,56
675,34	1239,02
675,53	1318,89
675,72	1263,60
675,90	1335,28
676,09	1261,55
676,28	1191,92
676,46	1339,37
676,65	1277,93
676,83	1239,02
677,02	1282,03
677,21	1339,37
677,39	1245,16
677,58	1261,55
677,77	1320,94
677,95	1196,01
678,14	1304,56
678,32	1202,16
678,51	1304,56
678,70	1343,47
678,88	1243,12
679,07	1208,30
679,25	1214,45
679,44	1265,64
679,63	1236,97
679,81	1269,74
680,00	1239,02
680,18	1220,59
680,37	1265,64
680,55	1236,97
680,74	1255,40
680,93	1273,84
681,11	1269,74
681,30	1290,22
681,48	1243,12
681,67	1341,42
681,85	1302,51
682,04	1257,45
682,23	1275,88
682,41	1206,25
682,60	1224,69
682,78	1337,32
682,97	1288,17
683,15	1212,40
683,34	1304,56
683,53	1263,60
683,71	1286,12
683,90	1302,51
684,08	1318,89
684,27	1255,40
684,45	1234,93
684,64	1378,28
684,82	1259,50
685,01	1259,50
685,19	1273,84
685,38	1228,78
685,57	1286,12
685,75	1331,18
685,94	1220,59
686,12	1198,06
686,31	1232,88
686,49	1230,83
686,68	1245,16
686,86	1265,64
687,05	1200,11
687,23	1296,36
687,42	1200,11
687,60	1263,60
687,79	1263,60
687,97	1261,55
688,16	1288,17
688,34	1282,03
688,53	1241,07
688,71	1351,66
688,90	1255,40
689,08	1263,60
689,27	1279,98
689,45	1282,03
689,64	1284,08
689,82	1275,88
690,01	1265,64
690,19	1167,34
690,38	1198,06
690,56	1298,41
690,75	1234,93
690,93	1353,71
691,12	1286,12
691,30	1255,40
691,49	1269,74
691,67	1277,93
691,86	1314,80
692,04	1226,73
692,23	1230,83
692,41	1294,32
692,60	1257,45
692,78	1316,84
692,97	1269,74
693,15	1302,51
693,34	1249,26
693,52	1236,97
693,71	1341,42
693,89	1269,74
694,08	1304,56
694,26	1239,02
694,44	1241,07
694,63	1214,45
694,81	1251,31
695,00	1347,56
695,18	1331,18
695,37	1239,02
695,55	1300,46
695,74	1232,88
695,92	1232,88
696,10	1277,93
696,29	1257,45
696,47	1288,17
696,66	1275,88
696,84	1255,40
697,03	1193,97
697,21	1269,74
697,40	1325,04
697,58	1320,94
697,76	1298,41
697,95	1279,98
698,13	1306,60
698,32	1318,89
698,50	1318,89
698,68	1224,69
698,87	1277,93
699,05	1394,67
699,24	1277,93
699,42	1243,12
699,61	1273,84
699,79	1208,30
699,97	1282,03
700,16	1232,88
700,34	1220,59
700,53	1263,60
700,71	1232,88
700,89	1265,64
701,08	1286,12
701,26	1255,40
701,45	1296,36
701,63	1226,73
701,81	1234,93
702,00	1247,21
702,18	1208,30
702,37	1308,65
702,55	1302,51
702,73	1216,49
702,92	1322,99
703,10	1296,36
703,28	1245,16
703,47	1306,60
703,65	1212,40
703,84	1294,32
704,02	1251,31
704,20	1292,27
704,39	1261,55
704,57	1247,21
704,75	1243,12
704,94	1255,40
705,12	1241,07
705,30	1214,45
705,49	1271,79
705,67	1298,41
705,86	1204,21
706,04	1249,26
706,22	1251,31
706,41	1230,83
706,59	1308,65
706,77	1298,41
706,96	1304,56
707,14	1318,89
707,32	1290,22
707,51	1343,47
707,69	1222,64
707,87	1263,60
708,06	1341,42
708,24	1331,18
708,42	1290,22
708,61	1325,04
708,79	1234,93
708,97	1298,41
709,16	1253,36
709,34	1249,26
709,52	1271,79
709,71	1282,03
709,89	1271,79
710,07	1273,84
710,26	1218,54
710,44	1249,26
710,62	1130,48
710,80	1320,94
710,99	1312,75
711,17	1241,07
711,35	1234,93
711,54	1290,22
711,72	1294,32
711,90	1232,88
712,09	1290,22
712,27	1224,69
712,45	1210,35
712,63	1257,45
712,82	1282,03
713,00	1312,75
713,18	1314,80
713,37	1259,50
713,55	1241,07
713,73	1257,45
713,91	1284,08
714,10	1261,55
714,28	1329,13
714,46	1308,65
714,65	1191,92
714,83	1255,40
715,01	1298,41
715,19	1220,59
715,38	1245,16
715,56	1243,12
715,74	1353,71
715,92	1343,47
716,11	1308,65
716,29	1216,49
716,47	1302,51
716,65	1232,88
716,84	1265,64
717,02	1304,56
717,20	1322,99
717,38	1267,69
717,57	1300,46
717,75	1253,36
717,93	1232,88
718,11	1239,02
718,30	1265,64
718,48	1273,84
718,66	1212,40
718,84	1247,21
719,03	1255,40
719,21	1302,51
719,39	1290,22
719,57	1306,60
719,75	1251,31
719,94	1267,69
720,12	1261,55
720,30	1286,12
720,48	1247,21
720,67	1298,41
720,85	1241,07
721,03	1322,99
721,21	1241,07
721,39	1236,97
721,58	1302,51
721,76	1193,97
721,94	1236,97
722,12	1232,88
722,30	1288,17
722,49	1189,87
722,67	1243,12
722,85	1243,12
723,03	1277,93
723,21	1220,59
723,40	1359,85
723,58	1286,12
723,76	1265,64
723,94	1286,12
724,12	1261,55
724,30	1339,37
724,49	1267,69
724,67	1228,78
724,85	1368,04
725,03	1288,17
725,21	1275,88
725,40	1183,73
725,58	1279,98
725,76	1267,69
725,94	1267,69
726,12	1263,60
726,30	1263,60
726,49	1269,74
726,67	1314,80
726,85	1282,03
727,03	1359,85
727,21	1288,17
727,39	1236,97
727,57	1196,01
727,76	1267,69
727,94	1208,30
728,12	1204,21
728,30	1300,46
728,48	1253,36
728,66	1200,11
728,84	1187,82
729,03	1159,15
729,21	1239,02
729,39	1286,12
729,57	1247,21
729,75	1279,98
729,93	1318,89
730,11	1265,64
730,30	1255,40
730,48	1261,55
730,66	1320,94
730,84	1277,93
731,02	1245,16
731,20	1339,37
731,38	1271,79
731,56	1318,89
731,74	1267,69
731,93	1267,69
732,11	1279,98
732,29	1312,75
732,47	1273,84
732,65	1298,41
732,83	1279,98
733,01	1273,84
733,19	1204,21
733,37	1304,56
733,56	1253,36
733,74	1294,32
733,92	1245,16
734,10	1228,78
734,28	1279,98
734,46	1249,26
734,64	1257,45
734,82	1292,27
735,00	1236,97
735,18	1220,59
735,36	1294,32
735,54	1245,16
735,73	1286,12
735,91	1193,97
736,09	1232,88
736,27	1263,60
736,45	1296,36
736,63	1298,41
736,81	1314,80
736,99	1269,74
737,17	1288,17
737,35	1318,89
737,53	1163,25
737,71	1263,60
737,89	1236,97
738,07	1241,07
738,25	1284,08
738,43	1298,41
738,61	1277,93
738,80	1267,69
738,98	1263,60
739,16	1232,88
739,34	1294,32
739,52	1282,03
739,70	1230,83
739,88	1306,60
740,06	1263,60
740,24	1347,56
740,42	1267,69
740,60	1275,88
740,78	1226,73
740,96	1271,79
741,14	1251,31
741,32	1366,00
741,50	1220,59
741,68	1298,41
741,86	1275,88
742,04	1288,17
742,22	1224,69
742,40	1271,79
742,58	1230,83
742,76	1228,78
742,94	1290,22
743,12	1351,66
743,30	1232,88
743,48	1224,69
743,66	1257,45
743,84	1282,03
744,02	1273,84
744,20	1228,78
744,38	1241,07
744,56	1249,26
744,74	1279,98
744,92	1191,92
745,10	1341,42
745,28	1329,13
745,46	1298,41
745,64	1277,93
745,82	1220,59
746,00	1212,40
746,18	1341,42
746,36	1288,17
746,54	1288,17
746,72	1198,06
746,90	1271,79
747,08	1226,73
747,26	1331,18
747,44	1261,55
747,62	1302,51
747,80	1271,79
747,98	1243,12
748,15	1282,03
748,33	1312,75
748,51	1273,84
748,69	1263,60
748,87	1243,12
749,05	1245,16
749,23	1329,13
749,41	1271,79
749,59	1255,40
749,77	1294,32
749,95	1243,12
750,13	1234,93
750,31	1243,12
750,49	1249,26
750,67	1234,93
750,85	1267,69
751,03	1232,88
751,20	1273,84
751,38	1320,94
751,56	1253,36
751,74	1263,60
751,92	1183,73
752,10	1320,94
752,28	1296,36
752,46	1212,40
752,64	1359,85
752,82	1282,03
753,00	1187,82
753,18	1247,21
753,35	1275,88
753,53	1267,69
753,71	1339,37
753,89	1273,84
754,07	1282,03
754,25	1282,03
754,43	1230,83
754,61	1288,17
754,79	1296,36
754,97	1349,61
755,14	1257,45
755,32	1277,93
755,50	1265,64
755,68	1298,41
755,86	1198,06
756,04	1259,50
756,22	1286,12
756,40	1265,64
756,57	1210,35
756,75	1212,40
756,93	1306,60
757,11	1263,60
757,29	1304,56
757,47	1288,17
757,65	1314,80
757,82	1232,88
758,00	1249,26
758,18	1239,02
758,36	1239,02
758,54	1255,40
758,72	1236,97
758,90	1257,45
759,07	1269,74
759,25	1267,69
759,43	1265,64
759,61	1259,50
759,79	1282,03
759,97	1298,41
760,15	1234,93
760,32	1400,81
760,50	1368,04
760,68	1277,93
760,86	1290,22
761,04	1257,45
761,22	1267,69
761,39	1279,98
761,57	1284,08
761,75	1236,97
761,93	1236,97
762,11	1327,08
762,28	1255,40
762,46	1239,02
762,64	1290,22
762,82	1239,02
763,00	1245,16
763,18	1306,60
763,35	1187,82
763,53	1290,22
763,71	1267,69
763,89	1236,97
764,07	1282,03
764,24	1308,65
764,42	1298,41
764,60	1265,64
764,78	1214,45
764,96	1265,64
765,13	1230,83
765,31	1249,26
765,49	1282,03
765,67	1243,12
765,84	1320,94
766,02	1288,17
766,20	1314,80
766,38	1312,75
766,56	1259,50
766,73	1247,21
766,91	1257,45
767,09	1220,59
767,27	1218,54
767,44	1267,69
767,62	1265,64
767,80	1271,79
767,98	1296,36
768,15	1275,88
768,33	1241,07
768,51	1292,27
768,69	1265,64
768,87	1269,74
769,04	1210,35
769,22	1273,84
769,40	1259,50
769,58	1265,64
769,75	1220,59
769,93	1236,97
770,11	1263,60
770,28	1290,22
770,46	1224,69
770,64	1241,07
770,82	1253,36
770,99	1275,88
771,17	1239,02
771,35	1325,04
771,53	1230,83
771,70	1249,26
771,88	1224,69
772,06	1325,04
772,23	1214,45
772,41	1286,12
772,59	1245,16
772,77	1322,99
772,94	1318,89
773,12	1333,23
773,30	1288,17
773,47	1277,93
773,65	1271,79
773,83	1279,98
774,01	1243,12
774,18	1294,32
774,36	1239,02
774,54	1241,07
774,71	1234,93
774,89	1220,59
775,07	1210,35
775,24	1185,77
775,42	1222,64
775,60	1249,26
775,78	1310,70
775,95	1267,69
776,13	1232,88
776,31	1239,02
776,48	1318,89
776,66	1271,79
776,84	1284,08
777,01	1269,74
777,19	1386,47
777,37	1286,12
777,54	1300,46
777,72	1251,31
777,90	1259,50
778,07	1181,68
778,25	1316,84
778,43	1325,04
778,60	1206,25
778,78	1310,70
778,96	1273,84
779,13	1255,40
779,31	1341,42
779,49	1267,69
779,66	1300,46
779,84	1279,98
780,01	1310,70
780,19	1288,17
780,37	1286,12
780,54	1306,60
780,72	1290,22
780,90	1224,69
781,07	1220,59
781,25	1300,46
781,43	1259,50
781,60	1263,60
781,78	1308,65
781,95	1292,27
782,13	1306,60
782,31	1234,93
782,48	1245,16
782,66	1232,88
782,83	1247,21
783,01	1198,06
783,19	1185,77
783,36	1277,93
783,54	1183,73
783,72	1286,12
783,89	1241,07
784,07	1290,22
784,24	1245,16
784,42	1306,60
784,60	1286,12
784,77	1253,36
784,95	1241,07
785,12	1249,26
785,30	1298,41
785,47	1310,70
785,65	1251,31
785,83	1380,33
786,00	1243,12
786,18	1302,51
786,35	1200,11
786,53	1265,64
786,71	1255,40
786,88	1290,22
787,06	1241,07
787,23	1234,93
787,41	1247,21
787,58	1212,40
787,76	1269,74
787,94	1277,93
788,11	1247,21
788,29	1310,70
788,46	1224,69
788,64	1263,60
788,81	1245,16
788,99	1286,12
789,16	1236,97
789,34	1288,17
789,52	1273,84
789,69	1239,02
789,87	1294,32
790,04	1294,32
790,22	1300,46
790,39	1255,40
790,57	1241,07
790,74	1222,64
790,92	1249,26
791,09	1216,49
791,27	1316,84
791,44	1288,17
791,62	1191,92
791,79	1206,25
791,97	1259,50
792,15	1247,21
792,32	1239,02
792,50	1228,78
792,67	1212,40
792,85	1304,56
793,02	1220,59
793,20	1331,18
793,37	1271,79
793,55	1308,65
793,72	1257,45
793,90	1265,64
794,07	1302,51
794,25	1216,49
794,42	1212,40
794,60	1273,84
794,77	1292,27
794,95	1232,88
795,12	1136,62
795,30	1290,22
795,47	1214,45
795,65	1290,22
795,82	1316,84
796,00	1292,27
796,17	1232,88
796,34	1302,51
796,52	1265,64
796,69	1243,12
796,87	1243,12
797,04	1304,56
797,22	1259,50
797,39	1316,84
797,57	1243,12
797,74	1259,50
797,92	1245,16
798,09	1239,02
798,27	1306,60
798,44	1253,36
798,62	1292,27
798,79	1214,45
798,96	1333,23
799,14	1279,98
799,31	1294,32
799,49	1243,12
799,66	1265,64
799,84	1263,60
800,01	1181,68
800,19	1245,16
800,36	1302,51
800,53	1286,12
800,71	1427,43
800,88	1304,56
801,06	1290,22
801,23	1282,03
801,41	1212,40
801,58	1265,64
801,75	1284,08
801,93	1259,50
802,10	1239,02
802,28	1302,51
802,45	1216,49
802,63	1286,12
802,80	1249,26
802,97	1282,03
803,15	1277,93
803,32	1216,49
803,50	1245,16
803,67	1226,73
803,84	1275,88
804,02	1218,54
804,19	1230,83
804,37	1257,45
804,54	1222,64
804,71	1329,13
804,89	1288,17
805,06	1267,69
805,24	1193,97
805,41	1322,99
805,58	1234,93
805,76	1277,93
805,93	1288,17
806,10	1247,21
806,28	1292,27
806,45	1275,88
806,63	1259,50
806,80	1249,26
806,97	1202,16
807,15	1282,03
807,32	1259,50
807,49	1208,30
807,67	1279,98
807,84	1232,88
808,01	1314,80
808,19	1318,89
808,36	1261,55
808,54	1300,46
808,71	1196,01
808,88	1282,03
809,06	1269,74
809,23	1191,92
809,40	1232,88
809,58	1261,55
809,75	1251,31
809,92	1179,63
810,10	1300,46
810,27	1304,56
810,44	1349,61
810,62	1261,55
810,79	1286,12
810,96	1253,36
811,14	1239,02
811,31	1259,50
811,48	1234,93
811,66	1263,60
811,83	1318,89
812,00	1273,84
812,18	1189,87
812,35	1232,88
812,52	1267,69
812,69	1241,07
812,87	1269,74
813,04	1212,40
813,21	1214,45
813,39	1200,11
813,56	1206,25
813,73	1320,94
813,91	1222,64
814,08	1290,22
814,25	1206,25
814,42	1222,64
814,60	1234,93
814,77	1255,40
814,94	1337,32
815,12	1255,40
815,29	1300,46
815,46	1327,08
815,63	1273,84
815,81	1234,93
815,98	1255,40
816,15	1265,64
816,33	1249,26
816,50	1198,06
816,67	1314,80
816,84	1298,41
817,02	1255,40
817,19	1259,50
817,36	1220,59
817,53	1241,07
817,71	1296,36
817,88	1288,17
818,05	1241,07
818,22	1189,87
818,40	1318,89
818,57	1249,26
818,74	1312,75
818,91	1247,21
819,09	1322,99
819,26	1247,21
819,43	1275,88
819,60	1234,93
819,78	1210,35
819,95	1284,08
820,12	1308,65
820,29	1292,27
820,47	1249,26
820,64	1277,93
820,81	1243,12
820,98	1232,88
821,15	1271,79
821,33	1372,14
821,50	1284,08
821,67	1247,21
821,84	1279,98
822,02	1288,17
822,19	1226,73
822,36	1263,60
822,53	1208,30
822,70	1372,14
822,88	1316,84
823,05	1271,79
823,22	1275,88
823,39	1314,80
823,56	1234,93
823,74	1189,87
823,91	1230,83
824,08	1288,17
824,25	1179,63
824,42	1273,84
824,60	1234,93
824,77	1232,88
824,94	1243,12
825,11	1308,65
825,28	1261,55
825,45	1241,07
825,63	1236,97
825,80	1269,74
825,97	1269,74
826,14	1304,56
826,31	1200,11
826,48	1271,79
826,66	1153,01
826,83	1241,07
827,00	1212,40
827,17	1255,40
827,34	1282,03
827,51	1243,12
827,69	1282,03
827,86	1279,98
828,03	1251,31
828,20	1296,36
828,37	1228,78
828,54	1286,12
828,71	1216,49
828,89	1247,21
829,06	1236,97
829,23	1296,36
829,40	1226,73
829,57	1300,46
829,74	1325,04
829,91	1294,32
830,09	1314,80
830,26	1282,03
830,43	1310,70
830,60	1271,79
830,77	1220,59
830,94	1226,73
831,11	1333,23
831,28	1277,93
831,46	1255,40
831,63	1255,40
831,80	1216,49
831,97	1308,65
832,14	1361,90
832,31	1230,83
832,48	1286,12
832,65	1273,84
832,82	1312,75
832,99	1208,30
833,17	1271,79
833,34	1241,07
833,51	1222,64
833,68	1263,60
833,85	1218,54
834,02	1306,60
834,19	1161,20
834,36	1273,84
834,53	1275,88
834,70	1296,36
834,87	1234,93
835,04	1230,83
835,22	1271,79
835,39	1269,74
835,56	1282,03
835,73	1234,93
835,90	1349,61
836,07	1273,84
836,24	1277,93
836,41	1232,88
836,58	1300,46
836,75	1241,07
836,92	1210,35
837,09	1261,55
837,26	1312,75
837,43	1247,21
837,60	1282,03
837,77	1204,21
837,94	1273,84
838,12	1339,37
838,29	1316,84
838,46	1263,60
838,63	1259,50
838,80	1273,84
838,97	1273,84
839,14	1214,45
839,31	1320,94
839,48	1279,98
839,65	1208,30
839,82	1269,74
839,99	1302,51
840,16	1298,41
840,33	1222,64
840,50	1216,49
840,67	1288,17
840,84	1345,52
841,01	1198,06
841,18	1290,22
841,35	1243,12
841,52	1306,60
841,69	1320,94
841,86	1239,02
842,03	1155,05
842,20	1286,12
842,37	1275,88
842,54	1257,45
842,71	1263,60
842,88	1282,03
843,05	1304,56
843,22	1263,60
843,39	1267,69
843,56	1239,02
843,73	1279,98
843,90	1271,79
844,07	1224,69
844,24	1249,26
844,41	1249,26
844,58	1255,40
844,75	1327,08
844,92	1208,30
845,09	1302,51
845,26	1277,93
845,43	1218,54
845,60	1236,97
845,77	1333,23
845,94	1232,88
846,10	1253,36
846,27	1269,74
846,44	1277,93
846,61	1329,13
846,78	1351,66
846,95	1218,54
847,12	1304,56
847,29	1251,31
847,46	1249,26
847,63	1245,16
847,80	1267,69
847,97	1263,60
848,14	1232,88
848,31	1218,54
848,48	1226,73
848,65	1314,80
848,82	1226,73
848,98	1290,22
849,15	1214,45
849,32	1241,07
849,49	1198,06
849,66	1322,99
849,83	1314,80
850,00	1312,75
850,17	1257,45
850,34	1198,06
850,51	1226,73
850,68	1300,46
850,85	1239,02
851,01	1282,03
851,18	1253,36
851,35	1277,93
851,52	1279,98
851,69	1245,16
851,86	1200,11
852,03	1320,94
852,20	1265,64
852,37	1226,73
852,53	1253,36
852,70	1249,26
852,87	1304,56
853,04	1271,79
853,21	1226,73
853,38	1310,70
853,55	1286,12
853,72	1271,79
853,89	1298,41
854,05	1236,97
854,22	1249,26
854,39	1300,46
854,56	1216,49
854,73	1267,69
854,90	1253,36
855,07	1277,93
855,23	1255,40
855,40	1173,49
855,57	1255,40
855,74	1255,40
855,91	1271,79
856,08	1232,88
856,25	1288,17
856,41	1255,40
856,58	1253,36
856,75	1247,21
856,92	1243,12
857,09	1339,37
857,26	1200,11
857,42	1267,69
857,59	1259,50
857,76	1255,40
857,93	1167,34
858,10	1288,17
858,27	1351,66
858,43	1288,17
858,60	1196,01
858,77	1271,79
858,94	1185,77
859,11	1255,40
859,27	1241,07
859,44	1263,60
859,61	1239,02
859,78	1279,98
859,95	1239,02
860,12	1279,98
860,28	1298,41
860,45	1294,32
860,62	1261,55
860,79	1200,11
860,95	1275,88
861,12	1282,03
861,29	1257,45
861,46	1273,84
861,63	1253,36
861,79	1236,97
861,96	1239,02
862,13	1298,41
862,30	1269,74
862,47	1234,93
862,63	1275,88
862,80	1306,60
862,97	1245,16
863,14	1265,64
863,30	1339,37
863,47	1261,55
863,64	1290,22
863,81	1239,02
863,97	1198,06
864,14	1245,16
864,31	1257,45
864,48	1218,54
864,65	1316,84
864,81	1292,27
864,98	1296,36
865,15	1253,36
865,32	1243,12
865,48	1261,55
865,65	1320,94
865,82	1298,41
865,98	1216,49
866,15	1333,23
866,32	1396,71
866,49	1261,55
866,65	1202,16
866,82	1263,60
866,99	1230,83
867,16	1302,51
867,32	1304,56
867,49	1222,64
867,66	1286,12
867,83	1277,93
867,99	1345,52
868,16	1310,70
868,33	1200,11
868,49	1304,56
868,66	1163,25
868,83	1253,36
868,99	1247,21
869,16	1302,51
869,33	1273,84
869,50	1271,79
869,66	1286,12
869,83	1239,02
870,00	1304,56
870,16	1230,83
870,33	1298,41
870,50	1230,83
870,66	1296,36
870,83	1273,84
871,00	1304,56
871,17	1271,79
871,33	1257,45
871,50	1259,50
871,67	1263,60
871,83	1316,84
872,00	1347,56
872,17	1314,80
872,33	1249,26
872,50	1257,45
872,67	1236,97
872,83	1282,03
873,00	1259,50
873,17	1263,60
873,33	1261,55
873,50	1239,02
873,67	1220,59
873,83	1302,51
874,00	1249,26
874,16	1298,41
874,33	1298,41
874,50	1247,21
874,66	1322,99
874,83	1249,26
875,00	1247,21
875,16	1259,50
875,33	1279,98
875,50	1306,60
875,66	1257,45
875,83	1230,83
875,99	1347,56
876,16	1298,41
876,33	1263,60
876,49	1241,07
876,66	1322,99
876,83	1216,49
876,99	1216,49
877,16	1327,08
877,32	1257,45
877,49	1265,64
877,66	1232,88
877,82	1202,16
877,99	1243,12
878,15	1322,99
878,32	1298,41
878,49	1331,18
878,65	1271,79
878,82	1273,84
878,98	1239,02
879,15	1282,03
879,32	1308,65
879,48	1269,74
879,65	1273,84
879,81	1259,50
879,98	1230,83
880,15	1243,12
880,31	1349,61
880,48	1286,12
880,64	1329,13
880,81	1275,88
880,97	1282,03
881,14	1247,21
881,31	1325,04
881,47	1267,69
881,64	1269,74
881,80	1222,64
881,97	1292,27
882,13	1314,80
882,30	1236,97
882,47	1294,32
882,63	1290,22
882,80	1269,74
882,96	1265,64
883,13	1249,26
883,29	1277,93
883,46	1236,97
883,62	1241,07
883,79	1284,08
883,95	1249,26
884,12	1183,73
884,29	1318,89
884,45	1300,46
884,62	1236,97
884,78	1263,60
884,95	1282,03
885,11	1298,41
885,28	1284,08
885,44	1239,02
885,61	1179,63
885,77	1337,32
885,94	1302,51
886,10	1249,26
886,27	1290,22
886,43	1245,16
886,60	1337,32
886,76	1263,60
886,93	1265,64
887,09	1230,83
887,26	1208,30
887,42	1255,40
887,59	1300,46
887,75	1302,51
887,92	1204,21
888,08	1312,75
888,25	1253,36
888,41	1277,93
888,58	1269,74
888,74	1245,16
888,91	1230,83
>>>>>End Processed Spectral Data<<<<<
