SpectraSuite Data File
++++++++++++++++++++++++++++++++++++
Date: Sun Apr 03 19:55:36 CEST 2016
User: root
Dark Spectrum Present: No
Reference Spectrum Present: No
Number of Sampled Component Spectra: 1
Spectrometers: USB4C02835
Integration Time (usec): 10000 (USB4C02835)
Spectra Averaged: 1 (USB4C02835)
Boxcar Smoothing: 0 (USB4C02835)
Correct for Electrical Dark: No (USB4C02835)
Strobe/Lamp Enabled: No (USB4C02835)
Correct for Detector Non-linearity: No (USB4C02835)
Correct for Stray Light: No (USB4C02835)
Number of Pixels in Processed Spectrum: 3648
>>>>>Begin Processed Spectral Data<<<<<
177,47	1232,88
177,69	1232,88
177,91	1232,88
178,13	1222,64
178,36	1232,88
178,58	1243,12
178,80	1282,03
179,02	1271,79
179,24	1339,37
179,46	1288,17
179,68	1296,36
179,90	1257,45
180,13	1239,02
180,35	1228,78
180,57	1200,11
180,79	1263,60
181,01	1218,54
181,23	1273,84
181,45	1310,70
181,67	1314,80
181,90	1159,15
182,12	1257,45
182,34	1236,97
182,56	1286,12
182,78	1271,79
183,00	1222,64
183,22	1298,41
183,44	1241,07
183,66	1306,60
183,89	1279,98
184,11	1271,79
184,33	1175,53
184,55	1257,45
184,77	1275,88
184,99	1265,64
185,21	1288,17
185,43	1298,41
185,65	1224,69
185,87	1245,16
186,10	1290,22
186,32	1257,45
186,54	1198,06
186,76	1259,50
186,98	1269,74
187,20	1335,28
187,42	1200,11
187,64	1257,45
187,86	1255,40
188,08	1304,56
188,30	1302,51
188,52	1308,65
188,75	1284,08
188,97	1300,46
189,19	1253,36
189,41	1325,04
189,63	1230,83
189,85	1245,16
190,07	1243,12
190,29	1247,21
190,51	1279,98
190,73	1325,04
190,95	1269,74
191,17	1204,21
191,39	1249,26
191,61	1230,83
191,84	1263,60
192,06	1236,97
192,28	1296,36
192,50	1329,13
192,72	1253,36
192,94	1228,78
193,16	1286,12
193,38	1290,22
193,60	1234,93
193,82	1261,55
194,04	1290,22
194,26	1290,22
194,48	1253,36
194,70	1232,88
194,92	1245,16
195,14	1263,60
195,36	1257,45
195,58	1284,08
195,80	1228,78
196,02	1288,17
196,24	1239,02
196,46	1275,88
196,69	1236,97
196,91	1339,37
197,13	1202,16
197,35	1257,45
197,57	1351,66
197,79	1286,12
198,01	1204,21
198,23	1282,03
198,45	1265,64
198,67	1286,12
198,89	1206,25
199,11	1232,88
199,33	1224,69
199,55	1253,36
199,77	1253,36
199,99	1318,89
200,21	1263,60
200,43	1306,60
200,65	1286,12
200,87	1322,99
201,09	1247,21
201,31	1300,46
201,53	1333,23
201,75	1320,94
201,97	1275,88
202,19	1296,36
202,41	1239,02
202,63	1288,17
202,85	1259,50
203,07	1292,27
203,29	1245,16
203,51	1282,03
203,73	1269,74
203,95	1224,69
204,17	1263,60
204,39	1239,02
204,61	1282,03
204,83	1222,64
205,05	1273,84
205,27	1257,45
205,49	1245,16
205,71	1286,12
205,93	1294,32
206,15	1239,02
206,37	1173,49
206,59	1261,55
206,81	1290,22
207,03	1255,40
207,25	1271,79
207,47	1288,17
207,69	1234,93
207,91	1302,51
208,13	1247,21
208,34	1269,74
208,56	1318,89
208,78	1316,84
209,00	1271,79
209,22	1259,50
209,44	1267,69
209,66	1288,17
209,88	1279,98
210,10	1198,06
210,32	1269,74
210,54	1282,03
210,76	1271,79
210,98	1277,93
211,20	1208,30
211,42	1277,93
211,64	1290,22
211,86	1253,36
212,08	1249,26
212,30	1239,02
212,52	1288,17
212,74	1253,36
212,96	1288,17
213,17	1337,32
213,39	1290,22
213,61	1322,99
213,83	1320,94
214,05	1353,71
214,27	1257,45
214,49	1306,60
214,71	1284,08
214,93	1302,51
215,15	1273,84
215,37	1302,51
215,59	1302,51
215,81	1304,56
216,03	1357,80
216,24	1218,54
216,46	1271,79
216,68	1329,13
216,90	1273,84
217,12	1300,46
217,34	1288,17
217,56	1329,13
217,78	1310,70
218,00	1304,56
218,22	1279,98
218,44	1241,07
218,66	1200,11
218,87	1286,12
219,09	1271,79
219,31	1212,40
219,53	1308,65
219,75	1239,02
219,97	1279,98
220,19	1286,12
220,41	1218,54
220,63	1255,40
220,85	1273,84
221,06	1257,45
221,28	1257,45
221,50	1300,46
221,72	1265,64
221,94	1300,46
222,16	1284,08
222,38	1243,12
222,60	1251,31
222,82	1196,01
223,03	1267,69
223,25	1232,88
223,47	1257,45
223,69	1300,46
223,91	1220,59
224,13	1292,27
224,35	1279,98
224,57	1314,80
224,78	1253,36
225,00	1230,83
225,22	1261,55
225,44	1251,31
225,66	1273,84
225,88	1329,13
226,10	1275,88
226,32	1259,50
226,53	1261,55
226,75	1255,40
226,97	1257,45
227,19	1247,21
227,41	1282,03
227,63	1267,69
227,85	1263,60
228,06	1214,45
228,28	1294,32
228,50	1304,56
228,72	1292,27
228,94	1337,32
229,16	1320,94
229,37	1198,06
229,59	1263,60
229,81	1255,40
230,03	1269,74
230,25	1228,78
230,47	1308,65
230,69	1290,22
230,90	1277,93
231,12	1243,12
231,34	1316,84
231,56	1290,22
231,78	1243,12
232,00	1224,69
232,21	1216,49
232,43	1257,45
232,65	1200,11
232,87	1216,49
233,09	1257,45
233,30	1257,45
233,52	1312,75
233,74	1302,51
233,96	1308,65
234,18	1368,04
234,40	1220,59
234,61	1296,36
234,83	1236,97
235,05	1275,88
235,27	1269,74
235,49	1282,03
235,70	1318,89
235,92	1249,26
236,14	1265,64
236,36	1359,85
236,58	1290,22
236,79	1300,46
237,01	1298,41
237,23	1243,12
237,45	1261,55
237,67	1304,56
237,88	1214,45
238,10	1288,17
238,32	1279,98
238,54	1216,49
238,76	1275,88
238,97	1249,26
239,19	1302,51
239,41	1265,64
239,63	1269,74
239,85	1304,56
240,06	1306,60
240,28	1331,18
240,50	1251,31
240,72	1216,49
240,93	1200,11
241,15	1288,17
241,37	1222,64
241,59	1208,30
241,81	1282,03
242,02	1312,75
242,24	1259,50
242,46	1230,83
242,68	1286,12
242,89	1228,78
243,11	1177,58
243,33	1132,53
243,55	1290,22
243,76	1359,85
243,98	1243,12
244,20	1269,74
244,42	1216,49
244,64	1222,64
244,85	1255,40
245,07	1312,75
245,29	1263,60
245,51	1259,50
245,72	1345,52
245,94	1327,08
246,16	1325,04
246,38	1259,50
246,59	1259,50
246,81	1214,45
247,03	1286,12
247,24	1282,03
247,46	1230,83
247,68	1277,93
247,90	1216,49
248,11	1247,21
248,33	1286,12
248,55	1310,70
248,77	1243,12
248,98	1259,50
249,20	1265,64
249,42	1224,69
249,64	1226,73
249,85	1226,73
250,07	1216,49
250,29	1173,49
250,50	1353,71
250,72	1241,07
250,94	1288,17
251,16	1298,41
251,37	1200,11
251,59	1300,46
251,81	1228,78
252,02	1306,60
252,24	1234,93
252,46	1243,12
252,68	1239,02
252,89	1261,55
253,11	1308,65
253,33	1267,69
253,54	1308,65
253,76	1277,93
253,98	1286,12
254,20	1241,07
254,41	1273,84
254,63	1298,41
254,85	1277,93
255,06	1220,59
255,28	1267,69
255,50	1279,98
255,71	1267,69
255,93	1300,46
256,15	1212,40
256,36	1245,16
256,58	1220,59
256,80	1325,04
257,02	1249,26
257,23	1275,88
257,45	1204,21
257,67	1277,93
257,88	1226,73
258,10	1236,97
258,32	1249,26
258,53	1249,26
258,75	1312,75
258,97	1284,08
259,18	1290,22
259,40	1284,08
259,62	1312,75
259,83	1351,66
260,05	1261,55
260,27	1210,35
260,48	1232,88
260,70	1296,36
260,92	1249,26
261,13	1236,97
261,35	1304,56
261,57	1282,03
261,78	1288,17
262,00	1290,22
262,22	1314,80
262,43	1282,03
262,65	1318,89
262,86	1234,93
263,08	1294,32
263,30	1193,97
263,51	1247,21
263,73	1255,40
263,95	1255,40
264,16	1200,11
264,38	1265,64
264,60	1234,93
264,81	1243,12
265,03	1236,97
265,25	1259,50
265,46	1339,37
265,68	1236,97
265,89	1304,56
266,11	1290,22
266,33	1269,74
266,54	1304,56
266,76	1236,97
266,98	1210,35
267,19	1286,12
267,41	1261,55
267,62	1198,06
267,84	1282,03
268,06	1300,46
268,27	1290,22
268,49	1249,26
268,70	1271,79
268,92	1294,32
269,14	1263,60
269,35	1259,50
269,57	1267,69
269,79	1325,04
270,00	1267,69
270,22	1308,65
270,43	1224,69
270,65	1302,51
270,87	1290,22
271,08	1267,69
271,30	1273,84
271,51	1273,84
271,73	1275,88
271,95	1277,93
272,16	1329,13
272,38	1193,97
272,59	1284,08
272,81	1277,93
273,02	1228,78
273,24	1308,65
273,46	1296,36
273,67	1282,03
273,89	1198,06
274,10	1282,03
274,32	1210,35
274,54	1282,03
274,75	1292,27
274,97	1286,12
275,18	1314,80
275,40	1265,64
275,61	1222,64
275,83	1214,45
276,05	1288,17
276,26	1249,26
276,48	1259,50
276,69	1232,88
276,91	1259,50
277,12	1241,07
277,34	1277,93
277,55	1249,26
277,77	1261,55
277,99	1329,13
278,20	1236,97
278,42	1239,02
278,63	1222,64
278,85	1282,03
279,06	1249,26
279,28	1308,65
279,49	1294,32
279,71	1239,02
279,93	1325,04
280,14	1257,45
280,36	1279,98
280,57	1290,22
280,79	1257,45
281,00	1251,31
281,22	1345,52
281,43	1282,03
281,65	1320,94
281,86	1259,50
282,08	1294,32
282,29	1257,45
282,51	1288,17
282,73	1273,84
282,94	1212,40
283,16	1273,84
283,37	1263,60
283,59	1345,52
283,80	1216,49
284,02	1234,93
284,23	1306,60
284,45	1273,84
284,66	1220,59
284,88	1296,36
285,09	1241,07
285,31	1222,64
285,52	1179,63
285,74	1286,12
285,95	1269,74
286,17	1247,21
286,38	1239,02
286,60	1218,54
286,81	1312,75
287,03	1271,79
287,24	1232,88
287,46	1300,46
287,67	1232,88
287,89	1310,70
288,10	1263,60
288,32	1255,40
288,53	1263,60
288,75	1251,31
288,96	1245,16
289,18	1277,93
289,39	1253,36
289,61	1273,84
289,82	1275,88
290,04	1304,56
290,25	1167,34
290,47	1212,40
290,68	1271,79
290,90	1247,21
291,11	1196,01
291,33	1327,08
291,54	1247,21
291,76	1224,69
291,97	1245,16
292,18	1239,02
292,40	1294,32
292,61	1173,49
292,83	1243,12
293,04	1286,12
293,26	1304,56
293,47	1275,88
293,69	1288,17
293,90	1273,84
294,12	1300,46
294,33	1292,27
294,55	1343,47
294,76	1216,49
294,97	1290,22
295,19	1224,69
295,40	1275,88
295,62	1300,46
295,83	1286,12
296,05	1269,74
296,26	1234,93
296,48	1251,31
296,69	1277,93
296,90	1318,89
297,12	1304,56
297,33	1265,64
297,55	1226,73
297,76	1261,55
297,98	1298,41
298,19	1224,69
298,41	1300,46
298,62	1218,54
298,83	1277,93
299,05	1226,73
299,26	1302,51
299,48	1275,88
299,69	1304,56
299,90	1275,88
300,12	1245,16
300,33	1261,55
300,55	1302,51
300,76	1304,56
300,98	1294,32
301,19	1255,40
301,40	1339,37
301,62	1298,41
301,83	1269,74
302,05	1282,03
302,26	1306,60
302,47	1239,02
302,69	1320,94
302,90	1298,41
303,12	1226,73
303,33	1269,74
303,54	1165,29
303,76	1277,93
303,97	1320,94
304,19	1279,98
304,40	1261,55
304,61	1249,26
304,83	1277,93
305,04	1286,12
305,26	1243,12
305,47	1273,84
305,68	1306,60
305,90	1245,16
306,11	1282,03
306,33	1273,84
306,54	1200,11
306,75	1193,97
306,97	1339,37
307,18	1255,40
307,39	1288,17
307,61	1220,59
307,82	1255,40
308,04	1267,69
308,25	1263,60
308,46	1298,41
308,68	1206,25
308,89	1241,07
309,10	1257,45
309,32	1259,50
309,53	1316,84
309,74	1302,51
309,96	1284,08
310,17	1310,70
310,39	1271,79
310,60	1316,84
310,81	1296,36
311,03	1318,89
311,24	1234,93
311,45	1337,32
311,67	1259,50
311,88	1249,26
312,09	1286,12
312,31	1273,84
312,52	1253,36
312,73	1216,49
312,95	1279,98
313,16	1210,35
313,37	1306,60
313,59	1243,12
313,80	1267,69
314,01	1273,84
314,23	1239,02
314,44	1275,88
314,65	1249,26
314,87	1277,93
315,08	1290,22
315,29	1226,73
315,51	1253,36
315,72	1267,69
315,93	1290,22
316,15	1265,64
316,36	1218,54
316,57	1251,31
316,79	1279,98
317,00	1232,88
317,21	1310,70
317,43	1218,54
317,64	1265,64
317,85	1277,93
318,07	1327,08
318,28	1261,55
318,49	1277,93
318,70	1241,07
318,92	1245,16
319,13	1277,93
319,34	1284,08
319,56	1273,84
319,77	1347,56
319,98	1216,49
320,20	1214,45
320,41	1306,60
320,62	1308,65
320,83	1282,03
321,05	1232,88
321,26	1300,46
321,47	1279,98
321,69	1249,26
321,90	1271,79
322,11	1255,40
322,32	1320,94
322,54	1265,64
322,75	1173,49
322,96	1241,07
323,18	1241,07
323,39	1261,55
323,60	1275,88
323,81	1255,40
324,03	1226,73
324,24	1286,12
324,45	1206,25
324,66	1296,36
324,88	1269,74
325,09	1294,32
325,30	1259,50
325,52	1320,94
325,73	1275,88
325,94	1267,69
326,15	1187,82
326,37	1263,60
326,58	1263,60
326,79	1327,08
327,00	1282,03
327,22	1294,32
327,43	1302,51
327,64	1351,66
327,85	1314,80
328,07	1226,73
328,28	1236,97
328,49	1265,64
328,70	1253,36
328,92	1265,64
329,13	1277,93
329,34	1322,99
329,55	1245,16
329,76	1263,60
329,98	1224,69
330,19	1196,01
330,40	1249,26
330,61	1306,60
330,83	1198,06
331,04	1279,98
331,25	1263,60
331,46	1243,12
331,68	1273,84
331,89	1208,30
332,10	1273,84
332,31	1239,02
332,52	1245,16
332,74	1288,17
332,95	1198,06
333,16	1261,55
333,37	1220,59
333,58	1232,88
333,80	1224,69
334,01	1220,59
334,22	1277,93
334,43	1253,36
334,64	1288,17
334,86	1298,41
335,07	1189,87
335,28	1241,07
335,49	1286,12
335,70	1261,55
335,92	1359,85
336,13	1322,99
336,34	1292,27
336,55	1265,64
336,76	1234,93
336,98	1273,84
337,19	1294,32
337,40	1214,45
337,61	1257,45
337,82	1232,88
338,04	1193,97
338,25	1247,21
338,46	1214,45
338,67	1253,36
338,88	1314,80
339,09	1224,69
339,31	1257,45
339,52	1255,40
339,73	1261,55
339,94	1296,36
340,15	1218,54
340,36	1255,40
340,58	1265,64
340,79	1245,16
341,00	1261,55
341,21	1322,99
341,42	1259,50
341,63	1249,26
341,85	1388,52
342,06	1347,56
342,27	1169,39
342,48	1306,60
342,69	1275,88
342,90	1255,40
343,12	1282,03
343,33	1279,98
343,54	1275,88
343,75	1322,99
343,96	1302,51
344,17	1261,55
344,38	1202,16
344,60	1243,12
344,81	1257,45
345,02	1282,03
345,23	1183,73
345,44	1222,64
345,65	1259,50
345,86	1255,40
346,07	1286,12
346,29	1265,64
346,50	1329,13
346,71	1427,43
346,92	1290,22
347,13	1284,08
347,34	1253,36
347,55	1279,98
347,76	1329,13
347,98	1243,12
348,19	1298,41
348,40	1265,64
348,61	1277,93
348,82	1318,89
349,03	1327,08
349,24	1261,55
349,45	1261,55
349,66	1312,75
349,88	1247,21
350,09	1263,60
350,30	1286,12
350,51	1218,54
350,72	1263,60
350,93	1251,31
351,14	1232,88
351,35	1286,12
351,56	1288,17
351,77	1314,80
351,99	1265,64
352,20	1282,03
352,41	1343,47
352,62	1271,79
352,83	1150,96
353,04	1259,50
353,25	1257,45
353,46	1224,69
353,67	1335,28
353,88	1284,08
354,09	1234,93
354,30	1294,32
354,52	1257,45
354,73	1214,45
354,94	1263,60
355,15	1265,64
355,36	1302,51
355,57	1277,93
355,78	1241,07
355,99	1355,76
356,20	1351,66
356,41	1271,79
356,62	1255,40
356,83	1312,75
357,04	1327,08
357,25	1279,98
357,46	1236,97
357,68	1212,40
357,89	1279,98
358,10	1257,45
358,31	1251,31
358,52	1320,94
358,73	1239,02
358,94	1306,60
359,15	1286,12
359,36	1304,56
359,57	1306,60
359,78	1279,98
359,99	1175,53
360,20	1255,40
360,41	1335,28
360,62	1325,04
360,83	1269,74
361,04	1245,16
361,25	1304,56
361,46	1329,13
361,67	1196,01
361,88	1331,18
362,09	1255,40
362,30	1218,54
362,51	1275,88
362,72	1308,65
362,93	1308,65
363,14	1226,73
363,35	1279,98
363,56	1261,55
363,78	1253,36
363,99	1322,99
364,20	1224,69
364,41	1292,27
364,62	1224,69
364,83	1259,50
365,04	1245,16
365,25	1277,93
365,46	1294,32
365,67	1263,60
365,88	1286,12
366,09	1255,40
366,30	1261,55
366,51	1263,60
366,72	1245,16
366,93	1232,88
367,14	1247,21
367,35	1302,51
367,56	1288,17
367,77	1224,69
367,98	1261,55
368,18	1304,56
368,39	1263,60
368,60	1267,69
368,81	1210,35
369,02	1304,56
369,23	1245,16
369,44	1222,64
369,65	1380,33
369,86	1304,56
370,07	1277,93
370,28	1228,78
370,49	1275,88
370,70	1243,12
370,91	1206,25
371,12	1228,78
371,33	1279,98
371,54	1277,93
371,75	1236,97
371,96	1169,39
372,17	1339,37
372,38	1263,60
372,59	1198,06
372,80	1294,32
373,01	1282,03
373,22	1282,03
373,43	1288,17
373,64	1279,98
373,85	1245,16
374,06	1208,30
374,26	1339,37
374,47	1210,35
374,68	1259,50
374,89	1335,28
375,10	1275,88
375,31	1267,69
375,52	1232,88
375,73	1331,18
375,94	1290,22
376,15	1337,32
376,36	1302,51
376,57	1210,35
376,78	1232,88
376,99	1269,74
377,20	1210,35
377,40	1339,37
377,61	1265,64
377,82	1230,83
378,03	1247,21
378,24	1320,94
378,45	1273,84
378,66	1290,22
378,87	1239,02
379,08	1247,21
379,29	1243,12
379,50	1298,41
379,71	1327,08
379,91	1255,40
380,12	1243,12
380,33	1234,93
380,54	1245,16
380,75	1261,55
380,96	1286,12
381,17	1320,94
381,38	1282,03
381,59	1269,74
381,80	1304,56
382,00	1249,26
382,21	1286,12
382,42	1314,80
382,63	1249,26
382,84	1239,02
383,05	1259,50
383,26	1282,03
383,47	1251,31
383,68	1230,83
383,88	1290,22
384,09	1249,26
384,30	1302,51
384,51	1279,98
384,72	1261,55
384,93	1339,37
385,14	1224,69
385,35	1236,97
385,55	1279,98
385,76	1241,07
385,97	1226,73
386,18	1345,52
386,39	1226,73
386,60	1277,93
386,81	1243,12
387,02	1253,36
387,22	1249,26
387,43	1277,93
387,64	1288,17
387,85	1339,37
388,06	1284,08
388,27	1378,28
388,48	1284,08
388,68	1355,76
388,89	1284,08
389,10	1230,83
389,31	1279,98
389,52	1175,53
389,73	1212,40
389,93	1249,26
390,14	1144,81
390,35	1320,94
390,56	1261,55
390,77	1329,13
390,98	1275,88
391,18	1282,03
391,39	1290,22
391,60	1216,49
391,81	1363,95
392,02	1245,16
392,23	1261,55
392,43	1245,16
392,64	1251,31
392,85	1290,22
393,06	1312,75
393,27	1226,73
393,47	1249,26
393,68	1191,92
393,89	1290,22
394,10	1279,98
394,31	1282,03
394,52	1214,45
394,72	1267,69
394,93	1351,66
395,14	1236,97
395,35	1241,07
395,56	1277,93
395,76	1247,21
395,97	1294,32
396,18	1282,03
396,39	1257,45
396,60	1284,08
396,80	1310,70
397,01	1288,17
397,22	1308,65
397,43	1255,40
397,64	1196,01
397,84	1245,16
398,05	1253,36
398,26	1232,88
398,47	1396,71
398,67	1239,02
398,88	1329,13
399,09	1318,89
399,30	1245,16
399,51	1253,36
399,71	1353,71
399,92	1294,32
400,13	1306,60
400,34	1269,74
400,54	1245,16
400,75	1288,17
400,96	1275,88
401,17	1294,32
401,37	1267,69
401,58	1294,32
401,79	1275,88
402,00	1314,80
402,21	1265,64
402,41	1298,41
402,62	1230,83
402,83	1198,06
403,04	1290,22
403,24	1298,41
403,45	1200,11
403,66	1275,88
403,87	1261,55
404,07	1312,75
404,28	1310,70
404,49	1294,32
404,70	1284,08
404,90	1261,55
405,11	1320,94
405,32	1241,07
405,52	1234,93
405,73	1286,12
405,94	1257,45
406,15	1251,31
406,35	1308,65
406,56	1255,40
406,77	1251,31
406,98	1198,06
407,18	1255,40
407,39	1325,04
407,60	1265,64
407,80	1314,80
408,01	1245,16
408,22	1239,02
408,43	1261,55
408,63	1271,79
408,84	1206,25
409,05	1210,35
409,25	1222,64
409,46	1282,03
409,67	1224,69
409,88	1273,84
410,08	1288,17
410,29	1245,16
410,50	1261,55
410,70	1261,55
410,91	1234,93
411,12	1279,98
411,32	1216,49
411,53	1265,64
411,74	1261,55
411,95	1288,17
412,15	1245,16
412,36	1292,27
412,57	1275,88
412,77	1294,32
412,98	1185,77
413,19	1230,83
413,39	1327,08
413,60	1257,45
413,81	1249,26
414,01	1277,93
414,22	1247,21
414,43	1239,02
414,63	1245,16
414,84	1312,75
415,05	1239,02
415,25	1273,84
415,46	1243,12
415,67	1296,36
415,87	1302,51
416,08	1320,94
416,29	1298,41
416,49	1261,55
416,70	1241,07
416,91	1255,40
417,11	1208,30
417,32	1314,80
417,53	1308,65
417,73	1230,83
417,94	1286,12
418,15	1298,41
418,35	1267,69
418,56	1259,50
418,77	1269,74
418,97	1284,08
419,18	1310,70
419,38	1208,30
419,59	1206,25
419,80	1253,36
420,00	1335,28
420,21	1284,08
420,42	1212,40
420,62	1298,41
420,83	1255,40
421,04	1216,49
421,24	1214,45
421,45	1245,16
421,65	1216,49
421,86	1230,83
422,07	1187,82
422,27	1243,12
422,48	1292,27
422,69	1333,23
422,89	1267,69
423,10	1222,64
423,30	1279,98
423,51	1363,95
423,72	1331,18
423,92	1273,84
424,13	1325,04
424,33	1251,31
424,54	1249,26
424,75	1269,74
424,95	1310,70
425,16	1347,56
425,36	1247,21
425,57	1306,60
425,78	1261,55
425,98	1222,64
426,19	1257,45
426,39	1288,17
426,60	1284,08
426,81	1243,12
427,01	1267,69
427,22	1163,25
427,42	1282,03
427,63	1279,98
427,83	1245,16
428,04	1298,41
428,25	1271,79
428,45	1277,93
428,66	1263,60
428,86	1249,26
429,07	1271,79
429,28	1204,21
429,48	1218,54
429,69	1265,64
429,89	1275,88
430,10	1331,18
430,30	1259,50
430,51	1267,69
430,71	1343,47
430,92	1222,64
431,13	1189,87
431,33	1288,17
431,54	1279,98
431,74	1255,40
431,95	1261,55
432,15	1200,11
432,36	1294,32
432,56	1273,84
432,77	1245,16
432,98	1376,24
433,18	1222,64
433,39	1255,40
433,59	1290,22
433,80	1306,60
434,00	1333,23
434,21	1265,64
434,41	1204,21
434,62	1196,01
434,82	1286,12
435,03	1284,08
435,23	1208,30
435,44	1226,73
435,64	1294,32
435,85	1296,36
436,06	1265,64
436,26	1267,69
436,47	1220,59
436,67	1341,42
436,88	1261,55
437,08	1302,51
437,29	1259,50
437,49	1333,23
437,70	1290,22
437,90	1230,83
438,11	1290,22
438,31	1327,08
438,52	1275,88
438,72	1200,11
438,93	1316,84
439,13	1318,89
439,34	1236,97
439,54	1273,84
439,75	1327,08
439,95	1290,22
440,16	1284,08
440,36	1314,80
440,57	1232,88
440,77	1327,08
440,98	1208,30
441,18	1245,16
441,39	1300,46
441,59	1261,55
441,80	1220,59
442,00	1257,45
442,21	1251,31
442,41	1224,69
442,62	1298,41
442,82	1232,88
443,02	1243,12
443,23	1341,42
443,43	1298,41
443,64	1259,50
443,84	1249,26
444,05	1292,27
444,25	1247,21
444,46	1294,32
444,66	1337,32
444,87	1286,12
445,07	1251,31
445,28	1257,45
445,48	1261,55
445,69	1292,27
445,89	1251,31
446,09	1339,37
446,30	1284,08
446,50	1288,17
446,71	1253,36
446,91	1247,21
447,12	1265,64
447,32	1249,26
447,53	1368,04
447,73	1185,77
447,93	1241,07
448,14	1255,40
448,34	1267,69
448,55	1337,32
448,75	1265,64
448,96	1259,50
449,16	1245,16
449,36	1312,75
449,57	1286,12
449,77	1265,64
449,98	1314,80
450,18	1282,03
450,39	1232,88
450,59	1304,56
450,79	1300,46
451,00	1275,88
451,20	1236,97
451,41	1322,99
451,61	1284,08
451,81	1279,98
452,02	1320,94
452,22	1273,84
452,43	1239,02
452,63	1189,87
452,84	1282,03
453,04	1218,54
453,24	1230,83
453,45	1271,79
453,65	1226,73
453,86	1312,75
454,06	1243,12
454,26	1271,79
454,47	1314,80
454,67	1290,22
454,87	1234,93
455,08	1296,36
455,28	1312,75
455,49	1206,25
455,69	1263,60
455,89	1249,26
456,10	1255,40
456,30	1288,17
456,51	1306,60
456,71	1304,56
456,91	1261,55
457,12	1275,88
457,32	1247,21
457,52	1312,75
457,73	1275,88
457,93	1271,79
458,14	1232,88
458,34	1302,51
458,54	1267,69
458,75	1265,64
458,95	1265,64
459,15	1263,60
459,36	1282,03
459,56	1282,03
459,76	1290,22
459,97	1341,42
460,17	1300,46
460,37	1273,84
460,58	1210,35
460,78	1267,69
460,99	1314,80
461,19	1314,80
461,39	1214,45
461,60	1253,36
461,80	1267,69
462,00	1333,23
462,21	1212,40
462,41	1265,64
462,61	1308,65
462,82	1298,41
463,02	1230,83
463,22	1236,97
463,43	1243,12
463,63	1347,56
463,83	1302,51
464,04	1220,59
464,24	1243,12
464,44	1214,45
464,64	1384,43
464,85	1232,88
465,05	1292,27
465,25	1263,60
465,46	1230,83
465,66	1239,02
465,86	1273,84
466,07	1271,79
466,27	1212,40
466,47	1249,26
466,68	1269,74
466,88	1308,65
467,08	1247,21
467,29	1288,17
467,49	1355,76
467,69	1292,27
467,89	1167,34
468,10	1271,79
468,30	1218,54
468,50	1296,36
468,71	1196,01
468,91	1259,50
469,11	1226,73
469,31	1282,03
469,52	1302,51
469,72	1232,88
469,92	1263,60
470,13	1327,08
470,33	1251,31
470,53	1228,78
470,73	1288,17
470,94	1310,70
471,14	1247,21
471,34	1239,02
471,54	1331,18
471,75	1218,54
471,95	1206,25
472,15	1271,79
472,36	1212,40
472,56	1322,99
472,76	1275,88
472,96	1273,84
473,17	1255,40
473,37	1306,60
473,57	1302,51
473,77	1294,32
473,98	1222,64
474,18	1290,22
474,38	1300,46
474,58	1265,64
474,79	1263,60
474,99	1241,07
475,19	1222,64
475,39	1368,04
475,60	1245,16
475,80	1296,36
476,00	1308,65
476,20	1218,54
476,41	1290,22
476,61	1247,21
476,81	1296,36
477,01	1275,88
477,21	1351,66
477,42	1298,41
477,62	1234,93
477,82	1279,98
478,02	1249,26
478,23	1363,95
478,43	1241,07
478,63	1239,02
478,83	1308,65
479,03	1337,32
479,24	1298,41
479,44	1255,40
479,64	1333,23
479,84	1230,83
480,04	1204,21
480,25	1312,75
480,45	1267,69
480,65	1288,17
480,85	1327,08
481,06	1271,79
481,26	1284,08
481,46	1329,13
481,66	1236,97
481,86	1239,02
482,06	1189,87
482,27	1284,08
482,47	1329,13
482,67	1327,08
482,87	1294,32
483,07	1259,50
483,28	1224,69
483,48	1302,51
483,68	1298,41
483,88	1271,79
484,08	1306,60
484,29	1314,80
484,49	1277,93
484,69	1269,74
484,89	1265,64
485,09	1259,50
485,29	1286,12
485,50	1263,60
485,70	1279,98
485,90	1284,08
486,10	1255,40
486,30	1286,12
486,50	1290,22
486,71	1267,69
486,91	1312,75
487,11	1257,45
487,31	1279,98
487,51	1261,55
487,71	1232,88
487,91	1316,84
488,12	1173,49
488,32	1267,69
488,52	1236,97
488,72	1247,21
488,92	1320,94
489,12	1312,75
489,32	1259,50
489,53	1277,93
489,73	1214,45
489,93	1296,36
490,13	1273,84
490,33	1241,07
490,53	1292,27
490,73	1310,70
490,94	1282,03
491,14	1234,93
491,34	1245,16
491,54	1269,74
491,74	1273,84
491,94	1269,74
492,14	1343,47
492,34	1210,35
492,54	1351,66
492,75	1255,40
492,95	1269,74
493,15	1236,97
493,35	1308,65
493,55	1329,13
493,75	1232,88
493,95	1230,83
494,15	1279,98
494,35	1335,28
494,56	1259,50
494,76	1226,73
494,96	1253,36
495,16	1273,84
495,36	1300,46
495,56	1316,84
495,76	1271,79
495,96	1275,88
496,16	1302,51
496,36	1361,90
496,56	1269,74
496,77	1325,04
496,97	1245,16
497,17	1187,82
497,37	1212,40
497,57	1284,08
497,77	1267,69
497,97	1318,89
498,17	1191,92
498,37	1265,64
498,57	1247,21
498,77	1230,83
498,97	1284,08
499,17	1320,94
499,38	1253,36
499,58	1290,22
499,78	1273,84
499,98	1259,50
500,18	1275,88
500,38	1300,46
500,58	1277,93
500,78	1286,12
500,98	1216,49
501,18	1277,93
501,38	1269,74
501,58	1236,97
501,78	1267,69
501,98	1224,69
502,18	1284,08
502,38	1296,36
502,58	1253,36
502,78	1304,56
502,98	1267,69
503,18	1300,46
503,38	1265,64
503,59	1275,88
503,79	1267,69
503,99	1249,26
504,19	1308,65
504,39	1320,94
504,59	1312,75
504,79	1290,22
504,99	1310,70
505,19	1263,60
505,39	1253,36
505,59	1312,75
505,79	1294,32
505,99	1327,08
506,19	1290,22
506,39	1322,99
506,59	1318,89
506,79	1302,51
506,99	1316,84
507,19	1259,50
507,39	1333,23
507,59	1243,12
507,79	1300,46
507,99	1314,80
508,19	1392,62
508,39	1288,17
508,59	1314,80
508,79	1322,99
508,99	1253,36
509,19	1353,71
509,39	1253,36
509,59	1288,17
509,79	1304,56
509,99	1286,12
510,19	1267,69
510,39	1282,03
510,59	1282,03
510,79	1224,69
510,99	1277,93
511,19	1259,50
511,39	1177,58
511,59	1337,32
511,79	1306,60
511,99	1245,16
512,19	1251,31
512,38	1282,03
512,58	1241,07
512,78	1288,17
512,98	1312,75
513,18	1282,03
513,38	1273,84
513,58	1306,60
513,78	1206,25
513,98	1222,64
514,18	1304,56
514,38	1304,56
514,58	1214,45
514,78	1290,22
514,98	1234,93
515,18	1306,60
515,38	1245,16
515,58	1392,62
515,78	1298,41
515,98	1308,65
516,18	1241,07
516,38	1292,27
516,57	1304,56
516,77	1222,64
516,97	1288,17
517,17	1304,56
517,37	1193,97
517,57	1325,04
517,77	1259,50
517,97	1318,89
518,17	1318,89
518,37	1249,26
518,57	1312,75
518,77	1306,60
518,97	1234,93
519,16	1202,16
519,36	1296,36
519,56	1265,64
519,76	1257,45
519,96	1312,75
520,16	1239,02
520,36	1341,42
520,56	1177,58
520,76	1345,52
520,96	1269,74
521,16	1253,36
521,35	1298,41
521,55	1277,93
521,75	1333,23
521,95	1239,02
522,15	1249,26
522,35	1239,02
522,55	1290,22
522,75	1277,93
522,95	1198,06
523,14	1226,73
523,34	1245,16
523,54	1273,84
523,74	1218,54
523,94	1282,03
524,14	1214,45
524,34	1325,04
524,54	1355,76
524,73	1236,97
524,93	1286,12
525,13	1296,36
525,33	1179,63
525,53	1363,95
525,73	1282,03
525,93	1204,21
526,13	1189,87
526,32	1204,21
526,52	1275,88
526,72	1263,60
526,92	1230,83
527,12	1271,79
527,32	1372,14
527,52	1329,13
527,71	1292,27
527,91	1265,64
528,11	1208,30
528,31	1357,80
528,51	1273,84
528,71	1312,75
528,90	1302,51
529,10	1220,59
529,30	1302,51
529,50	1187,82
529,70	1208,30
529,90	1273,84
530,09	1337,32
530,29	1257,45
530,49	1259,50
530,69	1247,21
530,89	1200,11
531,09	1347,56
531,28	1271,79
531,48	1279,98
531,68	1275,88
531,88	1294,32
532,08	1286,12
532,28	1241,07
532,47	1279,98
532,67	1288,17
532,87	1230,83
533,07	1288,17
533,27	1337,32
533,46	1257,45
533,66	1273,84
533,86	1236,97
534,06	1282,03
534,26	1259,50
534,45	1302,51
534,65	1351,66
534,85	1269,74
535,05	1294,32
535,25	1337,32
535,44	1314,80
535,64	1245,16
535,84	1259,50
536,04	1263,60
536,24	1249,26
536,43	1288,17
536,63	1294,32
536,83	1263,60
537,03	1175,53
537,22	1239,02
537,42	1290,22
537,62	1253,36
537,82	1302,51
538,02	1279,98
538,21	1220,59
538,41	1308,65
538,61	1282,03
538,81	1314,80
539,00	1245,16
539,20	1189,87
539,40	1243,12
539,60	1241,07
539,79	1243,12
539,99	1224,69
540,19	1325,04
540,39	1355,76
540,58	1267,69
540,78	1290,22
540,98	1232,88
541,18	1286,12
541,37	1241,07
541,57	1286,12
541,77	1298,41
541,97	1304,56
542,16	1257,45
542,36	1279,98
542,56	1259,50
542,76	1339,37
542,95	1253,36
543,15	1294,32
543,35	1302,51
543,54	1288,17
543,74	1290,22
543,94	1243,12
544,14	1226,73
544,33	1269,74
544,53	1259,50
544,73	1265,64
544,93	1329,13
545,12	1355,76
545,32	1290,22
545,52	1284,08
545,71	1236,97
545,91	1228,78
546,11	1339,37
546,30	1310,70
546,50	1273,84
546,70	1212,40
546,90	1339,37
547,09	1253,36
547,29	1249,26
547,49	1337,32
547,68	1284,08
547,88	1218,54
548,08	1288,17
548,27	1310,70
548,47	1241,07
548,67	1320,94
548,87	1259,50
549,06	1277,93
549,26	1337,32
549,46	1253,36
549,65	1210,35
549,85	1286,12
550,05	1263,60
550,24	1253,36
550,44	1271,79
550,64	1322,99
550,83	1310,70
551,03	1306,60
551,23	1251,31
551,42	1263,60
551,62	1294,32
551,82	1273,84
552,01	1341,42
552,21	1302,51
552,41	1322,99
552,60	1261,55
552,80	1314,80
553,00	1243,12
553,19	1265,64
553,39	1314,80
553,59	1259,50
553,78	1239,02
553,98	1224,69
554,17	1277,93
554,37	1263,60
554,57	1277,93
554,76	1290,22
554,96	1296,36
555,16	1343,47
555,35	1232,88
555,55	1290,22
555,75	1204,21
555,94	1255,40
556,14	1288,17
556,33	1298,41
556,53	1347,56
556,73	1261,55
556,92	1318,89
557,12	1284,08
557,32	1304,56
557,51	1318,89
557,71	1341,42
557,90	1239,02
558,10	1329,13
558,30	1339,37
558,49	1265,64
558,69	1329,13
558,88	1284,08
559,08	1294,32
559,28	1234,93
559,47	1263,60
559,67	1298,41
559,86	1310,70
560,06	1247,21
560,26	1329,13
560,45	1308,65
560,65	1331,18
560,84	1241,07
561,04	1259,50
561,24	1249,26
561,43	1243,12
561,63	1234,93
561,82	1259,50
562,02	1329,13
562,22	1300,46
562,41	1331,18
562,61	1325,04
562,80	1220,59
563,00	1216,49
563,19	1302,51
563,39	1308,65
563,59	1255,40
563,78	1292,27
563,98	1236,97
564,17	1286,12
564,37	1325,04
564,56	1298,41
564,76	1243,12
564,96	1292,27
565,15	1232,88
565,35	1363,95
565,54	1304,56
565,74	1296,36
565,93	1286,12
566,13	1214,45
566,32	1310,70
566,52	1320,94
566,71	1247,21
566,91	1312,75
567,11	1273,84
567,30	1284,08
567,50	1298,41
567,69	1236,97
567,89	1306,60
568,08	1286,12
568,28	1239,02
568,47	1386,47
568,67	1316,84
568,86	1296,36
569,06	1279,98
569,25	1261,55
569,45	1282,03
569,64	1273,84
569,84	1322,99
570,04	1191,92
570,23	1275,88
570,43	1228,78
570,62	1255,40
570,82	1341,42
571,01	1284,08
571,21	1282,03
571,40	1314,80
571,60	1308,65
571,79	1310,70
571,99	1312,75
572,18	1267,69
572,38	1341,42
572,57	1265,64
572,77	1282,03
572,96	1257,45
573,16	1363,95
573,35	1263,60
573,55	1292,27
573,74	1273,84
573,94	1288,17
574,13	1300,46
574,33	1261,55
574,52	1325,04
574,71	1339,37
574,91	1251,31
575,10	1298,41
575,30	1361,90
575,49	1290,22
575,69	1279,98
575,88	1263,60
576,08	1267,69
576,27	1273,84
576,47	1265,64
576,66	1331,18
576,86	1243,12
577,05	1331,18
577,25	1273,84
577,44	1366,00
577,64	1206,25
577,83	1298,41
578,02	1312,75
578,22	1269,74
578,41	1220,59
578,61	1363,95
578,80	1298,41
579,00	1273,84
579,19	1284,08
579,39	1257,45
579,58	1210,35
579,77	1267,69
579,97	1288,17
580,16	1294,32
580,36	1241,07
580,55	1269,74
580,75	1220,59
580,94	1296,36
581,13	1169,39
581,33	1292,27
581,52	1294,32
581,72	1251,31
581,91	1198,06
582,11	1322,99
582,30	1382,38
582,49	1263,60
582,69	1294,32
582,88	1325,04
583,08	1234,93
583,27	1314,80
583,47	1261,55
583,66	1241,07
583,85	1300,46
584,05	1312,75
584,24	1302,51
584,44	1286,12
584,63	1236,97
584,82	1290,22
585,02	1253,36
585,21	1257,45
585,41	1363,95
585,60	1288,17
585,79	1220,59
585,99	1267,69
586,18	1269,74
586,37	1279,98
586,57	1290,22
586,76	1253,36
586,96	1245,16
587,15	1314,80
587,34	1288,17
587,54	1286,12
587,73	1322,99
587,93	1327,08
588,12	1288,17
588,31	1292,27
588,51	1275,88
588,70	1247,21
588,89	1277,93
589,09	1320,94
589,28	1322,99
589,47	1271,79
589,67	1275,88
589,86	1308,65
590,06	1273,84
590,25	1267,69
590,44	1302,51
590,64	1290,22
590,83	1282,03
591,02	1288,17
591,22	1249,26
591,41	1361,90
591,60	1345,52
591,80	1284,08
591,99	1290,22
592,18	1310,70
592,38	1200,11
592,57	1302,51
592,76	1243,12
592,96	1327,08
593,15	1279,98
593,34	1243,12
593,54	1265,64
593,73	1345,52
593,92	1273,84
594,12	1228,78
594,31	1306,60
594,50	1327,08
594,70	1351,66
594,89	1277,93
595,08	1259,50
595,28	1177,58
595,47	1273,84
595,66	1208,30
595,86	1255,40
596,05	1269,74
596,24	1286,12
596,43	1282,03
596,63	1345,52
596,82	1335,28
597,01	1249,26
597,21	1302,51
597,40	1335,28
597,59	1306,60
597,79	1284,08
597,98	1298,41
598,17	1267,69
598,36	1245,16
598,56	1292,27
598,75	1288,17
598,94	1251,31
599,14	1247,21
599,33	1271,79
599,52	1216,49
599,71	1296,36
599,91	1296,36
600,10	1277,93
600,29	1347,56
600,48	1247,21
600,68	1241,07
600,87	1296,36
601,06	1308,65
601,26	1267,69
601,45	1339,37
601,64	1273,84
601,83	1208,30
602,03	1284,08
602,22	1247,21
602,41	1298,41
602,60	1292,27
602,80	1255,40
602,99	1284,08
603,18	1325,04
603,37	1333,23
603,57	1220,59
603,76	1322,99
603,95	1355,76
604,14	1253,36
604,34	1279,98
604,53	1300,46
604,72	1267,69
604,91	1251,31
605,10	1269,74
605,30	1269,74
605,49	1288,17
605,68	1275,88
605,87	1259,50
606,07	1269,74
606,26	1290,22
606,45	1212,40
606,64	1327,08
606,84	1296,36
607,03	1261,55
607,22	1327,08
607,41	1253,36
607,60	1243,12
607,80	1314,80
607,99	1234,93
608,18	1308,65
608,37	1218,54
608,56	1322,99
608,76	1312,75
608,95	1282,03
609,14	1255,40
609,33	1302,51
609,52	1271,79
609,72	1308,65
609,91	1337,32
610,10	1277,93
610,29	1255,40
610,48	1286,12
610,68	1263,60
610,87	1329,13
611,06	1232,88
611,25	1343,47
611,44	1302,51
611,63	1275,88
611,83	1294,32
612,02	1294,32
612,21	1320,94
612,40	1286,12
612,59	1329,13
612,79	1294,32
612,98	1277,93
613,17	1224,69
613,36	1230,83
613,55	1290,22
613,74	1314,80
613,93	1269,74
614,13	1322,99
614,32	1282,03
614,51	1339,37
614,70	1232,88
614,89	1388,52
615,08	1288,17
615,28	1234,93
615,47	1267,69
615,66	1265,64
615,85	1314,80
616,04	1331,18
616,23	1306,60
616,42	1296,36
616,62	1257,45
616,81	1259,50
617,00	1308,65
617,19	1273,84
617,38	1370,09
617,57	1290,22
617,76	1249,26
617,95	1290,22
618,15	1353,71
618,34	1253,36
618,53	1277,93
618,72	1284,08
618,91	1298,41
619,10	1366,00
619,29	1345,52
619,48	1286,12
619,68	1257,45
619,87	1337,32
620,06	1251,31
620,25	1273,84
620,44	1327,08
620,63	1282,03
620,82	1320,94
621,01	1337,32
621,20	1327,08
621,39	1259,50
621,59	1286,12
621,78	1191,92
621,97	1290,22
622,16	1290,22
622,35	1294,32
622,54	1263,60
622,73	1230,83
622,92	1277,93
623,11	1304,56
623,30	1304,56
623,49	1228,78
623,68	1277,93
623,88	1327,08
624,07	1341,42
624,26	1181,68
624,45	1286,12
624,64	1273,84
624,83	1318,89
625,02	1288,17
625,21	1208,30
625,40	1302,51
625,59	1378,28
625,78	1296,36
625,97	1310,70
626,16	1263,60
626,35	1357,80
626,54	1277,93
626,74	1331,18
626,93	1253,36
627,12	1284,08
627,31	1279,98
627,50	1310,70
627,69	1345,52
627,88	1286,12
628,07	1296,36
628,26	1325,04
628,45	1261,55
628,64	1308,65
628,83	1251,31
629,02	1282,03
629,21	1310,70
629,40	1355,76
629,59	1286,12
629,78	1306,60
629,97	1255,40
630,16	1302,51
630,35	1331,18
630,54	1374,19
630,73	1232,88
630,92	1318,89
631,11	1290,22
631,30	1286,12
631,49	1318,89
631,68	1398,76
631,87	2361,31
632,06	6520,73
632,25	6989,72
632,44	11956,04
632,63	17563,38
632,82	26680,94
633,01	58127,50
633,20	65535,00
633,39	65535,00
633,58	54498,50
633,77	25114,24
633,96	11290,45
634,15	7690,12
634,34	6422,43
634,53	4622,27
634,72	3026,90
634,91	2377,69
635,10	2338,78
635,29	2314,20
635,48	2097,12
635,67	2004,96
635,86	1751,01
636,05	1748,97
636,24	1609,70
636,43	1546,22
636,62	1505,26
636,81	1519,59
637,00	1525,74
637,19	1445,87
637,38	1507,30
637,57	1331,18
637,76	1462,25
637,95	1392,62
638,14	1394,67
638,33	1343,47
638,52	1337,32
638,71	1267,69
638,89	1271,79
639,08	1286,12
639,27	1312,75
639,46	1284,08
639,65	1243,12
639,84	1296,36
640,03	1312,75
640,22	1232,88
640,41	1300,46
640,60	1308,65
640,79	1271,79
640,98	1275,88
641,17	1302,51
641,36	1294,32
641,55	1282,03
641,74	1347,56
641,92	1294,32
642,11	1230,83
642,30	1296,36
642,49	1359,85
642,68	1296,36
642,87	1222,64
643,06	1269,74
643,25	1351,66
643,44	1267,69
643,63	1312,75
643,82	1322,99
644,00	1257,45
644,19	1243,12
644,38	1263,60
644,57	1265,64
644,76	1253,36
644,95	1247,21
645,14	1322,99
645,33	1247,21
645,52	1284,08
645,71	1255,40
645,89	1261,55
646,08	1279,98
646,27	1239,02
646,46	1267,69
646,65	1269,74
646,84	1208,30
647,03	1327,08
647,22	1245,16
647,40	1300,46
647,59	1277,93
647,78	1355,76
647,97	1314,80
648,16	1267,69
648,35	1243,12
648,54	1310,70
648,73	1216,49
648,91	1306,60
649,10	1353,71
649,29	1173,49
649,48	1312,75
649,67	1284,08
649,86	1335,28
650,05	1265,64
650,23	1236,97
650,42	1314,80
650,61	1259,50
650,80	1294,32
650,99	1296,36
651,18	1337,32
651,36	1302,51
651,55	1218,54
651,74	1273,84
651,93	1304,56
652,12	1263,60
652,31	1261,55
652,49	1335,28
652,68	1310,70
652,87	1269,74
653,06	1234,93
653,25	1351,66
653,44	1296,36
653,62	1251,31
653,81	1279,98
654,00	1306,60
654,19	1286,12
654,38	1325,04
654,56	1253,36
654,75	1284,08
654,94	1275,88
655,13	1273,84
655,32	1210,35
655,51	1306,60
655,69	1259,50
655,88	1277,93
656,07	1284,08
656,26	1341,42
656,45	1316,84
656,63	1296,36
656,82	1343,47
657,01	1308,65
657,20	1318,89
657,38	1331,18
657,57	1255,40
657,76	1232,88
657,95	1259,50
658,14	1224,69
658,32	1355,76
658,51	1228,78
658,70	1282,03
658,89	1279,98
659,08	1277,93
659,26	1288,17
659,45	1294,32
659,64	1255,40
659,83	1359,85
660,01	1216,49
660,20	1255,40
660,39	1267,69
660,58	1259,50
660,76	1353,71
660,95	1255,40
661,14	1318,89
661,33	1224,69
661,51	1366,00
661,70	1265,64
661,89	1368,04
662,08	1335,28
662,26	1314,80
662,45	1269,74
662,64	1320,94
662,83	1253,36
663,01	1286,12
663,20	1265,64
663,39	1265,64
663,58	1224,69
663,76	1251,31
663,95	1275,88
664,14	1251,31
664,32	1245,16
664,51	1263,60
664,70	1296,36
664,89	1216,49
665,07	1316,84
665,26	1236,97
665,45	1277,93
665,64	1249,26
665,82	1294,32
666,01	1306,60
666,20	1177,58
666,38	1251,31
666,57	1286,12
666,76	1286,12
666,95	1298,41
667,13	1224,69
667,32	1282,03
667,51	1282,03
667,69	1243,12
667,88	1255,40
668,07	1239,02
668,25	1308,65
668,44	1267,69
668,63	1306,60
668,81	1273,84
669,00	1269,74
669,19	1314,80
669,38	1304,56
669,56	1310,70
669,75	1224,69
669,94	1263,60
670,12	1255,40
670,31	1257,45
670,50	1269,74
670,68	1298,41
670,87	1310,70
671,06	1228,78
671,24	1255,40
671,43	1249,26
671,62	1224,69
671,80	1302,51
671,99	1294,32
672,18	1261,55
672,36	1224,69
672,55	1265,64
672,74	1253,36
672,92	1269,74
673,11	1284,08
673,29	1218,54
673,48	1279,98
673,67	1277,93
673,85	1253,36
674,04	1355,76
674,23	1224,69
674,41	1306,60
674,60	1320,94
674,79	1198,06
674,97	1273,84
675,16	1298,41
675,34	1333,23
675,53	1255,40
675,72	1296,36
675,90	1204,21
676,09	1277,93
676,28	1265,64
676,46	1159,15
676,65	1210,35
676,83	1216,49
677,02	1314,80
677,21	1269,74
677,39	1275,88
677,58	1284,08
677,77	1349,61
677,95	1216,49
678,14	1251,31
678,32	1210,35
678,51	1261,55
678,70	1245,16
678,88	1257,45
679,07	1193,97
679,25	1257,45
679,44	1269,74
679,63	1257,45
679,81	1251,31
680,00	1310,70
680,18	1263,60
680,37	1273,84
680,55	1306,60
680,74	1251,31
680,93	1284,08
681,11	1265,64
681,30	1292,27
681,48	1298,41
681,67	1253,36
681,85	1179,63
682,04	1257,45
682,23	1232,88
682,41	1206,25
682,60	1269,74
682,78	1267,69
682,97	1286,12
683,15	1265,64
683,34	1294,32
683,53	1279,98
683,71	1146,86
683,90	1273,84
684,08	1329,13
684,27	1241,07
684,45	1189,87
684,64	1261,55
684,82	1224,69
685,01	1271,79
685,19	1263,60
685,38	1226,73
685,57	1249,26
685,75	1335,28
685,94	1232,88
686,12	1341,42
686,31	1277,93
686,49	1288,17
686,68	1302,51
686,86	1347,56
687,05	1284,08
687,23	1286,12
687,42	1253,36
687,60	1320,94
687,79	1206,25
687,97	1265,64
688,16	1259,50
688,34	1243,12
688,53	1343,47
688,71	1316,84
688,90	1189,87
689,08	1249,26
689,27	1220,59
689,45	1273,84
689,64	1275,88
689,82	1202,16
690,01	1257,45
690,19	1234,93
690,38	1220,59
690,56	1347,56
690,75	1220,59
690,93	1245,16
691,12	1243,12
691,30	1239,02
691,49	1271,79
691,67	1277,93
691,86	1245,16
692,04	1222,64
692,23	1259,50
692,41	1302,51
692,60	1312,75
692,78	1288,17
692,97	1245,16
693,15	1325,04
693,34	1263,60
693,52	1265,64
693,71	1288,17
693,89	1325,04
694,08	1251,31
694,26	1267,69
694,44	1241,07
694,63	1228,78
694,81	1226,73
695,00	1304,56
695,18	1261,55
695,37	1308,65
695,55	1267,69
695,74	1298,41
695,92	1261,55
696,10	1224,69
696,29	1290,22
696,47	1273,84
696,66	1265,64
696,84	1234,93
697,03	1220,59
697,21	1277,93
697,40	1366,00
697,58	1282,03
697,76	1255,40
697,95	1308,65
698,13	1257,45
698,32	1232,88
698,50	1322,99
698,68	1251,31
698,87	1296,36
699,05	1306,60
699,24	1271,79
699,42	1261,55
699,61	1187,82
699,79	1259,50
699,97	1265,64
700,16	1322,99
700,34	1306,60
700,53	1253,36
700,71	1261,55
700,89	1218,54
701,08	1251,31
701,26	1306,60
701,45	1331,18
701,63	1265,64
701,81	1316,84
702,00	1306,60
702,18	1234,93
702,37	1308,65
702,55	1284,08
702,73	1265,64
702,92	1255,40
703,10	1304,56
703,28	1261,55
703,47	1183,73
703,65	1292,27
703,84	1339,37
704,02	1284,08
704,20	1239,02
704,39	1308,65
704,57	1269,74
704,75	1232,88
704,94	1308,65
705,12	1275,88
705,30	1267,69
705,49	1284,08
705,67	1271,79
705,86	1257,45
706,04	1312,75
706,22	1269,74
706,41	1273,84
706,59	1279,98
706,77	1286,12
706,96	1214,45
707,14	1230,83
707,32	1249,26
707,51	1212,40
707,69	1138,67
707,87	1282,03
708,06	1230,83
708,24	1286,12
708,42	1306,60
708,61	1329,13
708,79	1261,55
708,97	1241,07
709,16	1226,73
709,34	1232,88
709,52	1191,92
709,71	1247,21
709,89	1302,51
710,07	1335,28
710,26	1286,12
710,44	1286,12
710,62	1239,02
710,80	1282,03
710,99	1277,93
711,17	1318,89
711,35	1241,07
711,54	1312,75
711,72	1339,37
711,90	1208,30
712,09	1290,22
712,27	1300,46
712,45	1269,74
712,63	1255,40
712,82	1257,45
713,00	1310,70
713,18	1196,01
713,37	1349,61
713,55	1263,60
713,73	1282,03
713,91	1206,25
714,10	1249,26
714,28	1263,60
714,46	1255,40
714,65	1286,12
714,83	1247,21
715,01	1306,60
715,19	1286,12
715,38	1230,83
715,56	1288,17
715,74	1224,69
715,92	1263,60
716,11	1202,16
716,29	1320,94
716,47	1273,84
716,65	1304,56
716,84	1271,79
717,02	1265,64
717,20	1222,64
717,38	1273,84
717,57	1269,74
717,75	1310,70
717,93	1265,64
718,11	1306,60
718,30	1212,40
718,48	1241,07
718,66	1290,22
718,84	1282,03
719,03	1304,56
719,21	1239,02
719,39	1322,99
719,57	1331,18
719,75	1236,97
719,94	1208,30
720,12	1224,69
720,30	1226,73
720,48	1308,65
720,67	1294,32
720,85	1304,56
721,03	1189,87
721,21	1290,22
721,39	1249,26
721,58	1294,32
721,76	1241,07
721,94	1300,46
722,12	1230,83
722,30	1249,26
722,49	1282,03
722,67	1249,26
722,85	1261,55
723,03	1257,45
723,21	1366,00
723,40	1232,88
723,58	1255,40
723,76	1271,79
723,94	1263,60
724,12	1318,89
724,30	1286,12
724,49	1286,12
724,67	1282,03
724,85	1294,32
725,03	1314,80
725,21	1302,51
725,40	1212,40
725,58	1253,36
725,76	1286,12
725,94	1312,75
726,12	1259,50
726,30	1257,45
726,49	1296,36
726,67	1322,99
726,85	1302,51
727,03	1236,97
727,21	1296,36
727,39	1277,93
727,57	1253,36
727,76	1296,36
727,94	1286,12
728,12	1304,56
728,30	1341,42
728,48	1265,64
728,66	1251,31
728,84	1320,94
729,03	1245,16
729,21	1239,02
729,39	1249,26
729,57	1337,32
729,75	1202,16
729,93	1243,12
730,11	1241,07
730,30	1316,84
730,48	1325,04
730,66	1284,08
730,84	1306,60
731,02	1224,69
731,20	1257,45
731,38	1282,03
731,56	1318,89
731,74	1245,16
731,93	1249,26
732,11	1353,71
732,29	1241,07
732,47	1243,12
732,65	1263,60
732,83	1282,03
733,01	1294,32
733,19	1249,26
733,37	1253,36
733,56	1218,54
733,74	1222,64
733,92	1245,16
734,10	1339,37
734,28	1333,23
734,46	1286,12
734,64	1304,56
734,82	1316,84
735,00	1265,64
735,18	1263,60
735,36	1222,64
735,54	1271,79
735,73	1265,64
735,91	1310,70
736,09	1271,79
736,27	1257,45
736,45	1265,64
736,63	1226,73
736,81	1253,36
736,99	1290,22
737,17	1325,04
737,35	1300,46
737,53	1288,17
737,71	1349,61
737,89	1284,08
738,07	1347,56
738,25	1275,88
738,43	1290,22
738,61	1282,03
738,80	1212,40
738,98	1193,97
739,16	1251,31
739,34	1290,22
739,52	1353,71
739,70	1243,12
739,88	1314,80
740,06	1243,12
740,24	1296,36
740,42	1261,55
740,60	1208,30
740,78	1290,22
740,96	1224,69
741,14	1294,32
741,32	1236,97
741,50	1230,83
741,68	1292,27
741,86	1212,40
742,04	1275,88
742,22	1241,07
742,40	1284,08
742,58	1251,31
742,76	1261,55
742,94	1357,80
743,12	1290,22
743,30	1198,06
743,48	1222,64
743,66	1277,93
743,84	1273,84
744,02	1247,21
744,20	1241,07
744,38	1298,41
744,56	1322,99
744,74	1155,05
744,92	1263,60
745,10	1333,23
745,28	1363,95
745,46	1279,98
745,64	1282,03
745,82	1243,12
746,00	1198,06
746,18	1247,21
746,36	1239,02
746,54	1290,22
746,72	1259,50
746,90	1322,99
747,08	1359,85
747,26	1249,26
747,44	1253,36
747,62	1304,56
747,80	1232,88
747,98	1216,49
748,15	1292,27
748,33	1206,25
748,51	1241,07
748,69	1284,08
748,87	1253,36
749,05	1132,53
749,23	1259,50
749,41	1247,21
749,59	1277,93
749,77	1253,36
749,95	1208,30
750,13	1300,46
750,31	1292,27
750,49	1265,64
750,67	1255,40
750,85	1308,65
751,03	1273,84
751,20	1284,08
751,38	1284,08
751,56	1292,27
751,74	1279,98
751,92	1273,84
752,10	1232,88
752,28	1259,50
752,46	1271,79
752,64	1351,66
752,82	1251,31
753,00	1304,56
753,18	1273,84
753,35	1245,16
753,53	1259,50
753,71	1247,21
753,89	1247,21
754,07	1255,40
754,25	1331,18
754,43	1230,83
754,61	1122,29
754,79	1306,60
754,97	1198,06
755,14	1302,51
755,32	1265,64
755,50	1271,79
755,68	1265,64
755,86	1288,17
756,04	1304,56
756,22	1259,50
756,40	1331,18
756,57	1282,03
756,75	1243,12
756,93	1243,12
757,11	1273,84
757,29	1214,45
757,47	1325,04
757,65	1241,07
757,82	1312,75
758,00	1245,16
758,18	1296,36
758,36	1271,79
758,54	1265,64
758,72	1177,58
758,90	1251,31
759,07	1224,69
759,25	1361,90
759,43	1265,64
759,61	1263,60
759,79	1347,56
759,97	1284,08
760,15	1310,70
760,32	1265,64
760,50	1191,92
760,68	1232,88
760,86	1265,64
761,04	1236,97
761,22	1224,69
761,39	1253,36
761,57	1222,64
761,75	1232,88
761,93	1263,60
762,11	1320,94
762,28	1230,83
762,46	1236,97
762,64	1263,60
762,82	1302,51
763,00	1267,69
763,18	1310,70
763,35	1259,50
763,53	1304,56
763,71	1322,99
763,89	1243,12
764,07	1302,51
764,24	1206,25
764,42	1245,16
764,60	1175,53
764,78	1263,60
764,96	1282,03
765,13	1263,60
765,31	1263,60
765,49	1275,88
765,67	1269,74
765,84	1273,84
766,02	1228,78
766,20	1275,88
766,38	1239,02
766,56	1224,69
766,73	1249,26
766,91	1181,68
767,09	1314,80
767,27	1241,07
767,44	1234,93
767,62	1263,60
767,80	1306,60
767,98	1265,64
768,15	1236,97
768,33	1236,97
768,51	1314,80
768,69	1187,82
768,87	1292,27
769,04	1177,58
769,22	1316,84
769,40	1177,58
769,58	1263,60
769,75	1337,32
769,93	1279,98
770,11	1234,93
770,28	1298,41
770,46	1286,12
770,64	1230,83
770,82	1198,06
770,99	1284,08
771,17	1275,88
771,35	1302,51
771,53	1302,51
771,70	1257,45
771,88	1226,73
772,06	1265,64
772,23	1259,50
772,41	1327,08
772,59	1245,16
772,77	1322,99
772,94	1251,31
773,12	1298,41
773,30	1284,08
773,47	1257,45
773,65	1271,79
773,83	1269,74
774,01	1263,60
774,18	1267,69
774,36	1265,64
774,54	1165,29
774,71	1275,88
774,89	1288,17
775,07	1286,12
775,24	1255,40
775,42	1261,55
775,60	1294,32
775,78	1277,93
775,95	1351,66
776,13	1226,73
776,31	1267,69
776,48	1216,49
776,66	1241,07
776,84	1216,49
777,01	1310,70
777,19	1273,84
777,37	1312,75
777,54	1257,45
777,72	1279,98
777,90	1322,99
778,07	1206,25
778,25	1302,51
778,43	1300,46
778,60	1282,03
778,78	1329,13
778,96	1273,84
779,13	1292,27
779,31	1337,32
779,49	1191,92
779,66	1302,51
779,84	1279,98
780,01	1273,84
780,19	1263,60
780,37	1245,16
780,54	1222,64
780,72	1275,88
780,90	1292,27
781,07	1265,64
781,25	1214,45
781,43	1296,36
781,60	1271,79
781,78	1232,88
781,95	1265,64
782,13	1271,79
782,31	1259,50
782,48	1265,64
782,66	1243,12
782,83	1179,63
783,01	1298,41
783,19	1286,12
783,36	1249,26
783,54	1255,40
783,72	1226,73
783,89	1282,03
784,07	1273,84
784,24	1286,12
784,42	1159,15
784,60	1341,42
784,77	1300,46
784,95	1251,31
785,12	1241,07
785,30	1228,78
785,47	1335,28
785,65	1265,64
785,83	1310,70
786,00	1249,26
786,18	1318,89
786,35	1292,27
786,53	1306,60
786,71	1275,88
786,88	1239,02
787,06	1218,54
787,23	1333,23
787,41	1279,98
787,58	1267,69
787,76	1247,21
787,94	1337,32
788,11	1290,22
788,29	1236,97
788,46	1314,80
788,64	1255,40
788,81	1253,36
788,99	1241,07
789,16	1288,17
789,34	1241,07
789,52	1253,36
789,69	1320,94
789,87	1288,17
790,04	1304,56
790,22	1212,40
790,39	1265,64
790,57	1288,17
790,74	1251,31
790,92	1193,97
791,09	1302,51
791,27	1282,03
791,44	1284,08
791,62	1292,27
791,79	1306,60
791,97	1316,84
792,15	1232,88
792,32	1284,08
792,50	1230,83
792,67	1257,45
792,85	1318,89
793,02	1224,69
793,20	1279,98
793,37	1347,56
793,55	1329,13
793,72	1322,99
793,90	1320,94
794,07	1239,02
794,25	1282,03
794,42	1279,98
794,60	1196,01
794,77	1312,75
794,95	1292,27
795,12	1337,32
795,30	1257,45
795,47	1253,36
795,65	1230,83
795,82	1210,35
796,00	1251,31
796,17	1267,69
796,34	1329,13
796,52	1259,50
796,69	1359,85
796,87	1257,45
797,04	1279,98
797,22	1294,32
797,39	1265,64
797,57	1312,75
797,74	1255,40
797,92	1200,11
798,09	1228,78
798,27	1300,46
798,44	1296,36
798,62	1247,21
798,79	1304,56
798,96	1255,40
799,14	1239,02
799,31	1251,31
799,49	1298,41
799,66	1232,88
799,84	1232,88
800,01	1216,49
800,19	1335,28
800,36	1257,45
800,53	1279,98
800,71	1230,83
800,88	1302,51
801,06	1198,06
801,23	1263,60
801,41	1277,93
801,58	1300,46
801,75	1363,95
801,93	1241,07
802,10	1220,59
802,28	1279,98
802,45	1243,12
802,63	1355,76
802,80	1300,46
802,97	1275,88
803,15	1275,88
803,32	1394,67
803,50	1314,80
803,67	1255,40
803,84	1325,04
804,02	1275,88
804,19	1269,74
804,37	1275,88
804,54	1173,49
804,71	1267,69
804,89	1251,31
805,06	1247,21
805,24	1269,74
805,41	1312,75
805,58	1249,26
805,76	1263,60
805,93	1269,74
806,10	1253,36
806,28	1232,88
806,45	1245,16
806,63	1310,70
806,80	1241,07
806,97	1251,31
807,15	1263,60
807,32	1271,79
807,49	1247,21
807,67	1296,36
807,84	1275,88
808,01	1232,88
808,19	1341,42
808,36	1228,78
808,54	1218,54
808,71	1286,12
808,88	1380,33
809,06	1318,89
809,23	1275,88
809,40	1204,21
809,58	1265,64
809,75	1286,12
809,92	1257,45
810,10	1263,60
810,27	1234,93
810,44	1343,47
810,62	1298,41
810,79	1273,84
810,96	1341,42
811,14	1239,02
811,31	1312,75
811,48	1277,93
811,66	1208,30
811,83	1275,88
812,00	1275,88
812,18	1216,49
812,35	1212,40
812,52	1224,69
812,69	1236,97
812,87	1255,40
813,04	1282,03
813,21	1206,25
813,39	1185,77
813,56	1247,21
813,73	1282,03
813,91	1271,79
814,08	1394,67
814,25	1251,31
814,42	1277,93
814,60	1263,60
814,77	1271,79
814,94	1269,74
815,12	1263,60
815,29	1253,36
815,46	1245,16
815,63	1263,60
815,81	1247,21
815,98	1292,27
816,15	1273,84
816,33	1259,50
816,50	1273,84
816,67	1206,25
816,84	1269,74
817,02	1308,65
817,19	1286,12
817,36	1239,02
817,53	1230,83
817,71	1271,79
817,88	1282,03
818,05	1220,59
818,22	1273,84
818,40	1310,70
818,57	1220,59
818,74	1212,40
818,91	1292,27
819,09	1286,12
819,26	1331,18
819,43	1294,32
819,60	1241,07
819,78	1273,84
819,95	1255,40
820,12	1249,26
820,29	1292,27
820,47	1300,46
820,64	1263,60
820,81	1292,27
820,98	1249,26
821,15	1277,93
821,33	1290,22
821,50	1298,41
821,67	1279,98
821,84	1300,46
822,02	1241,07
822,19	1214,45
822,36	1279,98
822,53	1171,44
822,70	1284,08
822,88	1218,54
823,05	1308,65
823,22	1191,92
823,39	1329,13
823,56	1247,21
823,74	1292,27
823,91	1245,16
824,08	1271,79
824,25	1263,60
824,42	1239,02
824,60	1302,51
824,77	1239,02
824,94	1202,16
825,11	1245,16
825,28	1284,08
825,45	1247,21
825,63	1290,22
825,80	1245,16
825,97	1282,03
826,14	1267,69
826,31	1245,16
826,48	1341,42
826,66	1341,42
826,83	1263,60
827,00	1253,36
827,17	1290,22
827,34	1294,32
827,51	1275,88
827,69	1253,36
827,86	1339,37
828,03	1290,22
828,20	1249,26
828,37	1171,44
828,54	1249,26
828,71	1163,25
828,89	1232,88
829,06	1243,12
829,23	1216,49
829,40	1292,27
829,57	1257,45
829,74	1275,88
829,91	1335,28
830,09	1284,08
830,26	1214,45
830,43	1249,26
830,60	1302,51
830,77	1269,74
830,94	1269,74
831,11	1296,36
831,28	1253,36
831,46	1310,70
831,63	1269,74
831,80	1302,51
831,97	1206,25
832,14	1273,84
832,31	1290,22
832,48	1263,60
832,65	1290,22
832,82	1298,41
832,99	1284,08
833,17	1239,02
833,34	1282,03
833,51	1359,85
833,68	1230,83
833,85	1277,93
834,02	1363,95
834,19	1288,17
834,36	1247,21
834,53	1275,88
834,70	1263,60
834,87	1265,64
835,04	1239,02
835,22	1249,26
835,39	1224,69
835,56	1294,32
835,73	1212,40
835,90	1273,84
836,07	1265,64
836,24	1261,55
836,41	1216,49
836,58	1263,60
836,75	1331,18
836,92	1224,69
837,09	1232,88
837,26	1245,16
837,43	1230,83
837,60	1257,45
837,77	1253,36
837,94	1234,93
838,12	1206,25
838,29	1279,98
838,46	1236,97
838,63	1224,69
838,80	1218,54
838,97	1222,64
839,14	1296,36
839,31	1218,54
839,48	1267,69
839,65	1290,22
839,82	1288,17
839,99	1243,12
840,16	1273,84
840,33	1277,93
840,50	1263,60
840,67	1275,88
840,84	1253,36
841,01	1277,93
841,18	1173,49
841,35	1308,65
841,52	1284,08
841,69	1294,32
841,86	1298,41
842,03	1228,78
842,20	1284,08
842,37	1279,98
842,54	1251,31
842,71	1335,28
842,88	1257,45
843,05	1310,70
843,22	1296,36
843,39	1271,79
843,56	1286,12
843,73	1279,98
843,90	1267,69
844,07	1265,64
844,24	1228,78
844,41	1189,87
844,58	1249,26
844,75	1210,35
844,92	1259,50
845,09	1204,21
845,26	1290,22
845,43	1239,02
845,60	1296,36
845,77	1349,61
845,94	1273,84
846,10	1271,79
846,27	1269,74
846,44	1331,18
846,61	1261,55
846,78	1200,11
846,95	1325,04
847,12	1224,69
847,29	1230,83
847,46	1277,93
847,63	1339,37
847,80	1243,12
847,97	1222,64
848,14	1269,74
848,31	1320,94
848,48	1327,08
848,65	1273,84
848,82	1300,46
848,98	1232,88
849,15	1345,52
849,32	1347,56
849,49	1329,13
849,66	1302,51
849,83	1372,14
850,00	1273,84
850,17	1294,32
850,34	1257,45
850,51	1245,16
850,68	1339,37
850,85	1267,69
851,01	1322,99
851,18	1234,93
851,35	1265,64
851,52	1275,88
851,69	1347,56
851,86	1214,45
852,03	1286,12
852,20	1230,83
852,37	1236,97
852,53	1226,73
852,70	1261,55
852,87	1300,46
853,04	1271,79
853,21	1329,13
853,38	1314,80
853,55	1284,08
853,72	1327,08
853,89	1308,65
854,05	1255,40
854,22	1208,30
854,39	1310,70
854,56	1243,12
854,73	1241,07
854,90	1230,83
855,07	1257,45
855,23	1325,04
855,40	1376,24
855,57	1222,64
855,74	1282,03
855,91	1312,75
856,08	1316,84
856,25	1257,45
856,41	1284,08
856,58	1243,12
856,75	1239,02
856,92	1300,46
857,09	1212,40
857,26	1310,70
857,42	1179,63
857,59	1212,40
857,76	1249,26
857,93	1322,99
858,10	1208,30
858,27	1193,97
858,43	1271,79
858,60	1267,69
858,77	1134,57
858,94	1210,35
859,11	1343,47
859,27	1230,83
859,44	1234,93
859,61	1220,59
859,78	1271,79
859,95	1243,12
860,12	1267,69
860,28	1224,69
860,45	1263,60
860,62	1288,17
860,79	1224,69
860,95	1261,55
861,12	1288,17
861,29	1241,07
861,46	1306,60
861,63	1269,74
861,79	1191,92
861,96	1337,32
862,13	1296,36
862,30	1282,03
862,47	1331,18
862,63	1210,35
862,80	1331,18
862,97	1196,01
863,14	1275,88
863,30	1249,26
863,47	1173,49
863,64	1257,45
863,81	1275,88
863,97	1265,64
864,14	1216,49
864,31	1277,93
864,48	1277,93
864,65	1196,01
864,81	1267,69
864,98	1220,59
865,15	1269,74
865,32	1292,27
865,48	1269,74
865,65	1218,54
865,82	1247,21
865,98	1255,40
866,15	1265,64
866,32	1263,60
866,49	1288,17
866,65	1290,22
866,82	1224,69
866,99	1253,36
867,16	1273,84
867,32	1273,84
867,49	1308,65
867,66	1210,35
867,83	1263,60
867,99	1269,74
868,16	1193,97
868,33	1271,79
868,49	1271,79
868,66	1236,97
868,83	1322,99
868,99	1257,45
869,16	1275,88
869,33	1277,93
869,50	1187,82
869,66	1277,93
869,83	1202,16
870,00	1181,68
870,16	1314,80
870,33	1290,22
870,50	1282,03
870,66	1210,35
870,83	1329,13
871,00	1234,93
871,17	1230,83
871,33	1243,12
871,50	1249,26
871,67	1279,98
871,83	1222,64
872,00	1279,98
872,17	1312,75
872,33	1316,84
872,50	1298,41
872,67	1224,69
872,83	1288,17
873,00	1298,41
873,17	1171,44
873,33	1273,84
873,50	1259,50
873,67	1230,83
873,83	1255,40
874,00	1257,45
874,16	1232,88
874,33	1286,12
874,50	1261,55
874,66	1243,12
874,83	1339,37
875,00	1208,30
875,16	1273,84
875,33	1310,70
875,50	1267,69
875,66	1269,74
875,83	1279,98
875,99	1312,75
876,16	1243,12
876,33	1294,32
876,49	1249,26
876,66	1236,97
876,83	1273,84
876,99	1241,07
877,16	1259,50
877,32	1273,84
877,49	1273,84
877,66	1265,64
877,82	1265,64
877,99	1279,98
878,15	1349,61
878,32	1300,46
878,49	1325,04
878,65	1273,84
878,82	1294,32
878,98	1214,45
879,15	1239,02
879,32	1273,84
879,48	1325,04
879,65	1271,79
879,81	1316,84
879,98	1251,31
880,15	1243,12
880,31	1265,64
880,48	1298,41
880,64	1251,31
880,81	1275,88
880,97	1277,93
881,14	1296,36
881,31	1234,93
881,47	1353,71
881,64	1284,08
881,80	1288,17
881,97	1275,88
882,13	1210,35
882,30	1273,84
882,47	1277,93
882,63	1261,55
882,80	1347,56
882,96	1255,40
883,13	1273,84
883,29	1308,65
883,46	1306,60
883,62	1286,12
883,79	1273,84
883,95	1298,41
884,12	1245,16
884,29	1314,80
884,45	1232,88
884,62	1261,55
884,78	1234,93
884,95	1191,92
885,11	1245,16
885,28	1261,55
885,44	1343,47
885,61	1298,41
885,77	1241,07
885,94	1230,83
886,10	1314,80
886,27	1196,01
886,43	1198,06
886,60	1263,60
886,76	1189,87
886,93	1222,64
887,09	1306,60
887,26	1239,02
887,42	1241,07
887,59	1261,55
887,75	1247,21
887,92	1277,93
888,08	1322,99
888,25	1261,55
888,41	1273,84
888,58	1216,49
888,74	1220,59
888,91	1316,84
>>>>>End Processed Spectral Data<<<<<
