SpectraSuite Data File
++++++++++++++++++++++++++++++++++++
Date: Sun Apr 03 19:55:52 CEST 2016
User: root
Dark Spectrum Present: No
Reference Spectrum Present: No
Number of Sampled Component Spectra: 1
Spectrometers: USB4C02835
Integration Time (usec): 10000 (USB4C02835)
Spectra Averaged: 1 (USB4C02835)
Boxcar Smoothing: 0 (USB4C02835)
Correct for Electrical Dark: No (USB4C02835)
Strobe/Lamp Enabled: No (USB4C02835)
Correct for Detector Non-linearity: No (USB4C02835)
Correct for Stray Light: No (USB4C02835)
Number of Pixels in Processed Spectrum: 3648
>>>>>Begin Processed Spectral Data<<<<<
177,47	1255,40
177,69	1255,40
177,91	1255,40
178,13	1298,41
178,36	1243,12
178,58	1329,13
178,80	1261,55
179,02	1214,45
179,24	1296,36
179,46	1306,60
179,68	1212,40
179,90	1294,32
180,13	1322,99
180,35	1175,53
180,57	1300,46
180,79	1327,08
181,01	1296,36
181,23	1269,74
181,45	1239,02
181,67	1247,21
181,90	1304,56
182,12	1243,12
182,34	1314,80
182,56	1241,07
182,78	1241,07
183,00	1204,21
183,22	1245,16
183,44	1251,31
183,66	1212,40
183,89	1257,45
184,11	1259,50
184,33	1257,45
184,55	1284,08
184,77	1298,41
184,99	1271,79
185,21	1245,16
185,43	1335,28
185,65	1247,21
185,87	1290,22
186,10	1279,98
186,32	1304,56
186,54	1308,65
186,76	1282,03
186,98	1308,65
187,20	1243,12
187,42	1234,93
187,64	1341,42
187,86	1275,88
188,08	1239,02
188,30	1257,45
188,52	1325,04
188,75	1257,45
188,97	1247,21
189,19	1302,51
189,41	1253,36
189,63	1294,32
189,85	1249,26
190,07	1214,45
190,29	1263,60
190,51	1286,12
190,73	1239,02
190,95	1312,75
191,17	1269,74
191,39	1269,74
191,61	1284,08
191,84	1243,12
192,06	1269,74
192,28	1310,70
192,50	1308,65
192,72	1241,07
192,94	1302,51
193,16	1220,59
193,38	1273,84
193,60	1224,69
193,82	1206,25
194,04	1331,18
194,26	1265,64
194,48	1292,27
194,70	1290,22
194,92	1284,08
195,14	1273,84
195,36	1187,82
195,58	1318,89
195,80	1279,98
196,02	1228,78
196,24	1343,47
196,46	1302,51
196,69	1210,35
196,91	1318,89
197,13	1288,17
197,35	1243,12
197,57	1388,52
197,79	1277,93
198,01	1243,12
198,23	1304,56
198,45	1277,93
198,67	1308,65
198,89	1355,76
199,11	1335,28
199,33	1253,36
199,55	1277,93
199,77	1265,64
199,99	1279,98
200,21	1284,08
200,43	1294,32
200,65	1251,31
200,87	1263,60
201,09	1261,55
201,31	1308,65
201,53	1247,21
201,75	1300,46
201,97	1277,93
202,19	1294,32
202,41	1288,17
202,63	1263,60
202,85	1269,74
203,07	1282,03
203,29	1210,35
203,51	1267,69
203,73	1249,26
203,95	1290,22
204,17	1232,88
204,39	1271,79
204,61	1279,98
204,83	1261,55
205,05	1241,07
205,27	1265,64
205,49	1314,80
205,71	1224,69
205,93	1263,60
206,15	1337,32
206,37	1226,73
206,59	1263,60
206,81	1265,64
207,03	1251,31
207,25	1249,26
207,47	1232,88
207,69	1236,97
207,91	1306,60
208,13	1206,25
208,34	1271,79
208,56	1300,46
208,78	1296,36
209,00	1273,84
209,22	1249,26
209,44	1249,26
209,66	1232,88
209,88	1271,79
210,10	1286,12
210,32	1253,36
210,54	1214,45
210,76	1224,69
210,98	1202,16
211,20	1314,80
211,42	1228,78
211,64	1245,16
211,86	1220,59
212,08	1228,78
212,30	1279,98
212,52	1304,56
212,74	1241,07
212,96	1243,12
213,17	1292,27
213,39	1163,25
213,61	1236,97
213,83	1226,73
214,05	1310,70
214,27	1259,50
214,49	1255,40
214,71	1191,92
214,93	1243,12
215,15	1279,98
215,37	1300,46
215,59	1204,21
215,81	1316,84
216,03	1257,45
216,24	1329,13
216,46	1286,12
216,68	1312,75
216,90	1284,08
217,12	1292,27
217,34	1322,99
217,56	1259,50
217,78	1282,03
218,00	1267,69
218,22	1298,41
218,44	1259,50
218,66	1288,17
218,87	1304,56
219,09	1222,64
219,31	1279,98
219,53	1273,84
219,75	1265,64
219,97	1304,56
220,19	1325,04
220,41	1288,17
220,63	1304,56
220,85	1277,93
221,06	1316,84
221,28	1191,92
221,50	1255,40
221,72	1249,26
221,94	1288,17
222,16	1263,60
222,38	1224,69
222,60	1339,37
222,82	1214,45
223,03	1261,55
223,25	1255,40
223,47	1288,17
223,69	1245,16
223,91	1290,22
224,13	1224,69
224,35	1255,40
224,57	1331,18
224,78	1302,51
225,00	1318,89
225,22	1245,16
225,44	1241,07
225,66	1271,79
225,88	1251,31
226,10	1310,70
226,32	1279,98
226,53	1251,31
226,75	1257,45
226,97	1202,16
227,19	1273,84
227,41	1308,65
227,63	1212,40
227,85	1263,60
228,06	1279,98
228,28	1304,56
228,50	1300,46
228,72	1249,26
228,94	1214,45
229,16	1267,69
229,37	1275,88
229,59	1239,02
229,81	1277,93
230,03	1226,73
230,25	1232,88
230,47	1263,60
230,69	1220,59
230,90	1206,25
231,12	1255,40
231,34	1343,47
231,56	1255,40
231,78	1253,36
232,00	1191,92
232,21	1263,60
232,43	1341,42
232,65	1300,46
232,87	1245,16
233,09	1181,68
233,30	1249,26
233,52	1234,93
233,74	1402,86
233,96	1243,12
234,18	1214,45
234,40	1187,82
234,61	1255,40
234,83	1212,40
235,05	1353,71
235,27	1302,51
235,49	1314,80
235,70	1257,45
235,92	1255,40
236,14	1243,12
236,36	1259,50
236,58	1343,47
236,79	1277,93
237,01	1177,58
237,23	1265,64
237,45	1249,26
237,67	1284,08
237,88	1298,41
238,10	1269,74
238,32	1239,02
238,54	1273,84
238,76	1224,69
238,97	1331,18
239,19	1294,32
239,41	1263,60
239,63	1271,79
239,85	1216,49
240,06	1296,36
240,28	1282,03
240,50	1261,55
240,72	1247,21
240,93	1255,40
241,15	1228,78
241,37	1308,65
241,59	1290,22
241,81	1204,21
242,02	1273,84
242,24	1255,40
242,46	1198,06
242,68	1249,26
242,89	1288,17
243,11	1257,45
243,33	1347,56
243,55	1267,69
243,76	1322,99
243,98	1234,93
244,20	1284,08
244,42	1259,50
244,64	1253,36
244,85	1265,64
245,07	1261,55
245,29	1286,12
245,51	1251,31
245,72	1300,46
245,94	1236,97
246,16	1294,32
246,38	1306,60
246,59	1245,16
246,81	1253,36
247,03	1232,88
247,24	1335,28
247,46	1282,03
247,68	1232,88
247,90	1310,70
248,11	1292,27
248,33	1357,80
248,55	1239,02
248,77	1290,22
248,98	1222,64
249,20	1302,51
249,42	1282,03
249,64	1206,25
249,85	1261,55
250,07	1296,36
250,29	1214,45
250,50	1296,36
250,72	1290,22
250,94	1275,88
251,16	1234,93
251,37	1228,78
251,59	1269,74
251,81	1257,45
252,02	1265,64
252,24	1320,94
252,46	1282,03
252,68	1202,16
252,89	1290,22
253,11	1204,21
253,33	1249,26
253,54	1255,40
253,76	1226,73
253,98	1179,63
254,20	1259,50
254,41	1271,79
254,63	1269,74
254,85	1247,21
255,06	1269,74
255,28	1255,40
255,50	1288,17
255,71	1259,50
255,93	1331,18
256,15	1310,70
256,36	1265,64
256,58	1257,45
256,80	1269,74
257,02	1282,03
257,23	1279,98
257,45	1320,94
257,67	1308,65
257,88	1230,83
258,10	1269,74
258,32	1286,12
258,53	1325,04
258,75	1282,03
258,97	1239,02
259,18	1284,08
259,40	1247,21
259,62	1308,65
259,83	1259,50
260,05	1251,31
260,27	1208,30
260,48	1263,60
260,70	1236,97
260,92	1347,56
261,13	1251,31
261,35	1196,01
261,57	1269,74
261,78	1167,34
262,00	1236,97
262,22	1322,99
262,43	1333,23
262,65	1261,55
262,86	1279,98
263,08	1263,60
263,30	1204,21
263,51	1286,12
263,73	1210,35
263,95	1322,99
264,16	1239,02
264,38	1265,64
264,60	1300,46
264,81	1288,17
265,03	1247,21
265,25	1310,70
265,46	1277,93
265,68	1308,65
265,89	1282,03
266,11	1218,54
266,33	1298,41
266,54	1220,59
266,76	1222,64
266,98	1284,08
267,19	1282,03
267,41	1224,69
267,62	1241,07
267,84	1267,69
268,06	1243,12
268,27	1277,93
268,49	1279,98
268,70	1341,42
268,92	1273,84
269,14	1316,84
269,35	1310,70
269,57	1234,93
269,79	1218,54
270,00	1241,07
270,22	1314,80
270,43	1273,84
270,65	1241,07
270,87	1286,12
271,08	1241,07
271,30	1277,93
271,51	1337,32
271,73	1232,88
271,95	1302,51
272,16	1329,13
272,38	1224,69
272,59	1261,55
272,81	1267,69
273,02	1208,30
273,24	1275,88
273,46	1335,28
273,67	1331,18
273,89	1316,84
274,10	1279,98
274,32	1277,93
274,54	1273,84
274,75	1212,40
274,97	1224,69
275,18	1290,22
275,40	1271,79
275,61	1232,88
275,83	1304,56
276,05	1239,02
276,26	1288,17
276,48	1259,50
276,69	1261,55
276,91	1269,74
277,12	1292,27
277,34	1322,99
277,55	1265,64
277,77	1249,26
277,99	1290,22
278,20	1220,59
278,42	1259,50
278,63	1294,32
278,85	1282,03
279,06	1144,81
279,28	1294,32
279,49	1290,22
279,71	1261,55
279,93	1265,64
280,14	1286,12
280,36	1189,87
280,57	1310,70
280,79	1263,60
281,00	1245,16
281,22	1236,97
281,43	1249,26
281,65	1325,04
281,86	1263,60
282,08	1214,45
282,29	1290,22
282,51	1259,50
282,73	1290,22
282,94	1239,02
283,16	1261,55
283,37	1329,13
283,59	1269,74
283,80	1282,03
284,02	1245,16
284,23	1298,41
284,45	1232,88
284,66	1245,16
284,88	1181,68
285,09	1191,92
285,31	1277,93
285,52	1269,74
285,74	1259,50
285,95	1191,92
286,17	1273,84
286,38	1273,84
286,60	1255,40
286,81	1220,59
287,03	1265,64
287,24	1282,03
287,46	1345,52
287,67	1247,21
287,89	1312,75
288,10	1273,84
288,32	1224,69
288,53	1306,60
288,75	1310,70
288,96	1271,79
289,18	1251,31
289,39	1302,51
289,61	1294,32
289,82	1273,84
290,04	1288,17
290,25	1310,70
290,47	1273,84
290,68	1284,08
290,90	1273,84
291,11	1206,25
291,33	1216,49
291,54	1253,36
291,76	1296,36
291,97	1261,55
292,18	1255,40
292,40	1327,08
292,61	1263,60
292,83	1271,79
293,04	1312,75
293,26	1327,08
293,47	1228,78
293,69	1239,02
293,90	1220,59
294,12	1249,26
294,33	1253,36
294,55	1249,26
294,76	1267,69
294,97	1351,66
295,19	1347,56
295,40	1308,65
295,62	1239,02
295,83	1322,99
296,05	1329,13
296,26	1241,07
296,48	1261,55
296,69	1263,60
296,90	1243,12
297,12	1269,74
297,33	1288,17
297,55	1247,21
297,76	1294,32
297,98	1234,93
298,19	1277,93
298,41	1269,74
298,62	1277,93
298,83	1325,04
299,05	1269,74
299,26	1259,50
299,48	1257,45
299,69	1236,97
299,90	1343,47
300,12	1255,40
300,33	1263,60
300,55	1298,41
300,76	1298,41
300,98	1265,64
301,19	1279,98
301,40	1331,18
301,62	1279,98
301,83	1279,98
302,05	1298,41
302,26	1279,98
302,47	1292,27
302,69	1310,70
302,90	1265,64
303,12	1216,49
303,33	1282,03
303,54	1314,80
303,76	1216,49
303,97	1247,21
304,19	1306,60
304,40	1269,74
304,61	1253,36
304,83	1282,03
305,04	1247,21
305,26	1232,88
305,47	1220,59
305,68	1255,40
305,90	1232,88
306,11	1294,32
306,33	1306,60
306,54	1239,02
306,75	1265,64
306,97	1269,74
307,18	1224,69
307,39	1220,59
307,61	1329,13
307,82	1263,60
308,04	1247,21
308,25	1210,35
308,46	1275,88
308,68	1263,60
308,89	1329,13
309,10	1310,70
309,32	1241,07
309,53	1267,69
309,74	1337,32
309,96	1226,73
310,17	1267,69
310,39	1216,49
310,60	1247,21
310,81	1273,84
311,03	1224,69
311,24	1261,55
311,45	1273,84
311,67	1259,50
311,88	1306,60
312,09	1241,07
312,31	1241,07
312,52	1257,45
312,73	1296,36
312,95	1245,16
313,16	1241,07
313,37	1218,54
313,59	1216,49
313,80	1189,87
314,01	1271,79
314,23	1263,60
314,44	1284,08
314,65	1208,30
314,87	1320,94
315,08	1255,40
315,29	1277,93
315,51	1228,78
315,72	1308,65
315,93	1220,59
316,15	1263,60
316,36	1316,84
316,57	1224,69
316,79	1259,50
317,00	1286,12
317,21	1294,32
317,43	1218,54
317,64	1308,65
317,85	1234,93
318,07	1306,60
318,28	1314,80
318,49	1322,99
318,70	1216,49
318,92	1277,93
319,13	1263,60
319,34	1282,03
319,56	1232,88
319,77	1234,93
319,98	1310,70
320,20	1292,27
320,41	1212,40
320,62	1282,03
320,83	1296,36
321,05	1320,94
321,26	1251,31
321,47	1230,83
321,69	1271,79
321,90	1273,84
322,11	1302,51
322,32	1288,17
322,54	1337,32
322,75	1310,70
322,96	1249,26
323,18	1210,35
323,39	1284,08
323,60	1226,73
323,81	1269,74
324,03	1275,88
324,24	1273,84
324,45	1255,40
324,66	1267,69
324,88	1247,21
325,09	1189,87
325,30	1259,50
325,52	1314,80
325,73	1136,62
325,94	1302,51
326,15	1234,93
326,37	1259,50
326,58	1247,21
326,79	1226,73
327,00	1269,74
327,22	1265,64
327,43	1222,64
327,64	1271,79
327,85	1271,79
328,07	1224,69
328,28	1243,12
328,49	1230,83
328,70	1304,56
328,92	1277,93
329,13	1220,59
329,34	1249,26
329,55	1275,88
329,76	1273,84
329,98	1165,29
330,19	1279,98
330,40	1286,12
330,61	1263,60
330,83	1245,16
331,04	1296,36
331,25	1191,92
331,46	1298,41
331,68	1224,69
331,89	1284,08
332,10	1183,73
332,31	1275,88
332,52	1239,02
332,74	1300,46
332,95	1343,47
333,16	1208,30
333,37	1232,88
333,58	1239,02
333,80	1341,42
334,01	1282,03
334,22	1247,21
334,43	1318,89
334,64	1292,27
334,86	1312,75
335,07	1267,69
335,28	1226,73
335,49	1263,60
335,70	1159,15
335,92	1329,13
336,13	1304,56
336,34	1261,55
336,55	1296,36
336,76	1325,04
336,98	1234,93
337,19	1325,04
337,40	1234,93
337,61	1357,80
337,82	1282,03
338,04	1320,94
338,25	1228,78
338,46	1247,21
338,67	1263,60
338,88	1220,59
339,09	1314,80
339,31	1322,99
339,52	1265,64
339,73	1241,07
339,94	1247,21
340,15	1245,16
340,36	1255,40
340,58	1236,97
340,79	1273,84
341,00	1210,35
341,21	1200,11
341,42	1253,36
341,63	1310,70
341,85	1236,97
342,06	1277,93
342,27	1261,55
342,48	1222,64
342,69	1318,89
342,90	1255,40
343,12	1267,69
343,33	1271,79
343,54	1257,45
343,75	1249,26
343,96	1247,21
344,17	1222,64
344,38	1314,80
344,60	1279,98
344,81	1241,07
345,02	1304,56
345,23	1210,35
345,44	1314,80
345,65	1249,26
345,86	1310,70
346,07	1234,93
346,29	1314,80
346,50	1267,69
346,71	1265,64
346,92	1179,63
347,13	1320,94
347,34	1249,26
347,55	1253,36
347,76	1261,55
347,98	1236,97
348,19	1245,16
348,40	1300,46
348,61	1263,60
348,82	1251,31
349,03	1282,03
349,24	1247,21
349,45	1236,97
349,66	1247,21
349,88	1249,26
350,09	1269,74
350,30	1245,16
350,51	1226,73
350,72	1345,52
350,93	1269,74
351,14	1204,21
351,35	1275,88
351,56	1245,16
351,77	1286,12
351,99	1261,55
352,20	1296,36
352,41	1284,08
352,62	1294,32
352,83	1243,12
353,04	1339,37
353,25	1187,82
353,46	1214,45
353,67	1267,69
353,88	1247,21
354,09	1245,16
354,30	1239,02
354,52	1245,16
354,73	1263,60
354,94	1337,32
355,15	1308,65
355,36	1282,03
355,57	1224,69
355,78	1241,07
355,99	1370,09
356,20	1300,46
356,41	1261,55
356,62	1271,79
356,83	1234,93
357,04	1187,82
357,25	1292,27
357,46	1222,64
357,68	1310,70
357,89	1241,07
358,10	1279,98
358,31	1187,82
358,52	1267,69
358,73	1296,36
358,94	1239,02
359,15	1318,89
359,36	1267,69
359,57	1298,41
359,78	1228,78
359,99	1224,69
360,20	1230,83
360,41	1265,64
360,62	1265,64
360,83	1245,16
361,04	1292,27
361,25	1265,64
361,46	1267,69
361,67	1302,51
361,88	1290,22
362,09	1214,45
362,30	1265,64
362,51	1257,45
362,72	1265,64
362,93	1267,69
363,14	1275,88
363,35	1241,07
363,56	1247,21
363,78	1306,60
363,99	1290,22
364,20	1247,21
364,41	1314,80
364,62	1234,93
364,83	1261,55
365,04	1275,88
365,25	1345,52
365,46	1290,22
365,67	1243,12
365,88	1204,21
366,09	1245,16
366,30	1341,42
366,51	1292,27
366,72	1245,16
366,93	1269,74
367,14	1214,45
367,35	1304,56
367,56	1261,55
367,77	1255,40
367,98	1288,17
368,18	1214,45
368,39	1286,12
368,60	1308,65
368,81	1277,93
369,02	1251,31
369,23	1265,64
369,44	1290,22
369,65	1277,93
369,86	1189,87
370,07	1269,74
370,28	1212,40
370,49	1290,22
370,70	1253,36
370,91	1355,76
371,12	1316,84
371,33	1298,41
371,54	1294,32
371,75	1296,36
371,96	1271,79
372,17	1279,98
372,38	1255,40
372,59	1282,03
372,80	1290,22
373,01	1212,40
373,22	1216,49
373,43	1200,11
373,64	1316,84
373,85	1263,60
374,06	1298,41
374,26	1251,31
374,47	1314,80
374,68	1304,56
374,89	1239,02
375,10	1308,65
375,31	1286,12
375,52	1253,36
375,73	1329,13
375,94	1300,46
376,15	1296,36
376,36	1245,16
376,57	1288,17
376,78	1296,36
376,99	1245,16
377,20	1322,99
377,40	1232,88
377,61	1300,46
377,82	1218,54
378,03	1212,40
378,24	1253,36
378,45	1306,60
378,66	1296,36
378,87	1310,70
379,08	1265,64
379,29	1232,88
379,50	1218,54
379,71	1290,22
379,91	1261,55
380,12	1269,74
380,33	1239,02
380,54	1308,65
380,75	1202,16
380,96	1269,74
381,17	1224,69
381,38	1216,49
381,59	1314,80
381,80	1263,60
382,00	1234,93
382,21	1331,18
382,42	1224,69
382,63	1282,03
382,84	1357,80
383,05	1251,31
383,26	1226,73
383,47	1241,07
383,68	1296,36
383,88	1191,92
384,09	1296,36
384,30	1218,54
384,51	1245,16
384,72	1236,97
384,93	1271,79
385,14	1236,97
385,35	1288,17
385,55	1331,18
385,76	1239,02
385,97	1292,27
386,18	1304,56
386,39	1236,97
386,60	1290,22
386,81	1279,98
387,02	1230,83
387,22	1284,08
387,43	1241,07
387,64	1327,08
387,85	1265,64
388,06	1239,02
388,27	1302,51
388,48	1253,36
388,68	1239,02
388,89	1306,60
389,10	1282,03
389,31	1212,40
389,52	1257,45
389,73	1236,97
389,93	1189,87
390,14	1247,21
390,35	1282,03
390,56	1292,27
390,77	1288,17
390,98	1296,36
391,18	1259,50
391,39	1263,60
391,60	1241,07
391,81	1284,08
392,02	1279,98
392,23	1312,75
392,43	1286,12
392,64	1314,80
392,85	1284,08
393,06	1224,69
393,27	1296,36
393,47	1220,59
393,68	1284,08
393,89	1249,26
394,10	1267,69
394,31	1243,12
394,52	1265,64
394,72	1269,74
394,93	1196,01
395,14	1241,07
395,35	1366,00
395,56	1286,12
395,76	1247,21
395,97	1368,04
396,18	1288,17
396,39	1290,22
396,60	1355,76
396,80	1286,12
397,01	1304,56
397,22	1243,12
397,43	1306,60
397,64	1241,07
397,84	1245,16
398,05	1308,65
398,26	1316,84
398,47	1247,21
398,67	1255,40
398,88	1247,21
399,09	1200,11
399,30	1230,83
399,51	1249,26
399,71	1247,21
399,92	1230,83
400,13	1241,07
400,34	1257,45
400,54	1243,12
400,75	1249,26
400,96	1228,78
401,17	1277,93
401,37	1302,51
401,58	1263,60
401,79	1189,87
402,00	1247,21
402,21	1304,56
402,41	1290,22
402,62	1312,75
402,83	1263,60
403,04	1273,84
403,24	1243,12
403,45	1220,59
403,66	1239,02
403,87	1198,06
404,07	1329,13
404,28	1290,22
404,49	1216,49
404,70	1259,50
404,90	1322,99
405,11	1288,17
405,32	1292,27
405,52	1234,93
405,73	1267,69
405,94	1234,93
406,15	1193,97
406,35	1249,26
406,56	1380,33
406,77	1286,12
406,98	1210,35
407,18	1232,88
407,39	1279,98
407,60	1232,88
407,80	1275,88
408,01	1265,64
408,22	1228,78
408,43	1259,50
408,63	1234,93
408,84	1257,45
409,05	1249,26
409,25	1257,45
409,46	1380,33
409,67	1187,82
409,88	1277,93
410,08	1296,36
410,29	1275,88
410,50	1247,21
410,70	1279,98
410,91	1267,69
411,12	1232,88
411,32	1212,40
411,53	1234,93
411,74	1300,46
411,95	1298,41
412,15	1216,49
412,36	1269,74
412,57	1263,60
412,77	1331,18
412,98	1210,35
413,19	1279,98
413,39	1271,79
413,60	1232,88
413,81	1300,46
414,01	1241,07
414,22	1296,36
414,43	1261,55
414,63	1306,60
414,84	1288,17
415,05	1265,64
415,25	1265,64
415,46	1263,60
415,67	1239,02
415,87	1206,25
416,08	1236,97
416,29	1290,22
416,49	1357,80
416,70	1224,69
416,91	1288,17
417,11	1218,54
417,32	1224,69
417,53	1269,74
417,73	1222,64
417,94	1245,16
418,15	1247,21
418,35	1234,93
418,56	1251,31
418,77	1306,60
418,97	1265,64
419,18	1284,08
419,38	1308,65
419,59	1267,69
419,80	1269,74
420,00	1230,83
420,21	1243,12
420,42	1353,71
420,62	1310,70
420,83	1267,69
421,04	1271,79
421,24	1236,97
421,45	1230,83
421,65	1290,22
421,86	1284,08
422,07	1234,93
422,27	1234,93
422,48	1290,22
422,69	1265,64
422,89	1277,93
423,10	1306,60
423,30	1318,89
423,51	1261,55
423,72	1241,07
423,92	1241,07
424,13	1294,32
424,33	1288,17
424,54	1267,69
424,75	1320,94
424,95	1243,12
425,16	1290,22
425,36	1247,21
425,57	1288,17
425,78	1279,98
425,98	1261,55
426,19	1245,16
426,39	1286,12
426,60	1251,31
426,81	1271,79
427,01	1265,64
427,22	1316,84
427,42	1200,11
427,63	1292,27
427,83	1230,83
428,04	1198,06
428,25	1282,03
428,45	1304,56
428,66	1204,21
428,86	1265,64
429,07	1322,99
429,28	1279,98
429,48	1325,04
429,69	1310,70
429,89	1263,60
430,10	1282,03
430,30	1312,75
430,51	1308,65
430,71	1286,12
430,92	1236,97
431,13	1261,55
431,33	1279,98
431,54	1255,40
431,74	1306,60
431,95	1273,84
432,15	1275,88
432,36	1296,36
432,56	1296,36
432,77	1288,17
432,98	1196,01
433,18	1349,61
433,39	1275,88
433,59	1193,97
433,80	1327,08
434,00	1343,47
434,21	1259,50
434,41	1286,12
434,62	1249,26
434,82	1245,16
435,03	1290,22
435,23	1318,89
435,44	1273,84
435,64	1273,84
435,85	1259,50
436,06	1279,98
436,26	1306,60
436,47	1249,26
436,67	1228,78
436,88	1257,45
437,08	1316,84
437,29	1279,98
437,49	1255,40
437,70	1253,36
437,90	1271,79
438,11	1251,31
438,31	1339,37
438,52	1282,03
438,72	1261,55
438,93	1351,66
439,13	1290,22
439,34	1349,61
439,54	1255,40
439,75	1243,12
439,95	1347,56
440,16	1282,03
440,36	1273,84
440,57	1216,49
440,77	1312,75
440,98	1290,22
441,18	1308,65
441,39	1286,12
441,59	1290,22
441,80	1234,93
442,00	1259,50
442,21	1298,41
442,41	1247,21
442,62	1257,45
442,82	1290,22
443,02	1218,54
443,23	1325,04
443,43	1263,60
443,64	1265,64
443,84	1288,17
444,05	1296,36
444,25	1273,84
444,46	1320,94
444,66	1294,32
444,87	1271,79
445,07	1247,21
445,28	1273,84
445,48	1245,16
445,69	1325,04
445,89	1279,98
446,09	1239,02
446,30	1294,32
446,50	1230,83
446,71	1339,37
446,91	1273,84
447,12	1236,97
447,32	1306,60
447,53	1411,05
447,73	1187,82
447,93	1253,36
448,14	1318,89
448,34	1257,45
448,55	1220,59
448,75	1208,30
448,96	1230,83
449,16	1349,61
449,36	1304,56
449,57	1257,45
449,77	1306,60
449,98	1261,55
450,18	1212,40
450,39	1296,36
450,59	1271,79
450,79	1300,46
451,00	1339,37
451,20	1271,79
451,41	1312,75
451,61	1279,98
451,81	1259,50
452,02	1214,45
452,22	1298,41
452,43	1241,07
452,63	1245,16
452,84	1347,56
453,04	1265,64
453,24	1298,41
453,45	1294,32
453,65	1265,64
453,86	1355,76
454,06	1245,16
454,26	1255,40
454,47	1191,92
454,67	1261,55
454,87	1259,50
455,08	1226,73
455,28	1265,64
455,49	1308,65
455,69	1247,21
455,89	1318,89
456,10	1298,41
456,30	1267,69
456,51	1288,17
456,71	1271,79
456,91	1232,88
457,12	1208,30
457,32	1261,55
457,52	1269,74
457,73	1292,27
457,93	1226,73
458,14	1296,36
458,34	1259,50
458,54	1329,13
458,75	1290,22
458,95	1228,78
459,15	1232,88
459,36	1247,21
459,56	1290,22
459,76	1261,55
459,97	1339,37
460,17	1296,36
460,37	1261,55
460,58	1265,64
460,78	1265,64
460,99	1245,16
461,19	1245,16
461,39	1322,99
461,60	1331,18
461,80	1267,69
462,00	1345,52
462,21	1288,17
462,41	1208,30
462,61	1255,40
462,82	1290,22
463,02	1308,65
463,22	1257,45
463,43	1230,83
463,63	1298,41
463,83	1261,55
464,04	1247,21
464,24	1318,89
464,44	1298,41
464,64	1269,74
464,85	1216,49
465,05	1247,21
465,25	1279,98
465,46	1255,40
465,66	1279,98
465,86	1255,40
466,07	1253,36
466,27	1214,45
466,47	1220,59
466,68	1347,56
466,88	1343,47
467,08	1243,12
467,29	1257,45
467,49	1302,51
467,69	1273,84
467,89	1167,34
468,10	1314,80
468,30	1370,09
468,50	1316,84
468,71	1286,12
468,91	1214,45
469,11	1392,62
469,31	1277,93
469,52	1253,36
469,72	1277,93
469,92	1202,16
470,13	1222,64
470,33	1230,83
470,53	1290,22
470,73	1296,36
470,94	1290,22
471,14	1312,75
471,34	1306,60
471,54	1279,98
471,75	1261,55
471,95	1265,64
472,15	1269,74
472,36	1251,31
472,56	1249,26
472,76	1368,04
472,96	1249,26
473,17	1339,37
473,37	1304,56
473,57	1294,32
473,77	1245,16
473,98	1204,21
474,18	1357,80
474,38	1292,27
474,58	1198,06
474,79	1234,93
474,99	1296,36
475,19	1314,80
475,39	1239,02
475,60	1300,46
475,80	1304,56
476,00	1269,74
476,20	1341,42
476,41	1282,03
476,61	1290,22
476,81	1226,73
477,01	1243,12
477,21	1273,84
477,42	1187,82
477,62	1322,99
477,82	1306,60
478,02	1241,07
478,23	1267,69
478,43	1239,02
478,63	1224,69
478,83	1345,52
479,03	1224,69
479,24	1302,51
479,44	1425,39
479,64	1245,16
479,84	1263,60
480,04	1284,08
480,25	1204,21
480,45	1267,69
480,65	1220,59
480,85	1261,55
481,06	1218,54
481,26	1370,09
481,46	1273,84
481,66	1333,23
481,86	1300,46
482,06	1320,94
482,27	1241,07
482,47	1220,59
482,67	1294,32
482,87	1298,41
483,07	1296,36
483,28	1288,17
483,48	1273,84
483,68	1241,07
483,88	1355,76
484,08	1308,65
484,29	1228,78
484,49	1310,70
484,69	1308,65
484,89	1263,60
485,09	1277,93
485,29	1329,13
485,50	1306,60
485,70	1247,21
485,90	1253,36
486,10	1220,59
486,30	1255,40
486,50	1316,84
486,71	1255,40
486,91	1296,36
487,11	1253,36
487,31	1247,21
487,51	1187,82
487,71	1249,26
487,91	1241,07
488,12	1265,64
488,32	1322,99
488,52	1265,64
488,72	1241,07
488,92	1265,64
489,12	1232,88
489,32	1267,69
489,53	1275,88
489,73	1259,50
489,93	1292,27
490,13	1222,64
490,33	1239,02
490,53	1226,73
490,73	1273,84
490,94	1257,45
491,14	1277,93
491,34	1282,03
491,54	1226,73
491,74	1331,18
491,94	1314,80
492,14	1249,26
492,34	1273,84
492,54	1298,41
492,75	1196,01
492,95	1241,07
493,15	1251,31
493,35	1253,36
493,55	1228,78
493,75	1290,22
493,95	1245,16
494,15	1267,69
494,35	1259,50
494,56	1265,64
494,76	1298,41
494,96	1308,65
495,16	1282,03
495,36	1220,59
495,56	1298,41
495,76	1249,26
495,96	1234,93
496,16	1243,12
496,36	1282,03
496,56	1267,69
496,77	1275,88
496,97	1304,56
497,17	1183,73
497,37	1284,08
497,57	1298,41
497,77	1259,50
497,97	1259,50
498,17	1298,41
498,37	1236,97
498,57	1247,21
498,77	1228,78
498,97	1318,89
499,17	1343,47
499,38	1318,89
499,58	1245,16
499,78	1314,80
499,98	1300,46
500,18	1300,46
500,38	1257,45
500,58	1253,36
500,78	1279,98
500,98	1318,89
501,18	1259,50
501,38	1202,16
501,58	1306,60
501,78	1275,88
501,98	1320,94
502,18	1327,08
502,38	1368,04
502,58	1339,37
502,78	1267,69
502,98	1265,64
503,18	1232,88
503,38	1273,84
503,59	1232,88
503,79	1239,02
503,99	1275,88
504,19	1282,03
504,39	1232,88
504,59	1320,94
504,79	1261,55
504,99	1247,21
505,19	1255,40
505,39	1314,80
505,59	1273,84
505,79	1347,56
505,99	1222,64
506,19	1296,36
506,39	1189,87
506,59	1241,07
506,79	1200,11
506,99	1224,69
507,19	1290,22
507,39	1257,45
507,59	1296,36
507,79	1314,80
507,99	1292,27
508,19	1300,46
508,39	1271,79
508,59	1185,77
508,79	1267,69
508,99	1320,94
509,19	1255,40
509,39	1251,31
509,59	1243,12
509,79	1302,51
509,99	1216,49
510,19	1263,60
510,39	1290,22
510,59	1202,16
510,79	1290,22
510,99	1255,40
511,19	1214,45
511,39	1247,21
511,59	1212,40
511,79	1220,59
511,99	1376,24
512,19	1298,41
512,38	1275,88
512,58	1261,55
512,78	1314,80
512,98	1335,28
513,18	1298,41
513,38	1210,35
513,58	1310,70
513,78	1236,97
513,98	1322,99
514,18	1343,47
514,38	1220,59
514,58	1292,27
514,78	1261,55
514,98	1308,65
515,18	1253,36
515,38	1273,84
515,58	1296,36
515,78	1282,03
515,98	1251,31
516,18	1275,88
516,38	1302,51
516,57	1216,49
516,77	1284,08
516,97	1196,01
517,17	1257,45
517,37	1255,40
517,57	1271,79
517,77	1245,16
517,97	1279,98
518,17	1304,56
518,37	1275,88
518,57	1247,21
518,77	1327,08
518,97	1277,93
519,16	1279,98
519,36	1218,54
519,56	1298,41
519,76	1267,69
519,96	1273,84
520,16	1255,40
520,36	1355,76
520,56	1245,16
520,76	1255,40
520,96	1284,08
521,16	1255,40
521,35	1251,31
521,55	1269,74
521,75	1265,64
521,95	1302,51
522,15	1298,41
522,35	1296,36
522,55	1290,22
522,75	1312,75
522,95	1234,93
523,14	1282,03
523,34	1150,96
523,54	1263,60
523,74	1277,93
523,94	1261,55
524,14	1218,54
524,34	1318,89
524,54	1290,22
524,73	1214,45
524,93	1243,12
525,13	1339,37
525,33	1265,64
525,53	1316,84
525,73	1298,41
525,93	1325,04
526,13	1345,52
526,32	1255,40
526,52	1273,84
526,72	1236,97
526,92	1216,49
527,12	1288,17
527,32	1239,02
527,52	1296,36
527,71	1357,80
527,91	1284,08
528,11	1325,04
528,31	1284,08
528,51	1284,08
528,71	1214,45
528,90	1300,46
529,10	1361,90
529,30	1290,22
529,50	1302,51
529,70	1232,88
529,90	1339,37
530,09	1320,94
530,29	1277,93
530,49	1316,84
530,69	1224,69
530,89	1308,65
531,09	1361,90
531,28	1275,88
531,48	1257,45
531,68	1269,74
531,88	1288,17
532,08	1261,55
532,28	1298,41
532,47	1259,50
532,67	1361,90
532,87	1230,83
533,07	1290,22
533,27	1202,16
533,46	1245,16
533,66	1339,37
533,86	1263,60
534,06	1279,98
534,26	1298,41
534,45	1290,22
534,65	1327,08
534,85	1271,79
535,05	1243,12
535,25	1316,84
535,44	1220,59
535,64	1261,55
535,84	1253,36
536,04	1247,21
536,24	1284,08
536,43	1349,61
536,63	1277,93
536,83	1294,32
537,03	1257,45
537,22	1341,42
537,42	1243,12
537,62	1286,12
537,82	1259,50
538,02	1234,93
538,21	1249,26
538,41	1286,12
538,61	1337,32
538,81	1290,22
539,00	1345,52
539,20	1232,88
539,40	1294,32
539,60	1230,83
539,79	1298,41
539,99	1312,75
540,19	1247,21
540,39	1327,08
540,58	1234,93
540,78	1292,27
540,98	1333,23
541,18	1286,12
541,37	1292,27
541,57	1279,98
541,77	1228,78
541,97	1249,26
542,16	1347,56
542,36	1259,50
542,56	1204,21
542,76	1208,30
542,95	1236,97
543,15	1236,97
543,35	1234,93
543,54	1263,60
543,74	1316,84
543,94	1316,84
544,14	1224,69
544,33	1255,40
544,53	1245,16
544,73	1310,70
544,93	1304,56
545,12	1329,13
545,32	1357,80
545,52	1265,64
545,71	1265,64
545,91	1249,26
546,11	1245,16
546,30	1284,08
546,50	1296,36
546,70	1310,70
546,90	1234,93
547,09	1269,74
547,29	1263,60
547,49	1374,19
547,68	1269,74
547,88	1290,22
548,08	1216,49
548,27	1290,22
548,47	1339,37
548,67	1275,88
548,87	1222,64
549,06	1288,17
549,26	1304,56
549,46	1239,02
549,65	1292,27
549,85	1325,04
550,05	1322,99
550,24	1312,75
550,44	1263,60
550,64	1310,70
550,83	1282,03
551,03	1265,64
551,23	1318,89
551,42	1265,64
551,62	1259,50
551,82	1292,27
552,01	1245,16
552,21	1279,98
552,41	1298,41
552,60	1273,84
552,80	1329,13
553,00	1241,07
553,19	1249,26
553,39	1294,32
553,59	1228,78
553,78	1290,22
553,98	1306,60
554,17	1296,36
554,37	1296,36
554,57	1290,22
554,76	1296,36
554,96	1271,79
555,16	1216,49
555,35	1284,08
555,55	1306,60
555,75	1243,12
555,94	1275,88
556,14	1320,94
556,33	1265,64
556,53	1220,59
556,73	1269,74
556,92	1294,32
557,12	1318,89
557,32	1298,41
557,51	1286,12
557,71	1298,41
557,90	1282,03
558,10	1353,71
558,30	1355,76
558,49	1259,50
558,69	1251,31
558,88	1214,45
559,08	1372,14
559,28	1288,17
559,47	1304,56
559,67	1380,33
559,86	1273,84
560,06	1277,93
560,26	1259,50
560,45	1388,52
560,65	1337,32
560,84	1273,84
561,04	1234,93
561,24	1239,02
561,43	1304,56
561,63	1302,51
561,82	1335,28
562,02	1320,94
562,22	1292,27
562,41	1243,12
562,61	1273,84
562,80	1253,36
563,00	1320,94
563,19	1277,93
563,39	1284,08
563,59	1226,73
563,78	1277,93
563,98	1253,36
564,17	1282,03
564,37	1271,79
564,56	1331,18
564,76	1249,26
564,96	1339,37
565,15	1251,31
565,35	1226,73
565,54	1306,60
565,74	1249,26
565,93	1189,87
566,13	1269,74
566,32	1363,95
566,52	1320,94
566,71	1230,83
566,91	1261,55
567,11	1206,25
567,30	1249,26
567,50	1216,49
567,69	1249,26
567,89	1226,73
568,08	1310,70
568,28	1294,32
568,47	1325,04
568,67	1310,70
568,86	1282,03
569,06	1290,22
569,25	1351,66
569,45	1255,40
569,64	1271,79
569,84	1355,76
570,04	1339,37
570,23	1261,55
570,43	1282,03
570,62	1341,42
570,82	1286,12
571,01	1302,51
571,21	1273,84
571,40	1269,74
571,60	1257,45
571,79	1302,51
571,99	1275,88
572,18	1243,12
572,38	1208,30
572,57	1220,59
572,77	1230,83
572,96	1320,94
573,16	1343,47
573,35	1302,51
573,55	1179,63
573,74	1191,92
573,94	1222,64
574,13	1251,31
574,33	1257,45
574,52	1245,16
574,71	1304,56
574,91	1249,26
575,10	1335,28
575,30	1300,46
575,49	1298,41
575,69	1394,67
575,88	1218,54
576,08	1333,23
576,27	1306,60
576,47	1241,07
576,66	1308,65
576,86	1318,89
577,05	1359,85
577,25	1273,84
577,44	1288,17
577,64	1277,93
577,83	1298,41
578,02	1202,16
578,22	1288,17
578,41	1259,50
578,61	1265,64
578,80	1265,64
579,00	1341,42
579,19	1304,56
579,39	1339,37
579,58	1245,16
579,77	1320,94
579,97	1236,97
580,16	1306,60
580,36	1210,35
580,55	1214,45
580,75	1298,41
580,94	1347,56
581,13	1320,94
581,33	1261,55
581,52	1226,73
581,72	1282,03
581,91	1345,52
582,11	1247,21
582,30	1290,22
582,49	1202,16
582,69	1316,84
582,88	1279,98
583,08	1282,03
583,27	1259,50
583,47	1286,12
583,66	1277,93
583,85	1286,12
584,05	1263,60
584,24	1249,26
584,44	1273,84
584,63	1224,69
584,82	1318,89
585,02	1325,04
585,21	1333,23
585,41	1282,03
585,60	1259,50
585,79	1253,36
585,99	1327,08
586,18	1296,36
586,37	1245,16
586,57	1298,41
586,76	1290,22
586,96	1273,84
587,15	1255,40
587,34	1269,74
587,54	1335,28
587,73	1255,40
587,93	1312,75
588,12	1312,75
588,31	1306,60
588,51	1279,98
588,70	1294,32
588,89	1312,75
589,09	1284,08
589,28	1216,49
589,47	1267,69
589,67	1304,56
589,86	1241,07
590,06	1304,56
590,25	1318,89
590,44	1247,21
590,64	1298,41
590,83	1284,08
591,02	1304,56
591,22	1265,64
591,41	1296,36
591,60	1322,99
591,80	1294,32
591,99	1310,70
592,18	1296,36
592,38	1286,12
592,57	1245,16
592,76	1245,16
592,96	1286,12
593,15	1284,08
593,34	1333,23
593,54	1335,28
593,73	1382,38
593,92	1255,40
594,12	1329,13
594,31	1257,45
594,50	1247,21
594,70	1290,22
594,89	1382,38
595,08	1357,80
595,28	1265,64
595,47	1228,78
595,66	1284,08
595,86	1316,84
596,05	1232,88
596,24	1267,69
596,43	1214,45
596,63	1359,85
596,82	1282,03
597,01	1263,60
597,21	1290,22
597,40	1249,26
597,59	1253,36
597,79	1284,08
597,98	1251,31
598,17	1257,45
598,36	1322,99
598,56	1277,93
598,75	1353,71
598,94	1251,31
599,14	1224,69
599,33	1249,26
599,52	1308,65
599,71	1275,88
599,91	1292,27
600,10	1318,89
600,29	1322,99
600,48	1267,69
600,68	1251,31
600,87	1196,01
601,06	1230,83
601,26	1314,80
601,45	1218,54
601,64	1259,50
601,83	1310,70
602,03	1255,40
602,22	1216,49
602,41	1269,74
602,60	1355,76
602,80	1312,75
602,99	1304,56
603,18	1257,45
603,37	1245,16
603,57	1263,60
603,76	1304,56
603,95	1263,60
604,14	1275,88
604,34	1277,93
604,53	1228,78
604,72	1286,12
604,91	1275,88
605,10	1257,45
605,30	1271,79
605,49	1294,32
605,68	1314,80
605,87	1255,40
606,07	1208,30
606,26	1265,64
606,45	1200,11
606,64	1236,97
606,84	1253,36
607,03	1255,40
607,22	1269,74
607,41	1253,36
607,60	1306,60
607,80	1292,27
607,99	1343,47
608,18	1277,93
608,37	1273,84
608,56	1204,21
608,76	1335,28
608,95	1243,12
609,14	1239,02
609,33	1294,32
609,52	1370,09
609,72	1312,75
609,91	1335,28
610,10	1269,74
610,29	1271,79
610,48	1337,32
610,68	1290,22
610,87	1288,17
611,06	1304,56
611,25	1273,84
611,44	1261,55
611,63	1286,12
611,83	1259,50
612,02	1304,56
612,21	1279,98
612,40	1249,26
612,59	1292,27
612,79	1296,36
612,98	1282,03
613,17	1345,52
613,36	1312,75
613,55	1314,80
613,74	1327,08
613,93	1267,69
614,13	1265,64
614,32	1296,36
614,51	1284,08
614,70	1302,51
614,89	1335,28
615,08	1269,74
615,28	1267,69
615,47	1329,13
615,66	1263,60
615,85	1255,40
616,04	1329,13
616,23	1282,03
616,42	1394,67
616,62	1286,12
616,81	1263,60
617,00	1273,84
617,19	1335,28
617,38	1177,58
617,57	1273,84
617,76	1255,40
617,95	1331,18
618,15	1320,94
618,34	1271,79
618,53	1335,28
618,72	1257,45
618,91	1249,26
619,10	1271,79
619,29	1288,17
619,48	1216,49
619,68	1300,46
619,87	1353,71
620,06	1216,49
620,25	1282,03
620,44	1249,26
620,63	1271,79
620,82	1310,70
621,01	1300,46
621,20	1269,74
621,39	1282,03
621,59	1249,26
621,78	1236,97
621,97	1320,94
622,16	1275,88
622,35	1261,55
622,54	1337,32
622,73	1206,25
622,92	1279,98
623,11	1318,89
623,30	1345,52
623,49	1271,79
623,68	1353,71
623,88	1314,80
624,07	1343,47
624,26	1243,12
624,45	1316,84
624,64	1312,75
624,83	1331,18
625,02	1290,22
625,21	1337,32
625,40	1282,03
625,59	1312,75
625,78	1290,22
625,97	1320,94
626,16	1320,94
626,35	1284,08
626,54	1306,60
626,74	1279,98
626,93	1232,88
627,12	1277,93
627,31	1257,45
627,50	1329,13
627,69	1349,61
627,88	1277,93
628,07	1304,56
628,26	1284,08
628,45	1320,94
628,64	1279,98
628,83	1294,32
629,02	1343,47
629,21	1257,45
629,40	1273,84
629,59	1349,61
629,78	1265,64
629,97	1300,46
630,16	1273,84
630,35	1286,12
630,54	1368,04
630,73	1322,99
630,92	1327,08
631,11	1345,52
631,30	1370,09
631,49	1275,88
631,68	1468,39
631,87	1959,91
632,06	2148,32
632,25	2000,87
632,44	2209,76
632,63	1972,19
632,82	2084,83
633,01	2287,58
633,20	1943,52
633,39	2496,47
633,58	2721,75
633,77	2060,26
633,96	2086,88
634,15	2940,88
634,34	5398,45
634,53	5517,23
634,72	4171,71
634,91	5541,80
635,10	9242,48
635,29	11726,67
635,48	11544,40
635,67	10012,52
635,86	7937,93
636,05	6104,99
636,24	4861,88
636,43	3635,14
636,62	2822,10
636,81	2121,70
637,00	1773,54
637,19	1656,81
637,38	1529,83
637,57	1421,29
637,76	1437,67
637,95	1406,95
638,14	1372,14
638,33	1277,93
638,52	1351,66
638,71	1286,12
638,89	1263,60
639,08	1374,19
639,27	1322,99
639,46	1308,65
639,65	1257,45
639,84	1359,85
640,03	1322,99
640,22	1314,80
640,41	1290,22
640,60	1314,80
640,79	1263,60
640,98	1232,88
641,17	1253,36
641,36	1290,22
641,55	1306,60
641,74	1294,32
641,92	1290,22
642,11	1322,99
642,30	1271,79
642,49	1263,60
642,68	1282,03
642,87	1273,84
643,06	1286,12
643,25	1310,70
643,44	1271,79
643,63	1310,70
643,82	1292,27
644,00	1284,08
644,19	1263,60
644,38	1243,12
644,57	1277,93
644,76	1290,22
644,95	1234,93
645,14	1269,74
645,33	1265,64
645,52	1255,40
645,71	1308,65
645,89	1329,13
646,08	1277,93
646,27	1314,80
646,46	1345,52
646,65	1320,94
646,84	1337,32
647,03	1284,08
647,22	1257,45
647,40	1224,69
647,59	1370,09
647,78	1290,22
647,97	1290,22
648,16	1290,22
648,35	1249,26
648,54	1263,60
648,73	1296,36
648,91	1329,13
649,10	1322,99
649,29	1239,02
649,48	1282,03
649,67	1284,08
649,86	1275,88
650,05	1312,75
650,23	1306,60
650,42	1257,45
650,61	1224,69
650,80	1296,36
650,99	1232,88
651,18	1261,55
651,36	1224,69
651,55	1224,69
651,74	1273,84
651,93	1335,28
652,12	1361,90
652,31	1245,16
652,49	1263,60
652,68	1232,88
652,87	1257,45
653,06	1306,60
653,25	1257,45
653,44	1230,83
653,62	1296,36
653,81	1300,46
654,00	1277,93
654,19	1216,49
654,38	1265,64
654,56	1282,03
654,75	1247,21
654,94	1257,45
655,13	1290,22
655,32	1257,45
655,51	1310,70
655,69	1208,30
655,88	1216,49
656,07	1300,46
656,26	1224,69
656,45	1226,73
656,63	1257,45
656,82	1290,22
657,01	1288,17
657,20	1335,28
657,38	1314,80
657,57	1208,30
657,76	1230,83
657,95	1249,26
658,14	1320,94
658,32	1206,25
658,51	1265,64
658,70	1366,00
658,89	1245,16
659,08	1279,98
659,26	1277,93
659,45	1245,16
659,64	1304,56
659,83	1253,36
660,01	1339,37
660,20	1296,36
660,39	1251,31
660,58	1286,12
660,76	1234,93
660,95	1234,93
661,14	1271,79
661,33	1277,93
661,51	1200,11
661,70	1294,32
661,89	1304,56
662,08	1286,12
662,26	1273,84
662,45	1316,84
662,64	1249,26
662,83	1251,31
663,01	1236,97
663,20	1251,31
663,39	1290,22
663,58	1259,50
663,76	1263,60
663,95	1273,84
664,14	1347,56
664,32	1251,31
664,51	1277,93
664,70	1271,79
664,89	1339,37
665,07	1294,32
665,26	1300,46
665,45	1308,65
665,64	1277,93
665,82	1279,98
666,01	1226,73
666,20	1322,99
666,38	1318,89
666,57	1261,55
666,76	1230,83
666,95	1376,24
667,13	1265,64
667,32	1261,55
667,51	1222,64
667,69	1267,69
667,88	1230,83
668,07	1320,94
668,25	1273,84
668,44	1234,93
668,63	1284,08
668,81	1253,36
669,00	1331,18
669,19	1314,80
669,38	1359,85
669,56	1279,98
669,75	1245,16
669,94	1294,32
670,12	1247,21
670,31	1282,03
670,50	1259,50
670,68	1185,77
670,87	1265,64
671,06	1241,07
671,24	1308,65
671,43	1298,41
671,62	1269,74
671,80	1265,64
671,99	1247,21
672,18	1316,84
672,36	1288,17
672,55	1273,84
672,74	1316,84
672,92	1210,35
673,11	1314,80
673,29	1257,45
673,48	1288,17
673,67	1253,36
673,85	1284,08
674,04	1294,32
674,23	1255,40
674,41	1222,64
674,60	1261,55
674,79	1261,55
674,97	1279,98
675,16	1222,64
675,34	1241,07
675,53	1267,69
675,72	1302,51
675,90	1249,26
676,09	1271,79
676,28	1261,55
676,46	1279,98
676,65	1206,25
676,83	1294,32
677,02	1294,32
677,21	1214,45
677,39	1255,40
677,58	1271,79
677,77	1263,60
677,95	1355,76
678,14	1247,21
678,32	1249,26
678,51	1247,21
678,70	1271,79
678,88	1267,69
679,07	1259,50
679,25	1312,75
679,44	1312,75
679,63	1216,49
679,81	1306,60
680,00	1255,40
680,18	1224,69
680,37	1193,97
680,55	1265,64
680,74	1241,07
680,93	1318,89
681,11	1333,23
681,30	1257,45
681,48	1208,30
681,67	1261,55
681,85	1234,93
682,04	1196,01
682,23	1245,16
682,41	1316,84
682,60	1286,12
682,78	1314,80
682,97	1202,16
683,15	1226,73
683,34	1308,65
683,53	1222,64
683,71	1206,25
683,90	1308,65
684,08	1290,22
684,27	1273,84
684,45	1279,98
684,64	1259,50
684,82	1306,60
685,01	1312,75
685,19	1222,64
685,38	1232,88
685,57	1241,07
685,75	1175,53
685,94	1314,80
686,12	1361,90
686,31	1376,24
686,49	1271,79
686,68	1187,82
686,86	1277,93
687,05	1273,84
687,23	1232,88
687,42	1286,12
687,60	1273,84
687,79	1304,56
687,97	1277,93
688,16	1267,69
688,34	1286,12
688,53	1236,97
688,71	1363,95
688,90	1269,74
689,08	1257,45
689,27	1298,41
689,45	1243,12
689,64	1327,08
689,82	1247,21
690,01	1286,12
690,19	1290,22
690,38	1265,64
690,56	1284,08
690,75	1337,32
690,93	1206,25
691,12	1273,84
691,30	1265,64
691,49	1284,08
691,67	1286,12
691,86	1286,12
692,04	1259,50
692,23	1245,16
692,41	1263,60
692,60	1206,25
692,78	1294,32
692,97	1296,36
693,15	1269,74
693,34	1265,64
693,52	1327,08
693,71	1200,11
693,89	1282,03
694,08	1220,59
694,26	1251,31
694,44	1290,22
694,63	1259,50
694,81	1253,36
695,00	1269,74
695,18	1306,60
695,37	1292,27
695,55	1277,93
695,74	1294,32
695,92	1249,26
696,10	1210,35
696,29	1282,03
696,47	1228,78
696,66	1222,64
696,84	1263,60
697,03	1265,64
697,21	1282,03
697,40	1339,37
697,58	1241,07
697,76	1282,03
697,95	1337,32
698,13	1228,78
698,32	1247,21
698,50	1245,16
698,68	1333,23
698,87	1302,51
699,05	1322,99
699,24	1277,93
699,42	1241,07
699,61	1265,64
699,79	1284,08
699,97	1312,75
700,16	1236,97
700,34	1329,13
700,53	1251,31
700,71	1279,98
700,89	1249,26
701,08	1251,31
701,26	1282,03
701,45	1290,22
701,63	1314,80
701,81	1327,08
702,00	1282,03
702,18	1359,85
702,37	1282,03
702,55	1198,06
702,73	1304,56
702,92	1310,70
703,10	1333,23
703,28	1282,03
703,47	1257,45
703,65	1284,08
703,84	1269,74
704,02	1277,93
704,20	1255,40
704,39	1218,54
704,57	1265,64
704,75	1288,17
704,94	1241,07
705,12	1261,55
705,30	1263,60
705,49	1212,40
705,67	1236,97
705,86	1286,12
706,04	1257,45
706,22	1277,93
706,41	1333,23
706,59	1243,12
706,77	1230,83
706,96	1322,99
707,14	1304,56
707,32	1343,47
707,51	1345,52
707,69	1247,21
707,87	1271,79
708,06	1222,64
708,24	1224,69
708,42	1216,49
708,61	1265,64
708,79	1294,32
708,97	1292,27
709,16	1300,46
709,34	1265,64
709,52	1282,03
709,71	1269,74
709,89	1202,16
710,07	1279,98
710,26	1198,06
710,44	1298,41
710,62	1210,35
710,80	1286,12
710,99	1335,28
711,17	1320,94
711,35	1314,80
711,54	1259,50
711,72	1271,79
711,90	1331,18
712,09	1286,12
712,27	1230,83
712,45	1241,07
712,63	1277,93
712,82	1245,16
713,00	1216,49
713,18	1265,64
713,37	1173,49
713,55	1251,31
713,73	1304,56
713,91	1322,99
714,10	1267,69
714,28	1265,64
714,46	1239,02
714,65	1286,12
714,83	1224,69
715,01	1269,74
715,19	1298,41
715,38	1275,88
715,56	1271,79
715,74	1222,64
715,92	1318,89
716,11	1368,04
716,29	1249,26
716,47	1353,71
716,65	1298,41
716,84	1210,35
717,02	1236,97
717,20	1249,26
717,38	1255,40
717,57	1286,12
717,75	1339,37
717,93	1308,65
718,11	1273,84
718,30	1216,49
718,48	1308,65
718,66	1325,04
718,84	1249,26
719,03	1228,78
719,21	1257,45
719,39	1284,08
719,57	1292,27
719,75	1255,40
719,94	1261,55
720,12	1232,88
720,30	1361,90
720,48	1251,31
720,67	1304,56
720,85	1263,60
721,03	1259,50
721,21	1271,79
721,39	1275,88
721,58	1257,45
721,76	1241,07
721,94	1368,04
722,12	1234,93
722,30	1325,04
722,49	1327,08
722,67	1249,26
722,85	1253,36
723,03	1251,31
723,21	1290,22
723,40	1241,07
723,58	1269,74
723,76	1282,03
723,94	1273,84
724,12	1216,49
724,30	1290,22
724,49	1298,41
724,67	1304,56
724,85	1296,36
725,03	1216,49
725,21	1214,45
725,40	1275,88
725,58	1298,41
725,76	1329,13
725,94	1253,36
726,12	1228,78
726,30	1253,36
726,49	1322,99
726,67	1271,79
726,85	1300,46
727,03	1290,22
727,21	1322,99
727,39	1284,08
727,57	1241,07
727,76	1308,65
727,94	1267,69
728,12	1271,79
728,30	1257,45
728,48	1251,31
728,66	1275,88
728,84	1279,98
729,03	1218,54
729,21	1298,41
729,39	1261,55
729,57	1202,16
729,75	1279,98
729,93	1253,36
730,11	1325,04
730,30	1333,23
730,48	1226,73
730,66	1163,25
730,84	1273,84
731,02	1224,69
731,20	1198,06
731,38	1290,22
731,56	1286,12
731,74	1277,93
731,93	1251,31
732,11	1304,56
732,29	1318,89
732,47	1218,54
732,65	1179,63
732,83	1314,80
733,01	1259,50
733,19	1277,93
733,37	1302,51
733,56	1357,80
733,74	1257,45
733,92	1191,92
734,10	1265,64
734,28	1320,94
734,46	1265,64
734,64	1230,83
734,82	1279,98
735,00	1269,74
735,18	1236,97
735,36	1175,53
735,54	1294,32
735,73	1181,68
735,91	1263,60
736,09	1282,03
736,27	1253,36
736,45	1226,73
736,63	1189,87
736,81	1251,31
736,99	1294,32
737,17	1277,93
737,35	1247,21
737,53	1200,11
737,71	1271,79
737,89	1265,64
738,07	1198,06
738,25	1257,45
738,43	1245,16
738,61	1298,41
738,80	1255,40
738,98	1282,03
739,16	1261,55
739,34	1183,73
739,52	1284,08
739,70	1236,97
739,88	1265,64
740,06	1267,69
740,24	1282,03
740,42	1277,93
740,60	1216,49
740,78	1327,08
740,96	1234,93
741,14	1171,44
741,32	1325,04
741,50	1302,51
741,68	1310,70
741,86	1245,16
742,04	1232,88
742,22	1374,19
742,40	1216,49
742,58	1327,08
742,76	1204,21
742,94	1329,13
743,12	1279,98
743,30	1269,74
743,48	1210,35
743,66	1273,84
743,84	1290,22
744,02	1298,41
744,20	1294,32
744,38	1214,45
744,56	1224,69
744,74	1257,45
744,92	1322,99
745,10	1261,55
745,28	1267,69
745,46	1284,08
745,64	1271,79
745,82	1247,21
746,00	1320,94
746,18	1247,21
746,36	1259,50
746,54	1261,55
746,72	1279,98
746,90	1316,84
747,08	1265,64
747,26	1320,94
747,44	1253,36
747,62	1327,08
747,80	1273,84
747,98	1226,73
748,15	1282,03
748,33	1265,64
748,51	1265,64
748,69	1310,70
748,87	1269,74
749,05	1216,49
749,23	1263,60
749,41	1318,89
749,59	1241,07
749,77	1247,21
749,95	1302,51
750,13	1206,25
750,31	1290,22
750,49	1333,23
750,67	1298,41
750,85	1310,70
751,03	1257,45
751,20	1220,59
751,38	1288,17
751,56	1310,70
751,74	1286,12
751,92	1277,93
752,10	1286,12
752,28	1284,08
752,46	1228,78
752,64	1247,21
752,82	1267,69
753,00	1245,16
753,18	1263,60
753,35	1234,93
753,53	1232,88
753,71	1212,40
753,89	1257,45
754,07	1277,93
754,25	1300,46
754,43	1177,58
754,61	1290,22
754,79	1277,93
754,97	1298,41
755,14	1253,36
755,32	1282,03
755,50	1263,60
755,68	1312,75
755,86	1267,69
756,04	1337,32
756,22	1314,80
756,40	1220,59
756,57	1249,26
756,75	1259,50
756,93	1288,17
757,11	1257,45
757,29	1273,84
757,47	1271,79
757,65	1243,12
757,82	1300,46
758,00	1267,69
758,18	1259,50
758,36	1279,98
758,54	1277,93
758,72	1259,50
758,90	1251,31
759,07	1257,45
759,25	1241,07
759,43	1271,79
759,61	1226,73
759,79	1343,47
759,97	1249,26
760,15	1263,60
760,32	1247,21
760,50	1249,26
760,68	1249,26
760,86	1271,79
761,04	1265,64
761,22	1247,21
761,39	1216,49
761,57	1308,65
761,75	1261,55
761,93	1257,45
762,11	1226,73
762,28	1255,40
762,46	1306,60
762,64	1310,70
762,82	1247,21
763,00	1273,84
763,18	1224,69
763,35	1314,80
763,53	1296,36
763,71	1298,41
763,89	1232,88
764,07	1255,40
764,24	1290,22
764,42	1167,34
764,60	1316,84
764,78	1310,70
764,96	1279,98
765,13	1247,21
765,31	1267,69
765,49	1243,12
765,67	1290,22
765,84	1279,98
766,02	1296,36
766,20	1239,02
766,38	1316,84
766,56	1294,32
766,73	1298,41
766,91	1261,55
767,09	1265,64
767,27	1271,79
767,44	1273,84
767,62	1220,59
767,80	1230,83
767,98	1230,83
768,15	1216,49
768,33	1191,92
768,51	1343,47
768,69	1189,87
768,87	1265,64
769,04	1318,89
769,22	1277,93
769,40	1363,95
769,58	1271,79
769,75	1243,12
769,93	1226,73
770,11	1306,60
770,28	1267,69
770,46	1327,08
770,64	1179,63
770,82	1247,21
770,99	1251,31
771,17	1187,82
771,35	1302,51
771,53	1341,42
771,70	1306,60
771,88	1224,69
772,06	1247,21
772,23	1208,30
772,41	1341,42
772,59	1185,77
772,77	1245,16
772,94	1288,17
773,12	1292,27
773,30	1288,17
773,47	1220,59
773,65	1243,12
773,83	1273,84
774,01	1296,36
774,18	1247,21
774,36	1343,47
774,54	1306,60
774,71	1286,12
774,89	1298,41
775,07	1304,56
775,24	1288,17
775,42	1267,69
775,60	1316,84
775,78	1292,27
775,95	1273,84
776,13	1312,75
776,31	1234,93
776,48	1234,93
776,66	1249,26
776,84	1228,78
777,01	1304,56
777,19	1202,16
777,37	1271,79
777,54	1234,93
777,72	1310,70
777,90	1226,73
778,07	1249,26
778,25	1282,03
778,43	1286,12
778,60	1288,17
778,78	1339,37
778,96	1304,56
779,13	1265,64
779,31	1273,84
779,49	1261,55
779,66	1269,74
779,84	1214,45
780,01	1343,47
780,19	1308,65
780,37	1269,74
780,54	1247,21
780,72	1255,40
780,90	1255,40
781,07	1212,40
781,25	1241,07
781,43	1314,80
781,60	1282,03
781,78	1249,26
781,95	1271,79
782,13	1216,49
782,31	1239,02
782,48	1243,12
782,66	1200,11
782,83	1292,27
783,01	1298,41
783,19	1300,46
783,36	1224,69
783,54	1269,74
783,72	1245,16
783,89	1267,69
784,07	1236,97
784,24	1241,07
784,42	1339,37
784,60	1302,51
784,77	1335,28
784,95	1136,62
785,12	1249,26
785,30	1306,60
785,47	1298,41
785,65	1265,64
785,83	1271,79
786,00	1263,60
786,18	1226,73
786,35	1193,97
786,53	1312,75
786,71	1294,32
786,88	1277,93
787,06	1241,07
787,23	1298,41
787,41	1310,70
787,58	1257,45
787,76	1312,75
787,94	1279,98
788,11	1275,88
788,29	1316,84
788,46	1288,17
788,64	1249,26
788,81	1241,07
788,99	1239,02
789,16	1265,64
789,34	1220,59
789,52	1292,27
789,69	1329,13
789,87	1191,92
790,04	1245,16
790,22	1282,03
790,39	1312,75
790,57	1290,22
790,74	1251,31
790,92	1282,03
791,09	1239,02
791,27	1239,02
791,44	1247,21
791,62	1306,60
791,79	1263,60
791,97	1308,65
792,15	1372,14
792,32	1277,93
792,50	1253,36
792,67	1200,11
792,85	1245,16
793,02	1200,11
793,20	1277,93
793,37	1236,97
793,55	1279,98
793,72	1275,88
793,90	1314,80
794,07	1224,69
794,25	1259,50
794,42	1277,93
794,60	1275,88
794,77	1179,63
794,95	1241,07
795,12	1300,46
795,30	1245,16
795,47	1239,02
795,65	1236,97
795,82	1224,69
796,00	1257,45
796,17	1300,46
796,34	1249,26
796,52	1196,01
796,69	1247,21
796,87	1216,49
797,04	1218,54
797,22	1341,42
797,39	1341,42
797,57	1232,88
797,74	1327,08
797,92	1232,88
798,09	1312,75
798,27	1224,69
798,44	1308,65
798,62	1273,84
798,79	1298,41
798,96	1279,98
799,14	1322,99
799,31	1263,60
799,49	1269,74
799,66	1273,84
799,84	1361,90
800,01	1222,64
800,19	1224,69
800,36	1269,74
800,53	1269,74
800,71	1236,97
800,88	1337,32
801,06	1251,31
801,23	1243,12
801,41	1331,18
801,58	1208,30
801,75	1253,36
801,93	1259,50
802,10	1247,21
802,28	1249,26
802,45	1286,12
802,63	1165,29
802,80	1247,21
802,97	1286,12
803,15	1273,84
803,32	1318,89
803,50	1232,88
803,67	1259,50
803,84	1339,37
804,02	1232,88
804,19	1290,22
804,37	1245,16
804,54	1271,79
804,71	1243,12
804,89	1204,21
805,06	1208,30
805,24	1257,45
805,41	1173,49
805,58	1253,36
805,76	1265,64
805,93	1271,79
806,10	1241,07
806,28	1212,40
806,45	1273,84
806,63	1193,97
806,80	1257,45
806,97	1282,03
807,15	1277,93
807,32	1300,46
807,49	1261,55
807,67	1204,21
807,84	1304,56
808,01	1243,12
808,19	1331,18
808,36	1232,88
808,54	1226,73
808,71	1251,31
808,88	1304,56
809,06	1349,61
809,23	1288,17
809,40	1259,50
809,58	1282,03
809,75	1361,90
809,92	1193,97
810,10	1294,32
810,27	1290,22
810,44	1275,88
810,62	1259,50
810,79	1286,12
810,96	1290,22
811,14	1325,04
811,31	1226,73
811,48	1316,84
811,66	1273,84
811,83	1322,99
812,00	1253,36
812,18	1253,36
812,35	1210,35
812,52	1241,07
812,69	1200,11
812,87	1292,27
813,04	1282,03
813,21	1306,60
813,39	1288,17
813,56	1243,12
813,73	1253,36
813,91	1245,16
814,08	1222,64
814,25	1249,26
814,42	1232,88
814,60	1243,12
814,77	1271,79
814,94	1296,36
815,12	1282,03
815,29	1277,93
815,46	1290,22
815,63	1261,55
815,81	1282,03
815,98	1273,84
816,15	1214,45
816,33	1286,12
816,50	1335,28
816,67	1339,37
816,84	1247,21
817,02	1263,60
817,19	1243,12
817,36	1345,52
817,53	1284,08
817,71	1327,08
817,88	1298,41
818,05	1265,64
818,22	1304,56
818,40	1335,28
818,57	1318,89
818,74	1302,51
818,91	1265,64
819,09	1253,36
819,26	1296,36
819,43	1333,23
819,60	1308,65
819,78	1241,07
819,95	1241,07
820,12	1200,11
820,29	1302,51
820,47	1257,45
820,64	1259,50
820,81	1284,08
820,98	1269,74
821,15	1269,74
821,33	1208,30
821,50	1210,35
821,67	1263,60
821,84	1273,84
822,02	1259,50
822,19	1191,92
822,36	1245,16
822,53	1316,84
822,70	1175,53
822,88	1263,60
823,05	1218,54
823,22	1263,60
823,39	1312,75
823,56	1292,27
823,74	1263,60
823,91	1198,06
824,08	1292,27
824,25	1275,88
824,42	1279,98
824,60	1265,64
824,77	1329,13
824,94	1355,76
825,11	1312,75
825,28	1208,30
825,45	1265,64
825,63	1263,60
825,80	1304,56
825,97	1275,88
826,14	1247,21
826,31	1292,27
826,48	1267,69
826,66	1249,26
826,83	1284,08
827,00	1312,75
827,17	1277,93
827,34	1306,60
827,51	1257,45
827,69	1294,32
827,86	1288,17
828,03	1255,40
828,20	1187,82
828,37	1206,25
828,54	1290,22
828,71	1325,04
828,89	1329,13
829,06	1263,60
829,23	1214,45
829,40	1214,45
829,57	1277,93
829,74	1208,30
829,91	1282,03
830,09	1261,55
830,26	1310,70
830,43	1314,80
830,60	1314,80
830,77	1251,31
830,94	1339,37
831,11	1243,12
831,28	1273,84
831,46	1308,65
831,63	1234,93
831,80	1345,52
831,97	1245,16
832,14	1267,69
832,31	1294,32
832,48	1226,73
832,65	1228,78
832,82	1224,69
832,99	1239,02
833,17	1243,12
833,34	1259,50
833,51	1273,84
833,68	1212,40
833,85	1296,36
834,02	1228,78
834,19	1208,30
834,36	1267,69
834,53	1359,85
834,70	1224,69
834,87	1259,50
835,04	1290,22
835,22	1273,84
835,39	1245,16
835,56	1222,64
835,73	1314,80
835,90	1292,27
836,07	1292,27
836,24	1277,93
836,41	1249,26
836,58	1236,97
836,75	1275,88
836,92	1224,69
837,09	1255,40
837,26	1236,97
837,43	1265,64
837,60	1222,64
837,77	1318,89
837,94	1290,22
838,12	1337,32
838,29	1267,69
838,46	1288,17
838,63	1304,56
838,80	1290,22
838,97	1296,36
839,14	1230,83
839,31	1263,60
839,48	1277,93
839,65	1312,75
839,82	1318,89
839,99	1269,74
840,16	1290,22
840,33	1284,08
840,50	1265,64
840,67	1288,17
840,84	1271,79
841,01	1312,75
841,18	1234,93
841,35	1249,26
841,52	1308,65
841,69	1257,45
841,86	1216,49
842,03	1234,93
842,20	1304,56
842,37	1265,64
842,54	1273,84
842,71	1241,07
842,88	1255,40
843,05	1304,56
843,22	1269,74
843,39	1255,40
843,56	1275,88
843,73	1261,55
843,90	1308,65
844,07	1259,50
844,24	1306,60
844,41	1298,41
844,58	1279,98
844,75	1249,26
844,92	1282,03
845,09	1269,74
845,26	1318,89
845,43	1222,64
845,60	1277,93
845,77	1269,74
845,94	1253,36
846,10	1241,07
846,27	1277,93
846,44	1259,50
846,61	1261,55
846,78	1265,64
846,95	1284,08
847,12	1273,84
847,29	1306,60
847,46	1255,40
847,63	1245,16
847,80	1253,36
847,97	1298,41
848,14	1228,78
848,31	1310,70
848,48	1300,46
848,65	1314,80
848,82	1265,64
848,98	1263,60
849,15	1353,71
849,32	1273,84
849,49	1275,88
849,66	1294,32
849,83	1282,03
850,00	1232,88
850,17	1218,54
850,34	1247,21
850,51	1212,40
850,68	1265,64
850,85	1249,26
851,01	1269,74
851,18	1261,55
851,35	1298,41
851,52	1179,63
851,69	1255,40
851,86	1251,31
852,03	1312,75
852,20	1341,42
852,37	1261,55
852,53	1216,49
852,70	1255,40
852,87	1277,93
853,04	1257,45
853,21	1155,05
853,38	1241,07
853,55	1257,45
853,72	1312,75
853,89	1216,49
854,05	1286,12
854,22	1228,78
854,39	1259,50
854,56	1300,46
854,73	1234,93
854,90	1230,83
855,07	1294,32
855,23	1241,07
855,40	1202,16
855,57	1255,40
855,74	1300,46
855,91	1243,12
856,08	1314,80
856,25	1304,56
856,41	1236,97
856,58	1263,60
856,75	1230,83
856,92	1316,84
857,09	1218,54
857,26	1261,55
857,42	1236,97
857,59	1245,16
857,76	1206,25
857,93	1335,28
858,10	1275,88
858,27	1210,35
858,43	1306,60
858,60	1296,36
858,77	1255,40
858,94	1275,88
859,11	1230,83
859,27	1275,88
859,44	1329,13
859,61	1265,64
859,78	1259,50
859,95	1306,60
860,12	1269,74
860,28	1228,78
860,45	1247,21
860,62	1236,97
860,79	1251,31
860,95	1257,45
861,12	1257,45
861,29	1198,06
861,46	1284,08
861,63	1277,93
861,79	1300,46
861,96	1286,12
862,13	1243,12
862,30	1302,51
862,47	1308,65
862,63	1288,17
862,80	1243,12
862,97	1275,88
863,14	1216,49
863,30	1263,60
863,47	1275,88
863,64	1257,45
863,81	1265,64
863,97	1224,69
864,14	1232,88
864,31	1267,69
864,48	1247,21
864,65	1273,84
864,81	1292,27
864,98	1327,08
865,15	1273,84
865,32	1296,36
865,48	1265,64
865,65	1191,92
865,82	1226,73
865,98	1224,69
866,15	1267,69
866,32	1265,64
866,49	1234,93
866,65	1261,55
866,82	1249,26
866,99	1249,26
867,16	1282,03
867,32	1284,08
867,49	1284,08
867,66	1241,07
867,83	1314,80
867,99	1243,12
868,16	1255,40
868,33	1255,40
868,49	1198,06
868,66	1325,04
868,83	1245,16
868,99	1208,30
869,16	1267,69
869,33	1267,69
869,50	1239,02
869,66	1284,08
869,83	1294,32
870,00	1257,45
870,16	1325,04
870,33	1210,35
870,50	1245,16
870,66	1234,93
870,83	1300,46
871,00	1253,36
871,17	1308,65
871,33	1204,21
871,50	1312,75
871,67	1193,97
871,83	1347,56
872,00	1218,54
872,17	1277,93
872,33	1196,01
872,50	1216,49
872,67	1267,69
872,83	1325,04
873,00	1228,78
873,17	1292,27
873,33	1251,31
873,50	1247,21
873,67	1259,50
873,83	1214,45
874,00	1191,92
874,16	1296,36
874,33	1261,55
874,50	1265,64
874,66	1288,17
874,83	1294,32
875,00	1279,98
875,16	1296,36
875,33	1306,60
875,50	1257,45
875,66	1282,03
875,83	1245,16
875,99	1296,36
876,16	1269,74
876,33	1173,49
876,49	1314,80
876,66	1200,11
876,83	1239,02
876,99	1312,75
877,16	1265,64
877,32	1279,98
877,49	1247,21
877,66	1310,70
877,82	1314,80
877,99	1282,03
878,15	1329,13
878,32	1271,79
878,49	1290,22
878,65	1279,98
878,82	1298,41
878,98	1316,84
879,15	1239,02
879,32	1290,22
879,48	1273,84
879,65	1249,26
879,81	1273,84
879,98	1253,36
880,15	1296,36
880,31	1257,45
880,48	1282,03
880,64	1255,40
880,81	1312,75
880,97	1267,69
881,14	1320,94
881,31	1261,55
881,47	1275,88
881,64	1308,65
881,80	1265,64
881,97	1282,03
882,13	1290,22
882,30	1206,25
882,47	1292,27
882,63	1243,12
882,80	1343,47
882,96	1253,36
883,13	1265,64
883,29	1273,84
883,46	1304,56
883,62	1304,56
883,79	1331,18
883,95	1257,45
884,12	1273,84
884,29	1259,50
884,45	1327,08
884,62	1302,51
884,78	1288,17
884,95	1226,73
885,11	1255,40
885,28	1216,49
885,44	1241,07
885,61	1214,45
885,77	1273,84
885,94	1277,93
886,10	1200,11
886,27	1284,08
886,43	1275,88
886,60	1279,98
886,76	1296,36
886,93	1286,12
887,09	1245,16
887,26	1243,12
887,42	1296,36
887,59	1267,69
887,75	1308,65
887,92	1310,70
888,08	1288,17
888,25	1236,97
888,41	1296,36
888,58	1329,13
888,74	1249,26
888,91	1263,60
>>>>>End Processed Spectral Data<<<<<
