SpectraSuite Data File
++++++++++++++++++++++++++++++++++++
Date: Sun Apr 03 19:55:54 CEST 2016
User: root
Dark Spectrum Present: No
Reference Spectrum Present: No
Number of Sampled Component Spectra: 1
Spectrometers: USB4C02835
Integration Time (usec): 10000 (USB4C02835)
Spectra Averaged: 1 (USB4C02835)
Boxcar Smoothing: 0 (USB4C02835)
Correct for Electrical Dark: No (USB4C02835)
Strobe/Lamp Enabled: No (USB4C02835)
Correct for Detector Non-linearity: No (USB4C02835)
Correct for Stray Light: No (USB4C02835)
Number of Pixels in Processed Spectrum: 3648
>>>>>Begin Processed Spectral Data<<<<<
177,47	1228,78
177,69	1228,78
177,91	1228,78
178,13	1255,40
178,36	1243,12
178,58	1249,26
178,80	1261,55
179,02	1245,16
179,24	1220,59
179,46	1230,83
179,68	1314,80
179,90	1232,88
180,13	1271,79
180,35	1241,07
180,57	1286,12
180,79	1228,78
181,01	1224,69
181,23	1245,16
181,45	1310,70
181,67	1259,50
181,90	1245,16
182,12	1167,34
182,34	1322,99
182,56	1236,97
182,78	1339,37
183,00	1259,50
183,22	1302,51
183,44	1312,75
183,66	1316,84
183,89	1261,55
184,11	1257,45
184,33	1261,55
184,55	1314,80
184,77	1331,18
184,99	1331,18
185,21	1253,36
185,43	1329,13
185,65	1253,36
185,87	1214,45
186,10	1210,35
186,32	1230,83
186,54	1261,55
186,76	1284,08
186,98	1275,88
187,20	1261,55
187,42	1314,80
187,64	1214,45
187,86	1282,03
188,08	1232,88
188,30	1249,26
188,52	1263,60
188,75	1265,64
188,97	1222,64
189,19	1204,21
189,41	1282,03
189,63	1263,60
189,85	1325,04
190,07	1204,21
190,29	1236,97
190,51	1251,31
190,73	1265,64
190,95	1316,84
191,17	1271,79
191,39	1310,70
191,61	1222,64
191,84	1257,45
192,06	1325,04
192,28	1230,83
192,50	1304,56
192,72	1288,17
192,94	1230,83
193,16	1273,84
193,38	1261,55
193,60	1320,94
193,82	1257,45
194,04	1269,74
194,26	1286,12
194,48	1312,75
194,70	1312,75
194,92	1193,97
195,14	1294,32
195,36	1249,26
195,58	1243,12
195,80	1345,52
196,02	1249,26
196,24	1314,80
196,46	1286,12
196,69	1247,21
196,91	1269,74
197,13	1316,84
197,35	1269,74
197,57	1253,36
197,79	1249,26
198,01	1247,21
198,23	1282,03
198,45	1200,11
198,67	1257,45
198,89	1292,27
199,11	1273,84
199,33	1224,69
199,55	1224,69
199,77	1234,93
199,99	1202,16
200,21	1230,83
200,43	1267,69
200,65	1232,88
200,87	1304,56
201,09	1216,49
201,31	1337,32
201,53	1290,22
201,75	1191,92
201,97	1302,51
202,19	1216,49
202,41	1220,59
202,63	1239,02
202,85	1361,90
203,07	1308,65
203,29	1214,45
203,51	1304,56
203,73	1251,31
203,95	1320,94
204,17	1214,45
204,39	1279,98
204,61	1275,88
204,83	1232,88
205,05	1210,35
205,27	1239,02
205,49	1222,64
205,71	1265,64
205,93	1257,45
206,15	1265,64
206,37	1251,31
206,59	1325,04
206,81	1296,36
207,03	1286,12
207,25	1275,88
207,47	1259,50
207,69	1269,74
207,91	1255,40
208,13	1257,45
208,34	1288,17
208,56	1300,46
208,78	1322,99
209,00	1243,12
209,22	1284,08
209,44	1210,35
209,66	1288,17
209,88	1216,49
210,10	1302,51
210,32	1284,08
210,54	1279,98
210,76	1292,27
210,98	1294,32
211,20	1263,60
211,42	1193,97
211,64	1298,41
211,86	1292,27
212,08	1269,74
212,30	1312,75
212,52	1294,32
212,74	1267,69
212,96	1318,89
213,17	1216,49
213,39	1267,69
213,61	1298,41
213,83	1290,22
214,05	1222,64
214,27	1318,89
214,49	1214,45
214,71	1267,69
214,93	1345,52
215,15	1294,32
215,37	1263,60
215,59	1257,45
215,81	1296,36
216,03	1300,46
216,24	1306,60
216,46	1296,36
216,68	1234,93
216,90	1294,32
217,12	1279,98
217,34	1314,80
217,56	1290,22
217,78	1308,65
218,00	1247,21
218,22	1234,93
218,44	1298,41
218,66	1251,31
218,87	1269,74
219,09	1234,93
219,31	1236,97
219,53	1273,84
219,75	1263,60
219,97	1234,93
220,19	1294,32
220,41	1202,16
220,63	1243,12
220,85	1302,51
221,06	1257,45
221,28	1271,79
221,50	1265,64
221,72	1232,88
221,94	1189,87
222,16	1282,03
222,38	1259,50
222,60	1234,93
222,82	1290,22
223,03	1261,55
223,25	1312,75
223,47	1218,54
223,69	1259,50
223,91	1275,88
224,13	1249,26
224,35	1239,02
224,57	1320,94
224,78	1290,22
225,00	1253,36
225,22	1333,23
225,44	1230,83
225,66	1249,26
225,88	1277,93
226,10	1253,36
226,32	1234,93
226,53	1210,35
226,75	1288,17
226,97	1247,21
227,19	1310,70
227,41	1294,32
227,63	1251,31
227,85	1239,02
228,06	1345,52
228,28	1247,21
228,50	1251,31
228,72	1257,45
228,94	1288,17
229,16	1304,56
229,37	1263,60
229,59	1339,37
229,81	1193,97
230,03	1226,73
230,25	1288,17
230,47	1273,84
230,69	1230,83
230,90	1284,08
231,12	1286,12
231,34	1226,73
231,56	1243,12
231,78	1257,45
232,00	1288,17
232,21	1257,45
232,43	1314,80
232,65	1183,73
232,87	1230,83
233,09	1257,45
233,30	1267,69
233,52	1247,21
233,74	1263,60
233,96	1232,88
234,18	1232,88
234,40	1220,59
234,61	1239,02
234,83	1253,36
235,05	1208,30
235,27	1269,74
235,49	1216,49
235,70	1230,83
235,92	1347,56
236,14	1249,26
236,36	1335,28
236,58	1255,40
236,79	1273,84
237,01	1189,87
237,23	1380,33
237,45	1251,31
237,67	1337,32
237,88	1239,02
238,10	1302,51
238,32	1228,78
238,54	1327,08
238,76	1273,84
238,97	1298,41
239,19	1234,93
239,41	1306,60
239,63	1267,69
239,85	1241,07
240,06	1257,45
240,28	1245,16
240,50	1187,82
240,72	1259,50
240,93	1361,90
241,15	1388,52
241,37	1308,65
241,59	1232,88
241,81	1261,55
242,02	1302,51
242,24	1210,35
242,46	1261,55
242,68	1306,60
242,89	1208,30
243,11	1304,56
243,33	1304,56
243,55	1216,49
243,76	1355,76
243,98	1234,93
244,20	1271,79
244,42	1263,60
244,64	1269,74
244,85	1185,77
245,07	1273,84
245,29	1200,11
245,51	1228,78
245,72	1261,55
245,94	1230,83
246,16	1236,97
246,38	1286,12
246,59	1173,49
246,81	1269,74
247,03	1345,52
247,24	1271,79
247,46	1187,82
247,68	1279,98
247,90	1290,22
248,11	1273,84
248,33	1196,01
248,55	1345,52
248,77	1271,79
248,98	1269,74
249,20	1294,32
249,42	1128,43
249,64	1282,03
249,85	1265,64
250,07	1224,69
250,29	1271,79
250,50	1247,21
250,72	1290,22
250,94	1247,21
251,16	1245,16
251,37	1243,12
251,59	1245,16
251,81	1279,98
252,02	1273,84
252,24	1214,45
252,46	1290,22
252,68	1204,21
252,89	1247,21
253,11	1239,02
253,33	1249,26
253,54	1277,93
253,76	1279,98
253,98	1220,59
254,20	1261,55
254,41	1236,97
254,63	1286,12
254,85	1255,40
255,06	1288,17
255,28	1288,17
255,50	1271,79
255,71	1249,26
255,93	1247,21
256,15	1349,61
256,36	1267,69
256,58	1277,93
256,80	1263,60
257,02	1304,56
257,23	1296,36
257,45	1261,55
257,67	1288,17
257,88	1333,23
258,10	1282,03
258,32	1298,41
258,53	1259,50
258,75	1226,73
258,97	1269,74
259,18	1228,78
259,40	1292,27
259,62	1294,32
259,83	1290,22
260,05	1245,16
260,27	1239,02
260,48	1259,50
260,70	1298,41
260,92	1331,18
261,13	1282,03
261,35	1189,87
261,57	1216,49
261,78	1220,59
262,00	1286,12
262,22	1325,04
262,43	1236,97
262,65	1212,40
262,86	1259,50
263,08	1292,27
263,30	1232,88
263,51	1265,64
263,73	1263,60
263,95	1193,97
264,16	1312,75
264,38	1308,65
264,60	1325,04
264,81	1269,74
265,03	1222,64
265,25	1243,12
265,46	1294,32
265,68	1220,59
265,89	1228,78
266,11	1212,40
266,33	1273,84
266,54	1261,55
266,76	1212,40
266,98	1214,45
267,19	1273,84
267,41	1232,88
267,62	1253,36
267,84	1290,22
268,06	1251,31
268,27	1210,35
268,49	1306,60
268,70	1286,12
268,92	1253,36
269,14	1284,08
269,35	1304,56
269,57	1290,22
269,79	1294,32
270,00	1241,07
270,22	1286,12
270,43	1241,07
270,65	1269,74
270,87	1322,99
271,08	1320,94
271,30	1191,92
271,51	1316,84
271,73	1253,36
271,95	1181,68
272,16	1222,64
272,38	1282,03
272,59	1255,40
272,81	1271,79
273,02	1308,65
273,24	1228,78
273,46	1236,97
273,67	1255,40
273,89	1261,55
274,10	1327,08
274,32	1257,45
274,54	1279,98
274,75	1300,46
274,97	1253,36
275,18	1206,25
275,40	1216,49
275,61	1220,59
275,83	1265,64
276,05	1255,40
276,26	1269,74
276,48	1296,36
276,69	1165,29
276,91	1292,27
277,12	1300,46
277,34	1322,99
277,55	1273,84
277,77	1284,08
277,99	1279,98
278,20	1171,44
278,42	1228,78
278,63	1191,92
278,85	1257,45
279,06	1253,36
279,28	1222,64
279,49	1234,93
279,71	1294,32
279,93	1325,04
280,14	1269,74
280,36	1245,16
280,57	1284,08
280,79	1261,55
281,00	1269,74
281,22	1247,21
281,43	1265,64
281,65	1236,97
281,86	1232,88
282,08	1275,88
282,29	1300,46
282,51	1232,88
282,73	1179,63
282,94	1300,46
283,16	1202,16
283,37	1239,02
283,59	1179,63
283,80	1257,45
284,02	1228,78
284,23	1286,12
284,45	1273,84
284,66	1212,40
284,88	1294,32
285,09	1263,60
285,31	1269,74
285,52	1279,98
285,74	1271,79
285,95	1210,35
286,17	1271,79
286,38	1267,69
286,60	1284,08
286,81	1306,60
287,03	1255,40
287,24	1239,02
287,46	1204,21
287,67	1222,64
287,89	1214,45
288,10	1228,78
288,32	1294,32
288,53	1292,27
288,75	1288,17
288,96	1318,89
289,18	1243,12
289,39	1267,69
289,61	1304,56
289,82	1286,12
290,04	1271,79
290,25	1247,21
290,47	1320,94
290,68	1228,78
290,90	1257,45
291,11	1232,88
291,33	1288,17
291,54	1265,64
291,76	1241,07
291,97	1222,64
292,18	1253,36
292,40	1249,26
292,61	1206,25
292,83	1284,08
293,04	1320,94
293,26	1277,93
293,47	1322,99
293,69	1282,03
293,90	1337,32
294,12	1275,88
294,33	1329,13
294,55	1327,08
294,76	1306,60
294,97	1249,26
295,19	1232,88
295,40	1333,23
295,62	1273,84
295,83	1257,45
296,05	1271,79
296,26	1271,79
296,48	1267,69
296,69	1255,40
296,90	1298,41
297,12	1271,79
297,33	1288,17
297,55	1308,65
297,76	1239,02
297,98	1290,22
298,19	1259,50
298,41	1257,45
298,62	1210,35
298,83	1343,47
299,05	1265,64
299,26	1165,29
299,48	1249,26
299,69	1218,54
299,90	1290,22
300,12	1183,73
300,33	1312,75
300,55	1249,26
300,76	1271,79
300,98	1298,41
301,19	1261,55
301,40	1198,06
301,62	1304,56
301,83	1290,22
302,05	1327,08
302,26	1296,36
302,47	1288,17
302,69	1239,02
302,90	1304,56
303,12	1226,73
303,33	1300,46
303,54	1263,60
303,76	1304,56
303,97	1275,88
304,19	1300,46
304,40	1226,73
304,61	1318,89
304,83	1210,35
305,04	1261,55
305,26	1271,79
305,47	1290,22
305,68	1232,88
305,90	1290,22
306,11	1269,74
306,33	1304,56
306,54	1298,41
306,75	1239,02
306,97	1282,03
307,18	1230,83
307,39	1325,04
307,61	1298,41
307,82	1261,55
308,04	1216,49
308,25	1296,36
308,46	1277,93
308,68	1247,21
308,89	1222,64
309,10	1273,84
309,32	1261,55
309,53	1273,84
309,74	1232,88
309,96	1212,40
310,17	1239,02
310,39	1322,99
310,60	1185,77
310,81	1282,03
311,03	1273,84
311,24	1236,97
311,45	1290,22
311,67	1222,64
311,88	1298,41
312,09	1312,75
312,31	1232,88
312,52	1294,32
312,73	1265,64
312,95	1298,41
313,16	1245,16
313,37	1335,28
313,59	1224,69
313,80	1282,03
314,01	1306,60
314,23	1333,23
314,44	1196,01
314,65	1304,56
314,87	1288,17
315,08	1247,21
315,29	1325,04
315,51	1290,22
315,72	1277,93
315,93	1284,08
316,15	1239,02
316,36	1234,93
316,57	1228,78
316,79	1247,21
317,00	1277,93
317,21	1310,70
317,43	1271,79
317,64	1277,93
317,85	1284,08
318,07	1241,07
318,28	1273,84
318,49	1200,11
318,70	1294,32
318,92	1247,21
319,13	1298,41
319,34	1163,25
319,56	1290,22
319,77	1255,40
319,98	1282,03
320,20	1325,04
320,41	1257,45
320,62	1300,46
320,83	1282,03
321,05	1226,73
321,26	1245,16
321,47	1275,88
321,69	1239,02
321,90	1241,07
322,11	1275,88
322,32	1179,63
322,54	1308,65
322,75	1243,12
322,96	1263,60
323,18	1267,69
323,39	1257,45
323,60	1335,28
323,81	1298,41
324,03	1302,51
324,24	1320,94
324,45	1282,03
324,66	1265,64
324,88	1251,31
325,09	1257,45
325,30	1265,64
325,52	1216,49
325,73	1288,17
325,94	1220,59
326,15	1198,06
326,37	1267,69
326,58	1230,83
326,79	1306,60
327,00	1257,45
327,22	1222,64
327,43	1228,78
327,64	1236,97
327,85	1331,18
328,07	1271,79
328,28	1314,80
328,49	1269,74
328,70	1292,27
328,92	1251,31
329,13	1261,55
329,34	1249,26
329,55	1312,75
329,76	1314,80
329,98	1261,55
330,19	1279,98
330,40	1347,56
330,61	1232,88
330,83	1255,40
331,04	1304,56
331,25	1294,32
331,46	1257,45
331,68	1212,40
331,89	1253,36
332,10	1228,78
332,31	1322,99
332,52	1329,13
332,74	1230,83
332,95	1210,35
333,16	1228,78
333,37	1290,22
333,58	1355,76
333,80	1271,79
334,01	1249,26
334,22	1261,55
334,43	1224,69
334,64	1292,27
334,86	1339,37
335,07	1241,07
335,28	1308,65
335,49	1232,88
335,70	1241,07
335,92	1230,83
336,13	1261,55
336,34	1279,98
336,55	1251,31
336,76	1304,56
336,98	1236,97
337,19	1347,56
337,40	1284,08
337,61	1275,88
337,82	1316,84
338,04	1232,88
338,25	1222,64
338,46	1282,03
338,67	1290,22
338,88	1216,49
339,09	1302,51
339,31	1226,73
339,52	1239,02
339,73	1308,65
339,94	1249,26
340,15	1259,50
340,36	1335,28
340,58	1337,32
340,79	1228,78
341,00	1304,56
341,21	1343,47
341,42	1318,89
341,63	1249,26
341,85	1273,84
342,06	1298,41
342,27	1208,30
342,48	1314,80
342,69	1259,50
342,90	1290,22
343,12	1224,69
343,33	1257,45
343,54	1230,83
343,75	1239,02
343,96	1357,80
344,17	1335,28
344,38	1294,32
344,60	1269,74
344,81	1228,78
345,02	1245,16
345,23	1255,40
345,44	1265,64
345,65	1275,88
345,86	1282,03
346,07	1155,05
346,29	1282,03
346,50	1241,07
346,71	1312,75
346,92	1230,83
347,13	1251,31
347,34	1232,88
347,55	1353,71
347,76	1224,69
347,98	1265,64
348,19	1224,69
348,40	1294,32
348,61	1261,55
348,82	1322,99
349,03	1224,69
349,24	1226,73
349,45	1277,93
349,66	1288,17
349,88	1368,04
350,09	1228,78
350,30	1265,64
350,51	1224,69
350,72	1310,70
350,93	1296,36
351,14	1167,34
351,35	1316,84
351,56	1273,84
351,77	1263,60
351,99	1230,83
352,20	1277,93
352,41	1220,59
352,62	1306,60
352,83	1196,01
353,04	1304,56
353,25	1288,17
353,46	1257,45
353,67	1255,40
353,88	1273,84
354,09	1236,97
354,30	1269,74
354,52	1273,84
354,73	1214,45
354,94	1296,36
355,15	1331,18
355,36	1239,02
355,57	1286,12
355,78	1251,31
355,99	1265,64
356,20	1230,83
356,41	1284,08
356,62	1290,22
356,83	1261,55
357,04	1304,56
357,25	1265,64
357,46	1226,73
357,68	1306,60
357,89	1300,46
358,10	1300,46
358,31	1263,60
358,52	1279,98
358,73	1259,50
358,94	1308,65
359,15	1232,88
359,36	1337,32
359,57	1249,26
359,78	1239,02
359,99	1275,88
360,20	1263,60
360,41	1261,55
360,62	1220,59
360,83	1249,26
361,04	1216,49
361,25	1308,65
361,46	1310,70
361,67	1255,40
361,88	1224,69
362,09	1245,16
362,30	1279,98
362,51	1257,45
362,72	1255,40
362,93	1261,55
363,14	1318,89
363,35	1224,69
363,56	1257,45
363,78	1296,36
363,99	1220,59
364,20	1269,74
364,41	1372,14
364,62	1181,68
364,83	1267,69
365,04	1310,70
365,25	1282,03
365,46	1277,93
365,67	1296,36
365,88	1286,12
366,09	1263,60
366,30	1290,22
366,51	1234,93
366,72	1255,40
366,93	1302,51
367,14	1277,93
367,35	1265,64
367,56	1171,44
367,77	1277,93
367,98	1198,06
368,18	1245,16
368,39	1257,45
368,60	1292,27
368,81	1249,26
369,02	1249,26
369,23	1234,93
369,44	1259,50
369,65	1284,08
369,86	1263,60
370,07	1261,55
370,28	1226,73
370,49	1294,32
370,70	1271,79
370,91	1241,07
371,12	1249,26
371,33	1277,93
371,54	1282,03
371,75	1255,40
371,96	1245,16
372,17	1222,64
372,38	1208,30
372,59	1222,64
372,80	1265,64
373,01	1206,25
373,22	1353,71
373,43	1327,08
373,64	1253,36
373,85	1275,88
374,06	1263,60
374,26	1245,16
374,47	1298,41
374,68	1216,49
374,89	1253,36
375,10	1273,84
375,31	1318,89
375,52	1241,07
375,73	1275,88
375,94	1263,60
376,15	1204,21
376,36	1222,64
376,57	1259,50
376,78	1198,06
376,99	1275,88
377,20	1286,12
377,40	1247,21
377,61	1251,31
377,82	1226,73
378,03	1335,28
378,24	1318,89
378,45	1245,16
378,66	1239,02
378,87	1249,26
379,08	1226,73
379,29	1206,25
379,50	1265,64
379,71	1251,31
379,91	1363,95
380,12	1300,46
380,33	1265,64
380,54	1271,79
380,75	1226,73
380,96	1282,03
381,17	1263,60
381,38	1318,89
381,59	1279,98
381,80	1318,89
382,00	1255,40
382,21	1220,59
382,42	1279,98
382,63	1267,69
382,84	1247,21
383,05	1290,22
383,26	1279,98
383,47	1263,60
383,68	1200,11
383,88	1249,26
384,09	1249,26
384,30	1241,07
384,51	1288,17
384,72	1245,16
384,93	1288,17
385,14	1216,49
385,35	1218,54
385,55	1335,28
385,76	1277,93
385,97	1269,74
386,18	1302,51
386,39	1208,30
386,60	1279,98
386,81	1214,45
387,02	1302,51
387,22	1329,13
387,43	1239,02
387,64	1241,07
387,85	1255,40
388,06	1259,50
388,27	1265,64
388,48	1259,50
388,68	1353,71
388,89	1277,93
389,10	1259,50
389,31	1273,84
389,52	1224,69
389,73	1312,75
389,93	1257,45
390,14	1318,89
390,35	1284,08
390,56	1267,69
390,77	1249,26
390,98	1286,12
391,18	1282,03
391,39	1316,84
391,60	1310,70
391,81	1263,60
392,02	1333,23
392,23	1259,50
392,43	1253,36
392,64	1208,30
392,85	1288,17
393,06	1257,45
393,27	1216,49
393,47	1245,16
393,68	1204,21
393,89	1259,50
394,10	1230,83
394,31	1200,11
394,52	1294,32
394,72	1243,12
394,93	1302,51
395,14	1279,98
395,35	1308,65
395,56	1265,64
395,76	1247,21
395,97	1202,16
396,18	1282,03
396,39	1273,84
396,60	1312,75
396,80	1263,60
397,01	1239,02
397,22	1236,97
397,43	1286,12
397,64	1286,12
397,84	1310,70
398,05	1222,64
398,26	1261,55
398,47	1320,94
398,67	1263,60
398,88	1212,40
399,09	1259,50
399,30	1216,49
399,51	1241,07
399,71	1220,59
399,92	1284,08
400,13	1282,03
400,34	1257,45
400,54	1312,75
400,75	1300,46
400,96	1245,16
401,17	1263,60
401,37	1292,27
401,58	1269,74
401,79	1239,02
402,00	1296,36
402,21	1271,79
402,41	1339,37
402,62	1255,40
402,83	1249,26
403,04	1284,08
403,24	1275,88
403,45	1282,03
403,66	1245,16
403,87	1337,32
404,07	1273,84
404,28	1302,51
404,49	1292,27
404,70	1366,00
404,90	1255,40
405,11	1249,26
405,32	1265,64
405,52	1259,50
405,73	1279,98
405,94	1265,64
406,15	1329,13
406,35	1325,04
406,56	1253,36
406,77	1257,45
406,98	1230,83
407,18	1239,02
407,39	1279,98
407,60	1222,64
407,80	1208,30
408,01	1335,28
408,22	1363,95
408,43	1267,69
408,63	1257,45
408,84	1286,12
409,05	1298,41
409,25	1265,64
409,46	1208,30
409,67	1247,21
409,88	1265,64
410,08	1234,93
410,29	1286,12
410,50	1312,75
410,70	1224,69
410,91	1298,41
411,12	1282,03
411,32	1363,95
411,53	1302,51
411,74	1249,26
411,95	1294,32
412,15	1343,47
412,36	1312,75
412,57	1255,40
412,77	1236,97
412,98	1318,89
413,19	1304,56
413,39	1292,27
413,60	1277,93
413,81	1228,78
414,01	1249,26
414,22	1196,01
414,43	1259,50
414,63	1222,64
414,84	1290,22
415,05	1212,40
415,25	1273,84
415,46	1267,69
415,67	1224,69
415,87	1314,80
416,08	1239,02
416,29	1236,97
416,49	1265,64
416,70	1343,47
416,91	1204,21
417,11	1327,08
417,32	1363,95
417,53	1239,02
417,73	1226,73
417,94	1255,40
418,15	1245,16
418,35	1308,65
418,56	1249,26
418,77	1265,64
418,97	1331,18
419,18	1222,64
419,38	1277,93
419,59	1370,09
419,80	1310,70
420,00	1230,83
420,21	1267,69
420,42	1259,50
420,62	1234,93
420,83	1284,08
421,04	1292,27
421,24	1306,60
421,45	1345,52
421,65	1216,49
421,86	1253,36
422,07	1224,69
422,27	1271,79
422,48	1275,88
422,69	1257,45
422,89	1333,23
423,10	1275,88
423,30	1302,51
423,51	1265,64
423,72	1261,55
423,92	1273,84
424,13	1214,45
424,33	1208,30
424,54	1257,45
424,75	1294,32
424,95	1310,70
425,16	1271,79
425,36	1263,60
425,57	1243,12
425,78	1339,37
425,98	1265,64
426,19	1175,53
426,39	1251,31
426,60	1253,36
426,81	1296,36
427,01	1239,02
427,22	1273,84
427,42	1269,74
427,63	1243,12
427,83	1312,75
428,04	1275,88
428,25	1271,79
428,45	1322,99
428,66	1294,32
428,86	1220,59
429,07	1331,18
429,28	1273,84
429,48	1241,07
429,69	1232,88
429,89	1345,52
430,10	1267,69
430,30	1251,31
430,51	1273,84
430,71	1282,03
430,92	1296,36
431,13	1228,78
431,33	1314,80
431,54	1243,12
431,74	1304,56
431,95	1243,12
432,15	1331,18
432,36	1265,64
432,56	1247,21
432,77	1308,65
432,98	1325,04
433,18	1300,46
433,39	1241,07
433,59	1294,32
433,80	1265,64
434,00	1290,22
434,21	1282,03
434,41	1241,07
434,62	1243,12
434,82	1306,60
435,03	1232,88
435,23	1310,70
435,44	1277,93
435,64	1269,74
435,85	1279,98
436,06	1279,98
436,26	1247,21
436,47	1353,71
436,67	1273,84
436,88	1261,55
437,08	1259,50
437,29	1261,55
437,49	1325,04
437,70	1290,22
437,90	1247,21
438,11	1312,75
438,31	1310,70
438,52	1228,78
438,72	1288,17
438,93	1269,74
439,13	1329,13
439,34	1290,22
439,54	1314,80
439,75	1241,07
439,95	1222,64
440,16	1298,41
440,36	1181,68
440,57	1259,50
440,77	1282,03
440,98	1277,93
441,18	1347,56
441,39	1261,55
441,59	1282,03
441,80	1208,30
442,00	1206,25
442,21	1245,16
442,41	1337,32
442,62	1214,45
442,82	1312,75
443,02	1273,84
443,23	1249,26
443,43	1300,46
443,64	1337,32
443,84	1325,04
444,05	1267,69
444,25	1271,79
444,46	1232,88
444,66	1267,69
444,87	1232,88
445,07	1224,69
445,28	1220,59
445,48	1282,03
445,69	1196,01
445,89	1298,41
446,09	1378,28
446,30	1253,36
446,50	1271,79
446,71	1282,03
446,91	1269,74
447,12	1206,25
447,32	1314,80
447,53	1263,60
447,73	1275,88
447,93	1406,95
448,14	1212,40
448,34	1282,03
448,55	1228,78
448,75	1259,50
448,96	1310,70
449,16	1267,69
449,36	1292,27
449,57	1282,03
449,77	1265,64
449,98	1189,87
450,18	1263,60
450,39	1290,22
450,59	1208,30
450,79	1222,64
451,00	1345,52
451,20	1212,40
451,41	1269,74
451,61	1263,60
451,81	1157,10
452,02	1288,17
452,22	1271,79
452,43	1230,83
452,63	1320,94
452,84	1222,64
453,04	1316,84
453,24	1296,36
453,45	1269,74
453,65	1322,99
453,86	1273,84
454,06	1255,40
454,26	1302,51
454,47	1239,02
454,67	1279,98
454,87	1273,84
455,08	1316,84
455,28	1333,23
455,49	1265,64
455,69	1222,64
455,89	1300,46
456,10	1306,60
456,30	1298,41
456,51	1271,79
456,71	1167,34
456,91	1269,74
457,12	1273,84
457,32	1204,21
457,52	1314,80
457,73	1277,93
457,93	1298,41
458,14	1257,45
458,34	1224,69
458,54	1282,03
458,75	1257,45
458,95	1267,69
459,15	1286,12
459,36	1294,32
459,56	1329,13
459,76	1320,94
459,97	1263,60
460,17	1302,51
460,37	1294,32
460,58	1279,98
460,78	1271,79
460,99	1302,51
461,19	1290,22
461,39	1335,28
461,60	1253,36
461,80	1302,51
462,00	1236,97
462,21	1239,02
462,41	1286,12
462,61	1269,74
462,82	1316,84
463,02	1411,05
463,22	1241,07
463,43	1271,79
463,63	1314,80
463,83	1277,93
464,04	1220,59
464,24	1288,17
464,44	1300,46
464,64	1322,99
464,85	1296,36
465,05	1325,04
465,25	1296,36
465,46	1320,94
465,66	1257,45
465,86	1245,16
466,07	1230,83
466,27	1267,69
466,47	1316,84
466,68	1187,82
466,88	1249,26
467,08	1181,68
467,29	1275,88
467,49	1253,36
467,69	1284,08
467,89	1306,60
468,10	1216,49
468,30	1271,79
468,50	1282,03
468,71	1382,38
468,91	1318,89
469,11	1269,74
469,31	1224,69
469,52	1271,79
469,72	1298,41
469,92	1251,31
470,13	1279,98
470,33	1243,12
470,53	1275,88
470,73	1290,22
470,94	1290,22
471,14	1261,55
471,34	1177,58
471,54	1290,22
471,75	1282,03
471,95	1208,30
472,15	1339,37
472,36	1257,45
472,56	1296,36
472,76	1273,84
472,96	1236,97
473,17	1236,97
473,37	1288,17
473,57	1241,07
473,77	1298,41
473,98	1247,21
474,18	1298,41
474,38	1294,32
474,58	1286,12
474,79	1308,65
474,99	1271,79
475,19	1302,51
475,39	1222,64
475,60	1290,22
475,80	1282,03
476,00	1288,17
476,20	1257,45
476,41	1269,74
476,61	1245,16
476,81	1269,74
477,01	1220,59
477,21	1251,31
477,42	1253,36
477,62	1261,55
477,82	1206,25
478,02	1267,69
478,23	1277,93
478,43	1255,40
478,63	1282,03
478,83	1220,59
479,03	1222,64
479,24	1257,45
479,44	1236,97
479,64	1232,88
479,84	1304,56
480,04	1267,69
480,25	1271,79
480,45	1171,44
480,65	1292,27
480,85	1271,79
481,06	1253,36
481,26	1286,12
481,46	1265,64
481,66	1304,56
481,86	1243,12
482,06	1261,55
482,27	1314,80
482,47	1257,45
482,67	1255,40
482,87	1261,55
483,07	1290,22
483,28	1314,80
483,48	1327,08
483,68	1304,56
483,88	1230,83
484,08	1236,97
484,29	1265,64
484,49	1312,75
484,69	1257,45
484,89	1253,36
485,09	1239,02
485,29	1212,40
485,50	1304,56
485,70	1259,50
485,90	1263,60
486,10	1267,69
486,30	1222,64
486,50	1232,88
486,71	1288,17
486,91	1271,79
487,11	1263,60
487,31	1247,21
487,51	1275,88
487,71	1214,45
487,91	1245,16
488,12	1259,50
488,32	1257,45
488,52	1325,04
488,72	1298,41
488,92	1292,27
489,12	1265,64
489,32	1322,99
489,53	1271,79
489,73	1214,45
489,93	1249,26
490,13	1198,06
490,33	1249,26
490,53	1294,32
490,73	1314,80
490,94	1257,45
491,14	1325,04
491,34	1243,12
491,54	1288,17
491,74	1273,84
491,94	1239,02
492,14	1243,12
492,34	1294,32
492,54	1306,60
492,75	1232,88
492,95	1296,36
493,15	1253,36
493,35	1216,49
493,55	1320,94
493,75	1292,27
493,95	1247,21
494,15	1222,64
494,35	1255,40
494,56	1271,79
494,76	1245,16
494,96	1318,89
495,16	1292,27
495,36	1210,35
495,56	1306,60
495,76	1245,16
495,96	1376,24
496,16	1329,13
496,36	1263,60
496,56	1275,88
496,77	1269,74
496,97	1232,88
497,17	1351,66
497,37	1257,45
497,57	1296,36
497,77	1333,23
497,97	1261,55
498,17	1318,89
498,37	1267,69
498,57	1286,12
498,77	1271,79
498,97	1245,16
499,17	1247,21
499,38	1277,93
499,58	1296,36
499,78	1222,64
499,98	1277,93
500,18	1331,18
500,38	1216,49
500,58	1292,27
500,78	1275,88
500,98	1277,93
501,18	1232,88
501,38	1255,40
501,58	1222,64
501,78	1327,08
501,98	1298,41
502,18	1230,83
502,38	1329,13
502,58	1310,70
502,78	1386,47
502,98	1210,35
503,18	1257,45
503,38	1239,02
503,59	1220,59
503,79	1284,08
503,99	1273,84
504,19	1271,79
504,39	1271,79
504,59	1179,63
504,79	1284,08
504,99	1302,51
505,19	1284,08
505,39	1282,03
505,59	1277,93
505,79	1288,17
505,99	1322,99
506,19	1259,50
506,39	1251,31
506,59	1302,51
506,79	1255,40
506,99	1316,84
507,19	1267,69
507,39	1214,45
507,59	1265,64
507,79	1275,88
507,99	1257,45
508,19	1310,70
508,39	1349,61
508,59	1312,75
508,79	1249,26
508,99	1279,98
509,19	1179,63
509,39	1282,03
509,59	1220,59
509,79	1388,52
509,99	1302,51
510,19	1279,98
510,39	1339,37
510,59	1241,07
510,79	1273,84
510,99	1310,70
511,19	1267,69
511,39	1284,08
511,59	1241,07
511,79	1296,36
511,99	1308,65
512,19	1267,69
512,38	1329,13
512,58	1288,17
512,78	1308,65
512,98	1322,99
513,18	1304,56
513,38	1249,26
513,58	1282,03
513,78	1310,70
513,98	1236,97
514,18	1271,79
514,38	1292,27
514,58	1247,21
514,78	1247,21
514,98	1187,82
515,18	1296,36
515,38	1241,07
515,58	1294,32
515,78	1277,93
515,98	1247,21
516,18	1331,18
516,38	1273,84
516,57	1314,80
516,77	1222,64
516,97	1304,56
517,17	1302,51
517,37	1265,64
517,57	1271,79
517,77	1316,84
517,97	1259,50
518,17	1275,88
518,37	1220,59
518,57	1294,32
518,77	1292,27
518,97	1253,36
519,16	1241,07
519,36	1206,25
519,56	1327,08
519,76	1370,09
519,96	1251,31
520,16	1230,83
520,36	1298,41
520,56	1331,18
520,76	1220,59
520,96	1263,60
521,16	1282,03
521,35	1253,36
521,55	1286,12
521,75	1316,84
521,95	1220,59
522,15	1249,26
522,35	1241,07
522,55	1249,26
522,75	1271,79
522,95	1263,60
523,14	1267,69
523,34	1239,02
523,54	1279,98
523,74	1261,55
523,94	1267,69
524,14	1298,41
524,34	1304,56
524,54	1337,32
524,73	1282,03
524,93	1243,12
525,13	1249,26
525,33	1353,71
525,53	1214,45
525,73	1265,64
525,93	1239,02
526,13	1296,36
526,32	1290,22
526,52	1353,71
526,72	1304,56
526,92	1302,51
527,12	1245,16
527,32	1316,84
527,52	1239,02
527,71	1259,50
527,91	1259,50
528,11	1228,78
528,31	1282,03
528,51	1218,54
528,71	1251,31
528,90	1302,51
529,10	1304,56
529,30	1318,89
529,50	1216,49
529,70	1239,02
529,90	1224,69
530,09	1255,40
530,29	1288,17
530,49	1288,17
530,69	1284,08
530,89	1298,41
531,09	1239,02
531,28	1226,73
531,48	1247,21
531,68	1343,47
531,88	1257,45
532,08	1294,32
532,28	1265,64
532,47	1275,88
532,67	1302,51
532,87	1366,00
533,07	1314,80
533,27	1269,74
533,46	1322,99
533,66	1290,22
533,86	1282,03
534,06	1314,80
534,26	1345,52
534,45	1232,88
534,65	1279,98
534,85	1316,84
535,05	1212,40
535,25	1290,22
535,44	1286,12
535,64	1245,16
535,84	1269,74
536,04	1343,47
536,24	1263,60
536,43	1314,80
536,63	1259,50
536,83	1282,03
537,03	1239,02
537,22	1196,01
537,42	1357,80
537,62	1296,36
537,82	1341,42
538,02	1245,16
538,21	1363,95
538,41	1314,80
538,61	1318,89
538,81	1243,12
539,00	1325,04
539,20	1327,08
539,40	1306,60
539,60	1304,56
539,79	1273,84
539,99	1310,70
540,19	1290,22
540,39	1206,25
540,58	1331,18
540,78	1292,27
540,98	1253,36
541,18	1245,16
541,37	1239,02
541,57	1261,55
541,77	1347,56
541,97	1325,04
542,16	1312,75
542,36	1243,12
542,56	1306,60
542,76	1302,51
542,95	1318,89
543,15	1234,93
543,35	1267,69
543,54	1310,70
543,74	1267,69
543,94	1245,16
544,14	1288,17
544,33	1335,28
544,53	1329,13
544,73	1288,17
544,93	1290,22
545,12	1267,69
545,32	1271,79
545,52	1261,55
545,71	1273,84
545,91	1302,51
546,11	1320,94
546,30	1228,78
546,50	1269,74
546,70	1351,66
546,90	1327,08
547,09	1286,12
547,29	1339,37
547,49	1327,08
547,68	1279,98
547,88	1247,21
548,08	1249,26
548,27	1347,56
548,47	1339,37
548,67	1257,45
548,87	1232,88
549,06	1314,80
549,26	1302,51
549,46	1290,22
549,65	1294,32
549,85	1183,73
550,05	1183,73
550,24	1304,56
550,44	1226,73
550,64	1314,80
550,83	1361,90
551,03	1247,21
551,23	1290,22
551,42	1290,22
551,62	1247,21
551,82	1206,25
552,01	1263,60
552,21	1316,84
552,41	1263,60
552,60	1294,32
552,80	1294,32
553,00	1294,32
553,19	1265,64
553,39	1271,79
553,59	1282,03
553,78	1277,93
553,98	1320,94
554,17	1263,60
554,37	1263,60
554,57	1245,16
554,76	1318,89
554,96	1286,12
555,16	1310,70
555,35	1312,75
555,55	1216,49
555,75	1265,64
555,94	1243,12
556,14	1255,40
556,33	1263,60
556,53	1302,51
556,73	1263,60
556,92	1306,60
557,12	1296,36
557,32	1265,64
557,51	1284,08
557,71	1329,13
557,90	1402,86
558,10	1294,32
558,30	1290,22
558,49	1282,03
558,69	1300,46
558,88	1232,88
559,08	1273,84
559,28	1355,76
559,47	1257,45
559,67	1257,45
559,86	1318,89
560,06	1210,35
560,26	1286,12
560,45	1300,46
560,65	1290,22
560,84	1363,95
561,04	1249,26
561,24	1282,03
561,43	1388,52
561,63	1331,18
561,82	1245,16
562,02	1265,64
562,22	1259,50
562,41	1257,45
562,61	1247,21
562,80	1320,94
563,00	1292,27
563,19	1308,65
563,39	1243,12
563,59	1247,21
563,78	1257,45
563,98	1284,08
564,17	1355,76
564,37	1243,12
564,56	1353,71
564,76	1292,27
564,96	1253,36
565,15	1261,55
565,35	1300,46
565,54	1320,94
565,74	1286,12
565,93	1279,98
566,13	1284,08
566,32	1282,03
566,52	1337,32
566,71	1318,89
566,91	1312,75
567,11	1279,98
567,30	1257,45
567,50	1337,32
567,69	1279,98
567,89	1306,60
568,08	1216,49
568,28	1277,93
568,47	1193,97
568,67	1294,32
568,86	1329,13
569,06	1325,04
569,25	1284,08
569,45	1302,51
569,64	1306,60
569,84	1241,07
570,04	1286,12
570,23	1304,56
570,43	1241,07
570,62	1345,52
570,82	1290,22
571,01	1249,26
571,21	1298,41
571,40	1279,98
571,60	1290,22
571,79	1273,84
571,99	1306,60
572,18	1273,84
572,38	1267,69
572,57	1249,26
572,77	1257,45
572,96	1322,99
573,16	1165,29
573,35	1243,12
573,55	1310,70
573,74	1273,84
573,94	1380,33
574,13	1247,21
574,33	1243,12
574,52	1300,46
574,71	1288,17
574,91	1302,51
575,10	1318,89
575,30	1333,23
575,49	1318,89
575,69	1304,56
575,88	1200,11
576,08	1335,28
576,27	1312,75
576,47	1261,55
576,66	1290,22
576,86	1275,88
577,05	1308,65
577,25	1230,83
577,44	1306,60
577,64	1241,07
577,83	1220,59
578,02	1286,12
578,22	1257,45
578,41	1220,59
578,61	1312,75
578,80	1290,22
579,00	1372,14
579,19	1273,84
579,39	1206,25
579,58	1318,89
579,77	1265,64
579,97	1259,50
580,16	1243,12
580,36	1343,47
580,55	1300,46
580,75	1286,12
580,94	1210,35
581,13	1314,80
581,33	1239,02
581,52	1308,65
581,72	1284,08
581,91	1216,49
582,11	1245,16
582,30	1224,69
582,49	1251,31
582,69	1310,70
582,88	1222,64
583,08	1366,00
583,27	1294,32
583,47	1300,46
583,66	1279,98
583,85	1214,45
584,05	1277,93
584,24	1243,12
584,44	1247,21
584,63	1320,94
584,82	1263,60
585,02	1253,36
585,21	1294,32
585,41	1257,45
585,60	1239,02
585,79	1353,71
585,99	1265,64
586,18	1290,22
586,37	1316,84
586,57	1310,70
586,76	1304,56
586,96	1267,69
587,15	1298,41
587,34	1253,36
587,54	1263,60
587,73	1335,28
587,93	1239,02
588,12	1222,64
588,31	1218,54
588,51	1292,27
588,70	1230,83
588,89	1327,08
589,09	1290,22
589,28	1294,32
589,47	1261,55
589,67	1318,89
589,86	1228,78
590,06	1257,45
590,25	1259,50
590,44	1271,79
590,64	1316,84
590,83	1337,32
591,02	1269,74
591,22	1306,60
591,41	1298,41
591,60	1284,08
591,80	1361,90
591,99	1331,18
592,18	1263,60
592,38	1306,60
592,57	1337,32
592,76	1294,32
592,96	1335,28
593,15	1296,36
593,34	1288,17
593,54	1284,08
593,73	1318,89
593,92	1277,93
594,12	1230,83
594,31	1230,83
594,50	1255,40
594,70	1316,84
594,89	1269,74
595,08	1363,95
595,28	1284,08
595,47	1263,60
595,66	1259,50
595,86	1275,88
596,05	1353,71
596,24	1296,36
596,43	1343,47
596,63	1322,99
596,82	1296,36
597,01	1189,87
597,21	1261,55
597,40	1210,35
597,59	1306,60
597,79	1253,36
597,98	1253,36
598,17	1251,31
598,36	1245,16
598,56	1290,22
598,75	1300,46
598,94	1214,45
599,14	1298,41
599,33	1257,45
599,52	1333,23
599,71	1228,78
599,91	1288,17
600,10	1298,41
600,29	1255,40
600,48	1198,06
600,68	1247,21
600,87	1292,27
601,06	1206,25
601,26	1257,45
601,45	1243,12
601,64	1304,56
601,83	1318,89
602,03	1298,41
602,22	1310,70
602,41	1277,93
602,60	1378,28
602,80	1345,52
602,99	1263,60
603,18	1341,42
603,37	1234,93
603,57	1318,89
603,76	1357,80
603,95	1267,69
604,14	1245,16
604,34	1325,04
604,53	1263,60
604,72	1265,64
604,91	1304,56
605,10	1226,73
605,30	1290,22
605,49	1353,71
605,68	1335,28
605,87	1337,32
606,07	1236,97
606,26	1292,27
606,45	1212,40
606,64	1314,80
606,84	1329,13
607,03	1304,56
607,22	1353,71
607,41	1275,88
607,60	1298,41
607,80	1259,50
607,99	1273,84
608,18	1316,84
608,37	1314,80
608,56	1257,45
608,76	1290,22
608,95	1345,52
609,14	1253,36
609,33	1355,76
609,52	1271,79
609,72	1296,36
609,91	1286,12
610,10	1353,71
610,29	1241,07
610,48	1228,78
610,68	1341,42
610,87	1245,16
611,06	1269,74
611,25	1384,43
611,44	1290,22
611,63	1253,36
611,83	1279,98
612,02	1269,74
612,21	1298,41
612,40	1269,74
612,59	1212,40
612,79	1245,16
612,98	1306,60
613,17	1286,12
613,36	1308,65
613,55	1236,97
613,74	1290,22
613,93	1284,08
614,13	1263,60
614,32	1253,36
614,51	1325,04
614,70	1298,41
614,89	1259,50
615,08	1296,36
615,28	1298,41
615,47	1228,78
615,66	1282,03
615,85	1296,36
616,04	1239,02
616,23	1265,64
616,42	1263,60
616,62	1273,84
616,81	1253,36
617,00	1290,22
617,19	1316,84
617,38	1327,08
617,57	1269,74
617,76	1288,17
617,95	1314,80
618,15	1322,99
618,34	1327,08
618,53	1239,02
618,72	1249,26
618,91	1230,83
619,10	1232,88
619,29	1286,12
619,48	1347,56
619,68	1298,41
619,87	1273,84
620,06	1341,42
620,25	1355,76
620,44	1290,22
620,63	1249,26
620,82	1275,88
621,01	1347,56
621,20	1257,45
621,39	1308,65
621,59	1288,17
621,78	1247,21
621,97	1312,75
622,16	1288,17
622,35	1255,40
622,54	1253,36
622,73	1304,56
622,92	1273,84
623,11	1404,91
623,30	1239,02
623,49	1218,54
623,68	1282,03
623,88	1249,26
624,07	1282,03
624,26	1232,88
624,45	1275,88
624,64	1286,12
624,83	1263,60
625,02	1247,21
625,21	1286,12
625,40	1306,60
625,59	1296,36
625,78	1314,80
625,97	1222,64
626,16	1320,94
626,35	1267,69
626,54	1210,35
626,74	1279,98
626,93	1261,55
627,12	1314,80
627,31	1286,12
627,50	1277,93
627,69	1253,36
627,88	1347,56
628,07	1279,98
628,26	1275,88
628,45	1314,80
628,64	1353,71
628,83	1273,84
629,02	1347,56
629,21	1269,74
629,40	1359,85
629,59	1318,89
629,78	1304,56
629,97	1271,79
630,16	1337,32
630,35	1304,56
630,54	1288,17
630,73	1298,41
630,92	1325,04
631,11	1277,93
631,30	1327,08
631,49	1320,94
631,68	1325,04
631,87	1595,37
632,06	1757,16
632,25	1527,78
632,44	1544,17
632,63	1796,07
632,82	2246,62
633,01	4605,88
633,20	4339,65
633,39	3739,59
633,58	2197,47
633,77	2328,54
633,96	4534,20
634,15	6084,52
634,34	5279,66
634,53	3968,96
634,72	2582,49
634,91	1957,86
635,10	1648,61
635,29	1619,94
635,48	1564,65
635,67	1556,46
635,86	1474,54
636,05	1456,11
636,24	1406,95
636,43	1349,61
636,62	1382,38
636,81	1335,28
637,00	1322,99
637,19	1318,89
637,38	1302,51
637,57	1327,08
637,76	1269,74
637,95	1302,51
638,14	1320,94
638,33	1247,21
638,52	1282,03
638,71	1331,18
638,89	1316,84
639,08	1275,88
639,27	1257,45
639,46	1261,55
639,65	1316,84
639,84	1378,28
640,03	1288,17
640,22	1304,56
640,41	1269,74
640,60	1372,14
640,79	1247,21
640,98	1345,52
641,17	1320,94
641,36	1288,17
641,55	1277,93
641,74	1243,12
641,92	1259,50
642,11	1277,93
642,30	1232,88
642,49	1257,45
642,68	1243,12
642,87	1228,78
643,06	1282,03
643,25	1312,75
643,44	1304,56
643,63	1312,75
643,82	1296,36
644,00	1331,18
644,19	1363,95
644,38	1296,36
644,57	1263,60
644,76	1310,70
644,95	1200,11
645,14	1255,40
645,33	1230,83
645,52	1257,45
645,71	1271,79
645,89	1306,60
646,08	1300,46
646,27	1249,26
646,46	1261,55
646,65	1265,64
646,84	1279,98
647,03	1265,64
647,22	1243,12
647,40	1331,18
647,59	1361,90
647,78	1267,69
647,97	1271,79
648,16	1269,74
648,35	1230,83
648,54	1286,12
648,73	1302,51
648,91	1273,84
649,10	1269,74
649,29	1273,84
649,48	1247,21
649,67	1294,32
649,86	1312,75
650,05	1290,22
650,23	1310,70
650,42	1294,32
650,61	1271,79
650,80	1314,80
650,99	1306,60
651,18	1220,59
651,36	1251,31
651,55	1253,36
651,74	1279,98
651,93	1288,17
652,12	1333,23
652,31	1312,75
652,49	1259,50
652,68	1339,37
652,87	1259,50
653,06	1333,23
653,25	1259,50
653,44	1222,64
653,62	1316,84
653,81	1253,36
654,00	1249,26
654,19	1253,36
654,38	1316,84
654,56	1232,88
654,75	1259,50
654,94	1261,55
655,13	1357,80
655,32	1327,08
655,51	1282,03
655,69	1284,08
655,88	1263,60
656,07	1267,69
656,26	1302,51
656,45	1265,64
656,63	1290,22
656,82	1355,76
657,01	1257,45
657,20	1230,83
657,38	1304,56
657,57	1251,31
657,76	1216,49
657,95	1269,74
658,14	1228,78
658,32	1232,88
658,51	1224,69
658,70	1253,36
658,89	1265,64
659,08	1222,64
659,26	1257,45
659,45	1263,60
659,64	1320,94
659,83	1327,08
660,01	1216,49
660,20	1263,60
660,39	1150,96
660,58	1236,97
660,76	1349,61
660,95	1284,08
661,14	1214,45
661,33	1310,70
661,51	1277,93
661,70	1294,32
661,89	1312,75
662,08	1214,45
662,26	1259,50
662,45	1224,69
662,64	1255,40
662,83	1318,89
663,01	1228,78
663,20	1312,75
663,39	1294,32
663,58	1277,93
663,76	1249,26
663,95	1236,97
664,14	1255,40
664,32	1288,17
664,51	1282,03
664,70	1255,40
664,89	1314,80
665,07	1275,88
665,26	1265,64
665,45	1298,41
665,64	1345,52
665,82	1282,03
666,01	1300,46
666,20	1263,60
666,38	1267,69
666,57	1304,56
666,76	1257,45
666,95	1271,79
667,13	1277,93
667,32	1216,49
667,51	1241,07
667,69	1339,37
667,88	1286,12
668,07	1290,22
668,25	1275,88
668,44	1271,79
668,63	1316,84
668,81	1255,40
669,00	1277,93
669,19	1247,21
669,38	1292,27
669,56	1302,51
669,75	1284,08
669,94	1294,32
670,12	1232,88
670,31	1259,50
670,50	1224,69
670,68	1308,65
670,87	1185,77
671,06	1312,75
671,24	1230,83
671,43	1230,83
671,62	1230,83
671,80	1226,73
671,99	1257,45
672,18	1216,49
672,36	1251,31
672,55	1263,60
672,74	1302,51
672,92	1300,46
673,11	1249,26
673,29	1255,40
673,48	1261,55
673,67	1275,88
673,85	1247,21
674,04	1275,88
674,23	1294,32
674,41	1277,93
674,60	1282,03
674,79	1273,84
674,97	1259,50
675,16	1314,80
675,34	1310,70
675,53	1298,41
675,72	1273,84
675,90	1261,55
676,09	1304,56
676,28	1296,36
676,46	1175,53
676,65	1241,07
676,83	1263,60
677,02	1198,06
677,21	1202,16
677,39	1232,88
677,58	1269,74
677,77	1269,74
677,95	1322,99
678,14	1259,50
678,32	1310,70
678,51	1327,08
678,70	1322,99
678,88	1279,98
679,07	1265,64
679,25	1290,22
679,44	1294,32
679,63	1273,84
679,81	1239,02
680,00	1282,03
680,18	1292,27
680,37	1314,80
680,55	1271,79
680,74	1241,07
680,93	1236,97
681,11	1245,16
681,30	1290,22
681,48	1208,30
681,67	1173,49
681,85	1290,22
682,04	1267,69
682,23	1275,88
682,41	1226,73
682,60	1236,97
682,78	1282,03
682,97	1232,88
683,15	1243,12
683,34	1245,16
683,53	1282,03
683,71	1269,74
683,90	1308,65
684,08	1286,12
684,27	1300,46
684,45	1245,16
684,64	1292,27
684,82	1249,26
685,01	1279,98
685,19	1253,36
685,38	1304,56
685,57	1277,93
685,75	1288,17
685,94	1175,53
686,12	1308,65
686,31	1249,26
686,49	1265,64
686,68	1226,73
686,86	1290,22
687,05	1312,75
687,23	1337,32
687,42	1294,32
687,60	1269,74
687,79	1253,36
687,97	1271,79
688,16	1239,02
688,34	1329,13
688,53	1247,21
688,71	1263,60
688,90	1239,02
689,08	1222,64
689,27	1206,25
689,45	1277,93
689,64	1284,08
689,82	1312,75
690,01	1320,94
690,19	1335,28
690,38	1300,46
690,56	1312,75
690,75	1282,03
690,93	1241,07
691,12	1277,93
691,30	1353,71
691,49	1284,08
691,67	1253,36
691,86	1298,41
692,04	1251,31
692,23	1236,97
692,41	1236,97
692,60	1243,12
692,78	1271,79
692,97	1175,53
693,15	1284,08
693,34	1322,99
693,52	1200,11
693,71	1271,79
693,89	1279,98
694,08	1308,65
694,26	1249,26
694,44	1322,99
694,63	1341,42
694,81	1300,46
695,00	1300,46
695,18	1349,61
695,37	1230,83
695,55	1282,03
695,74	1290,22
695,92	1269,74
696,10	1335,28
696,29	1263,60
696,47	1232,88
696,66	1206,25
696,84	1251,31
697,03	1294,32
697,21	1189,87
697,40	1302,51
697,58	1239,02
697,76	1257,45
697,95	1282,03
698,13	1322,99
698,32	1300,46
698,50	1249,26
698,68	1234,93
698,87	1269,74
699,05	1320,94
699,24	1253,36
699,42	1271,79
699,61	1230,83
699,79	1255,40
699,97	1279,98
700,16	1232,88
700,34	1267,69
700,53	1263,60
700,71	1243,12
700,89	1310,70
701,08	1200,11
701,26	1269,74
701,45	1294,32
701,63	1210,35
701,81	1230,83
702,00	1232,88
702,18	1361,90
702,37	1265,64
702,55	1275,88
702,73	1241,07
702,92	1302,51
703,10	1292,27
703,28	1316,84
703,47	1296,36
703,65	1234,93
703,84	1273,84
704,02	1222,64
704,20	1269,74
704,39	1230,83
704,57	1271,79
704,75	1271,79
704,94	1327,08
705,12	1232,88
705,30	1269,74
705,49	1273,84
705,67	1329,13
705,86	1300,46
706,04	1320,94
706,22	1271,79
706,41	1218,54
706,59	1310,70
706,77	1261,55
706,96	1273,84
707,14	1302,51
707,32	1353,71
707,51	1222,64
707,69	1275,88
707,87	1386,47
708,06	1279,98
708,24	1265,64
708,42	1277,93
708,61	1255,40
708,79	1271,79
708,97	1275,88
709,16	1230,83
709,34	1271,79
709,52	1261,55
709,71	1200,11
709,89	1226,73
710,07	1239,02
710,26	1267,69
710,44	1277,93
710,62	1267,69
710,80	1241,07
710,99	1288,17
711,17	1339,37
711,35	1277,93
711,54	1292,27
711,72	1304,56
711,90	1288,17
712,09	1220,59
712,27	1347,56
712,45	1230,83
712,63	1271,79
712,82	1251,31
713,00	1267,69
713,18	1290,22
713,37	1232,88
713,55	1284,08
713,73	1265,64
713,91	1306,60
714,10	1302,51
714,28	1181,68
714,46	1345,52
714,65	1298,41
714,83	1236,97
715,01	1247,21
715,19	1247,21
715,38	1255,40
715,56	1222,64
715,74	1200,11
715,92	1290,22
716,11	1263,60
716,29	1306,60
716,47	1296,36
716,65	1249,26
716,84	1261,55
717,02	1243,12
717,20	1241,07
717,38	1261,55
717,57	1226,73
717,75	1273,84
717,93	1245,16
718,11	1298,41
718,30	1277,93
718,48	1284,08
718,66	1228,78
718,84	1277,93
719,03	1247,21
719,21	1243,12
719,39	1247,21
719,57	1314,80
719,75	1288,17
719,94	1255,40
720,12	1239,02
720,30	1345,52
720,48	1236,97
720,67	1212,40
720,85	1359,85
721,03	1218,54
721,21	1239,02
721,39	1239,02
721,58	1308,65
721,76	1249,26
721,94	1236,97
722,12	1236,97
722,30	1265,64
722,49	1292,27
722,67	1269,74
722,85	1255,40
723,03	1282,03
723,21	1265,64
723,40	1306,60
723,58	1241,07
723,76	1259,50
723,94	1243,12
724,12	1208,30
724,30	1253,36
724,49	1298,41
724,67	1206,25
724,85	1265,64
725,03	1308,65
725,21	1210,35
725,40	1255,40
725,58	1210,35
725,76	1279,98
725,94	1288,17
726,12	1222,64
726,30	1318,89
726,49	1286,12
726,67	1253,36
726,85	1279,98
727,03	1263,60
727,21	1286,12
727,39	1267,69
727,57	1269,74
727,76	1310,70
727,94	1273,84
728,12	1228,78
728,30	1288,17
728,48	1230,83
728,66	1265,64
728,84	1206,25
729,03	1269,74
729,21	1277,93
729,39	1316,84
729,57	1259,50
729,75	1290,22
729,93	1230,83
730,11	1265,64
730,30	1357,80
730,48	1232,88
730,66	1335,28
730,84	1300,46
731,02	1263,60
731,20	1216,49
731,38	1243,12
731,56	1292,27
731,74	1241,07
731,93	1251,31
732,11	1261,55
732,29	1214,45
732,47	1249,26
732,65	1257,45
732,83	1185,77
733,01	1243,12
733,19	1234,93
733,37	1288,17
733,56	1243,12
733,74	1239,02
733,92	1196,01
734,10	1269,74
734,28	1267,69
734,46	1257,45
734,64	1206,25
734,82	1273,84
735,00	1267,69
735,18	1249,26
735,36	1230,83
735,54	1294,32
735,73	1218,54
735,91	1263,60
736,09	1198,06
736,27	1265,64
736,45	1273,84
736,63	1263,60
736,81	1269,74
736,99	1269,74
737,17	1282,03
737,35	1286,12
737,53	1302,51
737,71	1251,31
737,89	1298,41
738,07	1263,60
738,25	1224,69
738,43	1302,51
738,61	1243,12
738,80	1220,59
738,98	1333,23
739,16	1234,93
739,34	1202,16
739,52	1277,93
739,70	1206,25
739,88	1257,45
740,06	1267,69
740,24	1261,55
740,42	1277,93
740,60	1271,79
740,78	1263,60
740,96	1279,98
741,14	1286,12
741,32	1245,16
741,50	1279,98
741,68	1232,88
741,86	1259,50
742,04	1337,32
742,22	1208,30
742,40	1261,55
742,58	1251,31
742,76	1267,69
742,94	1226,73
743,12	1290,22
743,30	1214,45
743,48	1292,27
743,66	1290,22
743,84	1247,21
744,02	1294,32
744,20	1304,56
744,38	1312,75
744,56	1239,02
744,74	1269,74
744,92	1259,50
745,10	1298,41
745,28	1230,83
745,46	1234,93
745,64	1296,36
745,82	1224,69
746,00	1306,60
746,18	1259,50
746,36	1331,18
746,54	1271,79
746,72	1325,04
746,90	1310,70
747,08	1308,65
747,26	1212,40
747,44	1251,31
747,62	1282,03
747,80	1230,83
747,98	1320,94
748,15	1294,32
748,33	1286,12
748,51	1255,40
748,69	1306,60
748,87	1343,47
749,05	1286,12
749,23	1247,21
749,41	1236,97
749,59	1210,35
749,77	1257,45
749,95	1275,88
750,13	1251,31
750,31	1193,97
750,49	1210,35
750,67	1253,36
750,85	1310,70
751,03	1302,51
751,20	1333,23
751,38	1247,21
751,56	1216,49
751,74	1308,65
751,92	1265,64
752,10	1228,78
752,28	1253,36
752,46	1249,26
752,64	1226,73
752,82	1247,21
753,00	1216,49
753,18	1189,87
753,35	1220,59
753,53	1304,56
753,71	1263,60
753,89	1251,31
754,07	1243,12
754,25	1241,07
754,43	1228,78
754,61	1288,17
754,79	1255,40
754,97	1294,32
755,14	1286,12
755,32	1212,40
755,50	1261,55
755,68	1255,40
755,86	1265,64
756,04	1222,64
756,22	1327,08
756,40	1255,40
756,57	1253,36
756,75	1343,47
756,93	1253,36
757,11	1216,49
757,29	1257,45
757,47	1271,79
757,65	1282,03
757,82	1263,60
758,00	1282,03
758,18	1236,97
758,36	1290,22
758,54	1232,88
758,72	1279,98
758,90	1265,64
759,07	1290,22
759,25	1284,08
759,43	1292,27
759,61	1173,49
759,79	1286,12
759,97	1259,50
760,15	1296,36
760,32	1286,12
760,50	1239,02
760,68	1325,04
760,86	1351,66
761,04	1251,31
761,22	1255,40
761,39	1204,21
761,57	1269,74
761,75	1279,98
761,93	1259,50
762,11	1249,26
762,28	1236,97
762,46	1296,36
762,64	1206,25
762,82	1277,93
763,00	1239,02
763,18	1228,78
763,35	1222,64
763,53	1279,98
763,71	1249,26
763,89	1286,12
764,07	1292,27
764,24	1265,64
764,42	1269,74
764,60	1304,56
764,78	1363,95
764,96	1251,31
765,13	1294,32
765,31	1284,08
765,49	1236,97
765,67	1290,22
765,84	1302,51
766,02	1206,25
766,20	1263,60
766,38	1230,83
766,56	1284,08
766,73	1286,12
766,91	1200,11
767,09	1320,94
767,27	1288,17
767,44	1236,97
767,62	1220,59
767,80	1355,76
767,98	1277,93
768,15	1259,50
768,33	1263,60
768,51	1363,95
768,69	1279,98
768,87	1288,17
769,04	1322,99
769,22	1245,16
769,40	1220,59
769,58	1279,98
769,75	1290,22
769,93	1271,79
770,11	1312,75
770,28	1198,06
770,46	1224,69
770,64	1251,31
770,82	1247,21
770,99	1216,49
771,17	1294,32
771,35	1220,59
771,53	1222,64
771,70	1257,45
771,88	1361,90
772,06	1230,83
772,23	1198,06
772,41	1265,64
772,59	1288,17
772,77	1202,16
772,94	1322,99
773,12	1325,04
773,30	1259,50
773,47	1290,22
773,65	1245,16
773,83	1232,88
774,01	1269,74
774,18	1218,54
774,36	1308,65
774,54	1298,41
774,71	1232,88
774,89	1241,07
775,07	1331,18
775,24	1232,88
775,42	1341,42
775,60	1247,21
775,78	1298,41
775,95	1247,21
776,13	1232,88
776,31	1230,83
776,48	1247,21
776,66	1214,45
776,84	1220,59
777,01	1232,88
777,19	1234,93
777,37	1304,56
777,54	1286,12
777,72	1294,32
777,90	1298,41
778,07	1255,40
778,25	1316,84
778,43	1257,45
778,60	1251,31
778,78	1247,21
778,96	1327,08
779,13	1294,32
779,31	1327,08
779,49	1300,46
779,66	1165,29
779,84	1314,80
780,01	1318,89
780,19	1241,07
780,37	1214,45
780,54	1269,74
780,72	1241,07
780,90	1290,22
781,07	1255,40
781,25	1282,03
781,43	1251,31
781,60	1312,75
781,78	1286,12
781,95	1271,79
782,13	1279,98
782,31	1210,35
782,48	1218,54
782,66	1263,60
782,83	1327,08
783,01	1304,56
783,19	1325,04
783,36	1275,88
783,54	1210,35
783,72	1220,59
783,89	1232,88
784,07	1265,64
784,24	1316,84
784,42	1331,18
784,60	1198,06
784,77	1288,17
784,95	1241,07
785,12	1236,97
785,30	1267,69
785,47	1300,46
785,65	1239,02
785,83	1220,59
786,00	1245,16
786,18	1273,84
786,35	1247,21
786,53	1306,60
786,71	1337,32
786,88	1331,18
787,06	1161,20
787,23	1259,50
787,41	1286,12
787,58	1312,75
787,76	1284,08
787,94	1318,89
788,11	1234,93
788,29	1300,46
788,46	1249,26
788,64	1241,07
788,81	1236,97
788,99	1243,12
789,16	1275,88
789,34	1300,46
789,52	1243,12
789,69	1320,94
789,87	1288,17
790,04	1259,50
790,22	1318,89
790,39	1273,84
790,57	1300,46
790,74	1288,17
790,92	1239,02
791,09	1265,64
791,27	1212,40
791,44	1239,02
791,62	1179,63
791,79	1325,04
791,97	1230,83
792,15	1298,41
792,32	1304,56
792,50	1277,93
792,67	1251,31
792,85	1200,11
793,02	1271,79
793,20	1236,97
793,37	1294,32
793,55	1173,49
793,72	1230,83
793,90	1288,17
794,07	1210,35
794,25	1271,79
794,42	1255,40
794,60	1259,50
794,77	1253,36
794,95	1267,69
795,12	1298,41
795,30	1288,17
795,47	1218,54
795,65	1253,36
795,82	1292,27
796,00	1239,02
796,17	1202,16
796,34	1263,60
796,52	1253,36
796,69	1312,75
796,87	1337,32
797,04	1273,84
797,22	1247,21
797,39	1228,78
797,57	1236,97
797,74	1261,55
797,92	1263,60
798,09	1288,17
798,27	1255,40
798,44	1226,73
798,62	1267,69
798,79	1277,93
798,96	1218,54
799,14	1253,36
799,31	1275,88
799,49	1222,64
799,66	1353,71
799,84	1241,07
800,01	1204,21
800,19	1263,60
800,36	1288,17
800,53	1249,26
800,71	1251,31
800,88	1251,31
801,06	1232,88
801,23	1314,80
801,41	1275,88
801,58	1257,45
801,75	1243,12
801,93	1200,11
802,10	1284,08
802,28	1269,74
802,45	1249,26
802,63	1325,04
802,80	1316,84
802,97	1243,12
803,15	1204,21
803,32	1308,65
803,50	1271,79
803,67	1261,55
803,84	1251,31
804,02	1269,74
804,19	1247,21
804,37	1306,60
804,54	1347,56
804,71	1341,42
804,89	1312,75
805,06	1279,98
805,24	1212,40
805,41	1288,17
805,58	1232,88
805,76	1228,78
805,93	1331,18
806,10	1230,83
806,28	1212,40
806,45	1290,22
806,63	1247,21
806,80	1187,82
806,97	1253,36
807,15	1282,03
807,32	1300,46
807,49	1247,21
807,67	1216,49
807,84	1243,12
808,01	1253,36
808,19	1230,83
808,36	1267,69
808,54	1275,88
808,71	1271,79
808,88	1359,85
809,06	1308,65
809,23	1249,26
809,40	1181,68
809,58	1212,40
809,75	1259,50
809,92	1320,94
810,10	1269,74
810,27	1257,45
810,44	1249,26
810,62	1402,86
810,79	1310,70
810,96	1304,56
811,14	1312,75
811,31	1271,79
811,48	1228,78
811,66	1232,88
811,83	1169,39
812,00	1279,98
812,18	1191,92
812,35	1314,80
812,52	1314,80
812,69	1245,16
812,87	1261,55
813,04	1290,22
813,21	1198,06
813,39	1249,26
813,56	1241,07
813,73	1265,64
813,91	1247,21
814,08	1241,07
814,25	1265,64
814,42	1325,04
814,60	1249,26
814,77	1228,78
814,94	1298,41
815,12	1216,49
815,29	1212,40
815,46	1290,22
815,63	1208,30
815,81	1331,18
815,98	1243,12
816,15	1290,22
816,33	1271,79
816,50	1292,27
816,67	1228,78
816,84	1277,93
817,02	1236,97
817,19	1304,56
817,36	1202,16
817,53	1277,93
817,71	1337,32
817,88	1290,22
818,05	1218,54
818,22	1320,94
818,40	1249,26
818,57	1263,60
818,74	1206,25
818,91	1255,40
819,09	1247,21
819,26	1265,64
819,43	1300,46
819,60	1239,02
819,78	1279,98
819,95	1204,21
820,12	1320,94
820,29	1294,32
820,47	1296,36
820,64	1292,27
820,81	1290,22
820,98	1257,45
821,15	1200,11
821,33	1259,50
821,50	1179,63
821,67	1265,64
821,84	1347,56
822,02	1245,16
822,19	1247,21
822,36	1337,32
822,53	1314,80
822,70	1230,83
822,88	1234,93
823,05	1216,49
823,22	1273,84
823,39	1251,31
823,56	1267,69
823,74	1282,03
823,91	1322,99
824,08	1234,93
824,25	1273,84
824,42	1282,03
824,60	1343,47
824,77	1222,64
824,94	1279,98
825,11	1267,69
825,28	1267,69
825,45	1296,36
825,63	1294,32
825,80	1241,07
825,97	1282,03
826,14	1263,60
826,31	1245,16
826,48	1232,88
826,66	1265,64
826,83	1251,31
827,00	1236,97
827,17	1142,77
827,34	1310,70
827,51	1189,87
827,69	1273,84
827,86	1271,79
828,03	1257,45
828,20	1290,22
828,37	1269,74
828,54	1249,26
828,71	1306,60
828,89	1253,36
829,06	1249,26
829,23	1253,36
829,40	1304,56
829,57	1241,07
829,74	1290,22
829,91	1241,07
830,09	1314,80
830,26	1269,74
830,43	1275,88
830,60	1249,26
830,77	1288,17
830,94	1341,42
831,11	1234,93
831,28	1216,49
831,46	1304,56
831,63	1232,88
831,80	1275,88
831,97	1251,31
832,14	1316,84
832,31	1200,11
832,48	1206,25
832,65	1308,65
832,82	1284,08
832,99	1255,40
833,17	1265,64
833,34	1298,41
833,51	1257,45
833,68	1236,97
833,85	1259,50
834,02	1220,59
834,19	1241,07
834,36	1181,68
834,53	1245,16
834,70	1222,64
834,87	1247,21
835,04	1234,93
835,22	1327,08
835,39	1228,78
835,56	1232,88
835,73	1204,21
835,90	1277,93
836,07	1345,52
836,24	1255,40
836,41	1251,31
836,58	1279,98
836,75	1267,69
836,92	1286,12
837,09	1304,56
837,26	1300,46
837,43	1228,78
837,60	1187,82
837,77	1218,54
837,94	1288,17
838,12	1273,84
838,29	1249,26
838,46	1236,97
838,63	1251,31
838,80	1261,55
838,97	1366,00
839,14	1308,65
839,31	1275,88
839,48	1243,12
839,65	1288,17
839,82	1282,03
839,99	1202,16
840,16	1314,80
840,33	1241,07
840,50	1220,59
840,67	1259,50
840,84	1249,26
841,01	1218,54
841,18	1181,68
841,35	1275,88
841,52	1216,49
841,69	1318,89
841,86	1322,99
842,03	1298,41
842,20	1277,93
842,37	1273,84
842,54	1363,95
842,71	1288,17
842,88	1200,11
843,05	1284,08
843,22	1282,03
843,39	1210,35
843,56	1206,25
843,73	1243,12
843,90	1290,22
844,07	1255,40
844,24	1277,93
844,41	1230,83
844,58	1259,50
844,75	1273,84
844,92	1208,30
845,09	1282,03
845,26	1277,93
845,43	1286,12
845,60	1253,36
845,77	1247,21
845,94	1273,84
846,10	1273,84
846,27	1257,45
846,44	1298,41
846,61	1263,60
846,78	1214,45
846,95	1257,45
847,12	1236,97
847,29	1206,25
847,46	1294,32
847,63	1304,56
847,80	1191,92
847,97	1253,36
848,14	1220,59
848,31	1300,46
848,48	1284,08
848,65	1275,88
848,82	1249,26
848,98	1232,88
849,15	1253,36
849,32	1247,21
849,49	1304,56
849,66	1216,49
849,83	1245,16
850,00	1269,74
850,17	1210,35
850,34	1275,88
850,51	1269,74
850,68	1296,36
850,85	1261,55
851,01	1271,79
851,18	1271,79
851,35	1257,45
851,52	1241,07
851,69	1214,45
851,86	1247,21
852,03	1218,54
852,20	1284,08
852,37	1243,12
852,53	1249,26
852,70	1304,56
852,87	1286,12
853,04	1282,03
853,21	1339,37
853,38	1306,60
853,55	1239,02
853,72	1337,32
853,89	1269,74
854,05	1218,54
854,22	1282,03
854,39	1253,36
854,56	1214,45
854,73	1282,03
854,90	1298,41
855,07	1320,94
855,23	1292,27
855,40	1282,03
855,57	1304,56
855,74	1312,75
855,91	1236,97
856,08	1253,36
856,25	1224,69
856,41	1265,64
856,58	1212,40
856,75	1241,07
856,92	1216,49
857,09	1241,07
857,26	1245,16
857,42	1241,07
857,59	1251,31
857,76	1232,88
857,93	1286,12
858,10	1241,07
858,27	1316,84
858,43	1277,93
858,60	1314,80
858,77	1284,08
858,94	1234,93
859,11	1218,54
859,27	1306,60
859,44	1339,37
859,61	1322,99
859,78	1243,12
859,95	1208,30
860,12	1261,55
860,28	1302,51
860,45	1239,02
860,62	1271,79
860,79	1249,26
860,95	1286,12
861,12	1249,26
861,29	1257,45
861,46	1245,16
861,63	1251,31
861,79	1277,93
861,96	1325,04
862,13	1243,12
862,30	1249,26
862,47	1245,16
862,63	1282,03
862,80	1257,45
862,97	1228,78
863,14	1241,07
863,30	1271,79
863,47	1239,02
863,64	1271,79
863,81	1261,55
863,97	1257,45
864,14	1310,70
864,31	1339,37
864,48	1343,47
864,65	1247,21
864,81	1230,83
864,98	1183,73
865,15	1191,92
865,32	1269,74
865,48	1314,80
865,65	1234,93
865,82	1322,99
865,98	1304,56
866,15	1257,45
866,32	1210,35
866,49	1271,79
866,65	1206,25
866,82	1241,07
866,99	1263,60
867,16	1271,79
867,32	1202,16
867,49	1230,83
867,66	1247,21
867,83	1310,70
867,99	1298,41
868,16	1249,26
868,33	1294,32
868,49	1312,75
868,66	1345,52
868,83	1296,36
868,99	1286,12
869,16	1331,18
869,33	1288,17
869,50	1228,78
869,66	1273,84
869,83	1187,82
870,00	1255,40
870,16	1230,83
870,33	1239,02
870,50	1255,40
870,66	1239,02
870,83	1255,40
871,00	1310,70
871,17	1259,50
871,33	1198,06
871,50	1275,88
871,67	1255,40
871,83	1259,50
872,00	1257,45
872,17	1290,22
872,33	1386,47
872,50	1302,51
872,67	1187,82
872,83	1241,07
873,00	1300,46
873,17	1273,84
873,33	1251,31
873,50	1245,16
873,67	1241,07
873,83	1196,01
874,00	1333,23
874,16	1140,72
874,33	1208,30
874,50	1187,82
874,66	1247,21
874,83	1265,64
875,00	1208,30
875,16	1296,36
875,33	1245,16
875,50	1251,31
875,66	1327,08
875,83	1247,21
875,99	1269,74
876,16	1228,78
876,33	1277,93
876,49	1222,64
876,66	1286,12
876,83	1261,55
876,99	1202,16
877,16	1357,80
877,32	1273,84
877,49	1187,82
877,66	1286,12
877,82	1298,41
877,99	1296,36
878,15	1271,79
878,32	1277,93
878,49	1247,21
878,65	1277,93
878,82	1247,21
878,98	1243,12
879,15	1253,36
879,32	1327,08
879,48	1265,64
879,65	1263,60
879,81	1259,50
879,98	1257,45
880,15	1271,79
880,31	1236,97
880,48	1275,88
880,64	1327,08
880,81	1329,13
880,97	1216,49
881,14	1290,22
881,31	1335,28
881,47	1298,41
881,64	1275,88
881,80	1288,17
881,97	1210,35
882,13	1200,11
882,30	1273,84
882,47	1310,70
882,63	1302,51
882,80	1288,17
882,96	1277,93
883,13	1282,03
883,29	1282,03
883,46	1314,80
883,62	1273,84
883,79	1259,50
883,95	1177,58
884,12	1247,21
884,29	1378,28
884,45	1267,69
884,62	1290,22
884,78	1167,34
884,95	1253,36
885,11	1226,73
885,28	1290,22
885,44	1314,80
885,61	1269,74
885,77	1239,02
885,94	1284,08
886,10	1269,74
886,27	1212,40
886,43	1269,74
886,60	1347,56
886,76	1288,17
886,93	1275,88
887,09	1290,22
887,26	1263,60
887,42	1271,79
887,59	1290,22
887,75	1230,83
887,92	1273,84
888,08	1286,12
888,25	1275,88
888,41	1249,26
888,58	1236,97
888,74	1200,11
888,91	1136,62
>>>>>End Processed Spectral Data<<<<<
