SpectraSuite Data File
++++++++++++++++++++++++++++++++++++
Date: Sun Apr 03 19:55:48 CEST 2016
User: root
Dark Spectrum Present: No
Reference Spectrum Present: No
Number of Sampled Component Spectra: 1
Spectrometers: USB4C02835
Integration Time (usec): 10000 (USB4C02835)
Spectra Averaged: 1 (USB4C02835)
Boxcar Smoothing: 0 (USB4C02835)
Correct for Electrical Dark: No (USB4C02835)
Strobe/Lamp Enabled: No (USB4C02835)
Correct for Detector Non-linearity: No (USB4C02835)
Correct for Stray Light: No (USB4C02835)
Number of Pixels in Processed Spectrum: 3648
>>>>>Begin Processed Spectral Data<<<<<
177,47	1200,11
177,69	1200,11
177,91	1200,11
178,13	1208,30
178,36	1208,30
178,58	1247,21
178,80	1267,69
179,02	1249,26
179,24	1259,50
179,46	1277,93
179,68	1220,59
179,90	1210,35
180,13	1288,17
180,35	1286,12
180,57	1259,50
180,79	1267,69
181,01	1279,98
181,23	1271,79
181,45	1263,60
181,67	1222,64
181,90	1288,17
182,12	1218,54
182,34	1275,88
182,56	1267,69
182,78	1290,22
183,00	1185,77
183,22	1284,08
183,44	1341,42
183,66	1380,33
183,89	1226,73
184,11	1257,45
184,33	1269,74
184,55	1273,84
184,77	1189,87
184,99	1286,12
185,21	1173,49
185,43	1298,41
185,65	1247,21
185,87	1298,41
186,10	1236,97
186,32	1290,22
186,54	1249,26
186,76	1228,78
186,98	1286,12
187,20	1259,50
187,42	1279,98
187,64	1290,22
187,86	1263,60
188,08	1298,41
188,30	1249,26
188,52	1318,89
188,75	1259,50
188,97	1294,32
189,19	1206,25
189,41	1306,60
189,63	1257,45
189,85	1304,56
190,07	1310,70
190,29	1263,60
190,51	1239,02
190,73	1249,26
190,95	1241,07
191,17	1288,17
191,39	1294,32
191,61	1202,16
191,84	1277,93
192,06	1251,31
192,28	1247,21
192,50	1181,68
192,72	1259,50
192,94	1253,36
193,16	1208,30
193,38	1331,18
193,60	1177,58
193,82	1318,89
194,04	1271,79
194,26	1212,40
194,48	1253,36
194,70	1282,03
194,92	1292,27
195,14	1245,16
195,36	1189,87
195,58	1314,80
195,80	1290,22
196,02	1232,88
196,24	1286,12
196,46	1251,31
196,69	1253,36
196,91	1239,02
197,13	1288,17
197,35	1282,03
197,57	1273,84
197,79	1304,56
198,01	1257,45
198,23	1282,03
198,45	1208,30
198,67	1259,50
198,89	1218,54
199,11	1249,26
199,33	1259,50
199,55	1236,97
199,77	1292,27
199,99	1222,64
200,21	1206,25
200,43	1329,13
200,65	1255,40
200,87	1253,36
201,09	1312,75
201,31	1318,89
201,53	1300,46
201,75	1308,65
201,97	1236,97
202,19	1247,21
202,41	1239,02
202,63	1253,36
202,85	1222,64
203,07	1296,36
203,29	1228,78
203,51	1249,26
203,73	1202,16
203,95	1300,46
204,17	1269,74
204,39	1261,55
204,61	1243,12
204,83	1230,83
205,05	1374,19
205,27	1306,60
205,49	1259,50
205,71	1322,99
205,93	1279,98
206,15	1236,97
206,37	1243,12
206,59	1282,03
206,81	1191,92
207,03	1234,93
207,25	1310,70
207,47	1259,50
207,69	1294,32
207,91	1263,60
208,13	1308,65
208,34	1265,64
208,56	1239,02
208,78	1273,84
209,00	1222,64
209,22	1282,03
209,44	1245,16
209,66	1202,16
209,88	1314,80
210,10	1341,42
210,32	1267,69
210,54	1298,41
210,76	1347,56
210,98	1290,22
211,20	1243,12
211,42	1251,31
211,64	1210,35
211,86	1282,03
212,08	1302,51
212,30	1302,51
212,52	1322,99
212,74	1212,40
212,96	1277,93
213,17	1277,93
213,39	1216,49
213,61	1249,26
213,83	1363,95
214,05	1224,69
214,27	1234,93
214,49	1312,75
214,71	1247,21
214,93	1255,40
215,15	1271,79
215,37	1271,79
215,59	1257,45
215,81	1302,51
216,03	1216,49
216,24	1234,93
216,46	1167,34
216,68	1236,97
216,90	1306,60
217,12	1263,60
217,34	1230,83
217,56	1230,83
217,78	1294,32
218,00	1232,88
218,22	1284,08
218,44	1282,03
218,66	1216,49
218,87	1273,84
219,09	1261,55
219,31	1290,22
219,53	1255,40
219,75	1271,79
219,97	1294,32
220,19	1265,64
220,41	1269,74
220,63	1279,98
220,85	1206,25
221,06	1275,88
221,28	1314,80
221,50	1271,79
221,72	1277,93
221,94	1292,27
222,16	1245,16
222,38	1259,50
222,60	1251,31
222,82	1286,12
223,03	1224,69
223,25	1263,60
223,47	1273,84
223,69	1279,98
223,91	1263,60
224,13	1239,02
224,35	1296,36
224,57	1230,83
224,78	1228,78
225,00	1236,97
225,22	1255,40
225,44	1261,55
225,66	1222,64
225,88	1310,70
226,10	1294,32
226,32	1232,88
226,53	1226,73
226,75	1247,21
226,97	1271,79
227,19	1200,11
227,41	1263,60
227,63	1298,41
227,85	1253,36
228,06	1271,79
228,28	1357,80
228,50	1245,16
228,72	1302,51
228,94	1288,17
229,16	1261,55
229,37	1261,55
229,59	1271,79
229,81	1286,12
230,03	1216,49
230,25	1304,56
230,47	1263,60
230,69	1304,56
230,90	1245,16
231,12	1200,11
231,34	1279,98
231,56	1288,17
231,78	1273,84
232,00	1224,69
232,21	1286,12
232,43	1236,97
232,65	1298,41
232,87	1239,02
233,09	1312,75
233,30	1271,79
233,52	1261,55
233,74	1327,08
233,96	1249,26
234,18	1267,69
234,40	1273,84
234,61	1290,22
234,83	1288,17
235,05	1257,45
235,27	1331,18
235,49	1302,51
235,70	1294,32
235,92	1284,08
236,14	1265,64
236,36	1302,51
236,58	1269,74
236,79	1279,98
237,01	1277,93
237,23	1286,12
237,45	1257,45
237,67	1261,55
237,88	1253,36
238,10	1298,41
238,32	1273,84
238,54	1265,64
238,76	1279,98
238,97	1265,64
239,19	1241,07
239,41	1234,93
239,63	1247,21
239,85	1275,88
240,06	1230,83
240,28	1327,08
240,50	1314,80
240,72	1327,08
240,93	1216,49
241,15	1320,94
241,37	1288,17
241,59	1302,51
241,81	1239,02
242,02	1241,07
242,24	1325,04
242,46	1304,56
242,68	1304,56
242,89	1261,55
243,11	1198,06
243,33	1288,17
243,55	1198,06
243,76	1275,88
243,98	1290,22
244,20	1331,18
244,42	1171,44
244,64	1249,26
244,85	1277,93
245,07	1257,45
245,29	1257,45
245,51	1265,64
245,72	1298,41
245,94	1263,60
246,16	1265,64
246,38	1222,64
246,59	1269,74
246,81	1275,88
247,03	1253,36
247,24	1325,04
247,46	1304,56
247,68	1245,16
247,90	1245,16
248,11	1269,74
248,33	1146,86
248,55	1259,50
248,77	1273,84
248,98	1290,22
249,20	1322,99
249,42	1298,41
249,64	1298,41
249,85	1269,74
250,07	1130,48
250,29	1339,37
250,50	1335,28
250,72	1314,80
250,94	1259,50
251,16	1243,12
251,37	1275,88
251,59	1232,88
251,81	1271,79
252,02	1304,56
252,24	1259,50
252,46	1357,80
252,68	1312,75
252,89	1300,46
253,11	1308,65
253,33	1314,80
253,54	1247,21
253,76	1255,40
253,98	1279,98
254,20	1273,84
254,41	1372,14
254,63	1314,80
254,85	1251,31
255,06	1282,03
255,28	1363,95
255,50	1282,03
255,71	1191,92
255,93	1245,16
256,15	1298,41
256,36	1232,88
256,58	1306,60
256,80	1269,74
257,02	1298,41
257,23	1316,84
257,45	1294,32
257,67	1300,46
257,88	1218,54
258,10	1304,56
258,32	1294,32
258,53	1241,07
258,75	1312,75
258,97	1320,94
259,18	1255,40
259,40	1310,70
259,62	1273,84
259,83	1310,70
260,05	1206,25
260,27	1339,37
260,48	1327,08
260,70	1196,01
260,92	1269,74
261,13	1302,51
261,35	1333,23
261,57	1222,64
261,78	1273,84
262,00	1374,19
262,22	1249,26
262,43	1255,40
262,65	1298,41
262,86	1312,75
263,08	1314,80
263,30	1277,93
263,51	1261,55
263,73	1304,56
263,95	1232,88
264,16	1298,41
264,38	1261,55
264,60	1249,26
264,81	1196,01
265,03	1306,60
265,25	1230,83
265,46	1255,40
265,68	1306,60
265,89	1263,60
266,11	1273,84
266,33	1296,36
266,54	1251,31
266,76	1267,69
266,98	1249,26
267,19	1286,12
267,41	1304,56
267,62	1304,56
267,84	1239,02
268,06	1296,36
268,27	1327,08
268,49	1316,84
268,70	1316,84
268,92	1312,75
269,14	1191,92
269,35	1222,64
269,57	1320,94
269,79	1304,56
270,00	1282,03
270,22	1329,13
270,43	1277,93
270,65	1269,74
270,87	1275,88
271,08	1249,26
271,30	1265,64
271,51	1282,03
271,73	1279,98
271,95	1304,56
272,16	1239,02
272,38	1372,14
272,59	1292,27
272,81	1292,27
273,02	1316,84
273,24	1239,02
273,46	1263,60
273,67	1249,26
273,89	1302,51
274,10	1249,26
274,32	1314,80
274,54	1288,17
274,75	1271,79
274,97	1273,84
275,18	1290,22
275,40	1345,52
275,61	1308,65
275,83	1302,51
276,05	1261,55
276,26	1241,07
276,48	1320,94
276,69	1249,26
276,91	1189,87
277,12	1259,50
277,34	1263,60
277,55	1296,36
277,77	1208,30
277,99	1282,03
278,20	1198,06
278,42	1239,02
278,63	1208,30
278,85	1339,37
279,06	1298,41
279,28	1269,74
279,49	1331,18
279,71	1273,84
279,93	1304,56
280,14	1267,69
280,36	1257,45
280,57	1290,22
280,79	1312,75
281,00	1265,64
281,22	1257,45
281,43	1273,84
281,65	1296,36
281,86	1243,12
282,08	1298,41
282,29	1269,74
282,51	1275,88
282,73	1294,32
282,94	1331,18
283,16	1263,60
283,37	1296,36
283,59	1234,93
283,80	1234,93
284,02	1308,65
284,23	1218,54
284,45	1206,25
284,66	1298,41
284,88	1191,92
285,09	1286,12
285,31	1196,01
285,52	1318,89
285,74	1292,27
285,95	1273,84
286,17	1249,26
286,38	1325,04
286,60	1265,64
286,81	1312,75
287,03	1298,41
287,24	1277,93
287,46	1269,74
287,67	1284,08
287,89	1257,45
288,10	1220,59
288,32	1224,69
288,53	1245,16
288,75	1277,93
288,96	1327,08
289,18	1304,56
289,39	1290,22
289,61	1214,45
289,82	1267,69
290,04	1279,98
290,25	1241,07
290,47	1361,90
290,68	1333,23
290,90	1265,64
291,11	1269,74
291,33	1267,69
291,54	1239,02
291,76	1265,64
291,97	1200,11
292,18	1265,64
292,40	1288,17
292,61	1200,11
292,83	1304,56
293,04	1232,88
293,26	1230,83
293,47	1273,84
293,69	1361,90
293,90	1290,22
294,12	1261,55
294,33	1220,59
294,55	1286,12
294,76	1339,37
294,97	1249,26
295,19	1322,99
295,40	1241,07
295,62	1296,36
295,83	1245,16
296,05	1304,56
296,26	1249,26
296,48	1263,60
296,69	1257,45
296,90	1249,26
297,12	1191,92
297,33	1329,13
297,55	1241,07
297,76	1243,12
297,98	1296,36
298,19	1304,56
298,41	1279,98
298,62	1204,21
298,83	1298,41
299,05	1189,87
299,26	1150,96
299,48	1265,64
299,69	1290,22
299,90	1312,75
300,12	1249,26
300,33	1296,36
300,55	1245,16
300,76	1282,03
300,98	1314,80
301,19	1183,73
301,40	1282,03
301,62	1228,78
301,83	1204,21
302,05	1241,07
302,26	1243,12
302,47	1273,84
302,69	1263,60
302,90	1265,64
303,12	1294,32
303,33	1282,03
303,54	1261,55
303,76	1277,93
303,97	1290,22
304,19	1243,12
304,40	1300,46
304,61	1257,45
304,83	1200,11
305,04	1257,45
305,26	1263,60
305,47	1222,64
305,68	1243,12
305,90	1267,69
306,11	1263,60
306,33	1271,79
306,54	1318,89
306,75	1279,98
306,97	1216,49
307,18	1314,80
307,39	1269,74
307,61	1337,32
307,82	1261,55
308,04	1296,36
308,25	1196,01
308,46	1177,58
308,68	1234,93
308,89	1230,83
309,10	1228,78
309,32	1318,89
309,53	1277,93
309,74	1339,37
309,96	1282,03
310,17	1261,55
310,39	1236,97
310,60	1339,37
310,81	1202,16
311,03	1249,26
311,24	1193,97
311,45	1298,41
311,67	1298,41
311,88	1294,32
312,09	1290,22
312,31	1290,22
312,52	1284,08
312,73	1224,69
312,95	1241,07
313,16	1255,40
313,37	1255,40
313,59	1320,94
313,80	1279,98
314,01	1331,18
314,23	1218,54
314,44	1292,27
314,65	1232,88
314,87	1300,46
315,08	1251,31
315,29	1277,93
315,51	1361,90
315,72	1228,78
315,93	1204,21
316,15	1255,40
316,36	1239,02
316,57	1286,12
316,79	1230,83
317,00	1236,97
317,21	1232,88
317,43	1230,83
317,64	1316,84
317,85	1236,97
318,07	1298,41
318,28	1279,98
318,49	1261,55
318,70	1251,31
318,92	1271,79
319,13	1259,50
319,34	1290,22
319,56	1241,07
319,77	1275,88
319,98	1193,97
320,20	1208,30
320,41	1302,51
320,62	1380,33
320,83	1302,51
321,05	1298,41
321,26	1290,22
321,47	1243,12
321,69	1286,12
321,90	1298,41
322,11	1314,80
322,32	1269,74
322,54	1286,12
322,75	1302,51
322,96	1318,89
323,18	1247,21
323,39	1261,55
323,60	1355,76
323,81	1198,06
324,03	1310,70
324,24	1253,36
324,45	1218,54
324,66	1253,36
324,88	1259,50
325,09	1230,83
325,30	1349,61
325,52	1298,41
325,73	1181,68
325,94	1226,73
326,15	1257,45
326,37	1277,93
326,58	1239,02
326,79	1220,59
327,00	1253,36
327,22	1257,45
327,43	1277,93
327,64	1243,12
327,85	1228,78
328,07	1236,97
328,28	1253,36
328,49	1286,12
328,70	1333,23
328,92	1249,26
329,13	1273,84
329,34	1267,69
329,55	1187,82
329,76	1320,94
329,98	1230,83
330,19	1243,12
330,40	1298,41
330,61	1230,83
330,83	1230,83
331,04	1261,55
331,25	1271,79
331,46	1304,56
331,68	1273,84
331,89	1331,18
332,10	1236,97
332,31	1298,41
332,52	1232,88
332,74	1304,56
332,95	1236,97
333,16	1290,22
333,37	1249,26
333,58	1239,02
333,80	1282,03
334,01	1265,64
334,22	1277,93
334,43	1314,80
334,64	1282,03
334,86	1261,55
335,07	1286,12
335,28	1273,84
335,49	1277,93
335,70	1345,52
335,92	1212,40
336,13	1249,26
336,34	1306,60
336,55	1249,26
336,76	1210,35
336,98	1327,08
337,19	1279,98
337,40	1331,18
337,61	1271,79
337,82	1271,79
338,04	1241,07
338,25	1288,17
338,46	1271,79
338,67	1290,22
338,88	1269,74
339,09	1220,59
339,31	1226,73
339,52	1255,40
339,73	1269,74
339,94	1247,21
340,15	1265,64
340,36	1306,60
340,58	1298,41
340,79	1316,84
341,00	1265,64
341,21	1234,93
341,42	1263,60
341,63	1230,83
341,85	1284,08
342,06	1247,21
342,27	1269,74
342,48	1265,64
342,69	1257,45
342,90	1269,74
343,12	1220,59
343,33	1298,41
343,54	1261,55
343,75	1290,22
343,96	1239,02
344,17	1306,60
344,38	1277,93
344,60	1288,17
344,81	1302,51
345,02	1232,88
345,23	1339,37
345,44	1296,36
345,65	1263,60
345,86	1273,84
346,07	1193,97
346,29	1265,64
346,50	1263,60
346,71	1243,12
346,92	1245,16
347,13	1273,84
347,34	1249,26
347,55	1253,36
347,76	1232,88
347,98	1273,84
348,19	1310,70
348,40	1286,12
348,61	1239,02
348,82	1273,84
349,03	1234,93
349,24	1239,02
349,45	1226,73
349,66	1259,50
349,88	1202,16
350,09	1239,02
350,30	1191,92
350,51	1261,55
350,72	1308,65
350,93	1267,69
351,14	1279,98
351,35	1265,64
351,56	1236,97
351,77	1263,60
351,99	1265,64
352,20	1271,79
352,41	1212,40
352,62	1269,74
352,83	1257,45
353,04	1284,08
353,25	1245,16
353,46	1249,26
353,67	1265,64
353,88	1308,65
354,09	1302,51
354,30	1296,36
354,52	1300,46
354,73	1302,51
354,94	1292,27
355,15	1296,36
355,36	1312,75
355,57	1294,32
355,78	1294,32
355,99	1230,83
356,20	1206,25
356,41	1208,30
356,62	1304,56
356,83	1339,37
357,04	1245,16
357,25	1239,02
357,46	1269,74
357,68	1296,36
357,89	1325,04
358,10	1269,74
358,31	1200,11
358,52	1236,97
358,73	1249,26
358,94	1257,45
359,15	1263,60
359,36	1296,36
359,57	1290,22
359,78	1210,35
359,99	1169,39
360,20	1322,99
360,41	1308,65
360,62	1339,37
360,83	1314,80
361,04	1249,26
361,25	1239,02
361,46	1251,31
361,67	1308,65
361,88	1261,55
362,09	1292,27
362,30	1269,74
362,51	1198,06
362,72	1210,35
362,93	1302,51
363,14	1251,31
363,35	1232,88
363,56	1271,79
363,78	1236,97
363,99	1249,26
364,20	1275,88
364,41	1259,50
364,62	1347,56
364,83	1189,87
365,04	1300,46
365,25	1288,17
365,46	1224,69
365,67	1183,73
365,88	1236,97
366,09	1329,13
366,30	1193,97
366,51	1222,64
366,72	1216,49
366,93	1290,22
367,14	1318,89
367,35	1322,99
367,56	1232,88
367,77	1267,69
367,98	1306,60
368,18	1333,23
368,39	1282,03
368,60	1273,84
368,81	1261,55
369,02	1269,74
369,23	1279,98
369,44	1273,84
369,65	1261,55
369,86	1230,83
370,07	1263,60
370,28	1253,36
370,49	1251,31
370,70	1218,54
370,91	1284,08
371,12	1247,21
371,33	1226,73
371,54	1320,94
371,75	1189,87
371,96	1320,94
372,17	1236,97
372,38	1284,08
372,59	1271,79
372,80	1241,07
373,01	1279,98
373,22	1290,22
373,43	1292,27
373,64	1279,98
373,85	1308,65
374,06	1294,32
374,26	1239,02
374,47	1290,22
374,68	1355,76
374,89	1277,93
375,10	1232,88
375,31	1284,08
375,52	1327,08
375,73	1267,69
375,94	1304,56
376,15	1312,75
376,36	1245,16
376,57	1279,98
376,78	1273,84
376,99	1275,88
377,20	1255,40
377,40	1304,56
377,61	1253,36
377,82	1275,88
378,03	1212,40
378,24	1351,66
378,45	1290,22
378,66	1284,08
378,87	1265,64
379,08	1245,16
379,29	1234,93
379,50	1230,83
379,71	1320,94
379,91	1275,88
380,12	1273,84
380,33	1329,13
380,54	1275,88
380,75	1372,14
380,96	1230,83
381,17	1228,78
381,38	1206,25
381,59	1245,16
381,80	1232,88
382,00	1259,50
382,21	1267,69
382,42	1273,84
382,63	1269,74
382,84	1304,56
383,05	1236,97
383,26	1245,16
383,47	1349,61
383,68	1224,69
383,88	1255,40
384,09	1257,45
384,30	1249,26
384,51	1277,93
384,72	1288,17
384,93	1302,51
385,14	1255,40
385,35	1298,41
385,55	1255,40
385,76	1247,21
385,97	1318,89
386,18	1198,06
386,39	1267,69
386,60	1290,22
386,81	1239,02
387,02	1271,79
387,22	1267,69
387,43	1279,98
387,64	1234,93
387,85	1222,64
388,06	1210,35
388,27	1224,69
388,48	1263,60
388,68	1265,64
388,89	1320,94
389,10	1304,56
389,31	1228,78
389,52	1216,49
389,73	1304,56
389,93	1247,21
390,14	1294,32
390,35	1253,36
390,56	1357,80
390,77	1296,36
390,98	1169,39
391,18	1282,03
391,39	1284,08
391,60	1214,45
391,81	1216,49
392,02	1296,36
392,23	1304,56
392,43	1298,41
392,64	1255,40
392,85	1292,27
393,06	1259,50
393,27	1265,64
393,47	1267,69
393,68	1206,25
393,89	1263,60
394,10	1273,84
394,31	1290,22
394,52	1263,60
394,72	1247,21
394,93	1185,77
395,14	1247,21
395,35	1298,41
395,56	1269,74
395,76	1263,60
395,97	1261,55
396,18	1288,17
396,39	1320,94
396,60	1239,02
396,80	1269,74
397,01	1359,85
397,22	1253,36
397,43	1263,60
397,64	1355,76
397,84	1279,98
398,05	1206,25
398,26	1247,21
398,47	1236,97
398,67	1212,40
398,88	1335,28
399,09	1286,12
399,30	1232,88
399,51	1347,56
399,71	1243,12
399,92	1325,04
400,13	1208,30
400,34	1314,80
400,54	1253,36
400,75	1167,34
400,96	1286,12
401,17	1265,64
401,37	1261,55
401,58	1286,12
401,79	1230,83
402,00	1308,65
402,21	1171,44
402,41	1308,65
402,62	1282,03
402,83	1247,21
403,04	1191,92
403,24	1345,52
403,45	1253,36
403,66	1234,93
403,87	1220,59
404,07	1257,45
404,28	1284,08
404,49	1269,74
404,70	1284,08
404,90	1331,18
405,11	1286,12
405,32	1228,78
405,52	1300,46
405,73	1284,08
405,94	1218,54
406,15	1257,45
406,35	1277,93
406,56	1230,83
406,77	1269,74
406,98	1232,88
407,18	1263,60
407,39	1284,08
407,60	1322,99
407,80	1210,35
408,01	1255,40
408,22	1304,56
408,43	1232,88
408,63	1298,41
408,84	1234,93
409,05	1224,69
409,25	1234,93
409,46	1345,52
409,67	1261,55
409,88	1320,94
410,08	1204,21
410,29	1261,55
410,50	1253,36
410,70	1279,98
410,91	1224,69
411,12	1279,98
411,32	1279,98
411,53	1265,64
411,74	1341,42
411,95	1226,73
412,15	1226,73
412,36	1273,84
412,57	1236,97
412,77	1337,32
412,98	1232,88
413,19	1302,51
413,39	1275,88
413,60	1257,45
413,81	1177,58
414,01	1261,55
414,22	1288,17
414,43	1261,55
414,63	1267,69
414,84	1210,35
415,05	1300,46
415,25	1259,50
415,46	1302,51
415,67	1345,52
415,87	1271,79
416,08	1320,94
416,29	1298,41
416,49	1269,74
416,70	1271,79
416,91	1261,55
417,11	1228,78
417,32	1255,40
417,53	1288,17
417,73	1331,18
417,94	1298,41
418,15	1296,36
418,35	1173,49
418,56	1259,50
418,77	1320,94
418,97	1308,65
419,18	1296,36
419,38	1294,32
419,59	1247,21
419,80	1261,55
420,00	1292,27
420,21	1290,22
420,42	1251,31
420,62	1314,80
420,83	1232,88
421,04	1282,03
421,24	1222,64
421,45	1243,12
421,65	1257,45
421,86	1273,84
422,07	1179,63
422,27	1296,36
422,48	1282,03
422,69	1179,63
422,89	1259,50
423,10	1247,21
423,30	1206,25
423,51	1228,78
423,72	1318,89
423,92	1300,46
424,13	1308,65
424,33	1228,78
424,54	1284,08
424,75	1193,97
424,95	1316,84
425,16	1298,41
425,36	1261,55
425,57	1202,16
425,78	1277,93
425,98	1230,83
426,19	1269,74
426,39	1249,26
426,60	1275,88
426,81	1329,13
427,01	1226,73
427,22	1273,84
427,42	1255,40
427,63	1267,69
427,83	1218,54
428,04	1302,51
428,25	1265,64
428,45	1290,22
428,66	1245,16
428,86	1204,21
429,07	1337,32
429,28	1296,36
429,48	1349,61
429,69	1265,64
429,89	1193,97
430,10	1255,40
430,30	1259,50
430,51	1193,97
430,71	1284,08
430,92	1239,02
431,13	1251,31
431,33	1214,45
431,54	1304,56
431,74	1234,93
431,95	1320,94
432,15	1222,64
432,36	1271,79
432,56	1306,60
432,77	1255,40
432,98	1282,03
433,18	1294,32
433,39	1273,84
433,59	1277,93
433,80	1302,51
434,00	1183,73
434,21	1255,40
434,41	1300,46
434,62	1331,18
434,82	1204,21
435,03	1241,07
435,23	1282,03
435,44	1234,93
435,64	1210,35
435,85	1253,36
436,06	1241,07
436,26	1277,93
436,47	1236,97
436,67	1263,60
436,88	1310,70
437,08	1325,04
437,29	1306,60
437,49	1230,83
437,70	1226,73
437,90	1292,27
438,11	1292,27
438,31	1177,58
438,52	1290,22
438,72	1286,12
438,93	1259,50
439,13	1236,97
439,34	1279,98
439,54	1218,54
439,75	1216,49
439,95	1247,21
440,16	1261,55
440,36	1290,22
440,57	1251,31
440,77	1249,26
440,98	1218,54
441,18	1310,70
441,39	1271,79
441,59	1286,12
441,80	1216,49
442,00	1304,56
442,21	1247,21
442,41	1241,07
442,62	1290,22
442,82	1288,17
443,02	1271,79
443,23	1265,64
443,43	1265,64
443,64	1222,64
443,84	1245,16
444,05	1261,55
444,25	1306,60
444,46	1318,89
444,66	1279,98
444,87	1282,03
445,07	1320,94
445,28	1222,64
445,48	1249,26
445,69	1382,38
445,89	1261,55
446,09	1249,26
446,30	1286,12
446,50	1214,45
446,71	1243,12
446,91	1343,47
447,12	1189,87
447,32	1335,28
447,53	1284,08
447,73	1185,77
447,93	1288,17
448,14	1286,12
448,34	1249,26
448,55	1265,64
448,75	1259,50
448,96	1366,00
449,16	1312,75
449,36	1292,27
449,57	1269,74
449,77	1206,25
449,98	1296,36
450,18	1312,75
450,39	1210,35
450,59	1228,78
450,79	1275,88
451,00	1310,70
451,20	1288,17
451,41	1275,88
451,61	1288,17
451,81	1312,75
452,02	1257,45
452,22	1257,45
452,43	1322,99
452,63	1333,23
452,84	1279,98
453,04	1322,99
453,24	1355,76
453,45	1282,03
453,65	1337,32
453,86	1267,69
454,06	1228,78
454,26	1300,46
454,47	1333,23
454,67	1265,64
454,87	1318,89
455,08	1267,69
455,28	1234,93
455,49	1290,22
455,69	1284,08
455,89	1294,32
456,10	1249,26
456,30	1308,65
456,51	1216,49
456,71	1322,99
456,91	1273,84
457,12	1267,69
457,32	1196,01
457,52	1273,84
457,73	1234,93
457,93	1322,99
458,14	1271,79
458,34	1259,50
458,54	1220,59
458,75	1247,21
458,95	1275,88
459,15	1318,89
459,36	1236,97
459,56	1306,60
459,76	1308,65
459,97	1249,26
460,17	1306,60
460,37	1273,84
460,58	1263,60
460,78	1279,98
460,99	1271,79
461,19	1286,12
461,39	1247,21
461,60	1329,13
461,80	1361,90
462,00	1269,74
462,21	1368,04
462,41	1294,32
462,61	1318,89
462,82	1273,84
463,02	1191,92
463,22	1288,17
463,43	1257,45
463,63	1304,56
463,83	1200,11
464,04	1363,95
464,24	1308,65
464,44	1236,97
464,64	1333,23
464,85	1245,16
465,05	1302,51
465,25	1236,97
465,46	1355,76
465,66	1306,60
465,86	1273,84
466,07	1290,22
466,27	1267,69
466,47	1226,73
466,68	1273,84
466,88	1296,36
467,08	1249,26
467,29	1318,89
467,49	1316,84
467,69	1308,65
467,89	1296,36
468,10	1275,88
468,30	1331,18
468,50	1325,04
468,71	1185,77
468,91	1247,21
469,11	1363,95
469,31	1275,88
469,52	1224,69
469,72	1333,23
469,92	1200,11
470,13	1310,70
470,33	1310,70
470,53	1241,07
470,73	1284,08
470,94	1267,69
471,14	1279,98
471,34	1271,79
471,54	1216,49
471,75	1300,46
471,95	1220,59
472,15	1312,75
472,36	1234,93
472,56	1277,93
472,76	1308,65
472,96	1232,88
473,17	1294,32
473,37	1261,55
473,57	1218,54
473,77	1282,03
473,98	1320,94
474,18	1314,80
474,38	1247,21
474,58	1271,79
474,79	1294,32
474,99	1310,70
475,19	1372,14
475,39	1277,93
475,60	1349,61
475,80	1273,84
476,00	1224,69
476,20	1249,26
476,41	1271,79
476,61	1273,84
476,81	1198,06
477,01	1341,42
477,21	1261,55
477,42	1284,08
477,62	1263,60
477,82	1329,13
478,02	1265,64
478,23	1269,74
478,43	1271,79
478,63	1294,32
478,83	1306,60
479,03	1224,69
479,24	1204,21
479,44	1349,61
479,64	1263,60
479,84	1208,30
480,04	1312,75
480,25	1200,11
480,45	1284,08
480,65	1200,11
480,85	1298,41
481,06	1341,42
481,26	1198,06
481,46	1236,97
481,66	1236,97
481,86	1316,84
482,06	1288,17
482,27	1275,88
482,47	1251,31
482,67	1259,50
482,87	1263,60
483,07	1325,04
483,28	1218,54
483,48	1298,41
483,68	1241,07
483,88	1296,36
484,08	1255,40
484,29	1320,94
484,49	1318,89
484,69	1339,37
484,89	1290,22
485,09	1296,36
485,29	1267,69
485,50	1267,69
485,70	1314,80
485,90	1353,71
486,10	1257,45
486,30	1286,12
486,50	1196,01
486,71	1306,60
486,91	1265,64
487,11	1251,31
487,31	1275,88
487,51	1275,88
487,71	1232,88
487,91	1327,08
488,12	1279,98
488,32	1218,54
488,52	1263,60
488,72	1298,41
488,92	1298,41
489,12	1267,69
489,32	1296,36
489,53	1284,08
489,73	1165,29
489,93	1239,02
490,13	1288,17
490,33	1296,36
490,53	1288,17
490,73	1279,98
490,94	1267,69
491,14	1259,50
491,34	1247,21
491,54	1329,13
491,74	1294,32
491,94	1294,32
492,14	1282,03
492,34	1206,25
492,54	1341,42
492,75	1241,07
492,95	1308,65
493,15	1273,84
493,35	1306,60
493,55	1275,88
493,75	1263,60
493,95	1257,45
494,15	1259,50
494,35	1232,88
494,56	1290,22
494,76	1296,36
494,96	1282,03
495,16	1212,40
495,36	1269,74
495,56	1288,17
495,76	1284,08
495,96	1269,74
496,16	1282,03
496,36	1265,64
496,56	1241,07
496,77	1261,55
496,97	1271,79
497,17	1265,64
497,37	1185,77
497,57	1347,56
497,77	1273,84
497,97	1345,52
498,17	1202,16
498,37	1314,80
498,57	1273,84
498,77	1310,70
498,97	1275,88
499,17	1275,88
499,38	1239,02
499,58	1320,94
499,78	1222,64
499,98	1296,36
500,18	1255,40
500,38	1271,79
500,58	1247,21
500,78	1290,22
500,98	1300,46
501,18	1208,30
501,38	1257,45
501,58	1265,64
501,78	1288,17
501,98	1298,41
502,18	1286,12
502,38	1298,41
502,58	1269,74
502,78	1230,83
502,98	1257,45
503,18	1232,88
503,38	1288,17
503,59	1261,55
503,79	1306,60
503,99	1277,93
504,19	1314,80
504,39	1327,08
504,59	1241,07
504,79	1310,70
504,99	1241,07
505,19	1314,80
505,39	1249,26
505,59	1318,89
505,79	1277,93
505,99	1232,88
506,19	1314,80
506,39	1255,40
506,59	1261,55
506,79	1206,25
506,99	1273,84
507,19	1288,17
507,39	1257,45
507,59	1349,61
507,79	1277,93
507,99	1310,70
508,19	1259,50
508,39	1279,98
508,59	1212,40
508,79	1259,50
508,99	1265,64
509,19	1312,75
509,39	1275,88
509,59	1253,36
509,79	1271,79
509,99	1316,84
510,19	1366,00
510,39	1282,03
510,59	1249,26
510,79	1230,83
510,99	1269,74
511,19	1251,31
511,39	1331,18
511,59	1325,04
511,79	1253,36
511,99	1216,49
512,19	1261,55
512,38	1259,50
512,58	1312,75
512,78	1241,07
512,98	1269,74
513,18	1265,64
513,38	1300,46
513,58	1302,51
513,78	1249,26
513,98	1361,90
514,18	1253,36
514,38	1279,98
514,58	1267,69
514,78	1273,84
514,98	1269,74
515,18	1314,80
515,38	1257,45
515,58	1259,50
515,78	1181,68
515,98	1302,51
516,18	1277,93
516,38	1249,26
516,57	1372,14
516,77	1329,13
516,97	1249,26
517,17	1255,40
517,37	1253,36
517,57	1206,25
517,77	1353,71
517,97	1239,02
518,17	1310,70
518,37	1245,16
518,57	1226,73
518,77	1314,80
518,97	1306,60
519,16	1339,37
519,36	1198,06
519,56	1265,64
519,76	1265,64
519,96	1329,13
520,16	1236,97
520,36	1273,84
520,56	1273,84
520,76	1302,51
520,96	1226,73
521,16	1337,32
521,35	1316,84
521,55	1306,60
521,75	1300,46
521,95	1269,74
522,15	1298,41
522,35	1286,12
522,55	1310,70
522,75	1255,40
522,95	1286,12
523,14	1243,12
523,34	1251,31
523,54	1236,97
523,74	1245,16
523,94	1279,98
524,14	1279,98
524,34	1198,06
524,54	1312,75
524,73	1257,45
524,93	1288,17
525,13	1245,16
525,33	1265,64
525,53	1220,59
525,73	1253,36
525,93	1310,70
526,13	1286,12
526,32	1216,49
526,52	1257,45
526,72	1249,26
526,92	1228,78
527,12	1269,74
527,32	1224,69
527,52	1292,27
527,71	1316,84
527,91	1279,98
528,11	1318,89
528,31	1286,12
528,51	1282,03
528,71	1269,74
528,90	1286,12
529,10	1325,04
529,30	1259,50
529,50	1251,31
529,70	1251,31
529,90	1275,88
530,09	1329,13
530,29	1312,75
530,49	1257,45
530,69	1294,32
530,89	1261,55
531,09	1263,60
531,28	1286,12
531,48	1224,69
531,68	1288,17
531,88	1247,21
532,08	1296,36
532,28	1241,07
532,47	1353,71
532,67	1294,32
532,87	1226,73
533,07	1257,45
533,27	1269,74
533,46	1320,94
533,66	1320,94
533,86	1292,27
534,06	1314,80
534,26	1290,22
534,45	1267,69
534,65	1286,12
534,85	1286,12
535,05	1331,18
535,25	1273,84
535,44	1273,84
535,64	1320,94
535,84	1273,84
536,04	1261,55
536,24	1275,88
536,43	1339,37
536,63	1263,60
536,83	1294,32
537,03	1243,12
537,22	1253,36
537,42	1296,36
537,62	1257,45
537,82	1241,07
538,02	1249,26
538,21	1327,08
538,41	1267,69
538,61	1288,17
538,81	1214,45
539,00	1267,69
539,20	1302,51
539,40	1249,26
539,60	1300,46
539,79	1269,74
539,99	1230,83
540,19	1296,36
540,39	1257,45
540,58	1261,55
540,78	1318,89
540,98	1316,84
541,18	1294,32
541,37	1275,88
541,57	1230,83
541,77	1322,99
541,97	1320,94
542,16	1216,49
542,36	1210,35
542,56	1277,93
542,76	1269,74
542,95	1300,46
543,15	1316,84
543,35	1300,46
543,54	1273,84
543,74	1292,27
543,94	1329,13
544,14	1275,88
544,33	1292,27
544,53	1239,02
544,73	1298,41
544,93	1273,84
545,12	1304,56
545,32	1249,26
545,52	1300,46
545,71	1206,25
545,91	1277,93
546,11	1236,97
546,30	1290,22
546,50	1282,03
546,70	1286,12
546,90	1277,93
547,09	1378,28
547,29	1265,64
547,49	1267,69
547,68	1288,17
547,88	1353,71
548,08	1269,74
548,27	1292,27
548,47	1296,36
548,67	1314,80
548,87	1269,74
549,06	1247,21
549,26	1337,32
549,46	1243,12
549,65	1296,36
549,85	1306,60
550,05	1327,08
550,24	1263,60
550,44	1322,99
550,64	1298,41
550,83	1339,37
551,03	1308,65
551,23	1269,74
551,42	1253,36
551,62	1251,31
551,82	1288,17
552,01	1357,80
552,21	1275,88
552,41	1322,99
552,60	1277,93
552,80	1292,27
553,00	1327,08
553,19	1294,32
553,39	1236,97
553,59	1298,41
553,78	1220,59
553,98	1230,83
554,17	1298,41
554,37	1331,18
554,57	1312,75
554,76	1294,32
554,96	1257,45
555,16	1304,56
555,35	1243,12
555,55	1331,18
555,75	1261,55
555,94	1234,93
556,14	1251,31
556,33	1265,64
556,53	1277,93
556,73	1269,74
556,92	1355,76
557,12	1267,69
557,32	1327,08
557,51	1335,28
557,71	1286,12
557,90	1325,04
558,10	1308,65
558,30	1273,84
558,49	1255,40
558,69	1372,14
558,88	1245,16
559,08	1239,02
559,28	1322,99
559,47	1339,37
559,67	1300,46
559,86	1279,98
560,06	1232,88
560,26	1306,60
560,45	1282,03
560,65	1249,26
560,84	1265,64
561,04	1286,12
561,24	1273,84
561,43	1327,08
561,63	1343,47
561,82	1277,93
562,02	1288,17
562,22	1288,17
562,41	1245,16
562,61	1279,98
562,80	1374,19
563,00	1357,80
563,19	1327,08
563,39	1304,56
563,59	1191,92
563,78	1341,42
563,98	1359,85
564,17	1302,51
564,37	1261,55
564,56	1294,32
564,76	1267,69
564,96	1304,56
565,15	1257,45
565,35	1331,18
565,54	1275,88
565,74	1288,17
565,93	1331,18
566,13	1327,08
566,32	1273,84
566,52	1314,80
566,71	1239,02
566,91	1353,71
567,11	1196,01
567,30	1335,28
567,50	1318,89
567,69	1257,45
567,89	1247,21
568,08	1286,12
568,28	1267,69
568,47	1284,08
568,67	1261,55
568,86	1318,89
569,06	1343,47
569,25	1320,94
569,45	1251,31
569,64	1263,60
569,84	1382,38
570,04	1304,56
570,23	1239,02
570,43	1247,21
570,62	1327,08
570,82	1304,56
571,01	1218,54
571,21	1314,80
571,40	1308,65
571,60	1273,84
571,79	1282,03
571,99	1277,93
572,18	1241,07
572,38	1253,36
572,57	1236,97
572,77	1286,12
572,96	1255,40
573,16	1357,80
573,35	1341,42
573,55	1282,03
573,74	1249,26
573,94	1218,54
574,13	1312,75
574,33	1325,04
574,52	1302,51
574,71	1292,27
574,91	1261,55
575,10	1304,56
575,30	1357,80
575,49	1259,50
575,69	1306,60
575,88	1308,65
576,08	1204,21
576,27	1290,22
576,47	1296,36
576,66	1279,98
576,86	1269,74
577,05	1279,98
577,25	1308,65
577,44	1331,18
577,64	1196,01
577,83	1216,49
578,02	1267,69
578,22	1284,08
578,41	1261,55
578,61	1265,64
578,80	1275,88
579,00	1279,98
579,19	1312,75
579,39	1357,80
579,58	1286,12
579,77	1288,17
579,97	1232,88
580,16	1259,50
580,36	1282,03
580,55	1304,56
580,75	1302,51
580,94	1279,98
581,13	1267,69
581,33	1226,73
581,52	1232,88
581,72	1290,22
581,91	1263,60
582,11	1288,17
582,30	1302,51
582,49	1290,22
582,69	1327,08
582,88	1206,25
583,08	1267,69
583,27	1296,36
583,47	1304,56
583,66	1302,51
583,85	1314,80
584,05	1355,76
584,24	1322,99
584,44	1253,36
584,63	1206,25
584,82	1230,83
585,02	1277,93
585,21	1239,02
585,41	1271,79
585,60	1294,32
585,79	1322,99
585,99	1243,12
586,18	1282,03
586,37	1322,99
586,57	1304,56
586,76	1286,12
586,96	1310,70
587,15	1331,18
587,34	1232,88
587,54	1234,93
587,73	1363,95
587,93	1255,40
588,12	1271,79
588,31	1236,97
588,51	1263,60
588,70	1298,41
588,89	1316,84
589,09	1249,26
589,28	1255,40
589,47	1298,41
589,67	1290,22
589,86	1306,60
590,06	1314,80
590,25	1273,84
590,44	1302,51
590,64	1318,89
590,83	1294,32
591,02	1261,55
591,22	1167,34
591,41	1318,89
591,60	1259,50
591,80	1310,70
591,99	1275,88
592,18	1279,98
592,38	1265,64
592,57	1200,11
592,76	1302,51
592,96	1304,56
593,15	1290,22
593,34	1300,46
593,54	1339,37
593,73	1298,41
593,92	1261,55
594,12	1279,98
594,31	1316,84
594,50	1245,16
594,70	1296,36
594,89	1249,26
595,08	1286,12
595,28	1298,41
595,47	1306,60
595,66	1269,74
595,86	1292,27
596,05	1259,50
596,24	1247,21
596,43	1257,45
596,63	1308,65
596,82	1316,84
597,01	1355,76
597,21	1335,28
597,40	1265,64
597,59	1265,64
597,79	1269,74
597,98	1316,84
598,17	1288,17
598,36	1200,11
598,56	1282,03
598,75	1236,97
598,94	1269,74
599,14	1351,66
599,33	1275,88
599,52	1253,36
599,71	1253,36
599,91	1359,85
600,10	1261,55
600,29	1263,60
600,48	1277,93
600,68	1232,88
600,87	1224,69
601,06	1157,10
601,26	1163,25
601,45	1351,66
601,64	1339,37
601,83	1208,30
602,03	1277,93
602,22	1247,21
602,41	1232,88
602,60	1277,93
602,80	1257,45
602,99	1216,49
603,18	1277,93
603,37	1282,03
603,57	1241,07
603,76	1232,88
603,95	1277,93
604,14	1259,50
604,34	1372,14
604,53	1294,32
604,72	1241,07
604,91	1271,79
605,10	1230,83
605,30	1331,18
605,49	1282,03
605,68	1275,88
605,87	1310,70
606,07	1255,40
606,26	1279,98
606,45	1304,56
606,64	1273,84
606,84	1267,69
607,03	1294,32
607,22	1185,77
607,41	1325,04
607,60	1253,36
607,80	1273,84
607,99	1284,08
608,18	1312,75
608,37	1271,79
608,56	1333,23
608,76	1259,50
608,95	1273,84
609,14	1294,32
609,33	1259,50
609,52	1333,23
609,72	1347,56
609,91	1271,79
610,10	1302,51
610,29	1259,50
610,48	1255,40
610,68	1277,93
610,87	1333,23
611,06	1193,97
611,25	1288,17
611,44	1290,22
611,63	1263,60
611,83	1267,69
612,02	1275,88
612,21	1239,02
612,40	1212,40
612,59	1325,04
612,79	1294,32
612,98	1296,36
613,17	1275,88
613,36	1241,07
613,55	1277,93
613,74	1239,02
613,93	1230,83
614,13	1245,16
614,32	1210,35
614,51	1282,03
614,70	1359,85
614,89	1372,14
615,08	1288,17
615,28	1279,98
615,47	1294,32
615,66	1345,52
615,85	1300,46
616,04	1296,36
616,23	1267,69
616,42	1337,32
616,62	1279,98
616,81	1296,36
617,00	1351,66
617,19	1245,16
617,38	1261,55
617,57	1288,17
617,76	1255,40
617,95	1267,69
618,15	1261,55
618,34	1304,56
618,53	1302,51
618,72	1335,28
618,91	1302,51
619,10	1333,23
619,29	1298,41
619,48	1279,98
619,68	1302,51
619,87	1310,70
620,06	1269,74
620,25	1236,97
620,44	1234,93
620,63	1255,40
620,82	1290,22
621,01	1314,80
621,20	1316,84
621,39	1286,12
621,59	1314,80
621,78	1224,69
621,97	1247,21
622,16	1282,03
622,35	1279,98
622,54	1310,70
622,73	1279,98
622,92	1247,21
623,11	1298,41
623,30	1357,80
623,49	1261,55
623,68	1327,08
623,88	1234,93
624,07	1294,32
624,26	1282,03
624,45	1322,99
624,64	1218,54
624,83	1333,23
625,02	1259,50
625,21	1271,79
625,40	1282,03
625,59	1288,17
625,78	1204,21
625,97	1335,28
626,16	1322,99
626,35	1331,18
626,54	1363,95
626,74	1331,18
626,93	1310,70
627,12	1294,32
627,31	1232,88
627,50	1320,94
627,69	1275,88
627,88	1325,04
628,07	1366,00
628,26	1294,32
628,45	1318,89
628,64	1277,93
628,83	1257,45
629,02	1292,27
629,21	1339,37
629,40	1333,23
629,59	1249,26
629,78	1251,31
629,97	1310,70
630,16	1259,50
630,35	1312,75
630,54	1368,04
630,73	1269,74
630,92	1359,85
631,11	1347,56
631,30	1339,37
631,49	1368,04
631,68	1452,01
631,87	1470,44
632,06	1495,02
632,25	1472,49
632,44	1478,63
632,63	1482,73
632,82	1638,38
633,01	2027,49
633,20	1726,44
633,39	1775,59
633,58	1808,36
633,77	1677,29
633,96	1611,75
634,15	1736,68
634,34	1853,41
634,53	1787,88
634,72	1673,19
634,91	1560,55
635,10	1429,48
635,29	1501,16
635,48	1509,35
635,67	1546,22
635,86	1441,77
636,05	1423,34
636,24	1406,95
636,43	1372,14
636,62	1390,57
636,81	1318,89
637,00	1357,80
637,19	1372,14
637,38	1368,04
637,57	1316,84
637,76	1372,14
637,95	1304,56
638,14	1316,84
638,33	1312,75
638,52	1325,04
638,71	1339,37
638,89	1269,74
639,08	1320,94
639,27	1263,60
639,46	1282,03
639,65	1376,24
639,84	1273,84
640,03	1335,28
640,22	1292,27
640,41	1279,98
640,60	1300,46
640,79	1273,84
640,98	1294,32
641,17	1292,27
641,36	1275,88
641,55	1306,60
641,74	1329,13
641,92	1273,84
642,11	1279,98
642,30	1210,35
642,49	1255,40
642,68	1300,46
642,87	1265,64
643,06	1183,73
643,25	1269,74
643,44	1198,06
643,63	1327,08
643,82	1269,74
644,00	1304,56
644,19	1247,21
644,38	1327,08
644,57	1239,02
644,76	1234,93
644,95	1308,65
645,14	1316,84
645,33	1320,94
645,52	1284,08
645,71	1263,60
645,89	1286,12
646,08	1286,12
646,27	1290,22
646,46	1288,17
646,65	1234,93
646,84	1247,21
647,03	1224,69
647,22	1271,79
647,40	1294,32
647,59	1234,93
647,78	1275,88
647,97	1318,89
648,16	1214,45
648,35	1304,56
648,54	1357,80
648,73	1253,36
648,91	1349,61
649,10	1347,56
649,29	1214,45
649,48	1298,41
649,67	1286,12
649,86	1308,65
650,05	1253,36
650,23	1241,07
650,42	1322,99
650,61	1257,45
650,80	1337,32
650,99	1243,12
651,18	1345,52
651,36	1288,17
651,55	1206,25
651,74	1245,16
651,93	1251,31
652,12	1277,93
652,31	1259,50
652,49	1265,64
652,68	1214,45
652,87	1304,56
653,06	1232,88
653,25	1273,84
653,44	1286,12
653,62	1296,36
653,81	1261,55
654,00	1259,50
654,19	1267,69
654,38	1279,98
654,56	1298,41
654,75	1263,60
654,94	1263,60
655,13	1261,55
655,32	1271,79
655,51	1269,74
655,69	1265,64
655,88	1331,18
656,07	1294,32
656,26	1228,78
656,45	1302,51
656,63	1306,60
656,82	1255,40
657,01	1314,80
657,20	1269,74
657,38	1339,37
657,57	1259,50
657,76	1226,73
657,95	1261,55
658,14	1214,45
658,32	1202,16
658,51	1253,36
658,70	1304,56
658,89	1212,40
659,08	1296,36
659,26	1269,74
659,45	1310,70
659,64	1284,08
659,83	1273,84
660,01	1265,64
660,20	1216,49
660,39	1232,88
660,58	1271,79
660,76	1277,93
660,95	1247,21
661,14	1337,32
661,33	1306,60
661,51	1232,88
661,70	1277,93
661,89	1245,16
662,08	1269,74
662,26	1302,51
662,45	1271,79
662,64	1263,60
662,83	1329,13
663,01	1310,70
663,20	1267,69
663,39	1298,41
663,58	1282,03
663,76	1308,65
663,95	1339,37
664,14	1271,79
664,32	1253,36
664,51	1298,41
664,70	1249,26
664,89	1273,84
665,07	1224,69
665,26	1288,17
665,45	1214,45
665,64	1212,40
665,82	1257,45
666,01	1290,22
666,20	1218,54
666,38	1351,66
666,57	1245,16
666,76	1331,18
666,95	1255,40
667,13	1255,40
667,32	1366,00
667,51	1222,64
667,69	1245,16
667,88	1302,51
668,07	1316,84
668,25	1310,70
668,44	1282,03
668,63	1275,88
668,81	1273,84
669,00	1329,13
669,19	1279,98
669,38	1290,22
669,56	1277,93
669,75	1351,66
669,94	1171,44
670,12	1232,88
670,31	1234,93
670,50	1216,49
670,68	1259,50
670,87	1316,84
671,06	1210,35
671,24	1175,53
671,43	1271,79
671,62	1220,59
671,80	1292,27
671,99	1245,16
672,18	1200,11
672,36	1273,84
672,55	1257,45
672,74	1265,64
672,92	1380,33
673,11	1290,22
673,29	1359,85
673,48	1257,45
673,67	1273,84
673,85	1286,12
674,04	1284,08
674,23	1273,84
674,41	1267,69
674,60	1290,22
674,79	1302,51
674,97	1327,08
675,16	1247,21
675,34	1345,52
675,53	1304,56
675,72	1286,12
675,90	1216,49
676,09	1253,36
676,28	1351,66
676,46	1179,63
676,65	1310,70
676,83	1200,11
677,02	1302,51
677,21	1282,03
677,39	1322,99
677,58	1279,98
677,77	1191,92
677,95	1329,13
678,14	1277,93
678,32	1216,49
678,51	1269,74
678,70	1173,49
678,88	1271,79
679,07	1228,78
679,25	1343,47
679,44	1318,89
679,63	1282,03
679,81	1298,41
680,00	1290,22
680,18	1265,64
680,37	1282,03
680,55	1261,55
680,74	1232,88
680,93	1265,64
681,11	1282,03
681,30	1294,32
681,48	1273,84
681,67	1204,21
681,85	1284,08
682,04	1345,52
682,23	1196,01
682,41	1232,88
682,60	1234,93
682,78	1327,08
682,97	1173,49
683,15	1366,00
683,34	1351,66
683,53	1220,59
683,71	1292,27
683,90	1243,12
684,08	1267,69
684,27	1267,69
684,45	1243,12
684,64	1259,50
684,82	1277,93
685,01	1298,41
685,19	1298,41
685,38	1310,70
685,57	1255,40
685,75	1165,29
685,94	1247,21
686,12	1206,25
686,31	1224,69
686,49	1210,35
686,68	1189,87
686,86	1279,98
687,05	1236,97
687,23	1310,70
687,42	1275,88
687,60	1306,60
687,79	1263,60
687,97	1265,64
688,16	1312,75
688,34	1230,83
688,53	1302,51
688,71	1228,78
688,90	1286,12
689,08	1292,27
689,27	1251,31
689,45	1261,55
689,64	1200,11
689,82	1312,75
690,01	1259,50
690,19	1353,71
690,38	1286,12
690,56	1273,84
690,75	1316,84
690,93	1322,99
691,12	1214,45
691,30	1253,36
691,49	1322,99
691,67	1355,76
691,86	1267,69
692,04	1265,64
692,23	1267,69
692,41	1329,13
692,60	1249,26
692,78	1193,97
692,97	1255,40
693,15	1273,84
693,34	1282,03
693,52	1271,79
693,71	1290,22
693,89	1247,21
694,08	1255,40
694,26	1214,45
694,44	1273,84
694,63	1284,08
694,81	1265,64
695,00	1241,07
695,18	1263,60
695,37	1247,21
695,55	1261,55
695,74	1320,94
695,92	1243,12
696,10	1282,03
696,29	1259,50
696,47	1208,30
696,66	1339,37
696,84	1284,08
697,03	1284,08
697,21	1249,26
697,40	1331,18
697,58	1255,40
697,76	1263,60
697,95	1320,94
698,13	1265,64
698,32	1255,40
698,50	1271,79
698,68	1304,56
698,87	1296,36
699,05	1241,07
699,24	1241,07
699,42	1222,64
699,61	1316,84
699,79	1236,97
699,97	1253,36
700,16	1290,22
700,34	1290,22
700,53	1275,88
700,71	1245,16
700,89	1241,07
701,08	1288,17
701,26	1257,45
701,45	1208,30
701,63	1282,03
701,81	1228,78
702,00	1288,17
702,18	1273,84
702,37	1222,64
702,55	1273,84
702,73	1263,60
702,92	1239,02
703,10	1312,75
703,28	1271,79
703,47	1290,22
703,65	1363,95
703,84	1314,80
704,02	1230,83
704,20	1316,84
704,39	1277,93
704,57	1282,03
704,75	1243,12
704,94	1249,26
705,12	1302,51
705,30	1261,55
705,49	1261,55
705,67	1288,17
705,86	1218,54
706,04	1253,36
706,22	1306,60
706,41	1263,60
706,59	1288,17
706,77	1296,36
706,96	1343,47
707,14	1265,64
707,32	1251,31
707,51	1247,21
707,69	1249,26
707,87	1337,32
708,06	1236,97
708,24	1343,47
708,42	1171,44
708,61	1306,60
708,79	1255,40
708,97	1220,59
709,16	1228,78
709,34	1251,31
709,52	1224,69
709,71	1304,56
709,89	1269,74
710,07	1251,31
710,26	1239,02
710,44	1331,18
710,62	1259,50
710,80	1308,65
710,99	1275,88
711,17	1275,88
711,35	1212,40
711,54	1255,40
711,72	1322,99
711,90	1183,73
712,09	1232,88
712,27	1263,60
712,45	1234,93
712,63	1294,32
712,82	1308,65
713,00	1245,16
713,18	1257,45
713,37	1355,76
713,55	1230,83
713,73	1249,26
713,91	1296,36
714,10	1253,36
714,28	1255,40
714,46	1273,84
714,65	1224,69
714,83	1271,79
715,01	1249,26
715,19	1304,56
715,38	1259,50
715,56	1249,26
715,74	1161,20
715,92	1296,36
716,11	1343,47
716,29	1202,16
716,47	1273,84
716,65	1288,17
716,84	1294,32
717,02	1302,51
717,20	1275,88
717,38	1267,69
717,57	1290,22
717,75	1222,64
717,93	1290,22
718,11	1234,93
718,30	1210,35
718,48	1292,27
718,66	1245,16
718,84	1327,08
719,03	1245,16
719,21	1247,21
719,39	1322,99
719,57	1304,56
719,75	1269,74
719,94	1290,22
720,12	1310,70
720,30	1282,03
720,48	1265,64
720,67	1267,69
720,85	1292,27
721,03	1331,18
721,21	1269,74
721,39	1273,84
721,58	1300,46
721,76	1222,64
721,94	1288,17
722,12	1327,08
722,30	1329,13
722,49	1320,94
722,67	1318,89
722,85	1251,31
723,03	1273,84
723,21	1337,32
723,40	1202,16
723,58	1320,94
723,76	1292,27
723,94	1318,89
724,12	1216,49
724,30	1296,36
724,49	1263,60
724,67	1224,69
724,85	1288,17
725,03	1273,84
725,21	1239,02
725,40	1300,46
725,58	1288,17
725,76	1308,65
725,94	1312,75
726,12	1216,49
726,30	1316,84
726,49	1249,26
726,67	1331,18
726,85	1241,07
727,03	1267,69
727,21	1230,83
727,39	1277,93
727,57	1286,12
727,76	1257,45
727,94	1261,55
728,12	1271,79
728,30	1294,32
728,48	1214,45
728,66	1314,80
728,84	1347,56
729,03	1273,84
729,21	1265,64
729,39	1259,50
729,57	1241,07
729,75	1253,36
729,93	1304,56
730,11	1271,79
730,30	1204,21
730,48	1216,49
730,66	1271,79
730,84	1292,27
731,02	1292,27
731,20	1247,21
731,38	1232,88
731,56	1232,88
731,74	1212,40
731,93	1288,17
732,11	1257,45
732,29	1277,93
732,47	1263,60
732,65	1308,65
732,83	1245,16
733,01	1261,55
733,19	1251,31
733,37	1265,64
733,56	1275,88
733,74	1277,93
733,92	1257,45
734,10	1282,03
734,28	1353,71
734,46	1273,84
734,64	1220,59
734,82	1267,69
735,00	1279,98
735,18	1302,51
735,36	1249,26
735,54	1296,36
735,73	1253,36
735,91	1279,98
736,09	1230,83
736,27	1181,68
736,45	1247,21
736,63	1279,98
736,81	1275,88
736,99	1239,02
737,17	1279,98
737,35	1206,25
737,53	1312,75
737,71	1275,88
737,89	1325,04
738,07	1191,92
738,25	1279,98
738,43	1271,79
738,61	1294,32
738,80	1257,45
738,98	1267,69
739,16	1275,88
739,34	1327,08
739,52	1265,64
739,70	1249,26
739,88	1290,22
740,06	1251,31
740,24	1247,21
740,42	1294,32
740,60	1239,02
740,78	1300,46
740,96	1335,28
741,14	1275,88
741,32	1247,21
741,50	1255,40
741,68	1322,99
741,86	1218,54
742,04	1265,64
742,22	1275,88
742,40	1265,64
742,58	1282,03
742,76	1263,60
742,94	1257,45
743,12	1232,88
743,30	1298,41
743,48	1304,56
743,66	1255,40
743,84	1290,22
744,02	1251,31
744,20	1306,60
744,38	1212,40
744,56	1261,55
744,74	1331,18
744,92	1345,52
745,10	1249,26
745,28	1271,79
745,46	1333,23
745,64	1290,22
745,82	1212,40
746,00	1255,40
746,18	1310,70
746,36	1228,78
746,54	1275,88
746,72	1196,01
746,90	1255,40
747,08	1261,55
747,26	1302,51
747,44	1230,83
747,62	1273,84
747,80	1269,74
747,98	1298,41
748,15	1322,99
748,33	1251,31
748,51	1236,97
748,69	1288,17
748,87	1253,36
749,05	1247,21
749,23	1239,02
749,41	1314,80
749,59	1312,75
749,77	1353,71
749,95	1265,64
750,13	1284,08
750,31	1275,88
750,49	1284,08
750,67	1239,02
750,85	1314,80
751,03	1269,74
751,20	1249,26
751,38	1210,35
751,56	1347,56
751,74	1247,21
751,92	1314,80
752,10	1292,27
752,28	1318,89
752,46	1279,98
752,64	1224,69
752,82	1355,76
753,00	1339,37
753,18	1263,60
753,35	1288,17
753,53	1286,12
753,71	1265,64
753,89	1263,60
754,07	1261,55
754,25	1337,32
754,43	1333,23
754,61	1263,60
754,79	1320,94
754,97	1259,50
755,14	1257,45
755,32	1241,07
755,50	1249,26
755,68	1189,87
755,86	1220,59
756,04	1294,32
756,22	1193,97
756,40	1265,64
756,57	1282,03
756,75	1290,22
756,93	1294,32
757,11	1298,41
757,29	1198,06
757,47	1306,60
757,65	1222,64
757,82	1279,98
758,00	1232,88
758,18	1257,45
758,36	1189,87
758,54	1257,45
758,72	1308,65
758,90	1226,73
759,07	1249,26
759,25	1216,49
759,43	1290,22
759,61	1292,27
759,79	1353,71
759,97	1314,80
760,15	1290,22
760,32	1206,25
760,50	1269,74
760,68	1341,42
760,86	1171,44
761,04	1325,04
761,22	1253,36
761,39	1298,41
761,57	1265,64
761,75	1224,69
761,93	1286,12
762,11	1282,03
762,28	1327,08
762,46	1198,06
762,64	1273,84
762,82	1292,27
763,00	1245,16
763,18	1331,18
763,35	1290,22
763,53	1277,93
763,71	1277,93
763,89	1259,50
764,07	1298,41
764,24	1318,89
764,42	1173,49
764,60	1234,93
764,78	1259,50
764,96	1271,79
765,13	1224,69
765,31	1200,11
765,49	1308,65
765,67	1277,93
765,84	1173,49
766,02	1298,41
766,20	1314,80
766,38	1304,56
766,56	1316,84
766,73	1290,22
766,91	1245,16
767,09	1284,08
767,27	1263,60
767,44	1218,54
767,62	1245,16
767,80	1218,54
767,98	1282,03
768,15	1282,03
768,33	1261,55
768,51	1308,65
768,69	1271,79
768,87	1236,97
769,04	1265,64
769,22	1251,31
769,40	1320,94
769,58	1290,22
769,75	1261,55
769,93	1247,21
770,11	1269,74
770,28	1171,44
770,46	1224,69
770,64	1253,36
770,82	1257,45
770,99	1263,60
771,17	1310,70
771,35	1275,88
771,53	1167,34
771,70	1251,31
771,88	1355,76
772,06	1341,42
772,23	1239,02
772,41	1263,60
772,59	1257,45
772,77	1196,01
772,94	1253,36
773,12	1191,92
773,30	1279,98
773,47	1302,51
773,65	1222,64
773,83	1306,60
774,01	1288,17
774,18	1232,88
774,36	1249,26
774,54	1275,88
774,71	1282,03
774,89	1245,16
775,07	1263,60
775,24	1261,55
775,42	1282,03
775,60	1290,22
775,78	1271,79
775,95	1286,12
776,13	1292,27
776,31	1296,36
776,48	1232,88
776,66	1279,98
776,84	1218,54
777,01	1259,50
777,19	1279,98
777,37	1298,41
777,54	1327,08
777,72	1325,04
777,90	1267,69
778,07	1212,40
778,25	1273,84
778,43	1290,22
778,60	1271,79
778,78	1288,17
778,96	1265,64
779,13	1329,13
779,31	1339,37
779,49	1257,45
779,66	1271,79
779,84	1288,17
780,01	1296,36
780,19	1261,55
780,37	1251,31
780,54	1306,60
780,72	1304,56
780,90	1294,32
781,07	1284,08
781,25	1255,40
781,43	1179,63
781,60	1343,47
781,78	1245,16
781,95	1267,69
782,13	1193,97
782,31	1236,97
782,48	1239,02
782,66	1306,60
782,83	1253,36
783,01	1288,17
783,19	1267,69
783,36	1279,98
783,54	1314,80
783,72	1249,26
783,89	1304,56
784,07	1216,49
784,24	1245,16
784,42	1322,99
784,60	1282,03
784,77	1298,41
784,95	1224,69
785,12	1257,45
785,30	1226,73
785,47	1292,27
785,65	1310,70
785,83	1275,88
786,00	1271,79
786,18	1222,64
786,35	1273,84
786,53	1239,02
786,71	1234,93
786,88	1296,36
787,06	1230,83
787,23	1253,36
787,41	1216,49
787,58	1245,16
787,76	1251,31
787,94	1251,31
788,11	1187,82
788,29	1331,18
788,46	1255,40
788,64	1234,93
788,81	1251,31
788,99	1290,22
789,16	1226,73
789,34	1279,98
789,52	1220,59
789,69	1294,32
789,87	1230,83
790,04	1257,45
790,22	1292,27
790,39	1290,22
790,57	1189,87
790,74	1306,60
790,92	1341,42
791,09	1265,64
791,27	1308,65
791,44	1310,70
791,62	1214,45
791,79	1275,88
791,97	1261,55
792,15	1277,93
792,32	1269,74
792,50	1343,47
792,67	1255,40
792,85	1263,60
793,02	1200,11
793,20	1243,12
793,37	1236,97
793,55	1300,46
793,72	1226,73
793,90	1322,99
794,07	1265,64
794,25	1208,30
794,42	1241,07
794,60	1263,60
794,77	1296,36
794,95	1279,98
795,12	1298,41
795,30	1239,02
795,47	1247,21
795,65	1329,13
795,82	1241,07
796,00	1273,84
796,17	1239,02
796,34	1273,84
796,52	1292,27
796,69	1236,97
796,87	1216,49
797,04	1234,93
797,22	1298,41
797,39	1253,36
797,57	1251,31
797,74	1241,07
797,92	1249,26
798,09	1298,41
798,27	1265,64
798,44	1255,40
798,62	1243,12
798,79	1284,08
798,96	1177,58
799,14	1267,69
799,31	1251,31
799,49	1347,56
799,66	1216,49
799,84	1288,17
800,01	1269,74
800,19	1202,16
800,36	1142,77
800,53	1306,60
800,71	1312,75
800,88	1298,41
801,06	1322,99
801,23	1187,82
801,41	1187,82
801,58	1249,26
801,75	1234,93
801,93	1214,45
802,10	1222,64
802,28	1312,75
802,45	1255,40
802,63	1394,67
802,80	1286,12
802,97	1255,40
803,15	1255,40
803,32	1337,32
803,50	1249,26
803,67	1241,07
803,84	1247,21
804,02	1265,64
804,19	1290,22
804,37	1263,60
804,54	1288,17
804,71	1263,60
804,89	1222,64
805,06	1255,40
805,24	1288,17
805,41	1232,88
805,58	1329,13
805,76	1271,79
805,93	1277,93
806,10	1253,36
806,28	1325,04
806,45	1247,21
806,63	1200,11
806,80	1226,73
806,97	1302,51
807,15	1335,28
807,32	1251,31
807,49	1339,37
807,67	1296,36
807,84	1329,13
808,01	1236,97
808,19	1296,36
808,36	1255,40
808,54	1255,40
808,71	1226,73
808,88	1306,60
809,06	1300,46
809,23	1247,21
809,40	1271,79
809,58	1261,55
809,75	1304,56
809,92	1275,88
810,10	1253,36
810,27	1312,75
810,44	1169,39
810,62	1288,17
810,79	1243,12
810,96	1273,84
811,14	1284,08
811,31	1245,16
811,48	1277,93
811,66	1259,50
811,83	1253,36
812,00	1349,61
812,18	1232,88
812,35	1239,02
812,52	1214,45
812,69	1300,46
812,87	1214,45
813,04	1271,79
813,21	1259,50
813,39	1253,36
813,56	1208,30
813,73	1302,51
813,91	1279,98
814,08	1277,93
814,25	1232,88
814,42	1322,99
814,60	1329,13
814,77	1284,08
814,94	1290,22
815,12	1269,74
815,29	1249,26
815,46	1363,95
815,63	1310,70
815,81	1286,12
815,98	1320,94
816,15	1279,98
816,33	1273,84
816,50	1314,80
816,67	1310,70
816,84	1294,32
817,02	1286,12
817,19	1294,32
817,36	1290,22
817,53	1261,55
817,71	1255,40
817,88	1288,17
818,05	1284,08
818,22	1202,16
818,40	1269,74
818,57	1320,94
818,74	1251,31
818,91	1257,45
819,09	1304,56
819,26	1347,56
819,43	1320,94
819,60	1288,17
819,78	1304,56
819,95	1288,17
820,12	1212,40
820,29	1335,28
820,47	1290,22
820,64	1279,98
820,81	1284,08
820,98	1359,85
821,15	1316,84
821,33	1357,80
821,50	1273,84
821,67	1193,97
821,84	1218,54
822,02	1288,17
822,19	1267,69
822,36	1345,52
822,53	1245,16
822,70	1296,36
822,88	1322,99
823,05	1302,51
823,22	1310,70
823,39	1292,27
823,56	1208,30
823,74	1253,36
823,91	1239,02
824,08	1253,36
824,25	1214,45
824,42	1222,64
824,60	1310,70
824,77	1232,88
824,94	1261,55
825,11	1247,21
825,28	1308,65
825,45	1232,88
825,63	1245,16
825,80	1245,16
825,97	1306,60
826,14	1239,02
826,31	1279,98
826,48	1212,40
826,66	1239,02
826,83	1243,12
827,00	1245,16
827,17	1298,41
827,34	1331,18
827,51	1253,36
827,69	1263,60
827,86	1288,17
828,03	1232,88
828,20	1222,64
828,37	1255,40
828,54	1290,22
828,71	1257,45
828,89	1294,32
829,06	1241,07
829,23	1181,68
829,40	1265,64
829,57	1234,93
829,74	1265,64
829,91	1302,51
830,09	1261,55
830,26	1286,12
830,43	1241,07
830,60	1253,36
830,77	1286,12
830,94	1261,55
831,11	1234,93
831,28	1296,36
831,46	1241,07
831,63	1314,80
831,80	1273,84
831,97	1230,83
832,14	1339,37
832,31	1306,60
832,48	1261,55
832,65	1247,21
832,82	1265,64
832,99	1277,93
833,17	1245,16
833,34	1265,64
833,51	1304,56
833,68	1296,36
833,85	1243,12
834,02	1251,31
834,19	1255,40
834,36	1253,36
834,53	1267,69
834,70	1273,84
834,87	1210,35
835,04	1255,40
835,22	1271,79
835,39	1267,69
835,56	1261,55
835,73	1279,98
835,90	1224,69
836,07	1286,12
836,24	1245,16
836,41	1298,41
836,58	1263,60
836,75	1226,73
836,92	1271,79
837,09	1314,80
837,26	1249,26
837,43	1308,65
837,60	1306,60
837,77	1236,97
837,94	1253,36
838,12	1320,94
838,29	1314,80
838,46	1275,88
838,63	1257,45
838,80	1269,74
838,97	1359,85
839,14	1245,16
839,31	1249,26
839,48	1322,99
839,65	1265,64
839,82	1273,84
839,99	1292,27
840,16	1226,73
840,33	1261,55
840,50	1243,12
840,67	1306,60
840,84	1245,16
841,01	1355,76
841,18	1200,11
841,35	1306,60
841,52	1302,51
841,69	1271,79
841,86	1255,40
842,03	1257,45
842,20	1288,17
842,37	1245,16
842,54	1269,74
842,71	1277,93
842,88	1312,75
843,05	1253,36
843,22	1230,83
843,39	1339,37
843,56	1255,40
843,73	1300,46
843,90	1163,25
844,07	1251,31
844,24	1300,46
844,41	1259,50
844,58	1216,49
844,75	1228,78
844,92	1243,12
845,09	1275,88
845,26	1257,45
845,43	1257,45
845,60	1263,60
845,77	1292,27
845,94	1226,73
846,10	1294,32
846,27	1257,45
846,44	1300,46
846,61	1239,02
846,78	1263,60
846,95	1339,37
847,12	1234,93
847,29	1249,26
847,46	1304,56
847,63	1230,83
847,80	1263,60
847,97	1267,69
848,14	1288,17
848,31	1249,26
848,48	1239,02
848,65	1230,83
848,82	1245,16
848,98	1312,75
849,15	1282,03
849,32	1261,55
849,49	1208,30
849,66	1267,69
849,83	1226,73
850,00	1306,60
850,17	1296,36
850,34	1212,40
850,51	1239,02
850,68	1245,16
850,85	1230,83
851,01	1259,50
851,18	1277,93
851,35	1236,97
851,52	1320,94
851,69	1292,27
851,86	1273,84
852,03	1224,69
852,20	1286,12
852,37	1245,16
852,53	1288,17
852,70	1306,60
852,87	1300,46
853,04	1302,51
853,21	1312,75
853,38	1294,32
853,55	1241,07
853,72	1322,99
853,89	1333,23
854,05	1255,40
854,22	1279,98
854,39	1224,69
854,56	1290,22
854,73	1288,17
854,90	1292,27
855,07	1298,41
855,23	1253,36
855,40	1310,70
855,57	1232,88
855,74	1228,78
855,91	1314,80
856,08	1265,64
856,25	1343,47
856,41	1363,95
856,58	1286,12
856,75	1288,17
856,92	1230,83
857,09	1261,55
857,26	1282,03
857,42	1257,45
857,59	1277,93
857,76	1218,54
857,93	1298,41
858,10	1243,12
858,27	1214,45
858,43	1288,17
858,60	1245,16
858,77	1224,69
858,94	1224,69
859,11	1316,84
859,27	1204,21
859,44	1271,79
859,61	1204,21
859,78	1320,94
859,95	1198,06
860,12	1261,55
860,28	1271,79
860,45	1290,22
860,62	1243,12
860,79	1378,28
860,95	1247,21
861,12	1265,64
861,29	1306,60
861,46	1263,60
861,63	1241,07
861,79	1255,40
861,96	1210,35
862,13	1290,22
862,30	1304,56
862,47	1232,88
862,63	1214,45
862,80	1312,75
862,97	1294,32
863,14	1259,50
863,30	1314,80
863,47	1304,56
863,64	1214,45
863,81	1253,36
863,97	1265,64
864,14	1206,25
864,31	1218,54
864,48	1214,45
864,65	1243,12
864,81	1257,45
864,98	1282,03
865,15	1159,15
865,32	1325,04
865,48	1320,94
865,65	1243,12
865,82	1230,83
865,98	1220,59
866,15	1253,36
866,32	1265,64
866,49	1265,64
866,65	1376,24
866,82	1279,98
866,99	1322,99
867,16	1245,16
867,32	1214,45
867,49	1290,22
867,66	1245,16
867,83	1269,74
867,99	1226,73
868,16	1329,13
868,33	1224,69
868,49	1269,74
868,66	1312,75
868,83	1306,60
868,99	1253,36
869,16	1316,84
869,33	1320,94
869,50	1193,97
869,66	1279,98
869,83	1312,75
870,00	1257,45
870,16	1288,17
870,33	1245,16
870,50	1171,44
870,66	1251,31
870,83	1267,69
871,00	1292,27
871,17	1290,22
871,33	1204,21
871,50	1273,84
871,67	1286,12
871,83	1232,88
872,00	1249,26
872,17	1282,03
872,33	1265,64
872,50	1271,79
872,67	1245,16
872,83	1257,45
873,00	1263,60
873,17	1294,32
873,33	1257,45
873,50	1275,88
873,67	1236,97
873,83	1306,60
874,00	1257,45
874,16	1232,88
874,33	1267,69
874,50	1210,35
874,66	1314,80
874,83	1210,35
875,00	1265,64
875,16	1200,11
875,33	1241,07
875,50	1308,65
875,66	1241,07
875,83	1226,73
875,99	1257,45
876,16	1271,79
876,33	1282,03
876,49	1222,64
876,66	1267,69
876,83	1310,70
876,99	1251,31
877,16	1236,97
877,32	1363,95
877,49	1292,27
877,66	1204,21
877,82	1273,84
877,99	1267,69
878,15	1337,32
878,32	1239,02
878,49	1206,25
878,65	1228,78
878,82	1284,08
878,98	1263,60
879,15	1314,80
879,32	1245,16
879,48	1304,56
879,65	1302,51
879,81	1265,64
879,98	1255,40
880,15	1282,03
880,31	1273,84
880,48	1263,60
880,64	1341,42
880,81	1249,26
880,97	1198,06
881,14	1320,94
881,31	1251,31
881,47	1247,21
881,64	1234,93
881,80	1279,98
881,97	1234,93
882,13	1241,07
882,30	1257,45
882,47	1273,84
882,63	1355,76
882,80	1269,74
882,96	1214,45
883,13	1300,46
883,29	1300,46
883,46	1331,18
883,62	1306,60
883,79	1277,93
883,95	1243,12
884,12	1198,06
884,29	1335,28
884,45	1206,25
884,62	1218,54
884,78	1286,12
884,95	1239,02
885,11	1212,40
885,28	1193,97
885,44	1245,16
885,61	1257,45
885,77	1286,12
885,94	1355,76
886,10	1267,69
886,27	1183,73
886,43	1277,93
886,60	1255,40
886,76	1243,12
886,93	1286,12
887,09	1269,74
887,26	1288,17
887,42	1257,45
887,59	1183,73
887,75	1288,17
887,92	1243,12
888,08	1265,64
888,25	1234,93
888,41	1234,93
888,58	1275,88
888,74	1298,41
888,91	1228,78
>>>>>End Processed Spectral Data<<<<<
