SpectraSuite Data File
++++++++++++++++++++++++++++++++++++
Date: Sun Apr 03 19:55:34 CEST 2016
User: root
Dark Spectrum Present: No
Reference Spectrum Present: No
Number of Sampled Component Spectra: 1
Spectrometers: USB4C02835
Integration Time (usec): 10000 (USB4C02835)
Spectra Averaged: 1 (USB4C02835)
Boxcar Smoothing: 0 (USB4C02835)
Correct for Electrical Dark: No (USB4C02835)
Strobe/Lamp Enabled: No (USB4C02835)
Correct for Detector Non-linearity: No (USB4C02835)
Correct for Stray Light: No (USB4C02835)
Number of Pixels in Processed Spectrum: 3648
>>>>>Begin Processed Spectral Data<<<<<
177,47	1275,88
177,69	1275,88
177,91	1275,88
178,13	1210,35
178,36	1208,30
178,58	1290,22
178,80	1236,97
179,02	1243,12
179,24	1206,25
179,46	1208,30
179,68	1296,36
179,90	1232,88
180,13	1322,99
180,35	1222,64
180,57	1222,64
180,79	1222,64
181,01	1224,69
181,23	1249,26
181,45	1247,21
181,67	1259,50
181,90	1241,07
182,12	1243,12
182,34	1271,79
182,56	1318,89
182,78	1279,98
183,00	1284,08
183,22	1267,69
183,44	1265,64
183,66	1306,60
183,89	1239,02
184,11	1296,36
184,33	1294,32
184,55	1306,60
184,77	1216,49
184,99	1263,60
185,21	1282,03
185,43	1265,64
185,65	1282,03
185,87	1265,64
186,10	1290,22
186,32	1325,04
186,54	1216,49
186,76	1294,32
186,98	1257,45
187,20	1253,36
187,42	1269,74
187,64	1269,74
187,86	1193,97
188,08	1202,16
188,30	1320,94
188,52	1263,60
188,75	1265,64
188,97	1241,07
189,19	1363,95
189,41	1302,51
189,63	1249,26
189,85	1329,13
190,07	1243,12
190,29	1239,02
190,51	1216,49
190,73	1333,23
190,95	1282,03
191,17	1228,78
191,39	1257,45
191,61	1255,40
191,84	1286,12
192,06	1273,84
192,28	1277,93
192,50	1296,36
192,72	1230,83
192,94	1247,21
193,16	1208,30
193,38	1269,74
193,60	1253,36
193,82	1259,50
194,04	1191,92
194,26	1308,65
194,48	1214,45
194,70	1243,12
194,92	1239,02
195,14	1298,41
195,36	1245,16
195,58	1234,93
195,80	1271,79
196,02	1179,63
196,24	1310,70
196,46	1284,08
196,69	1232,88
196,91	1202,16
197,13	1277,93
197,35	1279,98
197,57	1241,07
197,79	1298,41
198,01	1286,12
198,23	1249,26
198,45	1269,74
198,67	1275,88
198,89	1232,88
199,11	1208,30
199,33	1267,69
199,55	1245,16
199,77	1228,78
199,99	1234,93
200,21	1345,52
200,43	1265,64
200,65	1294,32
200,87	1282,03
201,09	1247,21
201,31	1331,18
201,53	1374,19
201,75	1286,12
201,97	1251,31
202,19	1298,41
202,41	1269,74
202,63	1314,80
202,85	1183,73
203,07	1239,02
203,29	1232,88
203,51	1269,74
203,73	1259,50
203,95	1239,02
204,17	1271,79
204,39	1228,78
204,61	1218,54
204,83	1253,36
205,05	1333,23
205,27	1243,12
205,49	1316,84
205,71	1249,26
205,93	1294,32
206,15	1345,52
206,37	1259,50
206,59	1271,79
206,81	1220,59
207,03	1216,49
207,25	1193,97
207,47	1273,84
207,69	1167,34
207,91	1259,50
208,13	1249,26
208,34	1234,93
208,56	1269,74
208,78	1249,26
209,00	1220,59
209,22	1288,17
209,44	1200,11
209,66	1290,22
209,88	1288,17
210,10	1277,93
210,32	1288,17
210,54	1271,79
210,76	1269,74
210,98	1306,60
211,20	1226,73
211,42	1263,60
211,64	1228,78
211,86	1288,17
212,08	1249,26
212,30	1290,22
212,52	1298,41
212,74	1282,03
212,96	1312,75
213,17	1298,41
213,39	1200,11
213,61	1343,47
213,83	1251,31
214,05	1273,84
214,27	1290,22
214,49	1263,60
214,71	1335,28
214,93	1245,16
215,15	1310,70
215,37	1220,59
215,59	1204,21
215,81	1265,64
216,03	1314,80
216,24	1271,79
216,46	1314,80
216,68	1257,45
216,90	1261,55
217,12	1269,74
217,34	1327,08
217,56	1292,27
217,78	1314,80
218,00	1253,36
218,22	1306,60
218,44	1296,36
218,66	1193,97
218,87	1222,64
219,09	1222,64
219,31	1271,79
219,53	1224,69
219,75	1271,79
219,97	1239,02
220,19	1286,12
220,41	1222,64
220,63	1310,70
220,85	1327,08
221,06	1273,84
221,28	1241,07
221,50	1269,74
221,72	1284,08
221,94	1292,27
222,16	1212,40
222,38	1273,84
222,60	1210,35
222,82	1294,32
223,03	1288,17
223,25	1232,88
223,47	1359,85
223,69	1279,98
223,91	1267,69
224,13	1206,25
224,35	1292,27
224,57	1325,04
224,78	1302,51
225,00	1304,56
225,22	1279,98
225,44	1265,64
225,66	1251,31
225,88	1282,03
226,10	1331,18
226,32	1329,13
226,53	1292,27
226,75	1239,02
226,97	1265,64
227,19	1304,56
227,41	1243,12
227,63	1267,69
227,85	1298,41
228,06	1290,22
228,28	1271,79
228,50	1306,60
228,72	1204,21
228,94	1226,73
229,16	1267,69
229,37	1327,08
229,59	1236,97
229,81	1243,12
230,03	1220,59
230,25	1243,12
230,47	1312,75
230,69	1294,32
230,90	1316,84
231,12	1318,89
231,34	1306,60
231,56	1304,56
231,78	1271,79
232,00	1343,47
232,21	1263,60
232,43	1290,22
232,65	1236,97
232,87	1286,12
233,09	1267,69
233,30	1230,83
233,52	1224,69
233,74	1269,74
233,96	1253,36
234,18	1239,02
234,40	1269,74
234,61	1306,60
234,83	1316,84
235,05	1263,60
235,27	1228,78
235,49	1306,60
235,70	1290,22
235,92	1263,60
236,14	1345,52
236,36	1288,17
236,58	1228,78
236,79	1314,80
237,01	1263,60
237,23	1312,75
237,45	1288,17
237,67	1345,52
237,88	1265,64
238,10	1310,70
238,32	1267,69
238,54	1288,17
238,76	1282,03
238,97	1286,12
239,19	1214,45
239,41	1290,22
239,63	1247,21
239,85	1298,41
240,06	1234,93
240,28	1300,46
240,50	1247,21
240,72	1187,82
240,93	1247,21
241,15	1271,79
241,37	1265,64
241,59	1279,98
241,81	1271,79
242,02	1273,84
242,24	1216,49
242,46	1282,03
242,68	1282,03
242,89	1277,93
243,11	1206,25
243,33	1249,26
243,55	1286,12
243,76	1259,50
243,98	1234,93
244,20	1339,37
244,42	1249,26
244,64	1241,07
244,85	1230,83
245,07	1290,22
245,29	1204,21
245,51	1306,60
245,72	1298,41
245,94	1298,41
246,16	1296,36
246,38	1271,79
246,59	1232,88
246,81	1261,55
247,03	1286,12
247,24	1314,80
247,46	1275,88
247,68	1232,88
247,90	1247,21
248,11	1316,84
248,33	1239,02
248,55	1267,69
248,77	1304,56
248,98	1298,41
249,20	1290,22
249,42	1275,88
249,64	1261,55
249,85	1290,22
250,07	1284,08
250,29	1306,60
250,50	1253,36
250,72	1282,03
250,94	1232,88
251,16	1306,60
251,37	1200,11
251,59	1271,79
251,81	1286,12
252,02	1288,17
252,24	1290,22
252,46	1265,64
252,68	1265,64
252,89	1296,36
253,11	1290,22
253,33	1222,64
253,54	1236,97
253,76	1298,41
253,98	1284,08
254,20	1271,79
254,41	1300,46
254,63	1308,65
254,85	1284,08
255,06	1269,74
255,28	1226,73
255,50	1232,88
255,71	1265,64
255,93	1302,51
256,15	1220,59
256,36	1204,21
256,58	1286,12
256,80	1263,60
257,02	1228,78
257,23	1257,45
257,45	1306,60
257,67	1292,27
257,88	1218,54
258,10	1257,45
258,32	1304,56
258,53	1318,89
258,75	1273,84
258,97	1167,34
259,18	1320,94
259,40	1245,16
259,62	1265,64
259,83	1296,36
260,05	1259,50
260,27	1329,13
260,48	1271,79
260,70	1216,49
260,92	1228,78
261,13	1347,56
261,35	1220,59
261,57	1325,04
261,78	1275,88
262,00	1304,56
262,22	1290,22
262,43	1241,07
262,65	1322,99
262,86	1273,84
263,08	1228,78
263,30	1284,08
263,51	1320,94
263,73	1286,12
263,95	1294,32
264,16	1273,84
264,38	1277,93
264,60	1318,89
264,81	1271,79
265,03	1273,84
265,25	1253,36
265,46	1220,59
265,68	1327,08
265,89	1304,56
266,11	1353,71
266,33	1214,45
266,54	1308,65
266,76	1310,70
266,98	1347,56
267,19	1193,97
267,41	1216,49
267,62	1288,17
267,84	1241,07
268,06	1263,60
268,27	1314,80
268,49	1241,07
268,70	1320,94
268,92	1267,69
269,14	1234,93
269,35	1257,45
269,57	1222,64
269,79	1265,64
270,00	1243,12
270,22	1286,12
270,43	1253,36
270,65	1320,94
270,87	1267,69
271,08	1181,68
271,30	1255,40
271,51	1279,98
271,73	1189,87
271,95	1273,84
272,16	1282,03
272,38	1234,93
272,59	1308,65
272,81	1296,36
273,02	1236,97
273,24	1273,84
273,46	1261,55
273,67	1232,88
273,89	1271,79
274,10	1259,50
274,32	1273,84
274,54	1200,11
274,75	1249,26
274,97	1253,36
275,18	1253,36
275,40	1288,17
275,61	1294,32
275,83	1312,75
276,05	1306,60
276,26	1163,25
276,48	1279,98
276,69	1329,13
276,91	1257,45
277,12	1298,41
277,34	1290,22
277,55	1292,27
277,77	1298,41
277,99	1185,77
278,20	1257,45
278,42	1290,22
278,63	1275,88
278,85	1298,41
279,06	1282,03
279,28	1288,17
279,49	1191,92
279,71	1275,88
279,93	1286,12
280,14	1304,56
280,36	1341,42
280,57	1239,02
280,79	1193,97
281,00	1351,66
281,22	1245,16
281,43	1300,46
281,65	1126,38
281,86	1247,21
282,08	1247,21
282,29	1341,42
282,51	1312,75
282,73	1263,60
282,94	1284,08
283,16	1298,41
283,37	1269,74
283,59	1222,64
283,80	1284,08
284,02	1275,88
284,23	1290,22
284,45	1200,11
284,66	1241,07
284,88	1245,16
285,09	1290,22
285,31	1220,59
285,52	1300,46
285,74	1304,56
285,95	1261,55
286,17	1251,31
286,38	1224,69
286,60	1273,84
286,81	1265,64
287,03	1251,31
287,24	1191,92
287,46	1329,13
287,67	1269,74
287,89	1259,50
288,10	1224,69
288,32	1277,93
288,53	1288,17
288,75	1239,02
288,96	1279,98
289,18	1222,64
289,39	1286,12
289,61	1284,08
289,82	1310,70
290,04	1298,41
290,25	1298,41
290,47	1279,98
290,68	1296,36
290,90	1204,21
291,11	1245,16
291,33	1230,83
291,54	1253,36
291,76	1251,31
291,97	1236,97
292,18	1267,69
292,40	1300,46
292,61	1257,45
292,83	1351,66
293,04	1271,79
293,26	1306,60
293,47	1284,08
293,69	1339,37
293,90	1333,23
294,12	1257,45
294,33	1302,51
294,55	1224,69
294,76	1282,03
294,97	1232,88
295,19	1279,98
295,40	1210,35
295,62	1320,94
295,83	1304,56
296,05	1290,22
296,26	1202,16
296,48	1277,93
296,69	1292,27
296,90	1239,02
297,12	1290,22
297,33	1259,50
297,55	1286,12
297,76	1257,45
297,98	1314,80
298,19	1314,80
298,41	1261,55
298,62	1255,40
298,83	1353,71
299,05	1322,99
299,26	1269,74
299,48	1292,27
299,69	1253,36
299,90	1259,50
300,12	1261,55
300,33	1282,03
300,55	1284,08
300,76	1282,03
300,98	1230,83
301,19	1257,45
301,40	1249,26
301,62	1265,64
301,83	1236,97
302,05	1277,93
302,26	1300,46
302,47	1200,11
302,69	1251,31
302,90	1294,32
303,12	1185,77
303,33	1333,23
303,54	1251,31
303,76	1249,26
303,97	1273,84
304,19	1290,22
304,40	1351,66
304,61	1294,32
304,83	1239,02
305,04	1265,64
305,26	1298,41
305,47	1302,51
305,68	1267,69
305,90	1232,88
306,11	1249,26
306,33	1277,93
306,54	1306,60
306,75	1210,35
306,97	1265,64
307,18	1232,88
307,39	1204,21
307,61	1263,60
307,82	1263,60
308,04	1259,50
308,25	1228,78
308,46	1310,70
308,68	1279,98
308,89	1257,45
309,10	1239,02
309,32	1302,51
309,53	1271,79
309,74	1243,12
309,96	1269,74
310,17	1189,87
310,39	1333,23
310,60	1320,94
310,81	1269,74
311,03	1232,88
311,24	1241,07
311,45	1257,45
311,67	1308,65
311,88	1202,16
312,09	1296,36
312,31	1200,11
312,52	1261,55
312,73	1292,27
312,95	1294,32
313,16	1257,45
313,37	1296,36
313,59	1253,36
313,80	1306,60
314,01	1232,88
314,23	1220,59
314,44	1269,74
314,65	1224,69
314,87	1204,21
315,08	1288,17
315,29	1214,45
315,51	1251,31
315,72	1300,46
315,93	1312,75
316,15	1382,38
316,36	1286,12
316,57	1204,21
316,79	1310,70
317,00	1253,36
317,21	1245,16
317,43	1239,02
317,64	1308,65
317,85	1265,64
318,07	1282,03
318,28	1230,83
318,49	1318,89
318,70	1243,12
318,92	1222,64
319,13	1318,89
319,34	1200,11
319,56	1286,12
319,77	1298,41
319,98	1286,12
320,20	1310,70
320,41	1243,12
320,62	1236,97
320,83	1218,54
321,05	1300,46
321,26	1296,36
321,47	1265,64
321,69	1288,17
321,90	1273,84
322,11	1216,49
322,32	1271,79
322,54	1322,99
322,75	1363,95
322,96	1282,03
323,18	1265,64
323,39	1200,11
323,60	1292,27
323,81	1273,84
324,03	1286,12
324,24	1230,83
324,45	1255,40
324,66	1267,69
324,88	1249,26
325,09	1282,03
325,30	1245,16
325,52	1183,73
325,73	1298,41
325,94	1337,32
326,15	1265,64
326,37	1247,21
326,58	1265,64
326,79	1333,23
327,00	1212,40
327,22	1282,03
327,43	1245,16
327,64	1243,12
327,85	1322,99
328,07	1275,88
328,28	1275,88
328,49	1314,80
328,70	1245,16
328,92	1335,28
329,13	1116,14
329,34	1273,84
329,55	1259,50
329,76	1314,80
329,98	1279,98
330,19	1263,60
330,40	1263,60
330,61	1284,08
330,83	1228,78
331,04	1222,64
331,25	1277,93
331,46	1288,17
331,68	1306,60
331,89	1255,40
332,10	1302,51
332,31	1271,79
332,52	1193,97
332,74	1271,79
332,95	1267,69
333,16	1226,73
333,37	1271,79
333,58	1193,97
333,80	1300,46
334,01	1316,84
334,22	1329,13
334,43	1265,64
334,64	1269,74
334,86	1339,37
335,07	1275,88
335,28	1255,40
335,49	1298,41
335,70	1275,88
335,92	1273,84
336,13	1286,12
336,34	1212,40
336,55	1257,45
336,76	1261,55
336,98	1218,54
337,19	1232,88
337,40	1288,17
337,61	1277,93
337,82	1257,45
338,04	1216,49
338,25	1206,25
338,46	1290,22
338,67	1345,52
338,88	1271,79
339,09	1286,12
339,31	1306,60
339,52	1247,21
339,73	1304,56
339,94	1286,12
340,15	1234,93
340,36	1247,21
340,58	1241,07
340,79	1259,50
341,00	1277,93
341,21	1306,60
341,42	1245,16
341,63	1185,77
341,85	1216,49
342,06	1304,56
342,27	1294,32
342,48	1228,78
342,69	1232,88
342,90	1304,56
343,12	1273,84
343,33	1249,26
343,54	1263,60
343,75	1222,64
343,96	1206,25
344,17	1337,32
344,38	1271,79
344,60	1273,84
344,81	1286,12
345,02	1239,02
345,23	1241,07
345,44	1255,40
345,65	1343,47
345,86	1222,64
346,07	1259,50
346,29	1251,31
346,50	1255,40
346,71	1284,08
346,92	1218,54
347,13	1249,26
347,34	1341,42
347,55	1230,83
347,76	1247,21
347,98	1320,94
348,19	1277,93
348,40	1314,80
348,61	1314,80
348,82	1259,50
349,03	1189,87
349,24	1228,78
349,45	1355,76
349,66	1322,99
349,88	1320,94
350,09	1232,88
350,30	1277,93
350,51	1251,31
350,72	1216,49
350,93	1239,02
351,14	1269,74
351,35	1267,69
351,56	1208,30
351,77	1302,51
351,99	1292,27
352,20	1327,08
352,41	1288,17
352,62	1288,17
352,83	1241,07
353,04	1239,02
353,25	1263,60
353,46	1294,32
353,67	1273,84
353,88	1232,88
354,09	1290,22
354,30	1277,93
354,52	1222,64
354,73	1273,84
354,94	1275,88
355,15	1265,64
355,36	1273,84
355,57	1230,83
355,78	1191,92
355,99	1265,64
356,20	1279,98
356,41	1210,35
356,62	1298,41
356,83	1320,94
357,04	1331,18
357,25	1253,36
357,46	1273,84
357,68	1206,25
357,89	1239,02
358,10	1312,75
358,31	1241,07
358,52	1302,51
358,73	1304,56
358,94	1310,70
359,15	1284,08
359,36	1245,16
359,57	1247,21
359,78	1206,25
359,99	1339,37
360,20	1333,23
360,41	1282,03
360,62	1255,40
360,83	1308,65
361,04	1263,60
361,25	1208,30
361,46	1320,94
361,67	1228,78
361,88	1273,84
362,09	1245,16
362,30	1263,60
362,51	1269,74
362,72	1253,36
362,93	1279,98
363,14	1245,16
363,35	1261,55
363,56	1294,32
363,78	1282,03
363,99	1361,90
364,20	1312,75
364,41	1249,26
364,62	1222,64
364,83	1279,98
365,04	1267,69
365,25	1253,36
365,46	1255,40
365,67	1222,64
365,88	1251,31
366,09	1273,84
366,30	1171,44
366,51	1236,97
366,72	1265,64
366,93	1279,98
367,14	1257,45
367,35	1249,26
367,56	1263,60
367,77	1271,79
367,98	1343,47
368,18	1255,40
368,39	1329,13
368,60	1351,66
368,81	1308,65
369,02	1241,07
369,23	1226,73
369,44	1279,98
369,65	1263,60
369,86	1288,17
370,07	1165,29
370,28	1267,69
370,49	1314,80
370,70	1273,84
370,91	1200,11
371,12	1296,36
371,33	1239,02
371,54	1275,88
371,75	1247,21
371,96	1259,50
372,17	1251,31
372,38	1245,16
372,59	1304,56
372,80	1269,74
373,01	1302,51
373,22	1212,40
373,43	1314,80
373,64	1249,26
373,85	1282,03
374,06	1275,88
374,26	1253,36
374,47	1282,03
374,68	1220,59
374,89	1300,46
375,10	1255,40
375,31	1327,08
375,52	1267,69
375,73	1267,69
375,94	1286,12
376,15	1247,21
376,36	1241,07
376,57	1208,30
376,78	1249,26
376,99	1259,50
377,20	1357,80
377,40	1302,51
377,61	1230,83
377,82	1243,12
378,03	1239,02
378,24	1273,84
378,45	1224,69
378,66	1304,56
378,87	1263,60
379,08	1275,88
379,29	1183,73
379,50	1351,66
379,71	1314,80
379,91	1345,52
380,12	1212,40
380,33	1161,20
380,54	1241,07
380,75	1322,99
380,96	1226,73
381,17	1241,07
381,38	1296,36
381,59	1306,60
381,80	1255,40
382,00	1294,32
382,21	1218,54
382,42	1226,73
382,63	1202,16
382,84	1232,88
383,05	1267,69
383,26	1214,45
383,47	1341,42
383,68	1247,21
383,88	1263,60
384,09	1290,22
384,30	1290,22
384,51	1251,31
384,72	1286,12
384,93	1249,26
385,14	1253,36
385,35	1265,64
385,55	1243,12
385,76	1284,08
385,97	1251,31
386,18	1284,08
386,39	1300,46
386,60	1304,56
386,81	1265,64
387,02	1312,75
387,22	1279,98
387,43	1306,60
387,64	1200,11
387,85	1220,59
388,06	1249,26
388,27	1191,92
388,48	1314,80
388,68	1232,88
388,89	1243,12
389,10	1216,49
389,31	1245,16
389,52	1214,45
389,73	1337,32
389,93	1277,93
390,14	1245,16
390,35	1239,02
390,56	1230,83
390,77	1259,50
390,98	1302,51
391,18	1286,12
391,39	1228,78
391,60	1271,79
391,81	1239,02
392,02	1261,55
392,23	1261,55
392,43	1189,87
392,64	1257,45
392,85	1271,79
393,06	1314,80
393,27	1271,79
393,47	1208,30
393,68	1249,26
393,89	1296,36
394,10	1191,92
394,31	1232,88
394,52	1271,79
394,72	1261,55
394,93	1273,84
395,14	1366,00
395,35	1214,45
395,56	1296,36
395,76	1202,16
395,97	1314,80
396,18	1247,21
396,39	1259,50
396,60	1320,94
396,80	1249,26
397,01	1318,89
397,22	1267,69
397,43	1234,93
397,64	1214,45
397,84	1222,64
398,05	1183,73
398,26	1232,88
398,47	1318,89
398,67	1304,56
398,88	1230,83
399,09	1349,61
399,30	1298,41
399,51	1273,84
399,71	1247,21
399,92	1271,79
400,13	1345,52
400,34	1286,12
400,54	1275,88
400,75	1263,60
400,96	1257,45
401,17	1310,70
401,37	1243,12
401,58	1339,37
401,79	1243,12
402,00	1337,32
402,21	1292,27
402,41	1253,36
402,62	1296,36
402,83	1236,97
403,04	1263,60
403,24	1294,32
403,45	1245,16
403,66	1230,83
403,87	1286,12
404,07	1288,17
404,28	1290,22
404,49	1269,74
404,70	1267,69
404,90	1220,59
405,11	1279,98
405,32	1230,83
405,52	1316,84
405,73	1257,45
405,94	1245,16
406,15	1271,79
406,35	1275,88
406,56	1312,75
406,77	1261,55
406,98	1271,79
407,18	1241,07
407,39	1318,89
407,60	1288,17
407,80	1284,08
408,01	1333,23
408,22	1241,07
408,43	1277,93
408,63	1296,36
408,84	1263,60
409,05	1310,70
409,25	1175,53
409,46	1228,78
409,67	1236,97
409,88	1230,83
410,08	1294,32
410,29	1251,31
410,50	1267,69
410,70	1249,26
410,91	1206,25
411,12	1208,30
411,32	1269,74
411,53	1257,45
411,74	1322,99
411,95	1302,51
412,15	1275,88
412,36	1298,41
412,57	1273,84
412,77	1337,32
412,98	1257,45
413,19	1286,12
413,39	1253,36
413,60	1263,60
413,81	1255,40
414,01	1265,64
414,22	1241,07
414,43	1257,45
414,63	1288,17
414,84	1372,14
415,05	1185,77
415,25	1273,84
415,46	1224,69
415,67	1234,93
415,87	1279,98
416,08	1314,80
416,29	1245,16
416,49	1271,79
416,70	1257,45
416,91	1267,69
417,11	1200,11
417,32	1179,63
417,53	1304,56
417,73	1284,08
417,94	1243,12
418,15	1286,12
418,35	1265,64
418,56	1271,79
418,77	1372,14
418,97	1228,78
419,18	1290,22
419,38	1226,73
419,59	1271,79
419,80	1288,17
420,00	1220,59
420,21	1247,21
420,42	1218,54
420,62	1349,61
420,83	1279,98
421,04	1198,06
421,24	1257,45
421,45	1286,12
421,65	1220,59
421,86	1232,88
422,07	1232,88
422,27	1259,50
422,48	1253,36
422,69	1269,74
422,89	1282,03
423,10	1282,03
423,30	1253,36
423,51	1286,12
423,72	1245,16
423,92	1261,55
424,13	1261,55
424,33	1257,45
424,54	1193,97
424,75	1253,36
424,95	1265,64
425,16	1298,41
425,36	1320,94
425,57	1302,51
425,78	1267,69
425,98	1249,26
426,19	1243,12
426,39	1298,41
426,60	1226,73
426,81	1206,25
427,01	1239,02
427,22	1230,83
427,42	1361,90
427,63	1259,50
427,83	1275,88
428,04	1249,26
428,25	1230,83
428,45	1279,98
428,66	1265,64
428,86	1196,01
429,07	1257,45
429,28	1232,88
429,48	1279,98
429,69	1355,76
429,89	1286,12
430,10	1290,22
430,30	1271,79
430,51	1300,46
430,71	1220,59
430,92	1249,26
431,13	1210,35
431,33	1228,78
431,54	1245,16
431,74	1331,18
431,95	1320,94
432,15	1310,70
432,36	1318,89
432,56	1263,60
432,77	1243,12
432,98	1282,03
433,18	1222,64
433,39	1290,22
433,59	1288,17
433,80	1269,74
434,00	1351,66
434,21	1259,50
434,41	1277,93
434,62	1232,88
434,82	1265,64
435,03	1279,98
435,23	1275,88
435,44	1175,53
435,64	1251,31
435,85	1204,21
436,06	1290,22
436,26	1259,50
436,47	1253,36
436,67	1325,04
436,88	1331,18
437,08	1263,60
437,29	1269,74
437,49	1284,08
437,70	1226,73
437,90	1251,31
438,11	1236,97
438,31	1286,12
438,52	1259,50
438,72	1279,98
438,93	1279,98
439,13	1239,02
439,34	1302,51
439,54	1279,98
439,75	1333,23
439,95	1259,50
440,16	1312,75
440,36	1290,22
440,57	1296,36
440,77	1296,36
440,98	1257,45
441,18	1353,71
441,39	1253,36
441,59	1226,73
441,80	1269,74
442,00	1243,12
442,21	1271,79
442,41	1241,07
442,62	1271,79
442,82	1255,40
443,02	1279,98
443,23	1253,36
443,43	1241,07
443,64	1312,75
443,84	1302,51
444,05	1306,60
444,25	1304,56
444,46	1265,64
444,66	1290,22
444,87	1275,88
445,07	1331,18
445,28	1259,50
445,48	1284,08
445,69	1300,46
445,89	1292,27
446,09	1290,22
446,30	1349,61
446,50	1302,51
446,71	1294,32
446,91	1339,37
447,12	1284,08
447,32	1286,12
447,53	1298,41
447,73	1251,31
447,93	1249,26
448,14	1271,79
448,34	1239,02
448,55	1294,32
448,75	1234,93
448,96	1304,56
449,16	1265,64
449,36	1378,28
449,57	1243,12
449,77	1284,08
449,98	1245,16
450,18	1247,21
450,39	1298,41
450,59	1271,79
450,79	1271,79
451,00	1304,56
451,20	1277,93
451,41	1243,12
451,61	1314,80
451,81	1228,78
452,02	1257,45
452,22	1253,36
452,43	1300,46
452,63	1247,21
452,84	1259,50
453,04	1249,26
453,24	1345,52
453,45	1306,60
453,65	1265,64
453,86	1255,40
454,06	1265,64
454,26	1327,08
454,47	1241,07
454,67	1222,64
454,87	1232,88
455,08	1296,36
455,28	1239,02
455,49	1304,56
455,69	1191,92
455,89	1318,89
456,10	1269,74
456,30	1239,02
456,51	1210,35
456,71	1308,65
456,91	1251,31
457,12	1318,89
457,32	1263,60
457,52	1345,52
457,73	1267,69
457,93	1275,88
458,14	1198,06
458,34	1286,12
458,54	1269,74
458,75	1312,75
458,95	1251,31
459,15	1271,79
459,36	1271,79
459,56	1269,74
459,76	1261,55
459,97	1263,60
460,17	1288,17
460,37	1308,65
460,58	1214,45
460,78	1243,12
460,99	1296,36
461,19	1296,36
461,39	1261,55
461,60	1318,89
461,80	1265,64
462,00	1249,26
462,21	1345,52
462,41	1325,04
462,61	1253,36
462,82	1279,98
463,02	1224,69
463,22	1349,61
463,43	1232,88
463,63	1316,84
463,83	1304,56
464,04	1261,55
464,24	1304,56
464,44	1259,50
464,64	1255,40
464,85	1224,69
465,05	1288,17
465,25	1265,64
465,46	1257,45
465,66	1226,73
465,86	1243,12
466,07	1255,40
466,27	1310,70
466,47	1310,70
466,68	1279,98
466,88	1312,75
467,08	1302,51
467,29	1245,16
467,49	1298,41
467,69	1302,51
467,89	1327,08
468,10	1294,32
468,30	1249,26
468,50	1220,59
468,71	1296,36
468,91	1261,55
469,11	1318,89
469,31	1296,36
469,52	1189,87
469,72	1263,60
469,92	1322,99
470,13	1316,84
470,33	1320,94
470,53	1265,64
470,73	1284,08
470,94	1271,79
471,14	1243,12
471,34	1263,60
471,54	1322,99
471,75	1269,74
471,95	1232,88
472,15	1298,41
472,36	1288,17
472,56	1236,97
472,76	1288,17
472,96	1222,64
473,17	1224,69
473,37	1329,13
473,57	1271,79
473,77	1275,88
473,98	1290,22
474,18	1296,36
474,38	1226,73
474,58	1269,74
474,79	1294,32
474,99	1255,40
475,19	1294,32
475,39	1284,08
475,60	1257,45
475,80	1212,40
476,00	1218,54
476,20	1279,98
476,41	1249,26
476,61	1200,11
476,81	1304,56
477,01	1257,45
477,21	1263,60
477,42	1292,27
477,62	1277,93
477,82	1290,22
478,02	1296,36
478,23	1337,32
478,43	1296,36
478,63	1279,98
478,83	1288,17
479,03	1271,79
479,24	1337,32
479,44	1245,16
479,64	1234,93
479,84	1290,22
480,04	1327,08
480,25	1224,69
480,45	1245,16
480,65	1271,79
480,85	1257,45
481,06	1288,17
481,26	1271,79
481,46	1282,03
481,66	1296,36
481,86	1310,70
482,06	1253,36
482,27	1314,80
482,47	1290,22
482,67	1273,84
482,87	1267,69
483,07	1288,17
483,28	1259,50
483,48	1318,89
483,68	1310,70
483,88	1257,45
484,08	1243,12
484,29	1230,83
484,49	1259,50
484,69	1243,12
484,89	1302,51
485,09	1284,08
485,29	1306,60
485,50	1257,45
485,70	1253,36
485,90	1314,80
486,10	1259,50
486,30	1259,50
486,50	1302,51
486,71	1212,40
486,91	1320,94
487,11	1212,40
487,31	1150,96
487,51	1261,55
487,71	1282,03
487,91	1267,69
488,12	1257,45
488,32	1179,63
488,52	1294,32
488,72	1279,98
488,92	1239,02
489,12	1249,26
489,32	1361,90
489,53	1284,08
489,73	1275,88
489,93	1249,26
490,13	1232,88
490,33	1243,12
490,53	1245,16
490,73	1337,32
490,94	1224,69
491,14	1314,80
491,34	1308,65
491,54	1300,46
491,74	1255,40
491,94	1284,08
492,14	1267,69
492,34	1247,21
492,54	1257,45
492,75	1300,46
492,95	1263,60
493,15	1216,49
493,35	1263,60
493,55	1265,64
493,75	1234,93
493,95	1349,61
494,15	1290,22
494,35	1292,27
494,56	1308,65
494,76	1265,64
494,96	1222,64
495,16	1167,34
495,36	1234,93
495,56	1247,21
495,76	1275,88
495,96	1255,40
496,16	1220,59
496,36	1279,98
496,56	1245,16
496,77	1286,12
496,97	1224,69
497,17	1253,36
497,37	1290,22
497,57	1282,03
497,77	1308,65
497,97	1265,64
498,17	1331,18
498,37	1253,36
498,57	1298,41
498,77	1251,31
498,97	1222,64
499,17	1269,74
499,38	1251,31
499,58	1157,10
499,78	1298,41
499,98	1314,80
500,18	1243,12
500,38	1304,56
500,58	1310,70
500,78	1290,22
500,98	1271,79
501,18	1269,74
501,38	1255,40
501,58	1253,36
501,78	1261,55
501,98	1247,21
502,18	1331,18
502,38	1247,21
502,58	1253,36
502,78	1247,21
502,98	1198,06
503,18	1232,88
503,38	1191,92
503,59	1331,18
503,79	1320,94
503,99	1265,64
504,19	1368,04
504,39	1273,84
504,59	1331,18
504,79	1196,01
504,99	1308,65
505,19	1347,56
505,39	1310,70
505,59	1282,03
505,79	1308,65
505,99	1255,40
506,19	1255,40
506,39	1236,97
506,59	1236,97
506,79	1267,69
506,99	1226,73
507,19	1384,43
507,39	1224,69
507,59	1228,78
507,79	1236,97
507,99	1241,07
508,19	1239,02
508,39	1314,80
508,59	1255,40
508,79	1251,31
508,99	1208,30
509,19	1273,84
509,39	1308,65
509,59	1308,65
509,79	1282,03
509,99	1241,07
510,19	1214,45
510,39	1255,40
510,59	1200,11
510,79	1249,26
510,99	1306,60
511,19	1353,71
511,39	1236,97
511,59	1296,36
511,79	1279,98
511,99	1343,47
512,19	1251,31
512,38	1292,27
512,58	1279,98
512,78	1304,56
512,98	1232,88
513,18	1300,46
513,38	1232,88
513,58	1306,60
513,78	1249,26
513,98	1234,93
514,18	1212,40
514,38	1282,03
514,58	1239,02
514,78	1275,88
514,98	1275,88
515,18	1284,08
515,38	1241,07
515,58	1271,79
515,78	1232,88
515,98	1241,07
516,18	1167,34
516,38	1271,79
516,57	1320,94
516,77	1320,94
516,97	1245,16
517,17	1312,75
517,37	1286,12
517,57	1341,42
517,77	1282,03
517,97	1257,45
518,17	1271,79
518,37	1298,41
518,57	1247,21
518,77	1292,27
518,97	1275,88
519,16	1290,22
519,36	1275,88
519,56	1294,32
519,76	1220,59
519,96	1263,60
520,16	1234,93
520,36	1355,76
520,56	1251,31
520,76	1265,64
520,96	1296,36
521,16	1279,98
521,35	1277,93
521,55	1300,46
521,75	1265,64
521,95	1200,11
522,15	1296,36
522,35	1366,00
522,55	1304,56
522,75	1245,16
522,95	1302,51
523,14	1251,31
523,34	1261,55
523,54	1279,98
523,74	1255,40
523,94	1241,07
524,14	1337,32
524,34	1241,07
524,54	1247,21
524,73	1286,12
524,93	1331,18
525,13	1310,70
525,33	1265,64
525,53	1343,47
525,73	1259,50
525,93	1261,55
526,13	1247,21
526,32	1265,64
526,52	1327,08
526,72	1288,17
526,92	1296,36
527,12	1265,64
527,32	1261,55
527,52	1204,21
527,71	1251,31
527,91	1292,27
528,11	1294,32
528,31	1308,65
528,51	1296,36
528,71	1304,56
528,90	1312,75
529,10	1296,36
529,30	1249,26
529,50	1245,16
529,70	1322,99
529,90	1308,65
530,09	1271,79
530,29	1351,66
530,49	1273,84
530,69	1261,55
530,89	1253,36
531,09	1312,75
531,28	1230,83
531,48	1243,12
531,68	1261,55
531,88	1241,07
532,08	1255,40
532,28	1255,40
532,47	1284,08
532,67	1271,79
532,87	1288,17
533,07	1216,49
533,27	1335,28
533,46	1161,20
533,66	1269,74
533,86	1312,75
534,06	1224,69
534,26	1282,03
534,45	1322,99
534,65	1234,93
534,85	1320,94
535,05	1316,84
535,25	1308,65
535,44	1273,84
535,64	1288,17
535,84	1290,22
536,04	1273,84
536,24	1290,22
536,43	1296,36
536,63	1304,56
536,83	1226,73
537,03	1296,36
537,22	1345,52
537,42	1234,93
537,62	1286,12
537,82	1300,46
538,02	1275,88
538,21	1198,06
538,41	1302,51
538,61	1300,46
538,81	1232,88
539,00	1220,59
539,20	1296,36
539,40	1226,73
539,60	1361,90
539,79	1284,08
539,99	1249,26
540,19	1339,37
540,39	1249,26
540,58	1241,07
540,78	1249,26
540,98	1314,80
541,18	1265,64
541,37	1273,84
541,57	1277,93
541,77	1265,64
541,97	1257,45
542,16	1241,07
542,36	1212,40
542,56	1234,93
542,76	1234,93
542,95	1288,17
543,15	1255,40
543,35	1253,36
543,54	1290,22
543,74	1200,11
543,94	1259,50
544,14	1322,99
544,33	1320,94
544,53	1253,36
544,73	1277,93
544,93	1335,28
545,12	1312,75
545,32	1265,64
545,52	1279,98
545,71	1241,07
545,91	1232,88
546,11	1288,17
546,30	1230,83
546,50	1331,18
546,70	1290,22
546,90	1294,32
547,09	1320,94
547,29	1316,84
547,49	1286,12
547,68	1263,60
547,88	1345,52
548,08	1308,65
548,27	1290,22
548,47	1232,88
548,67	1271,79
548,87	1288,17
549,06	1284,08
549,26	1314,80
549,46	1312,75
549,65	1302,51
549,85	1312,75
550,05	1214,45
550,24	1236,97
550,44	1292,27
550,64	1286,12
550,83	1302,51
551,03	1292,27
551,23	1318,89
551,42	1259,50
551,62	1273,84
551,82	1282,03
552,01	1286,12
552,21	1257,45
552,41	1288,17
552,60	1288,17
552,80	1279,98
553,00	1261,55
553,19	1329,13
553,39	1239,02
553,59	1331,18
553,78	1327,08
553,98	1239,02
554,17	1308,65
554,37	1304,56
554,57	1284,08
554,76	1288,17
554,96	1241,07
555,16	1290,22
555,35	1300,46
555,55	1284,08
555,75	1232,88
555,94	1187,82
556,14	1232,88
556,33	1292,27
556,53	1298,41
556,73	1263,60
556,92	1320,94
557,12	1247,21
557,32	1312,75
557,51	1361,90
557,71	1290,22
557,90	1339,37
558,10	1347,56
558,30	1386,47
558,49	1304,56
558,69	1218,54
558,88	1271,79
559,08	1304,56
559,28	1312,75
559,47	1300,46
559,67	1261,55
559,86	1331,18
560,06	1300,46
560,26	1386,47
560,45	1282,03
560,65	1316,84
560,84	1279,98
561,04	1232,88
561,24	1257,45
561,43	1267,69
561,63	1345,52
561,82	1349,61
562,02	1298,41
562,22	1288,17
562,41	1290,22
562,61	1384,43
562,80	1249,26
563,00	1310,70
563,19	1265,64
563,39	1314,80
563,59	1245,16
563,78	1273,84
563,98	1286,12
564,17	1236,97
564,37	1290,22
564,56	1232,88
564,76	1277,93
564,96	1253,36
565,15	1298,41
565,35	1306,60
565,54	1269,74
565,74	1232,88
565,93	1243,12
566,13	1290,22
566,32	1257,45
566,52	1259,50
566,71	1279,98
566,91	1277,93
567,11	1263,60
567,30	1302,51
567,50	1329,13
567,69	1241,07
567,89	1322,99
568,08	1230,83
568,28	1288,17
568,47	1294,32
568,67	1300,46
568,86	1249,26
569,06	1341,42
569,25	1310,70
569,45	1279,98
569,64	1300,46
569,84	1402,86
570,04	1263,60
570,23	1230,83
570,43	1394,67
570,62	1279,98
570,82	1284,08
571,01	1304,56
571,21	1263,60
571,40	1269,74
571,60	1318,89
571,79	1325,04
571,99	1320,94
572,18	1265,64
572,38	1279,98
572,57	1259,50
572,77	1306,60
572,96	1277,93
573,16	1247,21
573,35	1214,45
573,55	1279,98
573,74	1284,08
573,94	1271,79
574,13	1312,75
574,33	1265,64
574,52	1290,22
574,71	1322,99
574,91	1279,98
575,10	1292,27
575,30	1259,50
575,49	1247,21
575,69	1249,26
575,88	1351,66
576,08	1204,21
576,27	1357,80
576,47	1259,50
576,66	1271,79
576,86	1241,07
577,05	1304,56
577,25	1316,84
577,44	1263,60
577,64	1243,12
577,83	1351,66
578,02	1267,69
578,22	1296,36
578,41	1322,99
578,61	1320,94
578,80	1214,45
579,00	1320,94
579,19	1302,51
579,39	1355,76
579,58	1325,04
579,77	1335,28
579,97	1343,47
580,16	1267,69
580,36	1265,64
580,55	1277,93
580,75	1279,98
580,94	1220,59
581,13	1204,21
581,33	1234,93
581,52	1339,37
581,72	1394,67
581,91	1269,74
582,11	1296,36
582,30	1271,79
582,49	1294,32
582,69	1329,13
582,88	1263,60
583,08	1255,40
583,27	1273,84
583,47	1269,74
583,66	1320,94
583,85	1310,70
584,05	1310,70
584,24	1351,66
584,44	1210,35
584,63	1277,93
584,82	1257,45
585,02	1259,50
585,21	1292,27
585,41	1282,03
585,60	1327,08
585,79	1267,69
585,99	1318,89
586,18	1239,02
586,37	1271,79
586,57	1306,60
586,76	1339,37
586,96	1322,99
587,15	1318,89
587,34	1279,98
587,54	1265,64
587,73	1218,54
587,93	1257,45
588,12	1279,98
588,31	1290,22
588,51	1353,71
588,70	1331,18
588,89	1259,50
589,09	1339,37
589,28	1316,84
589,47	1230,83
589,67	1234,93
589,86	1269,74
590,06	1261,55
590,25	1325,04
590,44	1265,64
590,64	1296,36
590,83	1300,46
591,02	1316,84
591,22	1216,49
591,41	1253,36
591,60	1198,06
591,80	1185,77
591,99	1198,06
592,18	1251,31
592,38	1345,52
592,57	1232,88
592,76	1245,16
592,96	1253,36
593,15	1296,36
593,34	1322,99
593,54	1286,12
593,73	1245,16
593,92	1302,51
594,12	1284,08
594,31	1236,97
594,50	1267,69
594,70	1284,08
594,89	1320,94
595,08	1230,83
595,28	1247,21
595,47	1286,12
595,66	1249,26
595,86	1306,60
596,05	1316,84
596,24	1290,22
596,43	1288,17
596,63	1382,38
596,82	1243,12
597,01	1331,18
597,21	1224,69
597,40	1224,69
597,59	1257,45
597,79	1249,26
597,98	1249,26
598,17	1245,16
598,36	1277,93
598,56	1269,74
598,75	1308,65
598,94	1374,19
599,14	1325,04
599,33	1261,55
599,52	1236,97
599,71	1253,36
599,91	1304,56
600,10	1279,98
600,29	1273,84
600,48	1253,36
600,68	1298,41
600,87	1329,13
601,06	1308,65
601,26	1273,84
601,45	1329,13
601,64	1257,45
601,83	1251,31
602,03	1259,50
602,22	1267,69
602,41	1320,94
602,60	1226,73
602,80	1310,70
602,99	1171,44
603,18	1341,42
603,37	1245,16
603,57	1267,69
603,76	1296,36
603,95	1329,13
604,14	1331,18
604,34	1230,83
604,53	1271,79
604,72	1216,49
604,91	1294,32
605,10	1302,51
605,30	1249,26
605,49	1269,74
605,68	1298,41
605,87	1236,97
606,07	1232,88
606,26	1214,45
606,45	1341,42
606,64	1269,74
606,84	1282,03
607,03	1314,80
607,22	1312,75
607,41	1210,35
607,60	1212,40
607,80	1292,27
607,99	1302,51
608,18	1300,46
608,37	1314,80
608,56	1243,12
608,76	1224,69
608,95	1239,02
609,14	1300,46
609,33	1306,60
609,52	1253,36
609,72	1279,98
609,91	1327,08
610,10	1361,90
610,29	1279,98
610,48	1267,69
610,68	1308,65
610,87	1249,26
611,06	1261,55
611,25	1349,61
611,44	1310,70
611,63	1327,08
611,83	1331,18
612,02	1267,69
612,21	1228,78
612,40	1232,88
612,59	1214,45
612,79	1331,18
612,98	1277,93
613,17	1243,12
613,36	1275,88
613,55	1249,26
613,74	1331,18
613,93	1265,64
614,13	1282,03
614,32	1316,84
614,51	1304,56
614,70	1298,41
614,89	1320,94
615,08	1267,69
615,28	1310,70
615,47	1273,84
615,66	1275,88
615,85	1230,83
616,04	1294,32
616,23	1277,93
616,42	1175,53
616,62	1357,80
616,81	1177,58
617,00	1196,01
617,19	1275,88
617,38	1329,13
617,57	1282,03
617,76	1236,97
617,95	1271,79
618,15	1304,56
618,34	1314,80
618,53	1239,02
618,72	1200,11
618,91	1261,55
619,10	1224,69
619,29	1372,14
619,48	1247,21
619,68	1343,47
619,87	1347,56
620,06	1226,73
620,25	1245,16
620,44	1290,22
620,63	1241,07
620,82	1255,40
621,01	1239,02
621,20	1290,22
621,39	1249,26
621,59	1349,61
621,78	1304,56
621,97	1282,03
622,16	1277,93
622,35	1296,36
622,54	1257,45
622,73	1294,32
622,92	1357,80
623,11	1353,71
623,30	1310,70
623,49	1302,51
623,68	1292,27
623,88	1312,75
624,07	1351,66
624,26	1265,64
624,45	1296,36
624,64	1314,80
624,83	1286,12
625,02	1247,21
625,21	1306,60
625,40	1232,88
625,59	1271,79
625,78	1325,04
625,97	1314,80
626,16	1310,70
626,35	1275,88
626,54	1322,99
626,74	1279,98
626,93	1343,47
627,12	1337,32
627,31	1222,64
627,50	1300,46
627,69	1284,08
627,88	1263,60
628,07	1236,97
628,26	1241,07
628,45	1232,88
628,64	1269,74
628,83	1239,02
629,02	1296,36
629,21	1214,45
629,40	1296,36
629,59	1308,65
629,78	1312,75
629,97	1306,60
630,16	1357,80
630,35	1337,32
630,54	1288,17
630,73	1359,85
630,92	1304,56
631,11	1327,08
631,30	1318,89
631,49	1310,70
631,68	1404,91
631,87	1642,47
632,06	1769,44
632,25	1683,43
632,44	1779,68
632,63	1703,91
632,82	2021,35
633,01	2330,59
633,20	2119,65
633,39	2115,55
633,58	1994,72
633,77	2179,04
633,96	2080,74
634,15	2097,12
634,34	2181,09
634,53	2183,13
634,72	2027,49
634,91	1824,74
635,10	1777,64
635,29	1665,00
635,48	1699,81
635,67	1599,46
635,86	1697,77
636,05	1556,46
636,24	1607,66
636,43	1435,63
636,62	1327,08
636,81	1345,52
637,00	1368,04
637,19	1398,76
637,38	1337,32
637,57	1302,51
637,76	1409,00
637,95	1351,66
638,14	1327,08
638,33	1271,79
638,52	1282,03
638,71	1228,78
638,89	1339,37
639,08	1218,54
639,27	1304,56
639,46	1359,85
639,65	1298,41
639,84	1370,09
640,03	1290,22
640,22	1269,74
640,41	1316,84
640,60	1306,60
640,79	1269,74
640,98	1279,98
641,17	1228,78
641,36	1302,51
641,55	1292,27
641,74	1322,99
641,92	1261,55
642,11	1292,27
642,30	1265,64
642,49	1273,84
642,68	1286,12
642,87	1329,13
643,06	1325,04
643,25	1251,31
643,44	1316,84
643,63	1279,98
643,82	1302,51
644,00	1277,93
644,19	1220,59
644,38	1329,13
644,57	1314,80
644,76	1318,89
644,95	1253,36
645,14	1337,32
645,33	1255,40
645,52	1318,89
645,71	1290,22
645,89	1294,32
646,08	1296,36
646,27	1314,80
646,46	1294,32
646,65	1265,64
646,84	1314,80
647,03	1288,17
647,22	1259,50
647,40	1267,69
647,59	1363,95
647,78	1241,07
647,97	1304,56
648,16	1277,93
648,35	1288,17
648,54	1345,52
648,73	1269,74
648,91	1302,51
649,10	1357,80
649,29	1263,60
649,48	1263,60
649,67	1271,79
649,86	1325,04
650,05	1294,32
650,23	1267,69
650,42	1218,54
650,61	1263,60
650,80	1327,08
650,99	1282,03
651,18	1257,45
651,36	1331,18
651,55	1320,94
651,74	1318,89
651,93	1204,21
652,12	1251,31
652,31	1273,84
652,49	1284,08
652,68	1226,73
652,87	1251,31
653,06	1226,73
653,25	1228,78
653,44	1275,88
653,62	1288,17
653,81	1316,84
654,00	1226,73
654,19	1253,36
654,38	1222,64
654,56	1257,45
654,75	1298,41
654,94	1249,26
655,13	1298,41
655,32	1314,80
655,51	1247,21
655,69	1267,69
655,88	1271,79
656,07	1220,59
656,26	1345,52
656,45	1257,45
656,63	1234,93
656,82	1374,19
657,01	1296,36
657,20	1273,84
657,38	1382,38
657,57	1265,64
657,76	1298,41
657,95	1286,12
658,14	1265,64
658,32	1308,65
658,51	1255,40
658,70	1310,70
658,89	1282,03
659,08	1300,46
659,26	1263,60
659,45	1271,79
659,64	1282,03
659,83	1290,22
660,01	1282,03
660,20	1191,92
660,39	1257,45
660,58	1228,78
660,76	1257,45
660,95	1271,79
661,14	1208,30
661,33	1322,99
661,51	1282,03
661,70	1273,84
661,89	1232,88
662,08	1234,93
662,26	1322,99
662,45	1257,45
662,64	1304,56
662,83	1257,45
663,01	1282,03
663,20	1290,22
663,39	1314,80
663,58	1204,21
663,76	1286,12
663,95	1302,51
664,14	1275,88
664,32	1282,03
664,51	1290,22
664,70	1265,64
664,89	1296,36
665,07	1298,41
665,26	1226,73
665,45	1300,46
665,64	1282,03
665,82	1331,18
666,01	1226,73
666,20	1345,52
666,38	1277,93
666,57	1306,60
666,76	1202,16
666,95	1232,88
667,13	1255,40
667,32	1228,78
667,51	1261,55
667,69	1271,79
667,88	1288,17
668,07	1286,12
668,25	1271,79
668,44	1300,46
668,63	1189,87
668,81	1290,22
669,00	1243,12
669,19	1320,94
669,38	1277,93
669,56	1279,98
669,75	1320,94
669,94	1247,21
670,12	1294,32
670,31	1277,93
670,50	1335,28
670,68	1275,88
670,87	1273,84
671,06	1214,45
671,24	1310,70
671,43	1290,22
671,62	1261,55
671,80	1296,36
671,99	1181,68
672,18	1269,74
672,36	1265,64
672,55	1253,36
672,74	1230,83
672,92	1220,59
673,11	1318,89
673,29	1263,60
673,48	1214,45
673,67	1292,27
673,85	1255,40
674,04	1230,83
674,23	1286,12
674,41	1327,08
674,60	1290,22
674,79	1239,02
674,97	1218,54
675,16	1249,26
675,34	1210,35
675,53	1218,54
675,72	1275,88
675,90	1263,60
676,09	1222,64
676,28	1294,32
676,46	1263,60
676,65	1220,59
676,83	1314,80
677,02	1208,30
677,21	1314,80
677,39	1236,97
677,58	1265,64
677,77	1261,55
677,95	1263,60
678,14	1282,03
678,32	1308,65
678,51	1230,83
678,70	1234,93
678,88	1294,32
679,07	1314,80
679,25	1275,88
679,44	1282,03
679,63	1247,21
679,81	1296,36
680,00	1296,36
680,18	1282,03
680,37	1267,69
680,55	1210,35
680,74	1228,78
680,93	1277,93
681,11	1308,65
681,30	1339,37
681,48	1230,83
681,67	1292,27
681,85	1306,60
682,04	1232,88
682,23	1318,89
682,41	1247,21
682,60	1230,83
682,78	1300,46
682,97	1218,54
683,15	1314,80
683,34	1279,98
683,53	1222,64
683,71	1343,47
683,90	1277,93
684,08	1269,74
684,27	1394,67
684,45	1269,74
684,64	1335,28
684,82	1279,98
685,01	1292,27
685,19	1275,88
685,38	1241,07
685,57	1228,78
685,75	1306,60
685,94	1265,64
686,12	1320,94
686,31	1241,07
686,49	1277,93
686,68	1296,36
686,86	1271,79
687,05	1263,60
687,23	1251,31
687,42	1284,08
687,60	1359,85
687,79	1259,50
687,97	1327,08
688,16	1269,74
688,34	1271,79
688,53	1306,60
688,71	1273,84
688,90	1359,85
689,08	1216,49
689,27	1224,69
689,45	1269,74
689,64	1257,45
689,82	1263,60
690,01	1314,80
690,19	1294,32
690,38	1341,42
690,56	1314,80
690,75	1249,26
690,93	1269,74
691,12	1236,97
691,30	1279,98
691,49	1333,23
691,67	1279,98
691,86	1288,17
692,04	1222,64
692,23	1312,75
692,41	1277,93
692,60	1316,84
692,78	1202,16
692,97	1212,40
693,15	1245,16
693,34	1306,60
693,52	1325,04
693,71	1339,37
693,89	1302,51
694,08	1273,84
694,26	1298,41
694,44	1320,94
694,63	1265,64
694,81	1277,93
695,00	1277,93
695,18	1300,46
695,37	1232,88
695,55	1277,93
695,74	1333,23
695,92	1290,22
696,10	1202,16
696,29	1282,03
696,47	1241,07
696,66	1241,07
696,84	1189,87
697,03	1277,93
697,21	1269,74
697,40	1239,02
697,58	1277,93
697,76	1294,32
697,95	1275,88
698,13	1286,12
698,32	1271,79
698,50	1247,21
698,68	1257,45
698,87	1265,64
699,05	1304,56
699,24	1294,32
699,42	1212,40
699,61	1341,42
699,79	1331,18
699,97	1245,16
700,16	1269,74
700,34	1308,65
700,53	1298,41
700,71	1316,84
700,89	1210,35
701,08	1230,83
701,26	1277,93
701,45	1325,04
701,63	1241,07
701,81	1245,16
702,00	1277,93
702,18	1314,80
702,37	1271,79
702,55	1286,12
702,73	1236,97
702,92	1343,47
703,10	1224,69
703,28	1265,64
703,47	1296,36
703,65	1286,12
703,84	1306,60
704,02	1288,17
704,20	1210,35
704,39	1275,88
704,57	1148,91
704,75	1191,92
704,94	1318,89
705,12	1296,36
705,30	1241,07
705,49	1275,88
705,67	1249,26
705,86	1273,84
706,04	1298,41
706,22	1206,25
706,41	1187,82
706,59	1247,21
706,77	1251,31
706,96	1265,64
707,14	1265,64
707,32	1265,64
707,51	1255,40
707,69	1263,60
707,87	1241,07
708,06	1198,06
708,24	1282,03
708,42	1239,02
708,61	1261,55
708,79	1241,07
708,97	1327,08
709,16	1210,35
709,34	1318,89
709,52	1347,56
709,71	1269,74
709,89	1339,37
710,07	1234,93
710,26	1304,56
710,44	1249,26
710,62	1241,07
710,80	1312,75
710,99	1222,64
711,17	1314,80
711,35	1327,08
711,54	1351,66
711,72	1269,74
711,90	1253,36
712,09	1210,35
712,27	1286,12
712,45	1265,64
712,63	1220,59
712,82	1206,25
713,00	1241,07
713,18	1298,41
713,37	1282,03
713,55	1286,12
713,73	1279,98
713,91	1327,08
714,10	1222,64
714,28	1273,84
714,46	1277,93
714,65	1198,06
714,83	1327,08
715,01	1322,99
715,19	1230,83
715,38	1216,49
715,56	1273,84
715,74	1296,36
715,92	1257,45
716,11	1310,70
716,29	1191,92
716,47	1296,36
716,65	1304,56
716,84	1263,60
717,02	1271,79
717,20	1206,25
717,38	1232,88
717,57	1198,06
717,75	1218,54
717,93	1312,75
718,11	1247,21
718,30	1255,40
718,48	1269,74
718,66	1310,70
718,84	1294,32
719,03	1255,40
719,21	1241,07
719,39	1333,23
719,57	1239,02
719,75	1298,41
719,94	1300,46
720,12	1253,36
720,30	1300,46
720,48	1249,26
720,67	1271,79
720,85	1263,60
721,03	1245,16
721,21	1273,84
721,39	1308,65
721,58	1318,89
721,76	1286,12
721,94	1267,69
722,12	1249,26
722,30	1296,36
722,49	1253,36
722,67	1196,01
722,85	1298,41
723,03	1282,03
723,21	1247,21
723,40	1263,60
723,58	1253,36
723,76	1298,41
723,94	1265,64
724,12	1239,02
724,30	1255,40
724,49	1322,99
724,67	1279,98
724,85	1228,78
725,03	1220,59
725,21	1292,27
725,40	1282,03
725,58	1204,21
725,76	1296,36
725,94	1251,31
726,12	1265,64
726,30	1228,78
726,49	1308,65
726,67	1320,94
726,85	1267,69
727,03	1216,49
727,21	1216,49
727,39	1243,12
727,57	1259,50
727,76	1320,94
727,94	1255,40
728,12	1255,40
728,30	1282,03
728,48	1234,93
728,66	1222,64
728,84	1208,30
729,03	1308,65
729,21	1228,78
729,39	1314,80
729,57	1310,70
729,75	1232,88
729,93	1310,70
730,11	1284,08
730,30	1288,17
730,48	1292,27
730,66	1333,23
730,84	1296,36
731,02	1277,93
731,20	1208,30
731,38	1216,49
731,56	1271,79
731,74	1249,26
731,93	1232,88
732,11	1288,17
732,29	1269,74
732,47	1306,60
732,65	1351,66
732,83	1290,22
733,01	1232,88
733,19	1247,21
733,37	1286,12
733,56	1222,64
733,74	1234,93
733,92	1247,21
734,10	1296,36
734,28	1216,49
734,46	1204,21
734,64	1239,02
734,82	1261,55
735,00	1214,45
735,18	1247,21
735,36	1269,74
735,54	1286,12
735,73	1300,46
735,91	1320,94
736,09	1265,64
736,27	1271,79
736,45	1271,79
736,63	1298,41
736,81	1251,31
736,99	1347,56
737,17	1222,64
737,35	1232,88
737,53	1253,36
737,71	1236,97
737,89	1251,31
738,07	1239,02
738,25	1282,03
738,43	1290,22
738,61	1196,01
738,80	1224,69
738,98	1288,17
739,16	1296,36
739,34	1269,74
739,52	1306,60
739,70	1243,12
739,88	1261,55
740,06	1253,36
740,24	1167,34
740,42	1267,69
740,60	1230,83
740,78	1249,26
740,96	1310,70
741,14	1245,16
741,32	1232,88
741,50	1257,45
741,68	1259,50
741,86	1261,55
742,04	1320,94
742,22	1247,21
742,40	1255,40
742,58	1310,70
742,76	1183,73
742,94	1300,46
743,12	1257,45
743,30	1204,21
743,48	1312,75
743,66	1245,16
743,84	1243,12
744,02	1284,08
744,20	1200,11
744,38	1282,03
744,56	1318,89
744,74	1220,59
744,92	1261,55
745,10	1298,41
745,28	1224,69
745,46	1257,45
745,64	1247,21
745,82	1273,84
746,00	1290,22
746,18	1249,26
746,36	1306,60
746,54	1236,97
746,72	1271,79
746,90	1277,93
747,08	1304,56
747,26	1286,12
747,44	1253,36
747,62	1282,03
747,80	1232,88
747,98	1286,12
748,15	1320,94
748,33	1320,94
748,51	1259,50
748,69	1257,45
748,87	1251,31
749,05	1314,80
749,23	1306,60
749,41	1241,07
749,59	1257,45
749,77	1196,01
749,95	1257,45
750,13	1214,45
750,31	1249,26
750,49	1296,36
750,67	1253,36
750,85	1282,03
751,03	1236,97
751,20	1306,60
751,38	1202,16
751,56	1300,46
751,74	1302,51
751,92	1302,51
752,10	1273,84
752,28	1222,64
752,46	1265,64
752,64	1243,12
752,82	1241,07
753,00	1292,27
753,18	1261,55
753,35	1267,69
753,53	1220,59
753,71	1208,30
753,89	1339,37
754,07	1312,75
754,25	1298,41
754,43	1204,21
754,61	1300,46
754,79	1243,12
754,97	1300,46
755,14	1230,83
755,32	1157,10
755,50	1232,88
755,68	1206,25
755,86	1212,40
756,04	1290,22
756,22	1224,69
756,40	1269,74
756,57	1232,88
756,75	1271,79
756,93	1347,56
757,11	1273,84
757,29	1277,93
757,47	1218,54
757,65	1206,25
757,82	1230,83
758,00	1191,92
758,18	1214,45
758,36	1279,98
758,54	1245,16
758,72	1236,97
758,90	1243,12
759,07	1298,41
759,25	1325,04
759,43	1218,54
759,61	1222,64
759,79	1300,46
759,97	1259,50
760,15	1241,07
760,32	1232,88
760,50	1261,55
760,68	1339,37
760,86	1253,36
761,04	1257,45
761,22	1265,64
761,39	1288,17
761,57	1208,30
761,75	1353,71
761,93	1255,40
762,11	1230,83
762,28	1316,84
762,46	1214,45
762,64	1271,79
762,82	1312,75
763,00	1341,42
763,18	1228,78
763,35	1298,41
763,53	1265,64
763,71	1271,79
763,89	1239,02
764,07	1234,93
764,24	1279,98
764,42	1249,26
764,60	1277,93
764,78	1355,76
764,96	1245,16
765,13	1310,70
765,31	1196,01
765,49	1253,36
765,67	1304,56
765,84	1316,84
766,02	1277,93
766,20	1218,54
766,38	1218,54
766,56	1241,07
766,73	1325,04
766,91	1279,98
767,09	1173,49
767,27	1255,40
767,44	1239,02
767,62	1232,88
767,80	1271,79
767,98	1318,89
768,15	1279,98
768,33	1251,31
768,51	1292,27
768,69	1232,88
768,87	1271,79
769,04	1341,42
769,22	1300,46
769,40	1228,78
769,58	1333,23
769,75	1318,89
769,93	1345,52
770,11	1290,22
770,28	1220,59
770,46	1288,17
770,64	1275,88
770,82	1329,13
770,99	1165,29
771,17	1329,13
771,35	1312,75
771,53	1312,75
771,70	1267,69
771,88	1241,07
772,06	1329,13
772,23	1239,02
772,41	1189,87
772,59	1198,06
772,77	1236,97
772,94	1249,26
773,12	1320,94
773,30	1331,18
773,47	1222,64
773,65	1290,22
773,83	1239,02
774,01	1279,98
774,18	1243,12
774,36	1230,83
774,54	1234,93
774,71	1261,55
774,89	1230,83
775,07	1234,93
775,24	1253,36
775,42	1337,32
775,60	1275,88
775,78	1288,17
775,95	1345,52
776,13	1339,37
776,31	1228,78
776,48	1282,03
776,66	1290,22
776,84	1202,16
777,01	1308,65
777,19	1282,03
777,37	1327,08
777,54	1259,50
777,72	1306,60
777,90	1327,08
778,07	1298,41
778,25	1220,59
778,43	1265,64
778,60	1245,16
778,78	1177,58
778,96	1249,26
779,13	1261,55
779,31	1251,31
779,49	1249,26
779,66	1261,55
779,84	1232,88
780,01	1234,93
780,19	1183,73
780,37	1269,74
780,54	1243,12
780,72	1282,03
780,90	1269,74
781,07	1286,12
781,25	1232,88
781,43	1263,60
781,60	1224,69
781,78	1241,07
781,95	1277,93
782,13	1318,89
782,31	1320,94
782,48	1261,55
782,66	1220,59
782,83	1306,60
783,01	1245,16
783,19	1279,98
783,36	1341,42
783,54	1204,21
783,72	1277,93
783,89	1290,22
784,07	1263,60
784,24	1306,60
784,42	1247,21
784,60	1169,39
784,77	1247,21
784,95	1316,84
785,12	1267,69
785,30	1273,84
785,47	1300,46
785,65	1232,88
785,83	1234,93
786,00	1265,64
786,18	1322,99
786,35	1279,98
786,53	1312,75
786,71	1236,97
786,88	1294,32
787,06	1294,32
787,23	1241,07
787,41	1226,73
787,58	1220,59
787,76	1247,21
787,94	1200,11
788,11	1339,37
788,29	1253,36
788,46	1247,21
788,64	1265,64
788,81	1271,79
788,99	1259,50
789,16	1226,73
789,34	1206,25
789,52	1204,21
789,69	1247,21
789,87	1232,88
790,04	1306,60
790,22	1245,16
790,39	1331,18
790,57	1241,07
790,74	1335,28
790,92	1257,45
791,09	1275,88
791,27	1232,88
791,44	1329,13
791,62	1269,74
791,79	1282,03
791,97	1216,49
792,15	1214,45
792,32	1251,31
792,50	1236,97
792,67	1261,55
792,85	1288,17
793,02	1177,58
793,20	1325,04
793,37	1310,70
793,55	1210,35
793,72	1304,56
793,90	1257,45
794,07	1257,45
794,25	1222,64
794,42	1253,36
794,60	1222,64
794,77	1181,68
794,95	1257,45
795,12	1343,47
795,30	1259,50
795,47	1236,97
795,65	1322,99
795,82	1286,12
796,00	1226,73
796,17	1257,45
796,34	1286,12
796,52	1339,37
796,69	1220,59
796,87	1236,97
797,04	1290,22
797,22	1255,40
797,39	1298,41
797,57	1193,97
797,74	1222,64
797,92	1277,93
798,09	1302,51
798,27	1173,49
798,44	1183,73
798,62	1232,88
798,79	1239,02
798,96	1175,53
799,14	1249,26
799,31	1271,79
799,49	1230,83
799,66	1216,49
799,84	1265,64
800,01	1286,12
800,19	1251,31
800,36	1193,97
800,53	1265,64
800,71	1300,46
800,88	1247,21
801,06	1228,78
801,23	1239,02
801,41	1243,12
801,58	1224,69
801,75	1251,31
801,93	1214,45
802,10	1263,60
802,28	1294,32
802,45	1288,17
802,63	1265,64
802,80	1257,45
802,97	1210,35
803,15	1232,88
803,32	1290,22
803,50	1271,79
803,67	1363,95
803,84	1251,31
804,02	1253,36
804,19	1269,74
804,37	1314,80
804,54	1286,12
804,71	1294,32
804,89	1302,51
805,06	1277,93
805,24	1304,56
805,41	1269,74
805,58	1320,94
805,76	1314,80
805,93	1292,27
806,10	1239,02
806,28	1308,65
806,45	1286,12
806,63	1275,88
806,80	1288,17
806,97	1318,89
807,15	1273,84
807,32	1300,46
807,49	1206,25
807,67	1279,98
807,84	1298,41
808,01	1286,12
808,19	1282,03
808,36	1308,65
808,54	1374,19
808,71	1286,12
808,88	1316,84
809,06	1275,88
809,23	1304,56
809,40	1275,88
809,58	1239,02
809,75	1261,55
809,92	1304,56
810,10	1275,88
810,27	1282,03
810,44	1224,69
810,62	1259,50
810,79	1282,03
810,96	1224,69
811,14	1198,06
811,31	1292,27
811,48	1292,27
811,66	1253,36
811,83	1306,60
812,00	1191,92
812,18	1325,04
812,35	1304,56
812,52	1224,69
812,69	1212,40
812,87	1200,11
813,04	1277,93
813,21	1204,21
813,39	1249,26
813,56	1279,98
813,73	1253,36
813,91	1239,02
814,08	1245,16
814,25	1208,30
814,42	1224,69
814,60	1296,36
814,77	1329,13
814,94	1255,40
815,12	1304,56
815,29	1306,60
815,46	1243,12
815,63	1277,93
815,81	1279,98
815,98	1275,88
816,15	1331,18
816,33	1241,07
816,50	1292,27
816,67	1277,93
816,84	1304,56
817,02	1245,16
817,19	1267,69
817,36	1296,36
817,53	1212,40
817,71	1255,40
817,88	1273,84
818,05	1265,64
818,22	1228,78
818,40	1298,41
818,57	1298,41
818,74	1341,42
818,91	1222,64
819,09	1294,32
819,26	1314,80
819,43	1300,46
819,60	1273,84
819,78	1300,46
819,95	1298,41
820,12	1247,21
820,29	1255,40
820,47	1290,22
820,64	1265,64
820,81	1288,17
820,98	1241,07
821,15	1269,74
821,33	1279,98
821,50	1165,29
821,67	1355,76
821,84	1277,93
822,02	1265,64
822,19	1306,60
822,36	1294,32
822,53	1308,65
822,70	1259,50
822,88	1269,74
823,05	1269,74
823,22	1298,41
823,39	1247,21
823,56	1255,40
823,74	1224,69
823,91	1208,30
824,08	1253,36
824,25	1247,21
824,42	1282,03
824,60	1220,59
824,77	1277,93
824,94	1306,60
825,11	1263,60
825,28	1257,45
825,45	1216,49
825,63	1279,98
825,80	1198,06
825,97	1212,40
826,14	1206,25
826,31	1327,08
826,48	1290,22
826,66	1322,99
826,83	1234,93
827,00	1290,22
827,17	1265,64
827,34	1286,12
827,51	1247,21
827,69	1288,17
827,86	1249,26
828,03	1267,69
828,20	1277,93
828,37	1208,30
828,54	1241,07
828,71	1196,01
828,89	1308,65
829,06	1308,65
829,23	1220,59
829,40	1241,07
829,57	1296,36
829,74	1300,46
829,91	1210,35
830,09	1290,22
830,26	1255,40
830,43	1314,80
830,60	1290,22
830,77	1257,45
830,94	1263,60
831,11	1249,26
831,28	1294,32
831,46	1181,68
831,63	1220,59
831,80	1339,37
831,97	1279,98
832,14	1247,21
832,31	1353,71
832,48	1245,16
832,65	1304,56
832,82	1210,35
832,99	1236,97
833,17	1202,16
833,34	1220,59
833,51	1275,88
833,68	1253,36
833,85	1273,84
834,02	1314,80
834,19	1368,04
834,36	1298,41
834,53	1298,41
834,70	1277,93
834,87	1290,22
835,04	1290,22
835,22	1204,21
835,39	1304,56
835,56	1269,74
835,73	1234,93
835,90	1212,40
836,07	1228,78
836,24	1255,40
836,41	1236,97
836,58	1249,26
836,75	1257,45
836,92	1171,44
837,09	1302,51
837,26	1218,54
837,43	1259,50
837,60	1279,98
837,77	1298,41
837,94	1251,31
838,12	1259,50
838,29	1290,22
838,46	1208,30
838,63	1265,64
838,80	1263,60
838,97	1296,36
839,14	1259,50
839,31	1255,40
839,48	1286,12
839,65	1239,02
839,82	1255,40
839,99	1308,65
840,16	1269,74
840,33	1255,40
840,50	1288,17
840,67	1331,18
840,84	1322,99
841,01	1253,36
841,18	1286,12
841,35	1298,41
841,52	1259,50
841,69	1339,37
841,86	1337,32
842,03	1267,69
842,20	1224,69
842,37	1353,71
842,54	1269,74
842,71	1282,03
842,88	1273,84
843,05	1212,40
843,22	1232,88
843,39	1296,36
843,56	1306,60
843,73	1298,41
843,90	1273,84
844,07	1239,02
844,24	1263,60
844,41	1261,55
844,58	1234,93
844,75	1318,89
844,92	1245,16
845,09	1275,88
845,26	1302,51
845,43	1196,01
845,60	1279,98
845,77	1306,60
845,94	1236,97
846,10	1257,45
846,27	1243,12
846,44	1222,64
846,61	1298,41
846,78	1251,31
846,95	1306,60
847,12	1241,07
847,29	1189,87
847,46	1273,84
847,63	1282,03
847,80	1302,51
847,97	1312,75
848,14	1236,97
848,31	1241,07
848,48	1257,45
848,65	1282,03
848,82	1300,46
848,98	1296,36
849,15	1216,49
849,32	1245,16
849,49	1318,89
849,66	1230,83
849,83	1288,17
850,00	1286,12
850,17	1329,13
850,34	1245,16
850,51	1267,69
850,68	1284,08
850,85	1304,56
851,01	1161,20
851,18	1243,12
851,35	1253,36
851,52	1308,65
851,69	1296,36
851,86	1277,93
852,03	1249,26
852,20	1275,88
852,37	1277,93
852,53	1257,45
852,70	1249,26
852,87	1230,83
853,04	1224,69
853,21	1290,22
853,38	1290,22
853,55	1222,64
853,72	1286,12
853,89	1292,27
854,05	1214,45
854,22	1257,45
854,39	1263,60
854,56	1253,36
854,73	1284,08
854,90	1189,87
855,07	1259,50
855,23	1310,70
855,40	1265,64
855,57	1292,27
855,74	1282,03
855,91	1339,37
856,08	1265,64
856,25	1271,79
856,41	1306,60
856,58	1269,74
856,75	1218,54
856,92	1269,74
857,09	1257,45
857,26	1247,21
857,42	1249,26
857,59	1261,55
857,76	1251,31
857,93	1333,23
858,10	1322,99
858,27	1257,45
858,43	1277,93
858,60	1269,74
858,77	1279,98
858,94	1257,45
859,11	1230,83
859,27	1261,55
859,44	1279,98
859,61	1214,45
859,78	1257,45
859,95	1304,56
860,12	1247,21
860,28	1232,88
860,45	1220,59
860,62	1224,69
860,79	1372,14
860,95	1259,50
861,12	1259,50
861,29	1251,31
861,46	1271,79
861,63	1279,98
861,79	1298,41
861,96	1245,16
862,13	1294,32
862,30	1216,49
862,47	1271,79
862,63	1273,84
862,80	1275,88
862,97	1318,89
863,14	1310,70
863,30	1251,31
863,47	1306,60
863,64	1265,64
863,81	1322,99
863,97	1228,78
864,14	1275,88
864,31	1177,58
864,48	1288,17
864,65	1282,03
864,81	1306,60
864,98	1314,80
865,15	1249,26
865,32	1239,02
865,48	1322,99
865,65	1286,12
865,82	1232,88
865,98	1245,16
866,15	1296,36
866,32	1304,56
866,49	1259,50
866,65	1298,41
866,82	1210,35
866,99	1300,46
867,16	1146,86
867,32	1249,26
867,49	1222,64
867,66	1284,08
867,83	1220,59
867,99	1288,17
868,16	1271,79
868,33	1249,26
868,49	1226,73
868,66	1310,70
868,83	1234,93
868,99	1271,79
869,16	1257,45
869,33	1343,47
869,50	1284,08
869,66	1282,03
869,83	1300,46
870,00	1290,22
870,16	1212,40
870,33	1224,69
870,50	1339,37
870,66	1245,16
870,83	1241,07
871,00	1253,36
871,17	1282,03
871,33	1275,88
871,50	1271,79
871,67	1222,64
871,83	1253,36
872,00	1306,60
872,17	1318,89
872,33	1284,08
872,50	1292,27
872,67	1259,50
872,83	1288,17
873,00	1236,97
873,17	1261,55
873,33	1257,45
873,50	1239,02
873,67	1224,69
873,83	1255,40
874,00	1271,79
874,16	1322,99
874,33	1327,08
874,50	1232,88
874,66	1253,36
874,83	1275,88
875,00	1279,98
875,16	1277,93
875,33	1310,70
875,50	1292,27
875,66	1325,04
875,83	1232,88
875,99	1265,64
876,16	1308,65
876,33	1230,83
876,49	1273,84
876,66	1310,70
876,83	1300,46
876,99	1316,84
877,16	1245,16
877,32	1243,12
877,49	1329,13
877,66	1341,42
877,82	1277,93
877,99	1118,19
878,15	1257,45
878,32	1286,12
878,49	1241,07
878,65	1218,54
878,82	1196,01
878,98	1279,98
879,15	1294,32
879,32	1300,46
879,48	1259,50
879,65	1245,16
879,81	1253,36
879,98	1245,16
880,15	1271,79
880,31	1224,69
880,48	1269,74
880,64	1247,21
880,81	1263,60
880,97	1380,33
881,14	1206,25
881,31	1271,79
881,47	1234,93
881,64	1232,88
881,80	1263,60
881,97	1243,12
882,13	1296,36
882,30	1275,88
882,47	1261,55
882,63	1189,87
882,80	1306,60
882,96	1279,98
883,13	1224,69
883,29	1294,32
883,46	1257,45
883,62	1310,70
883,79	1239,02
883,95	1251,31
884,12	1306,60
884,29	1210,35
884,45	1220,59
884,62	1271,79
884,78	1322,99
884,95	1253,36
885,11	1294,32
885,28	1265,64
885,44	1277,93
885,61	1216,49
885,77	1255,40
885,94	1310,70
886,10	1327,08
886,27	1302,51
886,43	1259,50
886,60	1294,32
886,76	1314,80
886,93	1279,98
887,09	1257,45
887,26	1249,26
887,42	1306,60
887,59	1282,03
887,75	1370,09
887,92	1290,22
888,08	1220,59
888,25	1218,54
888,41	1296,36
888,58	1255,40
888,74	1259,50
888,91	1177,58
>>>>>End Processed Spectral Data<<<<<
