SpectraSuite Data File
++++++++++++++++++++++++++++++++++++
Date: Sun Apr 03 19:55:29 CEST 2016
User: root
Dark Spectrum Present: No
Reference Spectrum Present: No
Number of Sampled Component Spectra: 1
Spectrometers: USB4C02835
Integration Time (usec): 10000 (USB4C02835)
Spectra Averaged: 1 (USB4C02835)
Boxcar Smoothing: 0 (USB4C02835)
Correct for Electrical Dark: No (USB4C02835)
Strobe/Lamp Enabled: No (USB4C02835)
Correct for Detector Non-linearity: No (USB4C02835)
Correct for Stray Light: No (USB4C02835)
Number of Pixels in Processed Spectrum: 3648
>>>>>Begin Processed Spectral Data<<<<<
177,47	1232,88
177,69	1232,88
177,91	1232,88
178,13	1282,03
178,36	1173,49
178,58	1251,31
178,80	1316,84
179,02	1241,07
179,24	1216,49
179,46	1253,36
179,68	1308,65
179,90	1241,07
180,13	1204,21
180,35	1286,12
180,57	1304,56
180,79	1247,21
181,01	1263,60
181,23	1251,31
181,45	1300,46
181,67	1245,16
181,90	1183,73
182,12	1302,51
182,34	1273,84
182,56	1282,03
182,78	1257,45
183,00	1196,01
183,22	1277,93
183,44	1253,36
183,66	1265,64
183,89	1372,14
184,11	1255,40
184,33	1314,80
184,55	1247,21
184,77	1335,28
184,99	1263,60
185,21	1191,92
185,43	1253,36
185,65	1277,93
185,87	1298,41
186,10	1361,90
186,32	1265,64
186,54	1267,69
186,76	1314,80
186,98	1314,80
187,20	1255,40
187,42	1247,21
187,64	1241,07
187,86	1308,65
188,08	1228,78
188,30	1253,36
188,52	1298,41
188,75	1214,45
188,97	1241,07
189,19	1232,88
189,41	1302,51
189,63	1234,93
189,85	1378,28
190,07	1263,60
190,29	1286,12
190,51	1249,26
190,73	1261,55
190,95	1232,88
191,17	1284,08
191,39	1241,07
191,61	1279,98
191,84	1236,97
192,06	1249,26
192,28	1341,42
192,50	1208,30
192,72	1232,88
192,94	1253,36
193,16	1277,93
193,38	1228,78
193,60	1279,98
193,82	1263,60
194,04	1247,21
194,26	1216,49
194,48	1257,45
194,70	1247,21
194,92	1320,94
195,14	1245,16
195,36	1277,93
195,58	1286,12
195,80	1335,28
196,02	1316,84
196,24	1257,45
196,46	1306,60
196,69	1253,36
196,91	1261,55
197,13	1249,26
197,35	1279,98
197,57	1226,73
197,79	1302,51
198,01	1300,46
198,23	1292,27
198,45	1251,31
198,67	1286,12
198,89	1234,93
199,11	1265,64
199,33	1183,73
199,55	1212,40
199,77	1247,21
199,99	1271,79
200,21	1239,02
200,43	1355,76
200,65	1249,26
200,87	1337,32
201,09	1171,44
201,31	1288,17
201,53	1269,74
201,75	1363,95
201,97	1298,41
202,19	1255,40
202,41	1339,37
202,63	1314,80
202,85	1292,27
203,07	1282,03
203,29	1232,88
203,51	1282,03
203,73	1263,60
203,95	1275,88
204,17	1222,64
204,39	1304,56
204,61	1220,59
204,83	1320,94
205,05	1335,28
205,27	1214,45
205,49	1267,69
205,71	1314,80
205,93	1232,88
206,15	1265,64
206,37	1302,51
206,59	1265,64
206,81	1202,16
207,03	1236,97
207,25	1261,55
207,47	1357,80
207,69	1351,66
207,91	1310,70
208,13	1249,26
208,34	1279,98
208,56	1284,08
208,78	1304,56
209,00	1247,21
209,22	1208,30
209,44	1282,03
209,66	1171,44
209,88	1267,69
210,10	1286,12
210,32	1228,78
210,54	1290,22
210,76	1212,40
210,98	1216,49
211,20	1232,88
211,42	1308,65
211,64	1212,40
211,86	1286,12
212,08	1263,60
212,30	1298,41
212,52	1282,03
212,74	1316,84
212,96	1214,45
213,17	1345,52
213,39	1257,45
213,61	1282,03
213,83	1206,25
214,05	1282,03
214,27	1292,27
214,49	1294,32
214,71	1230,83
214,93	1286,12
215,15	1263,60
215,37	1271,79
215,59	1308,65
215,81	1208,30
216,03	1286,12
216,24	1249,26
216,46	1245,16
216,68	1290,22
216,90	1277,93
217,12	1349,61
217,34	1241,07
217,56	1288,17
217,78	1251,31
218,00	1271,79
218,22	1277,93
218,44	1206,25
218,66	1218,54
218,87	1312,75
219,09	1325,04
219,31	1277,93
219,53	1261,55
219,75	1333,23
219,97	1191,92
220,19	1282,03
220,41	1253,36
220,63	1271,79
220,85	1220,59
221,06	1222,64
221,28	1253,36
221,50	1220,59
221,72	1277,93
221,94	1267,69
222,16	1177,58
222,38	1267,69
222,60	1255,40
222,82	1255,40
223,03	1300,46
223,25	1204,21
223,47	1234,93
223,69	1232,88
223,91	1304,56
224,13	1259,50
224,35	1216,49
224,57	1255,40
224,78	1282,03
225,00	1288,17
225,22	1316,84
225,44	1271,79
225,66	1243,12
225,88	1265,64
226,10	1275,88
226,32	1316,84
226,53	1239,02
226,75	1290,22
226,97	1263,60
227,19	1312,75
227,41	1257,45
227,63	1279,98
227,85	1236,97
228,06	1302,51
228,28	1292,27
228,50	1253,36
228,72	1212,40
228,94	1257,45
229,16	1253,36
229,37	1265,64
229,59	1243,12
229,81	1390,57
230,03	1255,40
230,25	1222,64
230,47	1255,40
230,69	1357,80
230,90	1206,25
231,12	1288,17
231,34	1302,51
231,56	1312,75
231,78	1314,80
232,00	1333,23
232,21	1263,60
232,43	1206,25
232,65	1212,40
232,87	1271,79
233,09	1300,46
233,30	1245,16
233,52	1320,94
233,74	1232,88
233,96	1273,84
234,18	1232,88
234,40	1181,68
234,61	1284,08
234,83	1273,84
235,05	1306,60
235,27	1232,88
235,49	1241,07
235,70	1245,16
235,92	1286,12
236,14	1255,40
236,36	1312,75
236,58	1265,64
236,79	1353,71
237,01	1269,74
237,23	1241,07
237,45	1216,49
237,67	1226,73
237,88	1230,83
238,10	1273,84
238,32	1232,88
238,54	1208,30
238,76	1298,41
238,97	1247,21
239,19	1316,84
239,41	1269,74
239,63	1290,22
239,85	1236,97
240,06	1312,75
240,28	1218,54
240,50	1310,70
240,72	1228,78
240,93	1306,60
241,15	1255,40
241,37	1200,11
241,59	1331,18
241,81	1294,32
242,02	1294,32
242,24	1261,55
242,46	1175,53
242,68	1296,36
242,89	1284,08
243,11	1265,64
243,33	1314,80
243,55	1308,65
243,76	1294,32
243,98	1218,54
244,20	1282,03
244,42	1265,64
244,64	1345,52
244,85	1314,80
245,07	1239,02
245,29	1329,13
245,51	1255,40
245,72	1230,83
245,94	1255,40
246,16	1265,64
246,38	1239,02
246,59	1282,03
246,81	1263,60
247,03	1318,89
247,24	1236,97
247,46	1302,51
247,68	1263,60
247,90	1228,78
248,11	1214,45
248,33	1282,03
248,55	1255,40
248,77	1245,16
248,98	1294,32
249,20	1241,07
249,42	1253,36
249,64	1267,69
249,85	1269,74
250,07	1259,50
250,29	1245,16
250,50	1290,22
250,72	1279,98
250,94	1335,28
251,16	1257,45
251,37	1249,26
251,59	1243,12
251,81	1220,59
252,02	1282,03
252,24	1228,78
252,46	1279,98
252,68	1198,06
252,89	1271,79
253,11	1243,12
253,33	1249,26
253,54	1214,45
253,76	1298,41
253,98	1241,07
254,20	1310,70
254,41	1298,41
254,63	1247,21
254,85	1247,21
255,06	1310,70
255,28	1263,60
255,50	1222,64
255,71	1247,21
255,93	1298,41
256,15	1257,45
256,36	1245,16
256,58	1198,06
256,80	1243,12
257,02	1277,93
257,23	1286,12
257,45	1265,64
257,67	1249,26
257,88	1282,03
258,10	1277,93
258,32	1298,41
258,53	1312,75
258,75	1222,64
258,97	1267,69
259,18	1275,88
259,40	1282,03
259,62	1255,40
259,83	1288,17
260,05	1296,36
260,27	1257,45
260,48	1267,69
260,70	1206,25
260,92	1279,98
261,13	1275,88
261,35	1333,23
261,57	1306,60
261,78	1296,36
262,00	1275,88
262,22	1249,26
262,43	1241,07
262,65	1345,52
262,86	1327,08
263,08	1267,69
263,30	1322,99
263,51	1329,13
263,73	1286,12
263,95	1292,27
264,16	1320,94
264,38	1288,17
264,60	1261,55
264,81	1327,08
265,03	1314,80
265,25	1249,26
265,46	1175,53
265,68	1232,88
265,89	1372,14
266,11	1312,75
266,33	1249,26
266,54	1327,08
266,76	1279,98
266,98	1249,26
267,19	1267,69
267,41	1263,60
267,62	1322,99
267,84	1193,97
268,06	1239,02
268,27	1306,60
268,49	1306,60
268,70	1267,69
268,92	1329,13
269,14	1314,80
269,35	1216,49
269,57	1331,18
269,79	1251,31
270,00	1318,89
270,22	1273,84
270,43	1288,17
270,65	1239,02
270,87	1286,12
271,08	1302,51
271,30	1222,64
271,51	1265,64
271,73	1337,32
271,95	1245,16
272,16	1331,18
272,38	1288,17
272,59	1255,40
272,81	1261,55
273,02	1343,47
273,24	1312,75
273,46	1239,02
273,67	1243,12
273,89	1314,80
274,10	1300,46
274,32	1290,22
274,54	1241,07
274,75	1298,41
274,97	1239,02
275,18	1183,73
275,40	1216,49
275,61	1261,55
275,83	1273,84
276,05	1329,13
276,26	1249,26
276,48	1265,64
276,69	1290,22
276,91	1277,93
277,12	1300,46
277,34	1269,74
277,55	1298,41
277,77	1294,32
277,99	1302,51
278,20	1226,73
278,42	1234,93
278,63	1257,45
278,85	1265,64
279,06	1333,23
279,28	1296,36
279,49	1183,73
279,71	1243,12
279,93	1208,30
280,14	1345,52
280,36	1288,17
280,57	1292,27
280,79	1271,79
281,00	1239,02
281,22	1257,45
281,43	1298,41
281,65	1296,36
281,86	1273,84
282,08	1339,37
282,29	1351,66
282,51	1263,60
282,73	1298,41
282,94	1316,84
283,16	1320,94
283,37	1206,25
283,59	1204,21
283,80	1282,03
284,02	1271,79
284,23	1345,52
284,45	1273,84
284,66	1198,06
284,88	1193,97
285,09	1243,12
285,31	1247,21
285,52	1298,41
285,74	1255,40
285,95	1290,22
286,17	1333,23
286,38	1236,97
286,60	1263,60
286,81	1275,88
287,03	1249,26
287,24	1245,16
287,46	1253,36
287,67	1306,60
287,89	1234,93
288,10	1247,21
288,32	1263,60
288,53	1267,69
288,75	1271,79
288,96	1296,36
289,18	1183,73
289,39	1267,69
289,61	1222,64
289,82	1249,26
290,04	1292,27
290,25	1310,70
290,47	1273,84
290,68	1279,98
290,90	1277,93
291,11	1273,84
291,33	1312,75
291,54	1341,42
291,76	1261,55
291,97	1310,70
292,18	1273,84
292,40	1202,16
292,61	1298,41
292,83	1304,56
293,04	1271,79
293,26	1304,56
293,47	1222,64
293,69	1277,93
293,90	1224,69
294,12	1269,74
294,33	1226,73
294,55	1275,88
294,76	1273,84
294,97	1183,73
295,19	1310,70
295,40	1224,69
295,62	1302,51
295,83	1271,79
296,05	1236,97
296,26	1247,21
296,48	1212,40
296,69	1257,45
296,90	1282,03
297,12	1282,03
297,33	1263,60
297,55	1335,28
297,76	1286,12
297,98	1351,66
298,19	1247,21
298,41	1265,64
298,62	1277,93
298,83	1304,56
299,05	1288,17
299,26	1226,73
299,48	1257,45
299,69	1314,80
299,90	1253,36
300,12	1263,60
300,33	1263,60
300,55	1216,49
300,76	1265,64
300,98	1208,30
301,19	1271,79
301,40	1279,98
301,62	1290,22
301,83	1333,23
302,05	1329,13
302,26	1308,65
302,47	1193,97
302,69	1331,18
302,90	1247,21
303,12	1230,83
303,33	1263,60
303,54	1277,93
303,76	1247,21
303,97	1267,69
304,19	1224,69
304,40	1282,03
304,61	1296,36
304,83	1304,56
305,04	1228,78
305,26	1327,08
305,47	1327,08
305,68	1282,03
305,90	1325,04
306,11	1232,88
306,33	1271,79
306,54	1267,69
306,75	1269,74
306,97	1335,28
307,18	1236,97
307,39	1245,16
307,61	1288,17
307,82	1204,21
308,04	1325,04
308,25	1273,84
308,46	1224,69
308,68	1273,84
308,89	1208,30
309,10	1249,26
309,32	1216,49
309,53	1277,93
309,74	1298,41
309,96	1306,60
310,17	1306,60
310,39	1318,89
310,60	1269,74
310,81	1193,97
311,03	1279,98
311,24	1224,69
311,45	1322,99
311,67	1232,88
311,88	1206,25
312,09	1282,03
312,31	1241,07
312,52	1208,30
312,73	1288,17
312,95	1220,59
313,16	1282,03
313,37	1249,26
313,59	1150,96
313,80	1304,56
314,01	1234,93
314,23	1308,65
314,44	1318,89
314,65	1327,08
314,87	1271,79
315,08	1226,73
315,29	1230,83
315,51	1294,32
315,72	1271,79
315,93	1306,60
316,15	1308,65
316,36	1304,56
316,57	1253,36
316,79	1259,50
317,00	1263,60
317,21	1232,88
317,43	1236,97
317,64	1261,55
317,85	1224,69
318,07	1273,84
318,28	1214,45
318,49	1300,46
318,70	1183,73
318,92	1253,36
319,13	1239,02
319,34	1220,59
319,56	1253,36
319,77	1277,93
319,98	1255,40
320,20	1220,59
320,41	1265,64
320,62	1282,03
320,83	1310,70
321,05	1279,98
321,26	1288,17
321,47	1308,65
321,69	1282,03
321,90	1302,51
322,11	1298,41
322,32	1300,46
322,54	1216,49
322,75	1224,69
322,96	1290,22
323,18	1294,32
323,39	1249,26
323,60	1216,49
323,81	1261,55
324,03	1269,74
324,24	1243,12
324,45	1300,46
324,66	1226,73
324,88	1312,75
325,09	1351,66
325,30	1247,21
325,52	1277,93
325,73	1279,98
325,94	1267,69
326,15	1206,25
326,37	1200,11
326,58	1304,56
326,79	1296,36
327,00	1230,83
327,22	1286,12
327,43	1251,31
327,64	1353,71
327,85	1288,17
328,07	1208,30
328,28	1251,31
328,49	1310,70
328,70	1239,02
328,92	1282,03
329,13	1322,99
329,34	1267,69
329,55	1337,32
329,76	1294,32
329,98	1255,40
330,19	1257,45
330,40	1265,64
330,61	1282,03
330,83	1275,88
331,04	1296,36
331,25	1335,28
331,46	1198,06
331,68	1241,07
331,89	1255,40
332,10	1327,08
332,31	1218,54
332,52	1304,56
332,74	1239,02
332,95	1138,67
333,16	1298,41
333,37	1294,32
333,58	1257,45
333,80	1255,40
334,01	1275,88
334,22	1318,89
334,43	1257,45
334,64	1257,45
334,86	1255,40
335,07	1298,41
335,28	1263,60
335,49	1257,45
335,70	1290,22
335,92	1245,16
336,13	1228,78
336,34	1265,64
336,55	1257,45
336,76	1196,01
336,98	1206,25
337,19	1261,55
337,40	1277,93
337,61	1288,17
337,82	1304,56
338,04	1269,74
338,25	1282,03
338,46	1327,08
338,67	1241,07
338,88	1269,74
339,09	1277,93
339,31	1230,83
339,52	1196,01
339,73	1306,60
339,94	1312,75
340,15	1249,26
340,36	1243,12
340,58	1308,65
340,79	1290,22
341,00	1193,97
341,21	1255,40
341,42	1196,01
341,63	1232,88
341,85	1312,75
342,06	1271,79
342,27	1282,03
342,48	1380,33
342,69	1232,88
342,90	1265,64
343,12	1253,36
343,33	1279,98
343,54	1282,03
343,75	1355,76
343,96	1290,22
344,17	1282,03
344,38	1279,98
344,60	1210,35
344,81	1304,56
345,02	1239,02
345,23	1263,60
345,44	1249,26
345,65	1306,60
345,86	1271,79
346,07	1245,16
346,29	1216,49
346,50	1218,54
346,71	1255,40
346,92	1220,59
347,13	1318,89
347,34	1382,38
347,55	1279,98
347,76	1249,26
347,98	1243,12
348,19	1294,32
348,40	1320,94
348,61	1263,60
348,82	1312,75
349,03	1251,31
349,24	1224,69
349,45	1282,03
349,66	1327,08
349,88	1304,56
350,09	1292,27
350,30	1286,12
350,51	1228,78
350,72	1247,21
350,93	1277,93
351,14	1271,79
351,35	1279,98
351,56	1290,22
351,77	1257,45
351,99	1271,79
352,20	1290,22
352,41	1241,07
352,62	1208,30
352,83	1275,88
353,04	1245,16
353,25	1263,60
353,46	1226,73
353,67	1343,47
353,88	1181,68
354,09	1282,03
354,30	1271,79
354,52	1224,69
354,73	1316,84
354,94	1263,60
355,15	1243,12
355,36	1232,88
355,57	1241,07
355,78	1286,12
355,99	1261,55
356,20	1251,31
356,41	1314,80
356,62	1265,64
356,83	1253,36
357,04	1327,08
357,25	1230,83
357,46	1347,56
357,68	1292,27
357,89	1245,16
358,10	1263,60
358,31	1239,02
358,52	1255,40
358,73	1359,85
358,94	1310,70
359,15	1198,06
359,36	1294,32
359,57	1257,45
359,78	1271,79
359,99	1296,36
360,20	1247,21
360,41	1228,78
360,62	1220,59
360,83	1298,41
361,04	1267,69
361,25	1312,75
361,46	1329,13
361,67	1263,60
361,88	1271,79
362,09	1241,07
362,30	1271,79
362,51	1232,88
362,72	1234,93
362,93	1312,75
363,14	1255,40
363,35	1253,36
363,56	1251,31
363,78	1279,98
363,99	1277,93
364,20	1290,22
364,41	1331,18
364,62	1269,74
364,83	1183,73
365,04	1261,55
365,25	1230,83
365,46	1294,32
365,67	1206,25
365,88	1253,36
366,09	1232,88
366,30	1245,16
366,51	1277,93
366,72	1286,12
366,93	1329,13
367,14	1232,88
367,35	1245,16
367,56	1263,60
367,77	1366,00
367,98	1224,69
368,18	1263,60
368,39	1232,88
368,60	1232,88
368,81	1177,58
369,02	1294,32
369,23	1230,83
369,44	1292,27
369,65	1251,31
369,86	1279,98
370,07	1247,21
370,28	1263,60
370,49	1202,16
370,70	1257,45
370,91	1239,02
371,12	1251,31
371,33	1275,88
371,54	1357,80
371,75	1304,56
371,96	1320,94
372,17	1308,65
372,38	1286,12
372,59	1193,97
372,80	1251,31
373,01	1284,08
373,22	1300,46
373,43	1251,31
373,64	1292,27
373,85	1247,21
374,06	1314,80
374,26	1282,03
374,47	1245,16
374,68	1232,88
374,89	1249,26
375,10	1284,08
375,31	1353,71
375,52	1314,80
375,73	1189,87
375,94	1263,60
376,15	1255,40
376,36	1245,16
376,57	1247,21
376,78	1288,17
376,99	1222,64
377,20	1286,12
377,40	1253,36
377,61	1316,84
377,82	1294,32
378,03	1302,51
378,24	1374,19
378,45	1218,54
378,66	1245,16
378,87	1171,44
379,08	1296,36
379,29	1286,12
379,50	1253,36
379,71	1265,64
379,91	1232,88
380,12	1310,70
380,33	1255,40
380,54	1218,54
380,75	1359,85
380,96	1300,46
381,17	1216,49
381,38	1273,84
381,59	1224,69
381,80	1253,36
382,00	1310,70
382,21	1206,25
382,42	1359,85
382,63	1308,65
382,84	1261,55
383,05	1224,69
383,26	1204,21
383,47	1286,12
383,68	1279,98
383,88	1249,26
384,09	1312,75
384,30	1269,74
384,51	1265,64
384,72	1269,74
384,93	1263,60
385,14	1273,84
385,35	1241,07
385,55	1216,49
385,76	1288,17
385,97	1243,12
386,18	1226,73
386,39	1230,83
386,60	1286,12
386,81	1210,35
387,02	1292,27
387,22	1273,84
387,43	1241,07
387,64	1308,65
387,85	1267,69
388,06	1265,64
388,27	1277,93
388,48	1286,12
388,68	1226,73
388,89	1222,64
389,10	1251,31
389,31	1239,02
389,52	1286,12
389,73	1224,69
389,93	1277,93
390,14	1306,60
390,35	1206,25
390,56	1257,45
390,77	1183,73
390,98	1232,88
391,18	1339,37
391,39	1282,03
391,60	1294,32
391,81	1337,32
392,02	1275,88
392,23	1259,50
392,43	1275,88
392,64	1273,84
392,85	1243,12
393,06	1257,45
393,27	1208,30
393,47	1290,22
393,68	1239,02
393,89	1243,12
394,10	1243,12
394,31	1304,56
394,52	1302,51
394,72	1298,41
394,93	1204,21
395,14	1310,70
395,35	1279,98
395,56	1282,03
395,76	1275,88
395,97	1320,94
396,18	1335,28
396,39	1216,49
396,60	1265,64
396,80	1322,99
397,01	1263,60
397,22	1265,64
397,43	1279,98
397,64	1206,25
397,84	1286,12
398,05	1263,60
398,26	1322,99
398,47	1249,26
398,67	1298,41
398,88	1253,36
399,09	1296,36
399,30	1288,17
399,51	1271,79
399,71	1245,16
399,92	1226,73
400,13	1308,65
400,34	1279,98
400,54	1292,27
400,75	1294,32
400,96	1284,08
401,17	1296,36
401,37	1263,60
401,58	1306,60
401,79	1343,47
402,00	1253,36
402,21	1224,69
402,41	1357,80
402,62	1263,60
402,83	1279,98
403,04	1257,45
403,24	1290,22
403,45	1269,74
403,66	1308,65
403,87	1234,93
404,07	1306,60
404,28	1286,12
404,49	1224,69
404,70	1232,88
404,90	1286,12
405,11	1288,17
405,32	1286,12
405,52	1200,11
405,73	1279,98
405,94	1234,93
406,15	1257,45
406,35	1259,50
406,56	1224,69
406,77	1239,02
406,98	1279,98
407,18	1239,02
407,39	1294,32
407,60	1269,74
407,80	1218,54
408,01	1288,17
408,22	1249,26
408,43	1273,84
408,63	1279,98
408,84	1316,84
409,05	1239,02
409,25	1265,64
409,46	1259,50
409,67	1273,84
409,88	1255,40
410,08	1259,50
410,29	1265,64
410,50	1298,41
410,70	1314,80
410,91	1376,24
411,12	1265,64
411,32	1247,21
411,53	1251,31
411,74	1351,66
411,95	1288,17
412,15	1243,12
412,36	1232,88
412,57	1253,36
412,77	1329,13
412,98	1255,40
413,19	1243,12
413,39	1175,53
413,60	1294,32
413,81	1335,28
414,01	1241,07
414,22	1265,64
414,43	1239,02
414,63	1202,16
414,84	1294,32
415,05	1269,74
415,25	1279,98
415,46	1271,79
415,67	1251,31
415,87	1200,11
416,08	1312,75
416,29	1261,55
416,49	1249,26
416,70	1267,69
416,91	1282,03
417,11	1220,59
417,32	1267,69
417,53	1257,45
417,73	1284,08
417,94	1351,66
418,15	1243,12
418,35	1202,16
418,56	1308,65
418,77	1277,93
418,97	1271,79
419,18	1286,12
419,38	1249,26
419,59	1300,46
419,80	1345,52
420,00	1318,89
420,21	1273,84
420,42	1277,93
420,62	1251,31
420,83	1263,60
421,04	1275,88
421,24	1273,84
421,45	1277,93
421,65	1236,97
421,86	1349,61
422,07	1228,78
422,27	1318,89
422,48	1257,45
422,69	1337,32
422,89	1232,88
423,10	1173,49
423,30	1239,02
423,51	1249,26
423,72	1155,05
423,92	1232,88
424,13	1273,84
424,33	1288,17
424,54	1251,31
424,75	1228,78
424,95	1331,18
425,16	1241,07
425,36	1279,98
425,57	1271,79
425,78	1204,21
425,98	1290,22
426,19	1304,56
426,39	1286,12
426,60	1222,64
426,81	1296,36
427,01	1261,55
427,22	1245,16
427,42	1247,21
427,63	1255,40
427,83	1241,07
428,04	1239,02
428,25	1275,88
428,45	1306,60
428,66	1218,54
428,86	1212,40
429,07	1279,98
429,28	1259,50
429,48	1208,30
429,69	1228,78
429,89	1298,41
430,10	1263,60
430,30	1230,83
430,51	1318,89
430,71	1228,78
430,92	1298,41
431,13	1275,88
431,33	1263,60
431,54	1269,74
431,74	1318,89
431,95	1236,97
432,15	1308,65
432,36	1261,55
432,56	1269,74
432,77	1255,40
432,98	1269,74
433,18	1318,89
433,39	1243,12
433,59	1200,11
433,80	1241,07
434,00	1300,46
434,21	1269,74
434,41	1230,83
434,62	1327,08
434,82	1275,88
435,03	1286,12
435,23	1259,50
435,44	1279,98
435,64	1218,54
435,85	1228,78
436,06	1247,21
436,26	1263,60
436,47	1292,27
436,67	1214,45
436,88	1279,98
437,08	1312,75
437,29	1267,69
437,49	1253,36
437,70	1265,64
437,90	1230,83
438,11	1273,84
438,31	1279,98
438,52	1288,17
438,72	1261,55
438,93	1228,78
439,13	1200,11
439,34	1189,87
439,54	1296,36
439,75	1265,64
439,95	1306,60
440,16	1230,83
440,36	1308,65
440,57	1320,94
440,77	1294,32
440,98	1263,60
441,18	1296,36
441,39	1288,17
441,59	1288,17
441,80	1253,36
442,00	1275,88
442,21	1271,79
442,41	1292,27
442,62	1230,83
442,82	1306,60
443,02	1263,60
443,23	1259,50
443,43	1253,36
443,64	1243,12
443,84	1245,16
444,05	1251,31
444,25	1347,56
444,46	1329,13
444,66	1314,80
444,87	1339,37
445,07	1255,40
445,28	1306,60
445,48	1318,89
445,69	1300,46
445,89	1355,76
446,09	1327,08
446,30	1294,32
446,50	1282,03
446,71	1212,40
446,91	1247,21
447,12	1314,80
447,32	1312,75
447,53	1300,46
447,73	1304,56
447,93	1284,08
448,14	1325,04
448,34	1249,26
448,55	1306,60
448,75	1230,83
448,96	1251,31
449,16	1275,88
449,36	1316,84
449,57	1327,08
449,77	1257,45
449,98	1304,56
450,18	1232,88
450,39	1273,84
450,59	1294,32
450,79	1210,35
451,00	1355,76
451,20	1294,32
451,41	1368,04
451,61	1353,71
451,81	1253,36
452,02	1279,98
452,22	1265,64
452,43	1269,74
452,63	1259,50
452,84	1257,45
453,04	1320,94
453,24	1204,21
453,45	1327,08
453,65	1267,69
453,86	1312,75
454,06	1310,70
454,26	1273,84
454,47	1191,92
454,67	1202,16
454,87	1282,03
455,08	1327,08
455,28	1269,74
455,49	1214,45
455,69	1243,12
455,89	1306,60
456,10	1292,27
456,30	1304,56
456,51	1304,56
456,71	1306,60
456,91	1224,69
457,12	1249,26
457,32	1269,74
457,52	1259,50
457,73	1294,32
457,93	1255,40
458,14	1257,45
458,34	1304,56
458,54	1247,21
458,75	1261,55
458,95	1263,60
459,15	1337,32
459,36	1290,22
459,56	1263,60
459,76	1253,36
459,97	1370,09
460,17	1308,65
460,37	1318,89
460,58	1243,12
460,78	1286,12
460,99	1245,16
461,19	1243,12
461,39	1245,16
461,60	1304,56
461,80	1251,31
462,00	1325,04
462,21	1267,69
462,41	1329,13
462,61	1196,01
462,82	1290,22
463,02	1230,83
463,22	1220,59
463,43	1208,30
463,63	1257,45
463,83	1253,36
464,04	1288,17
464,24	1249,26
464,44	1230,83
464,64	1282,03
464,85	1347,56
465,05	1263,60
465,25	1224,69
465,46	1263,60
465,66	1226,73
465,86	1220,59
466,07	1206,25
466,27	1198,06
466,47	1277,93
466,68	1261,55
466,88	1337,32
467,08	1288,17
467,29	1290,22
467,49	1247,21
467,69	1318,89
467,89	1286,12
468,10	1308,65
468,30	1282,03
468,50	1267,69
468,71	1241,07
468,91	1214,45
469,11	1267,69
469,31	1265,64
469,52	1251,31
469,72	1298,41
469,92	1253,36
470,13	1304,56
470,33	1277,93
470,53	1271,79
470,73	1249,26
470,94	1255,40
471,14	1257,45
471,34	1259,50
471,54	1322,99
471,75	1277,93
471,95	1255,40
472,15	1253,36
472,36	1327,08
472,56	1271,79
472,76	1267,69
472,96	1277,93
473,17	1259,50
473,37	1345,52
473,57	1196,01
473,77	1265,64
473,98	1239,02
474,18	1241,07
474,38	1304,56
474,58	1271,79
474,79	1212,40
474,99	1271,79
475,19	1204,21
475,39	1294,32
475,60	1265,64
475,80	1247,21
476,00	1243,12
476,20	1300,46
476,41	1193,97
476,61	1251,31
476,81	1222,64
477,01	1271,79
477,21	1275,88
477,42	1234,93
477,62	1249,26
477,82	1257,45
478,02	1320,94
478,23	1294,32
478,43	1245,16
478,63	1304,56
478,83	1232,88
479,03	1292,27
479,24	1245,16
479,44	1282,03
479,64	1265,64
479,84	1275,88
480,04	1306,60
480,25	1288,17
480,45	1267,69
480,65	1294,32
480,85	1298,41
481,06	1275,88
481,26	1208,30
481,46	1249,26
481,66	1261,55
481,86	1275,88
482,06	1298,41
482,27	1294,32
482,47	1241,07
482,67	1277,93
482,87	1253,36
483,07	1325,04
483,28	1216,49
483,48	1312,75
483,68	1241,07
483,88	1294,32
484,08	1269,74
484,29	1298,41
484,49	1265,64
484,69	1222,64
484,89	1310,70
485,09	1335,28
485,29	1279,98
485,50	1331,18
485,70	1216,49
485,90	1294,32
486,10	1257,45
486,30	1296,36
486,50	1277,93
486,71	1239,02
486,91	1269,74
487,11	1286,12
487,31	1286,12
487,51	1327,08
487,71	1349,61
487,91	1249,26
488,12	1267,69
488,32	1329,13
488,52	1279,98
488,72	1320,94
488,92	1349,61
489,12	1271,79
489,32	1282,03
489,53	1279,98
489,73	1310,70
489,93	1263,60
490,13	1327,08
490,33	1314,80
490,53	1236,97
490,73	1230,83
490,94	1298,41
491,14	1284,08
491,34	1306,60
491,54	1241,07
491,74	1185,77
491,94	1304,56
492,14	1310,70
492,34	1208,30
492,54	1290,22
492,75	1247,21
492,95	1282,03
493,15	1318,89
493,35	1259,50
493,55	1308,65
493,75	1239,02
493,95	1261,55
494,15	1292,27
494,35	1265,64
494,56	1271,79
494,76	1284,08
494,96	1249,26
495,16	1222,64
495,36	1300,46
495,56	1243,12
495,76	1296,36
495,96	1290,22
496,16	1230,83
496,36	1427,43
496,56	1310,70
496,77	1222,64
496,97	1226,73
497,17	1347,56
497,37	1198,06
497,57	1312,75
497,77	1243,12
497,97	1312,75
498,17	1265,64
498,37	1314,80
498,57	1368,04
498,77	1308,65
498,97	1304,56
499,17	1370,09
499,38	1398,76
499,58	1253,36
499,78	1191,92
499,98	1243,12
500,18	1325,04
500,38	1259,50
500,58	1267,69
500,78	1239,02
500,98	1263,60
501,18	1320,94
501,38	1269,74
501,58	1232,88
501,78	1304,56
501,98	1249,26
502,18	1275,88
502,38	1265,64
502,58	1236,97
502,78	1327,08
502,98	1261,55
503,18	1325,04
503,38	1267,69
503,59	1261,55
503,79	1314,80
503,99	1296,36
504,19	1269,74
504,39	1220,59
504,59	1273,84
504,79	1271,79
504,99	1220,59
505,19	1314,80
505,39	1271,79
505,59	1282,03
505,79	1290,22
505,99	1310,70
506,19	1269,74
506,39	1288,17
506,59	1247,21
506,79	1247,21
506,99	1304,56
507,19	1187,82
507,39	1310,70
507,59	1329,13
507,79	1216,49
507,99	1255,40
508,19	1329,13
508,39	1243,12
508,59	1255,40
508,79	1312,75
508,99	1224,69
509,19	1273,84
509,39	1271,79
509,59	1271,79
509,79	1236,97
509,99	1318,89
510,19	1232,88
510,39	1263,60
510,59	1288,17
510,79	1312,75
510,99	1290,22
511,19	1394,67
511,39	1279,98
511,59	1216,49
511,79	1335,28
511,99	1353,71
512,19	1273,84
512,38	1200,11
512,58	1277,93
512,78	1247,21
512,98	1232,88
513,18	1347,56
513,38	1284,08
513,58	1263,60
513,78	1269,74
513,98	1304,56
514,18	1222,64
514,38	1273,84
514,58	1273,84
514,78	1273,84
514,98	1329,13
515,18	1286,12
515,38	1218,54
515,58	1220,59
515,78	1296,36
515,98	1193,97
516,18	1322,99
516,38	1298,41
516,57	1245,16
516,77	1339,37
516,97	1222,64
517,17	1206,25
517,37	1335,28
517,57	1286,12
517,77	1208,30
517,97	1257,45
518,17	1314,80
518,37	1275,88
518,57	1220,59
518,77	1306,60
518,97	1241,07
519,16	1279,98
519,36	1277,93
519,56	1265,64
519,76	1263,60
519,96	1279,98
520,16	1298,41
520,36	1284,08
520,56	1261,55
520,76	1329,13
520,96	1306,60
521,16	1277,93
521,35	1347,56
521,55	1241,07
521,75	1249,26
521,95	1300,46
522,15	1247,21
522,35	1333,23
522,55	1279,98
522,75	1298,41
522,95	1300,46
523,14	1224,69
523,34	1261,55
523,54	1222,64
523,74	1372,14
523,94	1306,60
524,14	1320,94
524,34	1241,07
524,54	1259,50
524,73	1300,46
524,93	1310,70
525,13	1292,27
525,33	1265,64
525,53	1230,83
525,73	1298,41
525,93	1288,17
526,13	1288,17
526,32	1298,41
526,52	1275,88
526,72	1337,32
526,92	1269,74
527,12	1191,92
527,32	1257,45
527,52	1314,80
527,71	1294,32
527,91	1331,18
528,11	1269,74
528,31	1306,60
528,51	1306,60
528,71	1230,83
528,90	1345,52
529,10	1228,78
529,30	1318,89
529,50	1296,36
529,70	1294,32
529,90	1290,22
530,09	1210,35
530,29	1230,83
530,49	1331,18
530,69	1277,93
530,89	1310,70
531,09	1298,41
531,28	1335,28
531,48	1230,83
531,68	1255,40
531,88	1236,97
532,08	1316,84
532,28	1263,60
532,47	1255,40
532,67	1320,94
532,87	1236,97
533,07	1267,69
533,27	1327,08
533,46	1357,80
533,66	1325,04
533,86	1304,56
534,06	1337,32
534,26	1290,22
534,45	1353,71
534,65	1245,16
534,85	1286,12
535,05	1298,41
535,25	1282,03
535,44	1230,83
535,64	1337,32
535,84	1325,04
536,04	1159,15
536,24	1222,64
536,43	1298,41
536,63	1298,41
536,83	1366,00
537,03	1269,74
537,22	1308,65
537,42	1243,12
537,62	1290,22
537,82	1320,94
538,02	1253,36
538,21	1298,41
538,41	1247,21
538,61	1300,46
538,81	1239,02
539,00	1239,02
539,20	1286,12
539,40	1331,18
539,60	1284,08
539,79	1249,26
539,99	1232,88
540,19	1232,88
540,39	1267,69
540,58	1304,56
540,78	1263,60
540,98	1320,94
541,18	1267,69
541,37	1267,69
541,57	1249,26
541,77	1288,17
541,97	1316,84
542,16	1275,88
542,36	1273,84
542,56	1339,37
542,76	1265,64
542,95	1296,36
543,15	1251,31
543,35	1261,55
543,54	1325,04
543,74	1308,65
543,94	1288,17
544,14	1279,98
544,33	1288,17
544,53	1329,13
544,73	1265,64
544,93	1275,88
545,12	1230,83
545,32	1200,11
545,52	1271,79
545,71	1267,69
545,91	1275,88
546,11	1251,31
546,30	1284,08
546,50	1337,32
546,70	1284,08
546,90	1394,67
547,09	1216,49
547,29	1292,27
547,49	1316,84
547,68	1271,79
547,88	1322,99
548,08	1263,60
548,27	1275,88
548,47	1259,50
548,67	1333,23
548,87	1261,55
549,06	1282,03
549,26	1228,78
549,46	1343,47
549,65	1312,75
549,85	1286,12
550,05	1204,21
550,24	1355,76
550,44	1224,69
550,64	1247,21
550,83	1273,84
551,03	1368,04
551,23	1314,80
551,42	1308,65
551,62	1327,08
551,82	1327,08
552,01	1273,84
552,21	1257,45
552,41	1282,03
552,60	1224,69
552,80	1320,94
553,00	1296,36
553,19	1261,55
553,39	1265,64
553,59	1302,51
553,78	1243,12
553,98	1312,75
554,17	1228,78
554,37	1294,32
554,57	1320,94
554,76	1337,32
554,96	1288,17
555,16	1290,22
555,35	1271,79
555,55	1189,87
555,75	1224,69
555,94	1347,56
556,14	1232,88
556,33	1351,66
556,53	1210,35
556,73	1214,45
556,92	1310,70
557,12	1257,45
557,32	1220,59
557,51	1275,88
557,71	1329,13
557,90	1212,40
558,10	1247,21
558,30	1275,88
558,49	1232,88
558,69	1253,36
558,88	1288,17
559,08	1292,27
559,28	1269,74
559,47	1228,78
559,67	1275,88
559,86	1216,49
560,06	1232,88
560,26	1253,36
560,45	1236,97
560,65	1298,41
560,84	1337,32
561,04	1261,55
561,24	1316,84
561,43	1343,47
561,63	1259,50
561,82	1251,31
562,02	1292,27
562,22	1241,07
562,41	1290,22
562,61	1261,55
562,80	1241,07
563,00	1300,46
563,19	1329,13
563,39	1271,79
563,59	1310,70
563,78	1314,80
563,98	1320,94
564,17	1263,60
564,37	1243,12
564,56	1251,31
564,76	1290,22
564,96	1269,74
565,15	1226,73
565,35	1329,13
565,54	1296,36
565,74	1275,88
565,93	1302,51
566,13	1279,98
566,32	1279,98
566,52	1245,16
566,71	1306,60
566,91	1230,83
567,11	1296,36
567,30	1288,17
567,50	1300,46
567,69	1343,47
567,89	1232,88
568,08	1265,64
568,28	1275,88
568,47	1298,41
568,67	1320,94
568,86	1230,83
569,06	1282,03
569,25	1306,60
569,45	1284,08
569,64	1277,93
569,84	1257,45
570,04	1279,98
570,23	1284,08
570,43	1239,02
570,62	1236,97
570,82	1273,84
571,01	1257,45
571,21	1263,60
571,40	1339,37
571,60	1255,40
571,79	1259,50
571,99	1318,89
572,18	1273,84
572,38	1335,28
572,57	1253,36
572,77	1249,26
572,96	1284,08
573,16	1261,55
573,35	1241,07
573,55	1288,17
573,74	1290,22
573,94	1261,55
574,13	1277,93
574,33	1294,32
574,52	1296,36
574,71	1308,65
574,91	1292,27
575,10	1304,56
575,30	1294,32
575,49	1294,32
575,69	1361,90
575,88	1290,22
576,08	1304,56
576,27	1284,08
576,47	1236,97
576,66	1230,83
576,86	1294,32
577,05	1308,65
577,25	1247,21
577,44	1261,55
577,64	1298,41
577,83	1259,50
578,02	1265,64
578,22	1318,89
578,41	1337,32
578,61	1275,88
578,80	1216,49
579,00	1271,79
579,19	1261,55
579,39	1218,54
579,58	1275,88
579,77	1368,04
579,97	1253,36
580,16	1208,30
580,36	1247,21
580,55	1230,83
580,75	1284,08
580,94	1277,93
581,13	1222,64
581,33	1306,60
581,52	1304,56
581,72	1267,69
581,91	1267,69
582,11	1253,36
582,30	1322,99
582,49	1277,93
582,69	1398,76
582,88	1189,87
583,08	1286,12
583,27	1271,79
583,47	1290,22
583,66	1331,18
583,85	1228,78
584,05	1269,74
584,24	1298,41
584,44	1290,22
584,63	1214,45
584,82	1284,08
585,02	1290,22
585,21	1288,17
585,41	1216,49
585,60	1241,07
585,79	1245,16
585,99	1273,84
586,18	1269,74
586,37	1243,12
586,57	1312,75
586,76	1308,65
586,96	1288,17
587,15	1290,22
587,34	1292,27
587,54	1241,07
587,73	1312,75
587,93	1263,60
588,12	1253,36
588,31	1277,93
588,51	1277,93
588,70	1337,32
588,89	1282,03
589,09	1290,22
589,28	1329,13
589,47	1290,22
589,67	1230,83
589,86	1361,90
590,06	1249,26
590,25	1187,82
590,44	1318,89
590,64	1359,85
590,83	1239,02
591,02	1337,32
591,22	1251,31
591,41	1290,22
591,60	1269,74
591,80	1249,26
591,99	1271,79
592,18	1370,09
592,38	1282,03
592,57	1347,56
592,76	1290,22
592,96	1322,99
593,15	1355,76
593,34	1320,94
593,54	1255,40
593,73	1284,08
593,92	1298,41
594,12	1302,51
594,31	1273,84
594,50	1224,69
594,70	1312,75
594,89	1343,47
595,08	1230,83
595,28	1292,27
595,47	1314,80
595,66	1275,88
595,86	1257,45
596,05	1316,84
596,24	1228,78
596,43	1243,12
596,63	1320,94
596,82	1247,21
597,01	1347,56
597,21	1228,78
597,40	1275,88
597,59	1314,80
597,79	1361,90
597,98	1322,99
598,17	1177,58
598,36	1294,32
598,56	1261,55
598,75	1306,60
598,94	1349,61
599,14	1257,45
599,33	1284,08
599,52	1363,95
599,71	1261,55
599,91	1292,27
600,10	1314,80
600,29	1304,56
600,48	1314,80
600,68	1314,80
600,87	1267,69
601,06	1331,18
601,26	1310,70
601,45	1282,03
601,64	1273,84
601,83	1304,56
602,03	1286,12
602,22	1320,94
602,41	1286,12
602,60	1245,16
602,80	1247,21
602,99	1304,56
603,18	1251,31
603,37	1232,88
603,57	1236,97
603,76	1226,73
603,95	1341,42
604,14	1261,55
604,34	1214,45
604,53	1282,03
604,72	1232,88
604,91	1241,07
605,10	1284,08
605,30	1286,12
605,49	1294,32
605,68	1353,71
605,87	1329,13
606,07	1325,04
606,26	1267,69
606,45	1298,41
606,64	1232,88
606,84	1239,02
607,03	1329,13
607,22	1247,21
607,41	1282,03
607,60	1241,07
607,80	1247,21
607,99	1306,60
608,18	1282,03
608,37	1282,03
608,56	1245,16
608,76	1232,88
608,95	1282,03
609,14	1226,73
609,33	1234,93
609,52	1366,00
609,72	1277,93
609,91	1277,93
610,10	1320,94
610,29	1286,12
610,48	1302,51
610,68	1361,90
610,87	1269,74
611,06	1286,12
611,25	1335,28
611,44	1236,97
611,63	1245,16
611,83	1247,21
612,02	1341,42
612,21	1298,41
612,40	1296,36
612,59	1206,25
612,79	1230,83
612,98	1286,12
613,17	1236,97
613,36	1247,21
613,55	1245,16
613,74	1339,37
613,93	1288,17
614,13	1257,45
614,32	1290,22
614,51	1310,70
614,70	1259,50
614,89	1298,41
615,08	1306,60
615,28	1314,80
615,47	1318,89
615,66	1257,45
615,85	1265,64
616,04	1284,08
616,23	1241,07
616,42	1269,74
616,62	1325,04
616,81	1269,74
617,00	1267,69
617,19	1294,32
617,38	1232,88
617,57	1290,22
617,76	1304,56
617,95	1284,08
618,15	1339,37
618,34	1290,22
618,53	1243,12
618,72	1292,27
618,91	1294,32
619,10	1290,22
619,29	1335,28
619,48	1347,56
619,68	1261,55
619,87	1312,75
620,06	1249,26
620,25	1212,40
620,44	1318,89
620,63	1282,03
620,82	1292,27
621,01	1253,36
621,20	1228,78
621,39	1255,40
621,59	1337,32
621,78	1296,36
621,97	1302,51
622,16	1351,66
622,35	1245,16
622,54	1312,75
622,73	1296,36
622,92	1284,08
623,11	1314,80
623,30	1312,75
623,49	1300,46
623,68	1251,31
623,88	1189,87
624,07	1292,27
624,26	1290,22
624,45	1337,32
624,64	1265,64
624,83	1339,37
625,02	1253,36
625,21	1290,22
625,40	1181,68
625,59	1290,22
625,78	1245,16
625,97	1273,84
626,16	1210,35
626,35	1277,93
626,54	1316,84
626,74	1288,17
626,93	1245,16
627,12	1339,37
627,31	1290,22
627,50	1327,08
627,69	1243,12
627,88	1267,69
628,07	1325,04
628,26	1212,40
628,45	1341,42
628,64	1292,27
628,83	1302,51
629,02	1212,40
629,21	1314,80
629,40	1368,04
629,59	1322,99
629,78	1310,70
629,97	1284,08
630,16	1384,43
630,35	1271,79
630,54	1271,79
630,73	1284,08
630,92	1331,18
631,11	1245,16
631,30	1345,52
631,49	1322,99
631,68	1583,08
631,87	1720,29
632,06	2072,54
632,25	1861,60
632,44	1943,52
632,63	2035,68
632,82	2205,66
633,01	3921,86
633,20	2830,29
633,39	2383,84
633,58	2478,04
633,77	3839,94
633,96	4224,96
634,15	3270,61
634,34	2566,10
634,53	2361,31
634,72	2308,06
634,91	2205,66
635,10	2084,83
635,29	2070,50
635,48	1988,58
635,67	1961,95
635,86	1912,80
636,05	1726,44
636,24	1607,66
636,43	1525,74
636,62	1386,47
636,81	1394,67
637,00	1380,33
637,19	1374,19
637,38	1376,24
637,57	1355,76
637,76	1374,19
637,95	1353,71
638,14	1359,85
638,33	1257,45
638,52	1312,75
638,71	1322,99
638,89	1185,77
639,08	1275,88
639,27	1267,69
639,46	1355,76
639,65	1322,99
639,84	1255,40
640,03	1329,13
640,22	1341,42
640,41	1288,17
640,60	1300,46
640,79	1269,74
640,98	1269,74
641,17	1282,03
641,36	1292,27
641,55	1279,98
641,74	1304,56
641,92	1214,45
642,11	1286,12
642,30	1308,65
642,49	1306,60
642,68	1277,93
642,87	1312,75
643,06	1347,56
643,25	1286,12
643,44	1290,22
643,63	1243,12
643,82	1372,14
644,00	1273,84
644,19	1261,55
644,38	1275,88
644,57	1312,75
644,76	1277,93
644,95	1230,83
645,14	1265,64
645,33	1232,88
645,52	1284,08
645,71	1243,12
645,89	1234,93
646,08	1331,18
646,27	1306,60
646,46	1327,08
646,65	1312,75
646,84	1271,79
647,03	1222,64
647,22	1263,60
647,40	1372,14
647,59	1296,36
647,78	1206,25
647,97	1312,75
648,16	1259,50
648,35	1370,09
648,54	1271,79
648,73	1263,60
648,91	1273,84
649,10	1298,41
649,29	1257,45
649,48	1337,32
649,67	1286,12
649,86	1253,36
650,05	1249,26
650,23	1265,64
650,42	1236,97
650,61	1216,49
650,80	1271,79
650,99	1351,66
651,18	1181,68
651,36	1269,74
651,55	1247,21
651,74	1216,49
651,93	1312,75
652,12	1263,60
652,31	1282,03
652,49	1279,98
652,68	1269,74
652,87	1236,97
653,06	1288,17
653,25	1277,93
653,44	1267,69
653,62	1286,12
653,81	1234,93
654,00	1273,84
654,19	1300,46
654,38	1279,98
654,56	1288,17
654,75	1230,83
654,94	1257,45
655,13	1277,93
655,32	1288,17
655,51	1296,36
655,69	1304,56
655,88	1335,28
656,07	1251,31
656,26	1226,73
656,45	1327,08
656,63	1282,03
656,82	1269,74
657,01	1304,56
657,20	1351,66
657,38	1279,98
657,57	1183,73
657,76	1232,88
657,95	1236,97
658,14	1251,31
658,32	1339,37
658,51	1277,93
658,70	1341,42
658,89	1271,79
659,08	1314,80
659,26	1339,37
659,45	1275,88
659,64	1300,46
659,83	1312,75
660,01	1267,69
660,20	1284,08
660,39	1335,28
660,58	1224,69
660,76	1339,37
660,95	1288,17
661,14	1251,31
661,33	1224,69
661,51	1247,21
661,70	1243,12
661,89	1298,41
662,08	1263,60
662,26	1327,08
662,45	1282,03
662,64	1239,02
662,83	1269,74
663,01	1236,97
663,20	1232,88
663,39	1261,55
663,58	1337,32
663,76	1263,60
663,95	1306,60
664,14	1249,26
664,32	1288,17
664,51	1255,40
664,70	1335,28
664,89	1253,36
665,07	1269,74
665,26	1271,79
665,45	1277,93
665,64	1296,36
665,82	1284,08
666,01	1284,08
666,20	1230,83
666,38	1241,07
666,57	1236,97
666,76	1320,94
666,95	1198,06
667,13	1288,17
667,32	1304,56
667,51	1236,97
667,69	1245,16
667,88	1212,40
668,07	1347,56
668,25	1318,89
668,44	1298,41
668,63	1296,36
668,81	1236,97
669,00	1275,88
669,19	1224,69
669,38	1275,88
669,56	1300,46
669,75	1335,28
669,94	1228,78
670,12	1327,08
670,31	1318,89
670,50	1230,83
670,68	1312,75
670,87	1206,25
671,06	1259,50
671,24	1318,89
671,43	1275,88
671,62	1282,03
671,80	1210,35
671,99	1243,12
672,18	1302,51
672,36	1230,83
672,55	1263,60
672,74	1288,17
672,92	1259,50
673,11	1265,64
673,29	1294,32
673,48	1296,36
673,67	1322,99
673,85	1318,89
674,04	1224,69
674,23	1241,07
674,41	1302,51
674,60	1290,22
674,79	1357,80
674,97	1255,40
675,16	1290,22
675,34	1314,80
675,53	1306,60
675,72	1296,36
675,90	1222,64
676,09	1288,17
676,28	1216,49
676,46	1234,93
676,65	1284,08
676,83	1196,01
677,02	1316,84
677,21	1255,40
677,39	1259,50
677,58	1275,88
677,77	1267,69
677,95	1253,36
678,14	1255,40
678,32	1333,23
678,51	1165,29
678,70	1249,26
678,88	1306,60
679,07	1150,96
679,25	1255,40
679,44	1249,26
679,63	1292,27
679,81	1232,88
680,00	1243,12
680,18	1290,22
680,37	1236,97
680,55	1255,40
680,74	1273,84
680,93	1298,41
681,11	1298,41
681,30	1241,07
681,48	1308,65
681,67	1189,87
681,85	1269,74
682,04	1282,03
682,23	1261,55
682,41	1320,94
682,60	1241,07
682,78	1261,55
682,97	1243,12
683,15	1335,28
683,34	1253,36
683,53	1255,40
683,71	1288,17
683,90	1368,04
684,08	1294,32
684,27	1275,88
684,45	1239,02
684,64	1300,46
684,82	1329,13
685,01	1261,55
685,19	1304,56
685,38	1366,00
685,57	1275,88
685,75	1226,73
685,94	1347,56
686,12	1241,07
686,31	1206,25
686,49	1288,17
686,68	1277,93
686,86	1279,98
687,05	1275,88
687,23	1257,45
687,42	1263,60
687,60	1286,12
687,79	1284,08
687,97	1241,07
688,16	1210,35
688,34	1224,69
688,53	1265,64
688,71	1314,80
688,90	1290,22
689,08	1265,64
689,27	1288,17
689,45	1253,36
689,64	1271,79
689,82	1232,88
690,01	1232,88
690,19	1236,97
690,38	1220,59
690,56	1370,09
690,75	1318,89
690,93	1247,21
691,12	1294,32
691,30	1243,12
691,49	1222,64
691,67	1306,60
691,86	1265,64
692,04	1265,64
692,23	1249,26
692,41	1275,88
692,60	1245,16
692,78	1288,17
692,97	1222,64
693,15	1245,16
693,34	1271,79
693,52	1241,07
693,71	1210,35
693,89	1253,36
694,08	1331,18
694,26	1239,02
694,44	1286,12
694,63	1243,12
694,81	1241,07
695,00	1282,03
695,18	1269,74
695,37	1236,97
695,55	1220,59
695,74	1257,45
695,92	1202,16
696,10	1290,22
696,29	1224,69
696,47	1243,12
696,66	1284,08
696,84	1263,60
697,03	1279,98
697,21	1282,03
697,40	1363,95
697,58	1273,84
697,76	1304,56
697,95	1310,70
698,13	1269,74
698,32	1318,89
698,50	1312,75
698,68	1253,36
698,87	1212,40
699,05	1329,13
699,24	1212,40
699,42	1267,69
699,61	1253,36
699,79	1214,45
699,97	1292,27
700,16	1279,98
700,34	1279,98
700,53	1292,27
700,71	1292,27
700,89	1284,08
701,08	1279,98
701,26	1294,32
701,45	1253,36
701,63	1333,23
701,81	1269,74
702,00	1277,93
702,18	1249,26
702,37	1241,07
702,55	1216,49
702,73	1189,87
702,92	1236,97
703,10	1298,41
703,28	1249,26
703,47	1245,16
703,65	1298,41
703,84	1318,89
704,02	1259,50
704,20	1265,64
704,39	1286,12
704,57	1263,60
704,75	1279,98
704,94	1185,77
705,12	1277,93
705,30	1243,12
705,49	1273,84
705,67	1310,70
705,86	1265,64
706,04	1320,94
706,22	1349,61
706,41	1212,40
706,59	1282,03
706,77	1351,66
706,96	1296,36
707,14	1243,12
707,32	1185,77
707,51	1292,27
707,69	1204,21
707,87	1314,80
708,06	1257,45
708,24	1218,54
708,42	1257,45
708,61	1243,12
708,79	1177,58
708,97	1361,90
709,16	1218,54
709,34	1282,03
709,52	1292,27
709,71	1275,88
709,89	1347,56
710,07	1273,84
710,26	1218,54
710,44	1228,78
710,62	1335,28
710,80	1384,43
710,99	1245,16
711,17	1261,55
711,35	1298,41
711,54	1255,40
711,72	1253,36
711,90	1220,59
712,09	1265,64
712,27	1243,12
712,45	1277,93
712,63	1347,56
712,82	1282,03
713,00	1302,51
713,18	1341,42
713,37	1267,69
713,55	1249,26
713,73	1255,40
713,91	1277,93
714,10	1306,60
714,28	1277,93
714,46	1337,32
714,65	1273,84
714,83	1259,50
715,01	1265,64
715,19	1304,56
715,38	1302,51
715,56	1302,51
715,74	1232,88
715,92	1302,51
716,11	1236,97
716,29	1386,47
716,47	1236,97
716,65	1267,69
716,84	1271,79
717,02	1255,40
717,20	1308,65
717,38	1318,89
717,57	1263,60
717,75	1191,92
717,93	1265,64
718,11	1257,45
718,30	1222,64
718,48	1284,08
718,66	1273,84
718,84	1222,64
719,03	1236,97
719,21	1279,98
719,39	1245,16
719,57	1208,30
719,75	1290,22
719,94	1322,99
720,12	1259,50
720,30	1273,84
720,48	1253,36
720,67	1275,88
720,85	1261,55
721,03	1277,93
721,21	1249,26
721,39	1312,75
721,58	1275,88
721,76	1273,84
721,94	1232,88
722,12	1257,45
722,30	1236,97
722,49	1314,80
722,67	1253,36
722,85	1294,32
723,03	1232,88
723,21	1232,88
723,40	1255,40
723,58	1337,32
723,76	1325,04
723,94	1247,21
724,12	1265,64
724,30	1275,88
724,49	1275,88
724,67	1265,64
724,85	1343,47
725,03	1347,56
725,21	1245,16
725,40	1228,78
725,58	1232,88
725,76	1339,37
725,94	1236,97
726,12	1241,07
726,30	1245,16
726,49	1320,94
726,67	1302,51
726,85	1271,79
727,03	1214,45
727,21	1308,65
727,39	1239,02
727,57	1243,12
727,76	1243,12
727,94	1286,12
728,12	1245,16
728,30	1298,41
728,48	1257,45
728,66	1327,08
728,84	1265,64
729,03	1331,18
729,21	1228,78
729,39	1249,26
729,57	1318,89
729,75	1224,69
729,93	1222,64
730,11	1263,60
730,30	1290,22
730,48	1232,88
730,66	1271,79
730,84	1253,36
731,02	1239,02
731,20	1146,86
731,38	1241,07
731,56	1253,36
731,74	1232,88
731,93	1273,84
732,11	1261,55
732,29	1265,64
732,47	1204,21
732,65	1255,40
732,83	1314,80
733,01	1132,53
733,19	1263,60
733,37	1241,07
733,56	1224,69
733,74	1257,45
733,92	1286,12
734,10	1298,41
734,28	1265,64
734,46	1263,60
734,64	1226,73
734,82	1241,07
735,00	1234,93
735,18	1257,45
735,36	1226,73
735,54	1273,84
735,73	1286,12
735,91	1347,56
736,09	1290,22
736,27	1286,12
736,45	1232,88
736,63	1322,99
736,81	1189,87
736,99	1232,88
737,17	1185,77
737,35	1239,02
737,53	1288,17
737,71	1193,97
737,89	1279,98
738,07	1325,04
738,25	1302,51
738,43	1314,80
738,61	1275,88
738,80	1216,49
738,98	1218,54
739,16	1269,74
739,34	1312,75
739,52	1279,98
739,70	1310,70
739,88	1202,16
740,06	1282,03
740,24	1228,78
740,42	1191,92
740,60	1265,64
740,78	1275,88
740,96	1306,60
741,14	1271,79
741,32	1296,36
741,50	1265,64
741,68	1302,51
741,86	1251,31
742,04	1322,99
742,22	1206,25
742,40	1302,51
742,58	1183,73
742,76	1222,64
742,94	1304,56
743,12	1228,78
743,30	1191,92
743,48	1206,25
743,66	1290,22
743,84	1247,21
744,02	1300,46
744,20	1224,69
744,38	1222,64
744,56	1216,49
744,74	1337,32
744,92	1288,17
745,10	1294,32
745,28	1345,52
745,46	1267,69
745,64	1298,41
745,82	1306,60
746,00	1304,56
746,18	1253,36
746,36	1263,60
746,54	1257,45
746,72	1222,64
746,90	1243,12
747,08	1239,02
747,26	1245,16
747,44	1255,40
747,62	1308,65
747,80	1216,49
747,98	1310,70
748,15	1255,40
748,33	1292,27
748,51	1212,40
748,69	1316,84
748,87	1216,49
749,05	1275,88
749,23	1239,02
749,41	1236,97
749,59	1288,17
749,77	1343,47
749,95	1288,17
750,13	1269,74
750,31	1259,50
750,49	1308,65
750,67	1271,79
750,85	1247,21
751,03	1241,07
751,20	1318,89
751,38	1279,98
751,56	1245,16
751,74	1212,40
751,92	1222,64
752,10	1275,88
752,28	1200,11
752,46	1308,65
752,64	1314,80
752,82	1232,88
753,00	1333,23
753,18	1189,87
753,35	1214,45
753,53	1267,69
753,71	1253,36
753,89	1322,99
754,07	1236,97
754,25	1226,73
754,43	1267,69
754,61	1202,16
754,79	1267,69
754,97	1214,45
755,14	1273,84
755,32	1316,84
755,50	1222,64
755,68	1275,88
755,86	1288,17
756,04	1392,62
756,22	1193,97
756,40	1318,89
756,57	1257,45
756,75	1255,40
756,93	1251,31
757,11	1306,60
757,29	1245,16
757,47	1347,56
757,65	1310,70
757,82	1245,16
758,00	1236,97
758,18	1290,22
758,36	1298,41
758,54	1243,12
758,72	1239,02
758,90	1296,36
759,07	1265,64
759,25	1228,78
759,43	1177,58
759,61	1267,69
759,79	1288,17
759,97	1294,32
760,15	1271,79
760,32	1202,16
760,50	1347,56
760,68	1341,42
760,86	1288,17
761,04	1296,36
761,22	1306,60
761,39	1327,08
761,57	1228,78
761,75	1224,69
761,93	1331,18
762,11	1267,69
762,28	1243,12
762,46	1273,84
762,64	1236,97
762,82	1292,27
763,00	1257,45
763,18	1329,13
763,35	1253,36
763,53	1306,60
763,71	1275,88
763,89	1261,55
764,07	1327,08
764,24	1310,70
764,42	1204,21
764,60	1327,08
764,78	1275,88
764,96	1298,41
765,13	1296,36
765,31	1304,56
765,49	1247,21
765,67	1271,79
765,84	1236,97
766,02	1224,69
766,20	1208,30
766,38	1218,54
766,56	1273,84
766,73	1286,12
766,91	1265,64
767,09	1232,88
767,27	1216,49
767,44	1331,18
767,62	1273,84
767,80	1325,04
767,98	1288,17
768,15	1290,22
768,33	1298,41
768,51	1269,74
768,69	1288,17
768,87	1259,50
769,04	1222,64
769,22	1339,37
769,40	1247,21
769,58	1322,99
769,75	1277,93
769,93	1236,97
770,11	1204,21
770,28	1269,74
770,46	1267,69
770,64	1273,84
770,82	1224,69
770,99	1171,44
771,17	1361,90
771,35	1267,69
771,53	1269,74
771,70	1263,60
771,88	1263,60
772,06	1230,83
772,23	1310,70
772,41	1232,88
772,59	1316,84
772,77	1290,22
772,94	1234,93
773,12	1228,78
773,30	1279,98
773,47	1212,40
773,65	1241,07
773,83	1249,26
774,01	1243,12
774,18	1243,12
774,36	1292,27
774,54	1282,03
774,71	1275,88
774,89	1259,50
775,07	1294,32
775,24	1292,27
775,42	1300,46
775,60	1267,69
775,78	1243,12
775,95	1230,83
776,13	1300,46
776,31	1269,74
776,48	1247,21
776,66	1163,25
776,84	1286,12
777,01	1214,45
777,19	1189,87
777,37	1304,56
777,54	1187,82
777,72	1265,64
777,90	1290,22
778,07	1308,65
778,25	1261,55
778,43	1331,18
778,60	1196,01
778,78	1255,40
778,96	1259,50
779,13	1245,16
779,31	1243,12
779,49	1337,32
779,66	1249,26
779,84	1277,93
780,01	1224,69
780,19	1220,59
780,37	1279,98
780,54	1306,60
780,72	1273,84
780,90	1349,61
781,07	1288,17
781,25	1247,21
781,43	1245,16
781,60	1284,08
781,78	1267,69
781,95	1230,83
782,13	1234,93
782,31	1351,66
782,48	1183,73
782,66	1339,37
782,83	1286,12
783,01	1286,12
783,19	1310,70
783,36	1294,32
783,54	1298,41
783,72	1249,26
783,89	1245,16
784,07	1318,89
784,24	1288,17
784,42	1261,55
784,60	1284,08
784,77	1224,69
784,95	1279,98
785,12	1300,46
785,30	1230,83
785,47	1200,11
785,65	1196,01
785,83	1308,65
786,00	1286,12
786,18	1193,97
786,35	1265,64
786,53	1271,79
786,71	1212,40
786,88	1312,75
787,06	1255,40
787,23	1269,74
787,41	1302,51
787,58	1243,12
787,76	1210,35
787,94	1257,45
788,11	1216,49
788,29	1267,69
788,46	1292,27
788,64	1208,30
788,81	1255,40
788,99	1243,12
789,16	1228,78
789,34	1271,79
789,52	1169,39
789,69	1220,59
789,87	1331,18
790,04	1243,12
790,22	1196,01
790,39	1243,12
790,57	1273,84
790,74	1314,80
790,92	1286,12
791,09	1265,64
791,27	1243,12
791,44	1269,74
791,62	1230,83
791,79	1306,60
791,97	1200,11
792,15	1271,79
792,32	1279,98
792,50	1241,07
792,67	1247,21
792,85	1265,64
793,02	1212,40
793,20	1247,21
793,37	1353,71
793,55	1279,98
793,72	1271,79
793,90	1267,69
794,07	1275,88
794,25	1314,80
794,42	1267,69
794,60	1228,78
794,77	1232,88
794,95	1241,07
795,12	1241,07
795,30	1269,74
795,47	1298,41
795,65	1292,27
795,82	1296,36
796,00	1216,49
796,17	1228,78
796,34	1255,40
796,52	1302,51
796,69	1261,55
796,87	1208,30
797,04	1275,88
797,22	1351,66
797,39	1275,88
797,57	1337,32
797,74	1282,03
797,92	1322,99
798,09	1228,78
798,27	1239,02
798,44	1232,88
798,62	1239,02
798,79	1345,52
798,96	1271,79
799,14	1261,55
799,31	1257,45
799,49	1273,84
799,66	1282,03
799,84	1286,12
800,01	1282,03
800,19	1218,54
800,36	1218,54
800,53	1294,32
800,71	1275,88
800,88	1288,17
801,06	1204,21
801,23	1261,55
801,41	1222,64
801,58	1200,11
801,75	1312,75
801,93	1292,27
802,10	1247,21
802,28	1222,64
802,45	1294,32
802,63	1304,56
802,80	1286,12
802,97	1316,84
803,15	1329,13
803,32	1257,45
803,50	1228,78
803,67	1243,12
803,84	1249,26
804,02	1236,97
804,19	1265,64
804,37	1218,54
804,54	1296,36
804,71	1204,21
804,89	1294,32
805,06	1216,49
805,24	1322,99
805,41	1255,40
805,58	1257,45
805,76	1259,50
805,93	1284,08
806,10	1187,82
806,28	1337,32
806,45	1263,60
806,63	1224,69
806,80	1273,84
806,97	1216,49
807,15	1198,06
807,32	1327,08
807,49	1300,46
807,67	1204,21
807,84	1275,88
808,01	1253,36
808,19	1300,46
808,36	1294,32
808,54	1339,37
808,71	1322,99
808,88	1245,16
809,06	1292,27
809,23	1265,64
809,40	1298,41
809,58	1263,60
809,75	1267,69
809,92	1296,36
810,10	1257,45
810,27	1251,31
810,44	1290,22
810,62	1335,28
810,79	1337,32
810,96	1316,84
811,14	1265,64
811,31	1224,69
811,48	1275,88
811,66	1253,36
811,83	1294,32
812,00	1269,74
812,18	1263,60
812,35	1263,60
812,52	1273,84
812,69	1261,55
812,87	1265,64
813,04	1167,34
813,21	1310,70
813,39	1247,21
813,56	1298,41
813,73	1275,88
813,91	1286,12
814,08	1236,97
814,25	1179,63
814,42	1345,52
814,60	1249,26
814,77	1224,69
814,94	1277,93
815,12	1273,84
815,29	1247,21
815,46	1296,36
815,63	1290,22
815,81	1247,21
815,98	1224,69
816,15	1239,02
816,33	1296,36
816,50	1269,74
816,67	1218,54
816,84	1257,45
817,02	1226,73
817,19	1279,98
817,36	1261,55
817,53	1300,46
817,71	1304,56
817,88	1288,17
818,05	1298,41
818,22	1273,84
818,40	1312,75
818,57	1275,88
818,74	1286,12
818,91	1257,45
819,09	1267,69
819,26	1267,69
819,43	1259,50
819,60	1261,55
819,78	1251,31
819,95	1339,37
820,12	1234,93
820,29	1257,45
820,47	1245,16
820,64	1228,78
820,81	1308,65
820,98	1286,12
821,15	1257,45
821,33	1239,02
821,50	1261,55
821,67	1292,27
821,84	1320,94
822,02	1279,98
822,19	1220,59
822,36	1298,41
822,53	1226,73
822,70	1249,26
822,88	1214,45
823,05	1294,32
823,22	1273,84
823,39	1267,69
823,56	1288,17
823,74	1236,97
823,91	1234,93
824,08	1257,45
824,25	1298,41
824,42	1284,08
824,60	1241,07
824,77	1331,18
824,94	1218,54
825,11	1296,36
825,28	1273,84
825,45	1282,03
825,63	1296,36
825,80	1300,46
825,97	1300,46
826,14	1286,12
826,31	1224,69
826,48	1304,56
826,66	1247,21
826,83	1206,25
827,00	1275,88
827,17	1327,08
827,34	1339,37
827,51	1284,08
827,69	1275,88
827,86	1232,88
828,03	1282,03
828,20	1228,78
828,37	1212,40
828,54	1232,88
828,71	1288,17
828,89	1345,52
829,06	1345,52
829,23	1218,54
829,40	1275,88
829,57	1239,02
829,74	1308,65
829,91	1306,60
830,09	1292,27
830,26	1245,16
830,43	1265,64
830,60	1298,41
830,77	1232,88
830,94	1249,26
831,11	1296,36
831,28	1175,53
831,46	1290,22
831,63	1187,82
831,80	1277,93
831,97	1302,51
832,14	1263,60
832,31	1220,59
832,48	1298,41
832,65	1251,31
832,82	1247,21
832,99	1279,98
833,17	1263,60
833,34	1247,21
833,51	1216,49
833,68	1257,45
833,85	1277,93
834,02	1288,17
834,19	1290,22
834,36	1232,88
834,53	1286,12
834,70	1247,21
834,87	1255,40
835,04	1255,40
835,22	1257,45
835,39	1261,55
835,56	1302,51
835,73	1259,50
835,90	1300,46
836,07	1257,45
836,24	1228,78
836,41	1222,64
836,58	1316,84
836,75	1230,83
836,92	1288,17
837,09	1288,17
837,26	1263,60
837,43	1214,45
837,60	1253,36
837,77	1296,36
837,94	1294,32
838,12	1331,18
838,29	1241,07
838,46	1296,36
838,63	1257,45
838,80	1245,16
838,97	1202,16
839,14	1224,69
839,31	1259,50
839,48	1271,79
839,65	1302,51
839,82	1224,69
839,99	1286,12
840,16	1304,56
840,33	1284,08
840,50	1316,84
840,67	1245,16
840,84	1251,31
841,01	1253,36
841,18	1234,93
841,35	1214,45
841,52	1232,88
841,69	1230,83
841,86	1167,34
842,03	1265,64
842,20	1222,64
842,37	1251,31
842,54	1259,50
842,71	1294,32
842,88	1300,46
843,05	1310,70
843,22	1292,27
843,39	1271,79
843,56	1253,36
843,73	1218,54
843,90	1261,55
844,07	1257,45
844,24	1255,40
844,41	1226,73
844,58	1206,25
844,75	1294,32
844,92	1322,99
845,09	1265,64
845,26	1239,02
845,43	1269,74
845,60	1320,94
845,77	1265,64
845,94	1277,93
846,10	1275,88
846,27	1277,93
846,44	1261,55
846,61	1241,07
846,78	1292,27
846,95	1265,64
847,12	1255,40
847,29	1267,69
847,46	1284,08
847,63	1255,40
847,80	1265,64
847,97	1271,79
848,14	1261,55
848,31	1228,78
848,48	1273,84
848,65	1318,89
848,82	1304,56
848,98	1230,83
849,15	1304,56
849,32	1282,03
849,49	1232,88
849,66	1347,56
849,83	1196,01
850,00	1271,79
850,17	1257,45
850,34	1257,45
850,51	1312,75
850,68	1206,25
850,85	1265,64
851,01	1261,55
851,18	1279,98
851,35	1236,97
851,52	1224,69
851,69	1329,13
851,86	1226,73
852,03	1261,55
852,20	1269,74
852,37	1273,84
852,53	1200,11
852,70	1331,18
852,87	1255,40
853,04	1228,78
853,21	1253,36
853,38	1275,88
853,55	1177,58
853,72	1290,22
853,89	1308,65
854,05	1341,42
854,22	1216,49
854,39	1290,22
854,56	1318,89
854,73	1214,45
854,90	1273,84
855,07	1267,69
855,23	1284,08
855,40	1257,45
855,57	1343,47
855,74	1300,46
855,91	1253,36
856,08	1277,93
856,25	1265,64
856,41	1302,51
856,58	1241,07
856,75	1255,40
856,92	1243,12
857,09	1259,50
857,26	1331,18
857,42	1255,40
857,59	1277,93
857,76	1234,93
857,93	1271,79
858,10	1294,32
858,27	1259,50
858,43	1269,74
858,60	1249,26
858,77	1257,45
858,94	1236,97
859,11	1277,93
859,27	1257,45
859,44	1200,11
859,61	1282,03
859,78	1249,26
859,95	1245,16
860,12	1310,70
860,28	1239,02
860,45	1261,55
860,62	1279,98
860,79	1282,03
860,95	1222,64
861,12	1269,74
861,29	1189,87
861,46	1316,84
861,63	1236,97
861,79	1273,84
861,96	1216,49
862,13	1239,02
862,30	1232,88
862,47	1200,11
862,63	1331,18
862,80	1277,93
862,97	1333,23
863,14	1277,93
863,30	1257,45
863,47	1245,16
863,64	1228,78
863,81	1343,47
863,97	1241,07
864,14	1288,17
864,31	1277,93
864,48	1241,07
864,65	1234,93
864,81	1259,50
864,98	1279,98
865,15	1245,16
865,32	1271,79
865,48	1312,75
865,65	1284,08
865,82	1302,51
865,98	1251,31
866,15	1279,98
866,32	1271,79
866,49	1239,02
866,65	1304,56
866,82	1230,83
866,99	1259,50
867,16	1271,79
867,32	1269,74
867,49	1267,69
867,66	1230,83
867,83	1265,64
867,99	1290,22
868,16	1306,60
868,33	1200,11
868,49	1275,88
868,66	1294,32
868,83	1308,65
868,99	1308,65
869,16	1329,13
869,33	1249,26
869,50	1251,31
869,66	1267,69
869,83	1294,32
870,00	1253,36
870,16	1249,26
870,33	1273,84
870,50	1327,08
870,66	1239,02
870,83	1226,73
871,00	1245,16
871,17	1251,31
871,33	1228,78
871,50	1230,83
871,67	1282,03
871,83	1253,36
872,00	1269,74
872,17	1333,23
872,33	1279,98
872,50	1304,56
872,67	1265,64
872,83	1294,32
873,00	1318,89
873,17	1290,22
873,33	1253,36
873,50	1261,55
873,67	1234,93
873,83	1329,13
874,00	1261,55
874,16	1267,69
874,33	1312,75
874,50	1247,21
874,66	1322,99
874,83	1218,54
875,00	1241,07
875,16	1257,45
875,33	1251,31
875,50	1271,79
875,66	1290,22
875,83	1255,40
875,99	1333,23
876,16	1249,26
876,33	1261,55
876,49	1167,34
876,66	1247,21
876,83	1277,93
876,99	1343,47
877,16	1314,80
877,32	1298,41
877,49	1239,02
877,66	1196,01
877,82	1298,41
877,99	1261,55
878,15	1296,36
878,32	1247,21
878,49	1208,30
878,65	1366,00
878,82	1302,51
878,98	1259,50
879,15	1214,45
879,32	1294,32
879,48	1304,56
879,65	1282,03
879,81	1271,79
879,98	1259,50
880,15	1251,31
880,31	1214,45
880,48	1277,93
880,64	1253,36
880,81	1234,93
880,97	1236,97
881,14	1234,93
881,31	1259,50
881,47	1333,23
881,64	1175,53
881,80	1284,08
881,97	1302,51
882,13	1273,84
882,30	1273,84
882,47	1234,93
882,63	1310,70
882,80	1257,45
882,96	1251,31
883,13	1284,08
883,29	1341,42
883,46	1275,88
883,62	1298,41
883,79	1314,80
883,95	1302,51
884,12	1241,07
884,29	1294,32
884,45	1214,45
884,62	1277,93
884,78	1279,98
884,95	1273,84
885,11	1312,75
885,28	1333,23
885,44	1216,49
885,61	1308,65
885,77	1304,56
885,94	1257,45
886,10	1347,56
886,27	1302,51
886,43	1292,27
886,60	1279,98
886,76	1251,31
886,93	1247,21
887,09	1312,75
887,26	1279,98
887,42	1314,80
887,59	1284,08
887,75	1351,66
887,92	1243,12
888,08	1226,73
888,25	1339,37
888,41	1257,45
888,58	1234,93
888,74	1257,45
888,91	1302,51
>>>>>End Processed Spectral Data<<<<<
