SpectraSuite Data File
++++++++++++++++++++++++++++++++++++
Date: Sun Apr 03 19:55:14 CEST 2016
User: root
Dark Spectrum Present: No
Reference Spectrum Present: No
Number of Sampled Component Spectra: 1
Spectrometers: USB4C02835
Integration Time (usec): 10000 (USB4C02835)
Spectra Averaged: 1 (USB4C02835)
Boxcar Smoothing: 0 (USB4C02835)
Correct for Electrical Dark: No (USB4C02835)
Strobe/Lamp Enabled: No (USB4C02835)
Correct for Detector Non-linearity: No (USB4C02835)
Correct for Stray Light: No (USB4C02835)
Number of Pixels in Processed Spectrum: 3648
>>>>>Begin Processed Spectral Data<<<<<
177,47	1179,63
177,69	1179,63
177,91	1179,63
178,13	1157,10
178,36	1306,60
178,58	1191,92
178,80	1345,52
179,02	1263,60
179,24	1282,03
179,46	1230,83
179,68	1251,31
179,90	1261,55
180,13	1216,49
180,35	1245,16
180,57	1232,88
180,79	1241,07
181,01	1234,93
181,23	1247,21
181,45	1232,88
181,67	1251,31
181,90	1304,56
182,12	1282,03
182,34	1247,21
182,56	1290,22
182,78	1198,06
183,00	1347,56
183,22	1310,70
183,44	1312,75
183,66	1306,60
183,89	1239,02
184,11	1239,02
184,33	1292,27
184,55	1247,21
184,77	1316,84
184,99	1277,93
185,21	1230,83
185,43	1220,59
185,65	1294,32
185,87	1267,69
186,10	1273,84
186,32	1181,68
186,54	1325,04
186,76	1193,97
186,98	1275,88
187,20	1257,45
187,42	1282,03
187,64	1181,68
187,86	1288,17
188,08	1286,12
188,30	1228,78
188,52	1312,75
188,75	1318,89
188,97	1282,03
189,19	1302,51
189,41	1261,55
189,63	1259,50
189,85	1191,92
190,07	1292,27
190,29	1234,93
190,51	1306,60
190,73	1298,41
190,95	1267,69
191,17	1292,27
191,39	1306,60
191,61	1259,50
191,84	1273,84
192,06	1265,64
192,28	1277,93
192,50	1337,32
192,72	1294,32
192,94	1259,50
193,16	1296,36
193,38	1290,22
193,60	1302,51
193,82	1249,26
194,04	1212,40
194,26	1263,60
194,48	1261,55
194,70	1290,22
194,92	1255,40
195,14	1421,29
195,36	1210,35
195,58	1277,93
195,80	1206,25
196,02	1316,84
196,24	1251,31
196,46	1232,88
196,69	1210,35
196,91	1329,13
197,13	1253,36
197,35	1361,90
197,57	1318,89
197,79	1251,31
198,01	1290,22
198,23	1271,79
198,45	1259,50
198,67	1292,27
198,89	1216,49
199,11	1220,59
199,33	1294,32
199,55	1263,60
199,77	1271,79
199,99	1249,26
200,21	1271,79
200,43	1216,49
200,65	1241,07
200,87	1265,64
201,09	1236,97
201,31	1224,69
201,53	1251,31
201,75	1212,40
201,97	1298,41
202,19	1220,59
202,41	1282,03
202,63	1265,64
202,85	1224,69
203,07	1302,51
203,29	1263,60
203,51	1329,13
203,73	1286,12
203,95	1255,40
204,17	1290,22
204,39	1277,93
204,61	1331,18
204,83	1255,40
205,05	1282,03
205,27	1267,69
205,49	1298,41
205,71	1243,12
205,93	1236,97
206,15	1290,22
206,37	1241,07
206,59	1312,75
206,81	1265,64
207,03	1273,84
207,25	1255,40
207,47	1265,64
207,69	1361,90
207,91	1298,41
208,13	1267,69
208,34	1226,73
208,56	1255,40
208,78	1263,60
209,00	1239,02
209,22	1196,01
209,44	1245,16
209,66	1290,22
209,88	1329,13
210,10	1210,35
210,32	1316,84
210,54	1232,88
210,76	1245,16
210,98	1284,08
211,20	1271,79
211,42	1263,60
211,64	1316,84
211,86	1282,03
212,08	1331,18
212,30	1282,03
212,52	1253,36
212,74	1331,18
212,96	1247,21
213,17	1296,36
213,39	1271,79
213,61	1259,50
213,83	1263,60
214,05	1247,21
214,27	1273,84
214,49	1261,55
214,71	1308,65
214,93	1263,60
215,15	1265,64
215,37	1247,21
215,59	1314,80
215,81	1249,26
216,03	1251,31
216,24	1230,83
216,46	1228,78
216,68	1253,36
216,90	1275,88
217,12	1290,22
217,34	1345,52
217,56	1320,94
217,78	1243,12
218,00	1241,07
218,22	1333,23
218,44	1275,88
218,66	1275,88
218,87	1306,60
219,09	1290,22
219,31	1296,36
219,53	1249,26
219,75	1173,49
219,97	1216,49
220,19	1259,50
220,41	1282,03
220,63	1279,98
220,85	1325,04
221,06	1265,64
221,28	1308,65
221,50	1249,26
221,72	1212,40
221,94	1257,45
222,16	1230,83
222,38	1239,02
222,60	1290,22
222,82	1245,16
223,03	1279,98
223,25	1288,17
223,47	1239,02
223,69	1298,41
223,91	1325,04
224,13	1263,60
224,35	1267,69
224,57	1279,98
224,78	1196,01
225,00	1198,06
225,22	1271,79
225,44	1265,64
225,66	1255,40
225,88	1245,16
226,10	1314,80
226,32	1259,50
226,53	1337,32
226,75	1245,16
226,97	1292,27
227,19	1292,27
227,41	1245,16
227,63	1265,64
227,85	1292,27
228,06	1239,02
228,28	1222,64
228,50	1263,60
228,72	1261,55
228,94	1228,78
229,16	1200,11
229,37	1267,69
229,59	1208,30
229,81	1257,45
230,03	1220,59
230,25	1302,51
230,47	1247,21
230,69	1284,08
230,90	1267,69
231,12	1206,25
231,34	1269,74
231,56	1343,47
231,78	1159,15
232,00	1279,98
232,21	1331,18
232,43	1275,88
232,65	1204,21
232,87	1298,41
233,09	1257,45
233,30	1282,03
233,52	1249,26
233,74	1249,26
233,96	1251,31
234,18	1296,36
234,40	1191,92
234,61	1247,21
234,83	1257,45
235,05	1314,80
235,27	1304,56
235,49	1234,93
235,70	1253,36
235,92	1261,55
236,14	1298,41
236,36	1255,40
236,58	1288,17
236,79	1312,75
237,01	1284,08
237,23	1214,45
237,45	1271,79
237,67	1241,07
237,88	1161,20
238,10	1320,94
238,32	1202,16
238,54	1228,78
238,76	1257,45
238,97	1282,03
239,19	1300,46
239,41	1304,56
239,63	1257,45
239,85	1284,08
240,06	1210,35
240,28	1212,40
240,50	1257,45
240,72	1228,78
240,93	1230,83
241,15	1312,75
241,37	1279,98
241,59	1224,69
241,81	1318,89
242,02	1282,03
242,24	1312,75
242,46	1241,07
242,68	1224,69
242,89	1292,27
243,11	1230,83
243,33	1183,73
243,55	1204,21
243,76	1327,08
243,98	1314,80
244,20	1267,69
244,42	1249,26
244,64	1298,41
244,85	1181,68
245,07	1329,13
245,29	1329,13
245,51	1290,22
245,72	1177,58
245,94	1286,12
246,16	1243,12
246,38	1269,74
246,59	1218,54
246,81	1216,49
247,03	1273,84
247,24	1224,69
247,46	1273,84
247,68	1241,07
247,90	1243,12
248,11	1284,08
248,33	1320,94
248,55	1200,11
248,77	1208,30
248,98	1341,42
249,20	1294,32
249,42	1216,49
249,64	1288,17
249,85	1222,64
250,07	1277,93
250,29	1306,60
250,50	1263,60
250,72	1290,22
250,94	1257,45
251,16	1314,80
251,37	1206,25
251,59	1249,26
251,81	1300,46
252,02	1228,78
252,24	1257,45
252,46	1257,45
252,68	1306,60
252,89	1263,60
253,11	1247,21
253,33	1259,50
253,54	1322,99
253,76	1245,16
253,98	1245,16
254,20	1286,12
254,41	1253,36
254,63	1263,60
254,85	1261,55
255,06	1249,26
255,28	1196,01
255,50	1320,94
255,71	1400,81
255,93	1320,94
256,15	1234,93
256,36	1265,64
256,58	1335,28
256,80	1294,32
257,02	1265,64
257,23	1269,74
257,45	1308,65
257,67	1232,88
257,88	1312,75
258,10	1216,49
258,32	1368,04
258,53	1177,58
258,75	1265,64
258,97	1265,64
259,18	1214,45
259,40	1257,45
259,62	1257,45
259,83	1282,03
260,05	1302,51
260,27	1310,70
260,48	1251,31
260,70	1286,12
260,92	1320,94
261,13	1312,75
261,35	1294,32
261,57	1286,12
261,78	1277,93
262,00	1224,69
262,22	1273,84
262,43	1282,03
262,65	1255,40
262,86	1273,84
263,08	1284,08
263,30	1306,60
263,51	1253,36
263,73	1302,51
263,95	1318,89
264,16	1236,97
264,38	1234,93
264,60	1284,08
264,81	1249,26
265,03	1296,36
265,25	1298,41
265,46	1239,02
265,68	1273,84
265,89	1230,83
266,11	1220,59
266,33	1249,26
266,54	1214,45
266,76	1308,65
266,98	1259,50
267,19	1296,36
267,41	1202,16
267,62	1279,98
267,84	1302,51
268,06	1232,88
268,27	1222,64
268,49	1366,00
268,70	1275,88
268,92	1294,32
269,14	1214,45
269,35	1245,16
269,57	1267,69
269,79	1216,49
270,00	1279,98
270,22	1187,82
270,43	1271,79
270,65	1308,65
270,87	1226,73
271,08	1261,55
271,30	1320,94
271,51	1267,69
271,73	1279,98
271,95	1277,93
272,16	1257,45
272,38	1261,55
272,59	1234,93
272,81	1232,88
273,02	1290,22
273,24	1234,93
273,46	1204,21
273,67	1259,50
273,89	1218,54
274,10	1388,52
274,32	1329,13
274,54	1247,21
274,75	1224,69
274,97	1253,36
275,18	1265,64
275,40	1261,55
275,61	1269,74
275,83	1302,51
276,05	1282,03
276,26	1236,97
276,48	1243,12
276,69	1220,59
276,91	1345,52
277,12	1234,93
277,34	1224,69
277,55	1220,59
277,77	1255,40
277,99	1243,12
278,20	1341,42
278,42	1271,79
278,63	1273,84
278,85	1226,73
279,06	1245,16
279,28	1271,79
279,49	1241,07
279,71	1279,98
279,93	1265,64
280,14	1249,26
280,36	1257,45
280,57	1247,21
280,79	1265,64
281,00	1263,60
281,22	1255,40
281,43	1220,59
281,65	1304,56
281,86	1247,21
282,08	1273,84
282,29	1288,17
282,51	1253,36
282,73	1249,26
282,94	1257,45
283,16	1294,32
283,37	1292,27
283,59	1286,12
283,80	1265,64
284,02	1298,41
284,23	1331,18
284,45	1253,36
284,66	1294,32
284,88	1234,93
285,09	1277,93
285,31	1320,94
285,52	1339,37
285,74	1277,93
285,95	1339,37
286,17	1331,18
286,38	1279,98
286,60	1333,23
286,81	1247,21
287,03	1247,21
287,24	1271,79
287,46	1316,84
287,67	1275,88
287,89	1269,74
288,10	1216,49
288,32	1265,64
288,53	1306,60
288,75	1277,93
288,96	1232,88
289,18	1282,03
289,39	1302,51
289,61	1302,51
289,82	1232,88
290,04	1255,40
290,25	1310,70
290,47	1259,50
290,68	1210,35
290,90	1335,28
291,11	1265,64
291,33	1271,79
291,54	1228,78
291,76	1222,64
291,97	1284,08
292,18	1271,79
292,40	1320,94
292,61	1220,59
292,83	1353,71
293,04	1275,88
293,26	1239,02
293,47	1230,83
293,69	1228,78
293,90	1277,93
294,12	1275,88
294,33	1304,56
294,55	1255,40
294,76	1314,80
294,97	1316,84
295,19	1271,79
295,40	1314,80
295,62	1239,02
295,83	1261,55
296,05	1230,83
296,26	1282,03
296,48	1226,73
296,69	1312,75
296,90	1329,13
297,12	1218,54
297,33	1247,21
297,55	1284,08
297,76	1247,21
297,98	1269,74
298,19	1288,17
298,41	1155,05
298,62	1290,22
298,83	1210,35
299,05	1200,11
299,26	1253,36
299,48	1236,97
299,69	1310,70
299,90	1214,45
300,12	1255,40
300,33	1314,80
300,55	1216,49
300,76	1296,36
300,98	1230,83
301,19	1310,70
301,40	1304,56
301,62	1273,84
301,83	1269,74
302,05	1302,51
302,26	1265,64
302,47	1271,79
302,69	1304,56
302,90	1306,60
303,12	1243,12
303,33	1277,93
303,54	1333,23
303,76	1269,74
303,97	1255,40
304,19	1306,60
304,40	1294,32
304,61	1261,55
304,83	1275,88
305,04	1271,79
305,26	1239,02
305,47	1282,03
305,68	1265,64
305,90	1241,07
306,11	1253,36
306,33	1206,25
306,54	1331,18
306,75	1257,45
306,97	1243,12
307,18	1273,84
307,39	1239,02
307,61	1263,60
307,82	1243,12
308,04	1314,80
308,25	1292,27
308,46	1304,56
308,68	1359,85
308,89	1236,97
309,10	1339,37
309,32	1359,85
309,53	1243,12
309,74	1282,03
309,96	1343,47
310,17	1378,28
310,39	1298,41
310,60	1222,64
310,81	1198,06
311,03	1202,16
311,24	1298,41
311,45	1314,80
311,67	1261,55
311,88	1216,49
312,09	1282,03
312,31	1251,31
312,52	1273,84
312,73	1265,64
312,95	1200,11
313,16	1298,41
313,37	1257,45
313,59	1284,08
313,80	1193,97
314,01	1247,21
314,23	1273,84
314,44	1196,01
314,65	1269,74
314,87	1286,12
315,08	1320,94
315,29	1275,88
315,51	1232,88
315,72	1286,12
315,93	1257,45
316,15	1306,60
316,36	1298,41
316,57	1331,18
316,79	1236,97
317,00	1282,03
317,21	1275,88
317,43	1241,07
317,64	1224,69
317,85	1292,27
318,07	1228,78
318,28	1282,03
318,49	1247,21
318,70	1259,50
318,92	1259,50
319,13	1218,54
319,34	1314,80
319,56	1286,12
319,77	1320,94
319,98	1226,73
320,20	1273,84
320,41	1236,97
320,62	1341,42
320,83	1224,69
321,05	1294,32
321,26	1269,74
321,47	1257,45
321,69	1284,08
321,90	1322,99
322,11	1279,98
322,32	1212,40
322,54	1294,32
322,75	1277,93
322,96	1263,60
323,18	1271,79
323,39	1286,12
323,60	1187,82
323,81	1351,66
324,03	1224,69
324,24	1249,26
324,45	1243,12
324,66	1279,98
324,88	1286,12
325,09	1306,60
325,30	1228,78
325,52	1212,40
325,73	1232,88
325,94	1263,60
326,15	1234,93
326,37	1286,12
326,58	1210,35
326,79	1312,75
327,00	1187,82
327,22	1193,97
327,43	1230,83
327,64	1245,16
327,85	1288,17
328,07	1298,41
328,28	1286,12
328,49	1183,73
328,70	1288,17
328,92	1206,25
329,13	1304,56
329,34	1304,56
329,55	1277,93
329,76	1378,28
329,98	1335,28
330,19	1277,93
330,40	1232,88
330,61	1294,32
330,83	1187,82
331,04	1255,40
331,25	1314,80
331,46	1277,93
331,68	1271,79
331,89	1255,40
332,10	1196,01
332,31	1284,08
332,52	1218,54
332,74	1232,88
332,95	1284,08
333,16	1290,22
333,37	1202,16
333,58	1265,64
333,80	1230,83
334,01	1148,91
334,22	1320,94
334,43	1249,26
334,64	1288,17
334,86	1286,12
335,07	1249,26
335,28	1236,97
335,49	1284,08
335,70	1320,94
335,92	1251,31
336,13	1234,93
336,34	1226,73
336,55	1230,83
336,76	1277,93
336,98	1292,27
337,19	1271,79
337,40	1329,13
337,61	1234,93
337,82	1230,83
338,04	1261,55
338,25	1239,02
338,46	1236,97
338,67	1212,40
338,88	1273,84
339,09	1277,93
339,31	1263,60
339,52	1259,50
339,73	1257,45
339,94	1263,60
340,15	1239,02
340,36	1288,17
340,58	1279,98
340,79	1171,44
341,00	1230,83
341,21	1398,76
341,42	1284,08
341,63	1208,30
341,85	1265,64
342,06	1298,41
342,27	1290,22
342,48	1296,36
342,69	1275,88
342,90	1236,97
343,12	1339,37
343,33	1302,51
343,54	1316,84
343,75	1263,60
343,96	1257,45
344,17	1247,21
344,38	1218,54
344,60	1259,50
344,81	1259,50
345,02	1206,25
345,23	1318,89
345,44	1345,52
345,65	1247,21
345,86	1314,80
346,07	1218,54
346,29	1204,21
346,50	1335,28
346,71	1320,94
346,92	1243,12
347,13	1232,88
347,34	1265,64
347,55	1286,12
347,76	1273,84
347,98	1228,78
348,19	1312,75
348,40	1339,37
348,61	1218,54
348,82	1271,79
349,03	1251,31
349,24	1286,12
349,45	1290,22
349,66	1183,73
349,88	1302,51
350,09	1306,60
350,30	1335,28
350,51	1249,26
350,72	1300,46
350,93	1241,07
351,14	1273,84
351,35	1290,22
351,56	1224,69
351,77	1275,88
351,99	1243,12
352,20	1202,16
352,41	1294,32
352,62	1230,83
352,83	1308,65
353,04	1265,64
353,25	1361,90
353,46	1277,93
353,67	1322,99
353,88	1263,60
354,09	1310,70
354,30	1320,94
354,52	1374,19
354,73	1236,97
354,94	1234,93
355,15	1236,97
355,36	1337,32
355,57	1210,35
355,78	1263,60
355,99	1257,45
356,20	1247,21
356,41	1226,73
356,62	1249,26
356,83	1284,08
357,04	1245,16
357,25	1292,27
357,46	1263,60
357,68	1255,40
357,89	1271,79
358,10	1322,99
358,31	1249,26
358,52	1232,88
358,73	1290,22
358,94	1339,37
359,15	1208,30
359,36	1230,83
359,57	1245,16
359,78	1257,45
359,99	1245,16
360,20	1314,80
360,41	1228,78
360,62	1298,41
360,83	1228,78
361,04	1261,55
361,25	1247,21
361,46	1271,79
361,67	1304,56
361,88	1261,55
362,09	1265,64
362,30	1255,40
362,51	1277,93
362,72	1282,03
362,93	1312,75
363,14	1251,31
363,35	1257,45
363,56	1271,79
363,78	1261,55
363,99	1263,60
364,20	1271,79
364,41	1273,84
364,62	1224,69
364,83	1269,74
365,04	1179,63
365,25	1251,31
365,46	1279,98
365,67	1222,64
365,88	1228,78
366,09	1296,36
366,30	1304,56
366,51	1267,69
366,72	1239,02
366,93	1253,36
367,14	1245,16
367,35	1304,56
367,56	1269,74
367,77	1304,56
367,98	1247,21
368,18	1310,70
368,39	1253,36
368,60	1296,36
368,81	1368,04
369,02	1191,92
369,23	1236,97
369,44	1314,80
369,65	1292,27
369,86	1327,08
370,07	1236,97
370,28	1265,64
370,49	1241,07
370,70	1263,60
370,91	1191,92
371,12	1282,03
371,33	1304,56
371,54	1193,97
371,75	1302,51
371,96	1290,22
372,17	1271,79
372,38	1279,98
372,59	1290,22
372,80	1220,59
373,01	1275,88
373,22	1249,26
373,43	1265,64
373,64	1269,74
373,85	1269,74
374,06	1228,78
374,26	1292,27
374,47	1275,88
374,68	1226,73
374,89	1284,08
375,10	1304,56
375,31	1275,88
375,52	1230,83
375,73	1298,41
375,94	1189,87
376,15	1271,79
376,36	1239,02
376,57	1284,08
376,78	1263,60
376,99	1214,45
377,20	1339,37
377,40	1329,13
377,61	1290,22
377,82	1249,26
378,03	1228,78
378,24	1284,08
378,45	1282,03
378,66	1230,83
378,87	1247,21
379,08	1292,27
379,29	1335,28
379,50	1271,79
379,71	1239,02
379,91	1249,26
380,12	1271,79
380,33	1320,94
380,54	1224,69
380,75	1267,69
380,96	1310,70
381,17	1224,69
381,38	1241,07
381,59	1243,12
381,80	1284,08
382,00	1318,89
382,21	1259,50
382,42	1245,16
382,63	1269,74
382,84	1265,64
383,05	1202,16
383,26	1228,78
383,47	1331,18
383,68	1271,79
383,88	1208,30
384,09	1232,88
384,30	1304,56
384,51	1249,26
384,72	1249,26
384,93	1271,79
385,14	1216,49
385,35	1273,84
385,55	1204,21
385,76	1271,79
385,97	1308,65
386,18	1210,35
386,39	1253,36
386,60	1247,21
386,81	1245,16
387,02	1241,07
387,22	1261,55
387,43	1263,60
387,64	1208,30
387,85	1241,07
388,06	1228,78
388,27	1232,88
388,48	1331,18
388,68	1288,17
388,89	1208,30
389,10	1234,93
389,31	1226,73
389,52	1271,79
389,73	1267,69
389,93	1288,17
390,14	1333,23
390,35	1298,41
390,56	1306,60
390,77	1304,56
390,98	1263,60
391,18	1288,17
391,39	1255,40
391,60	1337,32
391,81	1259,50
392,02	1228,78
392,23	1228,78
392,43	1277,93
392,64	1245,16
392,85	1275,88
393,06	1255,40
393,27	1226,73
393,47	1312,75
393,68	1206,25
393,89	1273,84
394,10	1279,98
394,31	1265,64
394,52	1296,36
394,72	1243,12
394,93	1282,03
395,14	1210,35
395,35	1273,84
395,56	1255,40
395,76	1308,65
395,97	1290,22
396,18	1306,60
396,39	1232,88
396,60	1282,03
396,80	1288,17
397,01	1284,08
397,22	1277,93
397,43	1255,40
397,64	1236,97
397,84	1259,50
398,05	1234,93
398,26	1284,08
398,47	1290,22
398,67	1265,64
398,88	1193,97
399,09	1286,12
399,30	1208,30
399,51	1173,49
399,71	1245,16
399,92	1232,88
400,13	1216,49
400,34	1198,06
400,54	1265,64
400,75	1243,12
400,96	1271,79
401,17	1261,55
401,37	1243,12
401,58	1263,60
401,79	1277,93
402,00	1300,46
402,21	1265,64
402,41	1290,22
402,62	1267,69
402,83	1339,37
403,04	1288,17
403,24	1302,51
403,45	1255,40
403,66	1198,06
403,87	1265,64
404,07	1216,49
404,28	1284,08
404,49	1308,65
404,70	1331,18
404,90	1275,88
405,11	1267,69
405,32	1333,23
405,52	1316,84
405,73	1269,74
405,94	1279,98
406,15	1230,83
406,35	1216,49
406,56	1239,02
406,77	1314,80
406,98	1210,35
407,18	1257,45
407,39	1263,60
407,60	1294,32
407,80	1265,64
408,01	1286,12
408,22	1241,07
408,43	1255,40
408,63	1294,32
408,84	1310,70
409,05	1267,69
409,25	1275,88
409,46	1275,88
409,67	1251,31
409,88	1257,45
410,08	1286,12
410,29	1247,21
410,50	1279,98
410,70	1271,79
410,91	1236,97
411,12	1251,31
411,32	1198,06
411,53	1216,49
411,74	1302,51
411,95	1206,25
412,15	1316,84
412,36	1253,36
412,57	1304,56
412,77	1261,55
412,98	1263,60
413,19	1292,27
413,39	1222,64
413,60	1284,08
413,81	1290,22
414,01	1331,18
414,22	1239,02
414,43	1300,46
414,63	1282,03
414,84	1247,21
415,05	1239,02
415,25	1300,46
415,46	1245,16
415,67	1214,45
415,87	1232,88
416,08	1320,94
416,29	1300,46
416,49	1210,35
416,70	1193,97
416,91	1275,88
417,11	1284,08
417,32	1245,16
417,53	1290,22
417,73	1239,02
417,94	1271,79
418,15	1318,89
418,35	1296,36
418,56	1314,80
418,77	1216,49
418,97	1294,32
419,18	1226,73
419,38	1279,98
419,59	1269,74
419,80	1300,46
420,00	1279,98
420,21	1228,78
420,42	1310,70
420,62	1275,88
420,83	1275,88
421,04	1245,16
421,24	1253,36
421,45	1214,45
421,65	1259,50
421,86	1279,98
422,07	1304,56
422,27	1261,55
422,48	1232,88
422,69	1234,93
422,89	1253,36
423,10	1288,17
423,30	1187,82
423,51	1241,07
423,72	1173,49
423,92	1226,73
424,13	1300,46
424,33	1298,41
424,54	1239,02
424,75	1232,88
424,95	1267,69
425,16	1239,02
425,36	1247,21
425,57	1282,03
425,78	1300,46
425,98	1322,99
426,19	1245,16
426,39	1218,54
426,60	1339,37
426,81	1222,64
427,01	1282,03
427,22	1265,64
427,42	1196,01
427,63	1273,84
427,83	1279,98
428,04	1294,32
428,25	1259,50
428,45	1320,94
428,66	1191,92
428,86	1279,98
429,07	1212,40
429,28	1261,55
429,48	1331,18
429,69	1290,22
429,89	1241,07
430,10	1265,64
430,30	1239,02
430,51	1298,41
430,71	1300,46
430,92	1236,97
431,13	1251,31
431,33	1322,99
431,54	1198,06
431,74	1286,12
431,95	1304,56
432,15	1226,73
432,36	1275,88
432,56	1224,69
432,77	1224,69
432,98	1277,93
433,18	1310,70
433,39	1306,60
433,59	1230,83
433,80	1300,46
434,00	1374,19
434,21	1322,99
434,41	1275,88
434,62	1331,18
434,82	1271,79
435,03	1322,99
435,23	1333,23
435,44	1179,63
435,64	1263,60
435,85	1191,92
436,06	1251,31
436,26	1298,41
436,47	1269,74
436,67	1249,26
436,88	1290,22
437,08	1259,50
437,29	1259,50
437,49	1320,94
437,70	1232,88
437,90	1214,45
438,11	1320,94
438,31	1300,46
438,52	1236,97
438,72	1228,78
438,93	1257,45
439,13	1249,26
439,34	1282,03
439,54	1208,30
439,75	1288,17
439,95	1269,74
440,16	1282,03
440,36	1275,88
440,57	1275,88
440,77	1255,40
440,98	1243,12
441,18	1308,65
441,39	1284,08
441,59	1325,04
441,80	1380,33
442,00	1257,45
442,21	1296,36
442,41	1294,32
442,62	1298,41
442,82	1261,55
443,02	1298,41
443,23	1353,71
443,43	1241,07
443,64	1263,60
443,84	1294,32
444,05	1331,18
444,25	1384,43
444,46	1308,65
444,66	1228,78
444,87	1331,18
445,07	1251,31
445,28	1329,13
445,48	1312,75
445,69	1294,32
445,89	1349,61
446,09	1290,22
446,30	1226,73
446,50	1314,80
446,71	1284,08
446,91	1327,08
447,12	1224,69
447,32	1290,22
447,53	1306,60
447,73	1273,84
447,93	1224,69
448,14	1284,08
448,34	1329,13
448,55	1279,98
448,75	1239,02
448,96	1302,51
449,16	1222,64
449,36	1257,45
449,57	1239,02
449,77	1304,56
449,98	1179,63
450,18	1220,59
450,39	1361,90
450,59	1243,12
450,79	1269,74
451,00	1314,80
451,20	1257,45
451,41	1337,32
451,61	1247,21
451,81	1216,49
452,02	1263,60
452,22	1302,51
452,43	1349,61
452,63	1316,84
452,84	1290,22
453,04	1243,12
453,24	1290,22
453,45	1265,64
453,65	1279,98
453,86	1282,03
454,06	1247,21
454,26	1304,56
454,47	1275,88
454,67	1312,75
454,87	1302,51
455,08	1257,45
455,28	1290,22
455,49	1329,13
455,69	1306,60
455,89	1259,50
456,10	1302,51
456,30	1290,22
456,51	1286,12
456,71	1265,64
456,91	1255,40
457,12	1288,17
457,32	1263,60
457,52	1259,50
457,73	1193,97
457,93	1282,03
458,14	1298,41
458,34	1277,93
458,54	1273,84
458,75	1282,03
458,95	1220,59
459,15	1284,08
459,36	1239,02
459,56	1292,27
459,76	1322,99
459,97	1353,71
460,17	1275,88
460,37	1232,88
460,58	1249,26
460,78	1320,94
460,99	1239,02
461,19	1230,83
461,39	1306,60
461,60	1259,50
461,80	1265,64
462,00	1277,93
462,21	1318,89
462,41	1226,73
462,61	1253,36
462,82	1353,71
463,02	1208,30
463,22	1230,83
463,43	1273,84
463,63	1267,69
463,83	1269,74
464,04	1265,64
464,24	1314,80
464,44	1255,40
464,64	1310,70
464,85	1273,84
465,05	1196,01
465,25	1257,45
465,46	1320,94
465,66	1279,98
465,86	1312,75
466,07	1265,64
466,27	1212,40
466,47	1345,52
466,68	1220,59
466,88	1306,60
467,08	1251,31
467,29	1224,69
467,49	1279,98
467,69	1261,55
467,89	1290,22
468,10	1214,45
468,30	1255,40
468,50	1288,17
468,71	1241,07
468,91	1290,22
469,11	1273,84
469,31	1284,08
469,52	1339,37
469,72	1306,60
469,92	1290,22
470,13	1282,03
470,33	1206,25
470,53	1304,56
470,73	1333,23
470,94	1275,88
471,14	1345,52
471,34	1282,03
471,54	1202,16
471,75	1290,22
471,95	1290,22
472,15	1255,40
472,36	1275,88
472,56	1292,27
472,76	1273,84
472,96	1251,31
473,17	1224,69
473,37	1337,32
473,57	1239,02
473,77	1312,75
473,98	1312,75
474,18	1282,03
474,38	1386,47
474,58	1245,16
474,79	1216,49
474,99	1351,66
475,19	1269,74
475,39	1286,12
475,60	1290,22
475,80	1257,45
476,00	1331,18
476,20	1206,25
476,41	1322,99
476,61	1298,41
476,81	1329,13
477,01	1286,12
477,21	1226,73
477,42	1296,36
477,62	1239,02
477,82	1271,79
478,02	1214,45
478,23	1327,08
478,43	1228,78
478,63	1185,77
478,83	1308,65
479,03	1304,56
479,24	1247,21
479,44	1300,46
479,64	1304,56
479,84	1304,56
480,04	1296,36
480,25	1298,41
480,45	1302,51
480,65	1333,23
480,85	1327,08
481,06	1239,02
481,26	1271,79
481,46	1335,28
481,66	1263,60
481,86	1282,03
482,06	1251,31
482,27	1208,30
482,47	1341,42
482,67	1255,40
482,87	1253,36
483,07	1322,99
483,28	1263,60
483,48	1306,60
483,68	1275,88
483,88	1288,17
484,08	1222,64
484,29	1290,22
484,49	1290,22
484,69	1275,88
484,89	1275,88
485,09	1359,85
485,29	1325,04
485,50	1284,08
485,70	1265,64
485,90	1279,98
486,10	1259,50
486,30	1183,73
486,50	1259,50
486,71	1216,49
486,91	1267,69
487,11	1228,78
487,31	1146,86
487,51	1306,60
487,71	1282,03
487,91	1306,60
488,12	1279,98
488,32	1292,27
488,52	1265,64
488,72	1275,88
488,92	1243,12
489,12	1316,84
489,32	1411,05
489,53	1290,22
489,73	1253,36
489,93	1265,64
490,13	1255,40
490,33	1277,93
490,53	1298,41
490,73	1277,93
490,94	1282,03
491,14	1230,83
491,34	1296,36
491,54	1255,40
491,74	1179,63
491,94	1308,65
492,14	1261,55
492,34	1306,60
492,54	1273,84
492,75	1263,60
492,95	1214,45
493,15	1222,64
493,35	1216,49
493,55	1236,97
493,75	1296,36
493,95	1220,59
494,15	1269,74
494,35	1210,35
494,56	1275,88
494,76	1275,88
494,96	1259,50
495,16	1275,88
495,36	1212,40
495,56	1327,08
495,76	1298,41
495,96	1294,32
496,16	1226,73
496,36	1392,62
496,56	1318,89
496,77	1251,31
496,97	1232,88
497,17	1282,03
497,37	1245,16
497,57	1269,74
497,77	1204,21
497,97	1343,47
498,17	1316,84
498,37	1314,80
498,57	1247,21
498,77	1179,63
498,97	1273,84
499,17	1259,50
499,38	1277,93
499,58	1208,30
499,78	1337,32
499,98	1275,88
500,18	1257,45
500,38	1302,51
500,58	1306,60
500,78	1363,95
500,98	1298,41
501,18	1320,94
501,38	1255,40
501,58	1316,84
501,78	1253,36
501,98	1245,16
502,18	1253,36
502,38	1306,60
502,58	1327,08
502,78	1255,40
502,98	1288,17
503,18	1300,46
503,38	1302,51
503,59	1275,88
503,79	1269,74
503,99	1273,84
504,19	1216,49
504,39	1310,70
504,59	1290,22
504,79	1300,46
504,99	1341,42
505,19	1261,55
505,39	1314,80
505,59	1216,49
505,79	1175,53
505,99	1322,99
506,19	1212,40
506,39	1247,21
506,59	1288,17
506,79	1300,46
506,99	1296,36
507,19	1226,73
507,39	1322,99
507,59	1296,36
507,79	1257,45
507,99	1298,41
508,19	1218,54
508,39	1267,69
508,59	1314,80
508,79	1212,40
508,99	1282,03
509,19	1230,83
509,39	1249,26
509,59	1189,87
509,79	1290,22
509,99	1294,32
510,19	1292,27
510,39	1347,56
510,59	1220,59
510,79	1298,41
510,99	1212,40
511,19	1234,93
511,39	1222,64
511,59	1347,56
511,79	1218,54
511,99	1265,64
512,19	1322,99
512,38	1312,75
512,58	1273,84
512,78	1243,12
512,98	1247,21
513,18	1271,79
513,38	1314,80
513,58	1306,60
513,78	1224,69
513,98	1292,27
514,18	1286,12
514,38	1271,79
514,58	1322,99
514,78	1263,60
514,98	1355,76
515,18	1232,88
515,38	1300,46
515,58	1263,60
515,78	1259,50
515,98	1306,60
516,18	1286,12
516,38	1259,50
516,57	1304,56
516,77	1273,84
516,97	1327,08
517,17	1222,64
517,37	1245,16
517,57	1294,32
517,77	1273,84
517,97	1275,88
518,17	1232,88
518,37	1267,69
518,57	1273,84
518,77	1265,64
518,97	1273,84
519,16	1279,98
519,36	1337,32
519,56	1306,60
519,76	1294,32
519,96	1273,84
520,16	1212,40
520,36	1189,87
520,56	1308,65
520,76	1263,60
520,96	1327,08
521,16	1216,49
521,35	1282,03
521,55	1337,32
521,75	1236,97
521,95	1200,11
522,15	1275,88
522,35	1261,55
522,55	1232,88
522,75	1300,46
522,95	1230,83
523,14	1298,41
523,34	1296,36
523,54	1249,26
523,74	1314,80
523,94	1294,32
524,14	1290,22
524,34	1335,28
524,54	1296,36
524,73	1243,12
524,93	1282,03
525,13	1259,50
525,33	1269,74
525,53	1339,37
525,73	1277,93
525,93	1245,16
526,13	1290,22
526,32	1292,27
526,52	1267,69
526,72	1265,64
526,92	1200,11
527,12	1247,21
527,32	1288,17
527,52	1271,79
527,71	1302,51
527,91	1282,03
528,11	1249,26
528,31	1269,74
528,51	1228,78
528,71	1294,32
528,90	1249,26
529,10	1339,37
529,30	1284,08
529,50	1239,02
529,70	1224,69
529,90	1234,93
530,09	1210,35
530,29	1271,79
530,49	1255,40
530,69	1243,12
530,89	1279,98
531,09	1310,70
531,28	1304,56
531,48	1314,80
531,68	1236,97
531,88	1279,98
532,08	1273,84
532,28	1255,40
532,47	1302,51
532,67	1263,60
532,87	1228,78
533,07	1284,08
533,27	1282,03
533,46	1294,32
533,66	1286,12
533,86	1277,93
534,06	1306,60
534,26	1267,69
534,45	1243,12
534,65	1314,80
534,85	1288,17
535,05	1232,88
535,25	1296,36
535,44	1273,84
535,64	1255,40
535,84	1232,88
536,04	1343,47
536,24	1253,36
536,43	1275,88
536,63	1269,74
536,83	1296,36
537,03	1263,60
537,22	1265,64
537,42	1243,12
537,62	1290,22
537,82	1298,41
538,02	1267,69
538,21	1257,45
538,41	1325,04
538,61	1302,51
538,81	1282,03
539,00	1277,93
539,20	1331,18
539,40	1357,80
539,60	1282,03
539,79	1296,36
539,99	1265,64
540,19	1259,50
540,39	1243,12
540,58	1304,56
540,78	1345,52
540,98	1288,17
541,18	1275,88
541,37	1275,88
541,57	1257,45
541,77	1236,97
541,97	1249,26
542,16	1325,04
542,36	1316,84
542,56	1329,13
542,76	1331,18
542,95	1288,17
543,15	1257,45
543,35	1253,36
543,54	1282,03
543,74	1347,56
543,94	1279,98
544,14	1284,08
544,33	1241,07
544,53	1310,70
544,73	1296,36
544,93	1259,50
545,12	1263,60
545,32	1279,98
545,52	1298,41
545,71	1349,61
545,91	1216,49
546,11	1327,08
546,30	1331,18
546,50	1273,84
546,70	1290,22
546,90	1380,33
547,09	1320,94
547,29	1337,32
547,49	1251,31
547,68	1343,47
547,88	1372,14
548,08	1241,07
548,27	1304,56
548,47	1357,80
548,67	1304,56
548,87	1306,60
549,06	1261,55
549,26	1312,75
549,46	1329,13
549,65	1318,89
549,85	1245,16
550,05	1253,36
550,24	1312,75
550,44	1363,95
550,64	1257,45
550,83	1292,27
551,03	1335,28
551,23	1325,04
551,42	1232,88
551,62	1300,46
551,82	1296,36
552,01	1232,88
552,21	1265,64
552,41	1314,80
552,60	1284,08
552,80	1273,84
553,00	1296,36
553,19	1263,60
553,39	1284,08
553,59	1298,41
553,78	1222,64
553,98	1304,56
554,17	1214,45
554,37	1284,08
554,57	1318,89
554,76	1310,70
554,96	1372,14
555,16	1263,60
555,35	1232,88
555,55	1327,08
555,75	1286,12
555,94	1318,89
556,14	1257,45
556,33	1277,93
556,53	1290,22
556,73	1226,73
556,92	1286,12
557,12	1265,64
557,32	1218,54
557,51	1314,80
557,71	1241,07
557,90	1279,98
558,10	1331,18
558,30	1306,60
558,49	1247,21
558,69	1284,08
558,88	1300,46
559,08	1296,36
559,28	1325,04
559,47	1282,03
559,67	1296,36
559,86	1298,41
560,06	1292,27
560,26	1347,56
560,45	1275,88
560,65	1292,27
560,84	1255,40
561,04	1300,46
561,24	1282,03
561,43	1255,40
561,63	1275,88
561,82	1236,97
562,02	1271,79
562,22	1357,80
562,41	1312,75
562,61	1298,41
562,80	1284,08
563,00	1396,71
563,19	1230,83
563,39	1304,56
563,59	1318,89
563,78	1243,12
563,98	1249,26
564,17	1382,38
564,37	1308,65
564,56	1341,42
564,76	1282,03
564,96	1261,55
565,15	1316,84
565,35	1294,32
565,54	1269,74
565,74	1333,23
565,93	1359,85
566,13	1314,80
566,32	1292,27
566,52	1282,03
566,71	1236,97
566,91	1261,55
567,11	1290,22
567,30	1259,50
567,50	1247,21
567,69	1314,80
567,89	1284,08
568,08	1273,84
568,28	1316,84
568,47	1267,69
568,67	1322,99
568,86	1273,84
569,06	1312,75
569,25	1306,60
569,45	1261,55
569,64	1292,27
569,84	1347,56
570,04	1306,60
570,23	1206,25
570,43	1265,64
570,62	1228,78
570,82	1261,55
571,01	1196,01
571,21	1259,50
571,40	1245,16
571,60	1322,99
571,79	1271,79
571,99	1282,03
572,18	1327,08
572,38	1306,60
572,57	1333,23
572,77	1296,36
572,96	1273,84
573,16	1261,55
573,35	1239,02
573,55	1341,42
573,74	1257,45
573,94	1259,50
574,13	1247,21
574,33	1282,03
574,52	1275,88
574,71	1292,27
574,91	1232,88
575,10	1322,99
575,30	1292,27
575,49	1337,32
575,69	1243,12
575,88	1345,52
576,08	1271,79
576,27	1333,23
576,47	1261,55
576,66	1261,55
576,86	1302,51
577,05	1193,97
577,25	1241,07
577,44	1232,88
577,64	1286,12
577,83	1282,03
578,02	1290,22
578,22	1239,02
578,41	1302,51
578,61	1343,47
578,80	1210,35
579,00	1253,36
579,19	1282,03
579,39	1286,12
579,58	1292,27
579,77	1294,32
579,97	1294,32
580,16	1228,78
580,36	1298,41
580,55	1261,55
580,75	1310,70
580,94	1300,46
581,13	1292,27
581,33	1294,32
581,52	1318,89
581,72	1325,04
581,91	1273,84
582,11	1279,98
582,30	1316,84
582,49	1239,02
582,69	1251,31
582,88	1380,33
583,08	1271,79
583,27	1277,93
583,47	1259,50
583,66	1282,03
583,85	1204,21
584,05	1290,22
584,24	1224,69
584,44	1222,64
584,63	1306,60
584,82	1314,80
585,02	1255,40
585,21	1234,93
585,41	1345,52
585,60	1312,75
585,79	1347,56
585,99	1343,47
586,18	1277,93
586,37	1286,12
586,57	1265,64
586,76	1294,32
586,96	1218,54
587,15	1255,40
587,34	1331,18
587,54	1296,36
587,73	1286,12
587,93	1241,07
588,12	1265,64
588,31	1292,27
588,51	1292,27
588,70	1292,27
588,89	1296,36
589,09	1226,73
589,28	1239,02
589,47	1257,45
589,67	1265,64
589,86	1247,21
590,06	1251,31
590,25	1294,32
590,44	1234,93
590,64	1337,32
590,83	1245,16
591,02	1269,74
591,22	1255,40
591,41	1232,88
591,60	1294,32
591,80	1331,18
591,99	1267,69
592,18	1296,36
592,38	1220,59
592,57	1269,74
592,76	1273,84
592,96	1325,04
593,15	1314,80
593,34	1277,93
593,54	1259,50
593,73	1249,26
593,92	1327,08
594,12	1216,49
594,31	1259,50
594,50	1359,85
594,70	1226,73
594,89	1277,93
595,08	1296,36
595,28	1300,46
595,47	1282,03
595,66	1269,74
595,86	1325,04
596,05	1259,50
596,24	1339,37
596,43	1228,78
596,63	1263,60
596,82	1269,74
597,01	1261,55
597,21	1320,94
597,40	1345,52
597,59	1355,76
597,79	1290,22
597,98	1316,84
598,17	1314,80
598,36	1357,80
598,56	1232,88
598,75	1310,70
598,94	1230,83
599,14	1265,64
599,33	1314,80
599,52	1296,36
599,71	1273,84
599,91	1265,64
600,10	1271,79
600,29	1196,01
600,48	1312,75
600,68	1339,37
600,87	1222,64
601,06	1271,79
601,26	1277,93
601,45	1329,13
601,64	1284,08
601,83	1288,17
602,03	1339,37
602,22	1241,07
602,41	1300,46
602,60	1325,04
602,80	1302,51
602,99	1372,14
603,18	1292,27
603,37	1286,12
603,57	1265,64
603,76	1208,30
603,95	1294,32
604,14	1273,84
604,34	1288,17
604,53	1325,04
604,72	1329,13
604,91	1265,64
605,10	1251,31
605,30	1273,84
605,49	1232,88
605,68	1331,18
605,87	1282,03
606,07	1284,08
606,26	1228,78
606,45	1316,84
606,64	1329,13
606,84	1296,36
607,03	1294,32
607,22	1314,80
607,41	1396,71
607,60	1331,18
607,80	1298,41
607,99	1243,12
608,18	1224,69
608,37	1267,69
608,56	1314,80
608,76	1300,46
608,95	1253,36
609,14	1206,25
609,33	1333,23
609,52	1279,98
609,72	1366,00
609,91	1298,41
610,10	1271,79
610,29	1288,17
610,48	1314,80
610,68	1273,84
610,87	1290,22
611,06	1247,21
611,25	1279,98
611,44	1339,37
611,63	1325,04
611,83	1220,59
612,02	1275,88
612,21	1304,56
612,40	1302,51
612,59	1329,13
612,79	1259,50
612,98	1222,64
613,17	1267,69
613,36	1347,56
613,55	1292,27
613,74	1251,31
613,93	1245,16
614,13	1306,60
614,32	1267,69
614,51	1316,84
614,70	1302,51
614,89	1298,41
615,08	1269,74
615,28	1257,45
615,47	1286,12
615,66	1302,51
615,85	1320,94
616,04	1222,64
616,23	1304,56
616,42	1228,78
616,62	1335,28
616,81	1275,88
617,00	1316,84
617,19	1314,80
617,38	1230,83
617,57	1251,31
617,76	1310,70
617,95	1255,40
618,15	1306,60
618,34	1290,22
618,53	1298,41
618,72	1253,36
618,91	1257,45
619,10	1304,56
619,29	1282,03
619,48	1312,75
619,68	1255,40
619,87	1286,12
620,06	1294,32
620,25	1228,78
620,44	1269,74
620,63	1282,03
620,82	1312,75
621,01	1357,80
621,20	1202,16
621,39	1265,64
621,59	1288,17
621,78	1189,87
621,97	1265,64
622,16	1269,74
622,35	1251,31
622,54	1273,84
622,73	1353,71
622,92	1259,50
623,11	1322,99
623,30	1241,07
623,49	1273,84
623,68	1279,98
623,88	1320,94
624,07	1292,27
624,26	1329,13
624,45	1343,47
624,64	1261,55
624,83	1286,12
625,02	1200,11
625,21	1306,60
625,40	1341,42
625,59	1271,79
625,78	1228,78
625,97	1277,93
626,16	1320,94
626,35	1261,55
626,54	1253,36
626,74	1349,61
626,93	1232,88
627,12	1355,76
627,31	1380,33
627,50	1290,22
627,69	1306,60
627,88	1335,28
628,07	1296,36
628,26	1261,55
628,45	1310,70
628,64	1298,41
628,83	1308,65
629,02	1300,46
629,21	1337,32
629,40	1279,98
629,59	1275,88
629,78	1273,84
629,97	1306,60
630,16	1327,08
630,35	1273,84
630,54	1257,45
630,73	1302,51
630,92	1300,46
631,11	1290,22
631,30	1314,80
631,49	1409,00
631,68	1394,67
631,87	1447,91
632,06	1454,06
632,25	1509,35
632,44	1527,78
632,63	1441,77
632,82	1552,36
633,01	2043,87
633,20	1574,89
633,39	1611,75
633,58	1697,77
633,77	1648,61
633,96	1603,56
634,15	1544,17
634,34	1589,22
634,53	1652,71
634,72	1554,41
634,91	1548,26
635,10	1501,16
635,29	1384,43
635,48	1409,00
635,67	1472,49
635,86	1384,43
636,05	1400,81
636,24	1386,47
636,43	1372,14
636,62	1298,41
636,81	1341,42
637,00	1241,07
637,19	1284,08
637,38	1302,51
637,57	1378,28
637,76	1320,94
637,95	1247,21
638,14	1312,75
638,33	1196,01
638,52	1292,27
638,71	1279,98
638,89	1322,99
639,08	1275,88
639,27	1341,42
639,46	1259,50
639,65	1298,41
639,84	1255,40
640,03	1304,56
640,22	1253,36
640,41	1288,17
640,60	1308,65
640,79	1320,94
640,98	1263,60
641,17	1263,60
641,36	1290,22
641,55	1282,03
641,74	1214,45
641,92	1206,25
642,11	1226,73
642,30	1300,46
642,49	1355,76
642,68	1341,42
642,87	1187,82
643,06	1290,22
643,25	1249,26
643,44	1226,73
643,63	1282,03
643,82	1267,69
644,00	1308,65
644,19	1236,97
644,38	1284,08
644,57	1261,55
644,76	1302,51
644,95	1331,18
645,14	1265,64
645,33	1236,97
645,52	1234,93
645,71	1335,28
645,89	1255,40
646,08	1241,07
646,27	1355,76
646,46	1232,88
646,65	1234,93
646,84	1234,93
647,03	1308,65
647,22	1380,33
647,40	1177,58
647,59	1243,12
647,78	1253,36
647,97	1208,30
648,16	1275,88
648,35	1259,50
648,54	1271,79
648,73	1290,22
648,91	1214,45
649,10	1308,65
649,29	1343,47
649,48	1302,51
649,67	1298,41
649,86	1247,21
650,05	1306,60
650,23	1335,28
650,42	1294,32
650,61	1255,40
650,80	1290,22
650,99	1245,16
651,18	1273,84
651,36	1267,69
651,55	1269,74
651,74	1271,79
651,93	1271,79
652,12	1288,17
652,31	1282,03
652,49	1253,36
652,68	1236,97
652,87	1269,74
653,06	1255,40
653,25	1257,45
653,44	1261,55
653,62	1314,80
653,81	1294,32
654,00	1255,40
654,19	1253,36
654,38	1286,12
654,56	1259,50
654,75	1312,75
654,94	1282,03
655,13	1300,46
655,32	1216,49
655,51	1288,17
655,69	1265,64
655,88	1202,16
656,07	1263,60
656,26	1331,18
656,45	1228,78
656,63	1249,26
656,82	1318,89
657,01	1320,94
657,20	1230,83
657,38	1259,50
657,57	1265,64
657,76	1296,36
657,95	1187,82
658,14	1257,45
658,32	1265,64
658,51	1279,98
658,70	1275,88
658,89	1347,56
659,08	1245,16
659,26	1271,79
659,45	1265,64
659,64	1312,75
659,83	1251,31
660,01	1275,88
660,20	1232,88
660,39	1322,99
660,58	1277,93
660,76	1302,51
660,95	1282,03
661,14	1292,27
661,33	1314,80
661,51	1294,32
661,70	1290,22
661,89	1198,06
662,08	1259,50
662,26	1253,36
662,45	1296,36
662,64	1312,75
662,83	1322,99
663,01	1214,45
663,20	1316,84
663,39	1284,08
663,58	1249,26
663,76	1275,88
663,95	1267,69
664,14	1312,75
664,32	1198,06
664,51	1288,17
664,70	1308,65
664,89	1251,31
665,07	1247,21
665,26	1286,12
665,45	1288,17
665,64	1310,70
665,82	1232,88
666,01	1282,03
666,20	1239,02
666,38	1267,69
666,57	1318,89
666,76	1279,98
666,95	1265,64
667,13	1343,47
667,32	1247,21
667,51	1263,60
667,69	1275,88
667,88	1206,25
668,07	1196,01
668,25	1277,93
668,44	1230,83
668,63	1269,74
668,81	1329,13
669,00	1314,80
669,19	1263,60
669,38	1327,08
669,56	1269,74
669,75	1347,56
669,94	1282,03
670,12	1236,97
670,31	1247,21
670,50	1265,64
670,68	1249,26
670,87	1255,40
671,06	1296,36
671,24	1312,75
671,43	1312,75
671,62	1337,32
671,80	1292,27
671,99	1228,78
672,18	1302,51
672,36	1288,17
672,55	1198,06
672,74	1298,41
672,92	1341,42
673,11	1316,84
673,29	1261,55
673,48	1230,83
673,67	1271,79
673,85	1200,11
674,04	1339,37
674,23	1300,46
674,41	1333,23
674,60	1243,12
674,79	1271,79
674,97	1296,36
675,16	1284,08
675,34	1263,60
675,53	1226,73
675,72	1236,97
675,90	1245,16
676,09	1273,84
676,28	1257,45
676,46	1284,08
676,65	1220,59
676,83	1322,99
677,02	1269,74
677,21	1337,32
677,39	1241,07
677,58	1191,92
677,77	1273,84
677,95	1261,55
678,14	1269,74
678,32	1337,32
678,51	1267,69
678,70	1300,46
678,88	1257,45
679,07	1277,93
679,25	1282,03
679,44	1212,40
679,63	1234,93
679,81	1376,24
680,00	1200,11
680,18	1247,21
680,37	1282,03
680,55	1232,88
680,74	1294,32
680,93	1273,84
681,11	1304,56
681,30	1273,84
681,48	1275,88
681,67	1290,22
681,85	1277,93
682,04	1230,83
682,23	1370,09
682,41	1296,36
682,60	1261,55
682,78	1325,04
682,97	1193,97
683,15	1255,40
683,34	1290,22
683,53	1222,64
683,71	1259,50
683,90	1271,79
684,08	1255,40
684,27	1218,54
684,45	1286,12
684,64	1247,21
684,82	1245,16
685,01	1243,12
685,19	1136,62
685,38	1275,88
685,57	1284,08
685,75	1273,84
685,94	1316,84
686,12	1269,74
686,31	1322,99
686,49	1249,26
686,68	1251,31
686,86	1222,64
687,05	1247,21
687,23	1296,36
687,42	1263,60
687,60	1288,17
687,79	1247,21
687,97	1308,65
688,16	1290,22
688,34	1273,84
688,53	1370,09
688,71	1343,47
688,90	1337,32
689,08	1341,42
689,27	1290,22
689,45	1241,07
689,64	1275,88
689,82	1312,75
690,01	1325,04
690,19	1310,70
690,38	1322,99
690,56	1226,73
690,75	1322,99
690,93	1286,12
691,12	1302,51
691,30	1218,54
691,49	1222,64
691,67	1198,06
691,86	1286,12
692,04	1228,78
692,23	1255,40
692,41	1327,08
692,60	1265,64
692,78	1279,98
692,97	1316,84
693,15	1284,08
693,34	1286,12
693,52	1249,26
693,71	1284,08
693,89	1261,55
694,08	1191,92
694,26	1298,41
694,44	1241,07
694,63	1314,80
694,81	1275,88
695,00	1255,40
695,18	1255,40
695,37	1349,61
695,55	1226,73
695,74	1245,16
695,92	1224,69
696,10	1288,17
696,29	1282,03
696,47	1284,08
696,66	1304,56
696,84	1290,22
697,03	1296,36
697,21	1296,36
697,40	1335,28
697,58	1236,97
697,76	1271,79
697,95	1271,79
698,13	1236,97
698,32	1259,50
698,50	1255,40
698,68	1302,51
698,87	1269,74
699,05	1202,16
699,24	1286,12
699,42	1269,74
699,61	1241,07
699,79	1318,89
699,97	1257,45
700,16	1263,60
700,34	1273,84
700,53	1208,30
700,71	1249,26
700,89	1331,18
701,08	1329,13
701,26	1320,94
701,45	1359,85
701,63	1249,26
701,81	1245,16
702,00	1261,55
702,18	1316,84
702,37	1232,88
702,55	1337,32
702,73	1308,65
702,92	1239,02
703,10	1239,02
703,28	1257,45
703,47	1296,36
703,65	1243,12
703,84	1335,28
704,02	1220,59
704,20	1269,74
704,39	1198,06
704,57	1306,60
704,75	1245,16
704,94	1263,60
705,12	1226,73
705,30	1275,88
705,49	1249,26
705,67	1308,65
705,86	1316,84
706,04	1282,03
706,22	1236,97
706,41	1249,26
706,59	1247,21
706,77	1200,11
706,96	1253,36
707,14	1251,31
707,32	1269,74
707,51	1269,74
707,69	1304,56
707,87	1253,36
708,06	1224,69
708,24	1279,98
708,42	1345,52
708,61	1263,60
708,79	1236,97
708,97	1236,97
709,16	1273,84
709,34	1239,02
709,52	1234,93
709,71	1232,88
709,89	1275,88
710,07	1318,89
710,26	1255,40
710,44	1228,78
710,62	1333,23
710,80	1255,40
710,99	1191,92
711,17	1306,60
711,35	1234,93
711,54	1210,35
711,72	1153,01
711,90	1263,60
712,09	1308,65
712,27	1269,74
712,45	1230,83
712,63	1234,93
712,82	1243,12
713,00	1308,65
713,18	1341,42
713,37	1298,41
713,55	1234,93
713,73	1232,88
713,91	1294,32
714,10	1236,97
714,28	1279,98
714,46	1290,22
714,65	1257,45
714,83	1220,59
715,01	1218,54
715,19	1265,64
715,38	1191,92
715,56	1249,26
715,74	1218,54
715,92	1284,08
716,11	1298,41
716,29	1271,79
716,47	1304,56
716,65	1265,64
716,84	1226,73
717,02	1273,84
717,20	1331,18
717,38	1239,02
717,57	1257,45
717,75	1251,31
717,93	1314,80
718,11	1304,56
718,30	1251,31
718,48	1306,60
718,66	1236,97
718,84	1236,97
719,03	1261,55
719,21	1288,17
719,39	1234,93
719,57	1290,22
719,75	1259,50
719,94	1261,55
720,12	1257,45
720,30	1296,36
720,48	1236,97
720,67	1327,08
720,85	1220,59
721,03	1257,45
721,21	1228,78
721,39	1257,45
721,58	1189,87
721,76	1259,50
721,94	1279,98
722,12	1265,64
722,30	1245,16
722,49	1277,93
722,67	1263,60
722,85	1304,56
723,03	1228,78
723,21	1341,42
723,40	1279,98
723,58	1153,01
723,76	1275,88
723,94	1259,50
724,12	1253,36
724,30	1269,74
724,49	1236,97
724,67	1310,70
724,85	1370,09
725,03	1273,84
725,21	1269,74
725,40	1263,60
725,58	1245,16
725,76	1286,12
725,94	1292,27
726,12	1290,22
726,30	1282,03
726,49	1302,51
726,67	1241,07
726,85	1255,40
727,03	1284,08
727,21	1288,17
727,39	1210,35
727,57	1191,92
727,76	1320,94
727,94	1275,88
728,12	1224,69
728,30	1279,98
728,48	1279,98
728,66	1263,60
728,84	1239,02
729,03	1161,20
729,21	1249,26
729,39	1230,83
729,57	1302,51
729,75	1259,50
729,93	1241,07
730,11	1329,13
730,30	1226,73
730,48	1255,40
730,66	1267,69
730,84	1236,97
731,02	1220,59
731,20	1234,93
731,38	1286,12
731,56	1294,32
731,74	1298,41
731,93	1265,64
732,11	1302,51
732,29	1265,64
732,47	1314,80
732,65	1294,32
732,83	1304,56
733,01	1277,93
733,19	1298,41
733,37	1300,46
733,56	1232,88
733,74	1292,27
733,92	1286,12
734,10	1288,17
734,28	1189,87
734,46	1224,69
734,64	1249,26
734,82	1304,56
735,00	1275,88
735,18	1368,04
735,36	1298,41
735,54	1314,80
735,73	1271,79
735,91	1318,89
736,09	1290,22
736,27	1257,45
736,45	1290,22
736,63	1347,56
736,81	1267,69
736,99	1236,97
737,17	1228,78
737,35	1222,64
737,53	1226,73
737,71	1316,84
737,89	1263,60
738,07	1241,07
738,25	1243,12
738,43	1239,02
738,61	1275,88
738,80	1288,17
738,98	1234,93
739,16	1236,97
739,34	1261,55
739,52	1279,98
739,70	1200,11
739,88	1271,79
740,06	1271,79
740,24	1337,32
740,42	1304,56
740,60	1335,28
740,78	1263,60
740,96	1253,36
741,14	1277,93
741,32	1279,98
741,50	1216,49
741,68	1314,80
741,86	1316,84
742,04	1275,88
742,22	1345,52
742,40	1239,02
742,58	1294,32
742,76	1314,80
742,94	1255,40
743,12	1296,36
743,30	1216,49
743,48	1236,97
743,66	1232,88
743,84	1249,26
744,02	1247,21
744,20	1179,63
744,38	1277,93
744,56	1269,74
744,74	1212,40
744,92	1273,84
745,10	1234,93
745,28	1312,75
745,46	1298,41
745,64	1198,06
745,82	1253,36
746,00	1322,99
746,18	1308,65
746,36	1206,25
746,54	1339,37
746,72	1345,52
746,90	1282,03
747,08	1249,26
747,26	1337,32
747,44	1239,02
747,62	1312,75
747,80	1292,27
747,98	1259,50
748,15	1253,36
748,33	1298,41
748,51	1241,07
748,69	1275,88
748,87	1275,88
749,05	1335,28
749,23	1216,49
749,41	1257,45
749,59	1296,36
749,77	1253,36
749,95	1290,22
750,13	1245,16
750,31	1300,46
750,49	1261,55
750,67	1279,98
750,85	1253,36
751,03	1210,35
751,20	1310,70
751,38	1265,64
751,56	1253,36
751,74	1222,64
751,92	1320,94
752,10	1214,45
752,28	1325,04
752,46	1263,60
752,64	1193,97
752,82	1355,76
753,00	1224,69
753,18	1298,41
753,35	1255,40
753,53	1261,55
753,71	1214,45
753,89	1243,12
754,07	1243,12
754,25	1239,02
754,43	1275,88
754,61	1251,31
754,79	1257,45
754,97	1327,08
755,14	1286,12
755,32	1243,12
755,50	1290,22
755,68	1277,93
755,86	1267,69
756,04	1279,98
756,22	1261,55
756,40	1273,84
756,57	1312,75
756,75	1241,07
756,93	1304,56
757,11	1228,78
757,29	1255,40
757,47	1296,36
757,65	1343,47
757,82	1304,56
758,00	1216,49
758,18	1298,41
758,36	1316,84
758,54	1279,98
758,72	1259,50
758,90	1232,88
759,07	1255,40
759,25	1214,45
759,43	1322,99
759,61	1308,65
759,79	1308,65
759,97	1304,56
760,15	1327,08
760,32	1286,12
760,50	1265,64
760,68	1243,12
760,86	1329,13
761,04	1228,78
761,22	1265,64
761,39	1312,75
761,57	1234,93
761,75	1249,26
761,93	1298,41
762,11	1208,30
762,28	1273,84
762,46	1282,03
762,64	1218,54
762,82	1261,55
763,00	1216,49
763,18	1202,16
763,35	1196,01
763,53	1222,64
763,71	1296,36
763,89	1271,79
764,07	1282,03
764,24	1349,61
764,42	1290,22
764,60	1320,94
764,78	1224,69
764,96	1253,36
765,13	1271,79
765,31	1300,46
765,49	1251,31
765,67	1179,63
765,84	1279,98
766,02	1296,36
766,20	1241,07
766,38	1208,30
766,56	1228,78
766,73	1308,65
766,91	1271,79
767,09	1279,98
767,27	1376,24
767,44	1314,80
767,62	1249,26
767,80	1271,79
767,98	1316,84
768,15	1296,36
768,33	1341,42
768,51	1169,39
768,69	1308,65
768,87	1249,26
769,04	1298,41
769,22	1277,93
769,40	1294,32
769,58	1366,00
769,75	1273,84
769,93	1282,03
770,11	1210,35
770,28	1277,93
770,46	1271,79
770,64	1366,00
770,82	1241,07
770,99	1200,11
771,17	1294,32
771,35	1310,70
771,53	1224,69
771,70	1230,83
771,88	1372,14
772,06	1343,47
772,23	1335,28
772,41	1257,45
772,59	1265,64
772,77	1234,93
772,94	1282,03
773,12	1243,12
773,30	1241,07
773,47	1298,41
773,65	1243,12
773,83	1288,17
774,01	1294,32
774,18	1298,41
774,36	1228,78
774,54	1355,76
774,71	1204,21
774,89	1257,45
775,07	1189,87
775,24	1265,64
775,42	1286,12
775,60	1302,51
775,78	1290,22
775,95	1259,50
776,13	1269,74
776,31	1220,59
776,48	1259,50
776,66	1236,97
776,84	1243,12
777,01	1294,32
777,19	1204,21
777,37	1306,60
777,54	1228,78
777,72	1277,93
777,90	1302,51
778,07	1273,84
778,25	1259,50
778,43	1267,69
778,60	1236,97
778,78	1212,40
778,96	1288,17
779,13	1366,00
779,31	1239,02
779,49	1314,80
779,66	1255,40
779,84	1249,26
780,01	1279,98
780,19	1271,79
780,37	1243,12
780,54	1267,69
780,72	1224,69
780,90	1230,83
781,07	1234,93
781,25	1228,78
781,43	1279,98
781,60	1236,97
781,78	1302,51
781,95	1206,25
782,13	1314,80
782,31	1202,16
782,48	1294,32
782,66	1277,93
782,83	1247,21
783,01	1277,93
783,19	1255,40
783,36	1222,64
783,54	1286,12
783,72	1296,36
783,89	1269,74
784,07	1316,84
784,24	1212,40
784,42	1277,93
784,60	1214,45
784,77	1271,79
784,95	1241,07
785,12	1226,73
785,30	1273,84
785,47	1286,12
785,65	1255,40
785,83	1292,27
786,00	1298,41
786,18	1298,41
786,35	1259,50
786,53	1257,45
786,71	1196,01
786,88	1282,03
787,06	1284,08
787,23	1239,02
787,41	1279,98
787,58	1292,27
787,76	1282,03
787,94	1245,16
788,11	1322,99
788,29	1286,12
788,46	1230,83
788,64	1228,78
788,81	1218,54
788,99	1251,31
789,16	1204,21
789,34	1294,32
789,52	1226,73
789,69	1288,17
789,87	1273,84
790,04	1234,93
790,22	1333,23
790,39	1310,70
790,57	1232,88
790,74	1183,73
790,92	1265,64
791,09	1308,65
791,27	1181,68
791,44	1273,84
791,62	1257,45
791,79	1232,88
791,97	1304,56
792,15	1249,26
792,32	1265,64
792,50	1325,04
792,67	1306,60
792,85	1296,36
793,02	1269,74
793,20	1175,53
793,37	1241,07
793,55	1304,56
793,72	1267,69
793,90	1228,78
794,07	1247,21
794,25	1241,07
794,42	1284,08
794,60	1298,41
794,77	1210,35
794,95	1232,88
795,12	1247,21
795,30	1331,18
795,47	1284,08
795,65	1239,02
795,82	1306,60
796,00	1253,36
796,17	1273,84
796,34	1224,69
796,52	1236,97
796,69	1320,94
796,87	1273,84
797,04	1279,98
797,22	1222,64
797,39	1220,59
797,57	1370,09
797,74	1255,40
797,92	1239,02
798,09	1282,03
798,27	1288,17
798,44	1257,45
798,62	1271,79
798,79	1259,50
798,96	1263,60
799,14	1241,07
799,31	1277,93
799,49	1206,25
799,66	1267,69
799,84	1271,79
800,01	1265,64
800,19	1300,46
800,36	1290,22
800,53	1253,36
800,71	1300,46
800,88	1257,45
801,06	1251,31
801,23	1239,02
801,41	1259,50
801,58	1314,80
801,75	1306,60
801,93	1288,17
802,10	1261,55
802,28	1288,17
802,45	1271,79
802,63	1286,12
802,80	1296,36
802,97	1298,41
803,15	1312,75
803,32	1247,21
803,50	1290,22
803,67	1257,45
803,84	1259,50
804,02	1259,50
804,19	1282,03
804,37	1320,94
804,54	1269,74
804,71	1220,59
804,89	1243,12
805,06	1257,45
805,24	1249,26
805,41	1198,06
805,58	1230,83
805,76	1290,22
805,93	1241,07
806,10	1290,22
806,28	1230,83
806,45	1241,07
806,63	1269,74
806,80	1290,22
806,97	1327,08
807,15	1212,40
807,32	1335,28
807,49	1263,60
807,67	1253,36
807,84	1339,37
808,01	1275,88
808,19	1230,83
808,36	1169,39
808,54	1241,07
808,71	1282,03
808,88	1224,69
809,06	1249,26
809,23	1261,55
809,40	1275,88
809,58	1263,60
809,75	1212,40
809,92	1269,74
810,10	1265,64
810,27	1298,41
810,44	1277,93
810,62	1329,13
810,79	1236,97
810,96	1277,93
811,14	1282,03
811,31	1275,88
811,48	1245,16
811,66	1239,02
811,83	1277,93
812,00	1216,49
812,18	1208,30
812,35	1263,60
812,52	1210,35
812,69	1228,78
812,87	1216,49
813,04	1370,09
813,21	1255,40
813,39	1191,92
813,56	1318,89
813,73	1308,65
813,91	1269,74
814,08	1232,88
814,25	1304,56
814,42	1341,42
814,60	1210,35
814,77	1298,41
814,94	1269,74
815,12	1286,12
815,29	1218,54
815,46	1277,93
815,63	1288,17
815,81	1277,93
815,98	1212,40
816,15	1220,59
816,33	1220,59
816,50	1298,41
816,67	1341,42
816,84	1294,32
817,02	1314,80
817,19	1271,79
817,36	1218,54
817,53	1245,16
817,71	1288,17
817,88	1204,21
818,05	1282,03
818,22	1239,02
818,40	1265,64
818,57	1187,82
818,74	1279,98
818,91	1245,16
819,09	1220,59
819,26	1304,56
819,43	1300,46
819,60	1245,16
819,78	1269,74
819,95	1288,17
820,12	1351,66
820,29	1208,30
820,47	1284,08
820,64	1277,93
820,81	1261,55
820,98	1322,99
821,15	1277,93
821,33	1353,71
821,50	1273,84
821,67	1296,36
821,84	1282,03
822,02	1327,08
822,19	1284,08
822,36	1273,84
822,53	1232,88
822,70	1279,98
822,88	1302,51
823,05	1335,28
823,22	1335,28
823,39	1245,16
823,56	1202,16
823,74	1290,22
823,91	1200,11
824,08	1257,45
824,25	1288,17
824,42	1314,80
824,60	1234,93
824,77	1284,08
824,94	1212,40
825,11	1165,29
825,28	1253,36
825,45	1304,56
825,63	1284,08
825,80	1320,94
825,97	1255,40
826,14	1255,40
826,31	1261,55
826,48	1198,06
826,66	1279,98
826,83	1304,56
827,00	1316,84
827,17	1222,64
827,34	1253,36
827,51	1282,03
827,69	1273,84
827,86	1232,88
828,03	1196,01
828,20	1253,36
828,37	1243,12
828,54	1202,16
828,71	1239,02
828,89	1298,41
829,06	1271,79
829,23	1265,64
829,40	1292,27
829,57	1314,80
829,74	1208,30
829,91	1263,60
830,09	1318,89
830,26	1232,88
830,43	1286,12
830,60	1339,37
830,77	1273,84
830,94	1316,84
831,11	1241,07
831,28	1247,21
831,46	1269,74
831,63	1253,36
831,80	1259,50
831,97	1224,69
832,14	1208,30
832,31	1239,02
832,48	1228,78
832,65	1265,64
832,82	1284,08
832,99	1351,66
833,17	1198,06
833,34	1308,65
833,51	1222,64
833,68	1306,60
833,85	1263,60
834,02	1247,21
834,19	1329,13
834,36	1255,40
834,53	1349,61
834,70	1216,49
834,87	1263,60
835,04	1218,54
835,22	1253,36
835,39	1292,27
835,56	1234,93
835,73	1243,12
835,90	1218,54
836,07	1359,85
836,24	1314,80
836,41	1234,93
836,58	1294,32
836,75	1249,26
836,92	1212,40
837,09	1271,79
837,26	1265,64
837,43	1296,36
837,60	1290,22
837,77	1290,22
837,94	1247,21
838,12	1341,42
838,29	1300,46
838,46	1273,84
838,63	1267,69
838,80	1257,45
838,97	1214,45
839,14	1206,25
839,31	1224,69
839,48	1269,74
839,65	1206,25
839,82	1255,40
839,99	1290,22
840,16	1275,88
840,33	1290,22
840,50	1263,60
840,67	1253,36
840,84	1294,32
841,01	1220,59
841,18	1255,40
841,35	1212,40
841,52	1312,75
841,69	1220,59
841,86	1304,56
842,03	1212,40
842,20	1220,59
842,37	1220,59
842,54	1308,65
842,71	1259,50
842,88	1302,51
843,05	1234,93
843,22	1247,21
843,39	1257,45
843,56	1214,45
843,73	1245,16
843,90	1241,07
844,07	1187,82
844,24	1292,27
844,41	1241,07
844,58	1286,12
844,75	1177,58
844,92	1243,12
845,09	1265,64
845,26	1208,30
845,43	1275,88
845,60	1214,45
845,77	1337,32
845,94	1261,55
846,10	1189,87
846,27	1310,70
846,44	1243,12
846,61	1306,60
846,78	1234,93
846,95	1228,78
847,12	1228,78
847,29	1181,68
847,46	1257,45
847,63	1259,50
847,80	1259,50
847,97	1273,84
848,14	1279,98
848,31	1210,35
848,48	1218,54
848,65	1261,55
848,82	1241,07
848,98	1304,56
849,15	1277,93
849,32	1257,45
849,49	1366,00
849,66	1263,60
849,83	1232,88
850,00	1249,26
850,17	1290,22
850,34	1331,18
850,51	1259,50
850,68	1196,01
850,85	1271,79
851,01	1265,64
851,18	1257,45
851,35	1263,60
851,52	1157,10
851,69	1282,03
851,86	1277,93
852,03	1245,16
852,20	1327,08
852,37	1245,16
852,53	1239,02
852,70	1279,98
852,87	1222,64
853,04	1257,45
853,21	1257,45
853,38	1298,41
853,55	1251,31
853,72	1257,45
853,89	1247,21
854,05	1275,88
854,22	1304,56
854,39	1277,93
854,56	1282,03
854,73	1275,88
854,90	1288,17
855,07	1269,74
855,23	1269,74
855,40	1294,32
855,57	1236,97
855,74	1269,74
855,91	1273,84
856,08	1243,12
856,25	1269,74
856,41	1224,69
856,58	1339,37
856,75	1243,12
856,92	1292,27
857,09	1163,25
857,26	1300,46
857,42	1261,55
857,59	1320,94
857,76	1308,65
857,93	1267,69
858,10	1306,60
858,27	1234,93
858,43	1243,12
858,60	1306,60
858,77	1214,45
858,94	1273,84
859,11	1202,16
859,27	1224,69
859,44	1245,16
859,61	1347,56
859,78	1294,32
859,95	1286,12
860,12	1222,64
860,28	1327,08
860,45	1290,22
860,62	1286,12
860,79	1331,18
860,95	1359,85
861,12	1159,15
861,29	1220,59
861,46	1245,16
861,63	1329,13
861,79	1298,41
861,96	1269,74
862,13	1314,80
862,30	1257,45
862,47	1193,97
862,63	1236,97
862,80	1230,83
862,97	1279,98
863,14	1320,94
863,30	1259,50
863,47	1241,07
863,64	1292,27
863,81	1296,36
863,97	1251,31
864,14	1191,92
864,31	1193,97
864,48	1302,51
864,65	1267,69
864,81	1208,30
864,98	1300,46
865,15	1224,69
865,32	1341,42
865,48	1243,12
865,65	1234,93
865,82	1277,93
865,98	1249,26
866,15	1310,70
866,32	1163,25
866,49	1249,26
866,65	1265,64
866,82	1368,04
866,99	1294,32
867,16	1312,75
867,32	1259,50
867,49	1189,87
867,66	1304,56
867,83	1241,07
867,99	1198,06
868,16	1218,54
868,33	1253,36
868,49	1257,45
868,66	1265,64
868,83	1296,36
868,99	1222,64
869,16	1277,93
869,33	1243,12
869,50	1261,55
869,66	1312,75
869,83	1265,64
870,00	1271,79
870,16	1273,84
870,33	1214,45
870,50	1210,35
870,66	1277,93
870,83	1253,36
871,00	1310,70
871,17	1279,98
871,33	1275,88
871,50	1275,88
871,67	1329,13
871,83	1288,17
872,00	1339,37
872,17	1275,88
872,33	1214,45
872,50	1232,88
872,67	1253,36
872,83	1257,45
873,00	1265,64
873,17	1259,50
873,33	1265,64
873,50	1300,46
873,67	1257,45
873,83	1294,32
874,00	1245,16
874,16	1245,16
874,33	1273,84
874,50	1271,79
874,66	1327,08
874,83	1288,17
875,00	1304,56
875,16	1312,75
875,33	1267,69
875,50	1200,11
875,66	1304,56
875,83	1253,36
875,99	1222,64
876,16	1277,93
876,33	1302,51
876,49	1247,21
876,66	1327,08
876,83	1275,88
876,99	1239,02
877,16	1230,83
877,32	1251,31
877,49	1298,41
877,66	1249,26
877,82	1239,02
877,99	1189,87
878,15	1206,25
878,32	1333,23
878,49	1234,93
878,65	1322,99
878,82	1290,22
878,98	1263,60
879,15	1322,99
879,32	1314,80
879,48	1339,37
879,65	1288,17
879,81	1292,27
879,98	1314,80
880,15	1320,94
880,31	1282,03
880,48	1161,20
880,64	1249,26
880,81	1241,07
880,97	1310,70
881,14	1234,93
881,31	1185,77
881,47	1316,84
881,64	1288,17
881,80	1234,93
881,97	1257,45
882,13	1298,41
882,30	1312,75
882,47	1343,47
882,63	1218,54
882,80	1320,94
882,96	1224,69
883,13	1259,50
883,29	1318,89
883,46	1316,84
883,62	1322,99
883,79	1257,45
883,95	1261,55
884,12	1282,03
884,29	1259,50
884,45	1255,40
884,62	1284,08
884,78	1304,56
884,95	1320,94
885,11	1253,36
885,28	1306,60
885,44	1210,35
885,61	1208,30
885,77	1327,08
885,94	1249,26
886,10	1253,36
886,27	1251,31
886,43	1259,50
886,60	1302,51
886,76	1206,25
886,93	1275,88
887,09	1275,88
887,26	1191,92
887,42	1263,60
887,59	1304,56
887,75	1284,08
887,92	1333,23
888,08	1245,16
888,25	1251,31
888,41	1333,23
888,58	1331,18
888,74	1200,11
888,91	1355,76
>>>>>End Processed Spectral Data<<<<<
