SpectraSuite Data File
++++++++++++++++++++++++++++++++++++
Date: Sun Apr 03 19:55:47 CEST 2016
User: root
Dark Spectrum Present: No
Reference Spectrum Present: No
Number of Sampled Component Spectra: 1
Spectrometers: USB4C02835
Integration Time (usec): 10000 (USB4C02835)
Spectra Averaged: 1 (USB4C02835)
Boxcar Smoothing: 0 (USB4C02835)
Correct for Electrical Dark: No (USB4C02835)
Strobe/Lamp Enabled: No (USB4C02835)
Correct for Detector Non-linearity: No (USB4C02835)
Correct for Stray Light: No (USB4C02835)
Number of Pixels in Processed Spectrum: 3648
>>>>>Begin Processed Spectral Data<<<<<
177,47	1279,98
177,69	1279,98
177,91	1279,98
178,13	1320,94
178,36	1265,64
178,58	1155,05
178,80	1230,83
179,02	1206,25
179,24	1296,36
179,46	1273,84
179,68	1306,60
179,90	1253,36
180,13	1316,84
180,35	1265,64
180,57	1261,55
180,79	1224,69
181,01	1218,54
181,23	1239,02
181,45	1279,98
181,67	1296,36
181,90	1239,02
182,12	1239,02
182,34	1208,30
182,56	1259,50
182,78	1263,60
183,00	1316,84
183,22	1310,70
183,44	1277,93
183,66	1296,36
183,89	1261,55
184,11	1265,64
184,33	1279,98
184,55	1230,83
184,77	1245,16
184,99	1177,58
185,21	1314,80
185,43	1267,69
185,65	1232,88
185,87	1290,22
186,10	1269,74
186,32	1263,60
186,54	1241,07
186,76	1322,99
186,98	1290,22
187,20	1290,22
187,42	1224,69
187,64	1220,59
187,86	1224,69
188,08	1243,12
188,30	1261,55
188,52	1306,60
188,75	1339,37
188,97	1243,12
189,19	1249,26
189,41	1212,40
189,63	1284,08
189,85	1249,26
190,07	1230,83
190,29	1263,60
190,51	1302,51
190,73	1308,65
190,95	1314,80
191,17	1322,99
191,39	1222,64
191,61	1271,79
191,84	1241,07
192,06	1296,36
192,28	1224,69
192,50	1200,11
192,72	1234,93
192,94	1216,49
193,16	1298,41
193,38	1282,03
193,60	1216,49
193,82	1253,36
194,04	1210,35
194,26	1232,88
194,48	1261,55
194,70	1290,22
194,92	1269,74
195,14	1271,79
195,36	1273,84
195,58	1243,12
195,80	1331,18
196,02	1243,12
196,24	1245,16
196,46	1249,26
196,69	1230,83
196,91	1247,21
197,13	1282,03
197,35	1269,74
197,57	1271,79
197,79	1230,83
198,01	1294,32
198,23	1241,07
198,45	1226,73
198,67	1224,69
198,89	1193,97
199,11	1331,18
199,33	1312,75
199,55	1279,98
199,77	1173,49
199,99	1370,09
200,21	1218,54
200,43	1210,35
200,65	1243,12
200,87	1263,60
201,09	1249,26
201,31	1296,36
201,53	1302,51
201,75	1296,36
201,97	1220,59
202,19	1290,22
202,41	1282,03
202,63	1286,12
202,85	1304,56
203,07	1196,01
203,29	1304,56
203,51	1245,16
203,73	1265,64
203,95	1300,46
204,17	1282,03
204,39	1296,36
204,61	1243,12
204,83	1331,18
205,05	1226,73
205,27	1261,55
205,49	1236,97
205,71	1265,64
205,93	1245,16
206,15	1388,52
206,37	1277,93
206,59	1302,51
206,81	1316,84
207,03	1306,60
207,25	1216,49
207,47	1277,93
207,69	1273,84
207,91	1314,80
208,13	1253,36
208,34	1222,64
208,56	1267,69
208,78	1282,03
209,00	1204,21
209,22	1273,84
209,44	1322,99
209,66	1318,89
209,88	1284,08
210,10	1314,80
210,32	1243,12
210,54	1265,64
210,76	1302,51
210,98	1239,02
211,20	1310,70
211,42	1296,36
211,64	1263,60
211,86	1122,29
212,08	1259,50
212,30	1271,79
212,52	1220,59
212,74	1243,12
212,96	1241,07
213,17	1298,41
213,39	1257,45
213,61	1306,60
213,83	1284,08
214,05	1290,22
214,27	1273,84
214,49	1208,30
214,71	1320,94
214,93	1292,27
215,15	1263,60
215,37	1292,27
215,59	1314,80
215,81	1282,03
216,03	1347,56
216,24	1253,36
216,46	1210,35
216,68	1318,89
216,90	1269,74
217,12	1290,22
217,34	1232,88
217,56	1259,50
217,78	1312,75
218,00	1310,70
218,22	1290,22
218,44	1224,69
218,66	1251,31
218,87	1322,99
219,09	1312,75
219,31	1279,98
219,53	1232,88
219,75	1300,46
219,97	1228,78
220,19	1236,97
220,41	1275,88
220,63	1259,50
220,85	1304,56
221,06	1277,93
221,28	1261,55
221,50	1265,64
221,72	1247,21
221,94	1300,46
222,16	1239,02
222,38	1224,69
222,60	1308,65
222,82	1275,88
223,03	1253,36
223,25	1298,41
223,47	1239,02
223,69	1259,50
223,91	1292,27
224,13	1271,79
224,35	1306,60
224,57	1214,45
224,78	1261,55
225,00	1214,45
225,22	1331,18
225,44	1247,21
225,66	1232,88
225,88	1273,84
226,10	1263,60
226,32	1257,45
226,53	1290,22
226,75	1243,12
226,97	1220,59
227,19	1212,40
227,41	1304,56
227,63	1253,36
227,85	1167,34
228,06	1304,56
228,28	1279,98
228,50	1306,60
228,72	1290,22
228,94	1271,79
229,16	1236,97
229,37	1241,07
229,59	1271,79
229,81	1331,18
230,03	1239,02
230,25	1302,51
230,47	1245,16
230,69	1204,21
230,90	1304,56
231,12	1251,31
231,34	1255,40
231,56	1269,74
231,78	1275,88
232,00	1282,03
232,21	1308,65
232,43	1273,84
232,65	1245,16
232,87	1271,79
233,09	1308,65
233,30	1296,36
233,52	1247,21
233,74	1286,12
233,96	1286,12
234,18	1288,17
234,40	1218,54
234,61	1290,22
234,83	1257,45
235,05	1296,36
235,27	1308,65
235,49	1214,45
235,70	1200,11
235,92	1329,13
236,14	1271,79
236,36	1288,17
236,58	1300,46
236,79	1273,84
237,01	1226,73
237,23	1245,16
237,45	1232,88
237,67	1210,35
237,88	1210,35
238,10	1271,79
238,32	1322,99
238,54	1212,40
238,76	1230,83
238,97	1239,02
239,19	1271,79
239,41	1204,21
239,63	1279,98
239,85	1230,83
240,06	1249,26
240,28	1263,60
240,50	1288,17
240,72	1265,64
240,93	1282,03
241,15	1273,84
241,37	1210,35
241,59	1257,45
241,81	1241,07
242,02	1245,16
242,24	1361,90
242,46	1249,26
242,68	1210,35
242,89	1259,50
243,11	1249,26
243,33	1320,94
243,55	1210,35
243,76	1245,16
243,98	1275,88
244,20	1200,11
244,42	1255,40
244,64	1282,03
244,85	1232,88
245,07	1226,73
245,29	1361,90
245,51	1267,69
245,72	1275,88
245,94	1241,07
246,16	1269,74
246,38	1302,51
246,59	1284,08
246,81	1314,80
247,03	1273,84
247,24	1308,65
247,46	1234,93
247,68	1247,21
247,90	1308,65
248,11	1333,23
248,33	1269,74
248,55	1249,26
248,77	1257,45
248,98	1331,18
249,20	1316,84
249,42	1218,54
249,64	1329,13
249,85	1294,32
250,07	1353,71
250,29	1271,79
250,50	1284,08
250,72	1241,07
250,94	1255,40
251,16	1314,80
251,37	1269,74
251,59	1275,88
251,81	1255,40
252,02	1273,84
252,24	1306,60
252,46	1202,16
252,68	1286,12
252,89	1288,17
253,11	1187,82
253,33	1269,74
253,54	1261,55
253,76	1241,07
253,98	1259,50
254,20	1267,69
254,41	1255,40
254,63	1314,80
254,85	1241,07
255,06	1327,08
255,28	1286,12
255,50	1249,26
255,71	1277,93
255,93	1269,74
256,15	1300,46
256,36	1316,84
256,58	1236,97
256,80	1322,99
257,02	1249,26
257,23	1284,08
257,45	1236,97
257,67	1279,98
257,88	1257,45
258,10	1282,03
258,32	1263,60
258,53	1247,21
258,75	1259,50
258,97	1267,69
259,18	1316,84
259,40	1290,22
259,62	1263,60
259,83	1286,12
260,05	1286,12
260,27	1296,36
260,48	1224,69
260,70	1269,74
260,92	1286,12
261,13	1282,03
261,35	1265,64
261,57	1247,21
261,78	1228,78
262,00	1273,84
262,22	1282,03
262,43	1255,40
262,65	1282,03
262,86	1325,04
263,08	1253,36
263,30	1269,74
263,51	1265,64
263,73	1253,36
263,95	1292,27
264,16	1257,45
264,38	1282,03
264,60	1284,08
264,81	1265,64
265,03	1236,97
265,25	1282,03
265,46	1300,46
265,68	1310,70
265,89	1286,12
266,11	1288,17
266,33	1253,36
266,54	1234,93
266,76	1257,45
266,98	1277,93
267,19	1370,09
267,41	1259,50
267,62	1277,93
267,84	1214,45
268,06	1277,93
268,27	1269,74
268,49	1306,60
268,70	1275,88
268,92	1322,99
269,14	1269,74
269,35	1257,45
269,57	1253,36
269,79	1259,50
270,00	1345,52
270,22	1322,99
270,43	1239,02
270,65	1234,93
270,87	1284,08
271,08	1218,54
271,30	1249,26
271,51	1234,93
271,73	1290,22
271,95	1298,41
272,16	1222,64
272,38	1271,79
272,59	1277,93
272,81	1320,94
273,02	1253,36
273,24	1212,40
273,46	1286,12
273,67	1257,45
273,89	1193,97
274,10	1265,64
274,32	1273,84
274,54	1265,64
274,75	1290,22
274,97	1202,16
275,18	1318,89
275,40	1247,21
275,61	1251,31
275,83	1245,16
276,05	1288,17
276,26	1314,80
276,48	1308,65
276,69	1294,32
276,91	1230,83
277,12	1298,41
277,34	1347,56
277,55	1230,83
277,77	1292,27
277,99	1341,42
278,20	1198,06
278,42	1265,64
278,63	1222,64
278,85	1224,69
279,06	1230,83
279,28	1392,62
279,49	1288,17
279,71	1245,16
279,93	1251,31
280,14	1265,64
280,36	1282,03
280,57	1286,12
280,79	1249,26
281,00	1224,69
281,22	1239,02
281,43	1304,56
281,65	1216,49
281,86	1277,93
282,08	1310,70
282,29	1310,70
282,51	1267,69
282,73	1265,64
282,94	1267,69
283,16	1273,84
283,37	1232,88
283,59	1239,02
283,80	1304,56
284,02	1337,32
284,23	1265,64
284,45	1230,83
284,66	1259,50
284,88	1282,03
285,09	1290,22
285,31	1247,21
285,52	1310,70
285,74	1310,70
285,95	1341,42
286,17	1253,36
286,38	1279,98
286,60	1249,26
286,81	1243,12
287,03	1300,46
287,24	1314,80
287,46	1181,68
287,67	1247,21
287,89	1226,73
288,10	1314,80
288,32	1255,40
288,53	1355,76
288,75	1290,22
288,96	1228,78
289,18	1257,45
289,39	1224,69
289,61	1257,45
289,82	1241,07
290,04	1306,60
290,25	1259,50
290,47	1265,64
290,68	1331,18
290,90	1216,49
291,11	1325,04
291,33	1320,94
291,54	1255,40
291,76	1271,79
291,97	1263,60
292,18	1263,60
292,40	1259,50
292,61	1239,02
292,83	1312,75
293,04	1236,97
293,26	1327,08
293,47	1234,93
293,69	1306,60
293,90	1296,36
294,12	1265,64
294,33	1343,47
294,55	1257,45
294,76	1312,75
294,97	1259,50
295,19	1329,13
295,40	1284,08
295,62	1271,79
295,83	1318,89
296,05	1279,98
296,26	1337,32
296,48	1298,41
296,69	1333,23
296,90	1226,73
297,12	1290,22
297,33	1296,36
297,55	1208,30
297,76	1196,01
297,98	1312,75
298,19	1294,32
298,41	1310,70
298,62	1312,75
298,83	1327,08
299,05	1298,41
299,26	1294,32
299,48	1214,45
299,69	1243,12
299,90	1331,18
300,12	1304,56
300,33	1269,74
300,55	1265,64
300,76	1294,32
300,98	1249,26
301,19	1290,22
301,40	1241,07
301,62	1314,80
301,83	1255,40
302,05	1249,26
302,26	1232,88
302,47	1275,88
302,69	1277,93
302,90	1251,31
303,12	1234,93
303,33	1214,45
303,54	1353,71
303,76	1243,12
303,97	1322,99
304,19	1236,97
304,40	1306,60
304,61	1267,69
304,83	1212,40
305,04	1241,07
305,26	1300,46
305,47	1304,56
305,68	1241,07
305,90	1228,78
306,11	1298,41
306,33	1273,84
306,54	1228,78
306,75	1216,49
306,97	1277,93
307,18	1271,79
307,39	1279,98
307,61	1249,26
307,82	1234,93
308,04	1308,65
308,25	1226,73
308,46	1241,07
308,68	1255,40
308,89	1220,59
309,10	1284,08
309,32	1302,51
309,53	1255,40
309,74	1279,98
309,96	1247,21
310,17	1298,41
310,39	1304,56
310,60	1288,17
310,81	1298,41
311,03	1314,80
311,24	1210,35
311,45	1261,55
311,67	1234,93
311,88	1296,36
312,09	1298,41
312,31	1292,27
312,52	1249,26
312,73	1263,60
312,95	1286,12
313,16	1273,84
313,37	1228,78
313,59	1247,21
313,80	1202,16
314,01	1331,18
314,23	1294,32
314,44	1263,60
314,65	1279,98
314,87	1279,98
315,08	1265,64
315,29	1263,60
315,51	1275,88
315,72	1267,69
315,93	1257,45
316,15	1298,41
316,36	1175,53
316,57	1275,88
316,79	1228,78
317,00	1171,44
317,21	1224,69
317,43	1279,98
317,64	1306,60
317,85	1249,26
318,07	1261,55
318,28	1202,16
318,49	1329,13
318,70	1269,74
318,92	1230,83
319,13	1251,31
319,34	1210,35
319,56	1296,36
319,77	1277,93
319,98	1271,79
320,20	1275,88
320,41	1241,07
320,62	1296,36
320,83	1220,59
321,05	1232,88
321,26	1273,84
321,47	1218,54
321,69	1247,21
321,90	1322,99
322,11	1271,79
322,32	1214,45
322,54	1290,22
322,75	1232,88
322,96	1255,40
323,18	1249,26
323,39	1212,40
323,60	1314,80
323,81	1316,84
324,03	1261,55
324,24	1259,50
324,45	1206,25
324,66	1294,32
324,88	1292,27
325,09	1357,80
325,30	1245,16
325,52	1216,49
325,73	1298,41
325,94	1294,32
326,15	1316,84
326,37	1282,03
326,58	1259,50
326,79	1245,16
327,00	1271,79
327,22	1306,60
327,43	1288,17
327,64	1253,36
327,85	1327,08
328,07	1148,91
328,28	1302,51
328,49	1286,12
328,70	1269,74
328,92	1222,64
329,13	1306,60
329,34	1196,01
329,55	1322,99
329,76	1306,60
329,98	1273,84
330,19	1271,79
330,40	1288,17
330,61	1277,93
330,83	1304,56
331,04	1239,02
331,25	1179,63
331,46	1255,40
331,68	1273,84
331,89	1204,21
332,10	1345,52
332,31	1322,99
332,52	1216,49
332,74	1261,55
332,95	1253,36
333,16	1259,50
333,37	1296,36
333,58	1308,65
333,80	1308,65
334,01	1228,78
334,22	1312,75
334,43	1288,17
334,64	1239,02
334,86	1269,74
335,07	1267,69
335,28	1245,16
335,49	1325,04
335,70	1329,13
335,92	1296,36
336,13	1339,37
336,34	1271,79
336,55	1206,25
336,76	1273,84
336,98	1263,60
337,19	1306,60
337,40	1273,84
337,61	1267,69
337,82	1290,22
338,04	1224,69
338,25	1288,17
338,46	1241,07
338,67	1271,79
338,88	1230,83
339,09	1290,22
339,31	1245,16
339,52	1249,26
339,73	1329,13
339,94	1339,37
340,15	1230,83
340,36	1275,88
340,58	1253,36
340,79	1257,45
341,00	1273,84
341,21	1265,64
341,42	1320,94
341,63	1341,42
341,85	1257,45
342,06	1255,40
342,27	1298,41
342,48	1249,26
342,69	1249,26
342,90	1282,03
343,12	1263,60
343,33	1222,64
343,54	1339,37
343,75	1218,54
343,96	1239,02
344,17	1308,65
344,38	1351,66
344,60	1230,83
344,81	1222,64
345,02	1304,56
345,23	1202,16
345,44	1306,60
345,65	1308,65
345,86	1200,11
346,07	1316,84
346,29	1290,22
346,50	1318,89
346,71	1279,98
346,92	1241,07
347,13	1308,65
347,34	1275,88
347,55	1249,26
347,76	1341,42
347,98	1284,08
348,19	1228,78
348,40	1212,40
348,61	1277,93
348,82	1288,17
349,03	1337,32
349,24	1296,36
349,45	1286,12
349,66	1247,21
349,88	1216,49
350,09	1259,50
350,30	1273,84
350,51	1239,02
350,72	1349,61
350,93	1296,36
351,14	1212,40
351,35	1304,56
351,56	1271,79
351,77	1333,23
351,99	1243,12
352,20	1251,31
352,41	1236,97
352,62	1273,84
352,83	1286,12
353,04	1271,79
353,25	1279,98
353,46	1370,09
353,67	1243,12
353,88	1318,89
354,09	1314,80
354,30	1247,21
354,52	1300,46
354,73	1339,37
354,94	1249,26
355,15	1269,74
355,36	1222,64
355,57	1341,42
355,78	1333,23
355,99	1259,50
356,20	1230,83
356,41	1220,59
356,62	1257,45
356,83	1255,40
357,04	1218,54
357,25	1322,99
357,46	1257,45
357,68	1277,93
357,89	1353,71
358,10	1257,45
358,31	1304,56
358,52	1279,98
358,73	1275,88
358,94	1241,07
359,15	1275,88
359,36	1271,79
359,57	1216,49
359,78	1253,36
359,99	1304,56
360,20	1241,07
360,41	1245,16
360,62	1239,02
360,83	1255,40
361,04	1279,98
361,25	1251,31
361,46	1288,17
361,67	1175,53
361,88	1316,84
362,09	1259,50
362,30	1247,21
362,51	1279,98
362,72	1259,50
362,93	1273,84
363,14	1249,26
363,35	1284,08
363,56	1263,60
363,78	1249,26
363,99	1241,07
364,20	1292,27
364,41	1341,42
364,62	1286,12
364,83	1243,12
365,04	1341,42
365,25	1271,79
365,46	1312,75
365,67	1245,16
365,88	1294,32
366,09	1255,40
366,30	1234,93
366,51	1337,32
366,72	1349,61
366,93	1245,16
367,14	1214,45
367,35	1290,22
367,56	1202,16
367,77	1294,32
367,98	1253,36
368,18	1263,60
368,39	1247,21
368,60	1277,93
368,81	1208,30
369,02	1273,84
369,23	1269,74
369,44	1261,55
369,65	1234,93
369,86	1259,50
370,07	1263,60
370,28	1302,51
370,49	1247,21
370,70	1314,80
370,91	1249,26
371,12	1251,31
371,33	1263,60
371,54	1247,21
371,75	1267,69
371,96	1361,90
372,17	1257,45
372,38	1282,03
372,59	1241,07
372,80	1191,92
373,01	1232,88
373,22	1294,32
373,43	1290,22
373,64	1251,31
373,85	1265,64
374,06	1329,13
374,26	1312,75
374,47	1157,10
374,68	1265,64
374,89	1267,69
375,10	1259,50
375,31	1200,11
375,52	1292,27
375,73	1210,35
375,94	1261,55
376,15	1288,17
376,36	1298,41
376,57	1279,98
376,78	1230,83
376,99	1288,17
377,20	1236,97
377,40	1263,60
377,61	1322,99
377,82	1296,36
378,03	1241,07
378,24	1320,94
378,45	1234,93
378,66	1275,88
378,87	1196,01
379,08	1322,99
379,29	1267,69
379,50	1267,69
379,71	1216,49
379,91	1243,12
380,12	1245,16
380,33	1241,07
380,54	1259,50
380,75	1210,35
380,96	1265,64
381,17	1245,16
381,38	1251,31
381,59	1310,70
381,80	1288,17
382,00	1255,40
382,21	1298,41
382,42	1322,99
382,63	1265,64
382,84	1290,22
383,05	1257,45
383,26	1222,64
383,47	1292,27
383,68	1325,04
383,88	1277,93
384,09	1298,41
384,30	1257,45
384,51	1191,92
384,72	1296,36
384,93	1288,17
385,14	1243,12
385,35	1277,93
385,55	1257,45
385,76	1277,93
385,97	1236,97
386,18	1232,88
386,39	1196,01
386,60	1284,08
386,81	1191,92
387,02	1247,21
387,22	1368,04
387,43	1296,36
387,64	1253,36
387,85	1296,36
388,06	1224,69
388,27	1259,50
388,48	1286,12
388,68	1275,88
388,89	1298,41
389,10	1304,56
389,31	1245,16
389,52	1253,36
389,73	1175,53
389,93	1271,79
390,14	1273,84
390,35	1302,51
390,56	1265,64
390,77	1247,21
390,98	1253,36
391,18	1325,04
391,39	1269,74
391,60	1322,99
391,81	1322,99
392,02	1255,40
392,23	1296,36
392,43	1271,79
392,64	1222,64
392,85	1296,36
393,06	1282,03
393,27	1320,94
393,47	1208,30
393,68	1265,64
393,89	1196,01
394,10	1314,80
394,31	1234,93
394,52	1300,46
394,72	1247,21
394,93	1257,45
395,14	1220,59
395,35	1314,80
395,56	1275,88
395,76	1288,17
395,97	1249,26
396,18	1282,03
396,39	1325,04
396,60	1275,88
396,80	1298,41
397,01	1298,41
397,22	1234,93
397,43	1249,26
397,64	1329,13
397,84	1177,58
398,05	1214,45
398,26	1284,08
398,47	1333,23
398,67	1259,50
398,88	1269,74
399,09	1255,40
399,30	1226,73
399,51	1304,56
399,71	1335,28
399,92	1273,84
400,13	1290,22
400,34	1279,98
400,54	1228,78
400,75	1277,93
400,96	1206,25
401,17	1296,36
401,37	1275,88
401,58	1331,18
401,79	1294,32
402,00	1239,02
402,21	1273,84
402,41	1306,60
402,62	1273,84
402,83	1206,25
403,04	1251,31
403,24	1267,69
403,45	1234,93
403,66	1228,78
403,87	1298,41
404,07	1228,78
404,28	1294,32
404,49	1302,51
404,70	1279,98
404,90	1206,25
405,11	1253,36
405,32	1329,13
405,52	1292,27
405,73	1306,60
405,94	1263,60
406,15	1392,62
406,35	1277,93
406,56	1222,64
406,77	1273,84
406,98	1263,60
407,18	1282,03
407,39	1271,79
407,60	1253,36
407,80	1312,75
408,01	1345,52
408,22	1247,21
408,43	1241,07
408,63	1273,84
408,84	1294,32
409,05	1253,36
409,25	1208,30
409,46	1222,64
409,67	1288,17
409,88	1288,17
410,08	1322,99
410,29	1155,05
410,50	1255,40
410,70	1259,50
410,91	1236,97
411,12	1304,56
411,32	1263,60
411,53	1175,53
411,74	1257,45
411,95	1247,21
412,15	1245,16
412,36	1159,15
412,57	1265,64
412,77	1265,64
412,98	1257,45
413,19	1251,31
413,39	1294,32
413,60	1341,42
413,81	1261,55
414,01	1193,97
414,22	1269,74
414,43	1273,84
414,63	1177,58
414,84	1257,45
415,05	1279,98
415,25	1265,64
415,46	1257,45
415,67	1226,73
415,87	1318,89
416,08	1251,31
416,29	1290,22
416,49	1275,88
416,70	1230,83
416,91	1226,73
417,11	1243,12
417,32	1269,74
417,53	1265,64
417,73	1357,80
417,94	1312,75
418,15	1282,03
418,35	1245,16
418,56	1357,80
418,77	1277,93
418,97	1249,26
419,18	1228,78
419,38	1263,60
419,59	1269,74
419,80	1320,94
420,00	1322,99
420,21	1288,17
420,42	1269,74
420,62	1265,64
420,83	1239,02
421,04	1314,80
421,24	1341,42
421,45	1265,64
421,65	1298,41
421,86	1292,27
422,07	1222,64
422,27	1290,22
422,48	1294,32
422,69	1294,32
422,89	1214,45
423,10	1267,69
423,30	1277,93
423,51	1277,93
423,72	1247,21
423,92	1261,55
424,13	1200,11
424,33	1290,22
424,54	1200,11
424,75	1261,55
424,95	1263,60
425,16	1224,69
425,36	1218,54
425,57	1232,88
425,78	1308,65
425,98	1261,55
426,19	1251,31
426,39	1247,21
426,60	1259,50
426,81	1279,98
427,01	1294,32
427,22	1337,32
427,42	1269,74
427,63	1286,12
427,83	1300,46
428,04	1251,31
428,25	1333,23
428,45	1239,02
428,66	1257,45
428,86	1249,26
429,07	1204,21
429,28	1339,37
429,48	1322,99
429,69	1302,51
429,89	1198,06
430,10	1349,61
430,30	1269,74
430,51	1290,22
430,71	1292,27
430,92	1241,07
431,13	1314,80
431,33	1271,79
431,54	1247,21
431,74	1314,80
431,95	1255,40
432,15	1191,92
432,36	1318,89
432,56	1322,99
432,77	1222,64
432,98	1271,79
433,18	1282,03
433,39	1202,16
433,59	1267,69
433,80	1343,47
434,00	1257,45
434,21	1228,78
434,41	1206,25
434,62	1239,02
434,82	1306,60
435,03	1251,31
435,23	1167,34
435,44	1279,98
435,64	1234,93
435,85	1249,26
436,06	1267,69
436,26	1322,99
436,47	1286,12
436,67	1263,60
436,88	1277,93
437,08	1259,50
437,29	1265,64
437,49	1228,78
437,70	1286,12
437,90	1288,17
438,11	1279,98
438,31	1220,59
438,52	1228,78
438,72	1267,69
438,93	1245,16
439,13	1273,84
439,34	1333,23
439,54	1265,64
439,75	1269,74
439,95	1267,69
440,16	1257,45
440,36	1294,32
440,57	1290,22
440,77	1296,36
440,98	1294,32
441,18	1304,56
441,39	1245,16
441,59	1259,50
441,80	1316,84
442,00	1265,64
442,21	1259,50
442,41	1243,12
442,62	1288,17
442,82	1294,32
443,02	1374,19
443,23	1263,60
443,43	1349,61
443,64	1232,88
443,84	1304,56
444,05	1296,36
444,25	1265,64
444,46	1302,51
444,66	1275,88
444,87	1282,03
445,07	1216,49
445,28	1279,98
445,48	1206,25
445,69	1298,41
445,89	1363,95
446,09	1341,42
446,30	1259,50
446,50	1282,03
446,71	1269,74
446,91	1249,26
447,12	1261,55
447,32	1302,51
447,53	1275,88
447,73	1286,12
447,93	1308,65
448,14	1261,55
448,34	1208,30
448,55	1333,23
448,75	1241,07
448,96	1249,26
449,16	1216,49
449,36	1306,60
449,57	1236,97
449,77	1304,56
449,98	1282,03
450,18	1304,56
450,39	1243,12
450,59	1230,83
450,79	1318,89
451,00	1298,41
451,20	1261,55
451,41	1226,73
451,61	1282,03
451,81	1304,56
452,02	1265,64
452,22	1275,88
452,43	1257,45
452,63	1331,18
452,84	1337,32
453,04	1292,27
453,24	1308,65
453,45	1275,88
453,65	1292,27
453,86	1269,74
454,06	1261,55
454,26	1279,98
454,47	1263,60
454,67	1267,69
454,87	1292,27
455,08	1341,42
455,28	1310,70
455,49	1314,80
455,69	1343,47
455,89	1314,80
456,10	1302,51
456,30	1216,49
456,51	1257,45
456,71	1298,41
456,91	1259,50
457,12	1302,51
457,32	1259,50
457,52	1269,74
457,73	1269,74
457,93	1279,98
458,14	1259,50
458,34	1331,18
458,54	1249,26
458,75	1247,21
458,95	1259,50
459,15	1298,41
459,36	1247,21
459,56	1208,30
459,76	1316,84
459,97	1310,70
460,17	1279,98
460,37	1312,75
460,58	1224,69
460,78	1234,93
460,99	1271,79
461,19	1265,64
461,39	1277,93
461,60	1210,35
461,80	1320,94
462,00	1189,87
462,21	1243,12
462,41	1261,55
462,61	1279,98
462,82	1306,60
463,02	1302,51
463,22	1296,36
463,43	1349,61
463,63	1306,60
463,83	1275,88
464,04	1265,64
464,24	1241,07
464,44	1232,88
464,64	1288,17
464,85	1257,45
465,05	1275,88
465,25	1220,59
465,46	1265,64
465,66	1333,23
465,86	1288,17
466,07	1239,02
466,27	1241,07
466,47	1259,50
466,68	1282,03
466,88	1370,09
467,08	1284,08
467,29	1294,32
467,49	1236,97
467,69	1286,12
467,89	1239,02
468,10	1322,99
468,30	1249,26
468,50	1286,12
468,71	1257,45
468,91	1277,93
469,11	1269,74
469,31	1241,07
469,52	1224,69
469,72	1241,07
469,92	1302,51
470,13	1292,27
470,33	1288,17
470,53	1269,74
470,73	1222,64
470,94	1216,49
471,14	1312,75
471,34	1265,64
471,54	1275,88
471,75	1236,97
471,95	1232,88
472,15	1314,80
472,36	1322,99
472,56	1239,02
472,76	1277,93
472,96	1298,41
473,17	1241,07
473,37	1306,60
473,57	1245,16
473,77	1257,45
473,98	1306,60
474,18	1249,26
474,38	1308,65
474,58	1314,80
474,79	1271,79
474,99	1363,95
475,19	1259,50
475,39	1306,60
475,60	1267,69
475,80	1310,70
476,00	1267,69
476,20	1282,03
476,41	1236,97
476,61	1347,56
476,81	1327,08
477,01	1224,69
477,21	1288,17
477,42	1200,11
477,62	1296,36
477,82	1224,69
478,02	1241,07
478,23	1282,03
478,43	1279,98
478,63	1232,88
478,83	1279,98
479,03	1290,22
479,24	1314,80
479,44	1282,03
479,64	1279,98
479,84	1263,60
480,04	1308,65
480,25	1273,84
480,45	1212,40
480,65	1339,37
480,85	1284,08
481,06	1247,21
481,26	1251,31
481,46	1279,98
481,66	1306,60
481,86	1331,18
482,06	1200,11
482,27	1183,73
482,47	1306,60
482,67	1304,56
482,87	1239,02
483,07	1226,73
483,28	1236,97
483,48	1255,40
483,68	1269,74
483,88	1239,02
484,08	1263,60
484,29	1290,22
484,49	1259,50
484,69	1251,31
484,89	1271,79
485,09	1253,36
485,29	1263,60
485,50	1282,03
485,70	1288,17
485,90	1232,88
486,10	1294,32
486,30	1318,89
486,50	1347,56
486,71	1286,12
486,91	1241,07
487,11	1294,32
487,31	1277,93
487,51	1208,30
487,71	1210,35
487,91	1306,60
488,12	1222,64
488,32	1290,22
488,52	1265,64
488,72	1265,64
488,92	1257,45
489,12	1282,03
489,32	1275,88
489,53	1200,11
489,73	1294,32
489,93	1263,60
490,13	1275,88
490,33	1265,64
490,53	1257,45
490,73	1357,80
490,94	1298,41
491,14	1423,34
491,34	1275,88
491,54	1341,42
491,74	1261,55
491,94	1265,64
492,14	1245,16
492,34	1241,07
492,54	1259,50
492,75	1247,21
492,95	1288,17
493,15	1290,22
493,35	1286,12
493,55	1247,21
493,75	1259,50
493,95	1325,04
494,15	1302,51
494,35	1277,93
494,56	1294,32
494,76	1286,12
494,96	1282,03
495,16	1300,46
495,36	1200,11
495,56	1331,18
495,76	1265,64
495,96	1269,74
496,16	1230,83
496,36	1261,55
496,56	1243,12
496,77	1288,17
496,97	1212,40
497,17	1200,11
497,37	1327,08
497,57	1247,21
497,77	1316,84
497,97	1310,70
498,17	1243,12
498,37	1212,40
498,57	1234,93
498,77	1363,95
498,97	1279,98
499,17	1318,89
499,38	1318,89
499,58	1327,08
499,78	1239,02
499,98	1308,65
500,18	1236,97
500,38	1273,84
500,58	1296,36
500,78	1222,64
500,98	1370,09
501,18	1300,46
501,38	1220,59
501,58	1259,50
501,78	1275,88
501,98	1239,02
502,18	1253,36
502,38	1222,64
502,58	1292,27
502,78	1247,21
502,98	1271,79
503,18	1318,89
503,38	1261,55
503,59	1208,30
503,79	1300,46
503,99	1255,40
504,19	1331,18
504,39	1304,56
504,59	1372,14
504,79	1320,94
504,99	1214,45
505,19	1265,64
505,39	1251,31
505,59	1304,56
505,79	1208,30
505,99	1335,28
506,19	1306,60
506,39	1265,64
506,59	1198,06
506,79	1308,65
506,99	1296,36
507,19	1232,88
507,39	1243,12
507,59	1236,97
507,79	1265,64
507,99	1294,32
508,19	1273,84
508,39	1253,36
508,59	1290,22
508,79	1372,14
508,99	1255,40
509,19	1259,50
509,39	1290,22
509,59	1245,16
509,79	1251,31
509,99	1251,31
510,19	1300,46
510,39	1308,65
510,59	1259,50
510,79	1333,23
510,99	1279,98
511,19	1384,43
511,39	1302,51
511,59	1259,50
511,79	1363,95
511,99	1302,51
512,19	1249,26
512,38	1290,22
512,58	1267,69
512,78	1343,47
512,98	1318,89
513,18	1298,41
513,38	1234,93
513,58	1265,64
513,78	1288,17
513,98	1359,85
514,18	1294,32
514,38	1267,69
514,58	1200,11
514,78	1325,04
514,98	1243,12
515,18	1253,36
515,38	1290,22
515,58	1327,08
515,78	1245,16
515,98	1308,65
516,18	1392,62
516,38	1257,45
516,57	1245,16
516,77	1320,94
516,97	1292,27
517,17	1269,74
517,37	1273,84
517,57	1286,12
517,77	1271,79
517,97	1343,47
518,17	1294,32
518,37	1230,83
518,57	1265,64
518,77	1247,21
518,97	1259,50
519,16	1351,66
519,36	1259,50
519,56	1290,22
519,76	1282,03
519,96	1290,22
520,16	1251,31
520,36	1320,94
520,56	1277,93
520,76	1265,64
520,96	1290,22
521,16	1347,56
521,35	1273,84
521,55	1304,56
521,75	1316,84
521,95	1343,47
522,15	1234,93
522,35	1275,88
522,55	1279,98
522,75	1253,36
522,95	1296,36
523,14	1296,36
523,34	1191,92
523,54	1282,03
523,74	1224,69
523,94	1282,03
524,14	1222,64
524,34	1325,04
524,54	1298,41
524,73	1282,03
524,93	1255,40
525,13	1249,26
525,33	1322,99
525,53	1304,56
525,73	1253,36
525,93	1198,06
526,13	1333,23
526,32	1363,95
526,52	1265,64
526,72	1306,60
526,92	1226,73
527,12	1302,51
527,32	1341,42
527,52	1200,11
527,71	1308,65
527,91	1337,32
528,11	1208,30
528,31	1304,56
528,51	1253,36
528,71	1304,56
528,90	1232,88
529,10	1261,55
529,30	1363,95
529,50	1327,08
529,70	1255,40
529,90	1273,84
530,09	1210,35
530,29	1234,93
530,49	1277,93
530,69	1310,70
530,89	1327,08
531,09	1273,84
531,28	1282,03
531,48	1306,60
531,68	1306,60
531,88	1290,22
532,08	1296,36
532,28	1288,17
532,47	1245,16
532,67	1265,64
532,87	1263,60
533,07	1239,02
533,27	1306,60
533,46	1257,45
533,66	1302,51
533,86	1306,60
534,06	1302,51
534,26	1331,18
534,45	1300,46
534,65	1314,80
534,85	1298,41
535,05	1198,06
535,25	1243,12
535,44	1224,69
535,64	1341,42
535,84	1255,40
536,04	1224,69
536,24	1298,41
536,43	1282,03
536,63	1333,23
536,83	1275,88
537,03	1259,50
537,22	1306,60
537,42	1318,89
537,62	1314,80
537,82	1216,49
538,02	1232,88
538,21	1345,52
538,41	1269,74
538,61	1298,41
538,81	1351,66
539,00	1310,70
539,20	1341,42
539,40	1343,47
539,60	1206,25
539,79	1314,80
539,99	1380,33
540,19	1361,90
540,39	1316,84
540,58	1306,60
540,78	1327,08
540,98	1222,64
541,18	1277,93
541,37	1216,49
541,57	1331,18
541,77	1290,22
541,97	1257,45
542,16	1269,74
542,36	1226,73
542,56	1236,97
542,76	1257,45
542,95	1271,79
543,15	1310,70
543,35	1275,88
543,54	1261,55
543,74	1208,30
543,94	1261,55
544,14	1208,30
544,33	1302,51
544,53	1333,23
544,73	1269,74
544,93	1263,60
545,12	1232,88
545,32	1331,18
545,52	1257,45
545,71	1312,75
545,91	1241,07
546,11	1368,04
546,30	1259,50
546,50	1396,71
546,70	1191,92
546,90	1341,42
547,09	1333,23
547,29	1331,18
547,49	1292,27
547,68	1298,41
547,88	1310,70
548,08	1335,28
548,27	1322,99
548,47	1273,84
548,67	1189,87
548,87	1251,31
549,06	1253,36
549,26	1320,94
549,46	1261,55
549,65	1298,41
549,85	1267,69
550,05	1253,36
550,24	1257,45
550,44	1306,60
550,64	1253,36
550,83	1288,17
551,03	1269,74
551,23	1402,86
551,42	1298,41
551,62	1304,56
551,82	1279,98
552,01	1239,02
552,21	1257,45
552,41	1263,60
552,60	1282,03
552,80	1290,22
553,00	1234,93
553,19	1282,03
553,39	1304,56
553,59	1275,88
553,78	1288,17
553,98	1329,13
554,17	1327,08
554,37	1253,36
554,57	1265,64
554,76	1277,93
554,96	1253,36
555,16	1292,27
555,35	1253,36
555,55	1249,26
555,75	1347,56
555,94	1314,80
556,14	1339,37
556,33	1292,27
556,53	1241,07
556,73	1263,60
556,92	1273,84
557,12	1294,32
557,32	1263,60
557,51	1304,56
557,71	1255,40
557,90	1296,36
558,10	1286,12
558,30	1255,40
558,49	1220,59
558,69	1257,45
558,88	1265,64
559,08	1304,56
559,28	1337,32
559,47	1200,11
559,67	1286,12
559,86	1304,56
560,06	1271,79
560,26	1273,84
560,45	1243,12
560,65	1253,36
560,84	1257,45
561,04	1286,12
561,24	1259,50
561,43	1277,93
561,63	1304,56
561,82	1226,73
562,02	1249,26
562,22	1396,71
562,41	1202,16
562,61	1255,40
562,80	1310,70
563,00	1275,88
563,19	1232,88
563,39	1296,36
563,59	1282,03
563,78	1296,36
563,98	1290,22
564,17	1376,24
564,37	1249,26
564,56	1296,36
564,76	1318,89
564,96	1228,78
565,15	1316,84
565,35	1200,11
565,54	1189,87
565,74	1294,32
565,93	1208,30
566,13	1279,98
566,32	1279,98
566,52	1290,22
566,71	1279,98
566,91	1279,98
567,11	1257,45
567,30	1232,88
567,50	1302,51
567,69	1249,26
567,89	1255,40
568,08	1282,03
568,28	1284,08
568,47	1308,65
568,67	1312,75
568,86	1255,40
569,06	1263,60
569,25	1236,97
569,45	1245,16
569,64	1228,78
569,84	1300,46
570,04	1230,83
570,23	1239,02
570,43	1329,13
570,62	1312,75
570,82	1302,51
571,01	1290,22
571,21	1308,65
571,40	1292,27
571,60	1390,57
571,79	1255,40
571,99	1257,45
572,18	1243,12
572,38	1239,02
572,57	1263,60
572,77	1288,17
572,96	1245,16
573,16	1286,12
573,35	1275,88
573,55	1302,51
573,74	1253,36
573,94	1263,60
574,13	1300,46
574,33	1279,98
574,52	1267,69
574,71	1308,65
574,91	1241,07
575,10	1226,73
575,30	1265,64
575,49	1265,64
575,69	1296,36
575,88	1208,30
576,08	1308,65
576,27	1357,80
576,47	1318,89
576,66	1372,14
576,86	1261,55
577,05	1314,80
577,25	1277,93
577,44	1312,75
577,64	1300,46
577,83	1339,37
578,02	1296,36
578,22	1271,79
578,41	1345,52
578,61	1271,79
578,80	1247,21
579,00	1263,60
579,19	1257,45
579,39	1204,21
579,58	1286,12
579,77	1286,12
579,97	1282,03
580,16	1327,08
580,36	1253,36
580,55	1292,27
580,75	1304,56
580,94	1249,26
581,13	1300,46
581,33	1267,69
581,52	1308,65
581,72	1296,36
581,91	1251,31
582,11	1282,03
582,30	1304,56
582,49	1271,79
582,69	1220,59
582,88	1279,98
583,08	1169,39
583,27	1325,04
583,47	1273,84
583,66	1296,36
583,85	1286,12
584,05	1251,31
584,24	1269,74
584,44	1290,22
584,63	1265,64
584,82	1196,01
585,02	1310,70
585,21	1331,18
585,41	1267,69
585,60	1273,84
585,79	1343,47
585,99	1304,56
586,18	1290,22
586,37	1282,03
586,57	1216,49
586,76	1320,94
586,96	1216,49
587,15	1292,27
587,34	1255,40
587,54	1300,46
587,73	1239,02
587,93	1290,22
588,12	1304,56
588,31	1253,36
588,51	1279,98
588,70	1290,22
588,89	1339,37
589,09	1271,79
589,28	1247,21
589,47	1245,16
589,67	1257,45
589,86	1333,23
590,06	1275,88
590,25	1243,12
590,44	1273,84
590,64	1327,08
590,83	1226,73
591,02	1243,12
591,22	1212,40
591,41	1353,71
591,60	1300,46
591,80	1327,08
591,99	1202,16
592,18	1288,17
592,38	1345,52
592,57	1249,26
592,76	1349,61
592,96	1282,03
593,15	1302,51
593,34	1269,74
593,54	1220,59
593,73	1232,88
593,92	1306,60
594,12	1257,45
594,31	1290,22
594,50	1284,08
594,70	1361,90
594,89	1216,49
595,08	1255,40
595,28	1314,80
595,47	1251,31
595,66	1312,75
595,86	1290,22
596,05	1304,56
596,24	1310,70
596,43	1312,75
596,63	1300,46
596,82	1282,03
597,01	1265,64
597,21	1329,13
597,40	1214,45
597,59	1273,84
597,79	1333,23
597,98	1249,26
598,17	1314,80
598,36	1261,55
598,56	1279,98
598,75	1179,63
598,94	1265,64
599,14	1312,75
599,33	1247,21
599,52	1247,21
599,71	1333,23
599,91	1359,85
600,10	1241,07
600,29	1249,26
600,48	1249,26
600,68	1286,12
600,87	1312,75
601,06	1384,43
601,26	1304,56
601,45	1351,66
601,64	1261,55
601,83	1206,25
602,03	1290,22
602,22	1288,17
602,41	1265,64
602,60	1271,79
602,80	1296,36
602,99	1316,84
603,18	1271,79
603,37	1353,71
603,57	1261,55
603,76	1212,40
603,95	1271,79
604,14	1325,04
604,34	1355,76
604,53	1286,12
604,72	1247,21
604,91	1368,04
605,10	1277,93
605,30	1275,88
605,49	1335,28
605,68	1380,33
605,87	1400,81
606,07	1294,32
606,26	1306,60
606,45	1253,36
606,64	1263,60
606,84	1222,64
607,03	1226,73
607,22	1257,45
607,41	1284,08
607,60	1249,26
607,80	1222,64
607,99	1247,21
608,18	1290,22
608,37	1259,50
608,56	1261,55
608,76	1249,26
608,95	1282,03
609,14	1239,02
609,33	1204,21
609,52	1279,98
609,72	1286,12
609,91	1331,18
610,10	1322,99
610,29	1322,99
610,48	1261,55
610,68	1251,31
610,87	1298,41
611,06	1228,78
611,25	1241,07
611,44	1253,36
611,63	1290,22
611,83	1247,21
612,02	1253,36
612,21	1279,98
612,40	1302,51
612,59	1241,07
612,79	1251,31
612,98	1271,79
613,17	1351,66
613,36	1318,89
613,55	1296,36
613,74	1308,65
613,93	1302,51
614,13	1294,32
614,32	1202,16
614,51	1339,37
614,70	1329,13
614,89	1265,64
615,08	1306,60
615,28	1398,76
615,47	1355,76
615,66	1282,03
615,85	1298,41
616,04	1335,28
616,23	1343,47
616,42	1302,51
616,62	1300,46
616,81	1271,79
617,00	1257,45
617,19	1234,93
617,38	1241,07
617,57	1302,51
617,76	1341,42
617,95	1273,84
618,15	1284,08
618,34	1316,84
618,53	1279,98
618,72	1292,27
618,91	1329,13
619,10	1333,23
619,29	1318,89
619,48	1263,60
619,68	1247,21
619,87	1286,12
620,06	1269,74
620,25	1282,03
620,44	1331,18
620,63	1325,04
620,82	1386,47
621,01	1312,75
621,20	1294,32
621,39	1296,36
621,59	1310,70
621,78	1284,08
621,97	1257,45
622,16	1271,79
622,35	1239,02
622,54	1277,93
622,73	1286,12
622,92	1306,60
623,11	1257,45
623,30	1241,07
623,49	1318,89
623,68	1222,64
623,88	1261,55
624,07	1363,95
624,26	1292,27
624,45	1380,33
624,64	1337,32
624,83	1282,03
625,02	1335,28
625,21	1273,84
625,40	1357,80
625,59	1277,93
625,78	1298,41
625,97	1261,55
626,16	1259,50
626,35	1230,83
626,54	1224,69
626,74	1304,56
626,93	1279,98
627,12	1277,93
627,31	1312,75
627,50	1251,31
627,69	1312,75
627,88	1296,36
628,07	1353,71
628,26	1282,03
628,45	1347,56
628,64	1294,32
628,83	1251,31
629,02	1286,12
629,21	1210,35
629,40	1292,27
629,59	1343,47
629,78	1361,90
629,97	1337,32
630,16	1241,07
630,35	1316,84
630,54	1320,94
630,73	1261,55
630,92	1318,89
631,11	1312,75
631,30	1331,18
631,49	1368,04
631,68	1325,04
631,87	1521,64
632,06	1892,32
632,25	1503,21
632,44	1640,42
632,63	1998,82
632,82	2306,01
633,01	5480,36
633,20	4995,00
633,39	3858,37
633,58	2101,22
633,77	2942,93
633,96	6049,70
634,15	6881,18
634,34	5449,64
634,53	3960,77
634,72	2635,74
634,91	2037,73
635,10	1685,48
635,29	1697,77
635,48	1568,74
635,67	1544,17
635,86	1462,25
636,05	1454,06
636,24	1429,48
636,43	1427,43
636,62	1282,03
636,81	1370,09
637,00	1351,66
637,19	1335,28
637,38	1378,28
637,57	1261,55
637,76	1255,40
637,95	1318,89
638,14	1378,28
638,33	1261,55
638,52	1296,36
638,71	1322,99
638,89	1359,85
639,08	1292,27
639,27	1347,56
639,46	1347,56
639,65	1339,37
639,84	1302,51
640,03	1337,32
640,22	1251,31
640,41	1284,08
640,60	1226,73
640,79	1236,97
640,98	1331,18
641,17	1329,13
641,36	1335,28
641,55	1273,84
641,74	1304,56
641,92	1253,36
642,11	1277,93
642,30	1312,75
642,49	1277,93
642,68	1298,41
642,87	1267,69
643,06	1347,56
643,25	1286,12
643,44	1329,13
643,63	1245,16
643,82	1255,40
644,00	1263,60
644,19	1220,59
644,38	1245,16
644,57	1308,65
644,76	1273,84
644,95	1298,41
645,14	1279,98
645,33	1232,88
645,52	1208,30
645,71	1222,64
645,89	1263,60
646,08	1243,12
646,27	1183,73
646,46	1271,79
646,65	1261,55
646,84	1327,08
647,03	1236,97
647,22	1224,69
647,40	1243,12
647,59	1363,95
647,78	1224,69
647,97	1339,37
648,16	1267,69
648,35	1247,21
648,54	1294,32
648,73	1241,07
648,91	1267,69
649,10	1363,95
649,29	1286,12
649,48	1181,68
649,67	1232,88
649,86	1310,70
650,05	1306,60
650,23	1261,55
650,42	1351,66
650,61	1273,84
650,80	1241,07
650,99	1288,17
651,18	1245,16
651,36	1218,54
651,55	1263,60
651,74	1298,41
651,93	1222,64
652,12	1169,39
652,31	1267,69
652,49	1279,98
652,68	1300,46
652,87	1259,50
653,06	1208,30
653,25	1284,08
653,44	1314,80
653,62	1316,84
653,81	1409,00
654,00	1273,84
654,19	1275,88
654,38	1277,93
654,56	1316,84
654,75	1290,22
654,94	1267,69
655,13	1292,27
655,32	1298,41
655,51	1290,22
655,69	1304,56
655,88	1306,60
656,07	1212,40
656,26	1284,08
656,45	1282,03
656,63	1325,04
656,82	1247,21
657,01	1298,41
657,20	1306,60
657,38	1263,60
657,57	1269,74
657,76	1230,83
657,95	1296,36
658,14	1294,32
658,32	1271,79
658,51	1251,31
658,70	1329,13
658,89	1357,80
659,08	1249,26
659,26	1308,65
659,45	1208,30
659,64	1308,65
659,83	1253,36
660,01	1304,56
660,20	1275,88
660,39	1294,32
660,58	1222,64
660,76	1214,45
660,95	1327,08
661,14	1271,79
661,33	1290,22
661,51	1241,07
661,70	1302,51
661,89	1310,70
662,08	1327,08
662,26	1249,26
662,45	1273,84
662,64	1292,27
662,83	1304,56
663,01	1273,84
663,20	1245,16
663,39	1292,27
663,58	1275,88
663,76	1302,51
663,95	1351,66
664,14	1296,36
664,32	1275,88
664,51	1341,42
664,70	1267,69
664,89	1243,12
665,07	1249,26
665,26	1320,94
665,45	1275,88
665,64	1239,02
665,82	1279,98
666,01	1271,79
666,20	1269,74
666,38	1214,45
666,57	1329,13
666,76	1316,84
666,95	1220,59
667,13	1339,37
667,32	1189,87
667,51	1308,65
667,69	1273,84
667,88	1255,40
668,07	1257,45
668,25	1249,26
668,44	1173,49
668,63	1259,50
668,81	1263,60
669,00	1273,84
669,19	1222,64
669,38	1284,08
669,56	1286,12
669,75	1277,93
669,94	1273,84
670,12	1249,26
670,31	1277,93
670,50	1282,03
670,68	1245,16
670,87	1275,88
671,06	1298,41
671,24	1298,41
671,43	1263,60
671,62	1286,12
671,80	1196,01
671,99	1249,26
672,18	1249,26
672,36	1271,79
672,55	1327,08
672,74	1310,70
672,92	1251,31
673,11	1249,26
673,29	1310,70
673,48	1286,12
673,67	1282,03
673,85	1353,71
674,04	1173,49
674,23	1216,49
674,41	1259,50
674,60	1355,76
674,79	1304,56
674,97	1322,99
675,16	1239,02
675,34	1239,02
675,53	1349,61
675,72	1247,21
675,90	1261,55
676,09	1261,55
676,28	1198,06
676,46	1333,23
676,65	1216,49
676,83	1304,56
677,02	1273,84
677,21	1347,56
677,39	1200,11
677,58	1232,88
677,77	1294,32
677,95	1282,03
678,14	1257,45
678,32	1263,60
678,51	1224,69
678,70	1247,21
678,88	1245,16
679,07	1308,65
679,25	1296,36
679,44	1279,98
679,63	1265,64
679,81	1249,26
680,00	1271,79
680,18	1318,89
680,37	1234,93
680,55	1261,55
680,74	1239,02
680,93	1202,16
681,11	1277,93
681,30	1263,60
681,48	1212,40
681,67	1257,45
681,85	1263,60
682,04	1269,74
682,23	1204,21
682,41	1259,50
682,60	1284,08
682,78	1265,64
682,97	1208,30
683,15	1271,79
683,34	1314,80
683,53	1230,83
683,71	1275,88
683,90	1273,84
684,08	1310,70
684,27	1249,26
684,45	1329,13
684,64	1314,80
684,82	1316,84
685,01	1292,27
685,19	1290,22
685,38	1300,46
685,57	1236,97
685,75	1322,99
685,94	1259,50
686,12	1255,40
686,31	1241,07
686,49	1261,55
686,68	1198,06
686,86	1320,94
687,05	1228,78
687,23	1292,27
687,42	1300,46
687,60	1322,99
687,79	1275,88
687,97	1277,93
688,16	1279,98
688,34	1228,78
688,53	1284,08
688,71	1234,93
688,90	1271,79
689,08	1191,92
689,27	1325,04
689,45	1245,16
689,64	1234,93
689,82	1304,56
690,01	1136,62
690,19	1261,55
690,38	1187,82
690,56	1218,54
690,75	1161,20
690,93	1306,60
691,12	1279,98
691,30	1271,79
691,49	1232,88
691,67	1245,16
691,86	1282,03
692,04	1239,02
692,23	1347,56
692,41	1298,41
692,60	1269,74
692,78	1259,50
692,97	1255,40
693,15	1263,60
693,34	1279,98
693,52	1282,03
693,71	1296,36
693,89	1339,37
694,08	1263,60
694,26	1228,78
694,44	1216,49
694,63	1239,02
694,81	1230,83
695,00	1314,80
695,18	1224,69
695,37	1302,51
695,55	1206,25
695,74	1255,40
695,92	1224,69
696,10	1243,12
696,29	1239,02
696,47	1255,40
696,66	1277,93
696,84	1255,40
697,03	1261,55
697,21	1302,51
697,40	1275,88
697,58	1316,84
697,76	1243,12
697,95	1255,40
698,13	1284,08
698,32	1296,36
698,50	1236,97
698,68	1308,65
698,87	1298,41
699,05	1157,10
699,24	1255,40
699,42	1216,49
699,61	1310,70
699,79	1288,17
699,97	1325,04
700,16	1255,40
700,34	1269,74
700,53	1312,75
700,71	1314,80
700,89	1257,45
701,08	1306,60
701,26	1320,94
701,45	1275,88
701,63	1210,35
701,81	1322,99
702,00	1314,80
702,18	1210,35
702,37	1228,78
702,55	1265,64
702,73	1282,03
702,92	1243,12
703,10	1310,70
703,28	1279,98
703,47	1306,60
703,65	1159,15
703,84	1322,99
704,02	1230,83
704,20	1316,84
704,39	1263,60
704,57	1259,50
704,75	1353,71
704,94	1224,69
705,12	1302,51
705,30	1247,21
705,49	1279,98
705,67	1187,82
705,86	1267,69
706,04	1320,94
706,22	1290,22
706,41	1296,36
706,59	1271,79
706,77	1277,93
706,96	1288,17
707,14	1265,64
707,32	1257,45
707,51	1218,54
707,69	1247,21
707,87	1279,98
708,06	1339,37
708,24	1273,84
708,42	1273,84
708,61	1263,60
708,79	1269,74
708,97	1255,40
709,16	1255,40
709,34	1282,03
709,52	1269,74
709,71	1261,55
709,89	1228,78
710,07	1273,84
710,26	1263,60
710,44	1273,84
710,62	1292,27
710,80	1273,84
710,99	1318,89
711,17	1214,45
711,35	1318,89
711,54	1370,09
711,72	1296,36
711,90	1202,16
712,09	1279,98
712,27	1304,56
712,45	1249,26
712,63	1290,22
712,82	1220,59
713,00	1292,27
713,18	1320,94
713,37	1363,95
713,55	1327,08
713,73	1306,60
713,91	1165,29
714,10	1306,60
714,28	1220,59
714,46	1284,08
714,65	1273,84
714,83	1271,79
715,01	1200,11
715,19	1290,22
715,38	1267,69
715,56	1249,26
715,74	1255,40
715,92	1245,16
716,11	1335,28
716,29	1277,93
716,47	1245,16
716,65	1255,40
716,84	1273,84
717,02	1222,64
717,20	1282,03
717,38	1296,36
717,57	1234,93
717,75	1243,12
717,93	1241,07
718,11	1255,40
718,30	1286,12
718,48	1224,69
718,66	1325,04
718,84	1316,84
719,03	1243,12
719,21	1263,60
719,39	1288,17
719,57	1265,64
719,75	1329,13
719,94	1304,56
720,12	1224,69
720,30	1208,30
720,48	1366,00
720,67	1275,88
720,85	1228,78
721,03	1251,31
721,21	1263,60
721,39	1243,12
721,58	1279,98
721,76	1314,80
721,94	1249,26
722,12	1325,04
722,30	1271,79
722,49	1269,74
722,67	1273,84
722,85	1288,17
723,03	1251,31
723,21	1284,08
723,40	1314,80
723,58	1286,12
723,76	1253,36
723,94	1296,36
724,12	1200,11
724,30	1298,41
724,49	1247,21
724,67	1241,07
724,85	1320,94
725,03	1208,30
725,21	1234,93
725,40	1226,73
725,58	1296,36
725,76	1363,95
725,94	1316,84
726,12	1304,56
726,30	1224,69
726,49	1329,13
726,67	1349,61
726,85	1239,02
727,03	1247,21
727,21	1273,84
727,39	1327,08
727,57	1284,08
727,76	1249,26
727,94	1347,56
728,12	1298,41
728,30	1243,12
728,48	1275,88
728,66	1230,83
728,84	1271,79
729,03	1277,93
729,21	1333,23
729,39	1259,50
729,57	1249,26
729,75	1183,73
729,93	1263,60
730,11	1218,54
730,30	1265,64
730,48	1224,69
730,66	1196,01
730,84	1228,78
731,02	1255,40
731,20	1314,80
731,38	1204,21
731,56	1349,61
731,74	1335,28
731,93	1251,31
732,11	1267,69
732,29	1304,56
732,47	1267,69
732,65	1284,08
732,83	1214,45
733,01	1329,13
733,19	1286,12
733,37	1257,45
733,56	1263,60
733,74	1251,31
733,92	1214,45
734,10	1267,69
734,28	1327,08
734,46	1212,40
734,64	1263,60
734,82	1286,12
735,00	1292,27
735,18	1214,45
735,36	1183,73
735,54	1273,84
735,73	1251,31
735,91	1259,50
736,09	1282,03
736,27	1302,51
736,45	1337,32
736,63	1298,41
736,81	1251,31
736,99	1261,55
737,17	1267,69
737,35	1259,50
737,53	1279,98
737,71	1314,80
737,89	1200,11
738,07	1253,36
738,25	1288,17
738,43	1251,31
738,61	1277,93
738,80	1292,27
738,98	1216,49
739,16	1300,46
739,34	1318,89
739,52	1314,80
739,70	1345,52
739,88	1243,12
740,06	1257,45
740,24	1251,31
740,42	1261,55
740,60	1302,51
740,78	1318,89
740,96	1228,78
741,14	1206,25
741,32	1329,13
741,50	1290,22
741,68	1263,60
741,86	1228,78
742,04	1185,77
742,22	1267,69
742,40	1259,50
742,58	1284,08
742,76	1236,97
742,94	1253,36
743,12	1325,04
743,30	1220,59
743,48	1236,97
743,66	1239,02
743,84	1275,88
744,02	1234,93
744,20	1245,16
744,38	1212,40
744,56	1255,40
744,74	1187,82
744,92	1333,23
745,10	1251,31
745,28	1204,21
745,46	1314,80
745,64	1224,69
745,82	1265,64
746,00	1368,04
746,18	1269,74
746,36	1353,71
746,54	1298,41
746,72	1318,89
746,90	1335,28
747,08	1302,51
747,26	1200,11
747,44	1318,89
747,62	1218,54
747,80	1312,75
747,98	1236,97
748,15	1216,49
748,33	1290,22
748,51	1302,51
748,69	1298,41
748,87	1241,07
749,05	1345,52
749,23	1239,02
749,41	1257,45
749,59	1292,27
749,77	1234,93
749,95	1265,64
750,13	1234,93
750,31	1214,45
750,49	1286,12
750,67	1279,98
750,85	1249,26
751,03	1271,79
751,20	1318,89
751,38	1181,68
751,56	1200,11
751,74	1175,53
751,92	1249,26
752,10	1271,79
752,28	1304,56
752,46	1255,40
752,64	1282,03
752,82	1204,21
753,00	1300,46
753,18	1290,22
753,35	1253,36
753,53	1224,69
753,71	1308,65
753,89	1279,98
754,07	1273,84
754,25	1308,65
754,43	1232,88
754,61	1249,26
754,79	1294,32
754,97	1241,07
755,14	1320,94
755,32	1290,22
755,50	1204,21
755,68	1318,89
755,86	1265,64
756,04	1320,94
756,22	1376,24
756,40	1286,12
756,57	1239,02
756,75	1361,90
756,93	1265,64
757,11	1267,69
757,29	1212,40
757,47	1288,17
757,65	1269,74
757,82	1306,60
758,00	1220,59
758,18	1296,36
758,36	1251,31
758,54	1277,93
758,72	1218,54
758,90	1327,08
759,07	1239,02
759,25	1222,64
759,43	1265,64
759,61	1265,64
759,79	1226,73
759,97	1306,60
760,15	1253,36
760,32	1294,32
760,50	1275,88
760,68	1304,56
760,86	1236,97
761,04	1222,64
761,22	1288,17
761,39	1304,56
761,57	1322,99
761,75	1218,54
761,93	1263,60
762,11	1230,83
762,28	1261,55
762,46	1214,45
762,64	1249,26
762,82	1294,32
763,00	1277,93
763,18	1325,04
763,35	1282,03
763,53	1245,16
763,71	1282,03
763,89	1255,40
764,07	1202,16
764,24	1253,36
764,42	1243,12
764,60	1214,45
764,78	1222,64
764,96	1257,45
765,13	1343,47
765,31	1245,16
765,49	1282,03
765,67	1253,36
765,84	1265,64
766,02	1271,79
766,20	1310,70
766,38	1259,50
766,56	1239,02
766,73	1267,69
766,91	1284,08
767,09	1243,12
767,27	1263,60
767,44	1214,45
767,62	1269,74
767,80	1275,88
767,98	1249,26
768,15	1312,75
768,33	1331,18
768,51	1245,16
768,69	1189,87
768,87	1249,26
769,04	1228,78
769,22	1232,88
769,40	1290,22
769,58	1247,21
769,75	1333,23
769,93	1288,17
770,11	1273,84
770,28	1267,69
770,46	1273,84
770,64	1292,27
770,82	1239,02
770,99	1236,97
771,17	1257,45
771,35	1304,56
771,53	1232,88
771,70	1249,26
771,88	1279,98
772,06	1337,32
772,23	1288,17
772,41	1193,97
772,59	1310,70
772,77	1216,49
772,94	1271,79
773,12	1292,27
773,30	1224,69
773,47	1286,12
773,65	1322,99
773,83	1241,07
774,01	1265,64
774,18	1290,22
774,36	1302,51
774,54	1255,40
774,71	1267,69
774,89	1329,13
775,07	1267,69
775,24	1255,40
775,42	1216,49
775,60	1288,17
775,78	1265,64
775,95	1282,03
776,13	1191,92
776,31	1282,03
776,48	1196,01
776,66	1302,51
776,84	1245,16
777,01	1265,64
777,19	1218,54
777,37	1259,50
777,54	1241,07
777,72	1335,28
777,90	1286,12
778,07	1239,02
778,25	1267,69
778,43	1232,88
778,60	1347,56
778,78	1243,12
778,96	1171,44
779,13	1288,17
779,31	1230,83
779,49	1286,12
779,66	1277,93
779,84	1310,70
780,01	1292,27
780,19	1261,55
780,37	1296,36
780,54	1331,18
780,72	1228,78
780,90	1304,56
781,07	1314,80
781,25	1343,47
781,43	1224,69
781,60	1267,69
781,78	1282,03
781,95	1208,30
782,13	1269,74
782,31	1296,36
782,48	1218,54
782,66	1222,64
782,83	1271,79
783,01	1351,66
783,19	1230,83
783,36	1279,98
783,54	1212,40
783,72	1193,97
783,89	1251,31
784,07	1249,26
784,24	1253,36
784,42	1310,70
784,60	1318,89
784,77	1208,30
784,95	1193,97
785,12	1275,88
785,30	1212,40
785,47	1327,08
785,65	1255,40
785,83	1261,55
786,00	1243,12
786,18	1304,56
786,35	1290,22
786,53	1306,60
786,71	1261,55
786,88	1228,78
787,06	1304,56
787,23	1306,60
787,41	1251,31
787,58	1310,70
787,76	1298,41
787,94	1208,30
788,11	1251,31
788,29	1316,84
788,46	1247,21
788,64	1232,88
788,81	1265,64
788,99	1189,87
789,16	1224,69
789,34	1312,75
789,52	1296,36
789,69	1251,31
789,87	1288,17
790,04	1263,60
790,22	1325,04
790,39	1306,60
790,57	1259,50
790,74	1208,30
790,92	1300,46
791,09	1263,60
791,27	1263,60
791,44	1275,88
791,62	1279,98
791,79	1279,98
791,97	1261,55
792,15	1312,75
792,32	1279,98
792,50	1259,50
792,67	1269,74
792,85	1316,84
793,02	1282,03
793,20	1232,88
793,37	1265,64
793,55	1345,52
793,72	1273,84
793,90	1241,07
794,07	1251,31
794,25	1290,22
794,42	1359,85
794,60	1329,13
794,77	1275,88
794,95	1296,36
795,12	1241,07
795,30	1224,69
795,47	1196,01
795,65	1236,97
795,82	1288,17
796,00	1230,83
796,17	1267,69
796,34	1288,17
796,52	1222,64
796,69	1241,07
796,87	1374,19
797,04	1210,35
797,22	1255,40
797,39	1271,79
797,57	1196,01
797,74	1206,25
797,92	1187,82
798,09	1269,74
798,27	1282,03
798,44	1286,12
798,62	1206,25
798,79	1232,88
798,96	1318,89
799,14	1312,75
799,31	1259,50
799,49	1253,36
799,66	1255,40
799,84	1222,64
800,01	1273,84
800,19	1304,56
800,36	1279,98
800,53	1273,84
800,71	1329,13
800,88	1228,78
801,06	1312,75
801,23	1210,35
801,41	1265,64
801,58	1249,26
801,75	1220,59
801,93	1318,89
802,10	1165,29
802,28	1257,45
802,45	1290,22
802,63	1220,59
802,80	1259,50
802,97	1294,32
803,15	1232,88
803,32	1263,60
803,50	1302,51
803,67	1183,73
803,84	1361,90
804,02	1359,85
804,19	1226,73
804,37	1228,78
804,54	1255,40
804,71	1279,98
804,89	1290,22
805,06	1320,94
805,24	1265,64
805,41	1318,89
805,58	1234,93
805,76	1277,93
805,93	1236,97
806,10	1306,60
806,28	1232,88
806,45	1284,08
806,63	1157,10
806,80	1282,03
806,97	1241,07
807,15	1292,27
807,32	1241,07
807,49	1261,55
807,67	1208,30
807,84	1288,17
808,01	1271,79
808,19	1263,60
808,36	1214,45
808,54	1263,60
808,71	1308,65
808,88	1343,47
809,06	1263,60
809,23	1257,45
809,40	1247,21
809,58	1222,64
809,75	1245,16
809,92	1263,60
810,10	1214,45
810,27	1249,26
810,44	1366,00
810,62	1279,98
810,79	1210,35
810,96	1263,60
811,14	1265,64
811,31	1288,17
811,48	1222,64
811,66	1241,07
811,83	1265,64
812,00	1241,07
812,18	1232,88
812,35	1300,46
812,52	1222,64
812,69	1236,97
812,87	1304,56
813,04	1241,07
813,21	1316,84
813,39	1320,94
813,56	1249,26
813,73	1208,30
813,91	1279,98
814,08	1183,73
814,25	1216,49
814,42	1269,74
814,60	1245,16
814,77	1245,16
814,94	1259,50
815,12	1232,88
815,29	1320,94
815,46	1279,98
815,63	1271,79
815,81	1363,95
815,98	1228,78
816,15	1290,22
816,33	1236,97
816,50	1255,40
816,67	1306,60
816,84	1214,45
817,02	1269,74
817,19	1290,22
817,36	1269,74
817,53	1316,84
817,71	1361,90
817,88	1310,70
818,05	1243,12
818,22	1267,69
818,40	1273,84
818,57	1245,16
818,74	1282,03
818,91	1183,73
819,09	1337,32
819,26	1306,60
819,43	1185,77
819,60	1196,01
819,78	1343,47
819,95	1312,75
820,12	1243,12
820,29	1298,41
820,47	1261,55
820,64	1245,16
820,81	1300,46
820,98	1296,36
821,15	1290,22
821,33	1222,64
821,50	1322,99
821,67	1284,08
821,84	1251,31
822,02	1273,84
822,19	1179,63
822,36	1279,98
822,53	1241,07
822,70	1271,79
822,88	1243,12
823,05	1277,93
823,22	1284,08
823,39	1310,70
823,56	1200,11
823,74	1347,56
823,91	1226,73
824,08	1263,60
824,25	1263,60
824,42	1273,84
824,60	1269,74
824,77	1228,78
824,94	1318,89
825,11	1255,40
825,28	1271,79
825,45	1314,80
825,63	1222,64
825,80	1245,16
825,97	1308,65
826,14	1232,88
826,31	1253,36
826,48	1261,55
826,66	1320,94
826,83	1277,93
827,00	1279,98
827,17	1212,40
827,34	1290,22
827,51	1288,17
827,69	1286,12
827,86	1257,45
828,03	1267,69
828,20	1216,49
828,37	1259,50
828,54	1255,40
828,71	1198,06
828,89	1275,88
829,06	1327,08
829,23	1290,22
829,40	1232,88
829,57	1259,50
829,74	1218,54
829,91	1273,84
830,09	1269,74
830,26	1222,64
830,43	1245,16
830,60	1263,60
830,77	1249,26
830,94	1214,45
831,11	1247,21
831,28	1298,41
831,46	1253,36
831,63	1226,73
831,80	1300,46
831,97	1247,21
832,14	1298,41
832,31	1306,60
832,48	1269,74
832,65	1253,36
832,82	1306,60
832,99	1298,41
833,17	1288,17
833,34	1267,69
833,51	1255,40
833,68	1265,64
833,85	1228,78
834,02	1298,41
834,19	1316,84
834,36	1241,07
834,53	1230,83
834,70	1263,60
834,87	1241,07
835,04	1255,40
835,22	1267,69
835,39	1265,64
835,56	1363,95
835,73	1198,06
835,90	1251,31
836,07	1337,32
836,24	1279,98
836,41	1263,60
836,58	1255,40
836,75	1271,79
836,92	1247,21
837,09	1220,59
837,26	1263,60
837,43	1320,94
837,60	1247,21
837,77	1239,02
837,94	1261,55
838,12	1292,27
838,29	1351,66
838,46	1245,16
838,63	1220,59
838,80	1304,56
838,97	1273,84
839,14	1200,11
839,31	1234,93
839,48	1316,84
839,65	1241,07
839,82	1189,87
839,99	1134,57
840,16	1230,83
840,33	1261,55
840,50	1263,60
840,67	1255,40
840,84	1304,56
841,01	1277,93
841,18	1216,49
841,35	1247,21
841,52	1298,41
841,69	1222,64
841,86	1327,08
842,03	1269,74
842,20	1271,79
842,37	1286,12
842,54	1277,93
842,71	1228,78
842,88	1208,30
843,05	1241,07
843,22	1255,40
843,39	1265,64
843,56	1224,69
843,73	1249,26
843,90	1290,22
844,07	1320,94
844,24	1228,78
844,41	1290,22
844,58	1282,03
844,75	1216,49
844,92	1277,93
845,09	1300,46
845,26	1232,88
845,43	1230,83
845,60	1245,16
845,77	1288,17
845,94	1288,17
846,10	1239,02
846,27	1263,60
846,44	1249,26
846,61	1255,40
846,78	1282,03
846,95	1224,69
847,12	1300,46
847,29	1263,60
847,46	1193,97
847,63	1282,03
847,80	1226,73
847,97	1251,31
848,14	1216,49
848,31	1288,17
848,48	1218,54
848,65	1288,17
848,82	1200,11
848,98	1243,12
849,15	1245,16
849,32	1296,36
849,49	1216,49
849,66	1214,45
849,83	1251,31
850,00	1322,99
850,17	1245,16
850,34	1359,85
850,51	1302,51
850,68	1263,60
850,85	1290,22
851,01	1251,31
851,18	1310,70
851,35	1257,45
851,52	1271,79
851,69	1241,07
851,86	1218,54
852,03	1310,70
852,20	1191,92
852,37	1314,80
852,53	1306,60
852,70	1273,84
852,87	1228,78
853,04	1288,17
853,21	1263,60
853,38	1275,88
853,55	1341,42
853,72	1306,60
853,89	1298,41
854,05	1241,07
854,22	1222,64
854,39	1314,80
854,56	1312,75
854,73	1294,32
854,90	1200,11
855,07	1355,76
855,23	1275,88
855,40	1286,12
855,57	1220,59
855,74	1269,74
855,91	1275,88
856,08	1277,93
856,25	1218,54
856,41	1212,40
856,58	1210,35
856,75	1269,74
856,92	1288,17
857,09	1273,84
857,26	1232,88
857,42	1220,59
857,59	1226,73
857,76	1208,30
857,93	1273,84
858,10	1290,22
858,27	1277,93
858,43	1294,32
858,60	1220,59
858,77	1300,46
858,94	1337,32
859,11	1230,83
859,27	1318,89
859,44	1275,88
859,61	1290,22
859,78	1286,12
859,95	1245,16
860,12	1269,74
860,28	1234,93
860,45	1241,07
860,62	1294,32
860,79	1273,84
860,95	1284,08
861,12	1331,18
861,29	1232,88
861,46	1329,13
861,63	1267,69
861,79	1292,27
861,96	1267,69
862,13	1243,12
862,30	1247,21
862,47	1288,17
862,63	1216,49
862,80	1277,93
862,97	1249,26
863,14	1273,84
863,30	1282,03
863,47	1218,54
863,64	1273,84
863,81	1337,32
863,97	1263,60
864,14	1261,55
864,31	1236,97
864,48	1273,84
864,65	1243,12
864,81	1247,21
864,98	1288,17
865,15	1224,69
865,32	1216,49
865,48	1341,42
865,65	1265,64
865,82	1232,88
865,98	1286,12
866,15	1257,45
866,32	1318,89
866,49	1241,07
866,65	1218,54
866,82	1322,99
866,99	1279,98
867,16	1314,80
867,32	1290,22
867,49	1222,64
867,66	1349,61
867,83	1337,32
867,99	1232,88
868,16	1249,26
868,33	1269,74
868,49	1255,40
868,66	1228,78
868,83	1253,36
868,99	1210,35
869,16	1282,03
869,33	1263,60
869,50	1253,36
869,66	1308,65
869,83	1200,11
870,00	1185,77
870,16	1210,35
870,33	1282,03
870,50	1230,83
870,66	1302,51
870,83	1306,60
871,00	1298,41
871,17	1253,36
871,33	1279,98
871,50	1304,56
871,67	1282,03
871,83	1286,12
872,00	1296,36
872,17	1320,94
872,33	1222,64
872,50	1210,35
872,67	1241,07
872,83	1265,64
873,00	1363,95
873,17	1269,74
873,33	1294,32
873,50	1312,75
873,67	1234,93
873,83	1292,27
874,00	1284,08
874,16	1230,83
874,33	1255,40
874,50	1234,93
874,66	1269,74
874,83	1234,93
875,00	1277,93
875,16	1261,55
875,33	1279,98
875,50	1306,60
875,66	1257,45
875,83	1288,17
875,99	1277,93
876,16	1288,17
876,33	1284,08
876,49	1304,56
876,66	1288,17
876,83	1236,97
876,99	1353,71
877,16	1263,60
877,32	1232,88
877,49	1327,08
877,66	1273,84
877,82	1243,12
877,99	1271,79
878,15	1298,41
878,32	1210,35
878,49	1310,70
878,65	1267,69
878,82	1388,52
878,98	1273,84
879,15	1255,40
879,32	1265,64
879,48	1370,09
879,65	1247,21
879,81	1247,21
879,98	1228,78
880,15	1214,45
880,31	1306,60
880,48	1275,88
880,64	1243,12
880,81	1204,21
880,97	1265,64
881,14	1265,64
881,31	1263,60
881,47	1204,21
881,64	1257,45
881,80	1247,21
881,97	1204,21
882,13	1296,36
882,30	1236,97
882,47	1351,66
882,63	1253,36
882,80	1292,27
882,96	1265,64
883,13	1269,74
883,29	1277,93
883,46	1279,98
883,62	1296,36
883,79	1239,02
883,95	1284,08
884,12	1239,02
884,29	1308,65
884,45	1255,40
884,62	1271,79
884,78	1259,50
884,95	1296,36
885,11	1271,79
885,28	1286,12
885,44	1226,73
885,61	1300,46
885,77	1347,56
885,94	1271,79
886,10	1271,79
886,27	1255,40
886,43	1335,28
886,60	1253,36
886,76	1245,16
886,93	1271,79
887,09	1331,18
887,26	1269,74
887,42	1257,45
887,59	1318,89
887,75	1277,93
887,92	1279,98
888,08	1249,26
888,25	1261,55
888,41	1320,94
888,58	1269,74
888,74	1187,82
888,91	1257,45
>>>>>End Processed Spectral Data<<<<<
