SpectraSuite Data File
++++++++++++++++++++++++++++++++++++
Date: Sun Apr 03 19:55:51 CEST 2016
User: root
Dark Spectrum Present: No
Reference Spectrum Present: No
Number of Sampled Component Spectra: 1
Spectrometers: USB4C02835
Integration Time (usec): 10000 (USB4C02835)
Spectra Averaged: 1 (USB4C02835)
Boxcar Smoothing: 0 (USB4C02835)
Correct for Electrical Dark: No (USB4C02835)
Strobe/Lamp Enabled: No (USB4C02835)
Correct for Detector Non-linearity: No (USB4C02835)
Correct for Stray Light: No (USB4C02835)
Number of Pixels in Processed Spectrum: 3648
>>>>>Begin Processed Spectral Data<<<<<
177,47	1253,36
177,69	1253,36
177,91	1253,36
178,13	1300,46
178,36	1212,40
178,58	1298,41
178,80	1312,75
179,02	1282,03
179,24	1202,16
179,46	1263,60
179,68	1337,32
179,90	1249,26
180,13	1275,88
180,35	1212,40
180,57	1275,88
180,79	1322,99
181,01	1269,74
181,23	1245,16
181,45	1220,59
181,67	1366,00
181,90	1310,70
182,12	1265,64
182,34	1232,88
182,56	1286,12
182,78	1232,88
183,00	1292,27
183,22	1220,59
183,44	1222,64
183,66	1253,36
183,89	1335,28
184,11	1265,64
184,33	1267,69
184,55	1273,84
184,77	1232,88
184,99	1216,49
185,21	1243,12
185,43	1269,74
185,65	1294,32
185,87	1259,50
186,10	1255,40
186,32	1294,32
186,54	1277,93
186,76	1249,26
186,98	1296,36
187,20	1243,12
187,42	1261,55
187,64	1271,79
187,86	1259,50
188,08	1142,77
188,30	1343,47
188,52	1267,69
188,75	1269,74
188,97	1282,03
189,19	1314,80
189,41	1259,50
189,63	1327,08
189,85	1245,16
190,07	1232,88
190,29	1261,55
190,51	1296,36
190,73	1249,26
190,95	1251,31
191,17	1282,03
191,39	1341,42
191,61	1177,58
191,84	1257,45
192,06	1255,40
192,28	1245,16
192,50	1249,26
192,72	1382,38
192,94	1261,55
193,16	1245,16
193,38	1339,37
193,60	1193,97
193,82	1292,27
194,04	1314,80
194,26	1263,60
194,48	1255,40
194,70	1300,46
194,92	1255,40
195,14	1226,73
195,36	1306,60
195,58	1294,32
195,80	1191,92
196,02	1320,94
196,24	1200,11
196,46	1329,13
196,69	1273,84
196,91	1288,17
197,13	1277,93
197,35	1277,93
197,57	1267,69
197,79	1325,04
198,01	1249,26
198,23	1292,27
198,45	1255,40
198,67	1271,79
198,89	1290,22
199,11	1265,64
199,33	1255,40
199,55	1292,27
199,77	1294,32
199,99	1304,56
200,21	1306,60
200,43	1298,41
200,65	1282,03
200,87	1214,45
201,09	1245,16
201,31	1292,27
201,53	1271,79
201,75	1296,36
201,97	1269,74
202,19	1290,22
202,41	1327,08
202,63	1245,16
202,85	1290,22
203,07	1304,56
203,29	1243,12
203,51	1267,69
203,73	1261,55
203,95	1290,22
204,17	1322,99
204,39	1247,21
204,61	1267,69
204,83	1255,40
205,05	1245,16
205,27	1277,93
205,49	1230,83
205,71	1279,98
205,93	1226,73
206,15	1284,08
206,37	1251,31
206,59	1249,26
206,81	1284,08
207,03	1290,22
207,25	1265,64
207,47	1275,88
207,69	1298,41
207,91	1265,64
208,13	1222,64
208,34	1282,03
208,56	1304,56
208,78	1329,13
209,00	1251,31
209,22	1251,31
209,44	1298,41
209,66	1243,12
209,88	1271,79
210,10	1286,12
210,32	1300,46
210,54	1263,60
210,76	1298,41
210,98	1263,60
211,20	1284,08
211,42	1263,60
211,64	1183,73
211,86	1279,98
212,08	1224,69
212,30	1263,60
212,52	1247,21
212,74	1267,69
212,96	1255,40
213,17	1271,79
213,39	1288,17
213,61	1249,26
213,83	1275,88
214,05	1275,88
214,27	1320,94
214,49	1257,45
214,71	1222,64
214,93	1290,22
215,15	1251,31
215,37	1277,93
215,59	1329,13
215,81	1288,17
216,03	1236,97
216,24	1290,22
216,46	1265,64
216,68	1286,12
216,90	1273,84
217,12	1288,17
217,34	1288,17
217,56	1247,21
217,78	1288,17
218,00	1273,84
218,22	1279,98
218,44	1228,78
218,66	1241,07
218,87	1273,84
219,09	1314,80
219,31	1269,74
219,53	1296,36
219,75	1175,53
219,97	1302,51
220,19	1304,56
220,41	1282,03
220,63	1267,69
220,85	1306,60
221,06	1279,98
221,28	1286,12
221,50	1269,74
221,72	1265,64
221,94	1302,51
222,16	1261,55
222,38	1349,61
222,60	1222,64
222,82	1261,55
223,03	1228,78
223,25	1239,02
223,47	1286,12
223,69	1290,22
223,91	1290,22
224,13	1230,83
224,35	1271,79
224,57	1230,83
224,78	1208,30
225,00	1288,17
225,22	1218,54
225,44	1279,98
225,66	1304,56
225,88	1302,51
226,10	1318,89
226,32	1282,03
226,53	1239,02
226,75	1239,02
226,97	1245,16
227,19	1329,13
227,41	1247,21
227,63	1298,41
227,85	1208,30
228,06	1230,83
228,28	1226,73
228,50	1314,80
228,72	1191,92
228,94	1204,21
229,16	1228,78
229,37	1247,21
229,59	1253,36
229,81	1222,64
230,03	1314,80
230,25	1275,88
230,47	1230,83
230,69	1333,23
230,90	1296,36
231,12	1284,08
231,34	1279,98
231,56	1253,36
231,78	1275,88
232,00	1251,31
232,21	1359,85
232,43	1286,12
232,65	1277,93
232,87	1282,03
233,09	1284,08
233,30	1298,41
233,52	1306,60
233,74	1290,22
233,96	1302,51
234,18	1292,27
234,40	1292,27
234,61	1339,37
234,83	1253,36
235,05	1298,41
235,27	1241,07
235,49	1271,79
235,70	1271,79
235,92	1282,03
236,14	1288,17
236,36	1202,16
236,58	1220,59
236,79	1306,60
237,01	1275,88
237,23	1279,98
237,45	1257,45
237,67	1232,88
237,88	1210,35
238,10	1234,93
238,32	1257,45
238,54	1249,26
238,76	1304,56
238,97	1335,28
239,19	1167,34
239,41	1284,08
239,63	1302,51
239,85	1267,69
240,06	1169,39
240,28	1296,36
240,50	1335,28
240,72	1343,47
240,93	1292,27
241,15	1239,02
241,37	1245,16
241,59	1298,41
241,81	1243,12
242,02	1325,04
242,24	1218,54
242,46	1222,64
242,68	1234,93
242,89	1241,07
243,11	1284,08
243,33	1273,84
243,55	1263,60
243,76	1232,88
243,98	1275,88
244,20	1173,49
244,42	1284,08
244,64	1271,79
244,85	1249,26
245,07	1304,56
245,29	1265,64
245,51	1296,36
245,72	1294,32
245,94	1298,41
246,16	1228,78
246,38	1275,88
246,59	1228,78
246,81	1267,69
247,03	1318,89
247,24	1314,80
247,46	1269,74
247,68	1306,60
247,90	1279,98
248,11	1220,59
248,33	1296,36
248,55	1314,80
248,77	1210,35
248,98	1265,64
249,20	1302,51
249,42	1329,13
249,64	1241,07
249,85	1267,69
250,07	1304,56
250,29	1245,16
250,50	1282,03
250,72	1316,84
250,94	1331,18
251,16	1312,75
251,37	1335,28
251,59	1220,59
251,81	1288,17
252,02	1277,93
252,24	1249,26
252,46	1292,27
252,68	1263,60
252,89	1181,68
253,11	1259,50
253,33	1230,83
253,54	1218,54
253,76	1327,08
253,98	1253,36
254,20	1208,30
254,41	1327,08
254,63	1204,21
254,85	1183,73
255,06	1284,08
255,28	1257,45
255,50	1304,56
255,71	1370,09
255,93	1183,73
256,15	1257,45
256,36	1282,03
256,58	1245,16
256,80	1228,78
257,02	1329,13
257,23	1251,31
257,45	1261,55
257,67	1220,59
257,88	1257,45
258,10	1322,99
258,32	1267,69
258,53	1234,93
258,75	1261,55
258,97	1318,89
259,18	1253,36
259,40	1312,75
259,62	1200,11
259,83	1284,08
260,05	1329,13
260,27	1275,88
260,48	1273,84
260,70	1298,41
260,92	1251,31
261,13	1294,32
261,35	1263,60
261,57	1298,41
261,78	1290,22
262,00	1267,69
262,22	1247,21
262,43	1296,36
262,65	1251,31
262,86	1269,74
263,08	1257,45
263,30	1241,07
263,51	1210,35
263,73	1253,36
263,95	1261,55
264,16	1333,23
264,38	1277,93
264,60	1249,26
264,81	1335,28
265,03	1253,36
265,25	1251,31
265,46	1247,21
265,68	1220,59
265,89	1312,75
266,11	1206,25
266,33	1265,64
266,54	1298,41
266,76	1183,73
266,98	1236,97
267,19	1230,83
267,41	1243,12
267,62	1271,79
267,84	1318,89
268,06	1253,36
268,27	1327,08
268,49	1325,04
268,70	1193,97
268,92	1302,51
269,14	1277,93
269,35	1271,79
269,57	1200,11
269,79	1243,12
270,00	1173,49
270,22	1298,41
270,43	1327,08
270,65	1255,40
270,87	1241,07
271,08	1271,79
271,30	1220,59
271,51	1245,16
271,73	1275,88
271,95	1339,37
272,16	1310,70
272,38	1320,94
272,59	1339,37
272,81	1279,98
273,02	1339,37
273,24	1290,22
273,46	1169,39
273,67	1163,25
273,89	1257,45
274,10	1306,60
274,32	1224,69
274,54	1265,64
274,75	1269,74
274,97	1247,21
275,18	1300,46
275,40	1214,45
275,61	1304,56
275,83	1234,93
276,05	1228,78
276,26	1236,97
276,48	1263,60
276,69	1318,89
276,91	1277,93
277,12	1212,40
277,34	1175,53
277,55	1245,16
277,77	1282,03
277,99	1257,45
278,20	1253,36
278,42	1279,98
278,63	1234,93
278,85	1325,04
279,06	1271,79
279,28	1239,02
279,49	1171,44
279,71	1191,92
279,93	1257,45
280,14	1318,89
280,36	1320,94
280,57	1310,70
280,79	1333,23
281,00	1288,17
281,22	1181,68
281,43	1241,07
281,65	1286,12
281,86	1255,40
282,08	1210,35
282,29	1300,46
282,51	1271,79
282,73	1224,69
282,94	1212,40
283,16	1204,21
283,37	1343,47
283,59	1339,37
283,80	1271,79
284,02	1236,97
284,23	1257,45
284,45	1372,14
284,66	1257,45
284,88	1224,69
285,09	1239,02
285,31	1314,80
285,52	1269,74
285,74	1265,64
285,95	1253,36
286,17	1298,41
286,38	1239,02
286,60	1273,84
286,81	1175,53
287,03	1282,03
287,24	1273,84
287,46	1249,26
287,67	1269,74
287,89	1306,60
288,10	1257,45
288,32	1196,01
288,53	1306,60
288,75	1306,60
288,96	1241,07
289,18	1214,45
289,39	1294,32
289,61	1279,98
289,82	1253,36
290,04	1329,13
290,25	1251,31
290,47	1239,02
290,68	1200,11
290,90	1243,12
291,11	1265,64
291,33	1222,64
291,54	1361,90
291,76	1187,82
291,97	1284,08
292,18	1288,17
292,40	1261,55
292,61	1218,54
292,83	1359,85
293,04	1331,18
293,26	1251,31
293,47	1202,16
293,69	1277,93
293,90	1269,74
294,12	1296,36
294,33	1284,08
294,55	1220,59
294,76	1257,45
294,97	1290,22
295,19	1343,47
295,40	1292,27
295,62	1279,98
295,83	1345,52
296,05	1284,08
296,26	1288,17
296,48	1214,45
296,69	1239,02
296,90	1322,99
297,12	1318,89
297,33	1226,73
297,55	1249,26
297,76	1300,46
297,98	1275,88
298,19	1263,60
298,41	1275,88
298,62	1271,79
298,83	1267,69
299,05	1298,41
299,26	1257,45
299,48	1249,26
299,69	1249,26
299,90	1251,31
300,12	1286,12
300,33	1271,79
300,55	1239,02
300,76	1261,55
300,98	1239,02
301,19	1290,22
301,40	1288,17
301,62	1314,80
301,83	1275,88
302,05	1306,60
302,26	1318,89
302,47	1241,07
302,69	1282,03
302,90	1329,13
303,12	1265,64
303,33	1308,65
303,54	1257,45
303,76	1300,46
303,97	1212,40
304,19	1339,37
304,40	1247,21
304,61	1239,02
304,83	1312,75
305,04	1286,12
305,26	1263,60
305,47	1333,23
305,68	1224,69
305,90	1236,97
306,11	1288,17
306,33	1271,79
306,54	1228,78
306,75	1251,31
306,97	1294,32
307,18	1214,45
307,39	1327,08
307,61	1286,12
307,82	1234,93
308,04	1243,12
308,25	1220,59
308,46	1261,55
308,68	1310,70
308,89	1261,55
309,10	1214,45
309,32	1189,87
309,53	1269,74
309,74	1251,31
309,96	1331,18
310,17	1253,36
310,39	1265,64
310,60	1329,13
310,81	1290,22
311,03	1327,08
311,24	1273,84
311,45	1259,50
311,67	1308,65
311,88	1230,83
312,09	1243,12
312,31	1347,56
312,52	1333,23
312,73	1236,97
312,95	1306,60
313,16	1247,21
313,37	1232,88
313,59	1243,12
313,80	1345,52
314,01	1212,40
314,23	1296,36
314,44	1271,79
314,65	1269,74
314,87	1331,18
315,08	1243,12
315,29	1288,17
315,51	1249,26
315,72	1220,59
315,93	1267,69
316,15	1216,49
316,36	1234,93
316,57	1273,84
316,79	1243,12
317,00	1273,84
317,21	1234,93
317,43	1322,99
317,64	1331,18
317,85	1257,45
318,07	1259,50
318,28	1196,01
318,49	1196,01
318,70	1339,37
318,92	1327,08
319,13	1333,23
319,34	1300,46
319,56	1271,79
319,77	1245,16
319,98	1318,89
320,20	1322,99
320,41	1257,45
320,62	1314,80
320,83	1273,84
321,05	1208,30
321,26	1249,26
321,47	1275,88
321,69	1331,18
321,90	1302,51
322,11	1241,07
322,32	1314,80
322,54	1273,84
322,75	1226,73
322,96	1267,69
323,18	1282,03
323,39	1310,70
323,60	1267,69
323,81	1241,07
324,03	1322,99
324,24	1318,89
324,45	1298,41
324,66	1279,98
324,88	1228,78
325,09	1318,89
325,30	1294,32
325,52	1337,32
325,73	1279,98
325,94	1241,07
326,15	1298,41
326,37	1234,93
326,58	1212,40
326,79	1267,69
327,00	1296,36
327,22	1284,08
327,43	1267,69
327,64	1267,69
327,85	1310,70
328,07	1224,69
328,28	1271,79
328,49	1284,08
328,70	1308,65
328,92	1261,55
329,13	1212,40
329,34	1257,45
329,55	1277,93
329,76	1279,98
329,98	1259,50
330,19	1265,64
330,40	1216,49
330,61	1304,56
330,83	1275,88
331,04	1218,54
331,25	1230,83
331,46	1189,87
331,68	1329,13
331,89	1286,12
332,10	1187,82
332,31	1304,56
332,52	1232,88
332,74	1282,03
332,95	1202,16
333,16	1290,22
333,37	1290,22
333,58	1300,46
333,80	1249,26
334,01	1191,92
334,22	1306,60
334,43	1249,26
334,64	1263,60
334,86	1214,45
335,07	1193,97
335,28	1359,85
335,49	1286,12
335,70	1232,88
335,92	1241,07
336,13	1222,64
336,34	1269,74
336,55	1308,65
336,76	1171,44
336,98	1320,94
337,19	1245,16
337,40	1208,30
337,61	1282,03
337,82	1296,36
338,04	1329,13
338,25	1290,22
338,46	1304,56
338,67	1284,08
338,88	1241,07
339,09	1230,83
339,31	1277,93
339,52	1296,36
339,73	1284,08
339,94	1193,97
340,15	1271,79
340,36	1282,03
340,58	1234,93
340,79	1228,78
341,00	1241,07
341,21	1247,21
341,42	1230,83
341,63	1236,97
341,85	1322,99
342,06	1269,74
342,27	1314,80
342,48	1271,79
342,69	1232,88
342,90	1271,79
343,12	1232,88
343,33	1300,46
343,54	1230,83
343,75	1234,93
343,96	1294,32
344,17	1212,40
344,38	1302,51
344,60	1267,69
344,81	1329,13
345,02	1304,56
345,23	1310,70
345,44	1282,03
345,65	1331,18
345,86	1214,45
346,07	1316,84
346,29	1251,31
346,50	1286,12
346,71	1271,79
346,92	1300,46
347,13	1306,60
347,34	1279,98
347,55	1298,41
347,76	1298,41
347,98	1290,22
348,19	1331,18
348,40	1282,03
348,61	1302,51
348,82	1253,36
349,03	1310,70
349,24	1288,17
349,45	1302,51
349,66	1239,02
349,88	1322,99
350,09	1255,40
350,30	1243,12
350,51	1298,41
350,72	1259,50
350,93	1200,11
351,14	1234,93
351,35	1296,36
351,56	1327,08
351,77	1279,98
351,99	1329,13
352,20	1257,45
352,41	1247,21
352,62	1251,31
352,83	1302,51
353,04	1243,12
353,25	1239,02
353,46	1271,79
353,67	1234,93
353,88	1275,88
354,09	1239,02
354,30	1265,64
354,52	1228,78
354,73	1239,02
354,94	1245,16
355,15	1279,98
355,36	1296,36
355,57	1224,69
355,78	1308,65
355,99	1284,08
356,20	1275,88
356,41	1286,12
356,62	1175,53
356,83	1327,08
357,04	1306,60
357,25	1275,88
357,46	1243,12
357,68	1243,12
357,89	1333,23
358,10	1273,84
358,31	1239,02
358,52	1339,37
358,73	1261,55
358,94	1247,21
359,15	1271,79
359,36	1308,65
359,57	1322,99
359,78	1312,75
359,99	1376,24
360,20	1286,12
360,41	1241,07
360,62	1282,03
360,83	1298,41
361,04	1261,55
361,25	1196,01
361,46	1228,78
361,67	1277,93
361,88	1259,50
362,09	1255,40
362,30	1255,40
362,51	1302,51
362,72	1339,37
362,93	1298,41
363,14	1249,26
363,35	1333,23
363,56	1310,70
363,78	1265,64
363,99	1277,93
364,20	1271,79
364,41	1304,56
364,62	1288,17
364,83	1271,79
365,04	1251,31
365,25	1314,80
365,46	1382,38
365,67	1273,84
365,88	1255,40
366,09	1300,46
366,30	1243,12
366,51	1255,40
366,72	1167,34
366,93	1279,98
367,14	1316,84
367,35	1226,73
367,56	1296,36
367,77	1202,16
367,98	1298,41
368,18	1302,51
368,39	1265,64
368,60	1347,56
368,81	1343,47
369,02	1216,49
369,23	1318,89
369,44	1220,59
369,65	1261,55
369,86	1251,31
370,07	1284,08
370,28	1257,45
370,49	1265,64
370,70	1265,64
370,91	1279,98
371,12	1294,32
371,33	1300,46
371,54	1220,59
371,75	1163,25
371,96	1257,45
372,17	1224,69
372,38	1249,26
372,59	1255,40
372,80	1310,70
373,01	1296,36
373,22	1292,27
373,43	1273,84
373,64	1271,79
373,85	1273,84
374,06	1304,56
374,26	1300,46
374,47	1255,40
374,68	1318,89
374,89	1298,41
375,10	1253,36
375,31	1267,69
375,52	1271,79
375,73	1300,46
375,94	1239,02
376,15	1232,88
376,36	1259,50
376,57	1175,53
376,78	1273,84
376,99	1290,22
377,20	1312,75
377,40	1341,42
377,61	1349,61
377,82	1267,69
378,03	1284,08
378,24	1232,88
378,45	1253,36
378,66	1345,52
378,87	1251,31
379,08	1296,36
379,29	1218,54
379,50	1310,70
379,71	1341,42
379,91	1253,36
380,12	1310,70
380,33	1247,21
380,54	1279,98
380,75	1271,79
380,96	1257,45
381,17	1214,45
381,38	1279,98
381,59	1300,46
381,80	1259,50
382,00	1279,98
382,21	1310,70
382,42	1255,40
382,63	1329,13
382,84	1239,02
383,05	1208,30
383,26	1236,97
383,47	1230,83
383,68	1269,74
383,88	1306,60
384,09	1329,13
384,30	1298,41
384,51	1322,99
384,72	1296,36
384,93	1286,12
385,14	1239,02
385,35	1271,79
385,55	1310,70
385,76	1259,50
385,97	1269,74
386,18	1255,40
386,39	1249,26
386,60	1263,60
386,81	1267,69
387,02	1322,99
387,22	1314,80
387,43	1204,21
387,64	1355,76
387,85	1333,23
388,06	1236,97
388,27	1277,93
388,48	1275,88
388,68	1249,26
388,89	1275,88
389,10	1214,45
389,31	1282,03
389,52	1257,45
389,73	1273,84
389,93	1257,45
390,14	1277,93
390,35	1181,68
390,56	1292,27
390,77	1306,60
390,98	1230,83
391,18	1288,17
391,39	1146,86
391,60	1220,59
391,81	1290,22
392,02	1261,55
392,23	1222,64
392,43	1269,74
392,64	1187,82
392,85	1243,12
393,06	1296,36
393,27	1247,21
393,47	1259,50
393,68	1241,07
393,89	1222,64
394,10	1263,60
394,31	1234,93
394,52	1273,84
394,72	1265,64
394,93	1275,88
395,14	1243,12
395,35	1333,23
395,56	1253,36
395,76	1322,99
395,97	1226,73
396,18	1331,18
396,39	1265,64
396,60	1249,26
396,80	1273,84
397,01	1298,41
397,22	1255,40
397,43	1273,84
397,64	1226,73
397,84	1222,64
398,05	1251,31
398,26	1298,41
398,47	1277,93
398,67	1249,26
398,88	1255,40
399,09	1216,49
399,30	1220,59
399,51	1290,22
399,71	1259,50
399,92	1345,52
400,13	1247,21
400,34	1253,36
400,54	1193,97
400,75	1261,55
400,96	1267,69
401,17	1294,32
401,37	1290,22
401,58	1282,03
401,79	1273,84
402,00	1224,69
402,21	1273,84
402,41	1257,45
402,62	1253,36
402,83	1310,70
403,04	1273,84
403,24	1206,25
403,45	1290,22
403,66	1265,64
403,87	1193,97
404,07	1312,75
404,28	1230,83
404,49	1253,36
404,70	1265,64
404,90	1271,79
405,11	1306,60
405,32	1312,75
405,52	1279,98
405,73	1236,97
405,94	1206,25
406,15	1286,12
406,35	1234,93
406,56	1169,39
406,77	1284,08
406,98	1216,49
407,18	1202,16
407,39	1228,78
407,60	1322,99
407,80	1214,45
408,01	1279,98
408,22	1316,84
408,43	1224,69
408,63	1273,84
408,84	1236,97
409,05	1288,17
409,25	1286,12
409,46	1286,12
409,67	1234,93
409,88	1306,60
410,08	1232,88
410,29	1277,93
410,50	1214,45
410,70	1337,32
410,91	1257,45
411,12	1259,50
411,32	1286,12
411,53	1298,41
411,74	1275,88
411,95	1304,56
412,15	1275,88
412,36	1292,27
412,57	1261,55
412,77	1267,69
412,98	1196,01
413,19	1216,49
413,39	1222,64
413,60	1263,60
413,81	1249,26
414,01	1198,06
414,22	1282,03
414,43	1282,03
414,63	1198,06
414,84	1277,93
415,05	1173,49
415,25	1265,64
415,46	1294,32
415,67	1275,88
415,87	1204,21
416,08	1279,98
416,29	1210,35
416,49	1347,56
416,70	1218,54
416,91	1310,70
417,11	1267,69
417,32	1292,27
417,53	1179,63
417,73	1314,80
417,94	1290,22
418,15	1279,98
418,35	1279,98
418,56	1341,42
418,77	1298,41
418,97	1290,22
419,18	1234,93
419,38	1269,74
419,59	1273,84
419,80	1257,45
420,00	1294,32
420,21	1214,45
420,42	1327,08
420,62	1284,08
420,83	1249,26
421,04	1282,03
421,24	1265,64
421,45	1253,36
421,65	1312,75
421,86	1298,41
422,07	1284,08
422,27	1259,50
422,48	1310,70
422,69	1368,04
422,89	1290,22
423,10	1302,51
423,30	1351,66
423,51	1308,65
423,72	1222,64
423,92	1347,56
424,13	1312,75
424,33	1288,17
424,54	1161,20
424,75	1232,88
424,95	1304,56
425,16	1273,84
425,36	1218,54
425,57	1292,27
425,78	1298,41
425,98	1294,32
426,19	1222,64
426,39	1275,88
426,60	1306,60
426,81	1228,78
427,01	1257,45
427,22	1257,45
427,42	1220,59
427,63	1286,12
427,83	1247,21
428,04	1241,07
428,25	1220,59
428,45	1292,27
428,66	1222,64
428,86	1327,08
429,07	1273,84
429,28	1241,07
429,48	1232,88
429,69	1290,22
429,89	1275,88
430,10	1216,49
430,30	1257,45
430,51	1230,83
430,71	1247,21
430,92	1275,88
431,13	1292,27
431,33	1265,64
431,54	1277,93
431,74	1269,74
431,95	1243,12
432,15	1267,69
432,36	1247,21
432,56	1249,26
432,77	1329,13
432,98	1263,60
433,18	1247,21
433,39	1255,40
433,59	1232,88
433,80	1316,84
434,00	1267,69
434,21	1257,45
434,41	1236,97
434,62	1290,22
434,82	1290,22
435,03	1302,51
435,23	1257,45
435,44	1267,69
435,64	1286,12
435,85	1267,69
436,06	1312,75
436,26	1273,84
436,47	1234,93
436,67	1249,26
436,88	1279,98
437,08	1245,16
437,29	1232,88
437,49	1292,27
437,70	1269,74
437,90	1263,60
438,11	1243,12
438,31	1300,46
438,52	1304,56
438,72	1337,32
438,93	1292,27
439,13	1312,75
439,34	1361,90
439,54	1263,60
439,75	1259,50
439,95	1277,93
440,16	1255,40
440,36	1322,99
440,57	1310,70
440,77	1271,79
440,98	1251,31
441,18	1230,83
441,39	1269,74
441,59	1277,93
441,80	1253,36
442,00	1216,49
442,21	1232,88
442,41	1261,55
442,62	1259,50
442,82	1359,85
443,02	1306,60
443,23	1228,78
443,43	1353,71
443,64	1263,60
443,84	1257,45
444,05	1273,84
444,25	1335,28
444,46	1232,88
444,66	1302,51
444,87	1282,03
445,07	1257,45
445,28	1226,73
445,48	1239,02
445,69	1253,36
445,89	1245,16
446,09	1249,26
446,30	1374,19
446,50	1275,88
446,71	1277,93
446,91	1292,27
447,12	1261,55
447,32	1333,23
447,53	1269,74
447,73	1318,89
447,93	1263,60
448,14	1271,79
448,34	1288,17
448,55	1333,23
448,75	1279,98
448,96	1312,75
449,16	1284,08
449,36	1347,56
449,57	1296,36
449,77	1284,08
449,98	1302,51
450,18	1341,42
450,39	1271,79
450,59	1271,79
450,79	1212,40
451,00	1329,13
451,20	1273,84
451,41	1304,56
451,61	1310,70
451,81	1236,97
452,02	1257,45
452,22	1236,97
452,43	1312,75
452,63	1304,56
452,84	1251,31
453,04	1318,89
453,24	1390,57
453,45	1341,42
453,65	1294,32
453,86	1288,17
454,06	1302,51
454,26	1331,18
454,47	1234,93
454,67	1265,64
454,87	1310,70
455,08	1288,17
455,28	1277,93
455,49	1273,84
455,69	1290,22
455,89	1261,55
456,10	1320,94
456,30	1202,16
456,51	1286,12
456,71	1320,94
456,91	1316,84
457,12	1343,47
457,32	1214,45
457,52	1249,26
457,73	1251,31
457,93	1343,47
458,14	1322,99
458,34	1271,79
458,54	1282,03
458,75	1288,17
458,95	1318,89
459,15	1288,17
459,36	1302,51
459,56	1265,64
459,76	1251,31
459,97	1318,89
460,17	1277,93
460,37	1320,94
460,58	1245,16
460,78	1208,30
460,99	1202,16
461,19	1331,18
461,39	1288,17
461,60	1273,84
461,80	1304,56
462,00	1224,69
462,21	1327,08
462,41	1314,80
462,61	1249,26
462,82	1222,64
463,02	1265,64
463,22	1370,09
463,43	1333,23
463,63	1255,40
463,83	1255,40
464,04	1214,45
464,24	1206,25
464,44	1247,21
464,64	1335,28
464,85	1341,42
465,05	1212,40
465,25	1236,97
465,46	1175,53
465,66	1265,64
465,86	1249,26
466,07	1302,51
466,27	1314,80
466,47	1273,84
466,68	1269,74
466,88	1310,70
467,08	1263,60
467,29	1230,83
467,49	1259,50
467,69	1306,60
467,89	1333,23
468,10	1288,17
468,30	1333,23
468,50	1218,54
468,71	1279,98
468,91	1298,41
469,11	1232,88
469,31	1230,83
469,52	1239,02
469,72	1247,21
469,92	1320,94
470,13	1300,46
470,33	1277,93
470,53	1259,50
470,73	1331,18
470,94	1329,13
471,14	1234,93
471,34	1224,69
471,54	1193,97
471,75	1296,36
471,95	1284,08
472,15	1296,36
472,36	1286,12
472,56	1259,50
472,76	1259,50
472,96	1216,49
473,17	1206,25
473,37	1306,60
473,57	1312,75
473,77	1300,46
473,98	1243,12
474,18	1249,26
474,38	1239,02
474,58	1341,42
474,79	1312,75
474,99	1234,93
475,19	1298,41
475,39	1267,69
475,60	1253,36
475,80	1279,98
476,00	1232,88
476,20	1279,98
476,41	1273,84
476,61	1318,89
476,81	1284,08
477,01	1255,40
477,21	1284,08
477,42	1351,66
477,62	1318,89
477,82	1345,52
478,02	1142,77
478,23	1292,27
478,43	1296,36
478,63	1277,93
478,83	1241,07
479,03	1302,51
479,24	1263,60
479,44	1282,03
479,64	1296,36
479,84	1292,27
480,04	1277,93
480,25	1261,55
480,45	1234,93
480,65	1220,59
480,85	1320,94
481,06	1273,84
481,26	1275,88
481,46	1239,02
481,66	1249,26
481,86	1292,27
482,06	1355,76
482,27	1243,12
482,47	1267,69
482,67	1243,12
482,87	1302,51
483,07	1259,50
483,28	1243,12
483,48	1226,73
483,68	1279,98
483,88	1312,75
484,08	1294,32
484,29	1251,31
484,49	1253,36
484,69	1337,32
484,89	1269,74
485,09	1261,55
485,29	1263,60
485,50	1361,90
485,70	1282,03
485,90	1312,75
486,10	1286,12
486,30	1247,21
486,50	1261,55
486,71	1277,93
486,91	1222,64
487,11	1294,32
487,31	1249,26
487,51	1265,64
487,71	1279,98
487,91	1241,07
488,12	1214,45
488,32	1288,17
488,52	1210,35
488,72	1312,75
488,92	1290,22
489,12	1216,49
489,32	1292,27
489,53	1216,49
489,73	1271,79
489,93	1265,64
490,13	1249,26
490,33	1255,40
490,53	1251,31
490,73	1214,45
490,94	1279,98
491,14	1284,08
491,34	1320,94
491,54	1269,74
491,74	1216,49
491,94	1316,84
492,14	1261,55
492,34	1267,69
492,54	1312,75
492,75	1249,26
492,95	1279,98
493,15	1273,84
493,35	1253,36
493,55	1236,97
493,75	1347,56
493,95	1298,41
494,15	1271,79
494,35	1320,94
494,56	1263,60
494,76	1263,60
494,96	1243,12
495,16	1306,60
495,36	1210,35
495,56	1341,42
495,76	1286,12
495,96	1345,52
496,16	1279,98
496,36	1333,23
496,56	1275,88
496,77	1271,79
496,97	1230,83
497,17	1277,93
497,37	1267,69
497,57	1243,12
497,77	1286,12
497,97	1294,32
498,17	1257,45
498,37	1296,36
498,57	1226,73
498,77	1279,98
498,97	1253,36
499,17	1275,88
499,38	1208,30
499,58	1320,94
499,78	1302,51
499,98	1302,51
500,18	1302,51
500,38	1288,17
500,58	1286,12
500,78	1361,90
500,98	1318,89
501,18	1253,36
501,38	1245,16
501,58	1206,25
501,78	1259,50
501,98	1269,74
502,18	1269,74
502,38	1286,12
502,58	1249,26
502,78	1279,98
502,98	1316,84
503,18	1255,40
503,38	1255,40
503,59	1298,41
503,79	1331,18
503,99	1245,16
504,19	1214,45
504,39	1298,41
504,59	1228,78
504,79	1292,27
504,99	1310,70
505,19	1167,34
505,39	1234,93
505,59	1314,80
505,79	1298,41
505,99	1257,45
506,19	1308,65
506,39	1245,16
506,59	1314,80
506,79	1245,16
506,99	1318,89
507,19	1265,64
507,39	1288,17
507,59	1200,11
507,79	1273,84
507,99	1282,03
508,19	1263,60
508,39	1277,93
508,59	1253,36
508,79	1273,84
508,99	1208,30
509,19	1247,21
509,39	1302,51
509,59	1224,69
509,79	1302,51
509,99	1265,64
510,19	1226,73
510,39	1226,73
510,59	1282,03
510,79	1232,88
510,99	1290,22
511,19	1265,64
511,39	1337,32
511,59	1286,12
511,79	1279,98
511,99	1318,89
512,19	1335,28
512,38	1220,59
512,58	1212,40
512,78	1265,64
512,98	1331,18
513,18	1261,55
513,38	1314,80
513,58	1345,52
513,78	1259,50
513,98	1210,35
514,18	1353,71
514,38	1308,65
514,58	1236,97
514,78	1335,28
514,98	1296,36
515,18	1302,51
515,38	1279,98
515,58	1320,94
515,78	1279,98
515,98	1284,08
516,18	1304,56
516,38	1245,16
516,57	1198,06
516,77	1269,74
516,97	1284,08
517,17	1304,56
517,37	1298,41
517,57	1273,84
517,77	1341,42
517,97	1302,51
518,17	1302,51
518,37	1265,64
518,57	1239,02
518,77	1312,75
518,97	1273,84
519,16	1316,84
519,36	1255,40
519,56	1282,03
519,76	1234,93
519,96	1282,03
520,16	1216,49
520,36	1247,21
520,56	1261,55
520,76	1320,94
520,96	1230,83
521,16	1290,22
521,35	1277,93
521,55	1345,52
521,75	1273,84
521,95	1249,26
522,15	1290,22
522,35	1327,08
522,55	1318,89
522,75	1286,12
522,95	1259,50
523,14	1257,45
523,34	1302,51
523,54	1269,74
523,74	1310,70
523,94	1314,80
524,14	1257,45
524,34	1263,60
524,54	1298,41
524,73	1279,98
524,93	1302,51
525,13	1253,36
525,33	1316,84
525,53	1345,52
525,73	1302,51
525,93	1247,21
526,13	1236,97
526,32	1341,42
526,52	1259,50
526,72	1251,31
526,92	1353,71
527,12	1306,60
527,32	1232,88
527,52	1222,64
527,71	1286,12
527,91	1247,21
528,11	1325,04
528,31	1247,21
528,51	1234,93
528,71	1234,93
528,90	1271,79
529,10	1302,51
529,30	1210,35
529,50	1288,17
529,70	1331,18
529,90	1275,88
530,09	1296,36
530,29	1255,40
530,49	1329,13
530,69	1245,16
530,89	1341,42
531,09	1271,79
531,28	1296,36
531,48	1282,03
531,68	1255,40
531,88	1259,50
532,08	1177,58
532,28	1312,75
532,47	1296,36
532,67	1300,46
532,87	1294,32
533,07	1279,98
533,27	1347,56
533,46	1304,56
533,66	1331,18
533,86	1320,94
534,06	1325,04
534,26	1279,98
534,45	1263,60
534,65	1331,18
534,85	1294,32
535,05	1308,65
535,25	1265,64
535,44	1247,21
535,64	1241,07
535,84	1308,65
536,04	1196,01
536,24	1345,52
536,43	1259,50
536,63	1290,22
536,83	1320,94
537,03	1302,51
537,22	1298,41
537,42	1267,69
537,62	1193,97
537,82	1267,69
538,02	1259,50
538,21	1304,56
538,41	1378,28
538,61	1253,36
538,81	1196,01
539,00	1253,36
539,20	1310,70
539,40	1269,74
539,60	1337,32
539,79	1277,93
539,99	1153,01
540,19	1284,08
540,39	1300,46
540,58	1265,64
540,78	1273,84
540,98	1259,50
541,18	1234,93
541,37	1361,90
541,57	1439,72
541,77	1267,69
541,97	1320,94
542,16	1298,41
542,36	1329,13
542,56	1277,93
542,76	1286,12
542,95	1261,55
543,15	1247,21
543,35	1322,99
543,54	1208,30
543,74	1286,12
543,94	1249,26
544,14	1175,53
544,33	1267,69
544,53	1191,92
544,73	1269,74
544,93	1322,99
545,12	1304,56
545,32	1265,64
545,52	1269,74
545,71	1247,21
545,91	1322,99
546,11	1251,31
546,30	1292,27
546,50	1282,03
546,70	1296,36
546,90	1386,47
547,09	1316,84
547,29	1247,21
547,49	1275,88
547,68	1318,89
547,88	1245,16
548,08	1294,32
548,27	1376,24
548,47	1312,75
548,67	1224,69
548,87	1370,09
549,06	1243,12
549,26	1239,02
549,46	1286,12
549,65	1296,36
549,85	1255,40
550,05	1316,84
550,24	1296,36
550,44	1327,08
550,64	1282,03
550,83	1298,41
551,03	1318,89
551,23	1304,56
551,42	1331,18
551,62	1329,13
551,82	1255,40
552,01	1325,04
552,21	1249,26
552,41	1273,84
552,60	1282,03
552,80	1279,98
553,00	1318,89
553,19	1347,56
553,39	1314,80
553,59	1189,87
553,78	1275,88
553,98	1320,94
554,17	1327,08
554,37	1269,74
554,57	1298,41
554,76	1284,08
554,96	1286,12
555,16	1259,50
555,35	1257,45
555,55	1247,21
555,75	1316,84
555,94	1279,98
556,14	1366,00
556,33	1261,55
556,53	1222,64
556,73	1310,70
556,92	1265,64
557,12	1245,16
557,32	1296,36
557,51	1216,49
557,71	1304,56
557,90	1333,23
558,10	1263,60
558,30	1306,60
558,49	1302,51
558,69	1247,21
558,88	1243,12
559,08	1296,36
559,28	1275,88
559,47	1218,54
559,67	1339,37
559,86	1290,22
560,06	1212,40
560,26	1267,69
560,45	1279,98
560,65	1316,84
560,84	1382,38
561,04	1304,56
561,24	1261,55
561,43	1314,80
561,63	1239,02
561,82	1306,60
562,02	1306,60
562,22	1284,08
562,41	1224,69
562,61	1302,51
562,80	1267,69
563,00	1341,42
563,19	1259,50
563,39	1304,56
563,59	1261,55
563,78	1241,07
563,98	1325,04
564,17	1286,12
564,37	1255,40
564,56	1265,64
564,76	1261,55
564,96	1273,84
565,15	1363,95
565,35	1273,84
565,54	1243,12
565,74	1251,31
565,93	1349,61
566,13	1273,84
566,32	1286,12
566,52	1265,64
566,71	1273,84
566,91	1255,40
567,11	1304,56
567,30	1277,93
567,50	1228,78
567,69	1282,03
567,89	1370,09
568,08	1273,84
568,28	1269,74
568,47	1294,32
568,67	1306,60
568,86	1296,36
569,06	1253,36
569,25	1220,59
569,45	1279,98
569,64	1296,36
569,84	1269,74
570,04	1261,55
570,23	1322,99
570,43	1333,23
570,62	1314,80
570,82	1288,17
571,01	1290,22
571,21	1196,01
571,40	1310,70
571,60	1206,25
571,79	1275,88
571,99	1300,46
572,18	1302,51
572,38	1318,89
572,57	1267,69
572,77	1200,11
572,96	1249,26
573,16	1339,37
573,35	1339,37
573,55	1333,23
573,74	1316,84
573,94	1337,32
574,13	1296,36
574,33	1282,03
574,52	1363,95
574,71	1339,37
574,91	1282,03
575,10	1263,60
575,30	1253,36
575,49	1263,60
575,69	1322,99
575,88	1282,03
576,08	1230,83
576,27	1230,83
576,47	1251,31
576,66	1316,84
576,86	1279,98
577,05	1249,26
577,25	1302,51
577,44	1312,75
577,64	1304,56
577,83	1308,65
578,02	1292,27
578,22	1312,75
578,41	1308,65
578,61	1239,02
578,80	1279,98
579,00	1304,56
579,19	1200,11
579,39	1228,78
579,58	1255,40
579,77	1275,88
579,97	1327,08
580,16	1290,22
580,36	1322,99
580,55	1265,64
580,75	1312,75
580,94	1267,69
581,13	1267,69
581,33	1239,02
581,52	1329,13
581,72	1249,26
581,91	1253,36
582,11	1241,07
582,30	1304,56
582,49	1282,03
582,69	1290,22
582,88	1220,59
583,08	1208,30
583,27	1331,18
583,47	1267,69
583,66	1339,37
583,85	1304,56
584,05	1267,69
584,24	1290,22
584,44	1198,06
584,63	1290,22
584,82	1327,08
585,02	1349,61
585,21	1226,73
585,41	1277,93
585,60	1261,55
585,79	1214,45
585,99	1335,28
586,18	1253,36
586,37	1306,60
586,57	1296,36
586,76	1314,80
586,96	1230,83
587,15	1206,25
587,34	1236,97
587,54	1275,88
587,73	1275,88
587,93	1304,56
588,12	1251,31
588,31	1241,07
588,51	1298,41
588,70	1253,36
588,89	1216,49
589,09	1298,41
589,28	1277,93
589,47	1284,08
589,67	1308,65
589,86	1337,32
590,06	1302,51
590,25	1318,89
590,44	1277,93
590,64	1259,50
590,83	1277,93
591,02	1366,00
591,22	1306,60
591,41	1279,98
591,60	1234,93
591,80	1249,26
591,99	1288,17
592,18	1310,70
592,38	1306,60
592,57	1249,26
592,76	1275,88
592,96	1300,46
593,15	1310,70
593,34	1282,03
593,54	1327,08
593,73	1257,45
593,92	1351,66
594,12	1337,32
594,31	1243,12
594,50	1263,60
594,70	1232,88
594,89	1327,08
595,08	1228,78
595,28	1224,69
595,47	1322,99
595,66	1296,36
595,86	1249,26
596,05	1255,40
596,24	1318,89
596,43	1335,28
596,63	1220,59
596,82	1341,42
597,01	1265,64
597,21	1167,34
597,40	1212,40
597,59	1261,55
597,79	1226,73
597,98	1339,37
598,17	1349,61
598,36	1310,70
598,56	1239,02
598,75	1288,17
598,94	1239,02
599,14	1325,04
599,33	1259,50
599,52	1261,55
599,71	1286,12
599,91	1253,36
600,10	1296,36
600,29	1259,50
600,48	1275,88
600,68	1304,56
600,87	1327,08
601,06	1292,27
601,26	1298,41
601,45	1279,98
601,64	1310,70
601,83	1290,22
602,03	1277,93
602,22	1251,31
602,41	1271,79
602,60	1294,32
602,80	1253,36
602,99	1359,85
603,18	1304,56
603,37	1273,84
603,57	1327,08
603,76	1325,04
603,95	1318,89
604,14	1257,45
604,34	1247,21
604,53	1304,56
604,72	1275,88
604,91	1271,79
605,10	1257,45
605,30	1282,03
605,49	1296,36
605,68	1312,75
605,87	1241,07
606,07	1263,60
606,26	1329,13
606,45	1265,64
606,64	1296,36
606,84	1273,84
607,03	1279,98
607,22	1263,60
607,41	1290,22
607,60	1265,64
607,80	1249,26
607,99	1265,64
608,18	1253,36
608,37	1249,26
608,56	1314,80
608,76	1318,89
608,95	1292,27
609,14	1245,16
609,33	1298,41
609,52	1366,00
609,72	1249,26
609,91	1300,46
610,10	1234,93
610,29	1347,56
610,48	1224,69
610,68	1273,84
610,87	1347,56
611,06	1298,41
611,25	1292,27
611,44	1241,07
611,63	1331,18
611,83	1271,79
612,02	1284,08
612,21	1265,64
612,40	1277,93
612,59	1263,60
612,79	1363,95
612,98	1298,41
613,17	1282,03
613,36	1335,28
613,55	1302,51
613,74	1316,84
613,93	1222,64
614,13	1292,27
614,32	1335,28
614,51	1327,08
614,70	1339,37
614,89	1288,17
615,08	1249,26
615,28	1347,56
615,47	1279,98
615,66	1232,88
615,85	1308,65
616,04	1232,88
616,23	1271,79
616,42	1296,36
616,62	1327,08
616,81	1372,14
617,00	1320,94
617,19	1308,65
617,38	1257,45
617,57	1345,52
617,76	1275,88
617,95	1247,21
618,15	1296,36
618,34	1273,84
618,53	1292,27
618,72	1208,30
618,91	1259,50
619,10	1292,27
619,29	1222,64
619,48	1251,31
619,68	1282,03
619,87	1263,60
620,06	1279,98
620,25	1316,84
620,44	1249,26
620,63	1279,98
620,82	1308,65
621,01	1290,22
621,20	1320,94
621,39	1300,46
621,59	1255,40
621,78	1224,69
621,97	1298,41
622,16	1353,71
622,35	1257,45
622,54	1345,52
622,73	1271,79
622,92	1255,40
623,11	1263,60
623,30	1337,32
623,49	1214,45
623,68	1284,08
623,88	1243,12
624,07	1249,26
624,26	1320,94
624,45	1267,69
624,64	1185,77
624,83	1343,47
625,02	1316,84
625,21	1263,60
625,40	1327,08
625,59	1273,84
625,78	1300,46
625,97	1308,65
626,16	1296,36
626,35	1294,32
626,54	1316,84
626,74	1318,89
626,93	1374,19
627,12	1277,93
627,31	1228,78
627,50	1249,26
627,69	1333,23
627,88	1331,18
628,07	1259,50
628,26	1310,70
628,45	1316,84
628,64	1273,84
628,83	1296,36
629,02	1290,22
629,21	1228,78
629,40	1286,12
629,59	1239,02
629,78	1243,12
629,97	1191,92
630,16	1310,70
630,35	1292,27
630,54	1300,46
630,73	1302,51
630,92	1282,03
631,11	1347,56
631,30	1304,56
631,49	1298,41
631,68	1249,26
631,87	1314,80
632,06	1495,02
632,25	1421,29
632,44	1429,48
632,63	1452,01
632,82	1535,98
633,01	1495,02
633,20	1476,59
633,39	1490,92
633,58	1599,46
633,77	1468,39
633,96	1560,55
634,15	1542,12
634,34	2570,20
634,53	3035,09
634,72	2017,25
634,91	1740,77
635,10	2631,64
635,29	3960,77
635,48	4474,81
635,67	4016,07
635,86	3424,20
636,05	2729,94
636,24	2185,18
636,43	1810,40
636,62	1636,33
636,81	1476,59
637,00	1464,30
637,19	1411,05
637,38	1339,37
637,57	1366,00
637,76	1339,37
637,95	1439,72
638,14	1343,47
638,33	1320,94
638,52	1327,08
638,71	1349,61
638,89	1298,41
639,08	1249,26
639,27	1269,74
639,46	1316,84
639,65	1290,22
639,84	1322,99
640,03	1296,36
640,22	1357,80
640,41	1271,79
640,60	1271,79
640,79	1325,04
640,98	1245,16
641,17	1232,88
641,36	1337,32
641,55	1249,26
641,74	1255,40
641,92	1339,37
642,11	1306,60
642,30	1335,28
642,49	1261,55
642,68	1355,76
642,87	1279,98
643,06	1284,08
643,25	1277,93
643,44	1279,98
643,63	1282,03
643,82	1261,55
644,00	1255,40
644,19	1269,74
644,38	1325,04
644,57	1288,17
644,76	1247,21
644,95	1212,40
645,14	1310,70
645,33	1245,16
645,52	1314,80
645,71	1310,70
645,89	1310,70
646,08	1288,17
646,27	1261,55
646,46	1261,55
646,65	1265,64
646,84	1249,26
647,03	1228,78
647,22	1347,56
647,40	1308,65
647,59	1318,89
647,78	1214,45
647,97	1263,60
648,16	1304,56
648,35	1249,26
648,54	1312,75
648,73	1294,32
648,91	1308,65
649,10	1259,50
649,29	1159,15
649,48	1329,13
649,67	1245,16
649,86	1241,07
650,05	1265,64
650,23	1304,56
650,42	1300,46
650,61	1316,84
650,80	1273,84
650,99	1212,40
651,18	1296,36
651,36	1271,79
651,55	1290,22
651,74	1312,75
651,93	1331,18
652,12	1304,56
652,31	1234,93
652,49	1183,73
652,68	1230,83
652,87	1282,03
653,06	1224,69
653,25	1316,84
653,44	1269,74
653,62	1349,61
653,81	1282,03
654,00	1267,69
654,19	1294,32
654,38	1296,36
654,56	1239,02
654,75	1298,41
654,94	1312,75
655,13	1267,69
655,32	1216,49
655,51	1279,98
655,69	1208,30
655,88	1208,30
656,07	1310,70
656,26	1327,08
656,45	1292,27
656,63	1273,84
656,82	1236,97
657,01	1216,49
657,20	1245,16
657,38	1263,60
657,57	1341,42
657,76	1345,52
657,95	1282,03
658,14	1263,60
658,32	1241,07
658,51	1372,14
658,70	1298,41
658,89	1232,88
659,08	1298,41
659,26	1296,36
659,45	1263,60
659,64	1273,84
659,83	1245,16
660,01	1345,52
660,20	1304,56
660,39	1245,16
660,58	1271,79
660,76	1333,23
660,95	1261,55
661,14	1261,55
661,33	1298,41
661,51	1294,32
661,70	1275,88
661,89	1247,21
662,08	1255,40
662,26	1239,02
662,45	1198,06
662,64	1239,02
662,83	1273,84
663,01	1259,50
663,20	1357,80
663,39	1286,12
663,58	1202,16
663,76	1302,51
663,95	1343,47
664,14	1214,45
664,32	1286,12
664,51	1298,41
664,70	1187,82
664,89	1275,88
665,07	1220,59
665,26	1331,18
665,45	1226,73
665,64	1310,70
665,82	1286,12
666,01	1239,02
666,20	1259,50
666,38	1249,26
666,57	1294,32
666,76	1300,46
666,95	1181,68
667,13	1269,74
667,32	1243,12
667,51	1306,60
667,69	1267,69
667,88	1320,94
668,07	1308,65
668,25	1288,17
668,44	1261,55
668,63	1339,37
668,81	1245,16
669,00	1232,88
669,19	1218,54
669,38	1269,74
669,56	1286,12
669,75	1273,84
669,94	1335,28
670,12	1259,50
670,31	1273,84
670,50	1243,12
670,68	1318,89
670,87	1271,79
671,06	1228,78
671,24	1269,74
671,43	1302,51
671,62	1218,54
671,80	1288,17
671,99	1345,52
672,18	1353,71
672,36	1304,56
672,55	1298,41
672,74	1320,94
672,92	1267,69
673,11	1277,93
673,29	1230,83
673,48	1288,17
673,67	1269,74
673,85	1255,40
674,04	1247,21
674,23	1243,12
674,41	1236,97
674,60	1325,04
674,79	1232,88
674,97	1337,32
675,16	1275,88
675,34	1304,56
675,53	1304,56
675,72	1271,79
675,90	1296,36
676,09	1314,80
676,28	1218,54
676,46	1271,79
676,65	1304,56
676,83	1263,60
677,02	1286,12
677,21	1339,37
677,39	1357,80
677,58	1269,74
677,77	1279,98
677,95	1331,18
678,14	1218,54
678,32	1304,56
678,51	1241,07
678,70	1282,03
678,88	1257,45
679,07	1298,41
679,25	1318,89
679,44	1177,58
679,63	1247,21
679,81	1243,12
680,00	1247,21
680,18	1241,07
680,37	1175,53
680,55	1306,60
680,74	1296,36
680,93	1241,07
681,11	1226,73
681,30	1314,80
681,48	1286,12
681,67	1363,95
681,85	1349,61
682,04	1306,60
682,23	1277,93
682,41	1253,36
682,60	1243,12
682,78	1220,59
682,97	1220,59
683,15	1234,93
683,34	1282,03
683,53	1322,99
683,71	1322,99
683,90	1245,16
684,08	1265,64
684,27	1257,45
684,45	1277,93
684,64	1263,60
684,82	1312,75
685,01	1275,88
685,19	1265,64
685,38	1298,41
685,57	1279,98
685,75	1255,40
685,94	1290,22
686,12	1302,51
686,31	1261,55
686,49	1181,68
686,68	1218,54
686,86	1310,70
687,05	1284,08
687,23	1153,01
687,42	1273,84
687,60	1329,13
687,79	1210,35
687,97	1286,12
688,16	1208,30
688,34	1245,16
688,53	1200,11
688,71	1290,22
688,90	1286,12
689,08	1230,83
689,27	1308,65
689,45	1261,55
689,64	1173,49
689,82	1261,55
690,01	1228,78
690,19	1257,45
690,38	1251,31
690,56	1265,64
690,75	1294,32
690,93	1232,88
691,12	1286,12
691,30	1245,16
691,49	1247,21
691,67	1222,64
691,86	1239,02
692,04	1202,16
692,23	1261,55
692,41	1279,98
692,60	1279,98
692,78	1277,93
692,97	1286,12
693,15	1331,18
693,34	1241,07
693,52	1296,36
693,71	1243,12
693,89	1353,71
694,08	1300,46
694,26	1224,69
694,44	1320,94
694,63	1224,69
694,81	1271,79
695,00	1222,64
695,18	1306,60
695,37	1257,45
695,55	1179,63
695,74	1267,69
695,92	1275,88
696,10	1273,84
696,29	1222,64
696,47	1300,46
696,66	1241,07
696,84	1271,79
697,03	1275,88
697,21	1294,32
697,40	1249,26
697,58	1257,45
697,76	1222,64
697,95	1347,56
698,13	1263,60
698,32	1253,36
698,50	1308,65
698,68	1249,26
698,87	1189,87
699,05	1314,80
699,24	1239,02
699,42	1216,49
699,61	1288,17
699,79	1265,64
699,97	1320,94
700,16	1296,36
700,34	1277,93
700,53	1214,45
700,71	1261,55
700,89	1214,45
701,08	1343,47
701,26	1271,79
701,45	1331,18
701,63	1189,87
701,81	1333,23
702,00	1279,98
702,18	1290,22
702,37	1253,36
702,55	1273,84
702,73	1273,84
702,92	1304,56
703,10	1253,36
703,28	1257,45
703,47	1277,93
703,65	1318,89
703,84	1259,50
704,02	1239,02
704,20	1308,65
704,39	1284,08
704,57	1263,60
704,75	1273,84
704,94	1259,50
705,12	1187,82
705,30	1292,27
705,49	1265,64
705,67	1275,88
705,86	1212,40
706,04	1210,35
706,22	1277,93
706,41	1236,97
706,59	1210,35
706,77	1308,65
706,96	1251,31
707,14	1243,12
707,32	1279,98
707,51	1222,64
707,69	1267,69
707,87	1202,16
708,06	1232,88
708,24	1302,51
708,42	1312,75
708,61	1312,75
708,79	1206,25
708,97	1271,79
709,16	1292,27
709,34	1325,04
709,52	1259,50
709,71	1322,99
709,89	1243,12
710,07	1329,13
710,26	1200,11
710,44	1224,69
710,62	1314,80
710,80	1228,78
710,99	1292,27
711,17	1337,32
711,35	1251,31
711,54	1308,65
711,72	1277,93
711,90	1224,69
712,09	1327,08
712,27	1294,32
712,45	1310,70
712,63	1337,32
712,82	1279,98
713,00	1206,25
713,18	1298,41
713,37	1273,84
713,55	1253,36
713,73	1255,40
713,91	1253,36
714,10	1368,04
714,28	1308,65
714,46	1320,94
714,65	1304,56
714,83	1279,98
715,01	1275,88
715,19	1312,75
715,38	1298,41
715,56	1255,40
715,74	1267,69
715,92	1200,11
716,11	1286,12
716,29	1239,02
716,47	1308,65
716,65	1271,79
716,84	1302,51
717,02	1273,84
717,20	1290,22
717,38	1263,60
717,57	1259,50
717,75	1302,51
717,93	1251,31
718,11	1208,30
718,30	1220,59
718,48	1224,69
718,66	1284,08
718,84	1325,04
719,03	1279,98
719,21	1277,93
719,39	1269,74
719,57	1300,46
719,75	1322,99
719,94	1271,79
720,12	1243,12
720,30	1288,17
720,48	1263,60
720,67	1275,88
720,85	1257,45
721,03	1236,97
721,21	1239,02
721,39	1273,84
721,58	1345,52
721,76	1308,65
721,94	1269,74
722,12	1253,36
722,30	1343,47
722,49	1269,74
722,67	1263,60
722,85	1337,32
723,03	1230,83
723,21	1206,25
723,40	1279,98
723,58	1279,98
723,76	1300,46
723,94	1329,13
724,12	1337,32
724,30	1232,88
724,49	1243,12
724,67	1255,40
724,85	1273,84
725,03	1271,79
725,21	1234,93
725,40	1284,08
725,58	1253,36
725,76	1286,12
725,94	1284,08
726,12	1200,11
726,30	1271,79
726,49	1351,66
726,67	1275,88
726,85	1306,60
727,03	1331,18
727,21	1253,36
727,39	1232,88
727,57	1263,60
727,76	1296,36
727,94	1277,93
728,12	1320,94
728,30	1212,40
728,48	1206,25
728,66	1226,73
728,84	1261,55
729,03	1200,11
729,21	1222,64
729,39	1247,21
729,57	1216,49
729,75	1261,55
729,93	1308,65
730,11	1263,60
730,30	1261,55
730,48	1234,93
730,66	1208,30
730,84	1232,88
731,02	1286,12
731,20	1286,12
731,38	1191,92
731,56	1214,45
731,74	1273,84
731,93	1198,06
732,11	1275,88
732,29	1320,94
732,47	1275,88
732,65	1253,36
732,83	1245,16
733,01	1308,65
733,19	1224,69
733,37	1196,01
733,56	1236,97
733,74	1236,97
733,92	1325,04
734,10	1265,64
734,28	1284,08
734,46	1288,17
734,64	1259,50
734,82	1279,98
735,00	1284,08
735,18	1212,40
735,36	1294,32
735,54	1327,08
735,73	1353,71
735,91	1196,01
736,09	1230,83
736,27	1245,16
736,45	1286,12
736,63	1236,97
736,81	1257,45
736,99	1322,99
737,17	1275,88
737,35	1253,36
737,53	1265,64
737,71	1234,93
737,89	1224,69
738,07	1286,12
738,25	1259,50
738,43	1230,83
738,61	1294,32
738,80	1243,12
738,98	1269,74
739,16	1232,88
739,34	1191,92
739,52	1224,69
739,70	1304,56
739,88	1230,83
740,06	1308,65
740,24	1290,22
740,42	1273,84
740,60	1333,23
740,78	1259,50
740,96	1220,59
741,14	1304,56
741,32	1212,40
741,50	1273,84
741,68	1269,74
741,86	1275,88
742,04	1245,16
742,22	1253,36
742,40	1329,13
742,58	1327,08
742,76	1288,17
742,94	1359,85
743,12	1255,40
743,30	1304,56
743,48	1312,75
743,66	1286,12
743,84	1343,47
744,02	1308,65
744,20	1200,11
744,38	1196,01
744,56	1347,56
744,74	1345,52
744,92	1216,49
745,10	1255,40
745,28	1302,51
745,46	1296,36
745,64	1314,80
745,82	1351,66
746,00	1232,88
746,18	1318,89
746,36	1290,22
746,54	1259,50
746,72	1302,51
746,90	1288,17
747,08	1273,84
747,26	1249,26
747,44	1245,16
747,62	1310,70
747,80	1363,95
747,98	1294,32
748,15	1259,50
748,33	1241,07
748,51	1290,22
748,69	1218,54
748,87	1241,07
749,05	1255,40
749,23	1302,51
749,41	1331,18
749,59	1302,51
749,77	1243,12
749,95	1275,88
750,13	1269,74
750,31	1253,36
750,49	1304,56
750,67	1273,84
750,85	1253,36
751,03	1277,93
751,20	1279,98
751,38	1263,60
751,56	1290,22
751,74	1300,46
751,92	1298,41
752,10	1271,79
752,28	1310,70
752,46	1273,84
752,64	1284,08
752,82	1298,41
753,00	1263,60
753,18	1277,93
753,35	1316,84
753,53	1173,49
753,71	1255,40
753,89	1294,32
754,07	1318,89
754,25	1284,08
754,43	1263,60
754,61	1224,69
754,79	1218,54
754,97	1279,98
755,14	1232,88
755,32	1259,50
755,50	1255,40
755,68	1312,75
755,86	1333,23
756,04	1290,22
756,22	1187,82
756,40	1263,60
756,57	1277,93
756,75	1304,56
756,93	1302,51
757,11	1322,99
757,29	1243,12
757,47	1271,79
757,65	1241,07
757,82	1279,98
758,00	1316,84
758,18	1292,27
758,36	1222,64
758,54	1288,17
758,72	1193,97
758,90	1259,50
759,07	1298,41
759,25	1304,56
759,43	1196,01
759,61	1239,02
759,79	1292,27
759,97	1284,08
760,15	1306,60
760,32	1279,98
760,50	1198,06
760,68	1255,40
760,86	1263,60
761,04	1318,89
761,22	1312,75
761,39	1236,97
761,57	1320,94
761,75	1214,45
761,93	1335,28
762,11	1279,98
762,28	1333,23
762,46	1265,64
762,64	1241,07
762,82	1255,40
763,00	1288,17
763,18	1322,99
763,35	1193,97
763,53	1234,93
763,71	1210,35
763,89	1306,60
764,07	1239,02
764,24	1282,03
764,42	1302,51
764,60	1208,30
764,78	1282,03
764,96	1306,60
765,13	1220,59
765,31	1322,99
765,49	1236,97
765,67	1239,02
765,84	1253,36
766,02	1202,16
766,20	1193,97
766,38	1259,50
766,56	1255,40
766,73	1279,98
766,91	1345,52
767,09	1304,56
767,27	1241,07
767,44	1247,21
767,62	1226,73
767,80	1243,12
767,98	1220,59
768,15	1316,84
768,33	1290,22
768,51	1290,22
768,69	1198,06
768,87	1335,28
769,04	1347,56
769,22	1279,98
769,40	1265,64
769,58	1304,56
769,75	1210,35
769,93	1193,97
770,11	1263,60
770,28	1322,99
770,46	1269,74
770,64	1259,50
770,82	1236,97
770,99	1253,36
771,17	1167,34
771,35	1327,08
771,53	1249,26
771,70	1284,08
771,88	1277,93
772,06	1249,26
772,23	1255,40
772,41	1294,32
772,59	1296,36
772,77	1236,97
772,94	1206,25
773,12	1263,60
773,30	1243,12
773,47	1230,83
773,65	1325,04
773,83	1312,75
774,01	1198,06
774,18	1245,16
774,36	1259,50
774,54	1300,46
774,71	1255,40
774,89	1253,36
775,07	1314,80
775,24	1257,45
775,42	1347,56
775,60	1245,16
775,78	1239,02
775,95	1288,17
776,13	1251,31
776,31	1243,12
776,48	1249,26
776,66	1279,98
776,84	1239,02
777,01	1230,83
777,19	1298,41
777,37	1318,89
777,54	1294,32
777,72	1259,50
777,90	1224,69
778,07	1284,08
778,25	1273,84
778,43	1239,02
778,60	1239,02
778,78	1277,93
778,96	1196,01
779,13	1241,07
779,31	1277,93
779,49	1241,07
779,66	1288,17
779,84	1273,84
780,01	1380,33
780,19	1269,74
780,37	1216,49
780,54	1269,74
780,72	1247,21
780,90	1247,21
781,07	1169,39
781,25	1318,89
781,43	1296,36
781,60	1298,41
781,78	1335,28
781,95	1257,45
782,13	1263,60
782,31	1320,94
782,48	1263,60
782,66	1296,36
782,83	1339,37
783,01	1294,32
783,19	1234,93
783,36	1271,79
783,54	1159,15
783,72	1339,37
783,89	1249,26
784,07	1271,79
784,24	1316,84
784,42	1271,79
784,60	1294,32
784,77	1230,83
784,95	1325,04
785,12	1288,17
785,30	1310,70
785,47	1249,26
785,65	1312,75
785,83	1265,64
786,00	1228,78
786,18	1298,41
786,35	1255,40
786,53	1290,22
786,71	1322,99
786,88	1226,73
787,06	1277,93
787,23	1322,99
787,41	1257,45
787,58	1259,50
787,76	1355,76
787,94	1253,36
788,11	1296,36
788,29	1245,16
788,46	1296,36
788,64	1259,50
788,81	1169,39
788,99	1181,68
789,16	1226,73
789,34	1322,99
789,52	1247,21
789,69	1224,69
789,87	1255,40
790,04	1236,97
790,22	1220,59
790,39	1232,88
790,57	1216,49
790,74	1290,22
790,92	1251,31
791,09	1277,93
791,27	1298,41
791,44	1271,79
791,62	1257,45
791,79	1298,41
791,97	1239,02
792,15	1249,26
792,32	1298,41
792,50	1282,03
792,67	1220,59
792,85	1214,45
793,02	1255,40
793,20	1271,79
793,37	1236,97
793,55	1318,89
793,72	1370,09
793,90	1239,02
794,07	1265,64
794,25	1284,08
794,42	1267,69
794,60	1212,40
794,77	1267,69
794,95	1345,52
795,12	1224,69
795,30	1257,45
795,47	1286,12
795,65	1292,27
795,82	1318,89
796,00	1265,64
796,17	1228,78
796,34	1333,23
796,52	1312,75
796,69	1298,41
796,87	1302,51
797,04	1226,73
797,22	1277,93
797,39	1263,60
797,57	1241,07
797,74	1234,93
797,92	1257,45
798,09	1224,69
798,27	1347,56
798,44	1181,68
798,62	1304,56
798,79	1284,08
798,96	1177,58
799,14	1181,68
799,31	1290,22
799,49	1249,26
799,66	1259,50
799,84	1239,02
800,01	1288,17
800,19	1255,40
800,36	1236,97
800,53	1243,12
800,71	1230,83
800,88	1239,02
801,06	1198,06
801,23	1312,75
801,41	1163,25
801,58	1239,02
801,75	1304,56
801,93	1279,98
802,10	1204,21
802,28	1232,88
802,45	1202,16
802,63	1273,84
802,80	1267,69
802,97	1275,88
803,15	1255,40
803,32	1247,21
803,50	1284,08
803,67	1228,78
803,84	1261,55
804,02	1277,93
804,19	1222,64
804,37	1251,31
804,54	1187,82
804,71	1333,23
804,89	1202,16
805,06	1255,40
805,24	1269,74
805,41	1277,93
805,58	1292,27
805,76	1288,17
805,93	1257,45
806,10	1265,64
806,28	1234,93
806,45	1255,40
806,63	1226,73
806,80	1292,27
806,97	1320,94
807,15	1247,21
807,32	1267,69
807,49	1259,50
807,67	1232,88
807,84	1230,83
808,01	1267,69
808,19	1282,03
808,36	1325,04
808,54	1286,12
808,71	1308,65
808,88	1228,78
809,06	1212,40
809,23	1226,73
809,40	1275,88
809,58	1243,12
809,75	1218,54
809,92	1243,12
810,10	1294,32
810,27	1282,03
810,44	1261,55
810,62	1312,75
810,79	1249,26
810,96	1298,41
811,14	1249,26
811,31	1320,94
811,48	1181,68
811,66	1273,84
811,83	1198,06
812,00	1304,56
812,18	1288,17
812,35	1269,74
812,52	1261,55
812,69	1224,69
812,87	1306,60
813,04	1247,21
813,21	1265,64
813,39	1335,28
813,56	1263,60
813,73	1308,65
813,91	1284,08
814,08	1279,98
814,25	1243,12
814,42	1282,03
814,60	1224,69
814,77	1286,12
814,94	1329,13
815,12	1279,98
815,29	1273,84
815,46	1269,74
815,63	1271,79
815,81	1255,40
815,98	1212,40
816,15	1275,88
816,33	1224,69
816,50	1304,56
816,67	1222,64
816,84	1296,36
817,02	1222,64
817,19	1267,69
817,36	1249,26
817,53	1257,45
817,71	1243,12
817,88	1247,21
818,05	1304,56
818,22	1204,21
818,40	1298,41
818,57	1277,93
818,74	1282,03
818,91	1279,98
819,09	1275,88
819,26	1241,07
819,43	1284,08
819,60	1282,03
819,78	1222,64
819,95	1216,49
820,12	1255,40
820,29	1255,40
820,47	1245,16
820,64	1271,79
820,81	1290,22
820,98	1267,69
821,15	1300,46
821,33	1198,06
821,50	1322,99
821,67	1300,46
821,84	1259,50
822,02	1277,93
822,19	1269,74
822,36	1249,26
822,53	1200,11
822,70	1261,55
822,88	1282,03
823,05	1259,50
823,22	1267,69
823,39	1288,17
823,56	1191,92
823,74	1279,98
823,91	1241,07
824,08	1275,88
824,25	1288,17
824,42	1222,64
824,60	1236,97
824,77	1296,36
824,94	1279,98
825,11	1273,84
825,28	1265,64
825,45	1292,27
825,63	1282,03
825,80	1282,03
825,97	1210,35
826,14	1314,80
826,31	1265,64
826,48	1290,22
826,66	1355,76
826,83	1210,35
827,00	1212,40
827,17	1243,12
827,34	1226,73
827,51	1277,93
827,69	1306,60
827,86	1310,70
828,03	1279,98
828,20	1183,73
828,37	1312,75
828,54	1257,45
828,71	1277,93
828,89	1284,08
829,06	1253,36
829,23	1255,40
829,40	1304,56
829,57	1288,17
829,74	1245,16
829,91	1214,45
830,09	1366,00
830,26	1347,56
830,43	1261,55
830,60	1253,36
830,77	1261,55
830,94	1322,99
831,11	1193,97
831,28	1249,26
831,46	1314,80
831,63	1251,31
831,80	1236,97
831,97	1279,98
832,14	1265,64
832,31	1218,54
832,48	1337,32
832,65	1282,03
832,82	1236,97
832,99	1273,84
833,17	1261,55
833,34	1241,07
833,51	1363,95
833,68	1247,21
833,85	1308,65
834,02	1306,60
834,19	1249,26
834,36	1304,56
834,53	1253,36
834,70	1290,22
834,87	1253,36
835,04	1232,88
835,22	1306,60
835,39	1202,16
835,56	1191,92
835,73	1296,36
835,90	1224,69
836,07	1331,18
836,24	1296,36
836,41	1310,70
836,58	1271,79
836,75	1296,36
836,92	1314,80
837,09	1304,56
837,26	1298,41
837,43	1282,03
837,60	1314,80
837,77	1298,41
837,94	1361,90
838,12	1263,60
838,29	1298,41
838,46	1308,65
838,63	1232,88
838,80	1263,60
838,97	1310,70
839,14	1345,52
839,31	1306,60
839,48	1296,36
839,65	1290,22
839,82	1337,32
839,99	1310,70
840,16	1312,75
840,33	1327,08
840,50	1312,75
840,67	1259,50
840,84	1243,12
841,01	1284,08
841,18	1214,45
841,35	1329,13
841,52	1292,27
841,69	1286,12
841,86	1290,22
842,03	1288,17
842,20	1234,93
842,37	1214,45
842,54	1302,51
842,71	1308,65
842,88	1232,88
843,05	1296,36
843,22	1236,97
843,39	1339,37
843,56	1173,49
843,73	1245,16
843,90	1228,78
844,07	1265,64
844,24	1288,17
844,41	1312,75
844,58	1273,84
844,75	1230,83
844,92	1226,73
845,09	1208,30
845,26	1284,08
845,43	1265,64
845,60	1261,55
845,77	1210,35
845,94	1236,97
846,10	1322,99
846,27	1318,89
846,44	1228,78
846,61	1302,51
846,78	1208,30
846,95	1308,65
847,12	1279,98
847,29	1288,17
847,46	1322,99
847,63	1279,98
847,80	1216,49
847,97	1290,22
848,14	1292,27
848,31	1263,60
848,48	1286,12
848,65	1282,03
848,82	1181,68
848,98	1277,93
849,15	1226,73
849,32	1312,75
849,49	1263,60
849,66	1251,31
849,83	1314,80
850,00	1329,13
850,17	1318,89
850,34	1263,60
850,51	1236,97
850,68	1290,22
850,85	1277,93
851,01	1259,50
851,18	1234,93
851,35	1253,36
851,52	1263,60
851,69	1222,64
851,86	1239,02
852,03	1259,50
852,20	1320,94
852,37	1224,69
852,53	1296,36
852,70	1247,21
852,87	1269,74
853,04	1298,41
853,21	1224,69
853,38	1273,84
853,55	1271,79
853,72	1282,03
853,89	1249,26
854,05	1298,41
854,22	1316,84
854,39	1245,16
854,56	1259,50
854,73	1300,46
854,90	1279,98
855,07	1210,35
855,23	1265,64
855,40	1288,17
855,57	1230,83
855,74	1273,84
855,91	1277,93
856,08	1284,08
856,25	1167,34
856,41	1271,79
856,58	1273,84
856,75	1265,64
856,92	1286,12
857,09	1314,80
857,26	1208,30
857,42	1216,49
857,59	1318,89
857,76	1230,83
857,93	1251,31
858,10	1271,79
858,27	1157,10
858,43	1253,36
858,60	1261,55
858,77	1304,56
858,94	1261,55
859,11	1247,21
859,27	1265,64
859,44	1220,59
859,61	1302,51
859,78	1279,98
859,95	1308,65
860,12	1290,22
860,28	1269,74
860,45	1288,17
860,62	1243,12
860,79	1236,97
860,95	1212,40
861,12	1306,60
861,29	1210,35
861,46	1277,93
861,63	1275,88
861,79	1325,04
861,96	1126,38
862,13	1253,36
862,30	1267,69
862,47	1327,08
862,63	1220,59
862,80	1251,31
862,97	1263,60
863,14	1214,45
863,30	1302,51
863,47	1230,83
863,64	1298,41
863,81	1232,88
863,97	1322,99
864,14	1306,60
864,31	1306,60
864,48	1271,79
864,65	1208,30
864,81	1308,65
864,98	1294,32
865,15	1288,17
865,32	1230,83
865,48	1316,84
865,65	1337,32
865,82	1282,03
865,98	1282,03
866,15	1239,02
866,32	1269,74
866,49	1271,79
866,65	1322,99
866,82	1290,22
866,99	1241,07
867,16	1304,56
867,32	1253,36
867,49	1310,70
867,66	1294,32
867,83	1216,49
867,99	1220,59
868,16	1220,59
868,33	1247,21
868,49	1304,56
868,66	1282,03
868,83	1331,18
868,99	1245,16
869,16	1292,27
869,33	1267,69
869,50	1282,03
869,66	1261,55
869,83	1300,46
870,00	1216,49
870,16	1275,88
870,33	1277,93
870,50	1310,70
870,66	1202,16
870,83	1292,27
871,00	1310,70
871,17	1210,35
871,33	1228,78
871,50	1284,08
871,67	1277,93
871,83	1351,66
872,00	1273,84
872,17	1220,59
872,33	1232,88
872,50	1216,49
872,67	1269,74
872,83	1265,64
873,00	1284,08
873,17	1222,64
873,33	1232,88
873,50	1329,13
873,67	1228,78
873,83	1232,88
874,00	1267,69
874,16	1306,60
874,33	1343,47
874,50	1236,97
874,66	1263,60
874,83	1261,55
875,00	1234,93
875,16	1247,21
875,33	1302,51
875,50	1286,12
875,66	1267,69
875,83	1400,81
875,99	1275,88
876,16	1288,17
876,33	1251,31
876,49	1294,32
876,66	1245,16
876,83	1306,60
876,99	1273,84
877,16	1224,69
877,32	1255,40
877,49	1243,12
877,66	1333,23
877,82	1179,63
877,99	1232,88
878,15	1249,26
878,32	1298,41
878,49	1300,46
878,65	1236,97
878,82	1304,56
878,98	1302,51
879,15	1335,28
879,32	1236,97
879,48	1249,26
879,65	1251,31
879,81	1318,89
879,98	1349,61
880,15	1273,84
880,31	1243,12
880,48	1275,88
880,64	1314,80
880,81	1368,04
880,97	1253,36
881,14	1253,36
881,31	1253,36
881,47	1349,61
881,64	1320,94
881,80	1247,21
881,97	1302,51
882,13	1245,16
882,30	1279,98
882,47	1257,45
882,63	1234,93
882,80	1208,30
882,96	1204,21
883,13	1320,94
883,29	1230,83
883,46	1214,45
883,62	1294,32
883,79	1185,77
883,95	1228,78
884,12	1269,74
884,29	1312,75
884,45	1200,11
884,62	1251,31
884,78	1232,88
884,95	1302,51
885,11	1239,02
885,28	1267,69
885,44	1239,02
885,61	1257,45
885,77	1267,69
885,94	1230,83
886,10	1241,07
886,27	1286,12
886,43	1322,99
886,60	1232,88
886,76	1302,51
886,93	1269,74
887,09	1259,50
887,26	1275,88
887,42	1267,69
887,59	1257,45
887,75	1247,21
887,92	1198,06
888,08	1282,03
888,25	1224,69
888,41	1263,60
888,58	1300,46
888,74	1263,60
888,91	1255,40
>>>>>End Processed Spectral Data<<<<<
