SpectraSuite Data File
++++++++++++++++++++++++++++++++++++
Date: Sun Apr 03 19:55:31 CEST 2016
User: root
Dark Spectrum Present: No
Reference Spectrum Present: No
Number of Sampled Component Spectra: 1
Spectrometers: USB4C02835
Integration Time (usec): 10000 (USB4C02835)
Spectra Averaged: 1 (USB4C02835)
Boxcar Smoothing: 0 (USB4C02835)
Correct for Electrical Dark: No (USB4C02835)
Strobe/Lamp Enabled: No (USB4C02835)
Correct for Detector Non-linearity: No (USB4C02835)
Correct for Stray Light: No (USB4C02835)
Number of Pixels in Processed Spectrum: 3648
>>>>>Begin Processed Spectral Data<<<<<
177,47	1282,03
177,69	1282,03
177,91	1282,03
178,13	1222,64
178,36	1173,49
178,58	1322,99
178,80	1284,08
179,02	1247,21
179,24	1286,12
179,46	1202,16
179,68	1312,75
179,90	1282,03
180,13	1220,59
180,35	1327,08
180,57	1310,70
180,79	1304,56
181,01	1257,45
181,23	1253,36
181,45	1325,04
181,67	1271,79
181,90	1288,17
182,12	1234,93
182,34	1304,56
182,56	1189,87
182,78	1257,45
183,00	1275,88
183,22	1228,78
183,44	1263,60
183,66	1282,03
183,89	1251,31
184,11	1314,80
184,33	1232,88
184,55	1249,26
184,77	1243,12
184,99	1234,93
185,21	1249,26
185,43	1243,12
185,65	1294,32
185,87	1265,64
186,10	1325,04
186,32	1265,64
186,54	1302,51
186,76	1277,93
186,98	1292,27
187,20	1275,88
187,42	1275,88
187,64	1202,16
187,86	1202,16
188,08	1310,70
188,30	1230,83
188,52	1267,69
188,75	1224,69
188,97	1320,94
189,19	1251,31
189,41	1249,26
189,63	1286,12
189,85	1335,28
190,07	1257,45
190,29	1312,75
190,51	1331,18
190,73	1263,60
190,95	1271,79
191,17	1292,27
191,39	1265,64
191,61	1259,50
191,84	1191,92
192,06	1282,03
192,28	1345,52
192,50	1259,50
192,72	1200,11
192,94	1232,88
193,16	1275,88
193,38	1234,93
193,60	1294,32
193,82	1249,26
194,04	1314,80
194,26	1232,88
194,48	1296,36
194,70	1239,02
194,92	1298,41
195,14	1282,03
195,36	1239,02
195,58	1337,32
195,80	1279,98
196,02	1304,56
196,24	1200,11
196,46	1257,45
196,69	1183,73
196,91	1196,01
197,13	1212,40
197,35	1267,69
197,57	1273,84
197,79	1247,21
198,01	1308,65
198,23	1241,07
198,45	1282,03
198,67	1300,46
198,89	1200,11
199,11	1255,40
199,33	1282,03
199,55	1314,80
199,77	1239,02
199,99	1292,27
200,21	1224,69
200,43	1249,26
200,65	1198,06
200,87	1253,36
201,09	1253,36
201,31	1271,79
201,53	1230,83
201,75	1265,64
201,97	1232,88
202,19	1259,50
202,41	1255,40
202,63	1318,89
202,85	1255,40
203,07	1277,93
203,29	1247,21
203,51	1171,44
203,73	1292,27
203,95	1269,74
204,17	1314,80
204,39	1216,49
204,61	1247,21
204,83	1208,30
205,05	1300,46
205,27	1290,22
205,49	1218,54
205,71	1271,79
205,93	1226,73
206,15	1288,17
206,37	1220,59
206,59	1257,45
206,81	1243,12
207,03	1261,55
207,25	1290,22
207,47	1265,64
207,69	1249,26
207,91	1200,11
208,13	1255,40
208,34	1224,69
208,56	1263,60
208,78	1247,21
209,00	1273,84
209,22	1241,07
209,44	1325,04
209,66	1243,12
209,88	1290,22
210,10	1234,93
210,32	1277,93
210,54	1292,27
210,76	1277,93
210,98	1253,36
211,20	1193,97
211,42	1239,02
211,64	1218,54
211,86	1257,45
212,08	1279,98
212,30	1314,80
212,52	1257,45
212,74	1320,94
212,96	1275,88
213,17	1302,51
213,39	1339,37
213,61	1212,40
213,83	1279,98
214,05	1259,50
214,27	1232,88
214,49	1349,61
214,71	1226,73
214,93	1243,12
215,15	1263,60
215,37	1269,74
215,59	1255,40
215,81	1241,07
216,03	1232,88
216,24	1265,64
216,46	1308,65
216,68	1282,03
216,90	1294,32
217,12	1159,15
217,34	1314,80
217,56	1261,55
217,78	1286,12
218,00	1282,03
218,22	1314,80
218,44	1282,03
218,66	1239,02
218,87	1275,88
219,09	1216,49
219,31	1279,98
219,53	1181,68
219,75	1245,16
219,97	1294,32
220,19	1290,22
220,41	1298,41
220,63	1296,36
220,85	1259,50
221,06	1243,12
221,28	1284,08
221,50	1312,75
221,72	1228,78
221,94	1302,51
222,16	1255,40
222,38	1347,56
222,60	1300,46
222,82	1357,80
223,03	1300,46
223,25	1255,40
223,47	1218,54
223,69	1312,75
223,91	1257,45
224,13	1314,80
224,35	1300,46
224,57	1239,02
224,78	1204,21
225,00	1269,74
225,22	1251,31
225,44	1271,79
225,66	1222,64
225,88	1284,08
226,10	1275,88
226,32	1269,74
226,53	1204,21
226,75	1232,88
226,97	1282,03
227,19	1308,65
227,41	1359,85
227,63	1288,17
227,85	1222,64
228,06	1265,64
228,28	1292,27
228,50	1320,94
228,72	1271,79
228,94	1261,55
229,16	1236,97
229,37	1234,93
229,59	1363,95
229,81	1259,50
230,03	1325,04
230,25	1286,12
230,47	1255,40
230,69	1279,98
230,90	1208,30
231,12	1259,50
231,34	1210,35
231,56	1341,42
231,78	1347,56
232,00	1271,79
232,21	1284,08
232,43	1269,74
232,65	1198,06
232,87	1302,51
233,09	1341,42
233,30	1314,80
233,52	1255,40
233,74	1253,36
233,96	1239,02
234,18	1290,22
234,40	1271,79
234,61	1318,89
234,83	1288,17
235,05	1181,68
235,27	1236,97
235,49	1277,93
235,70	1265,64
235,92	1296,36
236,14	1277,93
236,36	1314,80
236,58	1216,49
236,79	1259,50
237,01	1300,46
237,23	1273,84
237,45	1308,65
237,67	1302,51
237,88	1259,50
238,10	1239,02
238,32	1282,03
238,54	1251,31
238,76	1355,76
238,97	1269,74
239,19	1247,21
239,41	1277,93
239,63	1269,74
239,85	1210,35
240,06	1284,08
240,28	1263,60
240,50	1337,32
240,72	1202,16
240,93	1341,42
241,15	1271,79
241,37	1277,93
241,59	1302,51
241,81	1191,92
242,02	1296,36
242,24	1191,92
242,46	1275,88
242,68	1316,84
242,89	1294,32
243,11	1263,60
243,33	1298,41
243,55	1296,36
243,76	1290,22
243,98	1261,55
244,20	1275,88
244,42	1304,56
244,64	1226,73
244,85	1232,88
245,07	1259,50
245,29	1308,65
245,51	1269,74
245,72	1288,17
245,94	1249,26
246,16	1325,04
246,38	1257,45
246,59	1255,40
246,81	1234,93
247,03	1177,58
247,24	1249,26
247,46	1236,97
247,68	1171,44
247,90	1265,64
248,11	1214,45
248,33	1257,45
248,55	1316,84
248,77	1290,22
248,98	1241,07
249,20	1277,93
249,42	1275,88
249,64	1228,78
249,85	1355,76
250,07	1282,03
250,29	1243,12
250,50	1222,64
250,72	1300,46
250,94	1257,45
251,16	1363,95
251,37	1310,70
251,59	1273,84
251,81	1253,36
252,02	1286,12
252,24	1247,21
252,46	1279,98
252,68	1218,54
252,89	1269,74
253,11	1294,32
253,33	1239,02
253,54	1245,16
253,76	1282,03
253,98	1302,51
254,20	1290,22
254,41	1216,49
254,63	1210,35
254,85	1302,51
255,06	1329,13
255,28	1308,65
255,50	1255,40
255,71	1247,21
255,93	1271,79
256,15	1316,84
256,36	1275,88
256,58	1286,12
256,80	1222,64
257,02	1189,87
257,23	1234,93
257,45	1191,92
257,67	1181,68
257,88	1290,22
258,10	1290,22
258,32	1265,64
258,53	1259,50
258,75	1239,02
258,97	1339,37
259,18	1206,25
259,40	1296,36
259,62	1236,97
259,83	1275,88
260,05	1284,08
260,27	1306,60
260,48	1241,07
260,70	1249,26
260,92	1183,73
261,13	1257,45
261,35	1269,74
261,57	1327,08
261,78	1298,41
262,00	1320,94
262,22	1275,88
262,43	1226,73
262,65	1316,84
262,86	1259,50
263,08	1196,01
263,30	1312,75
263,51	1208,30
263,73	1294,32
263,95	1261,55
264,16	1216,49
264,38	1267,69
264,60	1320,94
264,81	1290,22
265,03	1331,18
265,25	1220,59
265,46	1232,88
265,68	1304,56
265,89	1308,65
266,11	1204,21
266,33	1292,27
266,54	1298,41
266,76	1222,64
266,98	1288,17
267,19	1284,08
267,41	1279,98
267,62	1245,16
267,84	1220,59
268,06	1288,17
268,27	1275,88
268,49	1265,64
268,70	1296,36
268,92	1216,49
269,14	1175,53
269,35	1269,74
269,57	1267,69
269,79	1269,74
270,00	1288,17
270,22	1296,36
270,43	1210,35
270,65	1320,94
270,87	1277,93
271,08	1273,84
271,30	1290,22
271,51	1243,12
271,73	1269,74
271,95	1269,74
272,16	1232,88
272,38	1279,98
272,59	1257,45
272,81	1269,74
273,02	1257,45
273,24	1261,55
273,46	1265,64
273,67	1253,36
273,89	1277,93
274,10	1263,60
274,32	1261,55
274,54	1306,60
274,75	1294,32
274,97	1339,37
275,18	1243,12
275,40	1241,07
275,61	1275,88
275,83	1306,60
276,05	1282,03
276,26	1220,59
276,48	1208,30
276,69	1277,93
276,91	1198,06
277,12	1376,24
277,34	1261,55
277,55	1247,21
277,77	1284,08
277,99	1304,56
278,20	1279,98
278,42	1292,27
278,63	1275,88
278,85	1314,80
279,06	1236,97
279,28	1271,79
279,49	1279,98
279,71	1327,08
279,93	1234,93
280,14	1214,45
280,36	1288,17
280,57	1275,88
280,79	1273,84
281,00	1308,65
281,22	1331,18
281,43	1249,26
281,65	1214,45
281,86	1234,93
282,08	1294,32
282,29	1218,54
282,51	1273,84
282,73	1255,40
282,94	1308,65
283,16	1261,55
283,37	1298,41
283,59	1316,84
283,80	1200,11
284,02	1218,54
284,23	1234,93
284,45	1218,54
284,66	1259,50
284,88	1212,40
285,09	1277,93
285,31	1271,79
285,52	1228,78
285,74	1247,21
285,95	1308,65
286,17	1239,02
286,38	1267,69
286,60	1271,79
286,81	1257,45
287,03	1269,74
287,24	1263,60
287,46	1314,80
287,67	1263,60
287,89	1290,22
288,10	1265,64
288,32	1234,93
288,53	1263,60
288,75	1269,74
288,96	1191,92
289,18	1222,64
289,39	1257,45
289,61	1247,21
289,82	1304,56
290,04	1335,28
290,25	1302,51
290,47	1253,36
290,68	1273,84
290,90	1275,88
291,11	1322,99
291,33	1308,65
291,54	1292,27
291,76	1292,27
291,97	1218,54
292,18	1300,46
292,40	1347,56
292,61	1265,64
292,83	1271,79
293,04	1263,60
293,26	1290,22
293,47	1220,59
293,69	1298,41
293,90	1302,51
294,12	1198,06
294,33	1224,69
294,55	1232,88
294,76	1288,17
294,97	1202,16
295,19	1290,22
295,40	1314,80
295,62	1189,87
295,83	1267,69
296,05	1294,32
296,26	1230,83
296,48	1236,97
296,69	1302,51
296,90	1263,60
297,12	1247,21
297,33	1230,83
297,55	1288,17
297,76	1249,26
297,98	1239,02
298,19	1232,88
298,41	1257,45
298,62	1333,23
298,83	1206,25
299,05	1273,84
299,26	1327,08
299,48	1226,73
299,69	1253,36
299,90	1251,31
300,12	1284,08
300,33	1253,36
300,55	1290,22
300,76	1253,36
300,98	1284,08
301,19	1376,24
301,40	1265,64
301,62	1226,73
301,83	1265,64
302,05	1247,21
302,26	1263,60
302,47	1263,60
302,69	1218,54
302,90	1296,36
303,12	1189,87
303,33	1279,98
303,54	1312,75
303,76	1279,98
303,97	1284,08
304,19	1290,22
304,40	1228,78
304,61	1200,11
304,83	1267,69
305,04	1245,16
305,26	1261,55
305,47	1316,84
305,68	1251,31
305,90	1279,98
306,11	1302,51
306,33	1265,64
306,54	1220,59
306,75	1247,21
306,97	1230,83
307,18	1347,56
307,39	1279,98
307,61	1212,40
307,82	1257,45
308,04	1249,26
308,25	1253,36
308,46	1290,22
308,68	1232,88
308,89	1331,18
309,10	1245,16
309,32	1255,40
309,53	1245,16
309,74	1269,74
309,96	1261,55
310,17	1320,94
310,39	1271,79
310,60	1206,25
310,81	1183,73
311,03	1312,75
311,24	1316,84
311,45	1271,79
311,67	1320,94
311,88	1271,79
312,09	1277,93
312,31	1296,36
312,52	1284,08
312,73	1296,36
312,95	1269,74
313,16	1253,36
313,37	1292,27
313,59	1232,88
313,80	1222,64
314,01	1320,94
314,23	1322,99
314,44	1247,21
314,65	1269,74
314,87	1271,79
315,08	1251,31
315,29	1292,27
315,51	1263,60
315,72	1271,79
315,93	1294,32
316,15	1273,84
316,36	1239,02
316,57	1325,04
316,79	1275,88
317,00	1341,42
317,21	1335,28
317,43	1271,79
317,64	1249,26
317,85	1232,88
318,07	1232,88
318,28	1230,83
318,49	1253,36
318,70	1349,61
318,92	1228,78
319,13	1325,04
319,34	1239,02
319,56	1296,36
319,77	1322,99
319,98	1206,25
320,20	1335,28
320,41	1265,64
320,62	1286,12
320,83	1282,03
321,05	1265,64
321,26	1288,17
321,47	1173,49
321,69	1308,65
321,90	1224,69
322,11	1269,74
322,32	1275,88
322,54	1314,80
322,75	1245,16
322,96	1284,08
323,18	1271,79
323,39	1331,18
323,60	1239,02
323,81	1226,73
324,03	1312,75
324,24	1277,93
324,45	1279,98
324,66	1257,45
324,88	1263,60
325,09	1239,02
325,30	1290,22
325,52	1230,83
325,73	1214,45
325,94	1257,45
326,15	1279,98
326,37	1261,55
326,58	1241,07
326,79	1284,08
327,00	1284,08
327,22	1247,21
327,43	1263,60
327,64	1249,26
327,85	1310,70
328,07	1312,75
328,28	1251,31
328,49	1282,03
328,70	1279,98
328,92	1318,89
329,13	1183,73
329,34	1316,84
329,55	1232,88
329,76	1322,99
329,98	1292,27
330,19	1236,97
330,40	1241,07
330,61	1253,36
330,83	1275,88
331,04	1292,27
331,25	1304,56
331,46	1189,87
331,68	1279,98
331,89	1288,17
332,10	1322,99
332,31	1320,94
332,52	1284,08
332,74	1241,07
332,95	1230,83
333,16	1189,87
333,37	1292,27
333,58	1241,07
333,80	1288,17
334,01	1257,45
334,22	1269,74
334,43	1269,74
334,64	1286,12
334,86	1284,08
335,07	1239,02
335,28	1288,17
335,49	1245,16
335,70	1296,36
335,92	1273,84
336,13	1310,70
336,34	1247,21
336,55	1304,56
336,76	1374,19
336,98	1175,53
337,19	1265,64
337,40	1298,41
337,61	1288,17
337,82	1230,83
338,04	1247,21
338,25	1292,27
338,46	1339,37
338,67	1306,60
338,88	1204,21
339,09	1245,16
339,31	1298,41
339,52	1259,50
339,73	1271,79
339,94	1345,52
340,15	1271,79
340,36	1216,49
340,58	1263,60
340,79	1251,31
341,00	1257,45
341,21	1273,84
341,42	1243,12
341,63	1267,69
341,85	1255,40
342,06	1228,78
342,27	1306,60
342,48	1271,79
342,69	1290,22
342,90	1273,84
343,12	1257,45
343,33	1279,98
343,54	1306,60
343,75	1277,93
343,96	1320,94
344,17	1304,56
344,38	1275,88
344,60	1318,89
344,81	1275,88
345,02	1286,12
345,23	1349,61
345,44	1296,36
345,65	1183,73
345,86	1277,93
346,07	1257,45
346,29	1288,17
346,50	1333,23
346,71	1339,37
346,92	1265,64
347,13	1265,64
347,34	1288,17
347,55	1304,56
347,76	1304,56
347,98	1273,84
348,19	1300,46
348,40	1290,22
348,61	1255,40
348,82	1279,98
349,03	1325,04
349,24	1255,40
349,45	1196,01
349,66	1236,97
349,88	1290,22
350,09	1312,75
350,30	1271,79
350,51	1308,65
350,72	1265,64
350,93	1325,04
351,14	1265,64
351,35	1275,88
351,56	1306,60
351,77	1273,84
351,99	1292,27
352,20	1341,42
352,41	1218,54
352,62	1200,11
352,83	1265,64
353,04	1236,97
353,25	1234,93
353,46	1290,22
353,67	1222,64
353,88	1255,40
354,09	1269,74
354,30	1208,30
354,52	1189,87
354,73	1292,27
354,94	1206,25
355,15	1261,55
355,36	1273,84
355,57	1261,55
355,78	1243,12
355,99	1275,88
356,20	1277,93
356,41	1263,60
356,62	1271,79
356,83	1282,03
357,04	1267,69
357,25	1245,16
357,46	1327,08
357,68	1271,79
357,89	1347,56
358,10	1286,12
358,31	1236,97
358,52	1310,70
358,73	1261,55
358,94	1249,26
359,15	1325,04
359,36	1298,41
359,57	1257,45
359,78	1212,40
359,99	1265,64
360,20	1267,69
360,41	1249,26
360,62	1239,02
360,83	1234,93
361,04	1271,79
361,25	1224,69
361,46	1216,49
361,67	1239,02
361,88	1279,98
362,09	1220,59
362,30	1306,60
362,51	1265,64
362,72	1351,66
362,93	1202,16
363,14	1269,74
363,35	1263,60
363,56	1263,60
363,78	1249,26
363,99	1275,88
364,20	1245,16
364,41	1298,41
364,62	1257,45
364,83	1298,41
365,04	1212,40
365,25	1335,28
365,46	1271,79
365,67	1271,79
365,88	1259,50
366,09	1271,79
366,30	1241,07
366,51	1220,59
366,72	1249,26
366,93	1239,02
367,14	1218,54
367,35	1345,52
367,56	1261,55
367,77	1265,64
367,98	1267,69
368,18	1298,41
368,39	1245,16
368,60	1239,02
368,81	1302,51
369,02	1249,26
369,23	1304,56
369,44	1236,97
369,65	1298,41
369,86	1232,88
370,07	1290,22
370,28	1228,78
370,49	1216,49
370,70	1245,16
370,91	1228,78
371,12	1193,97
371,33	1304,56
371,54	1290,22
371,75	1273,84
371,96	1220,59
372,17	1277,93
372,38	1245,16
372,59	1282,03
372,80	1296,36
373,01	1191,92
373,22	1322,99
373,43	1286,12
373,64	1230,83
373,85	1202,16
374,06	1224,69
374,26	1257,45
374,47	1325,04
374,68	1220,59
374,89	1255,40
375,10	1224,69
375,31	1298,41
375,52	1275,88
375,73	1279,98
375,94	1302,51
376,15	1286,12
376,36	1284,08
376,57	1200,11
376,78	1282,03
376,99	1314,80
377,20	1239,02
377,40	1347,56
377,61	1290,22
377,82	1345,52
378,03	1267,69
378,24	1304,56
378,45	1265,64
378,66	1279,98
378,87	1255,40
379,08	1255,40
379,29	1316,84
379,50	1288,17
379,71	1302,51
379,91	1320,94
380,12	1251,31
380,33	1302,51
380,54	1224,69
380,75	1277,93
380,96	1251,31
381,17	1273,84
381,38	1267,69
381,59	1288,17
381,80	1304,56
382,00	1306,60
382,21	1286,12
382,42	1249,26
382,63	1273,84
382,84	1314,80
383,05	1284,08
383,26	1304,56
383,47	1286,12
383,68	1241,07
383,88	1253,36
384,09	1314,80
384,30	1263,60
384,51	1220,59
384,72	1206,25
384,93	1232,88
385,14	1306,60
385,35	1228,78
385,55	1239,02
385,76	1255,40
385,97	1279,98
386,18	1306,60
386,39	1236,97
386,60	1212,40
386,81	1277,93
387,02	1230,83
387,22	1247,21
387,43	1337,32
387,64	1261,55
387,85	1175,53
388,06	1282,03
388,27	1294,32
388,48	1286,12
388,68	1224,69
388,89	1187,82
389,10	1310,70
389,31	1271,79
389,52	1300,46
389,73	1222,64
389,93	1249,26
390,14	1257,45
390,35	1284,08
390,56	1325,04
390,77	1296,36
390,98	1212,40
391,18	1236,97
391,39	1273,84
391,60	1294,32
391,81	1290,22
392,02	1245,16
392,23	1257,45
392,43	1308,65
392,64	1228,78
392,85	1322,99
393,06	1261,55
393,27	1277,93
393,47	1310,70
393,68	1206,25
393,89	1257,45
394,10	1271,79
394,31	1263,60
394,52	1292,27
394,72	1265,64
394,93	1241,07
395,14	1357,80
395,35	1243,12
395,56	1255,40
395,76	1302,51
395,97	1290,22
396,18	1232,88
396,39	1263,60
396,60	1318,89
396,80	1275,88
397,01	1282,03
397,22	1302,51
397,43	1196,01
397,64	1251,31
397,84	1298,41
398,05	1271,79
398,26	1279,98
398,47	1275,88
398,67	1302,51
398,88	1284,08
399,09	1314,80
399,30	1204,21
399,51	1279,98
399,71	1218,54
399,92	1339,37
400,13	1286,12
400,34	1318,89
400,54	1322,99
400,75	1228,78
400,96	1294,32
401,17	1290,22
401,37	1257,45
401,58	1251,31
401,79	1216,49
402,00	1282,03
402,21	1265,64
402,41	1220,59
402,62	1196,01
402,83	1265,64
403,04	1296,36
403,24	1292,27
403,45	1361,90
403,66	1329,13
403,87	1222,64
404,07	1267,69
404,28	1273,84
404,49	1251,31
404,70	1284,08
404,90	1273,84
405,11	1267,69
405,32	1306,60
405,52	1247,21
405,73	1290,22
405,94	1220,59
406,15	1277,93
406,35	1265,64
406,56	1288,17
406,77	1292,27
406,98	1292,27
407,18	1279,98
407,39	1306,60
407,60	1253,36
407,80	1284,08
408,01	1318,89
408,22	1259,50
408,43	1177,58
408,63	1198,06
408,84	1296,36
409,05	1232,88
409,25	1226,73
409,46	1181,68
409,67	1191,92
409,88	1275,88
410,08	1220,59
410,29	1282,03
410,50	1265,64
410,70	1239,02
410,91	1296,36
411,12	1265,64
411,32	1302,51
411,53	1265,64
411,74	1251,31
411,95	1288,17
412,15	1247,21
412,36	1253,36
412,57	1212,40
412,77	1271,79
412,98	1234,93
413,19	1310,70
413,39	1210,35
413,60	1370,09
413,81	1269,74
414,01	1275,88
414,22	1236,97
414,43	1318,89
414,63	1282,03
414,84	1220,59
415,05	1243,12
415,25	1288,17
415,46	1306,60
415,67	1255,40
415,87	1292,27
416,08	1288,17
416,29	1308,65
416,49	1224,69
416,70	1306,60
416,91	1263,60
417,11	1320,94
417,32	1241,07
417,53	1404,91
417,73	1224,69
417,94	1239,02
418,15	1310,70
418,35	1275,88
418,56	1255,40
418,77	1292,27
418,97	1290,22
419,18	1335,28
419,38	1206,25
419,59	1316,84
419,80	1306,60
420,00	1284,08
420,21	1232,88
420,42	1355,76
420,62	1212,40
420,83	1288,17
421,04	1271,79
421,24	1210,35
421,45	1279,98
421,65	1214,45
421,86	1239,02
422,07	1224,69
422,27	1273,84
422,48	1286,12
422,69	1306,60
422,89	1263,60
423,10	1273,84
423,30	1255,40
423,51	1284,08
423,72	1277,93
423,92	1204,21
424,13	1290,22
424,33	1316,84
424,54	1251,31
424,75	1271,79
424,95	1214,45
425,16	1290,22
425,36	1275,88
425,57	1232,88
425,78	1224,69
425,98	1265,64
426,19	1279,98
426,39	1236,97
426,60	1173,49
426,81	1234,93
427,01	1269,74
427,22	1255,40
427,42	1212,40
427,63	1222,64
427,83	1271,79
428,04	1327,08
428,25	1257,45
428,45	1300,46
428,66	1267,69
428,86	1265,64
429,07	1337,32
429,28	1228,78
429,48	1273,84
429,69	1265,64
429,89	1296,36
430,10	1230,83
430,30	1357,80
430,51	1212,40
430,71	1202,16
430,92	1271,79
431,13	1218,54
431,33	1300,46
431,54	1214,45
431,74	1241,07
431,95	1296,36
432,15	1275,88
432,36	1290,22
432,56	1282,03
432,77	1306,60
432,98	1234,93
433,18	1204,21
433,39	1232,88
433,59	1322,99
433,80	1298,41
434,00	1243,12
434,21	1325,04
434,41	1304,56
434,62	1355,76
434,82	1249,26
435,03	1249,26
435,23	1261,55
435,44	1282,03
435,64	1269,74
435,85	1257,45
436,06	1243,12
436,26	1292,27
436,47	1234,93
436,67	1261,55
436,88	1345,52
437,08	1366,00
437,29	1210,35
437,49	1259,50
437,70	1228,78
437,90	1273,84
438,11	1310,70
438,31	1310,70
438,52	1247,21
438,72	1255,40
438,93	1216,49
439,13	1232,88
439,34	1282,03
439,54	1292,27
439,75	1290,22
439,95	1265,64
440,16	1232,88
440,36	1337,32
440,57	1273,84
440,77	1320,94
440,98	1167,34
441,18	1241,07
441,39	1282,03
441,59	1277,93
441,80	1286,12
442,00	1292,27
442,21	1349,61
442,41	1286,12
442,62	1181,68
442,82	1263,60
443,02	1263,60
443,23	1261,55
443,43	1212,40
443,64	1220,59
443,84	1277,93
444,05	1314,80
444,25	1255,40
444,46	1255,40
444,66	1290,22
444,87	1265,64
445,07	1253,36
445,28	1277,93
445,48	1261,55
445,69	1337,32
445,89	1228,78
446,09	1245,16
446,30	1226,73
446,50	1296,36
446,71	1310,70
446,91	1288,17
447,12	1216,49
447,32	1282,03
447,53	1232,88
447,73	1282,03
447,93	1310,70
448,14	1298,41
448,34	1236,97
448,55	1243,12
448,75	1234,93
448,96	1275,88
449,16	1255,40
449,36	1300,46
449,57	1239,02
449,77	1347,56
449,98	1314,80
450,18	1292,27
450,39	1320,94
450,59	1304,56
450,79	1288,17
451,00	1316,84
451,20	1206,25
451,41	1187,82
451,61	1200,11
451,81	1282,03
452,02	1247,21
452,22	1286,12
452,43	1214,45
452,63	1286,12
452,84	1232,88
453,04	1288,17
453,24	1269,74
453,45	1308,65
453,65	1249,26
453,86	1245,16
454,06	1279,98
454,26	1255,40
454,47	1282,03
454,67	1290,22
454,87	1269,74
455,08	1255,40
455,28	1345,52
455,49	1292,27
455,69	1312,75
455,89	1308,65
456,10	1265,64
456,30	1320,94
456,51	1273,84
456,71	1288,17
456,91	1243,12
457,12	1300,46
457,32	1341,42
457,52	1325,04
457,73	1288,17
457,93	1282,03
458,14	1320,94
458,34	1279,98
458,54	1345,52
458,75	1308,65
458,95	1298,41
459,15	1288,17
459,36	1359,85
459,56	1255,40
459,76	1331,18
459,97	1306,60
460,17	1275,88
460,37	1265,64
460,58	1302,51
460,78	1339,37
460,99	1255,40
461,19	1329,13
461,39	1259,50
461,60	1273,84
461,80	1241,07
462,00	1288,17
462,21	1286,12
462,41	1296,36
462,61	1243,12
462,82	1277,93
463,02	1275,88
463,22	1265,64
463,43	1261,55
463,63	1245,16
463,83	1267,69
464,04	1292,27
464,24	1251,31
464,44	1286,12
464,64	1286,12
464,85	1277,93
465,05	1308,65
465,25	1224,69
465,46	1257,45
465,66	1257,45
465,86	1329,13
466,07	1228,78
466,27	1310,70
466,47	1265,64
466,68	1273,84
466,88	1257,45
467,08	1269,74
467,29	1308,65
467,49	1265,64
467,69	1292,27
467,89	1251,31
468,10	1263,60
468,30	1277,93
468,50	1302,51
468,71	1273,84
468,91	1163,25
469,11	1290,22
469,31	1269,74
469,52	1306,60
469,72	1271,79
469,92	1265,64
470,13	1224,69
470,33	1259,50
470,53	1273,84
470,73	1302,51
470,94	1329,13
471,14	1282,03
471,34	1298,41
471,54	1310,70
471,75	1298,41
471,95	1220,59
472,15	1306,60
472,36	1234,93
472,56	1220,59
472,76	1220,59
472,96	1212,40
473,17	1204,21
473,37	1259,50
473,57	1273,84
473,77	1329,13
473,98	1331,18
474,18	1212,40
474,38	1329,13
474,58	1271,79
474,79	1275,88
474,99	1234,93
475,19	1267,69
475,39	1290,22
475,60	1308,65
475,80	1286,12
476,00	1282,03
476,20	1302,51
476,41	1298,41
476,61	1302,51
476,81	1296,36
477,01	1273,84
477,21	1300,46
477,42	1288,17
477,62	1232,88
477,82	1267,69
478,02	1239,02
478,23	1290,22
478,43	1265,64
478,63	1286,12
478,83	1261,55
479,03	1314,80
479,24	1263,60
479,44	1302,51
479,64	1224,69
479,84	1216,49
480,04	1218,54
480,25	1247,21
480,45	1306,60
480,65	1273,84
480,85	1316,84
481,06	1304,56
481,26	1267,69
481,46	1263,60
481,66	1277,93
481,86	1314,80
482,06	1355,76
482,27	1257,45
482,47	1306,60
482,67	1273,84
482,87	1224,69
483,07	1290,22
483,28	1239,02
483,48	1290,22
483,68	1290,22
483,88	1294,32
484,08	1263,60
484,29	1230,83
484,49	1263,60
484,69	1257,45
484,89	1236,97
485,09	1232,88
485,29	1230,83
485,50	1232,88
485,70	1318,89
485,90	1228,78
486,10	1257,45
486,30	1230,83
486,50	1273,84
486,71	1273,84
486,91	1259,50
487,11	1267,69
487,31	1374,19
487,51	1228,78
487,71	1286,12
487,91	1245,16
488,12	1245,16
488,32	1257,45
488,52	1228,78
488,72	1327,08
488,92	1271,79
489,12	1265,64
489,32	1261,55
489,53	1255,40
489,73	1327,08
489,93	1251,31
490,13	1187,82
490,33	1288,17
490,53	1247,21
490,73	1312,75
490,94	1253,36
491,14	1214,45
491,34	1218,54
491,54	1265,64
491,74	1275,88
491,94	1279,98
492,14	1230,83
492,34	1322,99
492,54	1275,88
492,75	1327,08
492,95	1261,55
493,15	1286,12
493,35	1265,64
493,55	1267,69
493,75	1249,26
493,95	1247,21
494,15	1310,70
494,35	1294,32
494,56	1333,23
494,76	1304,56
494,96	1290,22
495,16	1310,70
495,36	1304,56
495,56	1279,98
495,76	1286,12
495,96	1267,69
496,16	1253,36
496,36	1363,95
496,56	1310,70
496,77	1234,93
496,97	1257,45
497,17	1282,03
497,37	1183,73
497,57	1212,40
497,77	1288,17
497,97	1312,75
498,17	1277,93
498,37	1294,32
498,57	1261,55
498,77	1288,17
498,97	1273,84
499,17	1249,26
499,38	1310,70
499,58	1337,32
499,78	1232,88
499,98	1255,40
500,18	1355,76
500,38	1288,17
500,58	1320,94
500,78	1279,98
500,98	1251,31
501,18	1267,69
501,38	1306,60
501,58	1275,88
501,78	1269,74
501,98	1251,31
502,18	1255,40
502,38	1263,60
502,58	1355,76
502,78	1173,49
502,98	1275,88
503,18	1253,36
503,38	1296,36
503,59	1273,84
503,79	1257,45
503,99	1253,36
504,19	1298,41
504,39	1306,60
504,59	1239,02
504,79	1257,45
504,99	1261,55
505,19	1312,75
505,39	1265,64
505,59	1243,12
505,79	1298,41
505,99	1196,01
506,19	1214,45
506,39	1261,55
506,59	1312,75
506,79	1302,51
506,99	1230,83
507,19	1288,17
507,39	1277,93
507,59	1304,56
507,79	1259,50
507,99	1284,08
508,19	1191,92
508,39	1228,78
508,59	1355,76
508,79	1267,69
508,99	1277,93
509,19	1226,73
509,39	1298,41
509,59	1277,93
509,79	1296,36
509,99	1241,07
510,19	1294,32
510,39	1251,31
510,59	1290,22
510,79	1269,74
510,99	1314,80
511,19	1310,70
511,39	1282,03
511,59	1263,60
511,79	1265,64
511,99	1339,37
512,19	1337,32
512,38	1290,22
512,58	1351,66
512,78	1277,93
512,98	1279,98
513,18	1294,32
513,38	1267,69
513,58	1298,41
513,78	1230,83
513,98	1322,99
514,18	1214,45
514,38	1282,03
514,58	1267,69
514,78	1296,36
514,98	1275,88
515,18	1251,31
515,38	1277,93
515,58	1335,28
515,78	1257,45
515,98	1329,13
516,18	1200,11
516,38	1298,41
516,57	1247,21
516,77	1273,84
516,97	1288,17
517,17	1267,69
517,37	1279,98
517,57	1275,88
517,77	1310,70
517,97	1222,64
518,17	1296,36
518,37	1363,95
518,57	1279,98
518,77	1341,42
518,97	1241,07
519,16	1302,51
519,36	1247,21
519,56	1249,26
519,76	1282,03
519,96	1251,31
520,16	1292,27
520,36	1249,26
520,56	1239,02
520,76	1253,36
520,96	1243,12
521,16	1359,85
521,35	1267,69
521,55	1247,21
521,75	1361,90
521,95	1331,18
522,15	1302,51
522,35	1310,70
522,55	1183,73
522,75	1322,99
522,95	1320,94
523,14	1259,50
523,34	1239,02
523,54	1241,07
523,74	1292,27
523,94	1282,03
524,14	1263,60
524,34	1273,84
524,54	1226,73
524,73	1241,07
524,93	1255,40
525,13	1345,52
525,33	1282,03
525,53	1292,27
525,73	1275,88
525,93	1228,78
526,13	1292,27
526,32	1241,07
526,52	1214,45
526,72	1279,98
526,92	1234,93
527,12	1306,60
527,32	1249,26
527,52	1259,50
527,71	1282,03
527,91	1249,26
528,11	1249,26
528,31	1249,26
528,51	1263,60
528,71	1288,17
528,90	1302,51
529,10	1343,47
529,30	1265,64
529,50	1220,59
529,70	1253,36
529,90	1314,80
530,09	1329,13
530,29	1331,18
530,49	1269,74
530,69	1290,22
530,89	1273,84
531,09	1282,03
531,28	1308,65
531,48	1296,36
531,68	1251,31
531,88	1273,84
532,08	1228,78
532,28	1226,73
532,47	1249,26
532,67	1273,84
532,87	1304,56
533,07	1230,83
533,27	1286,12
533,46	1331,18
533,66	1376,24
533,86	1353,71
534,06	1275,88
534,26	1372,14
534,45	1214,45
534,65	1355,76
534,85	1294,32
535,05	1282,03
535,25	1206,25
535,44	1247,21
535,64	1224,69
535,84	1288,17
536,04	1265,64
536,24	1329,13
536,43	1232,88
536,63	1322,99
536,83	1296,36
537,03	1265,64
537,22	1359,85
537,42	1210,35
537,62	1279,98
537,82	1304,56
538,02	1363,95
538,21	1259,50
538,41	1327,08
538,61	1316,84
538,81	1320,94
539,00	1292,27
539,20	1277,93
539,40	1308,65
539,60	1261,55
539,79	1193,97
539,99	1243,12
540,19	1351,66
540,39	1302,51
540,58	1312,75
540,78	1279,98
540,98	1245,16
541,18	1310,70
541,37	1255,40
541,57	1277,93
541,77	1345,52
541,97	1239,02
542,16	1279,98
542,36	1249,26
542,56	1271,79
542,76	1290,22
542,95	1306,60
543,15	1345,52
543,35	1292,27
543,54	1255,40
543,74	1263,60
543,94	1284,08
544,14	1241,07
544,33	1294,32
544,53	1282,03
544,73	1335,28
544,93	1259,50
545,12	1271,79
545,32	1273,84
545,52	1308,65
545,71	1259,50
545,91	1261,55
546,11	1294,32
546,30	1329,13
546,50	1251,31
546,70	1337,32
546,90	1310,70
547,09	1282,03
547,29	1335,28
547,49	1351,66
547,68	1228,78
547,88	1288,17
548,08	1288,17
548,27	1320,94
548,47	1333,23
548,67	1314,80
548,87	1251,31
549,06	1296,36
549,26	1247,21
549,46	1300,46
549,65	1294,32
549,85	1271,79
550,05	1230,83
550,24	1310,70
550,44	1290,22
550,64	1232,88
550,83	1296,36
551,03	1265,64
551,23	1267,69
551,42	1298,41
551,62	1234,93
551,82	1234,93
552,01	1249,26
552,21	1288,17
552,41	1294,32
552,60	1275,88
552,80	1290,22
553,00	1288,17
553,19	1292,27
553,39	1269,74
553,59	1214,45
553,78	1316,84
553,98	1245,16
554,17	1251,31
554,37	1284,08
554,57	1294,32
554,76	1322,99
554,96	1263,60
555,16	1335,28
555,35	1247,21
555,55	1320,94
555,75	1300,46
555,94	1257,45
556,14	1282,03
556,33	1316,84
556,53	1232,88
556,73	1273,84
556,92	1273,84
557,12	1243,12
557,32	1279,98
557,51	1290,22
557,71	1286,12
557,90	1259,50
558,10	1243,12
558,30	1306,60
558,49	1314,80
558,69	1259,50
558,88	1245,16
559,08	1322,99
559,28	1232,88
559,47	1239,02
559,67	1304,56
559,86	1368,04
560,06	1310,70
560,26	1232,88
560,45	1265,64
560,65	1310,70
560,84	1288,17
561,04	1265,64
561,24	1372,14
561,43	1298,41
561,63	1269,74
561,82	1290,22
562,02	1282,03
562,22	1288,17
562,41	1300,46
562,61	1273,84
562,80	1230,83
563,00	1177,58
563,19	1236,97
563,39	1296,36
563,59	1263,60
563,78	1253,36
563,98	1333,23
564,17	1214,45
564,37	1198,06
564,56	1257,45
564,76	1298,41
564,96	1292,27
565,15	1302,51
565,35	1245,16
565,54	1306,60
565,74	1368,04
565,93	1275,88
566,13	1333,23
566,32	1273,84
566,52	1284,08
566,71	1327,08
566,91	1265,64
567,11	1247,21
567,30	1286,12
567,50	1251,31
567,69	1247,21
567,89	1286,12
568,08	1304,56
568,28	1267,69
568,47	1243,12
568,67	1269,74
568,86	1222,64
569,06	1239,02
569,25	1241,07
569,45	1337,32
569,64	1216,49
569,84	1284,08
570,04	1273,84
570,23	1286,12
570,43	1322,99
570,62	1271,79
570,82	1310,70
571,01	1335,28
571,21	1271,79
571,40	1294,32
571,60	1306,60
571,79	1378,28
571,99	1228,78
572,18	1257,45
572,38	1296,36
572,57	1253,36
572,77	1314,80
572,96	1247,21
573,16	1196,01
573,35	1312,75
573,55	1275,88
573,74	1318,89
573,94	1335,28
574,13	1212,40
574,33	1294,32
574,52	1257,45
574,71	1329,13
574,91	1226,73
575,10	1273,84
575,30	1290,22
575,49	1243,12
575,69	1267,69
575,88	1306,60
576,08	1259,50
576,27	1294,32
576,47	1282,03
576,66	1331,18
576,86	1296,36
577,05	1329,13
577,25	1345,52
577,44	1411,05
577,64	1232,88
577,83	1245,16
578,02	1282,03
578,22	1249,26
578,41	1325,04
578,61	1257,45
578,80	1269,74
579,00	1284,08
579,19	1331,18
579,39	1329,13
579,58	1312,75
579,77	1275,88
579,97	1267,69
580,16	1255,40
580,36	1308,65
580,55	1312,75
580,75	1282,03
580,94	1306,60
581,13	1275,88
581,33	1288,17
581,52	1359,85
581,72	1282,03
581,91	1224,69
582,11	1277,93
582,30	1265,64
582,49	1282,03
582,69	1214,45
582,88	1226,73
583,08	1335,28
583,27	1259,50
583,47	1308,65
583,66	1292,27
583,85	1259,50
584,05	1271,79
584,24	1298,41
584,44	1314,80
584,63	1316,84
584,82	1257,45
585,02	1294,32
585,21	1245,16
585,41	1261,55
585,60	1302,51
585,79	1263,60
585,99	1279,98
586,18	1284,08
586,37	1236,97
586,57	1261,55
586,76	1241,07
586,96	1339,37
587,15	1282,03
587,34	1284,08
587,54	1308,65
587,73	1316,84
587,93	1304,56
588,12	1275,88
588,31	1273,84
588,51	1277,93
588,70	1353,71
588,89	1279,98
589,09	1308,65
589,28	1325,04
589,47	1298,41
589,67	1255,40
589,86	1333,23
590,06	1214,45
590,25	1277,93
590,44	1277,93
590,64	1247,21
590,83	1290,22
591,02	1288,17
591,22	1308,65
591,41	1304,56
591,60	1177,58
591,80	1230,83
591,99	1327,08
592,18	1298,41
592,38	1245,16
592,57	1302,51
592,76	1222,64
592,96	1261,55
593,15	1363,95
593,34	1316,84
593,54	1294,32
593,73	1253,36
593,92	1222,64
594,12	1259,50
594,31	1318,89
594,50	1249,26
594,70	1259,50
594,89	1372,14
595,08	1298,41
595,28	1329,13
595,47	1245,16
595,66	1310,70
595,86	1271,79
596,05	1310,70
596,24	1271,79
596,43	1335,28
596,63	1251,31
596,82	1282,03
597,01	1314,80
597,21	1279,98
597,40	1263,60
597,59	1273,84
597,79	1271,79
597,98	1290,22
598,17	1306,60
598,36	1284,08
598,56	1261,55
598,75	1261,55
598,94	1253,36
599,14	1247,21
599,33	1282,03
599,52	1271,79
599,71	1210,35
599,91	1333,23
600,10	1179,63
600,29	1349,61
600,48	1282,03
600,68	1269,74
600,87	1261,55
601,06	1300,46
601,26	1273,84
601,45	1241,07
601,64	1265,64
601,83	1265,64
602,03	1245,16
602,22	1279,98
602,41	1294,32
602,60	1298,41
602,80	1347,56
602,99	1263,60
603,18	1343,47
603,37	1298,41
603,57	1284,08
603,76	1335,28
603,95	1288,17
604,14	1239,02
604,34	1267,69
604,53	1331,18
604,72	1259,50
604,91	1296,36
605,10	1294,32
605,30	1210,35
605,49	1296,36
605,68	1275,88
605,87	1255,40
606,07	1255,40
606,26	1290,22
606,45	1259,50
606,64	1347,56
606,84	1306,60
607,03	1220,59
607,22	1249,26
607,41	1253,36
607,60	1366,00
607,80	1232,88
607,99	1267,69
608,18	1296,36
608,37	1302,51
608,56	1277,93
608,76	1263,60
608,95	1257,45
609,14	1306,60
609,33	1259,50
609,52	1230,83
609,72	1259,50
609,91	1232,88
610,10	1204,21
610,29	1296,36
610,48	1275,88
610,68	1380,33
610,87	1230,83
611,06	1302,51
611,25	1292,27
611,44	1253,36
611,63	1230,83
611,83	1239,02
612,02	1316,84
612,21	1308,65
612,40	1236,97
612,59	1228,78
612,79	1241,07
612,98	1273,84
613,17	1277,93
613,36	1249,26
613,55	1230,83
613,74	1245,16
613,93	1304,56
614,13	1347,56
614,32	1271,79
614,51	1273,84
614,70	1302,51
614,89	1302,51
615,08	1294,32
615,28	1304,56
615,47	1306,60
615,66	1292,27
615,85	1261,55
616,04	1253,36
616,23	1304,56
616,42	1312,75
616,62	1366,00
616,81	1341,42
617,00	1263,60
617,19	1249,26
617,38	1261,55
617,57	1275,88
617,76	1339,37
617,95	1279,98
618,15	1296,36
618,34	1308,65
618,53	1224,69
618,72	1292,27
618,91	1259,50
619,10	1224,69
619,29	1247,21
619,48	1255,40
619,68	1247,21
619,87	1333,23
620,06	1290,22
620,25	1386,47
620,44	1298,41
620,63	1249,26
620,82	1286,12
621,01	1282,03
621,20	1243,12
621,39	1290,22
621,59	1349,61
621,78	1363,95
621,97	1271,79
622,16	1286,12
622,35	1322,99
622,54	1243,12
622,73	1216,49
622,92	1241,07
623,11	1302,51
623,30	1353,71
623,49	1277,93
623,68	1310,70
623,88	1312,75
624,07	1347,56
624,26	1255,40
624,45	1337,32
624,64	1337,32
624,83	1208,30
625,02	1314,80
625,21	1261,55
625,40	1294,32
625,59	1282,03
625,78	1261,55
625,97	1331,18
626,16	1263,60
626,35	1288,17
626,54	1322,99
626,74	1353,71
626,93	1290,22
627,12	1298,41
627,31	1341,42
627,50	1304,56
627,69	1314,80
627,88	1318,89
628,07	1320,94
628,26	1249,26
628,45	1277,93
628,64	1279,98
628,83	1312,75
629,02	1259,50
629,21	1255,40
629,40	1339,37
629,59	1267,69
629,78	1271,79
629,97	1302,51
630,16	1310,70
630,35	1329,13
630,54	1325,04
630,73	1349,61
630,92	1370,09
631,11	1290,22
631,30	1222,64
631,49	1327,08
631,68	1456,11
631,87	1738,73
632,06	1896,42
632,25	1738,73
632,44	1849,32
632,63	1785,83
632,82	1789,92
633,01	1822,69
633,20	1908,71
633,39	1845,22
633,58	1847,27
633,77	1853,41
633,96	1984,48
634,15	1982,43
634,34	2129,89
634,53	2252,77
634,72	2068,45
634,91	1894,37
635,10	2015,20
635,29	2136,03
635,48	2283,49
635,67	2387,93
635,86	2263,01
636,05	2107,36
636,24	2109,41
636,43	1986,53
636,62	1935,33
636,81	1722,34
637,00	1681,38
637,19	1593,32
637,38	1447,91
637,57	1509,35
637,76	1327,08
637,95	1396,71
638,14	1443,82
638,33	1322,99
638,52	1269,74
638,71	1333,23
638,89	1298,41
639,08	1302,51
639,27	1282,03
639,46	1261,55
639,65	1306,60
639,84	1325,04
640,03	1353,71
640,22	1298,41
640,41	1239,02
640,60	1318,89
640,79	1279,98
640,98	1191,92
641,17	1314,80
641,36	1294,32
641,55	1239,02
641,74	1284,08
641,92	1239,02
642,11	1220,59
642,30	1284,08
642,49	1212,40
642,68	1273,84
642,87	1222,64
643,06	1255,40
643,25	1318,89
643,44	1290,22
643,63	1226,73
643,82	1296,36
644,00	1304,56
644,19	1312,75
644,38	1267,69
644,57	1314,80
644,76	1290,22
644,95	1284,08
645,14	1314,80
645,33	1263,60
645,52	1245,16
645,71	1277,93
645,89	1290,22
646,08	1312,75
646,27	1236,97
646,46	1282,03
646,65	1341,42
646,84	1241,07
647,03	1214,45
647,22	1275,88
647,40	1255,40
647,59	1224,69
647,78	1226,73
647,97	1273,84
648,16	1316,84
648,35	1292,27
648,54	1275,88
648,73	1245,16
648,91	1298,41
649,10	1304,56
649,29	1263,60
649,48	1259,50
649,67	1249,26
649,86	1249,26
650,05	1259,50
650,23	1288,17
650,42	1275,88
650,61	1308,65
650,80	1257,45
650,99	1261,55
651,18	1304,56
651,36	1296,36
651,55	1236,97
651,74	1230,83
651,93	1282,03
652,12	1236,97
652,31	1247,21
652,49	1294,32
652,68	1292,27
652,87	1222,64
653,06	1230,83
653,25	1286,12
653,44	1282,03
653,62	1273,84
653,81	1239,02
654,00	1239,02
654,19	1314,80
654,38	1212,40
654,56	1277,93
654,75	1302,51
654,94	1263,60
655,13	1206,25
655,32	1257,45
655,51	1230,83
655,69	1298,41
655,88	1265,64
656,07	1212,40
656,26	1277,93
656,45	1251,31
656,63	1339,37
656,82	1273,84
657,01	1314,80
657,20	1249,26
657,38	1284,08
657,57	1306,60
657,76	1290,22
657,95	1259,50
658,14	1308,65
658,32	1234,93
658,51	1300,46
658,70	1277,93
658,89	1300,46
659,08	1251,31
659,26	1294,32
659,45	1306,60
659,64	1294,32
659,83	1239,02
660,01	1282,03
660,20	1206,25
660,39	1392,62
660,58	1310,70
660,76	1282,03
660,95	1279,98
661,14	1325,04
661,33	1329,13
661,51	1310,70
661,70	1230,83
661,89	1306,60
662,08	1275,88
662,26	1310,70
662,45	1253,36
662,64	1300,46
662,83	1200,11
663,01	1284,08
663,20	1302,51
663,39	1327,08
663,58	1206,25
663,76	1208,30
663,95	1339,37
664,14	1292,27
664,32	1282,03
664,51	1214,45
664,70	1267,69
664,89	1245,16
665,07	1210,35
665,26	1300,46
665,45	1214,45
665,64	1279,98
665,82	1234,93
666,01	1363,95
666,20	1273,84
666,38	1241,07
666,57	1257,45
666,76	1306,60
666,95	1265,64
667,13	1230,83
667,32	1269,74
667,51	1263,60
667,69	1196,01
667,88	1226,73
668,07	1249,26
668,25	1196,01
668,44	1257,45
668,63	1220,59
668,81	1294,32
669,00	1363,95
669,19	1243,12
669,38	1298,41
669,56	1239,02
669,75	1277,93
669,94	1212,40
670,12	1189,87
670,31	1251,31
670,50	1322,99
670,68	1327,08
670,87	1292,27
671,06	1300,46
671,24	1271,79
671,43	1255,40
671,62	1320,94
671,80	1304,56
671,99	1247,21
672,18	1261,55
672,36	1279,98
672,55	1277,93
672,74	1243,12
672,92	1277,93
673,11	1294,32
673,29	1273,84
673,48	1251,31
673,67	1253,36
673,85	1230,83
674,04	1294,32
674,23	1236,97
674,41	1275,88
674,60	1306,60
674,79	1329,13
674,97	1269,74
675,16	1259,50
675,34	1286,12
675,53	1337,32
675,72	1271,79
675,90	1284,08
676,09	1306,60
676,28	1216,49
676,46	1228,78
676,65	1253,36
676,83	1226,73
677,02	1353,71
677,21	1263,60
677,39	1253,36
677,58	1263,60
677,77	1228,78
677,95	1294,32
678,14	1267,69
678,32	1206,25
678,51	1265,64
678,70	1243,12
678,88	1230,83
679,07	1214,45
679,25	1245,16
679,44	1339,37
679,63	1273,84
679,81	1304,56
680,00	1249,26
680,18	1255,40
680,37	1243,12
680,55	1265,64
680,74	1212,40
680,93	1269,74
681,11	1304,56
681,30	1339,37
681,48	1224,69
681,67	1216,49
681,85	1269,74
682,04	1232,88
682,23	1263,60
682,41	1282,03
682,60	1247,21
682,78	1316,84
682,97	1253,36
683,15	1144,81
683,34	1257,45
683,53	1208,30
683,71	1267,69
683,90	1277,93
684,08	1228,78
684,27	1261,55
684,45	1333,23
684,64	1279,98
684,82	1304,56
685,01	1220,59
685,19	1196,01
685,38	1245,16
685,57	1284,08
685,75	1265,64
685,94	1345,52
686,12	1320,94
686,31	1245,16
686,49	1265,64
686,68	1202,16
686,86	1353,71
687,05	1284,08
687,23	1232,88
687,42	1267,69
687,60	1214,45
687,79	1232,88
687,97	1318,89
688,16	1290,22
688,34	1265,64
688,53	1286,12
688,71	1265,64
688,90	1314,80
689,08	1298,41
689,27	1249,26
689,45	1271,79
689,64	1241,07
689,82	1251,31
690,01	1249,26
690,19	1241,07
690,38	1343,47
690,56	1179,63
690,75	1316,84
690,93	1345,52
691,12	1282,03
691,30	1275,88
691,49	1245,16
691,67	1245,16
691,86	1210,35
692,04	1214,45
692,23	1304,56
692,41	1257,45
692,60	1269,74
692,78	1257,45
692,97	1216,49
693,15	1247,21
693,34	1349,61
693,52	1296,36
693,71	1308,65
693,89	1286,12
694,08	1253,36
694,26	1183,73
694,44	1253,36
694,63	1220,59
694,81	1263,60
695,00	1257,45
695,18	1239,02
695,37	1288,17
695,55	1327,08
695,74	1241,07
695,92	1243,12
696,10	1239,02
696,29	1296,36
696,47	1314,80
696,66	1263,60
696,84	1284,08
697,03	1265,64
697,21	1304,56
697,40	1298,41
697,58	1318,89
697,76	1339,37
697,95	1249,26
698,13	1284,08
698,32	1257,45
698,50	1267,69
698,68	1279,98
698,87	1314,80
699,05	1243,12
699,24	1265,64
699,42	1249,26
699,61	1249,26
699,79	1335,28
699,97	1282,03
700,16	1206,25
700,34	1191,92
700,53	1292,27
700,71	1271,79
700,89	1277,93
701,08	1329,13
701,26	1259,50
701,45	1247,21
701,63	1204,21
701,81	1232,88
702,00	1241,07
702,18	1288,17
702,37	1236,97
702,55	1239,02
702,73	1257,45
702,92	1310,70
703,10	1257,45
703,28	1234,93
703,47	1282,03
703,65	1302,51
703,84	1302,51
704,02	1208,30
704,20	1288,17
704,39	1255,40
704,57	1255,40
704,75	1306,60
704,94	1322,99
705,12	1239,02
705,30	1304,56
705,49	1286,12
705,67	1216,49
705,86	1298,41
706,04	1290,22
706,22	1206,25
706,41	1310,70
706,59	1216,49
706,77	1257,45
706,96	1322,99
707,14	1239,02
707,32	1296,36
707,51	1290,22
707,69	1234,93
707,87	1292,27
708,06	1243,12
708,24	1284,08
708,42	1228,78
708,61	1351,66
708,79	1241,07
708,97	1300,46
709,16	1257,45
709,34	1247,21
709,52	1220,59
709,71	1249,26
709,89	1230,83
710,07	1279,98
710,26	1302,51
710,44	1349,61
710,62	1363,95
710,80	1255,40
710,99	1271,79
711,17	1204,21
711,35	1331,18
711,54	1208,30
711,72	1187,82
711,90	1263,60
712,09	1302,51
712,27	1247,21
712,45	1265,64
712,63	1255,40
712,82	1241,07
713,00	1222,64
713,18	1251,31
713,37	1263,60
713,55	1312,75
713,73	1277,93
713,91	1288,17
714,10	1286,12
714,28	1306,60
714,46	1267,69
714,65	1259,50
714,83	1232,88
715,01	1286,12
715,19	1239,02
715,38	1243,12
715,56	1265,64
715,74	1253,36
715,92	1255,40
716,11	1255,40
716,29	1239,02
716,47	1249,26
716,65	1284,08
716,84	1282,03
717,02	1265,64
717,20	1255,40
717,38	1351,66
717,57	1239,02
717,75	1265,64
717,93	1200,11
718,11	1241,07
718,30	1224,69
718,48	1263,60
718,66	1298,41
718,84	1234,93
719,03	1275,88
719,21	1296,36
719,39	1279,98
719,57	1370,09
719,75	1284,08
719,94	1341,42
720,12	1191,92
720,30	1271,79
720,48	1241,07
720,67	1286,12
720,85	1306,60
721,03	1245,16
721,21	1273,84
721,39	1292,27
721,58	1327,08
721,76	1304,56
721,94	1284,08
722,12	1253,36
722,30	1353,71
722,49	1261,55
722,67	1232,88
722,85	1196,01
723,03	1273,84
723,21	1255,40
723,40	1234,93
723,58	1263,60
723,76	1271,79
723,94	1279,98
724,12	1239,02
724,30	1335,28
724,49	1257,45
724,67	1265,64
724,85	1234,93
725,03	1249,26
725,21	1306,60
725,40	1196,01
725,58	1224,69
725,76	1290,22
725,94	1304,56
726,12	1298,41
726,30	1236,97
726,49	1296,36
726,67	1292,27
726,85	1345,52
727,03	1228,78
727,21	1339,37
727,39	1284,08
727,57	1282,03
727,76	1189,87
727,94	1200,11
728,12	1253,36
728,30	1230,83
728,48	1218,54
728,66	1216,49
728,84	1230,83
729,03	1273,84
729,21	1239,02
729,39	1349,61
729,57	1247,21
729,75	1304,56
729,93	1298,41
730,11	1249,26
730,30	1230,83
730,48	1261,55
730,66	1263,60
730,84	1241,07
731,02	1306,60
731,20	1310,70
731,38	1288,17
731,56	1241,07
731,74	1267,69
731,93	1296,36
732,11	1239,02
732,29	1228,78
732,47	1265,64
732,65	1220,59
732,83	1187,82
733,01	1275,88
733,19	1251,31
733,37	1230,83
733,56	1236,97
733,74	1296,36
733,92	1175,53
734,10	1366,00
734,28	1288,17
734,46	1333,23
734,64	1269,74
734,82	1339,37
735,00	1304,56
735,18	1243,12
735,36	1259,50
735,54	1322,99
735,73	1286,12
735,91	1259,50
736,09	1327,08
736,27	1245,16
736,45	1298,41
736,63	1228,78
736,81	1286,12
736,99	1257,45
737,17	1243,12
737,35	1372,14
737,53	1318,89
737,71	1335,28
737,89	1269,74
738,07	1185,77
738,25	1202,16
738,43	1277,93
738,61	1210,35
738,80	1234,93
738,98	1218,54
739,16	1314,80
739,34	1306,60
739,52	1320,94
739,70	1243,12
739,88	1288,17
740,06	1314,80
740,24	1218,54
740,42	1267,69
740,60	1247,21
740,78	1277,93
740,96	1322,99
741,14	1247,21
741,32	1333,23
741,50	1302,51
741,68	1245,16
741,86	1322,99
742,04	1245,16
742,22	1226,73
742,40	1286,12
742,58	1220,59
742,76	1261,55
742,94	1196,01
743,12	1271,79
743,30	1316,84
743,48	1294,32
743,66	1265,64
743,84	1251,31
744,02	1290,22
744,20	1189,87
744,38	1247,21
744,56	1241,07
744,74	1290,22
744,92	1220,59
745,10	1288,17
745,28	1261,55
745,46	1292,27
745,64	1208,30
745,82	1220,59
746,00	1239,02
746,18	1286,12
746,36	1245,16
746,54	1314,80
746,72	1198,06
746,90	1273,84
747,08	1210,35
747,26	1312,75
747,44	1255,40
747,62	1234,93
747,80	1294,32
747,98	1290,22
748,15	1298,41
748,33	1284,08
748,51	1275,88
748,69	1204,21
748,87	1241,07
749,05	1282,03
749,23	1263,60
749,41	1232,88
749,59	1271,79
749,77	1249,26
749,95	1322,99
750,13	1339,37
750,31	1265,64
750,49	1230,83
750,67	1224,69
750,85	1320,94
751,03	1263,60
751,20	1282,03
751,38	1224,69
751,56	1189,87
751,74	1331,18
751,92	1277,93
752,10	1259,50
752,28	1206,25
752,46	1306,60
752,64	1273,84
752,82	1296,36
753,00	1318,89
753,18	1282,03
753,35	1292,27
753,53	1279,98
753,71	1312,75
753,89	1304,56
754,07	1243,12
754,25	1257,45
754,43	1271,79
754,61	1239,02
754,79	1259,50
754,97	1232,88
755,14	1296,36
755,32	1271,79
755,50	1218,54
755,68	1279,98
755,86	1249,26
756,04	1255,40
756,22	1251,31
756,40	1284,08
756,57	1263,60
756,75	1320,94
756,93	1228,78
757,11	1222,64
757,29	1320,94
757,47	1257,45
757,65	1253,36
757,82	1212,40
758,00	1257,45
758,18	1245,16
758,36	1296,36
758,54	1312,75
758,72	1318,89
758,90	1318,89
759,07	1261,55
759,25	1273,84
759,43	1216,49
759,61	1218,54
759,79	1310,70
759,97	1306,60
760,15	1282,03
760,32	1181,68
760,50	1269,74
760,68	1318,89
760,86	1273,84
761,04	1292,27
761,22	1347,56
761,39	1236,97
761,57	1275,88
761,75	1331,18
761,93	1234,93
762,11	1279,98
762,28	1290,22
762,46	1333,23
762,64	1331,18
762,82	1282,03
763,00	1251,31
763,18	1265,64
763,35	1204,21
763,53	1361,90
763,71	1277,93
763,89	1298,41
764,07	1255,40
764,24	1259,50
764,42	1271,79
764,60	1282,03
764,78	1351,66
764,96	1249,26
765,13	1247,21
765,31	1304,56
765,49	1304,56
765,67	1253,36
765,84	1308,65
766,02	1290,22
766,20	1257,45
766,38	1273,84
766,56	1226,73
766,73	1255,40
766,91	1306,60
767,09	1302,51
767,27	1279,98
767,44	1273,84
767,62	1273,84
767,80	1251,31
767,98	1226,73
768,15	1284,08
768,33	1214,45
768,51	1220,59
768,69	1300,46
768,87	1302,51
769,04	1253,36
769,22	1232,88
769,40	1284,08
769,58	1224,69
769,75	1253,36
769,93	1263,60
770,11	1263,60
770,28	1259,50
770,46	1271,79
770,64	1261,55
770,82	1290,22
770,99	1259,50
771,17	1302,51
771,35	1273,84
771,53	1247,21
771,70	1241,07
771,88	1257,45
772,06	1214,45
772,23	1257,45
772,41	1196,01
772,59	1257,45
772,77	1193,97
772,94	1226,73
773,12	1263,60
773,30	1284,08
773,47	1236,97
773,65	1265,64
773,83	1191,92
774,01	1292,27
774,18	1224,69
774,36	1337,32
774,54	1302,51
774,71	1279,98
774,89	1286,12
775,07	1298,41
775,24	1267,69
775,42	1212,40
775,60	1308,65
775,78	1232,88
775,95	1286,12
776,13	1247,21
776,31	1259,50
776,48	1224,69
776,66	1267,69
776,84	1282,03
777,01	1312,75
777,19	1261,55
777,37	1316,84
777,54	1302,51
777,72	1296,36
777,90	1292,27
778,07	1243,12
778,25	1234,93
778,43	1279,98
778,60	1318,89
778,78	1290,22
778,96	1243,12
779,13	1271,79
779,31	1263,60
779,49	1304,56
779,66	1228,78
779,84	1265,64
780,01	1200,11
780,19	1273,84
780,37	1224,69
780,54	1208,30
780,72	1212,40
780,90	1273,84
781,07	1294,32
781,25	1245,16
781,43	1370,09
781,60	1239,02
781,78	1284,08
781,95	1288,17
782,13	1290,22
782,31	1306,60
782,48	1251,31
782,66	1193,97
782,83	1261,55
783,01	1310,70
783,19	1269,74
783,36	1267,69
783,54	1196,01
783,72	1265,64
783,89	1257,45
784,07	1296,36
784,24	1261,55
784,42	1318,89
784,60	1239,02
784,77	1265,64
784,95	1277,93
785,12	1271,79
785,30	1224,69
785,47	1259,50
785,65	1208,30
785,83	1298,41
786,00	1263,60
786,18	1292,27
786,35	1234,93
786,53	1234,93
786,71	1282,03
786,88	1277,93
787,06	1275,88
787,23	1288,17
787,41	1304,56
787,58	1249,26
787,76	1271,79
787,94	1257,45
788,11	1234,93
788,29	1220,59
788,46	1226,73
788,64	1251,31
788,81	1282,03
788,99	1271,79
789,16	1187,82
789,34	1343,47
789,52	1175,53
789,69	1318,89
789,87	1230,83
790,04	1214,45
790,22	1271,79
790,39	1253,36
790,57	1271,79
790,74	1273,84
790,92	1275,88
791,09	1271,79
791,27	1261,55
791,44	1273,84
791,62	1304,56
791,79	1314,80
791,97	1292,27
792,15	1279,98
792,32	1236,97
792,50	1286,12
792,67	1232,88
792,85	1288,17
793,02	1224,69
793,20	1257,45
793,37	1322,99
793,55	1312,75
793,72	1249,26
793,90	1308,65
794,07	1255,40
794,25	1386,47
794,42	1247,21
794,60	1310,70
794,77	1343,47
794,95	1275,88
795,12	1284,08
795,30	1277,93
795,47	1273,84
795,65	1273,84
795,82	1243,12
796,00	1253,36
796,17	1271,79
796,34	1269,74
796,52	1208,30
796,69	1273,84
796,87	1296,36
797,04	1251,31
797,22	1239,02
797,39	1308,65
797,57	1210,35
797,74	1357,80
797,92	1298,41
798,09	1312,75
798,27	1271,79
798,44	1234,93
798,62	1269,74
798,79	1337,32
798,96	1347,56
799,14	1282,03
799,31	1296,36
799,49	1286,12
799,66	1236,97
799,84	1228,78
800,01	1263,60
800,19	1316,84
800,36	1245,16
800,53	1296,36
800,71	1341,42
800,88	1271,79
801,06	1241,07
801,23	1292,27
801,41	1179,63
801,58	1241,07
801,75	1306,60
801,93	1288,17
802,10	1218,54
802,28	1232,88
802,45	1380,33
802,63	1267,69
802,80	1255,40
802,97	1259,50
803,15	1273,84
803,32	1269,74
803,50	1269,74
803,67	1183,73
803,84	1245,16
804,02	1294,32
804,19	1251,31
804,37	1290,22
804,54	1286,12
804,71	1341,42
804,89	1226,73
805,06	1239,02
805,24	1322,99
805,41	1245,16
805,58	1337,32
805,76	1282,03
805,93	1302,51
806,10	1212,40
806,28	1273,84
806,45	1322,99
806,63	1214,45
806,80	1286,12
806,97	1263,60
807,15	1253,36
807,32	1232,88
807,49	1269,74
807,67	1304,56
807,84	1247,21
808,01	1212,40
808,19	1282,03
808,36	1228,78
808,54	1279,98
808,71	1298,41
808,88	1302,51
809,06	1290,22
809,23	1212,40
809,40	1243,12
809,58	1294,32
809,75	1212,40
809,92	1222,64
810,10	1269,74
810,27	1298,41
810,44	1208,30
810,62	1249,26
810,79	1224,69
810,96	1265,64
811,14	1314,80
811,31	1222,64
811,48	1241,07
811,66	1363,95
811,83	1261,55
812,00	1306,60
812,18	1196,01
812,35	1220,59
812,52	1218,54
812,69	1310,70
812,87	1269,74
813,04	1290,22
813,21	1239,02
813,39	1249,26
813,56	1259,50
813,73	1327,08
813,91	1224,69
814,08	1296,36
814,25	1222,64
814,42	1208,30
814,60	1247,21
814,77	1296,36
814,94	1275,88
815,12	1239,02
815,29	1253,36
815,46	1261,55
815,63	1322,99
815,81	1298,41
815,98	1308,65
816,15	1261,55
816,33	1345,52
816,50	1292,27
816,67	1245,16
816,84	1257,45
817,02	1261,55
817,19	1251,31
817,36	1312,75
817,53	1296,36
817,71	1286,12
817,88	1247,21
818,05	1318,89
818,22	1259,50
818,40	1331,18
818,57	1265,64
818,74	1220,59
818,91	1263,60
819,09	1198,06
819,26	1216,49
819,43	1191,92
819,60	1316,84
819,78	1292,27
819,95	1300,46
820,12	1251,31
820,29	1333,23
820,47	1232,88
820,64	1273,84
820,81	1312,75
820,98	1249,26
821,15	1290,22
821,33	1257,45
821,50	1220,59
821,67	1282,03
821,84	1269,74
822,02	1327,08
822,19	1226,73
822,36	1226,73
822,53	1273,84
822,70	1312,75
822,88	1245,16
823,05	1345,52
823,22	1226,73
823,39	1232,88
823,56	1310,70
823,74	1273,84
823,91	1220,59
824,08	1220,59
824,25	1251,31
824,42	1257,45
824,60	1312,75
824,77	1286,12
824,94	1304,56
825,11	1218,54
825,28	1236,97
825,45	1228,78
825,63	1271,79
825,80	1304,56
825,97	1202,16
826,14	1247,21
826,31	1239,02
826,48	1302,51
826,66	1269,74
826,83	1286,12
827,00	1236,97
827,17	1288,17
827,34	1296,36
827,51	1304,56
827,69	1267,69
827,86	1265,64
828,03	1294,32
828,20	1288,17
828,37	1349,61
828,54	1259,50
828,71	1257,45
828,89	1337,32
829,06	1277,93
829,23	1282,03
829,40	1261,55
829,57	1335,28
829,74	1249,26
829,91	1316,84
830,09	1298,41
830,26	1230,83
830,43	1284,08
830,60	1239,02
830,77	1312,75
830,94	1265,64
831,11	1249,26
831,28	1226,73
831,46	1308,65
831,63	1226,73
831,80	1286,12
831,97	1314,80
832,14	1185,77
832,31	1232,88
832,48	1253,36
832,65	1304,56
832,82	1275,88
832,99	1273,84
833,17	1187,82
833,34	1232,88
833,51	1230,83
833,68	1175,53
833,85	1257,45
834,02	1257,45
834,19	1325,04
834,36	1300,46
834,53	1241,07
834,70	1316,84
834,87	1370,09
835,04	1275,88
835,22	1189,87
835,39	1218,54
835,56	1157,10
835,73	1347,56
835,90	1245,16
836,07	1206,25
836,24	1292,27
836,41	1247,21
836,58	1224,69
836,75	1216,49
836,92	1228,78
837,09	1273,84
837,26	1261,55
837,43	1322,99
837,60	1271,79
837,77	1226,73
837,94	1239,02
838,12	1329,13
838,29	1282,03
838,46	1212,40
838,63	1257,45
838,80	1318,89
838,97	1343,47
839,14	1308,65
839,31	1204,21
839,48	1232,88
839,65	1292,27
839,82	1320,94
839,99	1198,06
840,16	1277,93
840,33	1263,60
840,50	1349,61
840,67	1181,68
840,84	1308,65
841,01	1239,02
841,18	1253,36
841,35	1257,45
841,52	1349,61
841,69	1286,12
841,86	1306,60
842,03	1286,12
842,20	1220,59
842,37	1236,97
842,54	1302,51
842,71	1241,07
842,88	1234,93
843,05	1294,32
843,22	1322,99
843,39	1230,83
843,56	1241,07
843,73	1325,04
843,90	1294,32
844,07	1265,64
844,24	1257,45
844,41	1226,73
844,58	1200,11
844,75	1310,70
844,92	1267,69
845,09	1249,26
845,26	1286,12
845,43	1304,56
845,60	1220,59
845,77	1241,07
845,94	1265,64
846,10	1187,82
846,27	1265,64
846,44	1265,64
846,61	1232,88
846,78	1314,80
846,95	1239,02
847,12	1247,21
847,29	1263,60
847,46	1249,26
847,63	1341,42
847,80	1320,94
847,97	1312,75
848,14	1245,16
848,31	1288,17
848,48	1220,59
848,65	1298,41
848,82	1220,59
848,98	1245,16
849,15	1284,08
849,32	1290,22
849,49	1271,79
849,66	1255,40
849,83	1273,84
850,00	1351,66
850,17	1239,02
850,34	1361,90
850,51	1204,21
850,68	1273,84
850,85	1277,93
851,01	1255,40
851,18	1282,03
851,35	1212,40
851,52	1243,12
851,69	1279,98
851,86	1275,88
852,03	1337,32
852,20	1226,73
852,37	1271,79
852,53	1251,31
852,70	1173,49
852,87	1241,07
853,04	1247,21
853,21	1322,99
853,38	1306,60
853,55	1304,56
853,72	1345,52
853,89	1226,73
854,05	1296,36
854,22	1267,69
854,39	1288,17
854,56	1275,88
854,73	1234,93
854,90	1239,02
855,07	1263,60
855,23	1271,79
855,40	1232,88
855,57	1351,66
855,74	1253,36
855,91	1265,64
856,08	1288,17
856,25	1226,73
856,41	1279,98
856,58	1269,74
856,75	1257,45
856,92	1251,31
857,09	1253,36
857,26	1267,69
857,42	1275,88
857,59	1249,26
857,76	1189,87
857,93	1171,44
858,10	1181,68
858,27	1220,59
858,43	1304,56
858,60	1308,65
858,77	1179,63
858,94	1282,03
859,11	1265,64
859,27	1265,64
859,44	1263,60
859,61	1265,64
859,78	1255,40
859,95	1232,88
860,12	1202,16
860,28	1222,64
860,45	1271,79
860,62	1220,59
860,79	1327,08
860,95	1253,36
861,12	1247,21
861,29	1298,41
861,46	1220,59
861,63	1277,93
861,79	1269,74
861,96	1249,26
862,13	1239,02
862,30	1341,42
862,47	1261,55
862,63	1222,64
862,80	1269,74
862,97	1316,84
863,14	1255,40
863,30	1282,03
863,47	1202,16
863,64	1196,01
863,81	1296,36
863,97	1222,64
864,14	1279,98
864,31	1290,22
864,48	1361,90
864,65	1249,26
864,81	1249,26
864,98	1263,60
865,15	1271,79
865,32	1271,79
865,48	1230,83
865,65	1335,28
865,82	1288,17
865,98	1255,40
866,15	1271,79
866,32	1263,60
866,49	1284,08
866,65	1271,79
866,82	1271,79
866,99	1308,65
867,16	1228,78
867,32	1288,17
867,49	1366,00
867,66	1247,21
867,83	1312,75
867,99	1230,83
868,16	1304,56
868,33	1277,93
868,49	1265,64
868,66	1222,64
868,83	1304,56
868,99	1300,46
869,16	1312,75
869,33	1292,27
869,50	1263,60
869,66	1261,55
869,83	1222,64
870,00	1271,79
870,16	1327,08
870,33	1335,28
870,50	1273,84
870,66	1290,22
870,83	1277,93
871,00	1183,73
871,17	1263,60
871,33	1269,74
871,50	1218,54
871,67	1267,69
871,83	1284,08
872,00	1300,46
872,17	1286,12
872,33	1267,69
872,50	1312,75
872,67	1294,32
872,83	1206,25
873,00	1318,89
873,17	1273,84
873,33	1314,80
873,50	1189,87
873,67	1251,31
873,83	1247,21
874,00	1290,22
874,16	1189,87
874,33	1241,07
874,50	1253,36
874,66	1275,88
874,83	1275,88
875,00	1259,50
875,16	1243,12
875,33	1296,36
875,50	1329,13
875,66	1273,84
875,83	1318,89
875,99	1290,22
876,16	1296,36
876,33	1210,35
876,49	1273,84
876,66	1247,21
876,83	1261,55
876,99	1241,07
877,16	1337,32
877,32	1277,93
877,49	1310,70
877,66	1288,17
877,82	1271,79
877,99	1245,16
878,15	1212,40
878,32	1159,15
878,49	1214,45
878,65	1294,32
878,82	1230,83
878,98	1284,08
879,15	1322,99
879,32	1249,26
879,48	1247,21
879,65	1282,03
879,81	1218,54
879,98	1249,26
880,15	1236,97
880,31	1265,64
880,48	1320,94
880,64	1220,59
880,81	1273,84
880,97	1255,40
881,14	1269,74
881,31	1261,55
881,47	1306,60
881,64	1247,21
881,80	1269,74
881,97	1249,26
882,13	1296,36
882,30	1191,92
882,47	1222,64
882,63	1140,72
882,80	1212,40
882,96	1257,45
883,13	1263,60
883,29	1243,12
883,46	1333,23
883,62	1245,16
883,79	1202,16
883,95	1302,51
884,12	1312,75
884,29	1294,32
884,45	1327,08
884,62	1322,99
884,78	1275,88
884,95	1259,50
885,11	1251,31
885,28	1279,98
885,44	1316,84
885,61	1241,07
885,77	1214,45
885,94	1290,22
886,10	1251,31
886,27	1228,78
886,43	1257,45
886,60	1263,60
886,76	1222,64
886,93	1288,17
887,09	1310,70
887,26	1247,21
887,42	1304,56
887,59	1253,36
887,75	1312,75
887,92	1314,80
888,08	1265,64
888,25	1337,32
888,41	1208,30
888,58	1363,95
888,74	1259,50
888,91	1257,45
>>>>>End Processed Spectral Data<<<<<
