SpectraSuite Data File
++++++++++++++++++++++++++++++++++++
Date: Sun Apr 03 19:55:55 CEST 2016
User: root
Dark Spectrum Present: No
Reference Spectrum Present: No
Number of Sampled Component Spectra: 1
Spectrometers: USB4C02835
Integration Time (usec): 10000 (USB4C02835)
Spectra Averaged: 1 (USB4C02835)
Boxcar Smoothing: 0 (USB4C02835)
Correct for Electrical Dark: No (USB4C02835)
Strobe/Lamp Enabled: No (USB4C02835)
Correct for Detector Non-linearity: No (USB4C02835)
Correct for Stray Light: No (USB4C02835)
Number of Pixels in Processed Spectrum: 3648
>>>>>Begin Processed Spectral Data<<<<<
177,47	1284,08
177,69	1284,08
177,91	1284,08
178,13	1259,50
178,36	1271,79
178,58	1269,74
178,80	1230,83
179,02	1261,55
179,24	1216,49
179,46	1222,64
179,68	1208,30
179,90	1249,26
180,13	1171,44
180,35	1247,21
180,57	1318,89
180,79	1325,04
181,01	1193,97
181,23	1314,80
181,45	1271,79
181,67	1239,02
181,90	1134,57
182,12	1196,01
182,34	1312,75
182,56	1257,45
182,78	1286,12
183,00	1325,04
183,22	1267,69
183,44	1239,02
183,66	1322,99
183,89	1290,22
184,11	1275,88
184,33	1210,35
184,55	1239,02
184,77	1249,26
184,99	1239,02
185,21	1304,56
185,43	1259,50
185,65	1265,64
185,87	1247,21
186,10	1279,98
186,32	1255,40
186,54	1347,56
186,76	1294,32
186,98	1198,06
187,20	1251,31
187,42	1218,54
187,64	1325,04
187,86	1286,12
188,08	1314,80
188,30	1261,55
188,52	1241,07
188,75	1239,02
188,97	1232,88
189,19	1198,06
189,41	1241,07
189,63	1306,60
189,85	1286,12
190,07	1284,08
190,29	1271,79
190,51	1294,32
190,73	1261,55
190,95	1277,93
191,17	1206,25
191,39	1245,16
191,61	1273,84
191,84	1290,22
192,06	1224,69
192,28	1249,26
192,50	1212,40
192,72	1261,55
192,94	1267,69
193,16	1218,54
193,38	1339,37
193,60	1253,36
193,82	1279,98
194,04	1314,80
194,26	1239,02
194,48	1261,55
194,70	1265,64
194,92	1300,46
195,14	1239,02
195,36	1298,41
195,58	1279,98
195,80	1236,97
196,02	1198,06
196,24	1239,02
196,46	1308,65
196,69	1294,32
196,91	1277,93
197,13	1236,97
197,35	1263,60
197,57	1304,56
197,79	1247,21
198,01	1286,12
198,23	1185,77
198,45	1282,03
198,67	1277,93
198,89	1220,59
199,11	1226,73
199,33	1286,12
199,55	1314,80
199,77	1200,11
199,99	1271,79
200,21	1224,69
200,43	1257,45
200,65	1226,73
200,87	1239,02
201,09	1263,60
201,31	1165,29
201,53	1314,80
201,75	1269,74
201,97	1220,59
202,19	1253,36
202,41	1239,02
202,63	1263,60
202,85	1257,45
203,07	1253,36
203,29	1251,31
203,51	1265,64
203,73	1206,25
203,95	1298,41
204,17	1335,28
204,39	1351,66
204,61	1261,55
204,83	1222,64
205,05	1249,26
205,27	1288,17
205,49	1232,88
205,71	1302,51
205,93	1247,21
206,15	1249,26
206,37	1294,32
206,59	1292,27
206,81	1228,78
207,03	1314,80
207,25	1236,97
207,47	1277,93
207,69	1325,04
207,91	1314,80
208,13	1306,60
208,34	1200,11
208,56	1269,74
208,78	1224,69
209,00	1251,31
209,22	1253,36
209,44	1234,93
209,66	1279,98
209,88	1329,13
210,10	1267,69
210,32	1251,31
210,54	1230,83
210,76	1212,40
210,98	1269,74
211,20	1214,45
211,42	1263,60
211,64	1296,36
211,86	1277,93
212,08	1271,79
212,30	1263,60
212,52	1228,78
212,74	1228,78
212,96	1353,71
213,17	1284,08
213,39	1302,51
213,61	1316,84
213,83	1236,97
214,05	1273,84
214,27	1304,56
214,49	1263,60
214,71	1273,84
214,93	1247,21
215,15	1241,07
215,37	1296,36
215,59	1222,64
215,81	1265,64
216,03	1232,88
216,24	1224,69
216,46	1191,92
216,68	1265,64
216,90	1257,45
217,12	1300,46
217,34	1312,75
217,56	1249,26
217,78	1331,18
218,00	1302,51
218,22	1275,88
218,44	1232,88
218,66	1251,31
218,87	1275,88
219,09	1335,28
219,31	1298,41
219,53	1251,31
219,75	1296,36
219,97	1257,45
220,19	1273,84
220,41	1228,78
220,63	1306,60
220,85	1292,27
221,06	1310,70
221,28	1230,83
221,50	1271,79
221,72	1282,03
221,94	1370,09
222,16	1304,56
222,38	1269,74
222,60	1300,46
222,82	1306,60
223,03	1265,64
223,25	1255,40
223,47	1300,46
223,69	1306,60
223,91	1259,50
224,13	1263,60
224,35	1265,64
224,57	1296,36
224,78	1282,03
225,00	1302,51
225,22	1331,18
225,44	1247,21
225,66	1243,12
225,88	1292,27
226,10	1279,98
226,32	1222,64
226,53	1249,26
226,75	1343,47
226,97	1306,60
227,19	1353,71
227,41	1259,50
227,63	1361,90
227,85	1298,41
228,06	1294,32
228,28	1292,27
228,50	1255,40
228,72	1308,65
228,94	1331,18
229,16	1351,66
229,37	1259,50
229,59	1255,40
229,81	1241,07
230,03	1331,18
230,25	1216,49
230,47	1222,64
230,69	1335,28
230,90	1277,93
231,12	1298,41
231,34	1249,26
231,56	1288,17
231,78	1253,36
232,00	1318,89
232,21	1267,69
232,43	1230,83
232,65	1241,07
232,87	1312,75
233,09	1257,45
233,30	1279,98
233,52	1261,55
233,74	1290,22
233,96	1249,26
234,18	1251,31
234,40	1257,45
234,61	1263,60
234,83	1234,93
235,05	1284,08
235,27	1361,90
235,49	1261,55
235,70	1247,21
235,92	1230,83
236,14	1273,84
236,36	1265,64
236,58	1253,36
236,79	1249,26
237,01	1355,76
237,23	1259,50
237,45	1234,93
237,67	1259,50
237,88	1226,73
238,10	1236,97
238,32	1210,35
238,54	1286,12
238,76	1130,48
238,97	1312,75
239,19	1320,94
239,41	1279,98
239,63	1282,03
239,85	1314,80
240,06	1296,36
240,28	1253,36
240,50	1290,22
240,72	1359,85
240,93	1206,25
241,15	1255,40
241,37	1306,60
241,59	1306,60
241,81	1368,04
242,02	1251,31
242,24	1294,32
242,46	1249,26
242,68	1300,46
242,89	1249,26
243,11	1298,41
243,33	1308,65
243,55	1337,32
243,76	1208,30
243,98	1300,46
244,20	1239,02
244,42	1290,22
244,64	1259,50
244,85	1239,02
245,07	1288,17
245,29	1288,17
245,51	1232,88
245,72	1241,07
245,94	1292,27
246,16	1173,49
246,38	1224,69
246,59	1261,55
246,81	1247,21
247,03	1335,28
247,24	1267,69
247,46	1363,95
247,68	1329,13
247,90	1245,16
248,11	1224,69
248,33	1275,88
248,55	1282,03
248,77	1191,92
248,98	1249,26
249,20	1316,84
249,42	1277,93
249,64	1302,51
249,85	1251,31
250,07	1206,25
250,29	1255,40
250,50	1251,31
250,72	1298,41
250,94	1228,78
251,16	1191,92
251,37	1232,88
251,59	1257,45
251,81	1302,51
252,02	1282,03
252,24	1212,40
252,46	1314,80
252,68	1290,22
252,89	1224,69
253,11	1200,11
253,33	1286,12
253,54	1288,17
253,76	1245,16
253,98	1175,53
254,20	1239,02
254,41	1282,03
254,63	1249,26
254,85	1284,08
255,06	1378,28
255,28	1282,03
255,50	1302,51
255,71	1279,98
255,93	1267,69
256,15	1277,93
256,36	1263,60
256,58	1220,59
256,80	1279,98
257,02	1243,12
257,23	1236,97
257,45	1261,55
257,67	1241,07
257,88	1243,12
258,10	1259,50
258,32	1308,65
258,53	1288,17
258,75	1241,07
258,97	1243,12
259,18	1271,79
259,40	1282,03
259,62	1359,85
259,83	1279,98
260,05	1241,07
260,27	1263,60
260,48	1230,83
260,70	1300,46
260,92	1284,08
261,13	1263,60
261,35	1218,54
261,57	1267,69
261,78	1273,84
262,00	1267,69
262,22	1273,84
262,43	1228,78
262,65	1290,22
262,86	1273,84
263,08	1370,09
263,30	1284,08
263,51	1259,50
263,73	1222,64
263,95	1263,60
264,16	1216,49
264,38	1298,41
264,60	1292,27
264,81	1218,54
265,03	1290,22
265,25	1228,78
265,46	1329,13
265,68	1294,32
265,89	1284,08
266,11	1296,36
266,33	1265,64
266,54	1271,79
266,76	1296,36
266,98	1226,73
267,19	1284,08
267,41	1263,60
267,62	1173,49
267,84	1273,84
268,06	1263,60
268,27	1212,40
268,49	1269,74
268,70	1288,17
268,92	1228,78
269,14	1230,83
269,35	1218,54
269,57	1269,74
269,79	1198,06
270,00	1226,73
270,22	1329,13
270,43	1261,55
270,65	1282,03
270,87	1308,65
271,08	1228,78
271,30	1249,26
271,51	1239,02
271,73	1247,21
271,95	1271,79
272,16	1226,73
272,38	1234,93
272,59	1228,78
272,81	1193,97
273,02	1259,50
273,24	1249,26
273,46	1292,27
273,67	1322,99
273,89	1214,45
274,10	1273,84
274,32	1275,88
274,54	1265,64
274,75	1271,79
274,97	1241,07
275,18	1253,36
275,40	1327,08
275,61	1290,22
275,83	1255,40
276,05	1312,75
276,26	1329,13
276,48	1230,83
276,69	1261,55
276,91	1273,84
277,12	1236,97
277,34	1271,79
277,55	1282,03
277,77	1275,88
277,99	1318,89
278,20	1312,75
278,42	1327,08
278,63	1181,68
278,85	1329,13
279,06	1327,08
279,28	1312,75
279,49	1282,03
279,71	1243,12
279,93	1294,32
280,14	1306,60
280,36	1310,70
280,57	1284,08
280,79	1277,93
281,00	1251,31
281,22	1253,36
281,43	1339,37
281,65	1261,55
281,86	1310,70
282,08	1312,75
282,29	1271,79
282,51	1306,60
282,73	1298,41
282,94	1298,41
283,16	1265,64
283,37	1339,37
283,59	1271,79
283,80	1230,83
284,02	1239,02
284,23	1284,08
284,45	1302,51
284,66	1196,01
284,88	1302,51
285,09	1318,89
285,31	1312,75
285,52	1277,93
285,74	1247,21
285,95	1302,51
286,17	1247,21
286,38	1204,21
286,60	1277,93
286,81	1271,79
287,03	1255,40
287,24	1261,55
287,46	1234,93
287,67	1212,40
287,89	1298,41
288,10	1257,45
288,32	1218,54
288,53	1273,84
288,75	1193,97
288,96	1261,55
289,18	1241,07
289,39	1232,88
289,61	1247,21
289,82	1263,60
290,04	1269,74
290,25	1273,84
290,47	1224,69
290,68	1222,64
290,90	1361,90
291,11	1243,12
291,33	1308,65
291,54	1302,51
291,76	1239,02
291,97	1277,93
292,18	1232,88
292,40	1255,40
292,61	1314,80
292,83	1228,78
293,04	1314,80
293,26	1193,97
293,47	1257,45
293,69	1239,02
293,90	1300,46
294,12	1243,12
294,33	1173,49
294,55	1232,88
294,76	1322,99
294,97	1261,55
295,19	1351,66
295,40	1306,60
295,62	1224,69
295,83	1294,32
296,05	1208,30
296,26	1366,00
296,48	1265,64
296,69	1275,88
296,90	1222,64
297,12	1286,12
297,33	1298,41
297,55	1245,16
297,76	1294,32
297,98	1269,74
298,19	1257,45
298,41	1290,22
298,62	1335,28
298,83	1216,49
299,05	1306,60
299,26	1230,83
299,48	1290,22
299,69	1300,46
299,90	1277,93
300,12	1245,16
300,33	1269,74
300,55	1273,84
300,76	1286,12
300,98	1277,93
301,19	1267,69
301,40	1279,98
301,62	1269,74
301,83	1193,97
302,05	1200,11
302,26	1208,30
302,47	1241,07
302,69	1288,17
302,90	1312,75
303,12	1243,12
303,33	1247,21
303,54	1304,56
303,76	1294,32
303,97	1261,55
304,19	1284,08
304,40	1273,84
304,61	1296,36
304,83	1239,02
305,04	1263,60
305,26	1222,64
305,47	1234,93
305,68	1265,64
305,90	1259,50
306,11	1255,40
306,33	1236,97
306,54	1243,12
306,75	1308,65
306,97	1310,70
307,18	1239,02
307,39	1273,84
307,61	1314,80
307,82	1288,17
308,04	1300,46
308,25	1263,60
308,46	1300,46
308,68	1296,36
308,89	1314,80
309,10	1306,60
309,32	1306,60
309,53	1261,55
309,74	1284,08
309,96	1167,34
310,17	1339,37
310,39	1279,98
310,60	1208,30
310,81	1269,74
311,03	1316,84
311,24	1245,16
311,45	1269,74
311,67	1263,60
311,88	1300,46
312,09	1245,16
312,31	1251,31
312,52	1261,55
312,73	1255,40
312,95	1277,93
313,16	1239,02
313,37	1216,49
313,59	1322,99
313,80	1261,55
314,01	1245,16
314,23	1228,78
314,44	1306,60
314,65	1228,78
314,87	1286,12
315,08	1236,97
315,29	1241,07
315,51	1239,02
315,72	1290,22
315,93	1198,06
316,15	1316,84
316,36	1277,93
316,57	1267,69
316,79	1210,35
317,00	1241,07
317,21	1245,16
317,43	1216,49
317,64	1265,64
317,85	1155,05
318,07	1222,64
318,28	1234,93
318,49	1251,31
318,70	1294,32
318,92	1245,16
319,13	1302,51
319,34	1228,78
319,56	1234,93
319,77	1277,93
319,98	1214,45
320,20	1290,22
320,41	1304,56
320,62	1300,46
320,83	1306,60
321,05	1322,99
321,26	1296,36
321,47	1351,66
321,69	1282,03
321,90	1333,23
322,11	1290,22
322,32	1304,56
322,54	1259,50
322,75	1222,64
322,96	1314,80
323,18	1253,36
323,39	1247,21
323,60	1236,97
323,81	1263,60
324,03	1290,22
324,24	1302,51
324,45	1263,60
324,66	1265,64
324,88	1312,75
325,09	1300,46
325,30	1257,45
325,52	1273,84
325,73	1251,31
325,94	1318,89
326,15	1210,35
326,37	1239,02
326,58	1200,11
326,79	1304,56
327,00	1247,21
327,22	1271,79
327,43	1296,36
327,64	1247,21
327,85	1239,02
328,07	1306,60
328,28	1243,12
328,49	1329,13
328,70	1236,97
328,92	1257,45
329,13	1245,16
329,34	1273,84
329,55	1204,21
329,76	1255,40
329,98	1261,55
330,19	1286,12
330,40	1253,36
330,61	1243,12
330,83	1376,24
331,04	1265,64
331,25	1279,98
331,46	1265,64
331,68	1279,98
331,89	1304,56
332,10	1153,01
332,31	1331,18
332,52	1269,74
332,74	1263,60
332,95	1282,03
333,16	1257,45
333,37	1327,08
333,58	1300,46
333,80	1327,08
334,01	1273,84
334,22	1292,27
334,43	1232,88
334,64	1341,42
334,86	1241,07
335,07	1288,17
335,28	1277,93
335,49	1265,64
335,70	1275,88
335,92	1306,60
336,13	1294,32
336,34	1228,78
336,55	1241,07
336,76	1228,78
336,98	1265,64
337,19	1304,56
337,40	1363,95
337,61	1282,03
337,82	1239,02
338,04	1275,88
338,25	1261,55
338,46	1253,36
338,67	1239,02
338,88	1263,60
339,09	1300,46
339,31	1298,41
339,52	1243,12
339,73	1284,08
339,94	1310,70
340,15	1304,56
340,36	1247,21
340,58	1212,40
340,79	1232,88
341,00	1271,79
341,21	1312,75
341,42	1208,30
341,63	1298,41
341,85	1329,13
342,06	1269,74
342,27	1316,84
342,48	1294,32
342,69	1271,79
342,90	1265,64
343,12	1286,12
343,33	1255,40
343,54	1202,16
343,75	1316,84
343,96	1265,64
344,17	1302,51
344,38	1269,74
344,60	1220,59
344,81	1255,40
345,02	1234,93
345,23	1241,07
345,44	1320,94
345,65	1286,12
345,86	1247,21
346,07	1298,41
346,29	1261,55
346,50	1275,88
346,71	1292,27
346,92	1253,36
347,13	1284,08
347,34	1263,60
347,55	1269,74
347,76	1239,02
347,98	1210,35
348,19	1306,60
348,40	1302,51
348,61	1243,12
348,82	1241,07
349,03	1265,64
349,24	1251,31
349,45	1189,87
349,66	1292,27
349,88	1255,40
350,09	1183,73
350,30	1335,28
350,51	1304,56
350,72	1292,27
350,93	1286,12
351,14	1261,55
351,35	1265,64
351,56	1257,45
351,77	1325,04
351,99	1277,93
352,20	1243,12
352,41	1243,12
352,62	1282,03
352,83	1185,77
353,04	1282,03
353,25	1224,69
353,46	1273,84
353,67	1273,84
353,88	1228,78
354,09	1275,88
354,30	1263,60
354,52	1257,45
354,73	1275,88
354,94	1187,82
355,15	1273,84
355,36	1353,71
355,57	1261,55
355,78	1275,88
355,99	1255,40
356,20	1214,45
356,41	1241,07
356,62	1296,36
356,83	1255,40
357,04	1314,80
357,25	1263,60
357,46	1239,02
357,68	1208,30
357,89	1271,79
358,10	1316,84
358,31	1239,02
358,52	1247,21
358,73	1290,22
358,94	1296,36
359,15	1298,41
359,36	1216,49
359,57	1318,89
359,78	1296,36
359,99	1247,21
360,20	1335,28
360,41	1216,49
360,62	1286,12
360,83	1273,84
361,04	1249,26
361,25	1173,49
361,46	1288,17
361,67	1216,49
361,88	1296,36
362,09	1257,45
362,30	1269,74
362,51	1191,92
362,72	1312,75
362,93	1216,49
363,14	1290,22
363,35	1259,50
363,56	1232,88
363,78	1302,51
363,99	1320,94
364,20	1347,56
364,41	1245,16
364,62	1279,98
364,83	1327,08
365,04	1263,60
365,25	1296,36
365,46	1222,64
365,67	1251,31
365,88	1234,93
366,09	1249,26
366,30	1265,64
366,51	1298,41
366,72	1148,91
366,93	1296,36
367,14	1265,64
367,35	1269,74
367,56	1249,26
367,77	1292,27
367,98	1304,56
368,18	1249,26
368,39	1228,78
368,60	1322,99
368,81	1236,97
369,02	1331,18
369,23	1349,61
369,44	1337,32
369,65	1339,37
369,86	1302,51
370,07	1355,76
370,28	1181,68
370,49	1249,26
370,70	1259,50
370,91	1226,73
371,12	1386,47
371,33	1290,22
371,54	1265,64
371,75	1251,31
371,96	1265,64
372,17	1308,65
372,38	1273,84
372,59	1275,88
372,80	1212,40
373,01	1230,83
373,22	1316,84
373,43	1234,93
373,64	1318,89
373,85	1210,35
374,06	1253,36
374,26	1351,66
374,47	1308,65
374,68	1259,50
374,89	1232,88
375,10	1234,93
375,31	1257,45
375,52	1372,14
375,73	1284,08
375,94	1247,21
376,15	1247,21
376,36	1327,08
376,57	1263,60
376,78	1232,88
376,99	1273,84
377,20	1249,26
377,40	1196,01
377,61	1302,51
377,82	1243,12
378,03	1243,12
378,24	1290,22
378,45	1265,64
378,66	1308,65
378,87	1275,88
379,08	1271,79
379,29	1275,88
379,50	1228,78
379,71	1263,60
379,91	1249,26
380,12	1249,26
380,33	1271,79
380,54	1288,17
380,75	1226,73
380,96	1320,94
381,17	1290,22
381,38	1226,73
381,59	1257,45
381,80	1247,21
382,00	1304,56
382,21	1261,55
382,42	1329,13
382,63	1286,12
382,84	1267,69
383,05	1277,93
383,26	1331,18
383,47	1259,50
383,68	1335,28
383,88	1353,71
384,09	1279,98
384,30	1343,47
384,51	1220,59
384,72	1216,49
384,93	1259,50
385,14	1196,01
385,35	1243,12
385,55	1232,88
385,76	1200,11
385,97	1265,64
386,18	1257,45
386,39	1284,08
386,60	1204,21
386,81	1251,31
387,02	1312,75
387,22	1251,31
387,43	1275,88
387,64	1212,40
387,85	1347,56
388,06	1271,79
388,27	1292,27
388,48	1265,64
388,68	1245,16
388,89	1208,30
389,10	1386,47
389,31	1312,75
389,52	1298,41
389,73	1179,63
389,93	1314,80
390,14	1294,32
390,35	1306,60
390,56	1173,49
390,77	1265,64
390,98	1232,88
391,18	1265,64
391,39	1226,73
391,60	1275,88
391,81	1226,73
392,02	1261,55
392,23	1359,85
392,43	1202,16
392,64	1265,64
392,85	1284,08
393,06	1259,50
393,27	1325,04
393,47	1265,64
393,68	1267,69
393,89	1284,08
394,10	1239,02
394,31	1226,73
394,52	1269,74
394,72	1273,84
394,93	1257,45
395,14	1261,55
395,35	1253,36
395,56	1259,50
395,76	1296,36
395,97	1329,13
396,18	1249,26
396,39	1236,97
396,60	1247,21
396,80	1222,64
397,01	1275,88
397,22	1224,69
397,43	1265,64
397,64	1247,21
397,84	1259,50
398,05	1310,70
398,26	1265,64
398,47	1286,12
398,67	1329,13
398,88	1329,13
399,09	1269,74
399,30	1273,84
399,51	1222,64
399,71	1345,52
399,92	1239,02
400,13	1228,78
400,34	1253,36
400,54	1236,97
400,75	1269,74
400,96	1318,89
401,17	1353,71
401,37	1273,84
401,58	1251,31
401,79	1298,41
402,00	1220,59
402,21	1247,21
402,41	1271,79
402,62	1279,98
402,83	1216,49
403,04	1249,26
403,24	1273,84
403,45	1208,30
403,66	1363,95
403,87	1230,83
404,07	1265,64
404,28	1339,37
404,49	1308,65
404,70	1206,25
404,90	1325,04
405,11	1232,88
405,32	1279,98
405,52	1325,04
405,73	1288,17
405,94	1224,69
406,15	1292,27
406,35	1236,97
406,56	1263,60
406,77	1314,80
406,98	1288,17
407,18	1271,79
407,39	1210,35
407,60	1222,64
407,80	1279,98
408,01	1296,36
408,22	1259,50
408,43	1198,06
408,63	1320,94
408,84	1318,89
409,05	1257,45
409,25	1288,17
409,46	1257,45
409,67	1265,64
409,88	1357,80
410,08	1314,80
410,29	1255,40
410,50	1308,65
410,70	1329,13
410,91	1206,25
411,12	1253,36
411,32	1255,40
411,53	1325,04
411,74	1329,13
411,95	1257,45
412,15	1249,26
412,36	1296,36
412,57	1341,42
412,77	1286,12
412,98	1337,32
413,19	1273,84
413,39	1286,12
413,60	1314,80
413,81	1300,46
414,01	1298,41
414,22	1290,22
414,43	1228,78
414,63	1243,12
414,84	1191,92
415,05	1275,88
415,25	1234,93
415,46	1239,02
415,67	1320,94
415,87	1214,45
416,08	1288,17
416,29	1226,73
416,49	1282,03
416,70	1243,12
416,91	1286,12
417,11	1282,03
417,32	1273,84
417,53	1269,74
417,73	1261,55
417,94	1314,80
418,15	1245,16
418,35	1249,26
418,56	1265,64
418,77	1247,21
418,97	1228,78
419,18	1177,58
419,38	1265,64
419,59	1265,64
419,80	1204,21
420,00	1269,74
420,21	1232,88
420,42	1282,03
420,62	1267,69
420,83	1222,64
421,04	1261,55
421,24	1296,36
421,45	1322,99
421,65	1255,40
421,86	1251,31
422,07	1284,08
422,27	1271,79
422,48	1191,92
422,69	1288,17
422,89	1269,74
423,10	1214,45
423,30	1302,51
423,51	1284,08
423,72	1302,51
423,92	1216,49
424,13	1279,98
424,33	1265,64
424,54	1243,12
424,75	1298,41
424,95	1241,07
425,16	1294,32
425,36	1220,59
425,57	1302,51
425,78	1282,03
425,98	1255,40
426,19	1314,80
426,39	1202,16
426,60	1267,69
426,81	1247,21
427,01	1214,45
427,22	1243,12
427,42	1228,78
427,63	1218,54
427,83	1220,59
428,04	1277,93
428,25	1300,46
428,45	1243,12
428,66	1259,50
428,86	1300,46
429,07	1185,77
429,28	1249,26
429,48	1232,88
429,69	1298,41
429,89	1202,16
430,10	1337,32
430,30	1202,16
430,51	1243,12
430,71	1296,36
430,92	1241,07
431,13	1269,74
431,33	1226,73
431,54	1189,87
431,74	1253,36
431,95	1265,64
432,15	1267,69
432,36	1284,08
432,56	1214,45
432,77	1261,55
432,98	1236,97
433,18	1230,83
433,39	1349,61
433,59	1232,88
433,80	1202,16
434,00	1322,99
434,21	1257,45
434,41	1239,02
434,62	1267,69
434,82	1236,97
435,03	1267,69
435,23	1210,35
435,44	1253,36
435,64	1277,93
435,85	1298,41
436,06	1269,74
436,26	1343,47
436,47	1290,22
436,67	1279,98
436,88	1212,40
437,08	1183,73
437,29	1259,50
437,49	1177,58
437,70	1193,97
437,90	1251,31
438,11	1290,22
438,31	1249,26
438,52	1320,94
438,72	1255,40
438,93	1245,16
439,13	1329,13
439,34	1273,84
439,54	1261,55
439,75	1378,28
439,95	1314,80
440,16	1239,02
440,36	1304,56
440,57	1267,69
440,77	1290,22
440,98	1191,92
441,18	1265,64
441,39	1329,13
441,59	1232,88
441,80	1355,76
442,00	1388,52
442,21	1236,97
442,41	1343,47
442,62	1249,26
442,82	1222,64
443,02	1245,16
443,23	1308,65
443,43	1206,25
443,64	1318,89
443,84	1275,88
444,05	1298,41
444,25	1310,70
444,46	1271,79
444,66	1304,56
444,87	1288,17
445,07	1191,92
445,28	1226,73
445,48	1257,45
445,69	1222,64
445,89	1234,93
446,09	1249,26
446,30	1298,41
446,50	1290,22
446,71	1275,88
446,91	1298,41
447,12	1257,45
447,32	1259,50
447,53	1214,45
447,73	1239,02
447,93	1347,56
448,14	1318,89
448,34	1308,65
448,55	1200,11
448,75	1179,63
448,96	1302,51
449,16	1273,84
449,36	1222,64
449,57	1302,51
449,77	1329,13
449,98	1267,69
450,18	1226,73
450,39	1296,36
450,59	1347,56
450,79	1312,75
451,00	1286,12
451,20	1314,80
451,41	1304,56
451,61	1333,23
451,81	1271,79
452,02	1247,21
452,22	1329,13
452,43	1265,64
452,63	1249,26
452,84	1236,97
453,04	1353,71
453,24	1310,70
453,45	1282,03
453,65	1261,55
453,86	1357,80
454,06	1257,45
454,26	1316,84
454,47	1257,45
454,67	1314,80
454,87	1214,45
455,08	1302,51
455,28	1282,03
455,49	1259,50
455,69	1370,09
455,89	1249,26
456,10	1292,27
456,30	1292,27
456,51	1216,49
456,71	1277,93
456,91	1316,84
457,12	1259,50
457,32	1263,60
457,52	1329,13
457,73	1232,88
457,93	1261,55
458,14	1288,17
458,34	1331,18
458,54	1298,41
458,75	1304,56
458,95	1290,22
459,15	1222,64
459,36	1286,12
459,56	1320,94
459,76	1306,60
459,97	1239,02
460,17	1304,56
460,37	1245,16
460,58	1302,51
460,78	1232,88
460,99	1292,27
461,19	1284,08
461,39	1355,76
461,60	1290,22
461,80	1318,89
462,00	1222,64
462,21	1353,71
462,41	1253,36
462,61	1269,74
462,82	1366,00
463,02	1290,22
463,22	1320,94
463,43	1249,26
463,63	1316,84
463,83	1239,02
464,04	1347,56
464,24	1292,27
464,44	1198,06
464,64	1232,88
464,85	1222,64
465,05	1263,60
465,25	1253,36
465,46	1279,98
465,66	1318,89
465,86	1294,32
466,07	1241,07
466,27	1212,40
466,47	1175,53
466,68	1306,60
466,88	1300,46
467,08	1337,32
467,29	1236,97
467,49	1312,75
467,69	1347,56
467,89	1296,36
468,10	1292,27
468,30	1200,11
468,50	1298,41
468,71	1226,73
468,91	1308,65
469,11	1255,40
469,31	1241,07
469,52	1331,18
469,72	1245,16
469,92	1290,22
470,13	1271,79
470,33	1318,89
470,53	1232,88
470,73	1372,14
470,94	1255,40
471,14	1241,07
471,34	1191,92
471,54	1261,55
471,75	1279,98
471,95	1288,17
472,15	1275,88
472,36	1273,84
472,56	1290,22
472,76	1232,88
472,96	1269,74
473,17	1243,12
473,37	1267,69
473,57	1327,08
473,77	1310,70
473,98	1302,51
474,18	1273,84
474,38	1335,28
474,58	1318,89
474,79	1288,17
474,99	1327,08
475,19	1314,80
475,39	1239,02
475,60	1292,27
475,80	1320,94
476,00	1218,54
476,20	1341,42
476,41	1271,79
476,61	1337,32
476,81	1228,78
477,01	1290,22
477,21	1257,45
477,42	1247,21
477,62	1282,03
477,82	1279,98
478,02	1255,40
478,23	1273,84
478,43	1341,42
478,63	1318,89
478,83	1230,83
479,03	1314,80
479,24	1265,64
479,44	1236,97
479,64	1232,88
479,84	1333,23
480,04	1351,66
480,25	1296,36
480,45	1312,75
480,65	1327,08
480,85	1275,88
481,06	1241,07
481,26	1304,56
481,46	1294,32
481,66	1277,93
481,86	1265,64
482,06	1294,32
482,27	1312,75
482,47	1316,84
482,67	1230,83
482,87	1296,36
483,07	1322,99
483,28	1302,51
483,48	1288,17
483,68	1245,16
483,88	1271,79
484,08	1261,55
484,29	1300,46
484,49	1263,60
484,69	1282,03
484,89	1269,74
485,09	1239,02
485,29	1294,32
485,50	1261,55
485,70	1345,52
485,90	1341,42
486,10	1290,22
486,30	1351,66
486,50	1341,42
486,71	1269,74
486,91	1329,13
487,11	1331,18
487,31	1263,60
487,51	1224,69
487,71	1241,07
487,91	1255,40
488,12	1263,60
488,32	1204,21
488,52	1257,45
488,72	1241,07
488,92	1269,74
489,12	1191,92
489,32	1308,65
489,53	1236,97
489,73	1230,83
489,93	1355,76
490,13	1282,03
490,33	1261,55
490,53	1243,12
490,73	1245,16
490,94	1241,07
491,14	1316,84
491,34	1200,11
491,54	1253,36
491,74	1243,12
491,94	1255,40
492,14	1243,12
492,34	1265,64
492,54	1306,60
492,75	1284,08
492,95	1314,80
493,15	1302,51
493,35	1286,12
493,55	1257,45
493,75	1206,25
493,95	1277,93
494,15	1212,40
494,35	1226,73
494,56	1310,70
494,76	1234,93
494,96	1257,45
495,16	1273,84
495,36	1296,36
495,56	1265,64
495,76	1189,87
495,96	1282,03
496,16	1259,50
496,36	1243,12
496,56	1290,22
496,77	1282,03
496,97	1263,60
497,17	1308,65
497,37	1322,99
497,57	1279,98
497,77	1247,21
497,97	1296,36
498,17	1282,03
498,37	1275,88
498,57	1298,41
498,77	1224,69
498,97	1304,56
499,17	1196,01
499,38	1290,22
499,58	1290,22
499,78	1279,98
499,98	1249,26
500,18	1294,32
500,38	1236,97
500,58	1294,32
500,78	1224,69
500,98	1376,24
501,18	1263,60
501,38	1273,84
501,58	1249,26
501,78	1286,12
501,98	1257,45
502,18	1353,71
502,38	1286,12
502,58	1263,60
502,78	1175,53
502,98	1175,53
503,18	1169,39
503,38	1318,89
503,59	1255,40
503,79	1236,97
503,99	1261,55
504,19	1302,51
504,39	1261,55
504,59	1222,64
504,79	1318,89
504,99	1308,65
505,19	1241,07
505,39	1228,78
505,59	1245,16
505,79	1284,08
505,99	1282,03
506,19	1185,77
506,39	1331,18
506,59	1271,79
506,79	1296,36
506,99	1232,88
507,19	1298,41
507,39	1193,97
507,59	1325,04
507,79	1202,16
507,99	1257,45
508,19	1277,93
508,39	1290,22
508,59	1304,56
508,79	1249,26
508,99	1267,69
509,19	1308,65
509,39	1335,28
509,59	1261,55
509,79	1314,80
509,99	1265,64
510,19	1228,78
510,39	1189,87
510,59	1228,78
510,79	1279,98
510,99	1298,41
511,19	1267,69
511,39	1261,55
511,59	1265,64
511,79	1298,41
511,99	1200,11
512,19	1337,32
512,38	1296,36
512,58	1181,68
512,78	1277,93
512,98	1310,70
513,18	1282,03
513,38	1282,03
513,58	1308,65
513,78	1298,41
513,98	1404,91
514,18	1366,00
514,38	1282,03
514,58	1284,08
514,78	1294,32
514,98	1277,93
515,18	1288,17
515,38	1290,22
515,58	1380,33
515,78	1210,35
515,98	1267,69
516,18	1265,64
516,38	1257,45
516,57	1230,83
516,77	1308,65
516,97	1335,28
517,17	1286,12
517,37	1253,36
517,57	1300,46
517,77	1279,98
517,97	1267,69
518,17	1245,16
518,37	1277,93
518,57	1284,08
518,77	1243,12
518,97	1322,99
519,16	1249,26
519,36	1298,41
519,56	1304,56
519,76	1247,21
519,96	1216,49
520,16	1232,88
520,36	1253,36
520,56	1202,16
520,76	1263,60
520,96	1245,16
521,16	1331,18
521,35	1316,84
521,55	1296,36
521,75	1318,89
521,95	1314,80
522,15	1243,12
522,35	1304,56
522,55	1284,08
522,75	1304,56
522,95	1277,93
523,14	1222,64
523,34	1243,12
523,54	1267,69
523,74	1228,78
523,94	1294,32
524,14	1310,70
524,34	1294,32
524,54	1339,37
524,73	1302,51
524,93	1325,04
525,13	1298,41
525,33	1271,79
525,53	1247,21
525,73	1249,26
525,93	1271,79
526,13	1335,28
526,32	1335,28
526,52	1263,60
526,72	1388,52
526,92	1345,52
527,12	1318,89
527,32	1261,55
527,52	1296,36
527,71	1259,50
527,91	1226,73
528,11	1290,22
528,31	1288,17
528,51	1239,02
528,71	1318,89
528,90	1286,12
529,10	1329,13
529,30	1282,03
529,50	1232,88
529,70	1230,83
529,90	1249,26
530,09	1282,03
530,29	1226,73
530,49	1290,22
530,69	1300,46
530,89	1337,32
531,09	1322,99
531,28	1318,89
531,48	1279,98
531,68	1249,26
531,88	1300,46
532,08	1296,36
532,28	1259,50
532,47	1331,18
532,67	1255,40
532,87	1218,54
533,07	1271,79
533,27	1265,64
533,46	1306,60
533,66	1230,83
533,86	1218,54
534,06	1357,80
534,26	1277,93
534,45	1296,36
534,65	1290,22
534,85	1306,60
535,05	1230,83
535,25	1361,90
535,44	1290,22
535,64	1277,93
535,84	1316,84
536,04	1273,84
536,24	1269,74
536,43	1318,89
536,63	1312,75
536,83	1292,27
537,03	1279,98
537,22	1308,65
537,42	1273,84
537,62	1361,90
537,82	1232,88
538,02	1366,00
538,21	1259,50
538,41	1304,56
538,61	1361,90
538,81	1275,88
539,00	1279,98
539,20	1308,65
539,40	1208,30
539,60	1232,88
539,79	1259,50
539,99	1341,42
540,19	1253,36
540,39	1286,12
540,58	1316,84
540,78	1279,98
540,98	1255,40
541,18	1218,54
541,37	1273,84
541,57	1284,08
541,77	1308,65
541,97	1261,55
542,16	1351,66
542,36	1257,45
542,56	1257,45
542,76	1191,92
542,95	1255,40
543,15	1249,26
543,35	1226,73
543,54	1327,08
543,74	1206,25
543,94	1290,22
544,14	1290,22
544,33	1312,75
544,53	1234,93
544,73	1210,35
544,93	1288,17
545,12	1263,60
545,32	1310,70
545,52	1286,12
545,71	1296,36
545,91	1253,36
546,11	1325,04
546,30	1249,26
546,50	1232,88
546,70	1310,70
546,90	1294,32
547,09	1308,65
547,29	1241,07
547,49	1275,88
547,68	1267,69
547,88	1282,03
548,08	1273,84
548,27	1308,65
548,47	1230,83
548,67	1210,35
548,87	1341,42
549,06	1236,97
549,26	1310,70
549,46	1232,88
549,65	1288,17
549,85	1267,69
550,05	1302,51
550,24	1327,08
550,44	1277,93
550,64	1294,32
550,83	1249,26
551,03	1263,60
551,23	1269,74
551,42	1294,32
551,62	1269,74
551,82	1257,45
552,01	1255,40
552,21	1292,27
552,41	1277,93
552,60	1265,64
552,80	1239,02
553,00	1282,03
553,19	1298,41
553,39	1273,84
553,59	1257,45
553,78	1224,69
553,98	1243,12
554,17	1275,88
554,37	1269,74
554,57	1366,00
554,76	1269,74
554,96	1243,12
555,16	1267,69
555,35	1271,79
555,55	1304,56
555,75	1314,80
555,94	1298,41
556,14	1210,35
556,33	1275,88
556,53	1257,45
556,73	1327,08
556,92	1327,08
557,12	1308,65
557,32	1327,08
557,51	1279,98
557,71	1263,60
557,90	1275,88
558,10	1257,45
558,30	1153,01
558,49	1241,07
558,69	1308,65
558,88	1316,84
559,08	1290,22
559,28	1312,75
559,47	1177,58
559,67	1296,36
559,86	1279,98
560,06	1247,21
560,26	1300,46
560,45	1400,81
560,65	1271,79
560,84	1243,12
561,04	1224,69
561,24	1253,36
561,43	1322,99
561,63	1310,70
561,82	1353,71
562,02	1279,98
562,22	1290,22
562,41	1286,12
562,61	1187,82
562,80	1261,55
563,00	1241,07
563,19	1263,60
563,39	1298,41
563,59	1220,59
563,78	1298,41
563,98	1333,23
564,17	1290,22
564,37	1265,64
564,56	1304,56
564,76	1310,70
564,96	1296,36
565,15	1202,16
565,35	1220,59
565,54	1224,69
565,74	1265,64
565,93	1222,64
566,13	1247,21
566,32	1279,98
566,52	1298,41
566,71	1224,69
566,91	1288,17
567,11	1314,80
567,30	1263,60
567,50	1288,17
567,69	1312,75
567,89	1212,40
568,08	1288,17
568,28	1249,26
568,47	1255,40
568,67	1288,17
568,86	1355,76
569,06	1296,36
569,25	1265,64
569,45	1316,84
569,64	1239,02
569,84	1318,89
570,04	1224,69
570,23	1290,22
570,43	1322,99
570,62	1271,79
570,82	1298,41
571,01	1277,93
571,21	1230,83
571,40	1245,16
571,60	1296,36
571,79	1282,03
571,99	1230,83
572,18	1191,92
572,38	1286,12
572,57	1304,56
572,77	1228,78
572,96	1288,17
573,16	1259,50
573,35	1300,46
573,55	1306,60
573,74	1267,69
573,94	1259,50
574,13	1288,17
574,33	1271,79
574,52	1263,60
574,71	1253,36
574,91	1294,32
575,10	1198,06
575,30	1286,12
575,49	1347,56
575,69	1322,99
575,88	1253,36
576,08	1302,51
576,27	1263,60
576,47	1257,45
576,66	1327,08
576,86	1263,60
577,05	1286,12
577,25	1277,93
577,44	1277,93
577,64	1296,36
577,83	1218,54
578,02	1243,12
578,22	1265,64
578,41	1277,93
578,61	1255,40
578,80	1296,36
579,00	1284,08
579,19	1241,07
579,39	1259,50
579,58	1243,12
579,77	1232,88
579,97	1277,93
580,16	1261,55
580,36	1222,64
580,55	1329,13
580,75	1267,69
580,94	1312,75
581,13	1273,84
581,33	1290,22
581,52	1322,99
581,72	1261,55
581,91	1314,80
582,11	1210,35
582,30	1265,64
582,49	1320,94
582,69	1322,99
582,88	1306,60
583,08	1261,55
583,27	1249,26
583,47	1226,73
583,66	1329,13
583,85	1245,16
584,05	1316,84
584,24	1257,45
584,44	1322,99
584,63	1335,28
584,82	1288,17
585,02	1327,08
585,21	1245,16
585,41	1236,97
585,60	1304,56
585,79	1282,03
585,99	1298,41
586,18	1253,36
586,37	1290,22
586,57	1306,60
586,76	1318,89
586,96	1275,88
587,15	1259,50
587,34	1318,89
587,54	1218,54
587,73	1273,84
587,93	1265,64
588,12	1279,98
588,31	1288,17
588,51	1298,41
588,70	1255,40
588,89	1312,75
589,09	1290,22
589,28	1329,13
589,47	1298,41
589,67	1232,88
589,86	1236,97
590,06	1247,21
590,25	1343,47
590,44	1312,75
590,64	1327,08
590,83	1341,42
591,02	1249,26
591,22	1318,89
591,41	1245,16
591,60	1179,63
591,80	1288,17
591,99	1355,76
592,18	1298,41
592,38	1306,60
592,57	1353,71
592,76	1222,64
592,96	1193,97
593,15	1261,55
593,34	1277,93
593,54	1220,59
593,73	1355,76
593,92	1286,12
594,12	1277,93
594,31	1267,69
594,50	1298,41
594,70	1310,70
594,89	1298,41
595,08	1269,74
595,28	1318,89
595,47	1267,69
595,66	1288,17
595,86	1249,26
596,05	1327,08
596,24	1222,64
596,43	1247,21
596,63	1298,41
596,82	1288,17
597,01	1349,61
597,21	1257,45
597,40	1353,71
597,59	1234,93
597,79	1239,02
597,98	1322,99
598,17	1255,40
598,36	1275,88
598,56	1275,88
598,75	1249,26
598,94	1325,04
599,14	1304,56
599,33	1279,98
599,52	1300,46
599,71	1273,84
599,91	1339,37
600,10	1261,55
600,29	1304,56
600,48	1292,27
600,68	1320,94
600,87	1249,26
601,06	1310,70
601,26	1204,21
601,45	1224,69
601,64	1284,08
601,83	1245,16
602,03	1251,31
602,22	1251,31
602,41	1245,16
602,60	1249,26
602,80	1239,02
602,99	1316,84
603,18	1234,93
603,37	1267,69
603,57	1216,49
603,76	1288,17
603,95	1249,26
604,14	1259,50
604,34	1247,21
604,53	1277,93
604,72	1232,88
604,91	1298,41
605,10	1288,17
605,30	1263,60
605,49	1255,40
605,68	1243,12
605,87	1294,32
606,07	1288,17
606,26	1300,46
606,45	1290,22
606,64	1294,32
606,84	1247,21
607,03	1271,79
607,22	1269,74
607,41	1279,98
607,60	1247,21
607,80	1243,12
607,99	1247,21
608,18	1310,70
608,37	1279,98
608,56	1241,07
608,76	1382,38
608,95	1263,60
609,14	1271,79
609,33	1200,11
609,52	1310,70
609,72	1282,03
609,91	1310,70
610,10	1279,98
610,29	1282,03
610,48	1294,32
610,68	1312,75
610,87	1302,51
611,06	1279,98
611,25	1273,84
611,44	1273,84
611,63	1308,65
611,83	1343,47
612,02	1275,88
612,21	1331,18
612,40	1277,93
612,59	1232,88
612,79	1372,14
612,98	1286,12
613,17	1191,92
613,36	1310,70
613,55	1193,97
613,74	1255,40
613,93	1245,16
614,13	1290,22
614,32	1286,12
614,51	1239,02
614,70	1290,22
614,89	1288,17
615,08	1343,47
615,28	1337,32
615,47	1294,32
615,66	1263,60
615,85	1243,12
616,04	1353,71
616,23	1318,89
616,42	1275,88
616,62	1306,60
616,81	1290,22
617,00	1310,70
617,19	1329,13
617,38	1222,64
617,57	1247,21
617,76	1314,80
617,95	1284,08
618,15	1265,64
618,34	1257,45
618,53	1339,37
618,72	1296,36
618,91	1341,42
619,10	1316,84
619,29	1251,31
619,48	1251,31
619,68	1267,69
619,87	1247,21
620,06	1261,55
620,25	1288,17
620,44	1329,13
620,63	1269,74
620,82	1230,83
621,01	1296,36
621,20	1271,79
621,39	1286,12
621,59	1310,70
621,78	1267,69
621,97	1247,21
622,16	1288,17
622,35	1290,22
622,54	1275,88
622,73	1243,12
622,92	1282,03
623,11	1230,83
623,30	1257,45
623,49	1304,56
623,68	1275,88
623,88	1368,04
624,07	1282,03
624,26	1286,12
624,45	1286,12
624,64	1230,83
624,83	1296,36
625,02	1239,02
625,21	1257,45
625,40	1288,17
625,59	1314,80
625,78	1277,93
625,97	1294,32
626,16	1286,12
626,35	1255,40
626,54	1245,16
626,74	1339,37
626,93	1273,84
627,12	1320,94
627,31	1288,17
627,50	1277,93
627,69	1370,09
627,88	1265,64
628,07	1306,60
628,26	1275,88
628,45	1212,40
628,64	1312,75
628,83	1302,51
629,02	1296,36
629,21	1322,99
629,40	1296,36
629,59	1308,65
629,78	1253,36
629,97	1308,65
630,16	1304,56
630,35	1384,43
630,54	1312,75
630,73	1337,32
630,92	1337,32
631,11	1366,00
631,30	1380,33
631,49	1390,57
631,68	1714,15
631,87	2654,17
632,06	5771,18
632,25	8605,56
632,44	16211,72
632,63	25831,03
632,82	45028,69
633,01	45471,05
633,20	20319,95
633,39	7645,07
633,58	4218,82
633,77	3553,23
633,96	2992,08
634,15	2349,02
634,34	1904,61
634,53	1839,08
634,72	1769,44
634,91	1585,13
635,10	1544,17
635,29	1490,92
635,48	1501,16
635,67	1531,88
635,86	1398,76
636,05	1462,25
636,24	1497,07
636,43	1370,09
636,62	1310,70
636,81	1222,64
637,00	1269,74
637,19	1316,84
637,38	1314,80
637,57	1335,28
637,76	1327,08
637,95	1351,66
638,14	1351,66
638,33	1361,90
638,52	1290,22
638,71	1294,32
638,89	1314,80
639,08	1322,99
639,27	1320,94
639,46	1269,74
639,65	1275,88
639,84	1261,55
640,03	1339,37
640,22	1349,61
640,41	1282,03
640,60	1206,25
640,79	1288,17
640,98	1273,84
641,17	1273,84
641,36	1275,88
641,55	1347,56
641,74	1374,19
641,92	1241,07
642,11	1226,73
642,30	1200,11
642,49	1298,41
642,68	1286,12
642,87	1232,88
643,06	1333,23
643,25	1243,12
643,44	1304,56
643,63	1312,75
643,82	1335,28
644,00	1263,60
644,19	1230,83
644,38	1271,79
644,57	1300,46
644,76	1234,93
644,95	1341,42
645,14	1232,88
645,33	1333,23
645,52	1265,64
645,71	1286,12
645,89	1290,22
646,08	1273,84
646,27	1273,84
646,46	1282,03
646,65	1292,27
646,84	1220,59
647,03	1218,54
647,22	1341,42
647,40	1290,22
647,59	1265,64
647,78	1277,93
647,97	1306,60
648,16	1263,60
648,35	1277,93
648,54	1320,94
648,73	1277,93
648,91	1271,79
649,10	1275,88
649,29	1312,75
649,48	1263,60
649,67	1290,22
649,86	1241,07
650,05	1277,93
650,23	1292,27
650,42	1341,42
650,61	1294,32
650,80	1267,69
650,99	1298,41
651,18	1251,31
651,36	1230,83
651,55	1230,83
651,74	1292,27
651,93	1224,69
652,12	1277,93
652,31	1251,31
652,49	1318,89
652,68	1232,88
652,87	1282,03
653,06	1247,21
653,25	1247,21
653,44	1261,55
653,62	1296,36
653,81	1249,26
654,00	1308,65
654,19	1320,94
654,38	1302,51
654,56	1286,12
654,75	1304,56
654,94	1257,45
655,13	1214,45
655,32	1263,60
655,51	1247,21
655,69	1296,36
655,88	1263,60
656,07	1294,32
656,26	1331,18
656,45	1228,78
656,63	1298,41
656,82	1251,31
657,01	1298,41
657,20	1331,18
657,38	1290,22
657,57	1331,18
657,76	1224,69
657,95	1298,41
658,14	1275,88
658,32	1226,73
658,51	1341,42
658,70	1271,79
658,89	1273,84
659,08	1286,12
659,26	1241,07
659,45	1325,04
659,64	1316,84
659,83	1216,49
660,01	1282,03
660,20	1290,22
660,39	1304,56
660,58	1251,31
660,76	1304,56
660,95	1193,97
661,14	1347,56
661,33	1267,69
661,51	1304,56
661,70	1331,18
661,89	1247,21
662,08	1241,07
662,26	1304,56
662,45	1271,79
662,64	1265,64
662,83	1300,46
663,01	1279,98
663,20	1327,08
663,39	1308,65
663,58	1218,54
663,76	1329,13
663,95	1222,64
664,14	1257,45
664,32	1249,26
664,51	1300,46
664,70	1267,69
664,89	1249,26
665,07	1179,63
665,26	1290,22
665,45	1279,98
665,64	1191,92
665,82	1224,69
666,01	1243,12
666,20	1284,08
666,38	1191,92
666,57	1210,35
666,76	1269,74
666,95	1247,21
667,13	1249,26
667,32	1257,45
667,51	1282,03
667,69	1288,17
667,88	1304,56
668,07	1206,25
668,25	1282,03
668,44	1290,22
668,63	1273,84
668,81	1239,02
669,00	1282,03
669,19	1284,08
669,38	1304,56
669,56	1286,12
669,75	1224,69
669,94	1255,40
670,12	1263,60
670,31	1288,17
670,50	1257,45
670,68	1275,88
670,87	1249,26
671,06	1267,69
671,24	1320,94
671,43	1259,50
671,62	1273,84
671,80	1296,36
671,99	1263,60
672,18	1245,16
672,36	1259,50
672,55	1310,70
672,74	1230,83
672,92	1335,28
673,11	1351,66
673,29	1345,52
673,48	1296,36
673,67	1204,21
673,85	1265,64
674,04	1251,31
674,23	1234,93
674,41	1327,08
674,60	1249,26
674,79	1286,12
674,97	1290,22
675,16	1257,45
675,34	1282,03
675,53	1191,92
675,72	1228,78
675,90	1275,88
676,09	1224,69
676,28	1245,16
676,46	1282,03
676,65	1300,46
676,83	1314,80
677,02	1316,84
677,21	1290,22
677,39	1251,31
677,58	1255,40
677,77	1306,60
677,95	1271,79
678,14	1312,75
678,32	1220,59
678,51	1316,84
678,70	1290,22
678,88	1286,12
679,07	1257,45
679,25	1249,26
679,44	1234,93
679,63	1275,88
679,81	1183,73
680,00	1298,41
680,18	1359,85
680,37	1273,84
680,55	1320,94
680,74	1282,03
680,93	1249,26
681,11	1245,16
681,30	1257,45
681,48	1273,84
681,67	1255,40
681,85	1296,36
682,04	1316,84
682,23	1232,88
682,41	1228,78
682,60	1239,02
682,78	1347,56
682,97	1243,12
683,15	1306,60
683,34	1284,08
683,53	1243,12
683,71	1306,60
683,90	1273,84
684,08	1249,26
684,27	1277,93
684,45	1261,55
684,64	1259,50
684,82	1198,06
685,01	1247,21
685,19	1312,75
685,38	1288,17
685,57	1255,40
685,75	1288,17
685,94	1288,17
686,12	1267,69
686,31	1183,73
686,49	1286,12
686,68	1282,03
686,86	1206,25
687,05	1279,98
687,23	1263,60
687,42	1257,45
687,60	1298,41
687,79	1271,79
687,97	1241,07
688,16	1284,08
688,34	1263,60
688,53	1300,46
688,71	1273,84
688,90	1271,79
689,08	1308,65
689,27	1216,49
689,45	1290,22
689,64	1284,08
689,82	1245,16
690,01	1222,64
690,19	1271,79
690,38	1275,88
690,56	1247,21
690,75	1366,00
690,93	1314,80
691,12	1204,21
691,30	1241,07
691,49	1228,78
691,67	1302,51
691,86	1271,79
692,04	1216,49
692,23	1302,51
692,41	1200,11
692,60	1345,52
692,78	1239,02
692,97	1279,98
693,15	1314,80
693,34	1212,40
693,52	1300,46
693,71	1210,35
693,89	1322,99
694,08	1302,51
694,26	1314,80
694,44	1296,36
694,63	1286,12
694,81	1245,16
695,00	1275,88
695,18	1236,97
695,37	1239,02
695,55	1302,51
695,74	1282,03
695,92	1224,69
696,10	1282,03
696,29	1263,60
696,47	1165,29
696,66	1228,78
696,84	1312,75
697,03	1310,70
697,21	1290,22
697,40	1226,73
697,58	1306,60
697,76	1277,93
697,95	1298,41
698,13	1337,32
698,32	1251,31
698,50	1265,64
698,68	1255,40
698,87	1222,64
699,05	1292,27
699,24	1224,69
699,42	1288,17
699,61	1314,80
699,79	1269,74
699,97	1320,94
700,16	1216,49
700,34	1300,46
700,53	1247,21
700,71	1267,69
700,89	1357,80
701,08	1286,12
701,26	1300,46
701,45	1300,46
701,63	1273,84
701,81	1257,45
702,00	1232,88
702,18	1290,22
702,37	1312,75
702,55	1249,26
702,73	1267,69
702,92	1255,40
703,10	1236,97
703,28	1277,93
703,47	1263,60
703,65	1290,22
703,84	1282,03
704,02	1296,36
704,20	1224,69
704,39	1234,93
704,57	1228,78
704,75	1271,79
704,94	1271,79
705,12	1265,64
705,30	1230,83
705,49	1189,87
705,67	1282,03
705,86	1269,74
706,04	1251,31
706,22	1310,70
706,41	1300,46
706,59	1241,07
706,77	1267,69
706,96	1257,45
707,14	1341,42
707,32	1239,02
707,51	1271,79
707,69	1267,69
707,87	1282,03
708,06	1306,60
708,24	1314,80
708,42	1267,69
708,61	1277,93
708,79	1234,93
708,97	1234,93
709,16	1196,01
709,34	1279,98
709,52	1290,22
709,71	1249,26
709,89	1243,12
710,07	1302,51
710,26	1267,69
710,44	1310,70
710,62	1335,28
710,80	1241,07
710,99	1255,40
711,17	1263,60
711,35	1314,80
711,54	1312,75
711,72	1275,88
711,90	1290,22
712,09	1257,45
712,27	1335,28
712,45	1220,59
712,63	1286,12
712,82	1181,68
713,00	1286,12
713,18	1300,46
713,37	1200,11
713,55	1259,50
713,73	1337,32
713,91	1241,07
714,10	1279,98
714,28	1320,94
714,46	1253,36
714,65	1304,56
714,83	1304,56
715,01	1243,12
715,19	1263,60
715,38	1292,27
715,56	1290,22
715,74	1273,84
715,92	1277,93
716,11	1212,40
716,29	1220,59
716,47	1304,56
716,65	1247,21
716,84	1302,51
717,02	1308,65
717,20	1298,41
717,38	1288,17
717,57	1355,76
717,75	1255,40
717,93	1302,51
718,11	1171,44
718,30	1249,26
718,48	1298,41
718,66	1308,65
718,84	1349,61
719,03	1257,45
719,21	1257,45
719,39	1247,21
719,57	1273,84
719,75	1351,66
719,94	1269,74
720,12	1257,45
720,30	1284,08
720,48	1257,45
720,67	1243,12
720,85	1290,22
721,03	1232,88
721,21	1286,12
721,39	1279,98
721,58	1300,46
721,76	1318,89
721,94	1267,69
722,12	1296,36
722,30	1232,88
722,49	1269,74
722,67	1253,36
722,85	1249,26
723,03	1236,97
723,21	1296,36
723,40	1212,40
723,58	1296,36
723,76	1239,02
723,94	1312,75
724,12	1245,16
724,30	1249,26
724,49	1257,45
724,67	1230,83
724,85	1255,40
725,03	1261,55
725,21	1230,83
725,40	1282,03
725,58	1218,54
725,76	1318,89
725,94	1243,12
726,12	1282,03
726,30	1224,69
726,49	1216,49
726,67	1261,55
726,85	1327,08
727,03	1273,84
727,21	1247,21
727,39	1302,51
727,57	1335,28
727,76	1286,12
727,94	1257,45
728,12	1212,40
728,30	1269,74
728,48	1251,31
728,66	1282,03
728,84	1273,84
729,03	1226,73
729,21	1247,21
729,39	1275,88
729,57	1269,74
729,75	1335,28
729,93	1269,74
730,11	1298,41
730,30	1216,49
730,48	1300,46
730,66	1294,32
730,84	1290,22
731,02	1204,21
731,20	1234,93
731,38	1269,74
731,56	1239,02
731,74	1347,56
731,93	1243,12
732,11	1253,36
732,29	1282,03
732,47	1337,32
732,65	1259,50
732,83	1220,59
733,01	1357,80
733,19	1255,40
733,37	1212,40
733,56	1253,36
733,74	1294,32
733,92	1155,05
734,10	1216,49
734,28	1259,50
734,46	1302,51
734,64	1275,88
734,82	1261,55
735,00	1200,11
735,18	1292,27
735,36	1288,17
735,54	1265,64
735,73	1300,46
735,91	1333,23
736,09	1269,74
736,27	1222,64
736,45	1273,84
736,63	1253,36
736,81	1308,65
736,99	1271,79
737,17	1265,64
737,35	1275,88
737,53	1220,59
737,71	1249,26
737,89	1241,07
738,07	1236,97
738,25	1282,03
738,43	1220,59
738,61	1220,59
738,80	1255,40
738,98	1277,93
739,16	1226,73
739,34	1259,50
739,52	1249,26
739,70	1187,82
739,88	1241,07
740,06	1253,36
740,24	1288,17
740,42	1271,79
740,60	1243,12
740,78	1304,56
740,96	1267,69
741,14	1253,36
741,32	1253,36
741,50	1239,02
741,68	1384,43
741,86	1284,08
742,04	1314,80
742,22	1224,69
742,40	1318,89
742,58	1224,69
742,76	1306,60
742,94	1265,64
743,12	1247,21
743,30	1257,45
743,48	1310,70
743,66	1193,97
743,84	1218,54
744,02	1259,50
744,20	1269,74
744,38	1288,17
744,56	1273,84
744,74	1265,64
744,92	1277,93
745,10	1284,08
745,28	1232,88
745,46	1257,45
745,64	1265,64
745,82	1255,40
746,00	1310,70
746,18	1273,84
746,36	1296,36
746,54	1294,32
746,72	1304,56
746,90	1296,36
747,08	1294,32
747,26	1214,45
747,44	1249,26
747,62	1267,69
747,80	1282,03
747,98	1245,16
748,15	1298,41
748,33	1275,88
748,51	1275,88
748,69	1261,55
748,87	1273,84
749,05	1318,89
749,23	1261,55
749,41	1325,04
749,59	1214,45
749,77	1308,65
749,95	1290,22
750,13	1257,45
750,31	1261,55
750,49	1228,78
750,67	1222,64
750,85	1271,79
751,03	1304,56
751,20	1282,03
751,38	1314,80
751,56	1316,84
751,74	1251,31
751,92	1243,12
752,10	1273,84
752,28	1167,34
752,46	1187,82
752,64	1253,36
752,82	1218,54
753,00	1294,32
753,18	1247,21
753,35	1320,94
753,53	1300,46
753,71	1300,46
753,89	1249,26
754,07	1224,69
754,25	1255,40
754,43	1267,69
754,61	1294,32
754,79	1220,59
754,97	1273,84
755,14	1146,86
755,32	1259,50
755,50	1267,69
755,68	1255,40
755,86	1279,98
756,04	1251,31
756,22	1253,36
756,40	1224,69
756,57	1255,40
756,75	1265,64
756,93	1253,36
757,11	1304,56
757,29	1232,88
757,47	1279,98
757,65	1189,87
757,82	1210,35
758,00	1296,36
758,18	1298,41
758,36	1286,12
758,54	1253,36
758,72	1300,46
758,90	1294,32
759,07	1263,60
759,25	1249,26
759,43	1288,17
759,61	1259,50
759,79	1261,55
759,97	1257,45
760,15	1294,32
760,32	1202,16
760,50	1245,16
760,68	1296,36
760,86	1263,60
761,04	1273,84
761,22	1273,84
761,39	1263,60
761,57	1239,02
761,75	1300,46
761,93	1206,25
762,11	1296,36
762,28	1269,74
762,46	1187,82
762,64	1290,22
762,82	1296,36
763,00	1247,21
763,18	1277,93
763,35	1277,93
763,53	1265,64
763,71	1341,42
763,89	1243,12
764,07	1290,22
764,24	1243,12
764,42	1204,21
764,60	1282,03
764,78	1257,45
764,96	1277,93
765,13	1249,26
765,31	1302,51
765,49	1251,31
765,67	1320,94
765,84	1263,60
766,02	1208,30
766,20	1271,79
766,38	1361,90
766,56	1288,17
766,73	1286,12
766,91	1251,31
767,09	1329,13
767,27	1292,27
767,44	1331,18
767,62	1210,35
767,80	1327,08
767,98	1245,16
768,15	1222,64
768,33	1224,69
768,51	1282,03
768,69	1241,07
768,87	1265,64
769,04	1269,74
769,22	1314,80
769,40	1269,74
769,58	1200,11
769,75	1304,56
769,93	1247,21
770,11	1304,56
770,28	1302,51
770,46	1204,21
770,64	1243,12
770,82	1318,89
770,99	1255,40
771,17	1241,07
771,35	1243,12
771,53	1191,92
771,70	1331,18
771,88	1304,56
772,06	1320,94
772,23	1331,18
772,41	1259,50
772,59	1267,69
772,77	1259,50
772,94	1282,03
773,12	1282,03
773,30	1224,69
773,47	1265,64
773,65	1269,74
773,83	1183,73
774,01	1243,12
774,18	1236,97
774,36	1288,17
774,54	1208,30
774,71	1265,64
774,89	1214,45
775,07	1300,46
775,24	1273,84
775,42	1144,81
775,60	1292,27
775,78	1308,65
775,95	1335,28
776,13	1210,35
776,31	1279,98
776,48	1249,26
776,66	1171,44
776,84	1257,45
777,01	1294,32
777,19	1239,02
777,37	1179,63
777,54	1253,36
777,72	1226,73
777,90	1251,31
778,07	1286,12
778,25	1271,79
778,43	1263,60
778,60	1284,08
778,78	1347,56
778,96	1271,79
779,13	1290,22
779,31	1282,03
779,49	1341,42
779,66	1273,84
779,84	1249,26
780,01	1271,79
780,19	1249,26
780,37	1234,93
780,54	1286,12
780,72	1224,69
780,90	1259,50
781,07	1218,54
781,25	1247,21
781,43	1236,97
781,60	1273,84
781,78	1239,02
781,95	1294,32
782,13	1193,97
782,31	1314,80
782,48	1279,98
782,66	1257,45
782,83	1204,21
783,01	1230,83
783,19	1245,16
783,36	1296,36
783,54	1259,50
783,72	1300,46
783,89	1241,07
784,07	1181,68
784,24	1257,45
784,42	1253,36
784,60	1253,36
784,77	1224,69
784,95	1363,95
785,12	1257,45
785,30	1208,30
785,47	1322,99
785,65	1312,75
785,83	1230,83
786,00	1355,76
786,18	1275,88
786,35	1271,79
786,53	1226,73
786,71	1316,84
786,88	1239,02
787,06	1204,21
787,23	1247,21
787,41	1273,84
787,58	1257,45
787,76	1325,04
787,94	1224,69
788,11	1308,65
788,29	1306,60
788,46	1257,45
788,64	1193,97
788,81	1245,16
788,99	1286,12
789,16	1259,50
789,34	1298,41
789,52	1261,55
789,69	1265,64
789,87	1288,17
790,04	1275,88
790,22	1331,18
790,39	1241,07
790,57	1279,98
790,74	1257,45
790,92	1251,31
791,09	1267,69
791,27	1245,16
791,44	1310,70
791,62	1290,22
791,79	1318,89
791,97	1241,07
792,15	1312,75
792,32	1224,69
792,50	1265,64
792,67	1263,60
792,85	1234,93
793,02	1302,51
793,20	1282,03
793,37	1191,92
793,55	1216,49
793,72	1253,36
793,90	1282,03
794,07	1304,56
794,25	1267,69
794,42	1312,75
794,60	1222,64
794,77	1290,22
794,95	1249,26
795,12	1204,21
795,30	1136,62
795,47	1314,80
795,65	1329,13
795,82	1257,45
796,00	1277,93
796,17	1273,84
796,34	1245,16
796,52	1259,50
796,69	1333,23
796,87	1271,79
797,04	1253,36
797,22	1294,32
797,39	1267,69
797,57	1275,88
797,74	1277,93
797,92	1288,17
798,09	1296,36
798,27	1331,18
798,44	1306,60
798,62	1243,12
798,79	1306,60
798,96	1267,69
799,14	1318,89
799,31	1277,93
799,49	1208,30
799,66	1316,84
799,84	1329,13
800,01	1208,30
800,19	1290,22
800,36	1175,53
800,53	1179,63
800,71	1210,35
800,88	1282,03
801,06	1296,36
801,23	1224,69
801,41	1314,80
801,58	1267,69
801,75	1286,12
801,93	1230,83
802,10	1261,55
802,28	1279,98
802,45	1265,64
802,63	1251,31
802,80	1282,03
802,97	1210,35
803,15	1251,31
803,32	1253,36
803,50	1226,73
803,67	1251,31
803,84	1263,60
804,02	1288,17
804,19	1150,96
804,37	1247,21
804,54	1292,27
804,71	1259,50
804,89	1282,03
805,06	1204,21
805,24	1279,98
805,41	1345,52
805,58	1355,76
805,76	1345,52
805,93	1234,93
806,10	1320,94
806,28	1298,41
806,45	1245,16
806,63	1204,21
806,80	1249,26
806,97	1259,50
807,15	1265,64
807,32	1275,88
807,49	1292,27
807,67	1187,82
807,84	1282,03
808,01	1220,59
808,19	1271,79
808,36	1292,27
808,54	1275,88
808,71	1187,82
808,88	1279,98
809,06	1269,74
809,23	1232,88
809,40	1288,17
809,58	1224,69
809,75	1290,22
809,92	1333,23
810,10	1214,45
810,27	1146,86
810,44	1290,22
810,62	1261,55
810,79	1308,65
810,96	1243,12
811,14	1224,69
811,31	1253,36
811,48	1267,69
811,66	1288,17
811,83	1322,99
812,00	1329,13
812,18	1290,22
812,35	1249,26
812,52	1187,82
812,69	1335,28
812,87	1304,56
813,04	1265,64
813,21	1277,93
813,39	1208,30
813,56	1257,45
813,73	1222,64
813,91	1214,45
814,08	1314,80
814,25	1243,12
814,42	1284,08
814,60	1267,69
814,77	1239,02
814,94	1196,01
815,12	1277,93
815,29	1243,12
815,46	1243,12
815,63	1320,94
815,81	1296,36
815,98	1322,99
816,15	1234,93
816,33	1200,11
816,50	1271,79
816,67	1208,30
816,84	1282,03
817,02	1212,40
817,19	1259,50
817,36	1261,55
817,53	1292,27
817,71	1275,88
817,88	1273,84
818,05	1296,36
818,22	1234,93
818,40	1300,46
818,57	1230,83
818,74	1253,36
818,91	1230,83
819,09	1300,46
819,26	1269,74
819,43	1284,08
819,60	1234,93
819,78	1357,80
819,95	1271,79
820,12	1177,58
820,29	1263,60
820,47	1232,88
820,64	1271,79
820,81	1251,31
820,98	1296,36
821,15	1333,23
821,33	1222,64
821,50	1255,40
821,67	1263,60
821,84	1331,18
822,02	1304,56
822,19	1294,32
822,36	1243,12
822,53	1286,12
822,70	1271,79
822,88	1275,88
823,05	1339,37
823,22	1236,97
823,39	1349,61
823,56	1290,22
823,74	1253,36
823,91	1275,88
824,08	1196,01
824,25	1306,60
824,42	1271,79
824,60	1247,21
824,77	1306,60
824,94	1277,93
825,11	1298,41
825,28	1267,69
825,45	1208,30
825,63	1216,49
825,80	1241,07
825,97	1259,50
826,14	1214,45
826,31	1265,64
826,48	1257,45
826,66	1255,40
826,83	1232,88
827,00	1236,97
827,17	1275,88
827,34	1255,40
827,51	1218,54
827,69	1261,55
827,86	1269,74
828,03	1251,31
828,20	1247,21
828,37	1265,64
828,54	1279,98
828,71	1275,88
828,89	1292,27
829,06	1222,64
829,23	1310,70
829,40	1277,93
829,57	1249,26
829,74	1257,45
829,91	1222,64
830,09	1269,74
830,26	1318,89
830,43	1265,64
830,60	1353,71
830,77	1222,64
830,94	1279,98
831,11	1265,64
831,28	1325,04
831,46	1277,93
831,63	1277,93
831,80	1271,79
831,97	1290,22
832,14	1247,21
832,31	1288,17
832,48	1304,56
832,65	1263,60
832,82	1234,93
832,99	1275,88
833,17	1179,63
833,34	1345,52
833,51	1249,26
833,68	1239,02
833,85	1325,04
834,02	1216,49
834,19	1232,88
834,36	1257,45
834,53	1239,02
834,70	1226,73
834,87	1249,26
835,04	1253,36
835,22	1277,93
835,39	1255,40
835,56	1220,59
835,73	1312,75
835,90	1335,28
836,07	1269,74
836,24	1218,54
836,41	1241,07
836,58	1292,27
836,75	1290,22
836,92	1253,36
837,09	1218,54
837,26	1208,30
837,43	1226,73
837,60	1232,88
837,77	1265,64
837,94	1325,04
838,12	1286,12
838,29	1267,69
838,46	1284,08
838,63	1255,40
838,80	1243,12
838,97	1329,13
839,14	1175,53
839,31	1296,36
839,48	1372,14
839,65	1241,07
839,82	1279,98
839,99	1251,31
840,16	1282,03
840,33	1284,08
840,50	1279,98
840,67	1318,89
840,84	1265,64
841,01	1306,60
841,18	1277,93
841,35	1206,25
841,52	1277,93
841,69	1271,79
841,86	1288,17
842,03	1249,26
842,20	1314,80
842,37	1312,75
842,54	1212,40
842,71	1277,93
842,88	1261,55
843,05	1275,88
843,22	1214,45
843,39	1241,07
843,56	1243,12
843,73	1302,51
843,90	1282,03
844,07	1249,26
844,24	1269,74
844,41	1273,84
844,58	1288,17
844,75	1220,59
844,92	1193,97
845,09	1230,83
845,26	1224,69
845,43	1292,27
845,60	1230,83
845,77	1234,93
845,94	1288,17
846,10	1224,69
846,27	1255,40
846,44	1208,30
846,61	1265,64
846,78	1253,36
846,95	1245,16
847,12	1288,17
847,29	1277,93
847,46	1243,12
847,63	1263,60
847,80	1232,88
847,97	1271,79
848,14	1257,45
848,31	1316,84
848,48	1290,22
848,65	1284,08
848,82	1245,16
848,98	1257,45
849,15	1236,97
849,32	1275,88
849,49	1202,16
849,66	1325,04
849,83	1241,07
850,00	1271,79
850,17	1267,69
850,34	1245,16
850,51	1212,40
850,68	1228,78
850,85	1208,30
851,01	1257,45
851,18	1294,32
851,35	1243,12
851,52	1208,30
851,69	1265,64
851,86	1249,26
852,03	1322,99
852,20	1226,73
852,37	1249,26
852,53	1290,22
852,70	1255,40
852,87	1220,59
853,04	1265,64
853,21	1253,36
853,38	1267,69
853,55	1322,99
853,72	1271,79
853,89	1191,92
854,05	1245,16
854,22	1171,44
854,39	1322,99
854,56	1265,64
854,73	1214,45
854,90	1183,73
855,07	1320,94
855,23	1275,88
855,40	1296,36
855,57	1208,30
855,74	1200,11
855,91	1312,75
856,08	1263,60
856,25	1320,94
856,41	1224,69
856,58	1318,89
856,75	1282,03
856,92	1265,64
857,09	1282,03
857,26	1241,07
857,42	1300,46
857,59	1292,27
857,76	1290,22
857,93	1249,26
858,10	1191,92
858,27	1234,93
858,43	1308,65
858,60	1277,93
858,77	1138,67
858,94	1224,69
859,11	1275,88
859,27	1288,17
859,44	1173,49
859,61	1202,16
859,78	1232,88
859,95	1243,12
860,12	1234,93
860,28	1368,04
860,45	1318,89
860,62	1275,88
860,79	1275,88
860,95	1263,60
861,12	1253,36
861,29	1335,28
861,46	1249,26
861,63	1257,45
861,79	1187,82
861,96	1198,06
862,13	1353,71
862,30	1290,22
862,47	1279,98
862,63	1273,84
862,80	1263,60
862,97	1259,50
863,14	1249,26
863,30	1247,21
863,47	1226,73
863,64	1218,54
863,81	1363,95
863,97	1251,31
864,14	1243,12
864,31	1267,69
864,48	1265,64
864,65	1316,84
864,81	1214,45
864,98	1185,77
865,15	1255,40
865,32	1245,16
865,48	1196,01
865,65	1322,99
865,82	1228,78
865,98	1259,50
866,15	1177,58
866,32	1320,94
866,49	1279,98
866,65	1284,08
866,82	1273,84
866,99	1189,87
867,16	1265,64
867,32	1325,04
867,49	1271,79
867,66	1234,93
867,83	1288,17
867,99	1288,17
868,16	1236,97
868,33	1173,49
868,49	1232,88
868,66	1288,17
868,83	1325,04
868,99	1279,98
869,16	1298,41
869,33	1236,97
869,50	1279,98
869,66	1288,17
869,83	1257,45
870,00	1279,98
870,16	1312,75
870,33	1298,41
870,50	1265,64
870,66	1173,49
870,83	1247,21
871,00	1232,88
871,17	1230,83
871,33	1306,60
871,50	1333,23
871,67	1232,88
871,83	1306,60
872,00	1232,88
872,17	1243,12
872,33	1196,01
872,50	1220,59
872,67	1343,47
872,83	1222,64
873,00	1241,07
873,17	1282,03
873,33	1232,88
873,50	1267,69
873,67	1279,98
873,83	1282,03
874,00	1288,17
874,16	1243,12
874,33	1259,50
874,50	1263,60
874,66	1267,69
874,83	1349,61
875,00	1339,37
875,16	1255,40
875,33	1228,78
875,50	1234,93
875,66	1282,03
875,83	1216,49
875,99	1243,12
876,16	1253,36
876,33	1222,64
876,49	1282,03
876,66	1236,97
876,83	1306,60
876,99	1257,45
877,16	1267,69
877,32	1314,80
877,49	1331,18
877,66	1310,70
877,82	1300,46
877,99	1206,25
878,15	1331,18
878,32	1279,98
878,49	1239,02
878,65	1259,50
878,82	1265,64
878,98	1302,51
879,15	1265,64
879,32	1224,69
879,48	1279,98
879,65	1228,78
879,81	1292,27
879,98	1271,79
880,15	1241,07
880,31	1325,04
880,48	1290,22
880,64	1279,98
880,81	1259,50
880,97	1304,56
881,14	1277,93
881,31	1263,60
881,47	1312,75
881,64	1290,22
881,80	1271,79
881,97	1282,03
882,13	1322,99
882,30	1247,21
882,47	1320,94
882,63	1267,69
882,80	1290,22
882,96	1325,04
883,13	1263,60
883,29	1239,02
883,46	1347,56
883,62	1333,23
883,79	1288,17
883,95	1251,31
884,12	1288,17
884,29	1284,08
884,45	1257,45
884,62	1290,22
884,78	1279,98
884,95	1267,69
885,11	1277,93
885,28	1245,16
885,44	1351,66
885,61	1228,78
885,77	1243,12
885,94	1300,46
886,10	1300,46
886,27	1224,69
886,43	1312,75
886,60	1234,93
886,76	1202,16
886,93	1322,99
887,09	1273,84
887,26	1290,22
887,42	1296,36
887,59	1212,40
887,75	1251,31
887,92	1234,93
888,08	1275,88
888,25	1255,40
888,41	1220,59
888,58	1265,64
888,74	1300,46
888,91	1243,12
>>>>>End Processed Spectral Data<<<<<
