SpectraSuite Data File
++++++++++++++++++++++++++++++++++++
Date: Sun Apr 03 19:55:49 CEST 2016
User: root
Dark Spectrum Present: No
Reference Spectrum Present: No
Number of Sampled Component Spectra: 1
Spectrometers: USB4C02835
Integration Time (usec): 10000 (USB4C02835)
Spectra Averaged: 1 (USB4C02835)
Boxcar Smoothing: 0 (USB4C02835)
Correct for Electrical Dark: No (USB4C02835)
Strobe/Lamp Enabled: No (USB4C02835)
Correct for Detector Non-linearity: No (USB4C02835)
Correct for Stray Light: No (USB4C02835)
Number of Pixels in Processed Spectrum: 3648
>>>>>Begin Processed Spectral Data<<<<<
177,47	1222,64
177,69	1222,64
177,91	1222,64
178,13	1232,88
178,36	1249,26
178,58	1271,79
178,80	1286,12
179,02	1284,08
179,24	1302,51
179,46	1322,99
179,68	1331,18
179,90	1222,64
180,13	1298,41
180,35	1275,88
180,57	1298,41
180,79	1282,03
181,01	1273,84
181,23	1290,22
181,45	1179,63
181,67	1343,47
181,90	1259,50
182,12	1210,35
182,34	1261,55
182,56	1243,12
182,78	1298,41
183,00	1236,97
183,22	1322,99
183,44	1302,51
183,66	1261,55
183,89	1187,82
184,11	1277,93
184,33	1294,32
184,55	1300,46
184,77	1304,56
184,99	1300,46
185,21	1279,98
185,43	1218,54
185,65	1230,83
185,87	1200,11
186,10	1322,99
186,32	1306,60
186,54	1273,84
186,76	1290,22
186,98	1265,64
187,20	1296,36
187,42	1253,36
187,64	1284,08
187,86	1261,55
188,08	1271,79
188,30	1302,51
188,52	1322,99
188,75	1234,93
188,97	1271,79
189,19	1230,83
189,41	1290,22
189,63	1302,51
189,85	1284,08
190,07	1302,51
190,29	1312,75
190,51	1204,21
190,73	1263,60
190,95	1228,78
191,17	1269,74
191,39	1234,93
191,61	1296,36
191,84	1294,32
192,06	1296,36
192,28	1257,45
192,50	1288,17
192,72	1239,02
192,94	1277,93
193,16	1249,26
193,38	1284,08
193,60	1257,45
193,82	1314,80
194,04	1230,83
194,26	1187,82
194,48	1359,85
194,70	1218,54
194,92	1257,45
195,14	1263,60
195,36	1245,16
195,58	1277,93
195,80	1234,93
196,02	1284,08
196,24	1243,12
196,46	1206,25
196,69	1222,64
196,91	1306,60
197,13	1257,45
197,35	1212,40
197,57	1353,71
197,79	1318,89
198,01	1288,17
198,23	1273,84
198,45	1239,02
198,67	1208,30
198,89	1349,61
199,11	1273,84
199,33	1273,84
199,55	1275,88
199,77	1249,26
199,99	1255,40
200,21	1271,79
200,43	1251,31
200,65	1265,64
200,87	1288,17
201,09	1286,12
201,31	1257,45
201,53	1282,03
201,75	1243,12
201,97	1275,88
202,19	1290,22
202,41	1304,56
202,63	1306,60
202,85	1222,64
203,07	1306,60
203,29	1249,26
203,51	1302,51
203,73	1224,69
203,95	1265,64
204,17	1294,32
204,39	1245,16
204,61	1218,54
204,83	1325,04
205,05	1351,66
205,27	1294,32
205,49	1257,45
205,71	1253,36
205,93	1261,55
206,15	1251,31
206,37	1282,03
206,59	1267,69
206,81	1265,64
207,03	1339,37
207,25	1290,22
207,47	1282,03
207,69	1206,25
207,91	1239,02
208,13	1267,69
208,34	1282,03
208,56	1253,36
208,78	1279,98
209,00	1241,07
209,22	1265,64
209,44	1239,02
209,66	1279,98
209,88	1241,07
210,10	1327,08
210,32	1265,64
210,54	1230,83
210,76	1196,01
210,98	1296,36
211,20	1181,68
211,42	1232,88
211,64	1306,60
211,86	1265,64
212,08	1296,36
212,30	1226,73
212,52	1292,27
212,74	1214,45
212,96	1269,74
213,17	1232,88
213,39	1263,60
213,61	1296,36
213,83	1206,25
214,05	1249,26
214,27	1243,12
214,49	1224,69
214,71	1273,84
214,93	1224,69
215,15	1284,08
215,37	1300,46
215,59	1308,65
215,81	1275,88
216,03	1302,51
216,24	1230,83
216,46	1325,04
216,68	1255,40
216,90	1255,40
217,12	1257,45
217,34	1261,55
217,56	1304,56
217,78	1210,35
218,00	1257,45
218,22	1269,74
218,44	1302,51
218,66	1275,88
218,87	1261,55
219,09	1181,68
219,31	1282,03
219,53	1202,16
219,75	1298,41
219,97	1310,70
220,19	1249,26
220,41	1216,49
220,63	1257,45
220,85	1202,16
221,06	1273,84
221,28	1351,66
221,50	1329,13
221,72	1279,98
221,94	1253,36
222,16	1245,16
222,38	1269,74
222,60	1247,21
222,82	1296,36
223,03	1320,94
223,25	1247,21
223,47	1224,69
223,69	1286,12
223,91	1255,40
224,13	1273,84
224,35	1279,98
224,57	1265,64
224,78	1228,78
225,00	1284,08
225,22	1275,88
225,44	1249,26
225,66	1304,56
225,88	1220,59
226,10	1282,03
226,32	1208,30
226,53	1253,36
226,75	1263,60
226,97	1247,21
227,19	1273,84
227,41	1300,46
227,63	1263,60
227,85	1275,88
228,06	1259,50
228,28	1259,50
228,50	1251,31
228,72	1300,46
228,94	1322,99
229,16	1245,16
229,37	1218,54
229,59	1210,35
229,81	1337,32
230,03	1249,26
230,25	1292,27
230,47	1277,93
230,69	1220,59
230,90	1312,75
231,12	1239,02
231,34	1249,26
231,56	1189,87
231,78	1241,07
232,00	1296,36
232,21	1269,74
232,43	1259,50
232,65	1273,84
232,87	1282,03
233,09	1288,17
233,30	1187,82
233,52	1279,98
233,74	1304,56
233,96	1257,45
234,18	1208,30
234,40	1216,49
234,61	1325,04
234,83	1226,73
235,05	1265,64
235,27	1282,03
235,49	1220,59
235,70	1284,08
235,92	1312,75
236,14	1241,07
236,36	1284,08
236,58	1247,21
236,79	1259,50
237,01	1234,93
237,23	1327,08
237,45	1263,60
237,67	1243,12
237,88	1304,56
238,10	1304,56
238,32	1224,69
238,54	1273,84
238,76	1253,36
238,97	1325,04
239,19	1265,64
239,41	1308,65
239,63	1208,30
239,85	1351,66
240,06	1279,98
240,28	1214,45
240,50	1306,60
240,72	1247,21
240,93	1296,36
241,15	1269,74
241,37	1208,30
241,59	1271,79
241,81	1257,45
242,02	1245,16
242,24	1253,36
242,46	1247,21
242,68	1247,21
242,89	1273,84
243,11	1224,69
243,33	1249,26
243,55	1275,88
243,76	1224,69
243,98	1277,93
244,20	1245,16
244,42	1212,40
244,64	1245,16
244,85	1222,64
245,07	1226,73
245,29	1300,46
245,51	1247,21
245,72	1224,69
245,94	1241,07
246,16	1267,69
246,38	1298,41
246,59	1224,69
246,81	1241,07
247,03	1232,88
247,24	1218,54
247,46	1234,93
247,68	1282,03
247,90	1308,65
248,11	1275,88
248,33	1255,40
248,55	1286,12
248,77	1275,88
248,98	1277,93
249,20	1286,12
249,42	1273,84
249,64	1316,84
249,85	1298,41
250,07	1239,02
250,29	1273,84
250,50	1265,64
250,72	1286,12
250,94	1300,46
251,16	1257,45
251,37	1265,64
251,59	1294,32
251,81	1298,41
252,02	1302,51
252,24	1228,78
252,46	1208,30
252,68	1298,41
252,89	1286,12
253,11	1196,01
253,33	1343,47
253,54	1318,89
253,76	1245,16
253,98	1329,13
254,20	1349,61
254,41	1249,26
254,63	1212,40
254,85	1314,80
255,06	1284,08
255,28	1230,83
255,50	1263,60
255,71	1249,26
255,93	1298,41
256,15	1249,26
256,36	1302,51
256,58	1202,16
256,80	1265,64
257,02	1255,40
257,23	1177,58
257,45	1312,75
257,67	1255,40
257,88	1265,64
258,10	1220,59
258,32	1308,65
258,53	1236,97
258,75	1216,49
258,97	1253,36
259,18	1286,12
259,40	1290,22
259,62	1271,79
259,83	1294,32
260,05	1325,04
260,27	1259,50
260,48	1304,56
260,70	1212,40
260,92	1296,36
261,13	1259,50
261,35	1318,89
261,57	1310,70
261,78	1290,22
262,00	1294,32
262,22	1226,73
262,43	1292,27
262,65	1228,78
262,86	1263,60
263,08	1222,64
263,30	1253,36
263,51	1214,45
263,73	1322,99
263,95	1329,13
264,16	1259,50
264,38	1245,16
264,60	1318,89
264,81	1257,45
265,03	1247,21
265,25	1245,16
265,46	1284,08
265,68	1308,65
265,89	1259,50
266,11	1286,12
266,33	1249,26
266,54	1282,03
266,76	1261,55
266,98	1277,93
267,19	1284,08
267,41	1243,12
267,62	1290,22
267,84	1241,07
268,06	1257,45
268,27	1234,93
268,49	1273,84
268,70	1226,73
268,92	1343,47
269,14	1286,12
269,35	1263,60
269,57	1286,12
269,79	1279,98
270,00	1214,45
270,22	1296,36
270,43	1259,50
270,65	1245,16
270,87	1255,40
271,08	1302,51
271,30	1275,88
271,51	1286,12
271,73	1236,97
271,95	1290,22
272,16	1288,17
272,38	1331,18
272,59	1214,45
272,81	1286,12
273,02	1261,55
273,24	1257,45
273,46	1189,87
273,67	1265,64
273,89	1257,45
274,10	1300,46
274,32	1273,84
274,54	1255,40
274,75	1286,12
274,97	1320,94
275,18	1247,21
275,40	1230,83
275,61	1282,03
275,83	1269,74
276,05	1273,84
276,26	1265,64
276,48	1282,03
276,69	1265,64
276,91	1329,13
277,12	1263,60
277,34	1275,88
277,55	1306,60
277,77	1232,88
277,99	1304,56
278,20	1284,08
278,42	1275,88
278,63	1261,55
278,85	1239,02
279,06	1249,26
279,28	1251,31
279,49	1239,02
279,71	1284,08
279,93	1185,77
280,14	1320,94
280,36	1249,26
280,57	1273,84
280,79	1294,32
281,00	1228,78
281,22	1269,74
281,43	1247,21
281,65	1314,80
281,86	1269,74
282,08	1249,26
282,29	1241,07
282,51	1234,93
282,73	1296,36
282,94	1269,74
283,16	1312,75
283,37	1284,08
283,59	1239,02
283,80	1331,18
284,02	1239,02
284,23	1277,93
284,45	1273,84
284,66	1241,07
284,88	1290,22
285,09	1265,64
285,31	1296,36
285,52	1296,36
285,74	1286,12
285,95	1279,98
286,17	1226,73
286,38	1259,50
286,60	1292,27
286,81	1275,88
287,03	1265,64
287,24	1239,02
287,46	1241,07
287,67	1312,75
287,89	1261,55
288,10	1275,88
288,32	1232,88
288,53	1284,08
288,75	1304,56
288,96	1296,36
289,18	1320,94
289,39	1329,13
289,61	1298,41
289,82	1247,21
290,04	1286,12
290,25	1302,51
290,47	1259,50
290,68	1255,40
290,90	1228,78
291,11	1316,84
291,33	1322,99
291,54	1245,16
291,76	1282,03
291,97	1187,82
292,18	1273,84
292,40	1200,11
292,61	1247,21
292,83	1284,08
293,04	1282,03
293,26	1239,02
293,47	1210,35
293,69	1218,54
293,90	1232,88
294,12	1286,12
294,33	1253,36
294,55	1298,41
294,76	1247,21
294,97	1249,26
295,19	1224,69
295,40	1224,69
295,62	1353,71
295,83	1288,17
296,05	1335,28
296,26	1257,45
296,48	1241,07
296,69	1296,36
296,90	1167,34
297,12	1275,88
297,33	1257,45
297,55	1263,60
297,76	1275,88
297,98	1290,22
298,19	1290,22
298,41	1261,55
298,62	1251,31
298,83	1312,75
299,05	1234,93
299,26	1232,88
299,48	1220,59
299,69	1247,21
299,90	1273,84
300,12	1183,73
300,33	1226,73
300,55	1218,54
300,76	1294,32
300,98	1269,74
301,19	1302,51
301,40	1234,93
301,62	1257,45
301,83	1200,11
302,05	1298,41
302,26	1255,40
302,47	1298,41
302,69	1226,73
302,90	1267,69
303,12	1273,84
303,33	1277,93
303,54	1314,80
303,76	1294,32
303,97	1288,17
304,19	1273,84
304,40	1214,45
304,61	1310,70
304,83	1218,54
305,04	1243,12
305,26	1226,73
305,47	1206,25
305,68	1294,32
305,90	1236,97
306,11	1218,54
306,33	1298,41
306,54	1249,26
306,75	1277,93
306,97	1253,36
307,18	1296,36
307,39	1261,55
307,61	1239,02
307,82	1214,45
308,04	1275,88
308,25	1304,56
308,46	1298,41
308,68	1275,88
308,89	1329,13
309,10	1251,31
309,32	1226,73
309,53	1222,64
309,74	1243,12
309,96	1204,21
310,17	1249,26
310,39	1249,26
310,60	1308,65
310,81	1263,60
311,03	1277,93
311,24	1204,21
311,45	1175,53
311,67	1322,99
311,88	1255,40
312,09	1271,79
312,31	1282,03
312,52	1284,08
312,73	1189,87
312,95	1288,17
313,16	1230,83
313,37	1243,12
313,59	1232,88
313,80	1284,08
314,01	1345,52
314,23	1251,31
314,44	1257,45
314,65	1218,54
314,87	1249,26
315,08	1249,26
315,29	1290,22
315,51	1273,84
315,72	1247,21
315,93	1308,65
316,15	1263,60
316,36	1265,64
316,57	1316,84
316,79	1308,65
317,00	1300,46
317,21	1316,84
317,43	1234,93
317,64	1290,22
317,85	1232,88
318,07	1282,03
318,28	1333,23
318,49	1216,49
318,70	1253,36
318,92	1232,88
319,13	1243,12
319,34	1318,89
319,56	1200,11
319,77	1243,12
319,98	1322,99
320,20	1284,08
320,41	1298,41
320,62	1294,32
320,83	1279,98
321,05	1257,45
321,26	1271,79
321,47	1265,64
321,69	1273,84
321,90	1245,16
322,11	1279,98
322,32	1259,50
322,54	1253,36
322,75	1288,17
322,96	1329,13
323,18	1282,03
323,39	1314,80
323,60	1222,64
323,81	1265,64
324,03	1298,41
324,24	1279,98
324,45	1277,93
324,66	1263,60
324,88	1193,97
325,09	1290,22
325,30	1273,84
325,52	1337,32
325,73	1288,17
325,94	1282,03
326,15	1271,79
326,37	1306,60
326,58	1353,71
326,79	1331,18
327,00	1222,64
327,22	1259,50
327,43	1351,66
327,64	1245,16
327,85	1314,80
328,07	1214,45
328,28	1286,12
328,49	1220,59
328,70	1286,12
328,92	1300,46
329,13	1312,75
329,34	1288,17
329,55	1200,11
329,76	1329,13
329,98	1206,25
330,19	1325,04
330,40	1273,84
330,61	1284,08
330,83	1253,36
331,04	1228,78
331,25	1185,77
331,46	1298,41
331,68	1234,93
331,89	1259,50
332,10	1226,73
332,31	1331,18
332,52	1271,79
332,74	1288,17
332,95	1253,36
333,16	1282,03
333,37	1261,55
333,58	1257,45
333,80	1224,69
334,01	1290,22
334,22	1288,17
334,43	1259,50
334,64	1279,98
334,86	1294,32
335,07	1224,69
335,28	1273,84
335,49	1224,69
335,70	1300,46
335,92	1259,50
336,13	1249,26
336,34	1265,64
336,55	1210,35
336,76	1302,51
336,98	1255,40
337,19	1257,45
337,40	1382,38
337,61	1331,18
337,82	1214,45
338,04	1241,07
338,25	1265,64
338,46	1228,78
338,67	1255,40
338,88	1232,88
339,09	1314,80
339,31	1290,22
339,52	1277,93
339,73	1279,98
339,94	1183,73
340,15	1325,04
340,36	1236,97
340,58	1251,31
340,79	1200,11
341,00	1249,26
341,21	1239,02
341,42	1251,31
341,63	1241,07
341,85	1187,82
342,06	1239,02
342,27	1251,31
342,48	1288,17
342,69	1236,97
342,90	1269,74
343,12	1243,12
343,33	1226,73
343,54	1312,75
343,75	1263,60
343,96	1247,21
344,17	1253,36
344,38	1230,83
344,60	1284,08
344,81	1290,22
345,02	1271,79
345,23	1148,91
345,44	1290,22
345,65	1245,16
345,86	1290,22
346,07	1230,83
346,29	1224,69
346,50	1259,50
346,71	1316,84
346,92	1284,08
347,13	1257,45
347,34	1302,51
347,55	1253,36
347,76	1325,04
347,98	1302,51
348,19	1282,03
348,40	1314,80
348,61	1284,08
348,82	1284,08
349,03	1304,56
349,24	1208,30
349,45	1318,89
349,66	1277,93
349,88	1245,16
350,09	1208,30
350,30	1288,17
350,51	1304,56
350,72	1232,88
350,93	1218,54
351,14	1208,30
351,35	1308,65
351,56	1316,84
351,77	1296,36
351,99	1232,88
352,20	1296,36
352,41	1187,82
352,62	1298,41
352,83	1239,02
353,04	1216,49
353,25	1290,22
353,46	1220,59
353,67	1288,17
353,88	1286,12
354,09	1210,35
354,30	1294,32
354,52	1216,49
354,73	1320,94
354,94	1302,51
355,15	1261,55
355,36	1284,08
355,57	1279,98
355,78	1279,98
355,99	1331,18
356,20	1314,80
356,41	1263,60
356,62	1271,79
356,83	1269,74
357,04	1304,56
357,25	1259,50
357,46	1230,83
357,68	1275,88
357,89	1224,69
358,10	1296,36
358,31	1263,60
358,52	1239,02
358,73	1277,93
358,94	1306,60
359,15	1165,29
359,36	1241,07
359,57	1294,32
359,78	1308,65
359,99	1222,64
360,20	1247,21
360,41	1212,40
360,62	1273,84
360,83	1257,45
361,04	1310,70
361,25	1243,12
361,46	1296,36
361,67	1259,50
361,88	1306,60
362,09	1263,60
362,30	1218,54
362,51	1241,07
362,72	1247,21
362,93	1269,74
363,14	1282,03
363,35	1314,80
363,56	1257,45
363,78	1251,31
363,99	1267,69
364,20	1245,16
364,41	1271,79
364,62	1304,56
364,83	1304,56
365,04	1234,93
365,25	1218,54
365,46	1267,69
365,67	1251,31
365,88	1277,93
366,09	1286,12
366,30	1230,83
366,51	1243,12
366,72	1241,07
366,93	1259,50
367,14	1200,11
367,35	1286,12
367,56	1222,64
367,77	1339,37
367,98	1249,26
368,18	1349,61
368,39	1169,39
368,60	1312,75
368,81	1282,03
369,02	1345,52
369,23	1263,60
369,44	1271,79
369,65	1277,93
369,86	1273,84
370,07	1314,80
370,28	1298,41
370,49	1277,93
370,70	1290,22
370,91	1243,12
371,12	1222,64
371,33	1263,60
371,54	1310,70
371,75	1304,56
371,96	1236,97
372,17	1269,74
372,38	1243,12
372,59	1228,78
372,80	1271,79
373,01	1224,69
373,22	1310,70
373,43	1255,40
373,64	1290,22
373,85	1239,02
374,06	1230,83
374,26	1265,64
374,47	1239,02
374,68	1261,55
374,89	1257,45
375,10	1251,31
375,31	1335,28
375,52	1277,93
375,73	1259,50
375,94	1277,93
376,15	1267,69
376,36	1251,31
376,57	1239,02
376,78	1263,60
376,99	1314,80
377,20	1251,31
377,40	1173,49
377,61	1251,31
377,82	1210,35
378,03	1208,30
378,24	1226,73
378,45	1335,28
378,66	1255,40
378,87	1275,88
379,08	1312,75
379,29	1282,03
379,50	1392,62
379,71	1222,64
379,91	1263,60
380,12	1251,31
380,33	1228,78
380,54	1271,79
380,75	1255,40
380,96	1220,59
381,17	1271,79
381,38	1355,76
381,59	1239,02
381,80	1179,63
382,00	1290,22
382,21	1210,35
382,42	1241,07
382,63	1277,93
382,84	1257,45
383,05	1251,31
383,26	1304,56
383,47	1277,93
383,68	1263,60
383,88	1318,89
384,09	1329,13
384,30	1220,59
384,51	1304,56
384,72	1224,69
384,93	1261,55
385,14	1216,49
385,35	1220,59
385,55	1286,12
385,76	1335,28
385,97	1177,58
386,18	1210,35
386,39	1261,55
386,60	1257,45
386,81	1302,51
387,02	1239,02
387,22	1245,16
387,43	1308,65
387,64	1267,69
387,85	1239,02
388,06	1243,12
388,27	1255,40
388,48	1282,03
388,68	1261,55
388,89	1255,40
389,10	1300,46
389,31	1282,03
389,52	1239,02
389,73	1253,36
389,93	1273,84
390,14	1302,51
390,35	1271,79
390,56	1298,41
390,77	1298,41
390,98	1216,49
391,18	1279,98
391,39	1253,36
391,60	1290,22
391,81	1216,49
392,02	1314,80
392,23	1224,69
392,43	1288,17
392,64	1261,55
392,85	1261,55
393,06	1279,98
393,27	1257,45
393,47	1296,36
393,68	1277,93
393,89	1222,64
394,10	1273,84
394,31	1259,50
394,52	1302,51
394,72	1191,92
394,93	1310,70
395,14	1298,41
395,35	1257,45
395,56	1294,32
395,76	1253,36
395,97	1314,80
396,18	1275,88
396,39	1263,60
396,60	1333,23
396,80	1230,83
397,01	1273,84
397,22	1277,93
397,43	1279,98
397,64	1243,12
397,84	1363,95
398,05	1232,88
398,26	1312,75
398,47	1263,60
398,67	1249,26
398,88	1282,03
399,09	1251,31
399,30	1245,16
399,51	1406,95
399,71	1255,40
399,92	1265,64
400,13	1286,12
400,34	1259,50
400,54	1226,73
400,75	1269,74
400,96	1277,93
401,17	1308,65
401,37	1247,21
401,58	1230,83
401,79	1378,28
402,00	1212,40
402,21	1275,88
402,41	1273,84
402,62	1251,31
402,83	1216,49
403,04	1269,74
403,24	1277,93
403,45	1247,21
403,66	1251,31
403,87	1228,78
404,07	1304,56
404,28	1277,93
404,49	1253,36
404,70	1273,84
404,90	1206,25
405,11	1249,26
405,32	1329,13
405,52	1206,25
405,73	1294,32
405,94	1273,84
406,15	1294,32
406,35	1247,21
406,56	1282,03
406,77	1302,51
406,98	1277,93
407,18	1265,64
407,39	1265,64
407,60	1282,03
407,80	1253,36
408,01	1263,60
408,22	1329,13
408,43	1310,70
408,63	1265,64
408,84	1257,45
409,05	1265,64
409,25	1306,60
409,46	1269,74
409,67	1298,41
409,88	1226,73
410,08	1230,83
410,29	1241,07
410,50	1228,78
410,70	1279,98
410,91	1314,80
411,12	1345,52
411,32	1208,30
411,53	1271,79
411,74	1308,65
411,95	1267,69
412,15	1255,40
412,36	1230,83
412,57	1216,49
412,77	1200,11
412,98	1271,79
413,19	1308,65
413,39	1261,55
413,60	1279,98
413,81	1230,83
414,01	1261,55
414,22	1265,64
414,43	1294,32
414,63	1257,45
414,84	1292,27
415,05	1232,88
415,25	1271,79
415,46	1333,23
415,67	1296,36
415,87	1300,46
416,08	1306,60
416,29	1349,61
416,49	1257,45
416,70	1279,98
416,91	1249,26
417,11	1216,49
417,32	1269,74
417,53	1202,16
417,73	1282,03
417,94	1257,45
418,15	1320,94
418,35	1251,31
418,56	1292,27
418,77	1243,12
418,97	1257,45
419,18	1232,88
419,38	1243,12
419,59	1183,73
419,80	1228,78
420,00	1282,03
420,21	1265,64
420,42	1296,36
420,62	1202,16
420,83	1243,12
421,04	1310,70
421,24	1306,60
421,45	1226,73
421,65	1294,32
421,86	1282,03
422,07	1327,08
422,27	1271,79
422,48	1273,84
422,69	1290,22
422,89	1286,12
423,10	1325,04
423,30	1142,77
423,51	1230,83
423,72	1286,12
423,92	1277,93
424,13	1236,97
424,33	1339,37
424,54	1267,69
424,75	1230,83
424,95	1306,60
425,16	1189,87
425,36	1335,28
425,57	1234,93
425,78	1257,45
425,98	1368,04
426,19	1314,80
426,39	1189,87
426,60	1322,99
426,81	1251,31
427,01	1277,93
427,22	1241,07
427,42	1308,65
427,63	1322,99
427,83	1298,41
428,04	1292,27
428,25	1173,49
428,45	1247,21
428,66	1320,94
428,86	1296,36
429,07	1185,77
429,28	1275,88
429,48	1304,56
429,69	1290,22
429,89	1277,93
430,10	1259,50
430,30	1314,80
430,51	1249,26
430,71	1294,32
430,92	1212,40
431,13	1216,49
431,33	1304,56
431,54	1277,93
431,74	1306,60
431,95	1286,12
432,15	1269,74
432,36	1312,75
432,56	1343,47
432,77	1294,32
432,98	1257,45
433,18	1300,46
433,39	1335,28
433,59	1247,21
433,80	1282,03
434,00	1318,89
434,21	1216,49
434,41	1300,46
434,62	1245,16
434,82	1243,12
435,03	1306,60
435,23	1253,36
435,44	1304,56
435,64	1230,83
435,85	1339,37
436,06	1284,08
436,26	1257,45
436,47	1230,83
436,67	1230,83
436,88	1214,45
437,08	1251,31
437,29	1298,41
437,49	1341,42
437,70	1214,45
437,90	1333,23
438,11	1308,65
438,31	1284,08
438,52	1267,69
438,72	1222,64
438,93	1329,13
439,13	1253,36
439,34	1220,59
439,54	1236,97
439,75	1236,97
439,95	1282,03
440,16	1165,29
440,36	1208,30
440,57	1273,84
440,77	1245,16
440,98	1275,88
441,18	1275,88
441,39	1329,13
441,59	1282,03
441,80	1337,32
442,00	1200,11
442,21	1239,02
442,41	1253,36
442,62	1284,08
442,82	1265,64
443,02	1255,40
443,23	1261,55
443,43	1294,32
443,64	1298,41
443,84	1275,88
444,05	1245,16
444,25	1265,64
444,46	1329,13
444,66	1286,12
444,87	1232,88
445,07	1286,12
445,28	1236,97
445,48	1167,34
445,69	1247,21
445,89	1251,31
446,09	1320,94
446,30	1322,99
446,50	1284,08
446,71	1247,21
446,91	1269,74
447,12	1255,40
447,32	1288,17
447,53	1310,70
447,73	1378,28
447,93	1337,32
448,14	1304,56
448,34	1312,75
448,55	1216,49
448,75	1273,84
448,96	1255,40
449,16	1239,02
449,36	1288,17
449,57	1361,90
449,77	1243,12
449,98	1177,58
450,18	1253,36
450,39	1286,12
450,59	1331,18
450,79	1277,93
451,00	1284,08
451,20	1282,03
451,41	1273,84
451,61	1267,69
451,81	1261,55
452,02	1279,98
452,22	1267,69
452,43	1331,18
452,63	1288,17
452,84	1255,40
453,04	1288,17
453,24	1300,46
453,45	1239,02
453,65	1249,26
453,86	1275,88
454,06	1241,07
454,26	1310,70
454,47	1232,88
454,67	1261,55
454,87	1282,03
455,08	1294,32
455,28	1247,21
455,49	1306,60
455,69	1290,22
455,89	1306,60
456,10	1345,52
456,30	1232,88
456,51	1253,36
456,71	1255,40
456,91	1288,17
457,12	1306,60
457,32	1257,45
457,52	1288,17
457,73	1325,04
457,93	1202,16
458,14	1167,34
458,34	1208,30
458,54	1327,08
458,75	1255,40
458,95	1335,28
459,15	1273,84
459,36	1288,17
459,56	1200,11
459,76	1282,03
459,97	1253,36
460,17	1200,11
460,37	1273,84
460,58	1241,07
460,78	1277,93
460,99	1290,22
461,19	1273,84
461,39	1220,59
461,60	1263,60
461,80	1206,25
462,00	1218,54
462,21	1320,94
462,41	1284,08
462,61	1322,99
462,82	1304,56
463,02	1294,32
463,22	1302,51
463,43	1282,03
463,63	1236,97
463,83	1226,73
464,04	1298,41
464,24	1298,41
464,44	1279,98
464,64	1255,40
464,85	1241,07
465,05	1279,98
465,25	1298,41
465,46	1216,49
465,66	1294,32
465,86	1310,70
466,07	1355,76
466,27	1261,55
466,47	1284,08
466,68	1308,65
466,88	1261,55
467,08	1200,11
467,29	1265,64
467,49	1271,79
467,69	1230,83
467,89	1290,22
468,10	1331,18
468,30	1255,40
468,50	1241,07
468,71	1288,17
468,91	1279,98
469,11	1327,08
469,31	1318,89
469,52	1296,36
469,72	1292,27
469,92	1347,56
470,13	1257,45
470,33	1257,45
470,53	1273,84
470,73	1302,51
470,94	1226,73
471,14	1282,03
471,34	1316,84
471,54	1296,36
471,75	1349,61
471,95	1214,45
472,15	1198,06
472,36	1255,40
472,56	1253,36
472,76	1226,73
472,96	1331,18
473,17	1198,06
473,37	1273,84
473,57	1222,64
473,77	1322,99
473,98	1314,80
474,18	1191,92
474,38	1294,32
474,58	1306,60
474,79	1228,78
474,99	1241,07
475,19	1296,36
475,39	1294,32
475,60	1271,79
475,80	1282,03
476,00	1187,82
476,20	1261,55
476,41	1241,07
476,61	1318,89
476,81	1279,98
477,01	1312,75
477,21	1325,04
477,42	1247,21
477,62	1341,42
477,82	1210,35
478,02	1314,80
478,23	1236,97
478,43	1185,77
478,63	1239,02
478,83	1249,26
479,03	1196,01
479,24	1255,40
479,44	1318,89
479,64	1257,45
479,84	1290,22
480,04	1210,35
480,25	1279,98
480,45	1300,46
480,65	1300,46
480,85	1282,03
481,06	1247,21
481,26	1228,78
481,46	1312,75
481,66	1349,61
481,86	1191,92
482,06	1210,35
482,27	1253,36
482,47	1275,88
482,67	1273,84
482,87	1259,50
483,07	1282,03
483,28	1177,58
483,48	1282,03
483,68	1243,12
483,88	1206,25
484,08	1273,84
484,29	1288,17
484,49	1251,31
484,69	1292,27
484,89	1279,98
485,09	1275,88
485,29	1212,40
485,50	1312,75
485,70	1286,12
485,90	1275,88
486,10	1247,21
486,30	1329,13
486,50	1226,73
486,71	1277,93
486,91	1300,46
487,11	1296,36
487,31	1198,06
487,51	1257,45
487,71	1228,78
487,91	1279,98
488,12	1327,08
488,32	1296,36
488,52	1245,16
488,72	1220,59
488,92	1337,32
489,12	1239,02
489,32	1269,74
489,53	1325,04
489,73	1251,31
489,93	1288,17
490,13	1288,17
490,33	1193,97
490,53	1284,08
490,73	1251,31
490,94	1277,93
491,14	1294,32
491,34	1298,41
491,54	1320,94
491,74	1325,04
491,94	1314,80
492,14	1263,60
492,34	1308,65
492,54	1265,64
492,75	1286,12
492,95	1329,13
493,15	1236,97
493,35	1286,12
493,55	1277,93
493,75	1198,06
493,95	1322,99
494,15	1341,42
494,35	1294,32
494,56	1318,89
494,76	1294,32
494,96	1241,07
495,16	1288,17
495,36	1349,61
495,56	1239,02
495,76	1179,63
495,96	1339,37
496,16	1339,37
496,36	1290,22
496,56	1296,36
496,77	1241,07
496,97	1269,74
497,17	1263,60
497,37	1275,88
497,57	1255,40
497,77	1261,55
497,97	1245,16
498,17	1294,32
498,37	1331,18
498,57	1288,17
498,77	1314,80
498,97	1288,17
499,17	1310,70
499,38	1286,12
499,58	1230,83
499,78	1228,78
499,98	1257,45
500,18	1251,31
500,38	1288,17
500,58	1296,36
500,78	1333,23
500,98	1306,60
501,18	1310,70
501,38	1236,97
501,58	1322,99
501,78	1275,88
501,98	1241,07
502,18	1351,66
502,38	1314,80
502,58	1304,56
502,78	1200,11
502,98	1230,83
503,18	1282,03
503,38	1257,45
503,59	1191,92
503,79	1206,25
503,99	1335,28
504,19	1284,08
504,39	1304,56
504,59	1191,92
504,79	1359,85
504,99	1263,60
505,19	1273,84
505,39	1257,45
505,59	1263,60
505,79	1322,99
505,99	1251,31
506,19	1294,32
506,39	1308,65
506,59	1279,98
506,79	1331,18
506,99	1228,78
507,19	1218,54
507,39	1296,36
507,59	1267,69
507,79	1249,26
507,99	1306,60
508,19	1222,64
508,39	1363,95
508,59	1267,69
508,79	1310,70
508,99	1306,60
509,19	1263,60
509,39	1277,93
509,59	1257,45
509,79	1294,32
509,99	1339,37
510,19	1273,84
510,39	1282,03
510,59	1234,93
510,79	1226,73
510,99	1290,22
511,19	1263,60
511,39	1243,12
511,59	1275,88
511,79	1282,03
511,99	1255,40
512,19	1279,98
512,38	1304,56
512,58	1284,08
512,78	1202,16
512,98	1384,43
513,18	1316,84
513,38	1284,08
513,58	1322,99
513,78	1253,36
513,98	1245,16
514,18	1255,40
514,38	1279,98
514,58	1316,84
514,78	1241,07
514,98	1290,22
515,18	1279,98
515,38	1202,16
515,58	1325,04
515,78	1241,07
515,98	1261,55
516,18	1298,41
516,38	1349,61
516,57	1263,60
516,77	1286,12
516,97	1224,69
517,17	1230,83
517,37	1245,16
517,57	1308,65
517,77	1292,27
517,97	1327,08
518,17	1220,59
518,37	1243,12
518,57	1265,64
518,77	1298,41
518,97	1322,99
519,16	1251,31
519,36	1296,36
519,56	1322,99
519,76	1284,08
519,96	1277,93
520,16	1275,88
520,36	1277,93
520,56	1273,84
520,76	1275,88
520,96	1204,21
521,16	1247,21
521,35	1257,45
521,55	1292,27
521,75	1322,99
521,95	1304,56
522,15	1224,69
522,35	1331,18
522,55	1263,60
522,75	1288,17
522,95	1239,02
523,14	1290,22
523,34	1316,84
523,54	1294,32
523,74	1306,60
523,94	1257,45
524,14	1214,45
524,34	1249,26
524,54	1300,46
524,73	1279,98
524,93	1322,99
525,13	1275,88
525,33	1198,06
525,53	1292,27
525,73	1275,88
525,93	1214,45
526,13	1275,88
526,32	1269,74
526,52	1327,08
526,72	1245,16
526,92	1249,26
527,12	1269,74
527,32	1241,07
527,52	1279,98
527,71	1249,26
527,91	1288,17
528,11	1255,40
528,31	1300,46
528,51	1292,27
528,71	1243,12
528,90	1241,07
529,10	1351,66
529,30	1228,78
529,50	1284,08
529,70	1257,45
529,90	1208,30
530,09	1314,80
530,29	1318,89
530,49	1306,60
530,69	1220,59
530,89	1302,51
531,09	1282,03
531,28	1202,16
531,48	1331,18
531,68	1343,47
531,88	1290,22
532,08	1259,50
532,28	1257,45
532,47	1298,41
532,67	1234,93
532,87	1329,13
533,07	1275,88
533,27	1277,93
533,46	1339,37
533,66	1279,98
533,86	1236,97
534,06	1374,19
534,26	1267,69
534,45	1204,21
534,65	1304,56
534,85	1329,13
535,05	1286,12
535,25	1322,99
535,44	1296,36
535,64	1253,36
535,84	1253,36
536,04	1255,40
536,24	1286,12
536,43	1310,70
536,63	1296,36
536,83	1247,21
537,03	1351,66
537,22	1224,69
537,42	1189,87
537,62	1222,64
537,82	1310,70
538,02	1212,40
538,21	1339,37
538,41	1314,80
538,61	1277,93
538,81	1308,65
539,00	1310,70
539,20	1251,31
539,40	1234,93
539,60	1282,03
539,79	1255,40
539,99	1251,31
540,19	1234,93
540,39	1273,84
540,58	1320,94
540,78	1204,21
540,98	1257,45
541,18	1247,21
541,37	1325,04
541,57	1322,99
541,77	1187,82
541,97	1226,73
542,16	1230,83
542,36	1298,41
542,56	1304,56
542,76	1345,52
542,95	1302,51
543,15	1302,51
543,35	1251,31
543,54	1300,46
543,74	1277,93
543,94	1245,16
544,14	1251,31
544,33	1296,36
544,53	1351,66
544,73	1286,12
544,93	1286,12
545,12	1277,93
545,32	1282,03
545,52	1290,22
545,71	1245,16
545,91	1298,41
546,11	1286,12
546,30	1257,45
546,50	1316,84
546,70	1292,27
546,90	1302,51
547,09	1363,95
547,29	1257,45
547,49	1288,17
547,68	1318,89
547,88	1212,40
548,08	1290,22
548,27	1273,84
548,47	1288,17
548,67	1247,21
548,87	1269,74
549,06	1265,64
549,26	1302,51
549,46	1277,93
549,65	1173,49
549,85	1251,31
550,05	1310,70
550,24	1241,07
550,44	1355,76
550,64	1247,21
550,83	1273,84
551,03	1333,23
551,23	1290,22
551,42	1228,78
551,62	1277,93
551,82	1267,69
552,01	1271,79
552,21	1228,78
552,41	1236,97
552,60	1271,79
552,80	1255,40
553,00	1241,07
553,19	1314,80
553,39	1351,66
553,59	1234,93
553,78	1294,32
553,98	1333,23
554,17	1318,89
554,37	1312,75
554,57	1267,69
554,76	1294,32
554,96	1302,51
555,16	1374,19
555,35	1296,36
555,55	1271,79
555,75	1327,08
555,94	1296,36
556,14	1341,42
556,33	1331,18
556,53	1277,93
556,73	1306,60
556,92	1318,89
557,12	1329,13
557,32	1241,07
557,51	1296,36
557,71	1230,83
557,90	1337,32
558,10	1193,97
558,30	1253,36
558,49	1294,32
558,69	1306,60
558,88	1327,08
559,08	1331,18
559,28	1290,22
559,47	1265,64
559,67	1331,18
559,86	1261,55
560,06	1275,88
560,26	1239,02
560,45	1300,46
560,65	1265,64
560,84	1320,94
561,04	1331,18
561,24	1347,56
561,43	1306,60
561,63	1331,18
561,82	1257,45
562,02	1282,03
562,22	1273,84
562,41	1304,56
562,61	1310,70
562,80	1239,02
563,00	1294,32
563,19	1267,69
563,39	1253,36
563,59	1325,04
563,78	1220,59
563,98	1292,27
564,17	1275,88
564,37	1263,60
564,56	1277,93
564,76	1259,50
564,96	1273,84
565,15	1304,56
565,35	1331,18
565,54	1259,50
565,74	1226,73
565,93	1308,65
566,13	1263,60
566,32	1351,66
566,52	1284,08
566,71	1325,04
566,91	1208,30
567,11	1337,32
567,30	1292,27
567,50	1380,33
567,69	1218,54
567,89	1294,32
568,08	1327,08
568,28	1284,08
568,47	1251,31
568,67	1275,88
568,86	1263,60
569,06	1202,16
569,25	1306,60
569,45	1251,31
569,64	1284,08
569,84	1245,16
570,04	1290,22
570,23	1243,12
570,43	1279,98
570,62	1269,74
570,82	1378,28
571,01	1212,40
571,21	1282,03
571,40	1288,17
571,60	1318,89
571,79	1226,73
571,99	1290,22
572,18	1335,28
572,38	1255,40
572,57	1310,70
572,77	1247,21
572,96	1228,78
573,16	1251,31
573,35	1284,08
573,55	1220,59
573,74	1333,23
573,94	1339,37
574,13	1253,36
574,33	1265,64
574,52	1271,79
574,71	1271,79
574,91	1245,16
575,10	1249,26
575,30	1241,07
575,49	1245,16
575,69	1282,03
575,88	1296,36
576,08	1294,32
576,27	1302,51
576,47	1288,17
576,66	1288,17
576,86	1257,45
577,05	1271,79
577,25	1269,74
577,44	1220,59
577,64	1282,03
577,83	1257,45
578,02	1347,56
578,22	1325,04
578,41	1292,27
578,61	1196,01
578,80	1282,03
579,00	1298,41
579,19	1202,16
579,39	1304,56
579,58	1296,36
579,77	1349,61
579,97	1249,26
580,16	1310,70
580,36	1312,75
580,55	1337,32
580,75	1273,84
580,94	1353,71
581,13	1290,22
581,33	1308,65
581,52	1282,03
581,72	1277,93
581,91	1273,84
582,11	1292,27
582,30	1288,17
582,49	1282,03
582,69	1251,31
582,88	1241,07
583,08	1284,08
583,27	1267,69
583,47	1304,56
583,66	1327,08
583,85	1253,36
584,05	1288,17
584,24	1249,26
584,44	1290,22
584,63	1300,46
584,82	1292,27
585,02	1314,80
585,21	1339,37
585,41	1288,17
585,60	1257,45
585,79	1306,60
585,99	1304,56
586,18	1245,16
586,37	1329,13
586,57	1357,80
586,76	1282,03
586,96	1322,99
587,15	1298,41
587,34	1271,79
587,54	1241,07
587,73	1271,79
587,93	1335,28
588,12	1279,98
588,31	1306,60
588,51	1273,84
588,70	1241,07
588,89	1337,32
589,09	1304,56
589,28	1290,22
589,47	1296,36
589,67	1284,08
589,86	1263,60
590,06	1312,75
590,25	1279,98
590,44	1261,55
590,64	1224,69
590,83	1310,70
591,02	1318,89
591,22	1277,93
591,41	1304,56
591,60	1353,71
591,80	1370,09
591,99	1318,89
592,18	1222,64
592,38	1308,65
592,57	1308,65
592,76	1343,47
592,96	1331,18
593,15	1282,03
593,34	1243,12
593,54	1314,80
593,73	1245,16
593,92	1284,08
594,12	1292,27
594,31	1267,69
594,50	1273,84
594,70	1267,69
594,89	1320,94
595,08	1257,45
595,28	1306,60
595,47	1261,55
595,66	1241,07
595,86	1306,60
596,05	1259,50
596,24	1294,32
596,43	1273,84
596,63	1269,74
596,82	1236,97
597,01	1284,08
597,21	1232,88
597,40	1314,80
597,59	1296,36
597,79	1331,18
597,98	1290,22
598,17	1288,17
598,36	1286,12
598,56	1310,70
598,75	1345,52
598,94	1255,40
599,14	1277,93
599,33	1206,25
599,52	1308,65
599,71	1288,17
599,91	1333,23
600,10	1263,60
600,29	1284,08
600,48	1265,64
600,68	1296,36
600,87	1363,95
601,06	1359,85
601,26	1331,18
601,45	1286,12
601,64	1251,31
601,83	1353,71
602,03	1232,88
602,22	1290,22
602,41	1288,17
602,60	1253,36
602,80	1230,83
602,99	1212,40
603,18	1300,46
603,37	1282,03
603,57	1273,84
603,76	1271,79
603,95	1320,94
604,14	1339,37
604,34	1279,98
604,53	1273,84
604,72	1294,32
604,91	1316,84
605,10	1310,70
605,30	1273,84
605,49	1275,88
605,68	1202,16
605,87	1226,73
606,07	1267,69
606,26	1302,51
606,45	1308,65
606,64	1265,64
606,84	1298,41
607,03	1304,56
607,22	1273,84
607,41	1275,88
607,60	1257,45
607,80	1277,93
607,99	1292,27
608,18	1232,88
608,37	1265,64
608,56	1212,40
608,76	1378,28
608,95	1247,21
609,14	1214,45
609,33	1243,12
609,52	1198,06
609,72	1241,07
609,91	1304,56
610,10	1263,60
610,29	1232,88
610,48	1253,36
610,68	1286,12
610,87	1318,89
611,06	1230,83
611,25	1271,79
611,44	1310,70
611,63	1380,33
611,83	1341,42
612,02	1331,18
612,21	1282,03
612,40	1329,13
612,59	1302,51
612,79	1339,37
612,98	1269,74
613,17	1312,75
613,36	1273,84
613,55	1239,02
613,74	1290,22
613,93	1265,64
614,13	1310,70
614,32	1263,60
614,51	1241,07
614,70	1269,74
614,89	1333,23
615,08	1249,26
615,28	1279,98
615,47	1298,41
615,66	1320,94
615,85	1284,08
616,04	1277,93
616,23	1273,84
616,42	1318,89
616,62	1337,32
616,81	1292,27
617,00	1241,07
617,19	1279,98
617,38	1361,90
617,57	1257,45
617,76	1333,23
617,95	1255,40
618,15	1290,22
618,34	1318,89
618,53	1267,69
618,72	1312,75
618,91	1343,47
619,10	1318,89
619,29	1312,75
619,48	1273,84
619,68	1286,12
619,87	1277,93
620,06	1339,37
620,25	1380,33
620,44	1275,88
620,63	1249,26
620,82	1251,31
621,01	1161,20
621,20	1314,80
621,39	1257,45
621,59	1296,36
621,78	1308,65
621,97	1294,32
622,16	1302,51
622,35	1329,13
622,54	1271,79
622,73	1282,03
622,92	1329,13
623,11	1349,61
623,30	1296,36
623,49	1232,88
623,68	1277,93
623,88	1236,97
624,07	1335,28
624,26	1243,12
624,45	1282,03
624,64	1298,41
624,83	1296,36
625,02	1284,08
625,21	1259,50
625,40	1366,00
625,59	1359,85
625,78	1327,08
625,97	1327,08
626,16	1282,03
626,35	1284,08
626,54	1275,88
626,74	1277,93
626,93	1261,55
627,12	1294,32
627,31	1398,76
627,50	1343,47
627,69	1290,22
627,88	1296,36
628,07	1259,50
628,26	1300,46
628,45	1290,22
628,64	1288,17
628,83	1300,46
629,02	1245,16
629,21	1368,04
629,40	1339,37
629,59	1329,13
629,78	1296,36
629,97	1284,08
630,16	1273,84
630,35	1304,56
630,54	1322,99
630,73	1286,12
630,92	1300,46
631,11	1327,08
631,30	1335,28
631,49	1411,05
631,68	1476,59
631,87	1820,64
632,06	2975,70
632,25	3362,76
632,44	5144,50
632,63	8251,27
632,82	15185,69
633,01	21558,97
633,20	16273,16
633,39	12365,64
633,58	8009,61
633,77	4671,42
633,96	2889,68
634,15	2502,62
634,34	2197,47
634,53	2017,25
634,72	2015,20
634,91	1923,04
635,10	1884,13
635,29	1808,36
635,48	1757,16
635,67	1652,71
635,86	1564,65
636,05	1560,55
636,24	1550,31
636,43	1449,96
636,62	1406,95
636,81	1333,23
637,00	1386,47
637,19	1284,08
637,38	1292,27
637,57	1386,47
637,76	1298,41
637,95	1331,18
638,14	1304,56
638,33	1331,18
638,52	1290,22
638,71	1294,32
638,89	1327,08
639,08	1298,41
639,27	1322,99
639,46	1312,75
639,65	1335,28
639,84	1347,56
640,03	1267,69
640,22	1243,12
640,41	1265,64
640,60	1288,17
640,79	1351,66
640,98	1292,27
641,17	1294,32
641,36	1277,93
641,55	1322,99
641,74	1279,98
641,92	1310,70
642,11	1234,93
642,30	1236,97
642,49	1304,56
642,68	1239,02
642,87	1296,36
643,06	1335,28
643,25	1224,69
643,44	1325,04
643,63	1279,98
643,82	1275,88
644,00	1271,79
644,19	1314,80
644,38	1376,24
644,57	1269,74
644,76	1226,73
644,95	1267,69
645,14	1261,55
645,33	1269,74
645,52	1322,99
645,71	1282,03
645,89	1275,88
646,08	1322,99
646,27	1271,79
646,46	1320,94
646,65	1302,51
646,84	1243,12
647,03	1286,12
647,22	1265,64
647,40	1302,51
647,59	1314,80
647,78	1232,88
647,97	1218,54
648,16	1284,08
648,35	1230,83
648,54	1282,03
648,73	1263,60
648,91	1296,36
649,10	1279,98
649,29	1300,46
649,48	1277,93
649,67	1232,88
649,86	1322,99
650,05	1257,45
650,23	1228,78
650,42	1316,84
650,61	1288,17
650,80	1189,87
650,99	1390,57
651,18	1290,22
651,36	1288,17
651,55	1306,60
651,74	1347,56
651,93	1245,16
652,12	1267,69
652,31	1349,61
652,49	1294,32
652,68	1212,40
652,87	1265,64
653,06	1243,12
653,25	1277,93
653,44	1253,36
653,62	1361,90
653,81	1220,59
654,00	1284,08
654,19	1298,41
654,38	1290,22
654,56	1282,03
654,75	1271,79
654,94	1273,84
655,13	1306,60
655,32	1275,88
655,51	1243,12
655,69	1259,50
655,88	1298,41
656,07	1249,26
656,26	1294,32
656,45	1288,17
656,63	1224,69
656,82	1267,69
657,01	1306,60
657,20	1265,64
657,38	1337,32
657,57	1257,45
657,76	1322,99
657,95	1259,50
658,14	1255,40
658,32	1206,25
658,51	1226,73
658,70	1216,49
658,89	1310,70
659,08	1275,88
659,26	1275,88
659,45	1376,24
659,64	1298,41
659,83	1241,07
660,01	1380,33
660,20	1273,84
660,39	1292,27
660,58	1261,55
660,76	1185,77
660,95	1218,54
661,14	1302,51
661,33	1296,36
661,51	1236,97
661,70	1257,45
661,89	1298,41
662,08	1316,84
662,26	1273,84
662,45	1306,60
662,64	1261,55
662,83	1267,69
663,01	1261,55
663,20	1257,45
663,39	1257,45
663,58	1222,64
663,76	1265,64
663,95	1286,12
664,14	1275,88
664,32	1290,22
664,51	1282,03
664,70	1288,17
664,89	1251,31
665,07	1261,55
665,26	1296,36
665,45	1208,30
665,64	1335,28
665,82	1253,36
666,01	1298,41
666,20	1255,40
666,38	1351,66
666,57	1202,16
666,76	1183,73
666,95	1241,07
667,13	1273,84
667,32	1308,65
667,51	1279,98
667,69	1257,45
667,88	1257,45
668,07	1257,45
668,25	1247,21
668,44	1269,74
668,63	1329,13
668,81	1267,69
669,00	1316,84
669,19	1273,84
669,38	1261,55
669,56	1232,88
669,75	1245,16
669,94	1263,60
670,12	1286,12
670,31	1226,73
670,50	1257,45
670,68	1282,03
670,87	1298,41
671,06	1218,54
671,24	1236,97
671,43	1314,80
671,62	1288,17
671,80	1249,26
671,99	1265,64
672,18	1247,21
672,36	1304,56
672,55	1218,54
672,74	1284,08
672,92	1329,13
673,11	1273,84
673,29	1320,94
673,48	1265,64
673,67	1337,32
673,85	1300,46
674,04	1249,26
674,23	1263,60
674,41	1294,32
674,60	1239,02
674,79	1273,84
674,97	1277,93
675,16	1259,50
675,34	1257,45
675,53	1304,56
675,72	1214,45
675,90	1236,97
676,09	1257,45
676,28	1329,13
676,46	1304,56
676,65	1220,59
676,83	1255,40
677,02	1210,35
677,21	1232,88
677,39	1304,56
677,58	1329,13
677,77	1259,50
677,95	1337,32
678,14	1288,17
678,32	1286,12
678,51	1271,79
678,70	1333,23
678,88	1273,84
679,07	1249,26
679,25	1212,40
679,44	1210,35
679,63	1298,41
679,81	1236,97
680,00	1249,26
680,18	1251,31
680,37	1308,65
680,55	1314,80
680,74	1306,60
680,93	1286,12
681,11	1271,79
681,30	1318,89
681,48	1308,65
681,67	1306,60
681,85	1234,93
682,04	1306,60
682,23	1314,80
682,41	1296,36
682,60	1265,64
682,78	1329,13
682,97	1271,79
683,15	1331,18
683,34	1245,16
683,53	1294,32
683,71	1212,40
683,90	1265,64
684,08	1279,98
684,27	1288,17
684,45	1286,12
684,64	1253,36
684,82	1228,78
685,01	1286,12
685,19	1222,64
685,38	1304,56
685,57	1241,07
685,75	1322,99
685,94	1314,80
686,12	1222,64
686,31	1234,93
686,49	1265,64
686,68	1239,02
686,86	1269,74
687,05	1312,75
687,23	1236,97
687,42	1183,73
687,60	1234,93
687,79	1273,84
687,97	1265,64
688,16	1304,56
688,34	1279,98
688,53	1206,25
688,71	1230,83
688,90	1263,60
689,08	1282,03
689,27	1265,64
689,45	1230,83
689,64	1290,22
689,82	1298,41
690,01	1267,69
690,19	1304,56
690,38	1300,46
690,56	1259,50
690,75	1282,03
690,93	1322,99
691,12	1241,07
691,30	1290,22
691,49	1284,08
691,67	1253,36
691,86	1316,84
692,04	1241,07
692,23	1255,40
692,41	1265,64
692,60	1296,36
692,78	1298,41
692,97	1282,03
693,15	1230,83
693,34	1243,12
693,52	1331,18
693,71	1241,07
693,89	1312,75
694,08	1216,49
694,26	1255,40
694,44	1230,83
694,63	1310,70
694,81	1306,60
695,00	1255,40
695,18	1296,36
695,37	1320,94
695,55	1300,46
695,74	1327,08
695,92	1241,07
696,10	1277,93
696,29	1257,45
696,47	1249,26
696,66	1251,31
696,84	1185,77
697,03	1277,93
697,21	1263,60
697,40	1327,08
697,58	1292,27
697,76	1232,88
697,95	1253,36
698,13	1214,45
698,32	1265,64
698,50	1255,40
698,68	1216,49
698,87	1304,56
699,05	1245,16
699,24	1345,52
699,42	1337,32
699,61	1275,88
699,79	1261,55
699,97	1282,03
700,16	1216,49
700,34	1259,50
700,53	1312,75
700,71	1306,60
700,89	1239,02
701,08	1351,66
701,26	1230,83
701,45	1361,90
701,63	1304,56
701,81	1243,12
702,00	1196,01
702,18	1249,26
702,37	1222,64
702,55	1333,23
702,73	1325,04
702,92	1273,84
703,10	1380,33
703,28	1316,84
703,47	1232,88
703,65	1288,17
703,84	1275,88
704,02	1333,23
704,20	1314,80
704,39	1210,35
704,57	1310,70
704,75	1216,49
704,94	1220,59
705,12	1284,08
705,30	1306,60
705,49	1292,27
705,67	1275,88
705,86	1204,21
706,04	1241,07
706,22	1202,16
706,41	1206,25
706,59	1349,61
706,77	1239,02
706,96	1210,35
707,14	1255,40
707,32	1282,03
707,51	1275,88
707,69	1277,93
707,87	1298,41
708,06	1286,12
708,24	1255,40
708,42	1288,17
708,61	1249,26
708,79	1310,70
708,97	1322,99
709,16	1251,31
709,34	1236,97
709,52	1177,58
709,71	1339,37
709,89	1345,52
710,07	1333,23
710,26	1228,78
710,44	1226,73
710,62	1302,51
710,80	1185,77
710,99	1322,99
711,17	1294,32
711,35	1286,12
711,54	1331,18
711,72	1222,64
711,90	1216,49
712,09	1226,73
712,27	1216,49
712,45	1255,40
712,63	1206,25
712,82	1234,93
713,00	1228,78
713,18	1308,65
713,37	1314,80
713,55	1255,40
713,73	1263,60
713,91	1247,21
714,10	1302,51
714,28	1286,12
714,46	1243,12
714,65	1241,07
714,83	1245,16
715,01	1269,74
715,19	1290,22
715,38	1226,73
715,56	1255,40
715,74	1308,65
715,92	1277,93
716,11	1335,28
716,29	1267,69
716,47	1257,45
716,65	1226,73
716,84	1228,78
717,02	1312,75
717,20	1212,40
717,38	1290,22
717,57	1296,36
717,75	1265,64
717,93	1236,97
718,11	1257,45
718,30	1267,69
718,48	1339,37
718,66	1304,56
718,84	1314,80
719,03	1204,21
719,21	1302,51
719,39	1277,93
719,57	1273,84
719,75	1294,32
719,94	1273,84
720,12	1245,16
720,30	1290,22
720,48	1273,84
720,67	1210,35
720,85	1265,64
721,03	1196,01
721,21	1257,45
721,39	1249,26
721,58	1245,16
721,76	1255,40
721,94	1294,32
722,12	1314,80
722,30	1308,65
722,49	1273,84
722,67	1259,50
722,85	1359,85
723,03	1273,84
723,21	1224,69
723,40	1259,50
723,58	1261,55
723,76	1288,17
723,94	1290,22
724,12	1267,69
724,30	1294,32
724,49	1236,97
724,67	1257,45
724,85	1236,97
725,03	1232,88
725,21	1318,89
725,40	1222,64
725,58	1222,64
725,76	1257,45
725,94	1212,40
726,12	1282,03
726,30	1200,11
726,49	1298,41
726,67	1261,55
726,85	1222,64
727,03	1271,79
727,21	1247,21
727,39	1290,22
727,57	1273,84
727,76	1220,59
727,94	1265,64
728,12	1261,55
728,30	1292,27
728,48	1236,97
728,66	1236,97
728,84	1277,93
729,03	1279,98
729,21	1269,74
729,39	1304,56
729,57	1294,32
729,75	1290,22
729,93	1257,45
730,11	1298,41
730,30	1263,60
730,48	1212,40
730,66	1304,56
730,84	1255,40
731,02	1318,89
731,20	1267,69
731,38	1263,60
731,56	1267,69
731,74	1228,78
731,93	1347,56
732,11	1290,22
732,29	1167,34
732,47	1290,22
732,65	1271,79
732,83	1265,64
733,01	1265,64
733,19	1265,64
733,37	1255,40
733,56	1335,28
733,74	1265,64
733,92	1306,60
734,10	1290,22
734,28	1243,12
734,46	1267,69
734,64	1224,69
734,82	1259,50
735,00	1259,50
735,18	1212,40
735,36	1263,60
735,54	1304,56
735,73	1243,12
735,91	1249,26
736,09	1220,59
736,27	1294,32
736,45	1251,31
736,63	1243,12
736,81	1277,93
736,99	1265,64
737,17	1263,60
737,35	1200,11
737,53	1230,83
737,71	1327,08
737,89	1339,37
738,07	1265,64
738,25	1214,45
738,43	1282,03
738,61	1257,45
738,80	1286,12
738,98	1300,46
739,16	1255,40
739,34	1212,40
739,52	1290,22
739,70	1253,36
739,88	1294,32
740,06	1247,21
740,24	1298,41
740,42	1226,73
740,60	1269,74
740,78	1302,51
740,96	1267,69
741,14	1294,32
741,32	1282,03
741,50	1239,02
741,68	1279,98
741,86	1243,12
742,04	1179,63
742,22	1189,87
742,40	1263,60
742,58	1331,18
742,76	1308,65
742,94	1302,51
743,12	1251,31
743,30	1265,64
743,48	1290,22
743,66	1241,07
743,84	1239,02
744,02	1255,40
744,20	1300,46
744,38	1234,93
744,56	1241,07
744,74	1249,26
744,92	1320,94
745,10	1257,45
745,28	1273,84
745,46	1224,69
745,64	1245,16
745,82	1251,31
746,00	1282,03
746,18	1282,03
746,36	1226,73
746,54	1263,60
746,72	1243,12
746,90	1269,74
747,08	1212,40
747,26	1212,40
747,44	1241,07
747,62	1318,89
747,80	1290,22
747,98	1239,02
748,15	1191,92
748,33	1265,64
748,51	1296,36
748,69	1290,22
748,87	1255,40
749,05	1298,41
749,23	1179,63
749,41	1232,88
749,59	1318,89
749,77	1204,21
749,95	1218,54
750,13	1312,75
750,31	1241,07
750,49	1243,12
750,67	1359,85
750,85	1265,64
751,03	1320,94
751,20	1232,88
751,38	1228,78
751,56	1331,18
751,74	1318,89
751,92	1294,32
752,10	1329,13
752,28	1279,98
752,46	1251,31
752,64	1259,50
752,82	1216,49
753,00	1261,55
753,18	1269,74
753,35	1249,26
753,53	1265,64
753,71	1257,45
753,89	1282,03
754,07	1288,17
754,25	1255,40
754,43	1279,98
754,61	1316,84
754,79	1279,98
754,97	1236,97
755,14	1220,59
755,32	1310,70
755,50	1279,98
755,68	1325,04
755,86	1263,60
756,04	1308,65
756,22	1286,12
756,40	1255,40
756,57	1249,26
756,75	1267,69
756,93	1269,74
757,11	1294,32
757,29	1269,74
757,47	1298,41
757,65	1241,07
757,82	1224,69
758,00	1245,16
758,18	1261,55
758,36	1296,36
758,54	1218,54
758,72	1267,69
758,90	1275,88
759,07	1302,51
759,25	1279,98
759,43	1263,60
759,61	1302,51
759,79	1292,27
759,97	1271,79
760,15	1277,93
760,32	1257,45
760,50	1298,41
760,68	1200,11
760,86	1247,21
761,04	1220,59
761,22	1290,22
761,39	1294,32
761,57	1251,31
761,75	1220,59
761,93	1304,56
762,11	1269,74
762,28	1298,41
762,46	1298,41
762,64	1284,08
762,82	1263,60
763,00	1298,41
763,18	1288,17
763,35	1249,26
763,53	1263,60
763,71	1322,99
763,89	1302,51
764,07	1298,41
764,24	1257,45
764,42	1257,45
764,60	1325,04
764,78	1212,40
764,96	1204,21
765,13	1165,29
765,31	1253,36
765,49	1230,83
765,67	1265,64
765,84	1214,45
766,02	1286,12
766,20	1249,26
766,38	1273,84
766,56	1232,88
766,73	1306,60
766,91	1304,56
767,09	1220,59
767,27	1243,12
767,44	1290,22
767,62	1236,97
767,80	1265,64
767,98	1196,01
768,15	1296,36
768,33	1245,16
768,51	1216,49
768,69	1312,75
768,87	1265,64
769,04	1298,41
769,22	1249,26
769,40	1337,32
769,58	1308,65
769,75	1298,41
769,93	1300,46
770,11	1245,16
770,28	1251,31
770,46	1269,74
770,64	1271,79
770,82	1263,60
770,99	1208,30
771,17	1292,27
771,35	1310,70
771,53	1259,50
771,70	1232,88
771,88	1236,97
772,06	1177,58
772,23	1292,27
772,41	1259,50
772,59	1327,08
772,77	1183,73
772,94	1263,60
773,12	1263,60
773,30	1224,69
773,47	1300,46
773,65	1247,21
773,83	1265,64
774,01	1296,36
774,18	1263,60
774,36	1384,43
774,54	1261,55
774,71	1308,65
774,89	1232,88
775,07	1351,66
775,24	1294,32
775,42	1261,55
775,60	1232,88
775,78	1247,21
775,95	1261,55
776,13	1239,02
776,31	1290,22
776,48	1214,45
776,66	1273,84
776,84	1247,21
777,01	1265,64
777,19	1322,99
777,37	1290,22
777,54	1204,21
777,72	1257,45
777,90	1255,40
778,07	1259,50
778,25	1279,98
778,43	1349,61
778,60	1222,64
778,78	1275,88
778,96	1273,84
779,13	1232,88
779,31	1322,99
779,49	1273,84
779,66	1286,12
779,84	1304,56
780,01	1290,22
780,19	1302,51
780,37	1273,84
780,54	1241,07
780,72	1249,26
780,90	1304,56
781,07	1304,56
781,25	1220,59
781,43	1279,98
781,60	1298,41
781,78	1314,80
781,95	1224,69
782,13	1239,02
782,31	1294,32
782,48	1228,78
782,66	1273,84
782,83	1243,12
783,01	1286,12
783,19	1282,03
783,36	1273,84
783,54	1220,59
783,72	1300,46
783,89	1191,92
784,07	1306,60
784,24	1284,08
784,42	1366,00
784,60	1312,75
784,77	1316,84
784,95	1230,83
785,12	1320,94
785,30	1202,16
785,47	1255,40
785,65	1277,93
785,83	1204,21
786,00	1212,40
786,18	1282,03
786,35	1226,73
786,53	1271,79
786,71	1253,36
786,88	1265,64
787,06	1247,21
787,23	1251,31
787,41	1222,64
787,58	1259,50
787,76	1271,79
787,94	1282,03
788,11	1312,75
788,29	1245,16
788,46	1161,20
788,64	1273,84
788,81	1277,93
788,99	1259,50
789,16	1267,69
789,34	1245,16
789,52	1263,60
789,69	1222,64
789,87	1236,97
790,04	1331,18
790,22	1298,41
790,39	1236,97
790,57	1292,27
790,74	1292,27
790,92	1245,16
791,09	1265,64
791,27	1245,16
791,44	1265,64
791,62	1275,88
791,79	1275,88
791,97	1286,12
792,15	1290,22
792,32	1241,07
792,50	1226,73
792,67	1187,82
792,85	1288,17
793,02	1236,97
793,20	1288,17
793,37	1220,59
793,55	1292,27
793,72	1273,84
793,90	1222,64
794,07	1294,32
794,25	1282,03
794,42	1255,40
794,60	1290,22
794,77	1318,89
794,95	1257,45
795,12	1294,32
795,30	1271,79
795,47	1269,74
795,65	1271,79
795,82	1284,08
796,00	1206,25
796,17	1312,75
796,34	1208,30
796,52	1239,02
796,69	1232,88
796,87	1263,60
797,04	1302,51
797,22	1202,16
797,39	1230,83
797,57	1220,59
797,74	1300,46
797,92	1228,78
798,09	1245,16
798,27	1296,36
798,44	1230,83
798,62	1290,22
798,79	1253,36
798,96	1216,49
799,14	1298,41
799,31	1230,83
799,49	1234,93
799,66	1265,64
799,84	1284,08
800,01	1232,88
800,19	1273,84
800,36	1310,70
800,53	1243,12
800,71	1316,84
800,88	1306,60
801,06	1198,06
801,23	1296,36
801,41	1249,26
801,58	1208,30
801,75	1343,47
801,93	1179,63
802,10	1279,98
802,28	1304,56
802,45	1275,88
802,63	1322,99
802,80	1273,84
802,97	1298,41
803,15	1288,17
803,32	1320,94
803,50	1241,07
803,67	1292,27
803,84	1296,36
804,02	1232,88
804,19	1290,22
804,37	1236,97
804,54	1310,70
804,71	1277,93
804,89	1271,79
805,06	1222,64
805,24	1267,69
805,41	1286,12
805,58	1271,79
805,76	1259,50
805,93	1265,64
806,10	1292,27
806,28	1249,26
806,45	1306,60
806,63	1279,98
806,80	1277,93
806,97	1255,40
807,15	1273,84
807,32	1282,03
807,49	1267,69
807,67	1265,64
807,84	1282,03
808,01	1232,88
808,19	1167,34
808,36	1271,79
808,54	1308,65
808,71	1255,40
808,88	1245,16
809,06	1187,82
809,23	1271,79
809,40	1282,03
809,58	1232,88
809,75	1224,69
809,92	1349,61
810,10	1253,36
810,27	1263,60
810,44	1275,88
810,62	1300,46
810,79	1236,97
810,96	1325,04
811,14	1257,45
811,31	1308,65
811,48	1185,77
811,66	1300,46
811,83	1322,99
812,00	1253,36
812,18	1263,60
812,35	1345,52
812,52	1286,12
812,69	1214,45
812,87	1206,25
813,04	1288,17
813,21	1265,64
813,39	1325,04
813,56	1302,51
813,73	1298,41
813,91	1265,64
814,08	1236,97
814,25	1273,84
814,42	1241,07
814,60	1265,64
814,77	1314,80
814,94	1218,54
815,12	1232,88
815,29	1271,79
815,46	1366,00
815,63	1224,69
815,81	1261,55
815,98	1304,56
816,15	1271,79
816,33	1241,07
816,50	1304,56
816,67	1275,88
816,84	1310,70
817,02	1288,17
817,19	1261,55
817,36	1236,97
817,53	1298,41
817,71	1255,40
817,88	1228,78
818,05	1273,84
818,22	1234,93
818,40	1271,79
818,57	1294,32
818,74	1222,64
818,91	1300,46
819,09	1286,12
819,26	1370,09
819,43	1259,50
819,60	1249,26
819,78	1322,99
819,95	1134,57
820,12	1286,12
820,29	1208,30
820,47	1284,08
820,64	1265,64
820,81	1267,69
820,98	1259,50
821,15	1251,31
821,33	1226,73
821,50	1316,84
821,67	1265,64
821,84	1284,08
822,02	1265,64
822,19	1265,64
822,36	1339,37
822,53	1357,80
822,70	1236,97
822,88	1228,78
823,05	1247,21
823,22	1236,97
823,39	1271,79
823,56	1279,98
823,74	1183,73
823,91	1216,49
824,08	1243,12
824,25	1187,82
824,42	1322,99
824,60	1269,74
824,77	1308,65
824,94	1220,59
825,11	1279,98
825,28	1288,17
825,45	1300,46
825,63	1245,16
825,80	1257,45
825,97	1296,36
826,14	1279,98
826,31	1267,69
826,48	1294,32
826,66	1249,26
826,83	1243,12
827,00	1206,25
827,17	1204,21
827,34	1210,35
827,51	1249,26
827,69	1265,64
827,86	1263,60
828,03	1263,60
828,20	1327,08
828,37	1196,01
828,54	1282,03
828,71	1196,01
828,89	1241,07
829,06	1308,65
829,23	1263,60
829,40	1267,69
829,57	1269,74
829,74	1234,93
829,91	1208,30
830,09	1275,88
830,26	1292,27
830,43	1193,97
830,60	1239,02
830,77	1302,51
830,94	1271,79
831,11	1224,69
831,28	1255,40
831,46	1265,64
831,63	1208,30
831,80	1230,83
831,97	1306,60
832,14	1257,45
832,31	1269,74
832,48	1310,70
832,65	1271,79
832,82	1232,88
832,99	1228,78
833,17	1279,98
833,34	1306,60
833,51	1273,84
833,68	1273,84
833,85	1218,54
834,02	1247,21
834,19	1249,26
834,36	1230,83
834,53	1304,56
834,70	1304,56
834,87	1230,83
835,04	1290,22
835,22	1263,60
835,39	1275,88
835,56	1224,69
835,73	1245,16
835,90	1249,26
836,07	1298,41
836,24	1331,18
836,41	1290,22
836,58	1304,56
836,75	1269,74
836,92	1265,64
837,09	1273,84
837,26	1187,82
837,43	1300,46
837,60	1228,78
837,77	1304,56
837,94	1234,93
838,12	1265,64
838,29	1247,21
838,46	1226,73
838,63	1363,95
838,80	1183,73
838,97	1314,80
839,14	1304,56
839,31	1220,59
839,48	1290,22
839,65	1304,56
839,82	1271,79
839,99	1267,69
840,16	1259,50
840,33	1234,93
840,50	1284,08
840,67	1247,21
840,84	1275,88
841,01	1314,80
841,18	1241,07
841,35	1251,31
841,52	1265,64
841,69	1320,94
841,86	1343,47
842,03	1155,05
842,20	1296,36
842,37	1318,89
842,54	1198,06
842,71	1222,64
842,88	1241,07
843,05	1288,17
843,22	1204,21
843,39	1224,69
843,56	1234,93
843,73	1214,45
843,90	1230,83
844,07	1212,40
844,24	1267,69
844,41	1234,93
844,58	1300,46
844,75	1294,32
844,92	1290,22
845,09	1351,66
845,26	1245,16
845,43	1214,45
845,60	1302,51
845,77	1212,40
845,94	1306,60
846,10	1236,97
846,27	1189,87
846,44	1228,78
846,61	1304,56
846,78	1216,49
846,95	1279,98
847,12	1298,41
847,29	1294,32
847,46	1320,94
847,63	1265,64
847,80	1265,64
847,97	1241,07
848,14	1257,45
848,31	1322,99
848,48	1241,07
848,65	1253,36
848,82	1169,39
848,98	1298,41
849,15	1290,22
849,32	1273,84
849,49	1298,41
849,66	1263,60
849,83	1249,26
850,00	1247,21
850,17	1292,27
850,34	1257,45
850,51	1239,02
850,68	1318,89
850,85	1234,93
851,01	1279,98
851,18	1290,22
851,35	1273,84
851,52	1222,64
851,69	1312,75
851,86	1296,36
852,03	1247,21
852,20	1312,75
852,37	1322,99
852,53	1296,36
852,70	1304,56
852,87	1284,08
853,04	1245,16
853,21	1277,93
853,38	1275,88
853,55	1279,98
853,72	1224,69
853,89	1269,74
854,05	1232,88
854,22	1239,02
854,39	1245,16
854,56	1298,41
854,73	1181,68
854,90	1308,65
855,07	1265,64
855,23	1279,98
855,40	1298,41
855,57	1191,92
855,74	1318,89
855,91	1267,69
856,08	1247,21
856,25	1198,06
856,41	1234,93
856,58	1292,27
856,75	1335,28
856,92	1282,03
857,09	1304,56
857,26	1269,74
857,42	1230,83
857,59	1304,56
857,76	1310,70
857,93	1263,60
858,10	1236,97
858,27	1249,26
858,43	1368,04
858,60	1234,93
858,77	1308,65
858,94	1368,04
859,11	1318,89
859,27	1286,12
859,44	1216,49
859,61	1200,11
859,78	1329,13
859,95	1245,16
860,12	1255,40
860,28	1236,97
860,45	1279,98
860,62	1273,84
860,79	1308,65
860,95	1320,94
861,12	1247,21
861,29	1269,74
861,46	1241,07
861,63	1245,16
861,79	1273,84
861,96	1239,02
862,13	1290,22
862,30	1288,17
862,47	1249,26
862,63	1261,55
862,80	1357,80
862,97	1257,45
863,14	1374,19
863,30	1267,69
863,47	1361,90
863,64	1234,93
863,81	1275,88
863,97	1284,08
864,14	1271,79
864,31	1282,03
864,48	1290,22
864,65	1261,55
864,81	1249,26
864,98	1245,16
865,15	1228,78
865,32	1247,21
865,48	1216,49
865,65	1255,40
865,82	1370,09
865,98	1255,40
866,15	1322,99
866,32	1265,64
866,49	1189,87
866,65	1296,36
866,82	1333,23
866,99	1222,64
867,16	1241,07
867,32	1177,58
867,49	1251,31
867,66	1290,22
867,83	1273,84
867,99	1167,34
868,16	1312,75
868,33	1271,79
868,49	1212,40
868,66	1275,88
868,83	1296,36
868,99	1265,64
869,16	1288,17
869,33	1277,93
869,50	1230,83
869,66	1290,22
869,83	1214,45
870,00	1257,45
870,16	1306,60
870,33	1314,80
870,50	1343,47
870,66	1259,50
870,83	1271,79
871,00	1257,45
871,17	1271,79
871,33	1210,35
871,50	1241,07
871,67	1253,36
871,83	1271,79
872,00	1273,84
872,17	1265,64
872,33	1302,51
872,50	1304,56
872,67	1253,36
872,83	1298,41
873,00	1269,74
873,17	1304,56
873,33	1202,16
873,50	1204,21
873,67	1363,95
873,83	1288,17
874,00	1300,46
874,16	1279,98
874,33	1325,04
874,50	1241,07
874,66	1224,69
874,83	1222,64
875,00	1267,69
875,16	1273,84
875,33	1222,64
875,50	1335,28
875,66	1292,27
875,83	1239,02
875,99	1310,70
876,16	1296,36
876,33	1308,65
876,49	1288,17
876,66	1210,35
876,83	1257,45
876,99	1261,55
877,16	1271,79
877,32	1218,54
877,49	1300,46
877,66	1357,80
877,82	1277,93
877,99	1259,50
878,15	1232,88
878,32	1247,21
878,49	1284,08
878,65	1249,26
878,82	1245,16
878,98	1222,64
879,15	1292,27
879,32	1239,02
879,48	1234,93
879,65	1314,80
879,81	1279,98
879,98	1253,36
880,15	1169,39
880,31	1249,26
880,48	1263,60
880,64	1255,40
880,81	1327,08
880,97	1269,74
881,14	1259,50
881,31	1236,97
881,47	1255,40
881,64	1247,21
881,80	1282,03
881,97	1298,41
882,13	1265,64
882,30	1288,17
882,47	1255,40
882,63	1263,60
882,80	1314,80
882,96	1243,12
883,13	1306,60
883,29	1282,03
883,46	1314,80
883,62	1263,60
883,79	1286,12
883,95	1243,12
884,12	1302,51
884,29	1290,22
884,45	1277,93
884,62	1277,93
884,78	1322,99
884,95	1259,50
885,11	1308,65
885,28	1306,60
885,44	1306,60
885,61	1261,55
885,77	1318,89
885,94	1187,82
886,10	1296,36
886,27	1335,28
886,43	1306,60
886,60	1239,02
886,76	1286,12
886,93	1204,21
887,09	1273,84
887,26	1298,41
887,42	1308,65
887,59	1196,01
887,75	1261,55
887,92	1337,32
888,08	1273,84
888,25	1257,45
888,41	1290,22
888,58	1292,27
888,74	1302,51
888,91	1257,45
>>>>>End Processed Spectral Data<<<<<
