SpectraSuite Data File
++++++++++++++++++++++++++++++++++++
Date: Sun Apr 03 19:55:29 CEST 2016
User: root
Dark Spectrum Present: No
Reference Spectrum Present: No
Number of Sampled Component Spectra: 1
Spectrometers: USB4C02835
Integration Time (usec): 10000 (USB4C02835)
Spectra Averaged: 1 (USB4C02835)
Boxcar Smoothing: 0 (USB4C02835)
Correct for Electrical Dark: No (USB4C02835)
Strobe/Lamp Enabled: No (USB4C02835)
Correct for Detector Non-linearity: No (USB4C02835)
Correct for Stray Light: No (USB4C02835)
Number of Pixels in Processed Spectrum: 3648
>>>>>Begin Processed Spectral Data<<<<<
177,47	1277,93
177,69	1277,93
177,91	1277,93
178,13	1290,22
178,36	1308,65
178,58	1251,31
178,80	1263,60
179,02	1267,69
179,24	1241,07
179,46	1214,45
179,68	1288,17
179,90	1263,60
180,13	1261,55
180,35	1257,45
180,57	1308,65
180,79	1275,88
181,01	1259,50
181,23	1202,16
181,45	1300,46
181,67	1261,55
181,90	1230,83
182,12	1232,88
182,34	1310,70
182,56	1249,26
182,78	1290,22
183,00	1259,50
183,22	1224,69
183,44	1282,03
183,66	1275,88
183,89	1265,64
184,11	1259,50
184,33	1214,45
184,55	1212,40
184,77	1222,64
184,99	1257,45
185,21	1232,88
185,43	1355,76
185,65	1210,35
185,87	1251,31
186,10	1288,17
186,32	1277,93
186,54	1239,02
186,76	1265,64
186,98	1306,60
187,20	1255,40
187,42	1247,21
187,64	1312,75
187,86	1241,07
188,08	1314,80
188,30	1198,06
188,52	1224,69
188,75	1212,40
188,97	1316,84
189,19	1290,22
189,41	1275,88
189,63	1232,88
189,85	1261,55
190,07	1241,07
190,29	1257,45
190,51	1232,88
190,73	1269,74
190,95	1257,45
191,17	1179,63
191,39	1212,40
191,61	1263,60
191,84	1247,21
192,06	1257,45
192,28	1263,60
192,50	1306,60
192,72	1269,74
192,94	1239,02
193,16	1187,82
193,38	1249,26
193,60	1224,69
193,82	1232,88
194,04	1288,17
194,26	1228,78
194,48	1306,60
194,70	1304,56
194,92	1265,64
195,14	1288,17
195,36	1306,60
195,58	1249,26
195,80	1241,07
196,02	1333,23
196,24	1228,78
196,46	1218,54
196,69	1349,61
196,91	1290,22
197,13	1177,58
197,35	1337,32
197,57	1243,12
197,79	1210,35
198,01	1261,55
198,23	1220,59
198,45	1282,03
198,67	1320,94
198,89	1218,54
199,11	1288,17
199,33	1306,60
199,55	1249,26
199,77	1353,71
199,99	1318,89
200,21	1255,40
200,43	1300,46
200,65	1161,20
200,87	1243,12
201,09	1185,77
201,31	1198,06
201,53	1245,16
201,75	1316,84
201,97	1277,93
202,19	1226,73
202,41	1286,12
202,63	1267,69
202,85	1312,75
203,07	1175,53
203,29	1212,40
203,51	1241,07
203,73	1243,12
203,95	1286,12
204,17	1228,78
204,39	1253,36
204,61	1343,47
204,83	1208,30
205,05	1320,94
205,27	1343,47
205,49	1257,45
205,71	1302,51
205,93	1236,97
206,15	1234,93
206,37	1247,21
206,59	1279,98
206,81	1279,98
207,03	1279,98
207,25	1212,40
207,47	1265,64
207,69	1277,93
207,91	1347,56
208,13	1282,03
208,34	1290,22
208,56	1226,73
208,78	1290,22
209,00	1300,46
209,22	1241,07
209,44	1290,22
209,66	1236,97
209,88	1279,98
210,10	1259,50
210,32	1169,39
210,54	1259,50
210,76	1206,25
210,98	1261,55
211,20	1327,08
211,42	1296,36
211,64	1318,89
211,86	1206,25
212,08	1275,88
212,30	1253,36
212,52	1273,84
212,74	1310,70
212,96	1253,36
213,17	1282,03
213,39	1202,16
213,61	1310,70
213,83	1216,49
214,05	1255,40
214,27	1284,08
214,49	1327,08
214,71	1298,41
214,93	1306,60
215,15	1302,51
215,37	1261,55
215,59	1282,03
215,81	1329,13
216,03	1222,64
216,24	1282,03
216,46	1277,93
216,68	1239,02
216,90	1308,65
217,12	1267,69
217,34	1224,69
217,56	1261,55
217,78	1261,55
218,00	1208,30
218,22	1286,12
218,44	1271,79
218,66	1312,75
218,87	1253,36
219,09	1230,83
219,31	1275,88
219,53	1265,64
219,75	1196,01
219,97	1265,64
220,19	1257,45
220,41	1322,99
220,63	1255,40
220,85	1308,65
221,06	1230,83
221,28	1236,97
221,50	1243,12
221,72	1265,64
221,94	1292,27
222,16	1257,45
222,38	1271,79
222,60	1284,08
222,82	1241,07
223,03	1273,84
223,25	1316,84
223,47	1306,60
223,69	1273,84
223,91	1224,69
224,13	1366,00
224,35	1337,32
224,57	1263,60
224,78	1284,08
225,00	1298,41
225,22	1279,98
225,44	1320,94
225,66	1218,54
225,88	1265,64
226,10	1312,75
226,32	1312,75
226,53	1261,55
226,75	1310,70
226,97	1277,93
227,19	1196,01
227,41	1210,35
227,63	1255,40
227,85	1271,79
228,06	1255,40
228,28	1200,11
228,50	1306,60
228,72	1245,16
228,94	1230,83
229,16	1298,41
229,37	1277,93
229,59	1204,21
229,81	1259,50
230,03	1247,21
230,25	1249,26
230,47	1224,69
230,69	1335,28
230,90	1257,45
231,12	1304,56
231,34	1224,69
231,56	1255,40
231,78	1257,45
232,00	1269,74
232,21	1267,69
232,43	1232,88
232,65	1273,84
232,87	1304,56
233,09	1239,02
233,30	1316,84
233,52	1267,69
233,74	1259,50
233,96	1234,93
234,18	1267,69
234,40	1269,74
234,61	1261,55
234,83	1232,88
235,05	1312,75
235,27	1282,03
235,49	1253,36
235,70	1284,08
235,92	1273,84
236,14	1245,16
236,36	1279,98
236,58	1239,02
236,79	1263,60
237,01	1279,98
237,23	1249,26
237,45	1249,26
237,67	1339,37
237,88	1290,22
238,10	1292,27
238,32	1308,65
238,54	1265,64
238,76	1271,79
238,97	1269,74
239,19	1255,40
239,41	1316,84
239,63	1286,12
239,85	1279,98
240,06	1241,07
240,28	1220,59
240,50	1279,98
240,72	1316,84
240,93	1230,83
241,15	1243,12
241,37	1273,84
241,59	1284,08
241,81	1259,50
242,02	1327,08
242,24	1298,41
242,46	1282,03
242,68	1347,56
242,89	1216,49
243,11	1271,79
243,33	1331,18
243,55	1304,56
243,76	1247,21
243,98	1261,55
244,20	1249,26
244,42	1331,18
244,64	1263,60
244,85	1236,97
245,07	1279,98
245,29	1347,56
245,51	1228,78
245,72	1359,85
245,94	1271,79
246,16	1275,88
246,38	1288,17
246,59	1173,49
246,81	1304,56
247,03	1216,49
247,24	1218,54
247,46	1298,41
247,68	1320,94
247,90	1253,36
248,11	1273,84
248,33	1331,18
248,55	1294,32
248,77	1269,74
248,98	1296,36
249,20	1335,28
249,42	1282,03
249,64	1261,55
249,85	1325,04
250,07	1308,65
250,29	1322,99
250,50	1183,73
250,72	1288,17
250,94	1308,65
251,16	1218,54
251,37	1282,03
251,59	1314,80
251,81	1247,21
252,02	1232,88
252,24	1253,36
252,46	1312,75
252,68	1269,74
252,89	1273,84
253,11	1273,84
253,33	1259,50
253,54	1374,19
253,76	1312,75
253,98	1173,49
254,20	1226,73
254,41	1263,60
254,63	1335,28
254,85	1318,89
255,06	1249,26
255,28	1251,31
255,50	1196,01
255,71	1243,12
255,93	1306,60
256,15	1210,35
256,36	1239,02
256,58	1282,03
256,80	1288,17
257,02	1236,97
257,23	1241,07
257,45	1265,64
257,67	1245,16
257,88	1263,60
258,10	1316,84
258,32	1265,64
258,53	1251,31
258,75	1286,12
258,97	1310,70
259,18	1279,98
259,40	1189,87
259,62	1249,26
259,83	1214,45
260,05	1236,97
260,27	1247,21
260,48	1239,02
260,70	1269,74
260,92	1239,02
261,13	1277,93
261,35	1251,31
261,57	1191,92
261,78	1239,02
262,00	1294,32
262,22	1243,12
262,43	1241,07
262,65	1298,41
262,86	1382,38
263,08	1265,64
263,30	1269,74
263,51	1212,40
263,73	1275,88
263,95	1277,93
264,16	1296,36
264,38	1212,40
264,60	1259,50
264,81	1306,60
265,03	1265,64
265,25	1275,88
265,46	1282,03
265,68	1320,94
265,89	1267,69
266,11	1224,69
266,33	1296,36
266,54	1232,88
266,76	1279,98
266,98	1312,75
267,19	1316,84
267,41	1265,64
267,62	1247,21
267,84	1306,60
268,06	1322,99
268,27	1214,45
268,49	1200,11
268,70	1286,12
268,92	1239,02
269,14	1243,12
269,35	1200,11
269,57	1214,45
269,79	1239,02
270,00	1288,17
270,22	1245,16
270,43	1277,93
270,65	1306,60
270,87	1300,46
271,08	1247,21
271,30	1206,25
271,51	1259,50
271,73	1288,17
271,95	1267,69
272,16	1308,65
272,38	1220,59
272,59	1322,99
272,81	1249,26
273,02	1292,27
273,24	1265,64
273,46	1245,16
273,67	1236,97
273,89	1251,31
274,10	1251,31
274,32	1212,40
274,54	1224,69
274,75	1200,11
274,97	1255,40
275,18	1298,41
275,40	1312,75
275,61	1282,03
275,83	1220,59
276,05	1265,64
276,26	1351,66
276,48	1286,12
276,69	1232,88
276,91	1200,11
277,12	1361,90
277,34	1232,88
277,55	1284,08
277,77	1347,56
277,99	1320,94
278,20	1241,07
278,42	1296,36
278,63	1224,69
278,85	1288,17
279,06	1284,08
279,28	1249,26
279,49	1288,17
279,71	1357,80
279,93	1298,41
280,14	1236,97
280,36	1224,69
280,57	1249,26
280,79	1273,84
281,00	1306,60
281,22	1279,98
281,43	1290,22
281,65	1290,22
281,86	1286,12
282,08	1263,60
282,29	1351,66
282,51	1322,99
282,73	1271,79
282,94	1236,97
283,16	1257,45
283,37	1271,79
283,59	1232,88
283,80	1220,59
284,02	1218,54
284,23	1232,88
284,45	1265,64
284,66	1263,60
284,88	1263,60
285,09	1257,45
285,31	1288,17
285,52	1200,11
285,74	1306,60
285,95	1306,60
286,17	1298,41
286,38	1257,45
286,60	1253,36
286,81	1226,73
287,03	1271,79
287,24	1224,69
287,46	1279,98
287,67	1243,12
287,89	1265,64
288,10	1308,65
288,32	1247,21
288,53	1247,21
288,75	1286,12
288,96	1286,12
289,18	1263,60
289,39	1234,93
289,61	1310,70
289,82	1214,45
290,04	1318,89
290,25	1320,94
290,47	1302,51
290,68	1277,93
290,90	1335,28
291,11	1267,69
291,33	1277,93
291,54	1286,12
291,76	1314,80
291,97	1310,70
292,18	1312,75
292,40	1230,83
292,61	1257,45
292,83	1249,26
293,04	1290,22
293,26	1271,79
293,47	1288,17
293,69	1177,58
293,90	1296,36
294,12	1314,80
294,33	1206,25
294,55	1255,40
294,76	1259,50
294,97	1312,75
295,19	1214,45
295,40	1236,97
295,62	1245,16
295,83	1308,65
296,05	1329,13
296,26	1335,28
296,48	1261,55
296,69	1255,40
296,90	1212,40
297,12	1234,93
297,33	1222,64
297,55	1226,73
297,76	1179,63
297,98	1208,30
298,19	1273,84
298,41	1304,56
298,62	1329,13
298,83	1218,54
299,05	1220,59
299,26	1253,36
299,48	1243,12
299,69	1273,84
299,90	1255,40
300,12	1261,55
300,33	1298,41
300,55	1273,84
300,76	1239,02
300,98	1241,07
301,19	1265,64
301,40	1204,21
301,62	1288,17
301,83	1232,88
302,05	1277,93
302,26	1275,88
302,47	1306,60
302,69	1210,35
302,90	1271,79
303,12	1290,22
303,33	1236,97
303,54	1312,75
303,76	1290,22
303,97	1267,69
304,19	1296,36
304,40	1226,73
304,61	1282,03
304,83	1216,49
305,04	1331,18
305,26	1357,80
305,47	1247,21
305,68	1165,29
305,90	1273,84
306,11	1232,88
306,33	1200,11
306,54	1208,30
306,75	1263,60
306,97	1273,84
307,18	1249,26
307,39	1271,79
307,61	1279,98
307,82	1277,93
308,04	1314,80
308,25	1243,12
308,46	1300,46
308,68	1363,95
308,89	1277,93
309,10	1226,73
309,32	1249,26
309,53	1249,26
309,74	1294,32
309,96	1282,03
310,17	1234,93
310,39	1255,40
310,60	1298,41
310,81	1267,69
311,03	1253,36
311,24	1277,93
311,45	1232,88
311,67	1271,79
311,88	1333,23
312,09	1208,30
312,31	1257,45
312,52	1304,56
312,73	1265,64
312,95	1232,88
313,16	1265,64
313,37	1294,32
313,59	1236,97
313,80	1290,22
314,01	1296,36
314,23	1288,17
314,44	1263,60
314,65	1314,80
314,87	1249,26
315,08	1222,64
315,29	1294,32
315,51	1230,83
315,72	1247,21
315,93	1341,42
316,15	1243,12
316,36	1234,93
316,57	1214,45
316,79	1306,60
317,00	1267,69
317,21	1310,70
317,43	1318,89
317,64	1322,99
317,85	1296,36
318,07	1263,60
318,28	1204,21
318,49	1210,35
318,70	1288,17
318,92	1275,88
319,13	1322,99
319,34	1243,12
319,56	1193,97
319,77	1212,40
319,98	1279,98
320,20	1243,12
320,41	1177,58
320,62	1282,03
320,83	1316,84
321,05	1271,79
321,26	1236,97
321,47	1196,01
321,69	1249,26
321,90	1202,16
322,11	1310,70
322,32	1255,40
322,54	1353,71
322,75	1236,97
322,96	1249,26
323,18	1290,22
323,39	1220,59
323,60	1271,79
323,81	1267,69
324,03	1318,89
324,24	1257,45
324,45	1288,17
324,66	1245,16
324,88	1241,07
325,09	1288,17
325,30	1300,46
325,52	1310,70
325,73	1263,60
325,94	1179,63
326,15	1279,98
326,37	1300,46
326,58	1253,36
326,79	1302,51
327,00	1236,97
327,22	1284,08
327,43	1273,84
327,64	1277,93
327,85	1261,55
328,07	1185,77
328,28	1247,21
328,49	1296,36
328,70	1230,83
328,92	1277,93
329,13	1300,46
329,34	1265,64
329,55	1202,16
329,76	1265,64
329,98	1226,73
330,19	1322,99
330,40	1198,06
330,61	1284,08
330,83	1279,98
331,04	1247,21
331,25	1316,84
331,46	1294,32
331,68	1202,16
331,89	1288,17
332,10	1247,21
332,31	1273,84
332,52	1294,32
332,74	1269,74
332,95	1314,80
333,16	1257,45
333,37	1271,79
333,58	1255,40
333,80	1265,64
334,01	1325,04
334,22	1288,17
334,43	1320,94
334,64	1263,60
334,86	1249,26
335,07	1218,54
335,28	1234,93
335,49	1261,55
335,70	1247,21
335,92	1265,64
336,13	1306,60
336,34	1243,12
336,55	1288,17
336,76	1277,93
336,98	1271,79
337,19	1273,84
337,40	1271,79
337,61	1279,98
337,82	1279,98
338,04	1320,94
338,25	1296,36
338,46	1255,40
338,67	1239,02
338,88	1286,12
339,09	1263,60
339,31	1247,21
339,52	1302,51
339,73	1220,59
339,94	1288,17
340,15	1249,26
340,36	1265,64
340,58	1239,02
340,79	1255,40
341,00	1277,93
341,21	1320,94
341,42	1208,30
341,63	1273,84
341,85	1288,17
342,06	1249,26
342,27	1286,12
342,48	1255,40
342,69	1304,56
342,90	1282,03
343,12	1259,50
343,33	1251,31
343,54	1228,78
343,75	1200,11
343,96	1228,78
344,17	1269,74
344,38	1333,23
344,60	1239,02
344,81	1257,45
345,02	1298,41
345,23	1310,70
345,44	1284,08
345,65	1228,78
345,86	1327,08
346,07	1294,32
346,29	1224,69
346,50	1304,56
346,71	1320,94
346,92	1288,17
347,13	1167,34
347,34	1318,89
347,55	1361,90
347,76	1216,49
347,98	1220,59
348,19	1261,55
348,40	1282,03
348,61	1296,36
348,82	1200,11
349,03	1337,32
349,24	1249,26
349,45	1257,45
349,66	1271,79
349,88	1302,51
350,09	1320,94
350,30	1327,08
350,51	1277,93
350,72	1322,99
350,93	1220,59
351,14	1290,22
351,35	1265,64
351,56	1300,46
351,77	1286,12
351,99	1234,93
352,20	1236,97
352,41	1236,97
352,62	1277,93
352,83	1382,38
353,04	1255,40
353,25	1273,84
353,46	1302,51
353,67	1245,16
353,88	1269,74
354,09	1202,16
354,30	1226,73
354,52	1275,88
354,73	1277,93
354,94	1279,98
355,15	1292,27
355,36	1271,79
355,57	1230,83
355,78	1320,94
355,99	1304,56
356,20	1249,26
356,41	1212,40
356,62	1198,06
356,83	1312,75
357,04	1320,94
357,25	1331,18
357,46	1236,97
357,68	1282,03
357,89	1263,60
358,10	1261,55
358,31	1273,84
358,52	1189,87
358,73	1275,88
358,94	1273,84
359,15	1320,94
359,36	1269,74
359,57	1210,35
359,78	1208,30
359,99	1243,12
360,20	1298,41
360,41	1259,50
360,62	1267,69
360,83	1239,02
361,04	1294,32
361,25	1263,60
361,46	1251,31
361,67	1294,32
361,88	1259,50
362,09	1310,70
362,30	1339,37
362,51	1216,49
362,72	1279,98
362,93	1259,50
363,14	1277,93
363,35	1265,64
363,56	1298,41
363,78	1222,64
363,99	1263,60
364,20	1255,40
364,41	1302,51
364,62	1292,27
364,83	1308,65
365,04	1298,41
365,25	1292,27
365,46	1290,22
365,67	1292,27
365,88	1304,56
366,09	1351,66
366,30	1247,21
366,51	1208,30
366,72	1210,35
366,93	1224,69
367,14	1271,79
367,35	1271,79
367,56	1286,12
367,77	1269,74
367,98	1284,08
368,18	1312,75
368,39	1279,98
368,60	1263,60
368,81	1284,08
369,02	1273,84
369,23	1249,26
369,44	1304,56
369,65	1249,26
369,86	1296,36
370,07	1263,60
370,28	1253,36
370,49	1277,93
370,70	1277,93
370,91	1239,02
371,12	1296,36
371,33	1296,36
371,54	1216,49
371,75	1253,36
371,96	1290,22
372,17	1259,50
372,38	1216,49
372,59	1185,77
372,80	1226,73
373,01	1253,36
373,22	1271,79
373,43	1251,31
373,64	1202,16
373,85	1241,07
374,06	1263,60
374,26	1404,91
374,47	1271,79
374,68	1273,84
374,89	1232,88
375,10	1288,17
375,31	1267,69
375,52	1290,22
375,73	1253,36
375,94	1236,97
376,15	1251,31
376,36	1298,41
376,57	1294,32
376,78	1282,03
376,99	1259,50
377,20	1314,80
377,40	1290,22
377,61	1261,55
377,82	1333,23
378,03	1236,97
378,24	1251,31
378,45	1241,07
378,66	1220,59
378,87	1304,56
379,08	1261,55
379,29	1247,21
379,50	1331,18
379,71	1232,88
379,91	1259,50
380,12	1296,36
380,33	1347,56
380,54	1202,16
380,75	1263,60
380,96	1279,98
381,17	1316,84
381,38	1243,12
381,59	1220,59
381,80	1296,36
382,00	1267,69
382,21	1298,41
382,42	1290,22
382,63	1224,69
382,84	1216,49
383,05	1312,75
383,26	1247,21
383,47	1298,41
383,68	1302,51
383,88	1320,94
384,09	1343,47
384,30	1196,01
384,51	1304,56
384,72	1294,32
384,93	1259,50
385,14	1335,28
385,35	1269,74
385,55	1236,97
385,76	1318,89
385,97	1300,46
386,18	1302,51
386,39	1277,93
386,60	1214,45
386,81	1304,56
387,02	1263,60
387,22	1222,64
387,43	1304,56
387,64	1304,56
387,85	1329,13
388,06	1333,23
388,27	1288,17
388,48	1265,64
388,68	1304,56
388,89	1290,22
389,10	1294,32
389,31	1261,55
389,52	1230,83
389,73	1228,78
389,93	1271,79
390,14	1269,74
390,35	1304,56
390,56	1218,54
390,77	1282,03
390,98	1292,27
391,18	1214,45
391,39	1241,07
391,60	1294,32
391,81	1263,60
392,02	1241,07
392,23	1282,03
392,43	1279,98
392,64	1263,60
392,85	1269,74
393,06	1261,55
393,27	1292,27
393,47	1261,55
393,68	1206,25
393,89	1265,64
394,10	1265,64
394,31	1304,56
394,52	1206,25
394,72	1253,36
394,93	1284,08
395,14	1261,55
395,35	1275,88
395,56	1243,12
395,76	1269,74
395,97	1239,02
396,18	1196,01
396,39	1255,40
396,60	1298,41
396,80	1382,38
397,01	1284,08
397,22	1286,12
397,43	1279,98
397,64	1249,26
397,84	1241,07
398,05	1292,27
398,26	1247,21
398,47	1261,55
398,67	1298,41
398,88	1306,60
399,09	1308,65
399,30	1198,06
399,51	1320,94
399,71	1290,22
399,92	1247,21
400,13	1290,22
400,34	1212,40
400,54	1335,28
400,75	1284,08
400,96	1257,45
401,17	1292,27
401,37	1196,01
401,58	1239,02
401,79	1200,11
402,00	1212,40
402,21	1284,08
402,41	1222,64
402,62	1230,83
402,83	1226,73
403,04	1253,36
403,24	1288,17
403,45	1241,07
403,66	1357,80
403,87	1372,14
404,07	1279,98
404,28	1298,41
404,49	1265,64
404,70	1308,65
404,90	1185,77
405,11	1284,08
405,32	1247,21
405,52	1251,31
405,73	1282,03
405,94	1292,27
406,15	1236,97
406,35	1327,08
406,56	1191,92
406,77	1222,64
406,98	1306,60
407,18	1222,64
407,39	1263,60
407,60	1279,98
407,80	1316,84
408,01	1265,64
408,22	1253,36
408,43	1359,85
408,63	1271,79
408,84	1198,06
409,05	1265,64
409,25	1294,32
409,46	1288,17
409,67	1312,75
409,88	1222,64
410,08	1253,36
410,29	1325,04
410,50	1257,45
410,70	1255,40
410,91	1263,60
411,12	1243,12
411,32	1322,99
411,53	1208,30
411,74	1318,89
411,95	1226,73
412,15	1259,50
412,36	1290,22
412,57	1273,84
412,77	1204,21
412,98	1261,55
413,19	1257,45
413,39	1216,49
413,60	1298,41
413,81	1337,32
414,01	1273,84
414,22	1265,64
414,43	1230,83
414,63	1247,21
414,84	1288,17
415,05	1261,55
415,25	1247,21
415,46	1286,12
415,67	1239,02
415,87	1216,49
416,08	1208,30
416,29	1273,84
416,49	1372,14
416,70	1224,69
416,91	1282,03
417,11	1243,12
417,32	1290,22
417,53	1239,02
417,73	1267,69
417,94	1232,88
418,15	1200,11
418,35	1210,35
418,56	1308,65
418,77	1279,98
418,97	1267,69
419,18	1318,89
419,38	1257,45
419,59	1353,71
419,80	1331,18
420,00	1261,55
420,21	1249,26
420,42	1239,02
420,62	1261,55
420,83	1279,98
421,04	1216,49
421,24	1236,97
421,45	1310,70
421,65	1322,99
421,86	1288,17
422,07	1218,54
422,27	1337,32
422,48	1243,12
422,69	1249,26
422,89	1282,03
423,10	1267,69
423,30	1249,26
423,51	1339,37
423,72	1243,12
423,92	1337,32
424,13	1282,03
424,33	1277,93
424,54	1204,21
424,75	1243,12
424,95	1241,07
425,16	1251,31
425,36	1290,22
425,57	1265,64
425,78	1247,21
425,98	1230,83
426,19	1247,21
426,39	1267,69
426,60	1273,84
426,81	1263,60
427,01	1320,94
427,22	1255,40
427,42	1228,78
427,63	1230,83
427,83	1308,65
428,04	1284,08
428,25	1308,65
428,45	1286,12
428,66	1243,12
428,86	1239,02
429,07	1257,45
429,28	1296,36
429,48	1228,78
429,69	1265,64
429,89	1327,08
430,10	1187,82
430,30	1243,12
430,51	1216,49
430,71	1279,98
430,92	1232,88
431,13	1208,30
431,33	1265,64
431,54	1265,64
431,74	1298,41
431,95	1257,45
432,15	1232,88
432,36	1290,22
432,56	1249,26
432,77	1245,16
432,98	1314,80
433,18	1279,98
433,39	1267,69
433,59	1257,45
433,80	1200,11
434,00	1314,80
434,21	1253,36
434,41	1296,36
434,62	1298,41
434,82	1255,40
435,03	1304,56
435,23	1241,07
435,44	1302,51
435,64	1341,42
435,85	1282,03
436,06	1249,26
436,26	1273,84
436,47	1310,70
436,67	1220,59
436,88	1239,02
437,08	1279,98
437,29	1245,16
437,49	1318,89
437,70	1290,22
437,90	1296,36
438,11	1368,04
438,31	1271,79
438,52	1325,04
438,72	1265,64
438,93	1198,06
439,13	1347,56
439,34	1247,21
439,54	1284,08
439,75	1320,94
439,95	1275,88
440,16	1273,84
440,36	1341,42
440,57	1284,08
440,77	1239,02
440,98	1257,45
441,18	1247,21
441,39	1294,32
441,59	1296,36
441,80	1292,27
442,00	1179,63
442,21	1247,21
442,41	1257,45
442,62	1275,88
442,82	1327,08
443,02	1259,50
443,23	1273,84
443,43	1298,41
443,64	1181,68
443,84	1296,36
444,05	1265,64
444,25	1185,77
444,46	1312,75
444,66	1183,73
444,87	1239,02
445,07	1249,26
445,28	1267,69
445,48	1273,84
445,69	1292,27
445,89	1339,37
446,09	1185,77
446,30	1275,88
446,50	1300,46
446,71	1308,65
446,91	1370,09
447,12	1320,94
447,32	1310,70
447,53	1306,60
447,73	1259,50
447,93	1216,49
448,14	1277,93
448,34	1282,03
448,55	1312,75
448,75	1296,36
448,96	1202,16
449,16	1208,30
449,36	1263,60
449,57	1239,02
449,77	1273,84
449,98	1288,17
450,18	1325,04
450,39	1228,78
450,59	1279,98
450,79	1263,60
451,00	1288,17
451,20	1259,50
451,41	1306,60
451,61	1251,31
451,81	1228,78
452,02	1277,93
452,22	1279,98
452,43	1259,50
452,63	1253,36
452,84	1253,36
453,04	1366,00
453,24	1265,64
453,45	1302,51
453,65	1271,79
453,86	1316,84
454,06	1322,99
454,26	1298,41
454,47	1220,59
454,67	1294,32
454,87	1284,08
455,08	1157,10
455,28	1327,08
455,49	1249,26
455,69	1267,69
455,89	1282,03
456,10	1140,72
456,30	1325,04
456,51	1271,79
456,71	1259,50
456,91	1312,75
457,12	1392,62
457,32	1372,14
457,52	1267,69
457,73	1290,22
457,93	1277,93
458,14	1302,51
458,34	1247,21
458,54	1275,88
458,75	1282,03
458,95	1247,21
459,15	1288,17
459,36	1232,88
459,56	1322,99
459,76	1269,74
459,97	1206,25
460,17	1261,55
460,37	1265,64
460,58	1255,40
460,78	1351,66
460,99	1310,70
461,19	1333,23
461,39	1253,36
461,60	1261,55
461,80	1351,66
462,00	1312,75
462,21	1214,45
462,41	1249,26
462,61	1257,45
462,82	1296,36
463,02	1232,88
463,22	1249,26
463,43	1314,80
463,63	1284,08
463,83	1255,40
464,04	1273,84
464,24	1271,79
464,44	1230,83
464,64	1273,84
464,85	1282,03
465,05	1193,97
465,25	1300,46
465,46	1318,89
465,66	1296,36
465,86	1288,17
466,07	1339,37
466,27	1282,03
466,47	1263,60
466,68	1322,99
466,88	1333,23
467,08	1257,45
467,29	1284,08
467,49	1175,53
467,69	1251,31
467,89	1257,45
468,10	1331,18
468,30	1302,51
468,50	1325,04
468,71	1294,32
468,91	1277,93
469,11	1243,12
469,31	1245,16
469,52	1290,22
469,72	1277,93
469,92	1294,32
470,13	1261,55
470,33	1234,93
470,53	1226,73
470,73	1228,78
470,94	1249,26
471,14	1249,26
471,34	1290,22
471,54	1249,26
471,75	1265,64
471,95	1304,56
472,15	1245,16
472,36	1263,60
472,56	1316,84
472,76	1296,36
472,96	1304,56
473,17	1253,36
473,37	1325,04
473,57	1282,03
473,77	1290,22
473,98	1288,17
474,18	1331,18
474,38	1236,97
474,58	1273,84
474,79	1294,32
474,99	1279,98
475,19	1275,88
475,39	1288,17
475,60	1318,89
475,80	1267,69
476,00	1271,79
476,20	1282,03
476,41	1271,79
476,61	1284,08
476,81	1361,90
477,01	1253,36
477,21	1298,41
477,42	1257,45
477,62	1300,46
477,82	1277,93
478,02	1288,17
478,23	1304,56
478,43	1230,83
478,63	1277,93
478,83	1263,60
479,03	1322,99
479,24	1204,21
479,44	1284,08
479,64	1253,36
479,84	1241,07
480,04	1259,50
480,25	1224,69
480,45	1230,83
480,65	1279,98
480,85	1277,93
481,06	1296,36
481,26	1239,02
481,46	1318,89
481,66	1322,99
481,86	1304,56
482,06	1286,12
482,27	1273,84
482,47	1261,55
482,67	1263,60
482,87	1265,64
483,07	1263,60
483,28	1228,78
483,48	1310,70
483,68	1210,35
483,88	1294,32
484,08	1275,88
484,29	1239,02
484,49	1273,84
484,69	1191,92
484,89	1253,36
485,09	1277,93
485,29	1329,13
485,50	1298,41
485,70	1243,12
485,90	1249,26
486,10	1265,64
486,30	1236,97
486,50	1265,64
486,71	1200,11
486,91	1320,94
487,11	1150,96
487,31	1308,65
487,51	1327,08
487,71	1183,73
487,91	1269,74
488,12	1296,36
488,32	1318,89
488,52	1343,47
488,72	1247,21
488,92	1298,41
489,12	1318,89
489,32	1232,88
489,53	1286,12
489,73	1292,27
489,93	1310,70
490,13	1218,54
490,33	1224,69
490,53	1239,02
490,73	1296,36
490,94	1245,16
491,14	1249,26
491,34	1294,32
491,54	1296,36
491,74	1318,89
491,94	1232,88
492,14	1257,45
492,34	1224,69
492,54	1253,36
492,75	1312,75
492,95	1279,98
493,15	1333,23
493,35	1257,45
493,55	1216,49
493,75	1245,16
493,95	1265,64
494,15	1265,64
494,35	1206,25
494,56	1218,54
494,76	1363,95
494,96	1292,27
495,16	1277,93
495,36	1325,04
495,56	1267,69
495,76	1228,78
495,96	1320,94
496,16	1300,46
496,36	1224,69
496,56	1279,98
496,77	1290,22
496,97	1224,69
497,17	1304,56
497,37	1273,84
497,57	1339,37
497,77	1318,89
497,97	1298,41
498,17	1269,74
498,37	1249,26
498,57	1269,74
498,77	1259,50
498,97	1191,92
499,17	1314,80
499,38	1267,69
499,58	1193,97
499,78	1198,06
499,98	1286,12
500,18	1232,88
500,38	1267,69
500,58	1288,17
500,78	1318,89
500,98	1267,69
501,18	1214,45
501,38	1288,17
501,58	1175,53
501,78	1265,64
501,98	1222,64
502,18	1314,80
502,38	1292,27
502,58	1255,40
502,78	1300,46
502,98	1290,22
503,18	1327,08
503,38	1294,32
503,59	1271,79
503,79	1220,59
503,99	1273,84
504,19	1259,50
504,39	1302,51
504,59	1296,36
504,79	1247,21
504,99	1253,36
505,19	1290,22
505,39	1288,17
505,59	1325,04
505,79	1288,17
505,99	1290,22
506,19	1257,45
506,39	1257,45
506,59	1341,42
506,79	1263,60
506,99	1279,98
507,19	1275,88
507,39	1251,31
507,59	1339,37
507,79	1261,55
507,99	1327,08
508,19	1224,69
508,39	1290,22
508,59	1234,93
508,79	1279,98
508,99	1265,64
509,19	1310,70
509,39	1241,07
509,59	1308,65
509,79	1263,60
509,99	1312,75
510,19	1177,58
510,39	1298,41
510,59	1277,93
510,79	1273,84
510,99	1269,74
511,19	1308,65
511,39	1306,60
511,59	1372,14
511,79	1263,60
511,99	1273,84
512,19	1343,47
512,38	1318,89
512,58	1267,69
512,78	1267,69
512,98	1245,16
513,18	1265,64
513,38	1251,31
513,58	1347,56
513,78	1292,27
513,98	1345,52
514,18	1282,03
514,38	1286,12
514,58	1282,03
514,78	1249,26
514,98	1275,88
515,18	1267,69
515,38	1245,16
515,58	1241,07
515,78	1271,79
515,98	1239,02
516,18	1271,79
516,38	1337,32
516,57	1284,08
516,77	1302,51
516,97	1347,56
517,17	1294,32
517,37	1279,98
517,57	1263,60
517,77	1314,80
517,97	1312,75
518,17	1284,08
518,37	1279,98
518,57	1175,53
518,77	1226,73
518,97	1355,76
519,16	1329,13
519,36	1239,02
519,56	1228,78
519,76	1265,64
519,96	1374,19
520,16	1271,79
520,36	1257,45
520,56	1292,27
520,76	1286,12
520,96	1226,73
521,16	1279,98
521,35	1290,22
521,55	1314,80
521,75	1255,40
521,95	1267,69
522,15	1290,22
522,35	1286,12
522,55	1241,07
522,75	1333,23
522,95	1261,55
523,14	1292,27
523,34	1314,80
523,54	1249,26
523,74	1253,36
523,94	1380,33
524,14	1239,02
524,34	1282,03
524,54	1275,88
524,73	1282,03
524,93	1269,74
525,13	1251,31
525,33	1282,03
525,53	1245,16
525,73	1263,60
525,93	1304,56
526,13	1261,55
526,32	1310,70
526,52	1239,02
526,72	1298,41
526,92	1212,40
527,12	1271,79
527,32	1196,01
527,52	1253,36
527,71	1339,37
527,91	1263,60
528,11	1284,08
528,31	1335,28
528,51	1284,08
528,71	1241,07
528,90	1310,70
529,10	1241,07
529,30	1249,26
529,50	1224,69
529,70	1318,89
529,90	1255,40
530,09	1273,84
530,29	1302,51
530,49	1298,41
530,69	1304,56
530,89	1189,87
531,09	1273,84
531,28	1249,26
531,48	1239,02
531,68	1263,60
531,88	1308,65
532,08	1232,88
532,28	1202,16
532,47	1290,22
532,67	1279,98
532,87	1239,02
533,07	1243,12
533,27	1304,56
533,46	1288,17
533,66	1267,69
533,86	1282,03
534,06	1257,45
534,26	1331,18
534,45	1277,93
534,65	1318,89
534,85	1343,47
535,05	1265,64
535,25	1290,22
535,44	1359,85
535,64	1316,84
535,84	1343,47
536,04	1282,03
536,24	1271,79
536,43	1286,12
536,63	1288,17
536,83	1294,32
537,03	1288,17
537,22	1277,93
537,42	1267,69
537,62	1275,88
537,82	1241,07
538,02	1241,07
538,21	1249,26
538,41	1253,36
538,61	1312,75
538,81	1273,84
539,00	1261,55
539,20	1306,60
539,40	1247,21
539,60	1255,40
539,79	1310,70
539,99	1279,98
540,19	1251,31
540,39	1224,69
540,58	1282,03
540,78	1353,71
540,98	1247,21
541,18	1355,76
541,37	1290,22
541,57	1306,60
541,77	1304,56
541,97	1228,78
542,16	1236,97
542,36	1335,28
542,56	1288,17
542,76	1300,46
542,95	1282,03
543,15	1279,98
543,35	1304,56
543,54	1241,07
543,74	1302,51
543,94	1288,17
544,14	1282,03
544,33	1255,40
544,53	1222,64
544,73	1310,70
544,93	1279,98
545,12	1318,89
545,32	1308,65
545,52	1261,55
545,71	1230,83
545,91	1245,16
546,11	1273,84
546,30	1288,17
546,50	1245,16
546,70	1292,27
546,90	1284,08
547,09	1355,76
547,29	1200,11
547,49	1269,74
547,68	1290,22
547,88	1236,97
548,08	1306,60
548,27	1368,04
548,47	1271,79
548,67	1263,60
548,87	1298,41
549,06	1294,32
549,26	1339,37
549,46	1265,64
549,65	1261,55
549,85	1275,88
550,05	1277,93
550,24	1314,80
550,44	1232,88
550,64	1265,64
550,83	1247,21
551,03	1290,22
551,23	1308,65
551,42	1327,08
551,62	1335,28
551,82	1298,41
552,01	1271,79
552,21	1236,97
552,41	1245,16
552,60	1284,08
552,80	1236,97
553,00	1300,46
553,19	1279,98
553,39	1255,40
553,59	1261,55
553,78	1273,84
553,98	1298,41
554,17	1345,52
554,37	1236,97
554,57	1308,65
554,76	1249,26
554,96	1263,60
555,16	1234,93
555,35	1363,95
555,55	1261,55
555,75	1273,84
555,94	1210,35
556,14	1290,22
556,33	1273,84
556,53	1267,69
556,73	1269,74
556,92	1255,40
557,12	1347,56
557,32	1214,45
557,51	1331,18
557,71	1263,60
557,90	1333,23
558,10	1288,17
558,30	1222,64
558,49	1275,88
558,69	1339,37
558,88	1277,93
559,08	1341,42
559,28	1181,68
559,47	1261,55
559,67	1257,45
559,86	1277,93
560,06	1277,93
560,26	1236,97
560,45	1249,26
560,65	1267,69
560,84	1239,02
561,04	1226,73
561,24	1204,21
561,43	1265,64
561,63	1267,69
561,82	1284,08
562,02	1271,79
562,22	1282,03
562,41	1243,12
562,61	1290,22
562,80	1339,37
563,00	1275,88
563,19	1282,03
563,39	1265,64
563,59	1284,08
563,78	1347,56
563,98	1298,41
564,17	1273,84
564,37	1257,45
564,56	1382,38
564,76	1302,51
564,96	1316,84
565,15	1224,69
565,35	1314,80
565,54	1277,93
565,74	1277,93
565,93	1331,18
566,13	1245,16
566,32	1292,27
566,52	1243,12
566,71	1331,18
566,91	1298,41
567,11	1273,84
567,30	1284,08
567,50	1251,31
567,69	1263,60
567,89	1333,23
568,08	1230,83
568,28	1243,12
568,47	1263,60
568,67	1263,60
568,86	1300,46
569,06	1277,93
569,25	1353,71
569,45	1282,03
569,64	1220,59
569,84	1341,42
570,04	1234,93
570,23	1263,60
570,43	1261,55
570,62	1271,79
570,82	1390,57
571,01	1243,12
571,21	1259,50
571,40	1265,64
571,60	1316,84
571,79	1359,85
571,99	1277,93
572,18	1265,64
572,38	1198,06
572,57	1351,66
572,77	1298,41
572,96	1245,16
573,16	1253,36
573,35	1333,23
573,55	1302,51
573,74	1329,13
573,94	1224,69
574,13	1218,54
574,33	1327,08
574,52	1320,94
574,71	1249,26
574,91	1322,99
575,10	1239,02
575,30	1275,88
575,49	1198,06
575,69	1284,08
575,88	1318,89
576,08	1296,36
576,27	1261,55
576,47	1345,52
576,66	1292,27
576,86	1241,07
577,05	1349,61
577,25	1331,18
577,44	1341,42
577,64	1302,51
577,83	1255,40
578,02	1226,73
578,22	1341,42
578,41	1218,54
578,61	1288,17
578,80	1298,41
579,00	1290,22
579,19	1359,85
579,39	1255,40
579,58	1265,64
579,77	1322,99
579,97	1269,74
580,16	1273,84
580,36	1296,36
580,55	1214,45
580,75	1284,08
580,94	1265,64
581,13	1298,41
581,33	1275,88
581,52	1302,51
581,72	1331,18
581,91	1279,98
582,11	1232,88
582,30	1249,26
582,49	1296,36
582,69	1312,75
582,88	1329,13
583,08	1251,31
583,27	1288,17
583,47	1288,17
583,66	1288,17
583,85	1245,16
584,05	1314,80
584,24	1226,73
584,44	1255,40
584,63	1333,23
584,82	1374,19
585,02	1275,88
585,21	1288,17
585,41	1257,45
585,60	1228,78
585,79	1257,45
585,99	1314,80
586,18	1345,52
586,37	1345,52
586,57	1277,93
586,76	1279,98
586,96	1298,41
587,15	1255,40
587,34	1282,03
587,54	1193,97
587,73	1288,17
587,93	1279,98
588,12	1343,47
588,31	1245,16
588,51	1273,84
588,70	1298,41
588,89	1290,22
589,09	1269,74
589,28	1392,62
589,47	1261,55
589,67	1306,60
589,86	1273,84
590,06	1185,77
590,25	1333,23
590,44	1306,60
590,64	1308,65
590,83	1204,21
591,02	1243,12
591,22	1232,88
591,41	1290,22
591,60	1314,80
591,80	1308,65
591,99	1249,26
592,18	1261,55
592,38	1347,56
592,57	1327,08
592,76	1277,93
592,96	1394,67
593,15	1306,60
593,34	1339,37
593,54	1236,97
593,73	1286,12
593,92	1275,88
594,12	1310,70
594,31	1275,88
594,50	1292,27
594,70	1316,84
594,89	1314,80
595,08	1259,50
595,28	1279,98
595,47	1206,25
595,66	1296,36
595,86	1257,45
596,05	1286,12
596,24	1253,36
596,43	1292,27
596,63	1351,66
596,82	1255,40
597,01	1302,51
597,21	1327,08
597,40	1267,69
597,59	1263,60
597,79	1263,60
597,98	1271,79
598,17	1286,12
598,36	1306,60
598,56	1290,22
598,75	1308,65
598,94	1322,99
599,14	1331,18
599,33	1239,02
599,52	1273,84
599,71	1314,80
599,91	1279,98
600,10	1345,52
600,29	1232,88
600,48	1265,64
600,68	1220,59
600,87	1331,18
601,06	1271,79
601,26	1236,97
601,45	1286,12
601,64	1202,16
601,83	1273,84
602,03	1314,80
602,22	1204,21
602,41	1208,30
602,60	1306,60
602,80	1339,37
602,99	1366,00
603,18	1245,16
603,37	1331,18
603,57	1218,54
603,76	1335,28
603,95	1279,98
604,14	1243,12
604,34	1298,41
604,53	1308,65
604,72	1288,17
604,91	1245,16
605,10	1277,93
605,30	1275,88
605,49	1435,63
605,68	1316,84
605,87	1286,12
606,07	1290,22
606,26	1277,93
606,45	1261,55
606,64	1267,69
606,84	1341,42
607,03	1257,45
607,22	1335,28
607,41	1329,13
607,60	1296,36
607,80	1210,35
607,99	1302,51
608,18	1271,79
608,37	1310,70
608,56	1269,74
608,76	1279,98
608,95	1249,26
609,14	1345,52
609,33	1308,65
609,52	1282,03
609,72	1251,31
609,91	1253,36
610,10	1224,69
610,29	1265,64
610,48	1333,23
610,68	1226,73
610,87	1265,64
611,06	1261,55
611,25	1239,02
611,44	1325,04
611,63	1255,40
611,83	1286,12
612,02	1286,12
612,21	1275,88
612,40	1273,84
612,59	1247,21
612,79	1284,08
612,98	1306,60
613,17	1308,65
613,36	1275,88
613,55	1251,31
613,74	1335,28
613,93	1241,07
614,13	1335,28
614,32	1259,50
614,51	1269,74
614,70	1275,88
614,89	1318,89
615,08	1290,22
615,28	1296,36
615,47	1386,47
615,66	1269,74
615,85	1226,73
616,04	1370,09
616,23	1284,08
616,42	1255,40
616,62	1308,65
616,81	1312,75
617,00	1275,88
617,19	1298,41
617,38	1169,39
617,57	1292,27
617,76	1218,54
617,95	1327,08
618,15	1249,26
618,34	1353,71
618,53	1245,16
618,72	1228,78
618,91	1282,03
619,10	1239,02
619,29	1353,71
619,48	1294,32
619,68	1314,80
619,87	1282,03
620,06	1298,41
620,25	1208,30
620,44	1261,55
620,63	1236,97
620,82	1275,88
621,01	1245,16
621,20	1310,70
621,39	1273,84
621,59	1327,08
621,78	1314,80
621,97	1259,50
622,16	1306,60
622,35	1304,56
622,54	1279,98
622,73	1286,12
622,92	1290,22
623,11	1353,71
623,30	1300,46
623,49	1239,02
623,68	1333,23
623,88	1226,73
624,07	1228,78
624,26	1273,84
624,45	1249,26
624,64	1284,08
624,83	1261,55
625,02	1243,12
625,21	1339,37
625,40	1331,18
625,59	1308,65
625,78	1306,60
625,97	1279,98
626,16	1318,89
626,35	1279,98
626,54	1290,22
626,74	1273,84
626,93	1187,82
627,12	1202,16
627,31	1320,94
627,50	1288,17
627,69	1269,74
627,88	1333,23
628,07	1355,76
628,26	1363,95
628,45	1247,21
628,64	1271,79
628,83	1286,12
629,02	1224,69
629,21	1267,69
629,40	1277,93
629,59	1275,88
629,78	1249,26
629,97	1304,56
630,16	1265,64
630,35	1300,46
630,54	1333,23
630,73	1351,66
630,92	1296,36
631,11	1359,85
631,30	1396,71
631,49	1349,61
631,68	1394,67
631,87	1507,30
632,06	1538,02
632,25	1425,39
632,44	1480,68
632,63	1435,63
632,82	1486,83
633,01	1511,40
633,20	1607,66
633,39	1509,35
633,58	1587,18
633,77	1482,73
633,96	1513,45
634,15	1603,56
634,34	1566,70
634,53	1556,46
634,72	1511,40
634,91	1513,45
635,10	1431,53
635,29	1581,03
635,48	1521,64
635,67	1558,50
635,86	1613,80
636,05	1474,54
636,24	1517,54
636,43	1556,46
636,62	1488,87
636,81	1396,71
637,00	1454,06
637,19	1341,42
637,38	1429,48
637,57	1421,29
637,76	1380,33
637,95	1435,63
638,14	1322,99
638,33	1320,94
638,52	1263,60
638,71	1228,78
638,89	1349,61
639,08	1353,71
639,27	1261,55
639,46	1263,60
639,65	1347,56
639,84	1302,51
640,03	1353,71
640,22	1294,32
640,41	1290,22
640,60	1335,28
640,79	1347,56
640,98	1214,45
641,17	1239,02
641,36	1294,32
641,55	1306,60
641,74	1253,36
641,92	1327,08
642,11	1341,42
642,30	1253,36
642,49	1284,08
642,68	1312,75
642,87	1376,24
643,06	1282,03
643,25	1392,62
643,44	1366,00
643,63	1259,50
643,82	1337,32
644,00	1245,16
644,19	1302,51
644,38	1339,37
644,57	1322,99
644,76	1322,99
644,95	1282,03
645,14	1251,31
645,33	1306,60
645,52	1286,12
645,71	1312,75
645,89	1286,12
646,08	1329,13
646,27	1292,27
646,46	1337,32
646,65	1267,69
646,84	1386,47
647,03	1275,88
647,22	1282,03
647,40	1298,41
647,59	1306,60
647,78	1322,99
647,97	1290,22
648,16	1290,22
648,35	1347,56
648,54	1257,45
648,73	1243,12
648,91	1294,32
649,10	1300,46
649,29	1267,69
649,48	1253,36
649,67	1316,84
649,86	1269,74
650,05	1255,40
650,23	1239,02
650,42	1368,04
650,61	1261,55
650,80	1232,88
650,99	1306,60
651,18	1239,02
651,36	1325,04
651,55	1261,55
651,74	1232,88
651,93	1255,40
652,12	1298,41
652,31	1286,12
652,49	1232,88
652,68	1206,25
652,87	1306,60
653,06	1230,83
653,25	1312,75
653,44	1228,78
653,62	1265,64
653,81	1284,08
654,00	1284,08
654,19	1296,36
654,38	1239,02
654,56	1316,84
654,75	1327,08
654,94	1286,12
655,13	1183,73
655,32	1290,22
655,51	1359,85
655,69	1218,54
655,88	1304,56
656,07	1296,36
656,26	1245,16
656,45	1247,21
656,63	1183,73
656,82	1259,50
657,01	1255,40
657,20	1259,50
657,38	1351,66
657,57	1306,60
657,76	1279,98
657,95	1277,93
658,14	1275,88
658,32	1314,80
658,51	1357,80
658,70	1298,41
658,89	1241,07
659,08	1241,07
659,26	1312,75
659,45	1271,79
659,64	1200,11
659,83	1220,59
660,01	1279,98
660,20	1337,32
660,39	1271,79
660,58	1230,83
660,76	1271,79
660,95	1349,61
661,14	1241,07
661,33	1265,64
661,51	1294,32
661,70	1228,78
661,89	1255,40
662,08	1316,84
662,26	1208,30
662,45	1298,41
662,64	1261,55
662,83	1279,98
663,01	1277,93
663,20	1257,45
663,39	1331,18
663,58	1245,16
663,76	1306,60
663,95	1241,07
664,14	1255,40
664,32	1214,45
664,51	1241,07
664,70	1327,08
664,89	1228,78
665,07	1251,31
665,26	1292,27
665,45	1253,36
665,64	1222,64
665,82	1216,49
666,01	1261,55
666,20	1273,84
666,38	1232,88
666,57	1267,69
666,76	1247,21
666,95	1269,74
667,13	1306,60
667,32	1236,97
667,51	1239,02
667,69	1275,88
667,88	1374,19
668,07	1191,92
668,25	1284,08
668,44	1277,93
668,63	1206,25
668,81	1298,41
669,00	1282,03
669,19	1226,73
669,38	1298,41
669,56	1247,21
669,75	1292,27
669,94	1325,04
670,12	1296,36
670,31	1271,79
670,50	1290,22
670,68	1222,64
670,87	1331,18
671,06	1247,21
671,24	1306,60
671,43	1224,69
671,62	1224,69
671,80	1290,22
671,99	1359,85
672,18	1296,36
672,36	1347,56
672,55	1269,74
672,74	1329,13
672,92	1273,84
673,11	1284,08
673,29	1259,50
673,48	1214,45
673,67	1245,16
673,85	1212,40
674,04	1345,52
674,23	1300,46
674,41	1259,50
674,60	1322,99
674,79	1212,40
674,97	1296,36
675,16	1239,02
675,34	1353,71
675,53	1370,09
675,72	1271,79
675,90	1181,68
676,09	1216,49
676,28	1310,70
676,46	1230,83
676,65	1304,56
676,83	1228,78
677,02	1284,08
677,21	1304,56
677,39	1302,51
677,58	1232,88
677,77	1271,79
677,95	1265,64
678,14	1236,97
678,32	1288,17
678,51	1273,84
678,70	1286,12
678,88	1263,60
679,07	1230,83
679,25	1245,16
679,44	1318,89
679,63	1155,05
679,81	1193,97
680,00	1241,07
680,18	1232,88
680,37	1243,12
680,55	1331,18
680,74	1378,28
680,93	1222,64
681,11	1282,03
681,30	1277,93
681,48	1245,16
681,67	1257,45
681,85	1329,13
682,04	1263,60
682,23	1298,41
682,41	1277,93
682,60	1230,83
682,78	1257,45
682,97	1288,17
683,15	1368,04
683,34	1234,93
683,53	1331,18
683,71	1331,18
683,90	1251,31
684,08	1267,69
684,27	1243,12
684,45	1341,42
684,64	1286,12
684,82	1253,36
685,01	1341,42
685,19	1206,25
685,38	1273,84
685,57	1275,88
685,75	1282,03
685,94	1243,12
686,12	1288,17
686,31	1300,46
686,49	1247,21
686,68	1275,88
686,86	1314,80
687,05	1232,88
687,23	1175,53
687,42	1279,98
687,60	1239,02
687,79	1257,45
687,97	1239,02
688,16	1298,41
688,34	1304,56
688,53	1322,99
688,71	1339,37
688,90	1308,65
689,08	1282,03
689,27	1273,84
689,45	1277,93
689,64	1243,12
689,82	1286,12
690,01	1263,60
690,19	1322,99
690,38	1292,27
690,56	1173,49
690,75	1273,84
690,93	1271,79
691,12	1224,69
691,30	1263,60
691,49	1161,20
691,67	1253,36
691,86	1302,51
692,04	1286,12
692,23	1290,22
692,41	1263,60
692,60	1279,98
692,78	1253,36
692,97	1294,32
693,15	1296,36
693,34	1263,60
693,52	1271,79
693,71	1257,45
693,89	1275,88
694,08	1259,50
694,26	1271,79
694,44	1241,07
694,63	1251,31
694,81	1284,08
695,00	1234,93
695,18	1228,78
695,37	1269,74
695,55	1239,02
695,74	1300,46
695,92	1269,74
696,10	1245,16
696,29	1259,50
696,47	1167,34
696,66	1261,55
696,84	1298,41
697,03	1304,56
697,21	1269,74
697,40	1241,07
697,58	1253,36
697,76	1290,22
697,95	1249,26
698,13	1243,12
698,32	1290,22
698,50	1296,36
698,68	1263,60
698,87	1261,55
699,05	1314,80
699,24	1288,17
699,42	1320,94
699,61	1275,88
699,79	1298,41
699,97	1308,65
700,16	1257,45
700,34	1241,07
700,53	1267,69
700,71	1249,26
700,89	1275,88
701,08	1236,97
701,26	1314,80
701,45	1265,64
701,63	1269,74
701,81	1259,50
702,00	1279,98
702,18	1300,46
702,37	1271,79
702,55	1212,40
702,73	1183,73
702,92	1185,77
703,10	1282,03
703,28	1282,03
703,47	1355,76
703,65	1353,71
703,84	1282,03
704,02	1273,84
704,20	1269,74
704,39	1257,45
704,57	1310,70
704,75	1286,12
704,94	1259,50
705,12	1251,31
705,30	1198,06
705,49	1261,55
705,67	1290,22
705,86	1322,99
706,04	1279,98
706,22	1236,97
706,41	1288,17
706,59	1212,40
706,77	1218,54
706,96	1320,94
707,14	1255,40
707,32	1282,03
707,51	1282,03
707,69	1279,98
707,87	1251,31
708,06	1224,69
708,24	1253,36
708,42	1212,40
708,61	1304,56
708,79	1228,78
708,97	1228,78
709,16	1310,70
709,34	1251,31
709,52	1228,78
709,71	1208,30
709,89	1265,64
710,07	1304,56
710,26	1228,78
710,44	1306,60
710,62	1261,55
710,80	1261,55
710,99	1234,93
711,17	1228,78
711,35	1239,02
711,54	1257,45
711,72	1294,32
711,90	1228,78
712,09	1261,55
712,27	1245,16
712,45	1308,65
712,63	1279,98
712,82	1261,55
713,00	1279,98
713,18	1357,80
713,37	1298,41
713,55	1292,27
713,73	1304,56
713,91	1310,70
714,10	1251,31
714,28	1224,69
714,46	1349,61
714,65	1302,51
714,83	1277,93
715,01	1212,40
715,19	1267,69
715,38	1257,45
715,56	1310,70
715,74	1183,73
715,92	1294,32
716,11	1253,36
716,29	1288,17
716,47	1257,45
716,65	1304,56
716,84	1253,36
717,02	1261,55
717,20	1226,73
717,38	1271,79
717,57	1253,36
717,75	1269,74
717,93	1335,28
718,11	1265,64
718,30	1243,12
718,48	1329,13
718,66	1288,17
718,84	1279,98
719,03	1306,60
719,21	1275,88
719,39	1214,45
719,57	1255,40
719,75	1300,46
719,94	1302,51
720,12	1263,60
720,30	1224,69
720,48	1300,46
720,67	1226,73
720,85	1222,64
721,03	1288,17
721,21	1247,21
721,39	1308,65
721,58	1298,41
721,76	1306,60
721,94	1265,64
722,12	1296,36
722,30	1302,51
722,49	1222,64
722,67	1255,40
722,85	1239,02
723,03	1275,88
723,21	1277,93
723,40	1263,60
723,58	1261,55
723,76	1218,54
723,94	1288,17
724,12	1224,69
724,30	1263,60
724,49	1286,12
724,67	1269,74
724,85	1310,70
725,03	1214,45
725,21	1253,36
725,40	1279,98
725,58	1243,12
725,76	1232,88
725,94	1228,78
726,12	1206,25
726,30	1288,17
726,49	1261,55
726,67	1230,83
726,85	1216,49
727,03	1273,84
727,21	1302,51
727,39	1249,26
727,57	1298,41
727,76	1257,45
727,94	1316,84
728,12	1345,52
728,30	1279,98
728,48	1204,21
728,66	1304,56
728,84	1275,88
729,03	1263,60
729,21	1247,21
729,39	1253,36
729,57	1243,12
729,75	1314,80
729,93	1263,60
730,11	1243,12
730,30	1333,23
730,48	1304,56
730,66	1277,93
730,84	1273,84
731,02	1306,60
731,20	1306,60
731,38	1290,22
731,56	1277,93
731,74	1269,74
731,93	1306,60
732,11	1320,94
732,29	1249,26
732,47	1257,45
732,65	1277,93
732,83	1253,36
733,01	1239,02
733,19	1286,12
733,37	1331,18
733,56	1191,92
733,74	1224,69
733,92	1325,04
734,10	1241,07
734,28	1216,49
734,46	1259,50
734,64	1257,45
734,82	1304,56
735,00	1322,99
735,18	1208,30
735,36	1304,56
735,54	1261,55
735,73	1224,69
735,91	1218,54
736,09	1292,27
736,27	1275,88
736,45	1257,45
736,63	1208,30
736,81	1253,36
736,99	1320,94
737,17	1255,40
737,35	1286,12
737,53	1230,83
737,71	1265,64
737,89	1322,99
738,07	1226,73
738,25	1263,60
738,43	1255,40
738,61	1214,45
738,80	1279,98
738,98	1284,08
739,16	1302,51
739,34	1247,21
739,52	1331,18
739,70	1243,12
739,88	1286,12
740,06	1310,70
740,24	1228,78
740,42	1327,08
740,60	1294,32
740,78	1185,77
740,96	1257,45
741,14	1171,44
741,32	1208,30
741,50	1318,89
741,68	1251,31
741,86	1271,79
742,04	1224,69
742,22	1257,45
742,40	1292,27
742,58	1329,13
742,76	1224,69
742,94	1251,31
743,12	1239,02
743,30	1267,69
743,48	1206,25
743,66	1282,03
743,84	1253,36
744,02	1267,69
744,20	1175,53
744,38	1304,56
744,56	1230,83
744,74	1316,84
744,92	1282,03
745,10	1292,27
745,28	1271,79
745,46	1267,69
745,64	1294,32
745,82	1318,89
746,00	1230,83
746,18	1286,12
746,36	1302,51
746,54	1228,78
746,72	1241,07
746,90	1232,88
747,08	1253,36
747,26	1208,30
747,44	1212,40
747,62	1183,73
747,80	1204,21
747,98	1277,93
748,15	1273,84
748,33	1290,22
748,51	1236,97
748,69	1245,16
748,87	1257,45
749,05	1181,68
749,23	1241,07
749,41	1265,64
749,59	1296,36
749,77	1294,32
749,95	1306,60
750,13	1265,64
750,31	1218,54
750,49	1269,74
750,67	1286,12
750,85	1339,37
751,03	1288,17
751,20	1294,32
751,38	1271,79
751,56	1304,56
751,74	1331,18
751,92	1216,49
752,10	1239,02
752,28	1263,60
752,46	1220,59
752,64	1277,93
752,82	1290,22
753,00	1232,88
753,18	1269,74
753,35	1208,30
753,53	1275,88
753,71	1204,21
753,89	1314,80
754,07	1245,16
754,25	1279,98
754,43	1273,84
754,61	1314,80
754,79	1177,58
754,97	1263,60
755,14	1277,93
755,32	1310,70
755,50	1282,03
755,68	1314,80
755,86	1310,70
756,04	1249,26
756,22	1294,32
756,40	1286,12
756,57	1298,41
756,75	1296,36
756,93	1232,88
757,11	1277,93
757,29	1214,45
757,47	1251,31
757,65	1271,79
757,82	1290,22
758,00	1304,56
758,18	1298,41
758,36	1273,84
758,54	1265,64
758,72	1257,45
758,90	1200,11
759,07	1210,35
759,25	1290,22
759,43	1232,88
759,61	1271,79
759,79	1216,49
759,97	1296,36
760,15	1294,32
760,32	1247,21
760,50	1331,18
760,68	1312,75
760,86	1261,55
761,04	1298,41
761,22	1234,93
761,39	1341,42
761,57	1288,17
761,75	1282,03
761,93	1306,60
762,11	1308,65
762,28	1349,61
762,46	1261,55
762,64	1339,37
762,82	1275,88
763,00	1206,25
763,18	1222,64
763,35	1279,98
763,53	1222,64
763,71	1269,74
763,89	1245,16
764,07	1304,56
764,24	1335,28
764,42	1267,69
764,60	1265,64
764,78	1302,51
764,96	1226,73
765,13	1337,32
765,31	1286,12
765,49	1267,69
765,67	1380,33
765,84	1277,93
766,02	1298,41
766,20	1271,79
766,38	1267,69
766,56	1308,65
766,73	1239,02
766,91	1277,93
767,09	1343,47
767,27	1214,45
767,44	1282,03
767,62	1368,04
767,80	1271,79
767,98	1302,51
768,15	1253,36
768,33	1282,03
768,51	1247,21
768,69	1304,56
768,87	1300,46
769,04	1312,75
769,22	1273,84
769,40	1251,31
769,58	1312,75
769,75	1296,36
769,93	1247,21
770,11	1327,08
770,28	1232,88
770,46	1247,21
770,64	1353,71
770,82	1214,45
770,99	1290,22
771,17	1279,98
771,35	1273,84
771,53	1249,26
771,70	1232,88
771,88	1230,83
772,06	1261,55
772,23	1218,54
772,41	1230,83
772,59	1249,26
772,77	1247,21
772,94	1273,84
773,12	1284,08
773,30	1335,28
773,47	1222,64
773,65	1189,87
773,83	1220,59
774,01	1271,79
774,18	1302,51
774,36	1294,32
774,54	1275,88
774,71	1241,07
774,89	1261,55
775,07	1249,26
775,24	1181,68
775,42	1222,64
775,60	1316,84
775,78	1302,51
775,95	1265,64
776,13	1247,21
776,31	1296,36
776,48	1335,28
776,66	1304,56
776,84	1316,84
777,01	1189,87
777,19	1335,28
777,37	1304,56
777,54	1288,17
777,72	1200,11
777,90	1241,07
778,07	1239,02
778,25	1230,83
778,43	1202,16
778,60	1327,08
778,78	1288,17
778,96	1232,88
779,13	1259,50
779,31	1316,84
779,49	1249,26
779,66	1183,73
779,84	1310,70
780,01	1320,94
780,19	1296,36
780,37	1253,36
780,54	1275,88
780,72	1269,74
780,90	1193,97
781,07	1198,06
781,25	1224,69
781,43	1269,74
781,60	1273,84
781,78	1267,69
781,95	1298,41
782,13	1261,55
782,31	1187,82
782,48	1277,93
782,66	1216,49
782,83	1230,83
783,01	1241,07
783,19	1202,16
783,36	1271,79
783,54	1273,84
783,72	1236,97
783,89	1265,64
784,07	1273,84
784,24	1222,64
784,42	1318,89
784,60	1245,16
784,77	1288,17
784,95	1306,60
785,12	1271,79
785,30	1300,46
785,47	1228,78
785,65	1286,12
785,83	1298,41
786,00	1284,08
786,18	1275,88
786,35	1146,86
786,53	1314,80
786,71	1298,41
786,88	1298,41
787,06	1327,08
787,23	1253,36
787,41	1239,02
787,58	1224,69
787,76	1232,88
787,94	1243,12
788,11	1329,13
788,29	1245,16
788,46	1185,77
788,64	1239,02
788,81	1198,06
788,99	1271,79
789,16	1257,45
789,34	1265,64
789,52	1269,74
789,69	1257,45
789,87	1257,45
790,04	1279,98
790,22	1331,18
790,39	1259,50
790,57	1220,59
790,74	1263,60
790,92	1241,07
791,09	1286,12
791,27	1290,22
791,44	1224,69
791,62	1277,93
791,79	1275,88
791,97	1249,26
792,15	1265,64
792,32	1298,41
792,50	1302,51
792,67	1290,22
792,85	1273,84
793,02	1296,36
793,20	1206,25
793,37	1155,05
793,55	1261,55
793,72	1228,78
793,90	1267,69
794,07	1234,93
794,25	1208,30
794,42	1202,16
794,60	1282,03
794,77	1329,13
794,95	1290,22
795,12	1263,60
795,30	1298,41
795,47	1304,56
795,65	1318,89
795,82	1292,27
796,00	1177,58
796,17	1298,41
796,34	1253,36
796,52	1359,85
796,69	1275,88
796,87	1261,55
797,04	1294,32
797,22	1349,61
797,39	1288,17
797,57	1316,84
797,74	1331,18
797,92	1218,54
798,09	1214,45
798,27	1279,98
798,44	1232,88
798,62	1300,46
798,79	1325,04
798,96	1243,12
799,14	1279,98
799,31	1257,45
799,49	1318,89
799,66	1284,08
799,84	1204,21
800,01	1294,32
800,19	1251,31
800,36	1179,63
800,53	1249,26
800,71	1234,93
800,88	1208,30
801,06	1241,07
801,23	1243,12
801,41	1298,41
801,58	1228,78
801,75	1226,73
801,93	1314,80
802,10	1310,70
802,28	1245,16
802,45	1185,77
802,63	1241,07
802,80	1292,27
802,97	1325,04
803,15	1288,17
803,32	1345,52
803,50	1261,55
803,67	1292,27
803,84	1263,60
804,02	1310,70
804,19	1306,60
804,37	1241,07
804,54	1294,32
804,71	1298,41
804,89	1220,59
805,06	1249,26
805,24	1292,27
805,41	1304,56
805,58	1273,84
805,76	1302,51
805,93	1230,83
806,10	1312,75
806,28	1357,80
806,45	1302,51
806,63	1322,99
806,80	1277,93
806,97	1275,88
807,15	1169,39
807,32	1220,59
807,49	1259,50
807,67	1265,64
807,84	1288,17
808,01	1210,35
808,19	1308,65
808,36	1261,55
808,54	1236,97
808,71	1286,12
808,88	1245,16
809,06	1255,40
809,23	1347,56
809,40	1304,56
809,58	1265,64
809,75	1288,17
809,92	1288,17
810,10	1284,08
810,27	1298,41
810,44	1267,69
810,62	1290,22
810,79	1292,27
810,96	1306,60
811,14	1239,02
811,31	1304,56
811,48	1247,21
811,66	1269,74
811,83	1239,02
812,00	1251,31
812,18	1341,42
812,35	1232,88
812,52	1214,45
812,69	1298,41
812,87	1296,36
813,04	1249,26
813,21	1275,88
813,39	1271,79
813,56	1212,40
813,73	1284,08
813,91	1269,74
814,08	1253,36
814,25	1236,97
814,42	1257,45
814,60	1304,56
814,77	1308,65
814,94	1298,41
815,12	1257,45
815,29	1322,99
815,46	1353,71
815,63	1214,45
815,81	1282,03
815,98	1341,42
816,15	1273,84
816,33	1241,07
816,50	1282,03
816,67	1282,03
816,84	1263,60
817,02	1353,71
817,19	1253,36
817,36	1224,69
817,53	1269,74
817,71	1284,08
817,88	1220,59
818,05	1318,89
818,22	1290,22
818,40	1214,45
818,57	1298,41
818,74	1241,07
818,91	1261,55
819,09	1277,93
819,26	1286,12
819,43	1239,02
819,60	1351,66
819,78	1257,45
819,95	1265,64
820,12	1198,06
820,29	1179,63
820,47	1234,93
820,64	1200,11
820,81	1243,12
820,98	1253,36
821,15	1255,40
821,33	1329,13
821,50	1329,13
821,67	1279,98
821,84	1245,16
822,02	1257,45
822,19	1243,12
822,36	1271,79
822,53	1271,79
822,70	1267,69
822,88	1269,74
823,05	1234,93
823,22	1263,60
823,39	1298,41
823,56	1239,02
823,74	1273,84
823,91	1239,02
824,08	1249,26
824,25	1239,02
824,42	1304,56
824,60	1234,93
824,77	1284,08
824,94	1267,69
825,11	1329,13
825,28	1296,36
825,45	1257,45
825,63	1275,88
825,80	1284,08
825,97	1296,36
826,14	1325,04
826,31	1220,59
826,48	1282,03
826,66	1310,70
826,83	1247,21
827,00	1208,30
827,17	1247,21
827,34	1277,93
827,51	1273,84
827,69	1286,12
827,86	1218,54
828,03	1275,88
828,20	1292,27
828,37	1290,22
828,54	1183,73
828,71	1177,58
828,89	1306,60
829,06	1300,46
829,23	1259,50
829,40	1232,88
829,57	1267,69
829,74	1296,36
829,91	1226,73
830,09	1275,88
830,26	1294,32
830,43	1253,36
830,60	1259,50
830,77	1226,73
830,94	1296,36
831,11	1302,51
831,28	1279,98
831,46	1288,17
831,63	1259,50
831,80	1341,42
831,97	1239,02
832,14	1247,21
832,31	1265,64
832,48	1261,55
832,65	1165,29
832,82	1308,65
832,99	1241,07
833,17	1306,60
833,34	1284,08
833,51	1257,45
833,68	1310,70
833,85	1269,74
834,02	1222,64
834,19	1234,93
834,36	1198,06
834,53	1202,16
834,70	1265,64
834,87	1228,78
835,04	1226,73
835,22	1253,36
835,39	1239,02
835,56	1241,07
835,73	1302,51
835,90	1234,93
836,07	1314,80
836,24	1318,89
836,41	1273,84
836,58	1236,97
836,75	1218,54
836,92	1300,46
837,09	1228,78
837,26	1345,52
837,43	1269,74
837,60	1257,45
837,77	1222,64
837,94	1269,74
838,12	1290,22
838,29	1286,12
838,46	1247,21
838,63	1286,12
838,80	1232,88
838,97	1236,97
839,14	1322,99
839,31	1249,26
839,48	1255,40
839,65	1163,25
839,82	1312,75
839,99	1339,37
840,16	1296,36
840,33	1277,93
840,50	1247,21
840,67	1173,49
840,84	1247,21
841,01	1275,88
841,18	1310,70
841,35	1181,68
841,52	1304,56
841,69	1331,18
841,86	1302,51
842,03	1277,93
842,20	1263,60
842,37	1249,26
842,54	1275,88
842,71	1269,74
842,88	1265,64
843,05	1261,55
843,22	1286,12
843,39	1279,98
843,56	1265,64
843,73	1189,87
843,90	1257,45
844,07	1263,60
844,24	1308,65
844,41	1284,08
844,58	1257,45
844,75	1243,12
844,92	1249,26
845,09	1322,99
845,26	1306,60
845,43	1333,23
845,60	1210,35
845,77	1243,12
845,94	1290,22
846,10	1273,84
846,27	1331,18
846,44	1200,11
846,61	1322,99
846,78	1261,55
846,95	1286,12
847,12	1247,21
847,29	1271,79
847,46	1314,80
847,63	1228,78
847,80	1247,21
847,97	1302,51
848,14	1265,64
848,31	1230,83
848,48	1263,60
848,65	1294,32
848,82	1236,97
848,98	1239,02
849,15	1298,41
849,32	1296,36
849,49	1259,50
849,66	1265,64
849,83	1200,11
850,00	1249,26
850,17	1271,79
850,34	1245,16
850,51	1247,21
850,68	1167,34
850,85	1277,93
851,01	1370,09
851,18	1296,36
851,35	1253,36
851,52	1230,83
851,69	1224,69
851,86	1247,21
852,03	1271,79
852,20	1206,25
852,37	1316,84
852,53	1275,88
852,70	1327,08
852,87	1310,70
853,04	1253,36
853,21	1310,70
853,38	1224,69
853,55	1257,45
853,72	1241,07
853,89	1220,59
854,05	1247,21
854,22	1325,04
854,39	1302,51
854,56	1304,56
854,73	1249,26
854,90	1179,63
855,07	1316,84
855,23	1275,88
855,40	1275,88
855,57	1304,56
855,74	1259,50
855,91	1286,12
856,08	1228,78
856,25	1257,45
856,41	1265,64
856,58	1224,69
856,75	1329,13
856,92	1243,12
857,09	1308,65
857,26	1222,64
857,42	1249,26
857,59	1241,07
857,76	1259,50
857,93	1294,32
858,10	1271,79
858,27	1308,65
858,43	1302,51
858,60	1273,84
858,77	1294,32
858,94	1257,45
859,11	1239,02
859,27	1257,45
859,44	1245,16
859,61	1261,55
859,78	1216,49
859,95	1216,49
860,12	1316,84
860,28	1247,21
860,45	1249,26
860,62	1329,13
860,79	1308,65
860,95	1228,78
861,12	1245,16
861,29	1230,83
861,46	1226,73
861,63	1200,11
861,79	1292,27
861,96	1298,41
862,13	1284,08
862,30	1284,08
862,47	1288,17
862,63	1179,63
862,80	1298,41
862,97	1255,40
863,14	1241,07
863,30	1296,36
863,47	1216,49
863,64	1267,69
863,81	1239,02
863,97	1294,32
864,14	1351,66
864,31	1275,88
864,48	1304,56
864,65	1269,74
864,81	1226,73
864,98	1290,22
865,15	1314,80
865,32	1296,36
865,48	1288,17
865,65	1208,30
865,82	1355,76
865,98	1251,31
866,15	1169,39
866,32	1298,41
866,49	1298,41
866,65	1265,64
866,82	1339,37
866,99	1339,37
867,16	1282,03
867,32	1353,71
867,49	1282,03
867,66	1263,60
867,83	1216,49
867,99	1236,97
868,16	1232,88
868,33	1232,88
868,49	1243,12
868,66	1292,27
868,83	1265,64
868,99	1234,93
869,16	1349,61
869,33	1232,88
869,50	1351,66
869,66	1226,73
869,83	1275,88
870,00	1267,69
870,16	1261,55
870,33	1228,78
870,50	1284,08
870,66	1247,21
870,83	1275,88
871,00	1273,84
871,17	1318,89
871,33	1261,55
871,50	1271,79
871,67	1277,93
871,83	1290,22
872,00	1286,12
872,17	1230,83
872,33	1249,26
872,50	1314,80
872,67	1249,26
872,83	1253,36
873,00	1249,26
873,17	1265,64
873,33	1208,30
873,50	1261,55
873,67	1314,80
873,83	1257,45
874,00	1273,84
874,16	1271,79
874,33	1282,03
874,50	1228,78
874,66	1185,77
874,83	1245,16
875,00	1218,54
875,16	1267,69
875,33	1257,45
875,50	1253,36
875,66	1314,80
875,83	1255,40
875,99	1335,28
876,16	1296,36
876,33	1302,51
876,49	1216,49
876,66	1249,26
876,83	1277,93
876,99	1271,79
877,16	1167,34
877,32	1284,08
877,49	1279,98
877,66	1251,31
877,82	1275,88
877,99	1259,50
878,15	1288,17
878,32	1222,64
878,49	1257,45
878,65	1288,17
878,82	1271,79
878,98	1241,07
879,15	1310,70
879,32	1245,16
879,48	1265,64
879,65	1210,35
879,81	1329,13
879,98	1296,36
880,15	1271,79
880,31	1329,13
880,48	1275,88
880,64	1298,41
880,81	1279,98
880,97	1277,93
881,14	1271,79
881,31	1257,45
881,47	1341,42
881,64	1286,12
881,80	1339,37
881,97	1288,17
882,13	1220,59
882,30	1234,93
882,47	1253,36
882,63	1286,12
882,80	1261,55
882,96	1282,03
883,13	1230,83
883,29	1263,60
883,46	1243,12
883,62	1275,88
883,79	1175,53
883,95	1241,07
884,12	1292,27
884,29	1206,25
884,45	1275,88
884,62	1239,02
884,78	1263,60
884,95	1284,08
885,11	1339,37
885,28	1253,36
885,44	1282,03
885,61	1304,56
885,77	1259,50
885,94	1230,83
886,10	1232,88
886,27	1310,70
886,43	1306,60
886,60	1265,64
886,76	1306,60
886,93	1253,36
887,09	1271,79
887,26	1271,79
887,42	1316,84
887,59	1257,45
887,75	1216,49
887,92	1267,69
888,08	1271,79
888,25	1316,84
888,41	1210,35
888,58	1247,21
888,74	1271,79
888,91	1177,58
>>>>>End Processed Spectral Data<<<<<
