SpectraSuite Data File
++++++++++++++++++++++++++++++++++++
Date: Sun Apr 03 19:55:52 CEST 2016
User: root
Dark Spectrum Present: No
Reference Spectrum Present: No
Number of Sampled Component Spectra: 1
Spectrometers: USB4C02835
Integration Time (usec): 10000 (USB4C02835)
Spectra Averaged: 1 (USB4C02835)
Boxcar Smoothing: 0 (USB4C02835)
Correct for Electrical Dark: No (USB4C02835)
Strobe/Lamp Enabled: No (USB4C02835)
Correct for Detector Non-linearity: No (USB4C02835)
Correct for Stray Light: No (USB4C02835)
Number of Pixels in Processed Spectrum: 3648
>>>>>Begin Processed Spectral Data<<<<<
177,47	1261,55
177,69	1261,55
177,91	1261,55
178,13	1222,64
178,36	1161,20
178,58	1230,83
178,80	1290,22
179,02	1259,50
179,24	1294,32
179,46	1255,40
179,68	1277,93
179,90	1288,17
180,13	1290,22
180,35	1273,84
180,57	1228,78
180,79	1220,59
181,01	1298,41
181,23	1273,84
181,45	1318,89
181,67	1255,40
181,90	1220,59
182,12	1273,84
182,34	1277,93
182,56	1228,78
182,78	1322,99
183,00	1257,45
183,22	1251,31
183,44	1216,49
183,66	1202,16
183,89	1226,73
184,11	1277,93
184,33	1288,17
184,55	1312,75
184,77	1290,22
184,99	1267,69
185,21	1239,02
185,43	1236,97
185,65	1292,27
185,87	1296,36
186,10	1345,52
186,32	1269,74
186,54	1249,26
186,76	1331,18
186,98	1243,12
187,20	1198,06
187,42	1206,25
187,64	1202,16
187,86	1325,04
188,08	1275,88
188,30	1179,63
188,52	1271,79
188,75	1222,64
188,97	1359,85
189,19	1308,65
189,41	1322,99
189,63	1275,88
189,85	1288,17
190,07	1243,12
190,29	1212,40
190,51	1236,97
190,73	1251,31
190,95	1234,93
191,17	1282,03
191,39	1275,88
191,61	1277,93
191,84	1206,25
192,06	1253,36
192,28	1198,06
192,50	1290,22
192,72	1210,35
192,94	1222,64
193,16	1277,93
193,38	1249,26
193,60	1298,41
193,82	1216,49
194,04	1200,11
194,26	1353,71
194,48	1210,35
194,70	1308,65
194,92	1263,60
195,14	1232,88
195,36	1337,32
195,58	1230,83
195,80	1288,17
196,02	1259,50
196,24	1300,46
196,46	1284,08
196,69	1175,53
196,91	1261,55
197,13	1234,93
197,35	1308,65
197,57	1177,58
197,79	1245,16
198,01	1275,88
198,23	1282,03
198,45	1279,98
198,67	1357,80
198,89	1263,60
199,11	1241,07
199,33	1275,88
199,55	1216,49
199,77	1325,04
199,99	1329,13
200,21	1310,70
200,43	1267,69
200,65	1257,45
200,87	1271,79
201,09	1322,99
201,31	1306,60
201,53	1271,79
201,75	1232,88
201,97	1255,40
202,19	1284,08
202,41	1300,46
202,63	1234,93
202,85	1269,74
203,07	1255,40
203,29	1302,51
203,51	1298,41
203,73	1279,98
203,95	1288,17
204,17	1257,45
204,39	1259,50
204,61	1265,64
204,83	1269,74
205,05	1267,69
205,27	1212,40
205,49	1230,83
205,71	1245,16
205,93	1271,79
206,15	1208,30
206,37	1277,93
206,59	1261,55
206,81	1234,93
207,03	1230,83
207,25	1312,75
207,47	1230,83
207,69	1263,60
207,91	1220,59
208,13	1329,13
208,34	1277,93
208,56	1288,17
208,78	1239,02
209,00	1232,88
209,22	1218,54
209,44	1269,74
209,66	1257,45
209,88	1236,97
210,10	1298,41
210,32	1327,08
210,54	1271,79
210,76	1267,69
210,98	1259,50
211,20	1239,02
211,42	1284,08
211,64	1196,01
211,86	1265,64
212,08	1279,98
212,30	1320,94
212,52	1347,56
212,74	1271,79
212,96	1185,77
213,17	1277,93
213,39	1269,74
213,61	1275,88
213,83	1241,07
214,05	1292,27
214,27	1290,22
214,49	1249,26
214,71	1316,84
214,93	1261,55
215,15	1345,52
215,37	1202,16
215,59	1275,88
215,81	1247,21
216,03	1363,95
216,24	1327,08
216,46	1302,51
216,68	1265,64
216,90	1282,03
217,12	1288,17
217,34	1257,45
217,56	1222,64
217,78	1204,21
218,00	1261,55
218,22	1308,65
218,44	1298,41
218,66	1271,79
218,87	1249,26
219,09	1265,64
219,31	1296,36
219,53	1241,07
219,75	1261,55
219,97	1202,16
220,19	1300,46
220,41	1271,79
220,63	1277,93
220,85	1249,26
221,06	1290,22
221,28	1290,22
221,50	1200,11
221,72	1353,71
221,94	1222,64
222,16	1271,79
222,38	1263,60
222,60	1359,85
222,82	1249,26
223,03	1245,16
223,25	1232,88
223,47	1300,46
223,69	1249,26
223,91	1275,88
224,13	1228,78
224,35	1216,49
224,57	1232,88
224,78	1286,12
225,00	1208,30
225,22	1255,40
225,44	1312,75
225,66	1261,55
225,88	1214,45
226,10	1191,92
226,32	1261,55
226,53	1208,30
226,75	1200,11
226,97	1198,06
227,19	1300,46
227,41	1241,07
227,63	1230,83
227,85	1308,65
228,06	1132,53
228,28	1189,87
228,50	1277,93
228,72	1269,74
228,94	1275,88
229,16	1236,97
229,37	1198,06
229,59	1298,41
229,81	1294,32
230,03	1308,65
230,25	1279,98
230,47	1251,31
230,69	1333,23
230,90	1243,12
231,12	1308,65
231,34	1322,99
231,56	1253,36
231,78	1255,40
232,00	1253,36
232,21	1208,30
232,43	1304,56
232,65	1177,58
232,87	1269,74
233,09	1277,93
233,30	1269,74
233,52	1239,02
233,74	1228,78
233,96	1224,69
234,18	1236,97
234,40	1329,13
234,61	1304,56
234,83	1232,88
235,05	1271,79
235,27	1212,40
235,49	1249,26
235,70	1273,84
235,92	1314,80
236,14	1257,45
236,36	1327,08
236,58	1263,60
236,79	1290,22
237,01	1286,12
237,23	1271,79
237,45	1279,98
237,67	1284,08
237,88	1306,60
238,10	1239,02
238,32	1230,83
238,54	1314,80
238,76	1294,32
238,97	1251,31
239,19	1198,06
239,41	1271,79
239,63	1226,73
239,85	1232,88
240,06	1251,31
240,28	1294,32
240,50	1239,02
240,72	1282,03
240,93	1226,73
241,15	1288,17
241,37	1294,32
241,59	1294,32
241,81	1239,02
242,02	1257,45
242,24	1269,74
242,46	1294,32
242,68	1251,31
242,89	1284,08
243,11	1331,18
243,33	1257,45
243,55	1263,60
243,76	1247,21
243,98	1191,92
244,20	1191,92
244,42	1261,55
244,64	1361,90
244,85	1304,56
245,07	1314,80
245,29	1312,75
245,51	1249,26
245,72	1265,64
245,94	1329,13
246,16	1327,08
246,38	1259,50
246,59	1269,74
246,81	1316,84
247,03	1333,23
247,24	1214,45
247,46	1341,42
247,68	1191,92
247,90	1341,42
248,11	1253,36
248,33	1259,50
248,55	1279,98
248,77	1208,30
248,98	1263,60
249,20	1218,54
249,42	1339,37
249,64	1243,12
249,85	1265,64
250,07	1206,25
250,29	1200,11
250,50	1200,11
250,72	1228,78
250,94	1376,24
251,16	1306,60
251,37	1331,18
251,59	1320,94
251,81	1261,55
252,02	1288,17
252,24	1322,99
252,46	1265,64
252,68	1220,59
252,89	1236,97
253,11	1239,02
253,33	1294,32
253,54	1292,27
253,76	1279,98
253,98	1236,97
254,20	1218,54
254,41	1226,73
254,63	1181,68
254,85	1368,04
255,06	1292,27
255,28	1263,60
255,50	1263,60
255,71	1253,36
255,93	1300,46
256,15	1314,80
256,36	1316,84
256,58	1204,21
256,80	1284,08
257,02	1290,22
257,23	1226,73
257,45	1267,69
257,67	1284,08
257,88	1257,45
258,10	1220,59
258,32	1241,07
258,53	1216,49
258,75	1216,49
258,97	1243,12
259,18	1187,82
259,40	1282,03
259,62	1273,84
259,83	1286,12
260,05	1269,74
260,27	1316,84
260,48	1331,18
260,70	1277,93
260,92	1271,79
261,13	1265,64
261,35	1296,36
261,57	1236,97
261,78	1329,13
262,00	1271,79
262,22	1316,84
262,43	1222,64
262,65	1234,93
262,86	1279,98
263,08	1212,40
263,30	1273,84
263,51	1245,16
263,73	1259,50
263,95	1216,49
264,16	1253,36
264,38	1275,88
264,60	1273,84
264,81	1277,93
265,03	1310,70
265,25	1290,22
265,46	1286,12
265,68	1290,22
265,89	1322,99
266,11	1220,59
266,33	1218,54
266,54	1308,65
266,76	1245,16
266,98	1257,45
267,19	1257,45
267,41	1286,12
267,62	1292,27
267,84	1193,97
268,06	1294,32
268,27	1226,73
268,49	1322,99
268,70	1214,45
268,92	1239,02
269,14	1308,65
269,35	1257,45
269,57	1218,54
269,79	1277,93
270,00	1277,93
270,22	1314,80
270,43	1331,18
270,65	1232,88
270,87	1286,12
271,08	1232,88
271,30	1339,37
271,51	1259,50
271,73	1284,08
271,95	1273,84
272,16	1255,40
272,38	1247,21
272,59	1286,12
272,81	1288,17
273,02	1208,30
273,24	1271,79
273,46	1337,32
273,67	1288,17
273,89	1298,41
274,10	1263,60
274,32	1226,73
274,54	1269,74
274,75	1220,59
274,97	1290,22
275,18	1224,69
275,40	1279,98
275,61	1347,56
275,83	1294,32
276,05	1300,46
276,26	1294,32
276,48	1234,93
276,69	1267,69
276,91	1208,30
277,12	1247,21
277,34	1202,16
277,55	1251,31
277,77	1247,21
277,99	1253,36
278,20	1263,60
278,42	1224,69
278,63	1314,80
278,85	1249,26
279,06	1300,46
279,28	1265,64
279,49	1271,79
279,71	1300,46
279,93	1275,88
280,14	1296,36
280,36	1308,65
280,57	1286,12
280,79	1282,03
281,00	1245,16
281,22	1239,02
281,43	1236,97
281,65	1198,06
281,86	1247,21
282,08	1296,36
282,29	1269,74
282,51	1325,04
282,73	1288,17
282,94	1296,36
283,16	1255,40
283,37	1265,64
283,59	1304,56
283,80	1255,40
284,02	1210,35
284,23	1294,32
284,45	1226,73
284,66	1200,11
284,88	1241,07
285,09	1200,11
285,31	1277,93
285,52	1236,97
285,74	1284,08
285,95	1239,02
286,17	1279,98
286,38	1263,60
286,60	1206,25
286,81	1259,50
287,03	1300,46
287,24	1325,04
287,46	1306,60
287,67	1298,41
287,89	1271,79
288,10	1298,41
288,32	1288,17
288,53	1306,60
288,75	1259,50
288,96	1314,80
289,18	1224,69
289,39	1292,27
289,61	1292,27
289,82	1216,49
290,04	1241,07
290,25	1282,03
290,47	1273,84
290,68	1230,83
290,90	1345,52
291,11	1230,83
291,33	1222,64
291,54	1273,84
291,76	1359,85
291,97	1302,51
292,18	1275,88
292,40	1308,65
292,61	1263,60
292,83	1310,70
293,04	1249,26
293,26	1271,79
293,47	1257,45
293,69	1277,93
293,90	1306,60
294,12	1331,18
294,33	1212,40
294,55	1210,35
294,76	1198,06
294,97	1286,12
295,19	1247,21
295,40	1187,82
295,62	1241,07
295,83	1302,51
296,05	1259,50
296,26	1210,35
296,48	1249,26
296,69	1230,83
296,90	1263,60
297,12	1247,21
297,33	1255,40
297,55	1331,18
297,76	1290,22
297,98	1218,54
298,19	1230,83
298,41	1255,40
298,62	1224,69
298,83	1249,26
299,05	1318,89
299,26	1216,49
299,48	1273,84
299,69	1282,03
299,90	1239,02
300,12	1255,40
300,33	1288,17
300,55	1241,07
300,76	1273,84
300,98	1257,45
301,19	1325,04
301,40	1263,60
301,62	1226,73
301,83	1216,49
302,05	1349,61
302,26	1306,60
302,47	1273,84
302,69	1306,60
302,90	1224,69
303,12	1253,36
303,33	1243,12
303,54	1245,16
303,76	1226,73
303,97	1241,07
304,19	1218,54
304,40	1279,98
304,61	1296,36
304,83	1343,47
305,04	1271,79
305,26	1253,36
305,47	1212,40
305,68	1165,29
305,90	1308,65
306,11	1234,93
306,33	1273,84
306,54	1249,26
306,75	1300,46
306,97	1232,88
307,18	1312,75
307,39	1290,22
307,61	1255,40
307,82	1290,22
308,04	1314,80
308,25	1265,64
308,46	1210,35
308,68	1216,49
308,89	1290,22
309,10	1294,32
309,32	1247,21
309,53	1279,98
309,74	1243,12
309,96	1302,51
310,17	1288,17
310,39	1286,12
310,60	1279,98
310,81	1282,03
311,03	1263,60
311,24	1251,31
311,45	1304,56
311,67	1257,45
311,88	1282,03
312,09	1212,40
312,31	1249,26
312,52	1322,99
312,73	1290,22
312,95	1265,64
313,16	1277,93
313,37	1187,82
313,59	1288,17
313,80	1288,17
314,01	1279,98
314,23	1269,74
314,44	1277,93
314,65	1261,55
314,87	1241,07
315,08	1261,55
315,29	1214,45
315,51	1245,16
315,72	1241,07
315,93	1341,42
316,15	1329,13
316,36	1210,35
316,57	1241,07
316,79	1314,80
317,00	1316,84
317,21	1265,64
317,43	1300,46
317,64	1273,84
317,85	1251,31
318,07	1269,74
318,28	1329,13
318,49	1239,02
318,70	1284,08
318,92	1265,64
319,13	1198,06
319,34	1277,93
319,56	1318,89
319,77	1298,41
319,98	1255,40
320,20	1316,84
320,41	1286,12
320,62	1249,26
320,83	1325,04
321,05	1314,80
321,26	1216,49
321,47	1279,98
321,69	1259,50
321,90	1300,46
322,11	1296,36
322,32	1318,89
322,54	1255,40
322,75	1249,26
322,96	1265,64
323,18	1249,26
323,39	1253,36
323,60	1267,69
323,81	1312,75
324,03	1265,64
324,24	1247,21
324,45	1290,22
324,66	1257,45
324,88	1234,93
325,09	1277,93
325,30	1208,30
325,52	1255,40
325,73	1208,30
325,94	1259,50
326,15	1210,35
326,37	1255,40
326,58	1286,12
326,79	1273,84
327,00	1298,41
327,22	1290,22
327,43	1277,93
327,64	1271,79
327,85	1232,88
328,07	1239,02
328,28	1265,64
328,49	1306,60
328,70	1263,60
328,92	1222,64
329,13	1267,69
329,34	1282,03
329,55	1236,97
329,76	1331,18
329,98	1253,36
330,19	1232,88
330,40	1261,55
330,61	1273,84
330,83	1282,03
331,04	1249,26
331,25	1214,45
331,46	1292,27
331,68	1275,88
331,89	1202,16
332,10	1300,46
332,31	1241,07
332,52	1306,60
332,74	1222,64
332,95	1329,13
333,16	1337,32
333,37	1296,36
333,58	1312,75
333,80	1290,22
334,01	1267,69
334,22	1218,54
334,43	1271,79
334,64	1261,55
334,86	1300,46
335,07	1322,99
335,28	1216,49
335,49	1253,36
335,70	1230,83
335,92	1224,69
336,13	1353,71
336,34	1239,02
336,55	1259,50
336,76	1308,65
336,98	1257,45
337,19	1304,56
337,40	1277,93
337,61	1282,03
337,82	1320,94
338,04	1290,22
338,25	1271,79
338,46	1296,36
338,67	1210,35
338,88	1245,16
339,09	1253,36
339,31	1200,11
339,52	1243,12
339,73	1228,78
339,94	1271,79
340,15	1251,31
340,36	1318,89
340,58	1279,98
340,79	1277,93
341,00	1265,64
341,21	1325,04
341,42	1298,41
341,63	1257,45
341,85	1239,02
342,06	1232,88
342,27	1329,13
342,48	1239,02
342,69	1216,49
342,90	1243,12
343,12	1345,52
343,33	1181,68
343,54	1292,27
343,75	1273,84
343,96	1275,88
344,17	1312,75
344,38	1241,07
344,60	1273,84
344,81	1337,32
345,02	1327,08
345,23	1257,45
345,44	1292,27
345,65	1277,93
345,86	1327,08
346,07	1308,65
346,29	1298,41
346,50	1263,60
346,71	1265,64
346,92	1247,21
347,13	1181,68
347,34	1286,12
347,55	1236,97
347,76	1288,17
347,98	1218,54
348,19	1269,74
348,40	1239,02
348,61	1232,88
348,82	1265,64
349,03	1249,26
349,24	1220,59
349,45	1310,70
349,66	1247,21
349,88	1189,87
350,09	1230,83
350,30	1298,41
350,51	1327,08
350,72	1282,03
350,93	1216,49
351,14	1286,12
351,35	1331,18
351,56	1230,83
351,77	1200,11
351,99	1230,83
352,20	1263,60
352,41	1314,80
352,62	1288,17
352,83	1187,82
353,04	1318,89
353,25	1290,22
353,46	1243,12
353,67	1282,03
353,88	1249,26
354,09	1236,97
354,30	1298,41
354,52	1345,52
354,73	1269,74
354,94	1345,52
355,15	1331,18
355,36	1239,02
355,57	1253,36
355,78	1232,88
355,99	1302,51
356,20	1320,94
356,41	1249,26
356,62	1359,85
356,83	1308,65
357,04	1259,50
357,25	1279,98
357,46	1232,88
357,68	1206,25
357,89	1185,77
358,10	1267,69
358,31	1212,40
358,52	1279,98
358,73	1277,93
358,94	1224,69
359,15	1282,03
359,36	1265,64
359,57	1196,01
359,78	1196,01
359,99	1312,75
360,20	1210,35
360,41	1310,70
360,62	1325,04
360,83	1251,31
361,04	1273,84
361,25	1241,07
361,46	1279,98
361,67	1232,88
361,88	1269,74
362,09	1230,83
362,30	1218,54
362,51	1284,08
362,72	1200,11
362,93	1257,45
363,14	1269,74
363,35	1241,07
363,56	1288,17
363,78	1306,60
363,99	1269,74
364,20	1230,83
364,41	1263,60
364,62	1298,41
364,83	1286,12
365,04	1320,94
365,25	1277,93
365,46	1304,56
365,67	1277,93
365,88	1239,02
366,09	1286,12
366,30	1232,88
366,51	1294,32
366,72	1320,94
366,93	1183,73
367,14	1302,51
367,35	1214,45
367,56	1214,45
367,77	1234,93
367,98	1327,08
368,18	1263,60
368,39	1224,69
368,60	1345,52
368,81	1216,49
369,02	1308,65
369,23	1286,12
369,44	1279,98
369,65	1292,27
369,86	1255,40
370,07	1296,36
370,28	1226,73
370,49	1322,99
370,70	1177,58
370,91	1257,45
371,12	1288,17
371,33	1290,22
371,54	1257,45
371,75	1259,50
371,96	1263,60
372,17	1255,40
372,38	1214,45
372,59	1368,04
372,80	1247,21
373,01	1216,49
373,22	1257,45
373,43	1253,36
373,64	1302,51
373,85	1275,88
374,06	1243,12
374,26	1284,08
374,47	1310,70
374,68	1243,12
374,89	1310,70
375,10	1288,17
375,31	1282,03
375,52	1196,01
375,73	1269,74
375,94	1277,93
376,15	1294,32
376,36	1271,79
376,57	1210,35
376,78	1282,03
376,99	1314,80
377,20	1269,74
377,40	1247,21
377,61	1253,36
377,82	1308,65
378,03	1277,93
378,24	1294,32
378,45	1218,54
378,66	1265,64
378,87	1325,04
379,08	1306,60
379,29	1269,74
379,50	1296,36
379,71	1249,26
379,91	1304,56
380,12	1290,22
380,33	1318,89
380,54	1245,16
380,75	1286,12
380,96	1329,13
381,17	1177,58
381,38	1308,65
381,59	1206,25
381,80	1269,74
382,00	1236,97
382,21	1210,35
382,42	1267,69
382,63	1296,36
382,84	1249,26
383,05	1284,08
383,26	1243,12
383,47	1269,74
383,68	1216,49
383,88	1185,77
384,09	1302,51
384,30	1355,76
384,51	1298,41
384,72	1271,79
384,93	1263,60
385,14	1298,41
385,35	1259,50
385,55	1241,07
385,76	1335,28
385,97	1206,25
386,18	1226,73
386,39	1234,93
386,60	1234,93
386,81	1243,12
387,02	1265,64
387,22	1329,13
387,43	1337,32
387,64	1212,40
387,85	1210,35
388,06	1249,26
388,27	1236,97
388,48	1296,36
388,68	1286,12
388,89	1363,95
389,10	1339,37
389,31	1218,54
389,52	1210,35
389,73	1273,84
389,93	1277,93
390,14	1202,16
390,35	1261,55
390,56	1277,93
390,77	1179,63
390,98	1302,51
391,18	1284,08
391,39	1282,03
391,60	1314,80
391,81	1210,35
392,02	1191,92
392,23	1322,99
392,43	1279,98
392,64	1220,59
392,85	1277,93
393,06	1261,55
393,27	1241,07
393,47	1327,08
393,68	1245,16
393,89	1257,45
394,10	1298,41
394,31	1161,20
394,52	1277,93
394,72	1298,41
394,93	1282,03
395,14	1236,97
395,35	1296,36
395,56	1265,64
395,76	1327,08
395,97	1253,36
396,18	1275,88
396,39	1292,27
396,60	1331,18
396,80	1310,70
397,01	1255,40
397,22	1345,52
397,43	1304,56
397,64	1306,60
397,84	1175,53
398,05	1253,36
398,26	1241,07
398,47	1255,40
398,67	1312,75
398,88	1241,07
399,09	1341,42
399,30	1298,41
399,51	1198,06
399,71	1220,59
399,92	1298,41
400,13	1265,64
400,34	1361,90
400,54	1210,35
400,75	1331,18
400,96	1200,11
401,17	1284,08
401,37	1210,35
401,58	1208,30
401,79	1273,84
402,00	1304,56
402,21	1239,02
402,41	1292,27
402,62	1189,87
402,83	1220,59
403,04	1286,12
403,24	1282,03
403,45	1298,41
403,66	1314,80
403,87	1275,88
404,07	1232,88
404,28	1300,46
404,49	1273,84
404,70	1286,12
404,90	1298,41
405,11	1261,55
405,32	1214,45
405,52	1380,33
405,73	1261,55
405,94	1279,98
406,15	1269,74
406,35	1220,59
406,56	1206,25
406,77	1228,78
406,98	1284,08
407,18	1296,36
407,39	1263,60
407,60	1214,45
407,80	1273,84
408,01	1208,30
408,22	1318,89
408,43	1187,82
408,63	1210,35
408,84	1243,12
409,05	1304,56
409,25	1282,03
409,46	1214,45
409,67	1226,73
409,88	1222,64
410,08	1265,64
410,29	1306,60
410,50	1265,64
410,70	1236,97
410,91	1292,27
411,12	1288,17
411,32	1198,06
411,53	1275,88
411,74	1243,12
411,95	1214,45
412,15	1310,70
412,36	1253,36
412,57	1198,06
412,77	1296,36
412,98	1212,40
413,19	1204,21
413,39	1271,79
413,60	1304,56
413,81	1257,45
414,01	1263,60
414,22	1261,55
414,43	1294,32
414,63	1191,92
414,84	1222,64
415,05	1251,31
415,25	1257,45
415,46	1267,69
415,67	1226,73
415,87	1273,84
416,08	1202,16
416,29	1239,02
416,49	1329,13
416,70	1277,93
416,91	1245,16
417,11	1251,31
417,32	1228,78
417,53	1249,26
417,73	1292,27
417,94	1282,03
418,15	1279,98
418,35	1249,26
418,56	1265,64
418,77	1189,87
418,97	1318,89
419,18	1200,11
419,38	1212,40
419,59	1255,40
419,80	1245,16
420,00	1288,17
420,21	1271,79
420,42	1390,57
420,62	1220,59
420,83	1247,21
421,04	1355,76
421,24	1337,32
421,45	1247,21
421,65	1300,46
421,86	1245,16
422,07	1228,78
422,27	1306,60
422,48	1277,93
422,69	1269,74
422,89	1288,17
423,10	1232,88
423,30	1271,79
423,51	1277,93
423,72	1220,59
423,92	1267,69
424,13	1245,16
424,33	1277,93
424,54	1249,26
424,75	1302,51
424,95	1275,88
425,16	1222,64
425,36	1316,84
425,57	1286,12
425,78	1173,49
425,98	1210,35
426,19	1267,69
426,39	1265,64
426,60	1322,99
426,81	1300,46
427,01	1257,45
427,22	1341,42
427,42	1271,79
427,63	1294,32
427,83	1273,84
428,04	1177,58
428,25	1300,46
428,45	1269,74
428,66	1261,55
428,86	1304,56
429,07	1243,12
429,28	1318,89
429,48	1273,84
429,69	1273,84
429,89	1177,58
430,10	1265,64
430,30	1257,45
430,51	1302,51
430,71	1277,93
430,92	1290,22
431,13	1247,21
431,33	1265,64
431,54	1286,12
431,74	1325,04
431,95	1286,12
432,15	1224,69
432,36	1269,74
432,56	1261,55
432,77	1271,79
432,98	1282,03
433,18	1296,36
433,39	1294,32
433,59	1265,64
433,80	1325,04
434,00	1302,51
434,21	1206,25
434,41	1257,45
434,62	1355,76
434,82	1259,50
435,03	1257,45
435,23	1288,17
435,44	1263,60
435,64	1179,63
435,85	1179,63
436,06	1226,73
436,26	1368,04
436,47	1210,35
436,67	1247,21
436,88	1261,55
437,08	1255,40
437,29	1243,12
437,49	1226,73
437,70	1226,73
437,90	1179,63
438,11	1249,26
438,31	1316,84
438,52	1331,18
438,72	1249,26
438,93	1282,03
439,13	1292,27
439,34	1361,90
439,54	1216,49
439,75	1284,08
439,95	1282,03
440,16	1345,52
440,36	1251,31
440,57	1298,41
440,77	1220,59
440,98	1282,03
441,18	1279,98
441,39	1206,25
441,59	1325,04
441,80	1310,70
442,00	1282,03
442,21	1306,60
442,41	1273,84
442,62	1273,84
442,82	1241,07
443,02	1296,36
443,23	1353,71
443,43	1200,11
443,64	1288,17
443,84	1286,12
444,05	1255,40
444,25	1255,40
444,46	1306,60
444,66	1218,54
444,87	1347,56
445,07	1265,64
445,28	1310,70
445,48	1236,97
445,69	1257,45
445,89	1306,60
446,09	1300,46
446,30	1298,41
446,50	1296,36
446,71	1288,17
446,91	1300,46
447,12	1261,55
447,32	1210,35
447,53	1333,23
447,73	1298,41
447,93	1263,60
448,14	1366,00
448,34	1298,41
448,55	1277,93
448,75	1343,47
448,96	1318,89
449,16	1249,26
449,36	1306,60
449,57	1189,87
449,77	1263,60
449,98	1216,49
450,18	1239,02
450,39	1329,13
450,59	1282,03
450,79	1357,80
451,00	1306,60
451,20	1282,03
451,41	1245,16
451,61	1294,32
451,81	1306,60
452,02	1255,40
452,22	1220,59
452,43	1247,21
452,63	1208,30
452,84	1318,89
453,04	1265,64
453,24	1245,16
453,45	1255,40
453,65	1251,31
453,86	1351,66
454,06	1267,69
454,26	1271,79
454,47	1273,84
454,67	1355,76
454,87	1329,13
455,08	1271,79
455,28	1329,13
455,49	1337,32
455,69	1341,42
455,89	1265,64
456,10	1300,46
456,30	1292,27
456,51	1273,84
456,71	1349,61
456,91	1269,74
457,12	1310,70
457,32	1282,03
457,52	1320,94
457,73	1267,69
457,93	1249,26
458,14	1234,93
458,34	1314,80
458,54	1273,84
458,75	1312,75
458,95	1241,07
459,15	1316,84
459,36	1300,46
459,56	1296,36
459,76	1302,51
459,97	1261,55
460,17	1261,55
460,37	1273,84
460,58	1267,69
460,78	1247,21
460,99	1179,63
461,19	1253,36
461,39	1314,80
461,60	1232,88
461,80	1269,74
462,00	1286,12
462,21	1282,03
462,41	1269,74
462,61	1296,36
462,82	1239,02
463,02	1277,93
463,22	1366,00
463,43	1290,22
463,63	1261,55
463,83	1277,93
464,04	1331,18
464,24	1284,08
464,44	1345,52
464,64	1327,08
464,85	1298,41
465,05	1255,40
465,25	1361,90
465,46	1230,83
465,66	1236,97
465,86	1239,02
466,07	1271,79
466,27	1288,17
466,47	1277,93
466,68	1294,32
466,88	1255,40
467,08	1333,23
467,29	1269,74
467,49	1261,55
467,69	1314,80
467,89	1261,55
468,10	1310,70
468,30	1296,36
468,50	1292,27
468,71	1249,26
468,91	1325,04
469,11	1331,18
469,31	1290,22
469,52	1284,08
469,72	1247,21
469,92	1325,04
470,13	1329,13
470,33	1243,12
470,53	1304,56
470,73	1245,16
470,94	1331,18
471,14	1310,70
471,34	1279,98
471,54	1292,27
471,75	1173,49
471,95	1267,69
472,15	1279,98
472,36	1226,73
472,56	1282,03
472,76	1249,26
472,96	1355,76
473,17	1355,76
473,37	1286,12
473,57	1271,79
473,77	1208,30
473,98	1294,32
474,18	1314,80
474,38	1304,56
474,58	1290,22
474,79	1216,49
474,99	1261,55
475,19	1234,93
475,39	1345,52
475,60	1306,60
475,80	1294,32
476,00	1245,16
476,20	1198,06
476,41	1247,21
476,61	1366,00
476,81	1236,97
477,01	1220,59
477,21	1298,41
477,42	1245,16
477,62	1267,69
477,82	1263,60
478,02	1220,59
478,23	1249,26
478,43	1224,69
478,63	1310,70
478,83	1288,17
479,03	1288,17
479,24	1259,50
479,44	1273,84
479,64	1214,45
479,84	1177,58
480,04	1236,97
480,25	1378,28
480,45	1286,12
480,65	1259,50
480,85	1269,74
481,06	1302,51
481,26	1288,17
481,46	1343,47
481,66	1271,79
481,86	1245,16
482,06	1388,52
482,27	1247,21
482,47	1204,21
482,67	1306,60
482,87	1259,50
483,07	1239,02
483,28	1212,40
483,48	1198,06
483,68	1284,08
483,88	1296,36
484,08	1290,22
484,29	1284,08
484,49	1214,45
484,69	1277,93
484,89	1222,64
485,09	1271,79
485,29	1263,60
485,50	1312,75
485,70	1210,35
485,90	1269,74
486,10	1286,12
486,30	1222,64
486,50	1269,74
486,71	1232,88
486,91	1269,74
487,11	1290,22
487,31	1271,79
487,51	1259,50
487,71	1286,12
487,91	1279,98
488,12	1228,78
488,32	1343,47
488,52	1298,41
488,72	1245,16
488,92	1265,64
489,12	1320,94
489,32	1359,85
489,53	1236,97
489,73	1261,55
489,93	1265,64
490,13	1196,01
490,33	1310,70
490,53	1198,06
490,73	1302,51
490,94	1265,64
491,14	1325,04
491,34	1345,52
491,54	1245,16
491,74	1329,13
491,94	1386,47
492,14	1261,55
492,34	1212,40
492,54	1232,88
492,75	1312,75
492,95	1300,46
493,15	1282,03
493,35	1310,70
493,55	1265,64
493,75	1239,02
493,95	1251,31
494,15	1210,35
494,35	1290,22
494,56	1279,98
494,76	1279,98
494,96	1239,02
495,16	1286,12
495,36	1279,98
495,56	1214,45
495,76	1259,50
495,96	1294,32
496,16	1265,64
496,36	1282,03
496,56	1265,64
496,77	1292,27
496,97	1261,55
497,17	1255,40
497,37	1282,03
497,57	1206,25
497,77	1290,22
497,97	1275,88
498,17	1265,64
498,37	1318,89
498,57	1249,26
498,77	1191,92
498,97	1277,93
499,17	1216,49
499,38	1259,50
499,58	1288,17
499,78	1140,72
499,98	1329,13
500,18	1243,12
500,38	1337,32
500,58	1288,17
500,78	1228,78
500,98	1314,80
501,18	1234,93
501,38	1273,84
501,58	1239,02
501,78	1181,68
501,98	1277,93
502,18	1243,12
502,38	1204,21
502,58	1196,01
502,78	1327,08
502,98	1239,02
503,18	1282,03
503,38	1308,65
503,59	1351,66
503,79	1243,12
503,99	1322,99
504,19	1302,51
504,39	1241,07
504,59	1247,21
504,79	1243,12
504,99	1249,26
505,19	1282,03
505,39	1259,50
505,59	1284,08
505,79	1327,08
505,99	1335,28
506,19	1290,22
506,39	1302,51
506,59	1239,02
506,79	1314,80
506,99	1249,26
507,19	1333,23
507,39	1296,36
507,59	1363,95
507,79	1302,51
507,99	1294,32
508,19	1273,84
508,39	1271,79
508,59	1241,07
508,79	1255,40
508,99	1294,32
509,19	1255,40
509,39	1304,56
509,59	1257,45
509,79	1339,37
509,99	1282,03
510,19	1239,02
510,39	1259,50
510,59	1257,45
510,79	1263,60
510,99	1288,17
511,19	1271,79
511,39	1275,88
511,59	1335,28
511,79	1204,21
511,99	1255,40
512,19	1306,60
512,38	1241,07
512,58	1216,49
512,78	1329,13
512,98	1279,98
513,18	1275,88
513,38	1265,64
513,58	1290,22
513,78	1212,40
513,98	1257,45
514,18	1245,16
514,38	1236,97
514,58	1325,04
514,78	1312,75
514,98	1339,37
515,18	1232,88
515,38	1247,21
515,58	1325,04
515,78	1284,08
515,98	1267,69
516,18	1269,74
516,38	1314,80
516,57	1183,73
516,77	1290,22
516,97	1286,12
517,17	1290,22
517,37	1277,93
517,57	1296,36
517,77	1322,99
517,97	1302,51
518,17	1212,40
518,37	1304,56
518,57	1267,69
518,77	1290,22
518,97	1318,89
519,16	1288,17
519,36	1251,31
519,56	1247,21
519,76	1351,66
519,96	1257,45
520,16	1241,07
520,36	1316,84
520,56	1241,07
520,76	1306,60
520,96	1316,84
521,16	1243,12
521,35	1251,31
521,55	1343,47
521,75	1292,27
521,95	1282,03
522,15	1261,55
522,35	1267,69
522,55	1339,37
522,75	1271,79
522,95	1347,56
523,14	1282,03
523,34	1239,02
523,54	1298,41
523,74	1247,21
523,94	1275,88
524,14	1325,04
524,34	1230,83
524,54	1359,85
524,73	1228,78
524,93	1372,14
525,13	1318,89
525,33	1277,93
525,53	1380,33
525,73	1288,17
525,93	1275,88
526,13	1214,45
526,32	1208,30
526,52	1208,30
526,72	1292,27
526,92	1288,17
527,12	1376,24
527,32	1200,11
527,52	1298,41
527,71	1265,64
527,91	1304,56
528,11	1308,65
528,31	1222,64
528,51	1322,99
528,71	1290,22
528,90	1302,51
529,10	1241,07
529,30	1347,56
529,50	1337,32
529,70	1275,88
529,90	1318,89
530,09	1241,07
530,29	1243,12
530,49	1257,45
530,69	1279,98
530,89	1351,66
531,09	1263,60
531,28	1300,46
531,48	1185,77
531,68	1335,28
531,88	1288,17
532,08	1302,51
532,28	1302,51
532,47	1275,88
532,67	1292,27
532,87	1392,62
533,07	1241,07
533,27	1282,03
533,46	1265,64
533,66	1206,25
533,86	1331,18
534,06	1357,80
534,26	1275,88
534,45	1384,43
534,65	1329,13
534,85	1253,36
535,05	1312,75
535,25	1292,27
535,44	1296,36
535,64	1267,69
535,84	1290,22
536,04	1306,60
536,24	1239,02
536,43	1214,45
536,63	1312,75
536,83	1228,78
537,03	1255,40
537,22	1245,16
537,42	1241,07
537,62	1257,45
537,82	1236,97
538,02	1337,32
538,21	1216,49
538,41	1316,84
538,61	1257,45
538,81	1294,32
539,00	1249,26
539,20	1288,17
539,40	1267,69
539,60	1265,64
539,79	1300,46
539,99	1241,07
540,19	1255,40
540,39	1294,32
540,58	1265,64
540,78	1306,60
540,98	1296,36
541,18	1210,35
541,37	1273,84
541,57	1222,64
541,77	1290,22
541,97	1241,07
542,16	1312,75
542,36	1273,84
542,56	1347,56
542,76	1290,22
542,95	1257,45
543,15	1228,78
543,35	1312,75
543,54	1247,21
543,74	1218,54
543,94	1206,25
544,14	1245,16
544,33	1298,41
544,53	1292,27
544,73	1320,94
544,93	1288,17
545,12	1308,65
545,32	1294,32
545,52	1304,56
545,71	1251,31
545,91	1347,56
546,11	1329,13
546,30	1245,16
546,50	1251,31
546,70	1314,80
546,90	1269,74
547,09	1269,74
547,29	1247,21
547,49	1298,41
547,68	1300,46
547,88	1300,46
548,08	1322,99
548,27	1286,12
548,47	1206,25
548,67	1181,68
548,87	1314,80
549,06	1298,41
549,26	1214,45
549,46	1271,79
549,65	1298,41
549,85	1277,93
550,05	1257,45
550,24	1314,80
550,44	1224,69
550,64	1275,88
550,83	1294,32
551,03	1331,18
551,23	1269,74
551,42	1357,80
551,62	1284,08
551,82	1349,61
552,01	1200,11
552,21	1275,88
552,41	1263,60
552,60	1267,69
552,80	1290,22
553,00	1243,12
553,19	1380,33
553,39	1286,12
553,59	1275,88
553,78	1314,80
553,98	1300,46
554,17	1226,73
554,37	1271,79
554,57	1230,83
554,76	1331,18
554,96	1253,36
555,16	1206,25
555,35	1255,40
555,55	1290,22
555,75	1341,42
555,94	1355,76
556,14	1202,16
556,33	1282,03
556,53	1273,84
556,73	1251,31
556,92	1361,90
557,12	1298,41
557,32	1318,89
557,51	1294,32
557,71	1251,31
557,90	1341,42
558,10	1263,60
558,30	1298,41
558,49	1355,76
558,69	1232,88
558,88	1257,45
559,08	1239,02
559,28	1216,49
559,47	1327,08
559,67	1277,93
559,86	1220,59
560,06	1198,06
560,26	1271,79
560,45	1288,17
560,65	1261,55
560,84	1275,88
561,04	1349,61
561,24	1228,78
561,43	1271,79
561,63	1265,64
561,82	1316,84
562,02	1228,78
562,22	1290,22
562,41	1271,79
562,61	1335,28
562,80	1261,55
563,00	1329,13
563,19	1314,80
563,39	1267,69
563,59	1279,98
563,78	1294,32
563,98	1325,04
564,17	1322,99
564,37	1290,22
564,56	1273,84
564,76	1187,82
564,96	1271,79
565,15	1261,55
565,35	1316,84
565,54	1296,36
565,74	1259,50
565,93	1267,69
566,13	1310,70
566,32	1232,88
566,52	1271,79
566,71	1296,36
566,91	1277,93
567,11	1314,80
567,30	1298,41
567,50	1269,74
567,69	1259,50
567,89	1376,24
568,08	1204,21
568,28	1312,75
568,47	1282,03
568,67	1208,30
568,86	1325,04
569,06	1296,36
569,25	1277,93
569,45	1230,83
569,64	1239,02
569,84	1306,60
570,04	1300,46
570,23	1296,36
570,43	1247,21
570,62	1275,88
570,82	1267,69
571,01	1306,60
571,21	1329,13
571,40	1265,64
571,60	1271,79
571,79	1288,17
571,99	1318,89
572,18	1286,12
572,38	1273,84
572,57	1294,32
572,77	1282,03
572,96	1308,65
573,16	1261,55
573,35	1296,36
573,55	1304,56
573,74	1296,36
573,94	1251,31
574,13	1312,75
574,33	1294,32
574,52	1310,70
574,71	1331,18
574,91	1294,32
575,10	1185,77
575,30	1269,74
575,49	1341,42
575,69	1214,45
575,88	1310,70
576,08	1255,40
576,27	1282,03
576,47	1345,52
576,66	1316,84
576,86	1296,36
577,05	1286,12
577,25	1343,47
577,44	1279,98
577,64	1282,03
577,83	1306,60
578,02	1284,08
578,22	1271,79
578,41	1216,49
578,61	1277,93
578,80	1282,03
579,00	1257,45
579,19	1228,78
579,39	1241,07
579,58	1288,17
579,77	1312,75
579,97	1234,93
580,16	1265,64
580,36	1261,55
580,55	1249,26
580,75	1302,51
580,94	1329,13
581,13	1325,04
581,33	1292,27
581,52	1236,97
581,72	1228,78
581,91	1292,27
582,11	1255,40
582,30	1339,37
582,49	1296,36
582,69	1191,92
582,88	1259,50
583,08	1284,08
583,27	1318,89
583,47	1273,84
583,66	1271,79
583,85	1298,41
584,05	1316,84
584,24	1255,40
584,44	1277,93
584,63	1200,11
584,82	1263,60
585,02	1259,50
585,21	1335,28
585,41	1316,84
585,60	1224,69
585,79	1230,83
585,99	1314,80
586,18	1245,16
586,37	1306,60
586,57	1267,69
586,76	1327,08
586,96	1273,84
587,15	1265,64
587,34	1347,56
587,54	1288,17
587,73	1255,40
587,93	1236,97
588,12	1286,12
588,31	1316,84
588,51	1308,65
588,70	1251,31
588,89	1290,22
589,09	1327,08
589,28	1308,65
589,47	1282,03
589,67	1310,70
589,86	1337,32
590,06	1294,32
590,25	1286,12
590,44	1277,93
590,64	1318,89
590,83	1261,55
591,02	1376,24
591,22	1288,17
591,41	1249,26
591,60	1228,78
591,80	1288,17
591,99	1298,41
592,18	1290,22
592,38	1241,07
592,57	1230,83
592,76	1331,18
592,96	1290,22
593,15	1253,36
593,34	1253,36
593,54	1310,70
593,73	1288,17
593,92	1308,65
594,12	1286,12
594,31	1220,59
594,50	1300,46
594,70	1279,98
594,89	1298,41
595,08	1267,69
595,28	1249,26
595,47	1261,55
595,66	1245,16
595,86	1212,40
596,05	1333,23
596,24	1269,74
596,43	1273,84
596,63	1286,12
596,82	1277,93
597,01	1302,51
597,21	1265,64
597,40	1329,13
597,59	1316,84
597,79	1265,64
597,98	1279,98
598,17	1380,33
598,36	1286,12
598,56	1230,83
598,75	1265,64
598,94	1357,80
599,14	1269,74
599,33	1349,61
599,52	1304,56
599,71	1290,22
599,91	1335,28
600,10	1327,08
600,29	1216,49
600,48	1331,18
600,68	1271,79
600,87	1300,46
601,06	1294,32
601,26	1261,55
601,45	1288,17
601,64	1279,98
601,83	1247,21
602,03	1232,88
602,22	1288,17
602,41	1302,51
602,60	1302,51
602,80	1261,55
602,99	1306,60
603,18	1290,22
603,37	1300,46
603,57	1308,65
603,76	1345,52
603,95	1232,88
604,14	1329,13
604,34	1263,60
604,53	1361,90
604,72	1296,36
604,91	1261,55
605,10	1363,95
605,30	1277,93
605,49	1282,03
605,68	1259,50
605,87	1212,40
606,07	1269,74
606,26	1275,88
606,45	1290,22
606,64	1316,84
606,84	1306,60
607,03	1314,80
607,22	1292,27
607,41	1241,07
607,60	1425,39
607,80	1361,90
607,99	1304,56
608,18	1327,08
608,37	1292,27
608,56	1290,22
608,76	1322,99
608,95	1265,64
609,14	1247,21
609,33	1292,27
609,52	1251,31
609,72	1302,51
609,91	1361,90
610,10	1282,03
610,29	1347,56
610,48	1339,37
610,68	1273,84
610,87	1257,45
611,06	1255,40
611,25	1298,41
611,44	1298,41
611,63	1251,31
611,83	1234,93
612,02	1216,49
612,21	1234,93
612,40	1245,16
612,59	1310,70
612,79	1282,03
612,98	1257,45
613,17	1290,22
613,36	1318,89
613,55	1243,12
613,74	1249,26
613,93	1329,13
614,13	1282,03
614,32	1294,32
614,51	1380,33
614,70	1282,03
614,89	1290,22
615,08	1284,08
615,28	1288,17
615,47	1292,27
615,66	1279,98
615,85	1318,89
616,04	1236,97
616,23	1345,52
616,42	1275,88
616,62	1273,84
616,81	1284,08
617,00	1226,73
617,19	1304,56
617,38	1202,16
617,57	1200,11
617,76	1273,84
617,95	1263,60
618,15	1298,41
618,34	1282,03
618,53	1255,40
618,72	1206,25
618,91	1249,26
619,10	1353,71
619,29	1271,79
619,48	1304,56
619,68	1316,84
619,87	1286,12
620,06	1294,32
620,25	1220,59
620,44	1267,69
620,63	1290,22
620,82	1275,88
621,01	1337,32
621,20	1376,24
621,39	1277,93
621,59	1288,17
621,78	1208,30
621,97	1277,93
622,16	1236,97
622,35	1226,73
622,54	1232,88
622,73	1230,83
622,92	1255,40
623,11	1239,02
623,30	1269,74
623,49	1249,26
623,68	1255,40
623,88	1355,76
624,07	1232,88
624,26	1243,12
624,45	1318,89
624,64	1363,95
624,83	1277,93
625,02	1286,12
625,21	1359,85
625,40	1261,55
625,59	1279,98
625,78	1320,94
625,97	1337,32
626,16	1312,75
626,35	1263,60
626,54	1228,78
626,74	1314,80
626,93	1243,12
627,12	1277,93
627,31	1290,22
627,50	1265,64
627,69	1288,17
627,88	1290,22
628,07	1331,18
628,26	1279,98
628,45	1329,13
628,64	1271,79
628,83	1224,69
629,02	1325,04
629,21	1318,89
629,40	1339,37
629,59	1290,22
629,78	1247,21
629,97	1331,18
630,16	1282,03
630,35	1183,73
630,54	1339,37
630,73	1361,90
630,92	1314,80
631,11	1370,09
631,30	1298,41
631,49	1239,02
631,68	1415,15
631,87	2605,02
632,06	7153,55
632,25	11937,61
632,44	18527,97
632,63	28372,56
632,82	31270,43
633,01	17596,15
633,20	7106,45
633,39	4274,11
633,58	3114,96
633,77	2645,98
633,96	2467,80
634,15	2271,20
634,34	1974,24
634,53	1873,89
634,72	1714,15
634,91	1675,24
635,10	1804,26
635,29	1624,04
635,48	1615,85
635,67	1570,79
635,86	1542,12
636,05	1529,83
636,24	1445,87
636,43	1445,87
636,62	1378,28
636,81	1322,99
637,00	1349,61
637,19	1292,27
637,38	1327,08
637,57	1329,13
637,76	1372,14
637,95	1359,85
638,14	1282,03
638,33	1304,56
638,52	1351,66
638,71	1259,50
638,89	1261,55
639,08	1355,76
639,27	1224,69
639,46	1304,56
639,65	1277,93
639,84	1310,70
640,03	1296,36
640,22	1257,45
640,41	1159,15
640,60	1277,93
640,79	1310,70
640,98	1200,11
641,17	1294,32
641,36	1261,55
641,55	1212,40
641,74	1222,64
641,92	1273,84
642,11	1255,40
642,30	1325,04
642,49	1261,55
642,68	1243,12
642,87	1236,97
643,06	1269,74
643,25	1325,04
643,44	1329,13
643,63	1265,64
643,82	1273,84
644,00	1263,60
644,19	1214,45
644,38	1150,96
644,57	1243,12
644,76	1312,75
644,95	1277,93
645,14	1271,79
645,33	1331,18
645,52	1273,84
645,71	1314,80
645,89	1286,12
646,08	1236,97
646,27	1329,13
646,46	1327,08
646,65	1290,22
646,84	1282,03
647,03	1327,08
647,22	1306,60
647,40	1265,64
647,59	1282,03
647,78	1224,69
647,97	1296,36
648,16	1200,11
648,35	1325,04
648,54	1267,69
648,73	1228,78
648,91	1320,94
649,10	1273,84
649,29	1322,99
649,48	1275,88
649,67	1345,52
649,86	1263,60
650,05	1370,09
650,23	1282,03
650,42	1247,21
650,61	1218,54
650,80	1273,84
650,99	1310,70
651,18	1245,16
651,36	1286,12
651,55	1236,97
651,74	1331,18
651,93	1271,79
652,12	1282,03
652,31	1349,61
652,49	1245,16
652,68	1236,97
652,87	1308,65
653,06	1286,12
653,25	1267,69
653,44	1310,70
653,62	1279,98
653,81	1267,69
654,00	1228,78
654,19	1269,74
654,38	1261,55
654,56	1296,36
654,75	1257,45
654,94	1300,46
655,13	1220,59
655,32	1236,97
655,51	1347,56
655,69	1273,84
655,88	1267,69
656,07	1241,07
656,26	1239,02
656,45	1255,40
656,63	1216,49
656,82	1255,40
657,01	1306,60
657,20	1255,40
657,38	1255,40
657,57	1329,13
657,76	1345,52
657,95	1353,71
658,14	1249,26
658,32	1245,16
658,51	1298,41
658,70	1269,74
658,89	1257,45
659,08	1263,60
659,26	1273,84
659,45	1204,21
659,64	1220,59
659,83	1249,26
660,01	1320,94
660,20	1292,27
660,39	1312,75
660,58	1236,97
660,76	1300,46
660,95	1257,45
661,14	1306,60
661,33	1318,89
661,51	1302,51
661,70	1306,60
661,89	1214,45
662,08	1269,74
662,26	1187,82
662,45	1257,45
662,64	1284,08
662,83	1255,40
663,01	1325,04
663,20	1245,16
663,39	1271,79
663,58	1302,51
663,76	1302,51
663,95	1314,80
664,14	1257,45
664,32	1234,93
664,51	1310,70
664,70	1261,55
664,89	1298,41
665,07	1200,11
665,26	1300,46
665,45	1243,12
665,64	1247,21
665,82	1275,88
666,01	1255,40
666,20	1212,40
666,38	1286,12
666,57	1245,16
666,76	1251,31
666,95	1288,17
667,13	1331,18
667,32	1284,08
667,51	1284,08
667,69	1259,50
667,88	1273,84
668,07	1284,08
668,25	1259,50
668,44	1298,41
668,63	1273,84
668,81	1335,28
669,00	1261,55
669,19	1193,97
669,38	1273,84
669,56	1222,64
669,75	1263,60
669,94	1253,36
670,12	1282,03
670,31	1167,34
670,50	1341,42
670,68	1263,60
670,87	1191,92
671,06	1331,18
671,24	1236,97
671,43	1288,17
671,62	1331,18
671,80	1226,73
671,99	1304,56
672,18	1265,64
672,36	1320,94
672,55	1337,32
672,74	1228,78
672,92	1241,07
673,11	1265,64
673,29	1294,32
673,48	1253,36
673,67	1243,12
673,85	1306,60
674,04	1228,78
674,23	1230,83
674,41	1290,22
674,60	1230,83
674,79	1249,26
674,97	1257,45
675,16	1306,60
675,34	1322,99
675,53	1279,98
675,72	1310,70
675,90	1269,74
676,09	1247,21
676,28	1216,49
676,46	1226,73
676,65	1302,51
676,83	1304,56
677,02	1236,97
677,21	1279,98
677,39	1288,17
677,58	1308,65
677,77	1282,03
677,95	1296,36
678,14	1384,43
678,32	1249,26
678,51	1222,64
678,70	1279,98
678,88	1247,21
679,07	1279,98
679,25	1243,12
679,44	1267,69
679,63	1251,31
679,81	1234,93
680,00	1314,80
680,18	1269,74
680,37	1234,93
680,55	1298,41
680,74	1226,73
680,93	1275,88
681,11	1277,93
681,30	1294,32
681,48	1277,93
681,67	1234,93
681,85	1355,76
682,04	1316,84
682,23	1255,40
682,41	1302,51
682,60	1271,79
682,78	1288,17
682,97	1292,27
683,15	1263,60
683,34	1275,88
683,53	1257,45
683,71	1253,36
683,90	1282,03
684,08	1279,98
684,27	1288,17
684,45	1263,60
684,64	1259,50
684,82	1265,64
685,01	1241,07
685,19	1290,22
685,38	1202,16
685,57	1224,69
685,75	1333,23
685,94	1290,22
686,12	1320,94
686,31	1275,88
686,49	1230,83
686,68	1216,49
686,86	1263,60
687,05	1191,92
687,23	1267,69
687,42	1232,88
687,60	1257,45
687,79	1239,02
687,97	1222,64
688,16	1312,75
688,34	1296,36
688,53	1284,08
688,71	1355,76
688,90	1247,21
689,08	1314,80
689,27	1202,16
689,45	1300,46
689,64	1271,79
689,82	1241,07
690,01	1249,26
690,19	1296,36
690,38	1210,35
690,56	1202,16
690,75	1224,69
690,93	1253,36
691,12	1292,27
691,30	1335,28
691,49	1245,16
691,67	1282,03
691,86	1325,04
692,04	1275,88
692,23	1273,84
692,41	1224,69
692,60	1306,60
692,78	1232,88
692,97	1236,97
693,15	1228,78
693,34	1282,03
693,52	1247,21
693,71	1288,17
693,89	1239,02
694,08	1257,45
694,26	1249,26
694,44	1306,60
694,63	1257,45
694,81	1216,49
695,00	1239,02
695,18	1255,40
695,37	1327,08
695,55	1177,58
695,74	1312,75
695,92	1282,03
696,10	1290,22
696,29	1230,83
696,47	1265,64
696,66	1253,36
696,84	1218,54
697,03	1243,12
697,21	1308,65
697,40	1273,84
697,58	1308,65
697,76	1374,19
697,95	1214,45
698,13	1257,45
698,32	1265,64
698,50	1228,78
698,68	1204,21
698,87	1267,69
699,05	1282,03
699,24	1222,64
699,42	1302,51
699,61	1310,70
699,79	1257,45
699,97	1232,88
700,16	1271,79
700,34	1245,16
700,53	1255,40
700,71	1290,22
700,89	1263,60
701,08	1255,40
701,26	1343,47
701,45	1312,75
701,63	1220,59
701,81	1245,16
702,00	1275,88
702,18	1345,52
702,37	1304,56
702,55	1257,45
702,73	1204,21
702,92	1243,12
703,10	1304,56
703,28	1339,37
703,47	1251,31
703,65	1251,31
703,84	1265,64
704,02	1257,45
704,20	1273,84
704,39	1271,79
704,57	1298,41
704,75	1243,12
704,94	1255,40
705,12	1320,94
705,30	1263,60
705,49	1253,36
705,67	1279,98
705,86	1314,80
706,04	1253,36
706,22	1232,88
706,41	1249,26
706,59	1261,55
706,77	1208,30
706,96	1261,55
707,14	1378,28
707,32	1251,31
707,51	1310,70
707,69	1257,45
707,87	1257,45
708,06	1290,22
708,24	1333,23
708,42	1312,75
708,61	1316,84
708,79	1243,12
708,97	1226,73
709,16	1316,84
709,34	1347,56
709,52	1226,73
709,71	1296,36
709,89	1245,16
710,07	1179,63
710,26	1259,50
710,44	1267,69
710,62	1239,02
710,80	1314,80
710,99	1343,47
711,17	1255,40
711,35	1269,74
711,54	1263,60
711,72	1253,36
711,90	1261,55
712,09	1257,45
712,27	1296,36
712,45	1204,21
712,63	1322,99
712,82	1279,98
713,00	1232,88
713,18	1322,99
713,37	1294,32
713,55	1304,56
713,73	1253,36
713,91	1247,21
714,10	1267,69
714,28	1214,45
714,46	1296,36
714,65	1267,69
714,83	1312,75
715,01	1247,21
715,19	1271,79
715,38	1253,36
715,56	1273,84
715,74	1310,70
715,92	1294,32
716,11	1239,02
716,29	1279,98
716,47	1265,64
716,65	1308,65
716,84	1337,32
717,02	1320,94
717,20	1265,64
717,38	1339,37
717,57	1239,02
717,75	1224,69
717,93	1292,27
718,11	1361,90
718,30	1208,30
718,48	1263,60
718,66	1204,21
718,84	1300,46
719,03	1181,68
719,21	1294,32
719,39	1316,84
719,57	1290,22
719,75	1210,35
719,94	1255,40
720,12	1251,31
720,30	1275,88
720,48	1275,88
720,67	1265,64
720,85	1335,28
721,03	1249,26
721,21	1206,25
721,39	1273,84
721,58	1327,08
721,76	1253,36
721,94	1245,16
722,12	1273,84
722,30	1275,88
722,49	1273,84
722,67	1343,47
722,85	1327,08
723,03	1304,56
723,21	1212,40
723,40	1232,88
723,58	1265,64
723,76	1228,78
723,94	1208,30
724,12	1296,36
724,30	1302,51
724,49	1257,45
724,67	1279,98
724,85	1327,08
725,03	1259,50
725,21	1257,45
725,40	1249,26
725,58	1286,12
725,76	1265,64
725,94	1261,55
726,12	1288,17
726,30	1257,45
726,49	1298,41
726,67	1322,99
726,85	1325,04
727,03	1259,50
727,21	1263,60
727,39	1247,21
727,57	1277,93
727,76	1214,45
727,94	1230,83
728,12	1210,35
728,30	1226,73
728,48	1271,79
728,66	1263,60
728,84	1206,25
729,03	1226,73
729,21	1249,26
729,39	1275,88
729,57	1249,26
729,75	1218,54
729,93	1292,27
730,11	1282,03
730,30	1300,46
730,48	1312,75
730,66	1232,88
730,84	1290,22
731,02	1245,16
731,20	1298,41
731,38	1290,22
731,56	1206,25
731,74	1304,56
731,93	1226,73
732,11	1290,22
732,29	1193,97
732,47	1277,93
732,65	1214,45
732,83	1212,40
733,01	1306,60
733,19	1306,60
733,37	1239,02
733,56	1241,07
733,74	1296,36
733,92	1353,71
734,10	1286,12
734,28	1255,40
734,46	1245,16
734,64	1288,17
734,82	1290,22
735,00	1269,74
735,18	1247,21
735,36	1298,41
735,54	1290,22
735,73	1255,40
735,91	1304,56
736,09	1290,22
736,27	1224,69
736,45	1275,88
736,63	1245,16
736,81	1239,02
736,99	1226,73
737,17	1257,45
737,35	1232,88
737,53	1247,21
737,71	1214,45
737,89	1269,74
738,07	1267,69
738,25	1343,47
738,43	1245,16
738,61	1214,45
738,80	1214,45
738,98	1292,27
739,16	1253,36
739,34	1267,69
739,52	1257,45
739,70	1243,12
739,88	1292,27
740,06	1296,36
740,24	1273,84
740,42	1282,03
740,60	1294,32
740,78	1234,93
740,96	1359,85
741,14	1241,07
741,32	1308,65
741,50	1273,84
741,68	1267,69
741,86	1257,45
742,04	1269,74
742,22	1218,54
742,40	1210,35
742,58	1275,88
742,76	1277,93
742,94	1198,06
743,12	1292,27
743,30	1261,55
743,48	1269,74
743,66	1259,50
743,84	1271,79
744,02	1196,01
744,20	1255,40
744,38	1322,99
744,56	1249,26
744,74	1327,08
744,92	1214,45
745,10	1265,64
745,28	1263,60
745,46	1257,45
745,64	1294,32
745,82	1286,12
746,00	1247,21
746,18	1282,03
746,36	1314,80
746,54	1318,89
746,72	1316,84
746,90	1222,64
747,08	1310,70
747,26	1265,64
747,44	1273,84
747,62	1198,06
747,80	1255,40
747,98	1236,97
748,15	1253,36
748,33	1288,17
748,51	1277,93
748,69	1202,16
748,87	1310,70
749,05	1329,13
749,23	1206,25
749,41	1294,32
749,59	1273,84
749,77	1335,28
749,95	1300,46
750,13	1300,46
750,31	1245,16
750,49	1327,08
750,67	1343,47
750,85	1220,59
751,03	1284,08
751,20	1232,88
751,38	1232,88
751,56	1306,60
751,74	1286,12
751,92	1234,93
752,10	1273,84
752,28	1249,26
752,46	1282,03
752,64	1249,26
752,82	1273,84
753,00	1333,23
753,18	1218,54
753,35	1269,74
753,53	1198,06
753,71	1257,45
753,89	1222,64
754,07	1310,70
754,25	1306,60
754,43	1318,89
754,61	1271,79
754,79	1275,88
754,97	1288,17
755,14	1261,55
755,32	1316,84
755,50	1249,26
755,68	1200,11
755,86	1234,93
756,04	1259,50
756,22	1275,88
756,40	1232,88
756,57	1345,52
756,75	1314,80
756,93	1204,21
757,11	1259,50
757,29	1175,53
757,47	1265,64
757,65	1234,93
757,82	1200,11
758,00	1236,97
758,18	1294,32
758,36	1341,42
758,54	1296,36
758,72	1249,26
758,90	1292,27
759,07	1230,83
759,25	1214,45
759,43	1304,56
759,61	1318,89
759,79	1349,61
759,97	1339,37
760,15	1228,78
760,32	1296,36
760,50	1177,58
760,68	1302,51
760,86	1200,11
761,04	1261,55
761,22	1320,94
761,39	1294,32
761,57	1275,88
761,75	1347,56
761,93	1300,46
762,11	1267,69
762,28	1234,93
762,46	1216,49
762,64	1320,94
762,82	1343,47
763,00	1286,12
763,18	1230,83
763,35	1269,74
763,53	1259,50
763,71	1255,40
763,89	1214,45
764,07	1345,52
764,24	1271,79
764,42	1322,99
764,60	1239,02
764,78	1247,21
764,96	1353,71
765,13	1290,22
765,31	1249,26
765,49	1304,56
765,67	1288,17
765,84	1259,50
766,02	1277,93
766,20	1282,03
766,38	1210,35
766,56	1306,60
766,73	1282,03
766,91	1234,93
767,09	1259,50
767,27	1234,93
767,44	1222,64
767,62	1243,12
767,80	1320,94
767,98	1228,78
768,15	1290,22
768,33	1228,78
768,51	1202,16
768,69	1308,65
768,87	1271,79
769,04	1327,08
769,22	1290,22
769,40	1292,27
769,58	1216,49
769,75	1251,31
769,93	1271,79
770,11	1310,70
770,28	1306,60
770,46	1230,83
770,64	1288,17
770,82	1263,60
770,99	1331,18
771,17	1255,40
771,35	1261,55
771,53	1218,54
771,70	1269,74
771,88	1296,36
772,06	1171,44
772,23	1322,99
772,41	1275,88
772,59	1261,55
772,77	1273,84
772,94	1265,64
773,12	1304,56
773,30	1234,93
773,47	1284,08
773,65	1310,70
773,83	1232,88
774,01	1296,36
774,18	1241,07
774,36	1249,26
774,54	1257,45
774,71	1263,60
774,89	1243,12
775,07	1230,83
775,24	1263,60
775,42	1320,94
775,60	1247,21
775,78	1265,64
775,95	1292,27
776,13	1279,98
776,31	1214,45
776,48	1236,97
776,66	1222,64
776,84	1243,12
777,01	1277,93
777,19	1228,78
777,37	1288,17
777,54	1236,97
777,72	1236,97
777,90	1267,69
778,07	1253,36
778,25	1232,88
778,43	1273,84
778,60	1226,73
778,78	1236,97
778,96	1249,26
779,13	1286,12
779,31	1271,79
779,49	1282,03
779,66	1232,88
779,84	1282,03
780,01	1273,84
780,19	1306,60
780,37	1253,36
780,54	1374,19
780,72	1282,03
780,90	1196,01
781,07	1292,27
781,25	1312,75
781,43	1296,36
781,60	1210,35
781,78	1288,17
781,95	1302,51
782,13	1329,13
782,31	1232,88
782,48	1273,84
782,66	1271,79
782,83	1277,93
783,01	1255,40
783,19	1249,26
783,36	1269,74
783,54	1322,99
783,72	1320,94
783,89	1331,18
784,07	1265,64
784,24	1265,64
784,42	1261,55
784,60	1366,00
784,77	1370,09
784,95	1320,94
785,12	1257,45
785,30	1304,56
785,47	1304,56
785,65	1175,53
785,83	1292,27
786,00	1333,23
786,18	1245,16
786,35	1327,08
786,53	1288,17
786,71	1282,03
786,88	1208,30
787,06	1257,45
787,23	1193,97
787,41	1366,00
787,58	1282,03
787,76	1277,93
787,94	1314,80
788,11	1249,26
788,29	1271,79
788,46	1279,98
788,64	1257,45
788,81	1320,94
788,99	1302,51
789,16	1300,46
789,34	1200,11
789,52	1261,55
789,69	1275,88
789,87	1304,56
790,04	1245,16
790,22	1290,22
790,39	1331,18
790,57	1333,23
790,74	1236,97
790,92	1263,60
791,09	1273,84
791,27	1241,07
791,44	1279,98
791,62	1251,31
791,79	1241,07
791,97	1251,31
792,15	1239,02
792,32	1279,98
792,50	1212,40
792,67	1236,97
792,85	1255,40
793,02	1249,26
793,20	1271,79
793,37	1228,78
793,55	1249,26
793,72	1218,54
793,90	1292,27
794,07	1284,08
794,25	1363,95
794,42	1218,54
794,60	1269,74
794,77	1243,12
794,95	1312,75
795,12	1341,42
795,30	1279,98
795,47	1226,73
795,65	1249,26
795,82	1275,88
796,00	1245,16
796,17	1290,22
796,34	1294,32
796,52	1296,36
796,69	1279,98
796,87	1277,93
797,04	1267,69
797,22	1290,22
797,39	1249,26
797,57	1253,36
797,74	1261,55
797,92	1243,12
798,09	1249,26
798,27	1286,12
798,44	1318,89
798,62	1286,12
798,79	1236,97
798,96	1275,88
799,14	1185,77
799,31	1216,49
799,49	1196,01
799,66	1218,54
799,84	1273,84
800,01	1308,65
800,19	1263,60
800,36	1271,79
800,53	1218,54
800,71	1322,99
800,88	1255,40
801,06	1306,60
801,23	1257,45
801,41	1279,98
801,58	1245,16
801,75	1302,51
801,93	1284,08
802,10	1257,45
802,28	1259,50
802,45	1251,31
802,63	1269,74
802,80	1302,51
802,97	1257,45
803,15	1296,36
803,32	1335,28
803,50	1196,01
803,67	1208,30
803,84	1216,49
804,02	1224,69
804,19	1300,46
804,37	1306,60
804,54	1271,79
804,71	1320,94
804,89	1232,88
805,06	1296,36
805,24	1288,17
805,41	1247,21
805,58	1298,41
805,76	1333,23
805,93	1241,07
806,10	1230,83
806,28	1302,51
806,45	1282,03
806,63	1251,31
806,80	1247,21
806,97	1271,79
807,15	1226,73
807,32	1236,97
807,49	1232,88
807,67	1286,12
807,84	1302,51
808,01	1273,84
808,19	1312,75
808,36	1300,46
808,54	1249,26
808,71	1255,40
808,88	1273,84
809,06	1251,31
809,23	1292,27
809,40	1259,50
809,58	1226,73
809,75	1286,12
809,92	1249,26
810,10	1191,92
810,27	1275,88
810,44	1316,84
810,62	1150,96
810,79	1179,63
810,96	1245,16
811,14	1208,30
811,31	1314,80
811,48	1265,64
811,66	1210,35
811,83	1265,64
812,00	1327,08
812,18	1318,89
812,35	1314,80
812,52	1312,75
812,69	1316,84
812,87	1269,74
813,04	1239,02
813,21	1329,13
813,39	1300,46
813,56	1228,78
813,73	1327,08
813,91	1255,40
814,08	1318,89
814,25	1236,97
814,42	1249,26
814,60	1302,51
814,77	1325,04
814,94	1275,88
815,12	1292,27
815,29	1300,46
815,46	1234,93
815,63	1187,82
815,81	1241,07
815,98	1286,12
816,15	1310,70
816,33	1259,50
816,50	1175,53
816,67	1329,13
816,84	1241,07
817,02	1247,21
817,19	1243,12
817,36	1175,53
817,53	1236,97
817,71	1271,79
817,88	1304,56
818,05	1290,22
818,22	1263,60
818,40	1253,36
818,57	1259,50
818,74	1294,32
818,91	1224,69
819,09	1216,49
819,26	1282,03
819,43	1269,74
819,60	1253,36
819,78	1318,89
819,95	1261,55
820,12	1271,79
820,29	1257,45
820,47	1232,88
820,64	1267,69
820,81	1257,45
820,98	1302,51
821,15	1265,64
821,33	1302,51
821,50	1275,88
821,67	1230,83
821,84	1218,54
822,02	1290,22
822,19	1320,94
822,36	1290,22
822,53	1288,17
822,70	1230,83
822,88	1273,84
823,05	1226,73
823,22	1296,36
823,39	1267,69
823,56	1249,26
823,74	1292,27
823,91	1216,49
824,08	1196,01
824,25	1251,31
824,42	1263,60
824,60	1316,84
824,77	1210,35
824,94	1294,32
825,11	1282,03
825,28	1216,49
825,45	1265,64
825,63	1232,88
825,80	1316,84
825,97	1275,88
826,14	1263,60
826,31	1263,60
826,48	1277,93
826,66	1294,32
826,83	1306,60
827,00	1316,84
827,17	1183,73
827,34	1306,60
827,51	1267,69
827,69	1220,59
827,86	1261,55
828,03	1275,88
828,20	1245,16
828,37	1294,32
828,54	1200,11
828,71	1249,26
828,89	1200,11
829,06	1257,45
829,23	1265,64
829,40	1253,36
829,57	1214,45
829,74	1288,17
829,91	1234,93
830,09	1265,64
830,26	1232,88
830,43	1298,41
830,60	1218,54
830,77	1271,79
830,94	1243,12
831,11	1236,97
831,28	1290,22
831,46	1337,32
831,63	1218,54
831,80	1298,41
831,97	1247,21
832,14	1308,65
832,31	1228,78
832,48	1249,26
832,65	1345,52
832,82	1294,32
832,99	1292,27
833,17	1206,25
833,34	1249,26
833,51	1335,28
833,68	1271,79
833,85	1253,36
834,02	1310,70
834,19	1185,77
834,36	1282,03
834,53	1316,84
834,70	1232,88
834,87	1351,66
835,04	1249,26
835,22	1273,84
835,39	1257,45
835,56	1273,84
835,73	1153,01
835,90	1224,69
836,07	1310,70
836,24	1284,08
836,41	1284,08
836,58	1322,99
836,75	1318,89
836,92	1185,77
837,09	1343,47
837,26	1261,55
837,43	1236,97
837,60	1263,60
837,77	1241,07
837,94	1198,06
838,12	1288,17
838,29	1286,12
838,46	1220,59
838,63	1286,12
838,80	1275,88
838,97	1331,18
839,14	1273,84
839,31	1277,93
839,48	1253,36
839,65	1230,83
839,82	1275,88
839,99	1316,84
840,16	1302,51
840,33	1298,41
840,50	1257,45
840,67	1239,02
840,84	1290,22
841,01	1234,93
841,18	1271,79
841,35	1255,40
841,52	1251,31
841,69	1269,74
841,86	1298,41
842,03	1249,26
842,20	1247,21
842,37	1251,31
842,54	1265,64
842,71	1284,08
842,88	1316,84
843,05	1196,01
843,22	1265,64
843,39	1234,93
843,56	1306,60
843,73	1267,69
843,90	1214,45
844,07	1273,84
844,24	1273,84
844,41	1320,94
844,58	1273,84
844,75	1247,21
844,92	1259,50
845,09	1255,40
845,26	1277,93
845,43	1333,23
845,60	1222,64
845,77	1310,70
845,94	1273,84
846,10	1292,27
846,27	1320,94
846,44	1267,69
846,61	1290,22
846,78	1255,40
846,95	1224,69
847,12	1224,69
847,29	1269,74
847,46	1263,60
847,63	1363,95
847,80	1263,60
847,97	1187,82
848,14	1267,69
848,31	1218,54
848,48	1298,41
848,65	1216,49
848,82	1290,22
848,98	1247,21
849,15	1241,07
849,32	1355,76
849,49	1263,60
849,66	1241,07
849,83	1224,69
850,00	1296,36
850,17	1232,88
850,34	1247,21
850,51	1312,75
850,68	1302,51
850,85	1269,74
851,01	1181,68
851,18	1251,31
851,35	1191,92
851,52	1236,97
851,69	1275,88
851,86	1286,12
852,03	1284,08
852,20	1277,93
852,37	1271,79
852,53	1204,21
852,70	1347,56
852,87	1294,32
853,04	1247,21
853,21	1236,97
853,38	1269,74
853,55	1279,98
853,72	1216,49
853,89	1306,60
854,05	1224,69
854,22	1271,79
854,39	1193,97
854,56	1286,12
854,73	1300,46
854,90	1273,84
855,07	1290,22
855,23	1304,56
855,40	1261,55
855,57	1263,60
855,74	1304,56
855,91	1279,98
856,08	1306,60
856,25	1333,23
856,41	1263,60
856,58	1171,44
856,75	1302,51
856,92	1177,58
857,09	1249,26
857,26	1120,24
857,42	1253,36
857,59	1245,16
857,76	1228,78
857,93	1259,50
858,10	1298,41
858,27	1304,56
858,43	1265,64
858,60	1249,26
858,77	1282,03
858,94	1290,22
859,11	1239,02
859,27	1273,84
859,44	1282,03
859,61	1216,49
859,78	1255,40
859,95	1273,84
860,12	1224,69
860,28	1298,41
860,45	1263,60
860,62	1292,27
860,79	1314,80
860,95	1296,36
861,12	1210,35
861,29	1302,51
861,46	1234,93
861,63	1282,03
861,79	1228,78
861,96	1216,49
862,13	1310,70
862,30	1185,77
862,47	1236,97
862,63	1275,88
862,80	1228,78
862,97	1318,89
863,14	1245,16
863,30	1226,73
863,47	1263,60
863,64	1257,45
863,81	1279,98
863,97	1222,64
864,14	1241,07
864,31	1292,27
864,48	1320,94
864,65	1193,97
864,81	1245,16
864,98	1322,99
865,15	1200,11
865,32	1243,12
865,48	1279,98
865,65	1259,50
865,82	1355,76
865,98	1304,56
866,15	1220,59
866,32	1251,31
866,49	1290,22
866,65	1212,40
866,82	1277,93
866,99	1257,45
867,16	1261,55
867,32	1314,80
867,49	1265,64
867,66	1271,79
867,83	1304,56
867,99	1286,12
868,16	1277,93
868,33	1263,60
868,49	1257,45
868,66	1228,78
868,83	1269,74
868,99	1345,52
869,16	1249,26
869,33	1275,88
869,50	1265,64
869,66	1204,21
869,83	1308,65
870,00	1333,23
870,16	1271,79
870,33	1251,31
870,50	1222,64
870,66	1271,79
870,83	1277,93
871,00	1335,28
871,17	1312,75
871,33	1282,03
871,50	1310,70
871,67	1263,60
871,83	1212,40
872,00	1200,11
872,17	1220,59
872,33	1273,84
872,50	1261,55
872,67	1292,27
872,83	1298,41
873,00	1253,36
873,17	1320,94
873,33	1312,75
873,50	1247,21
873,67	1226,73
873,83	1243,12
874,00	1255,40
874,16	1265,64
874,33	1284,08
874,50	1249,26
874,66	1267,69
874,83	1243,12
875,00	1251,31
875,16	1320,94
875,33	1286,12
875,50	1253,36
875,66	1247,21
875,83	1222,64
875,99	1331,18
876,16	1259,50
876,33	1257,45
876,49	1230,83
876,66	1310,70
876,83	1341,42
876,99	1239,02
877,16	1185,77
877,32	1249,26
877,49	1259,50
877,66	1267,69
877,82	1198,06
877,99	1339,37
878,15	1282,03
878,32	1316,84
878,49	1296,36
878,65	1277,93
878,82	1224,69
878,98	1202,16
879,15	1249,26
879,32	1275,88
879,48	1306,60
879,65	1351,66
879,81	1253,36
879,98	1304,56
880,15	1318,89
880,31	1290,22
880,48	1294,32
880,64	1308,65
880,81	1316,84
880,97	1308,65
881,14	1255,40
881,31	1218,54
881,47	1269,74
881,64	1279,98
881,80	1241,07
881,97	1265,64
882,13	1261,55
882,30	1298,41
882,47	1263,60
882,63	1275,88
882,80	1279,98
882,96	1286,12
883,13	1318,89
883,29	1308,65
883,46	1325,04
883,62	1243,12
883,79	1245,16
883,95	1282,03
884,12	1269,74
884,29	1243,12
884,45	1322,99
884,62	1191,92
884,78	1245,16
884,95	1239,02
885,11	1214,45
885,28	1269,74
885,44	1245,16
885,61	1286,12
885,77	1245,16
885,94	1267,69
886,10	1253,36
886,27	1279,98
886,43	1255,40
886,60	1269,74
886,76	1282,03
886,93	1284,08
887,09	1236,97
887,26	1247,21
887,42	1259,50
887,59	1279,98
887,75	1282,03
887,92	1236,97
888,08	1247,21
888,25	1279,98
888,41	1200,11
888,58	1331,18
888,74	1271,79
888,91	1275,88
>>>>>End Processed Spectral Data<<<<<
