SpectraSuite Data File
++++++++++++++++++++++++++++++++++++
Date: Sun Apr 03 19:55:26 CEST 2016
User: root
Dark Spectrum Present: No
Reference Spectrum Present: No
Number of Sampled Component Spectra: 1
Spectrometers: USB4C02835
Integration Time (usec): 10000 (USB4C02835)
Spectra Averaged: 1 (USB4C02835)
Boxcar Smoothing: 0 (USB4C02835)
Correct for Electrical Dark: No (USB4C02835)
Strobe/Lamp Enabled: No (USB4C02835)
Correct for Detector Non-linearity: No (USB4C02835)
Correct for Stray Light: No (USB4C02835)
Number of Pixels in Processed Spectrum: 3648
>>>>>Begin Processed Spectral Data<<<<<
177,47	1322,99
177,69	1322,99
177,91	1322,99
178,13	1298,41
178,36	1255,40
178,58	1267,69
178,80	1284,08
179,02	1236,97
179,24	1294,32
179,46	1296,36
179,68	1322,99
179,90	1306,60
180,13	1261,55
180,35	1255,40
180,57	1259,50
180,79	1251,31
181,01	1222,64
181,23	1249,26
181,45	1304,56
181,67	1331,18
181,90	1241,07
182,12	1339,37
182,34	1243,12
182,56	1263,60
182,78	1292,27
183,00	1255,40
183,22	1202,16
183,44	1224,69
183,66	1249,26
183,89	1275,88
184,11	1296,36
184,33	1243,12
184,55	1241,07
184,77	1271,79
184,99	1257,45
185,21	1284,08
185,43	1247,21
185,65	1249,26
185,87	1226,73
186,10	1257,45
186,32	1210,35
186,54	1339,37
186,76	1294,32
186,98	1279,98
187,20	1302,51
187,42	1302,51
187,64	1263,60
187,86	1222,64
188,08	1275,88
188,30	1191,92
188,52	1304,56
188,75	1247,21
188,97	1259,50
189,19	1204,21
189,41	1290,22
189,63	1265,64
189,85	1279,98
190,07	1214,45
190,29	1263,60
190,51	1292,27
190,73	1210,35
190,95	1228,78
191,17	1353,71
191,39	1284,08
191,61	1290,22
191,84	1247,21
192,06	1277,93
192,28	1228,78
192,50	1314,80
192,72	1183,73
192,94	1216,49
193,16	1220,59
193,38	1277,93
193,60	1300,46
193,82	1228,78
194,04	1155,05
194,26	1255,40
194,48	1312,75
194,70	1245,16
194,92	1312,75
195,14	1271,79
195,36	1279,98
195,58	1314,80
195,80	1259,50
196,02	1331,18
196,24	1247,21
196,46	1232,88
196,69	1290,22
196,91	1269,74
197,13	1259,50
197,35	1245,16
197,57	1292,27
197,79	1271,79
198,01	1220,59
198,23	1279,98
198,45	1249,26
198,67	1294,32
198,89	1296,36
199,11	1230,83
199,33	1241,07
199,55	1271,79
199,77	1284,08
199,99	1255,40
200,21	1333,23
200,43	1247,21
200,65	1245,16
200,87	1294,32
201,09	1282,03
201,31	1220,59
201,53	1216,49
201,75	1380,33
201,97	1294,32
202,19	1288,17
202,41	1243,12
202,63	1286,12
202,85	1296,36
203,07	1212,40
203,29	1247,21
203,51	1261,55
203,73	1243,12
203,95	1335,28
204,17	1273,84
204,39	1314,80
204,61	1271,79
204,83	1337,32
205,05	1333,23
205,27	1265,64
205,49	1255,40
205,71	1239,02
205,93	1234,93
206,15	1282,03
206,37	1257,45
206,59	1320,94
206,81	1292,27
207,03	1198,06
207,25	1298,41
207,47	1271,79
207,69	1255,40
207,91	1247,21
208,13	1294,32
208,34	1288,17
208,56	1288,17
208,78	1255,40
209,00	1282,03
209,22	1265,64
209,44	1232,88
209,66	1257,45
209,88	1290,22
210,10	1271,79
210,32	1196,01
210,54	1218,54
210,76	1200,11
210,98	1234,93
211,20	1273,84
211,42	1312,75
211,64	1310,70
211,86	1322,99
212,08	1257,45
212,30	1255,40
212,52	1259,50
212,74	1255,40
212,96	1263,60
213,17	1290,22
213,39	1275,88
213,61	1279,98
213,83	1249,26
214,05	1284,08
214,27	1284,08
214,49	1310,70
214,71	1216,49
214,93	1314,80
215,15	1282,03
215,37	1224,69
215,59	1320,94
215,81	1220,59
216,03	1320,94
216,24	1245,16
216,46	1218,54
216,68	1220,59
216,90	1282,03
217,12	1210,35
217,34	1306,60
217,56	1306,60
217,78	1224,69
218,00	1308,65
218,22	1253,36
218,44	1292,27
218,66	1294,32
218,87	1212,40
219,09	1173,49
219,31	1245,16
219,53	1322,99
219,75	1251,31
219,97	1230,83
220,19	1335,28
220,41	1286,12
220,63	1294,32
220,85	1245,16
221,06	1167,34
221,28	1263,60
221,50	1239,02
221,72	1275,88
221,94	1234,93
222,16	1277,93
222,38	1308,65
222,60	1302,51
222,82	1292,27
223,03	1275,88
223,25	1212,40
223,47	1257,45
223,69	1261,55
223,91	1304,56
224,13	1286,12
224,35	1202,16
224,57	1316,84
224,78	1308,65
225,00	1269,74
225,22	1290,22
225,44	1308,65
225,66	1232,88
225,88	1224,69
226,10	1193,97
226,32	1247,21
226,53	1247,21
226,75	1259,50
226,97	1259,50
227,19	1204,21
227,41	1230,83
227,63	1271,79
227,85	1245,16
228,06	1320,94
228,28	1265,64
228,50	1290,22
228,72	1277,93
228,94	1261,55
229,16	1249,26
229,37	1243,12
229,59	1218,54
229,81	1320,94
230,03	1204,21
230,25	1185,77
230,47	1259,50
230,69	1265,64
230,90	1245,16
231,12	1243,12
231,34	1269,74
231,56	1308,65
231,78	1329,13
232,00	1249,26
232,21	1253,36
232,43	1259,50
232,65	1273,84
232,87	1320,94
233,09	1255,40
233,30	1208,30
233,52	1236,97
233,74	1245,16
233,96	1277,93
234,18	1230,83
234,40	1298,41
234,61	1327,08
234,83	1284,08
235,05	1259,50
235,27	1320,94
235,49	1259,50
235,70	1314,80
235,92	1308,65
236,14	1193,97
236,36	1257,45
236,58	1241,07
236,79	1304,56
237,01	1316,84
237,23	1265,64
237,45	1253,36
237,67	1169,39
237,88	1247,21
238,10	1298,41
238,32	1216,49
238,54	1251,31
238,76	1243,12
238,97	1304,56
239,19	1294,32
239,41	1298,41
239,63	1253,36
239,85	1282,03
240,06	1288,17
240,28	1288,17
240,50	1241,07
240,72	1247,21
240,93	1245,16
241,15	1249,26
241,37	1261,55
241,59	1247,21
241,81	1300,46
242,02	1279,98
242,24	1290,22
242,46	1259,50
242,68	1241,07
242,89	1288,17
243,11	1144,81
243,33	1214,45
243,55	1308,65
243,76	1261,55
243,98	1228,78
244,20	1290,22
244,42	1247,21
244,64	1304,56
244,85	1251,31
245,07	1294,32
245,29	1322,99
245,51	1208,30
245,72	1241,07
245,94	1304,56
246,16	1275,88
246,38	1247,21
246,59	1214,45
246,81	1230,83
247,03	1257,45
247,24	1269,74
247,46	1288,17
247,68	1259,50
247,90	1253,36
248,11	1294,32
248,33	1232,88
248,55	1271,79
248,77	1167,34
248,98	1269,74
249,20	1279,98
249,42	1306,60
249,64	1239,02
249,85	1204,21
250,07	1167,34
250,29	1322,99
250,50	1290,22
250,72	1288,17
250,94	1226,73
251,16	1306,60
251,37	1220,59
251,59	1304,56
251,81	1273,84
252,02	1257,45
252,24	1273,84
252,46	1314,80
252,68	1290,22
252,89	1239,02
253,11	1200,11
253,33	1243,12
253,54	1263,60
253,76	1306,60
253,98	1204,21
254,20	1241,07
254,41	1271,79
254,63	1216,49
254,85	1253,36
255,06	1265,64
255,28	1226,73
255,50	1206,25
255,71	1212,40
255,93	1284,08
256,15	1241,07
256,36	1322,99
256,58	1275,88
256,80	1312,75
257,02	1183,73
257,23	1327,08
257,45	1259,50
257,67	1320,94
257,88	1310,70
258,10	1230,83
258,32	1290,22
258,53	1202,16
258,75	1267,69
258,97	1226,73
259,18	1306,60
259,40	1251,31
259,62	1253,36
259,83	1304,56
260,05	1392,62
260,27	1314,80
260,48	1325,04
260,70	1241,07
260,92	1316,84
261,13	1320,94
261,35	1265,64
261,57	1290,22
261,78	1320,94
262,00	1224,69
262,22	1206,25
262,43	1255,40
262,65	1304,56
262,86	1245,16
263,08	1253,36
263,30	1232,88
263,51	1236,97
263,73	1269,74
263,95	1331,18
264,16	1265,64
264,38	1343,47
264,60	1327,08
264,81	1325,04
265,03	1320,94
265,25	1230,83
265,46	1245,16
265,68	1310,70
265,89	1232,88
266,11	1243,12
266,33	1247,21
266,54	1329,13
266,76	1271,79
266,98	1310,70
267,19	1214,45
267,41	1279,98
267,62	1224,69
267,84	1247,21
268,06	1232,88
268,27	1331,18
268,49	1241,07
268,70	1259,50
268,92	1210,35
269,14	1306,60
269,35	1239,02
269,57	1302,51
269,79	1243,12
270,00	1247,21
270,22	1247,21
270,43	1290,22
270,65	1314,80
270,87	1286,12
271,08	1212,40
271,30	1294,32
271,51	1241,07
271,73	1298,41
271,95	1284,08
272,16	1251,31
272,38	1282,03
272,59	1255,40
272,81	1249,26
273,02	1282,03
273,24	1263,60
273,46	1269,74
273,67	1267,69
273,89	1284,08
274,10	1216,49
274,32	1273,84
274,54	1279,98
274,75	1271,79
274,97	1214,45
275,18	1296,36
275,40	1331,18
275,61	1259,50
275,83	1279,98
276,05	1329,13
276,26	1224,69
276,48	1312,75
276,69	1247,21
276,91	1302,51
277,12	1251,31
277,34	1286,12
277,55	1316,84
277,77	1202,16
277,99	1255,40
278,20	1279,98
278,42	1353,71
278,63	1273,84
278,85	1249,26
279,06	1239,02
279,28	1279,98
279,49	1247,21
279,71	1243,12
279,93	1232,88
280,14	1310,70
280,36	1239,02
280,57	1288,17
280,79	1282,03
281,00	1247,21
281,22	1296,36
281,43	1300,46
281,65	1179,63
281,86	1216,49
282,08	1327,08
282,29	1263,60
282,51	1220,59
282,73	1243,12
282,94	1277,93
283,16	1277,93
283,37	1269,74
283,59	1275,88
283,80	1230,83
284,02	1245,16
284,23	1245,16
284,45	1200,11
284,66	1255,40
284,88	1310,70
285,09	1286,12
285,31	1292,27
285,52	1335,28
285,74	1261,55
285,95	1220,59
286,17	1271,79
286,38	1306,60
286,60	1267,69
286,81	1290,22
287,03	1255,40
287,24	1253,36
287,46	1290,22
287,67	1212,40
287,89	1318,89
288,10	1304,56
288,32	1222,64
288,53	1263,60
288,75	1292,27
288,96	1232,88
289,18	1196,01
289,39	1261,55
289,61	1320,94
289,82	1282,03
290,04	1218,54
290,25	1185,77
290,47	1253,36
290,68	1175,53
290,90	1206,25
291,11	1312,75
291,33	1251,31
291,54	1353,71
291,76	1269,74
291,97	1236,97
292,18	1286,12
292,40	1249,26
292,61	1282,03
292,83	1302,51
293,04	1316,84
293,26	1310,70
293,47	1372,14
293,69	1290,22
293,90	1245,16
294,12	1335,28
294,33	1314,80
294,55	1193,97
294,76	1286,12
294,97	1310,70
295,19	1267,69
295,40	1263,60
295,62	1282,03
295,83	1251,31
296,05	1312,75
296,26	1249,26
296,48	1284,08
296,69	1294,32
296,90	1234,93
297,12	1257,45
297,33	1189,87
297,55	1279,98
297,76	1216,49
297,98	1232,88
298,19	1247,21
298,41	1282,03
298,62	1247,21
298,83	1271,79
299,05	1216,49
299,26	1306,60
299,48	1310,70
299,69	1202,16
299,90	1210,35
300,12	1206,25
300,33	1255,40
300,55	1300,46
300,76	1306,60
300,98	1218,54
301,19	1275,88
301,40	1269,74
301,62	1329,13
301,83	1290,22
302,05	1298,41
302,26	1298,41
302,47	1222,64
302,69	1245,16
302,90	1312,75
303,12	1284,08
303,33	1257,45
303,54	1298,41
303,76	1251,31
303,97	1206,25
304,19	1300,46
304,40	1216,49
304,61	1312,75
304,83	1308,65
305,04	1335,28
305,26	1255,40
305,47	1234,93
305,68	1277,93
305,90	1333,23
306,11	1253,36
306,33	1310,70
306,54	1236,97
306,75	1255,40
306,97	1196,01
307,18	1282,03
307,39	1275,88
307,61	1239,02
307,82	1269,74
308,04	1286,12
308,25	1294,32
308,46	1282,03
308,68	1253,36
308,89	1239,02
309,10	1308,65
309,32	1277,93
309,53	1251,31
309,74	1331,18
309,96	1292,27
310,17	1318,89
310,39	1310,70
310,60	1275,88
310,81	1300,46
311,03	1253,36
311,24	1271,79
311,45	1269,74
311,67	1310,70
311,88	1216,49
312,09	1249,26
312,31	1271,79
312,52	1191,92
312,73	1239,02
312,95	1234,93
313,16	1255,40
313,37	1304,56
313,59	1290,22
313,80	1261,55
314,01	1249,26
314,23	1308,65
314,44	1257,45
314,65	1335,28
314,87	1277,93
315,08	1296,36
315,29	1208,30
315,51	1279,98
315,72	1226,73
315,93	1292,27
316,15	1300,46
316,36	1265,64
316,57	1294,32
316,79	1267,69
317,00	1384,43
317,21	1232,88
317,43	1247,21
317,64	1275,88
317,85	1263,60
318,07	1343,47
318,28	1230,83
318,49	1251,31
318,70	1273,84
318,92	1224,69
319,13	1279,98
319,34	1245,16
319,56	1257,45
319,77	1251,31
319,98	1322,99
320,20	1200,11
320,41	1331,18
320,62	1320,94
320,83	1222,64
321,05	1325,04
321,26	1255,40
321,47	1222,64
321,69	1275,88
321,90	1304,56
322,11	1265,64
322,32	1286,12
322,54	1261,55
322,75	1228,78
322,96	1208,30
323,18	1273,84
323,39	1286,12
323,60	1206,25
323,81	1265,64
324,03	1288,17
324,24	1216,49
324,45	1345,52
324,66	1282,03
324,88	1265,64
325,09	1216,49
325,30	1279,98
325,52	1343,47
325,73	1232,88
325,94	1255,40
326,15	1306,60
326,37	1249,26
326,58	1284,08
326,79	1273,84
327,00	1216,49
327,22	1241,07
327,43	1304,56
327,64	1245,16
327,85	1277,93
328,07	1224,69
328,28	1269,74
328,49	1279,98
328,70	1271,79
328,92	1314,80
329,13	1306,60
329,34	1263,60
329,55	1251,31
329,76	1271,79
329,98	1200,11
330,19	1310,70
330,40	1298,41
330,61	1232,88
330,83	1232,88
331,04	1271,79
331,25	1286,12
331,46	1271,79
331,68	1236,97
331,89	1284,08
332,10	1302,51
332,31	1316,84
332,52	1236,97
332,74	1239,02
332,95	1187,82
333,16	1296,36
333,37	1284,08
333,58	1304,56
333,80	1282,03
334,01	1296,36
334,22	1251,31
334,43	1282,03
334,64	1273,84
334,86	1261,55
335,07	1296,36
335,28	1271,79
335,49	1220,59
335,70	1292,27
335,92	1220,59
336,13	1232,88
336,34	1224,69
336,55	1277,93
336,76	1279,98
336,98	1241,07
337,19	1277,93
337,40	1282,03
337,61	1288,17
337,82	1216,49
338,04	1306,60
338,25	1226,73
338,46	1300,46
338,67	1249,26
338,88	1316,84
339,09	1245,16
339,31	1300,46
339,52	1236,97
339,73	1251,31
339,94	1331,18
340,15	1294,32
340,36	1226,73
340,58	1257,45
340,79	1226,73
341,00	1298,41
341,21	1312,75
341,42	1310,70
341,63	1261,55
341,85	1271,79
342,06	1212,40
342,27	1298,41
342,48	1263,60
342,69	1226,73
342,90	1271,79
343,12	1316,84
343,33	1245,16
343,54	1193,97
343,75	1294,32
343,96	1284,08
344,17	1273,84
344,38	1224,69
344,60	1230,83
344,81	1224,69
345,02	1290,22
345,23	1249,26
345,44	1261,55
345,65	1322,99
345,86	1331,18
346,07	1269,74
346,29	1275,88
346,50	1236,97
346,71	1282,03
346,92	1329,13
347,13	1288,17
347,34	1218,54
347,55	1292,27
347,76	1230,83
347,98	1212,40
348,19	1259,50
348,40	1294,32
348,61	1288,17
348,82	1269,74
349,03	1259,50
349,24	1306,60
349,45	1312,75
349,66	1329,13
349,88	1255,40
350,09	1253,36
350,30	1298,41
350,51	1296,36
350,72	1298,41
350,93	1279,98
351,14	1179,63
351,35	1259,50
351,56	1282,03
351,77	1275,88
351,99	1206,25
352,20	1292,27
352,41	1271,79
352,62	1249,26
352,83	1302,51
353,04	1247,21
353,25	1271,79
353,46	1265,64
353,67	1173,49
353,88	1310,70
354,09	1245,16
354,30	1251,31
354,52	1191,92
354,73	1296,36
354,94	1243,12
355,15	1265,64
355,36	1318,89
355,57	1286,12
355,78	1257,45
355,99	1271,79
356,20	1255,40
356,41	1308,65
356,62	1286,12
356,83	1277,93
357,04	1355,76
357,25	1300,46
357,46	1228,78
357,68	1306,60
357,89	1273,84
358,10	1290,22
358,31	1269,74
358,52	1241,07
358,73	1236,97
358,94	1239,02
359,15	1191,92
359,36	1353,71
359,57	1275,88
359,78	1275,88
359,99	1302,51
360,20	1243,12
360,41	1241,07
360,62	1216,49
360,83	1257,45
361,04	1216,49
361,25	1298,41
361,46	1329,13
361,67	1228,78
361,88	1239,02
362,09	1218,54
362,30	1236,97
362,51	1271,79
362,72	1273,84
362,93	1304,56
363,14	1331,18
363,35	1269,74
363,56	1259,50
363,78	1257,45
363,99	1279,98
364,20	1322,99
364,41	1288,17
364,62	1261,55
364,83	1263,60
365,04	1298,41
365,25	1230,83
365,46	1271,79
365,67	1298,41
365,88	1193,97
366,09	1259,50
366,30	1300,46
366,51	1304,56
366,72	1273,84
366,93	1296,36
367,14	1257,45
367,35	1273,84
367,56	1294,32
367,77	1290,22
367,98	1263,60
368,18	1226,73
368,39	1282,03
368,60	1241,07
368,81	1257,45
369,02	1210,35
369,23	1275,88
369,44	1257,45
369,65	1218,54
369,86	1288,17
370,07	1214,45
370,28	1230,83
370,49	1277,93
370,70	1249,26
370,91	1161,20
371,12	1218,54
371,33	1253,36
371,54	1239,02
371,75	1232,88
371,96	1189,87
372,17	1216,49
372,38	1216,49
372,59	1216,49
372,80	1322,99
373,01	1282,03
373,22	1322,99
373,43	1196,01
373,64	1312,75
373,85	1189,87
374,06	1353,71
374,26	1224,69
374,47	1353,71
374,68	1251,31
374,89	1331,18
375,10	1341,42
375,31	1292,27
375,52	1255,40
375,73	1300,46
375,94	1312,75
376,15	1263,60
376,36	1228,78
376,57	1220,59
376,78	1214,45
376,99	1273,84
377,20	1247,21
377,40	1228,78
377,61	1269,74
377,82	1249,26
378,03	1320,94
378,24	1224,69
378,45	1275,88
378,66	1241,07
378,87	1255,40
379,08	1239,02
379,29	1243,12
379,50	1275,88
379,71	1308,65
379,91	1335,28
380,12	1333,23
380,33	1269,74
380,54	1320,94
380,75	1320,94
380,96	1265,64
381,17	1273,84
381,38	1294,32
381,59	1247,21
381,80	1257,45
382,00	1282,03
382,21	1271,79
382,42	1275,88
382,63	1316,84
382,84	1255,40
383,05	1247,21
383,26	1243,12
383,47	1277,93
383,68	1181,68
383,88	1282,03
384,09	1296,36
384,30	1380,33
384,51	1284,08
384,72	1249,26
384,93	1265,64
385,14	1282,03
385,35	1241,07
385,55	1271,79
385,76	1290,22
385,97	1275,88
386,18	1277,93
386,39	1214,45
386,60	1279,98
386,81	1273,84
387,02	1302,51
387,22	1236,97
387,43	1214,45
387,64	1257,45
387,85	1273,84
388,06	1304,56
388,27	1286,12
388,48	1277,93
388,68	1298,41
388,89	1245,16
389,10	1320,94
389,31	1308,65
389,52	1296,36
389,73	1310,70
389,93	1216,49
390,14	1282,03
390,35	1271,79
390,56	1251,31
390,77	1181,68
390,98	1290,22
391,18	1259,50
391,39	1253,36
391,60	1320,94
391,81	1277,93
392,02	1314,80
392,23	1267,69
392,43	1286,12
392,64	1222,64
392,85	1257,45
393,06	1259,50
393,27	1261,55
393,47	1259,50
393,68	1212,40
393,89	1300,46
394,10	1261,55
394,31	1275,88
394,52	1292,27
394,72	1249,26
394,93	1306,60
395,14	1204,21
395,35	1232,88
395,56	1288,17
395,76	1304,56
395,97	1247,21
396,18	1331,18
396,39	1253,36
396,60	1329,13
396,80	1292,27
397,01	1275,88
397,22	1402,86
397,43	1273,84
397,64	1222,64
397,84	1257,45
398,05	1236,97
398,26	1222,64
398,47	1259,50
398,67	1284,08
398,88	1263,60
399,09	1284,08
399,30	1255,40
399,51	1214,45
399,71	1261,55
399,92	1216,49
400,13	1286,12
400,34	1212,40
400,54	1318,89
400,75	1343,47
400,96	1241,07
401,17	1253,36
401,37	1261,55
401,58	1292,27
401,79	1265,64
402,00	1322,99
402,21	1322,99
402,41	1196,01
402,62	1302,51
402,83	1271,79
403,04	1210,35
403,24	1202,16
403,45	1210,35
403,66	1284,08
403,87	1249,26
404,07	1320,94
404,28	1245,16
404,49	1302,51
404,70	1279,98
404,90	1341,42
405,11	1310,70
405,32	1236,97
405,52	1314,80
405,73	1224,69
405,94	1247,21
406,15	1271,79
406,35	1200,11
406,56	1284,08
406,77	1353,71
406,98	1343,47
407,18	1228,78
407,39	1232,88
407,60	1302,51
407,80	1329,13
408,01	1290,22
408,22	1314,80
408,43	1333,23
408,63	1288,17
408,84	1177,58
409,05	1345,52
409,25	1325,04
409,46	1179,63
409,67	1298,41
409,88	1243,12
410,08	1312,75
410,29	1277,93
410,50	1167,34
410,70	1198,06
410,91	1273,84
411,12	1232,88
411,32	1298,41
411,53	1273,84
411,74	1298,41
411,95	1265,64
412,15	1241,07
412,36	1286,12
412,57	1314,80
412,77	1273,84
412,98	1257,45
413,19	1327,08
413,39	1265,64
413,60	1241,07
413,81	1253,36
414,01	1292,27
414,22	1316,84
414,43	1304,56
414,63	1300,46
414,84	1245,16
415,05	1261,55
415,25	1310,70
415,46	1253,36
415,67	1212,40
415,87	1269,74
416,08	1245,16
416,29	1232,88
416,49	1351,66
416,70	1304,56
416,91	1349,61
417,11	1220,59
417,32	1214,45
417,53	1273,84
417,73	1245,16
417,94	1284,08
418,15	1271,79
418,35	1294,32
418,56	1333,23
418,77	1300,46
418,97	1318,89
419,18	1290,22
419,38	1208,30
419,59	1234,93
419,80	1294,32
420,00	1251,31
420,21	1290,22
420,42	1247,21
420,62	1255,40
420,83	1273,84
421,04	1304,56
421,24	1312,75
421,45	1290,22
421,65	1290,22
421,86	1312,75
422,07	1251,31
422,27	1343,47
422,48	1228,78
422,69	1247,21
422,89	1253,36
423,10	1288,17
423,30	1306,60
423,51	1175,53
423,72	1284,08
423,92	1273,84
424,13	1302,51
424,33	1282,03
424,54	1253,36
424,75	1196,01
424,95	1245,16
425,16	1296,36
425,36	1269,74
425,57	1263,60
425,78	1316,84
425,98	1279,98
426,19	1247,21
426,39	1222,64
426,60	1282,03
426,81	1284,08
427,01	1284,08
427,22	1230,83
427,42	1183,73
427,63	1273,84
427,83	1277,93
428,04	1249,26
428,25	1296,36
428,45	1288,17
428,66	1298,41
428,86	1247,21
429,07	1298,41
429,28	1245,16
429,48	1208,30
429,69	1273,84
429,89	1222,64
430,10	1322,99
430,30	1308,65
430,51	1271,79
430,71	1253,36
430,92	1218,54
431,13	1257,45
431,33	1290,22
431,54	1275,88
431,74	1265,64
431,95	1310,70
432,15	1261,55
432,36	1243,12
432,56	1271,79
432,77	1290,22
432,98	1241,07
433,18	1267,69
433,39	1308,65
433,59	1255,40
433,80	1279,98
434,00	1232,88
434,21	1284,08
434,41	1249,26
434,62	1322,99
434,82	1286,12
435,03	1269,74
435,23	1218,54
435,44	1314,80
435,64	1189,87
435,85	1320,94
436,06	1265,64
436,26	1249,26
436,47	1198,06
436,67	1288,17
436,88	1275,88
437,08	1253,36
437,29	1284,08
437,49	1216,49
437,70	1271,79
437,90	1310,70
438,11	1292,27
438,31	1312,75
438,52	1290,22
438,72	1302,51
438,93	1296,36
439,13	1183,73
439,34	1288,17
439,54	1294,32
439,75	1304,56
439,95	1279,98
440,16	1257,45
440,36	1279,98
440,57	1304,56
440,77	1216,49
440,98	1271,79
441,18	1277,93
441,39	1241,07
441,59	1320,94
441,80	1282,03
442,00	1300,46
442,21	1204,21
442,41	1241,07
442,62	1312,75
442,82	1320,94
443,02	1243,12
443,23	1279,98
443,43	1322,99
443,64	1267,69
443,84	1318,89
444,05	1296,36
444,25	1300,46
444,46	1247,21
444,66	1279,98
444,87	1318,89
445,07	1292,27
445,28	1279,98
445,48	1343,47
445,69	1310,70
445,89	1245,16
446,09	1355,76
446,30	1290,22
446,50	1247,21
446,71	1288,17
446,91	1290,22
447,12	1247,21
447,32	1318,89
447,53	1247,21
447,73	1239,02
447,93	1306,60
448,14	1251,31
448,34	1261,55
448,55	1294,32
448,75	1273,84
448,96	1247,21
449,16	1357,80
449,36	1275,88
449,57	1306,60
449,77	1292,27
449,98	1284,08
450,18	1343,47
450,39	1265,64
450,59	1312,75
450,79	1263,60
451,00	1243,12
451,20	1300,46
451,41	1275,88
451,61	1251,31
451,81	1339,37
452,02	1245,16
452,22	1277,93
452,43	1273,84
452,63	1292,27
452,84	1277,93
453,04	1329,13
453,24	1286,12
453,45	1351,66
453,65	1286,12
453,86	1282,03
454,06	1222,64
454,26	1318,89
454,47	1261,55
454,67	1245,16
454,87	1288,17
455,08	1249,26
455,28	1294,32
455,49	1261,55
455,69	1298,41
455,89	1271,79
456,10	1300,46
456,30	1304,56
456,51	1279,98
456,71	1343,47
456,91	1296,36
457,12	1298,41
457,32	1341,42
457,52	1304,56
457,73	1292,27
457,93	1327,08
458,14	1236,97
458,34	1230,83
458,54	1265,64
458,75	1277,93
458,95	1355,76
459,15	1318,89
459,36	1239,02
459,56	1243,12
459,76	1257,45
459,97	1314,80
460,17	1275,88
460,37	1247,21
460,58	1245,16
460,78	1298,41
460,99	1333,23
461,19	1271,79
461,39	1296,36
461,60	1286,12
461,80	1267,69
462,00	1265,64
462,21	1267,69
462,41	1292,27
462,61	1232,88
462,82	1273,84
463,02	1269,74
463,22	1282,03
463,43	1327,08
463,63	1308,65
463,83	1286,12
464,04	1269,74
464,24	1349,61
464,44	1241,07
464,64	1259,50
464,85	1181,68
465,05	1234,93
465,25	1257,45
465,46	1273,84
465,66	1226,73
465,86	1300,46
466,07	1286,12
466,27	1249,26
466,47	1290,22
466,68	1267,69
466,88	1306,60
467,08	1277,93
467,29	1300,46
467,49	1265,64
467,69	1331,18
467,89	1220,59
468,10	1249,26
468,30	1304,56
468,50	1253,36
468,71	1253,36
468,91	1247,21
469,11	1273,84
469,31	1341,42
469,52	1335,28
469,72	1325,04
469,92	1370,09
470,13	1257,45
470,33	1292,27
470,53	1302,51
470,73	1275,88
470,94	1306,60
471,14	1294,32
471,34	1228,78
471,54	1271,79
471,75	1308,65
471,95	1300,46
472,15	1265,64
472,36	1234,93
472,56	1255,40
472,76	1255,40
472,96	1277,93
473,17	1247,21
473,37	1214,45
473,57	1263,60
473,77	1249,26
473,98	1277,93
474,18	1226,73
474,38	1261,55
474,58	1292,27
474,79	1183,73
474,99	1277,93
475,19	1302,51
475,39	1337,32
475,60	1249,26
475,80	1226,73
476,00	1232,88
476,20	1304,56
476,41	1288,17
476,61	1224,69
476,81	1275,88
477,01	1298,41
477,21	1261,55
477,42	1275,88
477,62	1331,18
477,82	1312,75
478,02	1290,22
478,23	1261,55
478,43	1234,93
478,63	1253,36
478,83	1345,52
479,03	1249,26
479,24	1300,46
479,44	1282,03
479,64	1239,02
479,84	1331,18
480,04	1288,17
480,25	1210,35
480,45	1241,07
480,65	1243,12
480,85	1275,88
481,06	1343,47
481,26	1302,51
481,46	1249,26
481,66	1292,27
481,86	1212,40
482,06	1269,74
482,27	1275,88
482,47	1304,56
482,67	1226,73
482,87	1286,12
483,07	1257,45
483,28	1302,51
483,48	1275,88
483,68	1261,55
483,88	1282,03
484,08	1245,16
484,29	1277,93
484,49	1296,36
484,69	1314,80
484,89	1282,03
485,09	1304,56
485,29	1243,12
485,50	1247,21
485,70	1275,88
485,90	1243,12
486,10	1271,79
486,30	1290,22
486,50	1261,55
486,71	1282,03
486,91	1282,03
487,11	1249,26
487,31	1239,02
487,51	1241,07
487,71	1253,36
487,91	1296,36
488,12	1322,99
488,32	1253,36
488,52	1282,03
488,72	1232,88
488,92	1277,93
489,12	1300,46
489,32	1290,22
489,53	1310,70
489,73	1279,98
489,93	1372,14
490,13	1300,46
490,33	1292,27
490,53	1253,36
490,73	1279,98
490,94	1273,84
491,14	1218,54
491,34	1294,32
491,54	1230,83
491,74	1251,31
491,94	1308,65
492,14	1243,12
492,34	1273,84
492,54	1226,73
492,75	1198,06
492,95	1279,98
493,15	1341,42
493,35	1259,50
493,55	1253,36
493,75	1275,88
493,95	1290,22
494,15	1306,60
494,35	1220,59
494,56	1310,70
494,76	1292,27
494,96	1275,88
495,16	1282,03
495,36	1236,97
495,56	1253,36
495,76	1279,98
495,96	1257,45
496,16	1275,88
496,36	1320,94
496,56	1279,98
496,77	1255,40
496,97	1306,60
497,17	1222,64
497,37	1234,93
497,57	1222,64
497,77	1363,95
497,97	1251,31
498,17	1263,60
498,37	1265,64
498,57	1230,83
498,77	1329,13
498,97	1284,08
499,17	1263,60
499,38	1200,11
499,58	1212,40
499,78	1322,99
499,98	1263,60
500,18	1300,46
500,38	1314,80
500,58	1232,88
500,78	1265,64
500,98	1314,80
501,18	1226,73
501,38	1230,83
501,58	1343,47
501,78	1282,03
501,98	1239,02
502,18	1212,40
502,38	1208,30
502,58	1263,60
502,78	1343,47
502,98	1191,92
503,18	1243,12
503,38	1286,12
503,59	1265,64
503,79	1335,28
503,99	1267,69
504,19	1345,52
504,39	1183,73
504,59	1273,84
504,79	1320,94
504,99	1269,74
505,19	1327,08
505,39	1288,17
505,59	1304,56
505,79	1210,35
505,99	1257,45
506,19	1253,36
506,39	1275,88
506,59	1224,69
506,79	1290,22
506,99	1208,30
507,19	1279,98
507,39	1312,75
507,59	1304,56
507,79	1286,12
507,99	1320,94
508,19	1230,83
508,39	1300,46
508,59	1327,08
508,79	1267,69
508,99	1218,54
509,19	1239,02
509,39	1279,98
509,59	1318,89
509,79	1337,32
509,99	1288,17
510,19	1290,22
510,39	1339,37
510,59	1247,21
510,79	1241,07
510,99	1286,12
511,19	1255,40
511,39	1271,79
511,59	1306,60
511,79	1226,73
511,99	1222,64
512,19	1257,45
512,38	1286,12
512,58	1345,52
512,78	1269,74
512,98	1333,23
513,18	1294,32
513,38	1314,80
513,58	1292,27
513,78	1308,65
513,98	1284,08
514,18	1255,40
514,38	1277,93
514,58	1318,89
514,78	1290,22
514,98	1335,28
515,18	1310,70
515,38	1216,49
515,58	1277,93
515,78	1273,84
515,98	1306,60
516,18	1310,70
516,38	1271,79
516,57	1304,56
516,77	1261,55
516,97	1245,16
517,17	1245,16
517,37	1261,55
517,57	1234,93
517,77	1230,83
517,97	1314,80
518,17	1292,27
518,37	1259,50
518,57	1288,17
518,77	1265,64
518,97	1329,13
519,16	1273,84
519,36	1300,46
519,56	1349,61
519,76	1261,55
519,96	1357,80
520,16	1163,25
520,36	1200,11
520,56	1349,61
520,76	1261,55
520,96	1337,32
521,16	1249,26
521,35	1228,78
521,55	1296,36
521,75	1279,98
521,95	1234,93
522,15	1273,84
522,35	1241,07
522,55	1263,60
522,75	1247,21
522,95	1269,74
523,14	1251,31
523,34	1298,41
523,54	1255,40
523,74	1247,21
523,94	1314,80
524,14	1325,04
524,34	1206,25
524,54	1257,45
524,73	1263,60
524,93	1318,89
525,13	1372,14
525,33	1282,03
525,53	1310,70
525,73	1284,08
525,93	1271,79
526,13	1230,83
526,32	1314,80
526,52	1245,16
526,72	1247,21
526,92	1304,56
527,12	1294,32
527,32	1298,41
527,52	1304,56
527,71	1257,45
527,91	1204,21
528,11	1269,74
528,31	1247,21
528,51	1271,79
528,71	1339,37
528,90	1204,21
529,10	1273,84
529,30	1218,54
529,50	1271,79
529,70	1277,93
529,90	1349,61
530,09	1269,74
530,29	1331,18
530,49	1310,70
530,69	1261,55
530,89	1218,54
531,09	1288,17
531,28	1257,45
531,48	1290,22
531,68	1286,12
531,88	1325,04
532,08	1284,08
532,28	1304,56
532,47	1310,70
532,67	1228,78
532,87	1286,12
533,07	1241,07
533,27	1273,84
533,46	1322,99
533,66	1300,46
533,86	1255,40
534,06	1255,40
534,26	1277,93
534,45	1282,03
534,65	1271,79
534,85	1265,64
535,05	1341,42
535,25	1279,98
535,44	1277,93
535,64	1314,80
535,84	1351,66
536,04	1347,56
536,24	1251,31
536,43	1296,36
536,63	1331,18
536,83	1314,80
537,03	1286,12
537,22	1255,40
537,42	1277,93
537,62	1269,74
537,82	1302,51
538,02	1277,93
538,21	1224,69
538,41	1200,11
538,61	1286,12
538,81	1327,08
539,00	1298,41
539,20	1259,50
539,40	1271,79
539,60	1267,69
539,79	1294,32
539,99	1368,04
540,19	1279,98
540,39	1304,56
540,58	1275,88
540,78	1286,12
540,98	1310,70
541,18	1316,84
541,37	1239,02
541,57	1310,70
541,77	1259,50
541,97	1232,88
542,16	1279,98
542,36	1296,36
542,56	1294,32
542,76	1327,08
542,95	1236,97
543,15	1271,79
543,35	1296,36
543,54	1277,93
543,74	1241,07
543,94	1288,17
544,14	1226,73
544,33	1325,04
544,53	1306,60
544,73	1314,80
544,93	1318,89
545,12	1255,40
545,32	1261,55
545,52	1232,88
545,71	1310,70
545,91	1218,54
546,11	1318,89
546,30	1273,84
546,50	1306,60
546,70	1257,45
546,90	1282,03
547,09	1316,84
547,29	1327,08
547,49	1300,46
547,68	1312,75
547,88	1366,00
548,08	1279,98
548,27	1257,45
548,47	1189,87
548,67	1247,21
548,87	1318,89
549,06	1308,65
549,26	1292,27
549,46	1331,18
549,65	1318,89
549,85	1232,88
550,05	1366,00
550,24	1290,22
550,44	1290,22
550,64	1265,64
550,83	1282,03
551,03	1284,08
551,23	1296,36
551,42	1277,93
551,62	1327,08
551,82	1372,14
552,01	1314,80
552,21	1322,99
552,41	1210,35
552,60	1300,46
552,80	1243,12
553,00	1333,23
553,19	1282,03
553,39	1306,60
553,59	1273,84
553,78	1355,76
553,98	1224,69
554,17	1269,74
554,37	1294,32
554,57	1261,55
554,76	1329,13
554,96	1261,55
555,16	1376,24
555,35	1255,40
555,55	1318,89
555,75	1261,55
555,94	1232,88
556,14	1316,84
556,33	1273,84
556,53	1218,54
556,73	1318,89
556,92	1335,28
557,12	1294,32
557,32	1294,32
557,51	1302,51
557,71	1224,69
557,90	1288,17
558,10	1298,41
558,30	1269,74
558,49	1286,12
558,69	1282,03
558,88	1267,69
559,08	1249,26
559,28	1267,69
559,47	1320,94
559,67	1325,04
559,86	1241,07
560,06	1306,60
560,26	1249,26
560,45	1204,21
560,65	1279,98
560,84	1314,80
561,04	1327,08
561,24	1284,08
561,43	1286,12
561,63	1316,84
561,82	1226,73
562,02	1347,56
562,22	1243,12
562,41	1257,45
562,61	1302,51
562,80	1286,12
563,00	1234,93
563,19	1206,25
563,39	1282,03
563,59	1257,45
563,78	1277,93
563,98	1279,98
564,17	1290,22
564,37	1286,12
564,56	1300,46
564,76	1257,45
564,96	1314,80
565,15	1284,08
565,35	1273,84
565,54	1261,55
565,74	1271,79
565,93	1228,78
566,13	1277,93
566,32	1335,28
566,52	1282,03
566,71	1386,47
566,91	1357,80
567,11	1261,55
567,30	1314,80
567,50	1296,36
567,69	1284,08
567,89	1275,88
568,08	1273,84
568,28	1366,00
568,47	1318,89
568,67	1263,60
568,86	1269,74
569,06	1257,45
569,25	1304,56
569,45	1247,21
569,64	1261,55
569,84	1193,97
570,04	1320,94
570,23	1150,96
570,43	1304,56
570,62	1249,26
570,82	1292,27
571,01	1349,61
571,21	1282,03
571,40	1228,78
571,60	1265,64
571,79	1337,32
571,99	1314,80
572,18	1294,32
572,38	1343,47
572,57	1265,64
572,77	1249,26
572,96	1312,75
573,16	1279,98
573,35	1273,84
573,55	1308,65
573,74	1290,22
573,94	1300,46
574,13	1241,07
574,33	1251,31
574,52	1298,41
574,71	1277,93
574,91	1261,55
575,10	1331,18
575,30	1298,41
575,49	1363,95
575,69	1261,55
575,88	1298,41
576,08	1337,32
576,27	1316,84
576,47	1253,36
576,66	1247,21
576,86	1314,80
577,05	1294,32
577,25	1318,89
577,44	1312,75
577,64	1298,41
577,83	1298,41
578,02	1333,23
578,22	1249,26
578,41	1224,69
578,61	1257,45
578,80	1236,97
579,00	1277,93
579,19	1267,69
579,39	1165,29
579,58	1284,08
579,77	1312,75
579,97	1251,31
580,16	1339,37
580,36	1372,14
580,55	1247,21
580,75	1294,32
580,94	1294,32
581,13	1253,36
581,33	1273,84
581,52	1263,60
581,72	1314,80
581,91	1306,60
582,11	1355,76
582,30	1316,84
582,49	1292,27
582,69	1282,03
582,88	1296,36
583,08	1226,73
583,27	1253,36
583,47	1245,16
583,66	1271,79
583,85	1200,11
584,05	1259,50
584,24	1322,99
584,44	1310,70
584,63	1343,47
584,82	1271,79
585,02	1298,41
585,21	1284,08
585,41	1286,12
585,60	1263,60
585,79	1279,98
585,99	1247,21
586,18	1253,36
586,37	1318,89
586,57	1245,16
586,76	1314,80
586,96	1353,71
587,15	1294,32
587,34	1277,93
587,54	1284,08
587,73	1282,03
587,93	1259,50
588,12	1290,22
588,31	1314,80
588,51	1232,88
588,70	1292,27
588,89	1312,75
589,09	1298,41
589,28	1200,11
589,47	1320,94
589,67	1220,59
589,86	1304,56
590,06	1310,70
590,25	1236,97
590,44	1263,60
590,64	1333,23
590,83	1245,16
591,02	1339,37
591,22	1230,83
591,41	1343,47
591,60	1357,80
591,80	1345,52
591,99	1318,89
592,18	1298,41
592,38	1261,55
592,57	1208,30
592,76	1249,26
592,96	1361,90
593,15	1275,88
593,34	1259,50
593,54	1310,70
593,73	1357,80
593,92	1245,16
594,12	1310,70
594,31	1308,65
594,50	1298,41
594,70	1265,64
594,89	1290,22
595,08	1265,64
595,28	1236,97
595,47	1286,12
595,66	1230,83
595,86	1288,17
596,05	1339,37
596,24	1245,16
596,43	1255,40
596,63	1288,17
596,82	1353,71
597,01	1269,74
597,21	1300,46
597,40	1339,37
597,59	1288,17
597,79	1300,46
597,98	1300,46
598,17	1316,84
598,36	1314,80
598,56	1226,73
598,75	1286,12
598,94	1249,26
599,14	1294,32
599,33	1255,40
599,52	1226,73
599,71	1255,40
599,91	1314,80
600,10	1298,41
600,29	1347,56
600,48	1257,45
600,68	1345,52
600,87	1353,71
601,06	1292,27
601,26	1292,27
601,45	1327,08
601,64	1329,13
601,83	1341,42
602,03	1284,08
602,22	1284,08
602,41	1300,46
602,60	1249,26
602,80	1288,17
602,99	1273,84
603,18	1267,69
603,37	1310,70
603,57	1329,13
603,76	1249,26
603,95	1247,21
604,14	1277,93
604,34	1286,12
604,53	1298,41
604,72	1314,80
604,91	1277,93
605,10	1294,32
605,30	1239,02
605,49	1257,45
605,68	1261,55
605,87	1333,23
606,07	1257,45
606,26	1269,74
606,45	1245,16
606,64	1236,97
606,84	1329,13
607,03	1306,60
607,22	1271,79
607,41	1327,08
607,60	1241,07
607,80	1314,80
607,99	1271,79
608,18	1263,60
608,37	1294,32
608,56	1339,37
608,76	1247,21
608,95	1294,32
609,14	1286,12
609,33	1263,60
609,52	1249,26
609,72	1261,55
609,91	1241,07
610,10	1320,94
610,29	1306,60
610,48	1320,94
610,68	1277,93
610,87	1208,30
611,06	1245,16
611,25	1335,28
611,44	1306,60
611,63	1296,36
611,83	1359,85
612,02	1302,51
612,21	1306,60
612,40	1189,87
612,59	1294,32
612,79	1265,64
612,98	1331,18
613,17	1271,79
613,36	1329,13
613,55	1255,40
613,74	1218,54
613,93	1294,32
614,13	1259,50
614,32	1290,22
614,51	1347,56
614,70	1359,85
614,89	1271,79
615,08	1366,00
615,28	1265,64
615,47	1302,51
615,66	1282,03
615,85	1339,37
616,04	1234,93
616,23	1212,40
616,42	1351,66
616,62	1304,56
616,81	1271,79
617,00	1273,84
617,19	1306,60
617,38	1243,12
617,57	1331,18
617,76	1234,93
617,95	1314,80
618,15	1318,89
618,34	1253,36
618,53	1200,11
618,72	1257,45
618,91	1331,18
619,10	1255,40
619,29	1312,75
619,48	1249,26
619,68	1251,31
619,87	1286,12
620,06	1288,17
620,25	1292,27
620,44	1263,60
620,63	1273,84
620,82	1298,41
621,01	1357,80
621,20	1292,27
621,39	1279,98
621,59	1241,07
621,78	1335,28
621,97	1273,84
622,16	1318,89
622,35	1263,60
622,54	1273,84
622,73	1296,36
622,92	1288,17
623,11	1251,31
623,30	1214,45
623,49	1259,50
623,68	1251,31
623,88	1314,80
624,07	1314,80
624,26	1300,46
624,45	1263,60
624,64	1310,70
624,83	1357,80
625,02	1322,99
625,21	1198,06
625,40	1388,52
625,59	1226,73
625,78	1312,75
625,97	1259,50
626,16	1298,41
626,35	1265,64
626,54	1282,03
626,74	1224,69
626,93	1279,98
627,12	1273,84
627,31	1290,22
627,50	1333,23
627,69	1282,03
627,88	1312,75
628,07	1232,88
628,26	1296,36
628,45	1253,36
628,64	1247,21
628,83	1296,36
629,02	1273,84
629,21	1337,32
629,40	1351,66
629,59	1331,18
629,78	1292,27
629,97	1269,74
630,16	1269,74
630,35	1261,55
630,54	1370,09
630,73	1271,79
630,92	1331,18
631,11	1288,17
631,30	1327,08
631,49	1355,76
631,68	1583,08
631,87	5599,15
632,06	23219,87
632,25	48514,33
632,44	35853,79
632,63	21907,12
632,82	20147,92
633,01	5322,67
633,20	3330,00
633,39	2543,58
633,58	2303,96
633,77	2009,06
633,96	1789,92
634,15	1742,82
634,34	1665,00
634,53	1568,74
634,72	1499,11
634,91	1511,40
635,10	1525,74
635,29	1517,54
635,48	1593,32
635,67	1505,26
635,86	1441,77
636,05	1423,34
636,24	1394,67
636,43	1329,13
636,62	1339,37
636,81	1296,36
637,00	1267,69
637,19	1308,65
637,38	1351,66
637,57	1298,41
637,76	1269,74
637,95	1353,71
638,14	1279,98
638,33	1298,41
638,52	1288,17
638,71	1363,95
638,89	1322,99
639,08	1390,57
639,27	1306,60
639,46	1335,28
639,65	1286,12
639,84	1230,83
640,03	1298,41
640,22	1232,88
640,41	1288,17
640,60	1304,56
640,79	1310,70
640,98	1292,27
641,17	1290,22
641,36	1226,73
641,55	1220,59
641,74	1296,36
641,92	1277,93
642,11	1320,94
642,30	1255,40
642,49	1318,89
642,68	1325,04
642,87	1282,03
643,06	1314,80
643,25	1265,64
643,44	1316,84
643,63	1249,26
643,82	1320,94
644,00	1191,92
644,19	1306,60
644,38	1286,12
644,57	1298,41
644,76	1284,08
644,95	1300,46
645,14	1259,50
645,33	1263,60
645,52	1279,98
645,71	1271,79
645,89	1249,26
646,08	1247,21
646,27	1275,88
646,46	1292,27
646,65	1275,88
646,84	1290,22
647,03	1245,16
647,22	1247,21
647,40	1234,93
647,59	1322,99
647,78	1325,04
647,97	1265,64
648,16	1200,11
648,35	1294,32
648,54	1202,16
648,73	1204,21
648,91	1224,69
649,10	1265,64
649,29	1269,74
649,48	1347,56
649,67	1359,85
649,86	1312,75
650,05	1249,26
650,23	1355,76
650,42	1243,12
650,61	1284,08
650,80	1239,02
650,99	1269,74
651,18	1261,55
651,36	1335,28
651,55	1312,75
651,74	1341,42
651,93	1341,42
652,12	1296,36
652,31	1304,56
652,49	1312,75
652,68	1265,64
652,87	1271,79
653,06	1306,60
653,25	1277,93
653,44	1208,30
653,62	1245,16
653,81	1236,97
654,00	1302,51
654,19	1327,08
654,38	1241,07
654,56	1284,08
654,75	1239,02
654,94	1222,64
655,13	1286,12
655,32	1263,60
655,51	1275,88
655,69	1228,78
655,88	1249,26
656,07	1327,08
656,26	1306,60
656,45	1269,74
656,63	1259,50
656,82	1277,93
657,01	1249,26
657,20	1279,98
657,38	1277,93
657,57	1290,22
657,76	1279,98
657,95	1269,74
658,14	1331,18
658,32	1275,88
658,51	1245,16
658,70	1322,99
658,89	1300,46
659,08	1310,70
659,26	1261,55
659,45	1183,73
659,64	1288,17
659,83	1300,46
660,01	1226,73
660,20	1325,04
660,39	1310,70
660,58	1261,55
660,76	1380,33
660,95	1294,32
661,14	1265,64
661,33	1290,22
661,51	1284,08
661,70	1304,56
661,89	1224,69
662,08	1294,32
662,26	1265,64
662,45	1224,69
662,64	1230,83
662,83	1298,41
663,01	1337,32
663,20	1288,17
663,39	1259,50
663,58	1245,16
663,76	1298,41
663,95	1275,88
664,14	1232,88
664,32	1259,50
664,51	1216,49
664,70	1296,36
664,89	1222,64
665,07	1241,07
665,26	1273,84
665,45	1286,12
665,64	1314,80
665,82	1275,88
666,01	1298,41
666,20	1275,88
666,38	1286,12
666,57	1292,27
666,76	1277,93
666,95	1300,46
667,13	1216,49
667,32	1294,32
667,51	1214,45
667,69	1208,30
667,88	1314,80
668,07	1331,18
668,25	1198,06
668,44	1318,89
668,63	1282,03
668,81	1290,22
669,00	1247,21
669,19	1245,16
669,38	1286,12
669,56	1288,17
669,75	1275,88
669,94	1267,69
670,12	1302,51
670,31	1200,11
670,50	1327,08
670,68	1257,45
670,87	1312,75
671,06	1234,93
671,24	1208,30
671,43	1273,84
671,62	1269,74
671,80	1228,78
671,99	1222,64
672,18	1208,30
672,36	1271,79
672,55	1239,02
672,74	1243,12
672,92	1279,98
673,11	1318,89
673,29	1277,93
673,48	1267,69
673,67	1304,56
673,85	1302,51
674,04	1310,70
674,23	1314,80
674,41	1277,93
674,60	1294,32
674,79	1296,36
674,97	1275,88
675,16	1267,69
675,34	1277,93
675,53	1253,36
675,72	1247,21
675,90	1275,88
676,09	1265,64
676,28	1253,36
676,46	1183,73
676,65	1241,07
676,83	1331,18
677,02	1228,78
677,21	1222,64
677,39	1259,50
677,58	1318,89
677,77	1306,60
677,95	1218,54
678,14	1257,45
678,32	1236,97
678,51	1218,54
678,70	1302,51
678,88	1251,31
679,07	1200,11
679,25	1218,54
679,44	1259,50
679,63	1261,55
679,81	1296,36
680,00	1212,40
680,18	1236,97
680,37	1318,89
680,55	1193,97
680,74	1269,74
680,93	1185,77
681,11	1228,78
681,30	1273,84
681,48	1312,75
681,67	1214,45
681,85	1220,59
682,04	1275,88
682,23	1292,27
682,41	1282,03
682,60	1368,04
682,78	1210,35
682,97	1339,37
683,15	1265,64
683,34	1222,64
683,53	1306,60
683,71	1234,93
683,90	1335,28
684,08	1333,23
684,27	1189,87
684,45	1259,50
684,64	1239,02
684,82	1232,88
685,01	1251,31
685,19	1239,02
685,38	1228,78
685,57	1220,59
685,75	1239,02
685,94	1294,32
686,12	1282,03
686,31	1282,03
686,49	1329,13
686,68	1142,77
686,86	1277,93
687,05	1245,16
687,23	1273,84
687,42	1255,40
687,60	1267,69
687,79	1204,21
687,97	1265,64
688,16	1314,80
688,34	1292,27
688,53	1230,83
688,71	1255,40
688,90	1327,08
689,08	1261,55
689,27	1306,60
689,45	1243,12
689,64	1257,45
689,82	1284,08
690,01	1253,36
690,19	1296,36
690,38	1277,93
690,56	1267,69
690,75	1271,79
690,93	1304,56
691,12	1294,32
691,30	1247,21
691,49	1282,03
691,67	1234,93
691,86	1247,21
692,04	1277,93
692,23	1259,50
692,41	1306,60
692,60	1302,51
692,78	1320,94
692,97	1234,93
693,15	1318,89
693,34	1275,88
693,52	1292,27
693,71	1241,07
693,89	1204,21
694,08	1263,60
694,26	1261,55
694,44	1269,74
694,63	1241,07
694,81	1204,21
695,00	1318,89
695,18	1345,52
695,37	1361,90
695,55	1316,84
695,74	1275,88
695,92	1239,02
696,10	1302,51
696,29	1331,18
696,47	1271,79
696,66	1245,16
696,84	1312,75
697,03	1275,88
697,21	1275,88
697,40	1300,46
697,58	1273,84
697,76	1257,45
697,95	1261,55
698,13	1189,87
698,32	1253,36
698,50	1261,55
698,68	1314,80
698,87	1261,55
699,05	1282,03
699,24	1288,17
699,42	1253,36
699,61	1253,36
699,79	1312,75
699,97	1220,59
700,16	1234,93
700,34	1322,99
700,53	1273,84
700,71	1277,93
700,89	1327,08
701,08	1230,83
701,26	1255,40
701,45	1308,65
701,63	1290,22
701,81	1284,08
702,00	1161,20
702,18	1196,01
702,37	1310,70
702,55	1370,09
702,73	1351,66
702,92	1288,17
703,10	1275,88
703,28	1241,07
703,47	1325,04
703,65	1222,64
703,84	1275,88
704,02	1290,22
704,20	1249,26
704,39	1339,37
704,57	1255,40
704,75	1241,07
704,94	1249,26
705,12	1204,21
705,30	1257,45
705,49	1339,37
705,67	1239,02
705,86	1269,74
706,04	1196,01
706,22	1222,64
706,41	1290,22
706,59	1259,50
706,77	1296,36
706,96	1325,04
707,14	1290,22
707,32	1296,36
707,51	1294,32
707,69	1263,60
707,87	1312,75
708,06	1269,74
708,24	1300,46
708,42	1290,22
708,61	1296,36
708,79	1267,69
708,97	1339,37
709,16	1286,12
709,34	1267,69
709,52	1261,55
709,71	1294,32
709,89	1284,08
710,07	1345,52
710,26	1271,79
710,44	1265,64
710,62	1189,87
710,80	1249,26
710,99	1247,21
711,17	1253,36
711,35	1294,32
711,54	1347,56
711,72	1255,40
711,90	1282,03
712,09	1286,12
712,27	1318,89
712,45	1245,16
712,63	1245,16
712,82	1222,64
713,00	1271,79
713,18	1165,29
713,37	1265,64
713,55	1247,21
713,73	1279,98
713,91	1296,36
714,10	1312,75
714,28	1318,89
714,46	1366,00
714,65	1257,45
714,83	1290,22
715,01	1320,94
715,19	1230,83
715,38	1349,61
715,56	1257,45
715,74	1273,84
715,92	1294,32
716,11	1279,98
716,29	1290,22
716,47	1239,02
716,65	1335,28
716,84	1249,26
717,02	1249,26
717,20	1261,55
717,38	1271,79
717,57	1222,64
717,75	1314,80
717,93	1327,08
718,11	1214,45
718,30	1191,92
718,48	1361,90
718,66	1279,98
718,84	1300,46
719,03	1288,17
719,21	1286,12
719,39	1271,79
719,57	1304,56
719,75	1251,31
719,94	1259,50
720,12	1292,27
720,30	1322,99
720,48	1210,35
720,67	1273,84
720,85	1273,84
721,03	1249,26
721,21	1249,26
721,39	1327,08
721,58	1228,78
721,76	1312,75
721,94	1282,03
722,12	1230,83
722,30	1312,75
722,49	1306,60
722,67	1320,94
722,85	1255,40
723,03	1263,60
723,21	1273,84
723,40	1306,60
723,58	1292,27
723,76	1245,16
723,94	1247,21
724,12	1202,16
724,30	1284,08
724,49	1232,88
724,67	1310,70
724,85	1308,65
725,03	1239,02
725,21	1286,12
725,40	1226,73
725,58	1232,88
725,76	1333,23
725,94	1277,93
726,12	1279,98
726,30	1271,79
726,49	1193,97
726,67	1308,65
726,85	1212,40
727,03	1314,80
727,21	1234,93
727,39	1232,88
727,57	1241,07
727,76	1333,23
727,94	1294,32
728,12	1191,92
728,30	1314,80
728,48	1234,93
728,66	1249,26
728,84	1300,46
729,03	1271,79
729,21	1265,64
729,39	1296,36
729,57	1202,16
729,75	1290,22
729,93	1318,89
730,11	1265,64
730,30	1241,07
730,48	1236,97
730,66	1241,07
730,84	1273,84
731,02	1302,51
731,20	1239,02
731,38	1322,99
731,56	1232,88
731,74	1275,88
731,93	1271,79
732,11	1331,18
732,29	1253,36
732,47	1224,69
732,65	1243,12
732,83	1234,93
733,01	1271,79
733,19	1247,21
733,37	1312,75
733,56	1261,55
733,74	1200,11
733,92	1245,16
734,10	1282,03
734,28	1245,16
734,46	1316,84
734,64	1232,88
734,82	1255,40
735,00	1202,16
735,18	1273,84
735,36	1241,07
735,54	1269,74
735,73	1247,21
735,91	1241,07
736,09	1249,26
736,27	1177,58
736,45	1249,26
736,63	1265,64
736,81	1298,41
736,99	1222,64
737,17	1257,45
737,35	1257,45
737,53	1320,94
737,71	1288,17
737,89	1296,36
738,07	1204,21
738,25	1202,16
738,43	1284,08
738,61	1331,18
738,80	1320,94
738,98	1239,02
739,16	1292,27
739,34	1273,84
739,52	1298,41
739,70	1218,54
739,88	1316,84
740,06	1298,41
740,24	1271,79
740,42	1314,80
740,60	1277,93
740,78	1314,80
740,96	1216,49
741,14	1275,88
741,32	1298,41
741,50	1179,63
741,68	1322,99
741,86	1288,17
742,04	1306,60
742,22	1306,60
742,40	1273,84
742,58	1230,83
742,76	1257,45
742,94	1337,32
743,12	1269,74
743,30	1239,02
743,48	1267,69
743,66	1257,45
743,84	1277,93
744,02	1249,26
744,20	1300,46
744,38	1224,69
744,56	1206,25
744,74	1245,16
744,92	1265,64
745,10	1271,79
745,28	1275,88
745,46	1251,31
745,64	1273,84
745,82	1259,50
746,00	1327,08
746,18	1243,12
746,36	1296,36
746,54	1306,60
746,72	1282,03
746,90	1196,01
747,08	1290,22
747,26	1191,92
747,44	1251,31
747,62	1308,65
747,80	1241,07
747,98	1294,32
748,15	1224,69
748,33	1300,46
748,51	1263,60
748,69	1228,78
748,87	1259,50
749,05	1179,63
749,23	1298,41
749,41	1304,56
749,59	1277,93
749,77	1265,64
749,95	1279,98
750,13	1241,07
750,31	1277,93
750,49	1292,27
750,67	1273,84
750,85	1286,12
751,03	1345,52
751,20	1290,22
751,38	1273,84
751,56	1245,16
751,74	1271,79
751,92	1284,08
752,10	1275,88
752,28	1255,40
752,46	1269,74
752,64	1245,16
752,82	1284,08
753,00	1279,98
753,18	1341,42
753,35	1316,84
753,53	1286,12
753,71	1236,97
753,89	1267,69
754,07	1294,32
754,25	1282,03
754,43	1282,03
754,61	1226,73
754,79	1183,73
754,97	1290,22
755,14	1216,49
755,32	1212,40
755,50	1261,55
755,68	1249,26
755,86	1294,32
756,04	1247,21
756,22	1259,50
756,40	1228,78
756,57	1224,69
756,75	1310,70
756,93	1267,69
757,11	1257,45
757,29	1232,88
757,47	1318,89
757,65	1279,98
757,82	1275,88
758,00	1247,21
758,18	1236,97
758,36	1304,56
758,54	1267,69
758,72	1263,60
758,90	1249,26
759,07	1275,88
759,25	1288,17
759,43	1234,93
759,61	1257,45
759,79	1286,12
759,97	1193,97
760,15	1251,31
760,32	1259,50
760,50	1282,03
760,68	1249,26
760,86	1212,40
761,04	1245,16
761,22	1337,32
761,39	1206,25
761,57	1265,64
761,75	1226,73
761,93	1347,56
762,11	1269,74
762,28	1306,60
762,46	1239,02
762,64	1189,87
762,82	1243,12
763,00	1298,41
763,18	1345,52
763,35	1308,65
763,53	1183,73
763,71	1286,12
763,89	1296,36
764,07	1212,40
764,24	1300,46
764,42	1185,77
764,60	1232,88
764,78	1253,36
764,96	1273,84
765,13	1218,54
765,31	1288,17
765,49	1277,93
765,67	1282,03
765,84	1206,25
766,02	1230,83
766,20	1200,11
766,38	1282,03
766,56	1228,78
766,73	1341,42
766,91	1302,51
767,09	1261,55
767,27	1325,04
767,44	1251,31
767,62	1234,93
767,80	1269,74
767,98	1253,36
768,15	1282,03
768,33	1234,93
768,51	1325,04
768,69	1300,46
768,87	1249,26
769,04	1218,54
769,22	1253,36
769,40	1267,69
769,58	1312,75
769,75	1257,45
769,93	1363,95
770,11	1284,08
770,28	1322,99
770,46	1251,31
770,64	1302,51
770,82	1232,88
770,99	1273,84
771,17	1275,88
771,35	1257,45
771,53	1206,25
771,70	1279,98
771,88	1230,83
772,06	1243,12
772,23	1325,04
772,41	1331,18
772,59	1202,16
772,77	1277,93
772,94	1318,89
773,12	1239,02
773,30	1306,60
773,47	1306,60
773,65	1241,07
773,83	1327,08
774,01	1290,22
774,18	1261,55
774,36	1261,55
774,54	1263,60
774,71	1282,03
774,89	1263,60
775,07	1271,79
775,24	1349,61
775,42	1269,74
775,60	1284,08
775,78	1263,60
775,95	1265,64
776,13	1236,97
776,31	1222,64
776,48	1222,64
776,66	1234,93
776,84	1220,59
777,01	1265,64
777,19	1275,88
777,37	1312,75
777,54	1265,64
777,72	1296,36
777,90	1261,55
778,07	1269,74
778,25	1335,28
778,43	1251,31
778,60	1239,02
778,78	1353,71
778,96	1304,56
779,13	1249,26
779,31	1224,69
779,49	1298,41
779,66	1282,03
779,84	1265,64
780,01	1232,88
780,19	1269,74
780,37	1310,70
780,54	1222,64
780,72	1245,16
780,90	1232,88
781,07	1216,49
781,25	1261,55
781,43	1200,11
781,60	1312,75
781,78	1302,51
781,95	1271,79
782,13	1263,60
782,31	1267,69
782,48	1265,64
782,66	1214,45
782,83	1279,98
783,01	1261,55
783,19	1267,69
783,36	1224,69
783,54	1257,45
783,72	1314,80
783,89	1247,21
784,07	1216,49
784,24	1253,36
784,42	1290,22
784,60	1208,30
784,77	1279,98
784,95	1263,60
785,12	1296,36
785,30	1226,73
785,47	1286,12
785,65	1329,13
785,83	1251,31
786,00	1253,36
786,18	1288,17
786,35	1232,88
786,53	1251,31
786,71	1245,16
786,88	1302,51
787,06	1236,97
787,23	1198,06
787,41	1226,73
787,58	1284,08
787,76	1210,35
787,94	1286,12
788,11	1218,54
788,29	1251,31
788,46	1267,69
788,64	1327,08
788,81	1210,35
788,99	1247,21
789,16	1232,88
789,34	1320,94
789,52	1331,18
789,69	1257,45
789,87	1253,36
790,04	1261,55
790,22	1232,88
790,39	1243,12
790,57	1263,60
790,74	1212,40
790,92	1243,12
791,09	1239,02
791,27	1265,64
791,44	1269,74
791,62	1265,64
791,79	1329,13
791,97	1251,31
792,15	1251,31
792,32	1308,65
792,50	1243,12
792,67	1382,38
792,85	1292,27
793,02	1243,12
793,20	1214,45
793,37	1241,07
793,55	1312,75
793,72	1202,16
793,90	1222,64
794,07	1257,45
794,25	1273,84
794,42	1282,03
794,60	1314,80
794,77	1243,12
794,95	1337,32
795,12	1239,02
795,30	1275,88
795,47	1243,12
795,65	1304,56
795,82	1320,94
796,00	1306,60
796,17	1218,54
796,34	1204,21
796,52	1239,02
796,69	1208,30
796,87	1273,84
797,04	1265,64
797,22	1286,12
797,39	1292,27
797,57	1269,74
797,74	1337,32
797,92	1273,84
798,09	1224,69
798,27	1271,79
798,44	1286,12
798,62	1288,17
798,79	1327,08
798,96	1343,47
799,14	1245,16
799,31	1255,40
799,49	1308,65
799,66	1286,12
799,84	1245,16
800,01	1224,69
800,19	1308,65
800,36	1312,75
800,53	1302,51
800,71	1259,50
800,88	1230,83
801,06	1300,46
801,23	1257,45
801,41	1263,60
801,58	1306,60
801,75	1253,36
801,93	1255,40
802,10	1296,36
802,28	1226,73
802,45	1247,21
802,63	1325,04
802,80	1290,22
802,97	1269,74
803,15	1210,35
803,32	1286,12
803,50	1224,69
803,67	1218,54
803,84	1247,21
804,02	1282,03
804,19	1241,07
804,37	1183,73
804,54	1320,94
804,71	1263,60
804,89	1255,40
805,06	1306,60
805,24	1236,97
805,41	1320,94
805,58	1298,41
805,76	1320,94
805,93	1310,70
806,10	1222,64
806,28	1277,93
806,45	1267,69
806,63	1273,84
806,80	1286,12
806,97	1335,28
807,15	1253,36
807,32	1243,12
807,49	1259,50
807,67	1210,35
807,84	1230,83
808,01	1243,12
808,19	1232,88
808,36	1320,94
808,54	1249,26
808,71	1234,93
808,88	1222,64
809,06	1310,70
809,23	1249,26
809,40	1241,07
809,58	1261,55
809,75	1284,08
809,92	1269,74
810,10	1294,32
810,27	1251,31
810,44	1159,15
810,62	1251,31
810,79	1316,84
810,96	1286,12
811,14	1296,36
811,31	1261,55
811,48	1279,98
811,66	1212,40
811,83	1341,42
812,00	1308,65
812,18	1320,94
812,35	1243,12
812,52	1255,40
812,69	1263,60
812,87	1247,21
813,04	1187,82
813,21	1273,84
813,39	1241,07
813,56	1200,11
813,73	1308,65
813,91	1331,18
814,08	1220,59
814,25	1259,50
814,42	1327,08
814,60	1304,56
814,77	1296,36
814,94	1251,31
815,12	1259,50
815,29	1318,89
815,46	1263,60
815,63	1300,46
815,81	1339,37
815,98	1294,32
816,15	1255,40
816,33	1212,40
816,50	1263,60
816,67	1296,36
816,84	1341,42
817,02	1282,03
817,19	1230,83
817,36	1296,36
817,53	1282,03
817,71	1306,60
817,88	1286,12
818,05	1277,93
818,22	1214,45
818,40	1298,41
818,57	1306,60
818,74	1300,46
818,91	1214,45
819,09	1239,02
819,26	1247,21
819,43	1224,69
819,60	1230,83
819,78	1247,21
819,95	1296,36
820,12	1333,23
820,29	1275,88
820,47	1247,21
820,64	1288,17
820,81	1300,46
820,98	1216,49
821,15	1251,31
821,33	1275,88
821,50	1265,64
821,67	1277,93
821,84	1245,16
822,02	1263,60
822,19	1363,95
822,36	1230,83
822,53	1306,60
822,70	1200,11
822,88	1228,78
823,05	1191,92
823,22	1263,60
823,39	1292,27
823,56	1286,12
823,74	1236,97
823,91	1327,08
824,08	1239,02
824,25	1200,11
824,42	1294,32
824,60	1243,12
824,77	1316,84
824,94	1273,84
825,11	1284,08
825,28	1239,02
825,45	1296,36
825,63	1259,50
825,80	1304,56
825,97	1292,27
826,14	1273,84
826,31	1316,84
826,48	1341,42
826,66	1292,27
826,83	1208,30
827,00	1318,89
827,17	1329,13
827,34	1275,88
827,51	1230,83
827,69	1206,25
827,86	1216,49
828,03	1271,79
828,20	1267,69
828,37	1216,49
828,54	1239,02
828,71	1308,65
828,89	1259,50
829,06	1316,84
829,23	1298,41
829,40	1228,78
829,57	1308,65
829,74	1230,83
829,91	1251,31
830,09	1292,27
830,26	1273,84
830,43	1214,45
830,60	1245,16
830,77	1290,22
830,94	1271,79
831,11	1286,12
831,28	1312,75
831,46	1239,02
831,63	1243,12
831,80	1261,55
831,97	1230,83
832,14	1249,26
832,31	1290,22
832,48	1249,26
832,65	1263,60
832,82	1347,56
832,99	1345,52
833,17	1306,60
833,34	1232,88
833,51	1198,06
833,68	1228,78
833,85	1275,88
834,02	1251,31
834,19	1312,75
834,36	1292,27
834,53	1304,56
834,70	1282,03
834,87	1282,03
835,04	1177,58
835,22	1236,97
835,39	1208,30
835,56	1306,60
835,73	1271,79
835,90	1216,49
836,07	1314,80
836,24	1286,12
836,41	1251,31
836,58	1247,21
836,75	1206,25
836,92	1220,59
837,09	1234,93
837,26	1310,70
837,43	1277,93
837,60	1230,83
837,77	1277,93
837,94	1292,27
838,12	1230,83
838,29	1241,07
838,46	1290,22
838,63	1261,55
838,80	1312,75
838,97	1191,92
839,14	1241,07
839,31	1253,36
839,48	1255,40
839,65	1269,74
839,82	1353,71
839,99	1198,06
840,16	1232,88
840,33	1279,98
840,50	1247,21
840,67	1271,79
840,84	1286,12
841,01	1320,94
841,18	1314,80
841,35	1255,40
841,52	1165,29
841,69	1273,84
841,86	1312,75
842,03	1255,40
842,20	1331,18
842,37	1204,21
842,54	1267,69
842,71	1261,55
842,88	1306,60
843,05	1243,12
843,22	1239,02
843,39	1290,22
843,56	1294,32
843,73	1292,27
843,90	1259,50
844,07	1230,83
844,24	1247,21
844,41	1236,97
844,58	1265,64
844,75	1275,88
844,92	1277,93
845,09	1263,60
845,26	1265,64
845,43	1277,93
845,60	1302,51
845,77	1204,21
845,94	1265,64
846,10	1306,60
846,27	1247,21
846,44	1267,69
846,61	1224,69
846,78	1279,98
846,95	1247,21
847,12	1249,26
847,29	1196,01
847,46	1200,11
847,63	1273,84
847,80	1212,40
847,97	1224,69
848,14	1257,45
848,31	1298,41
848,48	1292,27
848,65	1312,75
848,82	1279,98
848,98	1292,27
849,15	1232,88
849,32	1212,40
849,49	1241,07
849,66	1255,40
849,83	1222,64
850,00	1290,22
850,17	1234,93
850,34	1269,74
850,51	1322,99
850,68	1228,78
850,85	1255,40
851,01	1243,12
851,18	1263,60
851,35	1294,32
851,52	1275,88
851,69	1218,54
851,86	1167,34
852,03	1245,16
852,20	1277,93
852,37	1325,04
852,53	1255,40
852,70	1228,78
852,87	1265,64
853,04	1218,54
853,21	1273,84
853,38	1236,97
853,55	1267,69
853,72	1200,11
853,89	1304,56
854,05	1230,83
854,22	1306,60
854,39	1212,40
854,56	1224,69
854,73	1275,88
854,90	1320,94
855,07	1216,49
855,23	1314,80
855,40	1292,27
855,57	1236,97
855,74	1236,97
855,91	1157,10
856,08	1286,12
856,25	1241,07
856,41	1220,59
856,58	1279,98
856,75	1290,22
856,92	1292,27
857,09	1261,55
857,26	1259,50
857,42	1226,73
857,59	1271,79
857,76	1300,46
857,93	1253,36
858,10	1292,27
858,27	1282,03
858,43	1269,74
858,60	1249,26
858,77	1255,40
858,94	1269,74
859,11	1263,60
859,27	1202,16
859,44	1257,45
859,61	1288,17
859,78	1265,64
859,95	1198,06
860,12	1275,88
860,28	1226,73
860,45	1353,71
860,62	1253,36
860,79	1230,83
860,95	1279,98
861,12	1228,78
861,29	1230,83
861,46	1222,64
861,63	1306,60
861,79	1232,88
861,96	1224,69
862,13	1239,02
862,30	1263,60
862,47	1294,32
862,63	1310,70
862,80	1286,12
862,97	1316,84
863,14	1263,60
863,30	1245,16
863,47	1331,18
863,64	1302,51
863,81	1335,28
863,97	1306,60
864,14	1247,21
864,31	1329,13
864,48	1286,12
864,65	1245,16
864,81	1286,12
864,98	1337,32
865,15	1271,79
865,32	1249,26
865,48	1331,18
865,65	1284,08
865,82	1292,27
865,98	1257,45
866,15	1277,93
866,32	1241,07
866,49	1308,65
866,65	1269,74
866,82	1251,31
866,99	1296,36
867,16	1290,22
867,32	1273,84
867,49	1224,69
867,66	1382,38
867,83	1271,79
867,99	1230,83
868,16	1265,64
868,33	1279,98
868,49	1277,93
868,66	1234,93
868,83	1306,60
868,99	1304,56
869,16	1261,55
869,33	1312,75
869,50	1253,36
869,66	1255,40
869,83	1232,88
870,00	1292,27
870,16	1265,64
870,33	1222,64
870,50	1265,64
870,66	1226,73
870,83	1239,02
871,00	1224,69
871,17	1277,93
871,33	1288,17
871,50	1255,40
871,67	1308,65
871,83	1269,74
872,00	1251,31
872,17	1292,27
872,33	1171,44
872,50	1216,49
872,67	1318,89
872,83	1310,70
873,00	1261,55
873,17	1269,74
873,33	1298,41
873,50	1241,07
873,67	1212,40
873,83	1232,88
874,00	1257,45
874,16	1288,17
874,33	1208,30
874,50	1234,93
874,66	1206,25
874,83	1271,79
875,00	1267,69
875,16	1345,52
875,33	1257,45
875,50	1198,06
875,66	1265,64
875,83	1259,50
875,99	1316,84
876,16	1312,75
876,33	1251,31
876,49	1255,40
876,66	1234,93
876,83	1298,41
876,99	1265,64
877,16	1269,74
877,32	1183,73
877,49	1228,78
877,66	1148,91
877,82	1306,60
877,99	1212,40
878,15	1325,04
878,32	1257,45
878,49	1335,28
878,65	1269,74
878,82	1282,03
878,98	1255,40
879,15	1220,59
879,32	1251,31
879,48	1263,60
879,65	1267,69
879,81	1327,08
879,98	1214,45
880,15	1220,59
880,31	1337,32
880,48	1185,77
880,64	1259,50
880,81	1335,28
880,97	1314,80
881,14	1247,21
881,31	1232,88
881,47	1314,80
881,64	1255,40
881,80	1312,75
881,97	1296,36
882,13	1284,08
882,30	1239,02
882,47	1239,02
882,63	1308,65
882,80	1230,83
882,96	1292,27
883,13	1187,82
883,29	1241,07
883,46	1314,80
883,62	1251,31
883,79	1288,17
883,95	1298,41
884,12	1273,84
884,29	1312,75
884,45	1206,25
884,62	1245,16
884,78	1249,26
884,95	1220,59
885,11	1234,93
885,28	1333,23
885,44	1189,87
885,61	1296,36
885,77	1366,00
885,94	1173,49
886,10	1245,16
886,27	1259,50
886,43	1282,03
886,60	1277,93
886,76	1292,27
886,93	1208,30
887,09	1198,06
887,26	1282,03
887,42	1286,12
887,59	1226,73
887,75	1308,65
887,92	1271,79
888,08	1300,46
888,25	1320,94
888,41	1236,97
888,58	1265,64
888,74	1273,84
888,91	1320,94
>>>>>End Processed Spectral Data<<<<<
