SpectraSuite Data File
++++++++++++++++++++++++++++++++++++
Date: Sun Apr 03 19:55:38 CEST 2016
User: root
Dark Spectrum Present: No
Reference Spectrum Present: No
Number of Sampled Component Spectra: 1
Spectrometers: USB4C02835
Integration Time (usec): 10000 (USB4C02835)
Spectra Averaged: 1 (USB4C02835)
Boxcar Smoothing: 0 (USB4C02835)
Correct for Electrical Dark: No (USB4C02835)
Strobe/Lamp Enabled: No (USB4C02835)
Correct for Detector Non-linearity: No (USB4C02835)
Correct for Stray Light: No (USB4C02835)
Number of Pixels in Processed Spectrum: 3648
>>>>>Begin Processed Spectral Data<<<<<
177,47	1261,55
177,69	1261,55
177,91	1261,55
178,13	1296,36
178,36	1302,51
178,58	1185,77
178,80	1255,40
179,02	1230,83
179,24	1265,64
179,46	1263,60
179,68	1261,55
179,90	1333,23
180,13	1298,41
180,35	1273,84
180,57	1269,74
180,79	1224,69
181,01	1269,74
181,23	1232,88
181,45	1296,36
181,67	1255,40
181,90	1275,88
182,12	1277,93
182,34	1239,02
182,56	1249,26
182,78	1298,41
183,00	1273,84
183,22	1267,69
183,44	1232,88
183,66	1261,55
183,89	1312,75
184,11	1290,22
184,33	1279,98
184,55	1314,80
184,77	1251,31
184,99	1286,12
185,21	1275,88
185,43	1241,07
185,65	1290,22
185,87	1241,07
186,10	1273,84
186,32	1366,00
186,54	1257,45
186,76	1292,27
186,98	1267,69
187,20	1345,52
187,42	1343,47
187,64	1318,89
187,86	1259,50
188,08	1267,69
188,30	1239,02
188,52	1261,55
188,75	1279,98
188,97	1282,03
189,19	1222,64
189,41	1247,21
189,63	1288,17
189,85	1243,12
190,07	1261,55
190,29	1282,03
190,51	1343,47
190,73	1286,12
190,95	1294,32
191,17	1265,64
191,39	1241,07
191,61	1304,56
191,84	1261,55
192,06	1189,87
192,28	1312,75
192,50	1245,16
192,72	1210,35
192,94	1273,84
193,16	1269,74
193,38	1333,23
193,60	1191,92
193,82	1304,56
194,04	1271,79
194,26	1224,69
194,48	1292,27
194,70	1222,64
194,92	1277,93
195,14	1265,64
195,36	1236,97
195,58	1316,84
195,80	1294,32
196,02	1243,12
196,24	1277,93
196,46	1236,97
196,69	1210,35
196,91	1247,21
197,13	1249,26
197,35	1239,02
197,57	1288,17
197,79	1286,12
198,01	1236,97
198,23	1298,41
198,45	1349,61
198,67	1257,45
198,89	1316,84
199,11	1230,83
199,33	1220,59
199,55	1230,83
199,77	1304,56
199,99	1247,21
200,21	1171,44
200,43	1298,41
200,65	1275,88
200,87	1245,16
201,09	1271,79
201,31	1261,55
201,53	1359,85
201,75	1216,49
201,97	1212,40
202,19	1200,11
202,41	1265,64
202,63	1273,84
202,85	1196,01
203,07	1253,36
203,29	1200,11
203,51	1310,70
203,73	1284,08
203,95	1275,88
204,17	1241,07
204,39	1214,45
204,61	1271,79
204,83	1232,88
205,05	1249,26
205,27	1294,32
205,49	1269,74
205,71	1288,17
205,93	1269,74
206,15	1306,60
206,37	1279,98
206,59	1230,83
206,81	1216,49
207,03	1288,17
207,25	1267,69
207,47	1239,02
207,69	1286,12
207,91	1339,37
208,13	1230,83
208,34	1247,21
208,56	1251,31
208,78	1304,56
209,00	1269,74
209,22	1255,40
209,44	1257,45
209,66	1204,21
209,88	1306,60
210,10	1243,12
210,32	1218,54
210,54	1185,77
210,76	1261,55
210,98	1345,52
211,20	1318,89
211,42	1304,56
211,64	1249,26
211,86	1255,40
212,08	1243,12
212,30	1269,74
212,52	1296,36
212,74	1224,69
212,96	1277,93
213,17	1288,17
213,39	1302,51
213,61	1261,55
213,83	1245,16
214,05	1257,45
214,27	1269,74
214,49	1236,97
214,71	1331,18
214,93	1232,88
215,15	1314,80
215,37	1265,64
215,59	1335,28
215,81	1331,18
216,03	1196,01
216,24	1265,64
216,46	1308,65
216,68	1249,26
216,90	1267,69
217,12	1239,02
217,34	1282,03
217,56	1187,82
217,78	1271,79
218,00	1325,04
218,22	1261,55
218,44	1212,40
218,66	1206,25
218,87	1304,56
219,09	1298,41
219,31	1226,73
219,53	1345,52
219,75	1265,64
219,97	1318,89
220,19	1273,84
220,41	1308,65
220,63	1267,69
220,85	1230,83
221,06	1277,93
221,28	1282,03
221,50	1214,45
221,72	1290,22
221,94	1241,07
222,16	1277,93
222,38	1230,83
222,60	1282,03
222,82	1320,94
223,03	1218,54
223,25	1279,98
223,47	1222,64
223,69	1304,56
223,91	1249,26
224,13	1288,17
224,35	1322,99
224,57	1322,99
224,78	1277,93
225,00	1236,97
225,22	1261,55
225,44	1257,45
225,66	1279,98
225,88	1273,84
226,10	1310,70
226,32	1247,21
226,53	1279,98
226,75	1343,47
226,97	1273,84
227,19	1265,64
227,41	1257,45
227,63	1243,12
227,85	1243,12
228,06	1236,97
228,28	1259,50
228,50	1304,56
228,72	1304,56
228,94	1304,56
229,16	1265,64
229,37	1300,46
229,59	1286,12
229,81	1249,26
230,03	1316,84
230,25	1314,80
230,47	1282,03
230,69	1290,22
230,90	1288,17
231,12	1241,07
231,34	1302,51
231,56	1255,40
231,78	1224,69
232,00	1271,79
232,21	1236,97
232,43	1271,79
232,65	1310,70
232,87	1228,78
233,09	1269,74
233,30	1247,21
233,52	1259,50
233,74	1230,83
233,96	1277,93
234,18	1286,12
234,40	1269,74
234,61	1241,07
234,83	1296,36
235,05	1208,30
235,27	1292,27
235,49	1273,84
235,70	1271,79
235,92	1265,64
236,14	1247,21
236,36	1279,98
236,58	1218,54
236,79	1292,27
237,01	1320,94
237,23	1230,83
237,45	1243,12
237,67	1191,92
237,88	1212,40
238,10	1241,07
238,32	1236,97
238,54	1247,21
238,76	1308,65
238,97	1292,27
239,19	1314,80
239,41	1279,98
239,63	1247,21
239,85	1296,36
240,06	1267,69
240,28	1306,60
240,50	1310,70
240,72	1275,88
240,93	1214,45
241,15	1230,83
241,37	1308,65
241,59	1279,98
241,81	1267,69
242,02	1308,65
242,24	1202,16
242,46	1290,22
242,68	1261,55
242,89	1296,36
243,11	1259,50
243,33	1255,40
243,55	1337,32
243,76	1275,88
243,98	1288,17
244,20	1243,12
244,42	1253,36
244,64	1220,59
244,85	1273,84
245,07	1300,46
245,29	1290,22
245,51	1261,55
245,72	1300,46
245,94	1310,70
246,16	1322,99
246,38	1241,07
246,59	1263,60
246,81	1251,31
247,03	1253,36
247,24	1255,40
247,46	1261,55
247,68	1282,03
247,90	1224,69
248,11	1253,36
248,33	1255,40
248,55	1247,21
248,77	1253,36
248,98	1263,60
249,20	1275,88
249,42	1181,68
249,64	1236,97
249,85	1200,11
250,07	1261,55
250,29	1247,21
250,50	1306,60
250,72	1267,69
250,94	1290,22
251,16	1347,56
251,37	1282,03
251,59	1208,30
251,81	1247,21
252,02	1261,55
252,24	1304,56
252,46	1183,73
252,68	1257,45
252,89	1290,22
253,11	1265,64
253,33	1224,69
253,54	1347,56
253,76	1275,88
253,98	1261,55
254,20	1226,73
254,41	1273,84
254,63	1271,79
254,85	1224,69
255,06	1259,50
255,28	1257,45
255,50	1200,11
255,71	1247,21
255,93	1312,75
256,15	1261,55
256,36	1286,12
256,58	1271,79
256,80	1265,64
257,02	1271,79
257,23	1255,40
257,45	1263,60
257,67	1275,88
257,88	1263,60
258,10	1300,46
258,32	1251,31
258,53	1279,98
258,75	1325,04
258,97	1265,64
259,18	1329,13
259,40	1286,12
259,62	1347,56
259,83	1351,66
260,05	1302,51
260,27	1282,03
260,48	1214,45
260,70	1216,49
260,92	1271,79
261,13	1325,04
261,35	1314,80
261,57	1304,56
261,78	1310,70
262,00	1265,64
262,22	1212,40
262,43	1304,56
262,65	1314,80
262,86	1282,03
263,08	1210,35
263,30	1275,88
263,51	1220,59
263,73	1243,12
263,95	1212,40
264,16	1312,75
264,38	1296,36
264,60	1257,45
264,81	1226,73
265,03	1222,64
265,25	1259,50
265,46	1288,17
265,68	1279,98
265,89	1325,04
266,11	1257,45
266,33	1294,32
266,54	1216,49
266,76	1275,88
266,98	1212,40
267,19	1267,69
267,41	1243,12
267,62	1368,04
267,84	1257,45
268,06	1245,16
268,27	1277,93
268,49	1263,60
268,70	1310,70
268,92	1327,08
269,14	1222,64
269,35	1239,02
269,57	1261,55
269,79	1202,16
270,00	1236,97
270,22	1243,12
270,43	1236,97
270,65	1198,06
270,87	1296,36
271,08	1302,51
271,30	1265,64
271,51	1327,08
271,73	1212,40
271,95	1312,75
272,16	1282,03
272,38	1298,41
272,59	1294,32
272,81	1347,56
273,02	1249,26
273,24	1282,03
273,46	1245,16
273,67	1265,64
273,89	1257,45
274,10	1226,73
274,32	1241,07
274,54	1294,32
274,75	1282,03
274,97	1355,76
275,18	1208,30
275,40	1187,82
275,61	1310,70
275,83	1286,12
276,05	1247,21
276,26	1331,18
276,48	1224,69
276,69	1257,45
276,91	1257,45
277,12	1304,56
277,34	1310,70
277,55	1284,08
277,77	1232,88
277,99	1251,31
278,20	1320,94
278,42	1265,64
278,63	1255,40
278,85	1243,12
279,06	1232,88
279,28	1314,80
279,49	1261,55
279,71	1345,52
279,93	1271,79
280,14	1243,12
280,36	1193,97
280,57	1318,89
280,79	1304,56
281,00	1261,55
281,22	1337,32
281,43	1230,83
281,65	1212,40
281,86	1279,98
282,08	1298,41
282,29	1322,99
282,51	1310,70
282,73	1245,16
282,94	1322,99
283,16	1329,13
283,37	1243,12
283,59	1273,84
283,80	1232,88
284,02	1329,13
284,23	1243,12
284,45	1253,36
284,66	1316,84
284,88	1290,22
285,09	1239,02
285,31	1218,54
285,52	1257,45
285,74	1329,13
285,95	1232,88
286,17	1290,22
286,38	1234,93
286,60	1320,94
286,81	1357,80
287,03	1236,97
287,24	1277,93
287,46	1267,69
287,67	1331,18
287,89	1294,32
288,10	1185,77
288,32	1234,93
288,53	1306,60
288,75	1220,59
288,96	1275,88
289,18	1286,12
289,39	1294,32
289,61	1251,31
289,82	1337,32
290,04	1228,78
290,25	1357,80
290,47	1202,16
290,68	1259,50
290,90	1247,21
291,11	1173,49
291,33	1177,58
291,54	1198,06
291,76	1169,39
291,97	1251,31
292,18	1282,03
292,40	1200,11
292,61	1232,88
292,83	1314,80
293,04	1224,69
293,26	1232,88
293,47	1282,03
293,69	1267,69
293,90	1259,50
294,12	1232,88
294,33	1241,07
294,55	1308,65
294,76	1236,97
294,97	1279,98
295,19	1261,55
295,40	1312,75
295,62	1271,79
295,83	1239,02
296,05	1236,97
296,26	1239,02
296,48	1236,97
296,69	1265,64
296,90	1259,50
297,12	1265,64
297,33	1282,03
297,55	1286,12
297,76	1304,56
297,98	1294,32
298,19	1249,26
298,41	1261,55
298,62	1347,56
298,83	1314,80
299,05	1222,64
299,26	1255,40
299,48	1325,04
299,69	1286,12
299,90	1196,01
300,12	1247,21
300,33	1277,93
300,55	1308,65
300,76	1224,69
300,98	1247,21
301,19	1296,36
301,40	1275,88
301,62	1265,64
301,83	1347,56
302,05	1273,84
302,26	1286,12
302,47	1310,70
302,69	1220,59
302,90	1296,36
303,12	1335,28
303,33	1308,65
303,54	1259,50
303,76	1239,02
303,97	1220,59
304,19	1279,98
304,40	1306,60
304,61	1245,16
304,83	1255,40
305,04	1247,21
305,26	1224,69
305,47	1243,12
305,68	1239,02
305,90	1224,69
306,11	1236,97
306,33	1265,64
306,54	1290,22
306,75	1304,56
306,97	1157,10
307,18	1259,50
307,39	1279,98
307,61	1273,84
307,82	1232,88
308,04	1322,99
308,25	1302,51
308,46	1298,41
308,68	1335,28
308,89	1230,83
309,10	1216,49
309,32	1308,65
309,53	1230,83
309,74	1247,21
309,96	1269,74
310,17	1386,47
310,39	1296,36
310,60	1298,41
310,81	1253,36
311,03	1271,79
311,24	1247,21
311,45	1243,12
311,67	1308,65
311,88	1288,17
312,09	1277,93
312,31	1236,97
312,52	1216,49
312,73	1312,75
312,95	1279,98
313,16	1257,45
313,37	1273,84
313,59	1325,04
313,80	1224,69
314,01	1216,49
314,23	1222,64
314,44	1230,83
314,65	1232,88
314,87	1282,03
315,08	1253,36
315,29	1290,22
315,51	1273,84
315,72	1290,22
315,93	1208,30
316,15	1277,93
316,36	1265,64
316,57	1253,36
316,79	1259,50
317,00	1282,03
317,21	1214,45
317,43	1312,75
317,64	1263,60
317,85	1236,97
318,07	1159,15
318,28	1318,89
318,49	1259,50
318,70	1253,36
318,92	1290,22
319,13	1222,64
319,34	1259,50
319,56	1306,60
319,77	1255,40
319,98	1239,02
320,20	1267,69
320,41	1292,27
320,62	1253,36
320,83	1286,12
321,05	1273,84
321,26	1282,03
321,47	1306,60
321,69	1226,73
321,90	1251,31
322,11	1255,40
322,32	1288,17
322,54	1259,50
322,75	1230,83
322,96	1261,55
323,18	1245,16
323,39	1288,17
323,60	1208,30
323,81	1267,69
324,03	1267,69
324,24	1245,16
324,45	1325,04
324,66	1306,60
324,88	1271,79
325,09	1292,27
325,30	1343,47
325,52	1261,55
325,73	1255,40
325,94	1290,22
326,15	1327,08
326,37	1230,83
326,58	1282,03
326,79	1327,08
327,00	1292,27
327,22	1325,04
327,43	1275,88
327,64	1196,01
327,85	1236,97
328,07	1245,16
328,28	1228,78
328,49	1296,36
328,70	1314,80
328,92	1341,42
329,13	1220,59
329,34	1306,60
329,55	1329,13
329,76	1247,21
329,98	1226,73
330,19	1288,17
330,40	1167,34
330,61	1314,80
330,83	1337,32
331,04	1259,50
331,25	1257,45
331,46	1275,88
331,68	1286,12
331,89	1175,53
332,10	1279,98
332,31	1282,03
332,52	1290,22
332,74	1232,88
332,95	1304,56
333,16	1200,11
333,37	1267,69
333,58	1224,69
333,80	1282,03
334,01	1243,12
334,22	1325,04
334,43	1255,40
334,64	1288,17
334,86	1267,69
335,07	1247,21
335,28	1228,78
335,49	1275,88
335,70	1277,93
335,92	1273,84
336,13	1316,84
336,34	1275,88
336,55	1329,13
336,76	1249,26
336,98	1249,26
337,19	1232,88
337,40	1290,22
337,61	1267,69
337,82	1255,40
338,04	1222,64
338,25	1210,35
338,46	1208,30
338,67	1247,21
338,88	1212,40
339,09	1193,97
339,31	1269,74
339,52	1343,47
339,73	1269,74
339,94	1265,64
340,15	1247,21
340,36	1239,02
340,58	1290,22
340,79	1259,50
341,00	1282,03
341,21	1226,73
341,42	1232,88
341,63	1275,88
341,85	1234,93
342,06	1273,84
342,27	1314,80
342,48	1304,56
342,69	1298,41
342,90	1320,94
343,12	1202,16
343,33	1255,40
343,54	1220,59
343,75	1265,64
343,96	1298,41
344,17	1345,52
344,38	1314,80
344,60	1200,11
344,81	1284,08
345,02	1253,36
345,23	1255,40
345,44	1312,75
345,65	1277,93
345,86	1265,64
346,07	1247,21
346,29	1284,08
346,50	1290,22
346,71	1282,03
346,92	1282,03
347,13	1224,69
347,34	1273,84
347,55	1288,17
347,76	1269,74
347,98	1269,74
348,19	1234,93
348,40	1265,64
348,61	1249,26
348,82	1320,94
349,03	1257,45
349,24	1329,13
349,45	1187,82
349,66	1216,49
349,88	1302,51
350,09	1271,79
350,30	1243,12
350,51	1239,02
350,72	1300,46
350,93	1257,45
351,14	1208,30
351,35	1290,22
351,56	1265,64
351,77	1257,45
351,99	1255,40
352,20	1247,21
352,41	1222,64
352,62	1296,36
352,83	1247,21
353,04	1290,22
353,25	1247,21
353,46	1306,60
353,67	1304,56
353,88	1206,25
354,09	1239,02
354,30	1271,79
354,52	1247,21
354,73	1193,97
354,94	1282,03
355,15	1247,21
355,36	1181,68
355,57	1290,22
355,78	1292,27
355,99	1296,36
356,20	1212,40
356,41	1298,41
356,62	1341,42
356,83	1216,49
357,04	1374,19
357,25	1243,12
357,46	1265,64
357,68	1298,41
357,89	1214,45
358,10	1286,12
358,31	1310,70
358,52	1277,93
358,73	1265,64
358,94	1296,36
359,15	1224,69
359,36	1249,26
359,57	1236,97
359,78	1306,60
359,99	1298,41
360,20	1306,60
360,41	1204,21
360,62	1216,49
360,83	1204,21
361,04	1308,65
361,25	1347,56
361,46	1290,22
361,67	1255,40
361,88	1279,98
362,09	1322,99
362,30	1218,54
362,51	1224,69
362,72	1263,60
362,93	1216,49
363,14	1273,84
363,35	1277,93
363,56	1210,35
363,78	1220,59
363,99	1304,56
364,20	1210,35
364,41	1296,36
364,62	1286,12
364,83	1275,88
365,04	1259,50
365,25	1286,12
365,46	1257,45
365,67	1269,74
365,88	1269,74
366,09	1261,55
366,30	1169,39
366,51	1339,37
366,72	1296,36
366,93	1277,93
367,14	1320,94
367,35	1359,85
367,56	1275,88
367,77	1308,65
367,98	1204,21
368,18	1284,08
368,39	1320,94
368,60	1316,84
368,81	1269,74
369,02	1241,07
369,23	1247,21
369,44	1218,54
369,65	1218,54
369,86	1220,59
370,07	1218,54
370,28	1232,88
370,49	1314,80
370,70	1298,41
370,91	1271,79
371,12	1241,07
371,33	1277,93
371,54	1222,64
371,75	1296,36
371,96	1273,84
372,17	1259,50
372,38	1263,60
372,59	1269,74
372,80	1279,98
373,01	1292,27
373,22	1218,54
373,43	1224,69
373,64	1251,31
373,85	1218,54
374,06	1292,27
374,26	1255,40
374,47	1249,26
374,68	1366,00
374,89	1239,02
375,10	1175,53
375,31	1279,98
375,52	1271,79
375,73	1318,89
375,94	1275,88
376,15	1273,84
376,36	1300,46
376,57	1300,46
376,78	1259,50
376,99	1290,22
377,20	1236,97
377,40	1337,32
377,61	1230,83
377,82	1325,04
378,03	1247,21
378,24	1263,60
378,45	1310,70
378,66	1282,03
378,87	1292,27
379,08	1290,22
379,29	1279,98
379,50	1220,59
379,71	1273,84
379,91	1353,71
380,12	1284,08
380,33	1247,21
380,54	1218,54
380,75	1249,26
380,96	1212,40
381,17	1284,08
381,38	1245,16
381,59	1294,32
381,80	1253,36
382,00	1216,49
382,21	1204,21
382,42	1292,27
382,63	1288,17
382,84	1212,40
383,05	1263,60
383,26	1183,73
383,47	1286,12
383,68	1239,02
383,88	1320,94
384,09	1298,41
384,30	1318,89
384,51	1239,02
384,72	1247,21
384,93	1226,73
385,14	1261,55
385,35	1322,99
385,55	1228,78
385,76	1310,70
385,97	1251,31
386,18	1277,93
386,39	1327,08
386,60	1310,70
386,81	1282,03
387,02	1288,17
387,22	1206,25
387,43	1290,22
387,64	1298,41
387,85	1259,50
388,06	1325,04
388,27	1279,98
388,48	1220,59
388,68	1339,37
388,89	1232,88
389,10	1292,27
389,31	1228,78
389,52	1279,98
389,73	1271,79
389,93	1271,79
390,14	1269,74
390,35	1273,84
390,56	1255,40
390,77	1275,88
390,98	1210,35
391,18	1345,52
391,39	1230,83
391,60	1247,21
391,81	1320,94
392,02	1257,45
392,23	1306,60
392,43	1339,37
392,64	1286,12
392,85	1259,50
393,06	1243,12
393,27	1253,36
393,47	1204,21
393,68	1275,88
393,89	1263,60
394,10	1236,97
394,31	1269,74
394,52	1296,36
394,72	1292,27
394,93	1181,68
395,14	1218,54
395,35	1228,78
395,56	1216,49
395,76	1279,98
395,97	1249,26
396,18	1247,21
396,39	1251,31
396,60	1259,50
396,80	1226,73
397,01	1288,17
397,22	1214,45
397,43	1259,50
397,64	1198,06
397,84	1290,22
398,05	1212,40
398,26	1310,70
398,47	1261,55
398,67	1206,25
398,88	1290,22
399,09	1236,97
399,30	1191,92
399,51	1191,92
399,71	1228,78
399,92	1312,75
400,13	1288,17
400,34	1286,12
400,54	1255,40
400,75	1282,03
400,96	1185,77
401,17	1296,36
401,37	1253,36
401,58	1212,40
401,79	1288,17
402,00	1279,98
402,21	1251,31
402,41	1228,78
402,62	1316,84
402,83	1232,88
403,04	1255,40
403,24	1271,79
403,45	1279,98
403,66	1302,51
403,87	1288,17
404,07	1279,98
404,28	1273,84
404,49	1241,07
404,70	1236,97
404,90	1232,88
405,11	1288,17
405,32	1247,21
405,52	1259,50
405,73	1236,97
405,94	1284,08
406,15	1296,36
406,35	1259,50
406,56	1304,56
406,77	1302,51
406,98	1290,22
407,18	1308,65
407,39	1271,79
407,60	1286,12
407,80	1292,27
408,01	1279,98
408,22	1247,21
408,43	1232,88
408,63	1273,84
408,84	1279,98
409,05	1261,55
409,25	1157,10
409,46	1265,64
409,67	1218,54
409,88	1257,45
410,08	1200,11
410,29	1327,08
410,50	1249,26
410,70	1271,79
410,91	1275,88
411,12	1265,64
411,32	1325,04
411,53	1318,89
411,74	1282,03
411,95	1273,84
412,15	1220,59
412,36	1249,26
412,57	1216,49
412,77	1331,18
412,98	1265,64
413,19	1222,64
413,39	1275,88
413,60	1290,22
413,81	1208,30
414,01	1181,68
414,22	1239,02
414,43	1173,49
414,63	1261,55
414,84	1263,60
415,05	1261,55
415,25	1241,07
415,46	1212,40
415,67	1314,80
415,87	1282,03
416,08	1273,84
416,29	1255,40
416,49	1288,17
416,70	1273,84
416,91	1304,56
417,11	1282,03
417,32	1290,22
417,53	1259,50
417,73	1265,64
417,94	1257,45
418,15	1239,02
418,35	1218,54
418,56	1368,04
418,77	1304,56
418,97	1353,71
419,18	1224,69
419,38	1200,11
419,59	1288,17
419,80	1249,26
420,00	1284,08
420,21	1243,12
420,42	1308,65
420,62	1314,80
420,83	1222,64
421,04	1255,40
421,24	1290,22
421,45	1243,12
421,65	1314,80
421,86	1279,98
422,07	1308,65
422,27	1271,79
422,48	1232,88
422,69	1255,40
422,89	1265,64
423,10	1320,94
423,30	1273,84
423,51	1257,45
423,72	1267,69
423,92	1335,28
424,13	1286,12
424,33	1300,46
424,54	1279,98
424,75	1290,22
424,95	1247,21
425,16	1298,41
425,36	1214,45
425,57	1282,03
425,78	1284,08
425,98	1322,99
426,19	1222,64
426,39	1241,07
426,60	1306,60
426,81	1310,70
427,01	1306,60
427,22	1333,23
427,42	1296,36
427,63	1298,41
427,83	1249,26
428,04	1275,88
428,25	1249,26
428,45	1316,84
428,66	1220,59
428,86	1310,70
429,07	1261,55
429,28	1296,36
429,48	1269,74
429,69	1216,49
429,89	1284,08
430,10	1271,79
430,30	1216,49
430,51	1169,39
430,71	1288,17
430,92	1314,80
431,13	1257,45
431,33	1284,08
431,54	1253,36
431,74	1271,79
431,95	1302,51
432,15	1273,84
432,36	1255,40
432,56	1259,50
432,77	1249,26
432,98	1298,41
433,18	1273,84
433,39	1333,23
433,59	1277,93
433,80	1230,83
434,00	1331,18
434,21	1302,51
434,41	1275,88
434,62	1267,69
434,82	1331,18
435,03	1304,56
435,23	1245,16
435,44	1212,40
435,64	1218,54
435,85	1337,32
436,06	1329,13
436,26	1282,03
436,47	1286,12
436,67	1282,03
436,88	1255,40
437,08	1329,13
437,29	1271,79
437,49	1271,79
437,70	1341,42
437,90	1241,07
438,11	1322,99
438,31	1322,99
438,52	1308,65
438,72	1271,79
438,93	1304,56
439,13	1257,45
439,34	1288,17
439,54	1228,78
439,75	1257,45
439,95	1290,22
440,16	1312,75
440,36	1286,12
440,57	1286,12
440,77	1271,79
440,98	1251,31
441,18	1279,98
441,39	1232,88
441,59	1239,02
441,80	1206,25
442,00	1261,55
442,21	1282,03
442,41	1249,26
442,62	1247,21
442,82	1263,60
443,02	1277,93
443,23	1224,69
443,43	1247,21
443,64	1316,84
443,84	1245,16
444,05	1261,55
444,25	1212,40
444,46	1286,12
444,66	1339,37
444,87	1267,69
445,07	1253,36
445,28	1284,08
445,48	1257,45
445,69	1277,93
445,89	1304,56
446,09	1277,93
446,30	1337,32
446,50	1306,60
446,71	1314,80
446,91	1282,03
447,12	1284,08
447,32	1241,07
447,53	1247,21
447,73	1232,88
447,93	1257,45
448,14	1308,65
448,34	1245,16
448,55	1259,50
448,75	1290,22
448,96	1310,70
449,16	1279,98
449,36	1314,80
449,57	1257,45
449,77	1304,56
449,98	1300,46
450,18	1282,03
450,39	1284,08
450,59	1308,65
450,79	1296,36
451,00	1282,03
451,20	1234,93
451,41	1259,50
451,61	1263,60
451,81	1239,02
452,02	1239,02
452,22	1298,41
452,43	1279,98
452,63	1277,93
452,84	1308,65
453,04	1327,08
453,24	1222,64
453,45	1294,32
453,65	1290,22
453,86	1245,16
454,06	1236,97
454,26	1224,69
454,47	1288,17
454,67	1290,22
454,87	1327,08
455,08	1298,41
455,28	1292,27
455,49	1290,22
455,69	1275,88
455,89	1343,47
456,10	1308,65
456,30	1349,61
456,51	1306,60
456,71	1300,46
456,91	1284,08
457,12	1257,45
457,32	1294,32
457,52	1208,30
457,73	1220,59
457,93	1298,41
458,14	1290,22
458,34	1251,31
458,54	1263,60
458,75	1322,99
458,95	1308,65
459,15	1320,94
459,36	1284,08
459,56	1232,88
459,76	1304,56
459,97	1275,88
460,17	1253,36
460,37	1320,94
460,58	1267,69
460,78	1314,80
460,99	1282,03
461,19	1318,89
461,39	1236,97
461,60	1292,27
461,80	1226,73
462,00	1306,60
462,21	1267,69
462,41	1288,17
462,61	1275,88
462,82	1296,36
463,02	1308,65
463,22	1247,21
463,43	1232,88
463,63	1261,55
463,83	1257,45
464,04	1277,93
464,24	1271,79
464,44	1245,16
464,64	1282,03
464,85	1288,17
465,05	1279,98
465,25	1255,40
465,46	1202,16
465,66	1327,08
465,86	1216,49
466,07	1288,17
466,27	1214,45
466,47	1257,45
466,68	1259,50
466,88	1308,65
467,08	1300,46
467,29	1214,45
467,49	1314,80
467,69	1282,03
467,89	1296,36
468,10	1335,28
468,30	1312,75
468,50	1294,32
468,71	1234,93
468,91	1269,74
469,11	1241,07
469,31	1279,98
469,52	1304,56
469,72	1236,97
469,92	1308,65
470,13	1243,12
470,33	1243,12
470,53	1206,25
470,73	1345,52
470,94	1241,07
471,14	1300,46
471,34	1226,73
471,54	1310,70
471,75	1222,64
471,95	1218,54
472,15	1230,83
472,36	1249,26
472,56	1292,27
472,76	1267,69
472,96	1284,08
473,17	1265,64
473,37	1298,41
473,57	1261,55
473,77	1255,40
473,98	1271,79
474,18	1314,80
474,38	1222,64
474,58	1325,04
474,79	1269,74
474,99	1241,07
475,19	1288,17
475,39	1259,50
475,60	1316,84
475,80	1347,56
476,00	1339,37
476,20	1255,40
476,41	1239,02
476,61	1279,98
476,81	1284,08
477,01	1185,77
477,21	1241,07
477,42	1220,59
477,62	1245,16
477,82	1257,45
478,02	1310,70
478,23	1273,84
478,43	1298,41
478,63	1269,74
478,83	1277,93
479,03	1228,78
479,24	1232,88
479,44	1265,64
479,64	1204,21
479,84	1267,69
480,04	1239,02
480,25	1296,36
480,45	1282,03
480,65	1226,73
480,85	1308,65
481,06	1314,80
481,26	1243,12
481,46	1257,45
481,66	1304,56
481,86	1284,08
482,06	1279,98
482,27	1339,37
482,47	1212,40
482,67	1316,84
482,87	1249,26
483,07	1257,45
483,28	1232,88
483,48	1279,98
483,68	1277,93
483,88	1239,02
484,08	1284,08
484,29	1308,65
484,49	1290,22
484,69	1290,22
484,89	1206,25
485,09	1310,70
485,29	1259,50
485,50	1239,02
485,70	1267,69
485,90	1277,93
486,10	1286,12
486,30	1255,40
486,50	1277,93
486,71	1302,51
486,91	1253,36
487,11	1284,08
487,31	1269,74
487,51	1222,64
487,71	1226,73
487,91	1265,64
488,12	1255,40
488,32	1279,98
488,52	1202,16
488,72	1251,31
488,92	1310,70
489,12	1241,07
489,32	1290,22
489,53	1282,03
489,73	1259,50
489,93	1247,21
490,13	1249,26
490,33	1279,98
490,53	1269,74
490,73	1277,93
490,94	1290,22
491,14	1286,12
491,34	1273,84
491,54	1165,29
491,74	1277,93
491,94	1245,16
492,14	1271,79
492,34	1320,94
492,54	1265,64
492,75	1265,64
492,95	1271,79
493,15	1267,69
493,35	1222,64
493,55	1298,41
493,75	1224,69
493,95	1255,40
494,15	1267,69
494,35	1290,22
494,56	1318,89
494,76	1210,35
494,96	1249,26
495,16	1261,55
495,36	1304,56
495,56	1290,22
495,76	1292,27
495,96	1316,84
496,16	1271,79
496,36	1290,22
496,56	1267,69
496,77	1200,11
496,97	1253,36
497,17	1288,17
497,37	1251,31
497,57	1249,26
497,77	1228,78
497,97	1359,85
498,17	1320,94
498,37	1259,50
498,57	1251,31
498,77	1265,64
498,97	1361,90
499,17	1306,60
499,38	1273,84
499,58	1357,80
499,78	1304,56
499,98	1267,69
500,18	1316,84
500,38	1296,36
500,58	1279,98
500,78	1320,94
500,98	1183,73
501,18	1255,40
501,38	1210,35
501,58	1247,21
501,78	1267,69
501,98	1331,18
502,18	1251,31
502,38	1247,21
502,58	1251,31
502,78	1259,50
502,98	1265,64
503,18	1335,28
503,38	1263,60
503,59	1292,27
503,79	1327,08
503,99	1234,93
504,19	1292,27
504,39	1267,69
504,59	1261,55
504,79	1302,51
504,99	1216,49
505,19	1216,49
505,39	1249,26
505,59	1320,94
505,79	1327,08
505,99	1304,56
506,19	1284,08
506,39	1288,17
506,59	1286,12
506,79	1273,84
506,99	1290,22
507,19	1296,36
507,39	1288,17
507,59	1304,56
507,79	1236,97
507,99	1273,84
508,19	1329,13
508,39	1273,84
508,59	1282,03
508,79	1243,12
508,99	1296,36
509,19	1296,36
509,39	1302,51
509,59	1267,69
509,79	1204,21
509,99	1255,40
510,19	1300,46
510,39	1306,60
510,59	1271,79
510,79	1300,46
510,99	1312,75
511,19	1308,65
511,39	1320,94
511,59	1279,98
511,79	1282,03
511,99	1302,51
512,19	1312,75
512,38	1212,40
512,58	1249,26
512,78	1222,64
512,98	1366,00
513,18	1312,75
513,38	1271,79
513,58	1269,74
513,78	1224,69
513,98	1243,12
514,18	1277,93
514,38	1232,88
514,58	1351,66
514,78	1282,03
514,98	1263,60
515,18	1224,69
515,38	1243,12
515,58	1259,50
515,78	1273,84
515,98	1255,40
516,18	1198,06
516,38	1212,40
516,57	1292,27
516,77	1286,12
516,97	1282,03
517,17	1249,26
517,37	1290,22
517,57	1361,90
517,77	1198,06
517,97	1198,06
518,17	1312,75
518,37	1296,36
518,57	1269,74
518,77	1271,79
518,97	1181,68
519,16	1249,26
519,36	1243,12
519,56	1265,64
519,76	1302,51
519,96	1363,95
520,16	1316,84
520,36	1286,12
520,56	1286,12
520,76	1290,22
520,96	1312,75
521,16	1279,98
521,35	1279,98
521,55	1339,37
521,75	1228,78
521,95	1296,36
522,15	1331,18
522,35	1304,56
522,55	1257,45
522,75	1282,03
522,95	1277,93
523,14	1253,36
523,34	1230,83
523,54	1329,13
523,74	1296,36
523,94	1310,70
524,14	1257,45
524,34	1249,26
524,54	1251,31
524,73	1310,70
524,93	1249,26
525,13	1259,50
525,33	1224,69
525,53	1366,00
525,73	1271,79
525,93	1304,56
526,13	1232,88
526,32	1284,08
526,52	1228,78
526,72	1251,31
526,92	1355,76
527,12	1306,60
527,32	1261,55
527,52	1245,16
527,71	1292,27
527,91	1314,80
528,11	1263,60
528,31	1296,36
528,51	1202,16
528,71	1312,75
528,90	1249,26
529,10	1253,36
529,30	1318,89
529,50	1216,49
529,70	1202,16
529,90	1224,69
530,09	1259,50
530,29	1200,11
530,49	1255,40
530,69	1284,08
530,89	1304,56
531,09	1263,60
531,28	1306,60
531,48	1273,84
531,68	1265,64
531,88	1300,46
532,08	1327,08
532,28	1239,02
532,47	1273,84
532,67	1322,99
532,87	1173,49
533,07	1259,50
533,27	1366,00
533,46	1322,99
533,66	1269,74
533,86	1263,60
534,06	1327,08
534,26	1226,73
534,45	1300,46
534,65	1298,41
534,85	1351,66
535,05	1294,32
535,25	1304,56
535,44	1312,75
535,64	1277,93
535,84	1366,00
536,04	1255,40
536,24	1327,08
536,43	1374,19
536,63	1306,60
536,83	1261,55
537,03	1245,16
537,22	1337,32
537,42	1224,69
537,62	1234,93
537,82	1236,97
538,02	1318,89
538,21	1265,64
538,41	1286,12
538,61	1224,69
538,81	1355,76
539,00	1249,26
539,20	1271,79
539,40	1284,08
539,60	1259,50
539,79	1361,90
539,99	1292,27
540,19	1267,69
540,39	1273,84
540,58	1241,07
540,78	1310,70
540,98	1282,03
541,18	1279,98
541,37	1361,90
541,57	1277,93
541,77	1329,13
541,97	1259,50
542,16	1193,97
542,36	1304,56
542,56	1282,03
542,76	1259,50
542,95	1290,22
543,15	1218,54
543,35	1284,08
543,54	1253,36
543,74	1230,83
543,94	1226,73
544,14	1253,36
544,33	1304,56
544,53	1347,56
544,73	1351,66
544,93	1277,93
545,12	1302,51
545,32	1376,24
545,52	1259,50
545,71	1290,22
545,91	1282,03
546,11	1249,26
546,30	1361,90
546,50	1292,27
546,70	1277,93
546,90	1257,45
547,09	1357,80
547,29	1257,45
547,49	1277,93
547,68	1294,32
547,88	1318,89
548,08	1347,56
548,27	1347,56
548,47	1257,45
548,67	1329,13
548,87	1349,61
549,06	1267,69
549,26	1322,99
549,46	1234,93
549,65	1232,88
549,85	1355,76
550,05	1329,13
550,24	1327,08
550,44	1255,40
550,64	1310,70
550,83	1304,56
551,03	1288,17
551,23	1298,41
551,42	1259,50
551,62	1292,27
551,82	1337,32
552,01	1255,40
552,21	1241,07
552,41	1296,36
552,60	1216,49
552,80	1279,98
553,00	1343,47
553,19	1259,50
553,39	1239,02
553,59	1347,56
553,78	1232,88
553,98	1228,78
554,17	1261,55
554,37	1361,90
554,57	1327,08
554,76	1298,41
554,96	1243,12
555,16	1247,21
555,35	1261,55
555,55	1333,23
555,75	1253,36
555,94	1312,75
556,14	1322,99
556,33	1290,22
556,53	1353,71
556,73	1290,22
556,92	1335,28
557,12	1271,79
557,32	1318,89
557,51	1290,22
557,71	1271,79
557,90	1265,64
558,10	1302,51
558,30	1339,37
558,49	1300,46
558,69	1296,36
558,88	1286,12
559,08	1333,23
559,28	1245,16
559,47	1363,95
559,67	1277,93
559,86	1257,45
560,06	1282,03
560,26	1343,47
560,45	1331,18
560,65	1273,84
560,84	1302,51
561,04	1290,22
561,24	1314,80
561,43	1292,27
561,63	1271,79
561,82	1292,27
562,02	1261,55
562,22	1269,74
562,41	1179,63
562,61	1310,70
562,80	1361,90
563,00	1335,28
563,19	1347,56
563,39	1255,40
563,59	1337,32
563,78	1273,84
563,98	1236,97
564,17	1314,80
564,37	1243,12
564,56	1273,84
564,76	1267,69
564,96	1296,36
565,15	1296,36
565,35	1247,21
565,54	1296,36
565,74	1331,18
565,93	1314,80
566,13	1316,84
566,32	1327,08
566,52	1368,04
566,71	1292,27
566,91	1314,80
567,11	1265,64
567,30	1222,64
567,50	1251,31
567,69	1273,84
567,89	1286,12
568,08	1310,70
568,28	1320,94
568,47	1247,21
568,67	1255,40
568,86	1212,40
569,06	1265,64
569,25	1290,22
569,45	1322,99
569,64	1339,37
569,84	1282,03
570,04	1302,51
570,23	1275,88
570,43	1322,99
570,62	1294,32
570,82	1269,74
571,01	1294,32
571,21	1249,26
571,40	1314,80
571,60	1261,55
571,79	1247,21
571,99	1243,12
572,18	1265,64
572,38	1398,76
572,57	1177,58
572,77	1312,75
572,96	1306,60
573,16	1314,80
573,35	1263,60
573,55	1329,13
573,74	1392,62
573,94	1343,47
574,13	1271,79
574,33	1286,12
574,52	1253,36
574,71	1308,65
574,91	1288,17
575,10	1320,94
575,30	1286,12
575,49	1249,26
575,69	1363,95
575,88	1249,26
576,08	1249,26
576,27	1183,73
576,47	1236,97
576,66	1304,56
576,86	1304,56
577,05	1261,55
577,25	1327,08
577,44	1265,64
577,64	1329,13
577,83	1296,36
578,02	1306,60
578,22	1308,65
578,41	1343,47
578,61	1212,40
578,80	1257,45
579,00	1253,36
579,19	1294,32
579,39	1243,12
579,58	1265,64
579,77	1294,32
579,97	1308,65
580,16	1247,21
580,36	1282,03
580,55	1253,36
580,75	1331,18
580,94	1355,76
581,13	1290,22
581,33	1304,56
581,52	1308,65
581,72	1214,45
581,91	1370,09
582,11	1265,64
582,30	1245,16
582,49	1232,88
582,69	1288,17
582,88	1353,71
583,08	1277,93
583,27	1277,93
583,47	1290,22
583,66	1265,64
583,85	1277,93
584,05	1294,32
584,24	1261,55
584,44	1196,01
584,63	1251,31
584,82	1310,70
585,02	1366,00
585,21	1357,80
585,41	1322,99
585,60	1263,60
585,79	1366,00
585,99	1273,84
586,18	1265,64
586,37	1214,45
586,57	1271,79
586,76	1296,36
586,96	1249,26
587,15	1275,88
587,34	1255,40
587,54	1282,03
587,73	1316,84
587,93	1337,32
588,12	1277,93
588,31	1255,40
588,51	1265,64
588,70	1259,50
588,89	1243,12
589,09	1306,60
589,28	1255,40
589,47	1300,46
589,67	1286,12
589,86	1298,41
590,06	1263,60
590,25	1273,84
590,44	1304,56
590,64	1271,79
590,83	1245,16
591,02	1286,12
591,22	1239,02
591,41	1337,32
591,60	1261,55
591,80	1296,36
591,99	1312,75
592,18	1322,99
592,38	1222,64
592,57	1265,64
592,76	1269,74
592,96	1318,89
593,15	1269,74
593,34	1232,88
593,54	1284,08
593,73	1249,26
593,92	1318,89
594,12	1329,13
594,31	1277,93
594,50	1259,50
594,70	1191,92
594,89	1325,04
595,08	1325,04
595,28	1251,31
595,47	1259,50
595,66	1247,21
595,86	1251,31
596,05	1226,73
596,24	1267,69
596,43	1290,22
596,63	1298,41
596,82	1271,79
597,01	1308,65
597,21	1247,21
597,40	1320,94
597,59	1388,52
597,79	1304,56
597,98	1298,41
598,17	1243,12
598,36	1290,22
598,56	1251,31
598,75	1322,99
598,94	1220,59
599,14	1325,04
599,33	1275,88
599,52	1302,51
599,71	1282,03
599,91	1304,56
600,10	1269,74
600,29	1333,23
600,48	1392,62
600,68	1327,08
600,87	1253,36
601,06	1253,36
601,26	1331,18
601,45	1230,83
601,64	1294,32
601,83	1298,41
602,03	1239,02
602,22	1253,36
602,41	1239,02
602,60	1243,12
602,80	1331,18
602,99	1251,31
603,18	1275,88
603,37	1265,64
603,57	1304,56
603,76	1288,17
603,95	1228,78
604,14	1286,12
604,34	1290,22
604,53	1376,24
604,72	1286,12
604,91	1308,65
605,10	1290,22
605,30	1288,17
605,49	1249,26
605,68	1284,08
605,87	1300,46
606,07	1296,36
606,26	1316,84
606,45	1234,93
606,64	1320,94
606,84	1282,03
607,03	1269,74
607,22	1255,40
607,41	1306,60
607,60	1275,88
607,80	1302,51
607,99	1247,21
608,18	1257,45
608,37	1339,37
608,56	1286,12
608,76	1320,94
608,95	1261,55
609,14	1312,75
609,33	1234,93
609,52	1269,74
609,72	1357,80
609,91	1253,36
610,10	1208,30
610,29	1236,97
610,48	1269,74
610,68	1331,18
610,87	1255,40
611,06	1296,36
611,25	1302,51
611,44	1247,21
611,63	1337,32
611,83	1261,55
612,02	1298,41
612,21	1290,22
612,40	1277,93
612,59	1253,36
612,79	1302,51
612,98	1314,80
613,17	1300,46
613,36	1322,99
613,55	1314,80
613,74	1212,40
613,93	1279,98
614,13	1286,12
614,32	1318,89
614,51	1255,40
614,70	1366,00
614,89	1230,83
615,08	1337,32
615,28	1265,64
615,47	1261,55
615,66	1312,75
615,85	1249,26
616,04	1277,93
616,23	1345,52
616,42	1282,03
616,62	1265,64
616,81	1296,36
617,00	1302,51
617,19	1363,95
617,38	1304,56
617,57	1288,17
617,76	1331,18
617,95	1296,36
618,15	1249,26
618,34	1198,06
618,53	1271,79
618,72	1343,47
618,91	1310,70
619,10	1288,17
619,29	1292,27
619,48	1314,80
619,68	1290,22
619,87	1239,02
620,06	1275,88
620,25	1277,93
620,44	1204,21
620,63	1265,64
620,82	1247,21
621,01	1306,60
621,20	1318,89
621,39	1288,17
621,59	1267,69
621,78	1277,93
621,97	1304,56
622,16	1279,98
622,35	1271,79
622,54	1282,03
622,73	1261,55
622,92	1249,26
623,11	1292,27
623,30	1335,28
623,49	1265,64
623,68	1337,32
623,88	1206,25
624,07	1296,36
624,26	1286,12
624,45	1279,98
624,64	1306,60
624,83	1347,56
625,02	1269,74
625,21	1331,18
625,40	1308,65
625,59	1341,42
625,78	1320,94
625,97	1320,94
626,16	1245,16
626,35	1261,55
626,54	1175,53
626,74	1329,13
626,93	1234,93
627,12	1306,60
627,31	1320,94
627,50	1296,36
627,69	1333,23
627,88	1259,50
628,07	1236,97
628,26	1263,60
628,45	1273,84
628,64	1320,94
628,83	1300,46
629,02	1343,47
629,21	1333,23
629,40	1271,79
629,59	1374,19
629,78	1286,12
629,97	1347,56
630,16	1304,56
630,35	1339,37
630,54	1314,80
630,73	1273,84
630,92	1308,65
631,11	1357,80
631,30	1292,27
631,49	1392,62
631,68	1658,85
631,87	2320,35
632,06	5423,02
632,25	10004,33
632,44	8206,21
632,63	5662,63
632,82	4446,14
633,01	2482,14
633,20	2131,94
633,39	1918,95
633,58	1908,71
633,77	1824,74
633,96	1640,42
634,15	1677,29
634,34	1601,51
634,53	1482,73
634,72	1538,02
634,91	1431,53
635,10	1470,44
635,29	1456,11
635,48	1478,63
635,67	1392,62
635,86	1376,24
636,05	1376,24
636,24	1351,66
636,43	1417,19
636,62	1388,52
636,81	1355,76
637,00	1331,18
637,19	1386,47
637,38	1337,32
637,57	1372,14
637,76	1329,13
637,95	1384,43
638,14	1353,71
638,33	1308,65
638,52	1302,51
638,71	1290,22
638,89	1318,89
639,08	1290,22
639,27	1300,46
639,46	1320,94
639,65	1286,12
639,84	1320,94
640,03	1320,94
640,22	1216,49
640,41	1322,99
640,60	1269,74
640,79	1284,08
640,98	1300,46
641,17	1247,21
641,36	1282,03
641,55	1294,32
641,74	1259,50
641,92	1298,41
642,11	1339,37
642,30	1245,16
642,49	1286,12
642,68	1306,60
642,87	1327,08
643,06	1279,98
643,25	1302,51
643,44	1202,16
643,63	1286,12
643,82	1288,17
644,00	1304,56
644,19	1349,61
644,38	1277,93
644,57	1267,69
644,76	1210,35
644,95	1277,93
645,14	1269,74
645,33	1265,64
645,52	1296,36
645,71	1253,36
645,89	1263,60
646,08	1306,60
646,27	1234,93
646,46	1273,84
646,65	1214,45
646,84	1271,79
647,03	1302,51
647,22	1257,45
647,40	1230,83
647,59	1298,41
647,78	1247,21
647,97	1253,36
648,16	1277,93
648,35	1288,17
648,54	1245,16
648,73	1306,60
648,91	1269,74
649,10	1312,75
649,29	1322,99
649,48	1198,06
649,67	1314,80
649,86	1239,02
650,05	1267,69
650,23	1347,56
650,42	1337,32
650,61	1312,75
650,80	1277,93
650,99	1253,36
651,18	1259,50
651,36	1200,11
651,55	1212,40
651,74	1294,32
651,93	1236,97
652,12	1232,88
652,31	1249,26
652,49	1271,79
652,68	1177,58
652,87	1308,65
653,06	1339,37
653,25	1251,31
653,44	1224,69
653,62	1292,27
653,81	1187,82
654,00	1302,51
654,19	1251,31
654,38	1210,35
654,56	1320,94
654,75	1298,41
654,94	1234,93
655,13	1361,90
655,32	1259,50
655,51	1255,40
655,69	1290,22
655,88	1255,40
656,07	1265,64
656,26	1275,88
656,45	1263,60
656,63	1275,88
656,82	1261,55
657,01	1224,69
657,20	1271,79
657,38	1292,27
657,57	1267,69
657,76	1222,64
657,95	1314,80
658,14	1294,32
658,32	1312,75
658,51	1230,83
658,70	1316,84
658,89	1241,07
659,08	1269,74
659,26	1292,27
659,45	1284,08
659,64	1267,69
659,83	1228,78
660,01	1273,84
660,20	1257,45
660,39	1271,79
660,58	1282,03
660,76	1284,08
660,95	1284,08
661,14	1310,70
661,33	1247,21
661,51	1286,12
661,70	1273,84
661,89	1269,74
662,08	1288,17
662,26	1279,98
662,45	1247,21
662,64	1187,82
662,83	1265,64
663,01	1339,37
663,20	1232,88
663,39	1265,64
663,58	1257,45
663,76	1269,74
663,95	1189,87
664,14	1269,74
664,32	1265,64
664,51	1230,83
664,70	1267,69
664,89	1183,73
665,07	1239,02
665,26	1318,89
665,45	1232,88
665,64	1282,03
665,82	1300,46
666,01	1345,52
666,20	1234,93
666,38	1228,78
666,57	1357,80
666,76	1232,88
666,95	1298,41
667,13	1292,27
667,32	1239,02
667,51	1239,02
667,69	1226,73
667,88	1253,36
668,07	1325,04
668,25	1196,01
668,44	1300,46
668,63	1306,60
668,81	1251,31
669,00	1245,16
669,19	1273,84
669,38	1286,12
669,56	1251,31
669,75	1298,41
669,94	1271,79
670,12	1292,27
670,31	1259,50
670,50	1189,87
670,68	1271,79
670,87	1306,60
671,06	1226,73
671,24	1372,14
671,43	1300,46
671,62	1216,49
671,80	1261,55
671,99	1239,02
672,18	1273,84
672,36	1206,25
672,55	1277,93
672,74	1282,03
672,92	1261,55
673,11	1275,88
673,29	1267,69
673,48	1265,64
673,67	1292,27
673,85	1294,32
674,04	1341,42
674,23	1232,88
674,41	1275,88
674,60	1271,79
674,79	1261,55
674,97	1253,36
675,16	1290,22
675,34	1245,16
675,53	1286,12
675,72	1232,88
675,90	1224,69
676,09	1277,93
676,28	1318,89
676,46	1282,03
676,65	1208,30
676,83	1265,64
677,02	1187,82
677,21	1239,02
677,39	1302,51
677,58	1273,84
677,77	1243,12
677,95	1193,97
678,14	1257,45
678,32	1267,69
678,51	1269,74
678,70	1232,88
678,88	1292,27
679,07	1279,98
679,25	1267,69
679,44	1269,74
679,63	1150,96
679,81	1255,40
680,00	1265,64
680,18	1290,22
680,37	1265,64
680,55	1249,26
680,74	1282,03
680,93	1284,08
681,11	1216,49
681,30	1271,79
681,48	1265,64
681,67	1277,93
681,85	1232,88
682,04	1232,88
682,23	1378,28
682,41	1273,84
682,60	1234,93
682,78	1296,36
682,97	1335,28
683,15	1288,17
683,34	1265,64
683,53	1214,45
683,71	1265,64
683,90	1298,41
684,08	1241,07
684,27	1261,55
684,45	1273,84
684,64	1296,36
684,82	1298,41
685,01	1234,93
685,19	1155,05
685,38	1345,52
685,57	1302,51
685,75	1308,65
685,94	1204,21
686,12	1275,88
686,31	1230,83
686,49	1279,98
686,68	1275,88
686,86	1277,93
687,05	1259,50
687,23	1210,35
687,42	1320,94
687,60	1286,12
687,79	1261,55
687,97	1232,88
688,16	1294,32
688,34	1273,84
688,53	1282,03
688,71	1265,64
688,90	1265,64
689,08	1290,22
689,27	1271,79
689,45	1341,42
689,64	1239,02
689,82	1259,50
690,01	1333,23
690,19	1234,93
690,38	1267,69
690,56	1304,56
690,75	1228,78
690,93	1288,17
691,12	1216,49
691,30	1234,93
691,49	1255,40
691,67	1265,64
691,86	1320,94
692,04	1253,36
692,23	1308,65
692,41	1277,93
692,60	1222,64
692,78	1241,07
692,97	1267,69
693,15	1259,50
693,34	1171,44
693,52	1191,92
693,71	1232,88
693,89	1247,21
694,08	1222,64
694,26	1290,22
694,44	1206,25
694,63	1271,79
694,81	1175,53
695,00	1294,32
695,18	1269,74
695,37	1212,40
695,55	1263,60
695,74	1267,69
695,92	1230,83
696,10	1286,12
696,29	1296,36
696,47	1298,41
696,66	1286,12
696,84	1302,51
697,03	1345,52
697,21	1279,98
697,40	1220,59
697,58	1312,75
697,76	1193,97
697,95	1263,60
698,13	1245,16
698,32	1249,26
698,50	1263,60
698,68	1316,84
698,87	1335,28
699,05	1337,32
699,24	1232,88
699,42	1243,12
699,61	1337,32
699,79	1300,46
699,97	1347,56
700,16	1234,93
700,34	1247,21
700,53	1249,26
700,71	1288,17
700,89	1345,52
701,08	1230,83
701,26	1277,93
701,45	1243,12
701,63	1331,18
701,81	1239,02
702,00	1318,89
702,18	1239,02
702,37	1339,37
702,55	1214,45
702,73	1236,97
702,92	1327,08
703,10	1249,26
703,28	1257,45
703,47	1308,65
703,65	1271,79
703,84	1339,37
704,02	1202,16
704,20	1259,50
704,39	1335,28
704,57	1249,26
704,75	1267,69
704,94	1288,17
705,12	1267,69
705,30	1230,83
705,49	1306,60
705,67	1239,02
705,86	1339,37
706,04	1275,88
706,22	1304,56
706,41	1230,83
706,59	1269,74
706,77	1273,84
706,96	1214,45
707,14	1372,14
707,32	1226,73
707,51	1273,84
707,69	1206,25
707,87	1314,80
708,06	1329,13
708,24	1290,22
708,42	1290,22
708,61	1230,83
708,79	1269,74
708,97	1247,21
709,16	1232,88
709,34	1208,30
709,52	1296,36
709,71	1296,36
709,89	1173,49
710,07	1300,46
710,26	1304,56
710,44	1277,93
710,62	1288,17
710,80	1261,55
710,99	1265,64
711,17	1331,18
711,35	1187,82
711,54	1269,74
711,72	1226,73
711,90	1228,78
712,09	1265,64
712,27	1294,32
712,45	1269,74
712,63	1300,46
712,82	1271,79
713,00	1335,28
713,18	1230,83
713,37	1308,65
713,55	1224,69
713,73	1249,26
713,91	1288,17
714,10	1316,84
714,28	1261,55
714,46	1261,55
714,65	1275,88
714,83	1314,80
715,01	1239,02
715,19	1304,56
715,38	1204,21
715,56	1357,80
715,74	1282,03
715,92	1366,00
716,11	1210,35
716,29	1257,45
716,47	1288,17
716,65	1294,32
716,84	1306,60
717,02	1247,21
717,20	1286,12
717,38	1298,41
717,57	1302,51
717,75	1269,74
717,93	1259,50
718,11	1253,36
718,30	1314,80
718,48	1259,50
718,66	1247,21
718,84	1265,64
719,03	1259,50
719,21	1314,80
719,39	1284,08
719,57	1265,64
719,75	1206,25
719,94	1255,40
720,12	1257,45
720,30	1232,88
720,48	1329,13
720,67	1222,64
720,85	1226,73
721,03	1253,36
721,21	1277,93
721,39	1234,93
721,58	1304,56
721,76	1175,53
721,94	1206,25
722,12	1245,16
722,30	1279,98
722,49	1273,84
722,67	1271,79
722,85	1320,94
723,03	1257,45
723,21	1306,60
723,40	1243,12
723,58	1277,93
723,76	1320,94
723,94	1339,37
724,12	1265,64
724,30	1279,98
724,49	1275,88
724,67	1265,64
724,85	1206,25
725,03	1267,69
725,21	1249,26
725,40	1308,65
725,58	1257,45
725,76	1236,97
725,94	1214,45
726,12	1259,50
726,30	1202,16
726,49	1290,22
726,67	1275,88
726,85	1271,79
727,03	1302,51
727,21	1222,64
727,39	1220,59
727,57	1232,88
727,76	1271,79
727,94	1249,26
728,12	1333,23
728,30	1277,93
728,48	1253,36
728,66	1257,45
728,84	1226,73
729,03	1298,41
729,21	1259,50
729,39	1269,74
729,57	1292,27
729,75	1300,46
729,93	1210,35
730,11	1292,27
730,30	1273,84
730,48	1267,69
730,66	1284,08
730,84	1247,21
731,02	1239,02
731,20	1329,13
731,38	1308,65
731,56	1273,84
731,74	1230,83
731,93	1282,03
732,11	1208,30
732,29	1279,98
732,47	1261,55
732,65	1292,27
732,83	1273,84
733,01	1314,80
733,19	1243,12
733,37	1232,88
733,56	1292,27
733,74	1255,40
733,92	1322,99
734,10	1273,84
734,28	1212,40
734,46	1282,03
734,64	1282,03
734,82	1269,74
735,00	1294,32
735,18	1341,42
735,36	1290,22
735,54	1302,51
735,73	1282,03
735,91	1331,18
736,09	1251,31
736,27	1189,87
736,45	1294,32
736,63	1312,75
736,81	1224,69
736,99	1271,79
737,17	1224,69
737,35	1288,17
737,53	1273,84
737,71	1206,25
737,89	1214,45
738,07	1257,45
738,25	1292,27
738,43	1298,41
738,61	1257,45
738,80	1200,11
738,98	1253,36
739,16	1273,84
739,34	1290,22
739,52	1290,22
739,70	1279,98
739,88	1273,84
740,06	1290,22
740,24	1265,64
740,42	1243,12
740,60	1251,31
740,78	1259,50
740,96	1255,40
741,14	1300,46
741,32	1257,45
741,50	1267,69
741,68	1290,22
741,86	1269,74
742,04	1312,75
742,22	1325,04
742,40	1257,45
742,58	1198,06
742,76	1255,40
742,94	1322,99
743,12	1261,55
743,30	1288,17
743,48	1357,80
743,66	1206,25
743,84	1245,16
744,02	1259,50
744,20	1206,25
744,38	1304,56
744,56	1204,21
744,74	1310,70
744,92	1259,50
745,10	1322,99
745,28	1359,85
745,46	1257,45
745,64	1243,12
745,82	1335,28
746,00	1214,45
746,18	1245,16
746,36	1273,84
746,54	1259,50
746,72	1337,32
746,90	1296,36
747,08	1282,03
747,26	1247,21
747,44	1288,17
747,62	1222,64
747,80	1273,84
747,98	1247,21
748,15	1312,75
748,33	1247,21
748,51	1335,28
748,69	1294,32
748,87	1290,22
749,05	1286,12
749,23	1271,79
749,41	1331,18
749,59	1290,22
749,77	1288,17
749,95	1224,69
750,13	1310,70
750,31	1243,12
750,49	1296,36
750,67	1290,22
750,85	1253,36
751,03	1236,97
751,20	1300,46
751,38	1263,60
751,56	1216,49
751,74	1234,93
751,92	1290,22
752,10	1230,83
752,28	1249,26
752,46	1247,21
752,64	1245,16
752,82	1245,16
753,00	1320,94
753,18	1232,88
753,35	1296,36
753,53	1239,02
753,71	1257,45
753,89	1277,93
754,07	1239,02
754,25	1298,41
754,43	1271,79
754,61	1243,12
754,79	1322,99
754,97	1300,46
755,14	1257,45
755,32	1261,55
755,50	1331,18
755,68	1257,45
755,86	1214,45
756,04	1282,03
756,22	1210,35
756,40	1232,88
756,57	1261,55
756,75	1263,60
756,93	1300,46
757,11	1257,45
757,29	1298,41
757,47	1282,03
757,65	1255,40
757,82	1349,61
758,00	1265,64
758,18	1239,02
758,36	1265,64
758,54	1318,89
758,72	1245,16
758,90	1322,99
759,07	1226,73
759,25	1249,26
759,43	1271,79
759,61	1251,31
759,79	1277,93
759,97	1273,84
760,15	1290,22
760,32	1243,12
760,50	1277,93
760,68	1288,17
760,86	1298,41
761,04	1230,83
761,22	1234,93
761,39	1361,90
761,57	1241,07
761,75	1345,52
761,93	1261,55
762,11	1249,26
762,28	1243,12
762,46	1234,93
762,64	1282,03
762,82	1271,79
763,00	1243,12
763,18	1226,73
763,35	1191,92
763,53	1331,18
763,71	1196,01
763,89	1331,18
764,07	1310,70
764,24	1288,17
764,42	1273,84
764,60	1331,18
764,78	1298,41
764,96	1298,41
765,13	1163,25
765,31	1306,60
765,49	1296,36
765,67	1234,93
765,84	1230,83
766,02	1298,41
766,20	1243,12
766,38	1230,83
766,56	1273,84
766,73	1286,12
766,91	1208,30
767,09	1282,03
767,27	1306,60
767,44	1298,41
767,62	1290,22
767,80	1261,55
767,98	1257,45
768,15	1239,02
768,33	1288,17
768,51	1214,45
768,69	1234,93
768,87	1306,60
769,04	1259,50
769,22	1255,40
769,40	1234,93
769,58	1253,36
769,75	1208,30
769,93	1271,79
770,11	1282,03
770,28	1241,07
770,46	1245,16
770,64	1191,92
770,82	1222,64
770,99	1282,03
771,17	1226,73
771,35	1212,40
771,53	1263,60
771,70	1243,12
771,88	1247,21
772,06	1261,55
772,23	1308,65
772,41	1193,97
772,59	1226,73
772,77	1232,88
772,94	1267,69
773,12	1245,16
773,30	1224,69
773,47	1200,11
773,65	1267,69
773,83	1206,25
774,01	1279,98
774,18	1247,21
774,36	1282,03
774,54	1212,40
774,71	1247,21
774,89	1243,12
775,07	1202,16
775,24	1265,64
775,42	1253,36
775,60	1282,03
775,78	1226,73
775,95	1267,69
776,13	1282,03
776,31	1171,44
776,48	1247,21
776,66	1320,94
776,84	1290,22
777,01	1265,64
777,19	1222,64
777,37	1267,69
777,54	1320,94
777,72	1284,08
777,90	1320,94
778,07	1294,32
778,25	1267,69
778,43	1339,37
778,60	1253,36
778,78	1368,04
778,96	1247,21
779,13	1329,13
779,31	1300,46
779,49	1273,84
779,66	1284,08
779,84	1312,75
780,01	1261,55
780,19	1304,56
780,37	1245,16
780,54	1253,36
780,72	1196,01
780,90	1339,37
781,07	1277,93
781,25	1359,85
781,43	1279,98
781,60	1214,45
781,78	1245,16
781,95	1261,55
782,13	1296,36
782,31	1257,45
782,48	1245,16
782,66	1257,45
782,83	1290,22
783,01	1196,01
783,19	1165,29
783,36	1312,75
783,54	1298,41
783,72	1275,88
783,89	1277,93
784,07	1249,26
784,24	1304,56
784,42	1216,49
784,60	1257,45
784,77	1185,77
784,95	1241,07
785,12	1296,36
785,30	1224,69
785,47	1265,64
785,65	1253,36
785,83	1316,84
786,00	1214,45
786,18	1257,45
786,35	1271,79
786,53	1341,42
786,71	1261,55
786,88	1304,56
787,06	1290,22
787,23	1253,36
787,41	1236,97
787,58	1290,22
787,76	1263,60
787,94	1329,13
788,11	1261,55
788,29	1306,60
788,46	1275,88
788,64	1214,45
788,81	1306,60
788,99	1269,74
789,16	1245,16
789,34	1279,98
789,52	1333,23
789,69	1232,88
789,87	1314,80
790,04	1214,45
790,22	1187,82
790,39	1273,84
790,57	1318,89
790,74	1290,22
790,92	1249,26
791,09	1269,74
791,27	1327,08
791,44	1208,30
791,62	1273,84
791,79	1224,69
791,97	1308,65
792,15	1312,75
792,32	1275,88
792,50	1257,45
792,67	1216,49
792,85	1253,36
793,02	1269,74
793,20	1271,79
793,37	1224,69
793,55	1257,45
793,72	1282,03
793,90	1314,80
794,07	1257,45
794,25	1257,45
794,42	1304,56
794,60	1310,70
794,77	1247,21
794,95	1247,21
795,12	1277,93
795,30	1218,54
795,47	1314,80
795,65	1257,45
795,82	1265,64
796,00	1263,60
796,17	1310,70
796,34	1200,11
796,52	1318,89
796,69	1277,93
796,87	1306,60
797,04	1263,60
797,22	1271,79
797,39	1290,22
797,57	1228,78
797,74	1322,99
797,92	1257,45
798,09	1249,26
798,27	1320,94
798,44	1282,03
798,62	1265,64
798,79	1288,17
798,96	1241,07
799,14	1302,51
799,31	1234,93
799,49	1214,45
799,66	1261,55
799,84	1331,18
800,01	1265,64
800,19	1320,94
800,36	1228,78
800,53	1273,84
800,71	1298,41
800,88	1253,36
801,06	1331,18
801,23	1259,50
801,41	1310,70
801,58	1267,69
801,75	1230,83
801,93	1298,41
802,10	1290,22
802,28	1198,06
802,45	1200,11
802,63	1216,49
802,80	1273,84
802,97	1206,25
803,15	1284,08
803,32	1232,88
803,50	1290,22
803,67	1232,88
803,84	1243,12
804,02	1257,45
804,19	1261,55
804,37	1298,41
804,54	1247,21
804,71	1243,12
804,89	1345,52
805,06	1325,04
805,24	1273,84
805,41	1296,36
805,58	1255,40
805,76	1314,80
805,93	1275,88
806,10	1191,92
806,28	1312,75
806,45	1243,12
806,63	1202,16
806,80	1312,75
806,97	1234,93
807,15	1279,98
807,32	1296,36
807,49	1218,54
807,67	1255,40
807,84	1308,65
808,01	1187,82
808,19	1198,06
808,36	1288,17
808,54	1249,26
808,71	1218,54
808,88	1193,97
809,06	1232,88
809,23	1257,45
809,40	1290,22
809,58	1251,31
809,75	1298,41
809,92	1241,07
810,10	1226,73
810,27	1306,60
810,44	1275,88
810,62	1245,16
810,79	1271,79
810,96	1308,65
811,14	1218,54
811,31	1196,01
811,48	1275,88
811,66	1255,40
811,83	1329,13
812,00	1232,88
812,18	1329,13
812,35	1251,31
812,52	1241,07
812,69	1277,93
812,87	1329,13
813,04	1257,45
813,21	1318,89
813,39	1251,31
813,56	1269,74
813,73	1310,70
813,91	1312,75
814,08	1228,78
814,25	1191,92
814,42	1298,41
814,60	1265,64
814,77	1261,55
814,94	1275,88
815,12	1259,50
815,29	1247,21
815,46	1212,40
815,63	1263,60
815,81	1263,60
815,98	1308,65
816,15	1208,30
816,33	1288,17
816,50	1212,40
816,67	1286,12
816,84	1251,31
817,02	1222,64
817,19	1277,93
817,36	1263,60
817,53	1241,07
817,71	1249,26
817,88	1265,64
818,05	1329,13
818,22	1304,56
818,40	1259,50
818,57	1318,89
818,74	1232,88
818,91	1247,21
819,09	1259,50
819,26	1329,13
819,43	1296,36
819,60	1329,13
819,78	1216,49
819,95	1265,64
820,12	1290,22
820,29	1257,45
820,47	1290,22
820,64	1284,08
820,81	1308,65
820,98	1318,89
821,15	1273,84
821,33	1284,08
821,50	1234,93
821,67	1298,41
821,84	1253,36
822,02	1243,12
822,19	1300,46
822,36	1249,26
822,53	1255,40
822,70	1273,84
822,88	1220,59
823,05	1282,03
823,22	1222,64
823,39	1327,08
823,56	1191,92
823,74	1249,26
823,91	1282,03
824,08	1216,49
824,25	1329,13
824,42	1257,45
824,60	1288,17
824,77	1282,03
824,94	1234,93
825,11	1228,78
825,28	1279,98
825,45	1279,98
825,63	1282,03
825,80	1253,36
825,97	1253,36
826,14	1236,97
826,31	1247,21
826,48	1300,46
826,66	1249,26
826,83	1269,74
827,00	1269,74
827,17	1167,34
827,34	1271,79
827,51	1269,74
827,69	1243,12
827,86	1277,93
828,03	1314,80
828,20	1222,64
828,37	1257,45
828,54	1288,17
828,71	1251,31
828,89	1275,88
829,06	1234,93
829,23	1255,40
829,40	1210,35
829,57	1265,64
829,74	1214,45
829,91	1247,21
830,09	1263,60
830,26	1318,89
830,43	1236,97
830,60	1353,71
830,77	1349,61
830,94	1286,12
831,11	1269,74
831,28	1208,30
831,46	1241,07
831,63	1263,60
831,80	1286,12
831,97	1286,12
832,14	1302,51
832,31	1214,45
832,48	1265,64
832,65	1388,52
832,82	1253,36
832,99	1191,92
833,17	1255,40
833,34	1304,56
833,51	1277,93
833,68	1210,35
833,85	1187,82
834,02	1318,89
834,19	1239,02
834,36	1253,36
834,53	1222,64
834,70	1286,12
834,87	1247,21
835,04	1255,40
835,22	1269,74
835,39	1341,42
835,56	1304,56
835,73	1245,16
835,90	1277,93
836,07	1308,65
836,24	1267,69
836,41	1218,54
836,58	1216,49
836,75	1265,64
836,92	1257,45
837,09	1337,32
837,26	1288,17
837,43	1230,83
837,60	1322,99
837,77	1239,02
837,94	1257,45
838,12	1368,04
838,29	1247,21
838,46	1226,73
838,63	1253,36
838,80	1282,03
838,97	1247,21
839,14	1355,76
839,31	1224,69
839,48	1284,08
839,65	1218,54
839,82	1271,79
839,99	1308,65
840,16	1230,83
840,33	1259,50
840,50	1304,56
840,67	1241,07
840,84	1263,60
841,01	1308,65
841,18	1234,93
841,35	1267,69
841,52	1193,97
841,69	1284,08
841,86	1298,41
842,03	1247,21
842,20	1277,93
842,37	1236,97
842,54	1208,30
842,71	1325,04
842,88	1245,16
843,05	1265,64
843,22	1277,93
843,39	1322,99
843,56	1249,26
843,73	1325,04
843,90	1191,92
844,07	1310,70
844,24	1245,16
844,41	1251,31
844,58	1273,84
844,75	1206,25
844,92	1286,12
845,09	1277,93
845,26	1253,36
845,43	1245,16
845,60	1279,98
845,77	1239,02
845,94	1226,73
846,10	1320,94
846,27	1353,71
846,44	1320,94
846,61	1243,12
846,78	1224,69
846,95	1232,88
847,12	1296,36
847,29	1218,54
847,46	1228,78
847,63	1230,83
847,80	1294,32
847,97	1236,97
848,14	1341,42
848,31	1249,26
848,48	1245,16
848,65	1284,08
848,82	1271,79
848,98	1263,60
849,15	1298,41
849,32	1249,26
849,49	1347,56
849,66	1292,27
849,83	1189,87
850,00	1259,50
850,17	1255,40
850,34	1351,66
850,51	1226,73
850,68	1259,50
850,85	1236,97
851,01	1230,83
851,18	1234,93
851,35	1322,99
851,52	1304,56
851,69	1339,37
851,86	1232,88
852,03	1265,64
852,20	1333,23
852,37	1347,56
852,53	1247,21
852,70	1251,31
852,87	1269,74
853,04	1282,03
853,21	1300,46
853,38	1206,25
853,55	1222,64
853,72	1277,93
853,89	1290,22
854,05	1208,30
854,22	1288,17
854,39	1296,36
854,56	1304,56
854,73	1353,71
854,90	1241,07
855,07	1261,55
855,23	1269,74
855,40	1175,53
855,57	1245,16
855,74	1284,08
855,91	1255,40
856,08	1236,97
856,25	1316,84
856,41	1253,36
856,58	1269,74
856,75	1288,17
856,92	1298,41
857,09	1306,60
857,26	1257,45
857,42	1259,50
857,59	1224,69
857,76	1255,40
857,93	1249,26
858,10	1267,69
858,27	1263,60
858,43	1355,76
858,60	1232,88
858,77	1361,90
858,94	1216,49
859,11	1236,97
859,27	1277,93
859,44	1302,51
859,61	1263,60
859,78	1298,41
859,95	1292,27
860,12	1284,08
860,28	1320,94
860,45	1286,12
860,62	1337,32
860,79	1249,26
860,95	1269,74
861,12	1249,26
861,29	1267,69
861,46	1282,03
861,63	1261,55
861,79	1335,28
861,96	1288,17
862,13	1249,26
862,30	1202,16
862,47	1292,27
862,63	1255,40
862,80	1241,07
862,97	1232,88
863,14	1196,01
863,30	1255,40
863,47	1284,08
863,64	1212,40
863,81	1282,03
863,97	1196,01
864,14	1249,26
864,31	1269,74
864,48	1255,40
864,65	1214,45
864,81	1314,80
864,98	1282,03
865,15	1267,69
865,32	1236,97
865,48	1271,79
865,65	1322,99
865,82	1253,36
865,98	1314,80
866,15	1288,17
866,32	1247,21
866,49	1282,03
866,65	1259,50
866,82	1239,02
866,99	1187,82
867,16	1212,40
867,32	1267,69
867,49	1263,60
867,66	1253,36
867,83	1279,98
867,99	1208,30
868,16	1196,01
868,33	1245,16
868,49	1251,31
868,66	1196,01
868,83	1308,65
868,99	1253,36
869,16	1222,64
869,33	1208,30
869,50	1265,64
869,66	1269,74
869,83	1271,79
870,00	1306,60
870,16	1265,64
870,33	1257,45
870,50	1251,31
870,66	1232,88
870,83	1271,79
871,00	1292,27
871,17	1263,60
871,33	1253,36
871,50	1232,88
871,67	1239,02
871,83	1288,17
872,00	1306,60
872,17	1273,84
872,33	1189,87
872,50	1314,80
872,67	1236,97
872,83	1257,45
873,00	1218,54
873,17	1296,36
873,33	1282,03
873,50	1353,71
873,67	1349,61
873,83	1294,32
874,00	1232,88
874,16	1271,79
874,33	1331,18
874,50	1253,36
874,66	1239,02
874,83	1269,74
875,00	1314,80
875,16	1329,13
875,33	1228,78
875,50	1273,84
875,66	1234,93
875,83	1329,13
875,99	1314,80
876,16	1325,04
876,33	1230,83
876,49	1300,46
876,66	1239,02
876,83	1255,40
876,99	1304,56
877,16	1173,49
877,32	1224,69
877,49	1173,49
877,66	1290,22
877,82	1308,65
877,99	1210,35
878,15	1251,31
878,32	1298,41
878,49	1232,88
878,65	1224,69
878,82	1259,50
878,98	1206,25
879,15	1193,97
879,32	1239,02
879,48	1288,17
879,65	1253,36
879,81	1241,07
879,98	1327,08
880,15	1269,74
880,31	1257,45
880,48	1179,63
880,64	1347,56
880,81	1292,27
880,97	1310,70
881,14	1282,03
881,31	1239,02
881,47	1216,49
881,64	1257,45
881,80	1249,26
881,97	1236,97
882,13	1204,21
882,30	1269,74
882,47	1304,56
882,63	1224,69
882,80	1310,70
882,96	1265,64
883,13	1304,56
883,29	1271,79
883,46	1241,07
883,62	1257,45
883,79	1257,45
883,95	1265,64
884,12	1226,73
884,29	1234,93
884,45	1267,69
884,62	1214,45
884,78	1310,70
884,95	1232,88
885,11	1347,56
885,28	1325,04
885,44	1239,02
885,61	1269,74
885,77	1308,65
885,94	1279,98
886,10	1191,92
886,27	1247,21
886,43	1337,32
886,60	1253,36
886,76	1333,23
886,93	1411,05
887,09	1282,03
887,26	1267,69
887,42	1275,88
887,59	1261,55
887,75	1228,78
887,92	1290,22
888,08	1271,79
888,25	1333,23
888,41	1290,22
888,58	1236,97
888,74	1279,98
888,91	1218,54
>>>>>End Processed Spectral Data<<<<<
