SpectraSuite Data File
++++++++++++++++++++++++++++++++++++
Date: Sun Apr 03 19:55:42 CEST 2016
User: root
Dark Spectrum Present: No
Reference Spectrum Present: No
Number of Sampled Component Spectra: 1
Spectrometers: USB4C02835
Integration Time (usec): 10000 (USB4C02835)
Spectra Averaged: 1 (USB4C02835)
Boxcar Smoothing: 0 (USB4C02835)
Correct for Electrical Dark: No (USB4C02835)
Strobe/Lamp Enabled: No (USB4C02835)
Correct for Detector Non-linearity: No (USB4C02835)
Correct for Stray Light: No (USB4C02835)
Number of Pixels in Processed Spectrum: 3648
>>>>>Begin Processed Spectral Data<<<<<
177,47	1253,36
177,69	1253,36
177,91	1253,36
178,13	1222,64
178,36	1232,88
178,58	1247,21
178,80	1243,12
179,02	1288,17
179,24	1279,98
179,46	1239,02
179,68	1331,18
179,90	1265,64
180,13	1300,46
180,35	1243,12
180,57	1267,69
180,79	1220,59
181,01	1214,45
181,23	1308,65
181,45	1300,46
181,67	1230,83
181,90	1241,07
182,12	1253,36
182,34	1294,32
182,56	1222,64
182,78	1253,36
183,00	1243,12
183,22	1181,68
183,44	1247,21
183,66	1286,12
183,89	1210,35
184,11	1232,88
184,33	1302,51
184,55	1265,64
184,77	1329,13
184,99	1198,06
185,21	1306,60
185,43	1257,45
185,65	1325,04
185,87	1275,88
186,10	1245,16
186,32	1279,98
186,54	1220,59
186,76	1228,78
186,98	1232,88
187,20	1290,22
187,42	1265,64
187,64	1302,51
187,86	1232,88
188,08	1288,17
188,30	1202,16
188,52	1232,88
188,75	1245,16
188,97	1204,21
189,19	1261,55
189,41	1294,32
189,63	1245,16
189,85	1269,74
190,07	1232,88
190,29	1230,83
190,51	1292,27
190,73	1282,03
190,95	1234,93
191,17	1245,16
191,39	1191,92
191,61	1267,69
191,84	1265,64
192,06	1261,55
192,28	1208,30
192,50	1210,35
192,72	1220,59
192,94	1339,37
193,16	1271,79
193,38	1302,51
193,60	1382,38
193,82	1259,50
194,04	1351,66
194,26	1249,26
194,48	1273,84
194,70	1273,84
194,92	1284,08
195,14	1284,08
195,36	1249,26
195,58	1275,88
195,80	1216,49
196,02	1247,21
196,24	1273,84
196,46	1282,03
196,69	1304,56
196,91	1337,32
197,13	1187,82
197,35	1296,36
197,57	1290,22
197,79	1261,55
198,01	1214,45
198,23	1312,75
198,45	1226,73
198,67	1288,17
198,89	1232,88
199,11	1314,80
199,33	1277,93
199,55	1241,07
199,77	1249,26
199,99	1263,60
200,21	1331,18
200,43	1239,02
200,65	1253,36
200,87	1277,93
201,09	1210,35
201,31	1220,59
201,53	1284,08
201,75	1255,40
201,97	1263,60
202,19	1251,31
202,41	1273,84
202,63	1329,13
202,85	1304,56
203,07	1257,45
203,29	1294,32
203,51	1191,92
203,73	1150,96
203,95	1312,75
204,17	1320,94
204,39	1314,80
204,61	1265,64
204,83	1277,93
205,05	1331,18
205,27	1288,17
205,49	1277,93
205,71	1222,64
205,93	1234,93
206,15	1277,93
206,37	1327,08
206,59	1261,55
206,81	1187,82
207,03	1318,89
207,25	1265,64
207,47	1257,45
207,69	1269,74
207,91	1290,22
208,13	1333,23
208,34	1230,83
208,56	1200,11
208,78	1296,36
209,00	1239,02
209,22	1224,69
209,44	1232,88
209,66	1296,36
209,88	1214,45
210,10	1257,45
210,32	1284,08
210,54	1279,98
210,76	1259,50
210,98	1269,74
211,20	1191,92
211,42	1263,60
211,64	1261,55
211,86	1177,58
212,08	1265,64
212,30	1327,08
212,52	1312,75
212,74	1279,98
212,96	1372,14
213,17	1359,85
213,39	1290,22
213,61	1284,08
213,83	1259,50
214,05	1196,01
214,27	1247,21
214,49	1306,60
214,71	1255,40
214,93	1267,69
215,15	1208,30
215,37	1275,88
215,59	1263,60
215,81	1214,45
216,03	1269,74
216,24	1232,88
216,46	1267,69
216,68	1296,36
216,90	1286,12
217,12	1347,56
217,34	1318,89
217,56	1247,21
217,78	1265,64
218,00	1304,56
218,22	1329,13
218,44	1239,02
218,66	1265,64
218,87	1333,23
219,09	1241,07
219,31	1288,17
219,53	1230,83
219,75	1259,50
219,97	1234,93
220,19	1304,56
220,41	1257,45
220,63	1255,40
220,85	1294,32
221,06	1277,93
221,28	1226,73
221,50	1308,65
221,72	1292,27
221,94	1198,06
222,16	1263,60
222,38	1271,79
222,60	1267,69
222,82	1273,84
223,03	1212,40
223,25	1247,21
223,47	1222,64
223,69	1378,28
223,91	1298,41
224,13	1241,07
224,35	1308,65
224,57	1218,54
224,78	1286,12
225,00	1292,27
225,22	1275,88
225,44	1232,88
225,66	1263,60
225,88	1249,26
226,10	1331,18
226,32	1308,65
226,53	1206,25
226,75	1236,97
226,97	1255,40
227,19	1320,94
227,41	1269,74
227,63	1220,59
227,85	1263,60
228,06	1226,73
228,28	1239,02
228,50	1310,70
228,72	1224,69
228,94	1243,12
229,16	1304,56
229,37	1333,23
229,59	1318,89
229,81	1290,22
230,03	1298,41
230,25	1327,08
230,47	1341,42
230,69	1230,83
230,90	1263,60
231,12	1241,07
231,34	1261,55
231,56	1255,40
231,78	1333,23
232,00	1216,49
232,21	1226,73
232,43	1310,70
232,65	1220,59
232,87	1249,26
233,09	1257,45
233,30	1343,47
233,52	1288,17
233,74	1214,45
233,96	1234,93
234,18	1230,83
234,40	1312,75
234,61	1255,40
234,83	1253,36
235,05	1343,47
235,27	1267,69
235,49	1206,25
235,70	1255,40
235,92	1216,49
236,14	1187,82
236,36	1290,22
236,58	1232,88
236,79	1206,25
237,01	1263,60
237,23	1302,51
237,45	1265,64
237,67	1288,17
237,88	1286,12
238,10	1257,45
238,32	1277,93
238,54	1251,31
238,76	1232,88
238,97	1265,64
239,19	1257,45
239,41	1245,16
239,63	1282,03
239,85	1232,88
240,06	1341,42
240,28	1294,32
240,50	1273,84
240,72	1320,94
240,93	1298,41
241,15	1257,45
241,37	1210,35
241,59	1304,56
241,81	1294,32
242,02	1253,36
242,24	1273,84
242,46	1265,64
242,68	1253,36
242,89	1247,21
243,11	1271,79
243,33	1249,26
243,55	1273,84
243,76	1257,45
243,98	1288,17
244,20	1304,56
244,42	1292,27
244,64	1282,03
244,85	1228,78
245,07	1282,03
245,29	1320,94
245,51	1263,60
245,72	1333,23
245,94	1316,84
246,16	1277,93
246,38	1271,79
246,59	1255,40
246,81	1173,49
247,03	1185,77
247,24	1282,03
247,46	1245,16
247,68	1187,82
247,90	1267,69
248,11	1288,17
248,33	1370,09
248,55	1320,94
248,77	1234,93
248,98	1265,64
249,20	1277,93
249,42	1355,76
249,64	1269,74
249,85	1320,94
250,07	1337,32
250,29	1284,08
250,50	1269,74
250,72	1306,60
250,94	1247,21
251,16	1263,60
251,37	1282,03
251,59	1296,36
251,81	1302,51
252,02	1284,08
252,24	1259,50
252,46	1290,22
252,68	1247,21
252,89	1263,60
253,11	1298,41
253,33	1284,08
253,54	1306,60
253,76	1234,93
253,98	1220,59
254,20	1245,16
254,41	1294,32
254,63	1320,94
254,85	1267,69
255,06	1300,46
255,28	1251,31
255,50	1216,49
255,71	1286,12
255,93	1204,21
256,15	1148,91
256,36	1241,07
256,58	1249,26
256,80	1277,93
257,02	1255,40
257,23	1292,27
257,45	1349,61
257,67	1269,74
257,88	1261,55
258,10	1296,36
258,32	1247,21
258,53	1279,98
258,75	1232,88
258,97	1249,26
259,18	1320,94
259,40	1279,98
259,62	1269,74
259,83	1312,75
260,05	1273,84
260,27	1304,56
260,48	1269,74
260,70	1253,36
260,92	1298,41
261,13	1318,89
261,35	1241,07
261,57	1251,31
261,78	1349,61
262,00	1200,11
262,22	1314,80
262,43	1292,27
262,65	1257,45
262,86	1277,93
263,08	1261,55
263,30	1255,40
263,51	1210,35
263,73	1224,69
263,95	1304,56
264,16	1249,26
264,38	1331,18
264,60	1284,08
264,81	1269,74
265,03	1304,56
265,25	1339,37
265,46	1265,64
265,68	1224,69
265,89	1284,08
266,11	1191,92
266,33	1308,65
266,54	1288,17
266,76	1290,22
266,98	1249,26
267,19	1296,36
267,41	1290,22
267,62	1216,49
267,84	1251,31
268,06	1249,26
268,27	1286,12
268,49	1200,11
268,70	1312,75
268,92	1267,69
269,14	1290,22
269,35	1314,80
269,57	1224,69
269,79	1265,64
270,00	1279,98
270,22	1224,69
270,43	1312,75
270,65	1157,10
270,87	1320,94
271,08	1269,74
271,30	1191,92
271,51	1292,27
271,73	1249,26
271,95	1279,98
272,16	1286,12
272,38	1271,79
272,59	1282,03
272,81	1325,04
273,02	1275,88
273,24	1308,65
273,46	1255,40
273,67	1259,50
273,89	1224,69
274,10	1267,69
274,32	1304,56
274,54	1239,02
274,75	1257,45
274,97	1269,74
275,18	1236,97
275,40	1273,84
275,61	1345,52
275,83	1269,74
276,05	1234,93
276,26	1243,12
276,48	1230,83
276,69	1284,08
276,91	1253,36
277,12	1329,13
277,34	1329,13
277,55	1271,79
277,77	1234,93
277,99	1232,88
278,20	1224,69
278,42	1312,75
278,63	1253,36
278,85	1325,04
279,06	1269,74
279,28	1265,64
279,49	1304,56
279,71	1241,07
279,93	1239,02
280,14	1294,32
280,36	1263,60
280,57	1243,12
280,79	1183,73
281,00	1294,32
281,22	1214,45
281,43	1257,45
281,65	1157,10
281,86	1288,17
282,08	1316,84
282,29	1249,26
282,51	1210,35
282,73	1198,06
282,94	1306,60
283,16	1251,31
283,37	1304,56
283,59	1239,02
283,80	1255,40
284,02	1296,36
284,23	1296,36
284,45	1181,68
284,66	1302,51
284,88	1292,27
285,09	1267,69
285,31	1255,40
285,52	1249,26
285,74	1218,54
285,95	1261,55
286,17	1320,94
286,38	1261,55
286,60	1239,02
286,81	1286,12
287,03	1261,55
287,24	1261,55
287,46	1288,17
287,67	1288,17
287,89	1271,79
288,10	1212,40
288,32	1263,60
288,53	1224,69
288,75	1216,49
288,96	1286,12
289,18	1204,21
289,39	1290,22
289,61	1312,75
289,82	1333,23
290,04	1257,45
290,25	1216,49
290,47	1226,73
290,68	1187,82
290,90	1292,27
291,11	1273,84
291,33	1259,50
291,54	1191,92
291,76	1363,95
291,97	1228,78
292,18	1261,55
292,40	1310,70
292,61	1189,87
292,83	1282,03
293,04	1216,49
293,26	1261,55
293,47	1267,69
293,69	1271,79
293,90	1204,21
294,12	1257,45
294,33	1216,49
294,55	1286,12
294,76	1331,18
294,97	1187,82
295,19	1271,79
295,40	1273,84
295,62	1325,04
295,83	1253,36
296,05	1308,65
296,26	1337,32
296,48	1296,36
296,69	1243,12
296,90	1298,41
297,12	1298,41
297,33	1255,40
297,55	1241,07
297,76	1271,79
297,98	1232,88
298,19	1296,36
298,41	1304,56
298,62	1300,46
298,83	1267,69
299,05	1263,60
299,26	1257,45
299,48	1310,70
299,69	1187,82
299,90	1284,08
300,12	1269,74
300,33	1279,98
300,55	1308,65
300,76	1296,36
300,98	1267,69
301,19	1257,45
301,40	1255,40
301,62	1294,32
301,83	1214,45
302,05	1273,84
302,26	1198,06
302,47	1327,08
302,69	1298,41
302,90	1218,54
303,12	1236,97
303,33	1222,64
303,54	1306,60
303,76	1357,80
303,97	1310,70
304,19	1273,84
304,40	1196,01
304,61	1331,18
304,83	1271,79
305,04	1263,60
305,26	1212,40
305,47	1261,55
305,68	1216,49
305,90	1275,88
306,11	1284,08
306,33	1271,79
306,54	1300,46
306,75	1286,12
306,97	1239,02
307,18	1255,40
307,39	1271,79
307,61	1271,79
307,82	1370,09
308,04	1247,21
308,25	1200,11
308,46	1277,93
308,68	1308,65
308,89	1318,89
309,10	1265,64
309,32	1353,71
309,53	1322,99
309,74	1257,45
309,96	1273,84
310,17	1224,69
310,39	1288,17
310,60	1310,70
310,81	1241,07
311,03	1279,98
311,24	1275,88
311,45	1322,99
311,67	1255,40
311,88	1286,12
312,09	1267,69
312,31	1249,26
312,52	1200,11
312,73	1339,37
312,95	1245,16
313,16	1200,11
313,37	1318,89
313,59	1255,40
313,80	1296,36
314,01	1314,80
314,23	1312,75
314,44	1296,36
314,65	1255,40
314,87	1239,02
315,08	1222,64
315,29	1155,05
315,51	1243,12
315,72	1218,54
315,93	1261,55
316,15	1298,41
316,36	1271,79
316,57	1288,17
316,79	1245,16
317,00	1290,22
317,21	1282,03
317,43	1245,16
317,64	1282,03
317,85	1208,30
318,07	1306,60
318,28	1337,32
318,49	1251,31
318,70	1308,65
318,92	1239,02
319,13	1230,83
319,34	1198,06
319,56	1228,78
319,77	1333,23
319,98	1259,50
320,20	1304,56
320,41	1273,84
320,62	1279,98
320,83	1261,55
321,05	1298,41
321,26	1306,60
321,47	1193,97
321,69	1263,60
321,90	1282,03
322,11	1167,34
322,32	1290,22
322,54	1316,84
322,75	1298,41
322,96	1241,07
323,18	1271,79
323,39	1239,02
323,60	1243,12
323,81	1320,94
324,03	1263,60
324,24	1216,49
324,45	1302,51
324,66	1267,69
324,88	1236,97
325,09	1306,60
325,30	1300,46
325,52	1298,41
325,73	1337,32
325,94	1257,45
326,15	1236,97
326,37	1220,59
326,58	1284,08
326,79	1296,36
327,00	1286,12
327,22	1279,98
327,43	1292,27
327,64	1265,64
327,85	1261,55
328,07	1290,22
328,28	1290,22
328,49	1302,51
328,70	1265,64
328,92	1290,22
329,13	1218,54
329,34	1269,74
329,55	1298,41
329,76	1257,45
329,98	1247,21
330,19	1222,64
330,40	1212,40
330,61	1228,78
330,83	1292,27
331,04	1226,73
331,25	1292,27
331,46	1200,11
331,68	1241,07
331,89	1269,74
332,10	1228,78
332,31	1271,79
332,52	1239,02
332,74	1224,69
332,95	1239,02
333,16	1282,03
333,37	1218,54
333,58	1269,74
333,80	1306,60
334,01	1271,79
334,22	1304,56
334,43	1245,16
334,64	1290,22
334,86	1187,82
335,07	1277,93
335,28	1255,40
335,49	1269,74
335,70	1265,64
335,92	1226,73
336,13	1273,84
336,34	1269,74
336,55	1306,60
336,76	1193,97
336,98	1261,55
337,19	1220,59
337,40	1320,94
337,61	1249,26
337,82	1222,64
338,04	1279,98
338,25	1257,45
338,46	1310,70
338,67	1218,54
338,88	1277,93
339,09	1257,45
339,31	1263,60
339,52	1230,83
339,73	1327,08
339,94	1282,03
340,15	1253,36
340,36	1318,89
340,58	1239,02
340,79	1337,32
341,00	1263,60
341,21	1302,51
341,42	1292,27
341,63	1241,07
341,85	1271,79
342,06	1310,70
342,27	1265,64
342,48	1308,65
342,69	1222,64
342,90	1255,40
343,12	1284,08
343,33	1236,97
343,54	1318,89
343,75	1355,76
343,96	1273,84
344,17	1218,54
344,38	1279,98
344,60	1232,88
344,81	1296,36
345,02	1253,36
345,23	1275,88
345,44	1279,98
345,65	1292,27
345,86	1241,07
346,07	1212,40
346,29	1353,71
346,50	1222,64
346,71	1339,37
346,92	1232,88
347,13	1216,49
347,34	1216,49
347,55	1300,46
347,76	1218,54
347,98	1216,49
348,19	1247,21
348,40	1284,08
348,61	1230,83
348,82	1325,04
349,03	1366,00
349,24	1300,46
349,45	1206,25
349,66	1296,36
349,88	1271,79
350,09	1269,74
350,30	1292,27
350,51	1300,46
350,72	1286,12
350,93	1198,06
351,14	1243,12
351,35	1222,64
351,56	1322,99
351,77	1300,46
351,99	1288,17
352,20	1243,12
352,41	1251,31
352,62	1271,79
352,83	1279,98
353,04	1282,03
353,25	1322,99
353,46	1261,55
353,67	1257,45
353,88	1294,32
354,09	1290,22
354,30	1275,88
354,52	1300,46
354,73	1269,74
354,94	1345,52
355,15	1212,40
355,36	1298,41
355,57	1286,12
355,78	1224,69
355,99	1275,88
356,20	1243,12
356,41	1251,31
356,62	1300,46
356,83	1239,02
357,04	1314,80
357,25	1308,65
357,46	1306,60
357,68	1241,07
357,89	1259,50
358,10	1259,50
358,31	1259,50
358,52	1232,88
358,73	1282,03
358,94	1226,73
359,15	1339,37
359,36	1271,79
359,57	1218,54
359,78	1277,93
359,99	1269,74
360,20	1249,26
360,41	1284,08
360,62	1269,74
360,83	1265,64
361,04	1210,35
361,25	1302,51
361,46	1218,54
361,67	1220,59
361,88	1259,50
362,09	1314,80
362,30	1191,92
362,51	1263,60
362,72	1263,60
362,93	1300,46
363,14	1247,21
363,35	1267,69
363,56	1290,22
363,78	1275,88
363,99	1241,07
364,20	1255,40
364,41	1329,13
364,62	1245,16
364,83	1271,79
365,04	1243,12
365,25	1265,64
365,46	1228,78
365,67	1255,40
365,88	1247,21
366,09	1257,45
366,30	1245,16
366,51	1288,17
366,72	1214,45
366,93	1302,51
367,14	1239,02
367,35	1261,55
367,56	1286,12
367,77	1331,18
367,98	1298,41
368,18	1220,59
368,39	1304,56
368,60	1216,49
368,81	1239,02
369,02	1245,16
369,23	1243,12
369,44	1308,65
369,65	1243,12
369,86	1290,22
370,07	1239,02
370,28	1267,69
370,49	1253,36
370,70	1249,26
370,91	1236,97
371,12	1320,94
371,33	1279,98
371,54	1200,11
371,75	1259,50
371,96	1296,36
372,17	1265,64
372,38	1304,56
372,59	1216,49
372,80	1267,69
373,01	1259,50
373,22	1243,12
373,43	1290,22
373,64	1249,26
373,85	1210,35
374,06	1308,65
374,26	1267,69
374,47	1220,59
374,68	1216,49
374,89	1239,02
375,10	1302,51
375,31	1261,55
375,52	1261,55
375,73	1335,28
375,94	1232,88
376,15	1257,45
376,36	1279,98
376,57	1284,08
376,78	1247,21
376,99	1302,51
377,20	1241,07
377,40	1322,99
377,61	1259,50
377,82	1261,55
378,03	1308,65
378,24	1257,45
378,45	1251,31
378,66	1210,35
378,87	1234,93
379,08	1247,21
379,29	1249,26
379,50	1337,32
379,71	1302,51
379,91	1290,22
380,12	1275,88
380,33	1173,49
380,54	1300,46
380,75	1212,40
380,96	1265,64
381,17	1249,26
381,38	1284,08
381,59	1208,30
381,80	1236,97
382,00	1298,41
382,21	1255,40
382,42	1232,88
382,63	1234,93
382,84	1267,69
383,05	1294,32
383,26	1337,32
383,47	1308,65
383,68	1251,31
383,88	1226,73
384,09	1306,60
384,30	1253,36
384,51	1239,02
384,72	1253,36
384,93	1306,60
385,14	1228,78
385,35	1318,89
385,55	1271,79
385,76	1320,94
385,97	1290,22
386,18	1296,36
386,39	1292,27
386,60	1249,26
386,81	1220,59
387,02	1279,98
387,22	1245,16
387,43	1327,08
387,64	1273,84
387,85	1224,69
388,06	1271,79
388,27	1259,50
388,48	1320,94
388,68	1279,98
388,89	1212,40
389,10	1304,56
389,31	1298,41
389,52	1300,46
389,73	1284,08
389,93	1228,78
390,14	1312,75
390,35	1353,71
390,56	1232,88
390,77	1292,27
390,98	1290,22
391,18	1253,36
391,39	1218,54
391,60	1325,04
391,81	1275,88
392,02	1253,36
392,23	1245,16
392,43	1257,45
392,64	1273,84
392,85	1191,92
393,06	1222,64
393,27	1234,93
393,47	1288,17
393,68	1273,84
393,89	1247,21
394,10	1294,32
394,31	1263,60
394,52	1277,93
394,72	1259,50
394,93	1310,70
395,14	1273,84
395,35	1263,60
395,56	1277,93
395,76	1230,83
395,97	1261,55
396,18	1310,70
396,39	1265,64
396,60	1288,17
396,80	1294,32
397,01	1243,12
397,22	1302,51
397,43	1296,36
397,64	1236,97
397,84	1228,78
398,05	1220,59
398,26	1284,08
398,47	1255,40
398,67	1208,30
398,88	1296,36
399,09	1353,71
399,30	1302,51
399,51	1187,82
399,71	1296,36
399,92	1282,03
400,13	1282,03
400,34	1288,17
400,54	1253,36
400,75	1230,83
400,96	1265,64
401,17	1206,25
401,37	1286,12
401,58	1333,23
401,79	1198,06
402,00	1312,75
402,21	1345,52
402,41	1304,56
402,62	1292,27
402,83	1261,55
403,04	1216,49
403,24	1247,21
403,45	1222,64
403,66	1286,12
403,87	1368,04
404,07	1263,60
404,28	1261,55
404,49	1308,65
404,70	1218,54
404,90	1247,21
405,11	1306,60
405,32	1222,64
405,52	1314,80
405,73	1312,75
405,94	1271,79
406,15	1292,27
406,35	1286,12
406,56	1222,64
406,77	1279,98
406,98	1314,80
407,18	1224,69
407,39	1290,22
407,60	1251,31
407,80	1333,23
408,01	1253,36
408,22	1314,80
408,43	1216,49
408,63	1279,98
408,84	1220,59
409,05	1247,21
409,25	1249,26
409,46	1286,12
409,67	1343,47
409,88	1300,46
410,08	1302,51
410,29	1339,37
410,50	1316,84
410,70	1222,64
410,91	1259,50
411,12	1300,46
411,32	1302,51
411,53	1290,22
411,74	1271,79
411,95	1304,56
412,15	1271,79
412,36	1331,18
412,57	1277,93
412,77	1286,12
412,98	1322,99
413,19	1294,32
413,39	1224,69
413,60	1263,60
413,81	1247,21
414,01	1300,46
414,22	1163,25
414,43	1263,60
414,63	1243,12
414,84	1261,55
415,05	1322,99
415,25	1214,45
415,46	1349,61
415,67	1249,26
415,87	1255,40
416,08	1273,84
416,29	1255,40
416,49	1230,83
416,70	1290,22
416,91	1212,40
417,11	1290,22
417,32	1236,97
417,53	1279,98
417,73	1259,50
417,94	1349,61
418,15	1288,17
418,35	1310,70
418,56	1361,90
418,77	1202,16
418,97	1290,22
419,18	1267,69
419,38	1261,55
419,59	1206,25
419,80	1282,03
420,00	1245,16
420,21	1261,55
420,42	1325,04
420,62	1282,03
420,83	1312,75
421,04	1310,70
421,24	1341,42
421,45	1288,17
421,65	1255,40
421,86	1196,01
422,07	1329,13
422,27	1294,32
422,48	1247,21
422,69	1310,70
422,89	1296,36
423,10	1320,94
423,30	1239,02
423,51	1226,73
423,72	1288,17
423,92	1288,17
424,13	1234,93
424,33	1325,04
424,54	1282,03
424,75	1259,50
424,95	1239,02
425,16	1241,07
425,36	1271,79
425,57	1320,94
425,78	1275,88
425,98	1288,17
426,19	1253,36
426,39	1257,45
426,60	1296,36
426,81	1298,41
427,01	1249,26
427,22	1228,78
427,42	1286,12
427,63	1230,83
427,83	1306,60
428,04	1263,60
428,25	1230,83
428,45	1224,69
428,66	1300,46
428,86	1306,60
429,07	1224,69
429,28	1304,56
429,48	1298,41
429,69	1222,64
429,89	1298,41
430,10	1298,41
430,30	1290,22
430,51	1210,35
430,71	1243,12
430,92	1241,07
431,13	1294,32
431,33	1257,45
431,54	1314,80
431,74	1294,32
431,95	1320,94
432,15	1273,84
432,36	1288,17
432,56	1261,55
432,77	1290,22
432,98	1302,51
433,18	1191,92
433,39	1310,70
433,59	1269,74
433,80	1282,03
434,00	1277,93
434,21	1230,83
434,41	1282,03
434,62	1251,31
434,82	1191,92
435,03	1288,17
435,23	1265,64
435,44	1277,93
435,64	1271,79
435,85	1329,13
436,06	1208,30
436,26	1304,56
436,47	1253,36
436,67	1292,27
436,88	1234,93
437,08	1290,22
437,29	1146,86
437,49	1316,84
437,70	1310,70
437,90	1312,75
438,11	1255,40
438,31	1267,69
438,52	1308,65
438,72	1218,54
438,93	1259,50
439,13	1267,69
439,34	1320,94
439,54	1208,30
439,75	1251,31
439,95	1261,55
440,16	1232,88
440,36	1279,98
440,57	1279,98
440,77	1282,03
440,98	1269,74
441,18	1277,93
441,39	1245,16
441,59	1234,93
441,80	1318,89
442,00	1316,84
442,21	1232,88
442,41	1236,97
442,62	1210,35
442,82	1247,21
443,02	1286,12
443,23	1273,84
443,43	1329,13
443,64	1277,93
443,84	1251,31
444,05	1284,08
444,25	1300,46
444,46	1232,88
444,66	1286,12
444,87	1314,80
445,07	1218,54
445,28	1196,01
445,48	1171,44
445,69	1329,13
445,89	1230,83
446,09	1279,98
446,30	1259,50
446,50	1265,64
446,71	1245,16
446,91	1290,22
447,12	1275,88
447,32	1288,17
447,53	1228,78
447,73	1335,28
447,93	1294,32
448,14	1265,64
448,34	1302,51
448,55	1286,12
448,75	1267,69
448,96	1318,89
449,16	1345,52
449,36	1259,50
449,57	1239,02
449,77	1261,55
449,98	1277,93
450,18	1269,74
450,39	1335,28
450,59	1267,69
450,79	1318,89
451,00	1290,22
451,20	1294,32
451,41	1241,07
451,61	1341,42
451,81	1292,27
452,02	1257,45
452,22	1300,46
452,43	1322,99
452,63	1212,40
452,84	1271,79
453,04	1331,18
453,24	1267,69
453,45	1296,36
453,65	1290,22
453,86	1331,18
454,06	1341,42
454,26	1245,16
454,47	1322,99
454,67	1286,12
454,87	1232,88
455,08	1271,79
455,28	1300,46
455,49	1314,80
455,69	1243,12
455,89	1290,22
456,10	1286,12
456,30	1279,98
456,51	1304,56
456,71	1222,64
456,91	1284,08
457,12	1269,74
457,32	1306,60
457,52	1294,32
457,73	1288,17
457,93	1257,45
458,14	1339,37
458,34	1331,18
458,54	1286,12
458,75	1275,88
458,95	1308,65
459,15	1327,08
459,36	1239,02
459,56	1271,79
459,76	1267,69
459,97	1294,32
460,17	1286,12
460,37	1339,37
460,58	1193,97
460,78	1290,22
460,99	1253,36
461,19	1325,04
461,39	1296,36
461,60	1282,03
461,80	1251,31
462,00	1298,41
462,21	1318,89
462,41	1239,02
462,61	1239,02
462,82	1216,49
463,02	1318,89
463,22	1261,55
463,43	1253,36
463,63	1206,25
463,83	1378,28
464,04	1247,21
464,24	1271,79
464,44	1271,79
464,64	1314,80
464,85	1296,36
465,05	1279,98
465,25	1380,33
465,46	1228,78
465,66	1228,78
465,86	1331,18
466,07	1341,42
466,27	1230,83
466,47	1279,98
466,68	1198,06
466,88	1277,93
467,08	1265,64
467,29	1269,74
467,49	1257,45
467,69	1265,64
467,89	1251,31
468,10	1265,64
468,30	1239,02
468,50	1263,60
468,71	1212,40
468,91	1292,27
469,11	1351,66
469,31	1265,64
469,52	1261,55
469,72	1267,69
469,92	1327,08
470,13	1271,79
470,33	1259,50
470,53	1355,76
470,73	1275,88
470,94	1243,12
471,14	1247,21
471,34	1339,37
471,54	1294,32
471,75	1241,07
471,95	1175,53
472,15	1243,12
472,36	1222,64
472,56	1298,41
472,76	1212,40
472,96	1279,98
473,17	1183,73
473,37	1251,31
473,57	1224,69
473,77	1327,08
473,98	1253,36
474,18	1304,56
474,38	1298,41
474,58	1282,03
474,79	1271,79
474,99	1255,40
475,19	1269,74
475,39	1279,98
475,60	1318,89
475,80	1288,17
476,00	1247,21
476,20	1296,36
476,41	1286,12
476,61	1302,51
476,81	1279,98
477,01	1318,89
477,21	1271,79
477,42	1296,36
477,62	1298,41
477,82	1261,55
478,02	1279,98
478,23	1282,03
478,43	1243,12
478,63	1245,16
478,83	1228,78
479,03	1200,11
479,24	1275,88
479,44	1257,45
479,64	1282,03
479,84	1325,04
480,04	1220,59
480,25	1234,93
480,45	1284,08
480,65	1288,17
480,85	1226,73
481,06	1284,08
481,26	1298,41
481,46	1339,37
481,66	1271,79
481,86	1290,22
482,06	1325,04
482,27	1263,60
482,47	1298,41
482,67	1298,41
482,87	1302,51
483,07	1216,49
483,28	1245,16
483,48	1259,50
483,68	1335,28
483,88	1224,69
484,08	1325,04
484,29	1312,75
484,49	1277,93
484,69	1333,23
484,89	1320,94
485,09	1304,56
485,29	1253,36
485,50	1294,32
485,70	1275,88
485,90	1210,35
486,10	1265,64
486,30	1277,93
486,50	1269,74
486,71	1263,60
486,91	1380,33
487,11	1279,98
487,31	1265,64
487,51	1271,79
487,71	1255,40
487,91	1253,36
488,12	1329,13
488,32	1222,64
488,52	1236,97
488,72	1243,12
488,92	1243,12
489,12	1255,40
489,32	1265,64
489,53	1251,31
489,73	1241,07
489,93	1296,36
490,13	1269,74
490,33	1318,89
490,53	1273,84
490,73	1314,80
490,94	1267,69
491,14	1226,73
491,34	1349,61
491,54	1243,12
491,74	1251,31
491,94	1282,03
492,14	1310,70
492,34	1284,08
492,54	1253,36
492,75	1228,78
492,95	1193,97
493,15	1239,02
493,35	1277,93
493,55	1361,90
493,75	1230,83
493,95	1312,75
494,15	1304,56
494,35	1353,71
494,56	1259,50
494,76	1259,50
494,96	1277,93
495,16	1279,98
495,36	1351,66
495,56	1193,97
495,76	1265,64
495,96	1302,51
496,16	1236,97
496,36	1312,75
496,56	1232,88
496,77	1294,32
496,97	1282,03
497,17	1275,88
497,37	1251,31
497,57	1247,21
497,77	1267,69
497,97	1253,36
498,17	1347,56
498,37	1200,11
498,57	1329,13
498,77	1282,03
498,97	1263,60
499,17	1220,59
499,38	1298,41
499,58	1175,53
499,78	1316,84
499,98	1298,41
500,18	1212,40
500,38	1228,78
500,58	1327,08
500,78	1298,41
500,98	1318,89
501,18	1290,22
501,38	1267,69
501,58	1277,93
501,78	1265,64
501,98	1224,69
502,18	1220,59
502,38	1284,08
502,58	1249,26
502,78	1198,06
502,98	1306,60
503,18	1255,40
503,38	1335,28
503,59	1241,07
503,79	1308,65
503,99	1282,03
504,19	1214,45
504,39	1273,84
504,59	1298,41
504,79	1331,18
504,99	1255,40
505,19	1249,26
505,39	1224,69
505,59	1310,70
505,79	1284,08
505,99	1271,79
506,19	1253,36
506,39	1290,22
506,59	1273,84
506,79	1222,64
506,99	1298,41
507,19	1214,45
507,39	1255,40
507,59	1241,07
507,79	1325,04
507,99	1263,60
508,19	1249,26
508,39	1304,56
508,59	1265,64
508,79	1257,45
508,99	1355,76
509,19	1263,60
509,39	1216,49
509,59	1247,21
509,79	1243,12
509,99	1265,64
510,19	1300,46
510,39	1187,82
510,59	1284,08
510,79	1249,26
510,99	1282,03
511,19	1255,40
511,39	1306,60
511,59	1288,17
511,79	1304,56
511,99	1259,50
512,19	1353,71
512,38	1236,97
512,58	1265,64
512,78	1290,22
512,98	1277,93
513,18	1288,17
513,38	1263,60
513,58	1212,40
513,78	1300,46
513,98	1298,41
514,18	1273,84
514,38	1265,64
514,58	1322,99
514,78	1241,07
514,98	1226,73
515,18	1257,45
515,38	1279,98
515,58	1304,56
515,78	1314,80
515,98	1239,02
516,18	1322,99
516,38	1368,04
516,57	1320,94
516,77	1271,79
516,97	1146,86
517,17	1189,87
517,37	1298,41
517,57	1234,93
517,77	1304,56
517,97	1294,32
518,17	1318,89
518,37	1318,89
518,57	1292,27
518,77	1271,79
518,97	1314,80
519,16	1241,07
519,36	1257,45
519,56	1347,56
519,76	1224,69
519,96	1333,23
520,16	1318,89
520,36	1370,09
520,56	1271,79
520,76	1249,26
520,96	1273,84
521,16	1398,76
521,35	1267,69
521,55	1288,17
521,75	1290,22
521,95	1249,26
522,15	1212,40
522,35	1255,40
522,55	1275,88
522,75	1320,94
522,95	1282,03
523,14	1343,47
523,34	1251,31
523,54	1255,40
523,74	1290,22
523,94	1247,21
524,14	1292,27
524,34	1259,50
524,54	1290,22
524,73	1288,17
524,93	1286,12
525,13	1185,77
525,33	1198,06
525,53	1347,56
525,73	1325,04
525,93	1257,45
526,13	1300,46
526,32	1347,56
526,52	1282,03
526,72	1189,87
526,92	1277,93
527,12	1247,21
527,32	1253,36
527,52	1277,93
527,71	1333,23
527,91	1249,26
528,11	1202,16
528,31	1243,12
528,51	1284,08
528,71	1236,97
528,90	1232,88
529,10	1320,94
529,30	1224,69
529,50	1329,13
529,70	1259,50
529,90	1273,84
530,09	1292,27
530,29	1294,32
530,49	1331,18
530,69	1345,52
530,89	1306,60
531,09	1247,21
531,28	1257,45
531,48	1282,03
531,68	1279,98
531,88	1257,45
532,08	1290,22
532,28	1306,60
532,47	1286,12
532,67	1241,07
532,87	1312,75
533,07	1298,41
533,27	1296,36
533,46	1325,04
533,66	1232,88
533,86	1318,89
534,06	1282,03
534,26	1345,52
534,45	1163,25
534,65	1265,64
534,85	1284,08
535,05	1335,28
535,25	1275,88
535,44	1259,50
535,64	1316,84
535,84	1245,16
536,04	1200,11
536,24	1263,60
536,43	1214,45
536,63	1310,70
536,83	1277,93
537,03	1306,60
537,22	1318,89
537,42	1318,89
537,62	1269,74
537,82	1277,93
538,02	1273,84
538,21	1265,64
538,41	1275,88
538,61	1333,23
538,81	1329,13
539,00	1347,56
539,20	1327,08
539,40	1265,64
539,60	1329,13
539,79	1255,40
539,99	1290,22
540,19	1226,73
540,39	1275,88
540,58	1251,31
540,78	1187,82
540,98	1267,69
541,18	1290,22
541,37	1282,03
541,57	1243,12
541,77	1257,45
541,97	1257,45
542,16	1275,88
542,36	1210,35
542,56	1239,02
542,76	1230,83
542,95	1322,99
543,15	1263,60
543,35	1279,98
543,54	1282,03
543,74	1267,69
543,94	1286,12
544,14	1294,32
544,33	1216,49
544,53	1331,18
544,73	1243,12
544,93	1257,45
545,12	1300,46
545,32	1257,45
545,52	1253,36
545,71	1261,55
545,91	1271,79
546,11	1368,04
546,30	1290,22
546,50	1320,94
546,70	1257,45
546,90	1341,42
547,09	1228,78
547,29	1322,99
547,49	1241,07
547,68	1261,55
547,88	1327,08
548,08	1255,40
548,27	1345,52
548,47	1269,74
548,67	1261,55
548,87	1339,37
549,06	1318,89
549,26	1298,41
549,46	1273,84
549,65	1275,88
549,85	1218,54
550,05	1239,02
550,24	1267,69
550,44	1298,41
550,64	1288,17
550,83	1245,16
551,03	1355,76
551,23	1298,41
551,42	1294,32
551,62	1333,23
551,82	1247,21
552,01	1267,69
552,21	1302,51
552,41	1337,32
552,60	1325,04
552,80	1241,07
553,00	1306,60
553,19	1288,17
553,39	1302,51
553,59	1355,76
553,78	1275,88
553,98	1279,98
554,17	1259,50
554,37	1269,74
554,57	1267,69
554,76	1302,51
554,96	1261,55
555,16	1212,40
555,35	1273,84
555,55	1310,70
555,75	1333,23
555,94	1277,93
556,14	1263,60
556,33	1269,74
556,53	1249,26
556,73	1275,88
556,92	1290,22
557,12	1329,13
557,32	1294,32
557,51	1327,08
557,71	1296,36
557,90	1271,79
558,10	1236,97
558,30	1298,41
558,49	1296,36
558,69	1339,37
558,88	1310,70
559,08	1275,88
559,28	1351,66
559,47	1325,04
559,67	1230,83
559,86	1335,28
560,06	1318,89
560,26	1279,98
560,45	1290,22
560,65	1243,12
560,84	1271,79
561,04	1290,22
561,24	1232,88
561,43	1325,04
561,63	1329,13
561,82	1347,56
562,02	1236,97
562,22	1210,35
562,41	1282,03
562,61	1314,80
562,80	1296,36
563,00	1263,60
563,19	1257,45
563,39	1265,64
563,59	1296,36
563,78	1296,36
563,98	1247,21
564,17	1290,22
564,37	1261,55
564,56	1359,85
564,76	1284,08
564,96	1300,46
565,15	1282,03
565,35	1296,36
565,54	1253,36
565,74	1243,12
565,93	1343,47
566,13	1265,64
566,32	1308,65
566,52	1284,08
566,71	1204,21
566,91	1251,31
567,11	1302,51
567,30	1306,60
567,50	1322,99
567,69	1298,41
567,89	1292,27
568,08	1292,27
568,28	1204,21
568,47	1298,41
568,67	1271,79
568,86	1296,36
569,06	1265,64
569,25	1261,55
569,45	1296,36
569,64	1302,51
569,84	1251,31
570,04	1273,84
570,23	1241,07
570,43	1325,04
570,62	1230,83
570,82	1290,22
571,01	1304,56
571,21	1296,36
571,40	1288,17
571,60	1265,64
571,79	1304,56
571,99	1329,13
572,18	1185,77
572,38	1230,83
572,57	1382,38
572,77	1232,88
572,96	1370,09
573,16	1337,32
573,35	1243,12
573,55	1325,04
573,74	1257,45
573,94	1251,31
574,13	1286,12
574,33	1292,27
574,52	1306,60
574,71	1325,04
574,91	1228,78
575,10	1224,69
575,30	1245,16
575,49	1306,60
575,69	1286,12
575,88	1277,93
576,08	1331,18
576,27	1308,65
576,47	1300,46
576,66	1314,80
576,86	1306,60
577,05	1282,03
577,25	1306,60
577,44	1298,41
577,64	1236,97
577,83	1284,08
578,02	1302,51
578,22	1318,89
578,41	1269,74
578,61	1296,36
578,80	1232,88
579,00	1279,98
579,19	1331,18
579,39	1216,49
579,58	1286,12
579,77	1296,36
579,97	1191,92
580,16	1314,80
580,36	1263,60
580,55	1347,56
580,75	1239,02
580,94	1263,60
581,13	1232,88
581,33	1290,22
581,52	1271,79
581,72	1345,52
581,91	1226,73
582,11	1290,22
582,30	1339,37
582,49	1384,43
582,69	1277,93
582,88	1251,31
583,08	1218,54
583,27	1282,03
583,47	1267,69
583,66	1212,40
583,85	1261,55
584,05	1247,21
584,24	1230,83
584,44	1325,04
584,63	1288,17
584,82	1302,51
585,02	1302,51
585,21	1296,36
585,41	1261,55
585,60	1222,64
585,79	1224,69
585,99	1263,60
586,18	1243,12
586,37	1306,60
586,57	1253,36
586,76	1296,36
586,96	1322,99
587,15	1298,41
587,34	1255,40
587,54	1343,47
587,73	1220,59
587,93	1421,29
588,12	1282,03
588,31	1314,80
588,51	1232,88
588,70	1284,08
588,89	1234,93
589,09	1316,84
589,28	1347,56
589,47	1314,80
589,67	1329,13
589,86	1265,64
590,06	1271,79
590,25	1296,36
590,44	1206,25
590,64	1290,22
590,83	1277,93
591,02	1263,60
591,22	1208,30
591,41	1290,22
591,60	1271,79
591,80	1337,32
591,99	1308,65
592,18	1255,40
592,38	1284,08
592,57	1329,13
592,76	1329,13
592,96	1314,80
593,15	1269,74
593,34	1267,69
593,54	1296,36
593,73	1322,99
593,92	1257,45
594,12	1267,69
594,31	1306,60
594,50	1314,80
594,70	1208,30
594,89	1372,14
595,08	1398,76
595,28	1269,74
595,47	1263,60
595,66	1308,65
595,86	1255,40
596,05	1253,36
596,24	1394,67
596,43	1353,71
596,63	1310,70
596,82	1271,79
597,01	1257,45
597,21	1269,74
597,40	1224,69
597,59	1304,56
597,79	1322,99
597,98	1368,04
598,17	1239,02
598,36	1241,07
598,56	1329,13
598,75	1253,36
598,94	1288,17
599,14	1331,18
599,33	1306,60
599,52	1218,54
599,71	1269,74
599,91	1267,69
600,10	1220,59
600,29	1249,26
600,48	1253,36
600,68	1282,03
600,87	1257,45
601,06	1286,12
601,26	1333,23
601,45	1333,23
601,64	1282,03
601,83	1284,08
602,03	1288,17
602,22	1359,85
602,41	1279,98
602,60	1341,42
602,80	1275,88
602,99	1257,45
603,18	1255,40
603,37	1247,21
603,57	1249,26
603,76	1298,41
603,95	1224,69
604,14	1286,12
604,34	1255,40
604,53	1314,80
604,72	1269,74
604,91	1239,02
605,10	1310,70
605,30	1163,25
605,49	1259,50
605,68	1230,83
605,87	1263,60
606,07	1325,04
606,26	1300,46
606,45	1273,84
606,64	1286,12
606,84	1179,63
607,03	1284,08
607,22	1298,41
607,41	1290,22
607,60	1234,93
607,80	1265,64
607,99	1247,21
608,18	1329,13
608,37	1251,31
608,56	1212,40
608,76	1279,98
608,95	1284,08
609,14	1294,32
609,33	1241,07
609,52	1331,18
609,72	1253,36
609,91	1275,88
610,10	1255,40
610,29	1267,69
610,48	1296,36
610,68	1228,78
610,87	1288,17
611,06	1300,46
611,25	1269,74
611,44	1265,64
611,63	1345,52
611,83	1308,65
612,02	1253,36
612,21	1345,52
612,40	1300,46
612,59	1275,88
612,79	1255,40
612,98	1200,11
613,17	1296,36
613,36	1290,22
613,55	1277,93
613,74	1290,22
613,93	1294,32
614,13	1282,03
614,32	1245,16
614,51	1249,26
614,70	1306,60
614,89	1265,64
615,08	1314,80
615,28	1372,14
615,47	1294,32
615,66	1282,03
615,85	1279,98
616,04	1302,51
616,23	1279,98
616,42	1366,00
616,62	1245,16
616,81	1200,11
617,00	1220,59
617,19	1312,75
617,38	1279,98
617,57	1216,49
617,76	1331,18
617,95	1318,89
618,15	1241,07
618,34	1337,32
618,53	1284,08
618,72	1241,07
618,91	1302,51
619,10	1308,65
619,29	1232,88
619,48	1300,46
619,68	1267,69
619,87	1253,36
620,06	1255,40
620,25	1263,60
620,44	1304,56
620,63	1298,41
620,82	1273,84
621,01	1316,84
621,20	1312,75
621,39	1347,56
621,59	1265,64
621,78	1257,45
621,97	1363,95
622,16	1277,93
622,35	1273,84
622,54	1253,36
622,73	1239,02
622,92	1327,08
623,11	1218,54
623,30	1286,12
623,49	1257,45
623,68	1327,08
623,88	1341,42
624,07	1304,56
624,26	1208,30
624,45	1331,18
624,64	1292,27
624,83	1351,66
625,02	1265,64
625,21	1353,71
625,40	1320,94
625,59	1269,74
625,78	1253,36
625,97	1325,04
626,16	1290,22
626,35	1265,64
626,54	1318,89
626,74	1290,22
626,93	1239,02
627,12	1316,84
627,31	1224,69
627,50	1300,46
627,69	1243,12
627,88	1341,42
628,07	1318,89
628,26	1271,79
628,45	1275,88
628,64	1286,12
628,83	1329,13
629,02	1232,88
629,21	1269,74
629,40	1247,21
629,59	1343,47
629,78	1312,75
629,97	1261,55
630,16	1329,13
630,35	1331,18
630,54	1376,24
630,73	1351,66
630,92	1310,70
631,11	1325,04
631,30	1327,08
631,49	1320,94
631,68	1429,48
631,87	1497,07
632,06	1708,01
632,25	1656,81
632,44	1681,38
632,63	1589,22
632,82	1558,50
633,01	1638,38
633,20	1705,96
633,39	1728,49
633,58	1640,42
633,77	1638,38
633,96	1732,58
634,15	1720,29
634,34	1703,91
634,53	1720,29
634,72	1703,91
634,91	1759,21
635,10	1783,78
635,29	1794,02
635,48	1789,92
635,67	1734,63
635,86	1777,64
636,05	1701,86
636,24	1773,54
636,43	1671,14
636,62	1654,76
636,81	1675,24
637,00	1507,30
637,19	1394,67
637,38	1415,15
637,57	1349,61
637,76	1429,48
637,95	1284,08
638,14	1331,18
638,33	1357,80
638,52	1318,89
638,71	1273,84
638,89	1247,21
639,08	1366,00
639,27	1249,26
639,46	1275,88
639,65	1292,27
639,84	1253,36
640,03	1245,16
640,22	1290,22
640,41	1357,80
640,60	1273,84
640,79	1271,79
640,98	1312,75
641,17	1282,03
641,36	1214,45
641,55	1261,55
641,74	1236,97
641,92	1288,17
642,11	1357,80
642,30	1308,65
642,49	1257,45
642,68	1284,08
642,87	1230,83
643,06	1273,84
643,25	1253,36
643,44	1286,12
643,63	1279,98
643,82	1218,54
644,00	1318,89
644,19	1314,80
644,38	1304,56
644,57	1302,51
644,76	1284,08
644,95	1316,84
645,14	1218,54
645,33	1261,55
645,52	1302,51
645,71	1187,82
645,89	1284,08
646,08	1320,94
646,27	1269,74
646,46	1296,36
646,65	1275,88
646,84	1239,02
647,03	1253,36
647,22	1284,08
647,40	1259,50
647,59	1271,79
647,78	1361,90
647,97	1298,41
648,16	1263,60
648,35	1304,56
648,54	1282,03
648,73	1265,64
648,91	1284,08
649,10	1241,07
649,29	1300,46
649,48	1277,93
649,67	1302,51
649,86	1345,52
650,05	1290,22
650,23	1255,40
650,42	1345,52
650,61	1265,64
650,80	1263,60
650,99	1261,55
651,18	1271,79
651,36	1282,03
651,55	1202,16
651,74	1318,89
651,93	1251,31
652,12	1298,41
652,31	1286,12
652,49	1290,22
652,68	1265,64
652,87	1331,18
653,06	1331,18
653,25	1239,02
653,44	1247,21
653,62	1279,98
653,81	1302,51
654,00	1265,64
654,19	1320,94
654,38	1279,98
654,56	1224,69
654,75	1327,08
654,94	1310,70
655,13	1193,97
655,32	1269,74
655,51	1259,50
655,69	1249,26
655,88	1208,30
656,07	1241,07
656,26	1306,60
656,45	1292,27
656,63	1265,64
656,82	1220,59
657,01	1294,32
657,20	1290,22
657,38	1333,23
657,57	1296,36
657,76	1277,93
657,95	1202,16
658,14	1298,41
658,32	1353,71
658,51	1298,41
658,70	1331,18
658,89	1220,59
659,08	1298,41
659,26	1288,17
659,45	1302,51
659,64	1314,80
659,83	1294,32
660,01	1343,47
660,20	1279,98
660,39	1257,45
660,58	1230,83
660,76	1277,93
660,95	1302,51
661,14	1202,16
661,33	1269,74
661,51	1259,50
661,70	1261,55
661,89	1286,12
662,08	1261,55
662,26	1265,64
662,45	1308,65
662,64	1265,64
662,83	1251,31
663,01	1239,02
663,20	1296,36
663,39	1265,64
663,58	1304,56
663,76	1312,75
663,95	1271,79
664,14	1277,93
664,32	1294,32
664,51	1234,93
664,70	1265,64
664,89	1241,07
665,07	1263,60
665,26	1298,41
665,45	1261,55
665,64	1337,32
665,82	1273,84
666,01	1224,69
666,20	1214,45
666,38	1284,08
666,57	1267,69
666,76	1255,40
666,95	1265,64
667,13	1329,13
667,32	1218,54
667,51	1232,88
667,69	1228,78
667,88	1263,60
668,07	1239,02
668,25	1282,03
668,44	1320,94
668,63	1267,69
668,81	1318,89
669,00	1269,74
669,19	1230,83
669,38	1267,69
669,56	1277,93
669,75	1331,18
669,94	1290,22
670,12	1222,64
670,31	1400,81
670,50	1304,56
670,68	1206,25
670,87	1273,84
671,06	1249,26
671,24	1271,79
671,43	1251,31
671,62	1216,49
671,80	1212,40
671,99	1337,32
672,18	1220,59
672,36	1241,07
672,55	1282,03
672,74	1226,73
672,92	1228,78
673,11	1228,78
673,29	1202,16
673,48	1335,28
673,67	1290,22
673,85	1226,73
674,04	1243,12
674,23	1275,88
674,41	1282,03
674,60	1277,93
674,79	1335,28
674,97	1275,88
675,16	1277,93
675,34	1304,56
675,53	1167,34
675,72	1306,60
675,90	1273,84
676,09	1200,11
676,28	1302,51
676,46	1279,98
676,65	1296,36
676,83	1226,73
677,02	1304,56
677,21	1298,41
677,39	1314,80
677,58	1298,41
677,77	1290,22
677,95	1290,22
678,14	1282,03
678,32	1247,21
678,51	1208,30
678,70	1292,27
678,88	1245,16
679,07	1314,80
679,25	1245,16
679,44	1249,26
679,63	1232,88
679,81	1279,98
680,00	1255,40
680,18	1286,12
680,37	1370,09
680,55	1253,36
680,74	1318,89
680,93	1284,08
681,11	1206,25
681,30	1241,07
681,48	1253,36
681,67	1284,08
681,85	1241,07
682,04	1279,98
682,23	1316,84
682,41	1236,97
682,60	1292,27
682,78	1282,03
682,97	1236,97
683,15	1275,88
683,34	1253,36
683,53	1325,04
683,71	1208,30
683,90	1288,17
684,08	1247,21
684,27	1273,84
684,45	1273,84
684,64	1257,45
684,82	1306,60
685,01	1271,79
685,19	1263,60
685,38	1224,69
685,57	1310,70
685,75	1316,84
685,94	1286,12
686,12	1216,49
686,31	1341,42
686,49	1224,69
686,68	1343,47
686,86	1339,37
687,05	1267,69
687,23	1327,08
687,42	1241,07
687,60	1331,18
687,79	1269,74
687,97	1318,89
688,16	1298,41
688,34	1265,64
688,53	1267,69
688,71	1220,59
688,90	1269,74
689,08	1265,64
689,27	1257,45
689,45	1288,17
689,64	1322,99
689,82	1273,84
690,01	1290,22
690,19	1212,40
690,38	1232,88
690,56	1249,26
690,75	1292,27
690,93	1292,27
691,12	1241,07
691,30	1279,98
691,49	1322,99
691,67	1325,04
691,86	1220,59
692,04	1239,02
692,23	1243,12
692,41	1302,51
692,60	1210,35
692,78	1304,56
692,97	1341,42
693,15	1228,78
693,34	1316,84
693,52	1239,02
693,71	1208,30
693,89	1224,69
694,08	1271,79
694,26	1220,59
694,44	1282,03
694,63	1327,08
694,81	1255,40
695,00	1220,59
695,18	1196,01
695,37	1267,69
695,55	1277,93
695,74	1232,88
695,92	1243,12
696,10	1314,80
696,29	1167,34
696,47	1187,82
696,66	1284,08
696,84	1292,27
697,03	1339,37
697,21	1214,45
697,40	1302,51
697,58	1314,80
697,76	1251,31
697,95	1290,22
698,13	1226,73
698,32	1249,26
698,50	1273,84
698,68	1279,98
698,87	1331,18
699,05	1226,73
699,24	1224,69
699,42	1239,02
699,61	1257,45
699,79	1271,79
699,97	1243,12
700,16	1265,64
700,34	1345,52
700,53	1230,83
700,71	1359,85
700,89	1273,84
701,08	1257,45
701,26	1353,71
701,45	1236,97
701,63	1206,25
701,81	1275,88
702,00	1279,98
702,18	1234,93
702,37	1277,93
702,55	1288,17
702,73	1314,80
702,92	1320,94
703,10	1236,97
703,28	1298,41
703,47	1208,30
703,65	1214,45
703,84	1255,40
704,02	1279,98
704,20	1239,02
704,39	1267,69
704,57	1322,99
704,75	1296,36
704,94	1220,59
705,12	1228,78
705,30	1216,49
705,49	1243,12
705,67	1255,40
705,86	1253,36
706,04	1347,56
706,22	1310,70
706,41	1290,22
706,59	1261,55
706,77	1208,30
706,96	1232,88
707,14	1300,46
707,32	1210,35
707,51	1247,21
707,69	1204,21
707,87	1288,17
708,06	1284,08
708,24	1247,21
708,42	1275,88
708,61	1251,31
708,79	1253,36
708,97	1247,21
709,16	1284,08
709,34	1222,64
709,52	1257,45
709,71	1196,01
709,89	1349,61
710,07	1290,22
710,26	1228,78
710,44	1243,12
710,62	1249,26
710,80	1306,60
710,99	1245,16
711,17	1232,88
711,35	1218,54
711,54	1263,60
711,72	1259,50
711,90	1257,45
712,09	1308,65
712,27	1288,17
712,45	1277,93
712,63	1251,31
712,82	1239,02
713,00	1327,08
713,18	1245,16
713,37	1224,69
713,55	1312,75
713,73	1222,64
713,91	1222,64
714,10	1327,08
714,28	1261,55
714,46	1214,45
714,65	1253,36
714,83	1322,99
715,01	1275,88
715,19	1296,36
715,38	1204,21
715,56	1318,89
715,74	1343,47
715,92	1191,92
716,11	1239,02
716,29	1288,17
716,47	1273,84
716,65	1363,95
716,84	1265,64
717,02	1308,65
717,20	1255,40
717,38	1277,93
717,57	1216,49
717,75	1273,84
717,93	1267,69
718,11	1247,21
718,30	1251,31
718,48	1304,56
718,66	1302,51
718,84	1306,60
719,03	1196,01
719,21	1273,84
719,39	1282,03
719,57	1279,98
719,75	1257,45
719,94	1243,12
720,12	1282,03
720,30	1247,21
720,48	1273,84
720,67	1249,26
720,85	1273,84
721,03	1273,84
721,21	1247,21
721,39	1282,03
721,58	1230,83
721,76	1241,07
721,94	1294,32
722,12	1325,04
722,30	1216,49
722,49	1243,12
722,67	1359,85
722,85	1200,11
723,03	1255,40
723,21	1220,59
723,40	1304,56
723,58	1368,04
723,76	1230,83
723,94	1253,36
724,12	1296,36
724,30	1316,84
724,49	1310,70
724,67	1290,22
724,85	1216,49
725,03	1222,64
725,21	1251,31
725,40	1261,55
725,58	1263,60
725,76	1304,56
725,94	1290,22
726,12	1277,93
726,30	1296,36
726,49	1298,41
726,67	1275,88
726,85	1304,56
727,03	1183,73
727,21	1259,50
727,39	1314,80
727,57	1265,64
727,76	1277,93
727,94	1302,51
728,12	1222,64
728,30	1255,40
728,48	1253,36
728,66	1241,07
728,84	1247,21
729,03	1286,12
729,21	1275,88
729,39	1298,41
729,57	1234,93
729,75	1279,98
729,93	1257,45
730,11	1314,80
730,30	1277,93
730,48	1253,36
730,66	1273,84
730,84	1265,64
731,02	1228,78
731,20	1241,07
731,38	1304,56
731,56	1296,36
731,74	1189,87
731,93	1239,02
732,11	1265,64
732,29	1282,03
732,47	1224,69
732,65	1265,64
732,83	1267,69
733,01	1224,69
733,19	1263,60
733,37	1251,31
733,56	1253,36
733,74	1265,64
733,92	1232,88
734,10	1245,16
734,28	1230,83
734,46	1306,60
734,64	1325,04
734,82	1337,32
735,00	1282,03
735,18	1255,40
735,36	1267,69
735,54	1255,40
735,73	1265,64
735,91	1206,25
736,09	1351,66
736,27	1232,88
736,45	1232,88
736,63	1253,36
736,81	1249,26
736,99	1271,79
737,17	1306,60
737,35	1206,25
737,53	1212,40
737,71	1236,97
737,89	1247,21
738,07	1222,64
738,25	1220,59
738,43	1329,13
738,61	1214,45
738,80	1189,87
738,98	1243,12
739,16	1216,49
739,34	1249,26
739,52	1224,69
739,70	1282,03
739,88	1314,80
740,06	1265,64
740,24	1269,74
740,42	1304,56
740,60	1251,31
740,78	1232,88
740,96	1292,27
741,14	1294,32
741,32	1263,60
741,50	1226,73
741,68	1292,27
741,86	1273,84
742,04	1343,47
742,22	1214,45
742,40	1253,36
742,58	1245,16
742,76	1314,80
742,94	1210,35
743,12	1347,56
743,30	1331,18
743,48	1282,03
743,66	1286,12
743,84	1265,64
744,02	1273,84
744,20	1288,17
744,38	1243,12
744,56	1310,70
744,74	1230,83
744,92	1228,78
745,10	1267,69
745,28	1286,12
745,46	1292,27
745,64	1193,97
745,82	1234,93
746,00	1312,75
746,18	1263,60
746,36	1284,08
746,54	1275,88
746,72	1316,84
746,90	1306,60
747,08	1261,55
747,26	1320,94
747,44	1267,69
747,62	1284,08
747,80	1257,45
747,98	1269,74
748,15	1249,26
748,33	1249,26
748,51	1253,36
748,69	1214,45
748,87	1269,74
749,05	1206,25
749,23	1253,36
749,41	1249,26
749,59	1253,36
749,77	1216,49
749,95	1269,74
750,13	1216,49
750,31	1286,12
750,49	1322,99
750,67	1243,12
750,85	1232,88
751,03	1279,98
751,20	1275,88
751,38	1212,40
751,56	1232,88
751,74	1306,60
751,92	1300,46
752,10	1265,64
752,28	1271,79
752,46	1230,83
752,64	1277,93
752,82	1282,03
753,00	1314,80
753,18	1298,41
753,35	1271,79
753,53	1220,59
753,71	1226,73
753,89	1222,64
754,07	1230,83
754,25	1302,51
754,43	1271,79
754,61	1290,22
754,79	1271,79
754,97	1191,92
755,14	1200,11
755,32	1265,64
755,50	1325,04
755,68	1175,53
755,86	1296,36
756,04	1273,84
756,22	1306,60
756,40	1236,97
756,57	1249,26
756,75	1255,40
756,93	1282,03
757,11	1288,17
757,29	1230,83
757,47	1236,97
757,65	1277,93
757,82	1271,79
758,00	1275,88
758,18	1286,12
758,36	1325,04
758,54	1314,80
758,72	1228,78
758,90	1306,60
759,07	1279,98
759,25	1279,98
759,43	1327,08
759,61	1232,88
759,79	1327,08
759,97	1249,26
760,15	1292,27
760,32	1241,07
760,50	1279,98
760,68	1251,31
760,86	1255,40
761,04	1208,30
761,22	1224,69
761,39	1284,08
761,57	1312,75
761,75	1279,98
761,93	1261,55
762,11	1273,84
762,28	1273,84
762,46	1216,49
762,64	1271,79
762,82	1263,60
763,00	1196,01
763,18	1286,12
763,35	1312,75
763,53	1273,84
763,71	1206,25
763,89	1294,32
764,07	1216,49
764,24	1222,64
764,42	1220,59
764,60	1277,93
764,78	1263,60
764,96	1282,03
765,13	1288,17
765,31	1230,83
765,49	1253,36
765,67	1263,60
765,84	1247,21
766,02	1310,70
766,20	1234,93
766,38	1261,55
766,56	1302,51
766,73	1325,04
766,91	1224,69
767,09	1214,45
767,27	1249,26
767,44	1333,23
767,62	1341,42
767,80	1300,46
767,98	1296,36
768,15	1302,51
768,33	1263,60
768,51	1277,93
768,69	1302,51
768,87	1314,80
769,04	1261,55
769,22	1271,79
769,40	1257,45
769,58	1302,51
769,75	1218,54
769,93	1273,84
770,11	1273,84
770,28	1339,37
770,46	1308,65
770,64	1253,36
770,82	1265,64
770,99	1249,26
771,17	1320,94
771,35	1208,30
771,53	1296,36
771,70	1214,45
771,88	1259,50
772,06	1273,84
772,23	1279,98
772,41	1331,18
772,59	1202,16
772,77	1239,02
772,94	1234,93
773,12	1239,02
773,30	1302,51
773,47	1251,31
773,65	1247,21
773,83	1298,41
774,01	1255,40
774,18	1294,32
774,36	1245,16
774,54	1245,16
774,71	1327,08
774,89	1269,74
775,07	1325,04
775,24	1275,88
775,42	1310,70
775,60	1247,21
775,78	1269,74
775,95	1292,27
776,13	1312,75
776,31	1267,69
776,48	1198,06
776,66	1269,74
776,84	1249,26
777,01	1320,94
777,19	1259,50
777,37	1232,88
777,54	1265,64
777,72	1265,64
777,90	1277,93
778,07	1243,12
778,25	1245,16
778,43	1296,36
778,60	1251,31
778,78	1216,49
778,96	1304,56
779,13	1226,73
779,31	1265,64
779,49	1308,65
779,66	1267,69
779,84	1214,45
780,01	1265,64
780,19	1306,60
780,37	1282,03
780,54	1245,16
780,72	1236,97
780,90	1269,74
781,07	1245,16
781,25	1294,32
781,43	1331,18
781,60	1232,88
781,78	1245,16
781,95	1296,36
782,13	1288,17
782,31	1271,79
782,48	1265,64
782,66	1251,31
782,83	1210,35
783,01	1208,30
783,19	1345,52
783,36	1232,88
783,54	1179,63
783,72	1296,36
783,89	1216,49
784,07	1298,41
784,24	1300,46
784,42	1320,94
784,60	1312,75
784,77	1200,11
784,95	1198,06
785,12	1290,22
785,30	1241,07
785,47	1175,53
785,65	1269,74
785,83	1253,36
786,00	1363,95
786,18	1239,02
786,35	1236,97
786,53	1302,51
786,71	1257,45
786,88	1189,87
787,06	1298,41
787,23	1288,17
787,41	1263,60
787,58	1263,60
787,76	1286,12
787,94	1224,69
788,11	1216,49
788,29	1222,64
788,46	1265,64
788,64	1259,50
788,81	1267,69
788,99	1249,26
789,16	1298,41
789,34	1241,07
789,52	1288,17
789,69	1279,98
789,87	1191,92
790,04	1288,17
790,22	1269,74
790,39	1296,36
790,57	1292,27
790,74	1189,87
790,92	1269,74
791,09	1279,98
791,27	1310,70
791,44	1208,30
791,62	1331,18
791,79	1345,52
791,97	1294,32
792,15	1327,08
792,32	1230,83
792,50	1282,03
792,67	1210,35
792,85	1277,93
793,02	1294,32
793,20	1271,79
793,37	1300,46
793,55	1251,31
793,72	1202,16
793,90	1298,41
794,07	1202,16
794,25	1222,64
794,42	1222,64
794,60	1243,12
794,77	1300,46
794,95	1247,21
795,12	1322,99
795,30	1275,88
795,47	1267,69
795,65	1335,28
795,82	1290,22
796,00	1312,75
796,17	1322,99
796,34	1306,60
796,52	1316,84
796,69	1232,88
796,87	1247,21
797,04	1308,65
797,22	1294,32
797,39	1271,79
797,57	1216,49
797,74	1247,21
797,92	1220,59
798,09	1220,59
798,27	1277,93
798,44	1234,93
798,62	1308,65
798,79	1304,56
798,96	1257,45
799,14	1339,37
799,31	1345,52
799,49	1298,41
799,66	1230,83
799,84	1288,17
800,01	1327,08
800,19	1230,83
800,36	1271,79
800,53	1292,27
800,71	1294,32
800,88	1249,26
801,06	1239,02
801,23	1179,63
801,41	1189,87
801,58	1329,13
801,75	1269,74
801,93	1279,98
802,10	1179,63
802,28	1267,69
802,45	1255,40
802,63	1247,21
802,80	1177,58
802,97	1282,03
803,15	1196,01
803,32	1320,94
803,50	1288,17
803,67	1267,69
803,84	1261,55
804,02	1241,07
804,19	1251,31
804,37	1269,74
804,54	1325,04
804,71	1294,32
804,89	1226,73
805,06	1255,40
805,24	1298,41
805,41	1232,88
805,58	1316,84
805,76	1290,22
805,93	1277,93
806,10	1208,30
806,28	1267,69
806,45	1304,56
806,63	1257,45
806,80	1273,84
806,97	1296,36
807,15	1273,84
807,32	1271,79
807,49	1218,54
807,67	1191,92
807,84	1261,55
808,01	1308,65
808,19	1249,26
808,36	1353,71
808,54	1243,12
808,71	1267,69
808,88	1298,41
809,06	1310,70
809,23	1183,73
809,40	1241,07
809,58	1265,64
809,75	1314,80
809,92	1284,08
810,10	1263,60
810,27	1173,49
810,44	1290,22
810,62	1290,22
810,79	1245,16
810,96	1247,21
811,14	1247,21
811,31	1279,98
811,48	1275,88
811,66	1290,22
811,83	1284,08
812,00	1357,80
812,18	1288,17
812,35	1302,51
812,52	1257,45
812,69	1279,98
812,87	1253,36
813,04	1271,79
813,21	1284,08
813,39	1249,26
813,56	1316,84
813,73	1304,56
813,91	1316,84
814,08	1193,97
814,25	1249,26
814,42	1245,16
814,60	1290,22
814,77	1259,50
814,94	1218,54
815,12	1230,83
815,29	1253,36
815,46	1322,99
815,63	1257,45
815,81	1376,24
815,98	1241,07
816,15	1257,45
816,33	1298,41
816,50	1302,51
816,67	1243,12
816,84	1249,26
817,02	1236,97
817,19	1239,02
817,36	1253,36
817,53	1255,40
817,71	1259,50
817,88	1279,98
818,05	1259,50
818,22	1288,17
818,40	1234,93
818,57	1329,13
818,74	1216,49
818,91	1257,45
819,09	1312,75
819,26	1314,80
819,43	1173,49
819,60	1253,36
819,78	1288,17
819,95	1286,12
820,12	1263,60
820,29	1263,60
820,47	1183,73
820,64	1292,27
820,81	1259,50
820,98	1255,40
821,15	1185,77
821,33	1320,94
821,50	1214,45
821,67	1198,06
821,84	1257,45
822,02	1257,45
822,19	1327,08
822,36	1288,17
822,53	1249,26
822,70	1224,69
822,88	1241,07
823,05	1320,94
823,22	1273,84
823,39	1243,12
823,56	1247,21
823,74	1298,41
823,91	1232,88
824,08	1245,16
824,25	1273,84
824,42	1277,93
824,60	1212,40
824,77	1202,16
824,94	1257,45
825,11	1247,21
825,28	1277,93
825,45	1232,88
825,63	1222,64
825,80	1298,41
825,97	1294,32
826,14	1265,64
826,31	1290,22
826,48	1249,26
826,66	1296,36
826,83	1271,79
827,00	1220,59
827,17	1304,56
827,34	1253,36
827,51	1247,21
827,69	1241,07
827,86	1263,60
828,03	1206,25
828,20	1216,49
828,37	1316,84
828,54	1271,79
828,71	1279,98
828,89	1322,99
829,06	1200,11
829,23	1224,69
829,40	1241,07
829,57	1214,45
829,74	1310,70
829,91	1253,36
830,09	1241,07
830,26	1193,97
830,43	1273,84
830,60	1300,46
830,77	1320,94
830,94	1249,26
831,11	1245,16
831,28	1259,50
831,46	1247,21
831,63	1230,83
831,80	1228,78
831,97	1290,22
832,14	1288,17
832,31	1214,45
832,48	1267,69
832,65	1302,51
832,82	1304,56
832,99	1232,88
833,17	1273,84
833,34	1302,51
833,51	1300,46
833,68	1239,02
833,85	1224,69
834,02	1208,30
834,19	1271,79
834,36	1279,98
834,53	1196,01
834,70	1325,04
834,87	1241,07
835,04	1306,60
835,22	1284,08
835,39	1279,98
835,56	1273,84
835,73	1298,41
835,90	1232,88
836,07	1290,22
836,24	1243,12
836,41	1290,22
836,58	1265,64
836,75	1300,46
836,92	1310,70
837,09	1263,60
837,26	1253,36
837,43	1265,64
837,60	1230,83
837,77	1277,93
837,94	1286,12
838,12	1298,41
838,29	1193,97
838,46	1267,69
838,63	1222,64
838,80	1308,65
838,97	1269,74
839,14	1286,12
839,31	1286,12
839,48	1337,32
839,65	1284,08
839,82	1222,64
839,99	1284,08
840,16	1261,55
840,33	1236,97
840,50	1218,54
840,67	1286,12
840,84	1234,93
841,01	1257,45
841,18	1286,12
841,35	1220,59
841,52	1220,59
841,69	1290,22
841,86	1273,84
842,03	1236,97
842,20	1312,75
842,37	1253,36
842,54	1265,64
842,71	1339,37
842,88	1253,36
843,05	1277,93
843,22	1273,84
843,39	1273,84
843,56	1239,02
843,73	1306,60
843,90	1255,40
844,07	1212,40
844,24	1261,55
844,41	1200,11
844,58	1282,03
844,75	1279,98
844,92	1222,64
845,09	1286,12
845,26	1341,42
845,43	1255,40
845,60	1247,21
845,77	1290,22
845,94	1265,64
846,10	1267,69
846,27	1153,01
846,44	1261,55
846,61	1187,82
846,78	1304,56
846,95	1171,44
847,12	1255,40
847,29	1320,94
847,46	1257,45
847,63	1286,12
847,80	1191,92
847,97	1312,75
848,14	1294,32
848,31	1253,36
848,48	1239,02
848,65	1249,26
848,82	1333,23
848,98	1220,59
849,15	1263,60
849,32	1290,22
849,49	1277,93
849,66	1257,45
849,83	1218,54
850,00	1259,50
850,17	1265,64
850,34	1261,55
850,51	1249,26
850,68	1234,93
850,85	1273,84
851,01	1277,93
851,18	1284,08
851,35	1269,74
851,52	1267,69
851,69	1277,93
851,86	1230,83
852,03	1308,65
852,20	1243,12
852,37	1290,22
852,53	1331,18
852,70	1310,70
852,87	1183,73
853,04	1198,06
853,21	1259,50
853,38	1232,88
853,55	1277,93
853,72	1193,97
853,89	1212,40
854,05	1306,60
854,22	1277,93
854,39	1275,88
854,56	1191,92
854,73	1265,64
854,90	1294,32
855,07	1224,69
855,23	1230,83
855,40	1300,46
855,57	1282,03
855,74	1263,60
855,91	1292,27
856,08	1232,88
856,25	1277,93
856,41	1232,88
856,58	1245,16
856,75	1202,16
856,92	1259,50
857,09	1286,12
857,26	1314,80
857,42	1253,36
857,59	1208,30
857,76	1234,93
857,93	1320,94
858,10	1294,32
858,27	1306,60
858,43	1310,70
858,60	1279,98
858,77	1265,64
858,94	1310,70
859,11	1263,60
859,27	1300,46
859,44	1224,69
859,61	1220,59
859,78	1310,70
859,95	1245,16
860,12	1277,93
860,28	1275,88
860,45	1286,12
860,62	1314,80
860,79	1300,46
860,95	1363,95
861,12	1214,45
861,29	1322,99
861,46	1306,60
861,63	1261,55
861,79	1255,40
861,96	1318,89
862,13	1249,26
862,30	1236,97
862,47	1288,17
862,63	1282,03
862,80	1290,22
862,97	1310,70
863,14	1224,69
863,30	1247,21
863,47	1255,40
863,64	1226,73
863,81	1286,12
863,97	1200,11
864,14	1298,41
864,31	1288,17
864,48	1165,29
864,65	1302,51
864,81	1277,93
864,98	1232,88
865,15	1204,21
865,32	1294,32
865,48	1247,21
865,65	1273,84
865,82	1249,26
865,98	1226,73
866,15	1359,85
866,32	1220,59
866,49	1312,75
866,65	1245,16
866,82	1310,70
866,99	1249,26
867,16	1279,98
867,32	1243,12
867,49	1282,03
867,66	1249,26
867,83	1314,80
867,99	1331,18
868,16	1312,75
868,33	1290,22
868,49	1163,25
868,66	1255,40
868,83	1222,64
868,99	1312,75
869,16	1241,07
869,33	1279,98
869,50	1288,17
869,66	1265,64
869,83	1294,32
870,00	1247,21
870,16	1292,27
870,33	1236,97
870,50	1218,54
870,66	1226,73
870,83	1290,22
871,00	1218,54
871,17	1308,65
871,33	1120,24
871,50	1243,12
871,67	1275,88
871,83	1284,08
872,00	1290,22
872,17	1251,31
872,33	1284,08
872,50	1314,80
872,67	1282,03
872,83	1230,83
873,00	1261,55
873,17	1273,84
873,33	1300,46
873,50	1204,21
873,67	1343,47
873,83	1247,21
874,00	1292,27
874,16	1259,50
874,33	1259,50
874,50	1296,36
874,66	1259,50
874,83	1269,74
875,00	1302,51
875,16	1232,88
875,33	1308,65
875,50	1277,93
875,66	1339,37
875,83	1322,99
875,99	1216,49
876,16	1257,45
876,33	1247,21
876,49	1208,30
876,66	1259,50
876,83	1212,40
876,99	1253,36
877,16	1259,50
877,32	1265,64
877,49	1261,55
877,66	1275,88
877,82	1243,12
877,99	1304,56
878,15	1302,51
878,32	1212,40
878,49	1282,03
878,65	1228,78
878,82	1263,60
878,98	1198,06
879,15	1236,97
879,32	1253,36
879,48	1230,83
879,65	1202,16
879,81	1279,98
879,98	1249,26
880,15	1222,64
880,31	1232,88
880,48	1243,12
880,64	1263,60
880,81	1263,60
880,97	1275,88
881,14	1271,79
881,31	1331,18
881,47	1232,88
881,64	1247,21
881,80	1208,30
881,97	1247,21
882,13	1249,26
882,30	1214,45
882,47	1155,05
882,63	1249,26
882,80	1263,60
882,96	1320,94
883,13	1212,40
883,29	1212,40
883,46	1275,88
883,62	1271,79
883,79	1255,40
883,95	1214,45
884,12	1224,69
884,29	1218,54
884,45	1277,93
884,62	1273,84
884,78	1263,60
884,95	1316,84
885,11	1312,75
885,28	1316,84
885,44	1261,55
885,61	1255,40
885,77	1269,74
885,94	1239,02
886,10	1216,49
886,27	1277,93
886,43	1320,94
886,60	1222,64
886,76	1253,36
886,93	1298,41
887,09	1232,88
887,26	1265,64
887,42	1234,93
887,59	1286,12
887,75	1269,74
887,92	1269,74
888,08	1243,12
888,25	1247,21
888,41	1226,73
888,58	1286,12
888,74	1249,26
888,91	1314,80
>>>>>End Processed Spectral Data<<<<<
