SpectraSuite Data File
++++++++++++++++++++++++++++++++++++
Date: Sun Apr 03 19:55:34 CEST 2016
User: root
Dark Spectrum Present: No
Reference Spectrum Present: No
Number of Sampled Component Spectra: 1
Spectrometers: USB4C02835
Integration Time (usec): 10000 (USB4C02835)
Spectra Averaged: 1 (USB4C02835)
Boxcar Smoothing: 0 (USB4C02835)
Correct for Electrical Dark: No (USB4C02835)
Strobe/Lamp Enabled: No (USB4C02835)
Correct for Detector Non-linearity: No (USB4C02835)
Correct for Stray Light: No (USB4C02835)
Number of Pixels in Processed Spectrum: 3648
>>>>>Begin Processed Spectral Data<<<<<
177,47	1288,17
177,69	1288,17
177,91	1288,17
178,13	1275,88
178,36	1208,30
178,58	1120,24
178,80	1173,49
179,02	1263,60
179,24	1265,64
179,46	1279,98
179,68	1284,08
179,90	1196,01
180,13	1308,65
180,35	1241,07
180,57	1220,59
180,79	1273,84
181,01	1288,17
181,23	1275,88
181,45	1241,07
181,67	1292,27
181,90	1327,08
182,12	1284,08
182,34	1265,64
182,56	1259,50
182,78	1282,03
183,00	1308,65
183,22	1300,46
183,44	1232,88
183,66	1265,64
183,89	1228,78
184,11	1259,50
184,33	1249,26
184,55	1296,36
184,77	1296,36
184,99	1290,22
185,21	1343,47
185,43	1257,45
185,65	1261,55
185,87	1277,93
186,10	1292,27
186,32	1353,71
186,54	1222,64
186,76	1339,37
186,98	1271,79
187,20	1243,12
187,42	1261,55
187,64	1290,22
187,86	1288,17
188,08	1316,84
188,30	1259,50
188,52	1333,23
188,75	1259,50
188,97	1345,52
189,19	1271,79
189,41	1179,63
189,63	1310,70
189,85	1230,83
190,07	1273,84
190,29	1294,32
190,51	1337,32
190,73	1296,36
190,95	1239,02
191,17	1322,99
191,39	1232,88
191,61	1269,74
191,84	1220,59
192,06	1267,69
192,28	1286,12
192,50	1255,40
192,72	1249,26
192,94	1296,36
193,16	1222,64
193,38	1243,12
193,60	1189,87
193,82	1300,46
194,04	1320,94
194,26	1247,21
194,48	1216,49
194,70	1224,69
194,92	1273,84
195,14	1265,64
195,36	1318,89
195,58	1282,03
195,80	1134,57
196,02	1282,03
196,24	1333,23
196,46	1302,51
196,69	1255,40
196,91	1216,49
197,13	1331,18
197,35	1277,93
197,57	1251,31
197,79	1255,40
198,01	1341,42
198,23	1255,40
198,45	1275,88
198,67	1228,78
198,89	1200,11
199,11	1273,84
199,33	1226,73
199,55	1322,99
199,77	1234,93
199,99	1282,03
200,21	1341,42
200,43	1249,26
200,65	1292,27
200,87	1265,64
201,09	1228,78
201,31	1257,45
201,53	1325,04
201,75	1304,56
201,97	1222,64
202,19	1230,83
202,41	1339,37
202,63	1282,03
202,85	1163,25
203,07	1300,46
203,29	1208,30
203,51	1216,49
203,73	1245,16
203,95	1290,22
204,17	1296,36
204,39	1273,84
204,61	1239,02
204,83	1380,33
205,05	1236,97
205,27	1296,36
205,49	1212,40
205,71	1341,42
205,93	1318,89
206,15	1220,59
206,37	1191,92
206,59	1243,12
206,81	1249,26
207,03	1275,88
207,25	1271,79
207,47	1243,12
207,69	1277,93
207,91	1333,23
208,13	1206,25
208,34	1230,83
208,56	1222,64
208,78	1267,69
209,00	1234,93
209,22	1312,75
209,44	1282,03
209,66	1267,69
209,88	1325,04
210,10	1216,49
210,32	1277,93
210,54	1329,13
210,76	1269,74
210,98	1304,56
211,20	1228,78
211,42	1269,74
211,64	1202,16
211,86	1302,51
212,08	1206,25
212,30	1302,51
212,52	1306,60
212,74	1265,64
212,96	1265,64
213,17	1275,88
213,39	1294,32
213,61	1271,79
213,83	1236,97
214,05	1282,03
214,27	1331,18
214,49	1222,64
214,71	1290,22
214,93	1236,97
215,15	1247,21
215,37	1288,17
215,59	1206,25
215,81	1372,14
216,03	1292,27
216,24	1249,26
216,46	1290,22
216,68	1314,80
216,90	1327,08
217,12	1230,83
217,34	1275,88
217,56	1257,45
217,78	1259,50
218,00	1200,11
218,22	1253,36
218,44	1216,49
218,66	1206,25
218,87	1259,50
219,09	1318,89
219,31	1286,12
219,53	1273,84
219,75	1255,40
219,97	1261,55
220,19	1277,93
220,41	1294,32
220,63	1253,36
220,85	1294,32
221,06	1212,40
221,28	1286,12
221,50	1284,08
221,72	1210,35
221,94	1265,64
222,16	1226,73
222,38	1257,45
222,60	1329,13
222,82	1300,46
223,03	1277,93
223,25	1210,35
223,47	1286,12
223,69	1282,03
223,91	1241,07
224,13	1269,74
224,35	1232,88
224,57	1243,12
224,78	1286,12
225,00	1304,56
225,22	1259,50
225,44	1216,49
225,66	1298,41
225,88	1265,64
226,10	1228,78
226,32	1325,04
226,53	1193,97
226,75	1322,99
226,97	1261,55
227,19	1265,64
227,41	1314,80
227,63	1318,89
227,85	1222,64
228,06	1222,64
228,28	1263,60
228,50	1232,88
228,72	1294,32
228,94	1275,88
229,16	1245,16
229,37	1310,70
229,59	1249,26
229,81	1271,79
230,03	1232,88
230,25	1286,12
230,47	1265,64
230,69	1316,84
230,90	1216,49
231,12	1277,93
231,34	1228,78
231,56	1267,69
231,78	1306,60
232,00	1241,07
232,21	1243,12
232,43	1284,08
232,65	1265,64
232,87	1189,87
233,09	1271,79
233,30	1200,11
233,52	1185,77
233,74	1269,74
233,96	1286,12
234,18	1327,08
234,40	1286,12
234,61	1239,02
234,83	1191,92
235,05	1300,46
235,27	1277,93
235,49	1308,65
235,70	1253,36
235,92	1226,73
236,14	1253,36
236,36	1337,32
236,58	1232,88
236,79	1279,98
237,01	1304,56
237,23	1286,12
237,45	1333,23
237,67	1253,36
237,88	1212,40
238,10	1263,60
238,32	1275,88
238,54	1232,88
238,76	1226,73
238,97	1298,41
239,19	1187,82
239,41	1286,12
239,63	1193,97
239,85	1286,12
240,06	1212,40
240,28	1306,60
240,50	1259,50
240,72	1253,36
240,93	1251,31
241,15	1296,36
241,37	1239,02
241,59	1269,74
241,81	1357,80
242,02	1269,74
242,24	1253,36
242,46	1320,94
242,68	1208,30
242,89	1308,65
243,11	1275,88
243,33	1214,45
243,55	1255,40
243,76	1273,84
243,98	1253,36
244,20	1198,06
244,42	1273,84
244,64	1169,39
244,85	1275,88
245,07	1241,07
245,29	1263,60
245,51	1308,65
245,72	1226,73
245,94	1243,12
246,16	1279,98
246,38	1175,53
246,59	1284,08
246,81	1279,98
247,03	1275,88
247,24	1296,36
247,46	1271,79
247,68	1292,27
247,90	1255,40
248,11	1325,04
248,33	1329,13
248,55	1337,32
248,77	1312,75
248,98	1218,54
249,20	1239,02
249,42	1308,65
249,64	1329,13
249,85	1271,79
250,07	1286,12
250,29	1218,54
250,50	1249,26
250,72	1245,16
250,94	1300,46
251,16	1312,75
251,37	1185,77
251,59	1232,88
251,81	1257,45
252,02	1308,65
252,24	1269,74
252,46	1245,16
252,68	1251,31
252,89	1261,55
253,11	1196,01
253,33	1288,17
253,54	1210,35
253,76	1249,26
253,98	1189,87
254,20	1288,17
254,41	1288,17
254,63	1259,50
254,85	1245,16
255,06	1255,40
255,28	1243,12
255,50	1261,55
255,71	1230,83
255,93	1259,50
256,15	1277,93
256,36	1239,02
256,58	1234,93
256,80	1259,50
257,02	1210,35
257,23	1273,84
257,45	1314,80
257,67	1234,93
257,88	1292,27
258,10	1216,49
258,32	1275,88
258,53	1253,36
258,75	1304,56
258,97	1245,16
259,18	1288,17
259,40	1320,94
259,62	1296,36
259,83	1275,88
260,05	1196,01
260,27	1322,99
260,48	1247,21
260,70	1222,64
260,92	1314,80
261,13	1177,58
261,35	1320,94
261,57	1234,93
261,78	1265,64
262,00	1257,45
262,22	1263,60
262,43	1271,79
262,65	1277,93
262,86	1288,17
263,08	1288,17
263,30	1277,93
263,51	1325,04
263,73	1302,51
263,95	1327,08
264,16	1290,22
264,38	1282,03
264,60	1263,60
264,81	1277,93
265,03	1333,23
265,25	1275,88
265,46	1249,26
265,68	1220,59
265,89	1294,32
266,11	1331,18
266,33	1304,56
266,54	1271,79
266,76	1275,88
266,98	1300,46
267,19	1265,64
267,41	1236,97
267,62	1322,99
267,84	1224,69
268,06	1245,16
268,27	1243,12
268,49	1230,83
268,70	1263,60
268,92	1292,27
269,14	1300,46
269,35	1232,88
269,57	1196,01
269,79	1202,16
270,00	1292,27
270,22	1167,34
270,43	1327,08
270,65	1300,46
270,87	1210,35
271,08	1290,22
271,30	1271,79
271,51	1325,04
271,73	1247,21
271,95	1312,75
272,16	1249,26
272,38	1286,12
272,59	1286,12
272,81	1294,32
273,02	1228,78
273,24	1206,25
273,46	1253,36
273,67	1236,97
273,89	1286,12
274,10	1331,18
274,32	1275,88
274,54	1241,07
274,75	1304,56
274,97	1275,88
275,18	1284,08
275,40	1282,03
275,61	1261,55
275,83	1249,26
276,05	1284,08
276,26	1298,41
276,48	1236,97
276,69	1157,10
276,91	1316,84
277,12	1230,83
277,34	1257,45
277,55	1261,55
277,77	1263,60
277,99	1247,21
278,20	1234,93
278,42	1304,56
278,63	1273,84
278,85	1341,42
279,06	1286,12
279,28	1218,54
279,49	1300,46
279,71	1241,07
279,93	1308,65
280,14	1282,03
280,36	1198,06
280,57	1310,70
280,79	1277,93
281,00	1345,52
281,22	1243,12
281,43	1318,89
281,65	1273,84
281,86	1196,01
282,08	1327,08
282,29	1263,60
282,51	1284,08
282,73	1263,60
282,94	1245,16
283,16	1279,98
283,37	1236,97
283,59	1234,93
283,80	1241,07
284,02	1306,60
284,23	1290,22
284,45	1230,83
284,66	1286,12
284,88	1308,65
285,09	1257,45
285,31	1284,08
285,52	1245,16
285,74	1279,98
285,95	1267,69
286,17	1275,88
286,38	1265,64
286,60	1300,46
286,81	1204,21
287,03	1277,93
287,24	1185,77
287,46	1267,69
287,67	1224,69
287,89	1322,99
288,10	1331,18
288,32	1279,98
288,53	1279,98
288,75	1216,49
288,96	1243,12
289,18	1220,59
289,39	1304,56
289,61	1241,07
289,82	1218,54
290,04	1353,71
290,25	1316,84
290,47	1275,88
290,68	1312,75
290,90	1245,16
291,11	1300,46
291,33	1265,64
291,54	1232,88
291,76	1288,17
291,97	1318,89
292,18	1308,65
292,40	1236,97
292,61	1269,74
292,83	1267,69
293,04	1247,21
293,26	1216,49
293,47	1249,26
293,69	1320,94
293,90	1290,22
294,12	1269,74
294,33	1341,42
294,55	1286,12
294,76	1298,41
294,97	1259,50
295,19	1312,75
295,40	1265,64
295,62	1226,73
295,83	1257,45
296,05	1292,27
296,26	1296,36
296,48	1302,51
296,69	1249,26
296,90	1294,32
297,12	1290,22
297,33	1329,13
297,55	1249,26
297,76	1161,20
297,98	1198,06
298,19	1318,89
298,41	1265,64
298,62	1271,79
298,83	1271,79
299,05	1325,04
299,26	1322,99
299,48	1284,08
299,69	1177,58
299,90	1347,56
300,12	1257,45
300,33	1312,75
300,55	1312,75
300,76	1247,21
300,98	1265,64
301,19	1228,78
301,40	1232,88
301,62	1269,74
301,83	1298,41
302,05	1232,88
302,26	1259,50
302,47	1294,32
302,69	1265,64
302,90	1243,12
303,12	1261,55
303,33	1226,73
303,54	1290,22
303,76	1261,55
303,97	1224,69
304,19	1294,32
304,40	1243,12
304,61	1277,93
304,83	1224,69
305,04	1196,01
305,26	1234,93
305,47	1314,80
305,68	1271,79
305,90	1277,93
306,11	1259,50
306,33	1257,45
306,54	1232,88
306,75	1273,84
306,97	1218,54
307,18	1220,59
307,39	1265,64
307,61	1290,22
307,82	1218,54
308,04	1261,55
308,25	1247,21
308,46	1243,12
308,68	1310,70
308,89	1263,60
309,10	1269,74
309,32	1269,74
309,53	1257,45
309,74	1249,26
309,96	1212,40
310,17	1210,35
310,39	1300,46
310,60	1224,69
310,81	1202,16
311,03	1202,16
311,24	1290,22
311,45	1257,45
311,67	1296,36
311,88	1230,83
312,09	1282,03
312,31	1245,16
312,52	1196,01
312,73	1232,88
312,95	1243,12
313,16	1279,98
313,37	1314,80
313,59	1200,11
313,80	1259,50
314,01	1241,07
314,23	1290,22
314,44	1226,73
314,65	1243,12
314,87	1269,74
315,08	1255,40
315,29	1277,93
315,51	1279,98
315,72	1191,92
315,93	1243,12
316,15	1290,22
316,36	1286,12
316,57	1320,94
316,79	1243,12
317,00	1257,45
317,21	1265,64
317,43	1271,79
317,64	1267,69
317,85	1296,36
318,07	1314,80
318,28	1327,08
318,49	1232,88
318,70	1255,40
318,92	1265,64
319,13	1193,97
319,34	1263,60
319,56	1259,50
319,77	1234,93
319,98	1232,88
320,20	1275,88
320,41	1304,56
320,62	1302,51
320,83	1353,71
321,05	1308,65
321,26	1290,22
321,47	1302,51
321,69	1304,56
321,90	1216,49
322,11	1253,36
322,32	1220,59
322,54	1236,97
322,75	1275,88
322,96	1292,27
323,18	1269,74
323,39	1304,56
323,60	1288,17
323,81	1296,36
324,03	1226,73
324,24	1277,93
324,45	1279,98
324,66	1296,36
324,88	1298,41
325,09	1267,69
325,30	1245,16
325,52	1214,45
325,73	1290,22
325,94	1261,55
326,15	1290,22
326,37	1275,88
326,58	1312,75
326,79	1286,12
327,00	1306,60
327,22	1257,45
327,43	1249,26
327,64	1253,36
327,85	1273,84
328,07	1277,93
328,28	1212,40
328,49	1255,40
328,70	1302,51
328,92	1218,54
329,13	1255,40
329,34	1392,62
329,55	1282,03
329,76	1292,27
329,98	1261,55
330,19	1298,41
330,40	1320,94
330,61	1304,56
330,83	1236,97
331,04	1218,54
331,25	1288,17
331,46	1259,50
331,68	1310,70
331,89	1255,40
332,10	1263,60
332,31	1206,25
332,52	1310,70
332,74	1277,93
332,95	1261,55
333,16	1257,45
333,37	1292,27
333,58	1241,07
333,80	1286,12
334,01	1351,66
334,22	1284,08
334,43	1290,22
334,64	1236,97
334,86	1339,37
335,07	1249,26
335,28	1288,17
335,49	1302,51
335,70	1222,64
335,92	1243,12
336,13	1208,30
336,34	1232,88
336,55	1277,93
336,76	1333,23
336,98	1220,59
337,19	1239,02
337,40	1253,36
337,61	1286,12
337,82	1257,45
338,04	1241,07
338,25	1165,29
338,46	1224,69
338,67	1193,97
338,88	1279,98
339,09	1267,69
339,31	1267,69
339,52	1220,59
339,73	1279,98
339,94	1312,75
340,15	1294,32
340,36	1284,08
340,58	1220,59
340,79	1265,64
341,00	1275,88
341,21	1290,22
341,42	1282,03
341,63	1239,02
341,85	1288,17
342,06	1282,03
342,27	1241,07
342,48	1243,12
342,69	1193,97
342,90	1288,17
343,12	1290,22
343,33	1222,64
343,54	1245,16
343,75	1196,01
343,96	1239,02
344,17	1255,40
344,38	1282,03
344,60	1292,27
344,81	1253,36
345,02	1286,12
345,23	1218,54
345,44	1331,18
345,65	1259,50
345,86	1284,08
346,07	1255,40
346,29	1298,41
346,50	1294,32
346,71	1296,36
346,92	1265,64
347,13	1273,84
347,34	1230,83
347,55	1290,22
347,76	1224,69
347,98	1249,26
348,19	1259,50
348,40	1222,64
348,61	1210,35
348,82	1230,83
349,03	1224,69
349,24	1304,56
349,45	1288,17
349,66	1320,94
349,88	1220,59
350,09	1279,98
350,30	1257,45
350,51	1304,56
350,72	1275,88
350,93	1351,66
351,14	1259,50
351,35	1208,30
351,56	1308,65
351,77	1300,46
351,99	1282,03
352,20	1263,60
352,41	1259,50
352,62	1296,36
352,83	1247,21
353,04	1222,64
353,25	1269,74
353,46	1241,07
353,67	1273,84
353,88	1273,84
354,09	1198,06
354,30	1187,82
354,52	1343,47
354,73	1271,79
354,94	1288,17
355,15	1200,11
355,36	1347,56
355,57	1288,17
355,78	1277,93
355,99	1241,07
356,20	1257,45
356,41	1214,45
356,62	1210,35
356,83	1249,26
357,04	1257,45
357,25	1247,21
357,46	1308,65
357,68	1304,56
357,89	1282,03
358,10	1200,11
358,31	1269,74
358,52	1314,80
358,73	1181,68
358,94	1257,45
359,15	1261,55
359,36	1249,26
359,57	1253,36
359,78	1282,03
359,99	1249,26
360,20	1257,45
360,41	1247,21
360,62	1257,45
360,83	1210,35
361,04	1222,64
361,25	1241,07
361,46	1306,60
361,67	1271,79
361,88	1198,06
362,09	1288,17
362,30	1337,32
362,51	1187,82
362,72	1314,80
362,93	1259,50
363,14	1265,64
363,35	1265,64
363,56	1277,93
363,78	1230,83
363,99	1322,99
364,20	1265,64
364,41	1253,36
364,62	1224,69
364,83	1275,88
365,04	1275,88
365,25	1275,88
365,46	1241,07
365,67	1204,21
365,88	1255,40
366,09	1247,21
366,30	1308,65
366,51	1230,83
366,72	1294,32
366,93	1208,30
367,14	1277,93
367,35	1214,45
367,56	1290,22
367,77	1208,30
367,98	1284,08
368,18	1327,08
368,39	1384,43
368,60	1329,13
368,81	1257,45
369,02	1230,83
369,23	1284,08
369,44	1316,84
369,65	1318,89
369,86	1282,03
370,07	1236,97
370,28	1284,08
370,49	1234,93
370,70	1275,88
370,91	1241,07
371,12	1263,60
371,33	1253,36
371,54	1257,45
371,75	1302,51
371,96	1269,74
372,17	1181,68
372,38	1263,60
372,59	1300,46
372,80	1296,36
373,01	1259,50
373,22	1296,36
373,43	1292,27
373,64	1282,03
373,85	1286,12
374,06	1226,73
374,26	1288,17
374,47	1245,16
374,68	1214,45
374,89	1271,79
375,10	1226,73
375,31	1249,26
375,52	1247,21
375,73	1234,93
375,94	1279,98
376,15	1263,60
376,36	1236,97
376,57	1331,18
376,78	1245,16
376,99	1212,40
377,20	1214,45
377,40	1304,56
377,61	1200,11
377,82	1282,03
378,03	1239,02
378,24	1312,75
378,45	1189,87
378,66	1208,30
378,87	1290,22
379,08	1261,55
379,29	1333,23
379,50	1257,45
379,71	1253,36
379,91	1236,97
380,12	1308,65
380,33	1259,50
380,54	1243,12
380,75	1271,79
380,96	1208,30
381,17	1257,45
381,38	1308,65
381,59	1320,94
381,80	1273,84
382,00	1255,40
382,21	1241,07
382,42	1255,40
382,63	1218,54
382,84	1261,55
383,05	1239,02
383,26	1273,84
383,47	1241,07
383,68	1234,93
383,88	1171,44
384,09	1216,49
384,30	1318,89
384,51	1239,02
384,72	1210,35
384,93	1245,16
385,14	1265,64
385,35	1271,79
385,55	1245,16
385,76	1347,56
385,97	1232,88
386,18	1306,60
386,39	1208,30
386,60	1261,55
386,81	1232,88
387,02	1261,55
387,22	1206,25
387,43	1222,64
387,64	1318,89
387,85	1296,36
388,06	1224,69
388,27	1363,95
388,48	1296,36
388,68	1243,12
388,89	1261,55
389,10	1304,56
389,31	1325,04
389,52	1296,36
389,73	1257,45
389,93	1271,79
390,14	1284,08
390,35	1279,98
390,56	1282,03
390,77	1288,17
390,98	1224,69
391,18	1275,88
391,39	1257,45
391,60	1308,65
391,81	1273,84
392,02	1304,56
392,23	1275,88
392,43	1304,56
392,64	1370,09
392,85	1312,75
393,06	1271,79
393,27	1224,69
393,47	1216,49
393,68	1220,59
393,89	1247,21
394,10	1267,69
394,31	1230,83
394,52	1232,88
394,72	1273,84
394,93	1224,69
395,14	1300,46
395,35	1255,40
395,56	1251,31
395,76	1294,32
395,97	1302,51
396,18	1175,53
396,39	1243,12
396,60	1282,03
396,80	1261,55
397,01	1251,31
397,22	1312,75
397,43	1353,71
397,64	1177,58
397,84	1277,93
398,05	1277,93
398,26	1206,25
398,47	1253,36
398,67	1259,50
398,88	1245,16
399,09	1288,17
399,30	1212,40
399,51	1282,03
399,71	1253,36
399,92	1216,49
400,13	1294,32
400,34	1234,93
400,54	1345,52
400,75	1277,93
400,96	1245,16
401,17	1239,02
401,37	1275,88
401,58	1257,45
401,79	1261,55
402,00	1290,22
402,21	1298,41
402,41	1257,45
402,62	1245,16
402,83	1267,69
403,04	1306,60
403,24	1275,88
403,45	1275,88
403,66	1243,12
403,87	1277,93
404,07	1273,84
404,28	1269,74
404,49	1253,36
404,70	1224,69
404,90	1271,79
405,11	1273,84
405,32	1370,09
405,52	1296,36
405,73	1290,22
405,94	1218,54
406,15	1316,84
406,35	1236,97
406,56	1230,83
406,77	1277,93
406,98	1255,40
407,18	1230,83
407,39	1236,97
407,60	1304,56
407,80	1286,12
408,01	1271,79
408,22	1265,64
408,43	1243,12
408,63	1312,75
408,84	1345,52
409,05	1273,84
409,25	1296,36
409,46	1312,75
409,67	1230,83
409,88	1189,87
410,08	1308,65
410,29	1288,17
410,50	1239,02
410,70	1310,70
410,91	1257,45
411,12	1208,30
411,32	1241,07
411,53	1284,08
411,74	1267,69
411,95	1249,26
412,15	1241,07
412,36	1290,22
412,57	1320,94
412,77	1300,46
412,98	1294,32
413,19	1302,51
413,39	1308,65
413,60	1310,70
413,81	1337,32
414,01	1261,55
414,22	1255,40
414,43	1275,88
414,63	1239,02
414,84	1251,31
415,05	1196,01
415,25	1255,40
415,46	1241,07
415,67	1279,98
415,87	1249,26
416,08	1253,36
416,29	1304,56
416,49	1304,56
416,70	1216,49
416,91	1318,89
417,11	1310,70
417,32	1277,93
417,53	1306,60
417,73	1232,88
417,94	1193,97
418,15	1255,40
418,35	1253,36
418,56	1259,50
418,77	1247,21
418,97	1290,22
419,18	1308,65
419,38	1275,88
419,59	1200,11
419,80	1298,41
420,00	1263,60
420,21	1273,84
420,42	1316,84
420,62	1232,88
420,83	1214,45
421,04	1239,02
421,24	1259,50
421,45	1327,08
421,65	1296,36
421,86	1341,42
422,07	1241,07
422,27	1286,12
422,48	1290,22
422,69	1298,41
422,89	1271,79
423,10	1292,27
423,30	1273,84
423,51	1282,03
423,72	1302,51
423,92	1308,65
424,13	1282,03
424,33	1282,03
424,54	1304,56
424,75	1241,07
424,95	1251,31
425,16	1304,56
425,36	1273,84
425,57	1210,35
425,78	1370,09
425,98	1351,66
426,19	1230,83
426,39	1282,03
426,60	1216,49
426,81	1304,56
427,01	1165,29
427,22	1187,82
427,42	1210,35
427,63	1329,13
427,83	1290,22
428,04	1296,36
428,25	1241,07
428,45	1234,93
428,66	1308,65
428,86	1304,56
429,07	1214,45
429,28	1322,99
429,48	1253,36
429,69	1232,88
429,89	1282,03
430,10	1255,40
430,30	1286,12
430,51	1265,64
430,71	1236,97
430,92	1157,10
431,13	1261,55
431,33	1310,70
431,54	1232,88
431,74	1304,56
431,95	1269,74
432,15	1253,36
432,36	1169,39
432,56	1284,08
432,77	1251,31
432,98	1306,60
433,18	1296,36
433,39	1290,22
433,59	1288,17
433,80	1300,46
434,00	1267,69
434,21	1220,59
434,41	1269,74
434,62	1304,56
434,82	1300,46
435,03	1325,04
435,23	1232,88
435,44	1271,79
435,64	1343,47
435,85	1232,88
436,06	1218,54
436,26	1310,70
436,47	1224,69
436,67	1206,25
436,88	1253,36
437,08	1253,36
437,29	1263,60
437,49	1239,02
437,70	1243,12
437,90	1208,30
438,11	1337,32
438,31	1265,64
438,52	1300,46
438,72	1316,84
438,93	1316,84
439,13	1292,27
439,34	1333,23
439,54	1226,73
439,75	1263,60
439,95	1320,94
440,16	1212,40
440,36	1290,22
440,57	1232,88
440,77	1202,16
440,98	1275,88
441,18	1206,25
441,39	1302,51
441,59	1204,21
441,80	1236,97
442,00	1267,69
442,21	1312,75
442,41	1331,18
442,62	1257,45
442,82	1261,55
443,02	1214,45
443,23	1255,40
443,43	1302,51
443,64	1282,03
443,84	1325,04
444,05	1329,13
444,25	1224,69
444,46	1277,93
444,66	1241,07
444,87	1279,98
445,07	1257,45
445,28	1257,45
445,48	1247,21
445,69	1277,93
445,89	1249,26
446,09	1277,93
446,30	1245,16
446,50	1239,02
446,71	1245,16
446,91	1277,93
447,12	1269,74
447,32	1325,04
447,53	1257,45
447,73	1294,32
447,93	1249,26
448,14	1273,84
448,34	1298,41
448,55	1265,64
448,75	1316,84
448,96	1316,84
449,16	1355,76
449,36	1259,50
449,57	1300,46
449,77	1316,84
449,98	1286,12
450,18	1296,36
450,39	1277,93
450,59	1261,55
450,79	1275,88
451,00	1288,17
451,20	1304,56
451,41	1216,49
451,61	1290,22
451,81	1290,22
452,02	1234,93
452,22	1267,69
452,43	1239,02
452,63	1230,83
452,84	1298,41
453,04	1279,98
453,24	1241,07
453,45	1292,27
453,65	1325,04
453,86	1263,60
454,06	1298,41
454,26	1363,95
454,47	1245,16
454,67	1273,84
454,87	1204,21
455,08	1312,75
455,28	1255,40
455,49	1284,08
455,69	1191,92
455,89	1290,22
456,10	1349,61
456,30	1277,93
456,51	1329,13
456,71	1261,55
456,91	1267,69
457,12	1230,83
457,32	1239,02
457,52	1247,21
457,73	1351,66
457,93	1314,80
458,14	1284,08
458,34	1345,52
458,54	1290,22
458,75	1284,08
458,95	1284,08
459,15	1288,17
459,36	1320,94
459,56	1265,64
459,76	1296,36
459,97	1300,46
460,17	1271,79
460,37	1257,45
460,58	1288,17
460,78	1298,41
460,99	1302,51
461,19	1331,18
461,39	1193,97
461,60	1259,50
461,80	1277,93
462,00	1228,78
462,21	1275,88
462,41	1290,22
462,61	1275,88
462,82	1286,12
463,02	1290,22
463,22	1263,60
463,43	1208,30
463,63	1228,78
463,83	1339,37
464,04	1314,80
464,24	1257,45
464,44	1298,41
464,64	1327,08
464,85	1206,25
465,05	1282,03
465,25	1279,98
465,46	1200,11
465,66	1255,40
465,86	1310,70
466,07	1277,93
466,27	1318,89
466,47	1286,12
466,68	1239,02
466,88	1294,32
467,08	1243,12
467,29	1290,22
467,49	1222,64
467,69	1320,94
467,89	1247,21
468,10	1273,84
468,30	1320,94
468,50	1277,93
468,71	1304,56
468,91	1331,18
469,11	1226,73
469,31	1232,88
469,52	1284,08
469,72	1306,60
469,92	1206,25
470,13	1271,79
470,33	1257,45
470,53	1267,69
470,73	1296,36
470,94	1216,49
471,14	1206,25
471,34	1255,40
471,54	1300,46
471,75	1245,16
471,95	1236,97
472,15	1288,17
472,36	1273,84
472,56	1259,50
472,76	1261,55
472,96	1327,08
473,17	1341,42
473,37	1255,40
473,57	1249,26
473,77	1286,12
473,98	1327,08
474,18	1294,32
474,38	1239,02
474,58	1251,31
474,79	1193,97
474,99	1327,08
475,19	1228,78
475,39	1275,88
475,60	1302,51
475,80	1277,93
476,00	1239,02
476,20	1318,89
476,41	1249,26
476,61	1312,75
476,81	1255,40
477,01	1267,69
477,21	1310,70
477,42	1263,60
477,62	1331,18
477,82	1286,12
478,02	1226,73
478,23	1329,13
478,43	1239,02
478,63	1251,31
478,83	1304,56
479,03	1226,73
479,24	1290,22
479,44	1265,64
479,64	1236,97
479,84	1271,79
480,04	1245,16
480,25	1241,07
480,45	1214,45
480,65	1220,59
480,85	1234,93
481,06	1263,60
481,26	1292,27
481,46	1263,60
481,66	1216,49
481,86	1304,56
482,06	1236,97
482,27	1298,41
482,47	1263,60
482,67	1210,35
482,87	1208,30
483,07	1298,41
483,28	1234,93
483,48	1298,41
483,68	1255,40
483,88	1183,73
484,08	1286,12
484,29	1306,60
484,49	1222,64
484,69	1269,74
484,89	1271,79
485,09	1316,84
485,29	1347,56
485,50	1232,88
485,70	1267,69
485,90	1167,34
486,10	1271,79
486,30	1230,83
486,50	1277,93
486,71	1273,84
486,91	1318,89
487,11	1277,93
487,31	1320,94
487,51	1251,31
487,71	1269,74
487,91	1232,88
488,12	1359,85
488,32	1273,84
488,52	1333,23
488,72	1304,56
488,92	1230,83
489,12	1314,80
489,32	1366,00
489,53	1241,07
489,73	1236,97
489,93	1265,64
490,13	1224,69
490,33	1300,46
490,53	1271,79
490,73	1247,21
490,94	1282,03
491,14	1316,84
491,34	1277,93
491,54	1298,41
491,74	1290,22
491,94	1292,27
492,14	1325,04
492,34	1318,89
492,54	1265,64
492,75	1263,60
492,95	1277,93
493,15	1310,70
493,35	1220,59
493,55	1275,88
493,75	1216,49
493,95	1245,16
494,15	1261,55
494,35	1327,08
494,56	1273,84
494,76	1230,83
494,96	1314,80
495,16	1218,54
495,36	1263,60
495,56	1351,66
495,76	1273,84
495,96	1253,36
496,16	1329,13
496,36	1259,50
496,56	1282,03
496,77	1247,21
496,97	1308,65
497,17	1241,07
497,37	1288,17
497,57	1275,88
497,77	1239,02
497,97	1282,03
498,17	1251,31
498,37	1331,18
498,57	1282,03
498,77	1275,88
498,97	1320,94
499,17	1320,94
499,38	1282,03
499,58	1273,84
499,78	1228,78
499,98	1306,60
500,18	1236,97
500,38	1257,45
500,58	1245,16
500,78	1263,60
500,98	1277,93
501,18	1314,80
501,38	1243,12
501,58	1247,21
501,78	1241,07
501,98	1302,51
502,18	1368,04
502,38	1318,89
502,58	1308,65
502,78	1331,18
502,98	1279,98
503,18	1298,41
503,38	1243,12
503,59	1298,41
503,79	1249,26
503,99	1335,28
504,19	1271,79
504,39	1241,07
504,59	1269,74
504,79	1300,46
504,99	1245,16
505,19	1294,32
505,39	1261,55
505,59	1257,45
505,79	1331,18
505,99	1275,88
506,19	1255,40
506,39	1304,56
506,59	1245,16
506,79	1259,50
506,99	1257,45
507,19	1302,51
507,39	1343,47
507,59	1339,37
507,79	1212,40
507,99	1337,32
508,19	1292,27
508,39	1298,41
508,59	1265,64
508,79	1234,93
508,99	1224,69
509,19	1247,21
509,39	1296,36
509,59	1284,08
509,79	1337,32
509,99	1331,18
510,19	1318,89
510,39	1232,88
510,59	1308,65
510,79	1279,98
510,99	1290,22
511,19	1273,84
511,39	1241,07
511,59	1265,64
511,79	1275,88
511,99	1351,66
512,19	1296,36
512,38	1275,88
512,58	1200,11
512,78	1290,22
512,98	1253,36
513,18	1292,27
513,38	1261,55
513,58	1243,12
513,78	1249,26
513,98	1269,74
514,18	1189,87
514,38	1275,88
514,58	1263,60
514,78	1314,80
514,98	1316,84
515,18	1247,21
515,38	1337,32
515,58	1312,75
515,78	1236,97
515,98	1355,76
516,18	1251,31
516,38	1234,93
516,57	1210,35
516,77	1265,64
516,97	1279,98
517,17	1226,73
517,37	1183,73
517,57	1261,55
517,77	1316,84
517,97	1292,27
518,17	1318,89
518,37	1249,26
518,57	1255,40
518,77	1232,88
518,97	1275,88
519,16	1236,97
519,36	1230,83
519,56	1333,23
519,76	1261,55
519,96	1310,70
520,16	1277,93
520,36	1312,75
520,56	1279,98
520,76	1230,83
520,96	1267,69
521,16	1286,12
521,35	1292,27
521,55	1253,36
521,75	1390,57
521,95	1267,69
522,15	1335,28
522,35	1279,98
522,55	1243,12
522,75	1247,21
522,95	1275,88
523,14	1273,84
523,34	1230,83
523,54	1290,22
523,74	1275,88
523,94	1273,84
524,14	1232,88
524,34	1284,08
524,54	1322,99
524,73	1300,46
524,93	1220,59
525,13	1292,27
525,33	1292,27
525,53	1337,32
525,73	1284,08
525,93	1277,93
526,13	1277,93
526,32	1269,74
526,52	1234,93
526,72	1325,04
526,92	1331,18
527,12	1288,17
527,32	1271,79
527,52	1279,98
527,71	1308,65
527,91	1253,36
528,11	1316,84
528,31	1294,32
528,51	1218,54
528,71	1322,99
528,90	1241,07
529,10	1263,60
529,30	1363,95
529,50	1269,74
529,70	1263,60
529,90	1251,31
530,09	1273,84
530,29	1282,03
530,49	1302,51
530,69	1300,46
530,89	1208,30
531,09	1316,84
531,28	1220,59
531,48	1325,04
531,68	1239,02
531,88	1241,07
532,08	1255,40
532,28	1279,98
532,47	1304,56
532,67	1257,45
532,87	1269,74
533,07	1230,83
533,27	1253,36
533,46	1312,75
533,66	1284,08
533,86	1228,78
534,06	1331,18
534,26	1294,32
534,45	1279,98
534,65	1312,75
534,85	1185,77
535,05	1253,36
535,25	1312,75
535,44	1322,99
535,64	1275,88
535,84	1273,84
536,04	1345,52
536,24	1310,70
536,43	1210,35
536,63	1241,07
536,83	1378,28
537,03	1253,36
537,22	1282,03
537,42	1308,65
537,62	1259,50
537,82	1282,03
538,02	1314,80
538,21	1322,99
538,41	1292,27
538,61	1275,88
538,81	1294,32
539,00	1290,22
539,20	1335,28
539,40	1345,52
539,60	1290,22
539,79	1292,27
539,99	1290,22
540,19	1253,36
540,39	1259,50
540,58	1286,12
540,78	1294,32
540,98	1239,02
541,18	1320,94
541,37	1341,42
541,57	1269,74
541,77	1267,69
541,97	1345,52
542,16	1255,40
542,36	1263,60
542,56	1277,93
542,76	1355,76
542,95	1318,89
543,15	1271,79
543,35	1275,88
543,54	1245,16
543,74	1288,17
543,94	1292,27
544,14	1304,56
544,33	1296,36
544,53	1302,51
544,73	1257,45
544,93	1304,56
545,12	1288,17
545,32	1282,03
545,52	1265,64
545,71	1282,03
545,91	1191,92
546,11	1296,36
546,30	1255,40
546,50	1265,64
546,70	1288,17
546,90	1333,23
547,09	1173,49
547,29	1226,73
547,49	1222,64
547,68	1232,88
547,88	1296,36
548,08	1310,70
548,27	1355,76
548,47	1290,22
548,67	1275,88
548,87	1257,45
549,06	1366,00
549,26	1331,18
549,46	1294,32
549,65	1277,93
549,85	1230,83
550,05	1292,27
550,24	1196,01
550,44	1353,71
550,64	1300,46
550,83	1288,17
551,03	1249,26
551,23	1308,65
551,42	1247,21
551,62	1257,45
551,82	1277,93
552,01	1265,64
552,21	1325,04
552,41	1253,36
552,60	1253,36
552,80	1271,79
553,00	1249,26
553,19	1325,04
553,39	1325,04
553,59	1337,32
553,78	1296,36
553,98	1298,41
554,17	1298,41
554,37	1366,00
554,57	1261,55
554,76	1271,79
554,96	1257,45
555,16	1318,89
555,35	1302,51
555,55	1257,45
555,75	1253,36
555,94	1292,27
556,14	1314,80
556,33	1265,64
556,53	1179,63
556,73	1247,21
556,92	1304,56
557,12	1253,36
557,32	1335,28
557,51	1261,55
557,71	1261,55
557,90	1376,24
558,10	1236,97
558,30	1292,27
558,49	1308,65
558,69	1351,66
558,88	1275,88
559,08	1261,55
559,28	1331,18
559,47	1312,75
559,67	1290,22
559,86	1290,22
560,06	1261,55
560,26	1316,84
560,45	1355,76
560,65	1271,79
560,84	1288,17
561,04	1286,12
561,24	1339,37
561,43	1234,93
561,63	1241,07
561,82	1255,40
562,02	1277,93
562,22	1298,41
562,41	1304,56
562,61	1284,08
562,80	1302,51
563,00	1298,41
563,19	1306,60
563,39	1288,17
563,59	1271,79
563,78	1277,93
563,98	1370,09
564,17	1263,60
564,37	1335,28
564,56	1236,97
564,76	1320,94
564,96	1296,36
565,15	1253,36
565,35	1294,32
565,54	1310,70
565,74	1259,50
565,93	1216,49
566,13	1294,32
566,32	1294,32
566,52	1279,98
566,71	1306,60
566,91	1320,94
567,11	1288,17
567,30	1304,56
567,50	1316,84
567,69	1322,99
567,89	1257,45
568,08	1226,73
568,28	1239,02
568,47	1355,76
568,67	1265,64
568,86	1318,89
569,06	1279,98
569,25	1271,79
569,45	1226,73
569,64	1245,16
569,84	1271,79
570,04	1241,07
570,23	1241,07
570,43	1308,65
570,62	1241,07
570,82	1257,45
571,01	1322,99
571,21	1288,17
571,40	1239,02
571,60	1320,94
571,79	1300,46
571,99	1318,89
572,18	1259,50
572,38	1300,46
572,57	1224,69
572,77	1302,51
572,96	1257,45
573,16	1314,80
573,35	1353,71
573,55	1298,41
573,74	1265,64
573,94	1210,35
574,13	1239,02
574,33	1327,08
574,52	1249,26
574,71	1329,13
574,91	1251,31
575,10	1347,56
575,30	1232,88
575,49	1314,80
575,69	1271,79
575,88	1378,28
576,08	1282,03
576,27	1320,94
576,47	1269,74
576,66	1347,56
576,86	1261,55
577,05	1228,78
577,25	1288,17
577,44	1300,46
577,64	1286,12
577,83	1314,80
578,02	1265,64
578,22	1320,94
578,41	1204,21
578,61	1327,08
578,80	1320,94
579,00	1306,60
579,19	1320,94
579,39	1366,00
579,58	1347,56
579,77	1269,74
579,97	1253,36
580,16	1310,70
580,36	1341,42
580,55	1292,27
580,75	1341,42
580,94	1273,84
581,13	1232,88
581,33	1353,71
581,52	1257,45
581,72	1239,02
581,91	1275,88
582,11	1286,12
582,30	1228,78
582,49	1232,88
582,69	1288,17
582,88	1265,64
583,08	1288,17
583,27	1226,73
583,47	1249,26
583,66	1335,28
583,85	1279,98
584,05	1318,89
584,24	1318,89
584,44	1363,95
584,63	1306,60
584,82	1261,55
585,02	1339,37
585,21	1273,84
585,41	1232,88
585,60	1208,30
585,79	1322,99
585,99	1304,56
586,18	1376,24
586,37	1306,60
586,57	1322,99
586,76	1275,88
586,96	1339,37
587,15	1239,02
587,34	1265,64
587,54	1275,88
587,73	1273,84
587,93	1228,78
588,12	1216,49
588,31	1292,27
588,51	1224,69
588,70	1282,03
588,89	1259,50
589,09	1255,40
589,28	1216,49
589,47	1284,08
589,67	1288,17
589,86	1257,45
590,06	1308,65
590,25	1308,65
590,44	1230,83
590,64	1216,49
590,83	1286,12
591,02	1322,99
591,22	1269,74
591,41	1282,03
591,60	1271,79
591,80	1308,65
591,99	1306,60
592,18	1218,54
592,38	1277,93
592,57	1261,55
592,76	1226,73
592,96	1286,12
593,15	1310,70
593,34	1265,64
593,54	1337,32
593,73	1331,18
593,92	1210,35
594,12	1310,70
594,31	1288,17
594,50	1298,41
594,70	1284,08
594,89	1312,75
595,08	1286,12
595,28	1312,75
595,47	1288,17
595,66	1282,03
595,86	1284,08
596,05	1273,84
596,24	1269,74
596,43	1343,47
596,63	1208,30
596,82	1265,64
597,01	1329,13
597,21	1214,45
597,40	1239,02
597,59	1247,21
597,79	1241,07
597,98	1265,64
598,17	1286,12
598,36	1253,36
598,56	1226,73
598,75	1304,56
598,94	1269,74
599,14	1247,21
599,33	1306,60
599,52	1275,88
599,71	1282,03
599,91	1251,31
600,10	1277,93
600,29	1288,17
600,48	1298,41
600,68	1404,91
600,87	1310,70
601,06	1257,45
601,26	1259,50
601,45	1290,22
601,64	1337,32
601,83	1288,17
602,03	1292,27
602,22	1236,97
602,41	1273,84
602,60	1308,65
602,80	1271,79
602,99	1230,83
603,18	1236,97
603,37	1224,69
603,57	1296,36
603,76	1253,36
603,95	1290,22
604,14	1214,45
604,34	1279,98
604,53	1286,12
604,72	1249,26
604,91	1322,99
605,10	1224,69
605,30	1294,32
605,49	1302,51
605,68	1261,55
605,87	1288,17
606,07	1308,65
606,26	1314,80
606,45	1257,45
606,64	1300,46
606,84	1312,75
607,03	1259,50
607,22	1286,12
607,41	1257,45
607,60	1212,40
607,80	1261,55
607,99	1337,32
608,18	1318,89
608,37	1290,22
608,56	1269,74
608,76	1279,98
608,95	1239,02
609,14	1265,64
609,33	1222,64
609,52	1259,50
609,72	1284,08
609,91	1236,97
610,10	1249,26
610,29	1351,66
610,48	1282,03
610,68	1286,12
610,87	1253,36
611,06	1259,50
611,25	1312,75
611,44	1333,23
611,63	1269,74
611,83	1316,84
612,02	1300,46
612,21	1251,31
612,40	1251,31
612,59	1310,70
612,79	1351,66
612,98	1306,60
613,17	1304,56
613,36	1355,76
613,55	1277,93
613,74	1271,79
613,93	1224,69
614,13	1292,27
614,32	1269,74
614,51	1275,88
614,70	1318,89
614,89	1284,08
615,08	1263,60
615,28	1349,61
615,47	1312,75
615,66	1271,79
615,85	1294,32
616,04	1218,54
616,23	1239,02
616,42	1269,74
616,62	1257,45
616,81	1349,61
617,00	1263,60
617,19	1247,21
617,38	1290,22
617,57	1325,04
617,76	1286,12
617,95	1286,12
618,15	1279,98
618,34	1263,60
618,53	1304,56
618,72	1218,54
618,91	1329,13
619,10	1318,89
619,29	1292,27
619,48	1327,08
619,68	1243,12
619,87	1263,60
620,06	1288,17
620,25	1298,41
620,44	1269,74
620,63	1372,14
620,82	1273,84
621,01	1290,22
621,20	1224,69
621,39	1302,51
621,59	1318,89
621,78	1298,41
621,97	1257,45
622,16	1249,26
622,35	1245,16
622,54	1327,08
622,73	1302,51
622,92	1286,12
623,11	1265,64
623,30	1208,30
623,49	1239,02
623,68	1277,93
623,88	1273,84
624,07	1329,13
624,26	1263,60
624,45	1265,64
624,64	1314,80
624,83	1263,60
625,02	1316,84
625,21	1263,60
625,40	1269,74
625,59	1288,17
625,78	1269,74
625,97	1304,56
626,16	1304,56
626,35	1273,84
626,54	1310,70
626,74	1331,18
626,93	1275,88
627,12	1322,99
627,31	1302,51
627,50	1288,17
627,69	1273,84
627,88	1296,36
628,07	1339,37
628,26	1218,54
628,45	1277,93
628,64	1312,75
628,83	1271,79
629,02	1263,60
629,21	1343,47
629,40	1251,31
629,59	1245,16
629,78	1304,56
629,97	1320,94
630,16	1308,65
630,35	1357,80
630,54	1298,41
630,73	1318,89
630,92	1341,42
631,11	1277,93
631,30	1363,95
631,49	1333,23
631,68	1406,95
631,87	1464,30
632,06	1701,86
632,25	1478,63
632,44	1535,98
632,63	1757,16
632,82	1943,52
633,01	2152,42
633,20	1982,43
633,39	1951,71
633,58	1955,81
633,77	1910,75
633,96	2039,78
634,15	1886,18
634,34	1972,19
634,53	1920,99
634,72	1904,61
634,91	1828,84
635,10	1640,42
635,29	1636,33
635,48	1597,42
635,67	1519,59
635,86	1396,71
636,05	1454,06
636,24	1382,38
636,43	1329,13
636,62	1382,38
636,81	1282,03
637,00	1337,32
637,19	1363,95
637,38	1298,41
637,57	1320,94
637,76	1316,84
637,95	1243,12
638,14	1325,04
638,33	1333,23
638,52	1265,64
638,71	1306,60
638,89	1347,56
639,08	1222,64
639,27	1275,88
639,46	1255,40
639,65	1265,64
639,84	1353,71
640,03	1292,27
640,22	1247,21
640,41	1312,75
640,60	1261,55
640,79	1265,64
640,98	1198,06
641,17	1279,98
641,36	1265,64
641,55	1263,60
641,74	1308,65
641,92	1224,69
642,11	1228,78
642,30	1261,55
642,49	1277,93
642,68	1232,88
642,87	1218,54
643,06	1249,26
643,25	1261,55
643,44	1298,41
643,63	1267,69
643,82	1292,27
644,00	1318,89
644,19	1286,12
644,38	1163,25
644,57	1282,03
644,76	1284,08
644,95	1298,41
645,14	1331,18
645,33	1314,80
645,52	1236,97
645,71	1320,94
645,89	1316,84
646,08	1228,78
646,27	1263,60
646,46	1282,03
646,65	1200,11
646,84	1333,23
647,03	1214,45
647,22	1288,17
647,40	1282,03
647,59	1249,26
647,78	1275,88
647,97	1292,27
648,16	1230,83
648,35	1234,93
648,54	1298,41
648,73	1222,64
648,91	1318,89
649,10	1279,98
649,29	1288,17
649,48	1210,35
649,67	1282,03
649,86	1282,03
650,05	1347,56
650,23	1267,69
650,42	1294,32
650,61	1296,36
650,80	1273,84
650,99	1251,31
651,18	1302,51
651,36	1269,74
651,55	1269,74
651,74	1302,51
651,93	1275,88
652,12	1306,60
652,31	1273,84
652,49	1249,26
652,68	1241,07
652,87	1282,03
653,06	1257,45
653,25	1230,83
653,44	1273,84
653,62	1312,75
653,81	1320,94
654,00	1302,51
654,19	1312,75
654,38	1214,45
654,56	1251,31
654,75	1228,78
654,94	1222,64
655,13	1206,25
655,32	1310,70
655,51	1241,07
655,69	1202,16
655,88	1265,64
656,07	1290,22
656,26	1294,32
656,45	1251,31
656,63	1279,98
656,82	1341,42
657,01	1279,98
657,20	1277,93
657,38	1366,00
657,57	1249,26
657,76	1267,69
657,95	1245,16
658,14	1341,42
658,32	1259,50
658,51	1327,08
658,70	1257,45
658,89	1298,41
659,08	1329,13
659,26	1282,03
659,45	1202,16
659,64	1261,55
659,83	1300,46
660,01	1279,98
660,20	1331,18
660,39	1263,60
660,58	1247,21
660,76	1296,36
660,95	1200,11
661,14	1226,73
661,33	1232,88
661,51	1318,89
661,70	1239,02
661,89	1306,60
662,08	1300,46
662,26	1261,55
662,45	1290,22
662,64	1288,17
662,83	1333,23
663,01	1294,32
663,20	1325,04
663,39	1271,79
663,58	1314,80
663,76	1249,26
663,95	1230,83
664,14	1255,40
664,32	1308,65
664,51	1239,02
664,70	1265,64
664,89	1251,31
665,07	1300,46
665,26	1261,55
665,45	1300,46
665,64	1253,36
665,82	1236,97
666,01	1220,59
666,20	1249,26
666,38	1259,50
666,57	1286,12
666,76	1279,98
666,95	1269,74
667,13	1259,50
667,32	1306,60
667,51	1155,05
667,69	1253,36
667,88	1300,46
668,07	1318,89
668,25	1267,69
668,44	1249,26
668,63	1296,36
668,81	1284,08
669,00	1304,56
669,19	1292,27
669,38	1261,55
669,56	1359,85
669,75	1222,64
669,94	1239,02
670,12	1282,03
670,31	1222,64
670,50	1310,70
670,68	1288,17
670,87	1290,22
671,06	1292,27
671,24	1310,70
671,43	1243,12
671,62	1290,22
671,80	1255,40
671,99	1265,64
672,18	1392,62
672,36	1304,56
672,55	1296,36
672,74	1294,32
672,92	1251,31
673,11	1314,80
673,29	1247,21
673,48	1271,79
673,67	1210,35
673,85	1318,89
674,04	1284,08
674,23	1247,21
674,41	1267,69
674,60	1249,26
674,79	1261,55
674,97	1249,26
675,16	1210,35
675,34	1216,49
675,53	1322,99
675,72	1267,69
675,90	1265,64
676,09	1284,08
676,28	1337,32
676,46	1286,12
676,65	1216,49
676,83	1290,22
677,02	1183,73
677,21	1275,88
677,39	1243,12
677,58	1253,36
677,77	1349,61
677,95	1282,03
678,14	1273,84
678,32	1282,03
678,51	1216,49
678,70	1241,07
678,88	1282,03
679,07	1341,42
679,25	1286,12
679,44	1247,21
679,63	1224,69
679,81	1282,03
680,00	1288,17
680,18	1243,12
680,37	1312,75
680,55	1335,28
680,74	1271,79
680,93	1277,93
681,11	1230,83
681,30	1249,26
681,48	1298,41
681,67	1212,40
681,85	1241,07
682,04	1220,59
682,23	1234,93
682,41	1236,97
682,60	1230,83
682,78	1277,93
682,97	1251,31
683,15	1376,24
683,34	1265,64
683,53	1251,31
683,71	1253,36
683,90	1294,32
684,08	1255,40
684,27	1347,56
684,45	1304,56
684,64	1255,40
684,82	1269,74
685,01	1204,21
685,19	1224,69
685,38	1226,73
685,57	1277,93
685,75	1273,84
685,94	1257,45
686,12	1290,22
686,31	1232,88
686,49	1308,65
686,68	1177,58
686,86	1308,65
687,05	1220,59
687,23	1284,08
687,42	1325,04
687,60	1228,78
687,79	1236,97
687,97	1249,26
688,16	1316,84
688,34	1216,49
688,53	1191,92
688,71	1259,50
688,90	1236,97
689,08	1265,64
689,27	1282,03
689,45	1230,83
689,64	1263,60
689,82	1312,75
690,01	1275,88
690,19	1296,36
690,38	1265,64
690,56	1257,45
690,75	1325,04
690,93	1275,88
691,12	1267,69
691,30	1275,88
691,49	1314,80
691,67	1239,02
691,86	1220,59
692,04	1222,64
692,23	1331,18
692,41	1282,03
692,60	1318,89
692,78	1345,52
692,97	1224,69
693,15	1329,13
693,34	1351,66
693,52	1290,22
693,71	1284,08
693,89	1304,56
694,08	1294,32
694,26	1259,50
694,44	1296,36
694,63	1251,31
694,81	1218,54
695,00	1212,40
695,18	1255,40
695,37	1296,36
695,55	1259,50
695,74	1284,08
695,92	1296,36
696,10	1296,36
696,29	1271,79
696,47	1239,02
696,66	1245,16
696,84	1261,55
697,03	1226,73
697,21	1214,45
697,40	1286,12
697,58	1239,02
697,76	1296,36
697,95	1275,88
698,13	1267,69
698,32	1275,88
698,50	1196,01
698,68	1236,97
698,87	1251,31
699,05	1179,63
699,24	1294,32
699,42	1271,79
699,61	1255,40
699,79	1200,11
699,97	1257,45
700,16	1196,01
700,34	1271,79
700,53	1292,27
700,71	1257,45
700,89	1345,52
701,08	1257,45
701,26	1251,31
701,45	1325,04
701,63	1316,84
701,81	1271,79
702,00	1206,25
702,18	1331,18
702,37	1224,69
702,55	1269,74
702,73	1249,26
702,92	1245,16
703,10	1335,28
703,28	1261,55
703,47	1279,98
703,65	1271,79
703,84	1279,98
704,02	1298,41
704,20	1316,84
704,39	1282,03
704,57	1263,60
704,75	1247,21
704,94	1294,32
705,12	1288,17
705,30	1249,26
705,49	1243,12
705,67	1286,12
705,86	1339,37
706,04	1343,47
706,22	1308,65
706,41	1273,84
706,59	1327,08
706,77	1284,08
706,96	1290,22
707,14	1298,41
707,32	1220,59
707,51	1212,40
707,69	1257,45
707,87	1275,88
708,06	1320,94
708,24	1304,56
708,42	1284,08
708,61	1249,26
708,79	1329,13
708,97	1263,60
709,16	1177,58
709,34	1331,18
709,52	1298,41
709,71	1226,73
709,89	1265,64
710,07	1263,60
710,26	1247,21
710,44	1302,51
710,62	1232,88
710,80	1198,06
710,99	1269,74
711,17	1239,02
711,35	1255,40
711,54	1327,08
711,72	1208,30
711,90	1306,60
712,09	1347,56
712,27	1288,17
712,45	1265,64
712,63	1341,42
712,82	1292,27
713,00	1228,78
713,18	1275,88
713,37	1232,88
713,55	1251,31
713,73	1284,08
713,91	1253,36
714,10	1292,27
714,28	1200,11
714,46	1304,56
714,65	1261,55
714,83	1275,88
715,01	1333,23
715,19	1329,13
715,38	1337,32
715,56	1333,23
715,74	1253,36
715,92	1239,02
716,11	1261,55
716,29	1177,58
716,47	1300,46
716,65	1320,94
716,84	1275,88
717,02	1320,94
717,20	1261,55
717,38	1232,88
717,57	1316,84
717,75	1263,60
717,93	1290,22
718,11	1290,22
718,30	1230,83
718,48	1298,41
718,66	1286,12
718,84	1318,89
719,03	1320,94
719,21	1236,97
719,39	1236,97
719,57	1226,73
719,75	1222,64
719,94	1292,27
720,12	1222,64
720,30	1239,02
720,48	1210,35
720,67	1286,12
720,85	1259,50
721,03	1322,99
721,21	1275,88
721,39	1265,64
721,58	1193,97
721,76	1216,49
721,94	1269,74
722,12	1277,93
722,30	1269,74
722,49	1247,21
722,67	1253,36
722,85	1265,64
723,03	1239,02
723,21	1339,37
723,40	1292,27
723,58	1257,45
723,76	1316,84
723,94	1271,79
724,12	1251,31
724,30	1265,64
724,49	1232,88
724,67	1196,01
724,85	1253,36
725,03	1277,93
725,21	1351,66
725,40	1314,80
725,58	1314,80
725,76	1249,26
725,94	1273,84
726,12	1275,88
726,30	1284,08
726,49	1298,41
726,67	1279,98
726,85	1286,12
727,03	1290,22
727,21	1273,84
727,39	1251,31
727,57	1198,06
727,76	1261,55
727,94	1306,60
728,12	1290,22
728,30	1302,51
728,48	1331,18
728,66	1314,80
728,84	1214,45
729,03	1249,26
729,21	1202,16
729,39	1232,88
729,57	1220,59
729,75	1249,26
729,93	1245,16
730,11	1296,36
730,30	1339,37
730,48	1261,55
730,66	1282,03
730,84	1245,16
731,02	1265,64
731,20	1277,93
731,38	1292,27
731,56	1261,55
731,74	1273,84
731,93	1322,99
732,11	1208,30
732,29	1216,49
732,47	1236,97
732,65	1304,56
732,83	1290,22
733,01	1286,12
733,19	1255,40
733,37	1259,50
733,56	1241,07
733,74	1294,32
733,92	1232,88
734,10	1275,88
734,28	1304,56
734,46	1279,98
734,64	1232,88
734,82	1241,07
735,00	1265,64
735,18	1259,50
735,36	1271,79
735,54	1284,08
735,73	1261,55
735,91	1273,84
736,09	1253,36
736,27	1218,54
736,45	1320,94
736,63	1249,26
736,81	1249,26
736,99	1282,03
737,17	1279,98
737,35	1294,32
737,53	1236,97
737,71	1312,75
737,89	1247,21
738,07	1279,98
738,25	1247,21
738,43	1277,93
738,61	1294,32
738,80	1196,01
738,98	1273,84
739,16	1292,27
739,34	1267,69
739,52	1286,12
739,70	1230,83
739,88	1294,32
740,06	1249,26
740,24	1218,54
740,42	1257,45
740,60	1286,12
740,78	1153,01
740,96	1239,02
741,14	1269,74
741,32	1208,30
741,50	1294,32
741,68	1257,45
741,86	1271,79
742,04	1196,01
742,22	1273,84
742,40	1284,08
742,58	1198,06
742,76	1288,17
742,94	1302,51
743,12	1318,89
743,30	1187,82
743,48	1288,17
743,66	1275,88
743,84	1212,40
744,02	1167,34
744,20	1234,93
744,38	1284,08
744,56	1265,64
744,74	1294,32
744,92	1298,41
745,10	1261,55
745,28	1353,71
745,46	1292,27
745,64	1251,31
745,82	1265,64
746,00	1257,45
746,18	1249,26
746,36	1253,36
746,54	1273,84
746,72	1245,16
746,90	1228,78
747,08	1290,22
747,26	1271,79
747,44	1282,03
747,62	1327,08
747,80	1345,52
747,98	1239,02
748,15	1263,60
748,33	1275,88
748,51	1294,32
748,69	1187,82
748,87	1232,88
749,05	1263,60
749,23	1320,94
749,41	1351,66
749,59	1279,98
749,77	1208,30
749,95	1253,36
750,13	1196,01
750,31	1243,12
750,49	1298,41
750,67	1298,41
750,85	1265,64
751,03	1290,22
751,20	1234,93
751,38	1255,40
751,56	1282,03
751,74	1267,69
751,92	1339,37
752,10	1202,16
752,28	1265,64
752,46	1282,03
752,64	1239,02
752,82	1161,20
753,00	1255,40
753,18	1282,03
753,35	1222,64
753,53	1226,73
753,71	1284,08
753,89	1298,41
754,07	1253,36
754,25	1263,60
754,43	1220,59
754,61	1279,98
754,79	1294,32
754,97	1206,25
755,14	1298,41
755,32	1271,79
755,50	1253,36
755,68	1304,56
755,86	1249,26
756,04	1263,60
756,22	1228,78
756,40	1279,98
756,57	1314,80
756,75	1214,45
756,93	1273,84
757,11	1290,22
757,29	1212,40
757,47	1347,56
757,65	1228,78
757,82	1269,74
758,00	1222,64
758,18	1284,08
758,36	1286,12
758,54	1339,37
758,72	1290,22
758,90	1310,70
759,07	1286,12
759,25	1261,55
759,43	1322,99
759,61	1288,17
759,79	1298,41
759,97	1245,16
760,15	1245,16
760,32	1271,79
760,50	1216,49
760,68	1271,79
760,86	1224,69
761,04	1255,40
761,22	1261,55
761,39	1247,21
761,57	1271,79
761,75	1290,22
761,93	1282,03
762,11	1245,16
762,28	1312,75
762,46	1271,79
762,64	1275,88
762,82	1259,50
763,00	1236,97
763,18	1208,30
763,35	1239,02
763,53	1263,60
763,71	1259,50
763,89	1263,60
764,07	1282,03
764,24	1273,84
764,42	1286,12
764,60	1282,03
764,78	1267,69
764,96	1228,78
765,13	1298,41
765,31	1290,22
765,49	1230,83
765,67	1241,07
765,84	1333,23
766,02	1282,03
766,20	1224,69
766,38	1275,88
766,56	1310,70
766,73	1312,75
766,91	1277,93
767,09	1279,98
767,27	1243,12
767,44	1265,64
767,62	1286,12
767,80	1257,45
767,98	1275,88
768,15	1282,03
768,33	1230,83
768,51	1361,90
768,69	1298,41
768,87	1296,36
769,04	1279,98
769,22	1253,36
769,40	1177,58
769,58	1329,13
769,75	1232,88
769,93	1216,49
770,11	1277,93
770,28	1306,60
770,46	1255,40
770,64	1220,59
770,82	1294,32
770,99	1312,75
771,17	1245,16
771,35	1247,21
771,53	1236,97
771,70	1228,78
771,88	1288,17
772,06	1296,36
772,23	1236,97
772,41	1284,08
772,59	1253,36
772,77	1255,40
772,94	1304,56
773,12	1322,99
773,30	1245,16
773,47	1277,93
773,65	1259,50
773,83	1187,82
774,01	1300,46
774,18	1282,03
774,36	1222,64
774,54	1318,89
774,71	1265,64
774,89	1222,64
775,07	1259,50
775,24	1200,11
775,42	1214,45
775,60	1298,41
775,78	1239,02
775,95	1261,55
776,13	1210,35
776,31	1198,06
776,48	1249,26
776,66	1333,23
776,84	1230,83
777,01	1282,03
777,19	1322,99
777,37	1277,93
777,54	1234,93
777,72	1284,08
777,90	1243,12
778,07	1286,12
778,25	1341,42
778,43	1290,22
778,60	1275,88
778,78	1245,16
778,96	1247,21
779,13	1267,69
779,31	1232,88
779,49	1245,16
779,66	1234,93
779,84	1224,69
780,01	1216,49
780,19	1277,93
780,37	1218,54
780,54	1322,99
780,72	1349,61
780,90	1306,60
781,07	1243,12
781,25	1249,26
781,43	1234,93
781,60	1261,55
781,78	1232,88
781,95	1294,32
782,13	1220,59
782,31	1236,97
782,48	1343,47
782,66	1265,64
782,83	1284,08
783,01	1294,32
783,19	1292,27
783,36	1257,45
783,54	1312,75
783,72	1241,07
783,89	1234,93
784,07	1265,64
784,24	1343,47
784,42	1257,45
784,60	1253,36
784,77	1239,02
784,95	1306,60
785,12	1243,12
785,30	1279,98
785,47	1249,26
785,65	1261,55
785,83	1247,21
786,00	1275,88
786,18	1292,27
786,35	1267,69
786,53	1247,21
786,71	1271,79
786,88	1273,84
787,06	1214,45
787,23	1312,75
787,41	1245,16
787,58	1294,32
787,76	1239,02
787,94	1261,55
788,11	1251,31
788,29	1290,22
788,46	1269,74
788,64	1255,40
788,81	1318,89
788,99	1282,03
789,16	1228,78
789,34	1271,79
789,52	1271,79
789,69	1222,64
789,87	1277,93
790,04	1290,22
790,22	1236,97
790,39	1228,78
790,57	1302,51
790,74	1288,17
790,92	1153,01
791,09	1241,07
791,27	1255,40
791,44	1253,36
791,62	1284,08
791,79	1290,22
791,97	1206,25
792,15	1335,28
792,32	1261,55
792,50	1234,93
792,67	1220,59
792,85	1271,79
793,02	1253,36
793,20	1269,74
793,37	1329,13
793,55	1247,21
793,72	1247,21
793,90	1257,45
794,07	1212,40
794,25	1312,75
794,42	1277,93
794,60	1214,45
794,77	1265,64
794,95	1290,22
795,12	1271,79
795,30	1279,98
795,47	1282,03
795,65	1249,26
795,82	1302,51
796,00	1224,69
796,17	1255,40
796,34	1202,16
796,52	1257,45
796,69	1312,75
796,87	1259,50
797,04	1220,59
797,22	1265,64
797,39	1284,08
797,57	1279,98
797,74	1249,26
797,92	1257,45
798,09	1300,46
798,27	1279,98
798,44	1239,02
798,62	1212,40
798,79	1226,73
798,96	1241,07
799,14	1277,93
799,31	1247,21
799,49	1277,93
799,66	1298,41
799,84	1247,21
800,01	1251,31
800,19	1245,16
800,36	1249,26
800,53	1286,12
800,71	1255,40
800,88	1277,93
801,06	1290,22
801,23	1245,16
801,41	1249,26
801,58	1208,30
801,75	1228,78
801,93	1228,78
802,10	1249,26
802,28	1228,78
802,45	1279,98
802,63	1241,07
802,80	1263,60
802,97	1273,84
803,15	1249,26
803,32	1322,99
803,50	1257,45
803,67	1232,88
803,84	1247,21
804,02	1298,41
804,19	1282,03
804,37	1271,79
804,54	1331,18
804,71	1290,22
804,89	1318,89
805,06	1239,02
805,24	1275,88
805,41	1298,41
805,58	1269,74
805,76	1230,83
805,93	1234,93
806,10	1196,01
806,28	1290,22
806,45	1339,37
806,63	1286,12
806,80	1316,84
806,97	1310,70
807,15	1239,02
807,32	1257,45
807,49	1273,84
807,67	1339,37
807,84	1241,07
808,01	1187,82
808,19	1273,84
808,36	1273,84
808,54	1279,98
808,71	1247,21
808,88	1269,74
809,06	1308,65
809,23	1232,88
809,40	1296,36
809,58	1232,88
809,75	1234,93
809,92	1271,79
810,10	1292,27
810,27	1220,59
810,44	1312,75
810,62	1271,79
810,79	1261,55
810,96	1200,11
811,14	1202,16
811,31	1304,56
811,48	1302,51
811,66	1320,94
811,83	1259,50
812,00	1226,73
812,18	1259,50
812,35	1255,40
812,52	1208,30
812,69	1255,40
812,87	1282,03
813,04	1226,73
813,21	1286,12
813,39	1312,75
813,56	1288,17
813,73	1247,21
813,91	1314,80
814,08	1259,50
814,25	1257,45
814,42	1249,26
814,60	1263,60
814,77	1290,22
814,94	1210,35
815,12	1296,36
815,29	1282,03
815,46	1224,69
815,63	1251,31
815,81	1292,27
815,98	1245,16
816,15	1318,89
816,33	1204,21
816,50	1363,95
816,67	1277,93
816,84	1277,93
817,02	1214,45
817,19	1275,88
817,36	1265,64
817,53	1263,60
817,71	1277,93
817,88	1249,26
818,05	1318,89
818,22	1312,75
818,40	1341,42
818,57	1241,07
818,74	1191,92
818,91	1300,46
819,09	1259,50
819,26	1345,52
819,43	1247,21
819,60	1175,53
819,78	1249,26
819,95	1208,30
820,12	1255,40
820,29	1263,60
820,47	1290,22
820,64	1312,75
820,81	1320,94
820,98	1355,76
821,15	1261,55
821,33	1239,02
821,50	1251,31
821,67	1257,45
821,84	1292,27
822,02	1222,64
822,19	1290,22
822,36	1314,80
822,53	1236,97
822,70	1243,12
822,88	1277,93
823,05	1249,26
823,22	1290,22
823,39	1239,02
823,56	1222,64
823,74	1261,55
823,91	1288,17
824,08	1265,64
824,25	1322,99
824,42	1243,12
824,60	1265,64
824,77	1251,31
824,94	1284,08
825,11	1288,17
825,28	1318,89
825,45	1275,88
825,63	1265,64
825,80	1310,70
825,97	1253,36
826,14	1224,69
826,31	1271,79
826,48	1218,54
826,66	1179,63
826,83	1357,80
827,00	1288,17
827,17	1353,71
827,34	1318,89
827,51	1288,17
827,69	1290,22
827,86	1296,36
828,03	1187,82
828,20	1314,80
828,37	1275,88
828,54	1224,69
828,71	1261,55
828,89	1232,88
829,06	1279,98
829,23	1298,41
829,40	1384,43
829,57	1275,88
829,74	1263,60
829,91	1269,74
830,09	1314,80
830,26	1230,83
830,43	1159,15
830,60	1245,16
830,77	1304,56
830,94	1286,12
831,11	1171,44
831,28	1247,21
831,46	1290,22
831,63	1251,31
831,80	1337,32
831,97	1234,93
832,14	1277,93
832,31	1341,42
832,48	1241,07
832,65	1269,74
832,82	1208,30
832,99	1257,45
833,17	1222,64
833,34	1243,12
833,51	1249,26
833,68	1261,55
833,85	1228,78
834,02	1245,16
834,19	1230,83
834,36	1308,65
834,53	1331,18
834,70	1167,34
834,87	1230,83
835,04	1322,99
835,22	1269,74
835,39	1306,60
835,56	1255,40
835,73	1230,83
835,90	1257,45
836,07	1271,79
836,24	1224,69
836,41	1226,73
836,58	1288,17
836,75	1325,04
836,92	1265,64
837,09	1253,36
837,26	1306,60
837,43	1267,69
837,60	1282,03
837,77	1236,97
837,94	1294,32
838,12	1218,54
838,29	1308,65
838,46	1189,87
838,63	1234,93
838,80	1251,31
838,97	1296,36
839,14	1288,17
839,31	1261,55
839,48	1310,70
839,65	1234,93
839,82	1329,13
839,99	1247,21
840,16	1255,40
840,33	1325,04
840,50	1263,60
840,67	1329,13
840,84	1247,21
841,01	1253,36
841,18	1261,55
841,35	1320,94
841,52	1337,32
841,69	1368,04
841,86	1228,78
842,03	1239,02
842,20	1316,84
842,37	1329,13
842,54	1261,55
842,71	1200,11
842,88	1265,64
843,05	1275,88
843,22	1286,12
843,39	1222,64
843,56	1265,64
843,73	1296,36
843,90	1206,25
844,07	1239,02
844,24	1335,28
844,41	1318,89
844,58	1232,88
844,75	1265,64
844,92	1279,98
845,09	1273,84
845,26	1282,03
845,43	1198,06
845,60	1267,69
845,77	1230,83
845,94	1239,02
846,10	1318,89
846,27	1290,22
846,44	1273,84
846,61	1236,97
846,78	1294,32
846,95	1288,17
847,12	1267,69
847,29	1261,55
847,46	1196,01
847,63	1253,36
847,80	1243,12
847,97	1304,56
848,14	1261,55
848,31	1294,32
848,48	1304,56
848,65	1253,36
848,82	1286,12
848,98	1247,21
849,15	1290,22
849,32	1222,64
849,49	1245,16
849,66	1286,12
849,83	1245,16
850,00	1261,55
850,17	1196,01
850,34	1277,93
850,51	1234,93
850,68	1220,59
850,85	1220,59
851,01	1312,75
851,18	1212,40
851,35	1300,46
851,52	1253,36
851,69	1251,31
851,86	1271,79
852,03	1255,40
852,20	1273,84
852,37	1273,84
852,53	1214,45
852,70	1261,55
852,87	1261,55
853,04	1247,21
853,21	1269,74
853,38	1357,80
853,55	1314,80
853,72	1255,40
853,89	1259,50
854,05	1329,13
854,22	1236,97
854,39	1300,46
854,56	1316,84
854,73	1329,13
854,90	1347,56
855,07	1261,55
855,23	1236,97
855,40	1277,93
855,57	1259,50
855,74	1218,54
855,91	1320,94
856,08	1214,45
856,25	1304,56
856,41	1249,26
856,58	1249,26
856,75	1241,07
856,92	1228,78
857,09	1382,38
857,26	1210,35
857,42	1226,73
857,59	1275,88
857,76	1271,79
857,93	1325,04
858,10	1294,32
858,27	1212,40
858,43	1308,65
858,60	1259,50
858,77	1222,64
858,94	1181,68
859,11	1292,27
859,27	1243,12
859,44	1331,18
859,61	1298,41
859,78	1292,27
859,95	1318,89
860,12	1220,59
860,28	1212,40
860,45	1273,84
860,62	1267,69
860,79	1271,79
860,95	1288,17
861,12	1216,49
861,29	1177,58
861,46	1288,17
861,63	1279,98
861,79	1286,12
861,96	1282,03
862,13	1290,22
862,30	1257,45
862,47	1327,08
862,63	1257,45
862,80	1279,98
862,97	1255,40
863,14	1306,60
863,30	1247,21
863,47	1290,22
863,64	1263,60
863,81	1335,28
863,97	1269,74
864,14	1265,64
864,31	1236,97
864,48	1294,32
864,65	1249,26
864,81	1306,60
864,98	1316,84
865,15	1290,22
865,32	1294,32
865,48	1232,88
865,65	1363,95
865,82	1333,23
865,98	1245,16
866,15	1261,55
866,32	1316,84
866,49	1290,22
866,65	1302,51
866,82	1275,88
866,99	1267,69
867,16	1316,84
867,32	1218,54
867,49	1234,93
867,66	1251,31
867,83	1314,80
867,99	1263,60
868,16	1200,11
868,33	1322,99
868,49	1251,31
868,66	1337,32
868,83	1300,46
868,99	1314,80
869,16	1255,40
869,33	1277,93
869,50	1245,16
869,66	1243,12
869,83	1265,64
870,00	1271,79
870,16	1224,69
870,33	1249,26
870,50	1239,02
870,66	1255,40
870,83	1273,84
871,00	1247,21
871,17	1284,08
871,33	1251,31
871,50	1243,12
871,67	1279,98
871,83	1245,16
872,00	1286,12
872,17	1292,27
872,33	1253,36
872,50	1288,17
872,67	1255,40
872,83	1335,28
873,00	1269,74
873,17	1294,32
873,33	1222,64
873,50	1308,65
873,67	1286,12
873,83	1294,32
874,00	1187,82
874,16	1290,22
874,33	1300,46
874,50	1277,93
874,66	1271,79
874,83	1239,02
875,00	1249,26
875,16	1228,78
875,33	1255,40
875,50	1345,52
875,66	1222,64
875,83	1181,68
875,99	1329,13
876,16	1277,93
876,33	1294,32
876,49	1241,07
876,66	1279,98
876,83	1251,31
876,99	1310,70
877,16	1243,12
877,32	1288,17
877,49	1232,88
877,66	1208,30
877,82	1329,13
877,99	1322,99
878,15	1294,32
878,32	1241,07
878,49	1253,36
878,65	1214,45
878,82	1206,25
878,98	1284,08
879,15	1306,60
879,32	1286,12
879,48	1265,64
879,65	1286,12
879,81	1255,40
879,98	1230,83
880,15	1247,21
880,31	1259,50
880,48	1273,84
880,64	1302,51
880,81	1279,98
880,97	1282,03
881,14	1296,36
881,31	1259,50
881,47	1304,56
881,64	1241,07
881,80	1290,22
881,97	1167,34
882,13	1253,36
882,30	1212,40
882,47	1249,26
882,63	1204,21
882,80	1247,21
882,96	1245,16
883,13	1208,30
883,29	1259,50
883,46	1273,84
883,62	1265,64
883,79	1302,51
883,95	1277,93
884,12	1284,08
884,29	1200,11
884,45	1269,74
884,62	1267,69
884,78	1265,64
884,95	1279,98
885,11	1304,56
885,28	1292,27
885,44	1263,60
885,61	1275,88
885,77	1302,51
885,94	1273,84
886,10	1263,60
886,27	1320,94
886,43	1265,64
886,60	1200,11
886,76	1239,02
886,93	1259,50
887,09	1298,41
887,26	1255,40
887,42	1306,60
887,59	1275,88
887,75	1267,69
887,92	1347,56
888,08	1257,45
888,25	1273,84
888,41	1314,80
888,58	1304,56
888,74	1292,27
888,91	1271,79
>>>>>End Processed Spectral Data<<<<<
