SpectraSuite Data File
++++++++++++++++++++++++++++++++++++
Date: Sun Apr 03 19:55:17 CEST 2016
User: root
Dark Spectrum Present: No
Reference Spectrum Present: No
Number of Sampled Component Spectra: 1
Spectrometers: USB4C02835
Integration Time (usec): 10000 (USB4C02835)
Spectra Averaged: 1 (USB4C02835)
Boxcar Smoothing: 0 (USB4C02835)
Correct for Electrical Dark: No (USB4C02835)
Strobe/Lamp Enabled: No (USB4C02835)
Correct for Detector Non-linearity: No (USB4C02835)
Correct for Stray Light: No (USB4C02835)
Number of Pixels in Processed Spectrum: 3648
>>>>>Begin Processed Spectral Data<<<<<
177,47	1230,83
177,69	1230,83
177,91	1230,83
178,13	1159,15
178,36	1234,93
178,58	1288,17
178,80	1277,93
179,02	1312,75
179,24	1189,87
179,46	1249,26
179,68	1298,41
179,90	1216,49
180,13	1210,35
180,35	1306,60
180,57	1306,60
180,79	1275,88
181,01	1275,88
181,23	1202,16
181,45	1241,07
181,67	1296,36
181,90	1302,51
182,12	1218,54
182,34	1255,40
182,56	1265,64
182,78	1234,93
183,00	1241,07
183,22	1279,98
183,44	1298,41
183,66	1275,88
183,89	1271,79
184,11	1267,69
184,33	1296,36
184,55	1230,83
184,77	1267,69
184,99	1243,12
185,21	1255,40
185,43	1196,01
185,65	1273,84
185,87	1239,02
186,10	1282,03
186,32	1196,01
186,54	1206,25
186,76	1298,41
186,98	1257,45
187,20	1265,64
187,42	1269,74
187,64	1245,16
187,86	1263,60
188,08	1183,73
188,30	1318,89
188,52	1239,02
188,75	1208,30
188,97	1304,56
189,19	1286,12
189,41	1234,93
189,63	1261,55
189,85	1331,18
190,07	1224,69
190,29	1271,79
190,51	1263,60
190,73	1220,59
190,95	1255,40
191,17	1290,22
191,39	1308,65
191,61	1263,60
191,84	1310,70
192,06	1198,06
192,28	1243,12
192,50	1261,55
192,72	1245,16
192,94	1206,25
193,16	1267,69
193,38	1275,88
193,60	1331,18
193,82	1279,98
194,04	1314,80
194,26	1247,21
194,48	1269,74
194,70	1320,94
194,92	1236,97
195,14	1249,26
195,36	1251,31
195,58	1282,03
195,80	1191,92
196,02	1282,03
196,24	1341,42
196,46	1232,88
196,69	1259,50
196,91	1300,46
197,13	1290,22
197,35	1298,41
197,57	1236,97
197,79	1271,79
198,01	1275,88
198,23	1257,45
198,45	1298,41
198,67	1257,45
198,89	1265,64
199,11	1279,98
199,33	1224,69
199,55	1230,83
199,77	1191,92
199,99	1255,40
200,21	1257,45
200,43	1269,74
200,65	1243,12
200,87	1314,80
201,09	1253,36
201,31	1279,98
201,53	1265,64
201,75	1265,64
201,97	1212,40
202,19	1294,32
202,41	1241,07
202,63	1282,03
202,85	1277,93
203,07	1271,79
203,29	1234,93
203,51	1263,60
203,73	1316,84
203,95	1275,88
204,17	1282,03
204,39	1277,93
204,61	1320,94
204,83	1308,65
205,05	1306,60
205,27	1234,93
205,49	1322,99
205,71	1284,08
205,93	1288,17
206,15	1232,88
206,37	1288,17
206,59	1314,80
206,81	1261,55
207,03	1239,02
207,25	1304,56
207,47	1247,21
207,69	1257,45
207,91	1318,89
208,13	1216,49
208,34	1277,93
208,56	1290,22
208,78	1298,41
209,00	1277,93
209,22	1320,94
209,44	1267,69
209,66	1228,78
209,88	1224,69
210,10	1245,16
210,32	1320,94
210,54	1232,88
210,76	1378,28
210,98	1320,94
211,20	1232,88
211,42	1220,59
211,64	1265,64
211,86	1282,03
212,08	1208,30
212,30	1183,73
212,52	1302,51
212,74	1253,36
212,96	1185,77
213,17	1263,60
213,39	1259,50
213,61	1236,97
213,83	1318,89
214,05	1183,73
214,27	1298,41
214,49	1255,40
214,71	1234,93
214,93	1284,08
215,15	1304,56
215,37	1220,59
215,59	1292,27
215,81	1261,55
216,03	1288,17
216,24	1249,26
216,46	1257,45
216,68	1228,78
216,90	1212,40
217,12	1296,36
217,34	1294,32
217,56	1255,40
217,78	1316,84
218,00	1234,93
218,22	1290,22
218,44	1261,55
218,66	1249,26
218,87	1241,07
219,09	1243,12
219,31	1267,69
219,53	1218,54
219,75	1279,98
219,97	1286,12
220,19	1290,22
220,41	1314,80
220,63	1216,49
220,85	1345,52
221,06	1282,03
221,28	1271,79
221,50	1292,27
221,72	1292,27
221,94	1286,12
222,16	1253,36
222,38	1234,93
222,60	1282,03
222,82	1241,07
223,03	1288,17
223,25	1255,40
223,47	1316,84
223,69	1335,28
223,91	1265,64
224,13	1257,45
224,35	1255,40
224,57	1302,51
224,78	1257,45
225,00	1208,30
225,22	1306,60
225,44	1320,94
225,66	1236,97
225,88	1372,14
226,10	1257,45
226,32	1232,88
226,53	1277,93
226,75	1282,03
226,97	1298,41
227,19	1214,45
227,41	1216,49
227,63	1200,11
227,85	1224,69
228,06	1282,03
228,28	1288,17
228,50	1216,49
228,72	1236,97
228,94	1206,25
229,16	1325,04
229,37	1312,75
229,59	1286,12
229,81	1345,52
230,03	1277,93
230,25	1306,60
230,47	1247,21
230,69	1372,14
230,90	1265,64
231,12	1200,11
231,34	1333,23
231,56	1277,93
231,78	1290,22
232,00	1273,84
232,21	1265,64
232,43	1245,16
232,65	1279,98
232,87	1251,31
233,09	1257,45
233,30	1261,55
233,52	1241,07
233,74	1277,93
233,96	1265,64
234,18	1277,93
234,40	1247,21
234,61	1249,26
234,83	1261,55
235,05	1329,13
235,27	1241,07
235,49	1288,17
235,70	1298,41
235,92	1247,21
236,14	1206,25
236,36	1292,27
236,58	1183,73
236,79	1224,69
237,01	1255,40
237,23	1249,26
237,45	1327,08
237,67	1331,18
237,88	1337,32
238,10	1239,02
238,32	1216,49
238,54	1277,93
238,76	1265,64
238,97	1253,36
239,19	1220,59
239,41	1282,03
239,63	1228,78
239,85	1275,88
240,06	1222,64
240,28	1308,65
240,50	1261,55
240,72	1314,80
240,93	1286,12
241,15	1249,26
241,37	1263,60
241,59	1304,56
241,81	1257,45
242,02	1251,31
242,24	1241,07
242,46	1273,84
242,68	1290,22
242,89	1241,07
243,11	1241,07
243,33	1298,41
243,55	1279,98
243,76	1243,12
243,98	1327,08
244,20	1198,06
244,42	1337,32
244,64	1253,36
244,85	1275,88
245,07	1273,84
245,29	1245,16
245,51	1232,88
245,72	1292,27
245,94	1273,84
246,16	1251,31
246,38	1320,94
246,59	1286,12
246,81	1222,64
247,03	1284,08
247,24	1304,56
247,46	1296,36
247,68	1294,32
247,90	1304,56
248,11	1228,78
248,33	1273,84
248,55	1198,06
248,77	1288,17
248,98	1255,40
249,20	1300,46
249,42	1263,60
249,64	1306,60
249,85	1241,07
250,07	1212,40
250,29	1277,93
250,50	1232,88
250,72	1259,50
250,94	1277,93
251,16	1271,79
251,37	1271,79
251,59	1236,97
251,81	1310,70
252,02	1271,79
252,24	1277,93
252,46	1296,36
252,68	1239,02
252,89	1294,32
253,11	1255,40
253,33	1230,83
253,54	1271,79
253,76	1290,22
253,98	1259,50
254,20	1239,02
254,41	1296,36
254,63	1333,23
254,85	1320,94
255,06	1267,69
255,28	1253,36
255,50	1282,03
255,71	1273,84
255,93	1255,40
256,15	1341,42
256,36	1249,26
256,58	1243,12
256,80	1331,18
257,02	1230,83
257,23	1239,02
257,45	1271,79
257,67	1210,35
257,88	1325,04
258,10	1198,06
258,32	1269,74
258,53	1273,84
258,75	1298,41
258,97	1228,78
259,18	1286,12
259,40	1279,98
259,62	1251,31
259,83	1277,93
260,05	1261,55
260,27	1247,21
260,48	1279,98
260,70	1290,22
260,92	1245,16
261,13	1355,76
261,35	1269,74
261,57	1220,59
261,78	1257,45
262,00	1288,17
262,22	1368,04
262,43	1282,03
262,65	1269,74
262,86	1239,02
263,08	1273,84
263,30	1253,36
263,51	1286,12
263,73	1288,17
263,95	1241,07
264,16	1316,84
264,38	1204,21
264,60	1279,98
264,81	1279,98
265,03	1206,25
265,25	1239,02
265,46	1284,08
265,68	1263,60
265,89	1327,08
266,11	1228,78
266,33	1224,69
266,54	1200,11
266,76	1236,97
266,98	1198,06
267,19	1302,51
267,41	1239,02
267,62	1245,16
267,84	1279,98
268,06	1304,56
268,27	1343,47
268,49	1243,12
268,70	1198,06
268,92	1290,22
269,14	1271,79
269,35	1265,64
269,57	1265,64
269,79	1314,80
270,00	1208,30
270,22	1255,40
270,43	1253,36
270,65	1222,64
270,87	1181,68
271,08	1277,93
271,30	1298,41
271,51	1255,40
271,73	1206,25
271,95	1247,21
272,16	1228,78
272,38	1249,26
272,59	1273,84
272,81	1312,75
273,02	1279,98
273,24	1263,60
273,46	1304,56
273,67	1271,79
273,89	1204,21
274,10	1249,26
274,32	1181,68
274,54	1288,17
274,75	1304,56
274,97	1222,64
275,18	1322,99
275,40	1259,50
275,61	1265,64
275,83	1298,41
276,05	1286,12
276,26	1296,36
276,48	1343,47
276,69	1259,50
276,91	1255,40
277,12	1241,07
277,34	1329,13
277,55	1271,79
277,77	1314,80
277,99	1296,36
278,20	1230,83
278,42	1249,26
278,63	1251,31
278,85	1220,59
279,06	1333,23
279,28	1226,73
279,49	1298,41
279,71	1249,26
279,93	1353,71
280,14	1177,58
280,36	1292,27
280,57	1300,46
280,79	1306,60
281,00	1292,27
281,22	1230,83
281,43	1304,56
281,65	1290,22
281,86	1236,97
282,08	1185,77
282,29	1306,60
282,51	1228,78
282,73	1257,45
282,94	1296,36
283,16	1245,16
283,37	1222,64
283,59	1241,07
283,80	1206,25
284,02	1239,02
284,23	1316,84
284,45	1312,75
284,66	1251,31
284,88	1255,40
285,09	1249,26
285,31	1255,40
285,52	1265,64
285,74	1220,59
285,95	1216,49
286,17	1302,51
286,38	1335,28
286,60	1230,83
286,81	1325,04
287,03	1273,84
287,24	1314,80
287,46	1271,79
287,67	1279,98
287,89	1308,65
288,10	1269,74
288,32	1302,51
288,53	1294,32
288,75	1308,65
288,96	1216,49
289,18	1216,49
289,39	1271,79
289,61	1239,02
289,82	1318,89
290,04	1263,60
290,25	1243,12
290,47	1257,45
290,68	1222,64
290,90	1370,09
291,11	1277,93
291,33	1239,02
291,54	1239,02
291,76	1261,55
291,97	1347,56
292,18	1320,94
292,40	1261,55
292,61	1275,88
292,83	1247,21
293,04	1279,98
293,26	1236,97
293,47	1306,60
293,69	1239,02
293,90	1216,49
294,12	1273,84
294,33	1257,45
294,55	1208,30
294,76	1224,69
294,97	1282,03
295,19	1263,60
295,40	1327,08
295,62	1284,08
295,83	1271,79
296,05	1241,07
296,26	1230,83
296,48	1288,17
296,69	1265,64
296,90	1265,64
297,12	1234,93
297,33	1220,59
297,55	1200,11
297,76	1257,45
297,98	1361,90
298,19	1232,88
298,41	1296,36
298,62	1226,73
298,83	1279,98
299,05	1335,28
299,26	1239,02
299,48	1249,26
299,69	1253,36
299,90	1277,93
300,12	1327,08
300,33	1249,26
300,55	1189,87
300,76	1259,50
300,98	1286,12
301,19	1402,86
301,40	1282,03
301,62	1222,64
301,83	1243,12
302,05	1249,26
302,26	1263,60
302,47	1257,45
302,69	1234,93
302,90	1298,41
303,12	1306,60
303,33	1214,45
303,54	1212,40
303,76	1255,40
303,97	1261,55
304,19	1220,59
304,40	1232,88
304,61	1193,97
304,83	1284,08
305,04	1269,74
305,26	1284,08
305,47	1273,84
305,68	1306,60
305,90	1271,79
306,11	1198,06
306,33	1222,64
306,54	1241,07
306,75	1269,74
306,97	1232,88
307,18	1249,26
307,39	1333,23
307,61	1267,69
307,82	1202,16
308,04	1275,88
308,25	1277,93
308,46	1224,69
308,68	1239,02
308,89	1251,31
309,10	1327,08
309,32	1269,74
309,53	1265,64
309,74	1300,46
309,96	1302,51
310,17	1288,17
310,39	1269,74
310,60	1279,98
310,81	1318,89
311,03	1322,99
311,24	1284,08
311,45	1232,88
311,67	1298,41
311,88	1273,84
312,09	1269,74
312,31	1222,64
312,52	1269,74
312,73	1288,17
312,95	1265,64
313,16	1265,64
313,37	1267,69
313,59	1279,98
313,80	1290,22
314,01	1163,25
314,23	1232,88
314,44	1316,84
314,65	1267,69
314,87	1239,02
315,08	1224,69
315,29	1337,32
315,51	1294,32
315,72	1273,84
315,93	1175,53
316,15	1294,32
316,36	1224,69
316,57	1222,64
316,79	1206,25
317,00	1290,22
317,21	1292,27
317,43	1255,40
317,64	1306,60
317,85	1288,17
318,07	1253,36
318,28	1241,07
318,49	1263,60
318,70	1261,55
318,92	1298,41
319,13	1257,45
319,34	1232,88
319,56	1224,69
319,77	1253,36
319,98	1245,16
320,20	1216,49
320,41	1277,93
320,62	1224,69
320,83	1265,64
321,05	1314,80
321,26	1327,08
321,47	1273,84
321,69	1243,12
321,90	1253,36
322,11	1247,21
322,32	1292,27
322,54	1277,93
322,75	1230,83
322,96	1255,40
323,18	1243,12
323,39	1312,75
323,60	1202,16
323,81	1273,84
324,03	1300,46
324,24	1284,08
324,45	1322,99
324,66	1322,99
324,88	1232,88
325,09	1239,02
325,30	1206,25
325,52	1196,01
325,73	1263,60
325,94	1329,13
326,15	1234,93
326,37	1196,01
326,58	1298,41
326,79	1230,83
327,00	1263,60
327,22	1275,88
327,43	1312,75
327,64	1337,32
327,85	1279,98
328,07	1304,56
328,28	1200,11
328,49	1228,78
328,70	1224,69
328,92	1257,45
329,13	1284,08
329,34	1206,25
329,55	1259,50
329,76	1306,60
329,98	1302,51
330,19	1247,21
330,40	1290,22
330,61	1282,03
330,83	1253,36
331,04	1142,77
331,25	1290,22
331,46	1318,89
331,68	1253,36
331,89	1245,16
332,10	1255,40
332,31	1232,88
332,52	1243,12
332,74	1263,60
332,95	1279,98
333,16	1265,64
333,37	1296,36
333,58	1263,60
333,80	1234,93
334,01	1265,64
334,22	1318,89
334,43	1259,50
334,64	1236,97
334,86	1300,46
335,07	1267,69
335,28	1222,64
335,49	1300,46
335,70	1259,50
335,92	1269,74
336,13	1253,36
336,34	1263,60
336,55	1236,97
336,76	1247,21
336,98	1236,97
337,19	1234,93
337,40	1243,12
337,61	1253,36
337,82	1308,65
338,04	1157,10
338,25	1277,93
338,46	1263,60
338,67	1304,56
338,88	1216,49
339,09	1267,69
339,31	1257,45
339,52	1296,36
339,73	1275,88
339,94	1327,08
340,15	1232,88
340,36	1296,36
340,58	1249,26
340,79	1263,60
341,00	1263,60
341,21	1216,49
341,42	1320,94
341,63	1183,73
341,85	1269,74
342,06	1222,64
342,27	1322,99
342,48	1269,74
342,69	1239,02
342,90	1222,64
343,12	1255,40
343,33	1236,97
343,54	1243,12
343,75	1275,88
343,96	1300,46
344,17	1263,60
344,38	1288,17
344,60	1249,26
344,81	1259,50
345,02	1320,94
345,23	1304,56
345,44	1232,88
345,65	1200,11
345,86	1339,37
346,07	1279,98
346,29	1261,55
346,50	1288,17
346,71	1304,56
346,92	1304,56
347,13	1247,21
347,34	1239,02
347,55	1241,07
347,76	1273,84
347,98	1294,32
348,19	1310,70
348,40	1183,73
348,61	1253,36
348,82	1273,84
349,03	1294,32
349,24	1247,21
349,45	1290,22
349,66	1296,36
349,88	1282,03
350,09	1273,84
350,30	1253,36
350,51	1273,84
350,72	1257,45
350,93	1298,41
351,14	1271,79
351,35	1259,50
351,56	1271,79
351,77	1271,79
351,99	1288,17
352,20	1322,99
352,41	1339,37
352,62	1259,50
352,83	1269,74
353,04	1296,36
353,25	1249,26
353,46	1253,36
353,67	1277,93
353,88	1269,74
354,09	1257,45
354,30	1257,45
354,52	1243,12
354,73	1241,07
354,94	1206,25
355,15	1243,12
355,36	1320,94
355,57	1247,21
355,78	1271,79
355,99	1245,16
356,20	1290,22
356,41	1300,46
356,62	1234,93
356,83	1255,40
357,04	1206,25
357,25	1224,69
357,46	1273,84
357,68	1339,37
357,89	1271,79
358,10	1316,84
358,31	1202,16
358,52	1353,71
358,73	1189,87
358,94	1310,70
359,15	1312,75
359,36	1314,80
359,57	1298,41
359,78	1277,93
359,99	1308,65
360,20	1335,28
360,41	1275,88
360,62	1259,50
360,83	1273,84
361,04	1282,03
361,25	1290,22
361,46	1269,74
361,67	1243,12
361,88	1271,79
362,09	1302,51
362,30	1306,60
362,51	1279,98
362,72	1267,69
362,93	1286,12
363,14	1282,03
363,35	1251,31
363,56	1239,02
363,78	1239,02
363,99	1249,26
364,20	1241,07
364,41	1241,07
364,62	1318,89
364,83	1226,73
365,04	1290,22
365,25	1259,50
365,46	1269,74
365,67	1200,11
365,88	1187,82
366,09	1198,06
366,30	1253,36
366,51	1228,78
366,72	1249,26
366,93	1275,88
367,14	1236,97
367,35	1271,79
367,56	1245,16
367,77	1185,77
367,98	1218,54
368,18	1247,21
368,39	1296,36
368,60	1279,98
368,81	1259,50
369,02	1288,17
369,23	1265,64
369,44	1261,55
369,65	1288,17
369,86	1228,78
370,07	1263,60
370,28	1337,32
370,49	1204,21
370,70	1282,03
370,91	1212,40
371,12	1247,21
371,33	1267,69
371,54	1279,98
371,75	1269,74
371,96	1339,37
372,17	1290,22
372,38	1239,02
372,59	1193,97
372,80	1376,24
373,01	1249,26
373,22	1298,41
373,43	1245,16
373,64	1255,40
373,85	1271,79
374,06	1288,17
374,26	1255,40
374,47	1251,31
374,68	1249,26
374,89	1288,17
375,10	1279,98
375,31	1269,74
375,52	1155,05
375,73	1284,08
375,94	1247,21
376,15	1251,31
376,36	1298,41
376,57	1288,17
376,78	1267,69
376,99	1261,55
377,20	1308,65
377,40	1230,83
377,61	1290,22
377,82	1232,88
378,03	1181,68
378,24	1234,93
378,45	1259,50
378,66	1310,70
378,87	1314,80
379,08	1292,27
379,29	1245,16
379,50	1263,60
379,71	1234,93
379,91	1269,74
380,12	1247,21
380,33	1302,51
380,54	1140,72
380,75	1290,22
380,96	1279,98
381,17	1222,64
381,38	1243,12
381,59	1275,88
381,80	1249,26
382,00	1271,79
382,21	1265,64
382,42	1327,08
382,63	1249,26
382,84	1269,74
383,05	1310,70
383,26	1284,08
383,47	1277,93
383,68	1306,60
383,88	1292,27
384,09	1202,16
384,30	1286,12
384,51	1279,98
384,72	1257,45
384,93	1271,79
385,14	1335,28
385,35	1269,74
385,55	1267,69
385,76	1296,36
385,97	1290,22
386,18	1216,49
386,39	1333,23
386,60	1191,92
386,81	1282,03
387,02	1255,40
387,22	1243,12
387,43	1296,36
387,64	1239,02
387,85	1236,97
388,06	1296,36
388,27	1239,02
388,48	1316,84
388,68	1247,21
388,89	1333,23
389,10	1380,33
389,31	1236,97
389,52	1302,51
389,73	1212,40
389,93	1220,59
390,14	1296,36
390,35	1304,56
390,56	1271,79
390,77	1206,25
390,98	1232,88
391,18	1353,71
391,39	1318,89
391,60	1257,45
391,81	1271,79
392,02	1275,88
392,23	1288,17
392,43	1282,03
392,64	1320,94
392,85	1312,75
393,06	1347,56
393,27	1239,02
393,47	1286,12
393,68	1222,64
393,89	1292,27
394,10	1327,08
394,31	1267,69
394,52	1249,26
394,72	1290,22
394,93	1351,66
395,14	1251,31
395,35	1228,78
395,56	1292,27
395,76	1193,97
395,97	1183,73
396,18	1292,27
396,39	1257,45
396,60	1261,55
396,80	1261,55
397,01	1257,45
397,22	1222,64
397,43	1308,65
397,64	1284,08
397,84	1251,31
398,05	1243,12
398,26	1255,40
398,47	1218,54
398,67	1339,37
398,88	1218,54
399,09	1318,89
399,30	1267,69
399,51	1308,65
399,71	1294,32
399,92	1216,49
400,13	1271,79
400,34	1298,41
400,54	1267,69
400,75	1292,27
400,96	1224,69
401,17	1273,84
401,37	1286,12
401,58	1282,03
401,79	1230,83
402,00	1239,02
402,21	1220,59
402,41	1247,21
402,62	1226,73
402,83	1282,03
403,04	1241,07
403,24	1310,70
403,45	1247,21
403,66	1249,26
403,87	1327,08
404,07	1318,89
404,28	1322,99
404,49	1255,40
404,70	1187,82
404,90	1243,12
405,11	1294,32
405,32	1228,78
405,52	1318,89
405,73	1273,84
405,94	1226,73
406,15	1292,27
406,35	1247,21
406,56	1310,70
406,77	1226,73
406,98	1357,80
407,18	1224,69
407,39	1249,26
407,60	1261,55
407,80	1286,12
408,01	1267,69
408,22	1273,84
408,43	1298,41
408,63	1208,30
408,84	1230,83
409,05	1253,36
409,25	1265,64
409,46	1249,26
409,67	1251,31
409,88	1261,55
410,08	1224,69
410,29	1230,83
410,50	1271,79
410,70	1265,64
410,91	1322,99
411,12	1288,17
411,32	1267,69
411,53	1247,21
411,74	1236,97
411,95	1304,56
412,15	1275,88
412,36	1239,02
412,57	1220,59
412,77	1298,41
412,98	1234,93
413,19	1234,93
413,39	1255,40
413,60	1304,56
413,81	1282,03
414,01	1312,75
414,22	1322,99
414,43	1271,79
414,63	1257,45
414,84	1302,51
415,05	1208,30
415,25	1265,64
415,46	1320,94
415,67	1318,89
415,87	1306,60
416,08	1259,50
416,29	1189,87
416,49	1292,27
416,70	1271,79
416,91	1271,79
417,11	1261,55
417,32	1296,36
417,53	1296,36
417,73	1261,55
417,94	1251,31
418,15	1290,22
418,35	1294,32
418,56	1257,45
418,77	1275,88
418,97	1271,79
419,18	1308,65
419,38	1275,88
419,59	1253,36
419,80	1314,80
420,00	1263,60
420,21	1312,75
420,42	1300,46
420,62	1222,64
420,83	1232,88
421,04	1279,98
421,24	1169,39
421,45	1251,31
421,65	1263,60
421,86	1271,79
422,07	1271,79
422,27	1247,21
422,48	1239,02
422,69	1286,12
422,89	1220,59
423,10	1259,50
423,30	1273,84
423,51	1232,88
423,72	1271,79
423,92	1259,50
424,13	1193,97
424,33	1267,69
424,54	1239,02
424,75	1230,83
424,95	1220,59
425,16	1253,36
425,36	1294,32
425,57	1286,12
425,78	1277,93
425,98	1185,77
426,19	1245,16
426,39	1247,21
426,60	1275,88
426,81	1279,98
427,01	1269,74
427,22	1241,07
427,42	1277,93
427,63	1333,23
427,83	1249,26
428,04	1255,40
428,25	1218,54
428,45	1308,65
428,66	1273,84
428,86	1249,26
429,07	1286,12
429,28	1222,64
429,48	1269,74
429,69	1247,21
429,89	1282,03
430,10	1269,74
430,30	1300,46
430,51	1263,60
430,71	1253,36
430,92	1271,79
431,13	1255,40
431,33	1337,32
431,54	1292,27
431,74	1277,93
431,95	1306,60
432,15	1243,12
432,36	1241,07
432,56	1329,13
432,77	1277,93
432,98	1320,94
433,18	1318,89
433,39	1296,36
433,59	1232,88
433,80	1288,17
434,00	1277,93
434,21	1288,17
434,41	1259,50
434,62	1255,40
434,82	1263,60
435,03	1279,98
435,23	1230,83
435,44	1275,88
435,64	1253,36
435,85	1251,31
436,06	1245,16
436,26	1245,16
436,47	1298,41
436,67	1308,65
436,88	1253,36
437,08	1273,84
437,29	1290,22
437,49	1247,21
437,70	1236,97
437,90	1275,88
438,11	1306,60
438,31	1177,58
438,52	1275,88
438,72	1284,08
438,93	1292,27
439,13	1234,93
439,34	1236,97
439,54	1247,21
439,75	1277,93
439,95	1269,74
440,16	1257,45
440,36	1271,79
440,57	1318,89
440,77	1359,85
440,98	1339,37
441,18	1234,93
441,39	1265,64
441,59	1255,40
441,80	1236,97
442,00	1214,45
442,21	1214,45
442,41	1236,97
442,62	1257,45
442,82	1331,18
443,02	1261,55
443,23	1273,84
443,43	1290,22
443,64	1343,47
443,84	1288,17
444,05	1355,76
444,25	1286,12
444,46	1253,36
444,66	1296,36
444,87	1353,71
445,07	1255,40
445,28	1196,01
445,48	1284,08
445,69	1337,32
445,89	1261,55
446,09	1316,84
446,30	1368,04
446,50	1181,68
446,71	1277,93
446,91	1353,71
447,12	1316,84
447,32	1232,88
447,53	1243,12
447,73	1226,73
447,93	1265,64
448,14	1198,06
448,34	1284,08
448,55	1294,32
448,75	1288,17
448,96	1288,17
449,16	1279,98
449,36	1255,40
449,57	1335,28
449,77	1277,93
449,98	1224,69
450,18	1230,83
450,39	1271,79
450,59	1236,97
450,79	1204,21
451,00	1253,36
451,20	1224,69
451,41	1277,93
451,61	1236,97
451,81	1273,84
452,02	1265,64
452,22	1284,08
452,43	1327,08
452,63	1322,99
452,84	1290,22
453,04	1220,59
453,24	1279,98
453,45	1253,36
453,65	1345,52
453,86	1300,46
454,06	1263,60
454,26	1288,17
454,47	1253,36
454,67	1216,49
454,87	1271,79
455,08	1212,40
455,28	1327,08
455,49	1300,46
455,69	1327,08
455,89	1247,21
456,10	1339,37
456,30	1327,08
456,51	1261,55
456,71	1259,50
456,91	1306,60
457,12	1282,03
457,32	1255,40
457,52	1290,22
457,73	1249,26
457,93	1265,64
458,14	1249,26
458,34	1282,03
458,54	1322,99
458,75	1239,02
458,95	1339,37
459,15	1331,18
459,36	1224,69
459,56	1325,04
459,76	1298,41
459,97	1243,12
460,17	1279,98
460,37	1333,23
460,58	1259,50
460,78	1247,21
460,99	1191,92
461,19	1339,37
461,39	1247,21
461,60	1320,94
461,80	1243,12
462,00	1333,23
462,21	1243,12
462,41	1347,56
462,61	1296,36
462,82	1208,30
463,02	1288,17
463,22	1239,02
463,43	1277,93
463,63	1271,79
463,83	1253,36
464,04	1214,45
464,24	1294,32
464,44	1241,07
464,64	1320,94
464,85	1325,04
465,05	1310,70
465,25	1296,36
465,46	1302,51
465,66	1239,02
465,86	1263,60
466,07	1298,41
466,27	1306,60
466,47	1302,51
466,68	1310,70
466,88	1241,07
467,08	1290,22
467,29	1294,32
467,49	1247,21
467,69	1273,84
467,89	1271,79
468,10	1249,26
468,30	1310,70
468,50	1277,93
468,71	1271,79
468,91	1234,93
469,11	1290,22
469,31	1255,40
469,52	1310,70
469,72	1304,56
469,92	1282,03
470,13	1282,03
470,33	1333,23
470,53	1234,93
470,73	1230,83
470,94	1292,27
471,14	1257,45
471,34	1204,21
471,54	1339,37
471,75	1271,79
471,95	1173,49
472,15	1384,43
472,36	1286,12
472,56	1271,79
472,76	1257,45
472,96	1361,90
473,17	1318,89
473,37	1265,64
473,57	1261,55
473,77	1361,90
473,98	1261,55
474,18	1286,12
474,38	1284,08
474,58	1337,32
474,79	1318,89
474,99	1216,49
475,19	1282,03
475,39	1282,03
475,60	1288,17
475,80	1249,26
476,00	1279,98
476,20	1230,83
476,41	1269,74
476,61	1322,99
476,81	1286,12
477,01	1181,68
477,21	1279,98
477,42	1298,41
477,62	1241,07
477,82	1292,27
478,02	1294,32
478,23	1249,26
478,43	1275,88
478,63	1255,40
478,83	1310,70
479,03	1249,26
479,24	1298,41
479,44	1263,60
479,64	1226,73
479,84	1325,04
480,04	1306,60
480,25	1322,99
480,45	1265,64
480,65	1249,26
480,85	1318,89
481,06	1255,40
481,26	1292,27
481,46	1253,36
481,66	1290,22
481,86	1322,99
482,06	1253,36
482,27	1241,07
482,47	1308,65
482,67	1265,64
482,87	1341,42
483,07	1275,88
483,28	1288,17
483,48	1290,22
483,68	1296,36
483,88	1331,18
484,08	1275,88
484,29	1220,59
484,49	1284,08
484,69	1279,98
484,89	1261,55
485,09	1363,95
485,29	1189,87
485,50	1273,84
485,70	1306,60
485,90	1284,08
486,10	1308,65
486,30	1239,02
486,50	1251,31
486,71	1290,22
486,91	1222,64
487,11	1279,98
487,31	1298,41
487,51	1234,93
487,71	1318,89
487,91	1214,45
488,12	1251,31
488,32	1298,41
488,52	1275,88
488,72	1282,03
488,92	1232,88
489,12	1292,27
489,32	1243,12
489,53	1325,04
489,73	1306,60
489,93	1288,17
490,13	1249,26
490,33	1304,56
490,53	1271,79
490,73	1253,36
490,94	1288,17
491,14	1251,31
491,34	1298,41
491,54	1249,26
491,74	1261,55
491,94	1306,60
492,14	1271,79
492,34	1273,84
492,54	1290,22
492,75	1341,42
492,95	1230,83
493,15	1226,73
493,35	1169,39
493,55	1267,69
493,75	1318,89
493,95	1253,36
494,15	1316,84
494,35	1288,17
494,56	1304,56
494,76	1241,07
494,96	1220,59
495,16	1261,55
495,36	1232,88
495,56	1267,69
495,76	1212,40
495,96	1277,93
496,16	1300,46
496,36	1210,35
496,56	1312,75
496,77	1325,04
496,97	1314,80
497,17	1337,32
497,37	1312,75
497,57	1208,30
497,77	1322,99
497,97	1253,36
498,17	1316,84
498,37	1193,97
498,57	1282,03
498,77	1279,98
498,97	1179,63
499,17	1361,90
499,38	1372,14
499,58	1228,78
499,78	1275,88
499,98	1345,52
500,18	1241,07
500,38	1310,70
500,58	1263,60
500,78	1261,55
500,98	1355,76
501,18	1320,94
501,38	1290,22
501,58	1302,51
501,78	1241,07
501,98	1279,98
502,18	1277,93
502,38	1286,12
502,58	1273,84
502,78	1267,69
502,98	1239,02
503,18	1320,94
503,38	1204,21
503,59	1335,28
503,79	1298,41
503,99	1312,75
504,19	1241,07
504,39	1251,31
504,59	1294,32
504,79	1316,84
504,99	1232,88
505,19	1343,47
505,39	1286,12
505,59	1269,74
505,79	1257,45
505,99	1306,60
506,19	1284,08
506,39	1320,94
506,59	1243,12
506,79	1304,56
506,99	1251,31
507,19	1224,69
507,39	1288,17
507,59	1236,97
507,79	1302,51
507,99	1327,08
508,19	1316,84
508,39	1265,64
508,59	1228,78
508,79	1284,08
508,99	1310,70
509,19	1245,16
509,39	1296,36
509,59	1339,37
509,79	1279,98
509,99	1316,84
510,19	1302,51
510,39	1318,89
510,59	1277,93
510,79	1255,40
510,99	1275,88
511,19	1343,47
511,39	1251,31
511,59	1298,41
511,79	1308,65
511,99	1269,74
512,19	1282,03
512,38	1314,80
512,58	1255,40
512,78	1275,88
512,98	1210,35
513,18	1267,69
513,38	1271,79
513,58	1265,64
513,78	1308,65
513,98	1294,32
514,18	1349,61
514,38	1314,80
514,58	1265,64
514,78	1296,36
514,98	1300,46
515,18	1316,84
515,38	1273,84
515,58	1273,84
515,78	1214,45
515,98	1304,56
516,18	1320,94
516,38	1241,07
516,57	1284,08
516,77	1286,12
516,97	1343,47
517,17	1288,17
517,37	1241,07
517,57	1277,93
517,77	1286,12
517,97	1314,80
518,17	1222,64
518,37	1294,32
518,57	1261,55
518,77	1251,31
518,97	1304,56
519,16	1236,97
519,36	1279,98
519,56	1267,69
519,76	1300,46
519,96	1261,55
520,16	1198,06
520,36	1275,88
520,56	1290,22
520,76	1251,31
520,96	1265,64
521,16	1282,03
521,35	1263,60
521,55	1265,64
521,75	1249,26
521,95	1306,60
522,15	1320,94
522,35	1335,28
522,55	1335,28
522,75	1261,55
522,95	1312,75
523,14	1339,37
523,34	1216,49
523,54	1257,45
523,74	1253,36
523,94	1257,45
524,14	1277,93
524,34	1279,98
524,54	1255,40
524,73	1279,98
524,93	1263,60
525,13	1298,41
525,33	1261,55
525,53	1327,08
525,73	1277,93
525,93	1279,98
526,13	1343,47
526,32	1382,38
526,52	1314,80
526,72	1236,97
526,92	1267,69
527,12	1296,36
527,32	1275,88
527,52	1271,79
527,71	1224,69
527,91	1296,36
528,11	1312,75
528,31	1220,59
528,51	1300,46
528,71	1273,84
528,90	1292,27
529,10	1306,60
529,30	1322,99
529,50	1269,74
529,70	1261,55
529,90	1273,84
530,09	1253,36
530,29	1261,55
530,49	1284,08
530,69	1282,03
530,89	1355,76
531,09	1290,22
531,28	1279,98
531,48	1288,17
531,68	1212,40
531,88	1247,21
532,08	1210,35
532,28	1302,51
532,47	1308,65
532,67	1277,93
532,87	1239,02
533,07	1271,79
533,27	1273,84
533,46	1282,03
533,66	1279,98
533,86	1265,64
534,06	1265,64
534,26	1310,70
534,45	1308,65
534,65	1335,28
534,85	1261,55
535,05	1318,89
535,25	1265,64
535,44	1294,32
535,64	1296,36
535,84	1239,02
536,04	1339,37
536,24	1261,55
536,43	1345,52
536,63	1312,75
536,83	1359,85
537,03	1282,03
537,22	1263,60
537,42	1304,56
537,62	1261,55
537,82	1335,28
538,02	1282,03
538,21	1265,64
538,41	1339,37
538,61	1296,36
538,81	1343,47
539,00	1304,56
539,20	1339,37
539,40	1355,76
539,60	1265,64
539,79	1288,17
539,99	1288,17
540,19	1193,97
540,39	1329,13
540,58	1269,74
540,78	1257,45
540,98	1206,25
541,18	1284,08
541,37	1243,12
541,57	1322,99
541,77	1343,47
541,97	1353,71
542,16	1343,47
542,36	1308,65
542,56	1257,45
542,76	1259,50
542,95	1259,50
543,15	1269,74
543,35	1306,60
543,54	1257,45
543,74	1378,28
543,94	1247,21
544,14	1277,93
544,33	1218,54
544,53	1304,56
544,73	1355,76
544,93	1306,60
545,12	1392,62
545,32	1216,49
545,52	1284,08
545,71	1345,52
545,91	1241,07
546,11	1259,50
546,30	1279,98
546,50	1202,16
546,70	1298,41
546,90	1263,60
547,09	1263,60
547,29	1241,07
547,49	1277,93
547,68	1210,35
547,88	1241,07
548,08	1261,55
548,27	1316,84
548,47	1282,03
548,67	1314,80
548,87	1302,51
549,06	1245,16
549,26	1372,14
549,46	1267,69
549,65	1269,74
549,85	1333,23
550,05	1226,73
550,24	1320,94
550,44	1300,46
550,64	1292,27
550,83	1296,36
551,03	1273,84
551,23	1333,23
551,42	1271,79
551,62	1306,60
551,82	1187,82
552,01	1284,08
552,21	1366,00
552,41	1267,69
552,60	1255,40
552,80	1306,60
553,00	1265,64
553,19	1296,36
553,39	1353,71
553,59	1288,17
553,78	1337,32
553,98	1282,03
554,17	1220,59
554,37	1312,75
554,57	1290,22
554,76	1310,70
554,96	1273,84
555,16	1263,60
555,35	1220,59
555,55	1298,41
555,75	1339,37
555,94	1286,12
556,14	1236,97
556,33	1290,22
556,53	1320,94
556,73	1327,08
556,92	1333,23
557,12	1259,50
557,32	1290,22
557,51	1263,60
557,71	1279,98
557,90	1279,98
558,10	1339,37
558,30	1302,51
558,49	1308,65
558,69	1306,60
558,88	1312,75
559,08	1239,02
559,28	1329,13
559,47	1363,95
559,67	1261,55
559,86	1282,03
560,06	1288,17
560,26	1206,25
560,45	1257,45
560,65	1284,08
560,84	1230,83
561,04	1216,49
561,24	1271,79
561,43	1327,08
561,63	1294,32
561,82	1347,56
562,02	1286,12
562,22	1322,99
562,41	1296,36
562,61	1261,55
562,80	1304,56
563,00	1279,98
563,19	1275,88
563,39	1296,36
563,59	1290,22
563,78	1257,45
563,98	1314,80
564,17	1314,80
564,37	1296,36
564,56	1279,98
564,76	1279,98
564,96	1380,33
565,15	1230,83
565,35	1314,80
565,54	1290,22
565,74	1296,36
565,93	1306,60
566,13	1277,93
566,32	1284,08
566,52	1206,25
566,71	1290,22
566,91	1257,45
567,11	1271,79
567,30	1269,74
567,50	1302,51
567,69	1259,50
567,89	1202,16
568,08	1308,65
568,28	1304,56
568,47	1288,17
568,67	1222,64
568,86	1292,27
569,06	1214,45
569,25	1279,98
569,45	1345,52
569,64	1245,16
569,84	1294,32
570,04	1202,16
570,23	1329,13
570,43	1316,84
570,62	1253,36
570,82	1298,41
571,01	1206,25
571,21	1267,69
571,40	1271,79
571,60	1411,05
571,79	1353,71
571,99	1331,18
572,18	1296,36
572,38	1241,07
572,57	1234,93
572,77	1327,08
572,96	1271,79
573,16	1257,45
573,35	1302,51
573,55	1271,79
573,74	1306,60
573,94	1325,04
574,13	1316,84
574,33	1290,22
574,52	1300,46
574,71	1325,04
574,91	1357,80
575,10	1325,04
575,30	1275,88
575,49	1372,14
575,69	1265,64
575,88	1210,35
576,08	1347,56
576,27	1325,04
576,47	1257,45
576,66	1224,69
576,86	1198,06
577,05	1249,26
577,25	1298,41
577,44	1341,42
577,64	1302,51
577,83	1239,02
578,02	1357,80
578,22	1269,74
578,41	1257,45
578,61	1277,93
578,80	1327,08
579,00	1228,78
579,19	1273,84
579,39	1355,76
579,58	1288,17
579,77	1300,46
579,97	1325,04
580,16	1339,37
580,36	1320,94
580,55	1232,88
580,75	1290,22
580,94	1400,81
581,13	1308,65
581,33	1357,80
581,52	1322,99
581,72	1282,03
581,91	1282,03
582,11	1273,84
582,30	1296,36
582,49	1236,97
582,69	1318,89
582,88	1253,36
583,08	1255,40
583,27	1267,69
583,47	1368,04
583,66	1300,46
583,85	1320,94
584,05	1306,60
584,24	1298,41
584,44	1314,80
584,63	1222,64
584,82	1329,13
585,02	1236,97
585,21	1284,08
585,41	1312,75
585,60	1314,80
585,79	1314,80
585,99	1335,28
586,18	1294,32
586,37	1312,75
586,57	1273,84
586,76	1251,31
586,96	1234,93
587,15	1243,12
587,34	1345,52
587,54	1249,26
587,73	1327,08
587,93	1273,84
588,12	1273,84
588,31	1302,51
588,51	1271,79
588,70	1304,56
588,89	1267,69
589,09	1347,56
589,28	1292,27
589,47	1282,03
589,67	1228,78
589,86	1290,22
590,06	1306,60
590,25	1361,90
590,44	1341,42
590,64	1337,32
590,83	1271,79
591,02	1298,41
591,22	1316,84
591,41	1292,27
591,60	1316,84
591,80	1232,88
591,99	1247,21
592,18	1269,74
592,38	1310,70
592,57	1279,98
592,76	1327,08
592,96	1296,36
593,15	1249,26
593,34	1249,26
593,54	1320,94
593,73	1239,02
593,92	1226,73
594,12	1333,23
594,31	1265,64
594,50	1368,04
594,70	1269,74
594,89	1273,84
595,08	1249,26
595,28	1288,17
595,47	1298,41
595,66	1327,08
595,86	1236,97
596,05	1308,65
596,24	1243,12
596,43	1263,60
596,63	1298,41
596,82	1355,76
597,01	1300,46
597,21	1288,17
597,40	1306,60
597,59	1296,36
597,79	1335,28
597,98	1247,21
598,17	1249,26
598,36	1271,79
598,56	1284,08
598,75	1298,41
598,94	1279,98
599,14	1300,46
599,33	1316,84
599,52	1294,32
599,71	1288,17
599,91	1345,52
600,10	1298,41
600,29	1265,64
600,48	1290,22
600,68	1269,74
600,87	1288,17
601,06	1331,18
601,26	1294,32
601,45	1210,35
601,64	1355,76
601,83	1249,26
602,03	1327,08
602,22	1279,98
602,41	1265,64
602,60	1341,42
602,80	1263,60
602,99	1259,50
603,18	1251,31
603,37	1386,47
603,57	1294,32
603,76	1265,64
603,95	1302,51
604,14	1308,65
604,34	1298,41
604,53	1304,56
604,72	1384,43
604,91	1198,06
605,10	1378,28
605,30	1275,88
605,49	1308,65
605,68	1335,28
605,87	1300,46
606,07	1310,70
606,26	1253,36
606,45	1284,08
606,64	1325,04
606,84	1273,84
607,03	1310,70
607,22	1275,88
607,41	1312,75
607,60	1265,64
607,80	1292,27
607,99	1271,79
608,18	1312,75
608,37	1304,56
608,56	1243,12
608,76	1253,36
608,95	1267,69
609,14	1251,31
609,33	1267,69
609,52	1241,07
609,72	1191,92
609,91	1224,69
610,10	1271,79
610,29	1200,11
610,48	1251,31
610,68	1267,69
610,87	1284,08
611,06	1241,07
611,25	1298,41
611,44	1298,41
611,63	1310,70
611,83	1349,61
612,02	1290,22
612,21	1345,52
612,40	1208,30
612,59	1296,36
612,79	1249,26
612,98	1245,16
613,17	1253,36
613,36	1261,55
613,55	1265,64
613,74	1294,32
613,93	1245,16
614,13	1282,03
614,32	1339,37
614,51	1300,46
614,70	1286,12
614,89	1282,03
615,08	1273,84
615,28	1339,37
615,47	1279,98
615,66	1271,79
615,85	1259,50
616,04	1398,76
616,23	1333,23
616,42	1273,84
616,62	1314,80
616,81	1296,36
617,00	1253,36
617,19	1230,83
617,38	1282,03
617,57	1296,36
617,76	1253,36
617,95	1316,84
618,15	1304,56
618,34	1322,99
618,53	1216,49
618,72	1368,04
618,91	1304,56
619,10	1320,94
619,29	1275,88
619,48	1261,55
619,68	1271,79
619,87	1337,32
620,06	1265,64
620,25	1255,40
620,44	1300,46
620,63	1239,02
620,82	1216,49
621,01	1214,45
621,20	1380,33
621,39	1306,60
621,59	1267,69
621,78	1316,84
621,97	1302,51
622,16	1294,32
622,35	1335,28
622,54	1277,93
622,73	1294,32
622,92	1259,50
623,11	1273,84
623,30	1273,84
623,49	1273,84
623,68	1277,93
623,88	1314,80
624,07	1273,84
624,26	1310,70
624,45	1249,26
624,64	1300,46
624,83	1259,50
625,02	1187,82
625,21	1306,60
625,40	1316,84
625,59	1245,16
625,78	1249,26
625,97	1273,84
626,16	1314,80
626,35	1255,40
626,54	1300,46
626,74	1335,28
626,93	1263,60
627,12	1206,25
627,31	1337,32
627,50	1236,97
627,69	1273,84
627,88	1304,56
628,07	1273,84
628,26	1296,36
628,45	1320,94
628,64	1267,69
628,83	1255,40
629,02	1343,47
629,21	1286,12
629,40	1245,16
629,59	1265,64
629,78	1322,99
629,97	1370,09
630,16	1251,31
630,35	1263,60
630,54	1327,08
630,73	1331,18
630,92	1327,08
631,11	1296,36
631,30	1339,37
631,49	1359,85
631,68	1312,75
631,87	1419,24
632,06	1501,16
632,25	1374,19
632,44	1439,72
632,63	1347,56
632,82	1486,83
633,01	1462,25
633,20	1439,72
633,39	1460,20
633,58	1427,43
633,77	1384,43
633,96	1531,88
634,15	1529,83
634,34	2047,97
634,53	2310,11
634,72	1894,37
634,91	1468,39
635,10	1808,36
635,29	2633,69
635,48	2975,70
635,67	2858,96
635,86	2455,51
636,05	2201,57
636,24	1923,04
636,43	1652,71
636,62	1511,40
636,81	1464,30
637,00	1445,87
637,19	1351,66
637,38	1419,24
637,57	1308,65
637,76	1351,66
637,95	1249,26
638,14	1335,28
638,33	1320,94
638,52	1279,98
638,71	1261,55
638,89	1320,94
639,08	1322,99
639,27	1329,13
639,46	1339,37
639,65	1306,60
639,84	1314,80
640,03	1296,36
640,22	1374,19
640,41	1239,02
640,60	1337,32
640,79	1345,52
640,98	1294,32
641,17	1306,60
641,36	1263,60
641,55	1279,98
641,74	1298,41
641,92	1277,93
642,11	1267,69
642,30	1318,89
642,49	1224,69
642,68	1269,74
642,87	1316,84
643,06	1282,03
643,25	1306,60
643,44	1318,89
643,63	1345,52
643,82	1241,07
644,00	1318,89
644,19	1269,74
644,38	1288,17
644,57	1335,28
644,76	1294,32
644,95	1249,26
645,14	1343,47
645,33	1261,55
645,52	1269,74
645,71	1318,89
645,89	1191,92
646,08	1304,56
646,27	1345,52
646,46	1279,98
646,65	1341,42
646,84	1265,64
647,03	1298,41
647,22	1282,03
647,40	1171,44
647,59	1261,55
647,78	1220,59
647,97	1296,36
648,16	1259,50
648,35	1263,60
648,54	1286,12
648,73	1259,50
648,91	1349,61
649,10	1267,69
649,29	1245,16
649,48	1247,21
649,67	1302,51
649,86	1300,46
650,05	1273,84
650,23	1325,04
650,42	1210,35
650,61	1273,84
650,80	1337,32
650,99	1257,45
651,18	1210,35
651,36	1245,16
651,55	1275,88
651,74	1290,22
651,93	1243,12
652,12	1273,84
652,31	1236,97
652,49	1347,56
652,68	1325,04
652,87	1255,40
653,06	1239,02
653,25	1267,69
653,44	1310,70
653,62	1249,26
653,81	1288,17
654,00	1290,22
654,19	1284,08
654,38	1226,73
654,56	1368,04
654,75	1316,84
654,94	1296,36
655,13	1261,55
655,32	1245,16
655,51	1357,80
655,69	1275,88
655,88	1261,55
656,07	1337,32
656,26	1273,84
656,45	1316,84
656,63	1312,75
656,82	1275,88
657,01	1288,17
657,20	1286,12
657,38	1257,45
657,57	1269,74
657,76	1322,99
657,95	1335,28
658,14	1249,26
658,32	1302,51
658,51	1261,55
658,70	1255,40
658,89	1224,69
659,08	1218,54
659,26	1249,26
659,45	1198,06
659,64	1232,88
659,83	1193,97
660,01	1249,26
660,20	1286,12
660,39	1322,99
660,58	1224,69
660,76	1308,65
660,95	1224,69
661,14	1302,51
661,33	1249,26
661,51	1312,75
661,70	1322,99
661,89	1331,18
662,08	1267,69
662,26	1267,69
662,45	1255,40
662,64	1282,03
662,83	1325,04
663,01	1257,45
663,20	1296,36
663,39	1269,74
663,58	1251,31
663,76	1247,21
663,95	1308,65
664,14	1191,92
664,32	1163,25
664,51	1284,08
664,70	1206,25
664,89	1374,19
665,07	1228,78
665,26	1343,47
665,45	1253,36
665,64	1308,65
665,82	1232,88
666,01	1263,60
666,20	1269,74
666,38	1349,61
666,57	1271,79
666,76	1273,84
666,95	1228,78
667,13	1269,74
667,32	1173,49
667,51	1300,46
667,69	1208,30
667,88	1214,45
668,07	1214,45
668,25	1292,27
668,44	1259,50
668,63	1304,56
668,81	1302,51
669,00	1234,93
669,19	1204,21
669,38	1306,60
669,56	1302,51
669,75	1241,07
669,94	1247,21
670,12	1351,66
670,31	1236,97
670,50	1316,84
670,68	1224,69
670,87	1306,60
671,06	1243,12
671,24	1275,88
671,43	1222,64
671,62	1241,07
671,80	1239,02
671,99	1310,70
672,18	1312,75
672,36	1245,16
672,55	1304,56
672,74	1327,08
672,92	1390,57
673,11	1269,74
673,29	1216,49
673,48	1345,52
673,67	1239,02
673,85	1341,42
674,04	1234,93
674,23	1308,65
674,41	1300,46
674,60	1341,42
674,79	1236,97
674,97	1284,08
675,16	1290,22
675,34	1286,12
675,53	1247,21
675,72	1306,60
675,90	1247,21
676,09	1275,88
676,28	1294,32
676,46	1329,13
676,65	1228,78
676,83	1306,60
677,02	1277,93
677,21	1263,60
677,39	1290,22
677,58	1275,88
677,77	1196,01
677,95	1282,03
678,14	1208,30
678,32	1273,84
678,51	1232,88
678,70	1241,07
678,88	1331,18
679,07	1253,36
679,25	1304,56
679,44	1208,30
679,63	1302,51
679,81	1255,40
680,00	1286,12
680,18	1214,45
680,37	1253,36
680,55	1331,18
680,74	1214,45
680,93	1300,46
681,11	1269,74
681,30	1257,45
681,48	1271,79
681,67	1243,12
681,85	1368,04
682,04	1239,02
682,23	1214,45
682,41	1339,37
682,60	1310,70
682,78	1304,56
682,97	1345,52
683,15	1200,11
683,34	1247,21
683,53	1232,88
683,71	1294,32
683,90	1277,93
684,08	1173,49
684,27	1261,55
684,45	1277,93
684,64	1232,88
684,82	1277,93
685,01	1288,17
685,19	1288,17
685,38	1286,12
685,57	1279,98
685,75	1257,45
685,94	1234,93
686,12	1327,08
686,31	1363,95
686,49	1257,45
686,68	1249,26
686,86	1277,93
687,05	1271,79
687,23	1261,55
687,42	1243,12
687,60	1249,26
687,79	1267,69
687,97	1288,17
688,16	1245,16
688,34	1222,64
688,53	1271,79
688,71	1267,69
688,90	1210,35
689,08	1249,26
689,27	1322,99
689,45	1304,56
689,64	1236,97
689,82	1329,13
690,01	1320,94
690,19	1198,06
690,38	1163,25
690,56	1232,88
690,75	1306,60
690,93	1286,12
691,12	1193,97
691,30	1216,49
691,49	1325,04
691,67	1232,88
691,86	1243,12
692,04	1236,97
692,23	1220,59
692,41	1318,89
692,60	1251,31
692,78	1286,12
692,97	1230,83
693,15	1312,75
693,34	1257,45
693,52	1255,40
693,71	1259,50
693,89	1343,47
694,08	1279,98
694,26	1212,40
694,44	1284,08
694,63	1241,07
694,81	1271,79
695,00	1279,98
695,18	1292,27
695,37	1290,22
695,55	1267,69
695,74	1279,98
695,92	1288,17
696,10	1210,35
696,29	1277,93
696,47	1288,17
696,66	1329,13
696,84	1210,35
697,03	1257,45
697,21	1265,64
697,40	1300,46
697,58	1255,40
697,76	1345,52
697,95	1296,36
698,13	1228,78
698,32	1353,71
698,50	1269,74
698,68	1263,60
698,87	1279,98
699,05	1247,21
699,24	1310,70
699,42	1230,83
699,61	1263,60
699,79	1333,23
699,97	1312,75
700,16	1296,36
700,34	1243,12
700,53	1292,27
700,71	1302,51
700,89	1230,83
701,08	1267,69
701,26	1234,93
701,45	1286,12
701,63	1322,99
701,81	1267,69
702,00	1187,82
702,18	1255,40
702,37	1214,45
702,55	1310,70
702,73	1236,97
702,92	1318,89
703,10	1286,12
703,28	1282,03
703,47	1273,84
703,65	1292,27
703,84	1300,46
704,02	1353,71
704,20	1331,18
704,39	1212,40
704,57	1316,84
704,75	1286,12
704,94	1318,89
705,12	1267,69
705,30	1245,16
705,49	1261,55
705,67	1310,70
705,86	1296,36
706,04	1167,34
706,22	1331,18
706,41	1232,88
706,59	1288,17
706,77	1222,64
706,96	1257,45
707,14	1224,69
707,32	1214,45
707,51	1306,60
707,69	1263,60
707,87	1271,79
708,06	1269,74
708,24	1273,84
708,42	1206,25
708,61	1273,84
708,79	1236,97
708,97	1220,59
709,16	1249,26
709,34	1279,98
709,52	1247,21
709,71	1306,60
709,89	1292,27
710,07	1312,75
710,26	1257,45
710,44	1191,92
710,62	1277,93
710,80	1316,84
710,99	1279,98
711,17	1239,02
711,35	1228,78
711,54	1279,98
711,72	1241,07
711,90	1265,64
712,09	1388,52
712,27	1320,94
712,45	1261,55
712,63	1273,84
712,82	1282,03
713,00	1230,83
713,18	1236,97
713,37	1294,32
713,55	1275,88
713,73	1255,40
713,91	1363,95
714,10	1284,08
714,28	1320,94
714,46	1290,22
714,65	1222,64
714,83	1304,56
715,01	1226,73
715,19	1236,97
715,38	1208,30
715,56	1261,55
715,74	1255,40
715,92	1331,18
716,11	1245,16
716,29	1306,60
716,47	1253,36
716,65	1298,41
716,84	1269,74
717,02	1265,64
717,20	1282,03
717,38	1292,27
717,57	1296,36
717,75	1255,40
717,93	1302,51
718,11	1265,64
718,30	1304,56
718,48	1267,69
718,66	1253,36
718,84	1263,60
719,03	1232,88
719,21	1241,07
719,39	1300,46
719,57	1234,93
719,75	1279,98
719,94	1294,32
720,12	1314,80
720,30	1236,97
720,48	1257,45
720,67	1288,17
720,85	1279,98
721,03	1236,97
721,21	1247,21
721,39	1206,25
721,58	1261,55
721,76	1236,97
721,94	1261,55
722,12	1314,80
722,30	1290,22
722,49	1279,98
722,67	1312,75
722,85	1384,43
723,03	1224,69
723,21	1318,89
723,40	1189,87
723,58	1273,84
723,76	1193,97
723,94	1322,99
724,12	1290,22
724,30	1257,45
724,49	1341,42
724,67	1288,17
724,85	1320,94
725,03	1216,49
725,21	1265,64
725,40	1247,21
725,58	1249,26
725,76	1314,80
725,94	1259,50
726,12	1261,55
726,30	1267,69
726,49	1302,51
726,67	1245,16
726,85	1316,84
727,03	1310,70
727,21	1290,22
727,39	1212,40
727,57	1277,93
727,76	1230,83
727,94	1288,17
728,12	1208,30
728,30	1216,49
728,48	1247,21
728,66	1273,84
728,84	1292,27
729,03	1277,93
729,21	1325,04
729,39	1191,92
729,57	1251,31
729,75	1292,27
729,93	1230,83
730,11	1171,44
730,30	1300,46
730,48	1253,36
730,66	1239,02
730,84	1275,88
731,02	1257,45
731,20	1275,88
731,38	1247,21
731,56	1245,16
731,74	1302,51
731,93	1306,60
732,11	1277,93
732,29	1300,46
732,47	1255,40
732,65	1294,32
732,83	1284,08
733,01	1261,55
733,19	1196,01
733,37	1228,78
733,56	1273,84
733,74	1271,79
733,92	1251,31
734,10	1318,89
734,28	1259,50
734,46	1273,84
734,64	1271,79
734,82	1255,40
735,00	1271,79
735,18	1212,40
735,36	1290,22
735,54	1298,41
735,73	1222,64
735,91	1259,50
736,09	1226,73
736,27	1325,04
736,45	1306,60
736,63	1306,60
736,81	1273,84
736,99	1236,97
737,17	1298,41
737,35	1255,40
737,53	1277,93
737,71	1267,69
737,89	1269,74
738,07	1302,51
738,25	1247,21
738,43	1253,36
738,61	1308,65
738,80	1320,94
738,98	1300,46
739,16	1320,94
739,34	1355,76
739,52	1269,74
739,70	1300,46
739,88	1277,93
740,06	1247,21
740,24	1255,40
740,42	1304,56
740,60	1329,13
740,78	1236,97
740,96	1247,21
741,14	1327,08
741,32	1249,26
741,50	1202,16
741,68	1279,98
741,86	1286,12
742,04	1296,36
742,22	1212,40
742,40	1277,93
742,58	1269,74
742,76	1298,41
742,94	1220,59
743,12	1306,60
743,30	1279,98
743,48	1267,69
743,66	1245,16
743,84	1200,11
744,02	1247,21
744,20	1241,07
744,38	1288,17
744,56	1251,31
744,74	1212,40
744,92	1273,84
745,10	1243,12
745,28	1204,21
745,46	1224,69
745,64	1302,51
745,82	1261,55
746,00	1296,36
746,18	1267,69
746,36	1288,17
746,54	1277,93
746,72	1288,17
746,90	1206,25
747,08	1277,93
747,26	1316,84
747,44	1290,22
747,62	1279,98
747,80	1265,64
747,98	1206,25
748,15	1239,02
748,33	1253,36
748,51	1312,75
748,69	1267,69
748,87	1286,12
749,05	1351,66
749,23	1245,16
749,41	1288,17
749,59	1198,06
749,77	1282,03
749,95	1263,60
750,13	1277,93
750,31	1277,93
750,49	1265,64
750,67	1331,18
750,85	1271,79
751,03	1236,97
751,20	1224,69
751,38	1253,36
751,56	1366,00
751,74	1292,27
751,92	1298,41
752,10	1279,98
752,28	1236,97
752,46	1243,12
752,64	1247,21
752,82	1312,75
753,00	1263,60
753,18	1259,50
753,35	1251,31
753,53	1312,75
753,71	1222,64
753,89	1312,75
754,07	1296,36
754,25	1245,16
754,43	1236,97
754,61	1224,69
754,79	1288,17
754,97	1288,17
755,14	1312,75
755,32	1279,98
755,50	1296,36
755,68	1282,03
755,86	1296,36
756,04	1263,60
756,22	1208,30
756,40	1314,80
756,57	1236,97
756,75	1232,88
756,93	1249,26
757,11	1296,36
757,29	1279,98
757,47	1243,12
757,65	1279,98
757,82	1245,16
758,00	1318,89
758,18	1269,74
758,36	1277,93
758,54	1255,40
758,72	1253,36
758,90	1230,83
759,07	1245,16
759,25	1228,78
759,43	1157,10
759,61	1269,74
759,79	1277,93
759,97	1296,36
760,15	1302,51
760,32	1306,60
760,50	1236,97
760,68	1296,36
760,86	1259,50
761,04	1304,56
761,22	1290,22
761,39	1277,93
761,57	1214,45
761,75	1251,31
761,93	1269,74
762,11	1193,97
762,28	1257,45
762,46	1232,88
762,64	1318,89
762,82	1167,34
763,00	1284,08
763,18	1300,46
763,35	1234,93
763,53	1322,99
763,71	1312,75
763,89	1261,55
764,07	1292,27
764,24	1294,32
764,42	1257,45
764,60	1294,32
764,78	1349,61
764,96	1245,16
765,13	1239,02
765,31	1267,69
765,49	1230,83
765,67	1228,78
765,84	1279,98
766,02	1298,41
766,20	1187,82
766,38	1269,74
766,56	1253,36
766,73	1359,85
766,91	1257,45
767,09	1247,21
767,27	1363,95
767,44	1232,88
767,62	1204,21
767,80	1273,84
767,98	1259,50
768,15	1259,50
768,33	1232,88
768,51	1290,22
768,69	1245,16
768,87	1216,49
769,04	1296,36
769,22	1333,23
769,40	1249,26
769,58	1277,93
769,75	1216,49
769,93	1318,89
770,11	1253,36
770,28	1253,36
770,46	1253,36
770,64	1269,74
770,82	1224,69
770,99	1228,78
771,17	1296,36
771,35	1275,88
771,53	1275,88
771,70	1279,98
771,88	1302,51
772,06	1284,08
772,23	1230,83
772,41	1290,22
772,59	1335,28
772,77	1273,84
772,94	1273,84
773,12	1282,03
773,30	1181,68
773,47	1277,93
773,65	1255,40
773,83	1222,64
774,01	1288,17
774,18	1214,45
774,36	1251,31
774,54	1316,84
774,71	1292,27
774,89	1255,40
775,07	1253,36
775,24	1298,41
775,42	1286,12
775,60	1273,84
775,78	1218,54
775,95	1253,36
776,13	1263,60
776,31	1210,35
776,48	1306,60
776,66	1243,12
776,84	1271,79
777,01	1259,50
777,19	1325,04
777,37	1267,69
777,54	1214,45
777,72	1249,26
777,90	1232,88
778,07	1222,64
778,25	1308,65
778,43	1316,84
778,60	1273,84
778,78	1202,16
778,96	1259,50
779,13	1259,50
779,31	1257,45
779,49	1253,36
779,66	1261,55
779,84	1241,07
780,01	1243,12
780,19	1243,12
780,37	1267,69
780,54	1247,21
780,72	1273,84
780,90	1288,17
781,07	1222,64
781,25	1228,78
781,43	1255,40
781,60	1257,45
781,78	1279,98
781,95	1228,78
782,13	1265,64
782,31	1335,28
782,48	1282,03
782,66	1304,56
782,83	1241,07
783,01	1300,46
783,19	1288,17
783,36	1263,60
783,54	1277,93
783,72	1245,16
783,89	1212,40
784,07	1241,07
784,24	1277,93
784,42	1224,69
784,60	1210,35
784,77	1300,46
784,95	1236,97
785,12	1302,51
785,30	1230,83
785,47	1288,17
785,65	1255,40
785,83	1296,36
786,00	1263,60
786,18	1271,79
786,35	1249,26
786,53	1294,32
786,71	1222,64
786,88	1230,83
787,06	1333,23
787,23	1279,98
787,41	1290,22
787,58	1288,17
787,76	1253,36
787,94	1193,97
788,11	1269,74
788,29	1220,59
788,46	1210,35
788,64	1255,40
788,81	1368,04
788,99	1241,07
789,16	1302,51
789,34	1259,50
789,52	1171,44
789,69	1255,40
789,87	1243,12
790,04	1282,03
790,22	1253,36
790,39	1220,59
790,57	1236,97
790,74	1234,93
790,92	1218,54
791,09	1200,11
791,27	1298,41
791,44	1279,98
791,62	1302,51
791,79	1282,03
791,97	1214,45
792,15	1263,60
792,32	1218,54
792,50	1290,22
792,67	1249,26
792,85	1345,52
793,02	1314,80
793,20	1265,64
793,37	1296,36
793,55	1259,50
793,72	1314,80
793,90	1271,79
794,07	1232,88
794,25	1265,64
794,42	1193,97
794,60	1335,28
794,77	1249,26
794,95	1230,83
795,12	1228,78
795,30	1279,98
795,47	1241,07
795,65	1292,27
795,82	1331,18
796,00	1226,73
796,17	1288,17
796,34	1257,45
796,52	1302,51
796,69	1265,64
796,87	1257,45
797,04	1239,02
797,22	1247,21
797,39	1290,22
797,57	1263,60
797,74	1253,36
797,92	1218,54
798,09	1271,79
798,27	1310,70
798,44	1212,40
798,62	1288,17
798,79	1279,98
798,96	1267,69
799,14	1204,21
799,31	1298,41
799,49	1284,08
799,66	1253,36
799,84	1284,08
800,01	1230,83
800,19	1202,16
800,36	1206,25
800,53	1220,59
800,71	1304,56
800,88	1269,74
801,06	1243,12
801,23	1265,64
801,41	1230,83
801,58	1271,79
801,75	1251,31
801,93	1198,06
802,10	1179,63
802,28	1294,32
802,45	1286,12
802,63	1380,33
802,80	1259,50
802,97	1204,21
803,15	1275,88
803,32	1298,41
803,50	1257,45
803,67	1261,55
803,84	1157,10
804,02	1247,21
804,19	1310,70
804,37	1265,64
804,54	1267,69
804,71	1263,60
804,89	1265,64
805,06	1261,55
805,24	1292,27
805,41	1353,71
805,58	1271,79
805,76	1234,93
805,93	1288,17
806,10	1245,16
806,28	1259,50
806,45	1253,36
806,63	1279,98
806,80	1294,32
806,97	1255,40
807,15	1257,45
807,32	1234,93
807,49	1275,88
807,67	1259,50
807,84	1263,60
808,01	1279,98
808,19	1306,60
808,36	1251,31
808,54	1271,79
808,71	1247,21
808,88	1372,14
809,06	1279,98
809,23	1339,37
809,40	1265,64
809,58	1265,64
809,75	1222,64
809,92	1218,54
810,10	1331,18
810,27	1187,82
810,44	1290,22
810,62	1230,83
810,79	1214,45
810,96	1251,31
811,14	1146,86
811,31	1239,02
811,48	1214,45
811,66	1325,04
811,83	1251,31
812,00	1206,25
812,18	1327,08
812,35	1296,36
812,52	1273,84
812,69	1257,45
812,87	1314,80
813,04	1345,52
813,21	1251,31
813,39	1239,02
813,56	1310,70
813,73	1226,73
813,91	1269,74
814,08	1277,93
814,25	1263,60
814,42	1243,12
814,60	1259,50
814,77	1298,41
814,94	1300,46
815,12	1331,18
815,29	1290,22
815,46	1247,21
815,63	1308,65
815,81	1302,51
815,98	1208,30
816,15	1282,03
816,33	1294,32
816,50	1239,02
816,67	1284,08
816,84	1275,88
817,02	1239,02
817,19	1210,35
817,36	1271,79
817,53	1263,60
817,71	1296,36
817,88	1251,31
818,05	1265,64
818,22	1366,00
818,40	1232,88
818,57	1218,54
818,74	1282,03
818,91	1257,45
819,09	1282,03
819,26	1273,84
819,43	1255,40
819,60	1263,60
819,78	1222,64
819,95	1286,12
820,12	1212,40
820,29	1329,13
820,47	1290,22
820,64	1286,12
820,81	1269,74
820,98	1265,64
821,15	1191,92
821,33	1265,64
821,50	1279,98
821,67	1230,83
821,84	1316,84
822,02	1228,78
822,19	1206,25
822,36	1247,21
822,53	1228,78
822,70	1187,82
822,88	1239,02
823,05	1304,56
823,22	1196,01
823,39	1290,22
823,56	1370,09
823,74	1255,40
823,91	1234,93
824,08	1314,80
824,25	1245,16
824,42	1282,03
824,60	1234,93
824,77	1273,84
824,94	1296,36
825,11	1271,79
825,28	1245,16
825,45	1282,03
825,63	1185,77
825,80	1269,74
825,97	1282,03
826,14	1206,25
826,31	1271,79
826,48	1255,40
826,66	1294,32
826,83	1269,74
827,00	1282,03
827,17	1267,69
827,34	1290,22
827,51	1263,60
827,69	1247,21
827,86	1277,93
828,03	1228,78
828,20	1325,04
828,37	1286,12
828,54	1259,50
828,71	1306,60
828,89	1236,97
829,06	1298,41
829,23	1325,04
829,40	1265,64
829,57	1236,97
829,74	1245,16
829,91	1269,74
830,09	1267,69
830,26	1263,60
830,43	1193,97
830,60	1245,16
830,77	1249,26
830,94	1275,88
831,11	1220,59
831,28	1312,75
831,46	1286,12
831,63	1249,26
831,80	1255,40
831,97	1279,98
832,14	1294,32
832,31	1255,40
832,48	1234,93
832,65	1296,36
832,82	1269,74
832,99	1265,64
833,17	1286,12
833,34	1314,80
833,51	1224,69
833,68	1271,79
833,85	1271,79
834,02	1282,03
834,19	1320,94
834,36	1302,51
834,53	1318,89
834,70	1314,80
834,87	1273,84
835,04	1175,53
835,22	1288,17
835,39	1263,60
835,56	1255,40
835,73	1271,79
835,90	1253,36
836,07	1218,54
836,24	1273,84
836,41	1218,54
836,58	1243,12
836,75	1290,22
836,92	1253,36
837,09	1236,97
837,26	1198,06
837,43	1243,12
837,60	1261,55
837,77	1216,49
837,94	1236,97
838,12	1314,80
838,29	1318,89
838,46	1265,64
838,63	1232,88
838,80	1263,60
838,97	1273,84
839,14	1279,98
839,31	1320,94
839,48	1339,37
839,65	1236,97
839,82	1271,79
839,99	1269,74
840,16	1245,16
840,33	1320,94
840,50	1347,56
840,67	1343,47
840,84	1236,97
841,01	1206,25
841,18	1306,60
841,35	1275,88
841,52	1216,49
841,69	1259,50
841,86	1243,12
842,03	1263,60
842,20	1298,41
842,37	1230,83
842,54	1265,64
842,71	1214,45
842,88	1232,88
843,05	1284,08
843,22	1247,21
843,39	1245,16
843,56	1312,75
843,73	1304,56
843,90	1271,79
844,07	1173,49
844,24	1314,80
844,41	1302,51
844,58	1312,75
844,75	1271,79
844,92	1329,13
845,09	1298,41
845,26	1325,04
845,43	1333,23
845,60	1302,51
845,77	1216,49
845,94	1325,04
846,10	1224,69
846,27	1331,18
846,44	1298,41
846,61	1271,79
846,78	1286,12
846,95	1343,47
847,12	1286,12
847,29	1222,64
847,46	1230,83
847,63	1212,40
847,80	1292,27
847,97	1298,41
848,14	1267,69
848,31	1298,41
848,48	1253,36
848,65	1298,41
848,82	1239,02
848,98	1314,80
849,15	1310,70
849,32	1232,88
849,49	1243,12
849,66	1296,36
849,83	1279,98
850,00	1269,74
850,17	1282,03
850,34	1363,95
850,51	1284,08
850,68	1239,02
850,85	1265,64
851,01	1282,03
851,18	1263,60
851,35	1308,65
851,52	1249,26
851,69	1284,08
851,86	1208,30
852,03	1239,02
852,20	1318,89
852,37	1279,98
852,53	1275,88
852,70	1241,07
852,87	1267,69
853,04	1275,88
853,21	1247,21
853,38	1347,56
853,55	1327,08
853,72	1294,32
853,89	1218,54
854,05	1230,83
854,22	1279,98
854,39	1261,55
854,56	1198,06
854,73	1329,13
854,90	1294,32
855,07	1308,65
855,23	1239,02
855,40	1218,54
855,57	1249,26
855,74	1249,26
855,91	1261,55
856,08	1222,64
856,25	1247,21
856,41	1337,32
856,58	1253,36
856,75	1306,60
856,92	1159,15
857,09	1306,60
857,26	1243,12
857,42	1220,59
857,59	1255,40
857,76	1243,12
857,93	1284,08
858,10	1327,08
858,27	1282,03
858,43	1222,64
858,60	1198,06
858,77	1218,54
858,94	1298,41
859,11	1290,22
859,27	1230,83
859,44	1247,21
859,61	1255,40
859,78	1306,60
859,95	1286,12
860,12	1288,17
860,28	1261,55
860,45	1292,27
860,62	1236,97
860,79	1290,22
860,95	1236,97
861,12	1273,84
861,29	1288,17
861,46	1288,17
861,63	1167,34
861,79	1292,27
861,96	1216,49
862,13	1314,80
862,30	1322,99
862,47	1292,27
862,63	1267,69
862,80	1234,93
862,97	1310,70
863,14	1337,32
863,30	1290,22
863,47	1298,41
863,64	1263,60
863,81	1226,73
863,97	1263,60
864,14	1312,75
864,31	1204,21
864,48	1261,55
864,65	1259,50
864,81	1230,83
864,98	1337,32
865,15	1279,98
865,32	1253,36
865,48	1343,47
865,65	1312,75
865,82	1273,84
865,98	1224,69
866,15	1312,75
866,32	1320,94
866,49	1261,55
866,65	1253,36
866,82	1300,46
866,99	1218,54
867,16	1316,84
867,32	1294,32
867,49	1228,78
867,66	1316,84
867,83	1312,75
867,99	1294,32
868,16	1263,60
868,33	1218,54
868,49	1259,50
868,66	1277,93
868,83	1257,45
868,99	1308,65
869,16	1216,49
869,33	1292,27
869,50	1253,36
869,66	1300,46
869,83	1234,93
870,00	1218,54
870,16	1273,84
870,33	1236,97
870,50	1247,21
870,66	1325,04
870,83	1277,93
871,00	1204,21
871,17	1273,84
871,33	1300,46
871,50	1216,49
871,67	1267,69
871,83	1294,32
872,00	1196,01
872,17	1247,21
872,33	1277,93
872,50	1200,11
872,67	1320,94
872,83	1269,74
873,00	1294,32
873,17	1241,07
873,33	1239,02
873,50	1286,12
873,67	1239,02
873,83	1214,45
874,00	1210,35
874,16	1232,88
874,33	1361,90
874,50	1331,18
874,66	1294,32
874,83	1239,02
875,00	1253,36
875,16	1314,80
875,33	1263,60
875,50	1267,69
875,66	1302,51
875,83	1298,41
875,99	1265,64
876,16	1263,60
876,33	1265,64
876,49	1306,60
876,66	1322,99
876,83	1247,21
876,99	1251,31
877,16	1234,93
877,32	1279,98
877,49	1253,36
877,66	1249,26
877,82	1308,65
877,99	1253,36
878,15	1253,36
878,32	1232,88
878,49	1310,70
878,65	1228,78
878,82	1251,31
878,98	1253,36
879,15	1308,65
879,32	1294,32
879,48	1267,69
879,65	1191,92
879,81	1310,70
879,98	1269,74
880,15	1243,12
880,31	1263,60
880,48	1298,41
880,64	1277,93
880,81	1279,98
880,97	1261,55
881,14	1241,07
881,31	1220,59
881,47	1298,41
881,64	1255,40
881,80	1253,36
881,97	1255,40
882,13	1265,64
882,30	1282,03
882,47	1273,84
882,63	1290,22
882,80	1306,60
882,96	1284,08
883,13	1304,56
883,29	1251,31
883,46	1259,50
883,62	1255,40
883,79	1275,88
883,95	1249,26
884,12	1247,21
884,29	1290,22
884,45	1267,69
884,62	1232,88
884,78	1282,03
884,95	1265,64
885,11	1216,49
885,28	1368,04
885,44	1267,69
885,61	1292,27
885,77	1263,60
885,94	1275,88
886,10	1239,02
886,27	1279,98
886,43	1282,03
886,60	1247,21
886,76	1271,79
886,93	1286,12
887,09	1374,19
887,26	1286,12
887,42	1204,21
887,59	1236,97
887,75	1312,75
887,92	1292,27
888,08	1236,97
888,25	1277,93
888,41	1245,16
888,58	1275,88
888,74	1226,73
888,91	1275,88
>>>>>End Processed Spectral Data<<<<<
