SpectraSuite Data File
++++++++++++++++++++++++++++++++++++
Date: Sun Apr 03 19:55:15 CEST 2016
User: root
Dark Spectrum Present: No
Reference Spectrum Present: No
Number of Sampled Component Spectra: 1
Spectrometers: USB4C02835
Integration Time (usec): 10000 (USB4C02835)
Spectra Averaged: 1 (USB4C02835)
Boxcar Smoothing: 0 (USB4C02835)
Correct for Electrical Dark: No (USB4C02835)
Strobe/Lamp Enabled: No (USB4C02835)
Correct for Detector Non-linearity: No (USB4C02835)
Correct for Stray Light: No (USB4C02835)
Number of Pixels in Processed Spectrum: 3648
>>>>>Begin Processed Spectral Data<<<<<
177,47	1232,88
177,69	1232,88
177,91	1232,88
178,13	1269,74
178,36	1247,21
178,58	1204,21
178,80	1224,69
179,02	1232,88
179,24	1228,78
179,46	1347,56
179,68	1308,65
179,90	1257,45
180,13	1339,37
180,35	1290,22
180,57	1247,21
180,79	1331,18
181,01	1312,75
181,23	1239,02
181,45	1275,88
181,67	1245,16
181,90	1282,03
182,12	1296,36
182,34	1232,88
182,56	1257,45
182,78	1255,40
183,00	1239,02
183,22	1239,02
183,44	1296,36
183,66	1279,98
183,89	1294,32
184,11	1241,07
184,33	1261,55
184,55	1337,32
184,77	1241,07
184,99	1255,40
185,21	1275,88
185,43	1318,89
185,65	1249,26
185,87	1279,98
186,10	1239,02
186,32	1284,08
186,54	1296,36
186,76	1202,16
186,98	1322,99
187,20	1245,16
187,42	1251,31
187,64	1304,56
187,86	1222,64
188,08	1259,50
188,30	1273,84
188,52	1286,12
188,75	1236,97
188,97	1343,47
189,19	1216,49
189,41	1320,94
189,63	1290,22
189,85	1261,55
190,07	1294,32
190,29	1230,83
190,51	1255,40
190,73	1181,68
190,95	1239,02
191,17	1263,60
191,39	1247,21
191,61	1218,54
191,84	1300,46
192,06	1279,98
192,28	1202,16
192,50	1314,80
192,72	1282,03
192,94	1277,93
193,16	1306,60
193,38	1230,83
193,60	1261,55
193,82	1306,60
194,04	1314,80
194,26	1318,89
194,48	1329,13
194,70	1269,74
194,92	1226,73
195,14	1279,98
195,36	1298,41
195,58	1288,17
195,80	1249,26
196,02	1267,69
196,24	1257,45
196,46	1208,30
196,69	1273,84
196,91	1226,73
197,13	1345,52
197,35	1288,17
197,57	1271,79
197,79	1282,03
198,01	1265,64
198,23	1294,32
198,45	1247,21
198,67	1265,64
198,89	1273,84
199,11	1257,45
199,33	1230,83
199,55	1275,88
199,77	1353,71
199,99	1314,80
200,21	1241,07
200,43	1236,97
200,65	1273,84
200,87	1271,79
201,09	1189,87
201,31	1189,87
201,53	1259,50
201,75	1284,08
201,97	1236,97
202,19	1212,40
202,41	1251,31
202,63	1279,98
202,85	1212,40
203,07	1257,45
203,29	1265,64
203,51	1210,35
203,73	1308,65
203,95	1304,56
204,17	1249,26
204,39	1249,26
204,61	1247,21
204,83	1206,25
205,05	1269,74
205,27	1241,07
205,49	1253,36
205,71	1273,84
205,93	1259,50
206,15	1222,64
206,37	1249,26
206,59	1275,88
206,81	1214,45
207,03	1226,73
207,25	1331,18
207,47	1269,74
207,69	1279,98
207,91	1265,64
208,13	1257,45
208,34	1212,40
208,56	1325,04
208,78	1304,56
209,00	1247,21
209,22	1269,74
209,44	1177,58
209,66	1210,35
209,88	1265,64
210,10	1279,98
210,32	1277,93
210,54	1331,18
210,76	1325,04
210,98	1298,41
211,20	1273,84
211,42	1265,64
211,64	1224,69
211,86	1239,02
212,08	1243,12
212,30	1296,36
212,52	1257,45
212,74	1370,09
212,96	1228,78
213,17	1269,74
213,39	1243,12
213,61	1345,52
213,83	1214,45
214,05	1277,93
214,27	1230,83
214,49	1279,98
214,71	1267,69
214,93	1269,74
215,15	1216,49
215,37	1267,69
215,59	1247,21
215,81	1277,93
216,03	1267,69
216,24	1331,18
216,46	1306,60
216,68	1304,56
216,90	1320,94
217,12	1292,27
217,34	1243,12
217,56	1216,49
217,78	1286,12
218,00	1247,21
218,22	1249,26
218,44	1224,69
218,66	1282,03
218,87	1310,70
219,09	1212,40
219,31	1263,60
219,53	1327,08
219,75	1239,02
219,97	1282,03
220,19	1255,40
220,41	1261,55
220,63	1259,50
220,85	1267,69
221,06	1320,94
221,28	1265,64
221,50	1265,64
221,72	1275,88
221,94	1261,55
222,16	1284,08
222,38	1249,26
222,60	1273,84
222,82	1290,22
223,03	1277,93
223,25	1286,12
223,47	1286,12
223,69	1284,08
223,91	1304,56
224,13	1185,77
224,35	1327,08
224,57	1282,03
224,78	1259,50
225,00	1273,84
225,22	1271,79
225,44	1214,45
225,66	1349,61
225,88	1263,60
226,10	1212,40
226,32	1300,46
226,53	1257,45
226,75	1335,28
226,97	1337,32
227,19	1236,97
227,41	1263,60
227,63	1187,82
227,85	1236,97
228,06	1189,87
228,28	1257,45
228,50	1220,59
228,72	1310,70
228,94	1306,60
229,16	1198,06
229,37	1261,55
229,59	1253,36
229,81	1257,45
230,03	1234,93
230,25	1247,21
230,47	1216,49
230,69	1259,50
230,90	1255,40
231,12	1325,04
231,34	1236,97
231,56	1310,70
231,78	1298,41
232,00	1279,98
232,21	1210,35
232,43	1249,26
232,65	1306,60
232,87	1249,26
233,09	1320,94
233,30	1284,08
233,52	1335,28
233,74	1296,36
233,96	1263,60
234,18	1292,27
234,40	1282,03
234,61	1218,54
234,83	1247,21
235,05	1304,56
235,27	1329,13
235,49	1261,55
235,70	1249,26
235,92	1302,51
236,14	1292,27
236,36	1261,55
236,58	1271,79
236,79	1273,84
237,01	1279,98
237,23	1292,27
237,45	1214,45
237,67	1306,60
237,88	1273,84
238,10	1282,03
238,32	1200,11
238,54	1318,89
238,76	1236,97
238,97	1245,16
239,19	1236,97
239,41	1329,13
239,63	1279,98
239,85	1333,23
240,06	1241,07
240,28	1183,73
240,50	1271,79
240,72	1314,80
240,93	1267,69
241,15	1286,12
241,37	1282,03
241,59	1273,84
241,81	1288,17
242,02	1302,51
242,24	1232,88
242,46	1236,97
242,68	1210,35
242,89	1325,04
243,11	1284,08
243,33	1277,93
243,55	1282,03
243,76	1253,36
243,98	1241,07
244,20	1286,12
244,42	1286,12
244,64	1187,82
244,85	1224,69
245,07	1247,21
245,29	1302,51
245,51	1284,08
245,72	1218,54
245,94	1298,41
246,16	1331,18
246,38	1288,17
246,59	1222,64
246,81	1296,36
247,03	1257,45
247,24	1236,97
247,46	1204,21
247,68	1370,09
247,90	1257,45
248,11	1236,97
248,33	1171,44
248,55	1322,99
248,77	1234,93
248,98	1322,99
249,20	1257,45
249,42	1304,56
249,64	1269,74
249,85	1249,26
250,07	1253,36
250,29	1310,70
250,50	1198,06
250,72	1306,60
250,94	1216,49
251,16	1261,55
251,37	1316,84
251,59	1269,74
251,81	1232,88
252,02	1265,64
252,24	1322,99
252,46	1173,49
252,68	1239,02
252,89	1267,69
253,11	1284,08
253,33	1267,69
253,54	1308,65
253,76	1355,76
253,98	1171,44
254,20	1296,36
254,41	1327,08
254,63	1290,22
254,85	1290,22
255,06	1200,11
255,28	1310,70
255,50	1282,03
255,71	1208,30
255,93	1267,69
256,15	1296,36
256,36	1310,70
256,58	1265,64
256,80	1255,40
257,02	1222,64
257,23	1257,45
257,45	1247,21
257,67	1230,83
257,88	1331,18
258,10	1279,98
258,32	1245,16
258,53	1232,88
258,75	1267,69
258,97	1222,64
259,18	1302,51
259,40	1230,83
259,62	1269,74
259,83	1298,41
260,05	1300,46
260,27	1245,16
260,48	1320,94
260,70	1222,64
260,92	1292,27
261,13	1288,17
261,35	1288,17
261,57	1322,99
261,78	1230,83
262,00	1161,20
262,22	1290,22
262,43	1271,79
262,65	1292,27
262,86	1290,22
263,08	1347,56
263,30	1273,84
263,51	1232,88
263,73	1265,64
263,95	1259,50
264,16	1241,07
264,38	1275,88
264,60	1318,89
264,81	1263,60
265,03	1232,88
265,25	1284,08
265,46	1271,79
265,68	1263,60
265,89	1208,30
266,11	1230,83
266,33	1269,74
266,54	1234,93
266,76	1196,01
266,98	1247,21
267,19	1277,93
267,41	1279,98
267,62	1335,28
267,84	1173,49
268,06	1284,08
268,27	1292,27
268,49	1343,47
268,70	1304,56
268,92	1290,22
269,14	1269,74
269,35	1331,18
269,57	1189,87
269,79	1228,78
270,00	1202,16
270,22	1286,12
270,43	1349,61
270,65	1243,12
270,87	1273,84
271,08	1263,60
271,30	1304,56
271,51	1198,06
271,73	1308,65
271,95	1294,32
272,16	1284,08
272,38	1296,36
272,59	1236,97
272,81	1226,73
273,02	1282,03
273,24	1259,50
273,46	1245,16
273,67	1294,32
273,89	1183,73
274,10	1171,44
274,32	1306,60
274,54	1212,40
274,75	1316,84
274,97	1228,78
275,18	1171,44
275,40	1290,22
275,61	1263,60
275,83	1234,93
276,05	1288,17
276,26	1318,89
276,48	1294,32
276,69	1292,27
276,91	1183,73
277,12	1298,41
277,34	1247,21
277,55	1329,13
277,77	1298,41
277,99	1316,84
278,20	1200,11
278,42	1279,98
278,63	1314,80
278,85	1296,36
279,06	1263,60
279,28	1282,03
279,49	1304,56
279,71	1288,17
279,93	1249,26
280,14	1314,80
280,36	1222,64
280,57	1329,13
280,79	1273,84
281,00	1216,49
281,22	1316,84
281,43	1247,21
281,65	1290,22
281,86	1302,51
282,08	1257,45
282,29	1208,30
282,51	1243,12
282,73	1210,35
282,94	1290,22
283,16	1232,88
283,37	1302,51
283,59	1374,19
283,80	1255,40
284,02	1314,80
284,23	1202,16
284,45	1236,97
284,66	1292,27
284,88	1279,98
285,09	1335,28
285,31	1275,88
285,52	1296,36
285,74	1181,68
285,95	1177,58
286,17	1351,66
286,38	1286,12
286,60	1282,03
286,81	1312,75
287,03	1239,02
287,24	1284,08
287,46	1298,41
287,67	1275,88
287,89	1243,12
288,10	1286,12
288,32	1294,32
288,53	1230,83
288,75	1228,78
288,96	1298,41
289,18	1288,17
289,39	1204,21
289,61	1296,36
289,82	1247,21
290,04	1241,07
290,25	1253,36
290,47	1232,88
290,68	1325,04
290,90	1312,75
291,11	1193,97
291,33	1314,80
291,54	1222,64
291,76	1263,60
291,97	1294,32
292,18	1312,75
292,40	1234,93
292,61	1224,69
292,83	1331,18
293,04	1273,84
293,26	1275,88
293,47	1302,51
293,69	1239,02
293,90	1216,49
294,12	1202,16
294,33	1269,74
294,55	1269,74
294,76	1210,35
294,97	1241,07
295,19	1230,83
295,40	1265,64
295,62	1267,69
295,83	1294,32
296,05	1279,98
296,26	1247,21
296,48	1245,16
296,69	1288,17
296,90	1257,45
297,12	1259,50
297,33	1327,08
297,55	1259,50
297,76	1306,60
297,98	1226,73
298,19	1277,93
298,41	1316,84
298,62	1292,27
298,83	1218,54
299,05	1282,03
299,26	1218,54
299,48	1279,98
299,69	1335,28
299,90	1259,50
300,12	1277,93
300,33	1275,88
300,55	1275,88
300,76	1214,45
300,98	1271,79
301,19	1271,79
301,40	1193,97
301,62	1232,88
301,83	1208,30
302,05	1298,41
302,26	1277,93
302,47	1255,40
302,69	1222,64
302,90	1282,03
303,12	1206,25
303,33	1249,26
303,54	1308,65
303,76	1208,30
303,97	1267,69
304,19	1257,45
304,40	1296,36
304,61	1284,08
304,83	1267,69
305,04	1230,83
305,26	1210,35
305,47	1255,40
305,68	1234,93
305,90	1277,93
306,11	1275,88
306,33	1345,52
306,54	1261,55
306,75	1232,88
306,97	1236,97
307,18	1300,46
307,39	1292,27
307,61	1241,07
307,82	1220,59
308,04	1345,52
308,25	1249,26
308,46	1279,98
308,68	1288,17
308,89	1220,59
309,10	1202,16
309,32	1327,08
309,53	1228,78
309,74	1322,99
309,96	1314,80
310,17	1267,69
310,39	1284,08
310,60	1175,53
310,81	1273,84
311,03	1245,16
311,24	1263,60
311,45	1261,55
311,67	1255,40
311,88	1271,79
312,09	1296,36
312,31	1200,11
312,52	1322,99
312,73	1261,55
312,95	1249,26
313,16	1222,64
313,37	1261,55
313,59	1263,60
313,80	1196,01
314,01	1224,69
314,23	1230,83
314,44	1187,82
314,65	1353,71
314,87	1239,02
315,08	1236,97
315,29	1210,35
315,51	1282,03
315,72	1228,78
315,93	1269,74
316,15	1304,56
316,36	1322,99
316,57	1265,64
316,79	1171,44
317,00	1308,65
317,21	1239,02
317,43	1257,45
317,64	1220,59
317,85	1265,64
318,07	1198,06
318,28	1282,03
318,49	1247,21
318,70	1286,12
318,92	1257,45
319,13	1296,36
319,34	1316,84
319,56	1204,21
319,77	1218,54
319,98	1279,98
320,20	1249,26
320,41	1345,52
320,62	1312,75
320,83	1251,31
321,05	1251,31
321,26	1216,49
321,47	1239,02
321,69	1218,54
321,90	1290,22
322,11	1288,17
322,32	1239,02
322,54	1343,47
322,75	1271,79
322,96	1259,50
323,18	1279,98
323,39	1279,98
323,60	1288,17
323,81	1259,50
324,03	1265,64
324,24	1327,08
324,45	1216,49
324,66	1232,88
324,88	1302,51
325,09	1271,79
325,30	1243,12
325,52	1200,11
325,73	1318,89
325,94	1314,80
326,15	1253,36
326,37	1251,31
326,58	1290,22
326,79	1282,03
327,00	1333,23
327,22	1304,56
327,43	1245,16
327,64	1247,21
327,85	1345,52
328,07	1202,16
328,28	1265,64
328,49	1273,84
328,70	1282,03
328,92	1273,84
329,13	1261,55
329,34	1239,02
329,55	1282,03
329,76	1275,88
329,98	1304,56
330,19	1314,80
330,40	1265,64
330,61	1204,21
330,83	1282,03
331,04	1366,00
331,25	1259,50
331,46	1239,02
331,68	1257,45
331,89	1292,27
332,10	1298,41
332,31	1257,45
332,52	1277,93
332,74	1275,88
332,95	1265,64
333,16	1265,64
333,37	1269,74
333,58	1306,60
333,80	1167,34
334,01	1298,41
334,22	1265,64
334,43	1282,03
334,64	1241,07
334,86	1267,69
335,07	1243,12
335,28	1273,84
335,49	1243,12
335,70	1247,21
335,92	1251,31
336,13	1265,64
336,34	1296,36
336,55	1247,21
336,76	1193,97
336,98	1290,22
337,19	1304,56
337,40	1322,99
337,61	1286,12
337,82	1269,74
338,04	1275,88
338,25	1304,56
338,46	1249,26
338,67	1253,36
338,88	1230,83
339,09	1282,03
339,31	1322,99
339,52	1296,36
339,73	1216,49
339,94	1257,45
340,15	1341,42
340,36	1288,17
340,58	1249,26
340,79	1239,02
341,00	1249,26
341,21	1255,40
341,42	1255,40
341,63	1247,21
341,85	1316,84
342,06	1239,02
342,27	1284,08
342,48	1300,46
342,69	1263,60
342,90	1279,98
343,12	1316,84
343,33	1265,64
343,54	1314,80
343,75	1265,64
343,96	1275,88
344,17	1271,79
344,38	1269,74
344,60	1241,07
344,81	1230,83
345,02	1292,27
345,23	1187,82
345,44	1255,40
345,65	1234,93
345,86	1245,16
346,07	1257,45
346,29	1218,54
346,50	1277,93
346,71	1245,16
346,92	1245,16
347,13	1355,76
347,34	1208,30
347,55	1269,74
347,76	1245,16
347,98	1279,98
348,19	1228,78
348,40	1277,93
348,61	1286,12
348,82	1216,49
349,03	1189,87
349,24	1261,55
349,45	1202,16
349,66	1247,21
349,88	1255,40
350,09	1257,45
350,30	1255,40
350,51	1279,98
350,72	1261,55
350,93	1245,16
351,14	1251,31
351,35	1144,81
351,56	1310,70
351,77	1275,88
351,99	1302,51
352,20	1279,98
352,41	1284,08
352,62	1271,79
352,83	1271,79
353,04	1292,27
353,25	1300,46
353,46	1370,09
353,67	1292,27
353,88	1327,08
354,09	1271,79
354,30	1290,22
354,52	1282,03
354,73	1255,40
354,94	1316,84
355,15	1243,12
355,36	1181,68
355,57	1196,01
355,78	1292,27
355,99	1259,50
356,20	1298,41
356,41	1296,36
356,62	1228,78
356,83	1282,03
357,04	1202,16
357,25	1288,17
357,46	1279,98
357,68	1263,60
357,89	1337,32
358,10	1361,90
358,31	1234,93
358,52	1279,98
358,73	1208,30
358,94	1241,07
359,15	1243,12
359,36	1265,64
359,57	1243,12
359,78	1191,92
359,99	1261,55
360,20	1247,21
360,41	1210,35
360,62	1284,08
360,83	1257,45
361,04	1234,93
361,25	1261,55
361,46	1245,16
361,67	1298,41
361,88	1239,02
362,09	1220,59
362,30	1310,70
362,51	1282,03
362,72	1173,49
362,93	1298,41
363,14	1247,21
363,35	1269,74
363,56	1290,22
363,78	1257,45
363,99	1300,46
364,20	1247,21
364,41	1279,98
364,62	1228,78
364,83	1361,90
365,04	1236,97
365,25	1282,03
365,46	1310,70
365,67	1210,35
365,88	1366,00
366,09	1224,69
366,30	1290,22
366,51	1239,02
366,72	1294,32
366,93	1296,36
367,14	1234,93
367,35	1222,64
367,56	1279,98
367,77	1304,56
367,98	1224,69
368,18	1286,12
368,39	1277,93
368,60	1206,25
368,81	1214,45
369,02	1232,88
369,23	1286,12
369,44	1243,12
369,65	1273,84
369,86	1335,28
370,07	1230,83
370,28	1187,82
370,49	1318,89
370,70	1253,36
370,91	1279,98
371,12	1263,60
371,33	1202,16
371,54	1306,60
371,75	1337,32
371,96	1269,74
372,17	1247,21
372,38	1337,32
372,59	1230,83
372,80	1239,02
373,01	1222,64
373,22	1282,03
373,43	1341,42
373,64	1288,17
373,85	1271,79
374,06	1273,84
374,26	1290,22
374,47	1269,74
374,68	1322,99
374,89	1265,64
375,10	1267,69
375,31	1306,60
375,52	1294,32
375,73	1300,46
375,94	1314,80
376,15	1312,75
376,36	1304,56
376,57	1300,46
376,78	1265,64
376,99	1245,16
377,20	1275,88
377,40	1175,53
377,61	1314,80
377,82	1255,40
378,03	1216,49
378,24	1331,18
378,45	1228,78
378,66	1296,36
378,87	1247,21
379,08	1210,35
379,29	1214,45
379,50	1310,70
379,71	1273,84
379,91	1224,69
380,12	1335,28
380,33	1277,93
380,54	1236,97
380,75	1296,36
380,96	1253,36
381,17	1273,84
381,38	1267,69
381,59	1259,50
381,80	1232,88
382,00	1286,12
382,21	1202,16
382,42	1271,79
382,63	1265,64
382,84	1212,40
383,05	1245,16
383,26	1316,84
383,47	1241,07
383,68	1259,50
383,88	1236,97
384,09	1232,88
384,30	1230,83
384,51	1271,79
384,72	1273,84
384,93	1226,73
385,14	1257,45
385,35	1363,95
385,55	1144,81
385,76	1263,60
385,97	1308,65
386,18	1320,94
386,39	1279,98
386,60	1208,30
386,81	1196,01
387,02	1265,64
387,22	1279,98
387,43	1265,64
387,64	1269,74
387,85	1261,55
388,06	1241,07
388,27	1251,31
388,48	1257,45
388,68	1255,40
388,89	1196,01
389,10	1288,17
389,31	1279,98
389,52	1257,45
389,73	1249,26
389,93	1224,69
390,14	1325,04
390,35	1271,79
390,56	1320,94
390,77	1345,52
390,98	1226,73
391,18	1290,22
391,39	1230,83
391,60	1261,55
391,81	1255,40
392,02	1249,26
392,23	1265,64
392,43	1351,66
392,64	1261,55
392,85	1333,23
393,06	1302,51
393,27	1341,42
393,47	1204,21
393,68	1288,17
393,89	1279,98
394,10	1312,75
394,31	1153,01
394,52	1357,80
394,72	1271,79
394,93	1210,35
395,14	1292,27
395,35	1255,40
395,56	1300,46
395,76	1259,50
395,97	1255,40
396,18	1249,26
396,39	1243,12
396,60	1210,35
396,80	1255,40
397,01	1241,07
397,22	1259,50
397,43	1277,93
397,64	1298,41
397,84	1204,21
398,05	1259,50
398,26	1284,08
398,47	1282,03
398,67	1304,56
398,88	1304,56
399,09	1337,32
399,30	1329,13
399,51	1236,97
399,71	1261,55
399,92	1286,12
400,13	1271,79
400,34	1353,71
400,54	1208,30
400,75	1312,75
400,96	1277,93
401,17	1171,44
401,37	1335,28
401,58	1312,75
401,79	1316,84
402,00	1290,22
402,21	1228,78
402,41	1277,93
402,62	1200,11
402,83	1273,84
403,04	1232,88
403,24	1228,78
403,45	1271,79
403,66	1232,88
403,87	1232,88
404,07	1202,16
404,28	1306,60
404,49	1239,02
404,70	1245,16
404,90	1279,98
405,11	1312,75
405,32	1325,04
405,52	1222,64
405,73	1212,40
405,94	1294,32
406,15	1298,41
406,35	1277,93
406,56	1298,41
406,77	1298,41
406,98	1263,60
407,18	1222,64
407,39	1306,60
407,60	1210,35
407,80	1298,41
408,01	1363,95
408,22	1214,45
408,43	1290,22
408,63	1288,17
408,84	1296,36
409,05	1251,31
409,25	1310,70
409,46	1269,74
409,67	1218,54
409,88	1279,98
410,08	1308,65
410,29	1232,88
410,50	1273,84
410,70	1247,21
410,91	1298,41
411,12	1275,88
411,32	1304,56
411,53	1261,55
411,74	1183,73
411,95	1279,98
412,15	1247,21
412,36	1177,58
412,57	1216,49
412,77	1296,36
412,98	1298,41
413,19	1329,13
413,39	1230,83
413,60	1298,41
413,81	1234,93
414,01	1314,80
414,22	1265,64
414,43	1200,11
414,63	1322,99
414,84	1243,12
415,05	1304,56
415,25	1216,49
415,46	1187,82
415,67	1253,36
415,87	1316,84
416,08	1294,32
416,29	1224,69
416,49	1306,60
416,70	1204,21
416,91	1251,31
417,11	1269,74
417,32	1304,56
417,53	1292,27
417,73	1214,45
417,94	1318,89
418,15	1222,64
418,35	1273,84
418,56	1314,80
418,77	1269,74
418,97	1204,21
419,18	1216,49
419,38	1226,73
419,59	1222,64
419,80	1259,50
420,00	1296,36
420,21	1298,41
420,42	1253,36
420,62	1308,65
420,83	1302,51
421,04	1314,80
421,24	1261,55
421,45	1245,16
421,65	1277,93
421,86	1247,21
422,07	1327,08
422,27	1265,64
422,48	1214,45
422,69	1286,12
422,89	1247,21
423,10	1220,59
423,30	1228,78
423,51	1263,60
423,72	1177,58
423,92	1265,64
424,13	1277,93
424,33	1312,75
424,54	1234,93
424,75	1259,50
424,95	1236,97
425,16	1329,13
425,36	1304,56
425,57	1312,75
425,78	1251,31
425,98	1277,93
426,19	1263,60
426,39	1298,41
426,60	1245,16
426,81	1247,21
427,01	1185,77
427,22	1226,73
427,42	1290,22
427,63	1306,60
427,83	1322,99
428,04	1263,60
428,25	1302,51
428,45	1335,28
428,66	1216,49
428,86	1234,93
429,07	1265,64
429,28	1220,59
429,48	1300,46
429,69	1282,03
429,89	1224,69
430,10	1228,78
430,30	1222,64
430,51	1294,32
430,71	1279,98
430,92	1236,97
431,13	1202,16
431,33	1193,97
431,54	1263,60
431,74	1312,75
431,95	1181,68
432,15	1290,22
432,36	1191,92
432,56	1298,41
432,77	1253,36
432,98	1255,40
433,18	1312,75
433,39	1236,97
433,59	1376,24
433,80	1255,40
434,00	1251,31
434,21	1277,93
434,41	1236,97
434,62	1245,16
434,82	1298,41
435,03	1300,46
435,23	1331,18
435,44	1320,94
435,64	1243,12
435,85	1279,98
436,06	1243,12
436,26	1314,80
436,47	1210,35
436,67	1245,16
436,88	1206,25
437,08	1290,22
437,29	1312,75
437,49	1275,88
437,70	1294,32
437,90	1325,04
438,11	1249,26
438,31	1345,52
438,52	1271,79
438,72	1249,26
438,93	1300,46
439,13	1308,65
439,34	1308,65
439,54	1239,02
439,75	1218,54
439,95	1273,84
440,16	1247,21
440,36	1259,50
440,57	1296,36
440,77	1419,24
440,98	1277,93
441,18	1322,99
441,39	1245,16
441,59	1282,03
441,80	1294,32
442,00	1222,64
442,21	1263,60
442,41	1236,97
442,62	1275,88
442,82	1306,60
443,02	1271,79
443,23	1320,94
443,43	1290,22
443,64	1290,22
443,84	1263,60
444,05	1294,32
444,25	1263,60
444,46	1255,40
444,66	1300,46
444,87	1298,41
445,07	1216,49
445,28	1275,88
445,48	1273,84
445,69	1282,03
445,89	1253,36
446,09	1251,31
446,30	1290,22
446,50	1314,80
446,71	1236,97
446,91	1265,64
447,12	1239,02
447,32	1249,26
447,53	1290,22
447,73	1279,98
447,93	1249,26
448,14	1288,17
448,34	1200,11
448,55	1241,07
448,75	1298,41
448,96	1298,41
449,16	1234,93
449,36	1345,52
449,57	1247,21
449,77	1279,98
449,98	1200,11
450,18	1259,50
450,39	1275,88
450,59	1273,84
450,79	1275,88
451,00	1310,70
451,20	1312,75
451,41	1273,84
451,61	1267,69
451,81	1314,80
452,02	1253,36
452,22	1232,88
452,43	1277,93
452,63	1288,17
452,84	1290,22
453,04	1224,69
453,24	1333,23
453,45	1308,65
453,65	1320,94
453,86	1310,70
454,06	1296,36
454,26	1308,65
454,47	1366,00
454,67	1263,60
454,87	1263,60
455,08	1316,84
455,28	1282,03
455,49	1347,56
455,69	1251,31
455,89	1306,60
456,10	1310,70
456,30	1325,04
456,51	1312,75
456,71	1177,58
456,91	1306,60
457,12	1316,84
457,32	1341,42
457,52	1302,51
457,73	1239,02
457,93	1318,89
458,14	1241,07
458,34	1310,70
458,54	1263,60
458,75	1331,18
458,95	1331,18
459,15	1218,54
459,36	1300,46
459,56	1302,51
459,76	1220,59
459,97	1241,07
460,17	1269,74
460,37	1345,52
460,58	1273,84
460,78	1282,03
460,99	1216,49
461,19	1286,12
461,39	1255,40
461,60	1239,02
461,80	1279,98
462,00	1296,36
462,21	1320,94
462,41	1239,02
462,61	1243,12
462,82	1253,36
463,02	1255,40
463,22	1257,45
463,43	1263,60
463,63	1282,03
463,83	1267,69
464,04	1241,07
464,24	1245,16
464,44	1290,22
464,64	1339,37
464,85	1308,65
465,05	1282,03
465,25	1269,74
465,46	1265,64
465,66	1279,98
465,86	1265,64
466,07	1257,45
466,27	1239,02
466,47	1282,03
466,68	1259,50
466,88	1275,88
467,08	1247,21
467,29	1200,11
467,49	1355,76
467,69	1232,88
467,89	1273,84
468,10	1312,75
468,30	1198,06
468,50	1255,40
468,71	1296,36
468,91	1214,45
469,11	1253,36
469,31	1212,40
469,52	1310,70
469,72	1288,17
469,92	1239,02
470,13	1290,22
470,33	1273,84
470,53	1288,17
470,73	1251,31
470,94	1296,36
471,14	1327,08
471,34	1269,74
471,54	1208,30
471,75	1267,69
471,95	1284,08
472,15	1218,54
472,36	1308,65
472,56	1329,13
472,76	1312,75
472,96	1220,59
473,17	1267,69
473,37	1320,94
473,57	1359,85
473,77	1275,88
473,98	1279,98
474,18	1269,74
474,38	1232,88
474,58	1296,36
474,79	1322,99
474,99	1275,88
475,19	1259,50
475,39	1234,93
475,60	1232,88
475,80	1236,97
476,00	1277,93
476,20	1206,25
476,41	1263,60
476,61	1339,37
476,81	1327,08
477,01	1298,41
477,21	1261,55
477,42	1380,33
477,62	1271,79
477,82	1234,93
478,02	1279,98
478,23	1353,71
478,43	1247,21
478,63	1347,56
478,83	1247,21
479,03	1249,26
479,24	1294,32
479,44	1290,22
479,64	1247,21
479,84	1339,37
480,04	1230,83
480,25	1249,26
480,45	1259,50
480,65	1310,70
480,85	1263,60
481,06	1345,52
481,26	1222,64
481,46	1210,35
481,66	1390,57
481,86	1239,02
482,06	1306,60
482,27	1204,21
482,47	1298,41
482,67	1312,75
482,87	1286,12
483,07	1298,41
483,28	1236,97
483,48	1288,17
483,68	1269,74
483,88	1322,99
484,08	1247,21
484,29	1198,06
484,49	1257,45
484,69	1243,12
484,89	1288,17
485,09	1279,98
485,29	1228,78
485,50	1247,21
485,70	1298,41
485,90	1282,03
486,10	1267,69
486,30	1302,51
486,50	1243,12
486,71	1220,59
486,91	1308,65
487,11	1275,88
487,31	1253,36
487,51	1259,50
487,71	1269,74
487,91	1247,21
488,12	1181,68
488,32	1220,59
488,52	1239,02
488,72	1306,60
488,92	1306,60
489,12	1218,54
489,32	1290,22
489,53	1273,84
489,73	1249,26
489,93	1261,55
490,13	1241,07
490,33	1294,32
490,53	1282,03
490,73	1312,75
490,94	1241,07
491,14	1243,12
491,34	1257,45
491,54	1214,45
491,74	1286,12
491,94	1298,41
492,14	1290,22
492,34	1345,52
492,54	1308,65
492,75	1277,93
492,95	1245,16
493,15	1239,02
493,35	1273,84
493,55	1353,71
493,75	1230,83
493,95	1282,03
494,15	1241,07
494,35	1263,60
494,56	1247,21
494,76	1320,94
494,96	1335,28
495,16	1351,66
495,36	1200,11
495,56	1300,46
495,76	1318,89
495,96	1208,30
496,16	1234,93
496,36	1286,12
496,56	1331,18
496,77	1241,07
496,97	1279,98
497,17	1296,36
497,37	1249,26
497,57	1241,07
497,77	1208,30
497,97	1216,49
498,17	1224,69
498,37	1288,17
498,57	1224,69
498,77	1296,36
498,97	1253,36
499,17	1257,45
499,38	1300,46
499,58	1368,04
499,78	1243,12
499,98	1200,11
500,18	1247,21
500,38	1232,88
500,58	1282,03
500,78	1294,32
500,98	1236,97
501,18	1232,88
501,38	1302,51
501,58	1351,66
501,78	1282,03
501,98	1251,31
502,18	1273,84
502,38	1282,03
502,58	1314,80
502,78	1251,31
502,98	1265,64
503,18	1308,65
503,38	1361,90
503,59	1261,55
503,79	1294,32
503,99	1290,22
504,19	1228,78
504,39	1329,13
504,59	1368,04
504,79	1241,07
504,99	1327,08
505,19	1353,71
505,39	1343,47
505,59	1236,97
505,79	1302,51
505,99	1265,64
506,19	1318,89
506,39	1288,17
506,59	1325,04
506,79	1345,52
506,99	1241,07
507,19	1298,41
507,39	1304,56
507,59	1267,69
507,79	1288,17
507,99	1282,03
508,19	1327,08
508,39	1257,45
508,59	1212,40
508,79	1253,36
508,99	1316,84
509,19	1329,13
509,39	1294,32
509,59	1282,03
509,79	1290,22
509,99	1247,21
510,19	1302,51
510,39	1249,26
510,59	1206,25
510,79	1230,83
510,99	1279,98
511,19	1198,06
511,39	1325,04
511,59	1310,70
511,79	1286,12
511,99	1357,80
512,19	1316,84
512,38	1269,74
512,58	1322,99
512,78	1292,27
512,98	1316,84
513,18	1282,03
513,38	1339,37
513,58	1292,27
513,78	1257,45
513,98	1257,45
514,18	1236,97
514,38	1310,70
514,58	1267,69
514,78	1263,60
514,98	1255,40
515,18	1234,93
515,38	1220,59
515,58	1218,54
515,78	1306,60
515,98	1335,28
516,18	1226,73
516,38	1228,78
516,57	1249,26
516,77	1290,22
516,97	1220,59
517,17	1236,97
517,37	1267,69
517,57	1271,79
517,77	1228,78
517,97	1314,80
518,17	1277,93
518,37	1331,18
518,57	1322,99
518,77	1255,40
518,97	1329,13
519,16	1265,64
519,36	1322,99
519,56	1247,21
519,76	1294,32
519,96	1320,94
520,16	1286,12
520,36	1316,84
520,56	1263,60
520,76	1204,21
520,96	1286,12
521,16	1196,01
521,35	1236,97
521,55	1306,60
521,75	1279,98
521,95	1288,17
522,15	1257,45
522,35	1300,46
522,55	1153,01
522,75	1241,07
522,95	1269,74
523,14	1236,97
523,34	1273,84
523,54	1230,83
523,74	1294,32
523,94	1255,40
524,14	1234,93
524,34	1288,17
524,54	1241,07
524,73	1288,17
524,93	1329,13
525,13	1314,80
525,33	1370,09
525,53	1239,02
525,73	1306,60
525,93	1290,22
526,13	1249,26
526,32	1239,02
526,52	1273,84
526,72	1312,75
526,92	1296,36
527,12	1206,25
527,32	1239,02
527,52	1249,26
527,71	1302,51
527,91	1370,09
528,11	1306,60
528,31	1239,02
528,51	1294,32
528,71	1255,40
528,90	1294,32
529,10	1230,83
529,30	1316,84
529,50	1249,26
529,70	1275,88
529,90	1286,12
530,09	1363,95
530,29	1335,28
530,49	1271,79
530,69	1298,41
530,89	1306,60
531,09	1275,88
531,28	1316,84
531,48	1322,99
531,68	1234,93
531,88	1243,12
532,08	1318,89
532,28	1282,03
532,47	1257,45
532,67	1273,84
532,87	1228,78
533,07	1236,97
533,27	1322,99
533,46	1257,45
533,66	1251,31
533,86	1306,60
534,06	1339,37
534,26	1310,70
534,45	1318,89
534,65	1288,17
534,85	1249,26
535,05	1263,60
535,25	1282,03
535,44	1294,32
535,64	1292,27
535,84	1308,65
536,04	1302,51
536,24	1292,27
536,43	1198,06
536,63	1325,04
536,83	1316,84
537,03	1259,50
537,22	1308,65
537,42	1228,78
537,62	1310,70
537,82	1294,32
538,02	1288,17
538,21	1343,47
538,41	1265,64
538,61	1279,98
538,81	1325,04
539,00	1284,08
539,20	1294,32
539,40	1304,56
539,60	1228,78
539,79	1208,30
539,99	1279,98
540,19	1361,90
540,39	1255,40
540,58	1263,60
540,78	1253,36
540,98	1302,51
541,18	1279,98
541,37	1273,84
541,57	1310,70
541,77	1290,22
541,97	1263,60
542,16	1294,32
542,36	1337,32
542,56	1243,12
542,76	1259,50
542,95	1286,12
543,15	1243,12
543,35	1290,22
543,54	1329,13
543,74	1337,32
543,94	1255,40
544,14	1251,31
544,33	1347,56
544,53	1263,60
544,73	1284,08
544,93	1255,40
545,12	1275,88
545,32	1230,83
545,52	1290,22
545,71	1304,56
545,91	1275,88
546,11	1277,93
546,30	1241,07
546,50	1325,04
546,70	1386,47
546,90	1265,64
547,09	1337,32
547,29	1337,32
547,49	1314,80
547,68	1275,88
547,88	1300,46
548,08	1279,98
548,27	1259,50
548,47	1175,53
548,67	1224,69
548,87	1277,93
549,06	1236,97
549,26	1331,18
549,46	1273,84
549,65	1282,03
549,85	1271,79
550,05	1306,60
550,24	1288,17
550,44	1279,98
550,64	1351,66
550,83	1394,67
551,03	1312,75
551,23	1251,31
551,42	1316,84
551,62	1226,73
551,82	1300,46
552,01	1290,22
552,21	1290,22
552,41	1312,75
552,60	1306,60
552,80	1310,70
553,00	1294,32
553,19	1259,50
553,39	1261,55
553,59	1241,07
553,78	1288,17
553,98	1304,56
554,17	1271,79
554,37	1259,50
554,57	1302,51
554,76	1353,71
554,96	1247,21
555,16	1294,32
555,35	1239,02
555,55	1232,88
555,75	1245,16
555,94	1300,46
556,14	1312,75
556,33	1335,28
556,53	1277,93
556,73	1310,70
556,92	1282,03
557,12	1261,55
557,32	1206,25
557,51	1318,89
557,71	1294,32
557,90	1279,98
558,10	1267,69
558,30	1232,88
558,49	1279,98
558,69	1286,12
558,88	1202,16
559,08	1320,94
559,28	1263,60
559,47	1345,52
559,67	1247,21
559,86	1265,64
560,06	1259,50
560,26	1275,88
560,45	1273,84
560,65	1302,51
560,84	1275,88
561,04	1218,54
561,24	1208,30
561,43	1282,03
561,63	1271,79
561,82	1304,56
562,02	1294,32
562,22	1351,66
562,41	1257,45
562,61	1222,64
562,80	1271,79
563,00	1310,70
563,19	1331,18
563,39	1263,60
563,59	1277,93
563,78	1376,24
563,98	1245,16
564,17	1288,17
564,37	1230,83
564,56	1331,18
564,76	1308,65
564,96	1296,36
565,15	1273,84
565,35	1378,28
565,54	1236,97
565,74	1245,16
565,93	1282,03
566,13	1224,69
566,32	1261,55
566,52	1228,78
566,71	1304,56
566,91	1312,75
567,11	1296,36
567,30	1308,65
567,50	1296,36
567,69	1286,12
567,89	1286,12
568,08	1224,69
568,28	1265,64
568,47	1327,08
568,67	1302,51
568,86	1310,70
569,06	1243,12
569,25	1265,64
569,45	1296,36
569,64	1257,45
569,84	1255,40
570,04	1300,46
570,23	1249,26
570,43	1294,32
570,62	1251,31
570,82	1243,12
571,01	1290,22
571,21	1249,26
571,40	1267,69
571,60	1327,08
571,79	1251,31
571,99	1236,97
572,18	1232,88
572,38	1312,75
572,57	1329,13
572,77	1269,74
572,96	1310,70
573,16	1243,12
573,35	1245,16
573,55	1329,13
573,74	1318,89
573,94	1314,80
574,13	1253,36
574,33	1306,60
574,52	1300,46
574,71	1265,64
574,91	1271,79
575,10	1296,36
575,30	1288,17
575,49	1363,95
575,69	1308,65
575,88	1286,12
576,08	1236,97
576,27	1335,28
576,47	1265,64
576,66	1300,46
576,86	1304,56
577,05	1353,71
577,25	1267,69
577,44	1388,52
577,64	1290,22
577,83	1282,03
578,02	1216,49
578,22	1265,64
578,41	1253,36
578,61	1269,74
578,80	1282,03
579,00	1290,22
579,19	1249,26
579,39	1322,99
579,58	1277,93
579,77	1292,27
579,97	1249,26
580,16	1296,36
580,36	1310,70
580,55	1255,40
580,75	1284,08
580,94	1220,59
581,13	1263,60
581,33	1224,69
581,52	1327,08
581,72	1294,32
581,91	1239,02
582,11	1236,97
582,30	1234,93
582,49	1277,93
582,69	1298,41
582,88	1271,79
583,08	1257,45
583,27	1318,89
583,47	1222,64
583,66	1318,89
583,85	1298,41
584,05	1361,90
584,24	1279,98
584,44	1304,56
584,63	1300,46
584,82	1273,84
585,02	1249,26
585,21	1267,69
585,41	1259,50
585,60	1298,41
585,79	1298,41
585,99	1314,80
586,18	1265,64
586,37	1277,93
586,57	1318,89
586,76	1228,78
586,96	1282,03
587,15	1329,13
587,34	1263,60
587,54	1257,45
587,73	1290,22
587,93	1277,93
588,12	1271,79
588,31	1261,55
588,51	1228,78
588,70	1314,80
588,89	1279,98
589,09	1306,60
589,28	1322,99
589,47	1294,32
589,67	1298,41
589,86	1230,83
590,06	1271,79
590,25	1232,88
590,44	1361,90
590,64	1249,26
590,83	1302,51
591,02	1290,22
591,22	1261,55
591,41	1232,88
591,60	1275,88
591,80	1341,42
591,99	1284,08
592,18	1273,84
592,38	1312,75
592,57	1271,79
592,76	1224,69
592,96	1282,03
593,15	1253,36
593,34	1241,07
593,54	1302,51
593,73	1296,36
593,92	1355,76
594,12	1259,50
594,31	1193,97
594,50	1304,56
594,70	1255,40
594,89	1329,13
595,08	1314,80
595,28	1210,35
595,47	1325,04
595,66	1267,69
595,86	1306,60
596,05	1277,93
596,24	1208,30
596,43	1322,99
596,63	1296,36
596,82	1314,80
597,01	1318,89
597,21	1312,75
597,40	1331,18
597,59	1306,60
597,79	1361,90
597,98	1322,99
598,17	1271,79
598,36	1265,64
598,56	1210,35
598,75	1259,50
598,94	1277,93
599,14	1204,21
599,33	1267,69
599,52	1279,98
599,71	1212,40
599,91	1304,56
600,10	1232,88
600,29	1292,27
600,48	1269,74
600,68	1316,84
600,87	1304,56
601,06	1302,51
601,26	1255,40
601,45	1288,17
601,64	1382,38
601,83	1255,40
602,03	1294,32
602,22	1273,84
602,41	1366,00
602,60	1265,64
602,80	1232,88
602,99	1249,26
603,18	1259,50
603,37	1316,84
603,57	1314,80
603,76	1296,36
603,95	1253,36
604,14	1263,60
604,34	1247,21
604,53	1279,98
604,72	1333,23
604,91	1335,28
605,10	1298,41
605,30	1239,02
605,49	1335,28
605,68	1298,41
605,87	1220,59
606,07	1241,07
606,26	1277,93
606,45	1257,45
606,64	1355,76
606,84	1279,98
607,03	1277,93
607,22	1245,16
607,41	1296,36
607,60	1247,21
607,80	1243,12
607,99	1284,08
608,18	1239,02
608,37	1312,75
608,56	1337,32
608,76	1286,12
608,95	1378,28
609,14	1269,74
609,33	1292,27
609,52	1232,88
609,72	1298,41
609,91	1265,64
610,10	1222,64
610,29	1322,99
610,48	1302,51
610,68	1271,79
610,87	1320,94
611,06	1347,56
611,25	1222,64
611,44	1331,18
611,63	1257,45
611,83	1245,16
612,02	1206,25
612,21	1310,70
612,40	1257,45
612,59	1302,51
612,79	1198,06
612,98	1275,88
613,17	1239,02
613,36	1298,41
613,55	1325,04
613,74	1322,99
613,93	1302,51
614,13	1316,84
614,32	1302,51
614,51	1265,64
614,70	1271,79
614,89	1271,79
615,08	1290,22
615,28	1306,60
615,47	1245,16
615,66	1294,32
615,85	1279,98
616,04	1265,64
616,23	1226,73
616,42	1263,60
616,62	1322,99
616,81	1337,32
617,00	1269,74
617,19	1251,31
617,38	1271,79
617,57	1269,74
617,76	1220,59
617,95	1302,51
618,15	1327,08
618,34	1275,88
618,53	1282,03
618,72	1306,60
618,91	1310,70
619,10	1325,04
619,29	1353,71
619,48	1263,60
619,68	1312,75
619,87	1331,18
620,06	1279,98
620,25	1304,56
620,44	1331,18
620,63	1275,88
620,82	1288,17
621,01	1304,56
621,20	1239,02
621,39	1273,84
621,59	1273,84
621,78	1298,41
621,97	1320,94
622,16	1277,93
622,35	1275,88
622,54	1294,32
622,73	1296,36
622,92	1306,60
623,11	1269,74
623,30	1263,60
623,49	1302,51
623,68	1259,50
623,88	1214,45
624,07	1370,09
624,26	1333,23
624,45	1236,97
624,64	1306,60
624,83	1243,12
625,02	1245,16
625,21	1353,71
625,40	1232,88
625,59	1306,60
625,78	1300,46
625,97	1284,08
626,16	1300,46
626,35	1298,41
626,54	1275,88
626,74	1228,78
626,93	1296,36
627,12	1271,79
627,31	1292,27
627,50	1327,08
627,69	1230,83
627,88	1300,46
628,07	1304,56
628,26	1333,23
628,45	1288,17
628,64	1255,40
628,83	1259,50
629,02	1286,12
629,21	1331,18
629,40	1327,08
629,59	1241,07
629,78	1269,74
629,97	1255,40
630,16	1286,12
630,35	1337,32
630,54	1335,28
630,73	1406,95
630,92	1298,41
631,11	1314,80
631,30	1349,61
631,49	1333,23
631,68	1374,19
631,87	1406,95
632,06	1695,72
632,25	1583,08
632,44	1595,37
632,63	1710,05
632,82	1877,99
633,01	1970,15
633,20	1998,82
633,39	2142,18
633,58	1968,10
633,77	1884,13
633,96	1933,28
634,15	1951,71
634,34	2133,98
634,53	2101,22
634,72	1898,47
634,91	1697,77
635,10	1648,61
635,29	1589,22
635,48	1613,80
635,67	1449,96
635,86	1535,98
636,05	1476,59
636,24	1374,19
636,43	1331,18
636,62	1351,66
636,81	1339,37
637,00	1273,84
637,19	1210,35
637,38	1339,37
637,57	1302,51
637,76	1271,79
637,95	1363,95
638,14	1290,22
638,33	1296,36
638,52	1294,32
638,71	1325,04
638,89	1257,45
639,08	1312,75
639,27	1345,52
639,46	1245,16
639,65	1298,41
639,84	1304,56
640,03	1263,60
640,22	1327,08
640,41	1310,70
640,60	1269,74
640,79	1290,22
640,98	1292,27
641,17	1282,03
641,36	1279,98
641,55	1304,56
641,74	1218,54
641,92	1261,55
642,11	1265,64
642,30	1230,83
642,49	1216,49
642,68	1327,08
642,87	1230,83
643,06	1261,55
643,25	1236,97
643,44	1208,30
643,63	1290,22
643,82	1265,64
644,00	1304,56
644,19	1255,40
644,38	1255,40
644,57	1318,89
644,76	1263,60
644,95	1288,17
645,14	1271,79
645,33	1331,18
645,52	1333,23
645,71	1271,79
645,89	1253,36
646,08	1359,85
646,27	1277,93
646,46	1310,70
646,65	1275,88
646,84	1308,65
647,03	1226,73
647,22	1327,08
647,40	1302,51
647,59	1218,54
647,78	1251,31
647,97	1214,45
648,16	1288,17
648,35	1249,26
648,54	1273,84
648,73	1306,60
648,91	1335,28
649,10	1212,40
649,29	1265,64
649,48	1277,93
649,67	1316,84
649,86	1259,50
650,05	1245,16
650,23	1304,56
650,42	1282,03
650,61	1290,22
650,80	1263,60
650,99	1251,31
651,18	1269,74
651,36	1322,99
651,55	1251,31
651,74	1296,36
651,93	1212,40
652,12	1279,98
652,31	1302,51
652,49	1286,12
652,68	1310,70
652,87	1325,04
653,06	1322,99
653,25	1265,64
653,44	1312,75
653,62	1228,78
653,81	1241,07
654,00	1261,55
654,19	1290,22
654,38	1318,89
654,56	1282,03
654,75	1277,93
654,94	1265,64
655,13	1265,64
655,32	1263,60
655,51	1208,30
655,69	1212,40
655,88	1314,80
656,07	1257,45
656,26	1222,64
656,45	1200,11
656,63	1314,80
656,82	1230,83
657,01	1300,46
657,20	1292,27
657,38	1314,80
657,57	1286,12
657,76	1253,36
657,95	1220,59
658,14	1320,94
658,32	1261,55
658,51	1257,45
658,70	1279,98
658,89	1212,40
659,08	1257,45
659,26	1308,65
659,45	1261,55
659,64	1284,08
659,83	1320,94
660,01	1234,93
660,20	1306,60
660,39	1269,74
660,58	1284,08
660,76	1265,64
660,95	1259,50
661,14	1253,36
661,33	1269,74
661,51	1230,83
661,70	1306,60
661,89	1300,46
662,08	1206,25
662,26	1263,60
662,45	1282,03
662,64	1236,97
662,83	1269,74
663,01	1257,45
663,20	1214,45
663,39	1286,12
663,58	1296,36
663,76	1259,50
663,95	1298,41
664,14	1357,80
664,32	1325,04
664,51	1245,16
664,70	1257,45
664,89	1271,79
665,07	1259,50
665,26	1173,49
665,45	1290,22
665,64	1304,56
665,82	1222,64
666,01	1312,75
666,20	1306,60
666,38	1306,60
666,57	1210,35
666,76	1314,80
666,95	1255,40
667,13	1292,27
667,32	1208,30
667,51	1269,74
667,69	1249,26
667,88	1318,89
668,07	1300,46
668,25	1198,06
668,44	1263,60
668,63	1277,93
668,81	1257,45
669,00	1271,79
669,19	1337,32
669,38	1273,84
669,56	1284,08
669,75	1277,93
669,94	1265,64
670,12	1306,60
670,31	1247,21
670,50	1255,40
670,68	1234,93
670,87	1239,02
671,06	1241,07
671,24	1380,33
671,43	1302,51
671,62	1259,50
671,80	1271,79
671,99	1230,83
672,18	1255,40
672,36	1312,75
672,55	1273,84
672,74	1234,93
672,92	1316,84
673,11	1298,41
673,29	1327,08
673,48	1308,65
673,67	1304,56
673,85	1378,28
674,04	1234,93
674,23	1208,30
674,41	1279,98
674,60	1271,79
674,79	1269,74
674,97	1296,36
675,16	1251,31
675,34	1335,28
675,53	1337,32
675,72	1282,03
675,90	1339,37
676,09	1218,54
676,28	1234,93
676,46	1230,83
676,65	1316,84
676,83	1351,66
677,02	1290,22
677,21	1232,88
677,39	1343,47
677,58	1210,35
677,77	1292,27
677,95	1296,36
678,14	1269,74
678,32	1271,79
678,51	1198,06
678,70	1267,69
678,88	1269,74
679,07	1222,64
679,25	1302,51
679,44	1320,94
679,63	1247,21
679,81	1251,31
680,00	1290,22
680,18	1290,22
680,37	1243,12
680,55	1255,40
680,74	1267,69
680,93	1298,41
681,11	1236,97
681,30	1255,40
681,48	1290,22
681,67	1282,03
681,85	1359,85
682,04	1370,09
682,23	1239,02
682,41	1300,46
682,60	1288,17
682,78	1222,64
682,97	1230,83
683,15	1253,36
683,34	1290,22
683,53	1257,45
683,71	1259,50
683,90	1263,60
684,08	1290,22
684,27	1253,36
684,45	1259,50
684,64	1304,56
684,82	1286,12
685,01	1275,88
685,19	1257,45
685,38	1263,60
685,57	1255,40
685,75	1294,32
685,94	1255,40
686,12	1290,22
686,31	1275,88
686,49	1286,12
686,68	1222,64
686,86	1259,50
687,05	1259,50
687,23	1253,36
687,42	1312,75
687,60	1218,54
687,79	1286,12
687,97	1259,50
688,16	1257,45
688,34	1282,03
688,53	1269,74
688,71	1279,98
688,90	1335,28
689,08	1257,45
689,27	1206,25
689,45	1239,02
689,64	1245,16
689,82	1273,84
690,01	1255,40
690,19	1318,89
690,38	1341,42
690,56	1239,02
690,75	1267,69
690,93	1292,27
691,12	1269,74
691,30	1312,75
691,49	1241,07
691,67	1251,31
691,86	1230,83
692,04	1308,65
692,23	1279,98
692,41	1306,60
692,60	1273,84
692,78	1265,64
692,97	1292,27
693,15	1282,03
693,34	1263,60
693,52	1294,32
693,71	1271,79
693,89	1263,60
694,08	1234,93
694,26	1271,79
694,44	1267,69
694,63	1208,30
694,81	1267,69
695,00	1284,08
695,18	1277,93
695,37	1314,80
695,55	1296,36
695,74	1294,32
695,92	1212,40
696,10	1302,51
696,29	1251,31
696,47	1290,22
696,66	1316,84
696,84	1298,41
697,03	1353,71
697,21	1273,84
697,40	1384,43
697,58	1327,08
697,76	1249,26
697,95	1232,88
698,13	1265,64
698,32	1333,23
698,50	1255,40
698,68	1267,69
698,87	1245,16
699,05	1243,12
699,24	1300,46
699,42	1292,27
699,61	1226,73
699,79	1239,02
699,97	1277,93
700,16	1343,47
700,34	1286,12
700,53	1241,07
700,71	1206,25
700,89	1257,45
701,08	1241,07
701,26	1239,02
701,45	1269,74
701,63	1220,59
701,81	1277,93
702,00	1251,31
702,18	1292,27
702,37	1226,73
702,55	1359,85
702,73	1302,51
702,92	1298,41
703,10	1259,50
703,28	1202,16
703,47	1296,36
703,65	1277,93
703,84	1304,56
704,02	1202,16
704,20	1271,79
704,39	1261,55
704,57	1329,13
704,75	1251,31
704,94	1312,75
705,12	1239,02
705,30	1312,75
705,49	1368,04
705,67	1298,41
705,86	1236,97
706,04	1277,93
706,22	1290,22
706,41	1263,60
706,59	1279,98
706,77	1312,75
706,96	1331,18
707,14	1298,41
707,32	1257,45
707,51	1255,40
707,69	1228,78
707,87	1279,98
708,06	1286,12
708,24	1292,27
708,42	1234,93
708,61	1239,02
708,79	1310,70
708,97	1261,55
709,16	1273,84
709,34	1232,88
709,52	1249,26
709,71	1355,76
709,89	1263,60
710,07	1347,56
710,26	1251,31
710,44	1296,36
710,62	1312,75
710,80	1343,47
710,99	1292,27
711,17	1245,16
711,35	1267,69
711,54	1253,36
711,72	1191,92
711,90	1253,36
712,09	1273,84
712,27	1279,98
712,45	1200,11
712,63	1255,40
712,82	1196,01
713,00	1263,60
713,18	1255,40
713,37	1261,55
713,55	1298,41
713,73	1208,30
713,91	1249,26
714,10	1290,22
714,28	1189,87
714,46	1335,28
714,65	1337,32
714,83	1277,93
715,01	1232,88
715,19	1331,18
715,38	1245,16
715,56	1243,12
715,74	1212,40
715,92	1265,64
716,11	1230,83
716,29	1273,84
716,47	1210,35
716,65	1257,45
716,84	1279,98
717,02	1292,27
717,20	1267,69
717,38	1245,16
717,57	1284,08
717,75	1269,74
717,93	1253,36
718,11	1247,21
718,30	1277,93
718,48	1216,49
718,66	1236,97
718,84	1236,97
719,03	1269,74
719,21	1247,21
719,39	1265,64
719,57	1306,60
719,75	1226,73
719,94	1292,27
720,12	1292,27
720,30	1255,40
720,48	1245,16
720,67	1300,46
720,85	1286,12
721,03	1331,18
721,21	1198,06
721,39	1255,40
721,58	1347,56
721,76	1298,41
721,94	1212,40
722,12	1255,40
722,30	1310,70
722,49	1212,40
722,67	1294,32
722,85	1292,27
723,03	1214,45
723,21	1206,25
723,40	1275,88
723,58	1269,74
723,76	1245,16
723,94	1253,36
724,12	1290,22
724,30	1329,13
724,49	1290,22
724,67	1275,88
724,85	1255,40
725,03	1241,07
725,21	1257,45
725,40	1271,79
725,58	1269,74
725,76	1234,93
725,94	1277,93
726,12	1273,84
726,30	1251,31
726,49	1329,13
726,67	1241,07
726,85	1282,03
727,03	1263,60
727,21	1261,55
727,39	1247,21
727,57	1249,26
727,76	1241,07
727,94	1308,65
728,12	1284,08
728,30	1273,84
728,48	1286,12
728,66	1265,64
728,84	1243,12
729,03	1284,08
729,21	1325,04
729,39	1304,56
729,57	1228,78
729,75	1290,22
729,93	1290,22
730,11	1304,56
730,30	1318,89
730,48	1286,12
730,66	1277,93
730,84	1271,79
731,02	1290,22
731,20	1249,26
731,38	1275,88
731,56	1236,97
731,74	1245,16
731,93	1316,84
732,11	1255,40
732,29	1236,97
732,47	1204,21
732,65	1269,74
732,83	1255,40
733,01	1279,98
733,19	1228,78
733,37	1249,26
733,56	1337,32
733,74	1263,60
733,92	1339,37
734,10	1306,60
734,28	1300,46
734,46	1263,60
734,64	1236,97
734,82	1232,88
735,00	1249,26
735,18	1183,73
735,36	1290,22
735,54	1212,40
735,73	1271,79
735,91	1284,08
736,09	1257,45
736,27	1234,93
736,45	1298,41
736,63	1239,02
736,81	1257,45
736,99	1249,26
737,17	1290,22
737,35	1230,83
737,53	1302,51
737,71	1226,73
737,89	1298,41
738,07	1275,88
738,25	1322,99
738,43	1230,83
738,61	1226,73
738,80	1286,12
738,98	1200,11
739,16	1261,55
739,34	1294,32
739,52	1257,45
739,70	1257,45
739,88	1208,30
740,06	1251,31
740,24	1263,60
740,42	1230,83
740,60	1261,55
740,78	1257,45
740,96	1294,32
741,14	1222,64
741,32	1226,73
741,50	1253,36
741,68	1255,40
741,86	1294,32
742,04	1243,12
742,22	1312,75
742,40	1286,12
742,58	1257,45
742,76	1247,21
742,94	1290,22
743,12	1290,22
743,30	1273,84
743,48	1265,64
743,66	1210,35
743,84	1310,70
744,02	1241,07
744,20	1290,22
744,38	1255,40
744,56	1259,50
744,74	1220,59
744,92	1253,36
745,10	1290,22
745,28	1245,16
745,46	1263,60
745,64	1247,21
745,82	1277,93
746,00	1255,40
746,18	1306,60
746,36	1284,08
746,54	1327,08
746,72	1241,07
746,90	1267,69
747,08	1316,84
747,26	1232,88
747,44	1204,21
747,62	1277,93
747,80	1261,55
747,98	1245,16
748,15	1241,07
748,33	1314,80
748,51	1282,03
748,69	1239,02
748,87	1273,84
749,05	1236,97
749,23	1191,92
749,41	1282,03
749,59	1245,16
749,77	1253,36
749,95	1298,41
750,13	1245,16
750,31	1177,58
750,49	1327,08
750,67	1282,03
750,85	1243,12
751,03	1282,03
751,20	1261,55
751,38	1290,22
751,56	1259,50
751,74	1318,89
751,92	1249,26
752,10	1232,88
752,28	1277,93
752,46	1329,13
752,64	1306,60
752,82	1255,40
753,00	1294,32
753,18	1306,60
753,35	1327,08
753,53	1322,99
753,71	1275,88
753,89	1314,80
754,07	1271,79
754,25	1269,74
754,43	1282,03
754,61	1226,73
754,79	1243,12
754,97	1241,07
755,14	1339,37
755,32	1294,32
755,50	1249,26
755,68	1310,70
755,86	1271,79
756,04	1234,93
756,22	1239,02
756,40	1253,36
756,57	1290,22
756,75	1286,12
756,93	1222,64
757,11	1251,31
757,29	1263,60
757,47	1288,17
757,65	1245,16
757,82	1218,54
758,00	1259,50
758,18	1300,46
758,36	1275,88
758,54	1300,46
758,72	1245,16
758,90	1267,69
759,07	1310,70
759,25	1222,64
759,43	1275,88
759,61	1282,03
759,79	1316,84
759,97	1255,40
760,15	1304,56
760,32	1310,70
760,50	1239,02
760,68	1247,21
760,86	1316,84
761,04	1302,51
761,22	1284,08
761,39	1253,36
761,57	1333,23
761,75	1304,56
761,93	1232,88
762,11	1341,42
762,28	1290,22
762,46	1271,79
762,64	1302,51
762,82	1288,17
763,00	1284,08
763,18	1312,75
763,35	1267,69
763,53	1249,26
763,71	1236,97
763,89	1228,78
764,07	1271,79
764,24	1298,41
764,42	1304,56
764,60	1265,64
764,78	1239,02
764,96	1296,36
765,13	1316,84
765,31	1337,32
765,49	1290,22
765,67	1292,27
765,84	1216,49
766,02	1236,97
766,20	1275,88
766,38	1308,65
766,56	1259,50
766,73	1204,21
766,91	1261,55
767,09	1300,46
767,27	1255,40
767,44	1243,12
767,62	1255,40
767,80	1288,17
767,98	1255,40
768,15	1279,98
768,33	1208,30
768,51	1239,02
768,69	1304,56
768,87	1249,26
769,04	1286,12
769,22	1265,64
769,40	1329,13
769,58	1265,64
769,75	1253,36
769,93	1261,55
770,11	1341,42
770,28	1230,83
770,46	1302,51
770,64	1298,41
770,82	1286,12
770,99	1214,45
771,17	1267,69
771,35	1224,69
771,53	1247,21
771,70	1286,12
771,88	1179,63
772,06	1314,80
772,23	1249,26
772,41	1271,79
772,59	1261,55
772,77	1263,60
772,94	1191,92
773,12	1306,60
773,30	1234,93
773,47	1320,94
773,65	1316,84
773,83	1269,74
774,01	1337,32
774,18	1255,40
774,36	1241,07
774,54	1245,16
774,71	1273,84
774,89	1265,64
775,07	1241,07
775,24	1320,94
775,42	1228,78
775,60	1245,16
775,78	1263,60
775,95	1273,84
776,13	1181,68
776,31	1282,03
776,48	1247,21
776,66	1253,36
776,84	1325,04
777,01	1271,79
777,19	1294,32
777,37	1230,83
777,54	1220,59
777,72	1314,80
777,90	1181,68
778,07	1372,14
778,25	1224,69
778,43	1322,99
778,60	1255,40
778,78	1331,18
778,96	1351,66
779,13	1314,80
779,31	1224,69
779,49	1255,40
779,66	1267,69
779,84	1300,46
780,01	1277,93
780,19	1224,69
780,37	1241,07
780,54	1271,79
780,72	1265,64
780,90	1239,02
781,07	1181,68
781,25	1331,18
781,43	1269,74
781,60	1282,03
781,78	1228,78
781,95	1290,22
782,13	1187,82
782,31	1265,64
782,48	1257,45
782,66	1296,36
782,83	1226,73
783,01	1265,64
783,19	1322,99
783,36	1314,80
783,54	1247,21
783,72	1212,40
783,89	1347,56
784,07	1298,41
784,24	1294,32
784,42	1333,23
784,60	1290,22
784,77	1288,17
784,95	1198,06
785,12	1279,98
785,30	1294,32
785,47	1271,79
785,65	1234,93
785,83	1290,22
786,00	1277,93
786,18	1265,64
786,35	1343,47
786,53	1271,79
786,71	1236,97
786,88	1232,88
787,06	1200,11
787,23	1232,88
787,41	1320,94
787,58	1187,82
787,76	1269,74
787,94	1265,64
788,11	1247,21
788,29	1306,60
788,46	1245,16
788,64	1200,11
788,81	1247,21
788,99	1222,64
789,16	1247,21
789,34	1282,03
789,52	1263,60
789,69	1284,08
789,87	1267,69
790,04	1290,22
790,22	1220,59
790,39	1300,46
790,57	1265,64
790,74	1253,36
790,92	1316,84
791,09	1208,30
791,27	1245,16
791,44	1189,87
791,62	1189,87
791,79	1175,53
791,97	1294,32
792,15	1288,17
792,32	1202,16
792,50	1157,10
792,67	1302,51
792,85	1247,21
793,02	1249,26
793,20	1273,84
793,37	1265,64
793,55	1249,26
793,72	1226,73
793,90	1243,12
794,07	1284,08
794,25	1265,64
794,42	1282,03
794,60	1218,54
794,77	1282,03
794,95	1253,36
795,12	1325,04
795,30	1269,74
795,47	1337,32
795,65	1333,23
795,82	1253,36
796,00	1208,30
796,17	1267,69
796,34	1273,84
796,52	1298,41
796,69	1271,79
796,87	1273,84
797,04	1232,88
797,22	1257,45
797,39	1226,73
797,57	1226,73
797,74	1200,11
797,92	1236,97
798,09	1284,08
798,27	1245,16
798,44	1206,25
798,62	1236,97
798,79	1243,12
798,96	1347,56
799,14	1273,84
799,31	1308,65
799,49	1263,60
799,66	1282,03
799,84	1232,88
800,01	1224,69
800,19	1239,02
800,36	1179,63
800,53	1300,46
800,71	1302,51
800,88	1214,45
801,06	1271,79
801,23	1222,64
801,41	1202,16
801,58	1163,25
801,75	1282,03
801,93	1208,30
802,10	1177,58
802,28	1286,12
802,45	1239,02
802,63	1265,64
802,80	1296,36
802,97	1220,59
803,15	1282,03
803,32	1263,60
803,50	1267,69
803,67	1298,41
803,84	1249,26
804,02	1220,59
804,19	1236,97
804,37	1279,98
804,54	1327,08
804,71	1386,47
804,89	1279,98
805,06	1218,54
805,24	1267,69
805,41	1300,46
805,58	1263,60
805,76	1306,60
805,93	1210,35
806,10	1257,45
806,28	1228,78
806,45	1198,06
806,63	1273,84
806,80	1320,94
806,97	1247,21
807,15	1284,08
807,32	1288,17
807,49	1234,93
807,67	1214,45
807,84	1261,55
808,01	1286,12
808,19	1372,14
808,36	1314,80
808,54	1241,07
808,71	1306,60
808,88	1249,26
809,06	1296,36
809,23	1341,42
809,40	1198,06
809,58	1269,74
809,75	1298,41
809,92	1282,03
810,10	1265,64
810,27	1265,64
810,44	1230,83
810,62	1204,21
810,79	1267,69
810,96	1267,69
811,14	1267,69
811,31	1261,55
811,48	1308,65
811,66	1253,36
811,83	1222,64
812,00	1255,40
812,18	1277,93
812,35	1286,12
812,52	1282,03
812,69	1245,16
812,87	1271,79
813,04	1222,64
813,21	1267,69
813,39	1296,36
813,56	1224,69
813,73	1255,40
813,91	1269,74
814,08	1241,07
814,25	1267,69
814,42	1279,98
814,60	1267,69
814,77	1183,73
814,94	1224,69
815,12	1251,31
815,29	1298,41
815,46	1286,12
815,63	1253,36
815,81	1292,27
815,98	1277,93
816,15	1273,84
816,33	1288,17
816,50	1269,74
816,67	1247,21
816,84	1263,60
817,02	1273,84
817,19	1290,22
817,36	1290,22
817,53	1230,83
817,71	1257,45
817,88	1282,03
818,05	1286,12
818,22	1282,03
818,40	1279,98
818,57	1181,68
818,74	1200,11
818,91	1249,26
819,09	1214,45
819,26	1263,60
819,43	1310,70
819,60	1322,99
819,78	1239,02
819,95	1232,88
820,12	1273,84
820,29	1296,36
820,47	1257,45
820,64	1261,55
820,81	1304,56
820,98	1380,33
821,15	1255,40
821,33	1327,08
821,50	1263,60
821,67	1224,69
821,84	1247,21
822,02	1251,31
822,19	1361,90
822,36	1247,21
822,53	1290,22
822,70	1284,08
822,88	1288,17
823,05	1279,98
823,22	1185,77
823,39	1236,97
823,56	1261,55
823,74	1292,27
823,91	1249,26
824,08	1259,50
824,25	1245,16
824,42	1230,83
824,60	1236,97
824,77	1255,40
824,94	1269,74
825,11	1257,45
825,28	1257,45
825,45	1269,74
825,63	1257,45
825,80	1239,02
825,97	1290,22
826,14	1259,50
826,31	1230,83
826,48	1236,97
826,66	1210,35
826,83	1306,60
827,00	1261,55
827,17	1257,45
827,34	1275,88
827,51	1294,32
827,69	1320,94
827,86	1300,46
828,03	1271,79
828,20	1288,17
828,37	1210,35
828,54	1275,88
828,71	1226,73
828,89	1296,36
829,06	1204,21
829,23	1241,07
829,40	1290,22
829,57	1243,12
829,74	1204,21
829,91	1263,60
830,09	1214,45
830,26	1269,74
830,43	1214,45
830,60	1308,65
830,77	1296,36
830,94	1267,69
831,11	1296,36
831,28	1310,70
831,46	1222,64
831,63	1318,89
831,80	1249,26
831,97	1263,60
832,14	1308,65
832,31	1265,64
832,48	1253,36
832,65	1337,32
832,82	1312,75
832,99	1277,93
833,17	1265,64
833,34	1306,60
833,51	1294,32
833,68	1257,45
833,85	1239,02
834,02	1304,56
834,19	1325,04
834,36	1247,21
834,53	1316,84
834,70	1304,56
834,87	1286,12
835,04	1271,79
835,22	1239,02
835,39	1314,80
835,56	1234,93
835,73	1325,04
835,90	1335,28
836,07	1249,26
836,24	1279,98
836,41	1273,84
836,58	1298,41
836,75	1347,56
836,92	1241,07
837,09	1232,88
837,26	1312,75
837,43	1282,03
837,60	1296,36
837,77	1259,50
837,94	1175,53
838,12	1347,56
838,29	1243,12
838,46	1292,27
838,63	1269,74
838,80	1230,83
838,97	1275,88
839,14	1263,60
839,31	1200,11
839,48	1269,74
839,65	1247,21
839,82	1222,64
839,99	1300,46
840,16	1245,16
840,33	1314,80
840,50	1257,45
840,67	1296,36
840,84	1277,93
841,01	1234,93
841,18	1255,40
841,35	1202,16
841,52	1277,93
841,69	1269,74
841,86	1265,64
842,03	1277,93
842,20	1298,41
842,37	1302,51
842,54	1222,64
842,71	1302,51
842,88	1243,12
843,05	1243,12
843,22	1333,23
843,39	1239,02
843,56	1226,73
843,73	1236,97
843,90	1277,93
844,07	1234,93
844,24	1255,40
844,41	1261,55
844,58	1306,60
844,75	1230,83
844,92	1196,01
845,09	1265,64
845,26	1298,41
845,43	1239,02
845,60	1243,12
845,77	1247,21
845,94	1267,69
846,10	1316,84
846,27	1249,26
846,44	1255,40
846,61	1183,73
846,78	1306,60
846,95	1228,78
847,12	1255,40
847,29	1282,03
847,46	1198,06
847,63	1239,02
847,80	1279,98
847,97	1228,78
848,14	1236,97
848,31	1265,64
848,48	1241,07
848,65	1181,68
848,82	1263,60
848,98	1259,50
849,15	1236,97
849,32	1271,79
849,49	1210,35
849,66	1277,93
849,83	1232,88
850,00	1269,74
850,17	1335,28
850,34	1181,68
850,51	1222,64
850,68	1222,64
850,85	1290,22
851,01	1239,02
851,18	1271,79
851,35	1292,27
851,52	1253,36
851,69	1228,78
851,86	1269,74
852,03	1241,07
852,20	1279,98
852,37	1296,36
852,53	1265,64
852,70	1282,03
852,87	1245,16
853,04	1345,52
853,21	1181,68
853,38	1359,85
853,55	1267,69
853,72	1363,95
853,89	1226,73
854,05	1290,22
854,22	1239,02
854,39	1200,11
854,56	1273,84
854,73	1345,52
854,90	1245,16
855,07	1224,69
855,23	1288,17
855,40	1236,97
855,57	1304,56
855,74	1269,74
855,91	1253,36
856,08	1302,51
856,25	1226,73
856,41	1300,46
856,58	1318,89
856,75	1218,54
856,92	1245,16
857,09	1279,98
857,26	1368,04
857,42	1243,12
857,59	1271,79
857,76	1312,75
857,93	1290,22
858,10	1294,32
858,27	1284,08
858,43	1290,22
858,60	1222,64
858,77	1306,60
858,94	1185,77
859,11	1261,55
859,27	1286,12
859,44	1257,45
859,61	1277,93
859,78	1218,54
859,95	1273,84
860,12	1257,45
860,28	1290,22
860,45	1241,07
860,62	1220,59
860,79	1214,45
860,95	1298,41
861,12	1322,99
861,29	1265,64
861,46	1271,79
861,63	1325,04
861,79	1304,56
861,96	1282,03
862,13	1286,12
862,30	1200,11
862,47	1320,94
862,63	1294,32
862,80	1255,40
862,97	1325,04
863,14	1298,41
863,30	1236,97
863,47	1331,18
863,64	1269,74
863,81	1247,21
863,97	1284,08
864,14	1294,32
864,31	1259,50
864,48	1320,94
864,65	1247,21
864,81	1269,74
864,98	1288,17
865,15	1261,55
865,32	1251,31
865,48	1275,88
865,65	1228,78
865,82	1275,88
865,98	1271,79
866,15	1316,84
866,32	1214,45
866,49	1239,02
866,65	1279,98
866,82	1316,84
866,99	1269,74
867,16	1257,45
867,32	1288,17
867,49	1232,88
867,66	1187,82
867,83	1269,74
867,99	1277,93
868,16	1212,40
868,33	1292,27
868,49	1234,93
868,66	1224,69
868,83	1255,40
868,99	1220,59
869,16	1273,84
869,33	1275,88
869,50	1294,32
869,66	1329,13
869,83	1302,51
870,00	1222,64
870,16	1257,45
870,33	1282,03
870,50	1300,46
870,66	1275,88
870,83	1296,36
871,00	1228,78
871,17	1282,03
871,33	1273,84
871,50	1257,45
871,67	1204,21
871,83	1220,59
872,00	1239,02
872,17	1271,79
872,33	1288,17
872,50	1275,88
872,67	1300,46
872,83	1296,36
873,00	1228,78
873,17	1292,27
873,33	1234,93
873,50	1275,88
873,67	1245,16
873,83	1224,69
874,00	1236,97
874,16	1234,93
874,33	1218,54
874,50	1277,93
874,66	1249,26
874,83	1273,84
875,00	1290,22
875,16	1208,30
875,33	1232,88
875,50	1298,41
875,66	1212,40
875,83	1269,74
875,99	1267,69
876,16	1286,12
876,33	1228,78
876,49	1226,73
876,66	1300,46
876,83	1349,61
876,99	1206,25
877,16	1325,04
877,32	1261,55
877,49	1277,93
877,66	1290,22
877,82	1279,98
877,99	1216,49
878,15	1271,79
878,32	1239,02
878,49	1320,94
878,65	1198,06
878,82	1302,51
878,98	1175,53
879,15	1306,60
879,32	1277,93
879,48	1196,01
879,65	1292,27
879,81	1267,69
879,98	1218,54
880,15	1230,83
880,31	1298,41
880,48	1228,78
880,64	1230,83
880,81	1310,70
880,97	1263,60
881,14	1325,04
881,31	1306,60
881,47	1277,93
881,64	1320,94
881,80	1284,08
881,97	1312,75
882,13	1279,98
882,30	1277,93
882,47	1185,77
882,63	1259,50
882,80	1320,94
882,96	1259,50
883,13	1267,69
883,29	1284,08
883,46	1241,07
883,62	1325,04
883,79	1232,88
883,95	1243,12
884,12	1228,78
884,29	1286,12
884,45	1288,17
884,62	1284,08
884,78	1282,03
884,95	1308,65
885,11	1277,93
885,28	1224,69
885,44	1228,78
885,61	1224,69
885,77	1271,79
885,94	1263,60
886,10	1290,22
886,27	1241,07
886,43	1304,56
886,60	1239,02
886,76	1325,04
886,93	1314,80
887,09	1134,57
887,26	1265,64
887,42	1318,89
887,59	1253,36
887,75	1279,98
887,92	1284,08
888,08	1273,84
888,25	1308,65
888,41	1263,60
888,58	1265,64
888,74	1212,40
888,91	1257,45
>>>>>End Processed Spectral Data<<<<<
