SpectraSuite Data File
++++++++++++++++++++++++++++++++++++
Date: Sun Apr 03 19:55:30 CEST 2016
User: root
Dark Spectrum Present: No
Reference Spectrum Present: No
Number of Sampled Component Spectra: 1
Spectrometers: USB4C02835
Integration Time (usec): 10000 (USB4C02835)
Spectra Averaged: 1 (USB4C02835)
Boxcar Smoothing: 0 (USB4C02835)
Correct for Electrical Dark: No (USB4C02835)
Strobe/Lamp Enabled: No (USB4C02835)
Correct for Detector Non-linearity: No (USB4C02835)
Correct for Stray Light: No (USB4C02835)
Number of Pixels in Processed Spectrum: 3648
>>>>>Begin Processed Spectral Data<<<<<
177,47	1298,41
177,69	1298,41
177,91	1298,41
178,13	1202,16
178,36	1251,31
178,58	1279,98
178,80	1255,40
179,02	1241,07
179,24	1282,03
179,46	1263,60
179,68	1279,98
179,90	1339,37
180,13	1222,64
180,35	1298,41
180,57	1271,79
180,79	1243,12
181,01	1308,65
181,23	1294,32
181,45	1241,07
181,67	1245,16
181,90	1222,64
182,12	1163,25
182,34	1212,40
182,56	1234,93
182,78	1153,01
183,00	1296,36
183,22	1222,64
183,44	1261,55
183,66	1249,26
183,89	1320,94
184,11	1239,02
184,33	1159,15
184,55	1322,99
184,77	1249,26
184,99	1267,69
185,21	1265,64
185,43	1234,93
185,65	1226,73
185,87	1333,23
186,10	1259,50
186,32	1263,60
186,54	1257,45
186,76	1271,79
186,98	1339,37
187,20	1345,52
187,42	1298,41
187,64	1292,27
187,86	1261,55
188,08	1372,14
188,30	1322,99
188,52	1261,55
188,75	1320,94
188,97	1304,56
189,19	1255,40
189,41	1306,60
189,63	1257,45
189,85	1249,26
190,07	1261,55
190,29	1292,27
190,51	1327,08
190,73	1322,99
190,95	1255,40
191,17	1300,46
191,39	1267,69
191,61	1273,84
191,84	1294,32
192,06	1257,45
192,28	1230,83
192,50	1228,78
192,72	1279,98
192,94	1318,89
193,16	1249,26
193,38	1267,69
193,60	1355,76
193,82	1269,74
194,04	1228,78
194,26	1314,80
194,48	1253,36
194,70	1273,84
194,92	1259,50
195,14	1273,84
195,36	1251,31
195,58	1253,36
195,80	1312,75
196,02	1200,11
196,24	1255,40
196,46	1175,53
196,69	1163,25
196,91	1253,36
197,13	1214,45
197,35	1284,08
197,57	1298,41
197,79	1306,60
198,01	1269,74
198,23	1265,64
198,45	1236,97
198,67	1322,99
198,89	1310,70
199,11	1302,51
199,33	1263,60
199,55	1292,27
199,77	1232,88
199,99	1282,03
200,21	1339,37
200,43	1259,50
200,65	1275,88
200,87	1267,69
201,09	1232,88
201,31	1329,13
201,53	1306,60
201,75	1288,17
201,97	1257,45
202,19	1275,88
202,41	1261,55
202,63	1222,64
202,85	1279,98
203,07	1232,88
203,29	1271,79
203,51	1218,54
203,73	1314,80
203,95	1325,04
204,17	1261,55
204,39	1279,98
204,61	1243,12
204,83	1257,45
205,05	1325,04
205,27	1312,75
205,49	1298,41
205,71	1284,08
205,93	1306,60
206,15	1245,16
206,37	1286,12
206,59	1304,56
206,81	1271,79
207,03	1273,84
207,25	1314,80
207,47	1290,22
207,69	1224,69
207,91	1314,80
208,13	1310,70
208,34	1232,88
208,56	1284,08
208,78	1286,12
209,00	1263,60
209,22	1288,17
209,44	1275,88
209,66	1294,32
209,88	1331,18
210,10	1249,26
210,32	1343,47
210,54	1257,45
210,76	1255,40
210,98	1271,79
211,20	1189,87
211,42	1253,36
211,64	1222,64
211,86	1259,50
212,08	1249,26
212,30	1255,40
212,52	1239,02
212,74	1247,21
212,96	1257,45
213,17	1202,16
213,39	1282,03
213,61	1306,60
213,83	1263,60
214,05	1288,17
214,27	1298,41
214,49	1191,92
214,71	1355,76
214,93	1191,92
215,15	1269,74
215,37	1267,69
215,59	1239,02
215,81	1282,03
216,03	1271,79
216,24	1234,93
216,46	1304,56
216,68	1300,46
216,90	1304,56
217,12	1273,84
217,34	1253,36
217,56	1234,93
217,78	1322,99
218,00	1286,12
218,22	1271,79
218,44	1263,60
218,66	1316,84
218,87	1255,40
219,09	1187,82
219,31	1253,36
219,53	1284,08
219,75	1216,49
219,97	1333,23
220,19	1236,97
220,41	1273,84
220,63	1275,88
220,85	1224,69
221,06	1239,02
221,28	1202,16
221,50	1286,12
221,72	1257,45
221,94	1247,21
222,16	1298,41
222,38	1279,98
222,60	1259,50
222,82	1263,60
223,03	1236,97
223,25	1208,30
223,47	1269,74
223,69	1271,79
223,91	1271,79
224,13	1298,41
224,35	1286,12
224,57	1257,45
224,78	1279,98
225,00	1269,74
225,22	1296,36
225,44	1290,22
225,66	1306,60
225,88	1282,03
226,10	1230,83
226,32	1286,12
226,53	1298,41
226,75	1255,40
226,97	1208,30
227,19	1261,55
227,41	1251,31
227,63	1341,42
227,85	1277,93
228,06	1216,49
228,28	1234,93
228,50	1312,75
228,72	1175,53
228,94	1239,02
229,16	1290,22
229,37	1298,41
229,59	1257,45
229,81	1220,59
230,03	1228,78
230,25	1263,60
230,47	1230,83
230,69	1267,69
230,90	1282,03
231,12	1279,98
231,34	1230,83
231,56	1314,80
231,78	1218,54
232,00	1239,02
232,21	1222,64
232,43	1292,27
232,65	1251,31
232,87	1300,46
233,09	1257,45
233,30	1277,93
233,52	1210,35
233,74	1259,50
233,96	1277,93
234,18	1255,40
234,40	1302,51
234,61	1255,40
234,83	1275,88
235,05	1259,50
235,27	1269,74
235,49	1290,22
235,70	1189,87
235,92	1263,60
236,14	1300,46
236,36	1265,64
236,58	1294,32
236,79	1230,83
237,01	1210,35
237,23	1263,60
237,45	1312,75
237,67	1353,71
237,88	1275,88
238,10	1263,60
238,32	1265,64
238,54	1200,11
238,76	1239,02
238,97	1222,64
239,19	1216,49
239,41	1279,98
239,63	1331,18
239,85	1286,12
240,06	1220,59
240,28	1296,36
240,50	1253,36
240,72	1292,27
240,93	1296,36
241,15	1208,30
241,37	1273,84
241,59	1310,70
241,81	1286,12
242,02	1300,46
242,24	1193,97
242,46	1247,21
242,68	1241,07
242,89	1302,51
243,11	1294,32
243,33	1243,12
243,55	1216,49
243,76	1271,79
243,98	1269,74
244,20	1331,18
244,42	1234,93
244,64	1300,46
244,85	1222,64
245,07	1296,36
245,29	1228,78
245,51	1232,88
245,72	1263,60
245,94	1267,69
246,16	1288,17
246,38	1275,88
246,59	1292,27
246,81	1271,79
247,03	1322,99
247,24	1320,94
247,46	1236,97
247,68	1249,26
247,90	1271,79
248,11	1259,50
248,33	1220,59
248,55	1196,01
248,77	1206,25
248,98	1288,17
249,20	1243,12
249,42	1243,12
249,64	1286,12
249,85	1257,45
250,07	1286,12
250,29	1273,84
250,50	1261,55
250,72	1226,73
250,94	1241,07
251,16	1243,12
251,37	1308,65
251,59	1279,98
251,81	1343,47
252,02	1267,69
252,24	1193,97
252,46	1314,80
252,68	1279,98
252,89	1320,94
253,11	1241,07
253,33	1267,69
253,54	1263,60
253,76	1271,79
253,98	1206,25
254,20	1263,60
254,41	1204,21
254,63	1271,79
254,85	1265,64
255,06	1232,88
255,28	1284,08
255,50	1314,80
255,71	1284,08
255,93	1302,51
256,15	1300,46
256,36	1286,12
256,58	1261,55
256,80	1314,80
257,02	1271,79
257,23	1157,10
257,45	1282,03
257,67	1337,32
257,88	1214,45
258,10	1247,21
258,32	1265,64
258,53	1322,99
258,75	1294,32
258,97	1251,31
259,18	1261,55
259,40	1236,97
259,62	1236,97
259,83	1320,94
260,05	1275,88
260,27	1304,56
260,48	1261,55
260,70	1286,12
260,92	1298,41
261,13	1243,12
261,35	1316,84
261,57	1253,36
261,78	1271,79
262,00	1306,60
262,22	1239,02
262,43	1306,60
262,65	1249,26
262,86	1275,88
263,08	1327,08
263,30	1206,25
263,51	1279,98
263,73	1312,75
263,95	1290,22
264,16	1263,60
264,38	1267,69
264,60	1304,56
264,81	1243,12
265,03	1241,07
265,25	1241,07
265,46	1226,73
265,68	1269,74
265,89	1351,66
266,11	1290,22
266,33	1316,84
266,54	1247,21
266,76	1304,56
266,98	1277,93
267,19	1271,79
267,41	1189,87
267,62	1267,69
267,84	1265,64
268,06	1284,08
268,27	1249,26
268,49	1259,50
268,70	1300,46
268,92	1327,08
269,14	1255,40
269,35	1222,64
269,57	1312,75
269,79	1226,73
270,00	1208,30
270,22	1228,78
270,43	1271,79
270,65	1282,03
270,87	1261,55
271,08	1232,88
271,30	1243,12
271,51	1288,17
271,73	1310,70
271,95	1341,42
272,16	1308,65
272,38	1269,74
272,59	1253,36
272,81	1243,12
273,02	1284,08
273,24	1290,22
273,46	1284,08
273,67	1333,23
273,89	1232,88
274,10	1263,60
274,32	1302,51
274,54	1273,84
274,75	1269,74
274,97	1220,59
275,18	1267,69
275,40	1259,50
275,61	1247,21
275,83	1241,07
276,05	1306,60
276,26	1236,97
276,48	1333,23
276,69	1259,50
276,91	1200,11
277,12	1273,84
277,34	1296,36
277,55	1290,22
277,77	1255,40
277,99	1187,82
278,20	1290,22
278,42	1277,93
278,63	1296,36
278,85	1279,98
279,06	1341,42
279,28	1253,36
279,49	1251,31
279,71	1255,40
279,93	1275,88
280,14	1239,02
280,36	1179,63
280,57	1253,36
280,79	1322,99
281,00	1261,55
281,22	1234,93
281,43	1269,74
281,65	1243,12
281,86	1273,84
282,08	1222,64
282,29	1269,74
282,51	1214,45
282,73	1232,88
282,94	1314,80
283,16	1257,45
283,37	1294,32
283,59	1296,36
283,80	1273,84
284,02	1228,78
284,23	1265,64
284,45	1273,84
284,66	1290,22
284,88	1189,87
285,09	1245,16
285,31	1224,69
285,52	1253,36
285,74	1318,89
285,95	1265,64
286,17	1310,70
286,38	1257,45
286,60	1284,08
286,81	1206,25
287,03	1247,21
287,24	1277,93
287,46	1302,51
287,67	1191,92
287,89	1257,45
288,10	1236,97
288,32	1212,40
288,53	1228,78
288,75	1345,52
288,96	1263,60
289,18	1271,79
289,39	1263,60
289,61	1230,83
289,82	1310,70
290,04	1212,40
290,25	1284,08
290,47	1275,88
290,68	1269,74
290,90	1220,59
291,11	1273,84
291,33	1277,93
291,54	1310,70
291,76	1263,60
291,97	1265,64
292,18	1232,88
292,40	1234,93
292,61	1232,88
292,83	1236,97
293,04	1298,41
293,26	1286,12
293,47	1247,21
293,69	1247,21
293,90	1259,50
294,12	1290,22
294,33	1230,83
294,55	1335,28
294,76	1292,27
294,97	1341,42
295,19	1245,16
295,40	1322,99
295,62	1322,99
295,83	1320,94
296,05	1216,49
296,26	1325,04
296,48	1245,16
296,69	1245,16
296,90	1230,83
297,12	1226,73
297,33	1331,18
297,55	1212,40
297,76	1175,53
297,98	1277,93
298,19	1249,26
298,41	1247,21
298,62	1239,02
298,83	1193,97
299,05	1261,55
299,26	1234,93
299,48	1322,99
299,69	1251,31
299,90	1310,70
300,12	1314,80
300,33	1196,01
300,55	1232,88
300,76	1222,64
300,98	1161,20
301,19	1259,50
301,40	1234,93
301,62	1247,21
301,83	1204,21
302,05	1216,49
302,26	1292,27
302,47	1239,02
302,69	1257,45
302,90	1263,60
303,12	1261,55
303,33	1335,28
303,54	1308,65
303,76	1273,84
303,97	1255,40
304,19	1247,21
304,40	1273,84
304,61	1286,12
304,83	1294,32
305,04	1300,46
305,26	1214,45
305,47	1282,03
305,68	1271,79
305,90	1259,50
306,11	1247,21
306,33	1296,36
306,54	1232,88
306,75	1275,88
306,97	1304,56
307,18	1265,64
307,39	1312,75
307,61	1329,13
307,82	1224,69
308,04	1277,93
308,25	1286,12
308,46	1269,74
308,68	1249,26
308,89	1304,56
309,10	1343,47
309,32	1267,69
309,53	1294,32
309,74	1273,84
309,96	1320,94
310,17	1300,46
310,39	1253,36
310,60	1265,64
310,81	1275,88
311,03	1214,45
311,24	1288,17
311,45	1243,12
311,67	1257,45
311,88	1279,98
312,09	1275,88
312,31	1210,35
312,52	1265,64
312,73	1263,60
312,95	1302,51
313,16	1261,55
313,37	1257,45
313,59	1290,22
313,80	1263,60
314,01	1275,88
314,23	1277,93
314,44	1308,65
314,65	1327,08
314,87	1245,16
315,08	1228,78
315,29	1298,41
315,51	1263,60
315,72	1302,51
315,93	1304,56
316,15	1259,50
316,36	1220,59
316,57	1290,22
316,79	1228,78
317,00	1191,92
317,21	1282,03
317,43	1173,49
317,64	1224,69
317,85	1267,69
318,07	1218,54
318,28	1224,69
318,49	1196,01
318,70	1222,64
318,92	1241,07
319,13	1218,54
319,34	1187,82
319,56	1208,30
319,77	1273,84
319,98	1226,73
320,20	1220,59
320,41	1243,12
320,62	1247,21
320,83	1282,03
321,05	1331,18
321,26	1368,04
321,47	1327,08
321,69	1249,26
321,90	1273,84
322,11	1327,08
322,32	1304,56
322,54	1212,40
322,75	1245,16
322,96	1310,70
323,18	1310,70
323,39	1269,74
323,60	1267,69
323,81	1212,40
324,03	1279,98
324,24	1232,88
324,45	1316,84
324,66	1218,54
324,88	1243,12
325,09	1210,35
325,30	1279,98
325,52	1273,84
325,73	1267,69
325,94	1183,73
326,15	1302,51
326,37	1316,84
326,58	1265,64
326,79	1275,88
327,00	1320,94
327,22	1218,54
327,43	1267,69
327,64	1230,83
327,85	1253,36
328,07	1255,40
328,28	1279,98
328,49	1222,64
328,70	1290,22
328,92	1296,36
329,13	1286,12
329,34	1331,18
329,55	1222,64
329,76	1251,31
329,98	1314,80
330,19	1271,79
330,40	1304,56
330,61	1288,17
330,83	1271,79
331,04	1253,36
331,25	1300,46
331,46	1249,26
331,68	1277,93
331,89	1212,40
332,10	1277,93
332,31	1241,07
332,52	1222,64
332,74	1310,70
332,95	1249,26
333,16	1208,30
333,37	1218,54
333,58	1333,23
333,80	1241,07
334,01	1292,27
334,22	1345,52
334,43	1239,02
334,64	1263,60
334,86	1239,02
335,07	1269,74
335,28	1241,07
335,49	1216,49
335,70	1265,64
335,92	1255,40
336,13	1322,99
336,34	1265,64
336,55	1286,12
336,76	1282,03
336,98	1232,88
337,19	1302,51
337,40	1167,34
337,61	1277,93
337,82	1261,55
338,04	1290,22
338,25	1243,12
338,46	1210,35
338,67	1236,97
338,88	1269,74
339,09	1337,32
339,31	1216,49
339,52	1222,64
339,73	1181,68
339,94	1292,27
340,15	1169,39
340,36	1222,64
340,58	1261,55
340,79	1228,78
341,00	1261,55
341,21	1300,46
341,42	1261,55
341,63	1255,40
341,85	1241,07
342,06	1189,87
342,27	1255,40
342,48	1216,49
342,69	1306,60
342,90	1259,50
343,12	1230,83
343,33	1241,07
343,54	1236,97
343,75	1343,47
343,96	1208,30
344,17	1275,88
344,38	1304,56
344,60	1210,35
344,81	1271,79
345,02	1306,60
345,23	1273,84
345,44	1322,99
345,65	1325,04
345,86	1290,22
346,07	1187,82
346,29	1271,79
346,50	1302,51
346,71	1380,33
346,92	1277,93
347,13	1273,84
347,34	1282,03
347,55	1263,60
347,76	1257,45
347,98	1263,60
348,19	1286,12
348,40	1286,12
348,61	1298,41
348,82	1316,84
349,03	1290,22
349,24	1277,93
349,45	1251,31
349,66	1257,45
349,88	1267,69
350,09	1296,36
350,30	1208,30
350,51	1329,13
350,72	1286,12
350,93	1212,40
351,14	1257,45
351,35	1314,80
351,56	1351,66
351,77	1249,26
351,99	1263,60
352,20	1228,78
352,41	1253,36
352,62	1288,17
352,83	1251,31
353,04	1193,97
353,25	1282,03
353,46	1339,37
353,67	1314,80
353,88	1224,69
354,09	1304,56
354,30	1257,45
354,52	1224,69
354,73	1296,36
354,94	1249,26
355,15	1290,22
355,36	1245,16
355,57	1257,45
355,78	1216,49
355,99	1243,12
356,20	1243,12
356,41	1239,02
356,62	1167,34
356,83	1249,26
357,04	1302,51
357,25	1232,88
357,46	1261,55
357,68	1343,47
357,89	1257,45
358,10	1322,99
358,31	1200,11
358,52	1249,26
358,73	1226,73
358,94	1249,26
359,15	1257,45
359,36	1322,99
359,57	1212,40
359,78	1251,31
359,99	1179,63
360,20	1273,84
360,41	1296,36
360,62	1290,22
360,83	1320,94
361,04	1247,21
361,25	1282,03
361,46	1255,40
361,67	1298,41
361,88	1239,02
362,09	1275,88
362,30	1284,08
362,51	1259,50
362,72	1310,70
362,93	1208,30
363,14	1355,76
363,35	1290,22
363,56	1257,45
363,78	1279,98
363,99	1183,73
364,20	1257,45
364,41	1275,88
364,62	1314,80
364,83	1226,73
365,04	1300,46
365,25	1191,92
365,46	1255,40
365,67	1269,74
365,88	1284,08
366,09	1277,93
366,30	1273,84
366,51	1267,69
366,72	1241,07
366,93	1206,25
367,14	1273,84
367,35	1308,65
367,56	1249,26
367,77	1347,56
367,98	1261,55
368,18	1290,22
368,39	1273,84
368,60	1234,93
368,81	1314,80
369,02	1245,16
369,23	1265,64
369,44	1243,12
369,65	1302,51
369,86	1349,61
370,07	1284,08
370,28	1263,60
370,49	1320,94
370,70	1257,45
370,91	1247,21
371,12	1259,50
371,33	1286,12
371,54	1230,83
371,75	1298,41
371,96	1224,69
372,17	1284,08
372,38	1302,51
372,59	1218,54
372,80	1292,27
373,01	1314,80
373,22	1247,21
373,43	1318,89
373,64	1226,73
373,85	1232,88
374,06	1279,98
374,26	1230,83
374,47	1282,03
374,68	1302,51
374,89	1304,56
375,10	1312,75
375,31	1288,17
375,52	1204,21
375,73	1331,18
375,94	1243,12
376,15	1296,36
376,36	1253,36
376,57	1173,49
376,78	1212,40
376,99	1288,17
377,20	1226,73
377,40	1257,45
377,61	1277,93
377,82	1279,98
378,03	1314,80
378,24	1279,98
378,45	1302,51
378,66	1267,69
378,87	1251,31
379,08	1269,74
379,29	1327,08
379,50	1314,80
379,71	1236,97
379,91	1253,36
380,12	1230,83
380,33	1327,08
380,54	1269,74
380,75	1245,16
380,96	1243,12
381,17	1294,32
381,38	1339,37
381,59	1308,65
381,80	1234,93
382,00	1251,31
382,21	1279,98
382,42	1322,99
382,63	1245,16
382,84	1320,94
383,05	1236,97
383,26	1277,93
383,47	1222,64
383,68	1298,41
383,88	1310,70
384,09	1232,88
384,30	1253,36
384,51	1282,03
384,72	1312,75
384,93	1296,36
385,14	1239,02
385,35	1191,92
385,55	1269,74
385,76	1257,45
385,97	1269,74
386,18	1304,56
386,39	1325,04
386,60	1288,17
386,81	1247,21
387,02	1255,40
387,22	1312,75
387,43	1316,84
387,64	1277,93
387,85	1310,70
388,06	1300,46
388,27	1249,26
388,48	1263,60
388,68	1230,83
388,89	1304,56
389,10	1200,11
389,31	1282,03
389,52	1228,78
389,73	1288,17
389,93	1265,64
390,14	1304,56
390,35	1327,08
390,56	1284,08
390,77	1279,98
390,98	1269,74
391,18	1284,08
391,39	1243,12
391,60	1265,64
391,81	1259,50
392,02	1222,64
392,23	1308,65
392,43	1249,26
392,64	1269,74
392,85	1302,51
393,06	1288,17
393,27	1296,36
393,47	1196,01
393,68	1269,74
393,89	1253,36
394,10	1288,17
394,31	1312,75
394,52	1314,80
394,72	1249,26
394,93	1249,26
395,14	1185,77
395,35	1300,46
395,56	1224,69
395,76	1181,68
395,97	1204,21
396,18	1249,26
396,39	1304,56
396,60	1277,93
396,80	1265,64
397,01	1273,84
397,22	1259,50
397,43	1298,41
397,64	1263,60
397,84	1335,28
398,05	1255,40
398,26	1241,07
398,47	1222,64
398,67	1167,34
398,88	1261,55
399,09	1208,30
399,30	1302,51
399,51	1232,88
399,71	1245,16
399,92	1193,97
400,13	1212,40
400,34	1294,32
400,54	1316,84
400,75	1325,04
400,96	1263,60
401,17	1296,36
401,37	1253,36
401,58	1249,26
401,79	1316,84
402,00	1204,21
402,21	1294,32
402,41	1249,26
402,62	1284,08
402,83	1232,88
403,04	1228,78
403,24	1269,74
403,45	1220,59
403,66	1286,12
403,87	1214,45
404,07	1275,88
404,28	1261,55
404,49	1302,51
404,70	1204,21
404,90	1349,61
405,11	1294,32
405,32	1310,70
405,52	1251,31
405,73	1253,36
405,94	1247,21
406,15	1312,75
406,35	1265,64
406,56	1345,52
406,77	1171,44
406,98	1245,16
407,18	1263,60
407,39	1337,32
407,60	1259,50
407,80	1257,45
408,01	1279,98
408,22	1265,64
408,43	1200,11
408,63	1239,02
408,84	1265,64
409,05	1241,07
409,25	1222,64
409,46	1193,97
409,67	1298,41
409,88	1298,41
410,08	1218,54
410,29	1265,64
410,50	1220,59
410,70	1214,45
410,91	1212,40
411,12	1341,42
411,32	1241,07
411,53	1163,25
411,74	1204,21
411,95	1314,80
412,15	1236,97
412,36	1261,55
412,57	1216,49
412,77	1202,16
412,98	1257,45
413,19	1212,40
413,39	1288,17
413,60	1306,60
413,81	1351,66
414,01	1257,45
414,22	1230,83
414,43	1345,52
414,63	1220,59
414,84	1302,51
415,05	1232,88
415,25	1243,12
415,46	1228,78
415,67	1159,15
415,87	1275,88
416,08	1316,84
416,29	1253,36
416,49	1216,49
416,70	1282,03
416,91	1249,26
417,11	1224,69
417,32	1275,88
417,53	1243,12
417,73	1255,40
417,94	1304,56
418,15	1341,42
418,35	1314,80
418,56	1329,13
418,77	1275,88
418,97	1230,83
419,18	1234,93
419,38	1300,46
419,59	1247,21
419,80	1337,32
420,00	1282,03
420,21	1306,60
420,42	1261,55
420,62	1277,93
420,83	1241,07
421,04	1249,26
421,24	1212,40
421,45	1257,45
421,65	1286,12
421,86	1277,93
422,07	1339,37
422,27	1230,83
422,48	1286,12
422,69	1239,02
422,89	1236,97
423,10	1277,93
423,30	1314,80
423,51	1245,16
423,72	1228,78
423,92	1320,94
424,13	1292,27
424,33	1263,60
424,54	1247,21
424,75	1286,12
424,95	1333,23
425,16	1224,69
425,36	1271,79
425,57	1241,07
425,78	1230,83
425,98	1341,42
426,19	1222,64
426,39	1255,40
426,60	1234,93
426,81	1261,55
427,01	1316,84
427,22	1253,36
427,42	1318,89
427,63	1271,79
427,83	1241,07
428,04	1216,49
428,25	1224,69
428,45	1279,98
428,66	1243,12
428,86	1316,84
429,07	1230,83
429,28	1265,64
429,48	1312,75
429,69	1251,31
429,89	1216,49
430,10	1239,02
430,30	1271,79
430,51	1314,80
430,71	1292,27
430,92	1279,98
431,13	1239,02
431,33	1282,03
431,54	1259,50
431,74	1298,41
431,95	1157,10
432,15	1296,36
432,36	1239,02
432,56	1241,07
432,77	1312,75
432,98	1253,36
433,18	1212,40
433,39	1245,16
433,59	1273,84
433,80	1210,35
434,00	1306,60
434,21	1267,69
434,41	1263,60
434,62	1337,32
434,82	1288,17
435,03	1304,56
435,23	1320,94
435,44	1355,76
435,64	1269,74
435,85	1218,54
436,06	1308,65
436,26	1261,55
436,47	1292,27
436,67	1265,64
436,88	1251,31
437,08	1284,08
437,29	1253,36
437,49	1228,78
437,70	1228,78
437,90	1298,41
438,11	1271,79
438,31	1271,79
438,52	1277,93
438,72	1294,32
438,93	1310,70
439,13	1298,41
439,34	1318,89
439,54	1239,02
439,75	1331,18
439,95	1296,36
440,16	1249,26
440,36	1286,12
440,57	1222,64
440,77	1290,22
440,98	1267,69
441,18	1282,03
441,39	1251,31
441,59	1271,79
441,80	1193,97
442,00	1312,75
442,21	1222,64
442,41	1265,64
442,62	1251,31
442,82	1214,45
443,02	1296,36
443,23	1300,46
443,43	1191,92
443,64	1253,36
443,84	1263,60
444,05	1216,49
444,25	1200,11
444,46	1282,03
444,66	1230,83
444,87	1286,12
445,07	1277,93
445,28	1302,51
445,48	1368,04
445,69	1202,16
445,89	1353,71
446,09	1253,36
446,30	1257,45
446,50	1269,74
446,71	1294,32
446,91	1333,23
447,12	1314,80
447,32	1325,04
447,53	1335,28
447,73	1263,60
447,93	1290,22
448,14	1292,27
448,34	1265,64
448,55	1161,20
448,75	1245,16
448,96	1286,12
449,16	1290,22
449,36	1298,41
449,57	1267,69
449,77	1253,36
449,98	1290,22
450,18	1236,97
450,39	1253,36
450,59	1288,17
450,79	1226,73
451,00	1259,50
451,20	1269,74
451,41	1255,40
451,61	1318,89
451,81	1386,47
452,02	1257,45
452,22	1230,83
452,43	1286,12
452,63	1306,60
452,84	1298,41
453,04	1263,60
453,24	1331,18
453,45	1316,84
453,65	1251,31
453,86	1277,93
454,06	1247,21
454,26	1312,75
454,47	1265,64
454,67	1290,22
454,87	1329,13
455,08	1337,32
455,28	1273,84
455,49	1294,32
455,69	1290,22
455,89	1251,31
456,10	1257,45
456,30	1224,69
456,51	1255,40
456,71	1269,74
456,91	1314,80
457,12	1212,40
457,32	1290,22
457,52	1273,84
457,73	1255,40
457,93	1290,22
458,14	1355,76
458,34	1282,03
458,54	1290,22
458,75	1236,97
458,95	1298,41
459,15	1316,84
459,36	1269,74
459,56	1302,51
459,76	1314,80
459,97	1253,36
460,17	1292,27
460,37	1300,46
460,58	1316,84
460,78	1325,04
460,99	1150,96
461,19	1267,69
461,39	1296,36
461,60	1265,64
461,80	1282,03
462,00	1257,45
462,21	1329,13
462,41	1327,08
462,61	1259,50
462,82	1290,22
463,02	1300,46
463,22	1236,97
463,43	1318,89
463,63	1277,93
463,83	1257,45
464,04	1239,02
464,24	1230,83
464,44	1206,25
464,64	1169,39
464,85	1257,45
465,05	1290,22
465,25	1249,26
465,46	1251,31
465,66	1265,64
465,86	1271,79
466,07	1279,98
466,27	1273,84
466,47	1275,88
466,68	1333,23
466,88	1204,21
467,08	1267,69
467,29	1273,84
467,49	1288,17
467,69	1298,41
467,89	1236,97
468,10	1273,84
468,30	1263,60
468,50	1269,74
468,71	1290,22
468,91	1363,95
469,11	1224,69
469,31	1322,99
469,52	1263,60
469,72	1259,50
469,92	1275,88
470,13	1304,56
470,33	1331,18
470,53	1263,60
470,73	1286,12
470,94	1206,25
471,14	1292,27
471,34	1282,03
471,54	1327,08
471,75	1290,22
471,95	1331,18
472,15	1314,80
472,36	1257,45
472,56	1249,26
472,76	1265,64
472,96	1247,21
473,17	1314,80
473,37	1275,88
473,57	1251,31
473,77	1257,45
473,98	1292,27
474,18	1314,80
474,38	1273,84
474,58	1271,79
474,79	1353,71
474,99	1236,97
475,19	1286,12
475,39	1181,68
475,60	1253,36
475,80	1226,73
476,00	1247,21
476,20	1251,31
476,41	1265,64
476,61	1220,59
476,81	1304,56
477,01	1261,55
477,21	1294,32
477,42	1318,89
477,62	1241,07
477,82	1282,03
478,02	1257,45
478,23	1298,41
478,43	1292,27
478,63	1263,60
478,83	1241,07
479,03	1267,69
479,24	1236,97
479,44	1214,45
479,64	1320,94
479,84	1341,42
480,04	1243,12
480,25	1361,90
480,45	1257,45
480,65	1316,84
480,85	1222,64
481,06	1267,69
481,26	1277,93
481,46	1308,65
481,66	1230,83
481,86	1288,17
482,06	1269,74
482,27	1257,45
482,47	1298,41
482,67	1218,54
482,87	1255,40
483,07	1273,84
483,28	1310,70
483,48	1294,32
483,68	1322,99
483,88	1335,28
484,08	1239,02
484,29	1239,02
484,49	1308,65
484,69	1310,70
484,89	1269,74
485,09	1284,08
485,29	1232,88
485,50	1259,50
485,70	1216,49
485,90	1259,50
486,10	1216,49
486,30	1255,40
486,50	1185,77
486,71	1282,03
486,91	1282,03
487,11	1298,41
487,31	1263,60
487,51	1322,99
487,71	1241,07
487,91	1228,78
488,12	1224,69
488,32	1251,31
488,52	1329,13
488,72	1247,21
488,92	1220,59
489,12	1320,94
489,32	1232,88
489,53	1294,32
489,73	1308,65
489,93	1265,64
490,13	1320,94
490,33	1257,45
490,53	1259,50
490,73	1290,22
490,94	1247,21
491,14	1265,64
491,34	1261,55
491,54	1286,12
491,74	1298,41
491,94	1265,64
492,14	1290,22
492,34	1298,41
492,54	1239,02
492,75	1318,89
492,95	1261,55
493,15	1263,60
493,35	1282,03
493,55	1261,55
493,75	1294,32
493,95	1263,60
494,15	1257,45
494,35	1331,18
494,56	1320,94
494,76	1257,45
494,96	1294,32
495,16	1279,98
495,36	1210,35
495,56	1212,40
495,76	1306,60
495,96	1259,50
496,16	1214,45
496,36	1271,79
496,56	1220,59
496,77	1314,80
496,97	1282,03
497,17	1306,60
497,37	1220,59
497,57	1341,42
497,77	1282,03
497,97	1232,88
498,17	1247,21
498,37	1265,64
498,57	1265,64
498,77	1239,02
498,97	1212,40
499,17	1269,74
499,38	1316,84
499,58	1322,99
499,78	1271,79
499,98	1322,99
500,18	1232,88
500,38	1296,36
500,58	1236,97
500,78	1320,94
500,98	1255,40
501,18	1261,55
501,38	1318,89
501,58	1216,49
501,78	1249,26
501,98	1216,49
502,18	1333,23
502,38	1300,46
502,58	1300,46
502,78	1284,08
502,98	1282,03
503,18	1228,78
503,38	1224,69
503,59	1294,32
503,79	1245,16
503,99	1282,03
504,19	1245,16
504,39	1241,07
504,59	1212,40
504,79	1361,90
504,99	1290,22
505,19	1243,12
505,39	1253,36
505,59	1228,78
505,79	1245,16
505,99	1255,40
506,19	1310,70
506,39	1261,55
506,59	1261,55
506,79	1222,64
506,99	1302,51
507,19	1265,64
507,39	1331,18
507,59	1208,30
507,79	1236,97
507,99	1312,75
508,19	1210,35
508,39	1247,21
508,59	1308,65
508,79	1279,98
508,99	1286,12
509,19	1388,52
509,39	1300,46
509,59	1241,07
509,79	1230,83
509,99	1302,51
510,19	1259,50
510,39	1314,80
510,59	1261,55
510,79	1282,03
510,99	1325,04
511,19	1241,07
511,39	1304,56
511,59	1327,08
511,79	1316,84
511,99	1210,35
512,19	1277,93
512,38	1279,98
512,58	1245,16
512,78	1222,64
512,98	1257,45
513,18	1253,36
513,38	1259,50
513,58	1298,41
513,78	1300,46
513,98	1275,88
514,18	1234,93
514,38	1200,11
514,58	1282,03
514,78	1245,16
514,98	1204,21
515,18	1275,88
515,38	1273,84
515,58	1271,79
515,78	1247,21
515,98	1236,97
516,18	1284,08
516,38	1273,84
516,57	1316,84
516,77	1304,56
516,97	1251,31
517,17	1343,47
517,37	1263,60
517,57	1271,79
517,77	1191,92
517,97	1277,93
518,17	1304,56
518,37	1298,41
518,57	1228,78
518,77	1257,45
518,97	1304,56
519,16	1226,73
519,36	1343,47
519,56	1261,55
519,76	1241,07
519,96	1337,32
520,16	1304,56
520,36	1253,36
520,56	1206,25
520,76	1247,21
520,96	1269,74
521,16	1259,50
521,35	1236,97
521,55	1241,07
521,75	1249,26
521,95	1310,70
522,15	1216,49
522,35	1253,36
522,55	1255,40
522,75	1282,03
522,95	1327,08
523,14	1204,21
523,34	1200,11
523,54	1277,93
523,74	1347,56
523,94	1282,03
524,14	1292,27
524,34	1337,32
524,54	1273,84
524,73	1269,74
524,93	1271,79
525,13	1265,64
525,33	1255,40
525,53	1273,84
525,73	1230,83
525,93	1333,23
526,13	1333,23
526,32	1269,74
526,52	1341,42
526,72	1335,28
526,92	1228,78
527,12	1263,60
527,32	1255,40
527,52	1349,61
527,71	1327,08
527,91	1275,88
528,11	1314,80
528,31	1236,97
528,51	1282,03
528,71	1273,84
528,90	1236,97
529,10	1249,26
529,30	1310,70
529,50	1306,60
529,70	1259,50
529,90	1255,40
530,09	1335,28
530,29	1189,87
530,49	1224,69
530,69	1284,08
530,89	1380,33
531,09	1296,36
531,28	1265,64
531,48	1335,28
531,68	1279,98
531,88	1245,16
532,08	1251,31
532,28	1292,27
532,47	1257,45
532,67	1329,13
532,87	1232,88
533,07	1224,69
533,27	1282,03
533,46	1255,40
533,66	1288,17
533,86	1296,36
534,06	1241,07
534,26	1230,83
534,45	1286,12
534,65	1277,93
534,85	1273,84
535,05	1267,69
535,25	1335,28
535,44	1253,36
535,64	1263,60
535,84	1296,36
536,04	1216,49
536,24	1282,03
536,43	1292,27
536,63	1316,84
536,83	1284,08
537,03	1337,32
537,22	1206,25
537,42	1255,40
537,62	1259,50
537,82	1320,94
538,02	1284,08
538,21	1282,03
538,41	1249,26
538,61	1265,64
538,81	1314,80
539,00	1286,12
539,20	1267,69
539,40	1243,12
539,60	1294,32
539,79	1232,88
539,99	1212,40
540,19	1341,42
540,39	1331,18
540,58	1263,60
540,78	1318,89
540,98	1271,79
541,18	1320,94
541,37	1249,26
541,57	1288,17
541,77	1282,03
541,97	1222,64
542,16	1282,03
542,36	1286,12
542,56	1243,12
542,76	1234,93
542,95	1273,84
543,15	1288,17
543,35	1292,27
543,54	1255,40
543,74	1327,08
543,94	1298,41
544,14	1245,16
544,33	1294,32
544,53	1318,89
544,73	1249,26
544,93	1267,69
545,12	1304,56
545,32	1275,88
545,52	1345,52
545,71	1206,25
545,91	1277,93
546,11	1232,88
546,30	1382,38
546,50	1247,21
546,70	1226,73
546,90	1335,28
547,09	1261,55
547,29	1263,60
547,49	1296,36
547,68	1253,36
547,88	1251,31
548,08	1320,94
548,27	1325,04
548,47	1179,63
548,67	1239,02
548,87	1253,36
549,06	1284,08
549,26	1312,75
549,46	1325,04
549,65	1269,74
549,85	1255,40
550,05	1306,60
550,24	1314,80
550,44	1245,16
550,64	1298,41
550,83	1290,22
551,03	1288,17
551,23	1261,55
551,42	1253,36
551,62	1318,89
551,82	1226,73
552,01	1175,53
552,21	1288,17
552,41	1277,93
552,60	1298,41
552,80	1300,46
553,00	1245,16
553,19	1318,89
553,39	1294,32
553,59	1316,84
553,78	1290,22
553,98	1300,46
554,17	1249,26
554,37	1277,93
554,57	1261,55
554,76	1263,60
554,96	1236,97
555,16	1271,79
555,35	1296,36
555,55	1247,21
555,75	1265,64
555,94	1279,98
556,14	1171,44
556,33	1269,74
556,53	1345,52
556,73	1273,84
556,92	1273,84
557,12	1353,71
557,32	1261,55
557,51	1214,45
557,71	1255,40
557,90	1302,51
558,10	1286,12
558,30	1273,84
558,49	1288,17
558,69	1261,55
558,88	1286,12
559,08	1288,17
559,28	1224,69
559,47	1304,56
559,67	1222,64
559,86	1327,08
560,06	1265,64
560,26	1222,64
560,45	1284,08
560,65	1247,21
560,84	1286,12
561,04	1271,79
561,24	1298,41
561,43	1263,60
561,63	1257,45
561,82	1322,99
562,02	1214,45
562,22	1286,12
562,41	1312,75
562,61	1288,17
562,80	1275,88
563,00	1320,94
563,19	1343,47
563,39	1245,16
563,59	1296,36
563,78	1239,02
563,98	1370,09
564,17	1263,60
564,37	1247,21
564,56	1253,36
564,76	1298,41
564,96	1273,84
565,15	1220,59
565,35	1236,97
565,54	1251,31
565,74	1329,13
565,93	1294,32
566,13	1284,08
566,32	1290,22
566,52	1296,36
566,71	1269,74
566,91	1265,64
567,11	1298,41
567,30	1304,56
567,50	1204,21
567,69	1226,73
567,89	1294,32
568,08	1255,40
568,28	1269,74
568,47	1292,27
568,67	1318,89
568,86	1277,93
569,06	1284,08
569,25	1288,17
569,45	1322,99
569,64	1304,56
569,84	1206,25
570,04	1325,04
570,23	1261,55
570,43	1306,60
570,62	1220,59
570,82	1294,32
571,01	1284,08
571,21	1245,16
571,40	1255,40
571,60	1247,21
571,79	1265,64
571,99	1314,80
572,18	1286,12
572,38	1218,54
572,57	1339,37
572,77	1265,64
572,96	1263,60
573,16	1312,75
573,35	1308,65
573,55	1208,30
573,74	1253,36
573,94	1255,40
574,13	1212,40
574,33	1222,64
574,52	1267,69
574,71	1288,17
574,91	1277,93
575,10	1339,37
575,30	1290,22
575,49	1284,08
575,69	1255,40
575,88	1239,02
576,08	1282,03
576,27	1331,18
576,47	1257,45
576,66	1241,07
576,86	1329,13
577,05	1318,89
577,25	1269,74
577,44	1255,40
577,64	1228,78
577,83	1271,79
578,02	1208,30
578,22	1300,46
578,41	1279,98
578,61	1292,27
578,80	1288,17
579,00	1263,60
579,19	1230,83
579,39	1249,26
579,58	1286,12
579,77	1308,65
579,97	1288,17
580,16	1255,40
580,36	1298,41
580,55	1337,32
580,75	1239,02
580,94	1314,80
581,13	1302,51
581,33	1335,28
581,52	1232,88
581,72	1294,32
581,91	1230,83
582,11	1251,31
582,30	1259,50
582,49	1253,36
582,69	1253,36
582,88	1277,93
583,08	1294,32
583,27	1234,93
583,47	1261,55
583,66	1275,88
583,85	1290,22
584,05	1333,23
584,24	1218,54
584,44	1290,22
584,63	1329,13
584,82	1306,60
585,02	1259,50
585,21	1275,88
585,41	1302,51
585,60	1255,40
585,79	1277,93
585,99	1292,27
586,18	1210,35
586,37	1308,65
586,57	1339,37
586,76	1294,32
586,96	1269,74
587,15	1290,22
587,34	1220,59
587,54	1335,28
587,73	1282,03
587,93	1249,26
588,12	1290,22
588,31	1339,37
588,51	1247,21
588,70	1257,45
588,89	1228,78
589,09	1196,01
589,28	1320,94
589,47	1277,93
589,67	1277,93
589,86	1271,79
590,06	1267,69
590,25	1204,21
590,44	1306,60
590,64	1294,32
590,83	1279,98
591,02	1306,60
591,22	1257,45
591,41	1296,36
591,60	1310,70
591,80	1363,95
591,99	1298,41
592,18	1265,64
592,38	1271,79
592,57	1255,40
592,76	1318,89
592,96	1351,66
593,15	1312,75
593,34	1267,69
593,54	1257,45
593,73	1271,79
593,92	1179,63
594,12	1271,79
594,31	1243,12
594,50	1271,79
594,70	1239,02
594,89	1292,27
595,08	1241,07
595,28	1288,17
595,47	1257,45
595,66	1257,45
595,86	1288,17
596,05	1271,79
596,24	1353,71
596,43	1314,80
596,63	1322,99
596,82	1290,22
597,01	1288,17
597,21	1314,80
597,40	1290,22
597,59	1294,32
597,79	1298,41
597,98	1294,32
598,17	1181,68
598,36	1296,36
598,56	1279,98
598,75	1271,79
598,94	1249,26
599,14	1316,84
599,33	1294,32
599,52	1288,17
599,71	1366,00
599,91	1294,32
600,10	1245,16
600,29	1249,26
600,48	1257,45
600,68	1304,56
600,87	1257,45
601,06	1302,51
601,26	1253,36
601,45	1282,03
601,64	1247,21
601,83	1290,22
602,03	1284,08
602,22	1353,71
602,41	1300,46
602,60	1243,12
602,80	1353,71
602,99	1271,79
603,18	1286,12
603,37	1282,03
603,57	1304,56
603,76	1273,84
603,95	1308,65
604,14	1310,70
604,34	1300,46
604,53	1331,18
604,72	1294,32
604,91	1273,84
605,10	1187,82
605,30	1284,08
605,49	1249,26
605,68	1298,41
605,87	1286,12
606,07	1337,32
606,26	1339,37
606,45	1312,75
606,64	1302,51
606,84	1245,16
607,03	1277,93
607,22	1318,89
607,41	1245,16
607,60	1294,32
607,80	1249,26
607,99	1169,39
608,18	1366,00
608,37	1333,23
608,56	1245,16
608,76	1361,90
608,95	1329,13
609,14	1224,69
609,33	1277,93
609,52	1261,55
609,72	1261,55
609,91	1306,60
610,10	1351,66
610,29	1273,84
610,48	1370,09
610,68	1273,84
610,87	1306,60
611,06	1216,49
611,25	1290,22
611,44	1212,40
611,63	1265,64
611,83	1267,69
612,02	1294,32
612,21	1275,88
612,40	1263,60
612,59	1269,74
612,79	1263,60
612,98	1306,60
613,17	1245,16
613,36	1355,76
613,55	1318,89
613,74	1331,18
613,93	1226,73
614,13	1222,64
614,32	1282,03
614,51	1298,41
614,70	1284,08
614,89	1322,99
615,08	1312,75
615,28	1300,46
615,47	1279,98
615,66	1306,60
615,85	1279,98
616,04	1314,80
616,23	1277,93
616,42	1275,88
616,62	1335,28
616,81	1310,70
617,00	1247,21
617,19	1284,08
617,38	1234,93
617,57	1247,21
617,76	1267,69
617,95	1345,52
618,15	1378,28
618,34	1312,75
618,53	1228,78
618,72	1265,64
618,91	1271,79
619,10	1257,45
619,29	1220,59
619,48	1306,60
619,68	1302,51
619,87	1331,18
620,06	1247,21
620,25	1265,64
620,44	1294,32
620,63	1263,60
620,82	1269,74
621,01	1353,71
621,20	1251,31
621,39	1279,98
621,59	1294,32
621,78	1296,36
621,97	1243,12
622,16	1351,66
622,35	1236,97
622,54	1271,79
622,73	1310,70
622,92	1320,94
623,11	1279,98
623,30	1322,99
623,49	1318,89
623,68	1355,76
623,88	1269,74
624,07	1245,16
624,26	1255,40
624,45	1345,52
624,64	1265,64
624,83	1292,27
625,02	1257,45
625,21	1265,64
625,40	1234,93
625,59	1288,17
625,78	1232,88
625,97	1331,18
626,16	1251,31
626,35	1273,84
626,54	1318,89
626,74	1230,83
626,93	1257,45
627,12	1343,47
627,31	1290,22
627,50	1257,45
627,69	1335,28
627,88	1353,71
628,07	1314,80
628,26	1292,27
628,45	1226,73
628,64	1284,08
628,83	1363,95
629,02	1296,36
629,21	1312,75
629,40	1282,03
629,59	1249,26
629,78	1357,80
629,97	1359,85
630,16	1261,55
630,35	1251,31
630,54	1298,41
630,73	1329,13
630,92	1357,80
631,11	1421,29
631,30	1310,70
631,49	1347,56
631,68	1517,54
631,87	1822,69
632,06	2209,76
632,25	1931,23
632,44	2090,98
632,63	2052,06
632,82	2086,88
633,01	2330,59
633,20	2367,45
633,39	2185,18
633,58	2680,79
633,77	3286,99
633,96	3155,92
634,15	3438,54
634,34	6115,23
634,53	12724,03
634,72	20440,78
634,91	24405,64
635,10	22929,06
635,29	17608,44
635,48	12300,10
635,67	8155,01
635,86	5031,86
636,05	3211,22
636,24	1998,82
636,43	1558,50
636,62	1468,39
636,81	1417,19
637,00	1366,00
637,19	1353,71
637,38	1337,32
637,57	1302,51
637,76	1331,18
637,95	1292,27
638,14	1372,14
638,33	1316,84
638,52	1335,28
638,71	1318,89
638,89	1288,17
639,08	1308,65
639,27	1275,88
639,46	1265,64
639,65	1312,75
639,84	1261,55
640,03	1286,12
640,22	1282,03
640,41	1310,70
640,60	1273,84
640,79	1282,03
640,98	1243,12
641,17	1298,41
641,36	1320,94
641,55	1325,04
641,74	1298,41
641,92	1284,08
642,11	1222,64
642,30	1218,54
642,49	1298,41
642,68	1353,71
642,87	1222,64
643,06	1265,64
643,25	1232,88
643,44	1261,55
643,63	1230,83
643,82	1322,99
644,00	1273,84
644,19	1279,98
644,38	1261,55
644,57	1275,88
644,76	1277,93
644,95	1308,65
645,14	1282,03
645,33	1304,56
645,52	1259,50
645,71	1236,97
645,89	1222,64
646,08	1241,07
646,27	1286,12
646,46	1339,37
646,65	1275,88
646,84	1290,22
647,03	1302,51
647,22	1224,69
647,40	1200,11
647,59	1306,60
647,78	1298,41
647,97	1286,12
648,16	1202,16
648,35	1378,28
648,54	1304,56
648,73	1251,31
648,91	1288,17
649,10	1304,56
649,29	1265,64
649,48	1345,52
649,67	1335,28
649,86	1249,26
650,05	1288,17
650,23	1290,22
650,42	1286,12
650,61	1236,97
650,80	1257,45
650,99	1284,08
651,18	1331,18
651,36	1241,07
651,55	1232,88
651,74	1284,08
651,93	1257,45
652,12	1363,95
652,31	1282,03
652,49	1282,03
652,68	1275,88
652,87	1316,84
653,06	1294,32
653,25	1310,70
653,44	1279,98
653,62	1308,65
653,81	1271,79
654,00	1284,08
654,19	1263,60
654,38	1251,31
654,56	1239,02
654,75	1245,16
654,94	1232,88
655,13	1220,59
655,32	1241,07
655,51	1361,90
655,69	1253,36
655,88	1193,97
656,07	1259,50
656,26	1208,30
656,45	1263,60
656,63	1298,41
656,82	1361,90
657,01	1247,21
657,20	1312,75
657,38	1310,70
657,57	1253,36
657,76	1261,55
657,95	1202,16
658,14	1263,60
658,32	1261,55
658,51	1306,60
658,70	1259,50
658,89	1282,03
659,08	1294,32
659,26	1259,50
659,45	1284,08
659,64	1277,93
659,83	1263,60
660,01	1300,46
660,20	1277,93
660,39	1247,21
660,58	1298,41
660,76	1294,32
660,95	1294,32
661,14	1273,84
661,33	1304,56
661,51	1253,36
661,70	1294,32
661,89	1208,30
662,08	1286,12
662,26	1284,08
662,45	1306,60
662,64	1298,41
662,83	1282,03
663,01	1312,75
663,20	1271,79
663,39	1257,45
663,58	1259,50
663,76	1296,36
663,95	1286,12
664,14	1239,02
664,32	1263,60
664,51	1306,60
664,70	1204,21
664,89	1267,69
665,07	1271,79
665,26	1249,26
665,45	1220,59
665,64	1247,21
665,82	1222,64
666,01	1298,41
666,20	1275,88
666,38	1261,55
666,57	1257,45
666,76	1284,08
666,95	1183,73
667,13	1257,45
667,32	1230,83
667,51	1265,64
667,69	1288,17
667,88	1300,46
668,07	1275,88
668,25	1284,08
668,44	1271,79
668,63	1351,66
668,81	1329,13
669,00	1167,34
669,19	1271,79
669,38	1265,64
669,56	1241,07
669,75	1273,84
669,94	1304,56
670,12	1230,83
670,31	1286,12
670,50	1214,45
670,68	1327,08
670,87	1230,83
671,06	1282,03
671,24	1263,60
671,43	1306,60
671,62	1206,25
671,80	1243,12
671,99	1320,94
672,18	1277,93
672,36	1380,33
672,55	1353,71
672,74	1273,84
672,92	1271,79
673,11	1282,03
673,29	1214,45
673,48	1253,36
673,67	1282,03
673,85	1273,84
674,04	1251,31
674,23	1288,17
674,41	1220,59
674,60	1277,93
674,79	1265,64
674,97	1202,16
675,16	1316,84
675,34	1306,60
675,53	1359,85
675,72	1263,60
675,90	1198,06
676,09	1298,41
676,28	1279,98
676,46	1277,93
676,65	1302,51
676,83	1259,50
677,02	1279,98
677,21	1198,06
677,39	1257,45
677,58	1265,64
677,77	1255,40
677,95	1279,98
678,14	1232,88
678,32	1232,88
678,51	1261,55
678,70	1257,45
678,88	1286,12
679,07	1224,69
679,25	1257,45
679,44	1251,31
679,63	1224,69
679,81	1282,03
680,00	1304,56
680,18	1251,31
680,37	1249,26
680,55	1269,74
680,74	1228,78
680,93	1290,22
681,11	1277,93
681,30	1265,64
681,48	1253,36
681,67	1263,60
681,85	1275,88
682,04	1306,60
682,23	1302,51
682,41	1302,51
682,60	1312,75
682,78	1239,02
682,97	1265,64
683,15	1374,19
683,34	1318,89
683,53	1288,17
683,71	1234,93
683,90	1271,79
684,08	1245,16
684,27	1257,45
684,45	1306,60
684,64	1300,46
684,82	1284,08
685,01	1234,93
685,19	1265,64
685,38	1273,84
685,57	1290,22
685,75	1267,69
685,94	1259,50
686,12	1196,01
686,31	1282,03
686,49	1245,16
686,68	1265,64
686,86	1306,60
687,05	1247,21
687,23	1251,31
687,42	1253,36
687,60	1239,02
687,79	1282,03
687,97	1292,27
688,16	1222,64
688,34	1265,64
688,53	1204,21
688,71	1298,41
688,90	1245,16
689,08	1263,60
689,27	1335,28
689,45	1263,60
689,64	1236,97
689,82	1236,97
690,01	1208,30
690,19	1302,51
690,38	1298,41
690,56	1331,18
690,75	1251,31
690,93	1232,88
691,12	1239,02
691,30	1253,36
691,49	1216,49
691,67	1204,21
691,86	1196,01
692,04	1259,50
692,23	1273,84
692,41	1312,75
692,60	1275,88
692,78	1243,12
692,97	1253,36
693,15	1310,70
693,34	1275,88
693,52	1222,64
693,71	1228,78
693,89	1224,69
694,08	1224,69
694,26	1298,41
694,44	1290,22
694,63	1239,02
694,81	1279,98
695,00	1269,74
695,18	1304,56
695,37	1226,73
695,55	1257,45
695,74	1236,97
695,92	1267,69
696,10	1306,60
696,29	1288,17
696,47	1296,36
696,66	1210,35
696,84	1202,16
697,03	1253,36
697,21	1304,56
697,40	1282,03
697,58	1298,41
697,76	1306,60
697,95	1271,79
698,13	1300,46
698,32	1318,89
698,50	1355,76
698,68	1200,11
698,87	1263,60
699,05	1251,31
699,24	1296,36
699,42	1349,61
699,61	1275,88
699,79	1230,83
699,97	1282,03
700,16	1241,07
700,34	1214,45
700,53	1228,78
700,71	1257,45
700,89	1239,02
701,08	1202,16
701,26	1241,07
701,45	1337,32
701,63	1290,22
701,81	1279,98
702,00	1288,17
702,18	1253,36
702,37	1271,79
702,55	1282,03
702,73	1261,55
702,92	1300,46
703,10	1210,35
703,28	1265,64
703,47	1257,45
703,65	1277,93
703,84	1339,37
704,02	1279,98
704,20	1331,18
704,39	1275,88
704,57	1345,52
704,75	1255,40
704,94	1257,45
705,12	1259,50
705,30	1189,87
705,49	1196,01
705,67	1282,03
705,86	1204,21
706,04	1234,93
706,22	1239,02
706,41	1271,79
706,59	1288,17
706,77	1230,83
706,96	1204,21
707,14	1245,16
707,32	1253,36
707,51	1329,13
707,69	1310,70
707,87	1271,79
708,06	1212,40
708,24	1265,64
708,42	1275,88
708,61	1257,45
708,79	1259,50
708,97	1239,02
709,16	1259,50
709,34	1292,27
709,52	1177,58
709,71	1232,88
709,89	1298,41
710,07	1245,16
710,26	1333,23
710,44	1322,99
710,62	1251,31
710,80	1243,12
710,99	1314,80
711,17	1279,98
711,35	1269,74
711,54	1220,59
711,72	1243,12
711,90	1294,32
712,09	1312,75
712,27	1234,93
712,45	1247,21
712,63	1292,27
712,82	1284,08
713,00	1329,13
713,18	1294,32
713,37	1331,18
713,55	1265,64
713,73	1273,84
713,91	1222,64
714,10	1249,26
714,28	1247,21
714,46	1286,12
714,65	1232,88
714,83	1288,17
715,01	1290,22
715,19	1239,02
715,38	1275,88
715,56	1251,31
715,74	1302,51
715,92	1265,64
716,11	1253,36
716,29	1204,21
716,47	1261,55
716,65	1314,80
716,84	1327,08
717,02	1263,60
717,20	1241,07
717,38	1232,88
717,57	1288,17
717,75	1357,80
717,93	1275,88
718,11	1243,12
718,30	1282,03
718,48	1255,40
718,66	1267,69
718,84	1206,25
719,03	1251,31
719,21	1216,49
719,39	1298,41
719,57	1318,89
719,75	1232,88
719,94	1257,45
720,12	1243,12
720,30	1241,07
720,48	1261,55
720,67	1179,63
720,85	1249,26
721,03	1296,36
721,21	1216,49
721,39	1251,31
721,58	1279,98
721,76	1284,08
721,94	1279,98
722,12	1247,21
722,30	1308,65
722,49	1273,84
722,67	1308,65
722,85	1322,99
723,03	1257,45
723,21	1224,69
723,40	1200,11
723,58	1271,79
723,76	1273,84
723,94	1239,02
724,12	1257,45
724,30	1306,60
724,49	1251,31
724,67	1261,55
724,85	1247,21
725,03	1216,49
725,21	1249,26
725,40	1288,17
725,58	1304,56
725,76	1271,79
725,94	1259,50
726,12	1263,60
726,30	1236,97
726,49	1259,50
726,67	1322,99
726,85	1255,40
727,03	1331,18
727,21	1333,23
727,39	1218,54
727,57	1236,97
727,76	1249,26
727,94	1288,17
728,12	1298,41
728,30	1318,89
728,48	1251,31
728,66	1304,56
728,84	1298,41
729,03	1261,55
729,21	1318,89
729,39	1304,56
729,57	1236,97
729,75	1261,55
729,93	1253,36
730,11	1267,69
730,30	1327,08
730,48	1226,73
730,66	1290,22
730,84	1263,60
731,02	1239,02
731,20	1284,08
731,38	1314,80
731,56	1286,12
731,74	1265,64
731,93	1271,79
732,11	1269,74
732,29	1249,26
732,47	1292,27
732,65	1222,64
732,83	1212,40
733,01	1273,84
733,19	1275,88
733,37	1353,71
733,56	1304,56
733,74	1234,93
733,92	1243,12
734,10	1226,73
734,28	1275,88
734,46	1208,30
734,64	1216,49
734,82	1261,55
735,00	1267,69
735,18	1206,25
735,36	1310,70
735,54	1304,56
735,73	1329,13
735,91	1222,64
736,09	1269,74
736,27	1228,78
736,45	1245,16
736,63	1300,46
736,81	1271,79
736,99	1261,55
737,17	1267,69
737,35	1257,45
737,53	1263,60
737,71	1226,73
737,89	1257,45
738,07	1288,17
738,25	1241,07
738,43	1212,40
738,61	1269,74
738,80	1298,41
738,98	1247,21
739,16	1234,93
739,34	1232,88
739,52	1267,69
739,70	1282,03
739,88	1267,69
740,06	1310,70
740,24	1230,83
740,42	1275,88
740,60	1316,84
740,78	1230,83
740,96	1220,59
741,14	1200,11
741,32	1380,33
741,50	1212,40
741,68	1304,56
741,86	1331,18
742,04	1216,49
742,22	1282,03
742,40	1210,35
742,58	1275,88
742,76	1279,98
742,94	1261,55
743,12	1279,98
743,30	1261,55
743,48	1253,36
743,66	1284,08
743,84	1214,45
744,02	1271,79
744,20	1325,04
744,38	1236,97
744,56	1277,93
744,74	1214,45
744,92	1279,98
745,10	1302,51
745,28	1337,32
745,46	1249,26
745,64	1325,04
745,82	1257,45
746,00	1269,74
746,18	1296,36
746,36	1196,01
746,54	1273,84
746,72	1253,36
746,90	1263,60
747,08	1216,49
747,26	1366,00
747,44	1312,75
747,62	1306,60
747,80	1214,45
747,98	1282,03
748,15	1290,22
748,33	1230,83
748,51	1267,69
748,69	1269,74
748,87	1185,77
749,05	1241,07
749,23	1331,18
749,41	1234,93
749,59	1183,73
749,77	1255,40
749,95	1265,64
750,13	1191,92
750,31	1261,55
750,49	1343,47
750,67	1294,32
750,85	1255,40
751,03	1232,88
751,20	1259,50
751,38	1282,03
751,56	1275,88
751,74	1302,51
751,92	1302,51
752,10	1279,98
752,28	1290,22
752,46	1361,90
752,64	1224,69
752,82	1282,03
753,00	1290,22
753,18	1282,03
753,35	1265,64
753,53	1265,64
753,71	1245,16
753,89	1257,45
754,07	1245,16
754,25	1277,93
754,43	1273,84
754,61	1247,21
754,79	1230,83
754,97	1265,64
755,14	1275,88
755,32	1230,83
755,50	1302,51
755,68	1275,88
755,86	1261,55
756,04	1243,12
756,22	1148,91
756,40	1286,12
756,57	1253,36
756,75	1325,04
756,93	1257,45
757,11	1236,97
757,29	1284,08
757,47	1345,52
757,65	1261,55
757,82	1296,36
758,00	1255,40
758,18	1282,03
758,36	1251,31
758,54	1204,21
758,72	1259,50
758,90	1245,16
759,07	1366,00
759,25	1208,30
759,43	1241,07
759,61	1210,35
759,79	1370,09
759,97	1251,31
760,15	1255,40
760,32	1208,30
760,50	1236,97
760,68	1288,17
760,86	1275,88
761,04	1232,88
761,22	1228,78
761,39	1241,07
761,57	1269,74
761,75	1257,45
761,93	1255,40
762,11	1345,52
762,28	1306,60
762,46	1183,73
762,64	1290,22
762,82	1245,16
763,00	1241,07
763,18	1271,79
763,35	1196,01
763,53	1284,08
763,71	1198,06
763,89	1282,03
764,07	1271,79
764,24	1288,17
764,42	1282,03
764,60	1218,54
764,78	1257,45
764,96	1296,36
765,13	1325,04
765,31	1329,13
765,49	1312,75
765,67	1234,93
765,84	1257,45
766,02	1304,56
766,20	1269,74
766,38	1290,22
766,56	1251,31
766,73	1200,11
766,91	1312,75
767,09	1230,83
767,27	1320,94
767,44	1251,31
767,62	1224,69
767,80	1265,64
767,98	1198,06
768,15	1243,12
768,33	1247,21
768,51	1277,93
768,69	1290,22
768,87	1304,56
769,04	1339,37
769,22	1335,28
769,40	1290,22
769,58	1253,36
769,75	1279,98
769,93	1253,36
770,11	1263,60
770,28	1345,52
770,46	1239,02
770,64	1269,74
770,82	1279,98
770,99	1286,12
771,17	1273,84
771,35	1292,27
771,53	1259,50
771,70	1273,84
771,88	1253,36
772,06	1220,59
772,23	1224,69
772,41	1257,45
772,59	1247,21
772,77	1224,69
772,94	1271,79
773,12	1265,64
773,30	1243,12
773,47	1300,46
773,65	1275,88
773,83	1316,84
774,01	1298,41
774,18	1253,36
774,36	1247,21
774,54	1218,54
774,71	1228,78
774,89	1259,50
775,07	1247,21
775,24	1312,75
775,42	1292,27
775,60	1241,07
775,78	1298,41
775,95	1275,88
776,13	1308,65
776,31	1265,64
776,48	1253,36
776,66	1196,01
776,84	1253,36
777,01	1296,36
777,19	1314,80
777,37	1320,94
777,54	1294,32
777,72	1251,31
777,90	1245,16
778,07	1249,26
778,25	1265,64
778,43	1230,83
778,60	1255,40
778,78	1253,36
778,96	1327,08
779,13	1279,98
779,31	1263,60
779,49	1224,69
779,66	1271,79
779,84	1226,73
780,01	1261,55
780,19	1204,21
780,37	1357,80
780,54	1318,89
780,72	1300,46
780,90	1257,45
781,07	1267,69
781,25	1300,46
781,43	1226,73
781,60	1228,78
781,78	1380,33
781,95	1222,64
782,13	1288,17
782,31	1239,02
782,48	1290,22
782,66	1259,50
782,83	1273,84
783,01	1265,64
783,19	1239,02
783,36	1243,12
783,54	1390,57
783,72	1277,93
783,89	1275,88
784,07	1273,84
784,24	1306,60
784,42	1189,87
784,60	1239,02
784,77	1236,97
784,95	1245,16
785,12	1230,83
785,30	1267,69
785,47	1292,27
785,65	1218,54
785,83	1296,36
786,00	1286,12
786,18	1339,37
786,35	1247,21
786,53	1239,02
786,71	1265,64
786,88	1282,03
787,06	1265,64
787,23	1255,40
787,41	1234,93
787,58	1267,69
787,76	1288,17
787,94	1169,39
788,11	1261,55
788,29	1320,94
788,46	1263,60
788,64	1290,22
788,81	1226,73
788,99	1259,50
789,16	1329,13
789,34	1247,21
789,52	1259,50
789,69	1249,26
789,87	1275,88
790,04	1265,64
790,22	1312,75
790,39	1230,83
790,57	1294,32
790,74	1241,07
790,92	1232,88
791,09	1314,80
791,27	1243,12
791,44	1284,08
791,62	1222,64
791,79	1224,69
791,97	1234,93
792,15	1316,84
792,32	1290,22
792,50	1208,30
792,67	1269,74
792,85	1234,93
793,02	1234,93
793,20	1251,31
793,37	1267,69
793,55	1318,89
793,72	1306,60
793,90	1257,45
794,07	1232,88
794,25	1236,97
794,42	1204,21
794,60	1243,12
794,77	1314,80
794,95	1230,83
795,12	1308,65
795,30	1224,69
795,47	1269,74
795,65	1351,66
795,82	1228,78
796,00	1282,03
796,17	1286,12
796,34	1249,26
796,52	1267,69
796,69	1306,60
796,87	1259,50
797,04	1294,32
797,22	1259,50
797,39	1228,78
797,57	1257,45
797,74	1249,26
797,92	1308,65
798,09	1183,73
798,27	1349,61
798,44	1304,56
798,62	1308,65
798,79	1259,50
798,96	1230,83
799,14	1234,93
799,31	1320,94
799,49	1208,30
799,66	1200,11
799,84	1253,36
800,01	1253,36
800,19	1241,07
800,36	1271,79
800,53	1241,07
800,71	1314,80
800,88	1300,46
801,06	1181,68
801,23	1314,80
801,41	1232,88
801,58	1284,08
801,75	1243,12
801,93	1224,69
802,10	1265,64
802,28	1269,74
802,45	1261,55
802,63	1265,64
802,80	1253,36
802,97	1277,93
803,15	1288,17
803,32	1269,74
803,50	1234,93
803,67	1204,21
803,84	1249,26
804,02	1179,63
804,19	1288,17
804,37	1263,60
804,54	1288,17
804,71	1318,89
804,89	1230,83
805,06	1277,93
805,24	1259,50
805,41	1198,06
805,58	1282,03
805,76	1253,36
805,93	1234,93
806,10	1230,83
806,28	1228,78
806,45	1243,12
806,63	1298,41
806,80	1230,83
806,97	1222,64
807,15	1353,71
807,32	1251,31
807,49	1333,23
807,67	1228,78
807,84	1259,50
808,01	1277,93
808,19	1306,60
808,36	1275,88
808,54	1241,07
808,71	1253,36
808,88	1284,08
809,06	1275,88
809,23	1255,40
809,40	1284,08
809,58	1251,31
809,75	1277,93
809,92	1255,40
810,10	1282,03
810,27	1247,21
810,44	1273,84
810,62	1265,64
810,79	1267,69
810,96	1306,60
811,14	1261,55
811,31	1316,84
811,48	1228,78
811,66	1263,60
811,83	1269,74
812,00	1200,11
812,18	1265,64
812,35	1302,51
812,52	1249,26
812,69	1294,32
812,87	1210,35
813,04	1222,64
813,21	1265,64
813,39	1273,84
813,56	1263,60
813,73	1269,74
813,91	1267,69
814,08	1234,93
814,25	1259,50
814,42	1241,07
814,60	1245,16
814,77	1316,84
814,94	1265,64
815,12	1275,88
815,29	1298,41
815,46	1247,21
815,63	1247,21
815,81	1286,12
815,98	1200,11
816,15	1255,40
816,33	1288,17
816,50	1239,02
816,67	1251,31
816,84	1318,89
817,02	1290,22
817,19	1273,84
817,36	1273,84
817,53	1243,12
817,71	1226,73
817,88	1300,46
818,05	1284,08
818,22	1314,80
818,40	1298,41
818,57	1230,83
818,74	1284,08
818,91	1282,03
819,09	1353,71
819,26	1257,45
819,43	1316,84
819,60	1208,30
819,78	1286,12
819,95	1187,82
820,12	1325,04
820,29	1255,40
820,47	1288,17
820,64	1335,28
820,81	1298,41
820,98	1218,54
821,15	1267,69
821,33	1267,69
821,50	1273,84
821,67	1277,93
821,84	1308,65
822,02	1198,06
822,19	1306,60
822,36	1245,16
822,53	1263,60
822,70	1249,26
822,88	1282,03
823,05	1300,46
823,22	1308,65
823,39	1234,93
823,56	1241,07
823,74	1290,22
823,91	1173,49
824,08	1224,69
824,25	1251,31
824,42	1239,02
824,60	1322,99
824,77	1224,69
824,94	1222,64
825,11	1271,79
825,28	1218,54
825,45	1177,58
825,63	1265,64
825,80	1312,75
825,97	1187,82
826,14	1236,97
826,31	1257,45
826,48	1265,64
826,66	1243,12
826,83	1230,83
827,00	1288,17
827,17	1263,60
827,34	1279,98
827,51	1208,30
827,69	1173,49
827,86	1343,47
828,03	1312,75
828,20	1228,78
828,37	1327,08
828,54	1271,79
828,71	1253,36
828,89	1284,08
829,06	1202,16
829,23	1234,93
829,40	1220,59
829,57	1263,60
829,74	1234,93
829,91	1312,75
830,09	1318,89
830,26	1284,08
830,43	1277,93
830,60	1288,17
830,77	1148,91
830,94	1255,40
831,11	1224,69
831,28	1269,74
831,46	1222,64
831,63	1300,46
831,80	1318,89
831,97	1253,36
832,14	1249,26
832,31	1337,32
832,48	1247,21
832,65	1271,79
832,82	1294,32
832,99	1306,60
833,17	1302,51
833,34	1275,88
833,51	1257,45
833,68	1310,70
833,85	1314,80
834,02	1253,36
834,19	1241,07
834,36	1196,01
834,53	1263,60
834,70	1329,13
834,87	1284,08
835,04	1265,64
835,22	1245,16
835,39	1196,01
835,56	1310,70
835,73	1226,73
835,90	1234,93
836,07	1312,75
836,24	1241,07
836,41	1214,45
836,58	1191,92
836,75	1175,53
836,92	1286,12
837,09	1222,64
837,26	1277,93
837,43	1331,18
837,60	1271,79
837,77	1279,98
837,94	1210,35
838,12	1296,36
838,29	1284,08
838,46	1263,60
838,63	1200,11
838,80	1318,89
838,97	1304,56
839,14	1269,74
839,31	1288,17
839,48	1310,70
839,65	1271,79
839,82	1302,51
839,99	1265,64
840,16	1279,98
840,33	1239,02
840,50	1327,08
840,67	1189,87
840,84	1193,97
841,01	1255,40
841,18	1335,28
841,35	1265,64
841,52	1308,65
841,69	1296,36
841,86	1335,28
842,03	1251,31
842,20	1308,65
842,37	1247,21
842,54	1296,36
842,71	1329,13
842,88	1267,69
843,05	1255,40
843,22	1273,84
843,39	1292,27
843,56	1282,03
843,73	1243,12
843,90	1271,79
844,07	1249,26
844,24	1312,75
844,41	1234,93
844,58	1304,56
844,75	1271,79
844,92	1261,55
845,09	1239,02
845,26	1314,80
845,43	1208,30
845,60	1275,88
845,77	1218,54
845,94	1216,49
846,10	1302,51
846,27	1224,69
846,44	1261,55
846,61	1249,26
846,78	1232,88
846,95	1300,46
847,12	1263,60
847,29	1230,83
847,46	1306,60
847,63	1282,03
847,80	1286,12
847,97	1269,74
848,14	1236,97
848,31	1179,63
848,48	1259,50
848,65	1308,65
848,82	1306,60
848,98	1353,71
849,15	1310,70
849,32	1282,03
849,49	1257,45
849,66	1292,27
849,83	1241,07
850,00	1265,64
850,17	1296,36
850,34	1255,40
850,51	1290,22
850,68	1296,36
850,85	1202,16
851,01	1333,23
851,18	1198,06
851,35	1308,65
851,52	1282,03
851,69	1292,27
851,86	1214,45
852,03	1232,88
852,20	1243,12
852,37	1265,64
852,53	1232,88
852,70	1284,08
852,87	1210,35
853,04	1251,31
853,21	1325,04
853,38	1341,42
853,55	1322,99
853,72	1220,59
853,89	1175,53
854,05	1296,36
854,22	1253,36
854,39	1300,46
854,56	1331,18
854,73	1325,04
854,90	1257,45
855,07	1298,41
855,23	1255,40
855,40	1241,07
855,57	1284,08
855,74	1208,30
855,91	1257,45
856,08	1245,16
856,25	1181,68
856,41	1345,52
856,58	1263,60
856,75	1273,84
856,92	1187,82
857,09	1294,32
857,26	1243,12
857,42	1275,88
857,59	1282,03
857,76	1279,98
857,93	1290,22
858,10	1257,45
858,27	1329,13
858,43	1224,69
858,60	1304,56
858,77	1271,79
858,94	1316,84
859,11	1214,45
859,27	1286,12
859,44	1310,70
859,61	1220,59
859,78	1273,84
859,95	1253,36
860,12	1249,26
860,28	1255,40
860,45	1218,54
860,62	1204,21
860,79	1306,60
860,95	1241,07
861,12	1288,17
861,29	1241,07
861,46	1271,79
861,63	1257,45
861,79	1290,22
861,96	1243,12
862,13	1243,12
862,30	1230,83
862,47	1212,40
862,63	1343,47
862,80	1271,79
862,97	1249,26
863,14	1294,32
863,30	1243,12
863,47	1298,41
863,64	1282,03
863,81	1282,03
863,97	1271,79
864,14	1325,04
864,31	1267,69
864,48	1282,03
864,65	1282,03
864,81	1288,17
864,98	1322,99
865,15	1228,78
865,32	1259,50
865,48	1269,74
865,65	1243,12
865,82	1296,36
865,98	1212,40
866,15	1243,12
866,32	1239,02
866,49	1275,88
866,65	1329,13
866,82	1198,06
866,99	1312,75
867,16	1210,35
867,32	1265,64
867,49	1300,46
867,66	1261,55
867,83	1208,30
867,99	1286,12
868,16	1290,22
868,33	1288,17
868,49	1269,74
868,66	1304,56
868,83	1279,98
868,99	1290,22
869,16	1239,02
869,33	1247,21
869,50	1253,36
869,66	1337,32
869,83	1275,88
870,00	1302,51
870,16	1275,88
870,33	1290,22
870,50	1269,74
870,66	1249,26
870,83	1277,93
871,00	1275,88
871,17	1265,64
871,33	1245,16
871,50	1288,17
871,67	1306,60
871,83	1220,59
872,00	1292,27
872,17	1282,03
872,33	1267,69
872,50	1239,02
872,67	1339,37
872,83	1279,98
873,00	1222,64
873,17	1282,03
873,33	1220,59
873,50	1290,22
873,67	1265,64
873,83	1302,51
874,00	1241,07
874,16	1322,99
874,33	1277,93
874,50	1263,60
874,66	1277,93
874,83	1296,36
875,00	1288,17
875,16	1343,47
875,33	1224,69
875,50	1302,51
875,66	1259,50
875,83	1312,75
875,99	1320,94
876,16	1290,22
876,33	1267,69
876,49	1226,73
876,66	1259,50
876,83	1304,56
876,99	1208,30
877,16	1327,08
877,32	1288,17
877,49	1257,45
877,66	1232,88
877,82	1327,08
877,99	1239,02
878,15	1241,07
878,32	1253,36
878,49	1228,78
878,65	1261,55
878,82	1259,50
878,98	1228,78
879,15	1347,56
879,32	1306,60
879,48	1286,12
879,65	1357,80
879,81	1275,88
879,98	1198,06
880,15	1284,08
880,31	1273,84
880,48	1255,40
880,64	1290,22
880,81	1253,36
880,97	1290,22
881,14	1269,74
881,31	1216,49
881,47	1265,64
881,64	1306,60
881,80	1349,61
881,97	1259,50
882,13	1198,06
882,30	1249,26
882,47	1271,79
882,63	1318,89
882,80	1259,50
882,96	1271,79
883,13	1232,88
883,29	1257,45
883,46	1230,83
883,62	1300,46
883,79	1247,21
883,95	1271,79
884,12	1296,36
884,29	1212,40
884,45	1245,16
884,62	1300,46
884,78	1292,27
884,95	1247,21
885,11	1314,80
885,28	1314,80
885,44	1181,68
885,61	1306,60
885,77	1247,21
885,94	1241,07
886,10	1212,40
886,27	1282,03
886,43	1271,79
886,60	1277,93
886,76	1220,59
886,93	1224,69
887,09	1306,60
887,26	1279,98
887,42	1208,30
887,59	1308,65
887,75	1257,45
887,92	1296,36
888,08	1306,60
888,25	1257,45
888,41	1288,17
888,58	1228,78
888,74	1267,69
888,91	1175,53
>>>>>End Processed Spectral Data<<<<<
