SpectraSuite Data File
++++++++++++++++++++++++++++++++++++
Date: Sun Apr 03 19:55:54 CEST 2016
User: root
Dark Spectrum Present: No
Reference Spectrum Present: No
Number of Sampled Component Spectra: 1
Spectrometers: USB4C02835
Integration Time (usec): 10000 (USB4C02835)
Spectra Averaged: 1 (USB4C02835)
Boxcar Smoothing: 0 (USB4C02835)
Correct for Electrical Dark: No (USB4C02835)
Strobe/Lamp Enabled: No (USB4C02835)
Correct for Detector Non-linearity: No (USB4C02835)
Correct for Stray Light: No (USB4C02835)
Number of Pixels in Processed Spectrum: 3648
>>>>>Begin Processed Spectral Data<<<<<
177,47	1241,07
177,69	1241,07
177,91	1241,07
178,13	1298,41
178,36	1265,64
178,58	1300,46
178,80	1226,73
179,02	1224,69
179,24	1300,46
179,46	1259,50
179,68	1279,98
179,90	1253,36
180,13	1241,07
180,35	1259,50
180,57	1234,93
180,79	1284,08
181,01	1314,80
181,23	1224,69
181,45	1245,16
181,67	1263,60
181,90	1261,55
182,12	1279,98
182,34	1271,79
182,56	1230,83
182,78	1198,06
183,00	1355,76
183,22	1304,56
183,44	1300,46
183,66	1292,27
183,89	1288,17
184,11	1290,22
184,33	1288,17
184,55	1234,93
184,77	1294,32
184,99	1245,16
185,21	1212,40
185,43	1312,75
185,65	1290,22
185,87	1198,06
186,10	1249,26
186,32	1245,16
186,54	1265,64
186,76	1316,84
186,98	1282,03
187,20	1216,49
187,42	1271,79
187,64	1302,51
187,86	1243,12
188,08	1286,12
188,30	1228,78
188,52	1333,23
188,75	1300,46
188,97	1236,97
189,19	1239,02
189,41	1257,45
189,63	1282,03
189,85	1269,74
190,07	1273,84
190,29	1243,12
190,51	1257,45
190,73	1290,22
190,95	1253,36
191,17	1314,80
191,39	1284,08
191,61	1296,36
191,84	1249,26
192,06	1259,50
192,28	1232,88
192,50	1277,93
192,72	1312,75
192,94	1288,17
193,16	1341,42
193,38	1298,41
193,60	1230,83
193,82	1261,55
194,04	1312,75
194,26	1279,98
194,48	1296,36
194,70	1345,52
194,92	1255,40
195,14	1200,11
195,36	1282,03
195,58	1273,84
195,80	1239,02
196,02	1259,50
196,24	1202,16
196,46	1292,27
196,69	1255,40
196,91	1288,17
197,13	1284,08
197,35	1261,55
197,57	1275,88
197,79	1247,21
198,01	1247,21
198,23	1282,03
198,45	1265,64
198,67	1253,36
198,89	1249,26
199,11	1282,03
199,33	1306,60
199,55	1232,88
199,77	1243,12
199,99	1325,04
200,21	1290,22
200,43	1331,18
200,65	1320,94
200,87	1304,56
201,09	1308,65
201,31	1243,12
201,53	1247,21
201,75	1327,08
201,97	1183,73
202,19	1322,99
202,41	1298,41
202,63	1232,88
202,85	1249,26
203,07	1279,98
203,29	1212,40
203,51	1267,69
203,73	1286,12
203,95	1245,16
204,17	1224,69
204,39	1304,56
204,61	1318,89
204,83	1220,59
205,05	1247,21
205,27	1271,79
205,49	1304,56
205,71	1345,52
205,93	1261,55
206,15	1335,28
206,37	1292,27
206,59	1183,73
206,81	1239,02
207,03	1316,84
207,25	1261,55
207,47	1292,27
207,69	1298,41
207,91	1284,08
208,13	1251,31
208,34	1234,93
208,56	1236,97
208,78	1265,64
209,00	1265,64
209,22	1265,64
209,44	1234,93
209,66	1239,02
209,88	1275,88
210,10	1300,46
210,32	1386,47
210,54	1212,40
210,76	1241,07
210,98	1193,97
211,20	1210,35
211,42	1279,98
211,64	1308,65
211,86	1292,27
212,08	1267,69
212,30	1269,74
212,52	1259,50
212,74	1347,56
212,96	1202,16
213,17	1345,52
213,39	1284,08
213,61	1259,50
213,83	1202,16
214,05	1279,98
214,27	1290,22
214,49	1273,84
214,71	1230,83
214,93	1239,02
215,15	1267,69
215,37	1275,88
215,59	1257,45
215,81	1234,93
216,03	1177,58
216,24	1243,12
216,46	1189,87
216,68	1210,35
216,90	1271,79
217,12	1173,49
217,34	1187,82
217,56	1232,88
217,78	1284,08
218,00	1302,51
218,22	1271,79
218,44	1363,95
218,66	1327,08
218,87	1288,17
219,09	1253,36
219,31	1314,80
219,53	1228,78
219,75	1277,93
219,97	1206,25
220,19	1271,79
220,41	1288,17
220,63	1243,12
220,85	1302,51
221,06	1298,41
221,28	1306,60
221,50	1241,07
221,72	1310,70
221,94	1228,78
222,16	1261,55
222,38	1277,93
222,60	1241,07
222,82	1302,51
223,03	1257,45
223,25	1241,07
223,47	1304,56
223,69	1265,64
223,91	1292,27
224,13	1263,60
224,35	1232,88
224,57	1290,22
224,78	1298,41
225,00	1304,56
225,22	1288,17
225,44	1286,12
225,66	1275,88
225,88	1249,26
226,10	1304,56
226,32	1298,41
226,53	1259,50
226,75	1282,03
226,97	1279,98
227,19	1314,80
227,41	1247,21
227,63	1302,51
227,85	1275,88
228,06	1261,55
228,28	1212,40
228,50	1263,60
228,72	1282,03
228,94	1249,26
229,16	1345,52
229,37	1269,74
229,59	1265,64
229,81	1292,27
230,03	1275,88
230,25	1267,69
230,47	1241,07
230,69	1345,52
230,90	1171,44
231,12	1314,80
231,34	1208,30
231,56	1259,50
231,78	1210,35
232,00	1302,51
232,21	1298,41
232,43	1286,12
232,65	1226,73
232,87	1314,80
233,09	1322,99
233,30	1247,21
233,52	1228,78
233,74	1249,26
233,96	1335,28
234,18	1236,97
234,40	1241,07
234,61	1271,79
234,83	1212,40
235,05	1284,08
235,27	1273,84
235,49	1347,56
235,70	1277,93
235,92	1329,13
236,14	1263,60
236,36	1226,73
236,58	1247,21
236,79	1245,16
237,01	1216,49
237,23	1247,21
237,45	1277,93
237,67	1300,46
237,88	1234,93
238,10	1239,02
238,32	1208,30
238,54	1206,25
238,76	1265,64
238,97	1257,45
239,19	1241,07
239,41	1263,60
239,63	1255,40
239,85	1304,56
240,06	1249,26
240,28	1372,14
240,50	1290,22
240,72	1239,02
240,93	1282,03
241,15	1288,17
241,37	1275,88
241,59	1200,11
241,81	1269,74
242,02	1269,74
242,24	1314,80
242,46	1265,64
242,68	1267,69
242,89	1245,16
243,11	1288,17
243,33	1298,41
243,55	1249,26
243,76	1269,74
243,98	1290,22
244,20	1253,36
244,42	1241,07
244,64	1206,25
244,85	1257,45
245,07	1232,88
245,29	1271,79
245,51	1251,31
245,72	1298,41
245,94	1392,62
246,16	1259,50
246,38	1308,65
246,59	1251,31
246,81	1271,79
247,03	1302,51
247,24	1279,98
247,46	1226,73
247,68	1312,75
247,90	1302,51
248,11	1294,32
248,33	1245,16
248,55	1273,84
248,77	1249,26
248,98	1327,08
249,20	1265,64
249,42	1230,83
249,64	1267,69
249,85	1265,64
250,07	1271,79
250,29	1224,69
250,50	1304,56
250,72	1318,89
250,94	1265,64
251,16	1306,60
251,37	1214,45
251,59	1236,97
251,81	1218,54
252,02	1202,16
252,24	1191,92
252,46	1253,36
252,68	1310,70
252,89	1247,21
253,11	1228,78
253,33	1339,37
253,54	1222,64
253,76	1241,07
253,98	1167,34
254,20	1355,76
254,41	1267,69
254,63	1335,28
254,85	1335,28
255,06	1337,32
255,28	1261,55
255,50	1279,98
255,71	1284,08
255,93	1372,14
256,15	1288,17
256,36	1298,41
256,58	1306,60
256,80	1284,08
257,02	1251,31
257,23	1243,12
257,45	1259,50
257,67	1296,36
257,88	1251,31
258,10	1241,07
258,32	1302,51
258,53	1228,78
258,75	1224,69
258,97	1216,49
259,18	1277,93
259,40	1302,51
259,62	1314,80
259,83	1279,98
260,05	1310,70
260,27	1286,12
260,48	1167,34
260,70	1253,36
260,92	1257,45
261,13	1279,98
261,35	1298,41
261,57	1259,50
261,78	1228,78
262,00	1208,30
262,22	1245,16
262,43	1314,80
262,65	1286,12
262,86	1302,51
263,08	1265,64
263,30	1263,60
263,51	1261,55
263,73	1300,46
263,95	1294,32
264,16	1263,60
264,38	1261,55
264,60	1275,88
264,81	1232,88
265,03	1290,22
265,25	1253,36
265,46	1239,02
265,68	1292,27
265,89	1277,93
266,11	1279,98
266,33	1200,11
266,54	1259,50
266,76	1261,55
266,98	1265,64
267,19	1294,32
267,41	1302,51
267,62	1288,17
267,84	1255,40
268,06	1271,79
268,27	1210,35
268,49	1179,63
268,70	1308,65
268,92	1277,93
269,14	1167,34
269,35	1277,93
269,57	1255,40
269,79	1267,69
270,00	1265,64
270,22	1236,97
270,43	1306,60
270,65	1218,54
270,87	1210,35
271,08	1271,79
271,30	1253,36
271,51	1345,52
271,73	1320,94
271,95	1273,84
272,16	1257,45
272,38	1208,30
272,59	1245,16
272,81	1232,88
273,02	1275,88
273,24	1234,93
273,46	1214,45
273,67	1263,60
273,89	1298,41
274,10	1251,31
274,32	1249,26
274,54	1282,03
274,75	1210,35
274,97	1320,94
275,18	1220,59
275,40	1310,70
275,61	1206,25
275,83	1251,31
276,05	1245,16
276,26	1275,88
276,48	1236,97
276,69	1249,26
276,91	1308,65
277,12	1372,14
277,34	1275,88
277,55	1314,80
277,77	1282,03
277,99	1267,69
278,20	1171,44
278,42	1269,74
278,63	1284,08
278,85	1253,36
279,06	1208,30
279,28	1265,64
279,49	1290,22
279,71	1294,32
279,93	1228,78
280,14	1230,83
280,36	1333,23
280,57	1308,65
280,79	1245,16
281,00	1245,16
281,22	1273,84
281,43	1263,60
281,65	1216,49
281,86	1316,84
282,08	1179,63
282,29	1300,46
282,51	1232,88
282,73	1255,40
282,94	1294,32
283,16	1232,88
283,37	1212,40
283,59	1294,32
283,80	1261,55
284,02	1271,79
284,23	1288,17
284,45	1320,94
284,66	1290,22
284,88	1202,16
285,09	1273,84
285,31	1318,89
285,52	1318,89
285,74	1208,30
285,95	1292,27
286,17	1259,50
286,38	1257,45
286,60	1183,73
286,81	1230,83
287,03	1284,08
287,24	1241,07
287,46	1239,02
287,67	1271,79
287,89	1282,03
288,10	1275,88
288,32	1339,37
288,53	1245,16
288,75	1259,50
288,96	1247,21
289,18	1232,88
289,39	1296,36
289,61	1288,17
289,82	1239,02
290,04	1228,78
290,25	1259,50
290,47	1273,84
290,68	1247,21
290,90	1325,04
291,11	1302,51
291,33	1249,26
291,54	1265,64
291,76	1273,84
291,97	1200,11
292,18	1286,12
292,40	1304,56
292,61	1222,64
292,83	1300,46
293,04	1224,69
293,26	1275,88
293,47	1236,97
293,69	1306,60
293,90	1374,19
294,12	1288,17
294,33	1257,45
294,55	1230,83
294,76	1335,28
294,97	1351,66
295,19	1269,74
295,40	1294,32
295,62	1320,94
295,83	1236,97
296,05	1384,43
296,26	1249,26
296,48	1271,79
296,69	1296,36
296,90	1273,84
297,12	1265,64
297,33	1241,07
297,55	1243,12
297,76	1259,50
297,98	1304,56
298,19	1257,45
298,41	1228,78
298,62	1173,49
298,83	1234,93
299,05	1263,60
299,26	1277,93
299,48	1353,71
299,69	1275,88
299,90	1318,89
300,12	1251,31
300,33	1224,69
300,55	1288,17
300,76	1316,84
300,98	1273,84
301,19	1253,36
301,40	1249,26
301,62	1239,02
301,83	1228,78
302,05	1286,12
302,26	1247,21
302,47	1255,40
302,69	1277,93
302,90	1302,51
303,12	1243,12
303,33	1247,21
303,54	1257,45
303,76	1347,56
303,97	1269,74
304,19	1298,41
304,40	1306,60
304,61	1261,55
304,83	1224,69
305,04	1271,79
305,26	1294,32
305,47	1155,05
305,68	1202,16
305,90	1241,07
306,11	1288,17
306,33	1228,78
306,54	1306,60
306,75	1275,88
306,97	1265,64
307,18	1290,22
307,39	1269,74
307,61	1312,75
307,82	1234,93
308,04	1234,93
308,25	1271,79
308,46	1353,71
308,68	1249,26
308,89	1282,03
309,10	1269,74
309,32	1325,04
309,53	1269,74
309,74	1271,79
309,96	1306,60
310,17	1224,69
310,39	1253,36
310,60	1267,69
310,81	1271,79
311,03	1312,75
311,24	1239,02
311,45	1271,79
311,67	1298,41
311,88	1277,93
312,09	1288,17
312,31	1232,88
312,52	1271,79
312,73	1273,84
312,95	1294,32
313,16	1331,18
313,37	1275,88
313,59	1292,27
313,80	1277,93
314,01	1322,99
314,23	1165,29
314,44	1245,16
314,65	1273,84
314,87	1308,65
315,08	1267,69
315,29	1318,89
315,51	1259,50
315,72	1304,56
315,93	1259,50
316,15	1269,74
316,36	1228,78
316,57	1294,32
316,79	1198,06
317,00	1263,60
317,21	1273,84
317,43	1263,60
317,64	1249,26
317,85	1230,83
318,07	1337,32
318,28	1296,36
318,49	1341,42
318,70	1331,18
318,92	1294,32
319,13	1273,84
319,34	1220,59
319,56	1261,55
319,77	1196,01
319,98	1181,68
320,20	1245,16
320,41	1263,60
320,62	1273,84
320,83	1288,17
321,05	1239,02
321,26	1286,12
321,47	1185,77
321,69	1269,74
321,90	1294,32
322,11	1312,75
322,32	1212,40
322,54	1290,22
322,75	1247,21
322,96	1257,45
323,18	1267,69
323,39	1171,44
323,60	1236,97
323,81	1239,02
324,03	1294,32
324,24	1310,70
324,45	1234,93
324,66	1239,02
324,88	1312,75
325,09	1308,65
325,30	1265,64
325,52	1282,03
325,73	1269,74
325,94	1273,84
326,15	1193,97
326,37	1304,56
326,58	1196,01
326,79	1304,56
327,00	1302,51
327,22	1314,80
327,43	1245,16
327,64	1298,41
327,85	1308,65
328,07	1288,17
328,28	1257,45
328,49	1329,13
328,70	1249,26
328,92	1290,22
329,13	1253,36
329,34	1245,16
329,55	1253,36
329,76	1241,07
329,98	1236,97
330,19	1275,88
330,40	1310,70
330,61	1308,65
330,83	1374,19
331,04	1286,12
331,25	1249,26
331,46	1222,64
331,68	1212,40
331,89	1320,94
332,10	1230,83
332,31	1288,17
332,52	1269,74
332,74	1263,60
332,95	1222,64
333,16	1245,16
333,37	1288,17
333,58	1245,16
333,80	1351,66
334,01	1257,45
334,22	1263,60
334,43	1294,32
334,64	1292,27
334,86	1175,53
335,07	1277,93
335,28	1312,75
335,49	1220,59
335,70	1275,88
335,92	1228,78
336,13	1304,56
336,34	1204,21
336,55	1312,75
336,76	1314,80
336,98	1259,50
337,19	1247,21
337,40	1331,18
337,61	1337,32
337,82	1218,54
338,04	1239,02
338,25	1267,69
338,46	1284,08
338,67	1243,12
338,88	1243,12
339,09	1298,41
339,31	1277,93
339,52	1312,75
339,73	1265,64
339,94	1224,69
340,15	1282,03
340,36	1228,78
340,58	1265,64
340,79	1226,73
341,00	1341,42
341,21	1245,16
341,42	1314,80
341,63	1279,98
341,85	1320,94
342,06	1282,03
342,27	1177,58
342,48	1288,17
342,69	1271,79
342,90	1298,41
343,12	1282,03
343,33	1275,88
343,54	1325,04
343,75	1277,93
343,96	1286,12
344,17	1232,88
344,38	1288,17
344,60	1239,02
344,81	1218,54
345,02	1234,93
345,23	1251,31
345,44	1325,04
345,65	1253,36
345,86	1208,30
346,07	1236,97
346,29	1288,17
346,50	1282,03
346,71	1306,60
346,92	1267,69
347,13	1267,69
347,34	1273,84
347,55	1261,55
347,76	1245,16
347,98	1214,45
348,19	1366,00
348,40	1261,55
348,61	1191,92
348,82	1345,52
349,03	1286,12
349,24	1261,55
349,45	1198,06
349,66	1296,36
349,88	1308,65
350,09	1255,40
350,30	1181,68
350,51	1368,04
350,72	1216,49
350,93	1329,13
351,14	1253,36
351,35	1288,17
351,56	1224,69
351,77	1263,60
351,99	1355,76
352,20	1292,27
352,41	1181,68
352,62	1230,83
352,83	1257,45
353,04	1263,60
353,25	1277,93
353,46	1249,26
353,67	1263,60
353,88	1298,41
354,09	1255,40
354,30	1366,00
354,52	1310,70
354,73	1243,12
354,94	1275,88
355,15	1263,60
355,36	1329,13
355,57	1304,56
355,78	1269,74
355,99	1292,27
356,20	1300,46
356,41	1259,50
356,62	1296,36
356,83	1255,40
357,04	1261,55
357,25	1245,16
357,46	1271,79
357,68	1236,97
357,89	1273,84
358,10	1361,90
358,31	1325,04
358,52	1298,41
358,73	1284,08
358,94	1247,21
359,15	1265,64
359,36	1296,36
359,57	1226,73
359,78	1318,89
359,99	1214,45
360,20	1193,97
360,41	1220,59
360,62	1331,18
360,83	1255,40
361,04	1320,94
361,25	1257,45
361,46	1312,75
361,67	1292,27
361,88	1228,78
362,09	1335,28
362,30	1263,60
362,51	1279,98
362,72	1298,41
362,93	1241,07
363,14	1279,98
363,35	1284,08
363,56	1210,35
363,78	1208,30
363,99	1335,28
364,20	1239,02
364,41	1249,26
364,62	1282,03
364,83	1239,02
365,04	1222,64
365,25	1243,12
365,46	1277,93
365,67	1288,17
365,88	1173,49
366,09	1196,01
366,30	1226,73
366,51	1167,34
366,72	1175,53
366,93	1325,04
367,14	1300,46
367,35	1306,60
367,56	1224,69
367,77	1284,08
367,98	1273,84
368,18	1345,52
368,39	1300,46
368,60	1263,60
368,81	1226,73
369,02	1228,78
369,23	1269,74
369,44	1267,69
369,65	1255,40
369,86	1208,30
370,07	1265,64
370,28	1312,75
370,49	1302,51
370,70	1304,56
370,91	1284,08
371,12	1273,84
371,33	1314,80
371,54	1273,84
371,75	1206,25
371,96	1263,60
372,17	1271,79
372,38	1247,21
372,59	1275,88
372,80	1196,01
373,01	1181,68
373,22	1282,03
373,43	1251,31
373,64	1222,64
373,85	1243,12
374,06	1259,50
374,26	1263,60
374,47	1331,18
374,68	1325,04
374,89	1273,84
375,10	1294,32
375,31	1228,78
375,52	1255,40
375,73	1288,17
375,94	1241,07
376,15	1261,55
376,36	1286,12
376,57	1249,26
376,78	1171,44
376,99	1322,99
377,20	1296,36
377,40	1296,36
377,61	1304,56
377,82	1214,45
378,03	1273,84
378,24	1318,89
378,45	1210,35
378,66	1327,08
378,87	1224,69
379,08	1263,60
379,29	1275,88
379,50	1271,79
379,71	1253,36
379,91	1257,45
380,12	1282,03
380,33	1239,02
380,54	1255,40
380,75	1318,89
380,96	1226,73
381,17	1284,08
381,38	1318,89
381,59	1282,03
381,80	1214,45
382,00	1325,04
382,21	1325,04
382,42	1298,41
382,63	1331,18
382,84	1310,70
383,05	1271,79
383,26	1286,12
383,47	1331,18
383,68	1204,21
383,88	1202,16
384,09	1308,65
384,30	1247,21
384,51	1255,40
384,72	1275,88
384,93	1220,59
385,14	1347,56
385,35	1275,88
385,55	1259,50
385,76	1298,41
385,97	1298,41
386,18	1259,50
386,39	1265,64
386,60	1296,36
386,81	1175,53
387,02	1230,83
387,22	1243,12
387,43	1255,40
387,64	1316,84
387,85	1247,21
388,06	1222,64
388,27	1214,45
388,48	1302,51
388,68	1288,17
388,89	1259,50
389,10	1337,32
389,31	1232,88
389,52	1259,50
389,73	1257,45
389,93	1308,65
390,14	1316,84
390,35	1255,40
390,56	1255,40
390,77	1316,84
390,98	1220,59
391,18	1241,07
391,39	1232,88
391,60	1179,63
391,81	1269,74
392,02	1200,11
392,23	1249,26
392,43	1226,73
392,64	1294,32
392,85	1300,46
393,06	1206,25
393,27	1251,31
393,47	1277,93
393,68	1316,84
393,89	1345,52
394,10	1284,08
394,31	1261,55
394,52	1236,97
394,72	1269,74
394,93	1241,07
395,14	1259,50
395,35	1282,03
395,56	1302,51
395,76	1234,93
395,97	1302,51
396,18	1230,83
396,39	1273,84
396,60	1302,51
396,80	1265,64
397,01	1298,41
397,22	1322,99
397,43	1224,69
397,64	1320,94
397,84	1286,12
398,05	1257,45
398,26	1261,55
398,47	1210,35
398,67	1277,93
398,88	1284,08
399,09	1284,08
399,30	1239,02
399,51	1212,40
399,71	1206,25
399,92	1239,02
400,13	1232,88
400,34	1304,56
400,54	1191,92
400,75	1292,27
400,96	1183,73
401,17	1255,40
401,37	1288,17
401,58	1263,60
401,79	1249,26
402,00	1267,69
402,21	1273,84
402,41	1318,89
402,62	1261,55
402,83	1320,94
403,04	1269,74
403,24	1228,78
403,45	1247,21
403,66	1200,11
403,87	1300,46
404,07	1320,94
404,28	1302,51
404,49	1241,07
404,70	1271,79
404,90	1273,84
405,11	1218,54
405,32	1337,32
405,52	1159,15
405,73	1292,27
405,94	1304,56
406,15	1318,89
406,35	1249,26
406,56	1226,73
406,77	1241,07
406,98	1226,73
407,18	1290,22
407,39	1286,12
407,60	1255,40
407,80	1314,80
408,01	1239,02
408,22	1224,69
408,43	1261,55
408,63	1267,69
408,84	1243,12
409,05	1265,64
409,25	1253,36
409,46	1271,79
409,67	1284,08
409,88	1245,16
410,08	1169,39
410,29	1290,22
410,50	1251,31
410,70	1200,11
410,91	1265,64
411,12	1263,60
411,32	1230,83
411,53	1220,59
411,74	1294,32
411,95	1255,40
412,15	1298,41
412,36	1271,79
412,57	1263,60
412,77	1306,60
412,98	1284,08
413,19	1255,40
413,39	1259,50
413,60	1263,60
413,81	1249,26
414,01	1290,22
414,22	1284,08
414,43	1316,84
414,63	1243,12
414,84	1216,49
415,05	1275,88
415,25	1292,27
415,46	1255,40
415,67	1187,82
415,87	1214,45
416,08	1269,74
416,29	1290,22
416,49	1255,40
416,70	1277,93
416,91	1279,98
417,11	1249,26
417,32	1296,36
417,53	1261,55
417,73	1304,56
417,94	1304,56
418,15	1275,88
418,35	1320,94
418,56	1206,25
418,77	1296,36
418,97	1304,56
419,18	1245,16
419,38	1239,02
419,59	1216,49
419,80	1345,52
420,00	1310,70
420,21	1277,93
420,42	1265,64
420,62	1253,36
420,83	1294,32
421,04	1222,64
421,24	1236,97
421,45	1261,55
421,65	1210,35
421,86	1306,60
422,07	1239,02
422,27	1263,60
422,48	1236,97
422,69	1249,26
422,89	1255,40
423,10	1300,46
423,30	1220,59
423,51	1331,18
423,72	1294,32
423,92	1259,50
424,13	1333,23
424,33	1253,36
424,54	1269,74
424,75	1226,73
424,95	1200,11
425,16	1345,52
425,36	1306,60
425,57	1243,12
425,78	1279,98
425,98	1265,64
426,19	1306,60
426,39	1222,64
426,60	1333,23
426,81	1296,36
427,01	1232,88
427,22	1368,04
427,42	1243,12
427,63	1239,02
427,83	1316,84
428,04	1261,55
428,25	1239,02
428,45	1269,74
428,66	1273,84
428,86	1255,40
429,07	1228,78
429,28	1279,98
429,48	1288,17
429,69	1292,27
429,89	1263,60
430,10	1255,40
430,30	1312,75
430,51	1273,84
430,71	1234,93
430,92	1259,50
431,13	1243,12
431,33	1286,12
431,54	1230,83
431,74	1243,12
431,95	1273,84
432,15	1304,56
432,36	1298,41
432,56	1292,27
432,77	1155,05
432,98	1325,04
433,18	1228,78
433,39	1273,84
433,59	1259,50
433,80	1271,79
434,00	1208,30
434,21	1263,60
434,41	1239,02
434,62	1220,59
434,82	1273,84
435,03	1212,40
435,23	1255,40
435,44	1290,22
435,64	1347,56
435,85	1257,45
436,06	1273,84
436,26	1273,84
436,47	1273,84
436,67	1230,83
436,88	1183,73
437,08	1265,64
437,29	1349,61
437,49	1271,79
437,70	1312,75
437,90	1294,32
438,11	1255,40
438,31	1282,03
438,52	1249,26
438,72	1247,21
438,93	1202,16
439,13	1249,26
439,34	1277,93
439,54	1312,75
439,75	1273,84
439,95	1316,84
440,16	1249,26
440,36	1277,93
440,57	1249,26
440,77	1296,36
440,98	1226,73
441,18	1284,08
441,39	1288,17
441,59	1230,83
441,80	1292,27
442,00	1368,04
442,21	1339,37
442,41	1273,84
442,62	1253,36
442,82	1198,06
443,02	1228,78
443,23	1378,28
443,43	1271,79
443,64	1292,27
443,84	1234,93
444,05	1284,08
444,25	1239,02
444,46	1224,69
444,66	1339,37
444,87	1343,47
445,07	1325,04
445,28	1249,26
445,48	1232,88
445,69	1273,84
445,89	1310,70
446,09	1239,02
446,30	1290,22
446,50	1292,27
446,71	1224,69
446,91	1279,98
447,12	1191,92
447,32	1249,26
447,53	1212,40
447,73	1214,45
447,93	1257,45
448,14	1204,21
448,34	1224,69
448,55	1314,80
448,75	1329,13
448,96	1269,74
449,16	1335,28
449,36	1282,03
449,57	1259,50
449,77	1220,59
449,98	1290,22
450,18	1232,88
450,39	1234,93
450,59	1282,03
450,79	1310,70
451,00	1292,27
451,20	1290,22
451,41	1372,14
451,61	1220,59
451,81	1265,64
452,02	1273,84
452,22	1279,98
452,43	1241,07
452,63	1282,03
452,84	1269,74
453,04	1290,22
453,24	1255,40
453,45	1290,22
453,65	1251,31
453,86	1282,03
454,06	1308,65
454,26	1333,23
454,47	1302,51
454,67	1257,45
454,87	1239,02
455,08	1290,22
455,28	1257,45
455,49	1279,98
455,69	1222,64
455,89	1273,84
456,10	1333,23
456,30	1343,47
456,51	1312,75
456,71	1249,26
456,91	1329,13
457,12	1298,41
457,32	1263,60
457,52	1243,12
457,73	1284,08
457,93	1310,70
458,14	1277,93
458,34	1267,69
458,54	1269,74
458,75	1300,46
458,95	1251,31
459,15	1314,80
459,36	1300,46
459,56	1253,36
459,76	1288,17
459,97	1241,07
460,17	1277,93
460,37	1314,80
460,58	1263,60
460,78	1265,64
460,99	1277,93
461,19	1216,49
461,39	1306,60
461,60	1249,26
461,80	1357,80
462,00	1286,12
462,21	1267,69
462,41	1282,03
462,61	1255,40
462,82	1228,78
463,02	1267,69
463,22	1202,16
463,43	1322,99
463,63	1239,02
463,83	1345,52
464,04	1339,37
464,24	1298,41
464,44	1271,79
464,64	1261,55
464,85	1247,21
465,05	1212,40
465,25	1302,51
465,46	1329,13
465,66	1292,27
465,86	1216,49
466,07	1253,36
466,27	1290,22
466,47	1259,50
466,68	1206,25
466,88	1304,56
467,08	1251,31
467,29	1304,56
467,49	1292,27
467,69	1282,03
467,89	1241,07
468,10	1314,80
468,30	1288,17
468,50	1398,76
468,71	1359,85
468,91	1200,11
469,11	1275,88
469,31	1261,55
469,52	1245,16
469,72	1271,79
469,92	1265,64
470,13	1347,56
470,33	1302,51
470,53	1257,45
470,73	1277,93
470,94	1232,88
471,14	1279,98
471,34	1263,60
471,54	1208,30
471,75	1239,02
471,95	1251,31
472,15	1286,12
472,36	1241,07
472,56	1255,40
472,76	1261,55
472,96	1255,40
473,17	1320,94
473,37	1257,45
473,57	1343,47
473,77	1337,32
473,98	1243,12
474,18	1224,69
474,38	1349,61
474,58	1249,26
474,79	1314,80
474,99	1277,93
475,19	1314,80
475,39	1257,45
475,60	1255,40
475,80	1302,51
476,00	1316,84
476,20	1236,97
476,41	1236,97
476,61	1259,50
476,81	1296,36
477,01	1329,13
477,21	1271,79
477,42	1294,32
477,62	1253,36
477,82	1208,30
478,02	1187,82
478,23	1212,40
478,43	1241,07
478,63	1277,93
478,83	1286,12
479,03	1282,03
479,24	1251,31
479,44	1267,69
479,64	1249,26
479,84	1296,36
480,04	1282,03
480,25	1302,51
480,45	1241,07
480,65	1267,69
480,85	1241,07
481,06	1302,51
481,26	1298,41
481,46	1226,73
481,66	1251,31
481,86	1304,56
482,06	1325,04
482,27	1310,70
482,47	1279,98
482,67	1273,84
482,87	1322,99
483,07	1261,55
483,28	1249,26
483,48	1318,89
483,68	1298,41
483,88	1279,98
484,08	1263,60
484,29	1245,16
484,49	1288,17
484,69	1353,71
484,89	1298,41
485,09	1269,74
485,29	1290,22
485,50	1257,45
485,70	1214,45
485,90	1261,55
486,10	1239,02
486,30	1298,41
486,50	1284,08
486,71	1265,64
486,91	1337,32
487,11	1247,21
487,31	1216,49
487,51	1255,40
487,71	1277,93
487,91	1302,51
488,12	1265,64
488,32	1314,80
488,52	1257,45
488,72	1292,27
488,92	1298,41
489,12	1257,45
489,32	1290,22
489,53	1261,55
489,73	1263,60
489,93	1296,36
490,13	1275,88
490,33	1327,08
490,53	1288,17
490,73	1312,75
490,94	1261,55
491,14	1314,80
491,34	1331,18
491,54	1241,07
491,74	1271,79
491,94	1320,94
492,14	1230,83
492,34	1279,98
492,54	1312,75
492,75	1251,31
492,95	1322,99
493,15	1286,12
493,35	1286,12
493,55	1275,88
493,75	1234,93
493,95	1282,03
494,15	1214,45
494,35	1296,36
494,56	1210,35
494,76	1230,83
494,96	1208,30
495,16	1329,13
495,36	1234,93
495,56	1370,09
495,76	1191,92
495,96	1273,84
496,16	1257,45
496,36	1271,79
496,56	1273,84
496,77	1261,55
496,97	1292,27
497,17	1282,03
497,37	1265,64
497,57	1308,65
497,77	1290,22
497,97	1302,51
498,17	1347,56
498,37	1351,66
498,57	1277,93
498,77	1239,02
498,97	1282,03
499,17	1306,60
499,38	1304,56
499,58	1314,80
499,78	1236,97
499,98	1290,22
500,18	1341,42
500,38	1298,41
500,58	1275,88
500,78	1271,79
500,98	1310,70
501,18	1265,64
501,38	1263,60
501,58	1322,99
501,78	1261,55
501,98	1265,64
502,18	1236,97
502,38	1300,46
502,58	1290,22
502,78	1249,26
502,98	1282,03
503,18	1275,88
503,38	1265,64
503,59	1279,98
503,79	1343,47
503,99	1294,32
504,19	1271,79
504,39	1320,94
504,59	1226,73
504,79	1150,96
504,99	1314,80
505,19	1273,84
505,39	1286,12
505,59	1314,80
505,79	1284,08
505,99	1261,55
506,19	1329,13
506,39	1345,52
506,59	1228,78
506,79	1271,79
506,99	1247,21
507,19	1335,28
507,39	1257,45
507,59	1232,88
507,79	1292,27
507,99	1249,26
508,19	1331,18
508,39	1310,70
508,59	1241,07
508,79	1333,23
508,99	1314,80
509,19	1284,08
509,39	1341,42
509,59	1265,64
509,79	1271,79
509,99	1318,89
510,19	1249,26
510,39	1269,74
510,59	1314,80
510,79	1314,80
510,99	1286,12
511,19	1253,36
511,39	1253,36
511,59	1292,27
511,79	1333,23
511,99	1286,12
512,19	1341,42
512,38	1255,40
512,58	1263,60
512,78	1269,74
512,98	1236,97
513,18	1267,69
513,38	1304,56
513,58	1294,32
513,78	1296,36
513,98	1294,32
514,18	1300,46
514,38	1169,39
514,58	1302,51
514,78	1226,73
514,98	1290,22
515,18	1294,32
515,38	1304,56
515,58	1196,01
515,78	1249,26
515,98	1269,74
516,18	1325,04
516,38	1343,47
516,57	1288,17
516,77	1286,12
516,97	1269,74
517,17	1255,40
517,37	1181,68
517,57	1265,64
517,77	1327,08
517,97	1267,69
518,17	1277,93
518,37	1273,84
518,57	1329,13
518,77	1298,41
518,97	1228,78
519,16	1204,21
519,36	1247,21
519,56	1265,64
519,76	1304,56
519,96	1245,16
520,16	1241,07
520,36	1322,99
520,56	1300,46
520,76	1275,88
520,96	1241,07
521,16	1288,17
521,35	1253,36
521,55	1333,23
521,75	1228,78
521,95	1294,32
522,15	1189,87
522,35	1306,60
522,55	1292,27
522,75	1306,60
522,95	1241,07
523,14	1269,74
523,34	1191,92
523,54	1306,60
523,74	1234,93
523,94	1232,88
524,14	1224,69
524,34	1284,08
524,54	1302,51
524,73	1263,60
524,93	1392,62
525,13	1316,84
525,33	1349,61
525,53	1204,21
525,73	1218,54
525,93	1279,98
526,13	1282,03
526,32	1224,69
526,52	1314,80
526,72	1288,17
526,92	1308,65
527,12	1279,98
527,32	1253,36
527,52	1259,50
527,71	1279,98
527,91	1279,98
528,11	1331,18
528,31	1253,36
528,51	1234,93
528,71	1286,12
528,90	1243,12
529,10	1265,64
529,30	1327,08
529,50	1222,64
529,70	1312,75
529,90	1306,60
530,09	1318,89
530,29	1337,32
530,49	1282,03
530,69	1290,22
530,89	1304,56
531,09	1288,17
531,28	1257,45
531,48	1269,74
531,68	1327,08
531,88	1247,21
532,08	1282,03
532,28	1253,36
532,47	1345,52
532,67	1265,64
532,87	1275,88
533,07	1282,03
533,27	1333,23
533,46	1265,64
533,66	1318,89
533,86	1263,60
534,06	1277,93
534,26	1345,52
534,45	1214,45
534,65	1347,56
534,85	1212,40
535,05	1271,79
535,25	1312,75
535,44	1286,12
535,64	1318,89
535,84	1294,32
536,04	1329,13
536,24	1308,65
536,43	1218,54
536,63	1282,03
536,83	1257,45
537,03	1347,56
537,22	1290,22
537,42	1228,78
537,62	1300,46
537,82	1261,55
538,02	1271,79
538,21	1298,41
538,41	1314,80
538,61	1241,07
538,81	1286,12
539,00	1257,45
539,20	1243,12
539,40	1216,49
539,60	1325,04
539,79	1304,56
539,99	1255,40
540,19	1277,93
540,39	1341,42
540,58	1275,88
540,78	1359,85
540,98	1292,27
541,18	1269,74
541,37	1325,04
541,57	1234,93
541,77	1279,98
541,97	1271,79
542,16	1282,03
542,36	1296,36
542,56	1282,03
542,76	1261,55
542,95	1374,19
543,15	1253,36
543,35	1345,52
543,54	1310,70
543,74	1306,60
543,94	1306,60
544,14	1253,36
544,33	1204,21
544,53	1288,17
544,73	1263,60
544,93	1288,17
545,12	1290,22
545,32	1230,83
545,52	1220,59
545,71	1265,64
545,91	1232,88
546,11	1251,31
546,30	1271,79
546,50	1253,36
546,70	1290,22
546,90	1259,50
547,09	1306,60
547,29	1224,69
547,49	1294,32
547,68	1316,84
547,88	1247,21
548,08	1251,31
548,27	1232,88
548,47	1286,12
548,67	1249,26
548,87	1327,08
549,06	1306,60
549,26	1259,50
549,46	1335,28
549,65	1298,41
549,85	1253,36
550,05	1269,74
550,24	1259,50
550,44	1275,88
550,64	1320,94
550,83	1204,21
551,03	1286,12
551,23	1316,84
551,42	1245,16
551,62	1370,09
551,82	1298,41
552,01	1263,60
552,21	1298,41
552,41	1339,37
552,60	1347,56
552,80	1212,40
553,00	1335,28
553,19	1239,02
553,39	1292,27
553,59	1230,83
553,78	1245,16
553,98	1220,59
554,17	1314,80
554,37	1290,22
554,57	1212,40
554,76	1331,18
554,96	1386,47
555,16	1298,41
555,35	1247,21
555,55	1214,45
555,75	1265,64
555,94	1212,40
556,14	1357,80
556,33	1230,83
556,53	1312,75
556,73	1247,21
556,92	1249,26
557,12	1361,90
557,32	1257,45
557,51	1269,74
557,71	1271,79
557,90	1228,78
558,10	1292,27
558,30	1261,55
558,49	1269,74
558,69	1251,31
558,88	1245,16
559,08	1224,69
559,28	1263,60
559,47	1187,82
559,67	1230,83
559,86	1331,18
560,06	1331,18
560,26	1259,50
560,45	1351,66
560,65	1304,56
560,84	1292,27
561,04	1210,35
561,24	1290,22
561,43	1279,98
561,63	1351,66
561,82	1253,36
562,02	1245,16
562,22	1210,35
562,41	1273,84
562,61	1249,26
562,80	1286,12
563,00	1261,55
563,19	1327,08
563,39	1320,94
563,59	1230,83
563,78	1290,22
563,98	1341,42
564,17	1249,26
564,37	1312,75
564,56	1267,69
564,76	1265,64
564,96	1286,12
565,15	1198,06
565,35	1370,09
565,54	1247,21
565,74	1261,55
565,93	1245,16
566,13	1232,88
566,32	1247,21
566,52	1284,08
566,71	1286,12
566,91	1335,28
567,11	1329,13
567,30	1228,78
567,50	1236,97
567,69	1329,13
567,89	1316,84
568,08	1222,64
568,28	1279,98
568,47	1269,74
568,67	1331,18
568,86	1310,70
569,06	1314,80
569,25	1247,21
569,45	1230,83
569,64	1277,93
569,84	1345,52
570,04	1267,69
570,23	1265,64
570,43	1320,94
570,62	1284,08
570,82	1247,21
571,01	1239,02
571,21	1325,04
571,40	1263,60
571,60	1298,41
571,79	1257,45
571,99	1271,79
572,18	1259,50
572,38	1359,85
572,57	1257,45
572,77	1288,17
572,96	1247,21
573,16	1273,84
573,35	1232,88
573,55	1320,94
573,74	1247,21
573,94	1331,18
574,13	1277,93
574,33	1269,74
574,52	1263,60
574,71	1241,07
574,91	1300,46
575,10	1298,41
575,30	1247,21
575,49	1363,95
575,69	1263,60
575,88	1314,80
576,08	1255,40
576,27	1222,64
576,47	1273,84
576,66	1269,74
576,86	1269,74
577,05	1325,04
577,25	1267,69
577,44	1222,64
577,64	1255,40
577,83	1288,17
578,02	1181,68
578,22	1357,80
578,41	1247,21
578,61	1202,16
578,80	1282,03
579,00	1304,56
579,19	1290,22
579,39	1275,88
579,58	1243,12
579,77	1306,60
579,97	1271,79
580,16	1265,64
580,36	1298,41
580,55	1279,98
580,75	1282,03
580,94	1267,69
581,13	1249,26
581,33	1218,54
581,52	1294,32
581,72	1261,55
581,91	1318,89
582,11	1302,51
582,30	1298,41
582,49	1292,27
582,69	1245,16
582,88	1263,60
583,08	1312,75
583,27	1279,98
583,47	1322,99
583,66	1251,31
583,85	1320,94
584,05	1320,94
584,24	1228,78
584,44	1290,22
584,63	1228,78
584,82	1265,64
585,02	1331,18
585,21	1269,74
585,41	1284,08
585,60	1304,56
585,79	1306,60
585,99	1228,78
586,18	1208,30
586,37	1226,73
586,57	1327,08
586,76	1327,08
586,96	1273,84
587,15	1259,50
587,34	1294,32
587,54	1273,84
587,73	1200,11
587,93	1298,41
588,12	1279,98
588,31	1347,56
588,51	1243,12
588,70	1282,03
588,89	1259,50
589,09	1261,55
589,28	1322,99
589,47	1296,36
589,67	1277,93
589,86	1286,12
590,06	1253,36
590,25	1331,18
590,44	1288,17
590,64	1322,99
590,83	1273,84
591,02	1298,41
591,22	1255,40
591,41	1286,12
591,60	1290,22
591,80	1298,41
591,99	1269,74
592,18	1232,88
592,38	1265,64
592,57	1284,08
592,76	1335,28
592,96	1347,56
593,15	1212,40
593,34	1304,56
593,54	1255,40
593,73	1292,27
593,92	1198,06
594,12	1292,27
594,31	1284,08
594,50	1253,36
594,70	1312,75
594,89	1269,74
595,08	1288,17
595,28	1226,73
595,47	1232,88
595,66	1314,80
595,86	1261,55
596,05	1298,41
596,24	1249,26
596,43	1320,94
596,63	1298,41
596,82	1290,22
597,01	1273,84
597,21	1337,32
597,40	1267,69
597,59	1273,84
597,79	1312,75
597,98	1318,89
598,17	1339,37
598,36	1239,02
598,56	1335,28
598,75	1308,65
598,94	1288,17
599,14	1263,60
599,33	1298,41
599,52	1286,12
599,71	1216,49
599,91	1253,36
600,10	1300,46
600,29	1314,80
600,48	1302,51
600,68	1290,22
600,87	1275,88
601,06	1243,12
601,26	1259,50
601,45	1259,50
601,64	1286,12
601,83	1198,06
602,03	1279,98
602,22	1271,79
602,41	1288,17
602,60	1269,74
602,80	1331,18
602,99	1300,46
603,18	1261,55
603,37	1312,75
603,57	1335,28
603,76	1161,20
603,95	1271,79
604,14	1312,75
604,34	1234,93
604,53	1218,54
604,72	1366,00
604,91	1310,70
605,10	1292,27
605,30	1255,40
605,49	1300,46
605,68	1232,88
605,87	1284,08
606,07	1257,45
606,26	1310,70
606,45	1273,84
606,64	1327,08
606,84	1359,85
607,03	1290,22
607,22	1312,75
607,41	1251,31
607,60	1296,36
607,80	1290,22
607,99	1243,12
608,18	1288,17
608,37	1286,12
608,56	1351,66
608,76	1292,27
608,95	1255,40
609,14	1232,88
609,33	1218,54
609,52	1306,60
609,72	1286,12
609,91	1259,50
610,10	1234,93
610,29	1234,93
610,48	1251,31
610,68	1292,27
610,87	1341,42
611,06	1349,61
611,25	1218,54
611,44	1302,51
611,63	1320,94
611,83	1322,99
612,02	1218,54
612,21	1243,12
612,40	1265,64
612,59	1236,97
612,79	1257,45
612,98	1234,93
613,17	1302,51
613,36	1204,21
613,55	1288,17
613,74	1320,94
613,93	1255,40
614,13	1245,16
614,32	1224,69
614,51	1345,52
614,70	1277,93
614,89	1288,17
615,08	1275,88
615,28	1353,71
615,47	1275,88
615,66	1322,99
615,85	1269,74
616,04	1302,51
616,23	1210,35
616,42	1265,64
616,62	1232,88
616,81	1239,02
617,00	1257,45
617,19	1316,84
617,38	1222,64
617,57	1300,46
617,76	1302,51
617,95	1314,80
618,15	1273,84
618,34	1322,99
618,53	1347,56
618,72	1251,31
618,91	1282,03
619,10	1318,89
619,29	1255,40
619,48	1282,03
619,68	1257,45
619,87	1320,94
620,06	1296,36
620,25	1273,84
620,44	1257,45
620,63	1288,17
620,82	1304,56
621,01	1271,79
621,20	1255,40
621,39	1230,83
621,59	1318,89
621,78	1288,17
621,97	1255,40
622,16	1351,66
622,35	1298,41
622,54	1351,66
622,73	1247,21
622,92	1269,74
623,11	1273,84
623,30	1318,89
623,49	1277,93
623,68	1263,60
623,88	1210,35
624,07	1257,45
624,26	1279,98
624,45	1279,98
624,64	1269,74
624,83	1384,43
625,02	1308,65
625,21	1337,32
625,40	1296,36
625,59	1347,56
625,78	1277,93
625,97	1284,08
626,16	1212,40
626,35	1304,56
626,54	1284,08
626,74	1294,32
626,93	1282,03
627,12	1296,36
627,31	1310,70
627,50	1349,61
627,69	1282,03
627,88	1279,98
628,07	1273,84
628,26	1265,64
628,45	1249,26
628,64	1284,08
628,83	1271,79
629,02	1265,64
629,21	1236,97
629,40	1269,74
629,59	1279,98
629,78	1290,22
629,97	1337,32
630,16	1239,02
630,35	1271,79
630,54	1386,47
630,73	1286,12
630,92	1253,36
631,11	1273,84
631,30	1302,51
631,49	1308,65
631,68	1427,43
631,87	1359,85
632,06	1445,87
632,25	1384,43
632,44	1484,78
632,63	1392,62
632,82	1425,39
633,01	1454,06
633,20	1394,67
633,39	1454,06
633,58	1454,06
633,77	1454,06
633,96	1478,63
634,15	1511,40
634,34	1454,06
634,53	1480,68
634,72	1406,95
634,91	1447,91
635,10	1392,62
635,29	1441,77
635,48	1435,63
635,67	1429,48
635,86	1427,43
636,05	1390,57
636,24	1380,33
636,43	1378,28
636,62	1347,56
636,81	1378,28
637,00	1409,00
637,19	1370,09
637,38	1398,76
637,57	1312,75
637,76	1325,04
637,95	1306,60
638,14	1304,56
638,33	1296,36
638,52	1290,22
638,71	1347,56
638,89	1345,52
639,08	1249,26
639,27	1314,80
639,46	1361,90
639,65	1282,03
639,84	1241,07
640,03	1304,56
640,22	1279,98
640,41	1267,69
640,60	1282,03
640,79	1243,12
640,98	1253,36
641,17	1312,75
641,36	1275,88
641,55	1234,93
641,74	1306,60
641,92	1282,03
642,11	1228,78
642,30	1306,60
642,49	1327,08
642,68	1333,23
642,87	1310,70
643,06	1284,08
643,25	1275,88
643,44	1335,28
643,63	1269,74
643,82	1314,80
644,00	1273,84
644,19	1304,56
644,38	1290,22
644,57	1306,60
644,76	1310,70
644,95	1251,31
645,14	1306,60
645,33	1261,55
645,52	1224,69
645,71	1234,93
645,89	1218,54
646,08	1275,88
646,27	1333,23
646,46	1318,89
646,65	1224,69
646,84	1286,12
647,03	1306,60
647,22	1271,79
647,40	1220,59
647,59	1236,97
647,78	1329,13
647,97	1277,93
648,16	1261,55
648,35	1271,79
648,54	1261,55
648,73	1302,51
648,91	1218,54
649,10	1212,40
649,29	1245,16
649,48	1282,03
649,67	1230,83
649,86	1284,08
650,05	1355,76
650,23	1232,88
650,42	1226,73
650,61	1230,83
650,80	1288,17
650,99	1294,32
651,18	1275,88
651,36	1265,64
651,55	1284,08
651,74	1214,45
651,93	1294,32
652,12	1341,42
652,31	1239,02
652,49	1247,21
652,68	1331,18
652,87	1306,60
653,06	1265,64
653,25	1261,55
653,44	1228,78
653,62	1347,56
653,81	1224,69
654,00	1337,32
654,19	1302,51
654,38	1277,93
654,56	1308,65
654,75	1306,60
654,94	1234,93
655,13	1306,60
655,32	1302,51
655,51	1275,88
655,69	1341,42
655,88	1236,97
656,07	1224,69
656,26	1273,84
656,45	1261,55
656,63	1255,40
656,82	1341,42
657,01	1257,45
657,20	1224,69
657,38	1263,60
657,57	1267,69
657,76	1294,32
657,95	1296,36
658,14	1294,32
658,32	1257,45
658,51	1282,03
658,70	1279,98
658,89	1249,26
659,08	1261,55
659,26	1228,78
659,45	1257,45
659,64	1230,83
659,83	1241,07
660,01	1378,28
660,20	1232,88
660,39	1320,94
660,58	1253,36
660,76	1304,56
660,95	1310,70
661,14	1339,37
661,33	1265,64
661,51	1306,60
661,70	1196,01
661,89	1325,04
662,08	1267,69
662,26	1255,40
662,45	1273,84
662,64	1273,84
662,83	1306,60
663,01	1245,16
663,20	1232,88
663,39	1216,49
663,58	1290,22
663,76	1275,88
663,95	1234,93
664,14	1239,02
664,32	1282,03
664,51	1259,50
664,70	1210,35
664,89	1245,16
665,07	1253,36
665,26	1191,92
665,45	1218,54
665,64	1286,12
665,82	1193,97
666,01	1284,08
666,20	1222,64
666,38	1288,17
666,57	1257,45
666,76	1351,66
666,95	1263,60
667,13	1288,17
667,32	1267,69
667,51	1298,41
667,69	1267,69
667,88	1232,88
668,07	1247,21
668,25	1355,76
668,44	1212,40
668,63	1191,92
668,81	1273,84
669,00	1355,76
669,19	1226,73
669,38	1265,64
669,56	1265,64
669,75	1288,17
669,94	1228,78
670,12	1322,99
670,31	1212,40
670,50	1294,32
670,68	1353,71
670,87	1279,98
671,06	1337,32
671,24	1251,31
671,43	1253,36
671,62	1236,97
671,80	1310,70
671,99	1320,94
672,18	1302,51
672,36	1312,75
672,55	1273,84
672,74	1253,36
672,92	1327,08
673,11	1284,08
673,29	1247,21
673,48	1230,83
673,67	1292,27
673,85	1304,56
674,04	1255,40
674,23	1347,56
674,41	1318,89
674,60	1249,26
674,79	1234,93
674,97	1253,36
675,16	1220,59
675,34	1130,48
675,53	1322,99
675,72	1345,52
675,90	1347,56
676,09	1257,45
676,28	1234,93
676,46	1378,28
676,65	1277,93
676,83	1308,65
677,02	1239,02
677,21	1351,66
677,39	1320,94
677,58	1273,84
677,77	1232,88
677,95	1261,55
678,14	1312,75
678,32	1294,32
678,51	1284,08
678,70	1331,18
678,88	1279,98
679,07	1208,30
679,25	1261,55
679,44	1267,69
679,63	1216,49
679,81	1249,26
680,00	1304,56
680,18	1251,31
680,37	1267,69
680,55	1206,25
680,74	1261,55
680,93	1279,98
681,11	1243,12
681,30	1288,17
681,48	1261,55
681,67	1318,89
681,85	1263,60
682,04	1271,79
682,23	1261,55
682,41	1279,98
682,60	1288,17
682,78	1284,08
682,97	1273,84
683,15	1224,69
683,34	1341,42
683,53	1206,25
683,71	1286,12
683,90	1292,27
684,08	1265,64
684,27	1249,26
684,45	1273,84
684,64	1273,84
684,82	1212,40
685,01	1288,17
685,19	1296,36
685,38	1314,80
685,57	1388,52
685,75	1224,69
685,94	1212,40
686,12	1232,88
686,31	1263,60
686,49	1345,52
686,68	1228,78
686,86	1286,12
687,05	1218,54
687,23	1230,83
687,42	1300,46
687,60	1263,60
687,79	1282,03
687,97	1300,46
688,16	1249,26
688,34	1296,36
688,53	1232,88
688,71	1230,83
688,90	1310,70
689,08	1224,69
689,27	1228,78
689,45	1226,73
689,64	1302,51
689,82	1282,03
690,01	1290,22
690,19	1316,84
690,38	1290,22
690,56	1216,49
690,75	1304,56
690,93	1261,55
691,12	1271,79
691,30	1232,88
691,49	1310,70
691,67	1249,26
691,86	1284,08
692,04	1232,88
692,23	1269,74
692,41	1316,84
692,60	1261,55
692,78	1284,08
692,97	1294,32
693,15	1230,83
693,34	1327,08
693,52	1288,17
693,71	1267,69
693,89	1304,56
694,08	1224,69
694,26	1275,88
694,44	1282,03
694,63	1277,93
694,81	1218,54
695,00	1292,27
695,18	1353,71
695,37	1316,84
695,55	1277,93
695,74	1292,27
695,92	1206,25
696,10	1230,83
696,29	1288,17
696,47	1218,54
696,66	1245,16
696,84	1300,46
697,03	1255,40
697,21	1273,84
697,40	1337,32
697,58	1316,84
697,76	1181,68
697,95	1245,16
698,13	1316,84
698,32	1290,22
698,50	1265,64
698,68	1273,84
698,87	1275,88
699,05	1327,08
699,24	1212,40
699,42	1259,50
699,61	1288,17
699,79	1265,64
699,97	1269,74
700,16	1298,41
700,34	1261,55
700,53	1245,16
700,71	1296,36
700,89	1271,79
701,08	1347,56
701,26	1239,02
701,45	1236,97
701,63	1304,56
701,81	1255,40
702,00	1363,95
702,18	1294,32
702,37	1212,40
702,55	1290,22
702,73	1290,22
702,92	1253,36
703,10	1267,69
703,28	1314,80
703,47	1320,94
703,65	1206,25
703,84	1296,36
704,02	1294,32
704,20	1224,69
704,39	1196,01
704,57	1298,41
704,75	1265,64
704,94	1198,06
705,12	1271,79
705,30	1265,64
705,49	1239,02
705,67	1327,08
705,86	1257,45
706,04	1189,87
706,22	1314,80
706,41	1300,46
706,59	1251,31
706,77	1302,51
706,96	1228,78
707,14	1245,16
707,32	1224,69
707,51	1255,40
707,69	1214,45
707,87	1292,27
708,06	1265,64
708,24	1275,88
708,42	1302,51
708,61	1286,12
708,79	1269,74
708,97	1339,37
709,16	1247,21
709,34	1222,64
709,52	1347,56
709,71	1294,32
709,89	1243,12
710,07	1232,88
710,26	1380,33
710,44	1279,98
710,62	1226,73
710,80	1241,07
710,99	1273,84
711,17	1267,69
711,35	1263,60
711,54	1255,40
711,72	1368,04
711,90	1353,71
712,09	1251,31
712,27	1224,69
712,45	1290,22
712,63	1265,64
712,82	1206,25
713,00	1296,36
713,18	1275,88
713,37	1333,23
713,55	1277,93
713,73	1329,13
713,91	1288,17
714,10	1308,65
714,28	1263,60
714,46	1277,93
714,65	1232,88
714,83	1277,93
715,01	1230,83
715,19	1325,04
715,38	1232,88
715,56	1251,31
715,74	1232,88
715,92	1304,56
716,11	1296,36
716,29	1286,12
716,47	1304,56
716,65	1327,08
716,84	1245,16
717,02	1284,08
717,20	1239,02
717,38	1298,41
717,57	1304,56
717,75	1273,84
717,93	1300,46
718,11	1232,88
718,30	1189,87
718,48	1241,07
718,66	1306,60
718,84	1333,23
719,03	1294,32
719,21	1294,32
719,39	1214,45
719,57	1251,31
719,75	1286,12
719,94	1282,03
720,12	1314,80
720,30	1273,84
720,48	1296,36
720,67	1273,84
720,85	1294,32
721,03	1277,93
721,21	1284,08
721,39	1310,70
721,58	1249,26
721,76	1255,40
721,94	1206,25
722,12	1300,46
722,30	1300,46
722,49	1239,02
722,67	1226,73
722,85	1257,45
723,03	1214,45
723,21	1265,64
723,40	1322,99
723,58	1257,45
723,76	1228,78
723,94	1263,60
724,12	1288,17
724,30	1243,12
724,49	1292,27
724,67	1282,03
724,85	1196,01
725,03	1224,69
725,21	1185,77
725,40	1290,22
725,58	1337,32
725,76	1343,47
725,94	1310,70
726,12	1226,73
726,30	1220,59
726,49	1279,98
726,67	1294,32
726,85	1228,78
727,03	1339,37
727,21	1298,41
727,39	1269,74
727,57	1257,45
727,76	1255,40
727,94	1236,97
728,12	1245,16
728,30	1249,26
728,48	1261,55
728,66	1312,75
728,84	1222,64
729,03	1257,45
729,21	1290,22
729,39	1259,50
729,57	1275,88
729,75	1277,93
729,93	1320,94
730,11	1241,07
730,30	1341,42
730,48	1292,27
730,66	1187,82
730,84	1265,64
731,02	1257,45
731,20	1265,64
731,38	1282,03
731,56	1282,03
731,74	1181,68
731,93	1263,60
732,11	1288,17
732,29	1271,79
732,47	1210,35
732,65	1206,25
732,83	1228,78
733,01	1284,08
733,19	1255,40
733,37	1263,60
733,56	1277,93
733,74	1333,23
733,92	1236,97
734,10	1253,36
734,28	1245,16
734,46	1257,45
734,64	1245,16
734,82	1310,70
735,00	1366,00
735,18	1302,51
735,36	1282,03
735,54	1279,98
735,73	1241,07
735,91	1232,88
736,09	1212,40
736,27	1273,84
736,45	1282,03
736,63	1210,35
736,81	1277,93
736,99	1325,04
737,17	1277,93
737,35	1202,16
737,53	1312,75
737,71	1200,11
737,89	1263,60
738,07	1376,24
738,25	1282,03
738,43	1316,84
738,61	1259,50
738,80	1259,50
738,98	1232,88
739,16	1273,84
739,34	1306,60
739,52	1232,88
739,70	1261,55
739,88	1290,22
740,06	1308,65
740,24	1249,26
740,42	1216,49
740,60	1206,25
740,78	1236,97
740,96	1361,90
741,14	1300,46
741,32	1257,45
741,50	1277,93
741,68	1277,93
741,86	1255,40
742,04	1208,30
742,22	1333,23
742,40	1206,25
742,58	1269,74
742,76	1314,80
742,94	1271,79
743,12	1261,55
743,30	1298,41
743,48	1312,75
743,66	1271,79
743,84	1284,08
744,02	1204,21
744,20	1228,78
744,38	1230,83
744,56	1224,69
744,74	1269,74
744,92	1259,50
745,10	1255,40
745,28	1277,93
745,46	1261,55
745,64	1251,31
745,82	1312,75
746,00	1212,40
746,18	1216,49
746,36	1284,08
746,54	1290,22
746,72	1234,93
746,90	1245,16
747,08	1251,31
747,26	1288,17
747,44	1290,22
747,62	1257,45
747,80	1302,51
747,98	1290,22
748,15	1302,51
748,33	1296,36
748,51	1263,60
748,69	1312,75
748,87	1243,12
749,05	1279,98
749,23	1294,32
749,41	1322,99
749,59	1232,88
749,77	1331,18
749,95	1220,59
750,13	1230,83
750,31	1312,75
750,49	1206,25
750,67	1224,69
750,85	1259,50
751,03	1249,26
751,20	1288,17
751,38	1239,02
751,56	1327,08
751,74	1230,83
751,92	1349,61
752,10	1228,78
752,28	1275,88
752,46	1304,56
752,64	1265,64
752,82	1265,64
753,00	1318,89
753,18	1228,78
753,35	1253,36
753,53	1318,89
753,71	1257,45
753,89	1218,54
754,07	1267,69
754,25	1298,41
754,43	1241,07
754,61	1198,06
754,79	1269,74
754,97	1314,80
755,14	1243,12
755,32	1310,70
755,50	1306,60
755,68	1247,21
755,86	1329,13
756,04	1302,51
756,22	1308,65
756,40	1232,88
756,57	1253,36
756,75	1282,03
756,93	1343,47
757,11	1271,79
757,29	1206,25
757,47	1282,03
757,65	1239,02
757,82	1288,17
758,00	1277,93
758,18	1253,36
758,36	1345,52
758,54	1298,41
758,72	1300,46
758,90	1273,84
759,07	1298,41
759,25	1331,18
759,43	1261,55
759,61	1333,23
759,79	1320,94
759,97	1294,32
760,15	1179,63
760,32	1269,74
760,50	1206,25
760,68	1220,59
760,86	1282,03
761,04	1208,30
761,22	1253,36
761,39	1230,83
761,57	1271,79
761,75	1249,26
761,93	1247,21
762,11	1271,79
762,28	1286,12
762,46	1343,47
762,64	1261,55
762,82	1265,64
763,00	1302,51
763,18	1185,77
763,35	1255,40
763,53	1288,17
763,71	1277,93
763,89	1245,16
764,07	1239,02
764,24	1253,36
764,42	1241,07
764,60	1296,36
764,78	1232,88
764,96	1298,41
765,13	1316,84
765,31	1269,74
765,49	1251,31
765,67	1265,64
765,84	1277,93
766,02	1261,55
766,20	1230,83
766,38	1204,21
766,56	1306,60
766,73	1273,84
766,91	1228,78
767,09	1239,02
767,27	1253,36
767,44	1290,22
767,62	1271,79
767,80	1249,26
767,98	1273,84
768,15	1286,12
768,33	1279,98
768,51	1347,56
768,69	1226,73
768,87	1282,03
769,04	1286,12
769,22	1265,64
769,40	1265,64
769,58	1288,17
769,75	1366,00
769,93	1257,45
770,11	1282,03
770,28	1259,50
770,46	1257,45
770,64	1279,98
770,82	1261,55
770,99	1302,51
771,17	1214,45
771,35	1241,07
771,53	1259,50
771,70	1232,88
771,88	1275,88
772,06	1337,32
772,23	1304,56
772,41	1232,88
772,59	1236,97
772,77	1279,98
772,94	1296,36
773,12	1275,88
773,30	1265,64
773,47	1296,36
773,65	1251,31
773,83	1222,64
774,01	1249,26
774,18	1206,25
774,36	1279,98
774,54	1206,25
774,71	1290,22
774,89	1273,84
775,07	1234,93
775,24	1263,60
775,42	1243,12
775,60	1222,64
775,78	1306,60
775,95	1318,89
776,13	1239,02
776,31	1271,79
776,48	1359,85
776,66	1232,88
776,84	1277,93
777,01	1224,69
777,19	1249,26
777,37	1208,30
777,54	1265,64
777,72	1204,21
777,90	1275,88
778,07	1271,79
778,25	1279,98
778,43	1273,84
778,60	1275,88
778,78	1304,56
778,96	1226,73
779,13	1261,55
779,31	1232,88
779,49	1298,41
779,66	1187,82
779,84	1245,16
780,01	1247,21
780,19	1314,80
780,37	1208,30
780,54	1288,17
780,72	1222,64
780,90	1206,25
781,07	1267,69
781,25	1296,36
781,43	1228,78
781,60	1253,36
781,78	1259,50
781,95	1263,60
782,13	1302,51
782,31	1228,78
782,48	1318,89
782,66	1255,40
782,83	1232,88
783,01	1265,64
783,19	1251,31
783,36	1279,98
783,54	1314,80
783,72	1255,40
783,89	1265,64
784,07	1220,59
784,24	1234,93
784,42	1282,03
784,60	1261,55
784,77	1218,54
784,95	1279,98
785,12	1282,03
785,30	1232,88
785,47	1228,78
785,65	1269,74
785,83	1257,45
786,00	1306,60
786,18	1329,13
786,35	1290,22
786,53	1292,27
786,71	1247,21
786,88	1230,83
787,06	1298,41
787,23	1247,21
787,41	1196,01
787,58	1302,51
787,76	1251,31
787,94	1284,08
788,11	1226,73
788,29	1187,82
788,46	1236,97
788,64	1347,56
788,81	1257,45
788,99	1296,36
789,16	1271,79
789,34	1308,65
789,52	1249,26
789,69	1347,56
789,87	1243,12
790,04	1247,21
790,22	1304,56
790,39	1181,68
790,57	1261,55
790,74	1239,02
790,92	1308,65
791,09	1230,83
791,27	1322,99
791,44	1198,06
791,62	1259,50
791,79	1210,35
791,97	1337,32
792,15	1300,46
792,32	1253,36
792,50	1234,93
792,67	1255,40
792,85	1212,40
793,02	1206,25
793,20	1191,92
793,37	1187,82
793,55	1329,13
793,72	1267,69
793,90	1361,90
794,07	1284,08
794,25	1255,40
794,42	1337,32
794,60	1251,31
794,77	1259,50
794,95	1286,12
795,12	1245,16
795,30	1249,26
795,47	1282,03
795,65	1236,97
795,82	1275,88
796,00	1288,17
796,17	1208,30
796,34	1236,97
796,52	1279,98
796,69	1232,88
796,87	1224,69
797,04	1304,56
797,22	1253,36
797,39	1296,36
797,57	1290,22
797,74	1277,93
797,92	1275,88
798,09	1320,94
798,27	1302,51
798,44	1236,97
798,62	1261,55
798,79	1273,84
798,96	1226,73
799,14	1202,16
799,31	1294,32
799,49	1277,93
799,66	1214,45
799,84	1310,70
800,01	1218,54
800,19	1327,08
800,36	1239,02
800,53	1251,31
800,71	1249,26
800,88	1298,41
801,06	1271,79
801,23	1284,08
801,41	1253,36
801,58	1345,52
801,75	1232,88
801,93	1216,49
802,10	1267,69
802,28	1316,84
802,45	1335,28
802,63	1298,41
802,80	1251,31
802,97	1247,21
803,15	1191,92
803,32	1279,98
803,50	1316,84
803,67	1325,04
803,84	1261,55
804,02	1255,40
804,19	1255,40
804,37	1232,88
804,54	1175,53
804,71	1322,99
804,89	1257,45
805,06	1337,32
805,24	1335,28
805,41	1304,56
805,58	1228,78
805,76	1349,61
805,93	1292,27
806,10	1163,25
806,28	1196,01
806,45	1228,78
806,63	1249,26
806,80	1265,64
806,97	1279,98
807,15	1259,50
807,32	1239,02
807,49	1232,88
807,67	1247,21
807,84	1304,56
808,01	1224,69
808,19	1296,36
808,36	1220,59
808,54	1202,16
808,71	1306,60
808,88	1304,56
809,06	1279,98
809,23	1212,40
809,40	1325,04
809,58	1239,02
809,75	1282,03
809,92	1267,69
810,10	1292,27
810,27	1263,60
810,44	1269,74
810,62	1292,27
810,79	1241,07
810,96	1183,73
811,14	1206,25
811,31	1329,13
811,48	1269,74
811,66	1230,83
811,83	1298,41
812,00	1290,22
812,18	1279,98
812,35	1265,64
812,52	1232,88
812,69	1247,21
812,87	1216,49
813,04	1308,65
813,21	1337,32
813,39	1259,50
813,56	1191,92
813,73	1273,84
813,91	1282,03
814,08	1245,16
814,25	1257,45
814,42	1185,77
814,60	1275,88
814,77	1331,18
814,94	1263,60
815,12	1271,79
815,29	1249,26
815,46	1286,12
815,63	1314,80
815,81	1308,65
815,98	1181,68
816,15	1212,40
816,33	1269,74
816,50	1277,93
816,67	1230,83
816,84	1255,40
817,02	1241,07
817,19	1249,26
817,36	1228,78
817,53	1267,69
817,71	1279,98
817,88	1296,36
818,05	1304,56
818,22	1267,69
818,40	1337,32
818,57	1208,30
818,74	1241,07
818,91	1226,73
819,09	1316,84
819,26	1277,93
819,43	1269,74
819,60	1312,75
819,78	1273,84
819,95	1331,18
820,12	1314,80
820,29	1337,32
820,47	1282,03
820,64	1247,21
820,81	1245,16
820,98	1286,12
821,15	1251,31
821,33	1284,08
821,50	1173,49
821,67	1318,89
821,84	1259,50
822,02	1271,79
822,19	1288,17
822,36	1339,37
822,53	1331,18
822,70	1265,64
822,88	1277,93
823,05	1359,85
823,22	1271,79
823,39	1308,65
823,56	1322,99
823,74	1265,64
823,91	1271,79
824,08	1177,58
824,25	1251,31
824,42	1241,07
824,60	1249,26
824,77	1277,93
824,94	1239,02
825,11	1249,26
825,28	1232,88
825,45	1249,26
825,63	1288,17
825,80	1239,02
825,97	1331,18
826,14	1300,46
826,31	1263,60
826,48	1306,60
826,66	1171,44
826,83	1286,12
827,00	1255,40
827,17	1247,21
827,34	1232,88
827,51	1257,45
827,69	1296,36
827,86	1224,69
828,03	1322,99
828,20	1288,17
828,37	1208,30
828,54	1277,93
828,71	1245,16
828,89	1249,26
829,06	1251,31
829,23	1249,26
829,40	1277,93
829,57	1241,07
829,74	1282,03
829,91	1257,45
830,09	1380,33
830,26	1257,45
830,43	1310,70
830,60	1247,21
830,77	1239,02
830,94	1196,01
831,11	1255,40
831,28	1327,08
831,46	1257,45
831,63	1294,32
831,80	1222,64
831,97	1261,55
832,14	1277,93
832,31	1269,74
832,48	1175,53
832,65	1284,08
832,82	1202,16
832,99	1243,12
833,17	1230,83
833,34	1294,32
833,51	1251,31
833,68	1253,36
833,85	1282,03
834,02	1257,45
834,19	1210,35
834,36	1181,68
834,53	1218,54
834,70	1183,73
834,87	1275,88
835,04	1316,84
835,22	1277,93
835,39	1308,65
835,56	1269,74
835,73	1259,50
835,90	1302,51
836,07	1236,97
836,24	1322,99
836,41	1220,59
836,58	1284,08
836,75	1253,36
836,92	1214,45
837,09	1224,69
837,26	1234,93
837,43	1314,80
837,60	1298,41
837,77	1310,70
837,94	1239,02
838,12	1208,30
838,29	1269,74
838,46	1306,60
838,63	1288,17
838,80	1218,54
838,97	1255,40
839,14	1265,64
839,31	1265,64
839,48	1273,84
839,65	1298,41
839,82	1236,97
839,99	1282,03
840,16	1298,41
840,33	1206,25
840,50	1320,94
840,67	1284,08
840,84	1269,74
841,01	1224,69
841,18	1241,07
841,35	1265,64
841,52	1269,74
841,69	1273,84
841,86	1259,50
842,03	1183,73
842,20	1282,03
842,37	1230,83
842,54	1224,69
842,71	1265,64
842,88	1288,17
843,05	1277,93
843,22	1314,80
843,39	1222,64
843,56	1265,64
843,73	1228,78
843,90	1292,27
844,07	1232,88
844,24	1247,21
844,41	1224,69
844,58	1230,83
844,75	1269,74
844,92	1202,16
845,09	1267,69
845,26	1198,06
845,43	1216,49
845,60	1269,74
845,77	1226,73
845,94	1267,69
846,10	1206,25
846,27	1267,69
846,44	1263,60
846,61	1212,40
846,78	1185,77
846,95	1329,13
847,12	1253,36
847,29	1304,56
847,46	1202,16
847,63	1329,13
847,80	1236,97
847,97	1298,41
848,14	1181,68
848,31	1245,16
848,48	1286,12
848,65	1259,50
848,82	1308,65
848,98	1312,75
849,15	1273,84
849,32	1210,35
849,49	1267,69
849,66	1279,98
849,83	1279,98
850,00	1259,50
850,17	1267,69
850,34	1163,25
850,51	1249,26
850,68	1271,79
850,85	1288,17
851,01	1322,99
851,18	1335,28
851,35	1290,22
851,52	1302,51
851,69	1247,21
851,86	1245,16
852,03	1337,32
852,20	1253,36
852,37	1300,46
852,53	1220,59
852,70	1331,18
852,87	1173,49
853,04	1210,35
853,21	1257,45
853,38	1302,51
853,55	1183,73
853,72	1331,18
853,89	1320,94
854,05	1273,84
854,22	1308,65
854,39	1265,64
854,56	1284,08
854,73	1228,78
854,90	1243,12
855,07	1212,40
855,23	1337,32
855,40	1265,64
855,57	1236,97
855,74	1259,50
855,91	1261,55
856,08	1241,07
856,25	1230,83
856,41	1257,45
856,58	1265,64
856,75	1320,94
856,92	1249,26
857,09	1279,98
857,26	1277,93
857,42	1214,45
857,59	1247,21
857,76	1273,84
857,93	1165,29
858,10	1263,60
858,27	1226,73
858,43	1290,22
858,60	1325,04
858,77	1232,88
858,94	1257,45
859,11	1279,98
859,27	1284,08
859,44	1325,04
859,61	1314,80
859,78	1269,74
859,95	1251,31
860,12	1216,49
860,28	1196,01
860,45	1247,21
860,62	1204,21
860,79	1261,55
860,95	1239,02
861,12	1263,60
861,29	1208,30
861,46	1245,16
861,63	1286,12
861,79	1247,21
861,96	1351,66
862,13	1202,16
862,30	1259,50
862,47	1247,21
862,63	1325,04
862,80	1279,98
862,97	1208,30
863,14	1249,26
863,30	1212,40
863,47	1279,98
863,64	1271,79
863,81	1271,79
863,97	1282,03
864,14	1265,64
864,31	1277,93
864,48	1263,60
864,65	1316,84
864,81	1277,93
864,98	1292,27
865,15	1316,84
865,32	1200,11
865,48	1277,93
865,65	1298,41
865,82	1282,03
865,98	1267,69
866,15	1269,74
866,32	1265,64
866,49	1263,60
866,65	1216,49
866,82	1257,45
866,99	1261,55
867,16	1284,08
867,32	1306,60
867,49	1300,46
867,66	1314,80
867,83	1282,03
867,99	1253,36
868,16	1306,60
868,33	1292,27
868,49	1310,70
868,66	1187,82
868,83	1226,73
868,99	1282,03
869,16	1243,12
869,33	1286,12
869,50	1259,50
869,66	1212,40
869,83	1269,74
870,00	1241,07
870,16	1277,93
870,33	1222,64
870,50	1357,80
870,66	1353,71
870,83	1341,42
871,00	1294,32
871,17	1249,26
871,33	1226,73
871,50	1318,89
871,67	1290,22
871,83	1300,46
872,00	1226,73
872,17	1234,93
872,33	1306,60
872,50	1226,73
872,67	1271,79
872,83	1232,88
873,00	1259,50
873,17	1216,49
873,33	1284,08
873,50	1257,45
873,67	1243,12
873,83	1218,54
874,00	1300,46
874,16	1286,12
874,33	1277,93
874,50	1228,78
874,66	1318,89
874,83	1218,54
875,00	1251,31
875,16	1208,30
875,33	1224,69
875,50	1251,31
875,66	1259,50
875,83	1277,93
875,99	1220,59
876,16	1298,41
876,33	1370,09
876,49	1173,49
876,66	1273,84
876,83	1261,55
876,99	1265,64
877,16	1267,69
877,32	1259,50
877,49	1200,11
877,66	1282,03
877,82	1282,03
877,99	1255,40
878,15	1241,07
878,32	1294,32
878,49	1220,59
878,65	1304,56
878,82	1298,41
878,98	1251,31
879,15	1275,88
879,32	1200,11
879,48	1359,85
879,65	1259,50
879,81	1259,50
879,98	1279,98
880,15	1310,70
880,31	1222,64
880,48	1185,77
880,64	1339,37
880,81	1302,51
880,97	1331,18
881,14	1275,88
881,31	1282,03
881,47	1308,65
881,64	1308,65
881,80	1251,31
881,97	1265,64
882,13	1210,35
882,30	1208,30
882,47	1273,84
882,63	1226,73
882,80	1249,26
882,96	1239,02
883,13	1327,08
883,29	1267,69
883,46	1263,60
883,62	1249,26
883,79	1288,17
883,95	1290,22
884,12	1347,56
884,29	1298,41
884,45	1304,56
884,62	1263,60
884,78	1275,88
884,95	1378,28
885,11	1292,27
885,28	1337,32
885,44	1239,02
885,61	1257,45
885,77	1263,60
885,94	1288,17
886,10	1294,32
886,27	1288,17
886,43	1316,84
886,60	1263,60
886,76	1341,42
886,93	1279,98
887,09	1292,27
887,26	1257,45
887,42	1282,03
887,59	1247,21
887,75	1310,70
887,92	1253,36
888,08	1273,84
888,25	1302,51
888,41	1222,64
888,58	1269,74
888,74	1277,93
888,91	1210,35
>>>>>End Processed Spectral Data<<<<<
