SpectraSuite Data File
++++++++++++++++++++++++++++++++++++
Date: Sun Apr 03 19:55:21 CEST 2016
User: root
Dark Spectrum Present: No
Reference Spectrum Present: No
Number of Sampled Component Spectra: 1
Spectrometers: USB4C02835
Integration Time (usec): 10000 (USB4C02835)
Spectra Averaged: 1 (USB4C02835)
Boxcar Smoothing: 0 (USB4C02835)
Correct for Electrical Dark: No (USB4C02835)
Strobe/Lamp Enabled: No (USB4C02835)
Correct for Detector Non-linearity: No (USB4C02835)
Correct for Stray Light: No (USB4C02835)
Number of Pixels in Processed Spectrum: 3648
>>>>>Begin Processed Spectral Data<<<<<
177,47	1228,78
177,69	1228,78
177,91	1228,78
178,13	1232,88
178,36	1202,16
178,58	1224,69
178,80	1265,64
179,02	1224,69
179,24	1310,70
179,46	1222,64
179,68	1239,02
179,90	1214,45
180,13	1239,02
180,35	1224,69
180,57	1259,50
180,79	1253,36
181,01	1232,88
181,23	1261,55
181,45	1103,86
181,67	1273,84
181,90	1206,25
182,12	1218,54
182,34	1255,40
182,56	1267,69
182,78	1239,02
183,00	1226,73
183,22	1208,30
183,44	1241,07
183,66	1216,49
183,89	1263,60
184,11	1230,83
184,33	1196,01
184,55	1312,75
184,77	1275,88
184,99	1226,73
185,21	1226,73
185,43	1249,26
185,65	1304,56
185,87	1292,27
186,10	1318,89
186,32	1271,79
186,54	1224,69
186,76	1251,31
186,98	1366,00
187,20	1255,40
187,42	1302,51
187,64	1329,13
187,86	1218,54
188,08	1253,36
188,30	1310,70
188,52	1216,49
188,75	1269,74
188,97	1331,18
189,19	1300,46
189,41	1204,21
189,63	1253,36
189,85	1228,78
190,07	1243,12
190,29	1294,32
190,51	1310,70
190,73	1261,55
190,95	1296,36
191,17	1359,85
191,39	1232,88
191,61	1290,22
191,84	1255,40
192,06	1263,60
192,28	1308,65
192,50	1259,50
192,72	1220,59
192,94	1279,98
193,16	1277,93
193,38	1220,59
193,60	1316,84
193,82	1267,69
194,04	1286,12
194,26	1257,45
194,48	1282,03
194,70	1200,11
194,92	1236,97
195,14	1314,80
195,36	1286,12
195,58	1208,30
195,80	1214,45
196,02	1124,33
196,24	1226,73
196,46	1269,74
196,69	1286,12
196,91	1325,04
197,13	1296,36
197,35	1267,69
197,57	1294,32
197,79	1159,15
198,01	1275,88
198,23	1261,55
198,45	1267,69
198,67	1230,83
198,89	1282,03
199,11	1288,17
199,33	1234,93
199,55	1239,02
199,77	1228,78
199,99	1265,64
200,21	1234,93
200,43	1220,59
200,65	1273,84
200,87	1247,21
201,09	1353,71
201,31	1210,35
201,53	1327,08
201,75	1290,22
201,97	1249,26
202,19	1232,88
202,41	1230,83
202,63	1243,12
202,85	1239,02
203,07	1300,46
203,29	1257,45
203,51	1288,17
203,73	1243,12
203,95	1314,80
204,17	1226,73
204,39	1279,98
204,61	1226,73
204,83	1294,32
205,05	1306,60
205,27	1286,12
205,49	1359,85
205,71	1292,27
205,93	1298,41
206,15	1282,03
206,37	1243,12
206,59	1232,88
206,81	1302,51
207,03	1298,41
207,25	1286,12
207,47	1320,94
207,69	1265,64
207,91	1220,59
208,13	1296,36
208,34	1249,26
208,56	1230,83
208,78	1251,31
209,00	1273,84
209,22	1286,12
209,44	1298,41
209,66	1282,03
209,88	1243,12
210,10	1253,36
210,32	1277,93
210,54	1249,26
210,76	1234,93
210,98	1282,03
211,20	1300,46
211,42	1236,97
211,64	1292,27
211,86	1282,03
212,08	1232,88
212,30	1247,21
212,52	1239,02
212,74	1306,60
212,96	1216,49
213,17	1214,45
213,39	1245,16
213,61	1306,60
213,83	1290,22
214,05	1302,51
214,27	1230,83
214,49	1298,41
214,71	1247,21
214,93	1191,92
215,15	1234,93
215,37	1316,84
215,59	1312,75
215,81	1234,93
216,03	1236,97
216,24	1232,88
216,46	1247,21
216,68	1249,26
216,90	1243,12
217,12	1224,69
217,34	1251,31
217,56	1355,76
217,78	1296,36
218,00	1245,16
218,22	1259,50
218,44	1222,64
218,66	1279,98
218,87	1273,84
219,09	1214,45
219,31	1329,13
219,53	1226,73
219,75	1298,41
219,97	1343,47
220,19	1290,22
220,41	1232,88
220,63	1318,89
220,85	1343,47
221,06	1296,36
221,28	1322,99
221,50	1241,07
221,72	1286,12
221,94	1263,60
222,16	1273,84
222,38	1294,32
222,60	1226,73
222,82	1228,78
223,03	1296,36
223,25	1314,80
223,47	1261,55
223,69	1294,32
223,91	1214,45
224,13	1286,12
224,35	1279,98
224,57	1257,45
224,78	1277,93
225,00	1294,32
225,22	1200,11
225,44	1378,28
225,66	1228,78
225,88	1183,73
226,10	1271,79
226,32	1273,84
226,53	1310,70
226,75	1239,02
226,97	1208,30
227,19	1255,40
227,41	1314,80
227,63	1253,36
227,85	1318,89
228,06	1214,45
228,28	1267,69
228,50	1255,40
228,72	1222,64
228,94	1306,60
229,16	1243,12
229,37	1265,64
229,59	1269,74
229,81	1265,64
230,03	1185,77
230,25	1241,07
230,47	1279,98
230,69	1239,02
230,90	1269,74
231,12	1220,59
231,34	1253,36
231,56	1316,84
231,78	1300,46
232,00	1263,60
232,21	1257,45
232,43	1249,26
232,65	1257,45
232,87	1239,02
233,09	1335,28
233,30	1298,41
233,52	1282,03
233,74	1257,45
233,96	1185,77
234,18	1230,83
234,40	1351,66
234,61	1339,37
234,83	1251,31
235,05	1275,88
235,27	1279,98
235,49	1306,60
235,70	1335,28
235,92	1314,80
236,14	1286,12
236,36	1296,36
236,58	1267,69
236,79	1288,17
237,01	1273,84
237,23	1243,12
237,45	1279,98
237,67	1236,97
237,88	1247,21
238,10	1277,93
238,32	1163,25
238,54	1216,49
238,76	1282,03
238,97	1325,04
239,19	1239,02
239,41	1343,47
239,63	1257,45
239,85	1267,69
240,06	1282,03
240,28	1232,88
240,50	1282,03
240,72	1288,17
240,93	1234,93
241,15	1318,89
241,37	1220,59
241,59	1306,60
241,81	1206,25
242,02	1204,21
242,24	1259,50
242,46	1273,84
242,68	1220,59
242,89	1284,08
243,11	1302,51
243,33	1271,79
243,55	1255,40
243,76	1200,11
243,98	1273,84
244,20	1261,55
244,42	1191,92
244,64	1310,70
244,85	1187,82
245,07	1318,89
245,29	1318,89
245,51	1290,22
245,72	1241,07
245,94	1230,83
246,16	1251,31
246,38	1306,60
246,59	1306,60
246,81	1263,60
247,03	1271,79
247,24	1273,84
247,46	1282,03
247,68	1298,41
247,90	1200,11
248,11	1253,36
248,33	1259,50
248,55	1198,06
248,77	1245,16
248,98	1337,32
249,20	1247,21
249,42	1325,04
249,64	1290,22
249,85	1282,03
250,07	1212,40
250,29	1329,13
250,50	1300,46
250,72	1251,31
250,94	1333,23
251,16	1277,93
251,37	1292,27
251,59	1288,17
251,81	1261,55
252,02	1249,26
252,24	1245,16
252,46	1271,79
252,68	1286,12
252,89	1263,60
253,11	1292,27
253,33	1204,21
253,54	1232,88
253,76	1290,22
253,98	1232,88
254,20	1286,12
254,41	1204,21
254,63	1173,49
254,85	1257,45
255,06	1273,84
255,28	1247,21
255,50	1255,40
255,71	1245,16
255,93	1255,40
256,15	1249,26
256,36	1282,03
256,58	1271,79
256,80	1206,25
257,02	1269,74
257,23	1284,08
257,45	1302,51
257,67	1239,02
257,88	1298,41
258,10	1253,36
258,32	1298,41
258,53	1216,49
258,75	1236,97
258,97	1308,65
259,18	1259,50
259,40	1255,40
259,62	1228,78
259,83	1277,93
260,05	1206,25
260,27	1331,18
260,48	1241,07
260,70	1304,56
260,92	1224,69
261,13	1249,26
261,35	1288,17
261,57	1259,50
261,78	1269,74
262,00	1247,21
262,22	1218,54
262,43	1273,84
262,65	1230,83
262,86	1249,26
263,08	1247,21
263,30	1253,36
263,51	1193,97
263,73	1312,75
263,95	1277,93
264,16	1230,83
264,38	1273,84
264,60	1230,83
264,81	1265,64
265,03	1269,74
265,25	1232,88
265,46	1241,07
265,68	1239,02
265,89	1234,93
266,11	1263,60
266,33	1232,88
266,54	1294,32
266,76	1177,58
266,98	1271,79
267,19	1228,78
267,41	1259,50
267,62	1204,21
267,84	1236,97
268,06	1275,88
268,27	1255,40
268,49	1306,60
268,70	1236,97
268,92	1306,60
269,14	1257,45
269,35	1320,94
269,57	1222,64
269,79	1304,56
270,00	1257,45
270,22	1239,02
270,43	1253,36
270,65	1277,93
270,87	1296,36
271,08	1273,84
271,30	1214,45
271,51	1241,07
271,73	1300,46
271,95	1341,42
272,16	1320,94
272,38	1286,12
272,59	1247,21
272,81	1314,80
273,02	1216,49
273,24	1236,97
273,46	1265,64
273,67	1310,70
273,89	1275,88
274,10	1296,36
274,32	1196,01
274,54	1253,36
274,75	1329,13
274,97	1277,93
275,18	1167,34
275,40	1255,40
275,61	1265,64
275,83	1298,41
276,05	1249,26
276,26	1224,69
276,48	1243,12
276,69	1259,50
276,91	1214,45
277,12	1341,42
277,34	1257,45
277,55	1210,35
277,77	1322,99
277,99	1224,69
278,20	1329,13
278,42	1261,55
278,63	1325,04
278,85	1265,64
279,06	1327,08
279,28	1230,83
279,49	1230,83
279,71	1265,64
279,93	1275,88
280,14	1181,68
280,36	1253,36
280,57	1255,40
280,79	1234,93
281,00	1249,26
281,22	1366,00
281,43	1232,88
281,65	1257,45
281,86	1212,40
282,08	1292,27
282,29	1298,41
282,51	1304,56
282,73	1282,03
282,94	1253,36
283,16	1208,30
283,37	1271,79
283,59	1269,74
283,80	1232,88
284,02	1257,45
284,23	1243,12
284,45	1234,93
284,66	1263,60
284,88	1241,07
285,09	1339,37
285,31	1288,17
285,52	1245,16
285,74	1296,36
285,95	1177,58
286,17	1277,93
286,38	1337,32
286,60	1290,22
286,81	1265,64
287,03	1263,60
287,24	1306,60
287,46	1259,50
287,67	1224,69
287,89	1230,83
288,10	1302,51
288,32	1296,36
288,53	1212,40
288,75	1298,41
288,96	1249,26
289,18	1265,64
289,39	1269,74
289,61	1257,45
289,82	1290,22
290,04	1288,17
290,25	1247,21
290,47	1304,56
290,68	1277,93
290,90	1271,79
291,11	1314,80
291,33	1247,21
291,54	1298,41
291,76	1224,69
291,97	1214,45
292,18	1279,98
292,40	1322,99
292,61	1208,30
292,83	1302,51
293,04	1253,36
293,26	1292,27
293,47	1243,12
293,69	1247,21
293,90	1269,74
294,12	1318,89
294,33	1320,94
294,55	1253,36
294,76	1298,41
294,97	1259,50
295,19	1355,76
295,40	1232,88
295,62	1265,64
295,83	1327,08
296,05	1216,49
296,26	1304,56
296,48	1206,25
296,69	1329,13
296,90	1183,73
297,12	1245,16
297,33	1376,24
297,55	1271,79
297,76	1263,60
297,98	1220,59
298,19	1251,31
298,41	1251,31
298,62	1282,03
298,83	1341,42
299,05	1296,36
299,26	1265,64
299,48	1255,40
299,69	1320,94
299,90	1288,17
300,12	1230,83
300,33	1298,41
300,55	1234,93
300,76	1249,26
300,98	1290,22
301,19	1300,46
301,40	1294,32
301,62	1257,45
301,83	1267,69
302,05	1282,03
302,26	1261,55
302,47	1191,92
302,69	1267,69
302,90	1306,60
303,12	1302,51
303,33	1230,83
303,54	1218,54
303,76	1228,78
303,97	1302,51
304,19	1296,36
304,40	1277,93
304,61	1236,97
304,83	1271,79
305,04	1306,60
305,26	1236,97
305,47	1257,45
305,68	1236,97
305,90	1239,02
306,11	1269,74
306,33	1275,88
306,54	1189,87
306,75	1273,84
306,97	1216,49
307,18	1269,74
307,39	1296,36
307,61	1247,21
307,82	1241,07
308,04	1275,88
308,25	1269,74
308,46	1247,21
308,68	1327,08
308,89	1208,30
309,10	1271,79
309,32	1239,02
309,53	1230,83
309,74	1290,22
309,96	1259,50
310,17	1271,79
310,39	1202,16
310,60	1290,22
310,81	1271,79
311,03	1261,55
311,24	1308,65
311,45	1220,59
311,67	1284,08
311,88	1302,51
312,09	1308,65
312,31	1298,41
312,52	1306,60
312,73	1247,21
312,95	1257,45
313,16	1296,36
313,37	1251,31
313,59	1296,36
313,80	1251,31
314,01	1300,46
314,23	1331,18
314,44	1257,45
314,65	1282,03
314,87	1210,35
315,08	1236,97
315,29	1331,18
315,51	1232,88
315,72	1284,08
315,93	1275,88
316,15	1302,51
316,36	1279,98
316,57	1263,60
316,79	1241,07
317,00	1292,27
317,21	1277,93
317,43	1339,37
317,64	1232,88
317,85	1302,51
318,07	1290,22
318,28	1232,88
318,49	1318,89
318,70	1271,79
318,92	1282,03
319,13	1316,84
319,34	1284,08
319,56	1366,00
319,77	1212,40
319,98	1300,46
320,20	1212,40
320,41	1263,60
320,62	1140,72
320,83	1271,79
321,05	1214,45
321,26	1228,78
321,47	1249,26
321,69	1286,12
321,90	1253,36
322,11	1222,64
322,32	1288,17
322,54	1267,69
322,75	1263,60
322,96	1290,22
323,18	1232,88
323,39	1277,93
323,60	1279,98
323,81	1200,11
324,03	1239,02
324,24	1325,04
324,45	1341,42
324,66	1296,36
324,88	1193,97
325,09	1261,55
325,30	1269,74
325,52	1290,22
325,73	1290,22
325,94	1259,50
326,15	1245,16
326,37	1214,45
326,58	1269,74
326,79	1277,93
327,00	1282,03
327,22	1251,31
327,43	1220,59
327,64	1284,08
327,85	1277,93
328,07	1175,53
328,28	1277,93
328,49	1300,46
328,70	1232,88
328,92	1288,17
329,13	1314,80
329,34	1269,74
329,55	1228,78
329,76	1316,84
329,98	1273,84
330,19	1286,12
330,40	1243,12
330,61	1167,34
330,83	1320,94
331,04	1251,31
331,25	1267,69
331,46	1316,84
331,68	1275,88
331,89	1294,32
332,10	1306,60
332,31	1187,82
332,52	1284,08
332,74	1286,12
332,95	1320,94
333,16	1230,83
333,37	1234,93
333,58	1347,56
333,80	1251,31
334,01	1271,79
334,22	1271,79
334,43	1247,21
334,64	1372,14
334,86	1322,99
335,07	1284,08
335,28	1279,98
335,49	1218,54
335,70	1226,73
335,92	1294,32
336,13	1255,40
336,34	1232,88
336,55	1253,36
336,76	1224,69
336,98	1249,26
337,19	1277,93
337,40	1325,04
337,61	1273,84
337,82	1329,13
338,04	1255,40
338,25	1314,80
338,46	1279,98
338,67	1331,18
338,88	1298,41
339,09	1357,80
339,31	1247,21
339,52	1232,88
339,73	1212,40
339,94	1185,77
340,15	1257,45
340,36	1251,31
340,58	1267,69
340,79	1267,69
341,00	1261,55
341,21	1261,55
341,42	1306,60
341,63	1316,84
341,85	1318,89
342,06	1298,41
342,27	1292,27
342,48	1284,08
342,69	1228,78
342,90	1255,40
343,12	1251,31
343,33	1263,60
343,54	1284,08
343,75	1327,08
343,96	1322,99
344,17	1302,51
344,38	1284,08
344,60	1331,18
344,81	1128,43
345,02	1314,80
345,23	1249,26
345,44	1267,69
345,65	1329,13
345,86	1255,40
346,07	1318,89
346,29	1255,40
346,50	1267,69
346,71	1236,97
346,92	1271,79
347,13	1214,45
347,34	1257,45
347,55	1232,88
347,76	1277,93
347,98	1279,98
348,19	1249,26
348,40	1279,98
348,61	1261,55
348,82	1214,45
349,03	1234,93
349,24	1337,32
349,45	1314,80
349,66	1310,70
349,88	1273,84
350,09	1202,16
350,30	1284,08
350,51	1222,64
350,72	1339,37
350,93	1275,88
351,14	1216,49
351,35	1282,03
351,56	1335,28
351,77	1302,51
351,99	1218,54
352,20	1304,56
352,41	1267,69
352,62	1228,78
352,83	1263,60
353,04	1284,08
353,25	1196,01
353,46	1275,88
353,67	1284,08
353,88	1322,99
354,09	1322,99
354,30	1259,50
354,52	1273,84
354,73	1298,41
354,94	1179,63
355,15	1222,64
355,36	1304,56
355,57	1257,45
355,78	1200,11
355,99	1202,16
356,20	1257,45
356,41	1210,35
356,62	1249,26
356,83	1261,55
357,04	1243,12
357,25	1257,45
357,46	1255,40
357,68	1279,98
357,89	1322,99
358,10	1298,41
358,31	1290,22
358,52	1259,50
358,73	1228,78
358,94	1222,64
359,15	1279,98
359,36	1318,89
359,57	1265,64
359,78	1271,79
359,99	1316,84
360,20	1333,23
360,41	1277,93
360,62	1265,64
360,83	1241,07
361,04	1269,74
361,25	1243,12
361,46	1230,83
361,67	1331,18
361,88	1298,41
362,09	1214,45
362,30	1302,51
362,51	1193,97
362,72	1294,32
362,93	1189,87
363,14	1286,12
363,35	1277,93
363,56	1245,16
363,78	1239,02
363,99	1275,88
364,20	1273,84
364,41	1312,75
364,62	1312,75
364,83	1296,36
365,04	1228,78
365,25	1333,23
365,46	1275,88
365,67	1288,17
365,88	1198,06
366,09	1271,79
366,30	1314,80
366,51	1265,64
366,72	1191,92
366,93	1265,64
367,14	1304,56
367,35	1370,09
367,56	1318,89
367,77	1253,36
367,98	1239,02
368,18	1222,64
368,39	1322,99
368,60	1275,88
368,81	1286,12
369,02	1206,25
369,23	1288,17
369,44	1279,98
369,65	1232,88
369,86	1212,40
370,07	1239,02
370,28	1226,73
370,49	1282,03
370,70	1290,22
370,91	1226,73
371,12	1255,40
371,33	1292,27
371,54	1245,16
371,75	1230,83
371,96	1288,17
372,17	1277,93
372,38	1200,11
372,59	1210,35
372,80	1296,36
373,01	1292,27
373,22	1279,98
373,43	1271,79
373,64	1255,40
373,85	1306,60
374,06	1206,25
374,26	1288,17
374,47	1277,93
374,68	1202,16
374,89	1279,98
375,10	1265,64
375,31	1300,46
375,52	1224,69
375,73	1288,17
375,94	1275,88
376,15	1292,27
376,36	1269,74
376,57	1267,69
376,78	1226,73
376,99	1253,36
377,20	1337,32
377,40	1277,93
377,61	1206,25
377,82	1251,31
378,03	1157,10
378,24	1292,27
378,45	1273,84
378,66	1290,22
378,87	1292,27
379,08	1257,45
379,29	1241,07
379,50	1368,04
379,71	1269,74
379,91	1216,49
380,12	1249,26
380,33	1239,02
380,54	1265,64
380,75	1239,02
380,96	1273,84
381,17	1269,74
381,38	1228,78
381,59	1218,54
381,80	1277,93
382,00	1320,94
382,21	1261,55
382,42	1228,78
382,63	1308,65
382,84	1302,51
383,05	1236,97
383,26	1353,71
383,47	1357,80
383,68	1222,64
383,88	1232,88
384,09	1329,13
384,30	1267,69
384,51	1257,45
384,72	1290,22
384,93	1273,84
385,14	1298,41
385,35	1312,75
385,55	1296,36
385,76	1251,31
385,97	1288,17
386,18	1210,35
386,39	1306,60
386,60	1294,32
386,81	1273,84
387,02	1257,45
387,22	1286,12
387,43	1279,98
387,64	1306,60
387,85	1292,27
388,06	1142,77
388,27	1279,98
388,48	1214,45
388,68	1239,02
388,89	1226,73
389,10	1282,03
389,31	1226,73
389,52	1193,97
389,73	1298,41
389,93	1189,87
390,14	1232,88
390,35	1245,16
390,56	1292,27
390,77	1251,31
390,98	1298,41
391,18	1257,45
391,39	1308,65
391,60	1255,40
391,81	1288,17
392,02	1325,04
392,23	1316,84
392,43	1286,12
392,64	1253,36
392,85	1306,60
393,06	1351,66
393,27	1271,79
393,47	1271,79
393,68	1282,03
393,89	1257,45
394,10	1259,50
394,31	1228,78
394,52	1241,07
394,72	1308,65
394,93	1279,98
395,14	1232,88
395,35	1247,21
395,56	1320,94
395,76	1255,40
395,97	1257,45
396,18	1241,07
396,39	1212,40
396,60	1249,26
396,80	1198,06
397,01	1236,97
397,22	1183,73
397,43	1308,65
397,64	1247,21
397,84	1310,70
398,05	1261,55
398,26	1220,59
398,47	1249,26
398,67	1245,16
398,88	1310,70
399,09	1241,07
399,30	1241,07
399,51	1290,22
399,71	1245,16
399,92	1273,84
400,13	1296,36
400,34	1265,64
400,54	1232,88
400,75	1232,88
400,96	1185,77
401,17	1333,23
401,37	1208,30
401,58	1200,11
401,79	1267,69
402,00	1265,64
402,21	1282,03
402,41	1189,87
402,62	1263,60
402,83	1318,89
403,04	1220,59
403,24	1212,40
403,45	1230,83
403,66	1318,89
403,87	1290,22
404,07	1312,75
404,28	1200,11
404,49	1271,79
404,70	1325,04
404,90	1331,18
405,11	1228,78
405,32	1290,22
405,52	1255,40
405,73	1279,98
405,94	1232,88
406,15	1261,55
406,35	1183,73
406,56	1314,80
406,77	1363,95
406,98	1292,27
407,18	1251,31
407,39	1228,78
407,60	1228,78
407,80	1253,36
408,01	1302,51
408,22	1333,23
408,43	1245,16
408,63	1290,22
408,84	1265,64
409,05	1286,12
409,25	1288,17
409,46	1279,98
409,67	1230,83
409,88	1255,40
410,08	1284,08
410,29	1320,94
410,50	1241,07
410,70	1298,41
410,91	1218,54
411,12	1265,64
411,32	1216,49
411,53	1322,99
411,74	1269,74
411,95	1236,97
412,15	1218,54
412,36	1249,26
412,57	1243,12
412,77	1220,59
412,98	1247,21
413,19	1298,41
413,39	1302,51
413,60	1271,79
413,81	1286,12
414,01	1370,09
414,22	1234,93
414,43	1253,36
414,63	1279,98
414,84	1261,55
415,05	1271,79
415,25	1304,56
415,46	1220,59
415,67	1353,71
415,87	1314,80
416,08	1290,22
416,29	1204,21
416,49	1271,79
416,70	1284,08
416,91	1249,26
417,11	1247,21
417,32	1253,36
417,53	1314,80
417,73	1263,60
417,94	1271,79
418,15	1267,69
418,35	1265,64
418,56	1251,31
418,77	1247,21
418,97	1216,49
419,18	1216,49
419,38	1253,36
419,59	1298,41
419,80	1288,17
420,00	1232,88
420,21	1249,26
420,42	1306,60
420,62	1269,74
420,83	1247,21
421,04	1310,70
421,24	1251,31
421,45	1306,60
421,65	1273,84
421,86	1196,01
422,07	1298,41
422,27	1255,40
422,48	1214,45
422,69	1265,64
422,89	1208,30
423,10	1282,03
423,30	1275,88
423,51	1282,03
423,72	1269,74
423,92	1216,49
424,13	1263,60
424,33	1255,40
424,54	1232,88
424,75	1267,69
424,95	1241,07
425,16	1316,84
425,36	1320,94
425,57	1273,84
425,78	1239,02
425,98	1275,88
426,19	1165,29
426,39	1304,56
426,60	1251,31
426,81	1312,75
427,01	1261,55
427,22	1228,78
427,42	1290,22
427,63	1230,83
427,83	1288,17
428,04	1247,21
428,25	1294,32
428,45	1265,64
428,66	1241,07
428,86	1267,69
429,07	1212,40
429,28	1261,55
429,48	1249,26
429,69	1302,51
429,89	1374,19
430,10	1296,36
430,30	1193,97
430,51	1314,80
430,71	1230,83
430,92	1310,70
431,13	1249,26
431,33	1230,83
431,54	1286,12
431,74	1228,78
431,95	1269,74
432,15	1314,80
432,36	1306,60
432,56	1269,74
432,77	1245,16
432,98	1298,41
433,18	1232,88
433,39	1316,84
433,59	1232,88
433,80	1249,26
434,00	1230,83
434,21	1331,18
434,41	1165,29
434,62	1232,88
434,82	1251,31
435,03	1275,88
435,23	1284,08
435,44	1294,32
435,64	1245,16
435,85	1269,74
436,06	1316,84
436,26	1277,93
436,47	1243,12
436,67	1322,99
436,88	1257,45
437,08	1341,42
437,29	1322,99
437,49	1265,64
437,70	1230,83
437,90	1261,55
438,11	1257,45
438,31	1271,79
438,52	1230,83
438,72	1273,84
438,93	1275,88
439,13	1282,03
439,34	1271,79
439,54	1202,16
439,75	1322,99
439,95	1284,08
440,16	1337,32
440,36	1288,17
440,57	1300,46
440,77	1304,56
440,98	1210,35
441,18	1273,84
441,39	1279,98
441,59	1265,64
441,80	1265,64
442,00	1284,08
442,21	1298,41
442,41	1234,93
442,62	1245,16
442,82	1296,36
443,02	1269,74
443,23	1271,79
443,43	1339,37
443,64	1312,75
443,84	1282,03
444,05	1273,84
444,25	1294,32
444,46	1220,59
444,66	1230,83
444,87	1277,93
445,07	1288,17
445,28	1304,56
445,48	1298,41
445,69	1288,17
445,89	1257,45
446,09	1245,16
446,30	1261,55
446,50	1312,75
446,71	1275,88
446,91	1327,08
447,12	1290,22
447,32	1273,84
447,53	1279,98
447,73	1337,32
447,93	1243,12
448,14	1290,22
448,34	1267,69
448,55	1306,60
448,75	1269,74
448,96	1275,88
449,16	1232,88
449,36	1279,98
449,57	1239,02
449,77	1312,75
449,98	1312,75
450,18	1279,98
450,39	1314,80
450,59	1269,74
450,79	1228,78
451,00	1263,60
451,20	1181,68
451,41	1286,12
451,61	1247,21
451,81	1249,26
452,02	1286,12
452,22	1236,97
452,43	1302,51
452,63	1277,93
452,84	1302,51
453,04	1232,88
453,24	1216,49
453,45	1257,45
453,65	1273,84
453,86	1243,12
454,06	1306,60
454,26	1329,13
454,47	1232,88
454,67	1318,89
454,87	1249,26
455,08	1302,51
455,28	1193,97
455,49	1312,75
455,69	1218,54
455,89	1347,56
456,10	1241,07
456,30	1390,57
456,51	1269,74
456,71	1325,04
456,91	1251,31
457,12	1327,08
457,32	1314,80
457,52	1294,32
457,73	1282,03
457,93	1308,65
458,14	1327,08
458,34	1341,42
458,54	1208,30
458,75	1249,26
458,95	1257,45
459,15	1200,11
459,36	1308,65
459,56	1298,41
459,76	1267,69
459,97	1243,12
460,17	1312,75
460,37	1284,08
460,58	1224,69
460,78	1357,80
460,99	1216,49
461,19	1290,22
461,39	1253,36
461,60	1286,12
461,80	1290,22
462,00	1198,06
462,21	1253,36
462,41	1357,80
462,61	1294,32
462,82	1298,41
463,02	1226,73
463,22	1218,54
463,43	1294,32
463,63	1267,69
463,83	1263,60
464,04	1255,40
464,24	1316,84
464,44	1300,46
464,64	1243,12
464,85	1181,68
465,05	1300,46
465,25	1236,97
465,46	1290,22
465,66	1312,75
465,86	1284,08
466,07	1294,32
466,27	1245,16
466,47	1277,93
466,68	1282,03
466,88	1349,61
467,08	1359,85
467,29	1269,74
467,49	1273,84
467,69	1310,70
467,89	1224,69
468,10	1245,16
468,30	1177,58
468,50	1355,76
468,71	1275,88
468,91	1204,21
469,11	1288,17
469,31	1304,56
469,52	1261,55
469,72	1308,65
469,92	1308,65
470,13	1296,36
470,33	1267,69
470,53	1249,26
470,73	1232,88
470,94	1247,21
471,14	1249,26
471,34	1265,64
471,54	1259,50
471,75	1325,04
471,95	1339,37
472,15	1236,97
472,36	1234,93
472,56	1239,02
472,76	1277,93
472,96	1259,50
473,17	1243,12
473,37	1271,79
473,57	1241,07
473,77	1327,08
473,98	1212,40
474,18	1243,12
474,38	1259,50
474,58	1290,22
474,79	1234,93
474,99	1222,64
475,19	1304,56
475,39	1300,46
475,60	1308,65
475,80	1210,35
476,00	1300,46
476,20	1249,26
476,41	1357,80
476,61	1243,12
476,81	1314,80
477,01	1236,97
477,21	1288,17
477,42	1304,56
477,62	1243,12
477,82	1306,60
478,02	1273,84
478,23	1228,78
478,43	1331,18
478,63	1304,56
478,83	1271,79
479,03	1322,99
479,24	1288,17
479,44	1347,56
479,64	1273,84
479,84	1320,94
480,04	1249,26
480,25	1208,30
480,45	1228,78
480,65	1271,79
480,85	1331,18
481,06	1318,89
481,26	1265,64
481,46	1224,69
481,66	1239,02
481,86	1255,40
482,06	1269,74
482,27	1294,32
482,47	1263,60
482,67	1300,46
482,87	1230,83
483,07	1284,08
483,28	1175,53
483,48	1257,45
483,68	1212,40
483,88	1292,27
484,08	1277,93
484,29	1327,08
484,49	1253,36
484,69	1214,45
484,89	1310,70
485,09	1245,16
485,29	1296,36
485,50	1304,56
485,70	1308,65
485,90	1259,50
486,10	1288,17
486,30	1261,55
486,50	1341,42
486,71	1198,06
486,91	1282,03
487,11	1241,07
487,31	1310,70
487,51	1296,36
487,71	1318,89
487,91	1322,99
488,12	1304,56
488,32	1259,50
488,52	1284,08
488,72	1232,88
488,92	1286,12
489,12	1208,30
489,32	1300,46
489,53	1316,84
489,73	1257,45
489,93	1339,37
490,13	1284,08
490,33	1273,84
490,53	1267,69
490,73	1259,50
490,94	1249,26
491,14	1306,60
491,34	1267,69
491,54	1273,84
491,74	1271,79
491,94	1292,27
492,14	1224,69
492,34	1290,22
492,54	1282,03
492,75	1306,60
492,95	1232,88
493,15	1306,60
493,35	1275,88
493,55	1259,50
493,75	1230,83
493,95	1269,74
494,15	1277,93
494,35	1304,56
494,56	1263,60
494,76	1263,60
494,96	1349,61
495,16	1257,45
495,36	1259,50
495,56	1277,93
495,76	1251,31
495,96	1261,55
496,16	1277,93
496,36	1273,84
496,56	1247,21
496,77	1277,93
496,97	1247,21
497,17	1228,78
497,37	1239,02
497,57	1331,18
497,77	1341,42
497,97	1341,42
498,17	1265,64
498,37	1265,64
498,57	1275,88
498,77	1290,22
498,97	1302,51
499,17	1322,99
499,38	1236,97
499,58	1259,50
499,78	1241,07
499,98	1249,26
500,18	1202,16
500,38	1245,16
500,58	1261,55
500,78	1292,27
500,98	1224,69
501,18	1282,03
501,38	1284,08
501,58	1255,40
501,78	1259,50
501,98	1257,45
502,18	1296,36
502,38	1320,94
502,58	1273,84
502,78	1251,31
502,98	1261,55
503,18	1353,71
503,38	1275,88
503,59	1345,52
503,79	1234,93
503,99	1325,04
504,19	1327,08
504,39	1314,80
504,59	1292,27
504,79	1253,36
504,99	1292,27
505,19	1322,99
505,39	1284,08
505,59	1325,04
505,79	1265,64
505,99	1288,17
506,19	1204,21
506,39	1290,22
506,59	1200,11
506,79	1304,56
506,99	1306,60
507,19	1232,88
507,39	1241,07
507,59	1277,93
507,79	1247,21
507,99	1216,49
508,19	1265,64
508,39	1320,94
508,59	1318,89
508,79	1331,18
508,99	1275,88
509,19	1255,40
509,39	1279,98
509,59	1239,02
509,79	1263,60
509,99	1273,84
510,19	1292,27
510,39	1331,18
510,59	1253,36
510,79	1208,30
510,99	1247,21
511,19	1298,41
511,39	1210,35
511,59	1198,06
511,79	1296,36
511,99	1337,32
512,19	1306,60
512,38	1230,83
512,58	1314,80
512,78	1251,31
512,98	1241,07
513,18	1232,88
513,38	1292,27
513,58	1239,02
513,78	1284,08
513,98	1208,30
514,18	1261,55
514,38	1259,50
514,58	1318,89
514,78	1304,56
514,98	1267,69
515,18	1196,01
515,38	1286,12
515,58	1339,37
515,78	1359,85
515,98	1249,26
516,18	1316,84
516,38	1263,60
516,57	1230,83
516,77	1284,08
516,97	1325,04
517,17	1269,74
517,37	1296,36
517,57	1312,75
517,77	1265,64
517,97	1232,88
518,17	1263,60
518,37	1271,79
518,57	1267,69
518,77	1345,52
518,97	1279,98
519,16	1298,41
519,36	1282,03
519,56	1282,03
519,76	1269,74
519,96	1193,97
520,16	1273,84
520,36	1302,51
520,56	1292,27
520,76	1290,22
520,96	1228,78
521,16	1341,42
521,35	1241,07
521,55	1218,54
521,75	1224,69
521,95	1277,93
522,15	1159,15
522,35	1314,80
522,55	1302,51
522,75	1294,32
522,95	1243,12
523,14	1271,79
523,34	1273,84
523,54	1257,45
523,74	1257,45
523,94	1298,41
524,14	1277,93
524,34	1347,56
524,54	1239,02
524,73	1269,74
524,93	1282,03
525,13	1259,50
525,33	1312,75
525,53	1255,40
525,73	1347,56
525,93	1288,17
526,13	1302,51
526,32	1302,51
526,52	1265,64
526,72	1298,41
526,92	1257,45
527,12	1263,60
527,32	1304,56
527,52	1263,60
527,71	1333,23
527,91	1216,49
528,11	1296,36
528,31	1302,51
528,51	1296,36
528,71	1288,17
528,90	1208,30
529,10	1247,21
529,30	1243,12
529,50	1304,56
529,70	1259,50
529,90	1267,69
530,09	1288,17
530,29	1302,51
530,49	1236,97
530,69	1312,75
530,89	1222,64
531,09	1327,08
531,28	1296,36
531,48	1314,80
531,68	1241,07
531,88	1279,98
532,08	1212,40
532,28	1247,21
532,47	1259,50
532,67	1275,88
532,87	1271,79
533,07	1247,21
533,27	1351,66
533,46	1302,51
533,66	1261,55
533,86	1259,50
534,06	1343,47
534,26	1269,74
534,45	1286,12
534,65	1232,88
534,85	1298,41
535,05	1288,17
535,25	1273,84
535,44	1232,88
535,64	1251,31
535,84	1279,98
536,04	1312,75
536,24	1318,89
536,43	1335,28
536,63	1214,45
536,83	1234,93
537,03	1257,45
537,22	1279,98
537,42	1296,36
537,62	1318,89
537,82	1263,60
538,02	1279,98
538,21	1277,93
538,41	1279,98
538,61	1294,32
538,81	1230,83
539,00	1282,03
539,20	1277,93
539,40	1282,03
539,60	1341,42
539,79	1359,85
539,99	1368,04
540,19	1265,64
540,39	1302,51
540,58	1355,76
540,78	1218,54
540,98	1286,12
541,18	1333,23
541,37	1216,49
541,57	1327,08
541,77	1320,94
541,97	1368,04
542,16	1216,49
542,36	1286,12
542,56	1322,99
542,76	1255,40
542,95	1187,82
543,15	1320,94
543,35	1312,75
543,54	1296,36
543,74	1351,66
543,94	1234,93
544,14	1265,64
544,33	1269,74
544,53	1327,08
544,73	1273,84
544,93	1220,59
545,12	1290,22
545,32	1261,55
545,52	1216,49
545,71	1353,71
545,91	1298,41
546,11	1282,03
546,30	1308,65
546,50	1282,03
546,70	1255,40
546,90	1306,60
547,09	1236,97
547,29	1298,41
547,49	1290,22
547,68	1345,52
547,88	1296,36
548,08	1275,88
548,27	1288,17
548,47	1273,84
548,67	1183,73
548,87	1267,69
549,06	1273,84
549,26	1284,08
549,46	1282,03
549,65	1353,71
549,85	1298,41
550,05	1312,75
550,24	1318,89
550,44	1288,17
550,64	1361,90
550,83	1331,18
551,03	1253,36
551,23	1327,08
551,42	1318,89
551,62	1269,74
551,82	1224,69
552,01	1271,79
552,21	1290,22
552,41	1308,65
552,60	1269,74
552,80	1337,32
553,00	1263,60
553,19	1249,26
553,39	1236,97
553,59	1271,79
553,78	1253,36
553,98	1243,12
554,17	1234,93
554,37	1232,88
554,57	1253,36
554,76	1249,26
554,96	1208,30
555,16	1259,50
555,35	1275,88
555,55	1241,07
555,75	1230,83
555,94	1314,80
556,14	1318,89
556,33	1327,08
556,53	1279,98
556,73	1282,03
556,92	1288,17
557,12	1322,99
557,32	1290,22
557,51	1232,88
557,71	1335,28
557,90	1333,23
558,10	1275,88
558,30	1290,22
558,49	1331,18
558,69	1273,84
558,88	1294,32
559,08	1279,98
559,28	1394,67
559,47	1232,88
559,67	1243,12
559,86	1249,26
560,06	1294,32
560,26	1290,22
560,45	1320,94
560,65	1189,87
560,84	1273,84
561,04	1189,87
561,24	1337,32
561,43	1294,32
561,63	1286,12
561,82	1263,60
562,02	1294,32
562,22	1333,23
562,41	1230,83
562,61	1234,93
562,80	1327,08
563,00	1314,80
563,19	1249,26
563,39	1290,22
563,59	1247,21
563,78	1257,45
563,98	1249,26
564,17	1355,76
564,37	1241,07
564,56	1259,50
564,76	1318,89
564,96	1267,69
565,15	1275,88
565,35	1380,33
565,54	1284,08
565,74	1288,17
565,93	1261,55
566,13	1275,88
566,32	1228,78
566,52	1196,01
566,71	1265,64
566,91	1312,75
567,11	1302,51
567,30	1288,17
567,50	1284,08
567,69	1331,18
567,89	1269,74
568,08	1277,93
568,28	1243,12
568,47	1226,73
568,67	1312,75
568,86	1359,85
569,06	1257,45
569,25	1241,07
569,45	1322,99
569,64	1257,45
569,84	1284,08
570,04	1318,89
570,23	1239,02
570,43	1263,60
570,62	1300,46
570,82	1218,54
571,01	1290,22
571,21	1284,08
571,40	1290,22
571,60	1173,49
571,79	1286,12
571,99	1329,13
572,18	1296,36
572,38	1363,95
572,57	1191,92
572,77	1218,54
572,96	1263,60
573,16	1253,36
573,35	1286,12
573,55	1271,79
573,74	1261,55
573,94	1257,45
574,13	1249,26
574,33	1351,66
574,52	1300,46
574,71	1333,23
574,91	1275,88
575,10	1341,42
575,30	1253,36
575,49	1220,59
575,69	1239,02
575,88	1335,28
576,08	1261,55
576,27	1214,45
576,47	1202,16
576,66	1265,64
576,86	1282,03
577,05	1298,41
577,25	1241,07
577,44	1320,94
577,64	1261,55
577,83	1226,73
578,02	1306,60
578,22	1277,93
578,41	1212,40
578,61	1306,60
578,80	1355,76
579,00	1296,36
579,19	1232,88
579,39	1220,59
579,58	1222,64
579,77	1355,76
579,97	1243,12
580,16	1290,22
580,36	1327,08
580,55	1318,89
580,75	1273,84
580,94	1261,55
581,13	1265,64
581,33	1282,03
581,52	1261,55
581,72	1261,55
581,91	1277,93
582,11	1290,22
582,30	1255,40
582,49	1269,74
582,69	1224,69
582,88	1310,70
583,08	1314,80
583,27	1234,93
583,47	1286,12
583,66	1304,56
583,85	1300,46
584,05	1284,08
584,24	1257,45
584,44	1275,88
584,63	1290,22
584,82	1306,60
585,02	1224,69
585,21	1304,56
585,41	1290,22
585,60	1255,40
585,79	1343,47
585,99	1249,26
586,18	1202,16
586,37	1261,55
586,57	1232,88
586,76	1236,97
586,96	1277,93
587,15	1368,04
587,34	1247,21
587,54	1302,51
587,73	1341,42
587,93	1347,56
588,12	1304,56
588,31	1372,14
588,51	1273,84
588,70	1327,08
588,89	1261,55
589,09	1271,79
589,28	1312,75
589,47	1308,65
589,67	1273,84
589,86	1316,84
590,06	1331,18
590,25	1290,22
590,44	1275,88
590,64	1312,75
590,83	1277,93
591,02	1220,59
591,22	1288,17
591,41	1288,17
591,60	1275,88
591,80	1257,45
591,99	1228,78
592,18	1257,45
592,38	1302,51
592,57	1226,73
592,76	1257,45
592,96	1286,12
593,15	1263,60
593,34	1288,17
593,54	1275,88
593,73	1271,79
593,92	1279,98
594,12	1312,75
594,31	1249,26
594,50	1318,89
594,70	1282,03
594,89	1265,64
595,08	1259,50
595,28	1298,41
595,47	1294,32
595,66	1310,70
595,86	1298,41
596,05	1234,93
596,24	1339,37
596,43	1304,56
596,63	1183,73
596,82	1249,26
597,01	1230,83
597,21	1312,75
597,40	1255,40
597,59	1243,12
597,79	1257,45
597,98	1261,55
598,17	1269,74
598,36	1318,89
598,56	1263,60
598,75	1259,50
598,94	1290,22
599,14	1282,03
599,33	1204,21
599,52	1329,13
599,71	1257,45
599,91	1325,04
600,10	1353,71
600,29	1198,06
600,48	1292,27
600,68	1292,27
600,87	1251,31
601,06	1267,69
601,26	1271,79
601,45	1247,21
601,64	1273,84
601,83	1275,88
602,03	1290,22
602,22	1296,36
602,41	1230,83
602,60	1322,99
602,80	1302,51
602,99	1312,75
603,18	1279,98
603,37	1234,93
603,57	1318,89
603,76	1312,75
603,95	1245,16
604,14	1296,36
604,34	1263,60
604,53	1314,80
604,72	1267,69
604,91	1273,84
605,10	1298,41
605,30	1279,98
605,49	1169,39
605,68	1232,88
605,87	1234,93
606,07	1316,84
606,26	1224,69
606,45	1228,78
606,64	1347,56
606,84	1245,16
607,03	1347,56
607,22	1345,52
607,41	1296,36
607,60	1255,40
607,80	1245,16
607,99	1314,80
608,18	1320,94
608,37	1331,18
608,56	1173,49
608,76	1218,54
608,95	1327,08
609,14	1279,98
609,33	1234,93
609,52	1308,65
609,72	1333,23
609,91	1279,98
610,10	1306,60
610,29	1329,13
610,48	1279,98
610,68	1329,13
610,87	1259,50
611,06	1271,79
611,25	1253,36
611,44	1273,84
611,63	1218,54
611,83	1267,69
612,02	1263,60
612,21	1351,66
612,40	1273,84
612,59	1304,56
612,79	1327,08
612,98	1251,31
613,17	1327,08
613,36	1304,56
613,55	1255,40
613,74	1239,02
613,93	1284,08
614,13	1257,45
614,32	1245,16
614,51	1275,88
614,70	1322,99
614,89	1259,50
615,08	1314,80
615,28	1261,55
615,47	1308,65
615,66	1314,80
615,85	1335,28
616,04	1333,23
616,23	1279,98
616,42	1279,98
616,62	1251,31
616,81	1296,36
617,00	1273,84
617,19	1290,22
617,38	1298,41
617,57	1200,11
617,76	1288,17
617,95	1208,30
618,15	1316,84
618,34	1322,99
618,53	1277,93
618,72	1335,28
618,91	1261,55
619,10	1263,60
619,29	1249,26
619,48	1228,78
619,68	1271,79
619,87	1241,07
620,06	1333,23
620,25	1261,55
620,44	1308,65
620,63	1290,22
620,82	1228,78
621,01	1273,84
621,20	1265,64
621,39	1263,60
621,59	1216,49
621,78	1288,17
621,97	1294,32
622,16	1288,17
622,35	1259,50
622,54	1339,37
622,73	1236,97
622,92	1259,50
623,11	1349,61
623,30	1249,26
623,49	1265,64
623,68	1271,79
623,88	1265,64
624,07	1310,70
624,26	1249,26
624,45	1331,18
624,64	1253,36
624,83	1189,87
625,02	1269,74
625,21	1279,98
625,40	1247,21
625,59	1286,12
625,78	1327,08
625,97	1216,49
626,16	1265,64
626,35	1333,23
626,54	1290,22
626,74	1277,93
626,93	1320,94
627,12	1363,95
627,31	1345,52
627,50	1279,98
627,69	1302,51
627,88	1282,03
628,07	1335,28
628,26	1322,99
628,45	1302,51
628,64	1234,93
628,83	1296,36
629,02	1298,41
629,21	1343,47
629,40	1339,37
629,59	1359,85
629,78	1288,17
629,97	1304,56
630,16	1259,50
630,35	1292,27
630,54	1261,55
630,73	1271,79
630,92	1230,83
631,11	1279,98
631,30	1347,56
631,49	1247,21
631,68	1302,51
631,87	1572,84
632,06	1877,99
632,25	1556,46
632,44	1701,86
632,63	2068,45
632,82	2387,93
633,01	5517,23
633,20	5271,47
633,39	3985,35
633,58	2080,74
633,77	3061,71
633,96	6092,71
634,15	6993,81
634,34	5648,30
634,53	3997,64
634,72	2688,98
634,91	2088,93
635,10	1738,73
635,29	1613,80
635,48	1570,79
635,67	1597,42
635,86	1474,54
636,05	1497,07
636,24	1447,91
636,43	1337,32
636,62	1370,09
636,81	1376,24
637,00	1269,74
637,19	1368,04
637,38	1322,99
637,57	1273,84
637,76	1345,52
637,95	1241,07
638,14	1286,12
638,33	1357,80
638,52	1282,03
638,71	1249,26
638,89	1310,70
639,08	1396,71
639,27	1310,70
639,46	1282,03
639,65	1331,18
639,84	1306,60
640,03	1316,84
640,22	1325,04
640,41	1288,17
640,60	1304,56
640,79	1331,18
640,98	1363,95
641,17	1327,08
641,36	1312,75
641,55	1310,70
641,74	1255,40
641,92	1265,64
642,11	1292,27
642,30	1257,45
642,49	1318,89
642,68	1247,21
642,87	1298,41
643,06	1286,12
643,25	1329,13
643,44	1208,30
643,63	1312,75
643,82	1249,26
644,00	1206,25
644,19	1304,56
644,38	1331,18
644,57	1347,56
644,76	1273,84
644,95	1251,31
645,14	1306,60
645,33	1288,17
645,52	1282,03
645,71	1345,52
645,89	1327,08
646,08	1273,84
646,27	1224,69
646,46	1296,36
646,65	1284,08
646,84	1363,95
647,03	1208,30
647,22	1318,89
647,40	1300,46
647,59	1251,31
647,78	1214,45
647,97	1277,93
648,16	1241,07
648,35	1320,94
648,54	1318,89
648,73	1226,73
648,91	1263,60
649,10	1249,26
649,29	1333,23
649,48	1290,22
649,67	1234,93
649,86	1333,23
650,05	1308,65
650,23	1282,03
650,42	1247,21
650,61	1339,37
650,80	1208,30
650,99	1271,79
651,18	1279,98
651,36	1327,08
651,55	1267,69
651,74	1294,32
651,93	1232,88
652,12	1302,51
652,31	1282,03
652,49	1269,74
652,68	1333,23
652,87	1314,80
653,06	1230,83
653,25	1331,18
653,44	1275,88
653,62	1290,22
653,81	1327,08
654,00	1275,88
654,19	1318,89
654,38	1343,47
654,56	1335,28
654,75	1333,23
654,94	1253,36
655,13	1314,80
655,32	1259,50
655,51	1265,64
655,69	1251,31
655,88	1292,27
656,07	1320,94
656,26	1343,47
656,45	1234,93
656,63	1339,37
656,82	1236,97
657,01	1216,49
657,20	1294,32
657,38	1320,94
657,57	1255,40
657,76	1308,65
657,95	1314,80
658,14	1255,40
658,32	1316,84
658,51	1292,27
658,70	1302,51
658,89	1265,64
659,08	1288,17
659,26	1282,03
659,45	1212,40
659,64	1355,76
659,83	1261,55
660,01	1343,47
660,20	1224,69
660,39	1275,88
660,58	1212,40
660,76	1243,12
660,95	1298,41
661,14	1279,98
661,33	1249,26
661,51	1255,40
661,70	1329,13
661,89	1304,56
662,08	1282,03
662,26	1304,56
662,45	1234,93
662,64	1304,56
662,83	1269,74
663,01	1314,80
663,20	1363,95
663,39	1243,12
663,58	1224,69
663,76	1269,74
663,95	1253,36
664,14	1239,02
664,32	1243,12
664,51	1243,12
664,70	1259,50
664,89	1183,73
665,07	1312,75
665,26	1206,25
665,45	1296,36
665,64	1220,59
665,82	1257,45
666,01	1302,51
666,20	1255,40
666,38	1296,36
666,57	1277,93
666,76	1302,51
666,95	1257,45
667,13	1312,75
667,32	1306,60
667,51	1257,45
667,69	1271,79
667,88	1271,79
668,07	1271,79
668,25	1275,88
668,44	1294,32
668,63	1241,07
668,81	1339,37
669,00	1228,78
669,19	1255,40
669,38	1228,78
669,56	1185,77
669,75	1292,27
669,94	1255,40
670,12	1226,73
670,31	1316,84
670,50	1236,97
670,68	1306,60
670,87	1232,88
671,06	1277,93
671,24	1193,97
671,43	1325,04
671,62	1265,64
671,80	1286,12
671,99	1259,50
672,18	1279,98
672,36	1290,22
672,55	1253,36
672,74	1314,80
672,92	1179,63
673,11	1290,22
673,29	1243,12
673,48	1296,36
673,67	1228,78
673,85	1224,69
674,04	1259,50
674,23	1322,99
674,41	1228,78
674,60	1296,36
674,79	1232,88
674,97	1308,65
675,16	1241,07
675,34	1343,47
675,53	1306,60
675,72	1292,27
675,90	1236,97
676,09	1243,12
676,28	1265,64
676,46	1296,36
676,65	1277,93
676,83	1290,22
677,02	1347,56
677,21	1320,94
677,39	1279,98
677,58	1243,12
677,77	1236,97
677,95	1273,84
678,14	1253,36
678,32	1271,79
678,51	1269,74
678,70	1265,64
678,88	1191,92
679,07	1306,60
679,25	1339,37
679,44	1269,74
679,63	1277,93
679,81	1228,78
680,00	1243,12
680,18	1314,80
680,37	1273,84
680,55	1185,77
680,74	1298,41
680,93	1257,45
681,11	1253,36
681,30	1251,31
681,48	1300,46
681,67	1228,78
681,85	1316,84
682,04	1253,36
682,23	1279,98
682,41	1335,28
682,60	1302,51
682,78	1296,36
682,97	1312,75
683,15	1265,64
683,34	1261,55
683,53	1249,26
683,71	1329,13
683,90	1279,98
684,08	1220,59
684,27	1226,73
684,45	1232,88
684,64	1290,22
684,82	1216,49
685,01	1325,04
685,19	1234,93
685,38	1261,55
685,57	1298,41
685,75	1146,86
685,94	1265,64
686,12	1316,84
686,31	1271,79
686,49	1277,93
686,68	1212,40
686,86	1253,36
687,05	1239,02
687,23	1253,36
687,42	1327,08
687,60	1290,22
687,79	1263,60
687,97	1316,84
688,16	1277,93
688,34	1306,60
688,53	1294,32
688,71	1259,50
688,90	1331,18
689,08	1247,21
689,27	1306,60
689,45	1216,49
689,64	1292,27
689,82	1300,46
690,01	1290,22
690,19	1212,40
690,38	1290,22
690,56	1279,98
690,75	1286,12
690,93	1306,60
691,12	1226,73
691,30	1366,00
691,49	1302,51
691,67	1230,83
691,86	1306,60
692,04	1331,18
692,23	1249,26
692,41	1261,55
692,60	1322,99
692,78	1226,73
692,97	1286,12
693,15	1236,97
693,34	1212,40
693,52	1232,88
693,71	1245,16
693,89	1212,40
694,08	1282,03
694,26	1298,41
694,44	1325,04
694,63	1286,12
694,81	1269,74
695,00	1230,83
695,18	1304,56
695,37	1247,21
695,55	1232,88
695,74	1193,97
695,92	1267,69
696,10	1325,04
696,29	1255,40
696,47	1251,31
696,66	1304,56
696,84	1296,36
697,03	1265,64
697,21	1292,27
697,40	1265,64
697,58	1282,03
697,76	1282,03
697,95	1257,45
698,13	1304,56
698,32	1296,36
698,50	1257,45
698,68	1308,65
698,87	1320,94
699,05	1290,22
699,24	1193,97
699,42	1302,51
699,61	1333,23
699,79	1269,74
699,97	1306,60
700,16	1318,89
700,34	1241,07
700,53	1288,17
700,71	1239,02
700,89	1253,36
701,08	1230,83
701,26	1353,71
701,45	1290,22
701,63	1273,84
701,81	1265,64
702,00	1236,97
702,18	1251,31
702,37	1243,12
702,55	1259,50
702,73	1345,52
702,92	1318,89
703,10	1290,22
703,28	1216,49
703,47	1284,08
703,65	1259,50
703,84	1279,98
704,02	1359,85
704,20	1251,31
704,39	1232,88
704,57	1263,60
704,75	1353,71
704,94	1271,79
705,12	1269,74
705,30	1216,49
705,49	1222,64
705,67	1255,40
705,86	1286,12
706,04	1241,07
706,22	1298,41
706,41	1279,98
706,59	1243,12
706,77	1208,30
706,96	1251,31
707,14	1251,31
707,32	1320,94
707,51	1304,56
707,69	1230,83
707,87	1298,41
708,06	1298,41
708,24	1320,94
708,42	1249,26
708,61	1273,84
708,79	1269,74
708,97	1300,46
709,16	1267,69
709,34	1290,22
709,52	1253,36
709,71	1265,64
709,89	1327,08
710,07	1257,45
710,26	1241,07
710,44	1310,70
710,62	1218,54
710,80	1249,26
710,99	1312,75
711,17	1255,40
711,35	1245,16
711,54	1304,56
711,72	1234,93
711,90	1308,65
712,09	1279,98
712,27	1214,45
712,45	1216,49
712,63	1288,17
712,82	1296,36
713,00	1304,56
713,18	1249,26
713,37	1218,54
713,55	1267,69
713,73	1304,56
713,91	1296,36
714,10	1273,84
714,28	1314,80
714,46	1202,16
714,65	1288,17
714,83	1239,02
715,01	1296,36
715,19	1265,64
715,38	1279,98
715,56	1322,99
715,74	1284,08
715,92	1255,40
716,11	1322,99
716,29	1257,45
716,47	1304,56
716,65	1200,11
716,84	1241,07
717,02	1196,01
717,20	1257,45
717,38	1210,35
717,57	1279,98
717,75	1189,87
717,93	1284,08
718,11	1263,60
718,30	1224,69
718,48	1249,26
718,66	1277,93
718,84	1263,60
719,03	1232,88
719,21	1347,56
719,39	1275,88
719,57	1261,55
719,75	1320,94
719,94	1302,51
720,12	1236,97
720,30	1331,18
720,48	1296,36
720,67	1314,80
720,85	1189,87
721,03	1249,26
721,21	1191,92
721,39	1318,89
721,58	1263,60
721,76	1265,64
721,94	1243,12
722,12	1331,18
722,30	1251,31
722,49	1273,84
722,67	1251,31
722,85	1288,17
723,03	1286,12
723,21	1277,93
723,40	1144,81
723,58	1357,80
723,76	1277,93
723,94	1312,75
724,12	1247,21
724,30	1282,03
724,49	1236,97
724,67	1290,22
724,85	1286,12
725,03	1331,18
725,21	1275,88
725,40	1228,78
725,58	1286,12
725,76	1228,78
725,94	1253,36
726,12	1239,02
726,30	1263,60
726,49	1175,53
726,67	1265,64
726,85	1267,69
727,03	1277,93
727,21	1300,46
727,39	1333,23
727,57	1312,75
727,76	1300,46
727,94	1312,75
728,12	1290,22
728,30	1214,45
728,48	1322,99
728,66	1314,80
728,84	1206,25
729,03	1247,21
729,21	1261,55
729,39	1263,60
729,57	1257,45
729,75	1269,74
729,93	1251,31
730,11	1292,27
730,30	1269,74
730,48	1298,41
730,66	1249,26
730,84	1343,47
731,02	1228,78
731,20	1191,92
731,38	1273,84
731,56	1279,98
731,74	1230,83
731,93	1257,45
732,11	1353,71
732,29	1327,08
732,47	1251,31
732,65	1282,03
732,83	1247,21
733,01	1290,22
733,19	1259,50
733,37	1339,37
733,56	1259,50
733,74	1308,65
733,92	1210,35
734,10	1255,40
734,28	1255,40
734,46	1288,17
734,64	1290,22
734,82	1234,93
735,00	1300,46
735,18	1257,45
735,36	1253,36
735,54	1275,88
735,73	1241,07
735,91	1275,88
736,09	1232,88
736,27	1206,25
736,45	1282,03
736,63	1208,30
736,81	1302,51
736,99	1247,21
737,17	1230,83
737,35	1259,50
737,53	1273,84
737,71	1241,07
737,89	1236,97
738,07	1366,00
738,25	1245,16
738,43	1247,21
738,61	1241,07
738,80	1290,22
738,98	1249,26
739,16	1249,26
739,34	1273,84
739,52	1329,13
739,70	1236,97
739,88	1273,84
740,06	1300,46
740,24	1210,35
740,42	1241,07
740,60	1212,40
740,78	1296,36
740,96	1226,73
741,14	1200,11
741,32	1314,80
741,50	1214,45
741,68	1236,97
741,86	1265,64
742,04	1304,56
742,22	1310,70
742,40	1253,36
742,58	1257,45
742,76	1204,21
742,94	1277,93
743,12	1282,03
743,30	1335,28
743,48	1318,89
743,66	1224,69
743,84	1275,88
744,02	1277,93
744,20	1384,43
744,38	1269,74
744,56	1302,51
744,74	1249,26
744,92	1220,59
745,10	1236,97
745,28	1302,51
745,46	1218,54
745,64	1243,12
745,82	1261,55
746,00	1165,29
746,18	1261,55
746,36	1222,64
746,54	1222,64
746,72	1267,69
746,90	1308,65
747,08	1273,84
747,26	1296,36
747,44	1214,45
747,62	1318,89
747,80	1279,98
747,98	1245,16
748,15	1273,84
748,33	1302,51
748,51	1249,26
748,69	1249,26
748,87	1224,69
749,05	1241,07
749,23	1216,49
749,41	1212,40
749,59	1327,08
749,77	1306,60
749,95	1249,26
750,13	1273,84
750,31	1269,74
750,49	1257,45
750,67	1253,36
750,85	1306,60
751,03	1245,16
751,20	1298,41
751,38	1310,70
751,56	1265,64
751,74	1249,26
751,92	1306,60
752,10	1222,64
752,28	1302,51
752,46	1232,88
752,64	1249,26
752,82	1247,21
753,00	1255,40
753,18	1273,84
753,35	1284,08
753,53	1251,31
753,71	1251,31
753,89	1232,88
754,07	1253,36
754,25	1282,03
754,43	1253,36
754,61	1306,60
754,79	1361,90
754,97	1232,88
755,14	1294,32
755,32	1243,12
755,50	1167,34
755,68	1288,17
755,86	1306,60
756,04	1245,16
756,22	1230,83
756,40	1275,88
756,57	1255,40
756,75	1308,65
756,93	1318,89
757,11	1259,50
757,29	1241,07
757,47	1232,88
757,65	1243,12
757,82	1279,98
758,00	1251,31
758,18	1286,12
758,36	1316,84
758,54	1241,07
758,72	1298,41
758,90	1265,64
759,07	1267,69
759,25	1263,60
759,43	1261,55
759,61	1331,18
759,79	1318,89
759,97	1265,64
760,15	1196,01
760,32	1267,69
760,50	1296,36
760,68	1173,49
760,86	1257,45
761,04	1320,94
761,22	1304,56
761,39	1185,77
761,57	1310,70
761,75	1273,84
761,93	1247,21
762,11	1247,21
762,28	1316,84
762,46	1265,64
762,64	1277,93
762,82	1247,21
763,00	1310,70
763,18	1312,75
763,35	1261,55
763,53	1267,69
763,71	1202,16
763,89	1255,40
764,07	1206,25
764,24	1347,56
764,42	1282,03
764,60	1335,28
764,78	1253,36
764,96	1255,40
765,13	1302,51
765,31	1236,97
765,49	1241,07
765,67	1279,98
765,84	1198,06
766,02	1251,31
766,20	1284,08
766,38	1247,21
766,56	1310,70
766,73	1255,40
766,91	1226,73
767,09	1351,66
767,27	1302,51
767,44	1282,03
767,62	1282,03
767,80	1329,13
767,98	1273,84
768,15	1282,03
768,33	1251,31
768,51	1357,80
768,69	1255,40
768,87	1331,18
769,04	1234,93
769,22	1325,04
769,40	1202,16
769,58	1290,22
769,75	1322,99
769,93	1208,30
770,11	1245,16
770,28	1316,84
770,46	1234,93
770,64	1261,55
770,82	1265,64
770,99	1208,30
771,17	1277,93
771,35	1257,45
771,53	1218,54
771,70	1306,60
771,88	1253,36
772,06	1265,64
772,23	1232,88
772,41	1247,21
772,59	1300,46
772,77	1288,17
772,94	1200,11
773,12	1320,94
773,30	1306,60
773,47	1226,73
773,65	1282,03
773,83	1310,70
774,01	1165,29
774,18	1359,85
774,36	1308,65
774,54	1263,60
774,71	1296,36
774,89	1312,75
775,07	1234,93
775,24	1212,40
775,42	1239,02
775,60	1261,55
775,78	1228,78
775,95	1257,45
776,13	1247,21
776,31	1288,17
776,48	1198,06
776,66	1249,26
776,84	1263,60
777,01	1247,21
777,19	1243,12
777,37	1275,88
777,54	1214,45
777,72	1271,79
777,90	1257,45
778,07	1236,97
778,25	1249,26
778,43	1290,22
778,60	1298,41
778,78	1212,40
778,96	1304,56
779,13	1282,03
779,31	1230,83
779,49	1226,73
779,66	1273,84
779,84	1200,11
780,01	1310,70
780,19	1357,80
780,37	1155,05
780,54	1294,32
780,72	1253,36
780,90	1255,40
781,07	1331,18
781,25	1263,60
781,43	1249,26
781,60	1339,37
781,78	1261,55
781,95	1228,78
782,13	1275,88
782,31	1249,26
782,48	1189,87
782,66	1282,03
782,83	1277,93
783,01	1247,21
783,19	1249,26
783,36	1288,17
783,54	1257,45
783,72	1320,94
783,89	1243,12
784,07	1224,69
784,24	1335,28
784,42	1259,50
784,60	1302,51
784,77	1335,28
784,95	1198,06
785,12	1294,32
785,30	1185,77
785,47	1208,30
785,65	1265,64
785,83	1249,26
786,00	1306,60
786,18	1273,84
786,35	1275,88
786,53	1282,03
786,71	1269,74
786,88	1243,12
787,06	1302,51
787,23	1196,01
787,41	1316,84
787,58	1314,80
787,76	1277,93
787,94	1196,01
788,11	1325,04
788,29	1277,93
788,46	1245,16
788,64	1253,36
788,81	1259,50
788,99	1253,36
789,16	1204,21
789,34	1236,97
789,52	1253,36
789,69	1284,08
789,87	1220,59
790,04	1249,26
790,22	1286,12
790,39	1265,64
790,57	1298,41
790,74	1380,33
790,92	1236,97
791,09	1279,98
791,27	1312,75
791,44	1292,27
791,62	1236,97
791,79	1226,73
791,97	1243,12
792,15	1265,64
792,32	1294,32
792,50	1290,22
792,67	1232,88
792,85	1296,36
793,02	1243,12
793,20	1239,02
793,37	1230,83
793,55	1284,08
793,72	1247,21
793,90	1275,88
794,07	1325,04
794,25	1294,32
794,42	1261,55
794,60	1292,27
794,77	1267,69
794,95	1247,21
795,12	1322,99
795,30	1279,98
795,47	1302,51
795,65	1286,12
795,82	1241,07
796,00	1300,46
796,17	1322,99
796,34	1296,36
796,52	1288,17
796,69	1269,74
796,87	1288,17
797,04	1290,22
797,22	1282,03
797,39	1267,69
797,57	1322,99
797,74	1230,83
797,92	1273,84
798,09	1279,98
798,27	1239,02
798,44	1271,79
798,62	1265,64
798,79	1322,99
798,96	1230,83
799,14	1310,70
799,31	1312,75
799,49	1257,45
799,66	1275,88
799,84	1279,98
800,01	1255,40
800,19	1247,21
800,36	1257,45
800,53	1271,79
800,71	1273,84
800,88	1306,60
801,06	1304,56
801,23	1232,88
801,41	1310,70
801,58	1275,88
801,75	1198,06
801,93	1249,26
802,10	1294,32
802,28	1253,36
802,45	1214,45
802,63	1308,65
802,80	1232,88
802,97	1251,31
803,15	1253,36
803,32	1271,79
803,50	1245,16
803,67	1206,25
803,84	1296,36
804,02	1265,64
804,19	1292,27
804,37	1300,46
804,54	1372,14
804,71	1261,55
804,89	1312,75
805,06	1222,64
805,24	1267,69
805,41	1273,84
805,58	1261,55
805,76	1302,51
805,93	1212,40
806,10	1228,78
806,28	1265,64
806,45	1193,97
806,63	1214,45
806,80	1290,22
806,97	1269,74
807,15	1249,26
807,32	1288,17
807,49	1267,69
807,67	1263,60
807,84	1284,08
808,01	1296,36
808,19	1208,30
808,36	1263,60
808,54	1273,84
808,71	1245,16
808,88	1228,78
809,06	1251,31
809,23	1247,21
809,40	1226,73
809,58	1282,03
809,75	1257,45
809,92	1292,27
810,10	1228,78
810,27	1232,88
810,44	1224,69
810,62	1325,04
810,79	1304,56
810,96	1253,36
811,14	1214,45
811,31	1298,41
811,48	1259,50
811,66	1273,84
811,83	1279,98
812,00	1308,65
812,18	1193,97
812,35	1275,88
812,52	1259,50
812,69	1288,17
812,87	1253,36
813,04	1290,22
813,21	1269,74
813,39	1191,92
813,56	1249,26
813,73	1249,26
813,91	1245,16
814,08	1224,69
814,25	1239,02
814,42	1261,55
814,60	1277,93
814,77	1251,31
814,94	1263,60
815,12	1312,75
815,29	1286,12
815,46	1275,88
815,63	1273,84
815,81	1296,36
815,98	1290,22
816,15	1255,40
816,33	1288,17
816,50	1234,93
816,67	1232,88
816,84	1239,02
817,02	1302,51
817,19	1249,26
817,36	1191,92
817,53	1251,31
817,71	1267,69
817,88	1204,21
818,05	1228,78
818,22	1308,65
818,40	1347,56
818,57	1187,82
818,74	1353,71
818,91	1282,03
819,09	1351,66
819,26	1251,31
819,43	1300,46
819,60	1245,16
819,78	1204,21
819,95	1310,70
820,12	1269,74
820,29	1261,55
820,47	1265,64
820,64	1241,07
820,81	1300,46
820,98	1255,40
821,15	1308,65
821,33	1230,83
821,50	1259,50
821,67	1314,80
821,84	1279,98
822,02	1292,27
822,19	1234,93
822,36	1269,74
822,53	1181,68
822,70	1284,08
822,88	1249,26
823,05	1275,88
823,22	1249,26
823,39	1288,17
823,56	1269,74
823,74	1300,46
823,91	1333,23
824,08	1249,26
824,25	1251,31
824,42	1316,84
824,60	1316,84
824,77	1314,80
824,94	1298,41
825,11	1247,21
825,28	1224,69
825,45	1288,17
825,63	1337,32
825,80	1273,84
825,97	1255,40
826,14	1298,41
826,31	1259,50
826,48	1249,26
826,66	1216,49
826,83	1277,93
827,00	1275,88
827,17	1261,55
827,34	1279,98
827,51	1230,83
827,69	1257,45
827,86	1245,16
828,03	1300,46
828,20	1245,16
828,37	1169,39
828,54	1292,27
828,71	1290,22
828,89	1253,36
829,06	1230,83
829,23	1310,70
829,40	1255,40
829,57	1337,32
829,74	1230,83
829,91	1296,36
830,09	1265,64
830,26	1261,55
830,43	1263,60
830,60	1161,20
830,77	1273,84
830,94	1325,04
831,11	1279,98
831,28	1239,02
831,46	1228,78
831,63	1173,49
831,80	1243,12
831,97	1353,71
832,14	1279,98
832,31	1300,46
832,48	1263,60
832,65	1247,21
832,82	1277,93
832,99	1300,46
833,17	1288,17
833,34	1247,21
833,51	1232,88
833,68	1253,36
833,85	1249,26
834,02	1300,46
834,19	1308,65
834,36	1347,56
834,53	1253,36
834,70	1224,69
834,87	1286,12
835,04	1310,70
835,22	1265,64
835,39	1284,08
835,56	1234,93
835,73	1234,93
835,90	1300,46
836,07	1265,64
836,24	1312,75
836,41	1288,17
836,58	1247,21
836,75	1257,45
836,92	1247,21
837,09	1189,87
837,26	1294,32
837,43	1275,88
837,60	1257,45
837,77	1286,12
837,94	1308,65
838,12	1288,17
838,29	1255,40
838,46	1302,51
838,63	1292,27
838,80	1175,53
838,97	1236,97
839,14	1273,84
839,31	1339,37
839,48	1239,02
839,65	1249,26
839,82	1224,69
839,99	1359,85
840,16	1196,01
840,33	1253,36
840,50	1236,97
840,67	1222,64
840,84	1249,26
841,01	1339,37
841,18	1306,60
841,35	1302,51
841,52	1329,13
841,69	1286,12
841,86	1284,08
842,03	1251,31
842,20	1279,98
842,37	1308,65
842,54	1247,21
842,71	1290,22
842,88	1226,73
843,05	1193,97
843,22	1257,45
843,39	1204,21
843,56	1212,40
843,73	1239,02
843,90	1187,82
844,07	1257,45
844,24	1232,88
844,41	1277,93
844,58	1257,45
844,75	1216,49
844,92	1218,54
845,09	1241,07
845,26	1249,26
845,43	1286,12
845,60	1300,46
845,77	1298,41
845,94	1273,84
846,10	1269,74
846,27	1267,69
846,44	1263,60
846,61	1335,28
846,78	1191,92
846,95	1316,84
847,12	1224,69
847,29	1204,21
847,46	1216,49
847,63	1316,84
847,80	1239,02
847,97	1232,88
848,14	1255,40
848,31	1255,40
848,48	1202,16
848,65	1290,22
848,82	1261,55
848,98	1271,79
849,15	1284,08
849,32	1308,65
849,49	1288,17
849,66	1249,26
849,83	1245,16
850,00	1267,69
850,17	1271,79
850,34	1288,17
850,51	1228,78
850,68	1290,22
850,85	1255,40
851,01	1306,60
851,18	1284,08
851,35	1255,40
851,52	1275,88
851,69	1296,36
851,86	1302,51
852,03	1234,93
852,20	1292,27
852,37	1277,93
852,53	1263,60
852,70	1273,84
852,87	1263,60
853,04	1302,51
853,21	1236,97
853,38	1282,03
853,55	1298,41
853,72	1257,45
853,89	1163,25
854,05	1296,36
854,22	1298,41
854,39	1259,50
854,56	1175,53
854,73	1255,40
854,90	1257,45
855,07	1271,79
855,23	1290,22
855,40	1193,97
855,57	1236,97
855,74	1277,93
855,91	1249,26
856,08	1220,59
856,25	1236,97
856,41	1208,30
856,58	1249,26
856,75	1302,51
856,92	1249,26
857,09	1318,89
857,26	1216,49
857,42	1243,12
857,59	1245,16
857,76	1308,65
857,93	1261,55
858,10	1298,41
858,27	1251,31
858,43	1257,45
858,60	1228,78
858,77	1236,97
858,94	1200,11
859,11	1296,36
859,27	1245,16
859,44	1265,64
859,61	1269,74
859,78	1306,60
859,95	1228,78
860,12	1347,56
860,28	1232,88
860,45	1245,16
860,62	1255,40
860,79	1200,11
860,95	1273,84
861,12	1249,26
861,29	1214,45
861,46	1288,17
861,63	1306,60
861,79	1208,30
861,96	1239,02
862,13	1216,49
862,30	1296,36
862,47	1306,60
862,63	1282,03
862,80	1298,41
862,97	1257,45
863,14	1284,08
863,30	1259,50
863,47	1286,12
863,64	1247,21
863,81	1206,25
863,97	1302,51
864,14	1257,45
864,31	1292,27
864,48	1298,41
864,65	1298,41
864,81	1200,11
864,98	1255,40
865,15	1263,60
865,32	1325,04
865,48	1265,64
865,65	1279,98
865,82	1314,80
865,98	1263,60
866,15	1320,94
866,32	1251,31
866,49	1300,46
866,65	1267,69
866,82	1159,15
866,99	1177,58
867,16	1282,03
867,32	1243,12
867,49	1271,79
867,66	1200,11
867,83	1329,13
867,99	1275,88
868,16	1327,08
868,33	1247,21
868,49	1290,22
868,66	1263,60
868,83	1230,83
868,99	1241,07
869,16	1269,74
869,33	1265,64
869,50	1263,60
869,66	1267,69
869,83	1200,11
870,00	1294,32
870,16	1253,36
870,33	1236,97
870,50	1296,36
870,66	1282,03
870,83	1292,27
871,00	1228,78
871,17	1271,79
871,33	1247,21
871,50	1253,36
871,67	1245,16
871,83	1269,74
872,00	1206,25
872,17	1302,51
872,33	1279,98
872,50	1269,74
872,67	1294,32
872,83	1300,46
873,00	1249,26
873,17	1273,84
873,33	1249,26
873,50	1277,93
873,67	1312,75
873,83	1312,75
874,00	1239,02
874,16	1265,64
874,33	1261,55
874,50	1232,88
874,66	1310,70
874,83	1294,32
875,00	1298,41
875,16	1300,46
875,33	1290,22
875,50	1263,60
875,66	1249,26
875,83	1298,41
875,99	1314,80
876,16	1282,03
876,33	1312,75
876,49	1261,55
876,66	1265,64
876,83	1249,26
876,99	1253,36
877,16	1273,84
877,32	1196,01
877,49	1220,59
877,66	1337,32
877,82	1288,17
877,99	1210,35
878,15	1308,65
878,32	1271,79
878,49	1292,27
878,65	1255,40
878,82	1265,64
878,98	1212,40
879,15	1284,08
879,32	1212,40
879,48	1208,30
879,65	1292,27
879,81	1257,45
879,98	1206,25
880,15	1292,27
880,31	1249,26
880,48	1277,93
880,64	1279,98
880,81	1245,16
880,97	1253,36
881,14	1298,41
881,31	1236,97
881,47	1290,22
881,64	1286,12
881,80	1284,08
881,97	1234,93
882,13	1298,41
882,30	1187,82
882,47	1239,02
882,63	1232,88
882,80	1277,93
882,96	1245,16
883,13	1318,89
883,29	1279,98
883,46	1245,16
883,62	1249,26
883,79	1206,25
883,95	1271,79
884,12	1206,25
884,29	1253,36
884,45	1189,87
884,62	1243,12
884,78	1277,93
884,95	1286,12
885,11	1249,26
885,28	1257,45
885,44	1251,31
885,61	1239,02
885,77	1304,56
885,94	1243,12
886,10	1304,56
886,27	1288,17
886,43	1253,36
886,60	1251,31
886,76	1155,05
886,93	1320,94
887,09	1327,08
887,26	1304,56
887,42	1212,40
887,59	1282,03
887,75	1212,40
887,92	1263,60
888,08	1269,74
888,25	1294,32
888,41	1267,69
888,58	1306,60
888,74	1267,69
888,91	1298,41
>>>>>End Processed Spectral Data<<<<<
