SpectraSuite Data File
++++++++++++++++++++++++++++++++++++
Date: Sun Apr 03 19:55:14 CEST 2016
User: root
Dark Spectrum Present: No
Reference Spectrum Present: No
Number of Sampled Component Spectra: 1
Spectrometers: USB4C02835
Integration Time (usec): 10000 (USB4C02835)
Spectra Averaged: 1 (USB4C02835)
Boxcar Smoothing: 0 (USB4C02835)
Correct for Electrical Dark: No (USB4C02835)
Strobe/Lamp Enabled: No (USB4C02835)
Correct for Detector Non-linearity: No (USB4C02835)
Correct for Stray Light: No (USB4C02835)
Number of Pixels in Processed Spectrum: 3648
>>>>>Begin Processed Spectral Data<<<<<
177,47	1259,50
177,69	1259,50
177,91	1259,50
178,13	1208,30
178,36	1290,22
178,58	1251,31
178,80	1298,41
179,02	1193,97
179,24	1249,26
179,46	1277,93
179,68	1290,22
179,90	1257,45
180,13	1245,16
180,35	1157,10
180,57	1216,49
180,79	1222,64
181,01	1222,64
181,23	1249,26
181,45	1220,59
181,67	1310,70
181,90	1249,26
182,12	1277,93
182,34	1247,21
182,56	1251,31
182,78	1243,12
183,00	1261,55
183,22	1222,64
183,44	1279,98
183,66	1224,69
183,89	1366,00
184,11	1245,16
184,33	1304,56
184,55	1294,32
184,77	1263,60
184,99	1243,12
185,21	1257,45
185,43	1277,93
185,65	1191,92
185,87	1261,55
186,10	1290,22
186,32	1333,23
186,54	1269,74
186,76	1261,55
186,98	1271,79
187,20	1255,40
187,42	1298,41
187,64	1193,97
187,86	1290,22
188,08	1200,11
188,30	1275,88
188,52	1234,93
188,75	1320,94
188,97	1304,56
189,19	1318,89
189,41	1234,93
189,63	1230,83
189,85	1249,26
190,07	1333,23
190,29	1294,32
190,51	1284,08
190,73	1284,08
190,95	1304,56
191,17	1320,94
191,39	1210,35
191,61	1222,64
191,84	1257,45
192,06	1245,16
192,28	1273,84
192,50	1251,31
192,72	1277,93
192,94	1208,30
193,16	1273,84
193,38	1255,40
193,60	1271,79
193,82	1263,60
194,04	1200,11
194,26	1265,64
194,48	1288,17
194,70	1279,98
194,92	1282,03
195,14	1191,92
195,36	1292,27
195,58	1234,93
195,80	1206,25
196,02	1269,74
196,24	1261,55
196,46	1284,08
196,69	1288,17
196,91	1273,84
197,13	1277,93
197,35	1261,55
197,57	1251,31
197,79	1224,69
198,01	1245,16
198,23	1300,46
198,45	1275,88
198,67	1282,03
198,89	1255,40
199,11	1261,55
199,33	1288,17
199,55	1312,75
199,77	1228,78
199,99	1241,07
200,21	1329,13
200,43	1312,75
200,65	1320,94
200,87	1296,36
201,09	1384,43
201,31	1269,74
201,53	1306,60
201,75	1290,22
201,97	1245,16
202,19	1271,79
202,41	1259,50
202,63	1212,40
202,85	1216,49
203,07	1263,60
203,29	1261,55
203,51	1230,83
203,73	1253,36
203,95	1329,13
204,17	1222,64
204,39	1273,84
204,61	1175,53
204,83	1286,12
205,05	1236,97
205,27	1261,55
205,49	1296,36
205,71	1296,36
205,93	1372,14
206,15	1261,55
206,37	1257,45
206,59	1222,64
206,81	1222,64
207,03	1224,69
207,25	1216,49
207,47	1298,41
207,69	1271,79
207,91	1292,27
208,13	1282,03
208,34	1224,69
208,56	1314,80
208,78	1290,22
209,00	1212,40
209,22	1304,56
209,44	1294,32
209,66	1368,04
209,88	1261,55
210,10	1255,40
210,32	1286,12
210,54	1267,69
210,76	1282,03
210,98	1331,18
211,20	1243,12
211,42	1263,60
211,64	1228,78
211,86	1277,93
212,08	1230,83
212,30	1261,55
212,52	1171,44
212,74	1308,65
212,96	1284,08
213,17	1255,40
213,39	1257,45
213,61	1296,36
213,83	1294,32
214,05	1273,84
214,27	1284,08
214,49	1288,17
214,71	1288,17
214,93	1290,22
215,15	1239,02
215,37	1247,21
215,59	1224,69
215,81	1308,65
216,03	1273,84
216,24	1304,56
216,46	1269,74
216,68	1286,12
216,90	1249,26
217,12	1275,88
217,34	1298,41
217,56	1290,22
217,78	1329,13
218,00	1314,80
218,22	1249,26
218,44	1304,56
218,66	1204,21
218,87	1243,12
219,09	1298,41
219,31	1296,36
219,53	1255,40
219,75	1296,36
219,97	1271,79
220,19	1271,79
220,41	1259,50
220,63	1269,74
220,85	1220,59
221,06	1322,99
221,28	1298,41
221,50	1224,69
221,72	1310,70
221,94	1232,88
222,16	1245,16
222,38	1286,12
222,60	1300,46
222,82	1226,73
223,03	1232,88
223,25	1304,56
223,47	1337,32
223,69	1333,23
223,91	1228,78
224,13	1290,22
224,35	1267,69
224,57	1335,28
224,78	1302,51
225,00	1243,12
225,22	1294,32
225,44	1267,69
225,66	1241,07
225,88	1247,21
226,10	1292,27
226,32	1322,99
226,53	1226,73
226,75	1230,83
226,97	1337,32
227,19	1316,84
227,41	1263,60
227,63	1282,03
227,85	1222,64
228,06	1251,31
228,28	1290,22
228,50	1312,75
228,72	1185,77
228,94	1259,50
229,16	1341,42
229,37	1269,74
229,59	1310,70
229,81	1249,26
230,03	1310,70
230,25	1275,88
230,47	1241,07
230,69	1245,16
230,90	1263,60
231,12	1331,18
231,34	1273,84
231,56	1269,74
231,78	1273,84
232,00	1183,73
232,21	1247,21
232,43	1265,64
232,65	1286,12
232,87	1269,74
233,09	1257,45
233,30	1212,40
233,52	1218,54
233,74	1282,03
233,96	1306,60
234,18	1232,88
234,40	1222,64
234,61	1306,60
234,83	1257,45
235,05	1239,02
235,27	1271,79
235,49	1288,17
235,70	1220,59
235,92	1296,36
236,14	1183,73
236,36	1329,13
236,58	1222,64
236,79	1339,37
237,01	1210,35
237,23	1306,60
237,45	1290,22
237,67	1226,73
237,88	1275,88
238,10	1247,21
238,32	1214,45
238,54	1255,40
238,76	1282,03
238,97	1294,32
239,19	1286,12
239,41	1294,32
239,63	1277,93
239,85	1300,46
240,06	1306,60
240,28	1331,18
240,50	1187,82
240,72	1249,26
240,93	1290,22
241,15	1282,03
241,37	1267,69
241,59	1284,08
241,81	1265,64
242,02	1331,18
242,24	1271,79
242,46	1245,16
242,68	1284,08
242,89	1304,56
243,11	1341,42
243,33	1226,73
243,55	1286,12
243,76	1245,16
243,98	1279,98
244,20	1257,45
244,42	1259,50
244,64	1259,50
244,85	1273,84
245,07	1294,32
245,29	1247,21
245,51	1206,25
245,72	1300,46
245,94	1331,18
246,16	1335,28
246,38	1316,84
246,59	1282,03
246,81	1247,21
247,03	1341,42
247,24	1232,88
247,46	1284,08
247,68	1286,12
247,90	1257,45
248,11	1275,88
248,33	1239,02
248,55	1279,98
248,77	1243,12
248,98	1222,64
249,20	1204,21
249,42	1282,03
249,64	1300,46
249,85	1245,16
250,07	1279,98
250,29	1265,64
250,50	1286,12
250,72	1253,36
250,94	1241,07
251,16	1265,64
251,37	1286,12
251,59	1200,11
251,81	1234,93
252,02	1296,36
252,24	1308,65
252,46	1216,49
252,68	1314,80
252,89	1251,31
253,11	1286,12
253,33	1222,64
253,54	1290,22
253,76	1306,60
253,98	1249,26
254,20	1296,36
254,41	1249,26
254,63	1243,12
254,85	1261,55
255,06	1259,50
255,28	1302,51
255,50	1193,97
255,71	1228,78
255,93	1187,82
256,15	1304,56
256,36	1257,45
256,58	1226,73
256,80	1171,44
257,02	1241,07
257,23	1325,04
257,45	1208,30
257,67	1306,60
257,88	1181,68
258,10	1318,89
258,32	1212,40
258,53	1306,60
258,75	1257,45
258,97	1284,08
259,18	1271,79
259,40	1247,21
259,62	1196,01
259,83	1236,97
260,05	1314,80
260,27	1253,36
260,48	1284,08
260,70	1263,60
260,92	1234,93
261,13	1273,84
261,35	1224,69
261,57	1271,79
261,78	1298,41
262,00	1253,36
262,22	1320,94
262,43	1282,03
262,65	1196,01
262,86	1312,75
263,08	1230,83
263,30	1286,12
263,51	1236,97
263,73	1277,93
263,95	1247,21
264,16	1212,40
264,38	1191,92
264,60	1335,28
264,81	1257,45
265,03	1327,08
265,25	1265,64
265,46	1255,40
265,68	1208,30
265,89	1271,79
266,11	1212,40
266,33	1271,79
266,54	1320,94
266,76	1327,08
266,98	1251,31
267,19	1290,22
267,41	1286,12
267,62	1230,83
267,84	1310,70
268,06	1257,45
268,27	1245,16
268,49	1241,07
268,70	1265,64
268,92	1275,88
269,14	1232,88
269,35	1284,08
269,57	1206,25
269,79	1306,60
270,00	1191,92
270,22	1228,78
270,43	1241,07
270,65	1298,41
270,87	1196,01
271,08	1306,60
271,30	1228,78
271,51	1292,27
271,73	1261,55
271,95	1327,08
272,16	1263,60
272,38	1327,08
272,59	1300,46
272,81	1322,99
273,02	1245,16
273,24	1284,08
273,46	1273,84
273,67	1220,59
273,89	1261,55
274,10	1251,31
274,32	1218,54
274,54	1318,89
274,75	1241,07
274,97	1277,93
275,18	1288,17
275,40	1298,41
275,61	1263,60
275,83	1267,69
276,05	1284,08
276,26	1255,40
276,48	1288,17
276,69	1155,05
276,91	1284,08
277,12	1245,16
277,34	1187,82
277,55	1298,41
277,77	1304,56
277,99	1357,80
278,20	1275,88
278,42	1171,44
278,63	1222,64
278,85	1265,64
279,06	1288,17
279,28	1302,51
279,49	1308,65
279,71	1290,22
279,93	1216,49
280,14	1220,59
280,36	1251,31
280,57	1357,80
280,79	1363,95
281,00	1306,60
281,22	1257,45
281,43	1302,51
281,65	1253,36
281,86	1200,11
282,08	1286,12
282,29	1284,08
282,51	1275,88
282,73	1259,50
282,94	1212,40
283,16	1282,03
283,37	1259,50
283,59	1275,88
283,80	1298,41
284,02	1220,59
284,23	1216,49
284,45	1239,02
284,66	1273,84
284,88	1267,69
285,09	1318,89
285,31	1316,84
285,52	1306,60
285,74	1249,26
285,95	1302,51
286,17	1214,45
286,38	1316,84
286,60	1189,87
286,81	1310,70
287,03	1245,16
287,24	1343,47
287,46	1308,65
287,67	1374,19
287,89	1277,93
288,10	1241,07
288,32	1265,64
288,53	1335,28
288,75	1300,46
288,96	1290,22
289,18	1261,55
289,39	1310,70
289,61	1267,69
289,82	1318,89
290,04	1261,55
290,25	1325,04
290,47	1253,36
290,68	1206,25
290,90	1218,54
291,11	1239,02
291,33	1277,93
291,54	1255,40
291,76	1222,64
291,97	1255,40
292,18	1304,56
292,40	1353,71
292,61	1247,21
292,83	1314,80
293,04	1243,12
293,26	1247,21
293,47	1234,93
293,69	1294,32
293,90	1327,08
294,12	1261,55
294,33	1234,93
294,55	1239,02
294,76	1312,75
294,97	1269,74
295,19	1306,60
295,40	1314,80
295,62	1312,75
295,83	1230,83
296,05	1228,78
296,26	1279,98
296,48	1273,84
296,69	1228,78
296,90	1300,46
297,12	1247,21
297,33	1253,36
297,55	1261,55
297,76	1243,12
297,98	1261,55
298,19	1257,45
298,41	1298,41
298,62	1265,64
298,83	1337,32
299,05	1257,45
299,26	1267,69
299,48	1296,36
299,69	1298,41
299,90	1290,22
300,12	1275,88
300,33	1288,17
300,55	1286,12
300,76	1284,08
300,98	1284,08
301,19	1284,08
301,40	1245,16
301,62	1292,27
301,83	1314,80
302,05	1249,26
302,26	1249,26
302,47	1331,18
302,69	1224,69
302,90	1212,40
303,12	1228,78
303,33	1236,97
303,54	1200,11
303,76	1288,17
303,97	1230,83
304,19	1212,40
304,40	1271,79
304,61	1257,45
304,83	1333,23
305,04	1312,75
305,26	1212,40
305,47	1265,64
305,68	1232,88
305,90	1249,26
306,11	1241,07
306,33	1277,93
306,54	1284,08
306,75	1273,84
306,97	1304,56
307,18	1269,74
307,39	1247,21
307,61	1263,60
307,82	1236,97
308,04	1191,92
308,25	1210,35
308,46	1316,84
308,68	1218,54
308,89	1251,31
309,10	1261,55
309,32	1183,73
309,53	1345,52
309,74	1288,17
309,96	1277,93
310,17	1269,74
310,39	1277,93
310,60	1249,26
310,81	1304,56
311,03	1304,56
311,24	1259,50
311,45	1177,58
311,67	1277,93
311,88	1267,69
312,09	1269,74
312,31	1288,17
312,52	1310,70
312,73	1249,26
312,95	1292,27
313,16	1236,97
313,37	1279,98
313,59	1343,47
313,80	1273,84
314,01	1312,75
314,23	1273,84
314,44	1230,83
314,65	1257,45
314,87	1279,98
315,08	1310,70
315,29	1224,69
315,51	1269,74
315,72	1372,14
315,93	1241,07
316,15	1273,84
316,36	1286,12
316,57	1282,03
316,79	1337,32
317,00	1306,60
317,21	1228,78
317,43	1241,07
317,64	1322,99
317,85	1277,93
318,07	1179,63
318,28	1302,51
318,49	1263,60
318,70	1271,79
318,92	1267,69
319,13	1241,07
319,34	1236,97
319,56	1255,40
319,77	1247,21
319,98	1282,03
320,20	1257,45
320,41	1247,21
320,62	1247,21
320,83	1325,04
321,05	1267,69
321,26	1327,08
321,47	1247,21
321,69	1314,80
321,90	1134,57
322,11	1290,22
322,32	1337,32
322,54	1245,16
322,75	1243,12
322,96	1284,08
323,18	1214,45
323,39	1284,08
323,60	1298,41
323,81	1314,80
324,03	1251,31
324,24	1282,03
324,45	1282,03
324,66	1208,30
324,88	1318,89
325,09	1290,22
325,30	1298,41
325,52	1314,80
325,73	1290,22
325,94	1243,12
326,15	1267,69
326,37	1253,36
326,58	1222,64
326,79	1277,93
327,00	1228,78
327,22	1320,94
327,43	1298,41
327,64	1236,97
327,85	1257,45
328,07	1277,93
328,28	1273,84
328,49	1202,16
328,70	1232,88
328,92	1284,08
329,13	1241,07
329,34	1275,88
329,55	1267,69
329,76	1286,12
329,98	1288,17
330,19	1249,26
330,40	1206,25
330,61	1259,50
330,83	1210,35
331,04	1279,98
331,25	1298,41
331,46	1316,84
331,68	1314,80
331,89	1273,84
332,10	1306,60
332,31	1310,70
332,52	1236,97
332,74	1277,93
332,95	1255,40
333,16	1290,22
333,37	1142,77
333,58	1273,84
333,80	1228,78
334,01	1251,31
334,22	1247,21
334,43	1255,40
334,64	1316,84
334,86	1271,79
335,07	1325,04
335,28	1300,46
335,49	1249,26
335,70	1300,46
335,92	1282,03
336,13	1282,03
336,34	1257,45
336,55	1275,88
336,76	1279,98
336,98	1282,03
337,19	1261,55
337,40	1267,69
337,61	1279,98
337,82	1300,46
338,04	1253,36
338,25	1345,52
338,46	1249,26
338,67	1355,76
338,88	1292,27
339,09	1200,11
339,31	1241,07
339,52	1193,97
339,73	1247,21
339,94	1269,74
340,15	1187,82
340,36	1247,21
340,58	1349,61
340,79	1339,37
341,00	1290,22
341,21	1267,69
341,42	1286,12
341,63	1253,36
341,85	1277,93
342,06	1298,41
342,27	1337,32
342,48	1318,89
342,69	1273,84
342,90	1241,07
343,12	1294,32
343,33	1302,51
343,54	1193,97
343,75	1247,21
343,96	1335,28
344,17	1239,02
344,38	1216,49
344,60	1271,79
344,81	1212,40
345,02	1255,40
345,23	1355,76
345,44	1302,51
345,65	1245,16
345,86	1304,56
346,07	1249,26
346,29	1269,74
346,50	1282,03
346,71	1198,06
346,92	1279,98
347,13	1282,03
347,34	1259,50
347,55	1208,30
347,76	1232,88
347,98	1286,12
348,19	1259,50
348,40	1241,07
348,61	1241,07
348,82	1247,21
349,03	1228,78
349,24	1265,64
349,45	1288,17
349,66	1312,75
349,88	1284,08
350,09	1277,93
350,30	1318,89
350,51	1265,64
350,72	1241,07
350,93	1286,12
351,14	1249,26
351,35	1265,64
351,56	1269,74
351,77	1327,08
351,99	1273,84
352,20	1261,55
352,41	1296,36
352,62	1241,07
352,83	1230,83
353,04	1255,40
353,25	1216,49
353,46	1255,40
353,67	1263,60
353,88	1239,02
354,09	1302,51
354,30	1275,88
354,52	1239,02
354,73	1310,70
354,94	1273,84
355,15	1228,78
355,36	1253,36
355,57	1241,07
355,78	1234,93
355,99	1257,45
356,20	1314,80
356,41	1212,40
356,62	1259,50
356,83	1279,98
357,04	1222,64
357,25	1304,56
357,46	1310,70
357,68	1284,08
357,89	1218,54
358,10	1279,98
358,31	1304,56
358,52	1263,60
358,73	1267,69
358,94	1236,97
359,15	1218,54
359,36	1200,11
359,57	1255,40
359,78	1200,11
359,99	1257,45
360,20	1269,74
360,41	1282,03
360,62	1214,45
360,83	1275,88
361,04	1306,60
361,25	1200,11
361,46	1267,69
361,67	1259,50
361,88	1345,52
362,09	1296,36
362,30	1261,55
362,51	1261,55
362,72	1232,88
362,93	1249,26
363,14	1288,17
363,35	1271,79
363,56	1198,06
363,78	1292,27
363,99	1320,94
364,20	1216,49
364,41	1228,78
364,62	1296,36
364,83	1271,79
365,04	1265,64
365,25	1257,45
365,46	1302,51
365,67	1196,01
365,88	1214,45
366,09	1288,17
366,30	1263,60
366,51	1236,97
366,72	1275,88
366,93	1284,08
367,14	1314,80
367,35	1247,21
367,56	1300,46
367,77	1282,03
367,98	1306,60
368,18	1277,93
368,39	1261,55
368,60	1228,78
368,81	1261,55
369,02	1253,36
369,23	1210,35
369,44	1292,27
369,65	1202,16
369,86	1245,16
370,07	1288,17
370,28	1335,28
370,49	1193,97
370,70	1255,40
370,91	1253,36
371,12	1263,60
371,33	1271,79
371,54	1239,02
371,75	1275,88
371,96	1275,88
372,17	1279,98
372,38	1241,07
372,59	1249,26
372,80	1208,30
373,01	1241,07
373,22	1349,61
373,43	1214,45
373,64	1224,69
373,85	1294,32
374,06	1310,70
374,26	1325,04
374,47	1265,64
374,68	1322,99
374,89	1263,60
375,10	1255,40
375,31	1327,08
375,52	1263,60
375,73	1273,84
375,94	1322,99
376,15	1329,13
376,36	1255,40
376,57	1300,46
376,78	1259,50
376,99	1257,45
377,20	1294,32
377,40	1249,26
377,61	1275,88
377,82	1320,94
378,03	1247,21
378,24	1331,18
378,45	1300,46
378,66	1259,50
378,87	1275,88
379,08	1206,25
379,29	1177,58
379,50	1298,41
379,71	1230,83
379,91	1224,69
380,12	1279,98
380,33	1247,21
380,54	1257,45
380,75	1273,84
380,96	1241,07
381,17	1298,41
381,38	1306,60
381,59	1277,93
381,80	1251,31
382,00	1288,17
382,21	1359,85
382,42	1261,55
382,63	1310,70
382,84	1288,17
383,05	1277,93
383,26	1282,03
383,47	1247,21
383,68	1202,16
383,88	1296,36
384,09	1218,54
384,30	1290,22
384,51	1226,73
384,72	1247,21
384,93	1251,31
385,14	1261,55
385,35	1318,89
385,55	1282,03
385,76	1269,74
385,97	1294,32
386,18	1230,83
386,39	1259,50
386,60	1257,45
386,81	1277,93
387,02	1224,69
387,22	1292,27
387,43	1296,36
387,64	1294,32
387,85	1228,78
388,06	1247,21
388,27	1271,79
388,48	1263,60
388,68	1343,47
388,89	1212,40
389,10	1249,26
389,31	1296,36
389,52	1200,11
389,73	1290,22
389,93	1200,11
390,14	1222,64
390,35	1339,37
390,56	1183,73
390,77	1331,18
390,98	1236,97
391,18	1322,99
391,39	1288,17
391,60	1267,69
391,81	1306,60
392,02	1191,92
392,23	1263,60
392,43	1275,88
392,64	1273,84
392,85	1286,12
393,06	1279,98
393,27	1236,97
393,47	1251,31
393,68	1245,16
393,89	1271,79
394,10	1255,40
394,31	1316,84
394,52	1181,68
394,72	1302,51
394,93	1286,12
395,14	1288,17
395,35	1298,41
395,56	1232,88
395,76	1255,40
395,97	1310,70
396,18	1341,42
396,39	1181,68
396,60	1296,36
396,80	1247,21
397,01	1249,26
397,22	1263,60
397,43	1206,25
397,64	1253,36
397,84	1249,26
398,05	1347,56
398,26	1277,93
398,47	1300,46
398,67	1251,31
398,88	1161,20
399,09	1300,46
399,30	1261,55
399,51	1198,06
399,71	1294,32
399,92	1255,40
400,13	1208,30
400,34	1296,36
400,54	1261,55
400,75	1226,73
400,96	1230,83
401,17	1253,36
401,37	1312,75
401,58	1277,93
401,79	1310,70
402,00	1271,79
402,21	1232,88
402,41	1208,30
402,62	1263,60
402,83	1296,36
403,04	1271,79
403,24	1296,36
403,45	1300,46
403,66	1257,45
403,87	1183,73
404,07	1320,94
404,28	1255,40
404,49	1359,85
404,70	1314,80
404,90	1230,83
405,11	1333,23
405,32	1271,79
405,52	1222,64
405,73	1214,45
405,94	1296,36
406,15	1271,79
406,35	1316,84
406,56	1222,64
406,77	1204,21
406,98	1259,50
407,18	1294,32
407,39	1325,04
407,60	1353,71
407,80	1271,79
408,01	1200,11
408,22	1220,59
408,43	1312,75
408,63	1228,78
408,84	1241,07
409,05	1320,94
409,25	1183,73
409,46	1255,40
409,67	1245,16
409,88	1241,07
410,08	1255,40
410,29	1202,16
410,50	1269,74
410,70	1200,11
410,91	1245,16
411,12	1257,45
411,32	1273,84
411,53	1245,16
411,74	1265,64
411,95	1286,12
412,15	1273,84
412,36	1206,25
412,57	1304,56
412,77	1320,94
412,98	1259,50
413,19	1298,41
413,39	1228,78
413,60	1347,56
413,81	1269,74
414,01	1241,07
414,22	1275,88
414,43	1275,88
414,63	1329,13
414,84	1304,56
415,05	1263,60
415,25	1320,94
415,46	1296,36
415,67	1257,45
415,87	1243,12
416,08	1239,02
416,29	1316,84
416,49	1253,36
416,70	1327,08
416,91	1361,90
417,11	1318,89
417,32	1339,37
417,53	1224,69
417,73	1249,26
417,94	1265,64
418,15	1288,17
418,35	1241,07
418,56	1216,49
418,77	1249,26
418,97	1267,69
419,18	1277,93
419,38	1257,45
419,59	1230,83
419,80	1271,79
420,00	1265,64
420,21	1169,39
420,42	1325,04
420,62	1196,01
420,83	1257,45
421,04	1265,64
421,24	1251,31
421,45	1179,63
421,65	1204,21
421,86	1216,49
422,07	1292,27
422,27	1312,75
422,48	1273,84
422,69	1214,45
422,89	1269,74
423,10	1333,23
423,30	1206,25
423,51	1339,37
423,72	1234,93
423,92	1259,50
424,13	1204,21
424,33	1302,51
424,54	1261,55
424,75	1284,08
424,95	1304,56
425,16	1294,32
425,36	1288,17
425,57	1247,21
425,78	1255,40
425,98	1239,02
426,19	1247,21
426,39	1331,18
426,60	1230,83
426,81	1228,78
427,01	1218,54
427,22	1304,56
427,42	1239,02
427,63	1284,08
427,83	1241,07
428,04	1261,55
428,25	1243,12
428,45	1279,98
428,66	1228,78
428,86	1292,27
429,07	1279,98
429,28	1261,55
429,48	1265,64
429,69	1202,16
429,89	1259,50
430,10	1300,46
430,30	1257,45
430,51	1259,50
430,71	1251,31
430,92	1300,46
431,13	1263,60
431,33	1245,16
431,54	1243,12
431,74	1234,93
431,95	1202,16
432,15	1253,36
432,36	1265,64
432,56	1282,03
432,77	1269,74
432,98	1255,40
433,18	1271,79
433,39	1220,59
433,59	1230,83
433,80	1288,17
434,00	1230,83
434,21	1236,97
434,41	1294,32
434,62	1265,64
434,82	1310,70
435,03	1279,98
435,23	1341,42
435,44	1236,97
435,64	1277,93
435,85	1314,80
436,06	1271,79
436,26	1298,41
436,47	1234,93
436,67	1206,25
436,88	1236,97
437,08	1273,84
437,29	1294,32
437,49	1239,02
437,70	1282,03
437,90	1335,28
438,11	1288,17
438,31	1298,41
438,52	1302,51
438,72	1298,41
438,93	1179,63
439,13	1325,04
439,34	1290,22
439,54	1304,56
439,75	1310,70
439,95	1353,71
440,16	1290,22
440,36	1298,41
440,57	1255,40
440,77	1200,11
440,98	1267,69
441,18	1232,88
441,39	1288,17
441,59	1265,64
441,80	1247,21
442,00	1259,50
442,21	1292,27
442,41	1234,93
442,62	1255,40
442,82	1251,31
443,02	1257,45
443,23	1320,94
443,43	1275,88
443,64	1343,47
443,84	1304,56
444,05	1279,98
444,25	1286,12
444,46	1320,94
444,66	1277,93
444,87	1339,37
445,07	1249,26
445,28	1306,60
445,48	1228,78
445,69	1277,93
445,89	1292,27
446,09	1294,32
446,30	1355,76
446,50	1261,55
446,71	1253,36
446,91	1273,84
447,12	1257,45
447,32	1232,88
447,53	1232,88
447,73	1325,04
447,93	1298,41
448,14	1232,88
448,34	1230,83
448,55	1271,79
448,75	1335,28
448,96	1288,17
449,16	1265,64
449,36	1234,93
449,57	1279,98
449,77	1335,28
449,98	1327,08
450,18	1247,21
450,39	1320,94
450,59	1273,84
450,79	1314,80
451,00	1257,45
451,20	1269,74
451,41	1247,21
451,61	1241,07
451,81	1302,51
452,02	1325,04
452,22	1261,55
452,43	1337,32
452,63	1265,64
452,84	1261,55
453,04	1335,28
453,24	1267,69
453,45	1275,88
453,65	1236,97
453,86	1304,56
454,06	1234,93
454,26	1355,76
454,47	1265,64
454,67	1269,74
454,87	1273,84
455,08	1327,08
455,28	1320,94
455,49	1196,01
455,69	1294,32
455,89	1269,74
456,10	1318,89
456,30	1228,78
456,51	1310,70
456,71	1304,56
456,91	1327,08
457,12	1247,21
457,32	1306,60
457,52	1368,04
457,73	1234,93
457,93	1226,73
458,14	1255,40
458,34	1277,93
458,54	1361,90
458,75	1339,37
458,95	1245,16
459,15	1288,17
459,36	1257,45
459,56	1224,69
459,76	1245,16
459,97	1247,21
460,17	1322,99
460,37	1259,50
460,58	1230,83
460,78	1296,36
460,99	1216,49
461,19	1261,55
461,39	1302,51
461,60	1314,80
461,80	1269,74
462,00	1226,73
462,21	1255,40
462,41	1298,41
462,61	1325,04
462,82	1222,64
463,02	1259,50
463,22	1312,75
463,43	1222,64
463,63	1265,64
463,83	1292,27
464,04	1339,37
464,24	1216,49
464,44	1314,80
464,64	1269,74
464,85	1339,37
465,05	1288,17
465,25	1273,84
465,46	1243,12
465,66	1306,60
465,86	1286,12
466,07	1263,60
466,27	1298,41
466,47	1286,12
466,68	1269,74
466,88	1261,55
467,08	1212,40
467,29	1318,89
467,49	1247,21
467,69	1357,80
467,89	1284,08
468,10	1306,60
468,30	1239,02
468,50	1304,56
468,71	1257,45
468,91	1228,78
469,11	1318,89
469,31	1271,79
469,52	1220,59
469,72	1269,74
469,92	1269,74
470,13	1308,65
470,33	1257,45
470,53	1314,80
470,73	1249,26
470,94	1273,84
471,14	1239,02
471,34	1224,69
471,54	1290,22
471,75	1347,56
471,95	1314,80
472,15	1269,74
472,36	1318,89
472,56	1288,17
472,76	1249,26
472,96	1294,32
473,17	1331,18
473,37	1218,54
473,57	1298,41
473,77	1282,03
473,98	1312,75
474,18	1316,84
474,38	1284,08
474,58	1337,32
474,79	1261,55
474,99	1273,84
475,19	1292,27
475,39	1275,88
475,60	1277,93
475,80	1304,56
476,00	1230,83
476,20	1290,22
476,41	1259,50
476,61	1208,30
476,81	1288,17
477,01	1290,22
477,21	1222,64
477,42	1265,64
477,62	1220,59
477,82	1277,93
478,02	1396,71
478,23	1267,69
478,43	1206,25
478,63	1339,37
478,83	1224,69
479,03	1296,36
479,24	1279,98
479,44	1288,17
479,64	1275,88
479,84	1298,41
480,04	1228,78
480,25	1261,55
480,45	1316,84
480,65	1243,12
480,85	1341,42
481,06	1298,41
481,26	1298,41
481,46	1236,97
481,66	1349,61
481,86	1331,18
482,06	1257,45
482,27	1277,93
482,47	1247,21
482,67	1314,80
482,87	1263,60
483,07	1320,94
483,28	1214,45
483,48	1286,12
483,68	1245,16
483,88	1234,93
484,08	1290,22
484,29	1282,03
484,49	1267,69
484,69	1243,12
484,89	1310,70
485,09	1196,01
485,29	1206,25
485,50	1222,64
485,70	1191,92
485,90	1230,83
486,10	1273,84
486,30	1212,40
486,50	1257,45
486,71	1257,45
486,91	1245,16
487,11	1282,03
487,31	1316,84
487,51	1304,56
487,71	1245,16
487,91	1267,69
488,12	1247,21
488,32	1284,08
488,52	1155,05
488,72	1230,83
488,92	1247,21
489,12	1273,84
489,32	1257,45
489,53	1273,84
489,73	1273,84
489,93	1222,64
490,13	1277,93
490,33	1282,03
490,53	1314,80
490,73	1261,55
490,94	1234,93
491,14	1236,97
491,34	1269,74
491,54	1257,45
491,74	1271,79
491,94	1257,45
492,14	1273,84
492,34	1273,84
492,54	1232,88
492,75	1200,11
492,95	1196,01
493,15	1298,41
493,35	1306,60
493,55	1279,98
493,75	1316,84
493,95	1267,69
494,15	1286,12
494,35	1251,31
494,56	1239,02
494,76	1304,56
494,96	1284,08
495,16	1279,98
495,36	1359,85
495,56	1226,73
495,76	1243,12
495,96	1230,83
496,16	1298,41
496,36	1245,16
496,56	1308,65
496,77	1224,69
496,97	1241,07
497,17	1310,70
497,37	1288,17
497,57	1257,45
497,77	1355,76
497,97	1257,45
498,17	1302,51
498,37	1224,69
498,57	1253,36
498,77	1275,88
498,97	1286,12
499,17	1261,55
499,38	1216,49
499,58	1353,71
499,78	1292,27
499,98	1355,76
500,18	1181,68
500,38	1304,56
500,58	1236,97
500,78	1259,50
500,98	1316,84
501,18	1279,98
501,38	1249,26
501,58	1296,36
501,78	1310,70
501,98	1288,17
502,18	1214,45
502,38	1234,93
502,58	1251,31
502,78	1263,60
502,98	1296,36
503,18	1175,53
503,38	1241,07
503,59	1255,40
503,79	1259,50
503,99	1273,84
504,19	1236,97
504,39	1347,56
504,59	1312,75
504,79	1320,94
504,99	1316,84
505,19	1251,31
505,39	1271,79
505,59	1267,69
505,79	1228,78
505,99	1339,37
506,19	1247,21
506,39	1306,60
506,59	1226,73
506,79	1212,40
506,99	1290,22
507,19	1290,22
507,39	1327,08
507,59	1269,74
507,79	1292,27
507,99	1257,45
508,19	1257,45
508,39	1265,64
508,59	1255,40
508,79	1259,50
508,99	1267,69
509,19	1306,60
509,39	1261,55
509,59	1239,02
509,79	1222,64
509,99	1249,26
510,19	1243,12
510,39	1261,55
510,59	1263,60
510,79	1257,45
510,99	1320,94
511,19	1294,32
511,39	1259,50
511,59	1234,93
511,79	1232,88
511,99	1286,12
512,19	1257,45
512,38	1322,99
512,58	1263,60
512,78	1292,27
512,98	1224,69
513,18	1310,70
513,38	1239,02
513,58	1277,93
513,78	1271,79
513,98	1314,80
514,18	1341,42
514,38	1282,03
514,58	1333,23
514,78	1318,89
514,98	1206,25
515,18	1308,65
515,38	1335,28
515,58	1277,93
515,78	1306,60
515,98	1271,79
516,18	1341,42
516,38	1302,51
516,57	1183,73
516,77	1292,27
516,97	1191,92
517,17	1224,69
517,37	1247,21
517,57	1255,40
517,77	1275,88
517,97	1288,17
518,17	1271,79
518,37	1265,64
518,57	1273,84
518,77	1236,97
518,97	1327,08
519,16	1271,79
519,36	1343,47
519,56	1288,17
519,76	1333,23
519,96	1239,02
520,16	1255,40
520,36	1273,84
520,56	1288,17
520,76	1304,56
520,96	1257,45
521,16	1249,26
521,35	1243,12
521,55	1247,21
521,75	1302,51
521,95	1239,02
522,15	1296,36
522,35	1327,08
522,55	1294,32
522,75	1269,74
522,95	1275,88
523,14	1302,51
523,34	1320,94
523,54	1290,22
523,74	1265,64
523,94	1273,84
524,14	1331,18
524,34	1306,60
524,54	1308,65
524,73	1265,64
524,93	1232,88
525,13	1288,17
525,33	1230,83
525,53	1306,60
525,73	1249,26
525,93	1251,31
526,13	1255,40
526,32	1269,74
526,52	1187,82
526,72	1273,84
526,92	1216,49
527,12	1304,56
527,32	1271,79
527,52	1308,65
527,71	1249,26
527,91	1257,45
528,11	1279,98
528,31	1279,98
528,51	1271,79
528,71	1312,75
528,90	1269,74
529,10	1273,84
529,30	1236,97
529,50	1296,36
529,70	1308,65
529,90	1288,17
530,09	1312,75
530,29	1241,07
530,49	1216,49
530,69	1251,31
530,89	1314,80
531,09	1226,73
531,28	1234,93
531,48	1327,08
531,68	1214,45
531,88	1269,74
532,08	1296,36
532,28	1286,12
532,47	1226,73
532,67	1249,26
532,87	1234,93
533,07	1302,51
533,27	1222,64
533,46	1243,12
533,66	1298,41
533,86	1249,26
534,06	1230,83
534,26	1200,11
534,45	1243,12
534,65	1273,84
534,85	1249,26
535,05	1294,32
535,25	1234,93
535,44	1320,94
535,64	1239,02
535,84	1271,79
536,04	1236,97
536,24	1327,08
536,43	1228,78
536,63	1271,79
536,83	1312,75
537,03	1255,40
537,22	1345,52
537,42	1263,60
537,62	1263,60
537,82	1322,99
538,02	1214,45
538,21	1310,70
538,41	1318,89
538,61	1257,45
538,81	1269,74
539,00	1304,56
539,20	1241,07
539,40	1243,12
539,60	1228,78
539,79	1322,99
539,99	1263,60
540,19	1216,49
540,39	1290,22
540,58	1337,32
540,78	1290,22
540,98	1243,12
541,18	1353,71
541,37	1339,37
541,57	1275,88
541,77	1284,08
541,97	1269,74
542,16	1345,52
542,36	1226,73
542,56	1263,60
542,76	1277,93
542,95	1347,56
543,15	1337,32
543,35	1363,95
543,54	1302,51
543,74	1380,33
543,94	1298,41
544,14	1331,18
544,33	1314,80
544,53	1296,36
544,73	1284,08
544,93	1347,56
545,12	1277,93
545,32	1306,60
545,52	1247,21
545,71	1253,36
545,91	1277,93
546,11	1251,31
546,30	1228,78
546,50	1271,79
546,70	1351,66
546,90	1322,99
547,09	1314,80
547,29	1273,84
547,49	1255,40
547,68	1218,54
547,88	1269,74
548,08	1304,56
548,27	1368,04
548,47	1279,98
548,67	1218,54
548,87	1310,70
549,06	1214,45
549,26	1312,75
549,46	1284,08
549,65	1279,98
549,85	1249,26
550,05	1370,09
550,24	1294,32
550,44	1302,51
550,64	1322,99
550,83	1263,60
551,03	1314,80
551,23	1298,41
551,42	1308,65
551,62	1247,21
551,82	1306,60
552,01	1314,80
552,21	1253,36
552,41	1282,03
552,60	1288,17
552,80	1339,37
553,00	1282,03
553,19	1304,56
553,39	1263,60
553,59	1337,32
553,78	1288,17
553,98	1304,56
554,17	1216,49
554,37	1292,27
554,57	1329,13
554,76	1218,54
554,96	1282,03
555,16	1288,17
555,35	1257,45
555,55	1230,83
555,75	1337,32
555,94	1335,28
556,14	1290,22
556,33	1212,40
556,53	1255,40
556,73	1220,59
556,92	1296,36
557,12	1322,99
557,32	1200,11
557,51	1226,73
557,71	1273,84
557,90	1273,84
558,10	1306,60
558,30	1257,45
558,49	1333,23
558,69	1337,32
558,88	1331,18
559,08	1282,03
559,28	1339,37
559,47	1224,69
559,67	1282,03
559,86	1333,23
560,06	1269,74
560,26	1271,79
560,45	1234,93
560,65	1263,60
560,84	1294,32
561,04	1271,79
561,24	1247,21
561,43	1294,32
561,63	1290,22
561,82	1298,41
562,02	1251,31
562,22	1224,69
562,41	1302,51
562,61	1320,94
562,80	1304,56
563,00	1288,17
563,19	1269,74
563,39	1259,50
563,59	1304,56
563,78	1243,12
563,98	1200,11
564,17	1245,16
564,37	1277,93
564,56	1273,84
564,76	1191,92
564,96	1273,84
565,15	1331,18
565,35	1277,93
565,54	1318,89
565,74	1282,03
565,93	1351,66
566,13	1288,17
566,32	1335,28
566,52	1245,16
566,71	1161,20
566,91	1286,12
567,11	1286,12
567,30	1206,25
567,50	1249,26
567,69	1327,08
567,89	1255,40
568,08	1249,26
568,28	1277,93
568,47	1247,21
568,67	1208,30
568,86	1333,23
569,06	1294,32
569,25	1314,80
569,45	1327,08
569,64	1296,36
569,84	1239,02
570,04	1304,56
570,23	1230,83
570,43	1312,75
570,62	1306,60
570,82	1277,93
571,01	1247,21
571,21	1298,41
571,40	1300,46
571,60	1273,84
571,79	1243,12
571,99	1304,56
572,18	1306,60
572,38	1306,60
572,57	1284,08
572,77	1247,21
572,96	1304,56
573,16	1406,95
573,35	1298,41
573,55	1306,60
573,74	1277,93
573,94	1312,75
574,13	1212,40
574,33	1263,60
574,52	1261,55
574,71	1327,08
574,91	1249,26
575,10	1279,98
575,30	1253,36
575,49	1331,18
575,69	1253,36
575,88	1306,60
576,08	1259,50
576,27	1241,07
576,47	1216,49
576,66	1349,61
576,86	1286,12
577,05	1177,58
577,25	1320,94
577,44	1282,03
577,64	1275,88
577,83	1310,70
578,02	1290,22
578,22	1318,89
578,41	1230,83
578,61	1282,03
578,80	1269,74
579,00	1234,93
579,19	1253,36
579,39	1308,65
579,58	1212,40
579,77	1302,51
579,97	1308,65
580,16	1245,16
580,36	1228,78
580,55	1312,75
580,75	1204,21
580,94	1312,75
581,13	1300,46
581,33	1273,84
581,52	1269,74
581,72	1292,27
581,91	1234,93
582,11	1269,74
582,30	1277,93
582,49	1210,35
582,69	1314,80
582,88	1327,08
583,08	1294,32
583,27	1308,65
583,47	1327,08
583,66	1286,12
583,85	1261,55
584,05	1290,22
584,24	1351,66
584,44	1290,22
584,63	1312,75
584,82	1288,17
585,02	1304,56
585,21	1335,28
585,41	1275,88
585,60	1325,04
585,79	1222,64
585,99	1271,79
586,18	1261,55
586,37	1304,56
586,57	1320,94
586,76	1239,02
586,96	1267,69
587,15	1273,84
587,34	1312,75
587,54	1300,46
587,73	1282,03
587,93	1294,32
588,12	1265,64
588,31	1226,73
588,51	1327,08
588,70	1308,65
588,89	1247,21
589,09	1273,84
589,28	1341,42
589,47	1290,22
589,67	1339,37
589,86	1279,98
590,06	1300,46
590,25	1361,90
590,44	1228,78
590,64	1251,31
590,83	1277,93
591,02	1325,04
591,22	1312,75
591,41	1222,64
591,60	1193,97
591,80	1286,12
591,99	1290,22
592,18	1265,64
592,38	1239,02
592,57	1261,55
592,76	1300,46
592,96	1247,21
593,15	1269,74
593,34	1296,36
593,54	1302,51
593,73	1232,88
593,92	1263,60
594,12	1320,94
594,31	1251,31
594,50	1288,17
594,70	1251,31
594,89	1247,21
595,08	1327,08
595,28	1386,47
595,47	1263,60
595,66	1325,04
595,86	1257,45
596,05	1273,84
596,24	1243,12
596,43	1322,99
596,63	1296,36
596,82	1306,60
597,01	1263,60
597,21	1271,79
597,40	1226,73
597,59	1277,93
597,79	1257,45
597,98	1218,54
598,17	1355,76
598,36	1339,37
598,56	1243,12
598,75	1320,94
598,94	1277,93
599,14	1234,93
599,33	1279,98
599,52	1298,41
599,71	1275,88
599,91	1298,41
600,10	1216,49
600,29	1320,94
600,48	1372,14
600,68	1273,84
600,87	1308,65
601,06	1327,08
601,26	1273,84
601,45	1273,84
601,64	1206,25
601,83	1292,27
602,03	1275,88
602,22	1247,21
602,41	1294,32
602,60	1327,08
602,80	1325,04
602,99	1265,64
603,18	1257,45
603,37	1374,19
603,57	1284,08
603,76	1286,12
603,95	1243,12
604,14	1282,03
604,34	1288,17
604,53	1249,26
604,72	1351,66
604,91	1322,99
605,10	1308,65
605,30	1304,56
605,49	1288,17
605,68	1341,42
605,87	1284,08
606,07	1294,32
606,26	1265,64
606,45	1306,60
606,64	1183,73
606,84	1241,07
607,03	1316,84
607,22	1234,93
607,41	1247,21
607,60	1218,54
607,80	1271,79
607,99	1224,69
608,18	1277,93
608,37	1226,73
608,56	1339,37
608,76	1236,97
608,95	1230,83
609,14	1298,41
609,33	1277,93
609,52	1314,80
609,72	1267,69
609,91	1292,27
610,10	1239,02
610,29	1259,50
610,48	1255,40
610,68	1300,46
610,87	1310,70
611,06	1249,26
611,25	1296,36
611,44	1325,04
611,63	1341,42
611,83	1304,56
612,02	1224,69
612,21	1241,07
612,40	1265,64
612,59	1339,37
612,79	1212,40
612,98	1212,40
613,17	1288,17
613,36	1245,16
613,55	1327,08
613,74	1253,36
613,93	1345,52
614,13	1282,03
614,32	1277,93
614,51	1290,22
614,70	1325,04
614,89	1277,93
615,08	1298,41
615,28	1361,90
615,47	1275,88
615,66	1200,11
615,85	1298,41
616,04	1310,70
616,23	1247,21
616,42	1296,36
616,62	1222,64
616,81	1341,42
617,00	1290,22
617,19	1322,99
617,38	1216,49
617,57	1290,22
617,76	1335,28
617,95	1361,90
618,15	1347,56
618,34	1251,31
618,53	1314,80
618,72	1271,79
618,91	1318,89
619,10	1304,56
619,29	1308,65
619,48	1279,98
619,68	1249,26
619,87	1267,69
620,06	1273,84
620,25	1288,17
620,44	1263,60
620,63	1296,36
620,82	1327,08
621,01	1277,93
621,20	1294,32
621,39	1341,42
621,59	1296,36
621,78	1296,36
621,97	1220,59
622,16	1273,84
622,35	1300,46
622,54	1263,60
622,73	1320,94
622,92	1310,70
623,11	1224,69
623,30	1259,50
623,49	1220,59
623,68	1304,56
623,88	1245,16
624,07	1222,64
624,26	1292,27
624,45	1298,41
624,64	1273,84
624,83	1314,80
625,02	1290,22
625,21	1243,12
625,40	1263,60
625,59	1325,04
625,78	1275,88
625,97	1333,23
626,16	1347,56
626,35	1298,41
626,54	1294,32
626,74	1271,79
626,93	1308,65
627,12	1312,75
627,31	1314,80
627,50	1322,99
627,69	1320,94
627,88	1302,51
628,07	1294,32
628,26	1200,11
628,45	1236,97
628,64	1363,95
628,83	1277,93
629,02	1292,27
629,21	1275,88
629,40	1265,64
629,59	1312,75
629,78	1224,69
629,97	1310,70
630,16	1353,71
630,35	1279,98
630,54	1310,70
630,73	1320,94
630,92	1388,52
631,11	1267,69
631,30	1347,56
631,49	1374,19
631,68	2070,50
631,87	6668,19
632,06	26652,27
632,25	57859,21
632,44	46030,15
632,63	31616,54
632,82	28507,72
633,01	6969,24
633,20	3518,41
633,39	3282,89
633,58	2795,48
633,77	2201,57
633,96	2013,15
634,15	1929,19
634,34	1826,79
634,53	1732,58
634,72	1716,20
634,91	1572,84
635,10	1599,46
635,29	1548,26
635,48	1568,74
635,67	1509,35
635,86	1445,87
636,05	1470,44
636,24	1464,30
636,43	1423,34
636,62	1488,87
636,81	1386,47
637,00	1449,96
637,19	1376,24
637,38	1300,46
637,57	1325,04
637,76	1396,71
637,95	1347,56
638,14	1359,85
638,33	1314,80
638,52	1351,66
638,71	1273,84
638,89	1353,71
639,08	1318,89
639,27	1275,88
639,46	1318,89
639,65	1300,46
639,84	1257,45
640,03	1273,84
640,22	1318,89
640,41	1265,64
640,60	1236,97
640,79	1306,60
640,98	1286,12
641,17	1282,03
641,36	1239,02
641,55	1286,12
641,74	1290,22
641,92	1343,47
642,11	1263,60
642,30	1298,41
642,49	1329,13
642,68	1359,85
642,87	1310,70
643,06	1271,79
643,25	1302,51
643,44	1304,56
643,63	1300,46
643,82	1224,69
644,00	1208,30
644,19	1300,46
644,38	1257,45
644,57	1320,94
644,76	1304,56
644,95	1222,64
645,14	1294,32
645,33	1247,21
645,52	1279,98
645,71	1245,16
645,89	1277,93
646,08	1290,22
646,27	1236,97
646,46	1269,74
646,65	1308,65
646,84	1339,37
647,03	1261,55
647,22	1241,07
647,40	1267,69
647,59	1243,12
647,78	1263,60
647,97	1265,64
648,16	1261,55
648,35	1296,36
648,54	1308,65
648,73	1249,26
648,91	1261,55
649,10	1265,64
649,29	1347,56
649,48	1288,17
649,67	1308,65
649,86	1286,12
650,05	1388,52
650,23	1210,35
650,42	1286,12
650,61	1290,22
650,80	1247,21
650,99	1357,80
651,18	1253,36
651,36	1318,89
651,55	1257,45
651,74	1302,51
651,93	1265,64
652,12	1243,12
652,31	1351,66
652,49	1236,97
652,68	1327,08
652,87	1312,75
653,06	1292,27
653,25	1298,41
653,44	1290,22
653,62	1255,40
653,81	1261,55
654,00	1302,51
654,19	1337,32
654,38	1189,87
654,56	1269,74
654,75	1322,99
654,94	1251,31
655,13	1327,08
655,32	1325,04
655,51	1228,78
655,69	1253,36
655,88	1224,69
656,07	1273,84
656,26	1210,35
656,45	1300,46
656,63	1300,46
656,82	1314,80
657,01	1320,94
657,20	1290,22
657,38	1222,64
657,57	1286,12
657,76	1335,28
657,95	1257,45
658,14	1251,31
658,32	1296,36
658,51	1322,99
658,70	1226,73
658,89	1279,98
659,08	1222,64
659,26	1249,26
659,45	1269,74
659,64	1282,03
659,83	1212,40
660,01	1296,36
660,20	1222,64
660,39	1249,26
660,58	1284,08
660,76	1314,80
660,95	1234,93
661,14	1271,79
661,33	1234,93
661,51	1277,93
661,70	1230,83
661,89	1245,16
662,08	1322,99
662,26	1206,25
662,45	1243,12
662,64	1206,25
662,83	1214,45
663,01	1296,36
663,20	1232,88
663,39	1267,69
663,58	1228,78
663,76	1290,22
663,95	1224,69
664,14	1271,79
664,32	1294,32
664,51	1298,41
664,70	1273,84
664,89	1292,27
665,07	1214,45
665,26	1341,42
665,45	1187,82
665,64	1232,88
665,82	1292,27
666,01	1286,12
666,20	1253,36
666,38	1337,32
666,57	1290,22
666,76	1273,84
666,95	1245,16
667,13	1255,40
667,32	1232,88
667,51	1298,41
667,69	1335,28
667,88	1284,08
668,07	1255,40
668,25	1249,26
668,44	1212,40
668,63	1282,03
668,81	1277,93
669,00	1243,12
669,19	1259,50
669,38	1302,51
669,56	1294,32
669,75	1247,21
669,94	1159,15
670,12	1298,41
670,31	1212,40
670,50	1171,44
670,68	1302,51
670,87	1249,26
671,06	1239,02
671,24	1241,07
671,43	1279,98
671,62	1263,60
671,80	1296,36
671,99	1298,41
672,18	1284,08
672,36	1325,04
672,55	1239,02
672,74	1216,49
672,92	1228,78
673,11	1286,12
673,29	1320,94
673,48	1259,50
673,67	1304,56
673,85	1322,99
674,04	1187,82
674,23	1275,88
674,41	1241,07
674,60	1265,64
674,79	1306,60
674,97	1275,88
675,16	1239,02
675,34	1265,64
675,53	1286,12
675,72	1282,03
675,90	1269,74
676,09	1222,64
676,28	1249,26
676,46	1191,92
676,65	1314,80
676,83	1273,84
677,02	1245,16
677,21	1296,36
677,39	1243,12
677,58	1239,02
677,77	1269,74
677,95	1284,08
678,14	1245,16
678,32	1320,94
678,51	1253,36
678,70	1245,16
678,88	1263,60
679,07	1265,64
679,25	1277,93
679,44	1312,75
679,63	1298,41
679,81	1302,51
680,00	1245,16
680,18	1257,45
680,37	1290,22
680,55	1243,12
680,74	1296,36
680,93	1257,45
681,11	1241,07
681,30	1275,88
681,48	1275,88
681,67	1212,40
681,85	1259,50
682,04	1234,93
682,23	1298,41
682,41	1304,56
682,60	1370,09
682,78	1290,22
682,97	1263,60
683,15	1279,98
683,34	1288,17
683,53	1331,18
683,71	1234,93
683,90	1284,08
684,08	1294,32
684,27	1243,12
684,45	1255,40
684,64	1312,75
684,82	1345,52
685,01	1232,88
685,19	1245,16
685,38	1187,82
685,57	1308,65
685,75	1265,64
685,94	1294,32
686,12	1308,65
686,31	1243,12
686,49	1298,41
686,68	1288,17
686,86	1228,78
687,05	1370,09
687,23	1322,99
687,42	1245,16
687,60	1255,40
687,79	1312,75
687,97	1310,70
688,16	1286,12
688,34	1302,51
688,53	1251,31
688,71	1189,87
688,90	1269,74
689,08	1224,69
689,27	1310,70
689,45	1284,08
689,64	1296,36
689,82	1265,64
690,01	1259,50
690,19	1249,26
690,38	1245,16
690,56	1290,22
690,75	1093,62
690,93	1220,59
691,12	1257,45
691,30	1222,64
691,49	1247,21
691,67	1243,12
691,86	1306,60
692,04	1259,50
692,23	1331,18
692,41	1257,45
692,60	1200,11
692,78	1296,36
692,97	1247,21
693,15	1253,36
693,34	1269,74
693,52	1302,51
693,71	1253,36
693,89	1269,74
694,08	1304,56
694,26	1286,12
694,44	1224,69
694,63	1298,41
694,81	1245,16
695,00	1286,12
695,18	1357,80
695,37	1234,93
695,55	1257,45
695,74	1288,17
695,92	1236,97
696,10	1259,50
696,29	1267,69
696,47	1312,75
696,66	1241,07
696,84	1300,46
697,03	1255,40
697,21	1236,97
697,40	1322,99
697,58	1292,27
697,76	1255,40
697,95	1183,73
698,13	1271,79
698,32	1284,08
698,50	1284,08
698,68	1232,88
698,87	1294,32
699,05	1343,47
699,24	1257,45
699,42	1284,08
699,61	1273,84
699,79	1282,03
699,97	1322,99
700,16	1204,21
700,34	1277,93
700,53	1329,13
700,71	1245,16
700,89	1296,36
701,08	1185,77
701,26	1277,93
701,45	1275,88
701,63	1206,25
701,81	1277,93
702,00	1263,60
702,18	1243,12
702,37	1269,74
702,55	1226,73
702,73	1265,64
702,92	1224,69
703,10	1253,36
703,28	1277,93
703,47	1339,37
703,65	1224,69
703,84	1294,32
704,02	1224,69
704,20	1325,04
704,39	1300,46
704,57	1339,37
704,75	1290,22
704,94	1210,35
705,12	1226,73
705,30	1322,99
705,49	1275,88
705,67	1249,26
705,86	1200,11
706,04	1196,01
706,22	1271,79
706,41	1247,21
706,59	1277,93
706,77	1251,31
706,96	1322,99
707,14	1261,55
707,32	1208,30
707,51	1288,17
707,69	1216,49
707,87	1284,08
708,06	1304,56
708,24	1345,52
708,42	1265,64
708,61	1245,16
708,79	1327,08
708,97	1361,90
709,16	1304,56
709,34	1232,88
709,52	1275,88
709,71	1322,99
709,89	1310,70
710,07	1282,03
710,26	1296,36
710,44	1249,26
710,62	1265,64
710,80	1275,88
710,99	1271,79
711,17	1220,59
711,35	1290,22
711,54	1271,79
711,72	1243,12
711,90	1236,97
712,09	1247,21
712,27	1288,17
712,45	1220,59
712,63	1224,69
712,82	1304,56
713,00	1314,80
713,18	1327,08
713,37	1279,98
713,55	1257,45
713,73	1277,93
713,91	1243,12
714,10	1292,27
714,28	1304,56
714,46	1347,56
714,65	1310,70
714,83	1284,08
715,01	1277,93
715,19	1243,12
715,38	1277,93
715,56	1327,08
715,74	1251,31
715,92	1306,60
716,11	1302,51
716,29	1282,03
716,47	1300,46
716,65	1232,88
716,84	1296,36
717,02	1290,22
717,20	1198,06
717,38	1275,88
717,57	1241,07
717,75	1337,32
717,93	1251,31
718,11	1269,74
718,30	1286,12
718,48	1269,74
718,66	1279,98
718,84	1314,80
719,03	1271,79
719,21	1255,40
719,39	1306,60
719,57	1284,08
719,75	1304,56
719,94	1216,49
720,12	1239,02
720,30	1288,17
720,48	1292,27
720,67	1253,36
720,85	1239,02
721,03	1322,99
721,21	1224,69
721,39	1296,36
721,58	1171,44
721,76	1257,45
721,94	1236,97
722,12	1269,74
722,30	1271,79
722,49	1226,73
722,67	1198,06
722,85	1273,84
723,03	1282,03
723,21	1273,84
723,40	1198,06
723,58	1329,13
723,76	1243,12
723,94	1314,80
724,12	1327,08
724,30	1179,63
724,49	1320,94
724,67	1275,88
724,85	1257,45
725,03	1273,84
725,21	1218,54
725,40	1294,32
725,58	1185,77
725,76	1341,42
725,94	1316,84
726,12	1306,60
726,30	1265,64
726,49	1241,07
726,67	1212,40
726,85	1288,17
727,03	1322,99
727,21	1296,36
727,39	1284,08
727,57	1331,18
727,76	1310,70
727,94	1265,64
728,12	1228,78
728,30	1247,21
728,48	1265,64
728,66	1300,46
728,84	1277,93
729,03	1296,36
729,21	1282,03
729,39	1255,40
729,57	1228,78
729,75	1267,69
729,93	1314,80
730,11	1222,64
730,30	1251,31
730,48	1290,22
730,66	1304,56
730,84	1298,41
731,02	1312,75
731,20	1265,64
731,38	1206,25
731,56	1212,40
731,74	1284,08
731,93	1234,93
732,11	1302,51
732,29	1296,36
732,47	1308,65
732,65	1253,36
732,83	1275,88
733,01	1275,88
733,19	1210,35
733,37	1234,93
733,56	1292,27
733,74	1257,45
733,92	1265,64
734,10	1241,07
734,28	1320,94
734,46	1298,41
734,64	1308,65
734,82	1210,35
735,00	1214,45
735,18	1193,97
735,36	1234,93
735,54	1253,36
735,73	1292,27
735,91	1259,50
736,09	1265,64
736,27	1290,22
736,45	1325,04
736,63	1318,89
736,81	1245,16
736,99	1247,21
737,17	1267,69
737,35	1261,55
737,53	1353,71
737,71	1259,50
737,89	1206,25
738,07	1308,65
738,25	1232,88
738,43	1277,93
738,61	1279,98
738,80	1234,93
738,98	1243,12
739,16	1273,84
739,34	1302,51
739,52	1312,75
739,70	1290,22
739,88	1245,16
740,06	1312,75
740,24	1331,18
740,42	1236,97
740,60	1255,40
740,78	1224,69
740,96	1245,16
741,14	1247,21
741,32	1271,79
741,50	1253,36
741,68	1320,94
741,86	1247,21
742,04	1275,88
742,22	1200,11
742,40	1318,89
742,58	1232,88
742,76	1284,08
742,94	1267,69
743,12	1249,26
743,30	1220,59
743,48	1263,60
743,66	1314,80
743,84	1290,22
744,02	1271,79
744,20	1349,61
744,38	1271,79
744,56	1286,12
744,74	1228,78
744,92	1302,51
745,10	1275,88
745,28	1325,04
745,46	1239,02
745,64	1298,41
745,82	1282,03
746,00	1308,65
746,18	1253,36
746,36	1236,97
746,54	1210,35
746,72	1298,41
746,90	1263,60
747,08	1261,55
747,26	1337,32
747,44	1290,22
747,62	1286,12
747,80	1296,36
747,98	1239,02
748,15	1312,75
748,33	1288,17
748,51	1298,41
748,69	1187,82
748,87	1290,22
749,05	1220,59
749,23	1263,60
749,41	1263,60
749,59	1222,64
749,77	1257,45
749,95	1220,59
750,13	1224,69
750,31	1220,59
750,49	1265,64
750,67	1247,21
750,85	1292,27
751,03	1245,16
751,20	1277,93
751,38	1251,31
751,56	1241,07
751,74	1302,51
751,92	1224,69
752,10	1290,22
752,28	1273,84
752,46	1208,30
752,64	1294,32
752,82	1306,60
753,00	1228,78
753,18	1253,36
753,35	1279,98
753,53	1241,07
753,71	1304,56
753,89	1273,84
754,07	1216,49
754,25	1277,93
754,43	1243,12
754,61	1261,55
754,79	1212,40
754,97	1206,25
755,14	1306,60
755,32	1269,74
755,50	1255,40
755,68	1208,30
755,86	1277,93
756,04	1241,07
756,22	1267,69
756,40	1329,13
756,57	1306,60
756,75	1314,80
756,93	1282,03
757,11	1380,33
757,29	1193,97
757,47	1288,17
757,65	1337,32
757,82	1259,50
758,00	1351,66
758,18	1265,64
758,36	1234,93
758,54	1267,69
758,72	1269,74
758,90	1300,46
759,07	1241,07
759,25	1271,79
759,43	1306,60
759,61	1275,88
759,79	1308,65
759,97	1253,36
760,15	1226,73
760,32	1333,23
760,50	1212,40
760,68	1241,07
760,86	1259,50
761,04	1216,49
761,22	1224,69
761,39	1259,50
761,57	1271,79
761,75	1284,08
761,93	1247,21
762,11	1224,69
762,28	1204,21
762,46	1318,89
762,64	1279,98
762,82	1236,97
763,00	1220,59
763,18	1273,84
763,35	1269,74
763,53	1239,02
763,71	1251,31
763,89	1368,04
764,07	1300,46
764,24	1273,84
764,42	1200,11
764,60	1230,83
764,78	1210,35
764,96	1249,26
765,13	1294,32
765,31	1284,08
765,49	1230,83
765,67	1292,27
765,84	1200,11
766,02	1347,56
766,20	1204,21
766,38	1335,28
766,56	1259,50
766,73	1329,13
766,91	1312,75
767,09	1212,40
767,27	1341,42
767,44	1196,01
767,62	1329,13
767,80	1228,78
767,98	1267,69
768,15	1298,41
768,33	1296,36
768,51	1159,15
768,69	1286,12
768,87	1294,32
769,04	1273,84
769,22	1300,46
769,40	1241,07
769,58	1322,99
769,75	1245,16
769,93	1288,17
770,11	1236,97
770,28	1216,49
770,46	1191,92
770,64	1259,50
770,82	1267,69
770,99	1284,08
771,17	1279,98
771,35	1322,99
771,53	1288,17
771,70	1247,21
771,88	1255,40
772,06	1253,36
772,23	1263,60
772,41	1255,40
772,59	1216,49
772,77	1249,26
772,94	1222,64
773,12	1306,60
773,30	1304,56
773,47	1290,22
773,65	1277,93
773,83	1206,25
774,01	1265,64
774,18	1273,84
774,36	1214,45
774,54	1263,60
774,71	1263,60
774,89	1263,60
775,07	1253,36
775,24	1259,50
775,42	1239,02
775,60	1286,12
775,78	1263,60
775,95	1210,35
776,13	1310,70
776,31	1284,08
776,48	1284,08
776,66	1308,65
776,84	1202,16
777,01	1247,21
777,19	1294,32
777,37	1302,51
777,54	1275,88
777,72	1284,08
777,90	1232,88
778,07	1302,51
778,25	1243,12
778,43	1316,84
778,60	1261,55
778,78	1314,80
778,96	1245,16
779,13	1304,56
779,31	1318,89
779,49	1279,98
779,66	1196,01
779,84	1263,60
780,01	1255,40
780,19	1218,54
780,37	1222,64
780,54	1263,60
780,72	1257,45
780,90	1261,55
781,07	1208,30
781,25	1263,60
781,43	1228,78
781,60	1189,87
781,78	1214,45
781,95	1236,97
782,13	1243,12
782,31	1275,88
782,48	1189,87
782,66	1273,84
782,83	1261,55
783,01	1198,06
783,19	1257,45
783,36	1245,16
783,54	1234,93
783,72	1239,02
783,89	1255,40
784,07	1232,88
784,24	1259,50
784,42	1277,93
784,60	1288,17
784,77	1269,74
784,95	1161,20
785,12	1294,32
785,30	1257,45
785,47	1263,60
785,65	1322,99
785,83	1284,08
786,00	1269,74
786,18	1239,02
786,35	1202,16
786,53	1247,21
786,71	1236,97
786,88	1265,64
787,06	1286,12
787,23	1304,56
787,41	1261,55
787,58	1255,40
787,76	1271,79
787,94	1241,07
788,11	1232,88
788,29	1253,36
788,46	1263,60
788,64	1300,46
788,81	1218,54
788,99	1273,84
789,16	1150,96
789,34	1239,02
789,52	1218,54
789,69	1230,83
789,87	1249,26
790,04	1222,64
790,22	1308,65
790,39	1282,03
790,57	1234,93
790,74	1316,84
790,92	1234,93
791,09	1222,64
791,27	1269,74
791,44	1304,56
791,62	1236,97
791,79	1300,46
791,97	1208,30
792,15	1318,89
792,32	1306,60
792,50	1277,93
792,67	1193,97
792,85	1230,83
793,02	1279,98
793,20	1298,41
793,37	1310,70
793,55	1279,98
793,72	1339,37
793,90	1277,93
794,07	1173,49
794,25	1275,88
794,42	1267,69
794,60	1218,54
794,77	1306,60
794,95	1318,89
795,12	1271,79
795,30	1304,56
795,47	1236,97
795,65	1224,69
795,82	1241,07
796,00	1222,64
796,17	1220,59
796,34	1243,12
796,52	1282,03
796,69	1310,70
796,87	1294,32
797,04	1304,56
797,22	1294,32
797,39	1341,42
797,57	1271,79
797,74	1241,07
797,92	1214,45
798,09	1265,64
798,27	1251,31
798,44	1314,80
798,62	1228,78
798,79	1288,17
798,96	1220,59
799,14	1263,60
799,31	1261,55
799,49	1302,51
799,66	1222,64
799,84	1236,97
800,01	1261,55
800,19	1200,11
800,36	1200,11
800,53	1306,60
800,71	1239,02
800,88	1214,45
801,06	1277,93
801,23	1277,93
801,41	1337,32
801,58	1185,77
801,75	1212,40
801,93	1230,83
802,10	1259,50
802,28	1310,70
802,45	1267,69
802,63	1216,49
802,80	1230,83
802,97	1214,45
803,15	1251,31
803,32	1261,55
803,50	1304,56
803,67	1255,40
803,84	1335,28
804,02	1265,64
804,19	1263,60
804,37	1236,97
804,54	1277,93
804,71	1241,07
804,89	1226,73
805,06	1312,75
805,24	1304,56
805,41	1200,11
805,58	1320,94
805,76	1284,08
805,93	1267,69
806,10	1273,84
806,28	1322,99
806,45	1298,41
806,63	1257,45
806,80	1243,12
806,97	1288,17
807,15	1298,41
807,32	1282,03
807,49	1277,93
807,67	1224,69
807,84	1247,21
808,01	1312,75
808,19	1220,59
808,36	1279,98
808,54	1288,17
808,71	1245,16
808,88	1312,75
809,06	1327,08
809,23	1304,56
809,40	1167,34
809,58	1294,32
809,75	1267,69
809,92	1251,31
810,10	1243,12
810,27	1226,73
810,44	1263,60
810,62	1200,11
810,79	1249,26
810,96	1263,60
811,14	1282,03
811,31	1243,12
811,48	1243,12
811,66	1245,16
811,83	1253,36
812,00	1245,16
812,18	1292,27
812,35	1304,56
812,52	1277,93
812,69	1234,93
812,87	1271,79
813,04	1253,36
813,21	1267,69
813,39	1249,26
813,56	1318,89
813,73	1275,88
813,91	1220,59
814,08	1298,41
814,25	1265,64
814,42	1294,32
814,60	1265,64
814,77	1322,99
814,94	1210,35
815,12	1335,28
815,29	1224,69
815,46	1273,84
815,63	1257,45
815,81	1255,40
815,98	1279,98
816,15	1345,52
816,33	1298,41
816,50	1290,22
816,67	1224,69
816,84	1259,50
817,02	1167,34
817,19	1286,12
817,36	1212,40
817,53	1292,27
817,71	1343,47
817,88	1277,93
818,05	1234,93
818,22	1257,45
818,40	1327,08
818,57	1196,01
818,74	1204,21
818,91	1230,83
819,09	1220,59
819,26	1226,73
819,43	1202,16
819,60	1265,64
819,78	1296,36
819,95	1286,12
820,12	1239,02
820,29	1271,79
820,47	1275,88
820,64	1312,75
820,81	1263,60
820,98	1259,50
821,15	1296,36
821,33	1325,04
821,50	1243,12
821,67	1241,07
821,84	1363,95
822,02	1271,79
822,19	1267,69
822,36	1314,80
822,53	1249,26
822,70	1259,50
822,88	1232,88
823,05	1294,32
823,22	1230,83
823,39	1294,32
823,56	1279,98
823,74	1286,12
823,91	1279,98
824,08	1239,02
824,25	1316,84
824,42	1257,45
824,60	1212,40
824,77	1259,50
824,94	1302,51
825,11	1247,21
825,28	1253,36
825,45	1257,45
825,63	1241,07
825,80	1294,32
825,97	1273,84
826,14	1245,16
826,31	1232,88
826,48	1302,51
826,66	1239,02
826,83	1247,21
827,00	1271,79
827,17	1290,22
827,34	1243,12
827,51	1296,36
827,69	1253,36
827,86	1189,87
828,03	1294,32
828,20	1269,74
828,37	1232,88
828,54	1286,12
828,71	1220,59
828,89	1304,56
829,06	1208,30
829,23	1298,41
829,40	1173,49
829,57	1245,16
829,74	1273,84
829,91	1253,36
830,09	1230,83
830,26	1247,21
830,43	1292,27
830,60	1224,69
830,77	1234,93
830,94	1228,78
831,11	1257,45
831,28	1263,60
831,46	1271,79
831,63	1271,79
831,80	1155,05
831,97	1267,69
832,14	1296,36
832,31	1322,99
832,48	1228,78
832,65	1241,07
832,82	1224,69
832,99	1267,69
833,17	1249,26
833,34	1286,12
833,51	1277,93
833,68	1284,08
833,85	1288,17
834,02	1275,88
834,19	1286,12
834,36	1251,31
834,53	1306,60
834,70	1261,55
834,87	1224,69
835,04	1263,60
835,22	1142,77
835,39	1282,03
835,56	1261,55
835,73	1247,21
835,90	1290,22
836,07	1279,98
836,24	1208,30
836,41	1345,52
836,58	1224,69
836,75	1198,06
836,92	1296,36
837,09	1339,37
837,26	1271,79
837,43	1306,60
837,60	1341,42
837,77	1286,12
837,94	1320,94
838,12	1232,88
838,29	1241,07
838,46	1208,30
838,63	1269,74
838,80	1224,69
838,97	1261,55
839,14	1222,64
839,31	1218,54
839,48	1234,93
839,65	1230,83
839,82	1259,50
839,99	1228,78
840,16	1304,56
840,33	1325,04
840,50	1302,51
840,67	1255,40
840,84	1214,45
841,01	1304,56
841,18	1267,69
841,35	1290,22
841,52	1306,60
841,69	1230,83
841,86	1241,07
842,03	1251,31
842,20	1284,08
842,37	1298,41
842,54	1288,17
842,71	1259,50
842,88	1253,36
843,05	1236,97
843,22	1288,17
843,39	1271,79
843,56	1341,42
843,73	1275,88
843,90	1294,32
844,07	1271,79
844,24	1218,54
844,41	1310,70
844,58	1214,45
844,75	1185,77
844,92	1257,45
845,09	1228,78
845,26	1228,78
845,43	1347,56
845,60	1316,84
845,77	1286,12
845,94	1261,55
846,10	1232,88
846,27	1263,60
846,44	1294,32
846,61	1253,36
846,78	1218,54
846,95	1277,93
847,12	1208,30
847,29	1228,78
847,46	1290,22
847,63	1269,74
847,80	1294,32
847,97	1273,84
848,14	1290,22
848,31	1290,22
848,48	1232,88
848,65	1320,94
848,82	1284,08
848,98	1220,59
849,15	1259,50
849,32	1273,84
849,49	1284,08
849,66	1251,31
849,83	1273,84
850,00	1298,41
850,17	1153,01
850,34	1333,23
850,51	1279,98
850,68	1275,88
850,85	1269,74
851,01	1249,26
851,18	1263,60
851,35	1300,46
851,52	1224,69
851,69	1306,60
851,86	1353,71
852,03	1249,26
852,20	1275,88
852,37	1279,98
852,53	1236,97
852,70	1325,04
852,87	1279,98
853,04	1284,08
853,21	1155,05
853,38	1267,69
853,55	1271,79
853,72	1263,60
853,89	1226,73
854,05	1216,49
854,22	1234,93
854,39	1263,60
854,56	1269,74
854,73	1255,40
854,90	1269,74
855,07	1286,12
855,23	1279,98
855,40	1247,21
855,57	1241,07
855,74	1286,12
855,91	1347,56
856,08	1261,55
856,25	1273,84
856,41	1284,08
856,58	1318,89
856,75	1269,74
856,92	1200,11
857,09	1343,47
857,26	1259,50
857,42	1273,84
857,59	1230,83
857,76	1255,40
857,93	1290,22
858,10	1304,56
858,27	1185,77
858,43	1189,87
858,60	1292,27
858,77	1296,36
858,94	1220,59
859,11	1249,26
859,27	1241,07
859,44	1216,49
859,61	1261,55
859,78	1290,22
859,95	1228,78
860,12	1230,83
860,28	1284,08
860,45	1241,07
860,62	1253,36
860,79	1273,84
860,95	1312,75
861,12	1286,12
861,29	1265,64
861,46	1214,45
861,63	1333,23
861,79	1290,22
861,96	1263,60
862,13	1220,59
862,30	1222,64
862,47	1294,32
862,63	1210,35
862,80	1275,88
862,97	1206,25
863,14	1298,41
863,30	1255,40
863,47	1400,81
863,64	1271,79
863,81	1236,97
863,97	1239,02
864,14	1226,73
864,31	1331,18
864,48	1306,60
864,65	1245,16
864,81	1224,69
864,98	1251,31
865,15	1343,47
865,32	1277,93
865,48	1320,94
865,65	1253,36
865,82	1284,08
865,98	1208,30
866,15	1249,26
866,32	1286,12
866,49	1300,46
866,65	1265,64
866,82	1214,45
866,99	1236,97
867,16	1214,45
867,32	1273,84
867,49	1230,83
867,66	1187,82
867,83	1300,46
867,99	1269,74
868,16	1288,17
868,33	1294,32
868,49	1273,84
868,66	1206,25
868,83	1249,26
868,99	1239,02
869,16	1292,27
869,33	1173,49
869,50	1222,64
869,66	1253,36
869,83	1253,36
870,00	1300,46
870,16	1255,40
870,33	1314,80
870,50	1290,22
870,66	1310,70
870,83	1284,08
871,00	1288,17
871,17	1222,64
871,33	1294,32
871,50	1316,84
871,67	1220,59
871,83	1249,26
872,00	1331,18
872,17	1218,54
872,33	1279,98
872,50	1261,55
872,67	1232,88
872,83	1200,11
873,00	1304,56
873,17	1296,36
873,33	1208,30
873,50	1271,79
873,67	1257,45
873,83	1224,69
874,00	1271,79
874,16	1269,74
874,33	1335,28
874,50	1243,12
874,66	1271,79
874,83	1310,70
875,00	1202,16
875,16	1241,07
875,33	1208,30
875,50	1298,41
875,66	1216,49
875,83	1249,26
875,99	1304,56
876,16	1257,45
876,33	1279,98
876,49	1325,04
876,66	1273,84
876,83	1329,13
876,99	1284,08
877,16	1212,40
877,32	1241,07
877,49	1167,34
877,66	1306,60
877,82	1236,97
877,99	1234,93
878,15	1198,06
878,32	1253,36
878,49	1320,94
878,65	1300,46
878,82	1267,69
878,98	1269,74
879,15	1353,71
879,32	1249,26
879,48	1279,98
879,65	1177,58
879,81	1220,59
879,98	1257,45
880,15	1243,12
880,31	1312,75
880,48	1279,98
880,64	1284,08
880,81	1273,84
880,97	1300,46
881,14	1370,09
881,31	1230,83
881,47	1271,79
881,64	1253,36
881,80	1255,40
881,97	1198,06
882,13	1247,21
882,30	1282,03
882,47	1257,45
882,63	1286,12
882,80	1255,40
882,96	1202,16
883,13	1202,16
883,29	1230,83
883,46	1282,03
883,62	1320,94
883,79	1304,56
883,95	1306,60
884,12	1275,88
884,29	1253,36
884,45	1224,69
884,62	1329,13
884,78	1304,56
884,95	1286,12
885,11	1294,32
885,28	1290,22
885,44	1259,50
885,61	1302,51
885,77	1306,60
885,94	1294,32
886,10	1234,93
886,27	1318,89
886,43	1271,79
886,60	1322,99
886,76	1239,02
886,93	1232,88
887,09	1277,93
887,26	1214,45
887,42	1333,23
887,59	1251,31
887,75	1259,50
887,92	1232,88
888,08	1216,49
888,25	1277,93
888,41	1220,59
888,58	1275,88
888,74	1236,97
888,91	1275,88
>>>>>End Processed Spectral Data<<<<<
