SpectraSuite Data File
++++++++++++++++++++++++++++++++++++
Date: Sun Apr 03 19:55:28 CEST 2016
User: root
Dark Spectrum Present: No
Reference Spectrum Present: No
Number of Sampled Component Spectra: 1
Spectrometers: USB4C02835
Integration Time (usec): 10000 (USB4C02835)
Spectra Averaged: 1 (USB4C02835)
Boxcar Smoothing: 0 (USB4C02835)
Correct for Electrical Dark: No (USB4C02835)
Strobe/Lamp Enabled: No (USB4C02835)
Correct for Detector Non-linearity: No (USB4C02835)
Correct for Stray Light: No (USB4C02835)
Number of Pixels in Processed Spectrum: 3648
>>>>>Begin Processed Spectral Data<<<<<
177,47	1230,83
177,69	1230,83
177,91	1230,83
178,13	1210,35
178,36	1206,25
178,58	1290,22
178,80	1294,32
179,02	1271,79
179,24	1306,60
179,46	1245,16
179,68	1273,84
179,90	1232,88
180,13	1249,26
180,35	1300,46
180,57	1279,98
180,79	1220,59
181,01	1261,55
181,23	1257,45
181,45	1247,21
181,67	1247,21
181,90	1300,46
182,12	1341,42
182,34	1224,69
182,56	1275,88
182,78	1226,73
183,00	1206,25
183,22	1314,80
183,44	1253,36
183,66	1318,89
183,89	1275,88
184,11	1241,07
184,33	1220,59
184,55	1294,32
184,77	1265,64
184,99	1304,56
185,21	1253,36
185,43	1228,78
185,65	1279,98
185,87	1288,17
186,10	1232,88
186,32	1247,21
186,54	1257,45
186,76	1318,89
186,98	1310,70
187,20	1222,64
187,42	1292,27
187,64	1304,56
187,86	1290,22
188,08	1261,55
188,30	1314,80
188,52	1261,55
188,75	1247,21
188,97	1261,55
189,19	1224,69
189,41	1245,16
189,63	1284,08
189,85	1312,75
190,07	1275,88
190,29	1257,45
190,51	1263,60
190,73	1226,73
190,95	1273,84
191,17	1286,12
191,39	1298,41
191,61	1322,99
191,84	1329,13
192,06	1208,30
192,28	1331,18
192,50	1249,26
192,72	1275,88
192,94	1277,93
193,16	1277,93
193,38	1296,36
193,60	1267,69
193,82	1298,41
194,04	1261,55
194,26	1230,83
194,48	1288,17
194,70	1269,74
194,92	1306,60
195,14	1251,31
195,36	1257,45
195,58	1290,22
195,80	1294,32
196,02	1249,26
196,24	1232,88
196,46	1304,56
196,69	1288,17
196,91	1230,83
197,13	1251,31
197,35	1247,21
197,57	1294,32
197,79	1284,08
198,01	1314,80
198,23	1226,73
198,45	1228,78
198,67	1302,51
198,89	1271,79
199,11	1247,21
199,33	1273,84
199,55	1247,21
199,77	1269,74
199,99	1304,56
200,21	1267,69
200,43	1302,51
200,65	1140,72
200,87	1216,49
201,09	1277,93
201,31	1314,80
201,53	1298,41
201,75	1304,56
201,97	1251,31
202,19	1304,56
202,41	1288,17
202,63	1279,98
202,85	1257,45
203,07	1255,40
203,29	1228,78
203,51	1292,27
203,73	1265,64
203,95	1316,84
204,17	1269,74
204,39	1361,90
204,61	1277,93
204,83	1279,98
205,05	1294,32
205,27	1261,55
205,49	1181,68
205,71	1273,84
205,93	1318,89
206,15	1269,74
206,37	1249,26
206,59	1296,36
206,81	1306,60
207,03	1234,93
207,25	1216,49
207,47	1267,69
207,69	1257,45
207,91	1302,51
208,13	1245,16
208,34	1306,60
208,56	1273,84
208,78	1239,02
209,00	1241,07
209,22	1241,07
209,44	1271,79
209,66	1241,07
209,88	1232,88
210,10	1271,79
210,32	1357,80
210,54	1290,22
210,76	1222,64
210,98	1245,16
211,20	1271,79
211,42	1241,07
211,64	1222,64
211,86	1263,60
212,08	1247,21
212,30	1247,21
212,52	1220,59
212,74	1224,69
212,96	1374,19
213,17	1255,40
213,39	1300,46
213,61	1251,31
213,83	1239,02
214,05	1204,21
214,27	1236,97
214,49	1181,68
214,71	1302,51
214,93	1355,76
215,15	1257,45
215,37	1232,88
215,59	1331,18
215,81	1298,41
216,03	1232,88
216,24	1234,93
216,46	1263,60
216,68	1296,36
216,90	1312,75
217,12	1140,72
217,34	1265,64
217,56	1230,83
217,78	1273,84
218,00	1282,03
218,22	1257,45
218,44	1226,73
218,66	1284,08
218,87	1327,08
219,09	1216,49
219,31	1255,40
219,53	1253,36
219,75	1249,26
219,97	1263,60
220,19	1320,94
220,41	1322,99
220,63	1296,36
220,85	1265,64
221,06	1284,08
221,28	1343,47
221,50	1288,17
221,72	1228,78
221,94	1253,36
222,16	1187,82
222,38	1241,07
222,60	1200,11
222,82	1308,65
223,03	1269,74
223,25	1245,16
223,47	1208,30
223,69	1316,84
223,91	1259,50
224,13	1232,88
224,35	1282,03
224,57	1298,41
224,78	1302,51
225,00	1302,51
225,22	1329,13
225,44	1247,21
225,66	1271,79
225,88	1249,26
226,10	1247,21
226,32	1286,12
226,53	1265,64
226,75	1288,17
226,97	1282,03
227,19	1277,93
227,41	1271,79
227,63	1261,55
227,85	1265,64
228,06	1241,07
228,28	1284,08
228,50	1224,69
228,72	1310,70
228,94	1296,36
229,16	1304,56
229,37	1200,11
229,59	1327,08
229,81	1343,47
230,03	1271,79
230,25	1296,36
230,47	1345,52
230,69	1277,93
230,90	1204,21
231,12	1267,69
231,34	1282,03
231,56	1325,04
231,78	1222,64
232,00	1306,60
232,21	1132,53
232,43	1273,84
232,65	1228,78
232,87	1288,17
233,09	1265,64
233,30	1210,35
233,52	1300,46
233,74	1282,03
233,96	1298,41
234,18	1267,69
234,40	1318,89
234,61	1261,55
234,83	1294,32
235,05	1234,93
235,27	1261,55
235,49	1318,89
235,70	1273,84
235,92	1282,03
236,14	1277,93
236,36	1284,08
236,58	1277,93
236,79	1279,98
237,01	1214,45
237,23	1331,18
237,45	1269,74
237,67	1216,49
237,88	1175,53
238,10	1269,74
238,32	1251,31
238,54	1245,16
238,76	1220,59
238,97	1239,02
239,19	1294,32
239,41	1277,93
239,63	1249,26
239,85	1196,01
240,06	1220,59
240,28	1247,21
240,50	1247,21
240,72	1249,26
240,93	1284,08
241,15	1230,83
241,37	1284,08
241,59	1167,34
241,81	1257,45
242,02	1275,88
242,24	1267,69
242,46	1259,50
242,68	1271,79
242,89	1263,60
243,11	1322,99
243,33	1279,98
243,55	1349,61
243,76	1296,36
243,98	1279,98
244,20	1267,69
244,42	1220,59
244,64	1294,32
244,85	1269,74
245,07	1290,22
245,29	1232,88
245,51	1308,65
245,72	1265,64
245,94	1239,02
246,16	1224,69
246,38	1245,16
246,59	1306,60
246,81	1249,26
247,03	1279,98
247,24	1286,12
247,46	1357,80
247,68	1206,25
247,90	1288,17
248,11	1288,17
248,33	1294,32
248,55	1206,25
248,77	1187,82
248,98	1296,36
249,20	1183,73
249,42	1222,64
249,64	1331,18
249,85	1239,02
250,07	1322,99
250,29	1247,21
250,50	1286,12
250,72	1220,59
250,94	1296,36
251,16	1345,52
251,37	1255,40
251,59	1306,60
251,81	1257,45
252,02	1320,94
252,24	1206,25
252,46	1265,64
252,68	1204,21
252,89	1296,36
253,11	1222,64
253,33	1296,36
253,54	1279,98
253,76	1284,08
253,98	1224,69
254,20	1318,89
254,41	1220,59
254,63	1314,80
254,85	1269,74
255,06	1314,80
255,28	1288,17
255,50	1216,49
255,71	1300,46
255,93	1322,99
256,15	1282,03
256,36	1310,70
256,58	1277,93
256,80	1224,69
257,02	1355,76
257,23	1257,45
257,45	1286,12
257,67	1245,16
257,88	1257,45
258,10	1314,80
258,32	1204,21
258,53	1212,40
258,75	1290,22
258,97	1220,59
259,18	1269,74
259,40	1277,93
259,62	1292,27
259,83	1224,69
260,05	1304,56
260,27	1294,32
260,48	1247,21
260,70	1255,40
260,92	1316,84
261,13	1267,69
261,35	1230,83
261,57	1216,49
261,78	1253,36
262,00	1282,03
262,22	1300,46
262,43	1327,08
262,65	1288,17
262,86	1245,16
263,08	1269,74
263,30	1306,60
263,51	1318,89
263,73	1314,80
263,95	1265,64
264,16	1181,68
264,38	1249,26
264,60	1316,84
264,81	1261,55
265,03	1294,32
265,25	1263,60
265,46	1290,22
265,68	1241,07
265,89	1298,41
266,11	1202,16
266,33	1275,88
266,54	1249,26
266,76	1243,12
266,98	1286,12
267,19	1320,94
267,41	1322,99
267,62	1314,80
267,84	1269,74
268,06	1282,03
268,27	1247,21
268,49	1271,79
268,70	1265,64
268,92	1224,69
269,14	1277,93
269,35	1236,97
269,57	1320,94
269,79	1245,16
270,00	1320,94
270,22	1263,60
270,43	1200,11
270,65	1234,93
270,87	1236,97
271,08	1325,04
271,30	1271,79
271,51	1318,89
271,73	1290,22
271,95	1208,30
272,16	1275,88
272,38	1241,07
272,59	1267,69
272,81	1216,49
273,02	1304,56
273,24	1224,69
273,46	1290,22
273,67	1232,88
273,89	1253,36
274,10	1239,02
274,32	1196,01
274,54	1187,82
274,75	1302,51
274,97	1208,30
275,18	1267,69
275,40	1282,03
275,61	1263,60
275,83	1292,27
276,05	1224,69
276,26	1245,16
276,48	1325,04
276,69	1302,51
276,91	1230,83
277,12	1288,17
277,34	1296,36
277,55	1259,50
277,77	1304,56
277,99	1312,75
278,20	1253,36
278,42	1290,22
278,63	1288,17
278,85	1279,98
279,06	1310,70
279,28	1275,88
279,49	1284,08
279,71	1296,36
279,93	1200,11
280,14	1202,16
280,36	1216,49
280,57	1198,06
280,79	1253,36
281,00	1312,75
281,22	1290,22
281,43	1345,52
281,65	1243,12
281,86	1243,12
282,08	1214,45
282,29	1284,08
282,51	1198,06
282,73	1249,26
282,94	1271,79
283,16	1271,79
283,37	1320,94
283,59	1284,08
283,80	1255,40
284,02	1259,50
284,23	1224,69
284,45	1290,22
284,66	1245,16
284,88	1275,88
285,09	1261,55
285,31	1222,64
285,52	1249,26
285,74	1314,80
285,95	1253,36
286,17	1200,11
286,38	1310,70
286,60	1308,65
286,81	1329,13
287,03	1247,21
287,24	1255,40
287,46	1300,46
287,67	1249,26
287,89	1290,22
288,10	1222,64
288,32	1271,79
288,53	1275,88
288,75	1253,36
288,96	1290,22
289,18	1310,70
289,39	1294,32
289,61	1218,54
289,82	1314,80
290,04	1308,65
290,25	1241,07
290,47	1198,06
290,68	1329,13
290,90	1200,11
291,11	1189,87
291,33	1241,07
291,54	1204,21
291,76	1267,69
291,97	1279,98
292,18	1302,51
292,40	1241,07
292,61	1212,40
292,83	1249,26
293,04	1286,12
293,26	1277,93
293,47	1279,98
293,69	1265,64
293,90	1265,64
294,12	1322,99
294,33	1269,74
294,55	1236,97
294,76	1288,17
294,97	1320,94
295,19	1320,94
295,40	1298,41
295,62	1261,55
295,83	1318,89
296,05	1275,88
296,26	1253,36
296,48	1353,71
296,69	1265,64
296,90	1302,51
297,12	1347,56
297,33	1232,88
297,55	1316,84
297,76	1380,33
297,98	1251,31
298,19	1314,80
298,41	1265,64
298,62	1284,08
298,83	1353,71
299,05	1306,60
299,26	1312,75
299,48	1288,17
299,69	1259,50
299,90	1208,30
300,12	1228,78
300,33	1241,07
300,55	1273,84
300,76	1224,69
300,98	1288,17
301,19	1282,03
301,40	1288,17
301,62	1310,70
301,83	1253,36
302,05	1353,71
302,26	1279,98
302,47	1290,22
302,69	1318,89
302,90	1282,03
303,12	1241,07
303,33	1273,84
303,54	1335,28
303,76	1269,74
303,97	1253,36
304,19	1261,55
304,40	1318,89
304,61	1300,46
304,83	1288,17
305,04	1263,60
305,26	1275,88
305,47	1277,93
305,68	1193,97
305,90	1249,26
306,11	1312,75
306,33	1298,41
306,54	1273,84
306,75	1294,32
306,97	1253,36
307,18	1234,93
307,39	1279,98
307,61	1296,36
307,82	1284,08
308,04	1249,26
308,25	1220,59
308,46	1230,83
308,68	1218,54
308,89	1308,65
309,10	1290,22
309,32	1282,03
309,53	1261,55
309,74	1337,32
309,96	1271,79
310,17	1337,32
310,39	1333,23
310,60	1234,93
310,81	1263,60
311,03	1247,21
311,24	1183,73
311,45	1310,70
311,67	1302,51
311,88	1310,70
312,09	1243,12
312,31	1200,11
312,52	1236,97
312,73	1210,35
312,95	1255,40
313,16	1318,89
313,37	1298,41
313,59	1241,07
313,80	1312,75
314,01	1331,18
314,23	1282,03
314,44	1265,64
314,65	1265,64
314,87	1228,78
315,08	1255,40
315,29	1241,07
315,51	1249,26
315,72	1220,59
315,93	1241,07
316,15	1265,64
316,36	1183,73
316,57	1275,88
316,79	1333,23
317,00	1265,64
317,21	1222,64
317,43	1239,02
317,64	1230,83
317,85	1292,27
318,07	1243,12
318,28	1236,97
318,49	1302,51
318,70	1183,73
318,92	1218,54
319,13	1341,42
319,34	1288,17
319,56	1243,12
319,77	1241,07
319,98	1265,64
320,20	1241,07
320,41	1296,36
320,62	1271,79
320,83	1331,18
321,05	1318,89
321,26	1282,03
321,47	1202,16
321,69	1277,93
321,90	1218,54
322,11	1236,97
322,32	1372,14
322,54	1236,97
322,75	1273,84
322,96	1327,08
323,18	1322,99
323,39	1296,36
323,60	1312,75
323,81	1257,45
324,03	1253,36
324,24	1277,93
324,45	1267,69
324,66	1263,60
324,88	1294,32
325,09	1279,98
325,30	1245,16
325,52	1302,51
325,73	1230,83
325,94	1290,22
326,15	1275,88
326,37	1265,64
326,58	1255,40
326,79	1265,64
327,00	1339,37
327,22	1247,21
327,43	1263,60
327,64	1306,60
327,85	1298,41
328,07	1196,01
328,28	1243,12
328,49	1265,64
328,70	1251,31
328,92	1255,40
329,13	1282,03
329,34	1353,71
329,55	1239,02
329,76	1261,55
329,98	1234,93
330,19	1290,22
330,40	1247,21
330,61	1298,41
330,83	1288,17
331,04	1228,78
331,25	1208,30
331,46	1224,69
331,68	1294,32
331,89	1343,47
332,10	1269,74
332,31	1273,84
332,52	1294,32
332,74	1230,83
332,95	1253,36
333,16	1273,84
333,37	1316,84
333,58	1322,99
333,80	1263,60
334,01	1212,40
334,22	1314,80
334,43	1282,03
334,64	1265,64
334,86	1222,64
335,07	1232,88
335,28	1224,69
335,49	1198,06
335,70	1310,70
335,92	1251,31
336,13	1279,98
336,34	1239,02
336,55	1257,45
336,76	1359,85
336,98	1241,07
337,19	1198,06
337,40	1263,60
337,61	1312,75
337,82	1320,94
338,04	1243,12
338,25	1257,45
338,46	1273,84
338,67	1232,88
338,88	1288,17
339,09	1259,50
339,31	1249,26
339,52	1275,88
339,73	1230,83
339,94	1226,73
340,15	1312,75
340,36	1271,79
340,58	1269,74
340,79	1312,75
341,00	1404,91
341,21	1300,46
341,42	1265,64
341,63	1255,40
341,85	1300,46
342,06	1236,97
342,27	1249,26
342,48	1286,12
342,69	1300,46
342,90	1302,51
343,12	1282,03
343,33	1212,40
343,54	1277,93
343,75	1216,49
343,96	1208,30
344,17	1222,64
344,38	1275,88
344,60	1216,49
344,81	1269,74
345,02	1282,03
345,23	1163,25
345,44	1314,80
345,65	1265,64
345,86	1220,59
346,07	1216,49
346,29	1259,50
346,50	1325,04
346,71	1196,01
346,92	1284,08
347,13	1257,45
347,34	1302,51
347,55	1331,18
347,76	1204,21
347,98	1290,22
348,19	1286,12
348,40	1239,02
348,61	1308,65
348,82	1271,79
349,03	1210,35
349,24	1267,69
349,45	1269,74
349,66	1222,64
349,88	1228,78
350,09	1302,51
350,30	1292,27
350,51	1314,80
350,72	1177,58
350,93	1284,08
351,14	1259,50
351,35	1208,30
351,56	1239,02
351,77	1265,64
351,99	1284,08
352,20	1329,13
352,41	1167,34
352,62	1228,78
352,83	1312,75
353,04	1163,25
353,25	1243,12
353,46	1210,35
353,67	1257,45
353,88	1294,32
354,09	1335,28
354,30	1298,41
354,52	1310,70
354,73	1300,46
354,94	1216,49
355,15	1222,64
355,36	1308,65
355,57	1261,55
355,78	1290,22
355,99	1208,30
356,20	1181,68
356,41	1251,31
356,62	1245,16
356,83	1286,12
357,04	1300,46
357,25	1228,78
357,46	1261,55
357,68	1257,45
357,89	1273,84
358,10	1273,84
358,31	1261,55
358,52	1208,30
358,73	1353,71
358,94	1322,99
359,15	1273,84
359,36	1286,12
359,57	1277,93
359,78	1177,58
359,99	1236,97
360,20	1286,12
360,41	1267,69
360,62	1284,08
360,83	1226,73
361,04	1247,21
361,25	1304,56
361,46	1245,16
361,67	1282,03
361,88	1249,26
362,09	1302,51
362,30	1230,83
362,51	1171,44
362,72	1271,79
362,93	1288,17
363,14	1275,88
363,35	1232,88
363,56	1282,03
363,78	1331,18
363,99	1249,26
364,20	1263,60
364,41	1290,22
364,62	1288,17
364,83	1271,79
365,04	1302,51
365,25	1302,51
365,46	1284,08
365,67	1271,79
365,88	1249,26
366,09	1249,26
366,30	1226,73
366,51	1290,22
366,72	1255,40
366,93	1249,26
367,14	1251,31
367,35	1310,70
367,56	1261,55
367,77	1224,69
367,98	1306,60
368,18	1234,93
368,39	1273,84
368,60	1263,60
368,81	1253,36
369,02	1212,40
369,23	1286,12
369,44	1296,36
369,65	1175,53
369,86	1212,40
370,07	1339,37
370,28	1314,80
370,49	1265,64
370,70	1306,60
370,91	1306,60
371,12	1232,88
371,33	1253,36
371,54	1331,18
371,75	1257,45
371,96	1314,80
372,17	1263,60
372,38	1273,84
372,59	1322,99
372,80	1333,23
373,01	1257,45
373,22	1247,21
373,43	1310,70
373,64	1189,87
373,85	1245,16
374,06	1339,37
374,26	1265,64
374,47	1345,52
374,68	1345,52
374,89	1239,02
375,10	1316,84
375,31	1279,98
375,52	1275,88
375,73	1288,17
375,94	1269,74
376,15	1290,22
376,36	1304,56
376,57	1282,03
376,78	1282,03
376,99	1257,45
377,20	1259,50
377,40	1214,45
377,61	1265,64
377,82	1306,60
378,03	1277,93
378,24	1275,88
378,45	1247,21
378,66	1181,68
378,87	1275,88
379,08	1247,21
379,29	1302,51
379,50	1294,32
379,71	1329,13
379,91	1234,93
380,12	1220,59
380,33	1257,45
380,54	1189,87
380,75	1200,11
380,96	1257,45
381,17	1259,50
381,38	1249,26
381,59	1279,98
381,80	1212,40
382,00	1243,12
382,21	1300,46
382,42	1253,36
382,63	1337,32
382,84	1257,45
383,05	1343,47
383,26	1284,08
383,47	1282,03
383,68	1292,27
383,88	1288,17
384,09	1294,32
384,30	1316,84
384,51	1255,40
384,72	1288,17
384,93	1214,45
385,14	1288,17
385,35	1302,51
385,55	1282,03
385,76	1300,46
385,97	1286,12
386,18	1335,28
386,39	1275,88
386,60	1306,60
386,81	1220,59
387,02	1263,60
387,22	1167,34
387,43	1249,26
387,64	1255,40
387,85	1232,88
388,06	1267,69
388,27	1259,50
388,48	1220,59
388,68	1335,28
388,89	1224,69
389,10	1249,26
389,31	1290,22
389,52	1167,34
389,73	1193,97
389,93	1239,02
390,14	1320,94
390,35	1304,56
390,56	1255,40
390,77	1271,79
390,98	1245,16
391,18	1282,03
391,39	1198,06
391,60	1298,41
391,81	1314,80
392,02	1255,40
392,23	1271,79
392,43	1228,78
392,64	1279,98
392,85	1220,59
393,06	1261,55
393,27	1298,41
393,47	1208,30
393,68	1290,22
393,89	1265,64
394,10	1275,88
394,31	1265,64
394,52	1277,93
394,72	1312,75
394,93	1275,88
395,14	1224,69
395,35	1185,77
395,56	1322,99
395,76	1253,36
395,97	1216,49
396,18	1216,49
396,39	1300,46
396,60	1265,64
396,80	1234,93
397,01	1282,03
397,22	1302,51
397,43	1294,32
397,64	1214,45
397,84	1306,60
398,05	1279,98
398,26	1228,78
398,47	1251,31
398,67	1312,75
398,88	1310,70
399,09	1267,69
399,30	1271,79
399,51	1304,56
399,71	1290,22
399,92	1318,89
400,13	1314,80
400,34	1312,75
400,54	1355,76
400,75	1282,03
400,96	1247,21
401,17	1284,08
401,37	1267,69
401,58	1259,50
401,79	1259,50
402,00	1239,02
402,21	1224,69
402,41	1322,99
402,62	1286,12
402,83	1288,17
403,04	1277,93
403,24	1296,36
403,45	1234,93
403,66	1232,88
403,87	1284,08
404,07	1218,54
404,28	1304,56
404,49	1253,36
404,70	1249,26
404,90	1271,79
405,11	1236,97
405,32	1290,22
405,52	1222,64
405,73	1249,26
405,94	1224,69
406,15	1273,84
406,35	1249,26
406,56	1259,50
406,77	1368,04
406,98	1271,79
407,18	1320,94
407,39	1226,73
407,60	1275,88
407,80	1212,40
408,01	1236,97
408,22	1337,32
408,43	1193,97
408,63	1267,69
408,84	1337,32
409,05	1296,36
409,25	1267,69
409,46	1251,31
409,67	1282,03
409,88	1304,56
410,08	1253,36
410,29	1318,89
410,50	1282,03
410,70	1271,79
410,91	1255,40
411,12	1290,22
411,32	1259,50
411,53	1298,41
411,74	1288,17
411,95	1230,83
412,15	1282,03
412,36	1286,12
412,57	1183,73
412,77	1282,03
412,98	1247,21
413,19	1284,08
413,39	1263,60
413,60	1271,79
413,81	1286,12
414,01	1294,32
414,22	1312,75
414,43	1271,79
414,63	1249,26
414,84	1316,84
415,05	1222,64
415,25	1228,78
415,46	1290,22
415,67	1224,69
415,87	1230,83
416,08	1261,55
416,29	1236,97
416,49	1265,64
416,70	1284,08
416,91	1296,36
417,11	1298,41
417,32	1247,21
417,53	1269,74
417,73	1273,84
417,94	1251,31
418,15	1279,98
418,35	1290,22
418,56	1314,80
418,77	1331,18
418,97	1228,78
419,18	1265,64
419,38	1204,21
419,59	1339,37
419,80	1318,89
420,00	1329,13
420,21	1341,42
420,42	1261,55
420,62	1329,13
420,83	1216,49
421,04	1263,60
421,24	1196,01
421,45	1216,49
421,65	1316,84
421,86	1279,98
422,07	1282,03
422,27	1304,56
422,48	1232,88
422,69	1275,88
422,89	1277,93
423,10	1290,22
423,30	1275,88
423,51	1273,84
423,72	1353,71
423,92	1353,71
424,13	1296,36
424,33	1251,31
424,54	1265,64
424,75	1263,60
424,95	1251,31
425,16	1339,37
425,36	1327,08
425,57	1284,08
425,78	1263,60
425,98	1226,73
426,19	1263,60
426,39	1183,73
426,60	1232,88
426,81	1284,08
427,01	1273,84
427,22	1282,03
427,42	1277,93
427,63	1224,69
427,83	1275,88
428,04	1357,80
428,25	1224,69
428,45	1202,16
428,66	1322,99
428,86	1253,36
429,07	1282,03
429,28	1286,12
429,48	1302,51
429,69	1275,88
429,89	1259,50
430,10	1224,69
430,30	1261,55
430,51	1284,08
430,71	1220,59
430,92	1282,03
431,13	1263,60
431,33	1288,17
431,54	1327,08
431,74	1314,80
431,95	1314,80
432,15	1294,32
432,36	1275,88
432,56	1337,32
432,77	1306,60
432,98	1306,60
433,18	1337,32
433,39	1214,45
433,59	1224,69
433,80	1265,64
434,00	1241,07
434,21	1228,78
434,41	1290,22
434,62	1282,03
434,82	1249,26
435,03	1216,49
435,23	1234,93
435,44	1298,41
435,64	1282,03
435,85	1282,03
436,06	1316,84
436,26	1232,88
436,47	1202,16
436,67	1210,35
436,88	1263,60
437,08	1306,60
437,29	1253,36
437,49	1279,98
437,70	1267,69
437,90	1232,88
438,11	1267,69
438,31	1224,69
438,52	1327,08
438,72	1310,70
438,93	1320,94
439,13	1273,84
439,34	1288,17
439,54	1198,06
439,75	1210,35
439,95	1257,45
440,16	1286,12
440,36	1259,50
440,57	1292,27
440,77	1273,84
440,98	1255,40
441,18	1286,12
441,39	1306,60
441,59	1286,12
441,80	1218,54
442,00	1339,37
442,21	1275,88
442,41	1304,56
442,62	1298,41
442,82	1282,03
443,02	1210,35
443,23	1292,27
443,43	1245,16
443,64	1239,02
443,84	1306,60
444,05	1296,36
444,25	1245,16
444,46	1339,37
444,66	1273,84
444,87	1198,06
445,07	1253,36
445,28	1308,65
445,48	1329,13
445,69	1320,94
445,89	1255,40
446,09	1269,74
446,30	1286,12
446,50	1312,75
446,71	1341,42
446,91	1284,08
447,12	1208,30
447,32	1257,45
447,53	1327,08
447,73	1298,41
447,93	1339,37
448,14	1226,73
448,34	1300,46
448,55	1214,45
448,75	1308,65
448,96	1271,79
449,16	1275,88
449,36	1261,55
449,57	1288,17
449,77	1304,56
449,98	1306,60
450,18	1357,80
450,39	1320,94
450,59	1316,84
450,79	1253,36
451,00	1282,03
451,20	1245,16
451,41	1304,56
451,61	1279,98
451,81	1257,45
452,02	1267,69
452,22	1265,64
452,43	1257,45
452,63	1216,49
452,84	1241,07
453,04	1294,32
453,24	1286,12
453,45	1267,69
453,65	1263,60
453,86	1261,55
454,06	1232,88
454,26	1296,36
454,47	1196,01
454,67	1382,38
454,87	1343,47
455,08	1222,64
455,28	1265,64
455,49	1300,46
455,69	1265,64
455,89	1318,89
456,10	1282,03
456,30	1284,08
456,51	1208,30
456,71	1273,84
456,91	1257,45
457,12	1284,08
457,32	1230,83
457,52	1265,64
457,73	1208,30
457,93	1300,46
458,14	1253,36
458,34	1230,83
458,54	1259,50
458,75	1267,69
458,95	1267,69
459,15	1232,88
459,36	1202,16
459,56	1282,03
459,76	1273,84
459,97	1318,89
460,17	1325,04
460,37	1296,36
460,58	1316,84
460,78	1355,76
460,99	1241,07
461,19	1296,36
461,39	1271,79
461,60	1310,70
461,80	1273,84
462,00	1265,64
462,21	1300,46
462,41	1294,32
462,61	1269,74
462,82	1279,98
463,02	1343,47
463,22	1273,84
463,43	1304,56
463,63	1265,64
463,83	1320,94
464,04	1339,37
464,24	1302,51
464,44	1259,50
464,64	1312,75
464,85	1288,17
465,05	1339,37
465,25	1257,45
465,46	1253,36
465,66	1214,45
465,86	1271,79
466,07	1290,22
466,27	1220,59
466,47	1333,23
466,68	1343,47
466,88	1363,95
467,08	1245,16
467,29	1224,69
467,49	1290,22
467,69	1212,40
467,89	1308,65
468,10	1210,35
468,30	1308,65
468,50	1294,32
468,71	1312,75
468,91	1294,32
469,11	1253,36
469,31	1255,40
469,52	1214,45
469,72	1224,69
469,92	1253,36
470,13	1298,41
470,33	1234,93
470,53	1255,40
470,73	1279,98
470,94	1345,52
471,14	1247,21
471,34	1236,97
471,54	1226,73
471,75	1257,45
471,95	1249,26
472,15	1249,26
472,36	1337,32
472,56	1282,03
472,76	1261,55
472,96	1345,52
473,17	1191,92
473,37	1333,23
473,57	1290,22
473,77	1314,80
473,98	1220,59
474,18	1222,64
474,38	1212,40
474,58	1294,32
474,79	1333,23
474,99	1216,49
475,19	1263,60
475,39	1347,56
475,60	1288,17
475,80	1241,07
476,00	1269,74
476,20	1273,84
476,41	1249,26
476,61	1275,88
476,81	1232,88
477,01	1306,60
477,21	1224,69
477,42	1232,88
477,62	1316,84
477,82	1167,34
478,02	1320,94
478,23	1331,18
478,43	1261,55
478,63	1310,70
478,83	1212,40
479,03	1243,12
479,24	1341,42
479,44	1345,52
479,64	1230,83
479,84	1173,49
480,04	1261,55
480,25	1257,45
480,45	1261,55
480,65	1198,06
480,85	1286,12
481,06	1273,84
481,26	1333,23
481,46	1294,32
481,66	1220,59
481,86	1320,94
482,06	1298,41
482,27	1298,41
482,47	1335,28
482,67	1265,64
482,87	1247,21
483,07	1292,27
483,28	1257,45
483,48	1263,60
483,68	1335,28
483,88	1271,79
484,08	1306,60
484,29	1226,73
484,49	1261,55
484,69	1243,12
484,89	1327,08
485,09	1269,74
485,29	1302,51
485,50	1247,21
485,70	1218,54
485,90	1218,54
486,10	1271,79
486,30	1239,02
486,50	1224,69
486,71	1257,45
486,91	1208,30
487,11	1322,99
487,31	1296,36
487,51	1290,22
487,71	1239,02
487,91	1308,65
488,12	1232,88
488,32	1255,40
488,52	1243,12
488,72	1273,84
488,92	1329,13
489,12	1249,26
489,32	1239,02
489,53	1269,74
489,73	1275,88
489,93	1247,21
490,13	1251,31
490,33	1181,68
490,53	1296,36
490,73	1288,17
490,94	1284,08
491,14	1175,53
491,34	1269,74
491,54	1322,99
491,74	1306,60
491,94	1269,74
492,14	1265,64
492,34	1292,27
492,54	1259,50
492,75	1296,36
492,95	1333,23
493,15	1335,28
493,35	1251,31
493,55	1253,36
493,75	1282,03
493,95	1282,03
494,15	1230,83
494,35	1322,99
494,56	1269,74
494,76	1351,66
494,96	1247,21
495,16	1288,17
495,36	1279,98
495,56	1282,03
495,76	1239,02
495,96	1253,36
496,16	1245,16
496,36	1370,09
496,56	1296,36
496,77	1325,04
496,97	1290,22
497,17	1337,32
497,37	1259,50
497,57	1288,17
497,77	1347,56
497,97	1206,25
498,17	1318,89
498,37	1308,65
498,57	1275,88
498,77	1300,46
498,97	1263,60
499,17	1208,30
499,38	1261,55
499,58	1298,41
499,78	1218,54
499,98	1271,79
500,18	1320,94
500,38	1259,50
500,58	1277,93
500,78	1249,26
500,98	1253,36
501,18	1251,31
501,38	1304,56
501,58	1382,38
501,78	1304,56
501,98	1249,26
502,18	1253,36
502,38	1286,12
502,58	1245,16
502,78	1296,36
502,98	1298,41
503,18	1257,45
503,38	1218,54
503,59	1296,36
503,79	1271,79
503,99	1261,55
504,19	1236,97
504,39	1322,99
504,59	1349,61
504,79	1265,64
504,99	1228,78
505,19	1294,32
505,39	1282,03
505,59	1316,84
505,79	1308,65
505,99	1335,28
506,19	1294,32
506,39	1267,69
506,59	1214,45
506,79	1253,36
506,99	1279,98
507,19	1302,51
507,39	1277,93
507,59	1325,04
507,79	1222,64
507,99	1366,00
508,19	1277,93
508,39	1218,54
508,59	1251,31
508,79	1279,98
508,99	1222,64
509,19	1263,60
509,39	1310,70
509,59	1226,73
509,79	1232,88
509,99	1308,65
510,19	1271,79
510,39	1298,41
510,59	1222,64
510,79	1314,80
510,99	1210,35
511,19	1300,46
511,39	1249,26
511,59	1257,45
511,79	1267,69
511,99	1230,83
512,19	1234,93
512,38	1251,31
512,58	1378,28
512,78	1284,08
512,98	1236,97
513,18	1390,57
513,38	1196,01
513,58	1232,88
513,78	1302,51
513,98	1357,80
514,18	1335,28
514,38	1198,06
514,58	1314,80
514,78	1271,79
514,98	1224,69
515,18	1355,76
515,38	1275,88
515,58	1306,60
515,78	1279,98
515,98	1257,45
516,18	1341,42
516,38	1267,69
516,57	1226,73
516,77	1271,79
516,97	1296,36
517,17	1288,17
517,37	1210,35
517,57	1292,27
517,77	1265,64
517,97	1247,21
518,17	1261,55
518,37	1249,26
518,57	1208,30
518,77	1257,45
518,97	1241,07
519,16	1296,36
519,36	1261,55
519,56	1327,08
519,76	1298,41
519,96	1314,80
520,16	1245,16
520,36	1284,08
520,56	1275,88
520,76	1304,56
520,96	1296,36
521,16	1329,13
521,35	1271,79
521,55	1226,73
521,75	1329,13
521,95	1320,94
522,15	1277,93
522,35	1236,97
522,55	1269,74
522,75	1255,40
522,95	1310,70
523,14	1218,54
523,34	1331,18
523,54	1232,88
523,74	1351,66
523,94	1306,60
524,14	1243,12
524,34	1210,35
524,54	1189,87
524,73	1232,88
524,93	1271,79
525,13	1282,03
525,33	1277,93
525,53	1232,88
525,73	1355,76
525,93	1318,89
526,13	1241,07
526,32	1279,98
526,52	1196,01
526,72	1263,60
526,92	1265,64
527,12	1218,54
527,32	1314,80
527,52	1331,18
527,71	1251,31
527,91	1210,35
528,11	1253,36
528,31	1249,26
528,51	1306,60
528,71	1312,75
528,90	1222,64
529,10	1386,47
529,30	1322,99
529,50	1226,73
529,70	1271,79
529,90	1259,50
530,09	1277,93
530,29	1320,94
530,49	1269,74
530,69	1306,60
530,89	1355,76
531,09	1368,04
531,28	1304,56
531,48	1304,56
531,68	1314,80
531,88	1345,52
532,08	1273,84
532,28	1282,03
532,47	1247,21
532,67	1341,42
532,87	1247,21
533,07	1294,32
533,27	1282,03
533,46	1284,08
533,66	1220,59
533,86	1282,03
534,06	1232,88
534,26	1230,83
534,45	1331,18
534,65	1216,49
534,85	1284,08
535,05	1288,17
535,25	1230,83
535,44	1335,28
535,64	1298,41
535,84	1290,22
536,04	1288,17
536,24	1314,80
536,43	1279,98
536,63	1282,03
536,83	1255,40
537,03	1382,38
537,22	1247,21
537,42	1198,06
537,62	1196,01
537,82	1314,80
538,02	1267,69
538,21	1277,93
538,41	1236,97
538,61	1245,16
538,81	1269,74
539,00	1284,08
539,20	1296,36
539,40	1271,79
539,60	1322,99
539,79	1322,99
539,99	1236,97
540,19	1279,98
540,39	1279,98
540,58	1263,60
540,78	1298,41
540,98	1265,64
541,18	1239,02
541,37	1288,17
541,57	1251,31
541,77	1329,13
541,97	1232,88
542,16	1314,80
542,36	1290,22
542,56	1261,55
542,76	1314,80
542,95	1394,67
543,15	1265,64
543,35	1331,18
543,54	1300,46
543,74	1220,59
543,94	1257,45
544,14	1306,60
544,33	1214,45
544,53	1380,33
544,73	1273,84
544,93	1279,98
545,12	1302,51
545,32	1216,49
545,52	1257,45
545,71	1329,13
545,91	1296,36
546,11	1232,88
546,30	1308,65
546,50	1284,08
546,70	1230,83
546,90	1298,41
547,09	1310,70
547,29	1290,22
547,49	1314,80
547,68	1279,98
547,88	1253,36
548,08	1286,12
548,27	1363,95
548,47	1325,04
548,67	1310,70
548,87	1300,46
549,06	1320,94
549,26	1308,65
549,46	1275,88
549,65	1198,06
549,85	1269,74
550,05	1257,45
550,24	1327,08
550,44	1290,22
550,64	1228,78
550,83	1322,99
551,03	1265,64
551,23	1257,45
551,42	1316,84
551,62	1316,84
551,82	1351,66
552,01	1204,21
552,21	1275,88
552,41	1279,98
552,60	1249,26
552,80	1251,31
553,00	1259,50
553,19	1333,23
553,39	1286,12
553,59	1253,36
553,78	1277,93
553,98	1286,12
554,17	1277,93
554,37	1316,84
554,57	1259,50
554,76	1343,47
554,96	1271,79
555,16	1302,51
555,35	1247,21
555,55	1290,22
555,75	1292,27
555,94	1288,17
556,14	1255,40
556,33	1374,19
556,53	1294,32
556,73	1263,60
556,92	1269,74
557,12	1302,51
557,32	1310,70
557,51	1253,36
557,71	1269,74
557,90	1314,80
558,10	1302,51
558,30	1273,84
558,49	1255,40
558,69	1259,50
558,88	1230,83
559,08	1275,88
559,28	1335,28
559,47	1232,88
559,67	1306,60
559,86	1380,33
560,06	1271,79
560,26	1314,80
560,45	1312,75
560,65	1314,80
560,84	1292,27
561,04	1347,56
561,24	1275,88
561,43	1284,08
561,63	1245,16
561,82	1259,50
562,02	1234,93
562,22	1331,18
562,41	1277,93
562,61	1222,64
562,80	1277,93
563,00	1322,99
563,19	1347,56
563,39	1298,41
563,59	1230,83
563,78	1306,60
563,98	1284,08
564,17	1314,80
564,37	1288,17
564,56	1271,79
564,76	1267,69
564,96	1308,65
565,15	1325,04
565,35	1372,14
565,54	1267,69
565,74	1298,41
565,93	1230,83
566,13	1282,03
566,32	1341,42
566,52	1288,17
566,71	1296,36
566,91	1357,80
567,11	1263,60
567,30	1220,59
567,50	1265,64
567,69	1302,51
567,89	1239,02
568,08	1318,89
568,28	1298,41
568,47	1267,69
568,67	1210,35
568,86	1269,74
569,06	1265,64
569,25	1241,07
569,45	1306,60
569,64	1300,46
569,84	1257,45
570,04	1273,84
570,23	1259,50
570,43	1234,93
570,62	1329,13
570,82	1310,70
571,01	1255,40
571,21	1273,84
571,40	1300,46
571,60	1271,79
571,79	1267,69
571,99	1267,69
572,18	1236,97
572,38	1275,88
572,57	1288,17
572,77	1290,22
572,96	1292,27
573,16	1290,22
573,35	1245,16
573,55	1353,71
573,74	1249,26
573,94	1288,17
574,13	1288,17
574,33	1325,04
574,52	1331,18
574,71	1198,06
574,91	1306,60
575,10	1263,60
575,30	1279,98
575,49	1343,47
575,69	1261,55
575,88	1232,88
576,08	1284,08
576,27	1187,82
576,47	1275,88
576,66	1175,53
576,86	1214,45
577,05	1372,14
577,25	1267,69
577,44	1310,70
577,64	1232,88
577,83	1320,94
578,02	1279,98
578,22	1234,93
578,41	1273,84
578,61	1277,93
578,80	1277,93
579,00	1310,70
579,19	1265,64
579,39	1351,66
579,58	1304,56
579,77	1288,17
579,97	1249,26
580,16	1171,44
580,36	1327,08
580,55	1267,69
580,75	1286,12
580,94	1167,34
581,13	1318,89
581,33	1306,60
581,52	1351,66
581,72	1230,83
581,91	1245,16
582,11	1284,08
582,30	1249,26
582,49	1230,83
582,69	1247,21
582,88	1251,31
583,08	1296,36
583,27	1228,78
583,47	1290,22
583,66	1239,02
583,85	1306,60
584,05	1345,52
584,24	1329,13
584,44	1277,93
584,63	1284,08
584,82	1322,99
585,02	1224,69
585,21	1284,08
585,41	1298,41
585,60	1288,17
585,79	1230,83
585,99	1267,69
586,18	1347,56
586,37	1325,04
586,57	1257,45
586,76	1304,56
586,96	1277,93
587,15	1298,41
587,34	1302,51
587,54	1296,36
587,73	1257,45
587,93	1253,36
588,12	1277,93
588,31	1329,13
588,51	1255,40
588,70	1292,27
588,89	1318,89
589,09	1312,75
589,28	1296,36
589,47	1247,21
589,67	1298,41
589,86	1275,88
590,06	1271,79
590,25	1232,88
590,44	1251,31
590,64	1271,79
590,83	1245,16
591,02	1265,64
591,22	1275,88
591,41	1232,88
591,60	1273,84
591,80	1327,08
591,99	1279,98
592,18	1271,79
592,38	1333,23
592,57	1298,41
592,76	1220,59
592,96	1304,56
593,15	1325,04
593,34	1239,02
593,54	1374,19
593,73	1290,22
593,92	1273,84
594,12	1294,32
594,31	1314,80
594,50	1335,28
594,70	1300,46
594,89	1249,26
595,08	1253,36
595,28	1269,74
595,47	1208,30
595,66	1265,64
595,86	1298,41
596,05	1325,04
596,24	1302,51
596,43	1306,60
596,63	1257,45
596,82	1282,03
597,01	1298,41
597,21	1298,41
597,40	1224,69
597,59	1239,02
597,79	1222,64
597,98	1253,36
598,17	1277,93
598,36	1267,69
598,56	1255,40
598,75	1296,36
598,94	1308,65
599,14	1288,17
599,33	1251,31
599,52	1327,08
599,71	1247,21
599,91	1263,60
600,10	1316,84
600,29	1318,89
600,48	1288,17
600,68	1308,65
600,87	1253,36
601,06	1288,17
601,26	1261,55
601,45	1341,42
601,64	1302,51
601,83	1388,52
602,03	1357,80
602,22	1279,98
602,41	1282,03
602,60	1279,98
602,80	1255,40
602,99	1322,99
603,18	1245,16
603,37	1245,16
603,57	1241,07
603,76	1288,17
603,95	1271,79
604,14	1216,49
604,34	1257,45
604,53	1327,08
604,72	1239,02
604,91	1286,12
605,10	1257,45
605,30	1251,31
605,49	1269,74
605,68	1277,93
605,87	1277,93
606,07	1230,83
606,26	1318,89
606,45	1232,88
606,64	1288,17
606,84	1314,80
607,03	1273,84
607,22	1222,64
607,41	1290,22
607,60	1331,18
607,80	1316,84
607,99	1284,08
608,18	1337,32
608,37	1279,98
608,56	1189,87
608,76	1257,45
608,95	1234,93
609,14	1284,08
609,33	1302,51
609,52	1255,40
609,72	1247,21
609,91	1368,04
610,10	1263,60
610,29	1306,60
610,48	1368,04
610,68	1214,45
610,87	1212,40
611,06	1255,40
611,25	1320,94
611,44	1331,18
611,63	1320,94
611,83	1253,36
612,02	1275,88
612,21	1306,60
612,40	1284,08
612,59	1234,93
612,79	1259,50
612,98	1298,41
613,17	1296,36
613,36	1290,22
613,55	1318,89
613,74	1284,08
613,93	1265,64
614,13	1294,32
614,32	1288,17
614,51	1228,78
614,70	1290,22
614,89	1290,22
615,08	1265,64
615,28	1322,99
615,47	1249,26
615,66	1298,41
615,85	1292,27
616,04	1304,56
616,23	1226,73
616,42	1286,12
616,62	1351,66
616,81	1306,60
617,00	1198,06
617,19	1314,80
617,38	1288,17
617,57	1316,84
617,76	1269,74
617,95	1304,56
618,15	1355,76
618,34	1351,66
618,53	1196,01
618,72	1232,88
618,91	1275,88
619,10	1286,12
619,29	1284,08
619,48	1308,65
619,68	1304,56
619,87	1325,04
620,06	1308,65
620,25	1239,02
620,44	1292,27
620,63	1249,26
620,82	1318,89
621,01	1302,51
621,20	1296,36
621,39	1353,71
621,59	1294,32
621,78	1265,64
621,97	1296,36
622,16	1271,79
622,35	1245,16
622,54	1306,60
622,73	1306,60
622,92	1290,22
623,11	1304,56
623,30	1327,08
623,49	1314,80
623,68	1304,56
623,88	1216,49
624,07	1255,40
624,26	1241,07
624,45	1302,51
624,64	1310,70
624,83	1294,32
625,02	1265,64
625,21	1239,02
625,40	1261,55
625,59	1236,97
625,78	1294,32
625,97	1316,84
626,16	1306,60
626,35	1255,40
626,54	1282,03
626,74	1288,17
626,93	1298,41
627,12	1302,51
627,31	1376,24
627,50	1388,52
627,69	1314,80
627,88	1273,84
628,07	1290,22
628,26	1306,60
628,45	1292,27
628,64	1452,01
628,83	1241,07
629,02	1271,79
629,21	1353,71
629,40	1259,50
629,59	1380,33
629,78	1333,23
629,97	1304,56
630,16	1341,42
630,35	1343,47
630,54	1357,80
630,73	1419,24
630,92	1329,13
631,11	1314,80
631,30	1359,85
631,49	1392,62
631,68	1642,47
631,87	2115,55
632,06	3571,66
632,25	2979,79
632,44	3811,27
632,63	5113,78
632,82	9236,34
633,01	8957,82
633,20	18554,60
633,39	41407,88
633,58	59440,24
633,77	65535,00
633,96	65535,00
634,15	56753,31
634,34	35558,88
634,53	19633,88
634,72	10866,52
634,91	5545,90
635,10	3014,61
635,29	2025,44
635,48	1660,90
635,67	1507,30
635,86	1505,26
636,05	1482,73
636,24	1384,43
636,43	1421,29
636,62	1411,05
636,81	1331,18
637,00	1394,67
637,19	1306,60
637,38	1361,90
637,57	1398,76
637,76	1384,43
637,95	1286,12
638,14	1382,38
638,33	1306,60
638,52	1312,75
638,71	1210,35
638,89	1271,79
639,08	1347,56
639,27	1325,04
639,46	1265,64
639,65	1341,42
639,84	1308,65
640,03	1284,08
640,22	1325,04
640,41	1273,84
640,60	1243,12
640,79	1290,22
640,98	1337,32
641,17	1228,78
641,36	1269,74
641,55	1345,52
641,74	1226,73
641,92	1298,41
642,11	1265,64
642,30	1243,12
642,49	1284,08
642,68	1269,74
642,87	1282,03
643,06	1310,70
643,25	1331,18
643,44	1298,41
643,63	1374,19
643,82	1329,13
644,00	1167,34
644,19	1292,27
644,38	1277,93
644,57	1265,64
644,76	1261,55
644,95	1314,80
645,14	1302,51
645,33	1261,55
645,52	1253,36
645,71	1298,41
645,89	1304,56
646,08	1292,27
646,27	1286,12
646,46	1370,09
646,65	1294,32
646,84	1279,98
647,03	1273,84
647,22	1261,55
647,40	1202,16
647,59	1312,75
647,78	1271,79
647,97	1331,18
648,16	1249,26
648,35	1253,36
648,54	1257,45
648,73	1363,95
648,91	1310,70
649,10	1208,30
649,29	1294,32
649,48	1214,45
649,67	1226,73
649,86	1271,79
650,05	1312,75
650,23	1271,79
650,42	1261,55
650,61	1304,56
650,80	1228,78
650,99	1339,37
651,18	1314,80
651,36	1198,06
651,55	1275,88
651,74	1339,37
651,93	1275,88
652,12	1255,40
652,31	1251,31
652,49	1290,22
652,68	1282,03
652,87	1273,84
653,06	1265,64
653,25	1282,03
653,44	1236,97
653,62	1316,84
653,81	1304,56
654,00	1241,07
654,19	1232,88
654,38	1318,89
654,56	1288,17
654,75	1222,64
654,94	1312,75
655,13	1239,02
655,32	1284,08
655,51	1255,40
655,69	1308,65
655,88	1308,65
656,07	1239,02
656,26	1261,55
656,45	1214,45
656,63	1255,40
656,82	1294,32
657,01	1333,23
657,20	1265,64
657,38	1335,28
657,57	1259,50
657,76	1257,45
657,95	1251,31
658,14	1359,85
658,32	1259,50
658,51	1306,60
658,70	1216,49
658,89	1308,65
659,08	1302,51
659,26	1333,23
659,45	1312,75
659,64	1239,02
659,83	1239,02
660,01	1265,64
660,20	1239,02
660,39	1261,55
660,58	1310,70
660,76	1241,07
660,95	1249,26
661,14	1284,08
661,33	1304,56
661,51	1284,08
661,70	1300,46
661,89	1273,84
662,08	1316,84
662,26	1228,78
662,45	1279,98
662,64	1269,74
662,83	1277,93
663,01	1353,71
663,20	1304,56
663,39	1302,51
663,58	1267,69
663,76	1282,03
663,95	1279,98
664,14	1239,02
664,32	1249,26
664,51	1282,03
664,70	1251,31
664,89	1288,17
665,07	1290,22
665,26	1279,98
665,45	1241,07
665,64	1255,40
665,82	1290,22
666,01	1232,88
666,20	1253,36
666,38	1265,64
666,57	1247,21
666,76	1341,42
666,95	1290,22
667,13	1261,55
667,32	1273,84
667,51	1239,02
667,69	1255,40
667,88	1253,36
668,07	1214,45
668,25	1275,88
668,44	1325,04
668,63	1269,74
668,81	1243,12
669,00	1241,07
669,19	1267,69
669,38	1253,36
669,56	1288,17
669,75	1261,55
669,94	1282,03
670,12	1253,36
670,31	1308,65
670,50	1296,36
670,68	1363,95
670,87	1257,45
671,06	1306,60
671,24	1312,75
671,43	1249,26
671,62	1236,97
671,80	1245,16
671,99	1255,40
672,18	1212,40
672,36	1263,60
672,55	1286,12
672,74	1265,64
672,92	1279,98
673,11	1228,78
673,29	1290,22
673,48	1263,60
673,67	1183,73
673,85	1224,69
674,04	1214,45
674,23	1275,88
674,41	1312,75
674,60	1331,18
674,79	1249,26
674,97	1241,07
675,16	1284,08
675,34	1257,45
675,53	1288,17
675,72	1271,79
675,90	1249,26
676,09	1269,74
676,28	1304,56
676,46	1279,98
676,65	1249,26
676,83	1322,99
677,02	1257,45
677,21	1161,20
677,39	1239,02
677,58	1198,06
677,77	1273,84
677,95	1277,93
678,14	1302,51
678,32	1206,25
678,51	1286,12
678,70	1273,84
678,88	1251,31
679,07	1290,22
679,25	1284,08
679,44	1325,04
679,63	1216,49
679,81	1302,51
680,00	1333,23
680,18	1370,09
680,37	1298,41
680,55	1255,40
680,74	1253,36
680,93	1251,31
681,11	1220,59
681,30	1290,22
681,48	1261,55
681,67	1312,75
681,85	1322,99
682,04	1222,64
682,23	1263,60
682,41	1353,71
682,60	1253,36
682,78	1269,74
682,97	1224,69
683,15	1290,22
683,34	1247,21
683,53	1277,93
683,71	1239,02
683,90	1320,94
684,08	1302,51
684,27	1320,94
684,45	1310,70
684,64	1241,07
684,82	1300,46
685,01	1327,08
685,19	1282,03
685,38	1253,36
685,57	1224,69
685,75	1312,75
685,94	1302,51
686,12	1296,36
686,31	1257,45
686,49	1271,79
686,68	1306,60
686,86	1300,46
687,05	1271,79
687,23	1327,08
687,42	1284,08
687,60	1279,98
687,79	1275,88
687,97	1282,03
688,16	1277,93
688,34	1286,12
688,53	1239,02
688,71	1284,08
688,90	1341,42
689,08	1275,88
689,27	1265,64
689,45	1296,36
689,64	1294,32
689,82	1304,56
690,01	1312,75
690,19	1269,74
690,38	1269,74
690,56	1198,06
690,75	1241,07
690,93	1259,50
691,12	1253,36
691,30	1331,18
691,49	1339,37
691,67	1292,27
691,86	1306,60
692,04	1271,79
692,23	1329,13
692,41	1247,21
692,60	1261,55
692,78	1249,26
692,97	1232,88
693,15	1298,41
693,34	1345,52
693,52	1265,64
693,71	1239,02
693,89	1259,50
694,08	1247,21
694,26	1302,51
694,44	1230,83
694,63	1226,73
694,81	1261,55
695,00	1308,65
695,18	1282,03
695,37	1370,09
695,55	1218,54
695,74	1259,50
695,92	1296,36
696,10	1224,69
696,29	1277,93
696,47	1322,99
696,66	1275,88
696,84	1245,16
697,03	1333,23
697,21	1196,01
697,40	1290,22
697,58	1228,78
697,76	1265,64
697,95	1279,98
698,13	1263,60
698,32	1222,64
698,50	1249,26
698,68	1282,03
698,87	1206,25
699,05	1214,45
699,24	1343,47
699,42	1349,61
699,61	1236,97
699,79	1349,61
699,97	1279,98
700,16	1277,93
700,34	1189,87
700,53	1310,70
700,71	1253,36
700,89	1286,12
701,08	1279,98
701,26	1249,26
701,45	1306,60
701,63	1361,90
701,81	1298,41
702,00	1292,27
702,18	1304,56
702,37	1206,25
702,55	1212,40
702,73	1255,40
702,92	1234,93
703,10	1306,60
703,28	1241,07
703,47	1279,98
703,65	1331,18
703,84	1255,40
704,02	1288,17
704,20	1302,51
704,39	1310,70
704,57	1294,32
704,75	1267,69
704,94	1314,80
705,12	1271,79
705,30	1267,69
705,49	1290,22
705,67	1314,80
705,86	1306,60
706,04	1284,08
706,22	1279,98
706,41	1261,55
706,59	1277,93
706,77	1318,89
706,96	1257,45
707,14	1279,98
707,32	1212,40
707,51	1325,04
707,69	1290,22
707,87	1310,70
708,06	1247,21
708,24	1189,87
708,42	1275,88
708,61	1304,56
708,79	1245,16
708,97	1312,75
709,16	1226,73
709,34	1259,50
709,52	1241,07
709,71	1261,55
709,89	1267,69
710,07	1304,56
710,26	1200,11
710,44	1263,60
710,62	1183,73
710,80	1271,79
710,99	1255,40
711,17	1263,60
711,35	1236,97
711,54	1243,12
711,72	1263,60
711,90	1267,69
712,09	1347,56
712,27	1257,45
712,45	1318,89
712,63	1277,93
712,82	1214,45
713,00	1257,45
713,18	1322,99
713,37	1259,50
713,55	1294,32
713,73	1296,36
713,91	1236,97
714,10	1279,98
714,28	1208,30
714,46	1316,84
714,65	1296,36
714,83	1234,93
715,01	1243,12
715,19	1265,64
715,38	1177,58
715,56	1282,03
715,74	1269,74
715,92	1259,50
716,11	1286,12
716,29	1251,31
716,47	1261,55
716,65	1318,89
716,84	1261,55
717,02	1286,12
717,20	1208,30
717,38	1232,88
717,57	1202,16
717,75	1294,32
717,93	1251,31
718,11	1208,30
718,30	1261,55
718,48	1261,55
718,66	1284,08
718,84	1257,45
719,03	1210,35
719,21	1222,64
719,39	1316,84
719,57	1286,12
719,75	1263,60
719,94	1290,22
720,12	1183,73
720,30	1314,80
720,48	1277,93
720,67	1255,40
720,85	1228,78
721,03	1271,79
721,21	1284,08
721,39	1257,45
721,58	1267,69
721,76	1290,22
721,94	1275,88
722,12	1271,79
722,30	1351,66
722,49	1263,60
722,67	1241,07
722,85	1261,55
723,03	1282,03
723,21	1290,22
723,40	1179,63
723,58	1275,88
723,76	1306,60
723,94	1261,55
724,12	1175,53
724,30	1327,08
724,49	1230,83
724,67	1290,22
724,85	1216,49
725,03	1288,17
725,21	1318,89
725,40	1193,97
725,58	1310,70
725,76	1286,12
725,94	1263,60
726,12	1267,69
726,30	1253,36
726,49	1302,51
726,67	1288,17
726,85	1300,46
727,03	1214,45
727,21	1243,12
727,39	1316,84
727,57	1306,60
727,76	1239,02
727,94	1300,46
728,12	1239,02
728,30	1247,21
728,48	1275,88
728,66	1236,97
728,84	1249,26
729,03	1267,69
729,21	1183,73
729,39	1236,97
729,57	1302,51
729,75	1257,45
729,93	1345,52
730,11	1304,56
730,30	1247,21
730,48	1200,11
730,66	1290,22
730,84	1296,36
731,02	1306,60
731,20	1236,97
731,38	1257,45
731,56	1306,60
731,74	1302,51
731,93	1220,59
732,11	1290,22
732,29	1236,97
732,47	1368,04
732,65	1279,98
732,83	1306,60
733,01	1314,80
733,19	1265,64
733,37	1236,97
733,56	1294,32
733,74	1294,32
733,92	1316,84
734,10	1253,36
734,28	1306,60
734,46	1300,46
734,64	1263,60
734,82	1255,40
735,00	1230,83
735,18	1261,55
735,36	1284,08
735,54	1292,27
735,73	1292,27
735,91	1263,60
736,09	1312,75
736,27	1253,36
736,45	1232,88
736,63	1282,03
736,81	1329,13
736,99	1288,17
737,17	1320,94
737,35	1273,84
737,53	1275,88
737,71	1265,64
737,89	1267,69
738,07	1216,49
738,25	1265,64
738,43	1306,60
738,61	1331,18
738,80	1232,88
738,98	1265,64
739,16	1230,83
739,34	1269,74
739,52	1279,98
739,70	1286,12
739,88	1236,97
740,06	1288,17
740,24	1294,32
740,42	1271,79
740,60	1202,16
740,78	1263,60
740,96	1191,92
741,14	1249,26
741,32	1345,52
741,50	1253,36
741,68	1341,42
741,86	1325,04
742,04	1306,60
742,22	1234,93
742,40	1288,17
742,58	1257,45
742,76	1236,97
742,94	1255,40
743,12	1277,93
743,30	1198,06
743,48	1234,93
743,66	1191,92
743,84	1279,98
744,02	1210,35
744,20	1296,36
744,38	1251,31
744,56	1298,41
744,74	1243,12
744,92	1296,36
745,10	1234,93
745,28	1253,36
745,46	1296,36
745,64	1232,88
745,82	1251,31
746,00	1243,12
746,18	1208,30
746,36	1325,04
746,54	1230,83
746,72	1298,41
746,90	1263,60
747,08	1228,78
747,26	1226,73
747,44	1245,16
747,62	1288,17
747,80	1279,98
747,98	1331,18
748,15	1282,03
748,33	1269,74
748,51	1216,49
748,69	1234,93
748,87	1304,56
749,05	1241,07
749,23	1302,51
749,41	1320,94
749,59	1284,08
749,77	1171,44
749,95	1320,94
750,13	1318,89
750,31	1241,07
750,49	1290,22
750,67	1196,01
750,85	1298,41
751,03	1232,88
751,20	1269,74
751,38	1312,75
751,56	1275,88
751,74	1290,22
751,92	1212,40
752,10	1363,95
752,28	1214,45
752,46	1249,26
752,64	1232,88
752,82	1251,31
753,00	1241,07
753,18	1265,64
753,35	1304,56
753,53	1218,54
753,71	1284,08
753,89	1259,50
754,07	1306,60
754,25	1292,27
754,43	1214,45
754,61	1282,03
754,79	1279,98
754,97	1239,02
755,14	1243,12
755,32	1267,69
755,50	1216,49
755,68	1318,89
755,86	1282,03
756,04	1300,46
756,22	1286,12
756,40	1312,75
756,57	1255,40
756,75	1257,45
756,93	1298,41
757,11	1243,12
757,29	1220,59
757,47	1292,27
757,65	1218,54
757,82	1306,60
758,00	1288,17
758,18	1198,06
758,36	1243,12
758,54	1228,78
758,72	1247,21
758,90	1187,82
759,07	1353,71
759,25	1239,02
759,43	1298,41
759,61	1345,52
759,79	1298,41
759,97	1320,94
760,15	1286,12
760,32	1331,18
760,50	1290,22
760,68	1251,31
760,86	1275,88
761,04	1224,69
761,22	1259,50
761,39	1318,89
761,57	1241,07
761,75	1339,37
761,93	1236,97
762,11	1314,80
762,28	1308,65
762,46	1269,74
762,64	1337,32
762,82	1261,55
763,00	1325,04
763,18	1261,55
763,35	1204,21
763,53	1265,64
763,71	1247,21
763,89	1279,98
764,07	1267,69
764,24	1279,98
764,42	1279,98
764,60	1232,88
764,78	1273,84
764,96	1298,41
765,13	1251,31
765,31	1290,22
765,49	1277,93
765,67	1155,05
765,84	1241,07
766,02	1302,51
766,20	1234,93
766,38	1251,31
766,56	1222,64
766,73	1232,88
766,91	1275,88
767,09	1290,22
767,27	1282,03
767,44	1265,64
767,62	1234,93
767,80	1255,40
767,98	1294,32
768,15	1318,89
768,33	1218,54
768,51	1265,64
768,69	1300,46
768,87	1253,36
769,04	1261,55
769,22	1263,60
769,40	1337,32
769,58	1239,02
769,75	1267,69
769,93	1329,13
770,11	1269,74
770,28	1263,60
770,46	1212,40
770,64	1359,85
770,82	1261,55
770,99	1228,78
771,17	1218,54
771,35	1294,32
771,53	1351,66
771,70	1212,40
771,88	1271,79
772,06	1220,59
772,23	1249,26
772,41	1271,79
772,59	1216,49
772,77	1220,59
772,94	1316,84
773,12	1298,41
773,30	1312,75
773,47	1314,80
773,65	1236,97
773,83	1236,97
774,01	1335,28
774,18	1247,21
774,36	1173,49
774,54	1187,82
774,71	1220,59
774,89	1263,60
775,07	1312,75
775,24	1245,16
775,42	1259,50
775,60	1273,84
775,78	1239,02
775,95	1230,83
776,13	1259,50
776,31	1206,25
776,48	1316,84
776,66	1239,02
776,84	1286,12
777,01	1298,41
777,19	1263,60
777,37	1273,84
777,54	1327,08
777,72	1304,56
777,90	1288,17
778,07	1245,16
778,25	1241,07
778,43	1331,18
778,60	1259,50
778,78	1279,98
778,96	1294,32
779,13	1292,27
779,31	1251,31
779,49	1322,99
779,66	1249,26
779,84	1200,11
780,01	1294,32
780,19	1304,56
780,37	1275,88
780,54	1329,13
780,72	1327,08
780,90	1230,83
781,07	1298,41
781,25	1292,27
781,43	1247,21
781,60	1200,11
781,78	1316,84
781,95	1277,93
782,13	1243,12
782,31	1245,16
782,48	1275,88
782,66	1222,64
782,83	1302,51
783,01	1290,22
783,19	1304,56
783,36	1241,07
783,54	1279,98
783,72	1257,45
783,89	1255,40
784,07	1257,45
784,24	1288,17
784,42	1275,88
784,60	1275,88
784,77	1218,54
784,95	1325,04
785,12	1247,21
785,30	1275,88
785,47	1359,85
785,65	1279,98
785,83	1212,40
786,00	1198,06
786,18	1257,45
786,35	1298,41
786,53	1316,84
786,71	1251,31
786,88	1277,93
787,06	1304,56
787,23	1234,93
787,41	1298,41
787,58	1282,03
787,76	1306,60
787,94	1310,70
788,11	1247,21
788,29	1269,74
788,46	1273,84
788,64	1247,21
788,81	1263,60
788,99	1275,88
789,16	1218,54
789,34	1273,84
789,52	1314,80
789,69	1247,21
789,87	1214,45
790,04	1277,93
790,22	1257,45
790,39	1267,69
790,57	1218,54
790,74	1226,73
790,92	1286,12
791,09	1208,30
791,27	1251,31
791,44	1216,49
791,62	1243,12
791,79	1247,21
791,97	1239,02
792,15	1298,41
792,32	1294,32
792,50	1208,30
792,67	1230,83
792,85	1277,93
793,02	1253,36
793,20	1249,26
793,37	1255,40
793,55	1245,16
793,72	1322,99
793,90	1279,98
794,07	1208,30
794,25	1253,36
794,42	1269,74
794,60	1345,52
794,77	1228,78
794,95	1298,41
795,12	1257,45
795,30	1320,94
795,47	1263,60
795,65	1277,93
795,82	1275,88
796,00	1249,26
796,17	1273,84
796,34	1331,18
796,52	1222,64
796,69	1251,31
796,87	1269,74
797,04	1286,12
797,22	1271,79
797,39	1302,51
797,57	1249,26
797,74	1247,21
797,92	1263,60
798,09	1306,60
798,27	1286,12
798,44	1318,89
798,62	1239,02
798,79	1300,46
798,96	1337,32
799,14	1265,64
799,31	1261,55
799,49	1187,82
799,66	1212,40
799,84	1306,60
800,01	1306,60
800,19	1306,60
800,36	1351,66
800,53	1273,84
800,71	1193,97
800,88	1314,80
801,06	1284,08
801,23	1247,21
801,41	1249,26
801,58	1284,08
801,75	1179,63
801,93	1277,93
802,10	1333,23
802,28	1343,47
802,45	1265,64
802,63	1257,45
802,80	1230,83
802,97	1263,60
803,15	1271,79
803,32	1269,74
803,50	1245,16
803,67	1294,32
803,84	1236,97
804,02	1316,84
804,19	1257,45
804,37	1249,26
804,54	1245,16
804,71	1318,89
804,89	1279,98
805,06	1277,93
805,24	1263,60
805,41	1230,83
805,58	1228,78
805,76	1263,60
805,93	1245,16
806,10	1308,65
806,28	1269,74
806,45	1220,59
806,63	1296,36
806,80	1214,45
806,97	1269,74
807,15	1282,03
807,32	1196,01
807,49	1255,40
807,67	1265,64
807,84	1363,95
808,01	1251,31
808,19	1318,89
808,36	1316,84
808,54	1232,88
808,71	1263,60
808,88	1269,74
809,06	1284,08
809,23	1288,17
809,40	1247,21
809,58	1288,17
809,75	1282,03
809,92	1271,79
810,10	1265,64
810,27	1257,45
810,44	1314,80
810,62	1222,64
810,79	1222,64
810,96	1275,88
811,14	1230,83
811,31	1296,36
811,48	1255,40
811,66	1277,93
811,83	1181,68
812,00	1277,93
812,18	1288,17
812,35	1269,74
812,52	1251,31
812,69	1273,84
812,87	1224,69
813,04	1337,32
813,21	1290,22
813,39	1275,88
813,56	1386,47
813,73	1193,97
813,91	1239,02
814,08	1232,88
814,25	1282,03
814,42	1290,22
814,60	1175,53
814,77	1269,74
814,94	1255,40
815,12	1267,69
815,29	1232,88
815,46	1204,21
815,63	1261,55
815,81	1265,64
815,98	1267,69
816,15	1271,79
816,33	1320,94
816,50	1265,64
816,67	1220,59
816,84	1294,32
817,02	1286,12
817,19	1273,84
817,36	1341,42
817,53	1230,83
817,71	1245,16
817,88	1257,45
818,05	1234,93
818,22	1232,88
818,40	1290,22
818,57	1320,94
818,74	1236,97
818,91	1296,36
819,09	1200,11
819,26	1198,06
819,43	1230,83
819,60	1253,36
819,78	1271,79
819,95	1296,36
820,12	1232,88
820,29	1144,81
820,47	1216,49
820,64	1249,26
820,81	1251,31
820,98	1308,65
821,15	1216,49
821,33	1355,76
821,50	1273,84
821,67	1288,17
821,84	1300,46
822,02	1277,93
822,19	1271,79
822,36	1196,01
822,53	1286,12
822,70	1239,02
822,88	1288,17
823,05	1290,22
823,22	1302,51
823,39	1269,74
823,56	1288,17
823,74	1290,22
823,91	1277,93
824,08	1298,41
824,25	1261,55
824,42	1222,64
824,60	1181,68
824,77	1232,88
824,94	1259,50
825,11	1259,50
825,28	1196,01
825,45	1306,60
825,63	1314,80
825,80	1218,54
825,97	1275,88
826,14	1306,60
826,31	1294,32
826,48	1275,88
826,66	1292,27
826,83	1279,98
827,00	1247,21
827,17	1298,41
827,34	1288,17
827,51	1253,36
827,69	1286,12
827,86	1275,88
828,03	1331,18
828,20	1257,45
828,37	1257,45
828,54	1263,60
828,71	1314,80
828,89	1292,27
829,06	1277,93
829,23	1318,89
829,40	1259,50
829,57	1261,55
829,74	1288,17
829,91	1308,65
830,09	1216,49
830,26	1308,65
830,43	1273,84
830,60	1271,79
830,77	1239,02
830,94	1329,13
831,11	1234,93
831,28	1247,21
831,46	1208,30
831,63	1224,69
831,80	1273,84
831,97	1212,40
832,14	1236,97
832,31	1247,21
832,48	1271,79
832,65	1173,49
832,82	1222,64
832,99	1241,07
833,17	1275,88
833,34	1277,93
833,51	1232,88
833,68	1146,86
833,85	1193,97
834,02	1284,08
834,19	1288,17
834,36	1224,69
834,53	1288,17
834,70	1208,30
834,87	1218,54
835,04	1279,98
835,22	1255,40
835,39	1173,49
835,56	1169,39
835,73	1316,84
835,90	1265,64
836,07	1208,30
836,24	1247,21
836,41	1212,40
836,58	1255,40
836,75	1343,47
836,92	1327,08
837,09	1302,51
837,26	1284,08
837,43	1243,12
837,60	1282,03
837,77	1255,40
837,94	1220,59
838,12	1255,40
838,29	1257,45
838,46	1224,69
838,63	1218,54
838,80	1232,88
838,97	1298,41
839,14	1316,84
839,31	1318,89
839,48	1286,12
839,65	1335,28
839,82	1288,17
839,99	1245,16
840,16	1208,30
840,33	1265,64
840,50	1318,89
840,67	1284,08
840,84	1275,88
841,01	1226,73
841,18	1277,93
841,35	1247,21
841,52	1269,74
841,69	1277,93
841,86	1200,11
842,03	1320,94
842,20	1288,17
842,37	1204,21
842,54	1284,08
842,71	1277,93
842,88	1337,32
843,05	1271,79
843,22	1271,79
843,39	1183,73
843,56	1271,79
843,73	1312,75
843,90	1275,88
844,07	1275,88
844,24	1282,03
844,41	1308,65
844,58	1257,45
844,75	1300,46
844,92	1339,37
845,09	1148,91
845,26	1267,69
845,43	1349,61
845,60	1200,11
845,77	1306,60
845,94	1273,84
846,10	1216,49
846,27	1253,36
846,44	1302,51
846,61	1277,93
846,78	1304,56
846,95	1277,93
847,12	1247,21
847,29	1310,70
847,46	1218,54
847,63	1273,84
847,80	1257,45
847,97	1245,16
848,14	1255,40
848,31	1208,30
848,48	1259,50
848,65	1265,64
848,82	1239,02
848,98	1359,85
849,15	1306,60
849,32	1232,88
849,49	1298,41
849,66	1226,73
849,83	1304,56
850,00	1251,31
850,17	1241,07
850,34	1259,50
850,51	1247,21
850,68	1257,45
850,85	1200,11
851,01	1279,98
851,18	1316,84
851,35	1286,12
851,52	1269,74
851,69	1284,08
851,86	1245,16
852,03	1277,93
852,20	1263,60
852,37	1279,98
852,53	1239,02
852,70	1265,64
852,87	1263,60
853,04	1245,16
853,21	1243,12
853,38	1245,16
853,55	1265,64
853,72	1247,21
853,89	1290,22
854,05	1259,50
854,22	1232,88
854,39	1263,60
854,56	1249,26
854,73	1218,54
854,90	1245,16
855,07	1304,56
855,23	1234,93
855,40	1306,60
855,57	1261,55
855,74	1257,45
855,91	1232,88
856,08	1253,36
856,25	1236,97
856,41	1339,37
856,58	1247,21
856,75	1355,76
856,92	1292,27
857,09	1202,16
857,26	1267,69
857,42	1249,26
857,59	1245,16
857,76	1265,64
857,93	1245,16
858,10	1273,84
858,27	1245,16
858,43	1261,55
858,60	1232,88
858,77	1290,22
858,94	1255,40
859,11	1261,55
859,27	1253,36
859,44	1273,84
859,61	1279,98
859,78	1320,94
859,95	1271,79
860,12	1306,60
860,28	1257,45
860,45	1279,98
860,62	1331,18
860,79	1222,64
860,95	1302,51
861,12	1255,40
861,29	1298,41
861,46	1249,26
861,63	1284,08
861,79	1279,98
861,96	1241,07
862,13	1267,69
862,30	1308,65
862,47	1234,93
862,63	1271,79
862,80	1275,88
862,97	1363,95
863,14	1312,75
863,30	1320,94
863,47	1304,56
863,64	1290,22
863,81	1236,97
863,97	1234,93
864,14	1210,35
864,31	1241,07
864,48	1234,93
864,65	1300,46
864,81	1345,52
864,98	1220,59
865,15	1296,36
865,32	1218,54
865,48	1314,80
865,65	1216,49
865,82	1224,69
865,98	1286,12
866,15	1304,56
866,32	1292,27
866,49	1206,25
866,65	1286,12
866,82	1259,50
866,99	1216,49
867,16	1214,45
867,32	1202,16
867,49	1208,30
867,66	1282,03
867,83	1314,80
867,99	1318,89
868,16	1337,32
868,33	1243,12
868,49	1245,16
868,66	1269,74
868,83	1269,74
868,99	1282,03
869,16	1349,61
869,33	1230,83
869,50	1251,31
869,66	1273,84
869,83	1263,60
870,00	1245,16
870,16	1327,08
870,33	1271,79
870,50	1273,84
870,66	1255,40
870,83	1331,18
871,00	1318,89
871,17	1234,93
871,33	1277,93
871,50	1247,21
871,67	1253,36
871,83	1243,12
872,00	1337,32
872,17	1224,69
872,33	1255,40
872,50	1204,21
872,67	1148,91
872,83	1279,98
873,00	1335,28
873,17	1310,70
873,33	1245,16
873,50	1241,07
873,67	1306,60
873,83	1273,84
874,00	1310,70
874,16	1232,88
874,33	1273,84
874,50	1181,68
874,66	1286,12
874,83	1286,12
875,00	1216,49
875,16	1273,84
875,33	1230,83
875,50	1312,75
875,66	1212,40
875,83	1288,17
875,99	1357,80
876,16	1214,45
876,33	1279,98
876,49	1314,80
876,66	1286,12
876,83	1404,91
876,99	1265,64
877,16	1288,17
877,32	1249,26
877,49	1247,21
877,66	1210,35
877,82	1212,40
877,99	1220,59
878,15	1257,45
878,32	1267,69
878,49	1279,98
878,65	1265,64
878,82	1224,69
878,98	1245,16
879,15	1216,49
879,32	1275,88
879,48	1263,60
879,65	1306,60
879,81	1216,49
879,98	1230,83
880,15	1296,36
880,31	1239,02
880,48	1181,68
880,64	1265,64
880,81	1191,92
880,97	1339,37
881,14	1275,88
881,31	1255,40
881,47	1290,22
881,64	1249,26
881,80	1261,55
881,97	1255,40
882,13	1259,50
882,30	1277,93
882,47	1263,60
882,63	1226,73
882,80	1202,16
882,96	1273,84
883,13	1239,02
883,29	1251,31
883,46	1355,76
883,62	1275,88
883,79	1263,60
883,95	1255,40
884,12	1249,26
884,29	1273,84
884,45	1300,46
884,62	1298,41
884,78	1218,54
884,95	1249,26
885,11	1300,46
885,28	1267,69
885,44	1351,66
885,61	1273,84
885,77	1249,26
885,94	1273,84
886,10	1327,08
886,27	1294,32
886,43	1282,03
886,60	1220,59
886,76	1290,22
886,93	1275,88
887,09	1251,31
887,26	1318,89
887,42	1298,41
887,59	1329,13
887,75	1304,56
887,92	1298,41
888,08	1300,46
888,25	1234,93
888,41	1331,18
888,58	1290,22
888,74	1230,83
888,91	1310,70
>>>>>End Processed Spectral Data<<<<<
