SpectraSuite Data File
++++++++++++++++++++++++++++++++++++
Date: Sun Apr 03 19:55:25 CEST 2016
User: root
Dark Spectrum Present: No
Reference Spectrum Present: No
Number of Sampled Component Spectra: 1
Spectrometers: USB4C02835
Integration Time (usec): 10000 (USB4C02835)
Spectra Averaged: 1 (USB4C02835)
Boxcar Smoothing: 0 (USB4C02835)
Correct for Electrical Dark: No (USB4C02835)
Strobe/Lamp Enabled: No (USB4C02835)
Correct for Detector Non-linearity: No (USB4C02835)
Correct for Stray Light: No (USB4C02835)
Number of Pixels in Processed Spectrum: 3648
>>>>>Begin Processed Spectral Data<<<<<
177,47	1294,32
177,69	1294,32
177,91	1294,32
178,13	1234,93
178,36	1298,41
178,58	1329,13
178,80	1320,94
179,02	1284,08
179,24	1333,23
179,46	1267,69
179,68	1249,26
179,90	1208,30
180,13	1230,83
180,35	1239,02
180,57	1277,93
180,79	1253,36
181,01	1353,71
181,23	1202,16
181,45	1204,21
181,67	1206,25
181,90	1279,98
182,12	1308,65
182,34	1153,01
182,56	1288,17
182,78	1279,98
183,00	1216,49
183,22	1355,76
183,44	1247,21
183,66	1251,31
183,89	1308,65
184,11	1312,75
184,33	1298,41
184,55	1232,88
184,77	1269,74
184,99	1277,93
185,21	1214,45
185,43	1296,36
185,65	1198,06
185,87	1337,32
186,10	1294,32
186,32	1337,32
186,54	1261,55
186,76	1189,87
186,98	1282,03
187,20	1269,74
187,42	1284,08
187,64	1296,36
187,86	1183,73
188,08	1310,70
188,30	1294,32
188,52	1230,83
188,75	1296,36
188,97	1273,84
189,19	1294,32
189,41	1234,93
189,63	1251,31
189,85	1302,51
190,07	1257,45
190,29	1226,73
190,51	1212,40
190,73	1204,21
190,95	1284,08
191,17	1255,40
191,39	1210,35
191,61	1288,17
191,84	1236,97
192,06	1265,64
192,28	1310,70
192,50	1290,22
192,72	1273,84
192,94	1286,12
193,16	1302,51
193,38	1241,07
193,60	1257,45
193,82	1198,06
194,04	1288,17
194,26	1277,93
194,48	1282,03
194,70	1232,88
194,92	1290,22
195,14	1245,16
195,36	1228,78
195,58	1253,36
195,80	1288,17
196,02	1239,02
196,24	1300,46
196,46	1308,65
196,69	1232,88
196,91	1316,84
197,13	1282,03
197,35	1193,97
197,57	1261,55
197,79	1331,18
198,01	1253,36
198,23	1325,04
198,45	1288,17
198,67	1263,60
198,89	1241,07
199,11	1226,73
199,33	1239,02
199,55	1239,02
199,77	1331,18
199,99	1327,08
200,21	1153,01
200,43	1298,41
200,65	1228,78
200,87	1298,41
201,09	1232,88
201,31	1306,60
201,53	1226,73
201,75	1261,55
201,97	1204,21
202,19	1271,79
202,41	1282,03
202,63	1239,02
202,85	1282,03
203,07	1318,89
203,29	1333,23
203,51	1279,98
203,73	1247,21
203,95	1302,51
204,17	1341,42
204,39	1216,49
204,61	1329,13
204,83	1212,40
205,05	1279,98
205,27	1253,36
205,49	1279,98
205,71	1269,74
205,93	1263,60
206,15	1224,69
206,37	1327,08
206,59	1296,36
206,81	1312,75
207,03	1257,45
207,25	1331,18
207,47	1290,22
207,69	1241,07
207,91	1214,45
208,13	1296,36
208,34	1286,12
208,56	1140,72
208,78	1304,56
209,00	1298,41
209,22	1263,60
209,44	1185,77
209,66	1337,32
209,88	1247,21
210,10	1263,60
210,32	1228,78
210,54	1267,69
210,76	1247,21
210,98	1232,88
211,20	1284,08
211,42	1222,64
211,64	1243,12
211,86	1261,55
212,08	1273,84
212,30	1202,16
212,52	1239,02
212,74	1271,79
212,96	1296,36
213,17	1269,74
213,39	1255,40
213,61	1271,79
213,83	1263,60
214,05	1220,59
214,27	1263,60
214,49	1230,83
214,71	1269,74
214,93	1308,65
215,15	1308,65
215,37	1267,69
215,59	1261,55
215,81	1282,03
216,03	1282,03
216,24	1290,22
216,46	1216,49
216,68	1267,69
216,90	1284,08
217,12	1245,16
217,34	1257,45
217,56	1218,54
217,78	1273,84
218,00	1200,11
218,22	1316,84
218,44	1210,35
218,66	1286,12
218,87	1329,13
219,09	1314,80
219,31	1243,12
219,53	1322,99
219,75	1267,69
219,97	1331,18
220,19	1239,02
220,41	1333,23
220,63	1277,93
220,85	1353,71
221,06	1249,26
221,28	1257,45
221,50	1183,73
221,72	1210,35
221,94	1261,55
222,16	1288,17
222,38	1208,30
222,60	1316,84
222,82	1286,12
223,03	1271,79
223,25	1228,78
223,47	1259,50
223,69	1253,36
223,91	1284,08
224,13	1296,36
224,35	1298,41
224,57	1222,64
224,78	1230,83
225,00	1284,08
225,22	1290,22
225,44	1257,45
225,66	1191,92
225,88	1296,36
226,10	1261,55
226,32	1245,16
226,53	1304,56
226,75	1286,12
226,97	1265,64
227,19	1241,07
227,41	1263,60
227,63	1247,21
227,85	1243,12
228,06	1236,97
228,28	1290,22
228,50	1243,12
228,72	1282,03
228,94	1302,51
229,16	1284,08
229,37	1277,93
229,59	1236,97
229,81	1282,03
230,03	1286,12
230,25	1161,20
230,47	1269,74
230,69	1345,52
230,90	1267,69
231,12	1327,08
231,34	1329,13
231,56	1339,37
231,78	1310,70
232,00	1249,26
232,21	1300,46
232,43	1243,12
232,65	1253,36
232,87	1259,50
233,09	1298,41
233,30	1273,84
233,52	1265,64
233,74	1241,07
233,96	1284,08
234,18	1308,65
234,40	1306,60
234,61	1308,65
234,83	1265,64
235,05	1314,80
235,27	1304,56
235,49	1325,04
235,70	1339,37
235,92	1335,28
236,14	1259,50
236,36	1337,32
236,58	1236,97
236,79	1331,18
237,01	1304,56
237,23	1263,60
237,45	1220,59
237,67	1333,23
237,88	1267,69
238,10	1189,87
238,32	1218,54
238,54	1294,32
238,76	1269,74
238,97	1269,74
239,19	1230,83
239,41	1249,26
239,63	1341,42
239,85	1249,26
240,06	1189,87
240,28	1314,80
240,50	1300,46
240,72	1284,08
240,93	1302,51
241,15	1271,79
241,37	1269,74
241,59	1208,30
241,81	1257,45
242,02	1290,22
242,24	1224,69
242,46	1255,40
242,68	1212,40
242,89	1275,88
243,11	1284,08
243,33	1265,64
243,55	1298,41
243,76	1230,83
243,98	1279,98
244,20	1290,22
244,42	1218,54
244,64	1249,26
244,85	1245,16
245,07	1318,89
245,29	1228,78
245,51	1300,46
245,72	1296,36
245,94	1234,93
246,16	1322,99
246,38	1245,16
246,59	1249,26
246,81	1261,55
247,03	1314,80
247,24	1304,56
247,46	1263,60
247,68	1314,80
247,90	1189,87
248,11	1288,17
248,33	1214,45
248,55	1275,88
248,77	1331,18
248,98	1216,49
249,20	1263,60
249,42	1261,55
249,64	1308,65
249,85	1212,40
250,07	1214,45
250,29	1331,18
250,50	1296,36
250,72	1265,64
250,94	1216,49
251,16	1277,93
251,37	1310,70
251,59	1271,79
251,81	1306,60
252,02	1308,65
252,24	1275,88
252,46	1275,88
252,68	1259,50
252,89	1224,69
253,11	1288,17
253,33	1329,13
253,54	1302,51
253,76	1304,56
253,98	1255,40
254,20	1269,74
254,41	1241,07
254,63	1271,79
254,85	1327,08
255,06	1198,06
255,28	1282,03
255,50	1220,59
255,71	1228,78
255,93	1263,60
256,15	1193,97
256,36	1298,41
256,58	1202,16
256,80	1306,60
257,02	1263,60
257,23	1322,99
257,45	1263,60
257,67	1290,22
257,88	1339,37
258,10	1263,60
258,32	1220,59
258,53	1318,89
258,75	1302,51
258,97	1267,69
259,18	1267,69
259,40	1265,64
259,62	1222,64
259,83	1320,94
260,05	1249,26
260,27	1329,13
260,48	1257,45
260,70	1263,60
260,92	1292,27
261,13	1300,46
261,35	1232,88
261,57	1226,73
261,78	1277,93
262,00	1224,69
262,22	1210,35
262,43	1224,69
262,65	1279,98
262,86	1267,69
263,08	1243,12
263,30	1304,56
263,51	1302,51
263,73	1322,99
263,95	1277,93
264,16	1253,36
264,38	1374,19
264,60	1298,41
264,81	1265,64
265,03	1288,17
265,25	1259,50
265,46	1210,35
265,68	1355,76
265,89	1257,45
266,11	1245,16
266,33	1329,13
266,54	1202,16
266,76	1261,55
266,98	1247,21
267,19	1269,74
267,41	1300,46
267,62	1212,40
267,84	1247,21
268,06	1331,18
268,27	1247,21
268,49	1253,36
268,70	1204,21
268,92	1214,45
269,14	1265,64
269,35	1282,03
269,57	1222,64
269,79	1296,36
270,00	1333,23
270,22	1247,21
270,43	1269,74
270,65	1304,56
270,87	1265,64
271,08	1282,03
271,30	1286,12
271,51	1249,26
271,73	1265,64
271,95	1257,45
272,16	1241,07
272,38	1247,21
272,59	1243,12
272,81	1222,64
273,02	1159,15
273,24	1265,64
273,46	1214,45
273,67	1288,17
273,89	1304,56
274,10	1284,08
274,32	1306,60
274,54	1187,82
274,75	1290,22
274,97	1257,45
275,18	1236,97
275,40	1255,40
275,61	1226,73
275,83	1271,79
276,05	1228,78
276,26	1232,88
276,48	1277,93
276,69	1279,98
276,91	1198,06
277,12	1243,12
277,34	1249,26
277,55	1282,03
277,77	1230,83
277,99	1279,98
278,20	1222,64
278,42	1308,65
278,63	1288,17
278,85	1288,17
279,06	1302,51
279,28	1294,32
279,49	1271,79
279,71	1232,88
279,93	1247,21
280,14	1284,08
280,36	1275,88
280,57	1290,22
280,79	1290,22
281,00	1345,52
281,22	1243,12
281,43	1261,55
281,65	1218,54
281,86	1277,93
282,08	1228,78
282,29	1314,80
282,51	1257,45
282,73	1247,21
282,94	1261,55
283,16	1329,13
283,37	1298,41
283,59	1347,56
283,80	1343,47
284,02	1247,21
284,23	1298,41
284,45	1282,03
284,66	1251,31
284,88	1220,59
285,09	1249,26
285,31	1236,97
285,52	1292,27
285,74	1230,83
285,95	1249,26
286,17	1239,02
286,38	1216,49
286,60	1239,02
286,81	1286,12
287,03	1253,36
287,24	1247,21
287,46	1267,69
287,67	1245,16
287,89	1300,46
288,10	1271,79
288,32	1257,45
288,53	1306,60
288,75	1249,26
288,96	1304,56
289,18	1251,31
289,39	1298,41
289,61	1353,71
289,82	1247,21
290,04	1249,26
290,25	1234,93
290,47	1165,29
290,68	1284,08
290,90	1251,31
291,11	1318,89
291,33	1277,93
291,54	1284,08
291,76	1222,64
291,97	1314,80
292,18	1226,73
292,40	1228,78
292,61	1298,41
292,83	1282,03
293,04	1259,50
293,26	1300,46
293,47	1284,08
293,69	1279,98
293,90	1222,64
294,12	1204,21
294,33	1282,03
294,55	1236,97
294,76	1269,74
294,97	1316,84
295,19	1228,78
295,40	1259,50
295,62	1142,77
295,83	1322,99
296,05	1265,64
296,26	1249,26
296,48	1249,26
296,69	1302,51
296,90	1251,31
297,12	1241,07
297,33	1245,16
297,55	1284,08
297,76	1263,60
297,98	1322,99
298,19	1282,03
298,41	1296,36
298,62	1275,88
298,83	1277,93
299,05	1294,32
299,26	1279,98
299,48	1298,41
299,69	1241,07
299,90	1265,64
300,12	1193,97
300,33	1290,22
300,55	1243,12
300,76	1302,51
300,98	1171,44
301,19	1298,41
301,40	1196,01
301,62	1284,08
301,83	1241,07
302,05	1259,50
302,26	1245,16
302,47	1275,88
302,69	1269,74
302,90	1310,70
303,12	1286,12
303,33	1286,12
303,54	1210,35
303,76	1298,41
303,97	1310,70
304,19	1372,14
304,40	1214,45
304,61	1277,93
304,83	1290,22
305,04	1247,21
305,26	1306,60
305,47	1277,93
305,68	1304,56
305,90	1265,64
306,11	1269,74
306,33	1200,11
306,54	1290,22
306,75	1294,32
306,97	1292,27
307,18	1210,35
307,39	1206,25
307,61	1257,45
307,82	1253,36
308,04	1308,65
308,25	1286,12
308,46	1251,31
308,68	1327,08
308,89	1275,88
309,10	1220,59
309,32	1269,74
309,53	1282,03
309,74	1226,73
309,96	1314,80
310,17	1263,60
310,39	1275,88
310,60	1261,55
310,81	1282,03
311,03	1318,89
311,24	1253,36
311,45	1316,84
311,67	1314,80
311,88	1277,93
312,09	1253,36
312,31	1359,85
312,52	1210,35
312,73	1314,80
312,95	1198,06
313,16	1247,21
313,37	1314,80
313,59	1243,12
313,80	1179,63
314,01	1275,88
314,23	1249,26
314,44	1288,17
314,65	1322,99
314,87	1239,02
315,08	1226,73
315,29	1259,50
315,51	1273,84
315,72	1175,53
315,93	1257,45
316,15	1329,13
316,36	1251,31
316,57	1224,69
316,79	1265,64
317,00	1259,50
317,21	1251,31
317,43	1288,17
317,64	1279,98
317,85	1310,70
318,07	1224,69
318,28	1255,40
318,49	1314,80
318,70	1257,45
318,92	1269,74
319,13	1236,97
319,34	1253,36
319,56	1206,25
319,77	1279,98
319,98	1273,84
320,20	1249,26
320,41	1282,03
320,62	1167,34
320,83	1216,49
321,05	1202,16
321,26	1304,56
321,47	1228,78
321,69	1241,07
321,90	1257,45
322,11	1306,60
322,32	1288,17
322,54	1308,65
322,75	1314,80
322,96	1249,26
323,18	1255,40
323,39	1263,60
323,60	1224,69
323,81	1253,36
324,03	1257,45
324,24	1255,40
324,45	1277,93
324,66	1230,83
324,88	1165,29
325,09	1239,02
325,30	1230,83
325,52	1189,87
325,73	1294,32
325,94	1345,52
326,15	1208,30
326,37	1310,70
326,58	1310,70
326,79	1259,50
327,00	1212,40
327,22	1286,12
327,43	1245,16
327,64	1331,18
327,85	1298,41
328,07	1349,61
328,28	1277,93
328,49	1263,60
328,70	1320,94
328,92	1249,26
329,13	1177,58
329,34	1318,89
329,55	1310,70
329,76	1247,21
329,98	1298,41
330,19	1236,97
330,40	1314,80
330,61	1306,60
330,83	1279,98
331,04	1245,16
331,25	1241,07
331,46	1271,79
331,68	1253,36
331,89	1296,36
332,10	1308,65
332,31	1243,12
332,52	1218,54
332,74	1294,32
332,95	1273,84
333,16	1302,51
333,37	1243,12
333,58	1275,88
333,80	1198,06
334,01	1249,26
334,22	1228,78
334,43	1322,99
334,64	1312,75
334,86	1243,12
335,07	1228,78
335,28	1335,28
335,49	1202,16
335,70	1236,97
335,92	1279,98
336,13	1361,90
336,34	1286,12
336,55	1296,36
336,76	1322,99
336,98	1251,31
337,19	1271,79
337,40	1255,40
337,61	1343,47
337,82	1308,65
338,04	1294,32
338,25	1347,56
338,46	1150,96
338,67	1318,89
338,88	1247,21
339,09	1263,60
339,31	1243,12
339,52	1245,16
339,73	1282,03
339,94	1218,54
340,15	1257,45
340,36	1228,78
340,58	1277,93
340,79	1261,55
341,00	1329,13
341,21	1290,22
341,42	1271,79
341,63	1191,92
341,85	1210,35
342,06	1267,69
342,27	1234,93
342,48	1263,60
342,69	1343,47
342,90	1214,45
343,12	1259,50
343,33	1241,07
343,54	1275,88
343,75	1255,40
343,96	1300,46
344,17	1306,60
344,38	1339,37
344,60	1175,53
344,81	1314,80
345,02	1239,02
345,23	1273,84
345,44	1273,84
345,65	1286,12
345,86	1275,88
346,07	1200,11
346,29	1191,92
346,50	1239,02
346,71	1259,50
346,92	1320,94
347,13	1279,98
347,34	1253,36
347,55	1304,56
347,76	1314,80
347,98	1273,84
348,19	1265,64
348,40	1306,60
348,61	1259,50
348,82	1353,71
349,03	1210,35
349,24	1208,30
349,45	1187,82
349,66	1302,51
349,88	1290,22
350,09	1253,36
350,30	1259,50
350,51	1249,26
350,72	1277,93
350,93	1292,27
351,14	1239,02
351,35	1304,56
351,56	1259,50
351,77	1228,78
351,99	1279,98
352,20	1343,47
352,41	1310,70
352,62	1265,64
352,83	1300,46
353,04	1222,64
353,25	1284,08
353,46	1282,03
353,67	1279,98
353,88	1261,55
354,09	1245,16
354,30	1294,32
354,52	1304,56
354,73	1245,16
354,94	1310,70
355,15	1331,18
355,36	1290,22
355,57	1234,93
355,78	1241,07
355,99	1312,75
356,20	1267,69
356,41	1236,97
356,62	1251,31
356,83	1261,55
357,04	1275,88
357,25	1259,50
357,46	1187,82
357,68	1286,12
357,89	1218,54
358,10	1271,79
358,31	1277,93
358,52	1251,31
358,73	1239,02
358,94	1218,54
359,15	1282,03
359,36	1271,79
359,57	1230,83
359,78	1265,64
359,99	1263,60
360,20	1275,88
360,41	1263,60
360,62	1292,27
360,83	1251,31
361,04	1245,16
361,25	1302,51
361,46	1292,27
361,67	1241,07
361,88	1245,16
362,09	1236,97
362,30	1286,12
362,51	1241,07
362,72	1320,94
362,93	1245,16
363,14	1249,26
363,35	1236,97
363,56	1269,74
363,78	1288,17
363,99	1230,83
364,20	1232,88
364,41	1255,40
364,62	1288,17
364,83	1294,32
365,04	1327,08
365,25	1200,11
365,46	1234,93
365,67	1236,97
365,88	1218,54
366,09	1259,50
366,30	1247,21
366,51	1167,34
366,72	1284,08
366,93	1275,88
367,14	1259,50
367,35	1253,36
367,56	1271,79
367,77	1372,14
367,98	1271,79
368,18	1322,99
368,39	1257,45
368,60	1222,64
368,81	1288,17
369,02	1214,45
369,23	1312,75
369,44	1257,45
369,65	1210,35
369,86	1257,45
370,07	1257,45
370,28	1267,69
370,49	1318,89
370,70	1310,70
370,91	1300,46
371,12	1200,11
371,33	1267,69
371,54	1230,83
371,75	1341,42
371,96	1300,46
372,17	1163,25
372,38	1261,55
372,59	1298,41
372,80	1204,21
373,01	1196,01
373,22	1253,36
373,43	1265,64
373,64	1263,60
373,85	1347,56
374,06	1251,31
374,26	1236,97
374,47	1284,08
374,68	1282,03
374,89	1243,12
375,10	1284,08
375,31	1247,21
375,52	1265,64
375,73	1296,36
375,94	1259,50
376,15	1247,21
376,36	1318,89
376,57	1239,02
376,78	1302,51
376,99	1228,78
377,20	1257,45
377,40	1243,12
377,61	1183,73
377,82	1279,98
378,03	1329,13
378,24	1298,41
378,45	1247,21
378,66	1292,27
378,87	1294,32
379,08	1259,50
379,29	1175,53
379,50	1204,21
379,71	1253,36
379,91	1259,50
380,12	1269,74
380,33	1243,12
380,54	1292,27
380,75	1294,32
380,96	1200,11
381,17	1265,64
381,38	1189,87
381,59	1261,55
381,80	1253,36
382,00	1273,84
382,21	1257,45
382,42	1265,64
382,63	1245,16
382,84	1353,71
383,05	1312,75
383,26	1275,88
383,47	1226,73
383,68	1290,22
383,88	1279,98
384,09	1282,03
384,30	1298,41
384,51	1288,17
384,72	1288,17
384,93	1273,84
385,14	1277,93
385,35	1214,45
385,55	1230,83
385,76	1263,60
385,97	1314,80
386,18	1261,55
386,39	1286,12
386,60	1331,18
386,81	1185,77
387,02	1216,49
387,22	1306,60
387,43	1216,49
387,64	1292,27
387,85	1191,92
388,06	1232,88
388,27	1318,89
388,48	1267,69
388,68	1267,69
388,89	1279,98
389,10	1380,33
389,31	1220,59
389,52	1316,84
389,73	1239,02
389,93	1206,25
390,14	1265,64
390,35	1247,21
390,56	1269,74
390,77	1277,93
390,98	1239,02
391,18	1271,79
391,39	1279,98
391,60	1208,30
391,81	1150,96
392,02	1282,03
392,23	1261,55
392,43	1247,21
392,64	1239,02
392,85	1284,08
393,06	1294,32
393,27	1243,12
393,47	1179,63
393,68	1286,12
393,89	1277,93
394,10	1312,75
394,31	1210,35
394,52	1216,49
394,72	1236,97
394,93	1265,64
395,14	1259,50
395,35	1322,99
395,56	1247,21
395,76	1247,21
395,97	1267,69
396,18	1279,98
396,39	1232,88
396,60	1269,74
396,80	1275,88
397,01	1292,27
397,22	1286,12
397,43	1304,56
397,64	1265,64
397,84	1241,07
398,05	1286,12
398,26	1284,08
398,47	1267,69
398,67	1282,03
398,88	1230,83
399,09	1310,70
399,30	1337,32
399,51	1273,84
399,71	1300,46
399,92	1298,41
400,13	1232,88
400,34	1279,98
400,54	1294,32
400,75	1302,51
400,96	1255,40
401,17	1245,16
401,37	1304,56
401,58	1220,59
401,79	1265,64
402,00	1263,60
402,21	1282,03
402,41	1288,17
402,62	1292,27
402,83	1251,31
403,04	1304,56
403,24	1261,55
403,45	1226,73
403,66	1261,55
403,87	1282,03
404,07	1353,71
404,28	1239,02
404,49	1255,40
404,70	1253,36
404,90	1216,49
405,11	1165,29
405,32	1339,37
405,52	1218,54
405,73	1417,19
405,94	1247,21
406,15	1261,55
406,35	1234,93
406,56	1249,26
406,77	1259,50
406,98	1269,74
407,18	1277,93
407,39	1247,21
407,60	1288,17
407,80	1257,45
408,01	1210,35
408,22	1257,45
408,43	1265,64
408,63	1335,28
408,84	1298,41
409,05	1273,84
409,25	1255,40
409,46	1331,18
409,67	1222,64
409,88	1277,93
410,08	1257,45
410,29	1253,36
410,50	1298,41
410,70	1279,98
410,91	1275,88
411,12	1247,21
411,32	1249,26
411,53	1296,36
411,74	1251,31
411,95	1279,98
412,15	1239,02
412,36	1273,84
412,57	1222,64
412,77	1316,84
412,98	1265,64
413,19	1247,21
413,39	1243,12
413,60	1261,55
413,81	1277,93
414,01	1247,21
414,22	1292,27
414,43	1314,80
414,63	1257,45
414,84	1263,60
415,05	1208,30
415,25	1282,03
415,46	1206,25
415,67	1277,93
415,87	1241,07
416,08	1306,60
416,29	1224,69
416,49	1282,03
416,70	1290,22
416,91	1265,64
417,11	1255,40
417,32	1251,31
417,53	1243,12
417,73	1275,88
417,94	1298,41
418,15	1265,64
418,35	1288,17
418,56	1267,69
418,77	1257,45
418,97	1255,40
419,18	1253,36
419,38	1314,80
419,59	1253,36
419,80	1308,65
420,00	1282,03
420,21	1218,54
420,42	1312,75
420,62	1312,75
420,83	1271,79
421,04	1263,60
421,24	1257,45
421,45	1294,32
421,65	1277,93
421,86	1310,70
422,07	1212,40
422,27	1220,59
422,48	1241,07
422,69	1282,03
422,89	1322,99
423,10	1269,74
423,30	1239,02
423,51	1261,55
423,72	1298,41
423,92	1339,37
424,13	1284,08
424,33	1175,53
424,54	1300,46
424,75	1329,13
424,95	1304,56
425,16	1198,06
425,36	1296,36
425,57	1271,79
425,78	1271,79
425,98	1314,80
426,19	1200,11
426,39	1263,60
426,60	1284,08
426,81	1271,79
427,01	1269,74
427,22	1279,98
427,42	1228,78
427,63	1347,56
427,83	1261,55
428,04	1294,32
428,25	1318,89
428,45	1214,45
428,66	1226,73
428,86	1249,26
429,07	1241,07
429,28	1277,93
429,48	1183,73
429,69	1308,65
429,89	1253,36
430,10	1282,03
430,30	1308,65
430,51	1220,59
430,71	1286,12
430,92	1300,46
431,13	1251,31
431,33	1308,65
431,54	1247,21
431,74	1257,45
431,95	1314,80
432,15	1282,03
432,36	1210,35
432,56	1243,12
432,77	1214,45
432,98	1198,06
433,18	1251,31
433,39	1341,42
433,59	1265,64
433,80	1275,88
434,00	1257,45
434,21	1325,04
434,41	1263,60
434,62	1259,50
434,82	1232,88
435,03	1269,74
435,23	1230,83
435,44	1359,85
435,64	1253,36
435,85	1290,22
436,06	1343,47
436,26	1224,69
436,47	1259,50
436,67	1263,60
436,88	1296,36
437,08	1210,35
437,29	1302,51
437,49	1228,78
437,70	1228,78
437,90	1304,56
438,11	1306,60
438,31	1290,22
438,52	1329,13
438,72	1228,78
438,93	1320,94
439,13	1263,60
439,34	1214,45
439,54	1261,55
439,75	1279,98
439,95	1251,31
440,16	1290,22
440,36	1302,51
440,57	1310,70
440,77	1241,07
440,98	1255,40
441,18	1277,93
441,39	1275,88
441,59	1210,35
441,80	1298,41
442,00	1279,98
442,21	1318,89
442,41	1230,83
442,62	1300,46
442,82	1232,88
443,02	1300,46
443,23	1286,12
443,43	1267,69
443,64	1314,80
443,84	1296,36
444,05	1353,71
444,25	1296,36
444,46	1222,64
444,66	1304,56
444,87	1273,84
445,07	1298,41
445,28	1277,93
445,48	1290,22
445,69	1316,84
445,89	1208,30
446,09	1269,74
446,30	1204,21
446,50	1208,30
446,71	1255,40
446,91	1251,31
447,12	1261,55
447,32	1257,45
447,53	1245,16
447,73	1290,22
447,93	1214,45
448,14	1226,73
448,34	1269,74
448,55	1259,50
448,75	1302,51
448,96	1286,12
449,16	1296,36
449,36	1333,23
449,57	1306,60
449,77	1234,93
449,98	1282,03
450,18	1325,04
450,39	1249,26
450,59	1232,88
450,79	1273,84
451,00	1325,04
451,20	1198,06
451,41	1282,03
451,61	1243,12
451,81	1282,03
452,02	1282,03
452,22	1269,74
452,43	1282,03
452,63	1267,69
452,84	1239,02
453,04	1236,97
453,24	1286,12
453,45	1298,41
453,65	1304,56
453,86	1249,26
454,06	1230,83
454,26	1302,51
454,47	1294,32
454,67	1298,41
454,87	1298,41
455,08	1304,56
455,28	1208,30
455,49	1216,49
455,69	1247,21
455,89	1355,76
456,10	1275,88
456,30	1302,51
456,51	1255,40
456,71	1271,79
456,91	1230,83
457,12	1300,46
457,32	1363,95
457,52	1232,88
457,73	1284,08
457,93	1269,74
458,14	1314,80
458,34	1245,16
458,54	1302,51
458,75	1318,89
458,95	1308,65
459,15	1232,88
459,36	1263,60
459,56	1267,69
459,76	1257,45
459,97	1224,69
460,17	1282,03
460,37	1306,60
460,58	1251,31
460,78	1257,45
460,99	1282,03
461,19	1224,69
461,39	1325,04
461,60	1310,70
461,80	1249,26
462,00	1239,02
462,21	1292,27
462,41	1288,17
462,61	1239,02
462,82	1261,55
463,02	1247,21
463,22	1327,08
463,43	1253,36
463,63	1232,88
463,83	1239,02
464,04	1224,69
464,24	1286,12
464,44	1236,97
464,64	1339,37
464,85	1249,26
465,05	1320,94
465,25	1247,21
465,46	1269,74
465,66	1261,55
465,86	1333,23
466,07	1236,97
466,27	1304,56
466,47	1239,02
466,68	1271,79
466,88	1232,88
467,08	1296,36
467,29	1322,99
467,49	1322,99
467,69	1273,84
467,89	1267,69
468,10	1290,22
468,30	1249,26
468,50	1331,18
468,71	1263,60
468,91	1224,69
469,11	1259,50
469,31	1247,21
469,52	1279,98
469,72	1257,45
469,92	1236,97
470,13	1241,07
470,33	1263,60
470,53	1312,75
470,73	1288,17
470,94	1269,74
471,14	1306,60
471,34	1216,49
471,54	1298,41
471,75	1245,16
471,95	1294,32
472,15	1273,84
472,36	1253,36
472,56	1298,41
472,76	1189,87
472,96	1255,40
473,17	1294,32
473,37	1261,55
473,57	1261,55
473,77	1259,50
473,98	1288,17
474,18	1263,60
474,38	1251,31
474,58	1304,56
474,79	1275,88
474,99	1333,23
475,19	1282,03
475,39	1290,22
475,60	1329,13
475,80	1253,36
476,00	1277,93
476,20	1304,56
476,41	1241,07
476,61	1357,80
476,81	1267,69
477,01	1300,46
477,21	1310,70
477,42	1267,69
477,62	1282,03
477,82	1232,88
478,02	1236,97
478,23	1331,18
478,43	1263,60
478,63	1318,89
478,83	1316,84
479,03	1273,84
479,24	1249,26
479,44	1327,08
479,64	1261,55
479,84	1243,12
480,04	1279,98
480,25	1296,36
480,45	1206,25
480,65	1296,36
480,85	1353,71
481,06	1288,17
481,26	1255,40
481,46	1241,07
481,66	1222,64
481,86	1314,80
482,06	1241,07
482,27	1300,46
482,47	1245,16
482,67	1306,60
482,87	1327,08
483,07	1335,28
483,28	1253,36
483,48	1282,03
483,68	1261,55
483,88	1312,75
484,08	1269,74
484,29	1191,92
484,49	1247,21
484,69	1300,46
484,89	1279,98
485,09	1298,41
485,29	1261,55
485,50	1259,50
485,70	1273,84
485,90	1282,03
486,10	1232,88
486,30	1232,88
486,50	1251,31
486,71	1259,50
486,91	1314,80
487,11	1302,51
487,31	1284,08
487,51	1333,23
487,71	1284,08
487,91	1249,26
488,12	1236,97
488,32	1175,53
488,52	1294,32
488,72	1339,37
488,92	1296,36
489,12	1245,16
489,32	1255,40
489,53	1290,22
489,73	1228,78
489,93	1261,55
490,13	1261,55
490,33	1345,52
490,53	1316,84
490,73	1263,60
490,94	1249,26
491,14	1228,78
491,34	1243,12
491,54	1279,98
491,74	1210,35
491,94	1282,03
492,14	1259,50
492,34	1249,26
492,54	1277,93
492,75	1286,12
492,95	1241,07
493,15	1261,55
493,35	1290,22
493,55	1294,32
493,75	1329,13
493,95	1269,74
494,15	1273,84
494,35	1239,02
494,56	1189,87
494,76	1314,80
494,96	1298,41
495,16	1234,93
495,36	1294,32
495,56	1279,98
495,76	1322,99
495,96	1212,40
496,16	1234,93
496,36	1232,88
496,56	1230,83
496,77	1288,17
496,97	1306,60
497,17	1263,60
497,37	1196,01
497,57	1304,56
497,77	1314,80
497,97	1241,07
498,17	1239,02
498,37	1335,28
498,57	1288,17
498,77	1253,36
498,97	1261,55
499,17	1230,83
499,38	1292,27
499,58	1198,06
499,78	1230,83
499,98	1300,46
500,18	1310,70
500,38	1255,40
500,58	1300,46
500,78	1282,03
500,98	1277,93
501,18	1310,70
501,38	1302,51
501,58	1202,16
501,78	1292,27
501,98	1298,41
502,18	1331,18
502,38	1239,02
502,58	1261,55
502,78	1292,27
502,98	1296,36
503,18	1263,60
503,38	1202,16
503,59	1275,88
503,79	1230,83
503,99	1318,89
504,19	1288,17
504,39	1263,60
504,59	1284,08
504,79	1322,99
504,99	1275,88
505,19	1298,41
505,39	1292,27
505,59	1306,60
505,79	1253,36
505,99	1282,03
506,19	1249,26
506,39	1376,24
506,59	1269,74
506,79	1357,80
506,99	1265,64
507,19	1290,22
507,39	1263,60
507,59	1292,27
507,79	1247,21
507,99	1230,83
508,19	1284,08
508,39	1222,64
508,59	1298,41
508,79	1286,12
508,99	1236,97
509,19	1255,40
509,39	1279,98
509,59	1214,45
509,79	1273,84
509,99	1236,97
510,19	1257,45
510,39	1282,03
510,59	1216,49
510,79	1302,51
510,99	1304,56
511,19	1216,49
511,39	1310,70
511,59	1345,52
511,79	1345,52
511,99	1251,31
512,19	1308,65
512,38	1241,07
512,58	1302,51
512,78	1241,07
512,98	1314,80
513,18	1263,60
513,38	1228,78
513,58	1370,09
513,78	1257,45
513,98	1275,88
514,18	1300,46
514,38	1347,56
514,58	1200,11
514,78	1241,07
514,98	1292,27
515,18	1296,36
515,38	1294,32
515,58	1261,55
515,78	1284,08
515,98	1320,94
516,18	1222,64
516,38	1220,59
516,57	1300,46
516,77	1290,22
516,97	1253,36
517,17	1236,97
517,37	1255,40
517,57	1241,07
517,77	1265,64
517,97	1322,99
518,17	1216,49
518,37	1290,22
518,57	1257,45
518,77	1279,98
518,97	1310,70
519,16	1318,89
519,36	1226,73
519,56	1361,90
519,76	1327,08
519,96	1271,79
520,16	1345,52
520,36	1239,02
520,56	1314,80
520,76	1275,88
520,96	1343,47
521,16	1275,88
521,35	1245,16
521,55	1249,26
521,75	1261,55
521,95	1275,88
522,15	1230,83
522,35	1245,16
522,55	1316,84
522,75	1269,74
522,95	1308,65
523,14	1202,16
523,34	1224,69
523,54	1302,51
523,74	1302,51
523,94	1247,21
524,14	1273,84
524,34	1255,40
524,54	1200,11
524,73	1294,32
524,93	1269,74
525,13	1374,19
525,33	1232,88
525,53	1222,64
525,73	1257,45
525,93	1298,41
526,13	1337,32
526,32	1265,64
526,52	1273,84
526,72	1320,94
526,92	1284,08
527,12	1241,07
527,32	1251,31
527,52	1193,97
527,71	1230,83
527,91	1271,79
528,11	1296,36
528,31	1296,36
528,51	1210,35
528,71	1222,64
528,90	1349,61
529,10	1239,02
529,30	1310,70
529,50	1320,94
529,70	1282,03
529,90	1290,22
530,09	1300,46
530,29	1191,92
530,49	1310,70
530,69	1314,80
530,89	1333,23
531,09	1230,83
531,28	1308,65
531,48	1234,93
531,68	1224,69
531,88	1253,36
532,08	1314,80
532,28	1302,51
532,47	1279,98
532,67	1304,56
532,87	1255,40
533,07	1322,99
533,27	1310,70
533,46	1230,83
533,66	1298,41
533,86	1282,03
534,06	1288,17
534,26	1261,55
534,45	1286,12
534,65	1296,36
534,85	1288,17
535,05	1304,56
535,25	1257,45
535,44	1372,14
535,64	1294,32
535,84	1318,89
536,04	1245,16
536,24	1261,55
536,43	1275,88
536,63	1261,55
536,83	1228,78
537,03	1298,41
537,22	1351,66
537,42	1224,69
537,62	1331,18
537,82	1228,78
538,02	1273,84
538,21	1335,28
538,41	1320,94
538,61	1335,28
538,81	1302,51
539,00	1263,60
539,20	1251,31
539,40	1269,74
539,60	1304,56
539,79	1228,78
539,99	1228,78
540,19	1322,99
540,39	1232,88
540,58	1306,60
540,78	1327,08
540,98	1306,60
541,18	1304,56
541,37	1351,66
541,57	1230,83
541,77	1273,84
541,97	1243,12
542,16	1296,36
542,36	1310,70
542,56	1282,03
542,76	1259,50
542,95	1288,17
543,15	1298,41
543,35	1282,03
543,54	1187,82
543,74	1368,04
543,94	1353,71
544,14	1234,93
544,33	1322,99
544,53	1349,61
544,73	1286,12
544,93	1204,21
545,12	1230,83
545,32	1294,32
545,52	1343,47
545,71	1261,55
545,91	1310,70
546,11	1310,70
546,30	1241,07
546,50	1390,57
546,70	1288,17
546,90	1269,74
547,09	1261,55
547,29	1224,69
547,49	1230,83
547,68	1226,73
547,88	1286,12
548,08	1259,50
548,27	1286,12
548,47	1208,30
548,67	1286,12
548,87	1232,88
549,06	1300,46
549,26	1241,07
549,46	1294,32
549,65	1288,17
549,85	1265,64
550,05	1243,12
550,24	1253,36
550,44	1279,98
550,64	1251,31
550,83	1265,64
551,03	1296,36
551,23	1228,78
551,42	1261,55
551,62	1290,22
551,82	1361,90
552,01	1253,36
552,21	1261,55
552,41	1302,51
552,60	1288,17
552,80	1228,78
553,00	1290,22
553,19	1271,79
553,39	1249,26
553,59	1267,69
553,78	1249,26
553,98	1294,32
554,17	1308,65
554,37	1335,28
554,57	1247,21
554,76	1226,73
554,96	1290,22
555,16	1218,54
555,35	1279,98
555,55	1259,50
555,75	1292,27
555,94	1224,69
556,14	1247,21
556,33	1294,32
556,53	1302,51
556,73	1228,78
556,92	1302,51
557,12	1335,28
557,32	1286,12
557,51	1298,41
557,71	1230,83
557,90	1304,56
558,10	1290,22
558,30	1322,99
558,49	1306,60
558,69	1267,69
558,88	1290,22
559,08	1198,06
559,28	1322,99
559,47	1308,65
559,67	1306,60
559,86	1310,70
560,06	1282,03
560,26	1273,84
560,45	1320,94
560,65	1255,40
560,84	1257,45
561,04	1216,49
561,24	1329,13
561,43	1208,30
561,63	1349,61
561,82	1345,52
562,02	1294,32
562,22	1277,93
562,41	1136,62
562,61	1296,36
562,80	1310,70
563,00	1294,32
563,19	1296,36
563,39	1333,23
563,59	1241,07
563,78	1294,32
563,98	1294,32
564,17	1290,22
564,37	1218,54
564,56	1288,17
564,76	1316,84
564,96	1290,22
565,15	1302,51
565,35	1243,12
565,54	1302,51
565,74	1306,60
565,93	1320,94
566,13	1298,41
566,32	1220,59
566,52	1255,40
566,71	1228,78
566,91	1239,02
567,11	1370,09
567,30	1273,84
567,50	1294,32
567,69	1347,56
567,89	1296,36
568,08	1273,84
568,28	1308,65
568,47	1251,31
568,67	1249,26
568,86	1345,52
569,06	1259,50
569,25	1241,07
569,45	1243,12
569,64	1314,80
569,84	1269,74
570,04	1327,08
570,23	1239,02
570,43	1236,97
570,62	1331,18
570,82	1345,52
571,01	1279,98
571,21	1255,40
571,40	1290,22
571,60	1265,64
571,79	1288,17
571,99	1269,74
572,18	1253,36
572,38	1263,60
572,57	1271,79
572,77	1239,02
572,96	1232,88
573,16	1298,41
573,35	1251,31
573,55	1304,56
573,74	1279,98
573,94	1316,84
574,13	1353,71
574,33	1335,28
574,52	1304,56
574,71	1275,88
574,91	1226,73
575,10	1279,98
575,30	1284,08
575,49	1284,08
575,69	1265,64
575,88	1298,41
576,08	1298,41
576,27	1263,60
576,47	1263,60
576,66	1267,69
576,86	1271,79
577,05	1282,03
577,25	1286,12
577,44	1296,36
577,64	1284,08
577,83	1247,21
578,02	1308,65
578,22	1236,97
578,41	1292,27
578,61	1275,88
578,80	1341,42
579,00	1216,49
579,19	1167,34
579,39	1298,41
579,58	1247,21
579,77	1265,64
579,97	1277,93
580,16	1263,60
580,36	1288,17
580,55	1261,55
580,75	1298,41
580,94	1320,94
581,13	1263,60
581,33	1222,64
581,52	1271,79
581,72	1322,99
581,91	1298,41
582,11	1290,22
582,30	1224,69
582,49	1255,40
582,69	1316,84
582,88	1277,93
583,08	1191,92
583,27	1165,29
583,47	1288,17
583,66	1312,75
583,85	1355,76
584,05	1265,64
584,24	1335,28
584,44	1259,50
584,63	1222,64
584,82	1265,64
585,02	1269,74
585,21	1257,45
585,41	1269,74
585,60	1370,09
585,79	1282,03
585,99	1347,56
586,18	1267,69
586,37	1296,36
586,57	1249,26
586,76	1259,50
586,96	1275,88
587,15	1275,88
587,34	1394,67
587,54	1327,08
587,73	1208,30
587,93	1292,27
588,12	1212,40
588,31	1298,41
588,51	1333,23
588,70	1310,70
588,89	1322,99
589,09	1265,64
589,28	1368,04
589,47	1222,64
589,67	1243,12
589,86	1286,12
590,06	1253,36
590,25	1236,97
590,44	1347,56
590,64	1320,94
590,83	1286,12
591,02	1380,33
591,22	1339,37
591,41	1263,60
591,60	1261,55
591,80	1255,40
591,99	1310,70
592,18	1271,79
592,38	1282,03
592,57	1292,27
592,76	1296,36
592,96	1243,12
593,15	1300,46
593,34	1304,56
593,54	1232,88
593,73	1331,18
593,92	1277,93
594,12	1255,40
594,31	1222,64
594,50	1331,18
594,70	1304,56
594,89	1257,45
595,08	1261,55
595,28	1279,98
595,47	1300,46
595,66	1216,49
595,86	1255,40
596,05	1265,64
596,24	1241,07
596,43	1300,46
596,63	1304,56
596,82	1249,26
597,01	1249,26
597,21	1329,13
597,40	1282,03
597,59	1327,08
597,79	1249,26
597,98	1286,12
598,17	1331,18
598,36	1247,21
598,56	1265,64
598,75	1325,04
598,94	1288,17
599,14	1322,99
599,33	1245,16
599,52	1216,49
599,71	1341,42
599,91	1245,16
600,10	1241,07
600,29	1339,37
600,48	1306,60
600,68	1224,69
600,87	1290,22
601,06	1329,13
601,26	1294,32
601,45	1269,74
601,64	1304,56
601,83	1306,60
602,03	1255,40
602,22	1234,93
602,41	1224,69
602,60	1275,88
602,80	1273,84
602,99	1265,64
603,18	1257,45
603,37	1245,16
603,57	1279,98
603,76	1345,52
603,95	1294,32
604,14	1271,79
604,34	1298,41
604,53	1286,12
604,72	1261,55
604,91	1173,49
605,10	1251,31
605,30	1218,54
605,49	1308,65
605,68	1318,89
605,87	1333,23
606,07	1275,88
606,26	1298,41
606,45	1304,56
606,64	1286,12
606,84	1263,60
607,03	1236,97
607,22	1310,70
607,41	1302,51
607,60	1269,74
607,80	1298,41
607,99	1288,17
608,18	1269,74
608,37	1204,21
608,56	1294,32
608,76	1318,89
608,95	1296,36
609,14	1232,88
609,33	1230,83
609,52	1290,22
609,72	1275,88
609,91	1222,64
610,10	1351,66
610,29	1292,27
610,48	1282,03
610,68	1316,84
610,87	1253,36
611,06	1249,26
611,25	1247,21
611,44	1347,56
611,63	1267,69
611,83	1232,88
612,02	1314,80
612,21	1284,08
612,40	1257,45
612,59	1204,21
612,79	1273,84
612,98	1282,03
613,17	1273,84
613,36	1302,51
613,55	1327,08
613,74	1347,56
613,93	1257,45
614,13	1245,16
614,32	1351,66
614,51	1300,46
614,70	1251,31
614,89	1208,30
615,08	1282,03
615,28	1251,31
615,47	1243,12
615,66	1318,89
615,85	1282,03
616,04	1300,46
616,23	1277,93
616,42	1320,94
616,62	1265,64
616,81	1339,37
617,00	1243,12
617,19	1308,65
617,38	1306,60
617,57	1306,60
617,76	1241,07
617,95	1296,36
618,15	1277,93
618,34	1277,93
618,53	1337,32
618,72	1284,08
618,91	1312,75
619,10	1277,93
619,29	1243,12
619,48	1314,80
619,68	1273,84
619,87	1316,84
620,06	1247,21
620,25	1290,22
620,44	1333,23
620,63	1261,55
620,82	1290,22
621,01	1353,71
621,20	1204,21
621,39	1314,80
621,59	1234,93
621,78	1279,98
621,97	1259,50
622,16	1261,55
622,35	1257,45
622,54	1269,74
622,73	1288,17
622,92	1322,99
623,11	1316,84
623,30	1232,88
623,49	1253,36
623,68	1288,17
623,88	1333,23
624,07	1214,45
624,26	1314,80
624,45	1255,40
624,64	1318,89
624,83	1232,88
625,02	1290,22
625,21	1257,45
625,40	1331,18
625,59	1277,93
625,78	1343,47
625,97	1257,45
626,16	1351,66
626,35	1353,71
626,54	1329,13
626,74	1325,04
626,93	1288,17
627,12	1322,99
627,31	1335,28
627,50	1300,46
627,69	1286,12
627,88	1271,79
628,07	1234,93
628,26	1341,42
628,45	1234,93
628,64	1282,03
628,83	1220,59
629,02	1325,04
629,21	1298,41
629,40	1325,04
629,59	1347,56
629,78	1224,69
629,97	1329,13
630,16	1331,18
630,35	1349,61
630,54	1329,13
630,73	1325,04
630,92	1396,71
631,11	1325,04
631,30	1325,04
631,49	1406,95
631,68	1640,42
631,87	2836,44
632,06	6565,79
632,25	6987,67
632,44	10661,73
632,63	15365,91
632,82	22470,31
633,01	49214,74
633,20	65535,00
633,39	65535,00
633,58	65535,00
633,77	48901,40
633,96	16111,37
634,15	8890,23
634,34	7100,31
634,53	5390,25
634,72	3071,95
634,91	2101,22
635,10	2041,82
635,29	1884,13
635,48	1669,09
635,67	1662,95
635,86	1533,93
636,05	1519,59
636,24	1417,19
636,43	1288,17
636,62	1325,04
636,81	1306,60
637,00	1308,65
637,19	1353,71
637,38	1279,98
637,57	1302,51
637,76	1310,70
637,95	1271,79
638,14	1335,28
638,33	1314,80
638,52	1284,08
638,71	1275,88
638,89	1249,26
639,08	1210,35
639,27	1279,98
639,46	1304,56
639,65	1370,09
639,84	1316,84
640,03	1273,84
640,22	1257,45
640,41	1335,28
640,60	1286,12
640,79	1282,03
640,98	1263,60
641,17	1259,50
641,36	1302,51
641,55	1279,98
641,74	1218,54
641,92	1269,74
642,11	1318,89
642,30	1322,99
642,49	1269,74
642,68	1279,98
642,87	1273,84
643,06	1284,08
643,25	1214,45
643,44	1210,35
643,63	1308,65
643,82	1245,16
644,00	1316,84
644,19	1320,94
644,38	1247,21
644,57	1312,75
644,76	1351,66
644,95	1296,36
645,14	1275,88
645,33	1218,54
645,52	1273,84
645,71	1257,45
645,89	1345,52
646,08	1320,94
646,27	1198,06
646,46	1286,12
646,65	1241,07
646,84	1249,26
647,03	1279,98
647,22	1224,69
647,40	1290,22
647,59	1282,03
647,78	1202,16
647,97	1241,07
648,16	1253,36
648,35	1279,98
648,54	1279,98
648,73	1218,54
648,91	1316,84
649,10	1253,36
649,29	1310,70
649,48	1265,64
649,67	1243,12
649,86	1259,50
650,05	1286,12
650,23	1261,55
650,42	1353,71
650,61	1314,80
650,80	1318,89
650,99	1292,27
651,18	1302,51
651,36	1275,88
651,55	1304,56
651,74	1306,60
651,93	1298,41
652,12	1263,60
652,31	1353,71
652,49	1271,79
652,68	1279,98
652,87	1267,69
653,06	1282,03
653,25	1312,75
653,44	1236,97
653,62	1271,79
653,81	1271,79
654,00	1292,27
654,19	1294,32
654,38	1273,84
654,56	1200,11
654,75	1269,74
654,94	1243,12
655,13	1347,56
655,32	1271,79
655,51	1226,73
655,69	1273,84
655,88	1232,88
656,07	1298,41
656,26	1255,40
656,45	1220,59
656,63	1312,75
656,82	1275,88
657,01	1263,60
657,20	1314,80
657,38	1318,89
657,57	1239,02
657,76	1247,21
657,95	1298,41
658,14	1257,45
658,32	1273,84
658,51	1257,45
658,70	1267,69
658,89	1241,07
659,08	1253,36
659,26	1259,50
659,45	1269,74
659,64	1277,93
659,83	1331,18
660,01	1210,35
660,20	1257,45
660,39	1304,56
660,58	1232,88
660,76	1271,79
660,95	1282,03
661,14	1316,84
661,33	1228,78
661,51	1222,64
661,70	1220,59
661,89	1310,70
662,08	1155,05
662,26	1241,07
662,45	1218,54
662,64	1294,32
662,83	1228,78
663,01	1318,89
663,20	1251,31
663,39	1288,17
663,58	1271,79
663,76	1282,03
663,95	1318,89
664,14	1298,41
664,32	1206,25
664,51	1245,16
664,70	1159,15
664,89	1273,84
665,07	1263,60
665,26	1347,56
665,45	1212,40
665,64	1345,52
665,82	1298,41
666,01	1284,08
666,20	1222,64
666,38	1245,16
666,57	1241,07
666,76	1312,75
666,95	1259,50
667,13	1282,03
667,32	1193,97
667,51	1198,06
667,69	1177,58
667,88	1298,41
668,07	1345,52
668,25	1288,17
668,44	1265,64
668,63	1179,63
668,81	1308,65
669,00	1290,22
669,19	1224,69
669,38	1296,36
669,56	1236,97
669,75	1234,93
669,94	1261,55
670,12	1204,21
670,31	1302,51
670,50	1279,98
670,68	1189,87
670,87	1239,02
671,06	1288,17
671,24	1220,59
671,43	1249,26
671,62	1286,12
671,80	1288,17
671,99	1284,08
672,18	1318,89
672,36	1271,79
672,55	1200,11
672,74	1249,26
672,92	1239,02
673,11	1228,78
673,29	1296,36
673,48	1253,36
673,67	1236,97
673,85	1247,21
674,04	1275,88
674,23	1370,09
674,41	1290,22
674,60	1239,02
674,79	1298,41
674,97	1269,74
675,16	1175,53
675,34	1284,08
675,53	1308,65
675,72	1279,98
675,90	1345,52
676,09	1269,74
676,28	1331,18
676,46	1234,93
676,65	1294,32
676,83	1318,89
677,02	1294,32
677,21	1302,51
677,39	1294,32
677,58	1282,03
677,77	1275,88
677,95	1282,03
678,14	1241,07
678,32	1298,41
678,51	1290,22
678,70	1269,74
678,88	1275,88
679,07	1247,21
679,25	1202,16
679,44	1304,56
679,63	1243,12
679,81	1329,13
680,00	1327,08
680,18	1277,93
680,37	1286,12
680,55	1253,36
680,74	1245,16
680,93	1306,60
681,11	1284,08
681,30	1241,07
681,48	1296,36
681,67	1312,75
681,85	1251,31
682,04	1255,40
682,23	1232,88
682,41	1263,60
682,60	1255,40
682,78	1329,13
682,97	1220,59
683,15	1253,36
683,34	1224,69
683,53	1253,36
683,71	1296,36
683,90	1327,08
684,08	1255,40
684,27	1353,71
684,45	1329,13
684,64	1294,32
684,82	1239,02
685,01	1273,84
685,19	1269,74
685,38	1318,89
685,57	1222,64
685,75	1359,85
685,94	1236,97
686,12	1200,11
686,31	1335,28
686,49	1255,40
686,68	1249,26
686,86	1282,03
687,05	1191,92
687,23	1277,93
687,42	1189,87
687,60	1286,12
687,79	1212,40
687,97	1318,89
688,16	1370,09
688,34	1322,99
688,53	1232,88
688,71	1380,33
688,90	1269,74
689,08	1253,36
689,27	1263,60
689,45	1292,27
689,64	1239,02
689,82	1298,41
690,01	1294,32
690,19	1341,42
690,38	1206,25
690,56	1253,36
690,75	1232,88
690,93	1245,16
691,12	1286,12
691,30	1232,88
691,49	1275,88
691,67	1224,69
691,86	1267,69
692,04	1273,84
692,23	1185,77
692,41	1210,35
692,60	1269,74
692,78	1216,49
692,97	1292,27
693,15	1245,16
693,34	1220,59
693,52	1314,80
693,71	1325,04
693,89	1361,90
694,08	1183,73
694,26	1296,36
694,44	1163,25
694,63	1282,03
694,81	1202,16
695,00	1247,21
695,18	1191,92
695,37	1241,07
695,55	1208,30
695,74	1300,46
695,92	1230,83
696,10	1243,12
696,29	1183,73
696,47	1245,16
696,66	1277,93
696,84	1277,93
697,03	1202,16
697,21	1243,12
697,40	1322,99
697,58	1239,02
697,76	1243,12
697,95	1263,60
698,13	1224,69
698,32	1267,69
698,50	1322,99
698,68	1261,55
698,87	1208,30
699,05	1275,88
699,24	1277,93
699,42	1265,64
699,61	1310,70
699,79	1277,93
699,97	1279,98
700,16	1284,08
700,34	1271,79
700,53	1286,12
700,71	1247,21
700,89	1296,36
701,08	1265,64
701,26	1224,69
701,45	1286,12
701,63	1241,07
701,81	1271,79
702,00	1243,12
702,18	1257,45
702,37	1300,46
702,55	1265,64
702,73	1320,94
702,92	1310,70
703,10	1253,36
703,28	1269,74
703,47	1241,07
703,65	1320,94
703,84	1290,22
704,02	1282,03
704,20	1304,56
704,39	1290,22
704,57	1296,36
704,75	1290,22
704,94	1234,93
705,12	1236,97
705,30	1243,12
705,49	1265,64
705,67	1232,88
705,86	1279,98
706,04	1245,16
706,22	1284,08
706,41	1241,07
706,59	1275,88
706,77	1273,84
706,96	1265,64
707,14	1296,36
707,32	1298,41
707,51	1230,83
707,69	1331,18
707,87	1193,97
708,06	1286,12
708,24	1218,54
708,42	1277,93
708,61	1296,36
708,79	1357,80
708,97	1296,36
709,16	1236,97
709,34	1275,88
709,52	1316,84
709,71	1286,12
709,89	1314,80
710,07	1226,73
710,26	1204,21
710,44	1296,36
710,62	1327,08
710,80	1212,40
710,99	1247,21
711,17	1247,21
711,35	1265,64
711,54	1308,65
711,72	1296,36
711,90	1322,99
712,09	1239,02
712,27	1259,50
712,45	1325,04
712,63	1277,93
712,82	1359,85
713,00	1224,69
713,18	1257,45
713,37	1341,42
713,55	1290,22
713,73	1298,41
713,91	1314,80
714,10	1290,22
714,28	1265,64
714,46	1322,99
714,65	1275,88
714,83	1290,22
715,01	1267,69
715,19	1331,18
715,38	1269,74
715,56	1259,50
715,74	1212,40
715,92	1302,51
716,11	1290,22
716,29	1236,97
716,47	1232,88
716,65	1263,60
716,84	1302,51
717,02	1333,23
717,20	1275,88
717,38	1255,40
717,57	1282,03
717,75	1282,03
717,93	1259,50
718,11	1370,09
718,30	1322,99
718,48	1298,41
718,66	1335,28
718,84	1316,84
719,03	1249,26
719,21	1380,33
719,39	1308,65
719,57	1241,07
719,75	1261,55
719,94	1269,74
720,12	1284,08
720,30	1216,49
720,48	1298,41
720,67	1282,03
720,85	1253,36
721,03	1241,07
721,21	1290,22
721,39	1259,50
721,58	1282,03
721,76	1245,16
721,94	1304,56
722,12	1286,12
722,30	1245,16
722,49	1273,84
722,67	1216,49
722,85	1298,41
723,03	1331,18
723,21	1304,56
723,40	1325,04
723,58	1230,83
723,76	1265,64
723,94	1259,50
724,12	1286,12
724,30	1259,50
724,49	1308,65
724,67	1269,74
724,85	1282,03
725,03	1271,79
725,21	1271,79
725,40	1255,40
725,58	1320,94
725,76	1343,47
725,94	1279,98
726,12	1273,84
726,30	1265,64
726,49	1234,93
726,67	1247,21
726,85	1222,64
727,03	1290,22
727,21	1316,84
727,39	1251,31
727,57	1247,21
727,76	1312,75
727,94	1300,46
728,12	1224,69
728,30	1306,60
728,48	1232,88
728,66	1259,50
728,84	1234,93
729,03	1243,12
729,21	1271,79
729,39	1218,54
729,57	1222,64
729,75	1288,17
729,93	1282,03
730,11	1298,41
730,30	1300,46
730,48	1259,50
730,66	1214,45
730,84	1322,99
731,02	1222,64
731,20	1161,20
731,38	1322,99
731,56	1265,64
731,74	1292,27
731,93	1202,16
732,11	1263,60
732,29	1191,92
732,47	1312,75
732,65	1298,41
732,83	1310,70
733,01	1308,65
733,19	1210,35
733,37	1202,16
733,56	1257,45
733,74	1189,87
733,92	1304,56
734,10	1249,26
734,28	1222,64
734,46	1253,36
734,64	1220,59
734,82	1310,70
735,00	1298,41
735,18	1226,73
735,36	1202,16
735,54	1335,28
735,73	1247,21
735,91	1261,55
736,09	1286,12
736,27	1279,98
736,45	1298,41
736,63	1212,40
736,81	1263,60
736,99	1327,08
737,17	1282,03
737,35	1310,70
737,53	1206,25
737,71	1241,07
737,89	1216,49
738,07	1282,03
738,25	1273,84
738,43	1196,01
738,61	1267,69
738,80	1245,16
738,98	1251,31
739,16	1247,21
739,34	1288,17
739,52	1337,32
739,70	1302,51
739,88	1304,56
740,06	1255,40
740,24	1232,88
740,42	1318,89
740,60	1216,49
740,78	1257,45
740,96	1290,22
741,14	1347,56
741,32	1243,12
741,50	1265,64
741,68	1228,78
741,86	1306,60
742,04	1302,51
742,22	1277,93
742,40	1226,73
742,58	1271,79
742,76	1261,55
742,94	1253,36
743,12	1282,03
743,30	1310,70
743,48	1232,88
743,66	1273,84
743,84	1222,64
744,02	1275,88
744,20	1253,36
744,38	1251,31
744,56	1269,74
744,74	1249,26
744,92	1325,04
745,10	1210,35
745,28	1347,56
745,46	1222,64
745,64	1320,94
745,82	1261,55
746,00	1294,32
746,18	1277,93
746,36	1296,36
746,54	1310,70
746,72	1255,40
746,90	1300,46
747,08	1263,60
747,26	1265,64
747,44	1279,98
747,62	1220,59
747,80	1243,12
747,98	1214,45
748,15	1261,55
748,33	1247,21
748,51	1279,98
748,69	1294,32
748,87	1234,93
749,05	1322,99
749,23	1337,32
749,41	1257,45
749,59	1257,45
749,77	1241,07
749,95	1255,40
750,13	1361,90
750,31	1288,17
750,49	1288,17
750,67	1247,21
750,85	1243,12
751,03	1241,07
751,20	1265,64
751,38	1288,17
751,56	1243,12
751,74	1263,60
751,92	1253,36
752,10	1279,98
752,28	1271,79
752,46	1249,26
752,64	1292,27
752,82	1232,88
753,00	1218,54
753,18	1370,09
753,35	1265,64
753,53	1265,64
753,71	1220,59
753,89	1265,64
754,07	1247,21
754,25	1226,73
754,43	1271,79
754,61	1220,59
754,79	1290,22
754,97	1265,64
755,14	1284,08
755,32	1320,94
755,50	1298,41
755,68	1247,21
755,86	1288,17
756,04	1226,73
756,22	1286,12
756,40	1318,89
756,57	1302,51
756,75	1267,69
756,93	1292,27
757,11	1273,84
757,29	1261,55
757,47	1228,78
757,65	1241,07
757,82	1273,84
758,00	1245,16
758,18	1239,02
758,36	1298,41
758,54	1220,59
758,72	1320,94
758,90	1318,89
759,07	1282,03
759,25	1245,16
759,43	1220,59
759,61	1228,78
759,79	1339,37
759,97	1273,84
760,15	1310,70
760,32	1312,75
760,50	1304,56
760,68	1345,52
760,86	1335,28
761,04	1239,02
761,22	1259,50
761,39	1249,26
761,57	1214,45
761,75	1245,16
761,93	1261,55
762,11	1245,16
762,28	1271,79
762,46	1304,56
762,64	1236,97
762,82	1239,02
763,00	1216,49
763,18	1218,54
763,35	1265,64
763,53	1202,16
763,71	1218,54
763,89	1220,59
764,07	1245,16
764,24	1337,32
764,42	1273,84
764,60	1230,83
764,78	1263,60
764,96	1224,69
765,13	1251,31
765,31	1310,70
765,49	1298,41
765,67	1179,63
765,84	1288,17
766,02	1245,16
766,20	1210,35
766,38	1273,84
766,56	1220,59
766,73	1212,40
766,91	1251,31
767,09	1220,59
767,27	1298,41
767,44	1261,55
767,62	1210,35
767,80	1333,23
767,98	1247,21
768,15	1255,40
768,33	1318,89
768,51	1277,93
768,69	1312,75
768,87	1265,64
769,04	1286,12
769,22	1325,04
769,40	1290,22
769,58	1290,22
769,75	1247,21
769,93	1253,36
770,11	1298,41
770,28	1298,41
770,46	1259,50
770,64	1265,64
770,82	1241,07
770,99	1263,60
771,17	1279,98
771,35	1290,22
771,53	1312,75
771,70	1265,64
771,88	1265,64
772,06	1273,84
772,23	1263,60
772,41	1265,64
772,59	1275,88
772,77	1251,31
772,94	1273,84
773,12	1232,88
773,30	1239,02
773,47	1257,45
773,65	1210,35
773,83	1325,04
774,01	1296,36
774,18	1253,36
774,36	1337,32
774,54	1279,98
774,71	1259,50
774,89	1253,36
775,07	1279,98
775,24	1296,36
775,42	1269,74
775,60	1337,32
775,78	1191,92
775,95	1279,98
776,13	1206,25
776,31	1175,53
776,48	1208,30
776,66	1243,12
776,84	1236,97
777,01	1148,91
777,19	1206,25
777,37	1210,35
777,54	1329,13
777,72	1267,69
777,90	1249,26
778,07	1220,59
778,25	1304,56
778,43	1322,99
778,60	1265,64
778,78	1320,94
778,96	1220,59
779,13	1273,84
779,31	1302,51
779,49	1271,79
779,66	1224,69
779,84	1243,12
780,01	1259,50
780,19	1232,88
780,37	1300,46
780,54	1292,27
780,72	1163,25
780,90	1267,69
781,07	1212,40
781,25	1368,04
781,43	1308,65
781,60	1294,32
781,78	1290,22
781,95	1232,88
782,13	1210,35
782,31	1265,64
782,48	1327,08
782,66	1298,41
782,83	1255,40
783,01	1306,60
783,19	1222,64
783,36	1265,64
783,54	1247,21
783,72	1239,02
783,89	1310,70
784,07	1261,55
784,24	1202,16
784,42	1247,21
784,60	1236,97
784,77	1312,75
784,95	1271,79
785,12	1292,27
785,30	1247,21
785,47	1310,70
785,65	1302,51
785,83	1224,69
786,00	1247,21
786,18	1214,45
786,35	1271,79
786,53	1286,12
786,71	1284,08
786,88	1329,13
787,06	1333,23
787,23	1314,80
787,41	1286,12
787,58	1271,79
787,76	1345,52
787,94	1255,40
788,11	1267,69
788,29	1327,08
788,46	1277,93
788,64	1230,83
788,81	1275,88
788,99	1329,13
789,16	1304,56
789,34	1236,97
789,52	1220,59
789,69	1284,08
789,87	1247,21
790,04	1263,60
790,22	1265,64
790,39	1253,36
790,57	1259,50
790,74	1294,32
790,92	1263,60
791,09	1282,03
791,27	1273,84
791,44	1255,40
791,62	1310,70
791,79	1269,74
791,97	1275,88
792,15	1290,22
792,32	1277,93
792,50	1290,22
792,67	1257,45
792,85	1206,25
793,02	1265,64
793,20	1236,97
793,37	1353,71
793,55	1269,74
793,72	1257,45
793,90	1347,56
794,07	1269,74
794,25	1218,54
794,42	1269,74
794,60	1259,50
794,77	1308,65
794,95	1206,25
795,12	1308,65
795,30	1239,02
795,47	1300,46
795,65	1255,40
795,82	1265,64
796,00	1181,68
796,17	1228,78
796,34	1269,74
796,52	1230,83
796,69	1249,26
796,87	1236,97
797,04	1249,26
797,22	1339,37
797,39	1257,45
797,57	1179,63
797,74	1275,88
797,92	1255,40
798,09	1267,69
798,27	1320,94
798,44	1255,40
798,62	1214,45
798,79	1288,17
798,96	1331,18
799,14	1279,98
799,31	1255,40
799,49	1236,97
799,66	1298,41
799,84	1273,84
800,01	1267,69
800,19	1302,51
800,36	1265,64
800,53	1234,93
800,71	1249,26
800,88	1193,97
801,06	1247,21
801,23	1316,84
801,41	1288,17
801,58	1200,11
801,75	1296,36
801,93	1226,73
802,10	1251,31
802,28	1275,88
802,45	1288,17
802,63	1230,83
802,80	1271,79
802,97	1232,88
803,15	1286,12
803,32	1241,07
803,50	1263,60
803,67	1284,08
803,84	1259,50
804,02	1347,56
804,19	1284,08
804,37	1314,80
804,54	1290,22
804,71	1253,36
804,89	1306,60
805,06	1273,84
805,24	1263,60
805,41	1243,12
805,58	1216,49
805,76	1286,12
805,93	1226,73
806,10	1249,26
806,28	1247,21
806,45	1251,31
806,63	1269,74
806,80	1275,88
806,97	1292,27
807,15	1288,17
807,32	1216,49
807,49	1259,50
807,67	1239,02
807,84	1312,75
808,01	1261,55
808,19	1282,03
808,36	1247,21
808,54	1200,11
808,71	1263,60
808,88	1327,08
809,06	1294,32
809,23	1322,99
809,40	1275,88
809,58	1284,08
809,75	1269,74
809,92	1253,36
810,10	1236,97
810,27	1306,60
810,44	1286,12
810,62	1263,60
810,79	1239,02
810,96	1271,79
811,14	1216,49
811,31	1216,49
811,48	1273,84
811,66	1296,36
811,83	1271,79
812,00	1253,36
812,18	1290,22
812,35	1279,98
812,52	1236,97
812,69	1279,98
812,87	1253,36
813,04	1216,49
813,21	1265,64
813,39	1284,08
813,56	1214,45
813,73	1337,32
813,91	1212,40
814,08	1279,98
814,25	1288,17
814,42	1216,49
814,60	1226,73
814,77	1218,54
814,94	1290,22
815,12	1279,98
815,29	1222,64
815,46	1228,78
815,63	1247,21
815,81	1255,40
815,98	1277,93
816,15	1269,74
816,33	1257,45
816,50	1304,56
816,67	1286,12
816,84	1267,69
817,02	1218,54
817,19	1247,21
817,36	1279,98
817,53	1230,83
817,71	1269,74
817,88	1241,07
818,05	1282,03
818,22	1255,40
818,40	1245,16
818,57	1239,02
818,74	1230,83
818,91	1284,08
819,09	1275,88
819,26	1265,64
819,43	1300,46
819,60	1247,21
819,78	1173,49
819,95	1214,45
820,12	1257,45
820,29	1298,41
820,47	1271,79
820,64	1290,22
820,81	1253,36
820,98	1304,56
821,15	1269,74
821,33	1255,40
821,50	1179,63
821,67	1277,93
821,84	1302,51
822,02	1300,46
822,19	1239,02
822,36	1290,22
822,53	1253,36
822,70	1286,12
822,88	1284,08
823,05	1206,25
823,22	1271,79
823,39	1249,26
823,56	1263,60
823,74	1224,69
823,91	1210,35
824,08	1232,88
824,25	1341,42
824,42	1292,27
824,60	1296,36
824,77	1327,08
824,94	1187,82
825,11	1255,40
825,28	1224,69
825,45	1306,60
825,63	1253,36
825,80	1269,74
825,97	1290,22
826,14	1169,39
826,31	1320,94
826,48	1232,88
826,66	1208,30
826,83	1290,22
827,00	1230,83
827,17	1255,40
827,34	1298,41
827,51	1318,89
827,69	1277,93
827,86	1255,40
828,03	1243,12
828,20	1339,37
828,37	1224,69
828,54	1241,07
828,71	1298,41
828,89	1271,79
829,06	1282,03
829,23	1308,65
829,40	1228,78
829,57	1279,98
829,74	1239,02
829,91	1286,12
830,09	1255,40
830,26	1247,21
830,43	1224,69
830,60	1312,75
830,77	1234,93
830,94	1282,03
831,11	1265,64
831,28	1189,87
831,46	1275,88
831,63	1255,40
831,80	1277,93
831,97	1220,59
832,14	1253,36
832,31	1265,64
832,48	1282,03
832,65	1337,32
832,82	1271,79
832,99	1243,12
833,17	1306,60
833,34	1335,28
833,51	1249,26
833,68	1189,87
833,85	1257,45
834,02	1312,75
834,19	1216,49
834,36	1279,98
834,53	1259,50
834,70	1236,97
834,87	1261,55
835,04	1314,80
835,22	1187,82
835,39	1271,79
835,56	1216,49
835,73	1263,60
835,90	1230,83
836,07	1261,55
836,24	1234,93
836,41	1251,31
836,58	1290,22
836,75	1175,53
836,92	1239,02
837,09	1259,50
837,26	1263,60
837,43	1296,36
837,60	1224,69
837,77	1308,65
837,94	1204,21
838,12	1241,07
838,29	1257,45
838,46	1247,21
838,63	1255,40
838,80	1290,22
838,97	1279,98
839,14	1228,78
839,31	1290,22
839,48	1261,55
839,65	1273,84
839,82	1243,12
839,99	1218,54
840,16	1224,69
840,33	1261,55
840,50	1267,69
840,67	1349,61
840,84	1320,94
841,01	1265,64
841,18	1255,40
841,35	1269,74
841,52	1378,28
841,69	1284,08
841,86	1239,02
842,03	1236,97
842,20	1288,17
842,37	1218,54
842,54	1263,60
842,71	1288,17
842,88	1310,70
843,05	1318,89
843,22	1296,36
843,39	1327,08
843,56	1314,80
843,73	1257,45
843,90	1263,60
844,07	1298,41
844,24	1279,98
844,41	1325,04
844,58	1273,84
844,75	1257,45
844,92	1241,07
845,09	1243,12
845,26	1232,88
845,43	1271,79
845,60	1175,53
845,77	1310,70
845,94	1290,22
846,10	1277,93
846,27	1208,30
846,44	1234,93
846,61	1249,26
846,78	1298,41
846,95	1269,74
847,12	1251,31
847,29	1243,12
847,46	1269,74
847,63	1298,41
847,80	1224,69
847,97	1224,69
848,14	1284,08
848,31	1230,83
848,48	1257,45
848,65	1290,22
848,82	1308,65
848,98	1298,41
849,15	1265,64
849,32	1312,75
849,49	1259,50
849,66	1355,76
849,83	1249,26
850,00	1257,45
850,17	1349,61
850,34	1247,21
850,51	1218,54
850,68	1282,03
850,85	1216,49
851,01	1269,74
851,18	1249,26
851,35	1255,40
851,52	1286,12
851,69	1261,55
851,86	1261,55
852,03	1306,60
852,20	1284,08
852,37	1378,28
852,53	1273,84
852,70	1296,36
852,87	1232,88
853,04	1202,16
853,21	1290,22
853,38	1310,70
853,55	1239,02
853,72	1312,75
853,89	1234,93
854,05	1222,64
854,22	1267,69
854,39	1279,98
854,56	1191,92
854,73	1286,12
854,90	1331,18
855,07	1263,60
855,23	1206,25
855,40	1290,22
855,57	1284,08
855,74	1257,45
855,91	1222,64
856,08	1267,69
856,25	1294,32
856,41	1300,46
856,58	1179,63
856,75	1261,55
856,92	1216,49
857,09	1271,79
857,26	1202,16
857,42	1288,17
857,59	1290,22
857,76	1175,53
857,93	1253,36
858,10	1236,97
858,27	1202,16
858,43	1222,64
858,60	1290,22
858,77	1310,70
858,94	1255,40
859,11	1292,27
859,27	1290,22
859,44	1265,64
859,61	1292,27
859,78	1243,12
859,95	1239,02
860,12	1269,74
860,28	1257,45
860,45	1228,78
860,62	1249,26
860,79	1210,35
860,95	1279,98
861,12	1255,40
861,29	1327,08
861,46	1318,89
861,63	1202,16
861,79	1261,55
861,96	1275,88
862,13	1226,73
862,30	1232,88
862,47	1263,60
862,63	1228,78
862,80	1257,45
862,97	1214,45
863,14	1259,50
863,30	1296,36
863,47	1255,40
863,64	1257,45
863,81	1202,16
863,97	1257,45
864,14	1277,93
864,31	1286,12
864,48	1230,83
864,65	1232,88
864,81	1224,69
864,98	1261,55
865,15	1261,55
865,32	1298,41
865,48	1288,17
865,65	1314,80
865,82	1253,36
865,98	1191,92
866,15	1314,80
866,32	1249,26
866,49	1337,32
866,65	1257,45
866,82	1245,16
866,99	1263,60
867,16	1220,59
867,32	1214,45
867,49	1269,74
867,66	1171,44
867,83	1298,41
867,99	1265,64
868,16	1255,40
868,33	1179,63
868,49	1226,73
868,66	1290,22
868,83	1253,36
868,99	1269,74
869,16	1179,63
869,33	1245,16
869,50	1265,64
869,66	1282,03
869,83	1265,64
870,00	1185,77
870,16	1320,94
870,33	1251,31
870,50	1314,80
870,66	1218,54
870,83	1279,98
871,00	1282,03
871,17	1257,45
871,33	1263,60
871,50	1253,36
871,67	1220,59
871,83	1249,26
872,00	1245,16
872,17	1273,84
872,33	1230,83
872,50	1224,69
872,67	1253,36
872,83	1189,87
873,00	1320,94
873,17	1275,88
873,33	1253,36
873,50	1300,46
873,67	1236,97
873,83	1255,40
874,00	1232,88
874,16	1269,74
874,33	1232,88
874,50	1241,07
874,66	1275,88
874,83	1271,79
875,00	1273,84
875,16	1279,98
875,33	1271,79
875,50	1257,45
875,66	1204,21
875,83	1282,03
875,99	1265,64
876,16	1247,21
876,33	1220,59
876,49	1259,50
876,66	1232,88
876,83	1208,30
876,99	1292,27
877,16	1296,36
877,32	1257,45
877,49	1286,12
877,66	1253,36
877,82	1222,64
877,99	1228,78
878,15	1310,70
878,32	1282,03
878,49	1159,15
878,65	1306,60
878,82	1255,40
878,98	1191,92
879,15	1300,46
879,32	1279,98
879,48	1314,80
879,65	1232,88
879,81	1298,41
879,98	1312,75
880,15	1290,22
880,31	1247,21
880,48	1282,03
880,64	1163,25
880,81	1249,26
880,97	1212,40
881,14	1282,03
881,31	1271,79
881,47	1320,94
881,64	1222,64
881,80	1220,59
881,97	1294,32
882,13	1249,26
882,30	1273,84
882,47	1306,60
882,63	1286,12
882,80	1212,40
882,96	1257,45
883,13	1226,73
883,29	1220,59
883,46	1292,27
883,62	1263,60
883,79	1216,49
883,95	1224,69
884,12	1224,69
884,29	1288,17
884,45	1314,80
884,62	1284,08
884,78	1265,64
884,95	1202,16
885,11	1253,36
885,28	1284,08
885,44	1304,56
885,61	1249,26
885,77	1275,88
885,94	1255,40
886,10	1232,88
886,27	1286,12
886,43	1292,27
886,60	1247,21
886,76	1292,27
886,93	1269,74
887,09	1310,70
887,26	1263,60
887,42	1251,31
887,59	1261,55
887,75	1271,79
887,92	1312,75
888,08	1302,51
888,25	1327,08
888,41	1273,84
888,58	1320,94
888,74	1241,07
888,91	1269,74
>>>>>End Processed Spectral Data<<<<<
