SpectraSuite Data File
++++++++++++++++++++++++++++++++++++
Date: Sun Apr 03 19:55:55 CEST 2016
User: root
Dark Spectrum Present: No
Reference Spectrum Present: No
Number of Sampled Component Spectra: 1
Spectrometers: USB4C02835
Integration Time (usec): 10000 (USB4C02835)
Spectra Averaged: 1 (USB4C02835)
Boxcar Smoothing: 0 (USB4C02835)
Correct for Electrical Dark: No (USB4C02835)
Strobe/Lamp Enabled: No (USB4C02835)
Correct for Detector Non-linearity: No (USB4C02835)
Correct for Stray Light: No (USB4C02835)
Number of Pixels in Processed Spectrum: 3648
>>>>>Begin Processed Spectral Data<<<<<
177,47	1257,45
177,69	1257,45
177,91	1257,45
178,13	1249,26
178,36	1290,22
178,58	1249,26
178,80	1259,50
179,02	1136,62
179,24	1292,27
179,46	1347,56
179,68	1257,45
179,90	1282,03
180,13	1265,64
180,35	1298,41
180,57	1214,45
180,79	1245,16
181,01	1245,16
181,23	1263,60
181,45	1316,84
181,67	1259,50
181,90	1251,31
182,12	1251,31
182,34	1249,26
182,56	1271,79
182,78	1325,04
183,00	1261,55
183,22	1329,13
183,44	1277,93
183,66	1300,46
183,89	1243,12
184,11	1308,65
184,33	1224,69
184,55	1279,98
184,77	1277,93
184,99	1314,80
185,21	1298,41
185,43	1294,32
185,65	1265,64
185,87	1241,07
186,10	1279,98
186,32	1249,26
186,54	1290,22
186,76	1294,32
186,98	1204,21
187,20	1230,83
187,42	1269,74
187,64	1239,02
187,86	1298,41
188,08	1329,13
188,30	1222,64
188,52	1245,16
188,75	1275,88
188,97	1241,07
189,19	1267,69
189,41	1257,45
189,63	1284,08
189,85	1331,18
190,07	1302,51
190,29	1169,39
190,51	1239,02
190,73	1228,78
190,95	1241,07
191,17	1347,56
191,39	1224,69
191,61	1257,45
191,84	1241,07
192,06	1220,59
192,28	1271,79
192,50	1249,26
192,72	1224,69
192,94	1210,35
193,16	1284,08
193,38	1394,67
193,60	1267,69
193,82	1275,88
194,04	1277,93
194,26	1267,69
194,48	1275,88
194,70	1220,59
194,92	1251,31
195,14	1224,69
195,36	1206,25
195,58	1265,64
195,80	1282,03
196,02	1284,08
196,24	1253,36
196,46	1232,88
196,69	1263,60
196,91	1282,03
197,13	1267,69
197,35	1255,40
197,57	1359,85
197,79	1259,50
198,01	1267,69
198,23	1286,12
198,45	1257,45
198,67	1271,79
198,89	1202,16
199,11	1257,45
199,33	1185,77
199,55	1263,60
199,77	1208,30
199,99	1202,16
200,21	1249,26
200,43	1267,69
200,65	1337,32
200,87	1261,55
201,09	1296,36
201,31	1341,42
201,53	1241,07
201,75	1257,45
201,97	1255,40
202,19	1325,04
202,41	1298,41
202,63	1189,87
202,85	1202,16
203,07	1312,75
203,29	1265,64
203,51	1273,84
203,73	1322,99
203,95	1253,36
204,17	1331,18
204,39	1327,08
204,61	1277,93
204,83	1306,60
205,05	1247,21
205,27	1265,64
205,49	1253,36
205,71	1271,79
205,93	1290,22
206,15	1275,88
206,37	1335,28
206,59	1294,32
206,81	1312,75
207,03	1183,73
207,25	1298,41
207,47	1298,41
207,69	1259,50
207,91	1320,94
208,13	1226,73
208,34	1292,27
208,56	1308,65
208,78	1236,97
209,00	1259,50
209,22	1331,18
209,44	1232,88
209,66	1265,64
209,88	1251,31
210,10	1290,22
210,32	1249,26
210,54	1308,65
210,76	1318,89
210,98	1296,36
211,20	1239,02
211,42	1247,21
211,64	1279,98
211,86	1226,73
212,08	1296,36
212,30	1259,50
212,52	1265,64
212,74	1216,49
212,96	1245,16
213,17	1220,59
213,39	1257,45
213,61	1241,07
213,83	1308,65
214,05	1347,56
214,27	1306,60
214,49	1290,22
214,71	1239,02
214,93	1343,47
215,15	1314,80
215,37	1275,88
215,59	1288,17
215,81	1308,65
216,03	1167,34
216,24	1249,26
216,46	1302,51
216,68	1232,88
216,90	1269,74
217,12	1226,73
217,34	1294,32
217,56	1337,32
217,78	1220,59
218,00	1265,64
218,22	1288,17
218,44	1300,46
218,66	1320,94
218,87	1228,78
219,09	1302,51
219,31	1282,03
219,53	1230,83
219,75	1296,36
219,97	1279,98
220,19	1218,54
220,41	1241,07
220,63	1349,61
220,85	1302,51
221,06	1351,66
221,28	1216,49
221,50	1241,07
221,72	1191,92
221,94	1241,07
222,16	1218,54
222,38	1284,08
222,60	1226,73
222,82	1257,45
223,03	1341,42
223,25	1329,13
223,47	1218,54
223,69	1263,60
223,91	1265,64
224,13	1378,28
224,35	1243,12
224,57	1245,16
224,78	1292,27
225,00	1286,12
225,22	1265,64
225,44	1220,59
225,66	1265,64
225,88	1357,80
226,10	1269,74
226,32	1296,36
226,53	1302,51
226,75	1288,17
226,97	1236,97
227,19	1304,56
227,41	1341,42
227,63	1284,08
227,85	1259,50
228,06	1284,08
228,28	1247,21
228,50	1239,02
228,72	1251,31
228,94	1290,22
229,16	1333,23
229,37	1347,56
229,59	1273,84
229,81	1343,47
230,03	1294,32
230,25	1292,27
230,47	1298,41
230,69	1259,50
230,90	1263,60
231,12	1263,60
231,34	1265,64
231,56	1296,36
231,78	1271,79
232,00	1187,82
232,21	1314,80
232,43	1261,55
232,65	1277,93
232,87	1247,21
233,09	1216,49
233,30	1337,32
233,52	1286,12
233,74	1325,04
233,96	1298,41
234,18	1210,35
234,40	1308,65
234,61	1341,42
234,83	1273,84
235,05	1198,06
235,27	1308,65
235,49	1257,45
235,70	1273,84
235,92	1296,36
236,14	1339,37
236,36	1212,40
236,58	1202,16
236,79	1265,64
237,01	1218,54
237,23	1290,22
237,45	1202,16
237,67	1261,55
237,88	1251,31
238,10	1320,94
238,32	1286,12
238,54	1253,36
238,76	1275,88
238,97	1208,30
239,19	1302,51
239,41	1263,60
239,63	1310,70
239,85	1257,45
240,06	1269,74
240,28	1318,89
240,50	1171,44
240,72	1290,22
240,93	1206,25
241,15	1275,88
241,37	1304,56
241,59	1220,59
241,81	1247,21
242,02	1212,40
242,24	1308,65
242,46	1298,41
242,68	1322,99
242,89	1271,79
243,11	1214,45
243,33	1279,98
243,55	1247,21
243,76	1284,08
243,98	1286,12
244,20	1261,55
244,42	1265,64
244,64	1214,45
244,85	1200,11
245,07	1329,13
245,29	1236,97
245,51	1247,21
245,72	1304,56
245,94	1257,45
246,16	1267,69
246,38	1298,41
246,59	1263,60
246,81	1263,60
247,03	1298,41
247,24	1267,69
247,46	1290,22
247,68	1247,21
247,90	1325,04
248,11	1220,59
248,33	1265,64
248,55	1263,60
248,77	1329,13
248,98	1226,73
249,20	1261,55
249,42	1277,93
249,64	1189,87
249,85	1300,46
250,07	1294,32
250,29	1286,12
250,50	1341,42
250,72	1306,60
250,94	1230,83
251,16	1331,18
251,37	1316,84
251,59	1314,80
251,81	1351,66
252,02	1206,25
252,24	1288,17
252,46	1296,36
252,68	1255,40
252,89	1189,87
253,11	1245,16
253,33	1286,12
253,54	1279,98
253,76	1253,36
253,98	1331,18
254,20	1282,03
254,41	1310,70
254,63	1322,99
254,85	1277,93
255,06	1265,64
255,28	1263,60
255,50	1282,03
255,71	1224,69
255,93	1331,18
256,15	1277,93
256,36	1230,83
256,58	1269,74
256,80	1265,64
257,02	1257,45
257,23	1298,41
257,45	1249,26
257,67	1300,46
257,88	1265,64
258,10	1245,16
258,32	1241,07
258,53	1318,89
258,75	1249,26
258,97	1329,13
259,18	1245,16
259,40	1257,45
259,62	1241,07
259,83	1222,64
260,05	1363,95
260,27	1282,03
260,48	1300,46
260,70	1220,59
260,92	1302,51
261,13	1214,45
261,35	1290,22
261,57	1279,98
261,78	1314,80
262,00	1222,64
262,22	1273,84
262,43	1277,93
262,65	1298,41
262,86	1224,69
263,08	1269,74
263,30	1198,06
263,51	1273,84
263,73	1232,88
263,95	1298,41
264,16	1253,36
264,38	1271,79
264,60	1249,26
264,81	1245,16
265,03	1239,02
265,25	1288,17
265,46	1279,98
265,68	1200,11
265,89	1271,79
266,11	1271,79
266,33	1320,94
266,54	1251,31
266,76	1249,26
266,98	1216,49
267,19	1273,84
267,41	1245,16
267,62	1359,85
267,84	1308,65
268,06	1241,07
268,27	1253,36
268,49	1271,79
268,70	1265,64
268,92	1333,23
269,14	1318,89
269,35	1288,17
269,57	1282,03
269,79	1261,55
270,00	1263,60
270,22	1314,80
270,43	1310,70
270,65	1193,97
270,87	1271,79
271,08	1314,80
271,30	1286,12
271,51	1193,97
271,73	1312,75
271,95	1349,61
272,16	1284,08
272,38	1224,69
272,59	1187,82
272,81	1296,36
273,02	1355,76
273,24	1271,79
273,46	1222,64
273,67	1294,32
273,89	1318,89
274,10	1255,40
274,32	1279,98
274,54	1257,45
274,75	1249,26
274,97	1239,02
275,18	1298,41
275,40	1300,46
275,61	1234,93
275,83	1308,65
276,05	1296,36
276,26	1300,46
276,48	1298,41
276,69	1349,61
276,91	1322,99
277,12	1314,80
277,34	1255,40
277,55	1175,53
277,77	1298,41
277,99	1296,36
278,20	1277,93
278,42	1187,82
278,63	1261,55
278,85	1306,60
279,06	1243,12
279,28	1247,21
279,49	1314,80
279,71	1298,41
279,93	1247,21
280,14	1314,80
280,36	1261,55
280,57	1255,40
280,79	1245,16
281,00	1239,02
281,22	1284,08
281,43	1290,22
281,65	1284,08
281,86	1243,12
282,08	1222,64
282,29	1282,03
282,51	1212,40
282,73	1288,17
282,94	1327,08
283,16	1343,47
283,37	1247,21
283,59	1241,07
283,80	1300,46
284,02	1257,45
284,23	1325,04
284,45	1286,12
284,66	1277,93
284,88	1239,02
285,09	1267,69
285,31	1269,74
285,52	1279,98
285,74	1306,60
285,95	1318,89
286,17	1261,55
286,38	1183,73
286,60	1314,80
286,81	1292,27
287,03	1292,27
287,24	1269,74
287,46	1249,26
287,67	1224,69
287,89	1296,36
288,10	1269,74
288,32	1187,82
288,53	1224,69
288,75	1286,12
288,96	1284,08
289,18	1218,54
289,39	1273,84
289,61	1333,23
289,82	1294,32
290,04	1265,64
290,25	1243,12
290,47	1255,40
290,68	1312,75
290,90	1290,22
291,11	1300,46
291,33	1220,59
291,54	1279,98
291,76	1271,79
291,97	1181,68
292,18	1271,79
292,40	1290,22
292,61	1310,70
292,83	1251,31
293,04	1261,55
293,26	1284,08
293,47	1329,13
293,69	1269,74
293,90	1204,21
294,12	1249,26
294,33	1331,18
294,55	1265,64
294,76	1257,45
294,97	1308,65
295,19	1261,55
295,40	1232,88
295,62	1243,12
295,83	1212,40
296,05	1239,02
296,26	1339,37
296,48	1368,04
296,69	1234,93
296,90	1251,31
297,12	1277,93
297,33	1226,73
297,55	1267,69
297,76	1290,22
297,98	1277,93
298,19	1296,36
298,41	1316,84
298,62	1304,56
298,83	1343,47
299,05	1218,54
299,26	1218,54
299,48	1277,93
299,69	1243,12
299,90	1290,22
300,12	1208,30
300,33	1249,26
300,55	1312,75
300,76	1269,74
300,98	1275,88
301,19	1234,93
301,40	1292,27
301,62	1241,07
301,83	1236,97
302,05	1271,79
302,26	1286,12
302,47	1318,89
302,69	1296,36
302,90	1228,78
303,12	1294,32
303,33	1216,49
303,54	1228,78
303,76	1290,22
303,97	1249,26
304,19	1187,82
304,40	1288,17
304,61	1312,75
304,83	1251,31
305,04	1296,36
305,26	1331,18
305,47	1249,26
305,68	1177,58
305,90	1243,12
306,11	1286,12
306,33	1286,12
306,54	1271,79
306,75	1294,32
306,97	1247,21
307,18	1261,55
307,39	1220,59
307,61	1343,47
307,82	1288,17
308,04	1222,64
308,25	1198,06
308,46	1253,36
308,68	1265,64
308,89	1275,88
309,10	1247,21
309,32	1273,84
309,53	1249,26
309,74	1286,12
309,96	1212,40
310,17	1214,45
310,39	1200,11
310,60	1290,22
310,81	1212,40
311,03	1279,98
311,24	1304,56
311,45	1228,78
311,67	1249,26
311,88	1265,64
312,09	1216,49
312,31	1261,55
312,52	1208,30
312,73	1296,36
312,95	1216,49
313,16	1304,56
313,37	1222,64
313,59	1345,52
313,80	1253,36
314,01	1269,74
314,23	1239,02
314,44	1218,54
314,65	1234,93
314,87	1230,83
315,08	1191,92
315,29	1222,64
315,51	1171,44
315,72	1220,59
315,93	1255,40
316,15	1279,98
316,36	1232,88
316,57	1298,41
316,79	1255,40
317,00	1257,45
317,21	1277,93
317,43	1267,69
317,64	1239,02
317,85	1306,60
318,07	1249,26
318,28	1279,98
318,49	1265,64
318,70	1177,58
318,92	1263,60
319,13	1310,70
319,34	1243,12
319,56	1241,07
319,77	1288,17
319,98	1298,41
320,20	1290,22
320,41	1288,17
320,62	1290,22
320,83	1271,79
321,05	1290,22
321,26	1210,35
321,47	1316,84
321,69	1290,22
321,90	1279,98
322,11	1298,41
322,32	1296,36
322,54	1314,80
322,75	1216,49
322,96	1257,45
323,18	1292,27
323,39	1234,93
323,60	1294,32
323,81	1253,36
324,03	1171,44
324,24	1290,22
324,45	1277,93
324,66	1271,79
324,88	1230,83
325,09	1230,83
325,30	1249,26
325,52	1226,73
325,73	1284,08
325,94	1318,89
326,15	1232,88
326,37	1292,27
326,58	1269,74
326,79	1294,32
327,00	1286,12
327,22	1241,07
327,43	1243,12
327,64	1322,99
327,85	1316,84
328,07	1275,88
328,28	1204,21
328,49	1277,93
328,70	1236,97
328,92	1259,50
329,13	1279,98
329,34	1288,17
329,55	1288,17
329,76	1298,41
329,98	1339,37
330,19	1298,41
330,40	1320,94
330,61	1282,03
330,83	1290,22
331,04	1273,84
331,25	1269,74
331,46	1329,13
331,68	1306,60
331,89	1241,07
332,10	1247,21
332,31	1234,93
332,52	1241,07
332,74	1259,50
332,95	1228,78
333,16	1247,21
333,37	1288,17
333,58	1308,65
333,80	1218,54
334,01	1296,36
334,22	1306,60
334,43	1292,27
334,64	1220,59
334,86	1284,08
335,07	1236,97
335,28	1245,16
335,49	1222,64
335,70	1306,60
335,92	1216,49
336,13	1320,94
336,34	1245,16
336,55	1298,41
336,76	1241,07
336,98	1273,84
337,19	1284,08
337,40	1249,26
337,61	1290,22
337,82	1318,89
338,04	1310,70
338,25	1255,40
338,46	1251,31
338,67	1284,08
338,88	1306,60
339,09	1232,88
339,31	1269,74
339,52	1239,02
339,73	1239,02
339,94	1243,12
340,15	1226,73
340,36	1298,41
340,58	1286,12
340,79	1288,17
341,00	1273,84
341,21	1236,97
341,42	1263,60
341,63	1298,41
341,85	1292,27
342,06	1322,99
342,27	1318,89
342,48	1243,12
342,69	1265,64
342,90	1224,69
343,12	1265,64
343,33	1239,02
343,54	1284,08
343,75	1253,36
343,96	1241,07
344,17	1286,12
344,38	1286,12
344,60	1261,55
344,81	1255,40
345,02	1290,22
345,23	1302,51
345,44	1322,99
345,65	1267,69
345,86	1220,59
346,07	1183,73
346,29	1245,16
346,50	1351,66
346,71	1271,79
346,92	1261,55
347,13	1257,45
347,34	1271,79
347,55	1224,69
347,76	1343,47
347,98	1222,64
348,19	1300,46
348,40	1275,88
348,61	1308,65
348,82	1306,60
349,03	1271,79
349,24	1196,01
349,45	1224,69
349,66	1245,16
349,88	1200,11
350,09	1222,64
350,30	1292,27
350,51	1302,51
350,72	1253,36
350,93	1243,12
351,14	1253,36
351,35	1255,40
351,56	1269,74
351,77	1253,36
351,99	1257,45
352,20	1228,78
352,41	1308,65
352,62	1236,97
352,83	1245,16
353,04	1273,84
353,25	1333,23
353,46	1273,84
353,67	1265,64
353,88	1243,12
354,09	1187,82
354,30	1282,03
354,52	1232,88
354,73	1251,31
354,94	1236,97
355,15	1204,21
355,36	1216,49
355,57	1259,50
355,78	1314,80
355,99	1302,51
356,20	1257,45
356,41	1337,32
356,62	1284,08
356,83	1224,69
357,04	1247,21
357,25	1253,36
357,46	1224,69
357,68	1204,21
357,89	1267,69
358,10	1345,52
358,31	1284,08
358,52	1232,88
358,73	1236,97
358,94	1298,41
359,15	1247,21
359,36	1296,36
359,57	1232,88
359,78	1273,84
359,99	1253,36
360,20	1269,74
360,41	1314,80
360,62	1247,21
360,83	1320,94
361,04	1277,93
361,25	1277,93
361,46	1271,79
361,67	1335,28
361,88	1310,70
362,09	1300,46
362,30	1208,30
362,51	1239,02
362,72	1279,98
362,93	1239,02
363,14	1208,30
363,35	1288,17
363,56	1253,36
363,78	1196,01
363,99	1282,03
364,20	1259,50
364,41	1318,89
364,62	1234,93
364,83	1282,03
365,04	1277,93
365,25	1286,12
365,46	1232,88
365,67	1290,22
365,88	1247,21
366,09	1265,64
366,30	1300,46
366,51	1310,70
366,72	1286,12
366,93	1241,07
367,14	1239,02
367,35	1245,16
367,56	1322,99
367,77	1212,40
367,98	1253,36
368,18	1232,88
368,39	1247,21
368,60	1302,51
368,81	1308,65
369,02	1288,17
369,23	1243,12
369,44	1263,60
369,65	1243,12
369,86	1286,12
370,07	1263,60
370,28	1232,88
370,49	1320,94
370,70	1261,55
370,91	1314,80
371,12	1277,93
371,33	1263,60
371,54	1271,79
371,75	1322,99
371,96	1230,83
372,17	1318,89
372,38	1230,83
372,59	1282,03
372,80	1284,08
373,01	1208,30
373,22	1253,36
373,43	1241,07
373,64	1222,64
373,85	1214,45
374,06	1210,35
374,26	1220,59
374,47	1230,83
374,68	1253,36
374,89	1259,50
375,10	1173,49
375,31	1234,93
375,52	1226,73
375,73	1312,75
375,94	1220,59
376,15	1257,45
376,36	1343,47
376,57	1261,55
376,78	1314,80
376,99	1351,66
377,20	1243,12
377,40	1253,36
377,61	1296,36
377,82	1337,32
378,03	1200,11
378,24	1269,74
378,45	1263,60
378,66	1241,07
378,87	1253,36
379,08	1273,84
379,29	1290,22
379,50	1345,52
379,71	1200,11
379,91	1312,75
380,12	1263,60
380,33	1294,32
380,54	1284,08
380,75	1220,59
380,96	1208,30
381,17	1263,60
381,38	1224,69
381,59	1263,60
381,80	1277,93
382,00	1230,83
382,21	1245,16
382,42	1284,08
382,63	1300,46
382,84	1304,56
383,05	1253,36
383,26	1310,70
383,47	1247,21
383,68	1267,69
383,88	1296,36
384,09	1292,27
384,30	1267,69
384,51	1327,08
384,72	1255,40
384,93	1202,16
385,14	1286,12
385,35	1224,69
385,55	1257,45
385,76	1210,35
385,97	1202,16
386,18	1304,56
386,39	1138,67
386,60	1298,41
386,81	1312,75
387,02	1273,84
387,22	1269,74
387,43	1304,56
387,64	1241,07
387,85	1243,12
388,06	1294,32
388,27	1290,22
388,48	1273,84
388,68	1189,87
388,89	1245,16
389,10	1255,40
389,31	1331,18
389,52	1259,50
389,73	1224,69
389,93	1263,60
390,14	1226,73
390,35	1257,45
390,56	1212,40
390,77	1282,03
390,98	1243,12
391,18	1196,01
391,39	1327,08
391,60	1241,07
391,81	1355,76
392,02	1288,17
392,23	1341,42
392,43	1333,23
392,64	1269,74
392,85	1253,36
393,06	1337,32
393,27	1245,16
393,47	1245,16
393,68	1228,78
393,89	1273,84
394,10	1353,71
394,31	1259,50
394,52	1284,08
394,72	1322,99
394,93	1316,84
395,14	1259,50
395,35	1259,50
395,56	1282,03
395,76	1239,02
395,97	1277,93
396,18	1314,80
396,39	1282,03
396,60	1230,83
396,80	1257,45
397,01	1232,88
397,22	1257,45
397,43	1306,60
397,64	1279,98
397,84	1292,27
398,05	1284,08
398,26	1294,32
398,47	1269,74
398,67	1265,64
398,88	1292,27
399,09	1245,16
399,30	1314,80
399,51	1290,22
399,71	1290,22
399,92	1253,36
400,13	1337,32
400,34	1290,22
400,54	1284,08
400,75	1302,51
400,96	1337,32
401,17	1292,27
401,37	1232,88
401,58	1322,99
401,79	1275,88
402,00	1269,74
402,21	1282,03
402,41	1232,88
402,62	1320,94
402,83	1230,83
403,04	1306,60
403,24	1286,12
403,45	1286,12
403,66	1183,73
403,87	1273,84
404,07	1325,04
404,28	1224,69
404,49	1253,36
404,70	1325,04
404,90	1300,46
405,11	1271,79
405,32	1263,60
405,52	1327,08
405,73	1279,98
405,94	1234,93
406,15	1345,52
406,35	1275,88
406,56	1333,23
406,77	1253,36
406,98	1327,08
407,18	1267,69
407,39	1263,60
407,60	1271,79
407,80	1259,50
408,01	1210,35
408,22	1177,58
408,43	1204,21
408,63	1265,64
408,84	1236,97
409,05	1230,83
409,25	1271,79
409,46	1224,69
409,67	1271,79
409,88	1253,36
410,08	1239,02
410,29	1245,16
410,50	1269,74
410,70	1214,45
410,91	1275,88
411,12	1271,79
411,32	1277,93
411,53	1292,27
411,74	1259,50
411,95	1202,16
412,15	1275,88
412,36	1341,42
412,57	1226,73
412,77	1331,18
412,98	1198,06
413,19	1290,22
413,39	1322,99
413,60	1267,69
413,81	1269,74
414,01	1243,12
414,22	1261,55
414,43	1312,75
414,63	1245,16
414,84	1263,60
415,05	1214,45
415,25	1351,66
415,46	1275,88
415,67	1243,12
415,87	1279,98
416,08	1234,93
416,29	1247,21
416,49	1222,64
416,70	1247,21
416,91	1286,12
417,11	1288,17
417,32	1302,51
417,53	1284,08
417,73	1265,64
417,94	1275,88
418,15	1243,12
418,35	1196,01
418,56	1224,69
418,77	1259,50
418,97	1320,94
419,18	1185,77
419,38	1261,55
419,59	1284,08
419,80	1331,18
420,00	1265,64
420,21	1277,93
420,42	1339,37
420,62	1286,12
420,83	1277,93
421,04	1251,31
421,24	1247,21
421,45	1279,98
421,65	1269,74
421,86	1320,94
422,07	1308,65
422,27	1279,98
422,48	1322,99
422,69	1257,45
422,89	1226,73
423,10	1304,56
423,30	1271,79
423,51	1236,97
423,72	1226,73
423,92	1265,64
424,13	1241,07
424,33	1239,02
424,54	1249,26
424,75	1271,79
424,95	1308,65
425,16	1322,99
425,36	1232,88
425,57	1255,40
425,78	1290,22
425,98	1255,40
426,19	1212,40
426,39	1288,17
426,60	1214,45
426,81	1263,60
427,01	1253,36
427,22	1220,59
427,42	1171,44
427,63	1259,50
427,83	1267,69
428,04	1236,97
428,25	1286,12
428,45	1196,01
428,66	1308,65
428,86	1292,27
429,07	1249,26
429,28	1196,01
429,48	1327,08
429,69	1269,74
429,89	1286,12
430,10	1292,27
430,30	1196,01
430,51	1273,84
430,71	1220,59
430,92	1269,74
431,13	1277,93
431,33	1241,07
431,54	1284,08
431,74	1290,22
431,95	1310,70
432,15	1212,40
432,36	1253,36
432,56	1306,60
432,77	1210,35
432,98	1257,45
433,18	1175,53
433,39	1282,03
433,59	1243,12
433,80	1247,21
434,00	1331,18
434,21	1144,81
434,41	1212,40
434,62	1228,78
434,82	1204,21
435,03	1241,07
435,23	1183,73
435,44	1265,64
435,64	1243,12
435,85	1322,99
436,06	1265,64
436,26	1243,12
436,47	1273,84
436,67	1298,41
436,88	1290,22
437,08	1206,25
437,29	1220,59
437,49	1189,87
437,70	1243,12
437,90	1314,80
438,11	1269,74
438,31	1255,40
438,52	1263,60
438,72	1300,46
438,93	1245,16
439,13	1292,27
439,34	1294,32
439,54	1290,22
439,75	1220,59
439,95	1308,65
440,16	1241,07
440,36	1196,01
440,57	1273,84
440,77	1251,31
440,98	1277,93
441,18	1267,69
441,39	1290,22
441,59	1253,36
441,80	1249,26
442,00	1314,80
442,21	1286,12
442,41	1304,56
442,62	1263,60
442,82	1277,93
443,02	1224,69
443,23	1279,98
443,43	1277,93
443,64	1234,93
443,84	1279,98
444,05	1200,11
444,25	1159,15
444,46	1306,60
444,66	1292,27
444,87	1282,03
445,07	1261,55
445,28	1290,22
445,48	1302,51
445,69	1290,22
445,89	1251,31
446,09	1306,60
446,30	1290,22
446,50	1236,97
446,71	1220,59
446,91	1279,98
447,12	1271,79
447,32	1349,61
447,53	1312,75
447,73	1288,17
447,93	1247,21
448,14	1282,03
448,34	1251,31
448,55	1259,50
448,75	1302,51
448,96	1267,69
449,16	1296,36
449,36	1296,36
449,57	1200,11
449,77	1265,64
449,98	1312,75
450,18	1253,36
450,39	1275,88
450,59	1263,60
450,79	1288,17
451,00	1267,69
451,20	1312,75
451,41	1282,03
451,61	1296,36
451,81	1267,69
452,02	1271,79
452,22	1198,06
452,43	1322,99
452,63	1310,70
452,84	1230,83
453,04	1294,32
453,24	1275,88
453,45	1310,70
453,65	1279,98
453,86	1329,13
454,06	1292,27
454,26	1261,55
454,47	1370,09
454,67	1249,26
454,87	1325,04
455,08	1198,06
455,28	1318,89
455,49	1279,98
455,69	1239,02
455,89	1316,84
456,10	1259,50
456,30	1249,26
456,51	1286,12
456,71	1220,59
456,91	1255,40
457,12	1335,28
457,32	1269,74
457,52	1320,94
457,73	1327,08
457,93	1286,12
458,14	1222,64
458,34	1251,31
458,54	1220,59
458,75	1277,93
458,95	1294,32
459,15	1337,32
459,36	1236,97
459,56	1261,55
459,76	1300,46
459,97	1200,11
460,17	1304,56
460,37	1310,70
460,58	1333,23
460,78	1249,26
460,99	1271,79
461,19	1343,47
461,39	1335,28
461,60	1261,55
461,80	1245,16
462,00	1191,92
462,21	1224,69
462,41	1265,64
462,61	1265,64
462,82	1288,17
463,02	1306,60
463,22	1265,64
463,43	1380,33
463,63	1257,45
463,83	1290,22
464,04	1247,21
464,24	1341,42
464,44	1263,60
464,64	1255,40
464,85	1286,12
465,05	1275,88
465,25	1263,60
465,46	1243,12
465,66	1314,80
465,86	1308,65
466,07	1392,62
466,27	1196,01
466,47	1298,41
466,68	1261,55
466,88	1304,56
467,08	1263,60
467,29	1239,02
467,49	1265,64
467,69	1255,40
467,89	1261,55
468,10	1228,78
468,30	1378,28
468,50	1255,40
468,71	1300,46
468,91	1320,94
469,11	1308,65
469,31	1296,36
469,52	1249,26
469,72	1345,52
469,92	1253,36
470,13	1304,56
470,33	1265,64
470,53	1251,31
470,73	1243,12
470,94	1290,22
471,14	1308,65
471,34	1286,12
471,54	1257,45
471,75	1378,28
471,95	1234,93
472,15	1214,45
472,36	1300,46
472,56	1271,79
472,76	1236,97
472,96	1243,12
473,17	1316,84
473,37	1298,41
473,57	1335,28
473,77	1331,18
473,98	1286,12
474,18	1314,80
474,38	1243,12
474,58	1306,60
474,79	1230,83
474,99	1257,45
475,19	1300,46
475,39	1282,03
475,60	1228,78
475,80	1282,03
476,00	1232,88
476,20	1322,99
476,41	1310,70
476,61	1263,60
476,81	1167,34
477,01	1316,84
477,21	1368,04
477,42	1298,41
477,62	1288,17
477,82	1306,60
478,02	1294,32
478,23	1269,74
478,43	1222,64
478,63	1275,88
478,83	1273,84
479,03	1282,03
479,24	1292,27
479,44	1271,79
479,64	1273,84
479,84	1239,02
480,04	1292,27
480,25	1363,95
480,45	1261,55
480,65	1277,93
480,85	1282,03
481,06	1282,03
481,26	1341,42
481,46	1318,89
481,66	1236,97
481,86	1286,12
482,06	1253,36
482,27	1241,07
482,47	1187,82
482,67	1339,37
482,87	1292,27
483,07	1292,27
483,28	1247,21
483,48	1271,79
483,68	1273,84
483,88	1296,36
484,08	1320,94
484,29	1267,69
484,49	1279,98
484,69	1275,88
484,89	1290,22
485,09	1290,22
485,29	1247,21
485,50	1308,65
485,70	1224,69
485,90	1327,08
486,10	1294,32
486,30	1273,84
486,50	1275,88
486,71	1298,41
486,91	1236,97
487,11	1241,07
487,31	1273,84
487,51	1214,45
487,71	1306,60
487,91	1234,93
488,12	1277,93
488,32	1265,64
488,52	1314,80
488,72	1335,28
488,92	1236,97
489,12	1306,60
489,32	1255,40
489,53	1282,03
489,73	1239,02
489,93	1298,41
490,13	1232,88
490,33	1222,64
490,53	1253,36
490,73	1273,84
490,94	1216,49
491,14	1296,36
491,34	1271,79
491,54	1312,75
491,74	1284,08
491,94	1298,41
492,14	1251,31
492,34	1261,55
492,54	1279,98
492,75	1245,16
492,95	1298,41
493,15	1308,65
493,35	1183,73
493,55	1353,71
493,75	1159,15
493,95	1282,03
494,15	1275,88
494,35	1251,31
494,56	1259,50
494,76	1310,70
494,96	1265,64
495,16	1288,17
495,36	1310,70
495,56	1298,41
495,76	1271,79
495,96	1320,94
496,16	1234,93
496,36	1241,07
496,56	1290,22
496,77	1234,93
496,97	1265,64
497,17	1290,22
497,37	1294,32
497,57	1263,60
497,77	1275,88
497,97	1282,03
498,17	1300,46
498,37	1290,22
498,57	1300,46
498,77	1249,26
498,97	1302,51
499,17	1245,16
499,38	1200,11
499,58	1269,74
499,78	1234,93
499,98	1265,64
500,18	1282,03
500,38	1263,60
500,58	1236,97
500,78	1322,99
500,98	1282,03
501,18	1302,51
501,38	1232,88
501,58	1286,12
501,78	1325,04
501,98	1243,12
502,18	1251,31
502,38	1243,12
502,58	1212,40
502,78	1353,71
502,98	1255,40
503,18	1335,28
503,38	1316,84
503,59	1265,64
503,79	1298,41
503,99	1269,74
504,19	1331,18
504,39	1320,94
504,59	1257,45
504,79	1249,26
504,99	1212,40
505,19	1329,13
505,39	1236,97
505,59	1241,07
505,79	1290,22
505,99	1259,50
506,19	1312,75
506,39	1249,26
506,59	1261,55
506,79	1271,79
506,99	1224,69
507,19	1214,45
507,39	1284,08
507,59	1230,83
507,79	1257,45
507,99	1269,74
508,19	1286,12
508,39	1292,27
508,59	1296,36
508,79	1337,32
508,99	1271,79
509,19	1269,74
509,39	1263,60
509,59	1206,25
509,79	1310,70
509,99	1224,69
510,19	1296,36
510,39	1251,31
510,59	1267,69
510,79	1300,46
510,99	1265,64
511,19	1208,30
511,39	1241,07
511,59	1224,69
511,79	1255,40
511,99	1296,36
512,19	1236,97
512,38	1253,36
512,58	1251,31
512,78	1322,99
512,98	1286,12
513,18	1228,78
513,38	1251,31
513,58	1345,52
513,78	1200,11
513,98	1282,03
514,18	1263,60
514,38	1292,27
514,58	1251,31
514,78	1327,08
514,98	1290,22
515,18	1314,80
515,38	1255,40
515,58	1212,40
515,78	1302,51
515,98	1271,79
516,18	1255,40
516,38	1271,79
516,57	1298,41
516,77	1198,06
516,97	1282,03
517,17	1286,12
517,37	1226,73
517,57	1327,08
517,77	1232,88
517,97	1343,47
518,17	1306,60
518,37	1298,41
518,57	1257,45
518,77	1239,02
518,97	1271,79
519,16	1306,60
519,36	1228,78
519,56	1277,93
519,76	1292,27
519,96	1282,03
520,16	1325,04
520,36	1253,36
520,56	1333,23
520,76	1265,64
520,96	1294,32
521,16	1236,97
521,35	1282,03
521,55	1363,95
521,75	1204,21
521,95	1294,32
522,15	1208,30
522,35	1255,40
522,55	1325,04
522,75	1222,64
522,95	1181,68
523,14	1288,17
523,34	1249,26
523,54	1263,60
523,74	1288,17
523,94	1263,60
524,14	1232,88
524,34	1206,25
524,54	1261,55
524,73	1279,98
524,93	1271,79
525,13	1267,69
525,33	1239,02
525,53	1288,17
525,73	1241,07
525,93	1249,26
526,13	1306,60
526,32	1322,99
526,52	1222,64
526,72	1277,93
526,92	1327,08
527,12	1351,66
527,32	1193,97
527,52	1269,74
527,71	1366,00
527,91	1310,70
528,11	1269,74
528,31	1239,02
528,51	1275,88
528,71	1304,56
528,90	1239,02
529,10	1269,74
529,30	1296,36
529,50	1247,21
529,70	1351,66
529,90	1296,36
530,09	1322,99
530,29	1253,36
530,49	1222,64
530,69	1327,08
530,89	1212,40
531,09	1277,93
531,28	1282,03
531,48	1327,08
531,68	1292,27
531,88	1292,27
532,08	1304,56
532,28	1386,47
532,47	1318,89
532,67	1304,56
532,87	1343,47
533,07	1298,41
533,27	1232,88
533,46	1265,64
533,66	1296,36
533,86	1288,17
534,06	1331,18
534,26	1279,98
534,45	1224,69
534,65	1286,12
534,85	1279,98
535,05	1318,89
535,25	1273,84
535,44	1296,36
535,64	1243,12
535,84	1378,28
536,04	1290,22
536,24	1286,12
536,43	1249,26
536,63	1271,79
536,83	1251,31
537,03	1331,18
537,22	1222,64
537,42	1277,93
537,62	1206,25
537,82	1329,13
538,02	1296,36
538,21	1298,41
538,41	1312,75
538,61	1282,03
538,81	1277,93
539,00	1261,55
539,20	1282,03
539,40	1288,17
539,60	1363,95
539,79	1339,37
539,99	1206,25
540,19	1200,11
540,39	1257,45
540,58	1230,83
540,78	1290,22
540,98	1273,84
541,18	1273,84
541,37	1316,84
541,57	1259,50
541,77	1302,51
541,97	1322,99
542,16	1320,94
542,36	1279,98
542,56	1292,27
542,76	1282,03
542,95	1306,60
543,15	1257,45
543,35	1277,93
543,54	1304,56
543,74	1322,99
543,94	1189,87
544,14	1282,03
544,33	1239,02
544,53	1243,12
544,73	1339,37
544,93	1294,32
545,12	1230,83
545,32	1329,13
545,52	1261,55
545,71	1271,79
545,91	1239,02
546,11	1259,50
546,30	1210,35
546,50	1247,21
546,70	1310,70
546,90	1298,41
547,09	1220,59
547,29	1298,41
547,49	1259,50
547,68	1255,40
547,88	1302,51
548,08	1206,25
548,27	1359,85
548,47	1351,66
548,67	1241,07
548,87	1349,61
549,06	1333,23
549,26	1294,32
549,46	1310,70
549,65	1292,27
549,85	1355,76
550,05	1306,60
550,24	1347,56
550,44	1363,95
550,64	1286,12
550,83	1269,74
551,03	1243,12
551,23	1314,80
551,42	1241,07
551,62	1290,22
551,82	1277,93
552,01	1257,45
552,21	1273,84
552,41	1286,12
552,60	1267,69
552,80	1257,45
553,00	1357,80
553,19	1263,60
553,39	1273,84
553,59	1234,93
553,78	1253,36
553,98	1286,12
554,17	1249,26
554,37	1298,41
554,57	1218,54
554,76	1306,60
554,96	1243,12
555,16	1269,74
555,35	1247,21
555,55	1249,26
555,75	1329,13
555,94	1279,98
556,14	1312,75
556,33	1265,64
556,53	1282,03
556,73	1267,69
556,92	1269,74
557,12	1263,60
557,32	1277,93
557,51	1368,04
557,71	1204,21
557,90	1310,70
558,10	1304,56
558,30	1275,88
558,49	1290,22
558,69	1257,45
558,88	1234,93
559,08	1232,88
559,28	1333,23
559,47	1325,04
559,67	1290,22
559,86	1302,51
560,06	1236,97
560,26	1286,12
560,45	1304,56
560,65	1335,28
560,84	1263,60
561,04	1216,49
561,24	1234,93
561,43	1220,59
561,63	1263,60
561,82	1263,60
562,02	1306,60
562,22	1273,84
562,41	1277,93
562,61	1232,88
562,80	1273,84
563,00	1343,47
563,19	1265,64
563,39	1255,40
563,59	1144,81
563,78	1296,36
563,98	1273,84
564,17	1253,36
564,37	1312,75
564,56	1390,57
564,76	1222,64
564,96	1224,69
565,15	1220,59
565,35	1327,08
565,54	1288,17
565,74	1331,18
565,93	1279,98
566,13	1257,45
566,32	1286,12
566,52	1302,51
566,71	1310,70
566,91	1339,37
567,11	1275,88
567,30	1318,89
567,50	1230,83
567,69	1232,88
567,89	1265,64
568,08	1286,12
568,28	1312,75
568,47	1288,17
568,67	1277,93
568,86	1374,19
569,06	1249,26
569,25	1273,84
569,45	1284,08
569,64	1310,70
569,84	1282,03
570,04	1267,69
570,23	1234,93
570,43	1310,70
570,62	1243,12
570,82	1306,60
571,01	1286,12
571,21	1249,26
571,40	1331,18
571,60	1333,23
571,79	1212,40
571,99	1271,79
572,18	1261,55
572,38	1296,36
572,57	1243,12
572,77	1312,75
572,96	1312,75
573,16	1263,60
573,35	1273,84
573,55	1261,55
573,74	1322,99
573,94	1298,41
574,13	1279,98
574,33	1202,16
574,52	1320,94
574,71	1363,95
574,91	1294,32
575,10	1292,27
575,30	1245,16
575,49	1265,64
575,69	1345,52
575,88	1249,26
576,08	1288,17
576,27	1265,64
576,47	1261,55
576,66	1331,18
576,86	1222,64
577,05	1351,66
577,25	1335,28
577,44	1300,46
577,64	1277,93
577,83	1265,64
578,02	1198,06
578,22	1288,17
578,41	1208,30
578,61	1273,84
578,80	1247,21
579,00	1236,97
579,19	1216,49
579,39	1306,60
579,58	1259,50
579,77	1265,64
579,97	1286,12
580,16	1247,21
580,36	1269,74
580,55	1320,94
580,75	1265,64
580,94	1259,50
581,13	1314,80
581,33	1282,03
581,52	1259,50
581,72	1327,08
581,91	1314,80
582,11	1198,06
582,30	1247,21
582,49	1269,74
582,69	1304,56
582,88	1265,64
583,08	1320,94
583,27	1290,22
583,47	1206,25
583,66	1282,03
583,85	1236,97
584,05	1216,49
584,24	1298,41
584,44	1271,79
584,63	1228,78
584,82	1257,45
585,02	1255,40
585,21	1210,35
585,41	1310,70
585,60	1284,08
585,79	1247,21
585,99	1245,16
586,18	1288,17
586,37	1351,66
586,57	1310,70
586,76	1304,56
586,96	1265,64
587,15	1263,60
587,34	1292,27
587,54	1282,03
587,73	1253,36
587,93	1263,60
588,12	1247,21
588,31	1329,13
588,51	1259,50
588,70	1345,52
588,89	1259,50
589,09	1265,64
589,28	1318,89
589,47	1275,88
589,67	1294,32
589,86	1245,16
590,06	1284,08
590,25	1273,84
590,44	1265,64
590,64	1304,56
590,83	1300,46
591,02	1284,08
591,22	1265,64
591,41	1298,41
591,60	1259,50
591,80	1269,74
591,99	1372,14
592,18	1325,04
592,38	1263,60
592,57	1290,22
592,76	1290,22
592,96	1253,36
593,15	1275,88
593,34	1286,12
593,54	1216,49
593,73	1304,56
593,92	1314,80
594,12	1288,17
594,31	1329,13
594,50	1298,41
594,70	1214,45
594,89	1253,36
595,08	1343,47
595,28	1245,16
595,47	1331,18
595,66	1339,37
595,86	1308,65
596,05	1353,71
596,24	1269,74
596,43	1294,32
596,63	1261,55
596,82	1257,45
597,01	1241,07
597,21	1312,75
597,40	1292,27
597,59	1298,41
597,79	1232,88
597,98	1249,26
598,17	1327,08
598,36	1263,60
598,56	1236,97
598,75	1257,45
598,94	1320,94
599,14	1239,02
599,33	1300,46
599,52	1294,32
599,71	1245,16
599,91	1298,41
600,10	1300,46
600,29	1273,84
600,48	1263,60
600,68	1349,61
600,87	1277,93
601,06	1265,64
601,26	1261,55
601,45	1304,56
601,64	1267,69
601,83	1202,16
602,03	1320,94
602,22	1261,55
602,41	1339,37
602,60	1300,46
602,80	1275,88
602,99	1304,56
603,18	1245,16
603,37	1320,94
603,57	1269,74
603,76	1222,64
603,95	1253,36
604,14	1263,60
604,34	1327,08
604,53	1245,16
604,72	1265,64
604,91	1282,03
605,10	1249,26
605,30	1239,02
605,49	1271,79
605,68	1279,98
605,87	1290,22
606,07	1284,08
606,26	1349,61
606,45	1282,03
606,64	1261,55
606,84	1239,02
607,03	1216,49
607,22	1337,32
607,41	1296,36
607,60	1296,36
607,80	1322,99
607,99	1241,07
608,18	1316,84
608,37	1368,04
608,56	1255,40
608,76	1310,70
608,95	1249,26
609,14	1345,52
609,33	1314,80
609,52	1243,12
609,72	1339,37
609,91	1275,88
610,10	1298,41
610,29	1265,64
610,48	1282,03
610,68	1363,95
610,87	1214,45
611,06	1296,36
611,25	1333,23
611,44	1290,22
611,63	1302,51
611,83	1329,13
612,02	1267,69
612,21	1329,13
612,40	1245,16
612,59	1277,93
612,79	1249,26
612,98	1239,02
613,17	1296,36
613,36	1273,84
613,55	1298,41
613,74	1249,26
613,93	1275,88
614,13	1267,69
614,32	1294,32
614,51	1290,22
614,70	1339,37
614,89	1232,88
615,08	1341,42
615,28	1286,12
615,47	1241,07
615,66	1282,03
615,85	1286,12
616,04	1318,89
616,23	1267,69
616,42	1257,45
616,62	1273,84
616,81	1300,46
617,00	1228,78
617,19	1349,61
617,38	1273,84
617,57	1298,41
617,76	1271,79
617,95	1271,79
618,15	1284,08
618,34	1263,60
618,53	1277,93
618,72	1271,79
618,91	1265,64
619,10	1314,80
619,29	1316,84
619,48	1310,70
619,68	1310,70
619,87	1298,41
620,06	1220,59
620,25	1253,36
620,44	1290,22
620,63	1275,88
620,82	1368,04
621,01	1232,88
621,20	1327,08
621,39	1234,93
621,59	1298,41
621,78	1296,36
621,97	1245,16
622,16	1306,60
622,35	1304,56
622,54	1269,74
622,73	1271,79
622,92	1288,17
623,11	1228,78
623,30	1255,40
623,49	1282,03
623,68	1298,41
623,88	1279,98
624,07	1257,45
624,26	1286,12
624,45	1292,27
624,64	1298,41
624,83	1271,79
625,02	1249,26
625,21	1288,17
625,40	1294,32
625,59	1331,18
625,78	1300,46
625,97	1294,32
626,16	1347,56
626,35	1257,45
626,54	1253,36
626,74	1296,36
626,93	1306,60
627,12	1247,21
627,31	1359,85
627,50	1325,04
627,69	1243,12
627,88	1204,21
628,07	1345,52
628,26	1292,27
628,45	1273,84
628,64	1271,79
628,83	1320,94
629,02	1308,65
629,21	1286,12
629,40	1286,12
629,59	1312,75
629,78	1265,64
629,97	1253,36
630,16	1292,27
630,35	1259,50
630,54	1298,41
630,73	1296,36
630,92	1300,46
631,11	1357,80
631,30	1286,12
631,49	1359,85
631,68	1357,80
631,87	1667,05
632,06	2467,80
632,25	2230,24
632,44	2516,95
632,63	2908,12
632,82	3672,01
633,01	5935,01
633,20	12552,00
633,39	19392,22
633,58	20823,75
633,77	18249,45
633,96	13752,11
634,15	9129,84
634,34	5967,78
634,53	3749,83
634,72	2789,33
634,91	2303,96
635,10	2133,98
635,29	2133,98
635,48	2050,02
635,67	1982,43
635,86	1828,84
636,05	1771,49
636,24	1732,58
636,43	1613,80
636,62	1681,38
636,81	1566,70
637,00	1585,13
637,19	1439,72
637,38	1513,45
637,57	1462,25
637,76	1398,76
637,95	1347,56
638,14	1327,08
638,33	1327,08
638,52	1353,71
638,71	1343,47
638,89	1298,41
639,08	1304,56
639,27	1325,04
639,46	1198,06
639,65	1314,80
639,84	1273,84
640,03	1304,56
640,22	1218,54
640,41	1294,32
640,60	1316,84
640,79	1304,56
640,98	1253,36
641,17	1300,46
641,36	1279,98
641,55	1222,64
641,74	1318,89
641,92	1269,74
642,11	1312,75
642,30	1306,60
642,49	1243,12
642,68	1292,27
642,87	1286,12
643,06	1269,74
643,25	1290,22
643,44	1310,70
643,63	1222,64
643,82	1312,75
644,00	1261,55
644,19	1273,84
644,38	1277,93
644,57	1298,41
644,76	1277,93
644,95	1335,28
645,14	1277,93
645,33	1232,88
645,52	1239,02
645,71	1214,45
645,89	1230,83
646,08	1273,84
646,27	1308,65
646,46	1247,21
646,65	1255,40
646,84	1193,97
647,03	1294,32
647,22	1279,98
647,40	1302,51
647,59	1322,99
647,78	1294,32
647,97	1306,60
648,16	1290,22
648,35	1265,64
648,54	1320,94
648,73	1304,56
648,91	1333,23
649,10	1271,79
649,29	1189,87
649,48	1232,88
649,67	1261,55
649,86	1314,80
650,05	1320,94
650,23	1304,56
650,42	1282,03
650,61	1232,88
650,80	1277,93
650,99	1257,45
651,18	1308,65
651,36	1228,78
651,55	1273,84
651,74	1265,64
651,93	1294,32
652,12	1234,93
652,31	1234,93
652,49	1241,07
652,68	1282,03
652,87	1185,77
653,06	1267,69
653,25	1257,45
653,44	1216,49
653,62	1322,99
653,81	1249,26
654,00	1312,75
654,19	1257,45
654,38	1263,60
654,56	1228,78
654,75	1312,75
654,94	1232,88
655,13	1265,64
655,32	1273,84
655,51	1284,08
655,69	1312,75
655,88	1216,49
656,07	1212,40
656,26	1277,93
656,45	1320,94
656,63	1267,69
656,82	1241,07
657,01	1269,74
657,20	1226,73
657,38	1204,21
657,57	1206,25
657,76	1298,41
657,95	1273,84
658,14	1294,32
658,32	1310,70
658,51	1294,32
658,70	1257,45
658,89	1249,26
659,08	1288,17
659,26	1228,78
659,45	1282,03
659,64	1306,60
659,83	1312,75
660,01	1304,56
660,20	1339,37
660,39	1279,98
660,58	1284,08
660,76	1304,56
660,95	1273,84
661,14	1271,79
661,33	1189,87
661,51	1232,88
661,70	1290,22
661,89	1255,40
662,08	1241,07
662,26	1255,40
662,45	1257,45
662,64	1322,99
662,83	1329,13
663,01	1261,55
663,20	1343,47
663,39	1331,18
663,58	1243,12
663,76	1318,89
663,95	1259,50
664,14	1245,16
664,32	1236,97
664,51	1325,04
664,70	1275,88
664,89	1284,08
665,07	1290,22
665,26	1251,31
665,45	1271,79
665,64	1325,04
665,82	1269,74
666,01	1263,60
666,20	1282,03
666,38	1214,45
666,57	1261,55
666,76	1347,56
666,95	1298,41
667,13	1230,83
667,32	1286,12
667,51	1304,56
667,69	1230,83
667,88	1204,21
668,07	1218,54
668,25	1277,93
668,44	1314,80
668,63	1216,49
668,81	1282,03
669,00	1300,46
669,19	1255,40
669,38	1265,64
669,56	1290,22
669,75	1261,55
669,94	1359,85
670,12	1296,36
670,31	1245,16
670,50	1236,97
670,68	1177,58
670,87	1294,32
671,06	1269,74
671,24	1265,64
671,43	1251,31
671,62	1259,50
671,80	1279,98
671,99	1241,07
672,18	1298,41
672,36	1325,04
672,55	1322,99
672,74	1226,73
672,92	1257,45
673,11	1222,64
673,29	1239,02
673,48	1277,93
673,67	1255,40
673,85	1263,60
674,04	1306,60
674,23	1226,73
674,41	1228,78
674,60	1265,64
674,79	1261,55
674,97	1286,12
675,16	1255,40
675,34	1251,31
675,53	1267,69
675,72	1226,73
675,90	1331,18
676,09	1290,22
676,28	1257,45
676,46	1239,02
676,65	1251,31
676,83	1269,74
677,02	1265,64
677,21	1263,60
677,39	1267,69
677,58	1249,26
677,77	1228,78
677,95	1263,60
678,14	1263,60
678,32	1226,73
678,51	1236,97
678,70	1277,93
678,88	1265,64
679,07	1249,26
679,25	1253,36
679,44	1277,93
679,63	1286,12
679,81	1316,84
680,00	1314,80
680,18	1277,93
680,37	1243,12
680,55	1277,93
680,74	1230,83
680,93	1296,36
681,11	1198,06
681,30	1224,69
681,48	1288,17
681,67	1245,16
681,85	1302,51
682,04	1249,26
682,23	1218,54
682,41	1208,30
682,60	1263,60
682,78	1312,75
682,97	1239,02
683,15	1282,03
683,34	1306,60
683,53	1288,17
683,71	1216,49
683,90	1325,04
684,08	1318,89
684,27	1320,94
684,45	1296,36
684,64	1331,18
684,82	1308,65
685,01	1333,23
685,19	1251,31
685,38	1263,60
685,57	1294,32
685,75	1316,84
685,94	1214,45
686,12	1304,56
686,31	1269,74
686,49	1216,49
686,68	1253,36
686,86	1239,02
687,05	1302,51
687,23	1335,28
687,42	1318,89
687,60	1265,64
687,79	1298,41
687,97	1224,69
688,16	1212,40
688,34	1216,49
688,53	1308,65
688,71	1234,93
688,90	1318,89
689,08	1257,45
689,27	1241,07
689,45	1296,36
689,64	1304,56
689,82	1279,98
690,01	1284,08
690,19	1259,50
690,38	1271,79
690,56	1306,60
690,75	1230,83
690,93	1236,97
691,12	1290,22
691,30	1232,88
691,49	1208,30
691,67	1300,46
691,86	1312,75
692,04	1232,88
692,23	1279,98
692,41	1222,64
692,60	1228,78
692,78	1269,74
692,97	1226,73
693,15	1292,27
693,34	1196,01
693,52	1318,89
693,71	1286,12
693,89	1327,08
694,08	1318,89
694,26	1284,08
694,44	1282,03
694,63	1296,36
694,81	1277,93
695,00	1310,70
695,18	1257,45
695,37	1241,07
695,55	1236,97
695,74	1236,97
695,92	1267,69
696,10	1329,13
696,29	1198,06
696,47	1363,95
696,66	1279,98
696,84	1214,45
697,03	1322,99
697,21	1304,56
697,40	1306,60
697,58	1228,78
697,76	1279,98
697,95	1226,73
698,13	1298,41
698,32	1224,69
698,50	1331,18
698,68	1284,08
698,87	1249,26
699,05	1265,64
699,24	1298,41
699,42	1187,82
699,61	1239,02
699,79	1304,56
699,97	1263,60
700,16	1228,78
700,34	1187,82
700,53	1308,65
700,71	1296,36
700,89	1298,41
701,08	1269,74
701,26	1284,08
701,45	1318,89
701,63	1343,47
701,81	1363,95
702,00	1296,36
702,18	1269,74
702,37	1284,08
702,55	1275,88
702,73	1239,02
702,92	1212,40
703,10	1384,43
703,28	1255,40
703,47	1249,26
703,65	1316,84
703,84	1318,89
704,02	1273,84
704,20	1316,84
704,39	1314,80
704,57	1259,50
704,75	1263,60
704,94	1286,12
705,12	1284,08
705,30	1224,69
705,49	1253,36
705,67	1200,11
705,86	1224,69
706,04	1329,13
706,22	1335,28
706,41	1210,35
706,59	1302,51
706,77	1253,36
706,96	1314,80
707,14	1253,36
707,32	1200,11
707,51	1232,88
707,69	1282,03
707,87	1218,54
708,06	1239,02
708,24	1173,49
708,42	1263,60
708,61	1249,26
708,79	1155,05
708,97	1306,60
709,16	1263,60
709,34	1243,12
709,52	1269,74
709,71	1247,21
709,89	1232,88
710,07	1232,88
710,26	1298,41
710,44	1288,17
710,62	1304,56
710,80	1253,36
710,99	1261,55
711,17	1226,73
711,35	1275,88
711,54	1316,84
711,72	1304,56
711,90	1296,36
712,09	1279,98
712,27	1241,07
712,45	1257,45
712,63	1302,51
712,82	1292,27
713,00	1286,12
713,18	1249,26
713,37	1329,13
713,55	1320,94
713,73	1222,64
713,91	1357,80
714,10	1296,36
714,28	1286,12
714,46	1290,22
714,65	1304,56
714,83	1325,04
715,01	1273,84
715,19	1329,13
715,38	1263,60
715,56	1200,11
715,74	1245,16
715,92	1206,25
716,11	1282,03
716,29	1275,88
716,47	1292,27
716,65	1249,26
716,84	1218,54
717,02	1306,60
717,20	1220,59
717,38	1226,73
717,57	1306,60
717,75	1255,40
717,93	1247,21
718,11	1259,50
718,30	1245,16
718,48	1241,07
718,66	1267,69
718,84	1257,45
719,03	1208,30
719,21	1325,04
719,39	1300,46
719,57	1337,32
719,75	1255,40
719,94	1304,56
720,12	1275,88
720,30	1314,80
720,48	1349,61
720,67	1292,27
720,85	1200,11
721,03	1290,22
721,21	1228,78
721,39	1298,41
721,58	1226,73
721,76	1290,22
721,94	1310,70
722,12	1257,45
722,30	1232,88
722,49	1241,07
722,67	1191,92
722,85	1355,76
723,03	1337,32
723,21	1218,54
723,40	1224,69
723,58	1245,16
723,76	1288,17
723,94	1261,55
724,12	1271,79
724,30	1372,14
724,49	1271,79
724,67	1263,60
724,85	1265,64
725,03	1259,50
725,21	1269,74
725,40	1257,45
725,58	1308,65
725,76	1263,60
725,94	1259,50
726,12	1236,97
726,30	1247,21
726,49	1257,45
726,67	1296,36
726,85	1232,88
727,03	1273,84
727,21	1286,12
727,39	1222,64
727,57	1335,28
727,76	1271,79
727,94	1363,95
728,12	1269,74
728,30	1290,22
728,48	1286,12
728,66	1226,73
728,84	1329,13
729,03	1269,74
729,21	1150,96
729,39	1339,37
729,57	1245,16
729,75	1300,46
729,93	1224,69
730,11	1265,64
730,30	1241,07
730,48	1269,74
730,66	1275,88
730,84	1275,88
731,02	1294,32
731,20	1212,40
731,38	1214,45
731,56	1236,97
731,74	1183,73
731,93	1249,26
732,11	1259,50
732,29	1327,08
732,47	1245,16
732,65	1294,32
732,83	1220,59
733,01	1288,17
733,19	1273,84
733,37	1267,69
733,56	1234,93
733,74	1322,99
733,92	1277,93
734,10	1267,69
734,28	1234,93
734,46	1269,74
734,64	1230,83
734,82	1345,52
735,00	1292,27
735,18	1247,21
735,36	1232,88
735,54	1277,93
735,73	1275,88
735,91	1273,84
736,09	1265,64
736,27	1349,61
736,45	1198,06
736,63	1206,25
736,81	1304,56
736,99	1226,73
737,17	1322,99
737,35	1224,69
737,53	1241,07
737,71	1296,36
737,89	1249,26
738,07	1261,55
738,25	1169,39
738,43	1269,74
738,61	1263,60
738,80	1265,64
738,98	1191,92
739,16	1282,03
739,34	1224,69
739,52	1322,99
739,70	1243,12
739,88	1275,88
740,06	1263,60
740,24	1277,93
740,42	1306,60
740,60	1200,11
740,78	1265,64
740,96	1191,92
741,14	1269,74
741,32	1208,30
741,50	1316,84
741,68	1329,13
741,86	1347,56
742,04	1331,18
742,22	1236,97
742,40	1275,88
742,58	1282,03
742,76	1263,60
742,94	1245,16
743,12	1290,22
743,30	1298,41
743,48	1232,88
743,66	1302,51
743,84	1249,26
744,02	1286,12
744,20	1322,99
744,38	1298,41
744,56	1284,08
744,74	1267,69
744,92	1243,12
745,10	1249,26
745,28	1298,41
745,46	1220,59
745,64	1239,02
745,82	1224,69
746,00	1257,45
746,18	1273,84
746,36	1249,26
746,54	1255,40
746,72	1275,88
746,90	1245,16
747,08	1255,40
747,26	1253,36
747,44	1292,27
747,62	1241,07
747,80	1290,22
747,98	1271,79
748,15	1241,07
748,33	1247,21
748,51	1267,69
748,69	1261,55
748,87	1282,03
749,05	1279,98
749,23	1314,80
749,41	1298,41
749,59	1239,02
749,77	1243,12
749,95	1322,99
750,13	1175,53
750,31	1265,64
750,49	1279,98
750,67	1259,50
750,85	1226,73
751,03	1236,97
751,20	1247,21
751,38	1247,21
751,56	1241,07
751,74	1306,60
751,92	1241,07
752,10	1255,40
752,28	1273,84
752,46	1316,84
752,64	1306,60
752,82	1292,27
753,00	1277,93
753,18	1308,65
753,35	1298,41
753,53	1282,03
753,71	1316,84
753,89	1277,93
754,07	1298,41
754,25	1265,64
754,43	1284,08
754,61	1236,97
754,79	1230,83
754,97	1222,64
755,14	1224,69
755,32	1402,86
755,50	1279,98
755,68	1300,46
755,86	1257,45
756,04	1253,36
756,22	1269,74
756,40	1200,11
756,57	1310,70
756,75	1245,16
756,93	1251,31
757,11	1318,89
757,29	1269,74
757,47	1292,27
757,65	1191,92
757,82	1222,64
758,00	1257,45
758,18	1216,49
758,36	1232,88
758,54	1265,64
758,72	1279,98
758,90	1259,50
759,07	1255,40
759,25	1222,64
759,43	1187,82
759,61	1259,50
759,79	1312,75
759,97	1230,83
760,15	1263,60
760,32	1243,12
760,50	1255,40
760,68	1234,93
760,86	1275,88
761,04	1257,45
761,22	1173,49
761,39	1322,99
761,57	1318,89
761,75	1230,83
761,93	1277,93
762,11	1257,45
762,28	1277,93
762,46	1282,03
762,64	1273,84
762,82	1253,36
763,00	1277,93
763,18	1290,22
763,35	1271,79
763,53	1353,71
763,71	1300,46
763,89	1247,21
764,07	1290,22
764,24	1292,27
764,42	1271,79
764,60	1241,07
764,78	1347,56
764,96	1265,64
765,13	1320,94
765,31	1288,17
765,49	1263,60
765,67	1263,60
765,84	1251,31
766,02	1245,16
766,20	1255,40
766,38	1232,88
766,56	1210,35
766,73	1247,21
766,91	1228,78
767,09	1257,45
767,27	1355,76
767,44	1251,31
767,62	1220,59
767,80	1322,99
767,98	1255,40
768,15	1345,52
768,33	1239,02
768,51	1284,08
768,69	1322,99
768,87	1257,45
769,04	1267,69
769,22	1298,41
769,40	1273,84
769,58	1241,07
769,75	1290,22
769,93	1234,93
770,11	1255,40
770,28	1165,29
770,46	1212,40
770,64	1316,84
770,82	1282,03
770,99	1288,17
771,17	1234,93
771,35	1261,55
771,53	1282,03
771,70	1296,36
771,88	1245,16
772,06	1181,68
772,23	1331,18
772,41	1271,79
772,59	1265,64
772,77	1191,92
772,94	1347,56
773,12	1277,93
773,30	1216,49
773,47	1282,03
773,65	1300,46
773,83	1284,08
774,01	1230,83
774,18	1245,16
774,36	1216,49
774,54	1251,31
774,71	1224,69
774,89	1292,27
775,07	1226,73
775,24	1259,50
775,42	1261,55
775,60	1243,12
775,78	1249,26
775,95	1222,64
776,13	1273,84
776,31	1245,16
776,48	1263,60
776,66	1282,03
776,84	1279,98
777,01	1263,60
777,19	1265,64
777,37	1306,60
777,54	1279,98
777,72	1273,84
777,90	1275,88
778,07	1282,03
778,25	1271,79
778,43	1251,31
778,60	1290,22
778,78	1310,70
778,96	1249,26
779,13	1277,93
779,31	1290,22
779,49	1214,45
779,66	1277,93
779,84	1257,45
780,01	1181,68
780,19	1232,88
780,37	1298,41
780,54	1306,60
780,72	1302,51
780,90	1257,45
781,07	1230,83
781,25	1222,64
781,43	1232,88
781,60	1234,93
781,78	1271,79
781,95	1310,70
782,13	1251,31
782,31	1337,32
782,48	1249,26
782,66	1294,32
782,83	1255,40
783,01	1259,50
783,19	1220,59
783,36	1267,69
783,54	1261,55
783,72	1198,06
783,89	1265,64
784,07	1263,60
784,24	1251,31
784,42	1277,93
784,60	1261,55
784,77	1243,12
784,95	1310,70
785,12	1271,79
785,30	1253,36
785,47	1288,17
785,65	1310,70
785,83	1241,07
786,00	1251,31
786,18	1265,64
786,35	1247,21
786,53	1265,64
786,71	1273,84
786,88	1265,64
787,06	1247,21
787,23	1286,12
787,41	1255,40
787,58	1202,16
787,76	1271,79
787,94	1243,12
788,11	1298,41
788,29	1261,55
788,46	1304,56
788,64	1298,41
788,81	1300,46
788,99	1275,88
789,16	1269,74
789,34	1259,50
789,52	1269,74
789,69	1320,94
789,87	1232,88
790,04	1243,12
790,22	1263,60
790,39	1193,97
790,57	1236,97
790,74	1277,93
790,92	1267,69
791,09	1247,21
791,27	1191,92
791,44	1253,36
791,62	1282,03
791,79	1253,36
791,97	1249,26
792,15	1296,36
792,32	1204,21
792,50	1314,80
792,67	1279,98
792,85	1290,22
793,02	1347,56
793,20	1288,17
793,37	1265,64
793,55	1273,84
793,72	1202,16
793,90	1263,60
794,07	1349,61
794,25	1296,36
794,42	1220,59
794,60	1318,89
794,77	1214,45
794,95	1234,93
795,12	1273,84
795,30	1298,41
795,47	1282,03
795,65	1202,16
795,82	1234,93
796,00	1249,26
796,17	1234,93
796,34	1255,40
796,52	1212,40
796,69	1224,69
796,87	1187,82
797,04	1263,60
797,22	1222,64
797,39	1279,98
797,57	1300,46
797,74	1191,92
797,92	1261,55
798,09	1294,32
798,27	1257,45
798,44	1269,74
798,62	1232,88
798,79	1318,89
798,96	1245,16
799,14	1363,95
799,31	1257,45
799,49	1259,50
799,66	1261,55
799,84	1243,12
800,01	1325,04
800,19	1294,32
800,36	1296,36
800,53	1255,40
800,71	1320,94
800,88	1212,40
801,06	1337,32
801,23	1320,94
801,41	1234,93
801,58	1312,75
801,75	1222,64
801,93	1259,50
802,10	1253,36
802,28	1298,41
802,45	1232,88
802,63	1314,80
802,80	1277,93
802,97	1320,94
803,15	1198,06
803,32	1206,25
803,50	1296,36
803,67	1243,12
803,84	1249,26
804,02	1200,11
804,19	1226,73
804,37	1212,40
804,54	1222,64
804,71	1249,26
804,89	1214,45
805,06	1314,80
805,24	1290,22
805,41	1189,87
805,58	1282,03
805,76	1251,31
805,93	1265,64
806,10	1304,56
806,28	1255,40
806,45	1304,56
806,63	1228,78
806,80	1198,06
806,97	1175,53
807,15	1312,75
807,32	1294,32
807,49	1161,20
807,67	1316,84
807,84	1288,17
808,01	1251,31
808,19	1247,21
808,36	1296,36
808,54	1314,80
808,71	1224,69
808,88	1257,45
809,06	1249,26
809,23	1308,65
809,40	1267,69
809,58	1257,45
809,75	1255,40
809,92	1224,69
810,10	1318,89
810,27	1314,80
810,44	1175,53
810,62	1216,49
810,79	1222,64
810,96	1257,45
811,14	1277,93
811,31	1300,46
811,48	1271,79
811,66	1222,64
811,83	1294,32
812,00	1251,31
812,18	1282,03
812,35	1253,36
812,52	1206,25
812,69	1337,32
812,87	1228,78
813,04	1232,88
813,21	1300,46
813,39	1329,13
813,56	1304,56
813,73	1290,22
813,91	1218,54
814,08	1232,88
814,25	1189,87
814,42	1251,31
814,60	1181,68
814,77	1263,60
814,94	1265,64
815,12	1265,64
815,29	1222,64
815,46	1243,12
815,63	1247,21
815,81	1271,79
815,98	1232,88
816,15	1222,64
816,33	1255,40
816,50	1286,12
816,67	1243,12
816,84	1267,69
817,02	1335,28
817,19	1269,74
817,36	1249,26
817,53	1331,18
817,71	1247,21
817,88	1247,21
818,05	1277,93
818,22	1363,95
818,40	1261,55
818,57	1247,21
818,74	1208,30
818,91	1275,88
819,09	1224,69
819,26	1212,40
819,43	1271,79
819,60	1226,73
819,78	1265,64
819,95	1300,46
820,12	1251,31
820,29	1265,64
820,47	1271,79
820,64	1220,59
820,81	1226,73
820,98	1232,88
821,15	1230,83
821,33	1263,60
821,50	1306,60
821,67	1234,93
821,84	1204,21
822,02	1327,08
822,19	1226,73
822,36	1243,12
822,53	1259,50
822,70	1232,88
822,88	1220,59
823,05	1300,46
823,22	1277,93
823,39	1277,93
823,56	1288,17
823,74	1341,42
823,91	1230,83
824,08	1378,28
824,25	1239,02
824,42	1318,89
824,60	1282,03
824,77	1318,89
824,94	1327,08
825,11	1183,73
825,28	1216,49
825,45	1312,75
825,63	1320,94
825,80	1220,59
825,97	1263,60
826,14	1322,99
826,31	1234,93
826,48	1249,26
826,66	1220,59
826,83	1189,87
827,00	1230,83
827,17	1259,50
827,34	1302,51
827,51	1230,83
827,69	1347,56
827,86	1294,32
828,03	1267,69
828,20	1210,35
828,37	1245,16
828,54	1247,21
828,71	1222,64
828,89	1292,27
829,06	1224,69
829,23	1277,93
829,40	1230,83
829,57	1222,64
829,74	1189,87
829,91	1306,60
830,09	1224,69
830,26	1304,56
830,43	1312,75
830,60	1236,97
830,77	1288,17
830,94	1265,64
831,11	1296,36
831,28	1216,49
831,46	1302,51
831,63	1224,69
831,80	1302,51
831,97	1279,98
832,14	1269,74
832,31	1255,40
832,48	1253,36
832,65	1310,70
832,82	1206,25
832,99	1222,64
833,17	1290,22
833,34	1273,84
833,51	1218,54
833,68	1239,02
833,85	1241,07
834,02	1253,36
834,19	1214,45
834,36	1298,41
834,53	1304,56
834,70	1259,50
834,87	1251,31
835,04	1329,13
835,22	1294,32
835,39	1259,50
835,56	1243,12
835,73	1282,03
835,90	1181,68
836,07	1236,97
836,24	1279,98
836,41	1261,55
836,58	1267,69
836,75	1286,12
836,92	1234,93
837,09	1298,41
837,26	1181,68
837,43	1347,56
837,60	1257,45
837,77	1267,69
837,94	1288,17
838,12	1259,50
838,29	1257,45
838,46	1357,80
838,63	1245,16
838,80	1181,68
838,97	1239,02
839,14	1259,50
839,31	1214,45
839,48	1241,07
839,65	1267,69
839,82	1249,26
839,99	1204,21
840,16	1232,88
840,33	1255,40
840,50	1236,97
840,67	1331,18
840,84	1279,98
841,01	1275,88
841,18	1292,27
841,35	1267,69
841,52	1255,40
841,69	1214,45
841,86	1191,92
842,03	1292,27
842,20	1257,45
842,37	1263,60
842,54	1175,53
842,71	1304,56
842,88	1239,02
843,05	1251,31
843,22	1204,21
843,39	1253,36
843,56	1263,60
843,73	1234,93
843,90	1298,41
844,07	1148,91
844,24	1210,35
844,41	1290,22
844,58	1296,36
844,75	1245,16
844,92	1286,12
845,09	1267,69
845,26	1290,22
845,43	1234,93
845,60	1232,88
845,77	1251,31
845,94	1204,21
846,10	1230,83
846,27	1261,55
846,44	1300,46
846,61	1204,21
846,78	1341,42
846,95	1261,55
847,12	1247,21
847,29	1232,88
847,46	1269,74
847,63	1214,45
847,80	1224,69
847,97	1265,64
848,14	1308,65
848,31	1216,49
848,48	1220,59
848,65	1263,60
848,82	1277,93
848,98	1269,74
849,15	1284,08
849,32	1228,78
849,49	1224,69
849,66	1306,60
849,83	1218,54
850,00	1298,41
850,17	1255,40
850,34	1282,03
850,51	1210,35
850,68	1304,56
850,85	1191,92
851,01	1189,87
851,18	1222,64
851,35	1286,12
851,52	1302,51
851,69	1243,12
851,86	1216,49
852,03	1275,88
852,20	1269,74
852,37	1282,03
852,53	1265,64
852,70	1282,03
852,87	1202,16
853,04	1329,13
853,21	1279,98
853,38	1292,27
853,55	1302,51
853,72	1302,51
853,89	1277,93
854,05	1226,73
854,22	1247,21
854,39	1308,65
854,56	1259,50
854,73	1282,03
854,90	1251,31
855,07	1261,55
855,23	1241,07
855,40	1288,17
855,57	1257,45
855,74	1284,08
855,91	1292,27
856,08	1288,17
856,25	1316,84
856,41	1232,88
856,58	1265,64
856,75	1241,07
856,92	1269,74
857,09	1314,80
857,26	1224,69
857,42	1302,51
857,59	1212,40
857,76	1236,97
857,93	1206,25
858,10	1331,18
858,27	1288,17
858,43	1259,50
858,60	1310,70
858,77	1298,41
858,94	1232,88
859,11	1284,08
859,27	1247,21
859,44	1288,17
859,61	1263,60
859,78	1241,07
859,95	1175,53
860,12	1339,37
860,28	1294,32
860,45	1304,56
860,62	1300,46
860,79	1232,88
860,95	1239,02
861,12	1239,02
861,29	1288,17
861,46	1279,98
861,63	1257,45
861,79	1210,35
861,96	1298,41
862,13	1228,78
862,30	1185,77
862,47	1265,64
862,63	1247,21
862,80	1257,45
862,97	1261,55
863,14	1288,17
863,30	1247,21
863,47	1202,16
863,64	1249,26
863,81	1259,50
863,97	1247,21
864,14	1275,88
864,31	1222,64
864,48	1335,28
864,65	1320,94
864,81	1279,98
864,98	1220,59
865,15	1273,84
865,32	1216,49
865,48	1265,64
865,65	1265,64
865,82	1226,73
865,98	1282,03
866,15	1294,32
866,32	1359,85
866,49	1282,03
866,65	1239,02
866,82	1265,64
866,99	1271,79
867,16	1173,49
867,32	1296,36
867,49	1253,36
867,66	1239,02
867,83	1298,41
867,99	1206,25
868,16	1257,45
868,33	1308,65
868,49	1265,64
868,66	1249,26
868,83	1269,74
868,99	1251,31
869,16	1239,02
869,33	1271,79
869,50	1298,41
869,66	1325,04
869,83	1261,55
870,00	1300,46
870,16	1234,93
870,33	1261,55
870,50	1232,88
870,66	1269,74
870,83	1228,78
871,00	1312,75
871,17	1286,12
871,33	1210,35
871,50	1273,84
871,67	1265,64
871,83	1228,78
872,00	1310,70
872,17	1251,31
872,33	1288,17
872,50	1337,32
872,67	1279,98
872,83	1239,02
873,00	1187,82
873,17	1269,74
873,33	1284,08
873,50	1257,45
873,67	1183,73
873,83	1200,11
874,00	1282,03
874,16	1265,64
874,33	1253,36
874,50	1245,16
874,66	1304,56
874,83	1267,69
875,00	1230,83
875,16	1288,17
875,33	1259,50
875,50	1292,27
875,66	1288,17
875,83	1222,64
875,99	1312,75
876,16	1249,26
876,33	1275,88
876,49	1232,88
876,66	1275,88
876,83	1204,21
876,99	1325,04
877,16	1263,60
877,32	1239,02
877,49	1249,26
877,66	1220,59
877,82	1320,94
877,99	1224,69
878,15	1296,36
878,32	1284,08
878,49	1298,41
878,65	1212,40
878,82	1279,98
878,98	1185,77
879,15	1302,51
879,32	1279,98
879,48	1222,64
879,65	1175,53
879,81	1214,45
879,98	1261,55
880,15	1292,27
880,31	1279,98
880,48	1198,06
880,64	1290,22
880,81	1265,64
880,97	1325,04
881,14	1282,03
881,31	1271,79
881,47	1220,59
881,64	1304,56
881,80	1286,12
881,97	1275,88
882,13	1298,41
882,30	1275,88
882,47	1306,60
882,63	1269,74
882,80	1232,88
882,96	1322,99
883,13	1286,12
883,29	1243,12
883,46	1331,18
883,62	1236,97
883,79	1271,79
883,95	1249,26
884,12	1284,08
884,29	1226,73
884,45	1273,84
884,62	1247,21
884,78	1214,45
884,95	1282,03
885,11	1267,69
885,28	1337,32
885,44	1290,22
885,61	1234,93
885,77	1298,41
885,94	1239,02
886,10	1302,51
886,27	1290,22
886,43	1290,22
886,60	1284,08
886,76	1282,03
886,93	1224,69
887,09	1273,84
887,26	1282,03
887,42	1234,93
887,59	1261,55
887,75	1200,11
887,92	1288,17
888,08	1279,98
888,25	1277,93
888,41	1267,69
888,58	1275,88
888,74	1247,21
888,91	1286,12
>>>>>End Processed Spectral Data<<<<<
