SpectraSuite Data File
++++++++++++++++++++++++++++++++++++
Date: Sun Apr 03 19:55:20 CEST 2016
User: root
Dark Spectrum Present: No
Reference Spectrum Present: No
Number of Sampled Component Spectra: 1
Spectrometers: USB4C02835
Integration Time (usec): 10000 (USB4C02835)
Spectra Averaged: 1 (USB4C02835)
Boxcar Smoothing: 0 (USB4C02835)
Correct for Electrical Dark: No (USB4C02835)
Strobe/Lamp Enabled: No (USB4C02835)
Correct for Detector Non-linearity: No (USB4C02835)
Correct for Stray Light: No (USB4C02835)
Number of Pixels in Processed Spectrum: 3648
>>>>>Begin Processed Spectral Data<<<<<
177,47	1247,21
177,69	1247,21
177,91	1247,21
178,13	1294,32
178,36	1310,70
178,58	1308,65
178,80	1271,79
179,02	1224,69
179,24	1239,02
179,46	1302,51
179,68	1318,89
179,90	1189,87
180,13	1316,84
180,35	1257,45
180,57	1257,45
180,79	1275,88
181,01	1257,45
181,23	1304,56
181,45	1310,70
181,67	1310,70
181,90	1265,64
182,12	1269,74
182,34	1341,42
182,56	1327,08
182,78	1322,99
183,00	1245,16
183,22	1275,88
183,44	1222,64
183,66	1263,60
183,89	1306,60
184,11	1290,22
184,33	1263,60
184,55	1300,46
184,77	1271,79
184,99	1228,78
185,21	1210,35
185,43	1249,26
185,65	1279,98
185,87	1300,46
186,10	1339,37
186,32	1245,16
186,54	1243,12
186,76	1200,11
186,98	1273,84
187,20	1226,73
187,42	1271,79
187,64	1236,97
187,86	1253,36
188,08	1230,83
188,30	1255,40
188,52	1249,26
188,75	1269,74
188,97	1257,45
189,19	1357,80
189,41	1327,08
189,63	1269,74
189,85	1202,16
190,07	1265,64
190,29	1288,17
190,51	1245,16
190,73	1249,26
190,95	1292,27
191,17	1255,40
191,39	1292,27
191,61	1214,45
191,84	1255,40
192,06	1273,84
192,28	1292,27
192,50	1282,03
192,72	1253,36
192,94	1310,70
193,16	1275,88
193,38	1300,46
193,60	1228,78
193,82	1247,21
194,04	1265,64
194,26	1322,99
194,48	1185,77
194,70	1279,98
194,92	1273,84
195,14	1245,16
195,36	1234,93
195,58	1353,71
195,80	1236,97
196,02	1247,21
196,24	1222,64
196,46	1267,69
196,69	1296,36
196,91	1277,93
197,13	1255,40
197,35	1253,36
197,57	1214,45
197,79	1361,90
198,01	1255,40
198,23	1312,75
198,45	1257,45
198,67	1296,36
198,89	1320,94
199,11	1234,93
199,33	1271,79
199,55	1245,16
199,77	1290,22
199,99	1253,36
200,21	1257,45
200,43	1224,69
200,65	1333,23
200,87	1173,49
201,09	1269,74
201,31	1247,21
201,53	1255,40
201,75	1222,64
201,97	1271,79
202,19	1259,50
202,41	1243,12
202,63	1239,02
202,85	1263,60
203,07	1251,31
203,29	1267,69
203,51	1271,79
203,73	1302,51
203,95	1265,64
204,17	1275,88
204,39	1263,60
204,61	1273,84
204,83	1290,22
205,05	1202,16
205,27	1359,85
205,49	1187,82
205,71	1236,97
205,93	1273,84
206,15	1300,46
206,37	1306,60
206,59	1294,32
206,81	1263,60
207,03	1259,50
207,25	1224,69
207,47	1261,55
207,69	1279,98
207,91	1302,51
208,13	1247,21
208,34	1327,08
208,56	1284,08
208,78	1259,50
209,00	1271,79
209,22	1189,87
209,44	1222,64
209,66	1261,55
209,88	1206,25
210,10	1259,50
210,32	1253,36
210,54	1273,84
210,76	1298,41
210,98	1265,64
211,20	1216,49
211,42	1265,64
211,64	1300,46
211,86	1288,17
212,08	1224,69
212,30	1333,23
212,52	1279,98
212,74	1294,32
212,96	1267,69
213,17	1296,36
213,39	1259,50
213,61	1236,97
213,83	1273,84
214,05	1329,13
214,27	1202,16
214,49	1265,64
214,71	1228,78
214,93	1275,88
215,15	1216,49
215,37	1185,77
215,59	1249,26
215,81	1322,99
216,03	1286,12
216,24	1210,35
216,46	1273,84
216,68	1232,88
216,90	1236,97
217,12	1236,97
217,34	1228,78
217,56	1239,02
217,78	1277,93
218,00	1296,36
218,22	1335,28
218,44	1232,88
218,66	1275,88
218,87	1318,89
219,09	1304,56
219,31	1216,49
219,53	1308,65
219,75	1282,03
219,97	1302,51
220,19	1251,31
220,41	1267,69
220,63	1222,64
220,85	1249,26
221,06	1220,59
221,28	1245,16
221,50	1259,50
221,72	1279,98
221,94	1241,07
222,16	1288,17
222,38	1261,55
222,60	1255,40
222,82	1333,23
223,03	1284,08
223,25	1169,39
223,47	1263,60
223,69	1275,88
223,91	1296,36
224,13	1263,60
224,35	1294,32
224,57	1292,27
224,78	1306,60
225,00	1218,54
225,22	1277,93
225,44	1261,55
225,66	1271,79
225,88	1236,97
226,10	1298,41
226,32	1306,60
226,53	1380,33
226,75	1282,03
226,97	1257,45
227,19	1273,84
227,41	1294,32
227,63	1236,97
227,85	1241,07
228,06	1241,07
228,28	1271,79
228,50	1302,51
228,72	1187,82
228,94	1191,92
229,16	1214,45
229,37	1216,49
229,59	1267,69
229,81	1228,78
230,03	1290,22
230,25	1210,35
230,47	1279,98
230,69	1267,69
230,90	1259,50
231,12	1273,84
231,34	1271,79
231,56	1253,36
231,78	1263,60
232,00	1249,26
232,21	1290,22
232,43	1290,22
232,65	1228,78
232,87	1277,93
233,09	1310,70
233,30	1265,64
233,52	1251,31
233,74	1310,70
233,96	1220,59
234,18	1273,84
234,40	1288,17
234,61	1306,60
234,83	1282,03
235,05	1241,07
235,27	1261,55
235,49	1333,23
235,70	1284,08
235,92	1314,80
236,14	1310,70
236,36	1232,88
236,58	1189,87
236,79	1267,69
237,01	1191,92
237,23	1163,25
237,45	1202,16
237,67	1320,94
237,88	1265,64
238,10	1329,13
238,32	1249,26
238,54	1288,17
238,76	1273,84
238,97	1304,56
239,19	1277,93
239,41	1269,74
239,63	1320,94
239,85	1331,18
240,06	1245,16
240,28	1236,97
240,50	1288,17
240,72	1232,88
240,93	1320,94
241,15	1314,80
241,37	1300,46
241,59	1312,75
241,81	1245,16
242,02	1279,98
242,24	1341,42
242,46	1255,40
242,68	1206,25
242,89	1165,29
243,11	1230,83
243,33	1275,88
243,55	1228,78
243,76	1294,32
243,98	1185,77
244,20	1261,55
244,42	1298,41
244,64	1202,16
244,85	1300,46
245,07	1341,42
245,29	1208,30
245,51	1296,36
245,72	1312,75
245,94	1294,32
246,16	1335,28
246,38	1265,64
246,59	1257,45
246,81	1259,50
247,03	1286,12
247,24	1200,11
247,46	1288,17
247,68	1273,84
247,90	1200,11
248,11	1245,16
248,33	1273,84
248,55	1218,54
248,77	1284,08
248,98	1288,17
249,20	1251,31
249,42	1148,91
249,64	1331,18
249,85	1327,08
250,07	1216,49
250,29	1259,50
250,50	1236,97
250,72	1277,93
250,94	1243,12
251,16	1257,45
251,37	1277,93
251,59	1279,98
251,81	1284,08
252,02	1234,93
252,24	1243,12
252,46	1253,36
252,68	1269,74
252,89	1243,12
253,11	1253,36
253,33	1294,32
253,54	1322,99
253,76	1261,55
253,98	1296,36
254,20	1232,88
254,41	1220,59
254,63	1232,88
254,85	1288,17
255,06	1228,78
255,28	1273,84
255,50	1249,26
255,71	1288,17
255,93	1292,27
256,15	1263,60
256,36	1236,97
256,58	1271,79
256,80	1341,42
257,02	1255,40
257,23	1234,93
257,45	1230,83
257,67	1349,61
257,88	1351,66
258,10	1308,65
258,32	1212,40
258,53	1277,93
258,75	1300,46
258,97	1243,12
259,18	1310,70
259,40	1259,50
259,62	1224,69
259,83	1257,45
260,05	1271,79
260,27	1220,59
260,48	1249,26
260,70	1325,04
260,92	1253,36
261,13	1304,56
261,35	1251,31
261,57	1290,22
261,78	1220,59
262,00	1241,07
262,22	1239,02
262,43	1288,17
262,65	1290,22
262,86	1216,49
263,08	1288,17
263,30	1320,94
263,51	1267,69
263,73	1224,69
263,95	1318,89
264,16	1294,32
264,38	1255,40
264,60	1279,98
264,81	1325,04
265,03	1277,93
265,25	1212,40
265,46	1271,79
265,68	1277,93
265,89	1253,36
266,11	1267,69
266,33	1265,64
266,54	1236,97
266,76	1247,21
266,98	1251,31
267,19	1245,16
267,41	1298,41
267,62	1271,79
267,84	1239,02
268,06	1228,78
268,27	1243,12
268,49	1265,64
268,70	1355,76
268,92	1271,79
269,14	1183,73
269,35	1210,35
269,57	1263,60
269,79	1230,83
270,00	1261,55
270,22	1259,50
270,43	1216,49
270,65	1318,89
270,87	1298,41
271,08	1286,12
271,30	1196,01
271,51	1267,69
271,73	1222,64
271,95	1208,30
272,16	1214,45
272,38	1290,22
272,59	1273,84
272,81	1282,03
273,02	1257,45
273,24	1282,03
273,46	1224,69
273,67	1292,27
273,89	1286,12
274,10	1306,60
274,32	1216,49
274,54	1222,64
274,75	1196,01
274,97	1224,69
275,18	1239,02
275,40	1247,21
275,61	1288,17
275,83	1241,07
276,05	1314,80
276,26	1261,55
276,48	1363,95
276,69	1247,21
276,91	1288,17
277,12	1300,46
277,34	1298,41
277,55	1312,75
277,77	1269,74
277,99	1206,25
278,20	1210,35
278,42	1196,01
278,63	1224,69
278,85	1228,78
279,06	1257,45
279,28	1286,12
279,49	1273,84
279,71	1175,53
279,93	1255,40
280,14	1302,51
280,36	1220,59
280,57	1265,64
280,79	1200,11
281,00	1314,80
281,22	1275,88
281,43	1228,78
281,65	1204,21
281,86	1265,64
282,08	1239,02
282,29	1230,83
282,51	1282,03
282,73	1286,12
282,94	1290,22
283,16	1255,40
283,37	1249,26
283,59	1183,73
283,80	1308,65
284,02	1306,60
284,23	1257,45
284,45	1306,60
284,66	1306,60
284,88	1294,32
285,09	1181,68
285,31	1259,50
285,52	1322,99
285,74	1277,93
285,95	1247,21
286,17	1257,45
286,38	1282,03
286,60	1263,60
286,81	1302,51
287,03	1249,26
287,24	1247,21
287,46	1275,88
287,67	1335,28
287,89	1329,13
288,10	1228,78
288,32	1257,45
288,53	1318,89
288,75	1273,84
288,96	1277,93
289,18	1325,04
289,39	1230,83
289,61	1306,60
289,82	1243,12
290,04	1288,17
290,25	1288,17
290,47	1224,69
290,68	1284,08
290,90	1243,12
291,11	1267,69
291,33	1257,45
291,54	1226,73
291,76	1218,54
291,97	1243,12
292,18	1306,60
292,40	1234,93
292,61	1282,03
292,83	1185,77
293,04	1302,51
293,26	1277,93
293,47	1232,88
293,69	1255,40
293,90	1255,40
294,12	1181,68
294,33	1261,55
294,55	1273,84
294,76	1275,88
294,97	1275,88
295,19	1255,40
295,40	1234,93
295,62	1273,84
295,83	1359,85
296,05	1282,03
296,26	1226,73
296,48	1294,32
296,69	1288,17
296,90	1322,99
297,12	1236,97
297,33	1290,22
297,55	1275,88
297,76	1210,35
297,98	1232,88
298,19	1292,27
298,41	1279,98
298,62	1290,22
298,83	1277,93
299,05	1304,56
299,26	1228,78
299,48	1226,73
299,69	1267,69
299,90	1198,06
300,12	1279,98
300,33	1249,26
300,55	1249,26
300,76	1306,60
300,98	1243,12
301,19	1310,70
301,40	1261,55
301,62	1275,88
301,83	1265,64
302,05	1312,75
302,26	1224,69
302,47	1239,02
302,69	1265,64
302,90	1277,93
303,12	1263,60
303,33	1261,55
303,54	1304,56
303,76	1239,02
303,97	1212,40
304,19	1279,98
304,40	1300,46
304,61	1251,31
304,83	1277,93
305,04	1257,45
305,26	1294,32
305,47	1239,02
305,68	1218,54
305,90	1239,02
306,11	1224,69
306,33	1198,06
306,54	1243,12
306,75	1241,07
306,97	1273,84
307,18	1275,88
307,39	1355,76
307,61	1247,21
307,82	1288,17
308,04	1302,51
308,25	1261,55
308,46	1243,12
308,68	1202,16
308,89	1259,50
309,10	1230,83
309,32	1343,47
309,53	1275,88
309,74	1179,63
309,96	1296,36
310,17	1189,87
310,39	1255,40
310,60	1294,32
310,81	1232,88
311,03	1275,88
311,24	1255,40
311,45	1282,03
311,67	1267,69
311,88	1298,41
312,09	1366,00
312,31	1247,21
312,52	1232,88
312,73	1302,51
312,95	1294,32
313,16	1267,69
313,37	1265,64
313,59	1296,36
313,80	1171,44
314,01	1363,95
314,23	1316,84
314,44	1210,35
314,65	1253,36
314,87	1288,17
315,08	1271,79
315,29	1271,79
315,51	1251,31
315,72	1314,80
315,93	1257,45
316,15	1275,88
316,36	1331,18
316,57	1253,36
316,79	1243,12
317,00	1310,70
317,21	1290,22
317,43	1327,08
317,64	1257,45
317,85	1239,02
318,07	1247,21
318,28	1206,25
318,49	1230,83
318,70	1269,74
318,92	1325,04
319,13	1277,93
319,34	1259,50
319,56	1257,45
319,77	1265,64
319,98	1380,33
320,20	1273,84
320,41	1282,03
320,62	1241,07
320,83	1279,98
321,05	1247,21
321,26	1294,32
321,47	1224,69
321,69	1339,37
321,90	1239,02
322,11	1322,99
322,32	1239,02
322,54	1294,32
322,75	1241,07
322,96	1245,16
323,18	1269,74
323,39	1314,80
323,60	1300,46
323,81	1290,22
324,03	1243,12
324,24	1284,08
324,45	1308,65
324,66	1218,54
324,88	1279,98
325,09	1273,84
325,30	1228,78
325,52	1290,22
325,73	1294,32
325,94	1265,64
326,15	1257,45
326,37	1228,78
326,58	1306,60
326,79	1257,45
327,00	1202,16
327,22	1329,13
327,43	1316,84
327,64	1234,93
327,85	1286,12
328,07	1269,74
328,28	1277,93
328,49	1282,03
328,70	1345,52
328,92	1212,40
329,13	1230,83
329,34	1306,60
329,55	1318,89
329,76	1296,36
329,98	1236,97
330,19	1222,64
330,40	1316,84
330,61	1257,45
330,83	1298,41
331,04	1288,17
331,25	1273,84
331,46	1259,50
331,68	1249,26
331,89	1277,93
332,10	1236,97
332,31	1216,49
332,52	1265,64
332,74	1286,12
332,95	1275,88
333,16	1275,88
333,37	1302,51
333,58	1302,51
333,80	1157,10
334,01	1249,26
334,22	1298,41
334,43	1290,22
334,64	1310,70
334,86	1232,88
335,07	1257,45
335,28	1269,74
335,49	1282,03
335,70	1249,26
335,92	1265,64
336,13	1257,45
336,34	1220,59
336,55	1304,56
336,76	1206,25
336,98	1226,73
337,19	1249,26
337,40	1261,55
337,61	1261,55
337,82	1339,37
338,04	1222,64
338,25	1273,84
338,46	1220,59
338,67	1329,13
338,88	1318,89
339,09	1255,40
339,31	1243,12
339,52	1239,02
339,73	1284,08
339,94	1312,75
340,15	1267,69
340,36	1298,41
340,58	1175,53
340,79	1265,64
341,00	1286,12
341,21	1288,17
341,42	1232,88
341,63	1265,64
341,85	1273,84
342,06	1216,49
342,27	1329,13
342,48	1210,35
342,69	1236,97
342,90	1269,74
343,12	1228,78
343,33	1296,36
343,54	1310,70
343,75	1263,60
343,96	1185,77
344,17	1255,40
344,38	1273,84
344,60	1275,88
344,81	1179,63
345,02	1271,79
345,23	1290,22
345,44	1304,56
345,65	1167,34
345,86	1349,61
346,07	1271,79
346,29	1288,17
346,50	1239,02
346,71	1320,94
346,92	1265,64
347,13	1290,22
347,34	1210,35
347,55	1304,56
347,76	1247,21
347,98	1255,40
348,19	1312,75
348,40	1261,55
348,61	1228,78
348,82	1329,13
349,03	1312,75
349,24	1277,93
349,45	1247,21
349,66	1275,88
349,88	1298,41
350,09	1232,88
350,30	1232,88
350,51	1288,17
350,72	1181,68
350,93	1222,64
351,14	1298,41
351,35	1196,01
351,56	1331,18
351,77	1236,97
351,99	1230,83
352,20	1269,74
352,41	1251,31
352,62	1269,74
352,83	1265,64
353,04	1241,07
353,25	1204,21
353,46	1333,23
353,67	1304,56
353,88	1210,35
354,09	1253,36
354,30	1222,64
354,52	1259,50
354,73	1275,88
354,94	1273,84
355,15	1296,36
355,36	1284,08
355,57	1312,75
355,78	1239,02
355,99	1253,36
356,20	1261,55
356,41	1325,04
356,62	1206,25
356,83	1216,49
357,04	1269,74
357,25	1243,12
357,46	1320,94
357,68	1273,84
357,89	1226,73
358,10	1347,56
358,31	1247,21
358,52	1189,87
358,73	1273,84
358,94	1255,40
359,15	1265,64
359,36	1253,36
359,57	1302,51
359,78	1249,26
359,99	1284,08
360,20	1275,88
360,41	1261,55
360,62	1239,02
360,83	1243,12
361,04	1282,03
361,25	1306,60
361,46	1312,75
361,67	1253,36
361,88	1245,16
362,09	1271,79
362,30	1288,17
362,51	1286,12
362,72	1249,26
362,93	1230,83
363,14	1277,93
363,35	1267,69
363,56	1230,83
363,78	1333,23
363,99	1234,93
364,20	1335,28
364,41	1361,90
364,62	1300,46
364,83	1308,65
365,04	1308,65
365,25	1320,94
365,46	1218,54
365,67	1239,02
365,88	1290,22
366,09	1196,01
366,30	1253,36
366,51	1353,71
366,72	1302,51
366,93	1267,69
367,14	1218,54
367,35	1296,36
367,56	1241,07
367,77	1300,46
367,98	1327,08
368,18	1234,93
368,39	1261,55
368,60	1193,97
368,81	1224,69
369,02	1290,22
369,23	1282,03
369,44	1298,41
369,65	1247,21
369,86	1255,40
370,07	1228,78
370,28	1279,98
370,49	1247,21
370,70	1275,88
370,91	1325,04
371,12	1300,46
371,33	1288,17
371,54	1214,45
371,75	1310,70
371,96	1210,35
372,17	1300,46
372,38	1228,78
372,59	1312,75
372,80	1228,78
373,01	1239,02
373,22	1263,60
373,43	1279,98
373,64	1277,93
373,85	1261,55
374,06	1222,64
374,26	1193,97
374,47	1308,65
374,68	1200,11
374,89	1241,07
375,10	1218,54
375,31	1273,84
375,52	1269,74
375,73	1241,07
375,94	1306,60
376,15	1286,12
376,36	1206,25
376,57	1271,79
376,78	1187,82
376,99	1292,27
377,20	1279,98
377,40	1341,42
377,61	1218,54
377,82	1286,12
378,03	1159,15
378,24	1157,10
378,45	1271,79
378,66	1232,88
378,87	1247,21
379,08	1245,16
379,29	1263,60
379,50	1257,45
379,71	1294,32
379,91	1265,64
380,12	1232,88
380,33	1241,07
380,54	1263,60
380,75	1325,04
380,96	1241,07
381,17	1286,12
381,38	1249,26
381,59	1261,55
381,80	1257,45
382,00	1282,03
382,21	1255,40
382,42	1318,89
382,63	1300,46
382,84	1318,89
383,05	1265,64
383,26	1263,60
383,47	1259,50
383,68	1263,60
383,88	1216,49
384,09	1339,37
384,30	1273,84
384,51	1343,47
384,72	1265,64
384,93	1318,89
385,14	1202,16
385,35	1300,46
385,55	1282,03
385,76	1232,88
385,97	1269,74
386,18	1245,16
386,39	1273,84
386,60	1290,22
386,81	1271,79
387,02	1271,79
387,22	1269,74
387,43	1337,32
387,64	1273,84
387,85	1245,16
388,06	1243,12
388,27	1269,74
388,48	1316,84
388,68	1302,51
388,89	1265,64
389,10	1288,17
389,31	1212,40
389,52	1308,65
389,73	1265,64
389,93	1243,12
390,14	1212,40
390,35	1298,41
390,56	1230,83
390,77	1261,55
390,98	1337,32
391,18	1286,12
391,39	1308,65
391,60	1292,27
391,81	1245,16
392,02	1302,51
392,23	1245,16
392,43	1370,09
392,64	1259,50
392,85	1318,89
393,06	1282,03
393,27	1292,27
393,47	1239,02
393,68	1249,26
393,89	1300,46
394,10	1316,84
394,31	1251,31
394,52	1277,93
394,72	1253,36
394,93	1300,46
395,14	1261,55
395,35	1261,55
395,56	1230,83
395,76	1302,51
395,97	1327,08
396,18	1335,28
396,39	1316,84
396,60	1255,40
396,80	1282,03
397,01	1282,03
397,22	1282,03
397,43	1218,54
397,64	1253,36
397,84	1241,07
398,05	1269,74
398,26	1277,93
398,47	1290,22
398,67	1271,79
398,88	1232,88
399,09	1230,83
399,30	1271,79
399,51	1263,60
399,71	1222,64
399,92	1331,18
400,13	1265,64
400,34	1181,68
400,54	1267,69
400,75	1304,56
400,96	1292,27
401,17	1271,79
401,37	1220,59
401,58	1273,84
401,79	1263,60
402,00	1329,13
402,21	1284,08
402,41	1294,32
402,62	1212,40
402,83	1259,50
403,04	1220,59
403,24	1220,59
403,45	1243,12
403,66	1279,98
403,87	1269,74
404,07	1257,45
404,28	1296,36
404,49	1329,13
404,70	1286,12
404,90	1279,98
405,11	1306,60
405,32	1222,64
405,52	1296,36
405,73	1279,98
405,94	1200,11
406,15	1259,50
406,35	1228,78
406,56	1347,56
406,77	1253,36
406,98	1294,32
407,18	1247,21
407,39	1245,16
407,60	1277,93
407,80	1249,26
408,01	1204,21
408,22	1290,22
408,43	1259,50
408,63	1198,06
408,84	1275,88
409,05	1251,31
409,25	1290,22
409,46	1314,80
409,67	1277,93
409,88	1222,64
410,08	1261,55
410,29	1249,26
410,50	1261,55
410,70	1279,98
410,91	1239,02
411,12	1314,80
411,32	1247,21
411,53	1279,98
411,74	1261,55
411,95	1234,93
412,15	1257,45
412,36	1298,41
412,57	1243,12
412,77	1288,17
412,98	1255,40
413,19	1288,17
413,39	1282,03
413,60	1284,08
413,81	1255,40
414,01	1267,69
414,22	1222,64
414,43	1333,23
414,63	1329,13
414,84	1312,75
415,05	1277,93
415,25	1206,25
415,46	1230,83
415,67	1282,03
415,87	1257,45
416,08	1247,21
416,29	1302,51
416,49	1255,40
416,70	1200,11
416,91	1245,16
417,11	1263,60
417,32	1249,26
417,53	1234,93
417,73	1273,84
417,94	1259,50
418,15	1277,93
418,35	1275,88
418,56	1267,69
418,77	1282,03
418,97	1255,40
419,18	1273,84
419,38	1294,32
419,59	1296,36
419,80	1222,64
420,00	1243,12
420,21	1222,64
420,42	1314,80
420,62	1175,53
420,83	1300,46
421,04	1300,46
421,24	1212,40
421,45	1271,79
421,65	1230,83
421,86	1243,12
422,07	1263,60
422,27	1226,73
422,48	1277,93
422,69	1275,88
422,89	1292,27
423,10	1316,84
423,30	1312,75
423,51	1261,55
423,72	1267,69
423,92	1179,63
424,13	1245,16
424,33	1286,12
424,54	1214,45
424,75	1216,49
424,95	1232,88
425,16	1234,93
425,36	1327,08
425,57	1226,73
425,78	1341,42
425,98	1273,84
426,19	1298,41
426,39	1193,97
426,60	1259,50
426,81	1284,08
427,01	1224,69
427,22	1277,93
427,42	1271,79
427,63	1232,88
427,83	1298,41
428,04	1337,32
428,25	1347,56
428,45	1216,49
428,66	1187,82
428,86	1298,41
429,07	1265,64
429,28	1265,64
429,48	1191,92
429,69	1296,36
429,89	1249,26
430,10	1189,87
430,30	1245,16
430,51	1304,56
430,71	1296,36
430,92	1282,03
431,13	1210,35
431,33	1216,49
431,54	1230,83
431,74	1292,27
431,95	1290,22
432,15	1290,22
432,36	1273,84
432,56	1290,22
432,77	1298,41
432,98	1265,64
433,18	1271,79
433,39	1259,50
433,59	1196,01
433,80	1265,64
434,00	1230,83
434,21	1271,79
434,41	1267,69
434,62	1273,84
434,82	1275,88
435,03	1208,30
435,23	1302,51
435,44	1331,18
435,64	1253,36
435,85	1302,51
436,06	1241,07
436,26	1251,31
436,47	1302,51
436,67	1292,27
436,88	1306,60
437,08	1193,97
437,29	1249,26
437,49	1261,55
437,70	1202,16
437,90	1193,97
438,11	1312,75
438,31	1261,55
438,52	1306,60
438,72	1353,71
438,93	1304,56
439,13	1249,26
439,34	1212,40
439,54	1347,56
439,75	1341,42
439,95	1288,17
440,16	1230,83
440,36	1279,98
440,57	1275,88
440,77	1335,28
440,98	1218,54
441,18	1290,22
441,39	1259,50
441,59	1279,98
441,80	1279,98
442,00	1353,71
442,21	1286,12
442,41	1261,55
442,62	1277,93
442,82	1284,08
443,02	1296,36
443,23	1275,88
443,43	1253,36
443,64	1253,36
443,84	1251,31
444,05	1239,02
444,25	1230,83
444,46	1292,27
444,66	1310,70
444,87	1312,75
445,07	1267,69
445,28	1296,36
445,48	1341,42
445,69	1282,03
445,89	1273,84
446,09	1253,36
446,30	1236,97
446,50	1286,12
446,71	1363,95
446,91	1275,88
447,12	1267,69
447,32	1263,60
447,53	1271,79
447,73	1226,73
447,93	1269,74
448,14	1224,69
448,34	1249,26
448,55	1345,52
448,75	1275,88
448,96	1249,26
449,16	1277,93
449,36	1298,41
449,57	1288,17
449,77	1316,84
449,98	1279,98
450,18	1224,69
450,39	1310,70
450,59	1255,40
450,79	1257,45
451,00	1269,74
451,20	1279,98
451,41	1216,49
451,61	1306,60
451,81	1265,64
452,02	1329,13
452,22	1277,93
452,43	1361,90
452,63	1269,74
452,84	1224,69
453,04	1265,64
453,24	1226,73
453,45	1333,23
453,65	1269,74
453,86	1249,26
454,06	1224,69
454,26	1273,84
454,47	1310,70
454,67	1286,12
454,87	1312,75
455,08	1286,12
455,28	1230,83
455,49	1320,94
455,69	1290,22
455,89	1337,32
456,10	1275,88
456,30	1296,36
456,51	1273,84
456,71	1269,74
456,91	1265,64
457,12	1191,92
457,32	1261,55
457,52	1306,60
457,73	1279,98
457,93	1267,69
458,14	1222,64
458,34	1288,17
458,54	1265,64
458,75	1304,56
458,95	1241,07
459,15	1296,36
459,36	1286,12
459,56	1314,80
459,76	1343,47
459,97	1230,83
460,17	1245,16
460,37	1300,46
460,58	1222,64
460,78	1230,83
460,99	1265,64
461,19	1294,32
461,39	1255,40
461,60	1247,21
461,80	1245,16
462,00	1282,03
462,21	1243,12
462,41	1253,36
462,61	1341,42
462,82	1329,13
463,02	1372,14
463,22	1269,74
463,43	1259,50
463,63	1261,55
463,83	1294,32
464,04	1318,89
464,24	1288,17
464,44	1298,41
464,64	1269,74
464,85	1245,16
465,05	1288,17
465,25	1249,26
465,46	1292,27
465,66	1288,17
465,86	1216,49
466,07	1312,75
466,27	1257,45
466,47	1212,40
466,68	1226,73
466,88	1320,94
467,08	1296,36
467,29	1257,45
467,49	1265,64
467,69	1271,79
467,89	1288,17
468,10	1318,89
468,30	1247,21
468,50	1320,94
468,71	1296,36
468,91	1204,21
469,11	1310,70
469,31	1300,46
469,52	1304,56
469,72	1349,61
469,92	1269,74
470,13	1282,03
470,33	1275,88
470,53	1255,40
470,73	1257,45
470,94	1273,84
471,14	1279,98
471,34	1220,59
471,54	1245,16
471,75	1271,79
471,95	1269,74
472,15	1284,08
472,36	1320,94
472,56	1271,79
472,76	1312,75
472,96	1255,40
473,17	1286,12
473,37	1298,41
473,57	1302,51
473,77	1279,98
473,98	1236,97
474,18	1306,60
474,38	1279,98
474,58	1257,45
474,79	1282,03
474,99	1384,43
475,19	1241,07
475,39	1318,89
475,60	1234,93
475,80	1210,35
476,00	1292,27
476,20	1230,83
476,41	1236,97
476,61	1243,12
476,81	1261,55
477,01	1304,56
477,21	1245,16
477,42	1286,12
477,62	1290,22
477,82	1243,12
478,02	1271,79
478,23	1265,64
478,43	1216,49
478,63	1253,36
478,83	1167,34
479,03	1267,69
479,24	1349,61
479,44	1314,80
479,64	1157,10
479,84	1269,74
480,04	1228,78
480,25	1255,40
480,45	1239,02
480,65	1288,17
480,85	1243,12
481,06	1277,93
481,26	1275,88
481,46	1294,32
481,66	1284,08
481,86	1165,29
482,06	1243,12
482,27	1355,76
482,47	1208,30
482,67	1294,32
482,87	1296,36
483,07	1236,97
483,28	1310,70
483,48	1378,28
483,68	1273,84
483,88	1146,86
484,08	1275,88
484,29	1292,27
484,49	1310,70
484,69	1300,46
484,89	1306,60
485,09	1292,27
485,29	1298,41
485,50	1249,26
485,70	1261,55
485,90	1275,88
486,10	1228,78
486,30	1257,45
486,50	1275,88
486,71	1222,64
486,91	1277,93
487,11	1253,36
487,31	1267,69
487,51	1232,88
487,71	1251,31
487,91	1273,84
488,12	1265,64
488,32	1204,21
488,52	1314,80
488,72	1228,78
488,92	1292,27
489,12	1236,97
489,32	1300,46
489,53	1273,84
489,73	1216,49
489,93	1282,03
490,13	1236,97
490,33	1292,27
490,53	1249,26
490,73	1279,98
490,94	1271,79
491,14	1282,03
491,34	1304,56
491,54	1230,83
491,74	1247,21
491,94	1251,31
492,14	1327,08
492,34	1337,32
492,54	1294,32
492,75	1300,46
492,95	1263,60
493,15	1331,18
493,35	1243,12
493,55	1300,46
493,75	1308,65
493,95	1308,65
494,15	1263,60
494,35	1308,65
494,56	1275,88
494,76	1249,26
494,96	1204,21
495,16	1339,37
495,36	1255,40
495,56	1267,69
495,76	1249,26
495,96	1310,70
496,16	1234,93
496,36	1259,50
496,56	1277,93
496,77	1247,21
496,97	1255,40
497,17	1290,22
497,37	1296,36
497,57	1255,40
497,77	1269,74
497,97	1318,89
498,17	1255,40
498,37	1290,22
498,57	1214,45
498,77	1218,54
498,97	1224,69
499,17	1253,36
499,38	1222,64
499,58	1265,64
499,78	1292,27
499,98	1312,75
500,18	1234,93
500,38	1302,51
500,58	1279,98
500,78	1228,78
500,98	1263,60
501,18	1265,64
501,38	1341,42
501,58	1337,32
501,78	1310,70
501,98	1236,97
502,18	1212,40
502,38	1257,45
502,58	1255,40
502,78	1292,27
502,98	1292,27
503,18	1247,21
503,38	1257,45
503,59	1259,50
503,79	1300,46
503,99	1288,17
504,19	1267,69
504,39	1331,18
504,59	1275,88
504,79	1325,04
504,99	1234,93
505,19	1263,60
505,39	1212,40
505,59	1251,31
505,79	1306,60
505,99	1234,93
506,19	1265,64
506,39	1345,52
506,59	1275,88
506,79	1243,12
506,99	1257,45
507,19	1292,27
507,39	1269,74
507,59	1273,84
507,79	1284,08
507,99	1304,56
508,19	1253,36
508,39	1282,03
508,59	1226,73
508,79	1263,60
508,99	1277,93
509,19	1284,08
509,39	1251,31
509,59	1273,84
509,79	1253,36
509,99	1298,41
510,19	1284,08
510,39	1234,93
510,59	1261,55
510,79	1265,64
510,99	1210,35
511,19	1245,16
511,39	1374,19
511,59	1275,88
511,79	1290,22
511,99	1253,36
512,19	1296,36
512,38	1351,66
512,58	1255,40
512,78	1241,07
512,98	1343,47
513,18	1327,08
513,38	1269,74
513,58	1232,88
513,78	1316,84
513,98	1327,08
514,18	1335,28
514,38	1339,37
514,58	1288,17
514,78	1284,08
514,98	1265,64
515,18	1269,74
515,38	1247,21
515,58	1257,45
515,78	1302,51
515,98	1335,28
516,18	1253,36
516,38	1253,36
516,57	1183,73
516,77	1228,78
516,97	1316,84
517,17	1216,49
517,37	1339,37
517,57	1300,46
517,77	1279,98
517,97	1265,64
518,17	1325,04
518,37	1236,97
518,57	1257,45
518,77	1308,65
518,97	1232,88
519,16	1179,63
519,36	1230,83
519,56	1253,36
519,76	1255,40
519,96	1279,98
520,16	1265,64
520,36	1275,88
520,56	1277,93
520,76	1322,99
520,96	1271,79
521,16	1320,94
521,35	1353,71
521,55	1322,99
521,75	1277,93
521,95	1265,64
522,15	1318,89
522,35	1271,79
522,55	1269,74
522,75	1302,51
522,95	1361,90
523,14	1232,88
523,34	1304,56
523,54	1222,64
523,74	1322,99
523,94	1259,50
524,14	1333,23
524,34	1341,42
524,54	1230,83
524,73	1335,28
524,93	1296,36
525,13	1306,60
525,33	1322,99
525,53	1304,56
525,73	1183,73
525,93	1282,03
526,13	1273,84
526,32	1335,28
526,52	1302,51
526,72	1294,32
526,92	1322,99
527,12	1284,08
527,32	1263,60
527,52	1302,51
527,71	1335,28
527,91	1214,45
528,11	1234,93
528,31	1361,90
528,51	1259,50
528,71	1284,08
528,90	1232,88
529,10	1310,70
529,30	1304,56
529,50	1259,50
529,70	1269,74
529,90	1271,79
530,09	1337,32
530,29	1327,08
530,49	1198,06
530,69	1257,45
530,89	1196,01
531,09	1263,60
531,28	1322,99
531,48	1294,32
531,68	1347,56
531,88	1331,18
532,08	1253,36
532,28	1288,17
532,47	1337,32
532,67	1249,26
532,87	1277,93
533,07	1202,16
533,27	1359,85
533,46	1241,07
533,66	1277,93
533,86	1265,64
534,06	1304,56
534,26	1259,50
534,45	1212,40
534,65	1241,07
534,85	1325,04
535,05	1380,33
535,25	1279,98
535,44	1300,46
535,64	1251,31
535,84	1277,93
536,04	1286,12
536,24	1322,99
536,43	1331,18
536,63	1296,36
536,83	1271,79
537,03	1265,64
537,22	1277,93
537,42	1271,79
537,62	1269,74
537,82	1292,27
538,02	1282,03
538,21	1232,88
538,41	1302,51
538,61	1259,50
538,81	1218,54
539,00	1286,12
539,20	1353,71
539,40	1310,70
539,60	1302,51
539,79	1314,80
539,99	1341,42
540,19	1290,22
540,39	1310,70
540,58	1306,60
540,78	1298,41
540,98	1249,26
541,18	1366,00
541,37	1269,74
541,57	1378,28
541,77	1269,74
541,97	1298,41
542,16	1308,65
542,36	1345,52
542,56	1271,79
542,76	1322,99
542,95	1292,27
543,15	1318,89
543,35	1251,31
543,54	1177,58
543,74	1300,46
543,94	1284,08
544,14	1363,95
544,33	1312,75
544,53	1318,89
544,73	1316,84
544,93	1312,75
545,12	1327,08
545,32	1247,21
545,52	1308,65
545,71	1306,60
545,91	1234,93
546,11	1320,94
546,30	1243,12
546,50	1273,84
546,70	1226,73
546,90	1282,03
547,09	1316,84
547,29	1243,12
547,49	1331,18
547,68	1236,97
547,88	1316,84
548,08	1271,79
548,27	1277,93
548,47	1259,50
548,67	1322,99
548,87	1316,84
549,06	1275,88
549,26	1222,64
549,46	1236,97
549,65	1265,64
549,85	1329,13
550,05	1282,03
550,24	1296,36
550,44	1320,94
550,64	1239,02
550,83	1337,32
551,03	1304,56
551,23	1300,46
551,42	1310,70
551,62	1273,84
551,82	1253,36
552,01	1275,88
552,21	1259,50
552,41	1294,32
552,60	1230,83
552,80	1318,89
553,00	1306,60
553,19	1298,41
553,39	1353,71
553,59	1275,88
553,78	1294,32
553,98	1273,84
554,17	1322,99
554,37	1292,27
554,57	1267,69
554,76	1294,32
554,96	1282,03
555,16	1290,22
555,35	1296,36
555,55	1275,88
555,75	1245,16
555,94	1245,16
556,14	1277,93
556,33	1265,64
556,53	1236,97
556,73	1329,13
556,92	1322,99
557,12	1329,13
557,32	1327,08
557,51	1288,17
557,71	1298,41
557,90	1296,36
558,10	1294,32
558,30	1322,99
558,49	1279,98
558,69	1339,37
558,88	1286,12
559,08	1318,89
559,28	1331,18
559,47	1267,69
559,67	1370,09
559,86	1300,46
560,06	1228,78
560,26	1322,99
560,45	1214,45
560,65	1288,17
560,84	1294,32
561,04	1247,21
561,24	1196,01
561,43	1286,12
561,63	1259,50
561,82	1245,16
562,02	1245,16
562,22	1277,93
562,41	1230,83
562,61	1329,13
562,80	1351,66
563,00	1263,60
563,19	1320,94
563,39	1302,51
563,59	1277,93
563,78	1277,93
563,98	1275,88
564,17	1306,60
564,37	1318,89
564,56	1298,41
564,76	1320,94
564,96	1329,13
565,15	1277,93
565,35	1298,41
565,54	1214,45
565,74	1325,04
565,93	1216,49
566,13	1316,84
566,32	1331,18
566,52	1404,91
566,71	1245,16
566,91	1232,88
567,11	1316,84
567,30	1273,84
567,50	1363,95
567,69	1226,73
567,89	1271,79
568,08	1234,93
568,28	1218,54
568,47	1255,40
568,67	1306,60
568,86	1279,98
569,06	1267,69
569,25	1320,94
569,45	1306,60
569,64	1286,12
569,84	1327,08
570,04	1306,60
570,23	1273,84
570,43	1200,11
570,62	1376,24
570,82	1292,27
571,01	1241,07
571,21	1216,49
571,40	1239,02
571,60	1306,60
571,79	1271,79
571,99	1277,93
572,18	1210,35
572,38	1208,30
572,57	1247,21
572,77	1310,70
572,96	1265,64
573,16	1191,92
573,35	1292,27
573,55	1322,99
573,74	1314,80
573,94	1310,70
574,13	1273,84
574,33	1314,80
574,52	1267,69
574,71	1302,51
574,91	1300,46
575,10	1175,53
575,30	1259,50
575,49	1296,36
575,69	1234,93
575,88	1300,46
576,08	1251,31
576,27	1310,70
576,47	1241,07
576,66	1216,49
576,86	1200,11
577,05	1273,84
577,25	1296,36
577,44	1267,69
577,64	1210,35
577,83	1232,88
578,02	1255,40
578,22	1239,02
578,41	1230,83
578,61	1265,64
578,80	1300,46
579,00	1304,56
579,19	1296,36
579,39	1304,56
579,58	1290,22
579,77	1288,17
579,97	1329,13
580,16	1247,21
580,36	1232,88
580,55	1277,93
580,75	1306,60
580,94	1325,04
581,13	1339,37
581,33	1265,64
581,52	1200,11
581,72	1288,17
581,91	1290,22
582,11	1241,07
582,30	1273,84
582,49	1273,84
582,69	1290,22
582,88	1325,04
583,08	1302,51
583,27	1347,56
583,47	1255,40
583,66	1282,03
583,85	1277,93
584,05	1314,80
584,24	1302,51
584,44	1193,97
584,63	1269,74
584,82	1269,74
585,02	1284,08
585,21	1255,40
585,41	1275,88
585,60	1214,45
585,79	1191,92
585,99	1265,64
586,18	1325,04
586,37	1277,93
586,57	1220,59
586,76	1347,56
586,96	1304,56
587,15	1290,22
587,34	1257,45
587,54	1265,64
587,73	1263,60
587,93	1241,07
588,12	1226,73
588,31	1282,03
588,51	1236,97
588,70	1363,95
588,89	1288,17
589,09	1380,33
589,28	1271,79
589,47	1279,98
589,67	1202,16
589,86	1286,12
590,06	1296,36
590,25	1347,56
590,44	1304,56
590,64	1351,66
590,83	1308,65
591,02	1300,46
591,22	1316,84
591,41	1253,36
591,60	1243,12
591,80	1269,74
591,99	1335,28
592,18	1259,50
592,38	1187,82
592,57	1232,88
592,76	1251,31
592,96	1265,64
593,15	1261,55
593,34	1284,08
593,54	1286,12
593,73	1298,41
593,92	1318,89
594,12	1267,69
594,31	1345,52
594,50	1265,64
594,70	1255,40
594,89	1331,18
595,08	1239,02
595,28	1243,12
595,47	1302,51
595,66	1247,21
595,86	1279,98
596,05	1220,59
596,24	1302,51
596,43	1265,64
596,63	1298,41
596,82	1279,98
597,01	1239,02
597,21	1304,56
597,40	1251,31
597,59	1249,26
597,79	1261,55
597,98	1312,75
598,17	1259,50
598,36	1296,36
598,56	1236,97
598,75	1312,75
598,94	1273,84
599,14	1222,64
599,33	1320,94
599,52	1318,89
599,71	1286,12
599,91	1347,56
600,10	1243,12
600,29	1286,12
600,48	1284,08
600,68	1261,55
600,87	1187,82
601,06	1210,35
601,26	1241,07
601,45	1279,98
601,64	1296,36
601,83	1333,23
602,03	1277,93
602,22	1267,69
602,41	1361,90
602,60	1249,26
602,80	1298,41
602,99	1337,32
603,18	1204,21
603,37	1345,52
603,57	1296,36
603,76	1214,45
603,95	1232,88
604,14	1243,12
604,34	1294,32
604,53	1320,94
604,72	1251,31
604,91	1279,98
605,10	1327,08
605,30	1322,99
605,49	1318,89
605,68	1286,12
605,87	1277,93
606,07	1265,64
606,26	1273,84
606,45	1290,22
606,64	1257,45
606,84	1333,23
607,03	1267,69
607,22	1206,25
607,41	1331,18
607,60	1273,84
607,80	1271,79
607,99	1265,64
608,18	1269,74
608,37	1290,22
608,56	1261,55
608,76	1306,60
608,95	1290,22
609,14	1320,94
609,33	1277,93
609,52	1308,65
609,72	1300,46
609,91	1327,08
610,10	1306,60
610,29	1314,80
610,48	1214,45
610,68	1335,28
610,87	1255,40
611,06	1290,22
611,25	1210,35
611,44	1343,47
611,63	1277,93
611,83	1345,52
612,02	1296,36
612,21	1286,12
612,40	1284,08
612,59	1273,84
612,79	1200,11
612,98	1282,03
613,17	1284,08
613,36	1265,64
613,55	1347,56
613,74	1267,69
613,93	1300,46
614,13	1273,84
614,32	1273,84
614,51	1198,06
614,70	1310,70
614,89	1300,46
615,08	1288,17
615,28	1363,95
615,47	1288,17
615,66	1288,17
615,85	1322,99
616,04	1355,76
616,23	1267,69
616,42	1247,21
616,62	1245,16
616,81	1318,89
617,00	1306,60
617,19	1322,99
617,38	1271,79
617,57	1234,93
617,76	1294,32
617,95	1288,17
618,15	1277,93
618,34	1210,35
618,53	1265,64
618,72	1279,98
618,91	1220,59
619,10	1314,80
619,29	1320,94
619,48	1263,60
619,68	1275,88
619,87	1290,22
620,06	1202,16
620,25	1294,32
620,44	1275,88
620,63	1296,36
620,82	1265,64
621,01	1363,95
621,20	1288,17
621,39	1261,55
621,59	1265,64
621,78	1265,64
621,97	1271,79
622,16	1322,99
622,35	1312,75
622,54	1269,74
622,73	1271,79
622,92	1310,70
623,11	1298,41
623,30	1232,88
623,49	1314,80
623,68	1310,70
623,88	1314,80
624,07	1216,49
624,26	1263,60
624,45	1277,93
624,64	1320,94
624,83	1318,89
625,02	1273,84
625,21	1263,60
625,40	1245,16
625,59	1312,75
625,78	1259,50
625,97	1312,75
626,16	1202,16
626,35	1306,60
626,54	1322,99
626,74	1290,22
626,93	1275,88
627,12	1288,17
627,31	1255,40
627,50	1337,32
627,69	1296,36
627,88	1230,83
628,07	1333,23
628,26	1257,45
628,45	1302,51
628,64	1282,03
628,83	1308,65
629,02	1320,94
629,21	1251,31
629,40	1290,22
629,59	1279,98
629,78	1300,46
629,97	1196,01
630,16	1339,37
630,35	1257,45
630,54	1249,26
630,73	1279,98
630,92	1322,99
631,11	1310,70
631,30	1327,08
631,49	1265,64
631,68	1366,00
631,87	1712,10
632,06	2602,97
632,25	2004,96
632,44	2076,64
632,63	3055,57
632,82	5461,93
633,01	7661,45
633,20	9242,48
633,39	8773,50
633,58	10588,00
633,77	12183,37
633,96	16320,26
634,15	31063,59
634,34	39294,38
634,53	35171,82
634,72	25687,67
634,91	17661,68
635,10	11902,79
635,29	7491,47
635,48	5146,55
635,67	3758,02
635,86	2613,21
636,05	2072,54
636,24	1681,38
636,43	1505,26
636,62	1378,28
636,81	1386,47
637,00	1361,90
637,19	1361,90
637,38	1327,08
637,57	1275,88
637,76	1312,75
637,95	1345,52
638,14	1298,41
638,33	1257,45
638,52	1271,79
638,71	1290,22
638,89	1257,45
639,08	1329,13
639,27	1333,23
639,46	1308,65
639,65	1320,94
639,84	1259,50
640,03	1343,47
640,22	1298,41
640,41	1394,67
640,60	1327,08
640,79	1286,12
640,98	1294,32
641,17	1279,98
641,36	1257,45
641,55	1288,17
641,74	1404,91
641,92	1253,36
642,11	1320,94
642,30	1316,84
642,49	1232,88
642,68	1228,78
642,87	1363,95
643,06	1333,23
643,25	1263,60
643,44	1327,08
643,63	1259,50
643,82	1300,46
644,00	1253,36
644,19	1267,69
644,38	1337,32
644,57	1284,08
644,76	1263,60
644,95	1224,69
645,14	1239,02
645,33	1273,84
645,52	1224,69
645,71	1271,79
645,89	1284,08
646,08	1273,84
646,27	1224,69
646,46	1275,88
646,65	1310,70
646,84	1325,04
647,03	1284,08
647,22	1247,21
647,40	1345,52
647,59	1243,12
647,78	1214,45
647,97	1314,80
648,16	1193,97
648,35	1390,57
648,54	1249,26
648,73	1271,79
648,91	1296,36
649,10	1269,74
649,29	1259,50
649,48	1286,12
649,67	1275,88
649,86	1251,31
650,05	1224,69
650,23	1325,04
650,42	1298,41
650,61	1218,54
650,80	1224,69
650,99	1288,17
651,18	1226,73
651,36	1331,18
651,55	1275,88
651,74	1273,84
651,93	1275,88
652,12	1224,69
652,31	1292,27
652,49	1263,60
652,68	1279,98
652,87	1290,22
653,06	1271,79
653,25	1337,32
653,44	1249,26
653,62	1259,50
653,81	1318,89
654,00	1249,26
654,19	1265,64
654,38	1253,36
654,56	1271,79
654,75	1314,80
654,94	1337,32
655,13	1286,12
655,32	1302,51
655,51	1257,45
655,69	1286,12
655,88	1298,41
656,07	1218,54
656,26	1314,80
656,45	1273,84
656,63	1230,83
656,82	1312,75
657,01	1312,75
657,20	1302,51
657,38	1314,80
657,57	1241,07
657,76	1208,30
657,95	1220,59
658,14	1206,25
658,32	1300,46
658,51	1245,16
658,70	1271,79
658,89	1296,36
659,08	1296,36
659,26	1314,80
659,45	1234,93
659,64	1298,41
659,83	1269,74
660,01	1304,56
660,20	1230,83
660,39	1302,51
660,58	1255,40
660,76	1247,21
660,95	1302,51
661,14	1265,64
661,33	1243,12
661,51	1243,12
661,70	1277,93
661,89	1306,60
662,08	1296,36
662,26	1302,51
662,45	1284,08
662,64	1304,56
662,83	1284,08
663,01	1261,55
663,20	1347,56
663,39	1359,85
663,58	1359,85
663,76	1212,40
663,95	1286,12
664,14	1273,84
664,32	1261,55
664,51	1232,88
664,70	1224,69
664,89	1257,45
665,07	1259,50
665,26	1277,93
665,45	1263,60
665,64	1282,03
665,82	1298,41
666,01	1312,75
666,20	1292,27
666,38	1218,54
666,57	1310,70
666,76	1279,98
666,95	1210,35
667,13	1310,70
667,32	1304,56
667,51	1284,08
667,69	1322,99
667,88	1263,60
668,07	1220,59
668,25	1331,18
668,44	1257,45
668,63	1286,12
668,81	1292,27
669,00	1288,17
669,19	1345,52
669,38	1275,88
669,56	1232,88
669,75	1273,84
669,94	1273,84
670,12	1247,21
670,31	1288,17
670,50	1263,60
670,68	1243,12
670,87	1284,08
671,06	1226,73
671,24	1261,55
671,43	1228,78
671,62	1247,21
671,80	1218,54
671,99	1269,74
672,18	1271,79
672,36	1267,69
672,55	1300,46
672,74	1277,93
672,92	1269,74
673,11	1273,84
673,29	1308,65
673,48	1232,88
673,67	1273,84
673,85	1296,36
674,04	1230,83
674,23	1247,21
674,41	1298,41
674,60	1222,64
674,79	1277,93
674,97	1355,76
675,16	1232,88
675,34	1257,45
675,53	1241,07
675,72	1228,78
675,90	1298,41
676,09	1263,60
676,28	1269,74
676,46	1245,16
676,65	1298,41
676,83	1269,74
677,02	1273,84
677,21	1284,08
677,39	1241,07
677,58	1208,30
677,77	1298,41
677,95	1255,40
678,14	1265,64
678,32	1253,36
678,51	1230,83
678,70	1277,93
678,88	1322,99
679,07	1282,03
679,25	1302,51
679,44	1290,22
679,63	1249,26
679,81	1251,31
680,00	1273,84
680,18	1294,32
680,37	1265,64
680,55	1216,49
680,74	1275,88
680,93	1257,45
681,11	1234,93
681,30	1216,49
681,48	1253,36
681,67	1265,64
681,85	1318,89
682,04	1239,02
682,23	1259,50
682,41	1290,22
682,60	1187,82
682,78	1282,03
682,97	1320,94
683,15	1314,80
683,34	1294,32
683,53	1230,83
683,71	1298,41
683,90	1253,36
684,08	1353,71
684,27	1286,12
684,45	1239,02
684,64	1322,99
684,82	1265,64
685,01	1226,73
685,19	1294,32
685,38	1271,79
685,57	1220,59
685,75	1302,51
685,94	1261,55
686,12	1218,54
686,31	1200,11
686,49	1320,94
686,68	1263,60
686,86	1212,40
687,05	1257,45
687,23	1286,12
687,42	1255,40
687,60	1302,51
687,79	1255,40
687,97	1355,76
688,16	1214,45
688,34	1279,98
688,53	1232,88
688,71	1306,60
688,90	1267,69
689,08	1286,12
689,27	1282,03
689,45	1271,79
689,64	1245,16
689,82	1148,91
690,01	1284,08
690,19	1359,85
690,38	1279,98
690,56	1308,65
690,75	1241,07
690,93	1232,88
691,12	1183,73
691,30	1228,78
691,49	1222,64
691,67	1275,88
691,86	1255,40
692,04	1267,69
692,23	1220,59
692,41	1187,82
692,60	1318,89
692,78	1316,84
692,97	1320,94
693,15	1224,69
693,34	1198,06
693,52	1294,32
693,71	1298,41
693,89	1292,27
694,08	1261,55
694,26	1239,02
694,44	1290,22
694,63	1263,60
694,81	1277,93
695,00	1304,56
695,18	1261,55
695,37	1226,73
695,55	1226,73
695,74	1320,94
695,92	1253,36
696,10	1241,07
696,29	1255,40
696,47	1261,55
696,66	1212,40
696,84	1257,45
697,03	1282,03
697,21	1247,21
697,40	1325,04
697,58	1243,12
697,76	1239,02
697,95	1298,41
698,13	1226,73
698,32	1249,26
698,50	1288,17
698,68	1255,40
698,87	1292,27
699,05	1275,88
699,24	1263,60
699,42	1212,40
699,61	1234,93
699,79	1257,45
699,97	1339,37
700,16	1279,98
700,34	1232,88
700,53	1275,88
700,71	1220,59
700,89	1269,74
701,08	1241,07
701,26	1241,07
701,45	1310,70
701,63	1282,03
701,81	1329,13
702,00	1290,22
702,18	1241,07
702,37	1292,27
702,55	1267,69
702,73	1257,45
702,92	1267,69
703,10	1286,12
703,28	1269,74
703,47	1320,94
703,65	1335,28
703,84	1271,79
704,02	1296,36
704,20	1279,98
704,39	1185,77
704,57	1267,69
704,75	1191,92
704,94	1273,84
705,12	1249,26
705,30	1232,88
705,49	1257,45
705,67	1232,88
705,86	1286,12
706,04	1298,41
706,22	1267,69
706,41	1269,74
706,59	1253,36
706,77	1325,04
706,96	1290,22
707,14	1327,08
707,32	1243,12
707,51	1216,49
707,69	1212,40
707,87	1314,80
708,06	1325,04
708,24	1206,25
708,42	1265,64
708,61	1275,88
708,79	1224,69
708,97	1318,89
709,16	1329,13
709,34	1259,50
709,52	1236,97
709,71	1279,98
709,89	1298,41
710,07	1312,75
710,26	1218,54
710,44	1355,76
710,62	1253,36
710,80	1263,60
710,99	1234,93
711,17	1294,32
711,35	1253,36
711,54	1286,12
711,72	1304,56
711,90	1312,75
712,09	1245,16
712,27	1302,51
712,45	1273,84
712,63	1288,17
712,82	1322,99
713,00	1247,21
713,18	1210,35
713,37	1261,55
713,55	1257,45
713,73	1279,98
713,91	1273,84
714,10	1204,21
714,28	1208,30
714,46	1292,27
714,65	1241,07
714,83	1267,69
715,01	1312,75
715,19	1204,21
715,38	1308,65
715,56	1300,46
715,74	1298,41
715,92	1282,03
716,11	1263,60
716,29	1294,32
716,47	1230,83
716,65	1300,46
716,84	1335,28
717,02	1306,60
717,20	1224,69
717,38	1327,08
717,57	1288,17
717,75	1286,12
717,93	1228,78
718,11	1277,93
718,30	1230,83
718,48	1263,60
718,66	1249,26
718,84	1298,41
719,03	1210,35
719,21	1355,76
719,39	1263,60
719,57	1314,80
719,75	1302,51
719,94	1349,61
720,12	1191,92
720,30	1196,01
720,48	1355,76
720,67	1261,55
720,85	1320,94
721,03	1171,44
721,21	1249,26
721,39	1304,56
721,58	1279,98
721,76	1183,73
721,94	1230,83
722,12	1275,88
722,30	1255,40
722,49	1308,65
722,67	1247,21
722,85	1241,07
723,03	1249,26
723,21	1261,55
723,40	1302,51
723,58	1331,18
723,76	1282,03
723,94	1277,93
724,12	1304,56
724,30	1255,40
724,49	1294,32
724,67	1286,12
724,85	1236,97
725,03	1236,97
725,21	1253,36
725,40	1224,69
725,58	1304,56
725,76	1279,98
725,94	1255,40
726,12	1312,75
726,30	1335,28
726,49	1232,88
726,67	1288,17
726,85	1259,50
727,03	1292,27
727,21	1265,64
727,39	1339,37
727,57	1245,16
727,76	1183,73
727,94	1271,79
728,12	1325,04
728,30	1269,74
728,48	1236,97
728,66	1279,98
728,84	1198,06
729,03	1202,16
729,21	1228,78
729,39	1263,60
729,57	1230,83
729,75	1255,40
729,93	1263,60
730,11	1224,69
730,30	1232,88
730,48	1263,60
730,66	1345,52
730,84	1263,60
731,02	1271,79
731,20	1265,64
731,38	1312,75
731,56	1230,83
731,74	1265,64
731,93	1298,41
732,11	1263,60
732,29	1191,92
732,47	1275,88
732,65	1294,32
732,83	1218,54
733,01	1304,56
733,19	1279,98
733,37	1320,94
733,56	1208,30
733,74	1396,71
733,92	1300,46
734,10	1286,12
734,28	1263,60
734,46	1271,79
734,64	1228,78
734,82	1265,64
735,00	1279,98
735,18	1241,07
735,36	1257,45
735,54	1259,50
735,73	1202,16
735,91	1271,79
736,09	1216,49
736,27	1247,21
736,45	1247,21
736,63	1228,78
736,81	1265,64
736,99	1327,08
737,17	1232,88
737,35	1261,55
737,53	1226,73
737,71	1353,71
737,89	1218,54
738,07	1265,64
738,25	1273,84
738,43	1310,70
738,61	1257,45
738,80	1239,02
738,98	1302,51
739,16	1298,41
739,34	1255,40
739,52	1214,45
739,70	1255,40
739,88	1191,92
740,06	1304,56
740,24	1271,79
740,42	1179,63
740,60	1206,25
740,78	1228,78
740,96	1290,22
741,14	1312,75
741,32	1257,45
741,50	1204,21
741,68	1325,04
741,86	1284,08
742,04	1277,93
742,22	1349,61
742,40	1296,36
742,58	1288,17
742,76	1206,25
742,94	1325,04
743,12	1298,41
743,30	1327,08
743,48	1339,37
743,66	1279,98
743,84	1202,16
744,02	1224,69
744,20	1259,50
744,38	1226,73
744,56	1255,40
744,74	1284,08
744,92	1263,60
745,10	1193,97
745,28	1302,51
745,46	1196,01
745,64	1372,14
745,82	1257,45
746,00	1331,18
746,18	1296,36
746,36	1206,25
746,54	1228,78
746,72	1275,88
746,90	1288,17
747,08	1284,08
747,26	1306,60
747,44	1261,55
747,62	1314,80
747,80	1232,88
747,98	1191,92
748,15	1279,98
748,33	1224,69
748,51	1255,40
748,69	1273,84
748,87	1286,12
749,05	1243,12
749,23	1271,79
749,41	1308,65
749,59	1296,36
749,77	1294,32
749,95	1261,55
750,13	1265,64
750,31	1322,99
750,49	1204,21
750,67	1228,78
750,85	1241,07
751,03	1267,69
751,20	1284,08
751,38	1249,26
751,56	1308,65
751,74	1202,16
751,92	1267,69
752,10	1241,07
752,28	1349,61
752,46	1284,08
752,64	1282,03
752,82	1148,91
753,00	1259,50
753,18	1245,16
753,35	1322,99
753,53	1296,36
753,71	1232,88
753,89	1314,80
754,07	1239,02
754,25	1269,74
754,43	1241,07
754,61	1300,46
754,79	1277,93
754,97	1251,31
755,14	1253,36
755,32	1247,21
755,50	1232,88
755,68	1265,64
755,86	1249,26
756,04	1208,30
756,22	1208,30
756,40	1318,89
756,57	1257,45
756,75	1226,73
756,93	1247,21
757,11	1304,56
757,29	1222,64
757,47	1247,21
757,65	1228,78
757,82	1290,22
758,00	1316,84
758,18	1222,64
758,36	1298,41
758,54	1300,46
758,72	1224,69
758,90	1331,18
759,07	1230,83
759,25	1232,88
759,43	1247,21
759,61	1290,22
759,79	1318,89
759,97	1263,60
760,15	1306,60
760,32	1261,55
760,50	1298,41
760,68	1187,82
760,86	1232,88
761,04	1267,69
761,22	1318,89
761,39	1294,32
761,57	1308,65
761,75	1245,16
761,93	1284,08
762,11	1234,93
762,28	1282,03
762,46	1255,40
762,64	1212,40
762,82	1300,46
763,00	1218,54
763,18	1329,13
763,35	1306,60
763,53	1298,41
763,71	1329,13
763,89	1271,79
764,07	1269,74
764,24	1257,45
764,42	1245,16
764,60	1308,65
764,78	1239,02
764,96	1310,70
765,13	1310,70
765,31	1343,47
765,49	1308,65
765,67	1353,71
765,84	1308,65
766,02	1314,80
766,20	1271,79
766,38	1230,83
766,56	1294,32
766,73	1224,69
766,91	1284,08
767,09	1273,84
767,27	1310,70
767,44	1304,56
767,62	1298,41
767,80	1263,60
767,98	1263,60
768,15	1273,84
768,33	1257,45
768,51	1288,17
768,69	1257,45
768,87	1290,22
769,04	1273,84
769,22	1298,41
769,40	1306,60
769,58	1320,94
769,75	1265,64
769,93	1259,50
770,11	1269,74
770,28	1206,25
770,46	1318,89
770,64	1279,98
770,82	1269,74
770,99	1222,64
771,17	1179,63
771,35	1230,83
771,53	1241,07
771,70	1243,12
771,88	1239,02
772,06	1304,56
772,23	1247,21
772,41	1288,17
772,59	1177,58
772,77	1187,82
772,94	1277,93
773,12	1216,49
773,30	1275,88
773,47	1298,41
773,65	1271,79
773,83	1331,18
774,01	1288,17
774,18	1312,75
774,36	1282,03
774,54	1269,74
774,71	1193,97
774,89	1208,30
775,07	1300,46
775,24	1275,88
775,42	1187,82
775,60	1255,40
775,78	1269,74
775,95	1271,79
776,13	1263,60
776,31	1335,28
776,48	1202,16
776,66	1312,75
776,84	1284,08
777,01	1193,97
777,19	1300,46
777,37	1267,69
777,54	1216,49
777,72	1257,45
777,90	1226,73
778,07	1322,99
778,25	1200,11
778,43	1298,41
778,60	1265,64
778,78	1257,45
778,96	1322,99
779,13	1169,39
779,31	1245,16
779,49	1253,36
779,66	1269,74
779,84	1259,50
780,01	1224,69
780,19	1265,64
780,37	1271,79
780,54	1251,31
780,72	1175,53
780,90	1261,55
781,07	1241,07
781,25	1271,79
781,43	1320,94
781,60	1277,93
781,78	1249,26
781,95	1214,45
782,13	1236,97
782,31	1316,84
782,48	1286,12
782,66	1325,04
782,83	1265,64
783,01	1230,83
783,19	1253,36
783,36	1269,74
783,54	1325,04
783,72	1316,84
783,89	1228,78
784,07	1282,03
784,24	1294,32
784,42	1316,84
784,60	1243,12
784,77	1316,84
784,95	1322,99
785,12	1249,26
785,30	1228,78
785,47	1273,84
785,65	1279,98
785,83	1288,17
786,00	1247,21
786,18	1306,60
786,35	1243,12
786,53	1275,88
786,71	1263,60
786,88	1206,25
787,06	1286,12
787,23	1286,12
787,41	1273,84
787,58	1290,22
787,76	1253,36
787,94	1265,64
788,11	1193,97
788,29	1245,16
788,46	1212,40
788,64	1275,88
788,81	1286,12
788,99	1249,26
789,16	1206,25
789,34	1257,45
789,52	1239,02
789,69	1269,74
789,87	1294,32
790,04	1265,64
790,22	1210,35
790,39	1322,99
790,57	1292,27
790,74	1232,88
790,92	1198,06
791,09	1286,12
791,27	1251,31
791,44	1282,03
791,62	1251,31
791,79	1308,65
791,97	1189,87
792,15	1257,45
792,32	1214,45
792,50	1298,41
792,67	1245,16
792,85	1343,47
793,02	1271,79
793,20	1306,60
793,37	1249,26
793,55	1275,88
793,72	1222,64
793,90	1290,22
794,07	1212,40
794,25	1230,83
794,42	1275,88
794,60	1302,51
794,77	1337,32
794,95	1343,47
795,12	1290,22
795,30	1243,12
795,47	1236,97
795,65	1263,60
795,82	1214,45
796,00	1257,45
796,17	1165,29
796,34	1312,75
796,52	1265,64
796,69	1224,69
796,87	1218,54
797,04	1271,79
797,22	1296,36
797,39	1239,02
797,57	1314,80
797,74	1339,37
797,92	1310,70
798,09	1241,07
798,27	1343,47
798,44	1282,03
798,62	1310,70
798,79	1245,16
798,96	1265,64
799,14	1333,23
799,31	1257,45
799,49	1236,97
799,66	1282,03
799,84	1214,45
800,01	1310,70
800,19	1329,13
800,36	1220,59
800,53	1273,84
800,71	1279,98
800,88	1263,60
801,06	1294,32
801,23	1282,03
801,41	1241,07
801,58	1322,99
801,75	1273,84
801,93	1312,75
802,10	1214,45
802,28	1353,71
802,45	1193,97
802,63	1298,41
802,80	1263,60
802,97	1263,60
803,15	1302,51
803,32	1290,22
803,50	1226,73
803,67	1241,07
803,84	1236,97
804,02	1228,78
804,19	1245,16
804,37	1263,60
804,54	1288,17
804,71	1204,21
804,89	1308,65
805,06	1265,64
805,24	1294,32
805,41	1265,64
805,58	1220,59
805,76	1265,64
805,93	1165,29
806,10	1224,69
806,28	1290,22
806,45	1251,31
806,63	1284,08
806,80	1247,21
806,97	1275,88
807,15	1284,08
807,32	1263,60
807,49	1257,45
807,67	1310,70
807,84	1267,69
808,01	1230,83
808,19	1208,30
808,36	1302,51
808,54	1200,11
808,71	1351,66
808,88	1296,36
809,06	1300,46
809,23	1320,94
809,40	1275,88
809,58	1318,89
809,75	1282,03
809,92	1208,30
810,10	1220,59
810,27	1245,16
810,44	1239,02
810,62	1216,49
810,79	1308,65
810,96	1236,97
811,14	1290,22
811,31	1308,65
811,48	1288,17
811,66	1247,21
811,83	1314,80
812,00	1245,16
812,18	1265,64
812,35	1339,37
812,52	1239,02
812,69	1249,26
812,87	1218,54
813,04	1275,88
813,21	1261,55
813,39	1294,32
813,56	1214,45
813,73	1322,99
813,91	1165,29
814,08	1224,69
814,25	1234,93
814,42	1200,11
814,60	1245,16
814,77	1286,12
814,94	1288,17
815,12	1189,87
815,29	1265,64
815,46	1292,27
815,63	1214,45
815,81	1247,21
815,98	1257,45
816,15	1322,99
816,33	1312,75
816,50	1286,12
816,67	1322,99
816,84	1239,02
817,02	1288,17
817,19	1224,69
817,36	1271,79
817,53	1265,64
817,71	1282,03
817,88	1214,45
818,05	1290,22
818,22	1259,50
818,40	1232,88
818,57	1249,26
818,74	1294,32
818,91	1185,77
819,09	1251,31
819,26	1361,90
819,43	1220,59
819,60	1335,28
819,78	1247,21
819,95	1271,79
820,12	1314,80
820,29	1331,18
820,47	1310,70
820,64	1232,88
820,81	1275,88
820,98	1275,88
821,15	1212,40
821,33	1247,21
821,50	1230,83
821,67	1304,56
821,84	1210,35
822,02	1286,12
822,19	1216,49
822,36	1312,75
822,53	1275,88
822,70	1200,11
822,88	1208,30
823,05	1357,80
823,22	1288,17
823,39	1331,18
823,56	1247,21
823,74	1220,59
823,91	1349,61
824,08	1277,93
824,25	1263,60
824,42	1275,88
824,60	1255,40
824,77	1294,32
824,94	1239,02
825,11	1288,17
825,28	1198,06
825,45	1259,50
825,63	1208,30
825,80	1329,13
825,97	1282,03
826,14	1339,37
826,31	1216,49
826,48	1282,03
826,66	1335,28
826,83	1236,97
827,00	1236,97
827,17	1265,64
827,34	1267,69
827,51	1263,60
827,69	1224,69
827,86	1361,90
828,03	1230,83
828,20	1214,45
828,37	1316,84
828,54	1302,51
828,71	1200,11
828,89	1257,45
829,06	1224,69
829,23	1279,98
829,40	1187,82
829,57	1187,82
829,74	1322,99
829,91	1273,84
830,09	1232,88
830,26	1269,74
830,43	1279,98
830,60	1322,99
830,77	1339,37
830,94	1247,21
831,11	1308,65
831,28	1243,12
831,46	1239,02
831,63	1218,54
831,80	1263,60
831,97	1294,32
832,14	1159,15
832,31	1265,64
832,48	1318,89
832,65	1255,40
832,82	1279,98
832,99	1279,98
833,17	1220,59
833,34	1277,93
833,51	1245,16
833,68	1257,45
833,85	1339,37
834,02	1357,80
834,19	1208,30
834,36	1214,45
834,53	1269,74
834,70	1224,69
834,87	1218,54
835,04	1232,88
835,22	1220,59
835,39	1310,70
835,56	1255,40
835,73	1296,36
835,90	1228,78
836,07	1271,79
836,24	1239,02
836,41	1239,02
836,58	1247,21
836,75	1275,88
836,92	1292,27
837,09	1302,51
837,26	1226,73
837,43	1267,69
837,60	1294,32
837,77	1273,84
837,94	1267,69
838,12	1275,88
838,29	1265,64
838,46	1230,83
838,63	1273,84
838,80	1263,60
838,97	1251,31
839,14	1339,37
839,31	1275,88
839,48	1271,79
839,65	1312,75
839,82	1282,03
839,99	1296,36
840,16	1187,82
840,33	1249,26
840,50	1253,36
840,67	1265,64
840,84	1269,74
841,01	1282,03
841,18	1277,93
841,35	1304,56
841,52	1218,54
841,69	1234,93
841,86	1259,50
842,03	1208,30
842,20	1306,60
842,37	1232,88
842,54	1239,02
842,71	1290,22
842,88	1245,16
843,05	1232,88
843,22	1294,32
843,39	1286,12
843,56	1263,60
843,73	1298,41
843,90	1232,88
844,07	1234,93
844,24	1296,36
844,41	1298,41
844,58	1314,80
844,75	1230,83
844,92	1312,75
845,09	1224,69
845,26	1290,22
845,43	1247,21
845,60	1277,93
845,77	1189,87
845,94	1241,07
846,10	1265,64
846,27	1224,69
846,44	1155,05
846,61	1263,60
846,78	1251,31
846,95	1325,04
847,12	1198,06
847,29	1277,93
847,46	1294,32
847,63	1167,34
847,80	1361,90
847,97	1214,45
848,14	1243,12
848,31	1241,07
848,48	1187,82
848,65	1255,40
848,82	1224,69
848,98	1214,45
849,15	1255,40
849,32	1198,06
849,49	1222,64
849,66	1167,34
849,83	1296,36
850,00	1263,60
850,17	1263,60
850,34	1239,02
850,51	1249,26
850,68	1253,36
850,85	1335,28
851,01	1288,17
851,18	1230,83
851,35	1331,18
851,52	1269,74
851,69	1247,21
851,86	1239,02
852,03	1290,22
852,20	1284,08
852,37	1300,46
852,53	1310,70
852,70	1200,11
852,87	1255,40
853,04	1304,56
853,21	1265,64
853,38	1236,97
853,55	1185,77
853,72	1333,23
853,89	1269,74
854,05	1239,02
854,22	1277,93
854,39	1312,75
854,56	1255,40
854,73	1255,40
854,90	1232,88
855,07	1282,03
855,23	1275,88
855,40	1298,41
855,57	1290,22
855,74	1271,79
855,91	1239,02
856,08	1241,07
856,25	1234,93
856,41	1245,16
856,58	1290,22
856,75	1263,60
856,92	1261,55
857,09	1226,73
857,26	1253,36
857,42	1310,70
857,59	1308,65
857,76	1167,34
857,93	1322,99
858,10	1224,69
858,27	1288,17
858,43	1359,85
858,60	1339,37
858,77	1257,45
858,94	1265,64
859,11	1265,64
859,27	1226,73
859,44	1230,83
859,61	1247,21
859,78	1232,88
859,95	1214,45
860,12	1277,93
860,28	1232,88
860,45	1265,64
860,62	1216,49
860,79	1302,51
860,95	1286,12
861,12	1200,11
861,29	1257,45
861,46	1312,75
861,63	1273,84
861,79	1224,69
861,96	1282,03
862,13	1236,97
862,30	1271,79
862,47	1308,65
862,63	1282,03
862,80	1267,69
862,97	1267,69
863,14	1329,13
863,30	1267,69
863,47	1284,08
863,64	1212,40
863,81	1292,27
863,97	1329,13
864,14	1277,93
864,31	1263,60
864,48	1251,31
864,65	1204,21
864,81	1228,78
864,98	1208,30
865,15	1306,60
865,32	1230,83
865,48	1249,26
865,65	1284,08
865,82	1216,49
865,98	1236,97
866,15	1255,40
866,32	1191,92
866,49	1290,22
866,65	1212,40
866,82	1273,84
866,99	1286,12
867,16	1296,36
867,32	1222,64
867,49	1339,37
867,66	1267,69
867,83	1269,74
867,99	1228,78
868,16	1239,02
868,33	1331,18
868,49	1343,47
868,66	1282,03
868,83	1282,03
868,99	1261,55
869,16	1304,56
869,33	1243,12
869,50	1318,89
869,66	1265,64
869,83	1200,11
870,00	1189,87
870,16	1277,93
870,33	1296,36
870,50	1263,60
870,66	1236,97
870,83	1298,41
871,00	1265,64
871,17	1286,12
871,33	1212,40
871,50	1370,09
871,67	1249,26
871,83	1200,11
872,00	1263,60
872,17	1191,92
872,33	1271,79
872,50	1333,23
872,67	1234,93
872,83	1257,45
873,00	1325,04
873,17	1208,30
873,33	1284,08
873,50	1300,46
873,67	1298,41
873,83	1226,73
874,00	1224,69
874,16	1271,79
874,33	1306,60
874,50	1363,95
874,66	1222,64
874,83	1273,84
875,00	1257,45
875,16	1329,13
875,33	1304,56
875,50	1267,69
875,66	1257,45
875,83	1249,26
875,99	1230,83
876,16	1241,07
876,33	1261,55
876,49	1279,98
876,66	1288,17
876,83	1230,83
876,99	1193,97
877,16	1245,16
877,32	1290,22
877,49	1296,36
877,66	1290,22
877,82	1247,21
877,99	1226,73
878,15	1333,23
878,32	1243,12
878,49	1257,45
878,65	1279,98
878,82	1310,70
878,98	1224,69
879,15	1290,22
879,32	1249,26
879,48	1298,41
879,65	1226,73
879,81	1314,80
879,98	1171,44
880,15	1284,08
880,31	1302,51
880,48	1245,16
880,64	1302,51
880,81	1294,32
880,97	1298,41
881,14	1261,55
881,31	1359,85
881,47	1273,84
881,64	1191,92
881,80	1212,40
881,97	1259,50
882,13	1294,32
882,30	1181,68
882,47	1318,89
882,63	1314,80
882,80	1232,88
882,96	1310,70
883,13	1263,60
883,29	1220,59
883,46	1331,18
883,62	1322,99
883,79	1198,06
883,95	1245,16
884,12	1224,69
884,29	1363,95
884,45	1208,30
884,62	1206,25
884,78	1193,97
884,95	1259,50
885,11	1265,64
885,28	1255,40
885,44	1304,56
885,61	1239,02
885,77	1314,80
885,94	1327,08
886,10	1234,93
886,27	1243,12
886,43	1277,93
886,60	1226,73
886,76	1243,12
886,93	1269,74
887,09	1314,80
887,26	1226,73
887,42	1275,88
887,59	1218,54
887,75	1341,42
887,92	1304,56
888,08	1224,69
888,25	1210,35
888,41	1275,88
888,58	1183,73
888,74	1273,84
888,91	1304,56
>>>>>End Processed Spectral Data<<<<<
