SpectraSuite Data File
++++++++++++++++++++++++++++++++++++
Date: Sun Apr 03 19:55:31 CEST 2016
User: root
Dark Spectrum Present: No
Reference Spectrum Present: No
Number of Sampled Component Spectra: 1
Spectrometers: USB4C02835
Integration Time (usec): 10000 (USB4C02835)
Spectra Averaged: 1 (USB4C02835)
Boxcar Smoothing: 0 (USB4C02835)
Correct for Electrical Dark: No (USB4C02835)
Strobe/Lamp Enabled: No (USB4C02835)
Correct for Detector Non-linearity: No (USB4C02835)
Correct for Stray Light: No (USB4C02835)
Number of Pixels in Processed Spectrum: 3648
>>>>>Begin Processed Spectral Data<<<<<
177,47	1259,50
177,69	1259,50
177,91	1259,50
178,13	1245,16
178,36	1269,74
178,58	1282,03
178,80	1271,79
179,02	1351,66
179,24	1255,40
179,46	1253,36
179,68	1325,04
179,90	1314,80
180,13	1189,87
180,35	1269,74
180,57	1345,52
180,79	1273,84
181,01	1249,26
181,23	1355,76
181,45	1284,08
181,67	1312,75
181,90	1239,02
182,12	1263,60
182,34	1304,56
182,56	1218,54
182,78	1241,07
183,00	1335,28
183,22	1302,51
183,44	1284,08
183,66	1241,07
183,89	1224,69
184,11	1265,64
184,33	1269,74
184,55	1224,69
184,77	1236,97
184,99	1312,75
185,21	1273,84
185,43	1366,00
185,65	1296,36
185,87	1234,93
186,10	1228,78
186,32	1228,78
186,54	1206,25
186,76	1288,17
186,98	1210,35
187,20	1312,75
187,42	1298,41
187,64	1286,12
187,86	1349,61
188,08	1273,84
188,30	1331,18
188,52	1269,74
188,75	1325,04
188,97	1249,26
189,19	1257,45
189,41	1247,21
189,63	1214,45
189,85	1230,83
190,07	1183,73
190,29	1265,64
190,51	1206,25
190,73	1255,40
190,95	1279,98
191,17	1306,60
191,39	1251,31
191,61	1208,30
191,84	1245,16
192,06	1325,04
192,28	1226,73
192,50	1314,80
192,72	1290,22
192,94	1206,25
193,16	1314,80
193,38	1308,65
193,60	1236,97
193,82	1335,28
194,04	1310,70
194,26	1339,37
194,48	1249,26
194,70	1314,80
194,92	1222,64
195,14	1239,02
195,36	1196,01
195,58	1327,08
195,80	1261,55
196,02	1187,82
196,24	1179,63
196,46	1337,32
196,69	1290,22
196,91	1292,27
197,13	1236,97
197,35	1290,22
197,57	1302,51
197,79	1239,02
198,01	1245,16
198,23	1216,49
198,45	1298,41
198,67	1271,79
198,89	1230,83
199,11	1241,07
199,33	1245,16
199,55	1251,31
199,77	1232,88
199,99	1245,16
200,21	1273,84
200,43	1292,27
200,65	1216,49
200,87	1255,40
201,09	1282,03
201,31	1232,88
201,53	1306,60
201,75	1216,49
201,97	1265,64
202,19	1220,59
202,41	1247,21
202,63	1216,49
202,85	1247,21
203,07	1314,80
203,29	1218,54
203,51	1294,32
203,73	1239,02
203,95	1302,51
204,17	1241,07
204,39	1288,17
204,61	1257,45
204,83	1286,12
205,05	1337,32
205,27	1191,92
205,49	1284,08
205,71	1255,40
205,93	1220,59
206,15	1206,25
206,37	1312,75
206,59	1228,78
206,81	1343,47
207,03	1255,40
207,25	1255,40
207,47	1273,84
207,69	1263,60
207,91	1290,22
208,13	1204,21
208,34	1265,64
208,56	1263,60
208,78	1273,84
209,00	1232,88
209,22	1230,83
209,44	1294,32
209,66	1214,45
209,88	1322,99
210,10	1247,21
210,32	1263,60
210,54	1298,41
210,76	1228,78
210,98	1273,84
211,20	1243,12
211,42	1216,49
211,64	1245,16
211,86	1282,03
212,08	1263,60
212,30	1288,17
212,52	1243,12
212,74	1243,12
212,96	1331,18
213,17	1339,37
213,39	1316,84
213,61	1304,56
213,83	1271,79
214,05	1255,40
214,27	1308,65
214,49	1261,55
214,71	1255,40
214,93	1296,36
215,15	1304,56
215,37	1329,13
215,59	1292,27
215,81	1222,64
216,03	1245,16
216,24	1267,69
216,46	1277,93
216,68	1277,93
216,90	1214,45
217,12	1288,17
217,34	1206,25
217,56	1275,88
217,78	1249,26
218,00	1208,30
218,22	1275,88
218,44	1290,22
218,66	1214,45
218,87	1277,93
219,09	1318,89
219,31	1187,82
219,53	1325,04
219,75	1247,21
219,97	1251,31
220,19	1302,51
220,41	1251,31
220,63	1239,02
220,85	1269,74
221,06	1300,46
221,28	1312,75
221,50	1267,69
221,72	1296,36
221,94	1286,12
222,16	1279,98
222,38	1226,73
222,60	1222,64
222,82	1226,73
223,03	1261,55
223,25	1271,79
223,47	1271,79
223,69	1267,69
223,91	1255,40
224,13	1300,46
224,35	1218,54
224,57	1288,17
224,78	1294,32
225,00	1298,41
225,22	1249,26
225,44	1249,26
225,66	1271,79
225,88	1312,75
226,10	1322,99
226,32	1271,79
226,53	1337,32
226,75	1275,88
226,97	1251,31
227,19	1302,51
227,41	1284,08
227,63	1288,17
227,85	1253,36
228,06	1294,32
228,28	1224,69
228,50	1265,64
228,72	1271,79
228,94	1282,03
229,16	1241,07
229,37	1325,04
229,59	1257,45
229,81	1288,17
230,03	1269,74
230,25	1314,80
230,47	1259,50
230,69	1224,69
230,90	1284,08
231,12	1136,62
231,34	1269,74
231,56	1163,25
231,78	1265,64
232,00	1273,84
232,21	1200,11
232,43	1245,16
232,65	1265,64
232,87	1294,32
233,09	1259,50
233,30	1251,31
233,52	1294,32
233,74	1318,89
233,96	1234,93
234,18	1263,60
234,40	1236,97
234,61	1263,60
234,83	1269,74
235,05	1306,60
235,27	1265,64
235,49	1310,70
235,70	1296,36
235,92	1361,90
236,14	1249,26
236,36	1239,02
236,58	1257,45
236,79	1232,88
237,01	1232,88
237,23	1279,98
237,45	1245,16
237,67	1251,31
237,88	1306,60
238,10	1265,64
238,32	1241,07
238,54	1286,12
238,76	1335,28
238,97	1222,64
239,19	1212,40
239,41	1284,08
239,63	1304,56
239,85	1230,83
240,06	1345,52
240,28	1294,32
240,50	1218,54
240,72	1175,53
240,93	1267,69
241,15	1239,02
241,37	1335,28
241,59	1249,26
241,81	1269,74
242,02	1269,74
242,24	1312,75
242,46	1347,56
242,68	1204,21
242,89	1267,69
243,11	1226,73
243,33	1228,78
243,55	1224,69
243,76	1314,80
243,98	1376,24
244,20	1226,73
244,42	1282,03
244,64	1214,45
244,85	1220,59
245,07	1269,74
245,29	1251,31
245,51	1263,60
245,72	1310,70
245,94	1257,45
246,16	1257,45
246,38	1243,12
246,59	1306,60
246,81	1292,27
247,03	1249,26
247,24	1247,21
247,46	1232,88
247,68	1263,60
247,90	1259,50
248,11	1259,50
248,33	1294,32
248,55	1306,60
248,77	1251,31
248,98	1277,93
249,20	1279,98
249,42	1314,80
249,64	1302,51
249,85	1253,36
250,07	1257,45
250,29	1290,22
250,50	1277,93
250,72	1269,74
250,94	1234,93
251,16	1290,22
251,37	1325,04
251,59	1337,32
251,81	1220,59
252,02	1286,12
252,24	1243,12
252,46	1236,97
252,68	1191,92
252,89	1253,36
253,11	1284,08
253,33	1236,97
253,54	1218,54
253,76	1288,17
253,98	1308,65
254,20	1249,26
254,41	1251,31
254,63	1198,06
254,85	1284,08
255,06	1269,74
255,28	1290,22
255,50	1265,64
255,71	1341,42
255,93	1316,84
256,15	1249,26
256,36	1259,50
256,58	1288,17
256,80	1239,02
257,02	1255,40
257,23	1269,74
257,45	1310,70
257,67	1241,07
257,88	1253,36
258,10	1269,74
258,32	1241,07
258,53	1241,07
258,75	1241,07
258,97	1265,64
259,18	1284,08
259,40	1271,79
259,62	1273,84
259,83	1273,84
260,05	1292,27
260,27	1288,17
260,48	1241,07
260,70	1284,08
260,92	1296,36
261,13	1275,88
261,35	1263,60
261,57	1200,11
261,78	1286,12
262,00	1249,26
262,22	1202,16
262,43	1292,27
262,65	1277,93
262,86	1265,64
263,08	1273,84
263,30	1267,69
263,51	1241,07
263,73	1314,80
263,95	1267,69
264,16	1292,27
264,38	1306,60
264,60	1263,60
264,81	1316,84
265,03	1245,16
265,25	1167,34
265,46	1314,80
265,68	1279,98
265,89	1257,45
266,11	1239,02
266,33	1267,69
266,54	1318,89
266,76	1298,41
266,98	1239,02
267,19	1241,07
267,41	1282,03
267,62	1255,40
267,84	1253,36
268,06	1331,18
268,27	1296,36
268,49	1329,13
268,70	1234,93
268,92	1316,84
269,14	1378,28
269,35	1247,21
269,57	1294,32
269,79	1239,02
270,00	1275,88
270,22	1259,50
270,43	1243,12
270,65	1265,64
270,87	1273,84
271,08	1310,70
271,30	1298,41
271,51	1241,07
271,73	1251,31
271,95	1222,64
272,16	1318,89
272,38	1206,25
272,59	1275,88
272,81	1316,84
273,02	1304,56
273,24	1216,49
273,46	1339,37
273,67	1245,16
273,89	1239,02
274,10	1271,79
274,32	1251,31
274,54	1236,97
274,75	1198,06
274,97	1234,93
275,18	1277,93
275,40	1292,27
275,61	1232,88
275,83	1279,98
276,05	1249,26
276,26	1290,22
276,48	1279,98
276,69	1236,97
276,91	1316,84
277,12	1255,40
277,34	1181,68
277,55	1202,16
277,77	1347,56
277,99	1282,03
278,20	1265,64
278,42	1282,03
278,63	1269,74
278,85	1286,12
279,06	1292,27
279,28	1337,32
279,49	1175,53
279,71	1271,79
279,93	1269,74
280,14	1230,83
280,36	1329,13
280,57	1265,64
280,79	1214,45
281,00	1298,41
281,22	1269,74
281,43	1208,30
281,65	1279,98
281,86	1265,64
282,08	1249,26
282,29	1234,93
282,51	1302,51
282,73	1257,45
282,94	1173,49
283,16	1290,22
283,37	1288,17
283,59	1236,97
283,80	1234,93
284,02	1243,12
284,23	1239,02
284,45	1234,93
284,66	1273,84
284,88	1267,69
285,09	1263,60
285,31	1353,71
285,52	1236,97
285,74	1251,31
285,95	1277,93
286,17	1275,88
286,38	1210,35
286,60	1279,98
286,81	1255,40
287,03	1286,12
287,24	1253,36
287,46	1282,03
287,67	1247,21
287,89	1183,73
288,10	1187,82
288,32	1310,70
288,53	1290,22
288,75	1314,80
288,96	1263,60
289,18	1271,79
289,39	1243,12
289,61	1259,50
289,82	1279,98
290,04	1302,51
290,25	1370,09
290,47	1222,64
290,68	1273,84
290,90	1290,22
291,11	1249,26
291,33	1251,31
291,54	1269,74
291,76	1304,56
291,97	1279,98
292,18	1269,74
292,40	1296,36
292,61	1259,50
292,83	1310,70
293,04	1249,26
293,26	1306,60
293,47	1312,75
293,69	1333,23
293,90	1212,40
294,12	1320,94
294,33	1234,93
294,55	1302,51
294,76	1245,16
294,97	1275,88
295,19	1220,59
295,40	1200,11
295,62	1243,12
295,83	1302,51
296,05	1292,27
296,26	1247,21
296,48	1288,17
296,69	1226,73
296,90	1247,21
297,12	1265,64
297,33	1304,56
297,55	1214,45
297,76	1325,04
297,98	1282,03
298,19	1200,11
298,41	1331,18
298,62	1273,84
298,83	1257,45
299,05	1222,64
299,26	1212,40
299,48	1318,89
299,69	1349,61
299,90	1288,17
300,12	1218,54
300,33	1275,88
300,55	1273,84
300,76	1314,80
300,98	1249,26
301,19	1251,31
301,40	1296,36
301,62	1273,84
301,83	1273,84
302,05	1228,78
302,26	1253,36
302,47	1310,70
302,69	1277,93
302,90	1265,64
303,12	1228,78
303,33	1310,70
303,54	1261,55
303,76	1341,42
303,97	1261,55
304,19	1259,50
304,40	1259,50
304,61	1175,53
304,83	1224,69
305,04	1259,50
305,26	1271,79
305,47	1257,45
305,68	1257,45
305,90	1296,36
306,11	1349,61
306,33	1200,11
306,54	1275,88
306,75	1322,99
306,97	1312,75
307,18	1318,89
307,39	1267,69
307,61	1331,18
307,82	1267,69
308,04	1269,74
308,25	1234,93
308,46	1286,12
308,68	1181,68
308,89	1263,60
309,10	1300,46
309,32	1325,04
309,53	1296,36
309,74	1290,22
309,96	1187,82
310,17	1241,07
310,39	1322,99
310,60	1214,45
310,81	1277,93
311,03	1327,08
311,24	1193,97
311,45	1185,77
311,67	1308,65
311,88	1251,31
312,09	1249,26
312,31	1294,32
312,52	1226,73
312,73	1349,61
312,95	1271,79
313,16	1239,02
313,37	1239,02
313,59	1247,21
313,80	1300,46
314,01	1257,45
314,23	1236,97
314,44	1290,22
314,65	1304,56
314,87	1298,41
315,08	1228,78
315,29	1279,98
315,51	1269,74
315,72	1271,79
315,93	1282,03
316,15	1259,50
316,36	1265,64
316,57	1320,94
316,79	1243,12
317,00	1271,79
317,21	1376,24
317,43	1284,08
317,64	1210,35
317,85	1296,36
318,07	1253,36
318,28	1257,45
318,49	1261,55
318,70	1269,74
318,92	1247,21
319,13	1241,07
319,34	1296,36
319,56	1249,26
319,77	1265,64
319,98	1257,45
320,20	1298,41
320,41	1255,40
320,62	1247,21
320,83	1214,45
321,05	1296,36
321,26	1247,21
321,47	1304,56
321,69	1181,68
321,90	1241,07
322,11	1267,69
322,32	1214,45
322,54	1239,02
322,75	1239,02
322,96	1292,27
323,18	1257,45
323,39	1214,45
323,60	1314,80
323,81	1298,41
324,03	1206,25
324,24	1294,32
324,45	1267,69
324,66	1282,03
324,88	1224,69
325,09	1226,73
325,30	1296,36
325,52	1239,02
325,73	1314,80
325,94	1282,03
326,15	1298,41
326,37	1308,65
326,58	1257,45
326,79	1265,64
327,00	1259,50
327,22	1288,17
327,43	1249,26
327,64	1253,36
327,85	1265,64
328,07	1263,60
328,28	1286,12
328,49	1329,13
328,70	1247,21
328,92	1220,59
329,13	1247,21
329,34	1218,54
329,55	1255,40
329,76	1249,26
329,98	1232,88
330,19	1239,02
330,40	1261,55
330,61	1255,40
330,83	1269,74
331,04	1288,17
331,25	1206,25
331,46	1318,89
331,68	1316,84
331,89	1275,88
332,10	1277,93
332,31	1236,97
332,52	1269,74
332,74	1288,17
332,95	1277,93
333,16	1279,98
333,37	1259,50
333,58	1292,27
333,80	1236,97
334,01	1310,70
334,22	1265,64
334,43	1263,60
334,64	1292,27
334,86	1308,65
335,07	1232,88
335,28	1271,79
335,49	1220,59
335,70	1255,40
335,92	1282,03
336,13	1355,76
336,34	1290,22
336,55	1241,07
336,76	1210,35
336,98	1222,64
337,19	1216,49
337,40	1257,45
337,61	1337,32
337,82	1277,93
338,04	1181,68
338,25	1265,64
338,46	1243,12
338,67	1265,64
338,88	1269,74
339,09	1232,88
339,31	1198,06
339,52	1236,97
339,73	1284,08
339,94	1263,60
340,15	1249,26
340,36	1212,40
340,58	1232,88
340,79	1269,74
341,00	1312,75
341,21	1220,59
341,42	1302,51
341,63	1292,27
341,85	1294,32
342,06	1290,22
342,27	1171,44
342,48	1302,51
342,69	1271,79
342,90	1214,45
343,12	1277,93
343,33	1269,74
343,54	1277,93
343,75	1220,59
343,96	1196,01
344,17	1277,93
344,38	1363,95
344,60	1288,17
344,81	1290,22
345,02	1243,12
345,23	1351,66
345,44	1304,56
345,65	1251,31
345,86	1290,22
346,07	1224,69
346,29	1296,36
346,50	1368,04
346,71	1187,82
346,92	1269,74
347,13	1265,64
347,34	1239,02
347,55	1273,84
347,76	1257,45
347,98	1222,64
348,19	1163,25
348,40	1290,22
348,61	1212,40
348,82	1239,02
349,03	1255,40
349,24	1232,88
349,45	1320,94
349,66	1290,22
349,88	1294,32
350,09	1191,92
350,30	1310,70
350,51	1234,93
350,72	1236,97
350,93	1239,02
351,14	1273,84
351,35	1310,70
351,56	1304,56
351,77	1228,78
351,99	1245,16
352,20	1284,08
352,41	1286,12
352,62	1286,12
352,83	1251,31
353,04	1296,36
353,25	1318,89
353,46	1282,03
353,67	1255,40
353,88	1259,50
354,09	1249,26
354,30	1232,88
354,52	1275,88
354,73	1337,32
354,94	1288,17
355,15	1282,03
355,36	1259,50
355,57	1167,34
355,78	1259,50
355,99	1263,60
356,20	1183,73
356,41	1230,83
356,62	1234,93
356,83	1236,97
357,04	1259,50
357,25	1269,74
357,46	1234,93
357,68	1312,75
357,89	1271,79
358,10	1329,13
358,31	1234,93
358,52	1241,07
358,73	1226,73
358,94	1249,26
359,15	1232,88
359,36	1368,04
359,57	1351,66
359,78	1247,21
359,99	1302,51
360,20	1257,45
360,41	1298,41
360,62	1302,51
360,83	1255,40
361,04	1310,70
361,25	1310,70
361,46	1279,98
361,67	1206,25
361,88	1239,02
362,09	1331,18
362,30	1273,84
362,51	1300,46
362,72	1296,36
362,93	1347,56
363,14	1277,93
363,35	1245,16
363,56	1322,99
363,78	1286,12
363,99	1314,80
364,20	1294,32
364,41	1226,73
364,62	1187,82
364,83	1288,17
365,04	1236,97
365,25	1290,22
365,46	1257,45
365,67	1284,08
365,88	1253,36
366,09	1286,12
366,30	1296,36
366,51	1275,88
366,72	1282,03
366,93	1257,45
367,14	1312,75
367,35	1273,84
367,56	1234,93
367,77	1302,51
367,98	1286,12
368,18	1234,93
368,39	1245,16
368,60	1257,45
368,81	1251,31
369,02	1228,78
369,23	1286,12
369,44	1302,51
369,65	1239,02
369,86	1214,45
370,07	1241,07
370,28	1208,30
370,49	1245,16
370,70	1226,73
370,91	1325,04
371,12	1298,41
371,33	1308,65
371,54	1271,79
371,75	1263,60
371,96	1245,16
372,17	1294,32
372,38	1224,69
372,59	1243,12
372,80	1265,64
373,01	1288,17
373,22	1322,99
373,43	1220,59
373,64	1228,78
373,85	1314,80
374,06	1249,26
374,26	1265,64
374,47	1308,65
374,68	1286,12
374,89	1296,36
375,10	1208,30
375,31	1345,52
375,52	1286,12
375,73	1222,64
375,94	1322,99
376,15	1226,73
376,36	1314,80
376,57	1255,40
376,78	1239,02
376,99	1191,92
377,20	1306,60
377,40	1329,13
377,61	1253,36
377,82	1282,03
378,03	1263,60
378,24	1261,55
378,45	1345,52
378,66	1216,49
378,87	1234,93
379,08	1183,73
379,29	1345,52
379,50	1308,65
379,71	1294,32
379,91	1282,03
380,12	1243,12
380,33	1286,12
380,54	1241,07
380,75	1286,12
380,96	1290,22
381,17	1271,79
381,38	1249,26
381,59	1214,45
381,80	1269,74
382,00	1279,98
382,21	1261,55
382,42	1265,64
382,63	1292,27
382,84	1282,03
383,05	1273,84
383,26	1269,74
383,47	1273,84
383,68	1282,03
383,88	1279,98
384,09	1308,65
384,30	1277,93
384,51	1255,40
384,72	1343,47
384,93	1259,50
385,14	1230,83
385,35	1339,37
385,55	1257,45
385,76	1275,88
385,97	1232,88
386,18	1282,03
386,39	1210,35
386,60	1206,25
386,81	1279,98
387,02	1271,79
387,22	1239,02
387,43	1296,36
387,64	1310,70
387,85	1167,34
388,06	1249,26
388,27	1322,99
388,48	1331,18
388,68	1226,73
388,89	1263,60
389,10	1279,98
389,31	1224,69
389,52	1302,51
389,73	1206,25
389,93	1284,08
390,14	1302,51
390,35	1257,45
390,56	1284,08
390,77	1265,64
390,98	1282,03
391,18	1243,12
391,39	1220,59
391,60	1267,69
391,81	1265,64
392,02	1292,27
392,23	1255,40
392,43	1210,35
392,64	1329,13
392,85	1210,35
393,06	1273,84
393,27	1273,84
393,47	1202,16
393,68	1322,99
393,89	1234,93
394,10	1228,78
394,31	1271,79
394,52	1288,17
394,72	1269,74
394,93	1216,49
395,14	1261,55
395,35	1294,32
395,56	1298,41
395,76	1269,74
395,97	1218,54
396,18	1327,08
396,39	1294,32
396,60	1261,55
396,80	1290,22
397,01	1257,45
397,22	1249,26
397,43	1290,22
397,64	1232,88
397,84	1204,21
398,05	1263,60
398,26	1263,60
398,47	1290,22
398,67	1206,25
398,88	1257,45
399,09	1304,56
399,30	1210,35
399,51	1212,40
399,71	1232,88
399,92	1277,93
400,13	1320,94
400,34	1277,93
400,54	1247,21
400,75	1267,69
400,96	1312,75
401,17	1241,07
401,37	1265,64
401,58	1245,16
401,79	1292,27
402,00	1273,84
402,21	1234,93
402,41	1220,59
402,62	1290,22
402,83	1288,17
403,04	1298,41
403,24	1255,40
403,45	1214,45
403,66	1150,96
403,87	1255,40
404,07	1296,36
404,28	1277,93
404,49	1267,69
404,70	1183,73
404,90	1224,69
405,11	1288,17
405,32	1216,49
405,52	1257,45
405,73	1247,21
405,94	1212,40
406,15	1312,75
406,35	1212,40
406,56	1212,40
406,77	1236,97
406,98	1269,74
407,18	1279,98
407,39	1314,80
407,60	1206,25
407,80	1263,60
408,01	1232,88
408,22	1236,97
408,43	1191,92
408,63	1224,69
408,84	1279,98
409,05	1226,73
409,25	1316,84
409,46	1322,99
409,67	1259,50
409,88	1308,65
410,08	1320,94
410,29	1183,73
410,50	1224,69
410,70	1308,65
410,91	1296,36
411,12	1234,93
411,32	1210,35
411,53	1249,26
411,74	1351,66
411,95	1228,78
412,15	1288,17
412,36	1288,17
412,57	1277,93
412,77	1320,94
412,98	1310,70
413,19	1222,64
413,39	1282,03
413,60	1267,69
413,81	1308,65
414,01	1329,13
414,22	1329,13
414,43	1255,40
414,63	1302,51
414,84	1226,73
415,05	1271,79
415,25	1208,30
415,46	1220,59
415,67	1218,54
415,87	1318,89
416,08	1259,50
416,29	1294,32
416,49	1288,17
416,70	1208,30
416,91	1286,12
417,11	1255,40
417,32	1292,27
417,53	1230,83
417,73	1200,11
417,94	1208,30
418,15	1300,46
418,35	1198,06
418,56	1312,75
418,77	1249,26
418,97	1271,79
419,18	1290,22
419,38	1286,12
419,59	1200,11
419,80	1271,79
420,00	1259,50
420,21	1271,79
420,42	1357,80
420,62	1282,03
420,83	1257,45
421,04	1394,67
421,24	1253,36
421,45	1271,79
421,65	1243,12
421,86	1255,40
422,07	1169,39
422,27	1273,84
422,48	1214,45
422,69	1228,78
422,89	1245,16
423,10	1267,69
423,30	1243,12
423,51	1245,16
423,72	1267,69
423,92	1255,40
424,13	1191,92
424,33	1265,64
424,54	1218,54
424,75	1249,26
424,95	1312,75
425,16	1241,07
425,36	1224,69
425,57	1257,45
425,78	1224,69
425,98	1282,03
426,19	1261,55
426,39	1378,28
426,60	1230,83
426,81	1327,08
427,01	1218,54
427,22	1249,26
427,42	1282,03
427,63	1257,45
427,83	1304,56
428,04	1187,82
428,25	1331,18
428,45	1304,56
428,66	1241,07
428,86	1284,08
429,07	1273,84
429,28	1241,07
429,48	1247,21
429,69	1222,64
429,89	1257,45
430,10	1327,08
430,30	1294,32
430,51	1243,12
430,71	1259,50
430,92	1302,51
431,13	1269,74
431,33	1322,99
431,54	1316,84
431,74	1247,21
431,95	1226,73
432,15	1271,79
432,36	1296,36
432,56	1282,03
432,77	1282,03
432,98	1302,51
433,18	1271,79
433,39	1236,97
433,59	1269,74
433,80	1333,23
434,00	1275,88
434,21	1286,12
434,41	1306,60
434,62	1282,03
434,82	1249,26
435,03	1257,45
435,23	1245,16
435,44	1306,60
435,64	1296,36
435,85	1257,45
436,06	1355,76
436,26	1308,65
436,47	1253,36
436,67	1298,41
436,88	1298,41
437,08	1339,37
437,29	1243,12
437,49	1275,88
437,70	1230,83
437,90	1288,17
438,11	1251,31
438,31	1306,60
438,52	1298,41
438,72	1232,88
438,93	1273,84
439,13	1241,07
439,34	1257,45
439,54	1310,70
439,75	1284,08
439,95	1261,55
440,16	1298,41
440,36	1378,28
440,57	1273,84
440,77	1345,52
440,98	1273,84
441,18	1282,03
441,39	1232,88
441,59	1284,08
441,80	1232,88
442,00	1271,79
442,21	1253,36
442,41	1263,60
442,62	1269,74
442,82	1236,97
443,02	1322,99
443,23	1282,03
443,43	1290,22
443,64	1226,73
443,84	1265,64
444,05	1249,26
444,25	1279,98
444,46	1327,08
444,66	1251,31
444,87	1325,04
445,07	1277,93
445,28	1214,45
445,48	1304,56
445,69	1312,75
445,89	1198,06
446,09	1253,36
446,30	1294,32
446,50	1271,79
446,71	1265,64
446,91	1277,93
447,12	1271,79
447,32	1302,51
447,53	1318,89
447,73	1241,07
447,93	1236,97
448,14	1159,15
448,34	1296,36
448,55	1351,66
448,75	1269,74
448,96	1333,23
449,16	1226,73
449,36	1304,56
449,57	1249,26
449,77	1312,75
449,98	1273,84
450,18	1320,94
450,39	1345,52
450,59	1292,27
450,79	1247,21
451,00	1265,64
451,20	1251,31
451,41	1310,70
451,61	1257,45
451,81	1253,36
452,02	1251,31
452,22	1245,16
452,43	1224,69
452,63	1314,80
452,84	1290,22
453,04	1214,45
453,24	1193,97
453,45	1249,26
453,65	1247,21
453,86	1390,57
454,06	1257,45
454,26	1255,40
454,47	1282,03
454,67	1351,66
454,87	1282,03
455,08	1273,84
455,28	1273,84
455,49	1300,46
455,69	1302,51
455,89	1290,22
456,10	1286,12
456,30	1304,56
456,51	1294,32
456,71	1275,88
456,91	1261,55
457,12	1210,35
457,32	1261,55
457,52	1279,98
457,73	1271,79
457,93	1279,98
458,14	1253,36
458,34	1259,50
458,54	1292,27
458,75	1288,17
458,95	1302,51
459,15	1331,18
459,36	1296,36
459,56	1255,40
459,76	1269,74
459,97	1253,36
460,17	1312,75
460,37	1257,45
460,58	1337,32
460,78	1239,02
460,99	1273,84
461,19	1382,38
461,39	1206,25
461,60	1239,02
461,80	1314,80
462,00	1230,83
462,21	1284,08
462,41	1310,70
462,61	1259,50
462,82	1267,69
463,02	1216,49
463,22	1310,70
463,43	1257,45
463,63	1304,56
463,83	1275,88
464,04	1306,60
464,24	1300,46
464,44	1230,83
464,64	1236,97
464,85	1247,21
465,05	1322,99
465,25	1318,89
465,46	1322,99
465,66	1347,56
465,86	1216,49
466,07	1335,28
466,27	1245,16
466,47	1308,65
466,68	1302,51
466,88	1308,65
467,08	1255,40
467,29	1308,65
467,49	1253,36
467,69	1245,16
467,89	1202,16
468,10	1314,80
468,30	1298,41
468,50	1263,60
468,71	1247,21
468,91	1312,75
469,11	1275,88
469,31	1206,25
469,52	1277,93
469,72	1261,55
469,92	1327,08
470,13	1181,68
470,33	1249,26
470,53	1288,17
470,73	1310,70
470,94	1263,60
471,14	1300,46
471,34	1282,03
471,54	1279,98
471,75	1282,03
471,95	1239,02
472,15	1241,07
472,36	1296,36
472,56	1175,53
472,76	1226,73
472,96	1210,35
473,17	1271,79
473,37	1249,26
473,57	1234,93
473,77	1320,94
473,98	1226,73
474,18	1302,51
474,38	1253,36
474,58	1288,17
474,79	1284,08
474,99	1304,56
475,19	1216,49
475,39	1181,68
475,60	1261,55
475,80	1343,47
476,00	1249,26
476,20	1277,93
476,41	1304,56
476,61	1320,94
476,81	1249,26
477,01	1273,84
477,21	1271,79
477,42	1312,75
477,62	1288,17
477,82	1239,02
478,02	1300,46
478,23	1275,88
478,43	1275,88
478,63	1312,75
478,83	1251,31
479,03	1267,69
479,24	1218,54
479,44	1273,84
479,64	1210,35
479,84	1239,02
480,04	1331,18
480,25	1296,36
480,45	1243,12
480,65	1347,56
480,85	1206,25
481,06	1257,45
481,26	1296,36
481,46	1222,64
481,66	1296,36
481,86	1304,56
482,06	1263,60
482,27	1253,36
482,47	1241,07
482,67	1282,03
482,87	1275,88
483,07	1226,73
483,28	1290,22
483,48	1249,26
483,68	1216,49
483,88	1304,56
484,08	1286,12
484,29	1251,31
484,49	1318,89
484,69	1255,40
484,89	1359,85
485,09	1277,93
485,29	1196,01
485,50	1327,08
485,70	1267,69
485,90	1239,02
486,10	1181,68
486,30	1292,27
486,50	1314,80
486,71	1310,70
486,91	1306,60
487,11	1322,99
487,31	1239,02
487,51	1288,17
487,71	1400,81
487,91	1331,18
488,12	1247,21
488,32	1249,26
488,52	1273,84
488,72	1325,04
488,92	1279,98
489,12	1243,12
489,32	1232,88
489,53	1318,89
489,73	1253,36
489,93	1277,93
490,13	1208,30
490,33	1282,03
490,53	1290,22
490,73	1318,89
490,94	1288,17
491,14	1341,42
491,34	1296,36
491,54	1304,56
491,74	1271,79
491,94	1339,37
492,14	1273,84
492,34	1331,18
492,54	1245,16
492,75	1290,22
492,95	1171,44
493,15	1298,41
493,35	1234,93
493,55	1306,60
493,75	1230,83
493,95	1265,64
494,15	1310,70
494,35	1298,41
494,56	1261,55
494,76	1245,16
494,96	1298,41
495,16	1347,56
495,36	1286,12
495,56	1282,03
495,76	1247,21
495,96	1245,16
496,16	1255,40
496,36	1304,56
496,56	1300,46
496,77	1320,94
496,97	1292,27
497,17	1312,75
497,37	1216,49
497,57	1288,17
497,77	1226,73
497,97	1245,16
498,17	1312,75
498,37	1310,70
498,57	1294,32
498,77	1249,26
498,97	1296,36
499,17	1392,62
499,38	1292,27
499,58	1277,93
499,78	1243,12
499,98	1236,97
500,18	1290,22
500,38	1224,69
500,58	1292,27
500,78	1300,46
500,98	1296,36
501,18	1255,40
501,38	1200,11
501,58	1304,56
501,78	1282,03
501,98	1257,45
502,18	1232,88
502,38	1341,42
502,58	1363,95
502,78	1265,64
502,98	1241,07
503,18	1296,36
503,38	1206,25
503,59	1243,12
503,79	1261,55
503,99	1282,03
504,19	1234,93
504,39	1335,28
504,59	1249,26
504,79	1304,56
504,99	1263,60
505,19	1318,89
505,39	1202,16
505,59	1282,03
505,79	1267,69
505,99	1271,79
506,19	1304,56
506,39	1292,27
506,59	1265,64
506,79	1316,84
506,99	1312,75
507,19	1333,23
507,39	1279,98
507,59	1279,98
507,79	1282,03
507,99	1259,50
508,19	1292,27
508,39	1308,65
508,59	1308,65
508,79	1310,70
508,99	1314,80
509,19	1300,46
509,39	1288,17
509,59	1302,51
509,79	1318,89
509,99	1222,64
510,19	1271,79
510,39	1249,26
510,59	1312,75
510,79	1304,56
510,99	1294,32
511,19	1298,41
511,39	1292,27
511,59	1263,60
511,79	1290,22
511,99	1279,98
512,19	1302,51
512,38	1277,93
512,58	1243,12
512,78	1257,45
512,98	1267,69
513,18	1294,32
513,38	1243,12
513,58	1279,98
513,78	1275,88
513,98	1275,88
514,18	1273,84
514,38	1292,27
514,58	1286,12
514,78	1245,16
514,98	1239,02
515,18	1363,95
515,38	1312,75
515,58	1300,46
515,78	1216,49
515,98	1322,99
516,18	1294,32
516,38	1298,41
516,57	1267,69
516,77	1284,08
516,97	1288,17
517,17	1314,80
517,37	1232,88
517,57	1282,03
517,77	1261,55
517,97	1275,88
518,17	1304,56
518,37	1271,79
518,57	1286,12
518,77	1265,64
518,97	1294,32
519,16	1298,41
519,36	1239,02
519,56	1279,98
519,76	1335,28
519,96	1279,98
520,16	1363,95
520,36	1298,41
520,56	1306,60
520,76	1255,40
520,96	1247,21
521,16	1279,98
521,35	1343,47
521,55	1226,73
521,75	1286,12
521,95	1226,73
522,15	1234,93
522,35	1263,60
522,55	1325,04
522,75	1318,89
522,95	1286,12
523,14	1320,94
523,34	1267,69
523,54	1318,89
523,74	1230,83
523,94	1253,36
524,14	1329,13
524,34	1290,22
524,54	1243,12
524,73	1353,71
524,93	1257,45
525,13	1284,08
525,33	1302,51
525,53	1294,32
525,73	1251,31
525,93	1318,89
526,13	1351,66
526,32	1339,37
526,52	1298,41
526,72	1306,60
526,92	1267,69
527,12	1263,60
527,32	1265,64
527,52	1241,07
527,71	1267,69
527,91	1255,40
528,11	1255,40
528,31	1265,64
528,51	1294,32
528,71	1282,03
528,90	1226,73
529,10	1370,09
529,30	1261,55
529,50	1282,03
529,70	1267,69
529,90	1269,74
530,09	1257,45
530,29	1267,69
530,49	1232,88
530,69	1230,83
530,89	1312,75
531,09	1267,69
531,28	1245,16
531,48	1284,08
531,68	1284,08
531,88	1257,45
532,08	1230,83
532,28	1210,35
532,47	1273,84
532,67	1286,12
532,87	1298,41
533,07	1247,21
533,27	1226,73
533,46	1267,69
533,66	1277,93
533,86	1341,42
534,06	1279,98
534,26	1318,89
534,45	1222,64
534,65	1279,98
534,85	1296,36
535,05	1257,45
535,25	1320,94
535,44	1271,79
535,64	1271,79
535,84	1243,12
536,04	1308,65
536,24	1296,36
536,43	1267,69
536,63	1267,69
536,83	1257,45
537,03	1261,55
537,22	1314,80
537,42	1357,80
537,62	1243,12
537,82	1263,60
538,02	1269,74
538,21	1273,84
538,41	1284,08
538,61	1243,12
538,81	1322,99
539,00	1290,22
539,20	1273,84
539,40	1241,07
539,60	1296,36
539,79	1290,22
539,99	1206,25
540,19	1312,75
540,39	1245,16
540,58	1232,88
540,78	1277,93
540,98	1241,07
541,18	1265,64
541,37	1318,89
541,57	1247,21
541,77	1327,08
541,97	1214,45
542,16	1273,84
542,36	1261,55
542,56	1331,18
542,76	1261,55
542,95	1275,88
543,15	1265,64
543,35	1302,51
543,54	1200,11
543,74	1382,38
543,94	1273,84
544,14	1275,88
544,33	1257,45
544,53	1222,64
544,73	1290,22
544,93	1314,80
545,12	1257,45
545,32	1310,70
545,52	1314,80
545,71	1236,97
545,91	1257,45
546,11	1273,84
546,30	1290,22
546,50	1292,27
546,70	1292,27
546,90	1298,41
547,09	1241,07
547,29	1279,98
547,49	1308,65
547,68	1275,88
547,88	1277,93
548,08	1263,60
548,27	1298,41
548,47	1277,93
548,67	1284,08
548,87	1255,40
549,06	1306,60
549,26	1277,93
549,46	1267,69
549,65	1390,57
549,85	1210,35
550,05	1296,36
550,24	1304,56
550,44	1341,42
550,64	1345,52
550,83	1277,93
551,03	1300,46
551,23	1279,98
551,42	1341,42
551,62	1277,93
551,82	1337,32
552,01	1239,02
552,21	1339,37
552,41	1255,40
552,60	1300,46
552,80	1277,93
553,00	1284,08
553,19	1267,69
553,39	1273,84
553,59	1322,99
553,78	1241,07
553,98	1249,26
554,17	1257,45
554,37	1366,00
554,57	1247,21
554,76	1292,27
554,96	1327,08
555,16	1304,56
555,35	1234,93
555,55	1265,64
555,75	1232,88
555,94	1306,60
556,14	1200,11
556,33	1273,84
556,53	1216,49
556,73	1249,26
556,92	1322,99
557,12	1320,94
557,32	1294,32
557,51	1304,56
557,71	1316,84
557,90	1269,74
558,10	1368,04
558,30	1202,16
558,49	1298,41
558,69	1243,12
558,88	1288,17
559,08	1363,95
559,28	1257,45
559,47	1290,22
559,67	1279,98
559,86	1253,36
560,06	1349,61
560,26	1284,08
560,45	1302,51
560,65	1312,75
560,84	1251,31
561,04	1329,13
561,24	1296,36
561,43	1257,45
561,63	1296,36
561,82	1232,88
562,02	1322,99
562,22	1273,84
562,41	1251,31
562,61	1253,36
562,80	1200,11
563,00	1257,45
563,19	1220,59
563,39	1290,22
563,59	1263,60
563,78	1261,55
563,98	1222,64
564,17	1271,79
564,37	1304,56
564,56	1249,26
564,76	1265,64
564,96	1300,46
565,15	1259,50
565,35	1329,13
565,54	1249,26
565,74	1273,84
565,93	1288,17
566,13	1273,84
566,32	1273,84
566,52	1216,49
566,71	1277,93
566,91	1267,69
567,11	1284,08
567,30	1306,60
567,50	1282,03
567,69	1284,08
567,89	1265,64
568,08	1271,79
568,28	1294,32
568,47	1257,45
568,67	1355,76
568,86	1322,99
569,06	1212,40
569,25	1306,60
569,45	1277,93
569,64	1325,04
569,84	1253,36
570,04	1318,89
570,23	1249,26
570,43	1245,16
570,62	1320,94
570,82	1228,78
571,01	1308,65
571,21	1357,80
571,40	1298,41
571,60	1269,74
571,79	1267,69
571,99	1288,17
572,18	1284,08
572,38	1193,97
572,57	1259,50
572,77	1300,46
572,96	1310,70
573,16	1325,04
573,35	1304,56
573,55	1257,45
573,74	1316,84
573,94	1312,75
574,13	1267,69
574,33	1253,36
574,52	1261,55
574,71	1230,83
574,91	1243,12
575,10	1241,07
575,30	1296,36
575,49	1290,22
575,69	1273,84
575,88	1290,22
576,08	1269,74
576,27	1261,55
576,47	1290,22
576,66	1288,17
576,86	1255,40
577,05	1236,97
577,25	1247,21
577,44	1308,65
577,64	1298,41
577,83	1314,80
578,02	1298,41
578,22	1355,76
578,41	1214,45
578,61	1216,49
578,80	1269,74
579,00	1271,79
579,19	1249,26
579,39	1296,36
579,58	1318,89
579,77	1273,84
579,97	1232,88
580,16	1275,88
580,36	1259,50
580,55	1261,55
580,75	1255,40
580,94	1304,56
581,13	1284,08
581,33	1302,51
581,52	1214,45
581,72	1300,46
581,91	1267,69
582,11	1286,12
582,30	1267,69
582,49	1273,84
582,69	1282,03
582,88	1253,36
583,08	1269,74
583,27	1286,12
583,47	1282,03
583,66	1241,07
583,85	1286,12
584,05	1327,08
584,24	1288,17
584,44	1306,60
584,63	1257,45
584,82	1239,02
585,02	1267,69
585,21	1257,45
585,41	1331,18
585,60	1282,03
585,79	1312,75
585,99	1294,32
586,18	1239,02
586,37	1273,84
586,57	1298,41
586,76	1380,33
586,96	1261,55
587,15	1306,60
587,34	1261,55
587,54	1271,79
587,73	1273,84
587,93	1265,64
588,12	1263,60
588,31	1322,99
588,51	1263,60
588,70	1320,94
588,89	1296,36
589,09	1288,17
589,28	1279,98
589,47	1222,64
589,67	1257,45
589,86	1304,56
590,06	1255,40
590,25	1335,28
590,44	1296,36
590,64	1273,84
590,83	1310,70
591,02	1257,45
591,22	1331,18
591,41	1269,74
591,60	1267,69
591,80	1310,70
591,99	1312,75
592,18	1189,87
592,38	1302,51
592,57	1314,80
592,76	1347,56
592,96	1282,03
593,15	1267,69
593,34	1298,41
593,54	1220,59
593,73	1320,94
593,92	1275,88
594,12	1298,41
594,31	1329,13
594,50	1269,74
594,70	1253,36
594,89	1275,88
595,08	1275,88
595,28	1277,93
595,47	1304,56
595,66	1271,79
595,86	1294,32
596,05	1318,89
596,24	1236,97
596,43	1247,21
596,63	1347,56
596,82	1228,78
597,01	1304,56
597,21	1304,56
597,40	1298,41
597,59	1271,79
597,79	1226,73
597,98	1273,84
598,17	1261,55
598,36	1288,17
598,56	1275,88
598,75	1345,52
598,94	1284,08
599,14	1265,64
599,33	1282,03
599,52	1282,03
599,71	1273,84
599,91	1298,41
600,10	1349,61
600,29	1355,76
600,48	1282,03
600,68	1257,45
600,87	1296,36
601,06	1273,84
601,26	1308,65
601,45	1279,98
601,64	1251,31
601,83	1335,28
602,03	1329,13
602,22	1265,64
602,41	1277,93
602,60	1304,56
602,80	1286,12
602,99	1322,99
603,18	1284,08
603,37	1337,32
603,57	1230,83
603,76	1290,22
603,95	1267,69
604,14	1267,69
604,34	1314,80
604,53	1312,75
604,72	1366,00
604,91	1306,60
605,10	1257,45
605,30	1333,23
605,49	1310,70
605,68	1308,65
605,87	1263,60
606,07	1302,51
606,26	1257,45
606,45	1251,31
606,64	1304,56
606,84	1265,64
607,03	1318,89
607,22	1267,69
607,41	1279,98
607,60	1214,45
607,80	1273,84
607,99	1259,50
608,18	1339,37
608,37	1312,75
608,56	1267,69
608,76	1275,88
608,95	1314,80
609,14	1343,47
609,33	1320,94
609,52	1320,94
609,72	1239,02
609,91	1259,50
610,10	1239,02
610,29	1329,13
610,48	1331,18
610,68	1288,17
610,87	1327,08
611,06	1255,40
611,25	1282,03
611,44	1273,84
611,63	1247,21
611,83	1269,74
612,02	1234,93
612,21	1247,21
612,40	1214,45
612,59	1306,60
612,79	1253,36
612,98	1327,08
613,17	1273,84
613,36	1318,89
613,55	1253,36
613,74	1239,02
613,93	1220,59
614,13	1257,45
614,32	1257,45
614,51	1267,69
614,70	1271,79
614,89	1224,69
615,08	1263,60
615,28	1284,08
615,47	1290,22
615,66	1253,36
615,85	1279,98
616,04	1282,03
616,23	1255,40
616,42	1173,49
616,62	1273,84
616,81	1243,12
617,00	1320,94
617,19	1269,74
617,38	1345,52
617,57	1284,08
617,76	1232,88
617,95	1249,26
618,15	1290,22
618,34	1343,47
618,53	1236,97
618,72	1273,84
618,91	1284,08
619,10	1286,12
619,29	1265,64
619,48	1339,37
619,68	1322,99
619,87	1247,21
620,06	1331,18
620,25	1273,84
620,44	1251,31
620,63	1259,50
620,82	1257,45
621,01	1304,56
621,20	1243,12
621,39	1337,32
621,59	1345,52
621,78	1222,64
621,97	1263,60
622,16	1288,17
622,35	1312,75
622,54	1355,76
622,73	1269,74
622,92	1245,16
623,11	1193,97
623,30	1245,16
623,49	1226,73
623,68	1335,28
623,88	1329,13
624,07	1333,23
624,26	1212,40
624,45	1253,36
624,64	1292,27
624,83	1306,60
625,02	1279,98
625,21	1241,07
625,40	1308,65
625,59	1337,32
625,78	1249,26
625,97	1200,11
626,16	1288,17
626,35	1216,49
626,54	1310,70
626,74	1257,45
626,93	1249,26
627,12	1298,41
627,31	1314,80
627,50	1308,65
627,69	1206,25
627,88	1255,40
628,07	1378,28
628,26	1286,12
628,45	1310,70
628,64	1255,40
628,83	1284,08
629,02	1249,26
629,21	1286,12
629,40	1318,89
629,59	1236,97
629,78	1322,99
629,97	1343,47
630,16	1310,70
630,35	1400,81
630,54	1306,60
630,73	1355,76
630,92	1294,32
631,11	1435,63
631,30	1273,84
631,49	1480,68
631,68	1740,77
631,87	2633,69
632,06	5826,47
632,25	8769,40
632,44	16719,62
632,63	27068,00
632,82	46112,06
633,01	41981,31
633,20	17393,40
633,39	6883,22
633,58	4026,31
633,77	3405,77
633,96	2840,53
634,15	2244,57
634,34	1834,98
634,53	1779,68
634,72	1775,59
634,91	1578,98
635,10	1503,21
635,29	1562,60
635,48	1538,02
635,67	1421,29
635,86	1437,67
636,05	1386,47
636,24	1361,90
636,43	1320,94
636,62	1382,38
636,81	1339,37
637,00	1355,76
637,19	1349,61
637,38	1314,80
637,57	1327,08
637,76	1275,88
637,95	1343,47
638,14	1310,70
638,33	1263,60
638,52	1366,00
638,71	1298,41
638,89	1228,78
639,08	1314,80
639,27	1353,71
639,46	1294,32
639,65	1273,84
639,84	1376,24
640,03	1363,95
640,22	1357,80
640,41	1333,23
640,60	1320,94
640,79	1286,12
640,98	1294,32
641,17	1294,32
641,36	1343,47
641,55	1314,80
641,74	1230,83
641,92	1275,88
642,11	1234,93
642,30	1294,32
642,49	1255,40
642,68	1255,40
642,87	1361,90
643,06	1296,36
643,25	1294,32
643,44	1261,55
643,63	1249,26
643,82	1257,45
644,00	1232,88
644,19	1249,26
644,38	1327,08
644,57	1296,36
644,76	1263,60
644,95	1296,36
645,14	1308,65
645,33	1308,65
645,52	1222,64
645,71	1316,84
645,89	1320,94
646,08	1337,32
646,27	1314,80
646,46	1269,74
646,65	1347,56
646,84	1296,36
647,03	1288,17
647,22	1228,78
647,40	1265,64
647,59	1255,40
647,78	1247,21
647,97	1259,50
648,16	1288,17
648,35	1304,56
648,54	1249,26
648,73	1363,95
648,91	1234,93
649,10	1255,40
649,29	1259,50
649,48	1318,89
649,67	1282,03
649,86	1349,61
650,05	1253,36
650,23	1208,30
650,42	1294,32
650,61	1263,60
650,80	1290,22
650,99	1271,79
651,18	1290,22
651,36	1314,80
651,55	1243,12
651,74	1288,17
651,93	1243,12
652,12	1259,50
652,31	1226,73
652,49	1314,80
652,68	1282,03
652,87	1345,52
653,06	1247,21
653,25	1277,93
653,44	1255,40
653,62	1249,26
653,81	1296,36
654,00	1318,89
654,19	1347,56
654,38	1351,66
654,56	1234,93
654,75	1183,73
654,94	1189,87
655,13	1261,55
655,32	1196,01
655,51	1245,16
655,69	1286,12
655,88	1273,84
656,07	1269,74
656,26	1263,60
656,45	1296,36
656,63	1327,08
656,82	1253,36
657,01	1302,51
657,20	1298,41
657,38	1318,89
657,57	1230,83
657,76	1294,32
657,95	1300,46
658,14	1298,41
658,32	1193,97
658,51	1294,32
658,70	1294,32
658,89	1296,36
659,08	1212,40
659,26	1269,74
659,45	1214,45
659,64	1241,07
659,83	1298,41
660,01	1263,60
660,20	1263,60
660,39	1304,56
660,58	1265,64
660,76	1255,40
660,95	1310,70
661,14	1171,44
661,33	1279,98
661,51	1290,22
661,70	1298,41
661,89	1308,65
662,08	1263,60
662,26	1239,02
662,45	1261,55
662,64	1290,22
662,83	1212,40
663,01	1249,26
663,20	1255,40
663,39	1331,18
663,58	1312,75
663,76	1239,02
663,95	1327,08
664,14	1337,32
664,32	1318,89
664,51	1267,69
664,70	1232,88
664,89	1253,36
665,07	1341,42
665,26	1216,49
665,45	1253,36
665,64	1310,70
665,82	1327,08
666,01	1306,60
666,20	1185,77
666,38	1316,84
666,57	1228,78
666,76	1271,79
666,95	1279,98
667,13	1351,66
667,32	1279,98
667,51	1290,22
667,69	1249,26
667,88	1306,60
668,07	1226,73
668,25	1320,94
668,44	1241,07
668,63	1255,40
668,81	1212,40
669,00	1218,54
669,19	1277,93
669,38	1294,32
669,56	1257,45
669,75	1247,21
669,94	1273,84
670,12	1292,27
670,31	1216,49
670,50	1374,19
670,68	1279,98
670,87	1296,36
671,06	1314,80
671,24	1347,56
671,43	1261,55
671,62	1286,12
671,80	1290,22
671,99	1269,74
672,18	1394,67
672,36	1316,84
672,55	1275,88
672,74	1261,55
672,92	1210,35
673,11	1241,07
673,29	1257,45
673,48	1370,09
673,67	1279,98
673,85	1282,03
674,04	1247,21
674,23	1224,69
674,41	1230,83
674,60	1292,27
674,79	1255,40
674,97	1282,03
675,16	1259,50
675,34	1251,31
675,53	1239,02
675,72	1310,70
675,90	1327,08
676,09	1298,41
676,28	1263,60
676,46	1298,41
676,65	1261,55
676,83	1298,41
677,02	1257,45
677,21	1257,45
677,39	1273,84
677,58	1288,17
677,77	1312,75
677,95	1249,26
678,14	1294,32
678,32	1296,36
678,51	1277,93
678,70	1249,26
678,88	1312,75
679,07	1243,12
679,25	1298,41
679,44	1347,56
679,63	1271,79
679,81	1310,70
680,00	1302,51
680,18	1257,45
680,37	1357,80
680,55	1269,74
680,74	1292,27
680,93	1253,36
681,11	1296,36
681,30	1271,79
681,48	1251,31
681,67	1282,03
681,85	1277,93
682,04	1277,93
682,23	1226,73
682,41	1243,12
682,60	1216,49
682,78	1249,26
682,97	1275,88
683,15	1245,16
683,34	1306,60
683,53	1206,25
683,71	1204,21
683,90	1222,64
684,08	1239,02
684,27	1249,26
684,45	1241,07
684,64	1320,94
684,82	1296,36
685,01	1204,21
685,19	1284,08
685,38	1320,94
685,57	1263,60
685,75	1193,97
685,94	1265,64
686,12	1175,53
686,31	1257,45
686,49	1232,88
686,68	1300,46
686,86	1353,71
687,05	1214,45
687,23	1279,98
687,42	1259,50
687,60	1312,75
687,79	1298,41
687,97	1269,74
688,16	1302,51
688,34	1253,36
688,53	1204,21
688,71	1234,93
688,90	1271,79
689,08	1310,70
689,27	1296,36
689,45	1298,41
689,64	1239,02
689,82	1267,69
690,01	1261,55
690,19	1296,36
690,38	1273,84
690,56	1298,41
690,75	1277,93
690,93	1300,46
691,12	1298,41
691,30	1261,55
691,49	1279,98
691,67	1251,31
691,86	1165,29
692,04	1198,06
692,23	1234,93
692,41	1253,36
692,60	1292,27
692,78	1265,64
692,97	1257,45
693,15	1294,32
693,34	1312,75
693,52	1298,41
693,71	1277,93
693,89	1157,10
694,08	1239,02
694,26	1288,17
694,44	1269,74
694,63	1257,45
694,81	1288,17
695,00	1284,08
695,18	1255,40
695,37	1279,98
695,55	1183,73
695,74	1308,65
695,92	1333,23
696,10	1245,16
696,29	1226,73
696,47	1245,16
696,66	1224,69
696,84	1279,98
697,03	1245,16
697,21	1290,22
697,40	1269,74
697,58	1271,79
697,76	1253,36
697,95	1298,41
698,13	1236,97
698,32	1245,16
698,50	1245,16
698,68	1239,02
698,87	1314,80
699,05	1339,37
699,24	1253,36
699,42	1200,11
699,61	1220,59
699,79	1286,12
699,97	1263,60
700,16	1322,99
700,34	1308,65
700,53	1251,31
700,71	1304,56
700,89	1284,08
701,08	1226,73
701,26	1300,46
701,45	1251,31
701,63	1216,49
701,81	1331,18
702,00	1275,88
702,18	1269,74
702,37	1239,02
702,55	1251,31
702,73	1255,40
702,92	1349,61
703,10	1302,51
703,28	1241,07
703,47	1271,79
703,65	1275,88
703,84	1298,41
704,02	1271,79
704,20	1275,88
704,39	1208,30
704,57	1304,56
704,75	1257,45
704,94	1220,59
705,12	1222,64
705,30	1247,21
705,49	1216,49
705,67	1372,14
705,86	1284,08
706,04	1277,93
706,22	1282,03
706,41	1245,16
706,59	1277,93
706,77	1208,30
706,96	1296,36
707,14	1275,88
707,32	1259,50
707,51	1239,02
707,69	1300,46
707,87	1257,45
708,06	1347,56
708,24	1259,50
708,42	1249,26
708,61	1327,08
708,79	1339,37
708,97	1239,02
709,16	1286,12
709,34	1232,88
709,52	1302,51
709,71	1292,27
709,89	1310,70
710,07	1241,07
710,26	1263,60
710,44	1253,36
710,62	1226,73
710,80	1253,36
710,99	1226,73
711,17	1204,21
711,35	1265,64
711,54	1290,22
711,72	1296,36
711,90	1277,93
712,09	1275,88
712,27	1290,22
712,45	1290,22
712,63	1261,55
712,82	1290,22
713,00	1204,21
713,18	1257,45
713,37	1320,94
713,55	1279,98
713,73	1226,73
713,91	1236,97
714,10	1277,93
714,28	1302,51
714,46	1294,32
714,65	1263,60
714,83	1296,36
715,01	1241,07
715,19	1322,99
715,38	1286,12
715,56	1282,03
715,74	1277,93
715,92	1273,84
716,11	1335,28
716,29	1218,54
716,47	1251,31
716,65	1255,40
716,84	1253,36
717,02	1273,84
717,20	1236,97
717,38	1234,93
717,57	1292,27
717,75	1269,74
717,93	1257,45
718,11	1222,64
718,30	1239,02
718,48	1239,02
718,66	1179,63
718,84	1284,08
719,03	1304,56
719,21	1300,46
719,39	1314,80
719,57	1318,89
719,75	1247,21
719,94	1220,59
720,12	1230,83
720,30	1247,21
720,48	1327,08
720,67	1273,84
720,85	1220,59
721,03	1214,45
721,21	1286,12
721,39	1296,36
721,58	1212,40
721,76	1275,88
721,94	1198,06
722,12	1261,55
722,30	1245,16
722,49	1312,75
722,67	1257,45
722,85	1263,60
723,03	1339,37
723,21	1255,40
723,40	1327,08
723,58	1306,60
723,76	1267,69
723,94	1284,08
724,12	1241,07
724,30	1327,08
724,49	1331,18
724,67	1247,21
724,85	1255,40
725,03	1290,22
725,21	1284,08
725,40	1288,17
725,58	1218,54
725,76	1275,88
725,94	1294,32
726,12	1255,40
726,30	1259,50
726,49	1245,16
726,67	1316,84
726,85	1245,16
727,03	1308,65
727,21	1255,40
727,39	1206,25
727,57	1314,80
727,76	1228,78
727,94	1292,27
728,12	1232,88
728,30	1206,25
728,48	1193,97
728,66	1273,84
728,84	1263,60
729,03	1214,45
729,21	1249,26
729,39	1267,69
729,57	1288,17
729,75	1220,59
729,93	1259,50
730,11	1265,64
730,30	1208,30
730,48	1284,08
730,66	1292,27
730,84	1273,84
731,02	1175,53
731,20	1226,73
731,38	1257,45
731,56	1234,93
731,74	1290,22
731,93	1267,69
732,11	1243,12
732,29	1286,12
732,47	1290,22
732,65	1277,93
732,83	1236,97
733,01	1265,64
733,19	1226,73
733,37	1282,03
733,56	1265,64
733,74	1220,59
733,92	1304,56
734,10	1247,21
734,28	1294,32
734,46	1302,51
734,64	1204,21
734,82	1306,60
735,00	1210,35
735,18	1253,36
735,36	1269,74
735,54	1284,08
735,73	1300,46
735,91	1224,69
736,09	1308,65
736,27	1290,22
736,45	1273,84
736,63	1308,65
736,81	1255,40
736,99	1271,79
737,17	1214,45
737,35	1251,31
737,53	1322,99
737,71	1239,02
737,89	1331,18
738,07	1259,50
738,25	1253,36
738,43	1290,22
738,61	1333,23
738,80	1222,64
738,98	1300,46
739,16	1304,56
739,34	1220,59
739,52	1263,60
739,70	1253,36
739,88	1271,79
740,06	1255,40
740,24	1273,84
740,42	1234,93
740,60	1185,77
740,78	1249,26
740,96	1202,16
741,14	1261,55
741,32	1292,27
741,50	1320,94
741,68	1292,27
741,86	1279,98
742,04	1222,64
742,22	1234,93
742,40	1282,03
742,58	1296,36
742,76	1288,17
742,94	1234,93
743,12	1198,06
743,30	1320,94
743,48	1236,97
743,66	1222,64
743,84	1261,55
744,02	1247,21
744,20	1288,17
744,38	1243,12
744,56	1249,26
744,74	1331,18
744,92	1271,79
745,10	1234,93
745,28	1335,28
745,46	1230,83
745,64	1310,70
745,82	1230,83
746,00	1290,22
746,18	1347,56
746,36	1279,98
746,54	1249,26
746,72	1265,64
746,90	1204,21
747,08	1290,22
747,26	1298,41
747,44	1249,26
747,62	1275,88
747,80	1282,03
747,98	1226,73
748,15	1261,55
748,33	1267,69
748,51	1210,35
748,69	1302,51
748,87	1251,31
749,05	1318,89
749,23	1286,12
749,41	1236,97
749,59	1353,71
749,77	1275,88
749,95	1224,69
750,13	1288,17
750,31	1337,32
750,49	1265,64
750,67	1241,07
750,85	1230,83
751,03	1320,94
751,20	1296,36
751,38	1284,08
751,56	1302,51
751,74	1298,41
751,92	1314,80
752,10	1292,27
752,28	1347,56
752,46	1214,45
752,64	1263,60
752,82	1249,26
753,00	1322,99
753,18	1339,37
753,35	1236,97
753,53	1290,22
753,71	1277,93
753,89	1241,07
754,07	1239,02
754,25	1292,27
754,43	1292,27
754,61	1286,12
754,79	1208,30
754,97	1261,55
755,14	1177,58
755,32	1298,41
755,50	1290,22
755,68	1259,50
755,86	1189,87
756,04	1257,45
756,22	1222,64
756,40	1241,07
756,57	1226,73
756,75	1286,12
756,93	1218,54
757,11	1253,36
757,29	1296,36
757,47	1251,31
757,65	1212,40
757,82	1243,12
758,00	1327,08
758,18	1239,02
758,36	1308,65
758,54	1241,07
758,72	1265,64
758,90	1312,75
759,07	1173,49
759,25	1271,79
759,43	1294,32
759,61	1263,60
759,79	1292,27
759,97	1224,69
760,15	1265,64
760,32	1220,59
760,50	1243,12
760,68	1279,98
760,86	1279,98
761,04	1339,37
761,22	1298,41
761,39	1302,51
761,57	1322,99
761,75	1296,36
761,93	1292,27
762,11	1226,73
762,28	1224,69
762,46	1253,36
762,64	1275,88
762,82	1255,40
763,00	1257,45
763,18	1335,28
763,35	1304,56
763,53	1259,50
763,71	1234,93
763,89	1261,55
764,07	1282,03
764,24	1212,40
764,42	1261,55
764,60	1202,16
764,78	1298,41
764,96	1312,75
765,13	1239,02
765,31	1255,40
765,49	1339,37
765,67	1214,45
765,84	1206,25
766,02	1314,80
766,20	1253,36
766,38	1185,77
766,56	1267,69
766,73	1206,25
766,91	1343,47
767,09	1249,26
767,27	1320,94
767,44	1298,41
767,62	1265,64
767,80	1294,32
767,98	1277,93
768,15	1304,56
768,33	1239,02
768,51	1208,30
768,69	1212,40
768,87	1257,45
769,04	1222,64
769,22	1304,56
769,40	1222,64
769,58	1294,32
769,75	1298,41
769,93	1251,31
770,11	1269,74
770,28	1255,40
770,46	1228,78
770,64	1329,13
770,82	1245,16
770,99	1249,26
771,17	1310,70
771,35	1208,30
771,53	1220,59
771,70	1208,30
771,88	1265,64
772,06	1232,88
772,23	1277,93
772,41	1275,88
772,59	1200,11
772,77	1277,93
772,94	1210,35
773,12	1284,08
773,30	1230,83
773,47	1355,76
773,65	1243,12
773,83	1279,98
774,01	1275,88
774,18	1288,17
774,36	1325,04
774,54	1173,49
774,71	1173,49
774,89	1286,12
775,07	1204,21
775,24	1251,31
775,42	1255,40
775,60	1208,30
775,78	1292,27
775,95	1288,17
776,13	1255,40
776,31	1306,60
776,48	1239,02
776,66	1298,41
776,84	1224,69
777,01	1167,34
777,19	1261,55
777,37	1234,93
777,54	1349,61
777,72	1284,08
777,90	1314,80
778,07	1261,55
778,25	1347,56
778,43	1173,49
778,60	1277,93
778,78	1306,60
778,96	1228,78
779,13	1216,49
779,31	1288,17
779,49	1273,84
779,66	1261,55
779,84	1298,41
780,01	1251,31
780,19	1304,56
780,37	1275,88
780,54	1351,66
780,72	1288,17
780,90	1239,02
781,07	1191,92
781,25	1263,60
781,43	1306,60
781,60	1288,17
781,78	1318,89
781,95	1253,36
782,13	1220,59
782,31	1241,07
782,48	1236,97
782,66	1282,03
782,83	1265,64
783,01	1183,73
783,19	1259,50
783,36	1232,88
783,54	1269,74
783,72	1222,64
783,89	1302,51
784,07	1316,84
784,24	1310,70
784,42	1306,60
784,60	1214,45
784,77	1226,73
784,95	1253,36
785,12	1314,80
785,30	1263,60
785,47	1337,32
785,65	1304,56
785,83	1259,50
786,00	1253,36
786,18	1253,36
786,35	1216,49
786,53	1247,21
786,71	1288,17
786,88	1296,36
787,06	1234,93
787,23	1255,40
787,41	1296,36
787,58	1253,36
787,76	1249,26
787,94	1306,60
788,11	1255,40
788,29	1271,79
788,46	1267,69
788,64	1269,74
788,81	1290,22
788,99	1329,13
789,16	1347,56
789,34	1196,01
789,52	1222,64
789,69	1349,61
789,87	1261,55
790,04	1306,60
790,22	1255,40
790,39	1355,76
790,57	1269,74
790,74	1298,41
790,92	1300,46
791,09	1304,56
791,27	1292,27
791,44	1316,84
791,62	1232,88
791,79	1251,31
791,97	1212,40
792,15	1247,21
792,32	1282,03
792,50	1216,49
792,67	1257,45
792,85	1273,84
793,02	1214,45
793,20	1220,59
793,37	1249,26
793,55	1314,80
793,72	1284,08
793,90	1347,56
794,07	1322,99
794,25	1267,69
794,42	1228,78
794,60	1263,60
794,77	1300,46
794,95	1310,70
795,12	1191,92
795,30	1269,74
795,47	1191,92
795,65	1296,36
795,82	1208,30
796,00	1282,03
796,17	1271,79
796,34	1263,60
796,52	1277,93
796,69	1226,73
796,87	1292,27
797,04	1314,80
797,22	1222,64
797,39	1234,93
797,57	1255,40
797,74	1179,63
797,92	1257,45
798,09	1302,51
798,27	1251,31
798,44	1265,64
798,62	1316,84
798,79	1298,41
798,96	1183,73
799,14	1243,12
799,31	1265,64
799,49	1288,17
799,66	1290,22
799,84	1265,64
800,01	1214,45
800,19	1261,55
800,36	1234,93
800,53	1288,17
800,71	1232,88
800,88	1265,64
801,06	1263,60
801,23	1167,34
801,41	1249,26
801,58	1282,03
801,75	1314,80
801,93	1273,84
802,10	1171,44
802,28	1261,55
802,45	1290,22
802,63	1208,30
802,80	1257,45
802,97	1249,26
803,15	1236,97
803,32	1245,16
803,50	1193,97
803,67	1257,45
803,84	1220,59
804,02	1249,26
804,19	1263,60
804,37	1265,64
804,54	1263,60
804,71	1208,30
804,89	1294,32
805,06	1269,74
805,24	1294,32
805,41	1226,73
805,58	1290,22
805,76	1251,31
805,93	1257,45
806,10	1296,36
806,28	1243,12
806,45	1277,93
806,63	1173,49
806,80	1302,51
806,97	1284,08
807,15	1339,37
807,32	1251,31
807,49	1185,77
807,67	1214,45
807,84	1290,22
808,01	1228,78
808,19	1298,41
808,36	1265,64
808,54	1245,16
808,71	1312,75
808,88	1363,95
809,06	1214,45
809,23	1288,17
809,40	1259,50
809,58	1255,40
809,75	1187,82
809,92	1298,41
810,10	1314,80
810,27	1214,45
810,44	1286,12
810,62	1236,97
810,79	1306,60
810,96	1204,21
811,14	1228,78
811,31	1286,12
811,48	1275,88
811,66	1300,46
811,83	1275,88
812,00	1269,74
812,18	1282,03
812,35	1261,55
812,52	1294,32
812,69	1277,93
812,87	1298,41
813,04	1193,97
813,21	1353,71
813,39	1273,84
813,56	1327,08
813,73	1216,49
813,91	1191,92
814,08	1241,07
814,25	1243,12
814,42	1282,03
814,60	1263,60
814,77	1306,60
814,94	1294,32
815,12	1261,55
815,29	1241,07
815,46	1241,07
815,63	1322,99
815,81	1245,16
815,98	1222,64
816,15	1322,99
816,33	1230,83
816,50	1239,02
816,67	1310,70
816,84	1329,13
817,02	1277,93
817,19	1263,60
817,36	1255,40
817,53	1329,13
817,71	1204,21
817,88	1320,94
818,05	1181,68
818,22	1257,45
818,40	1355,76
818,57	1208,30
818,74	1279,98
818,91	1241,07
819,09	1277,93
819,26	1286,12
819,43	1230,83
819,60	1306,60
819,78	1228,78
819,95	1255,40
820,12	1279,98
820,29	1214,45
820,47	1255,40
820,64	1212,40
820,81	1247,21
820,98	1249,26
821,15	1257,45
821,33	1198,06
821,50	1286,12
821,67	1314,80
821,84	1214,45
822,02	1255,40
822,19	1286,12
822,36	1263,60
822,53	1282,03
822,70	1290,22
822,88	1273,84
823,05	1228,78
823,22	1302,51
823,39	1292,27
823,56	1224,69
823,74	1245,16
823,91	1267,69
824,08	1255,40
824,25	1271,79
824,42	1308,65
824,60	1292,27
824,77	1226,73
824,94	1261,55
825,11	1257,45
825,28	1241,07
825,45	1292,27
825,63	1290,22
825,80	1273,84
825,97	1243,12
826,14	1191,92
826,31	1279,98
826,48	1257,45
826,66	1236,97
826,83	1239,02
827,00	1234,93
827,17	1267,69
827,34	1294,32
827,51	1271,79
827,69	1312,75
827,86	1329,13
828,03	1255,40
828,20	1282,03
828,37	1286,12
828,54	1306,60
828,71	1251,31
828,89	1314,80
829,06	1329,13
829,23	1290,22
829,40	1312,75
829,57	1257,45
829,74	1345,52
829,91	1269,74
830,09	1261,55
830,26	1208,30
830,43	1337,32
830,60	1245,16
830,77	1234,93
830,94	1230,83
831,11	1261,55
831,28	1200,11
831,46	1249,26
831,63	1241,07
831,80	1271,79
831,97	1335,28
832,14	1230,83
832,31	1343,47
832,48	1255,40
832,65	1277,93
832,82	1267,69
832,99	1232,88
833,17	1329,13
833,34	1298,41
833,51	1298,41
833,68	1232,88
833,85	1220,59
834,02	1335,28
834,19	1294,32
834,36	1263,60
834,53	1241,07
834,70	1294,32
834,87	1241,07
835,04	1228,78
835,22	1169,39
835,39	1230,83
835,56	1259,50
835,73	1329,13
835,90	1304,56
836,07	1282,03
836,24	1241,07
836,41	1325,04
836,58	1267,69
836,75	1279,98
836,92	1310,70
837,09	1236,97
837,26	1222,64
837,43	1279,98
837,60	1284,08
837,77	1320,94
837,94	1253,36
838,12	1263,60
838,29	1222,64
838,46	1206,25
838,63	1259,50
838,80	1249,26
838,97	1325,04
839,14	1245,16
839,31	1267,69
839,48	1267,69
839,65	1304,56
839,82	1310,70
839,99	1230,83
840,16	1322,99
840,33	1308,65
840,50	1314,80
840,67	1265,64
840,84	1245,16
841,01	1255,40
841,18	1275,88
841,35	1277,93
841,52	1363,95
841,69	1275,88
841,86	1292,27
842,03	1316,84
842,20	1255,40
842,37	1251,31
842,54	1257,45
842,71	1265,64
842,88	1308,65
843,05	1312,75
843,22	1140,72
843,39	1191,92
843,56	1255,40
843,73	1292,27
843,90	1239,02
844,07	1267,69
844,24	1275,88
844,41	1277,93
844,58	1310,70
844,75	1210,35
844,92	1263,60
845,09	1253,36
845,26	1255,40
845,43	1345,52
845,60	1265,64
845,77	1267,69
845,94	1325,04
846,10	1294,32
846,27	1294,32
846,44	1316,84
846,61	1277,93
846,78	1224,69
846,95	1294,32
847,12	1310,70
847,29	1249,26
847,46	1247,21
847,63	1259,50
847,80	1273,84
847,97	1232,88
848,14	1241,07
848,31	1200,11
848,48	1177,58
848,65	1198,06
848,82	1320,94
848,98	1314,80
849,15	1181,68
849,32	1261,55
849,49	1236,97
849,66	1181,68
849,83	1222,64
850,00	1218,54
850,17	1298,41
850,34	1304,56
850,51	1284,08
850,68	1339,37
850,85	1339,37
851,01	1230,83
851,18	1265,64
851,35	1196,01
851,52	1187,82
851,69	1251,31
851,86	1247,21
852,03	1271,79
852,20	1277,93
852,37	1263,60
852,53	1355,76
852,70	1255,40
852,87	1298,41
853,04	1318,89
853,21	1322,99
853,38	1275,88
853,55	1304,56
853,72	1282,03
853,89	1236,97
854,05	1312,75
854,22	1236,97
854,39	1279,98
854,56	1222,64
854,73	1269,74
854,90	1251,31
855,07	1269,74
855,23	1269,74
855,40	1224,69
855,57	1314,80
855,74	1304,56
855,91	1343,47
856,08	1222,64
856,25	1292,27
856,41	1288,17
856,58	1314,80
856,75	1275,88
856,92	1226,73
857,09	1310,70
857,26	1247,21
857,42	1298,41
857,59	1290,22
857,76	1310,70
857,93	1314,80
858,10	1339,37
858,27	1284,08
858,43	1282,03
858,60	1249,26
858,77	1255,40
858,94	1298,41
859,11	1279,98
859,27	1294,32
859,44	1290,22
859,61	1261,55
859,78	1265,64
859,95	1267,69
860,12	1224,69
860,28	1249,26
860,45	1329,13
860,62	1257,45
860,79	1265,64
860,95	1249,26
861,12	1259,50
861,29	1247,21
861,46	1220,59
861,63	1236,97
861,79	1282,03
861,96	1224,69
862,13	1279,98
862,30	1300,46
862,47	1204,21
862,63	1196,01
862,80	1304,56
862,97	1228,78
863,14	1243,12
863,30	1312,75
863,47	1261,55
863,64	1228,78
863,81	1312,75
863,97	1318,89
864,14	1259,50
864,31	1284,08
864,48	1290,22
864,65	1335,28
864,81	1327,08
864,98	1255,40
865,15	1255,40
865,32	1284,08
865,48	1302,51
865,65	1198,06
865,82	1224,69
865,98	1341,42
866,15	1296,36
866,32	1245,16
866,49	1286,12
866,65	1253,36
866,82	1298,41
866,99	1300,46
867,16	1306,60
867,32	1310,70
867,49	1204,21
867,66	1220,59
867,83	1251,31
867,99	1241,07
868,16	1191,92
868,33	1185,77
868,49	1310,70
868,66	1261,55
868,83	1251,31
868,99	1267,69
869,16	1224,69
869,33	1322,99
869,50	1349,61
869,66	1206,25
869,83	1257,45
870,00	1290,22
870,16	1286,12
870,33	1314,80
870,50	1290,22
870,66	1249,26
870,83	1288,17
871,00	1183,73
871,17	1222,64
871,33	1275,88
871,50	1263,60
871,67	1292,27
871,83	1253,36
872,00	1296,36
872,17	1284,08
872,33	1316,84
872,50	1310,70
872,67	1282,03
872,83	1347,56
873,00	1277,93
873,17	1282,03
873,33	1335,28
873,50	1249,26
873,67	1202,16
873,83	1320,94
874,00	1265,64
874,16	1206,25
874,33	1230,83
874,50	1239,02
874,66	1282,03
874,83	1275,88
875,00	1247,21
875,16	1312,75
875,33	1320,94
875,50	1222,64
875,66	1271,79
875,83	1277,93
875,99	1290,22
876,16	1298,41
876,33	1249,26
876,49	1249,26
876,66	1292,27
876,83	1302,51
876,99	1142,77
877,16	1339,37
877,32	1220,59
877,49	1286,12
877,66	1269,74
877,82	1380,33
877,99	1249,26
878,15	1222,64
878,32	1284,08
878,49	1318,89
878,65	1351,66
878,82	1257,45
878,98	1251,31
879,15	1277,93
879,32	1214,45
879,48	1253,36
879,65	1226,73
879,81	1292,27
879,98	1222,64
880,15	1277,93
880,31	1296,36
880,48	1165,29
880,64	1269,74
880,81	1292,27
880,97	1239,02
881,14	1253,36
881,31	1273,84
881,47	1263,60
881,64	1376,24
881,80	1269,74
881,97	1245,16
882,13	1310,70
882,30	1275,88
882,47	1273,84
882,63	1230,83
882,80	1271,79
882,96	1208,30
883,13	1306,60
883,29	1339,37
883,46	1271,79
883,62	1298,41
883,79	1277,93
883,95	1298,41
884,12	1363,95
884,29	1257,45
884,45	1318,89
884,62	1245,16
884,78	1204,21
884,95	1294,32
885,11	1236,97
885,28	1253,36
885,44	1249,26
885,61	1255,40
885,77	1271,79
885,94	1349,61
886,10	1261,55
886,27	1226,73
886,43	1226,73
886,60	1241,07
886,76	1202,16
886,93	1308,65
887,09	1251,31
887,26	1282,03
887,42	1249,26
887,59	1226,73
887,75	1218,54
887,92	1275,88
888,08	1269,74
888,25	1148,91
888,41	1277,93
888,58	1273,84
888,74	1191,92
888,91	1267,69
>>>>>End Processed Spectral Data<<<<<
