SpectraSuite Data File
++++++++++++++++++++++++++++++++++++
Date: Sun Apr 03 19:55:13 CEST 2016
User: root
Dark Spectrum Present: No
Reference Spectrum Present: No
Number of Sampled Component Spectra: 1
Spectrometers: USB4C02835
Integration Time (usec): 10000 (USB4C02835)
Spectra Averaged: 1 (USB4C02835)
Boxcar Smoothing: 0 (USB4C02835)
Correct for Electrical Dark: No (USB4C02835)
Strobe/Lamp Enabled: No (USB4C02835)
Correct for Detector Non-linearity: No (USB4C02835)
Correct for Stray Light: No (USB4C02835)
Number of Pixels in Processed Spectrum: 3648
>>>>>Begin Processed Spectral Data<<<<<
177,47	1230,83
177,69	1230,83
177,91	1230,83
178,13	1257,45
178,36	1241,07
178,58	1214,45
178,80	1198,06
179,02	1159,15
179,24	1198,06
179,46	1284,08
179,68	1286,12
179,90	1249,26
180,13	1353,71
180,35	1279,98
180,57	1347,56
180,79	1245,16
181,01	1206,25
181,23	1363,95
181,45	1277,93
181,67	1251,31
181,90	1257,45
182,12	1222,64
182,34	1273,84
182,56	1212,40
182,78	1308,65
183,00	1312,75
183,22	1286,12
183,44	1282,03
183,66	1263,60
183,89	1284,08
184,11	1241,07
184,33	1279,98
184,55	1255,40
184,77	1325,04
184,99	1337,32
185,21	1263,60
185,43	1222,64
185,65	1257,45
185,87	1230,83
186,10	1267,69
186,32	1341,42
186,54	1239,02
186,76	1286,12
186,98	1310,70
187,20	1316,84
187,42	1253,36
187,64	1191,92
187,86	1353,71
188,08	1193,97
188,30	1253,36
188,52	1220,59
188,75	1320,94
188,97	1210,35
189,19	1277,93
189,41	1239,02
189,63	1261,55
189,85	1275,88
190,07	1269,74
190,29	1257,45
190,51	1296,36
190,73	1273,84
190,95	1247,21
191,17	1247,21
191,39	1282,03
191,61	1337,32
191,84	1228,78
192,06	1273,84
192,28	1265,64
192,50	1320,94
192,72	1290,22
192,94	1279,98
193,16	1269,74
193,38	1271,79
193,60	1306,60
193,82	1288,17
194,04	1306,60
194,26	1267,69
194,48	1236,97
194,70	1288,17
194,92	1351,66
195,14	1247,21
195,36	1257,45
195,58	1247,21
195,80	1251,31
196,02	1265,64
196,24	1241,07
196,46	1292,27
196,69	1220,59
196,91	1290,22
197,13	1163,25
197,35	1216,49
197,57	1271,79
197,79	1232,88
198,01	1290,22
198,23	1253,36
198,45	1173,49
198,67	1269,74
198,89	1306,60
199,11	1263,60
199,33	1253,36
199,55	1226,73
199,77	1337,32
199,99	1255,40
200,21	1273,84
200,43	1288,17
200,65	1249,26
200,87	1290,22
201,09	1253,36
201,31	1218,54
201,53	1314,80
201,75	1253,36
201,97	1230,83
202,19	1343,47
202,41	1232,88
202,63	1322,99
202,85	1304,56
203,07	1200,11
203,29	1277,93
203,51	1265,64
203,73	1286,12
203,95	1255,40
204,17	1269,74
204,39	1353,71
204,61	1249,26
204,83	1224,69
205,05	1198,06
205,27	1322,99
205,49	1220,59
205,71	1214,45
205,93	1331,18
206,15	1296,36
206,37	1249,26
206,59	1263,60
206,81	1251,31
207,03	1304,56
207,25	1236,97
207,47	1290,22
207,69	1241,07
207,91	1300,46
208,13	1228,78
208,34	1312,75
208,56	1284,08
208,78	1275,88
209,00	1302,51
209,22	1228,78
209,44	1282,03
209,66	1243,12
209,88	1228,78
210,10	1228,78
210,32	1304,56
210,54	1279,98
210,76	1261,55
210,98	1331,18
211,20	1286,12
211,42	1339,37
211,64	1316,84
211,86	1320,94
212,08	1232,88
212,30	1282,03
212,52	1341,42
212,74	1224,69
212,96	1208,30
213,17	1222,64
213,39	1312,75
213,61	1288,17
213,83	1267,69
214,05	1296,36
214,27	1253,36
214,49	1257,45
214,71	1288,17
214,93	1253,36
215,15	1251,31
215,37	1292,27
215,59	1296,36
215,81	1286,12
216,03	1243,12
216,24	1282,03
216,46	1290,22
216,68	1263,60
216,90	1255,40
217,12	1265,64
217,34	1206,25
217,56	1279,98
217,78	1257,45
218,00	1196,01
218,22	1284,08
218,44	1277,93
218,66	1239,02
218,87	1339,37
219,09	1310,70
219,31	1316,84
219,53	1306,60
219,75	1355,76
219,97	1284,08
220,19	1255,40
220,41	1243,12
220,63	1263,60
220,85	1218,54
221,06	1265,64
221,28	1265,64
221,50	1228,78
221,72	1267,69
221,94	1224,69
222,16	1232,88
222,38	1261,55
222,60	1200,11
222,82	1191,92
223,03	1247,21
223,25	1249,26
223,47	1284,08
223,69	1273,84
223,91	1282,03
224,13	1247,21
224,35	1286,12
224,57	1222,64
224,78	1214,45
225,00	1267,69
225,22	1222,64
225,44	1320,94
225,66	1298,41
225,88	1296,36
226,10	1286,12
226,32	1271,79
226,53	1296,36
226,75	1331,18
226,97	1208,30
227,19	1247,21
227,41	1216,49
227,63	1271,79
227,85	1253,36
228,06	1245,16
228,28	1241,07
228,50	1304,56
228,72	1284,08
228,94	1292,27
229,16	1214,45
229,37	1277,93
229,59	1155,05
229,81	1314,80
230,03	1296,36
230,25	1265,64
230,47	1290,22
230,69	1191,92
230,90	1275,88
231,12	1167,34
231,34	1316,84
231,56	1320,94
231,78	1333,23
232,00	1261,55
232,21	1224,69
232,43	1310,70
232,65	1298,41
232,87	1224,69
233,09	1200,11
233,30	1271,79
233,52	1327,08
233,74	1279,98
233,96	1288,17
234,18	1259,50
234,40	1271,79
234,61	1292,27
234,83	1279,98
235,05	1288,17
235,27	1230,83
235,49	1288,17
235,70	1236,97
235,92	1288,17
236,14	1337,32
236,36	1306,60
236,58	1224,69
236,79	1249,26
237,01	1239,02
237,23	1236,97
237,45	1308,65
237,67	1302,51
237,88	1296,36
238,10	1261,55
238,32	1220,59
238,54	1216,49
238,76	1220,59
238,97	1265,64
239,19	1284,08
239,41	1275,88
239,63	1169,39
239,85	1304,56
240,06	1210,35
240,28	1247,21
240,50	1249,26
240,72	1234,93
240,93	1325,04
241,15	1308,65
241,37	1177,58
241,59	1253,36
241,81	1212,40
242,02	1273,84
242,24	1251,31
242,46	1257,45
242,68	1273,84
242,89	1302,51
243,11	1286,12
243,33	1249,26
243,55	1273,84
243,76	1232,88
243,98	1300,46
244,20	1236,97
244,42	1216,49
244,64	1306,60
244,85	1222,64
245,07	1222,64
245,29	1247,21
245,51	1327,08
245,72	1290,22
245,94	1236,97
246,16	1245,16
246,38	1263,60
246,59	1304,56
246,81	1284,08
247,03	1243,12
247,24	1296,36
247,46	1302,51
247,68	1226,73
247,90	1300,46
248,11	1308,65
248,33	1255,40
248,55	1271,79
248,77	1232,88
248,98	1282,03
249,20	1271,79
249,42	1294,32
249,64	1271,79
249,85	1249,26
250,07	1306,60
250,29	1269,74
250,50	1255,40
250,72	1263,60
250,94	1275,88
251,16	1304,56
251,37	1265,64
251,59	1269,74
251,81	1216,49
252,02	1253,36
252,24	1193,97
252,46	1306,60
252,68	1257,45
252,89	1320,94
253,11	1277,93
253,33	1271,79
253,54	1333,23
253,76	1204,21
253,98	1247,21
254,20	1253,36
254,41	1214,45
254,63	1327,08
254,85	1292,27
255,06	1284,08
255,28	1249,26
255,50	1339,37
255,71	1279,98
255,93	1296,36
256,15	1337,32
256,36	1314,80
256,58	1284,08
256,80	1308,65
257,02	1255,40
257,23	1210,35
257,45	1253,36
257,67	1329,13
257,88	1257,45
258,10	1314,80
258,32	1300,46
258,53	1271,79
258,75	1296,36
258,97	1279,98
259,18	1298,41
259,40	1312,75
259,62	1261,55
259,83	1288,17
260,05	1218,54
260,27	1261,55
260,48	1284,08
260,70	1347,56
260,92	1314,80
261,13	1226,73
261,35	1269,74
261,57	1304,56
261,78	1292,27
262,00	1269,74
262,22	1314,80
262,43	1286,12
262,65	1202,16
262,86	1251,31
263,08	1300,46
263,30	1286,12
263,51	1228,78
263,73	1247,21
263,95	1304,56
264,16	1296,36
264,38	1275,88
264,60	1257,45
264,81	1241,07
265,03	1183,73
265,25	1204,21
265,46	1204,21
265,68	1282,03
265,89	1230,83
266,11	1275,88
266,33	1288,17
266,54	1230,83
266,76	1314,80
266,98	1271,79
267,19	1206,25
267,41	1275,88
267,62	1322,99
267,84	1288,17
268,06	1284,08
268,27	1245,16
268,49	1249,26
268,70	1386,47
268,92	1288,17
269,14	1314,80
269,35	1208,30
269,57	1259,50
269,79	1261,55
270,00	1230,83
270,22	1265,64
270,43	1241,07
270,65	1253,36
270,87	1214,45
271,08	1259,50
271,30	1292,27
271,51	1355,76
271,73	1208,30
271,95	1249,26
272,16	1181,68
272,38	1277,93
272,59	1247,21
272,81	1306,60
273,02	1243,12
273,24	1224,69
273,46	1331,18
273,67	1302,51
273,89	1302,51
274,10	1208,30
274,32	1224,69
274,54	1277,93
274,75	1288,17
274,97	1329,13
275,18	1296,36
275,40	1306,60
275,61	1275,88
275,83	1175,53
276,05	1294,32
276,26	1230,83
276,48	1226,73
276,69	1318,89
276,91	1322,99
277,12	1310,70
277,34	1249,26
277,55	1302,51
277,77	1284,08
277,99	1261,55
278,20	1271,79
278,42	1222,64
278,63	1265,64
278,85	1288,17
279,06	1322,99
279,28	1306,60
279,49	1286,12
279,71	1306,60
279,93	1261,55
280,14	1208,30
280,36	1206,25
280,57	1302,51
280,79	1302,51
281,00	1282,03
281,22	1290,22
281,43	1236,97
281,65	1282,03
281,86	1251,31
282,08	1232,88
282,29	1284,08
282,51	1273,84
282,73	1228,78
282,94	1284,08
283,16	1224,69
283,37	1222,64
283,59	1206,25
283,80	1277,93
284,02	1282,03
284,23	1165,29
284,45	1263,60
284,66	1224,69
284,88	1259,50
285,09	1212,40
285,31	1331,18
285,52	1308,65
285,74	1331,18
285,95	1210,35
286,17	1273,84
286,38	1253,36
286,60	1282,03
286,81	1273,84
287,03	1216,49
287,24	1271,79
287,46	1191,92
287,67	1247,21
287,89	1275,88
288,10	1294,32
288,32	1210,35
288,53	1284,08
288,75	1277,93
288,96	1220,59
289,18	1257,45
289,39	1286,12
289,61	1267,69
289,82	1275,88
290,04	1273,84
290,25	1255,40
290,47	1232,88
290,68	1251,31
290,90	1300,46
291,11	1230,83
291,33	1263,60
291,54	1259,50
291,76	1288,17
291,97	1222,64
292,18	1277,93
292,40	1189,87
292,61	1271,79
292,83	1200,11
293,04	1292,27
293,26	1288,17
293,47	1257,45
293,69	1302,51
293,90	1288,17
294,12	1275,88
294,33	1341,42
294,55	1277,93
294,76	1249,26
294,97	1302,51
295,19	1302,51
295,40	1290,22
295,62	1335,28
295,83	1273,84
296,05	1259,50
296,26	1312,75
296,48	1232,88
296,69	1275,88
296,90	1249,26
297,12	1236,97
297,33	1286,12
297,55	1243,12
297,76	1251,31
297,98	1212,40
298,19	1302,51
298,41	1277,93
298,62	1245,16
298,83	1255,40
299,05	1267,69
299,26	1341,42
299,48	1241,07
299,69	1322,99
299,90	1245,16
300,12	1316,84
300,33	1206,25
300,55	1259,50
300,76	1351,66
300,98	1314,80
301,19	1273,84
301,40	1290,22
301,62	1222,64
301,83	1300,46
302,05	1277,93
302,26	1241,07
302,47	1243,12
302,69	1236,97
302,90	1243,12
303,12	1232,88
303,33	1292,27
303,54	1320,94
303,76	1245,16
303,97	1218,54
304,19	1382,38
304,40	1263,60
304,61	1343,47
304,83	1218,54
305,04	1310,70
305,26	1292,27
305,47	1271,79
305,68	1249,26
305,90	1187,82
306,11	1282,03
306,33	1228,78
306,54	1198,06
306,75	1269,74
306,97	1279,98
307,18	1273,84
307,39	1294,32
307,61	1306,60
307,82	1298,41
308,04	1273,84
308,25	1275,88
308,46	1259,50
308,68	1214,45
308,89	1298,41
309,10	1271,79
309,32	1198,06
309,53	1265,64
309,74	1214,45
309,96	1265,64
310,17	1263,60
310,39	1261,55
310,60	1263,60
310,81	1257,45
311,03	1216,49
311,24	1239,02
311,45	1263,60
311,67	1279,98
311,88	1277,93
312,09	1255,40
312,31	1286,12
312,52	1259,50
312,73	1179,63
312,95	1214,45
313,16	1282,03
313,37	1255,40
313,59	1282,03
313,80	1243,12
314,01	1310,70
314,23	1243,12
314,44	1259,50
314,65	1279,98
314,87	1298,41
315,08	1271,79
315,29	1351,66
315,51	1292,27
315,72	1308,65
315,93	1155,05
316,15	1341,42
316,36	1224,69
316,57	1318,89
316,79	1325,04
317,00	1253,36
317,21	1243,12
317,43	1325,04
317,64	1322,99
317,85	1259,50
318,07	1251,31
318,28	1216,49
318,49	1349,61
318,70	1200,11
318,92	1234,93
319,13	1314,80
319,34	1279,98
319,56	1300,46
319,77	1234,93
319,98	1214,45
320,20	1230,83
320,41	1226,73
320,62	1282,03
320,83	1273,84
321,05	1273,84
321,26	1259,50
321,47	1253,36
321,69	1322,99
321,90	1241,07
322,11	1282,03
322,32	1257,45
322,54	1288,17
322,75	1277,93
322,96	1271,79
323,18	1234,93
323,39	1271,79
323,60	1224,69
323,81	1288,17
324,03	1298,41
324,24	1316,84
324,45	1212,40
324,66	1273,84
324,88	1286,12
325,09	1255,40
325,30	1265,64
325,52	1263,60
325,73	1282,03
325,94	1353,71
326,15	1236,97
326,37	1290,22
326,58	1222,64
326,79	1282,03
327,00	1222,64
327,22	1306,60
327,43	1279,98
327,64	1230,83
327,85	1243,12
328,07	1226,73
328,28	1241,07
328,49	1243,12
328,70	1187,82
328,92	1259,50
329,13	1232,88
329,34	1226,73
329,55	1255,40
329,76	1243,12
329,98	1273,84
330,19	1322,99
330,40	1255,40
330,61	1257,45
330,83	1300,46
331,04	1220,59
331,25	1208,30
331,46	1304,56
331,68	1230,83
331,89	1282,03
332,10	1222,64
332,31	1249,26
332,52	1341,42
332,74	1282,03
332,95	1298,41
333,16	1288,17
333,37	1333,23
333,58	1277,93
333,80	1224,69
334,01	1189,87
334,22	1267,69
334,43	1265,64
334,64	1304,56
334,86	1316,84
335,07	1228,78
335,28	1296,36
335,49	1263,60
335,70	1271,79
335,92	1282,03
336,13	1300,46
336,34	1288,17
336,55	1249,26
336,76	1265,64
336,98	1316,84
337,19	1286,12
337,40	1288,17
337,61	1263,60
337,82	1179,63
338,04	1255,40
338,25	1333,23
338,46	1282,03
338,67	1333,23
338,88	1277,93
339,09	1263,60
339,31	1239,02
339,52	1191,92
339,73	1269,74
339,94	1288,17
340,15	1230,83
340,36	1300,46
340,58	1228,78
340,79	1333,23
341,00	1226,73
341,21	1249,26
341,42	1359,85
341,63	1251,31
341,85	1202,16
342,06	1259,50
342,27	1241,07
342,48	1232,88
342,69	1282,03
342,90	1322,99
343,12	1271,79
343,33	1247,21
343,54	1267,69
343,75	1296,36
343,96	1306,60
344,17	1179,63
344,38	1245,16
344,60	1234,93
344,81	1310,70
345,02	1269,74
345,23	1261,55
345,44	1245,16
345,65	1234,93
345,86	1294,32
346,07	1273,84
346,29	1333,23
346,50	1267,69
346,71	1286,12
346,92	1220,59
347,13	1279,98
347,34	1222,64
347,55	1310,70
347,76	1290,22
347,98	1271,79
348,19	1261,55
348,40	1257,45
348,61	1263,60
348,82	1282,03
349,03	1228,78
349,24	1279,98
349,45	1279,98
349,66	1279,98
349,88	1224,69
350,09	1275,88
350,30	1230,83
350,51	1271,79
350,72	1236,97
350,93	1243,12
351,14	1290,22
351,35	1271,79
351,56	1216,49
351,77	1253,36
351,99	1263,60
352,20	1255,40
352,41	1257,45
352,62	1259,50
352,83	1298,41
353,04	1261,55
353,25	1384,43
353,46	1314,80
353,67	1294,32
353,88	1306,60
354,09	1247,21
354,30	1257,45
354,52	1357,80
354,73	1198,06
354,94	1247,21
355,15	1259,50
355,36	1226,73
355,57	1271,79
355,78	1224,69
355,99	1329,13
356,20	1200,11
356,41	1302,51
356,62	1284,08
356,83	1251,31
357,04	1226,73
357,25	1294,32
357,46	1212,40
357,68	1282,03
357,89	1249,26
358,10	1257,45
358,31	1251,31
358,52	1277,93
358,73	1308,65
358,94	1263,60
359,15	1308,65
359,36	1292,27
359,57	1208,30
359,78	1249,26
359,99	1318,89
360,20	1345,52
360,41	1171,44
360,62	1269,74
360,83	1296,36
361,04	1236,97
361,25	1253,36
361,46	1345,52
361,67	1202,16
361,88	1329,13
362,09	1290,22
362,30	1296,36
362,51	1296,36
362,72	1284,08
362,93	1251,31
363,14	1226,73
363,35	1290,22
363,56	1298,41
363,78	1257,45
363,99	1306,60
364,20	1327,08
364,41	1148,91
364,62	1279,98
364,83	1304,56
365,04	1294,32
365,25	1292,27
365,46	1245,16
365,67	1341,42
365,88	1339,37
366,09	1302,51
366,30	1265,64
366,51	1239,02
366,72	1251,31
366,93	1230,83
367,14	1234,93
367,35	1222,64
367,56	1290,22
367,77	1265,64
367,98	1341,42
368,18	1308,65
368,39	1257,45
368,60	1331,18
368,81	1228,78
369,02	1279,98
369,23	1218,54
369,44	1298,41
369,65	1265,64
369,86	1351,66
370,07	1304,56
370,28	1232,88
370,49	1234,93
370,70	1316,84
370,91	1159,15
371,12	1259,50
371,33	1271,79
371,54	1298,41
371,75	1269,74
371,96	1269,74
372,17	1339,37
372,38	1298,41
372,59	1284,08
372,80	1282,03
373,01	1259,50
373,22	1300,46
373,43	1322,99
373,64	1273,84
373,85	1296,36
374,06	1310,70
374,26	1298,41
374,47	1234,93
374,68	1253,36
374,89	1282,03
375,10	1273,84
375,31	1282,03
375,52	1216,49
375,73	1288,17
375,94	1316,84
376,15	1247,21
376,36	1255,40
376,57	1222,64
376,78	1251,31
376,99	1275,88
377,20	1200,11
377,40	1298,41
377,61	1247,21
377,82	1191,92
378,03	1312,75
378,24	1316,84
378,45	1212,40
378,66	1257,45
378,87	1218,54
379,08	1288,17
379,29	1339,37
379,50	1292,27
379,71	1320,94
379,91	1257,45
380,12	1269,74
380,33	1304,56
380,54	1173,49
380,75	1314,80
380,96	1226,73
381,17	1263,60
381,38	1304,56
381,59	1251,31
381,80	1239,02
382,00	1327,08
382,21	1339,37
382,42	1331,18
382,63	1306,60
382,84	1222,64
383,05	1312,75
383,26	1310,70
383,47	1322,99
383,68	1273,84
383,88	1294,32
384,09	1265,64
384,30	1335,28
384,51	1316,84
384,72	1236,97
384,93	1312,75
385,14	1320,94
385,35	1200,11
385,55	1351,66
385,76	1312,75
385,97	1325,04
386,18	1251,31
386,39	1259,50
386,60	1320,94
386,81	1204,21
387,02	1298,41
387,22	1253,36
387,43	1304,56
387,64	1300,46
387,85	1288,17
388,06	1208,30
388,27	1288,17
388,48	1261,55
388,68	1239,02
388,89	1290,22
389,10	1241,07
389,31	1241,07
389,52	1230,83
389,73	1253,36
389,93	1187,82
390,14	1296,36
390,35	1271,79
390,56	1245,16
390,77	1265,64
390,98	1327,08
391,18	1259,50
391,39	1239,02
391,60	1279,98
391,81	1275,88
392,02	1335,28
392,23	1306,60
392,43	1263,60
392,64	1198,06
392,85	1337,32
393,06	1234,93
393,27	1181,68
393,47	1249,26
393,68	1230,83
393,89	1275,88
394,10	1306,60
394,31	1286,12
394,52	1263,60
394,72	1234,93
394,93	1247,21
395,14	1210,35
395,35	1312,75
395,56	1245,16
395,76	1245,16
395,97	1267,69
396,18	1253,36
396,39	1216,49
396,60	1296,36
396,80	1261,55
397,01	1253,36
397,22	1300,46
397,43	1234,93
397,64	1296,36
397,84	1267,69
398,05	1259,50
398,26	1257,45
398,47	1206,25
398,67	1275,88
398,88	1251,31
399,09	1187,82
399,30	1327,08
399,51	1234,93
399,71	1226,73
399,92	1325,04
400,13	1255,40
400,34	1263,60
400,54	1277,93
400,75	1298,41
400,96	1347,56
401,17	1232,88
401,37	1259,50
401,58	1318,89
401,79	1269,74
402,00	1269,74
402,21	1292,27
402,41	1167,34
402,62	1253,36
402,83	1282,03
403,04	1163,25
403,24	1290,22
403,45	1261,55
403,66	1290,22
403,87	1279,98
404,07	1234,93
404,28	1249,26
404,49	1232,88
404,70	1320,94
404,90	1284,08
405,11	1271,79
405,32	1296,36
405,52	1265,64
405,73	1286,12
405,94	1230,83
406,15	1247,21
406,35	1327,08
406,56	1220,59
406,77	1234,93
406,98	1206,25
407,18	1269,74
407,39	1269,74
407,60	1288,17
407,80	1234,93
408,01	1273,84
408,22	1226,73
408,43	1306,60
408,63	1261,55
408,84	1269,74
409,05	1306,60
409,25	1290,22
409,46	1228,78
409,67	1269,74
409,88	1255,40
410,08	1300,46
410,29	1249,26
410,50	1275,88
410,70	1220,59
410,91	1226,73
411,12	1302,51
411,32	1253,36
411,53	1302,51
411,74	1265,64
411,95	1273,84
412,15	1351,66
412,36	1265,64
412,57	1222,64
412,77	1261,55
412,98	1255,40
413,19	1279,98
413,39	1314,80
413,60	1241,07
413,81	1243,12
414,01	1296,36
414,22	1302,51
414,43	1253,36
414,63	1320,94
414,84	1224,69
415,05	1257,45
415,25	1243,12
415,46	1239,02
415,67	1255,40
415,87	1261,55
416,08	1253,36
416,29	1273,84
416,49	1290,22
416,70	1230,83
416,91	1286,12
417,11	1277,93
417,32	1232,88
417,53	1239,02
417,73	1279,98
417,94	1302,51
418,15	1232,88
418,35	1110,00
418,56	1290,22
418,77	1288,17
418,97	1273,84
419,18	1243,12
419,38	1222,64
419,59	1357,80
419,80	1267,69
420,00	1239,02
420,21	1322,99
420,42	1300,46
420,62	1241,07
420,83	1271,79
421,04	1226,73
421,24	1220,59
421,45	1241,07
421,65	1273,84
421,86	1245,16
422,07	1294,32
422,27	1232,88
422,48	1259,50
422,69	1306,60
422,89	1273,84
423,10	1273,84
423,30	1273,84
423,51	1306,60
423,72	1247,21
423,92	1282,03
424,13	1187,82
424,33	1306,60
424,54	1257,45
424,75	1245,16
424,95	1322,99
425,16	1310,70
425,36	1290,22
425,57	1247,21
425,78	1257,45
425,98	1222,64
426,19	1249,26
426,39	1243,12
426,60	1306,60
426,81	1271,79
427,01	1314,80
427,22	1269,74
427,42	1312,75
427,63	1216,49
427,83	1298,41
428,04	1290,22
428,25	1232,88
428,45	1212,40
428,66	1292,27
428,86	1214,45
429,07	1306,60
429,28	1265,64
429,48	1273,84
429,69	1265,64
429,89	1286,12
430,10	1292,27
430,30	1306,60
430,51	1263,60
430,71	1282,03
430,92	1261,55
431,13	1275,88
431,33	1253,36
431,54	1226,73
431,74	1337,32
431,95	1359,85
432,15	1290,22
432,36	1232,88
432,56	1265,64
432,77	1257,45
432,98	1277,93
433,18	1273,84
433,39	1300,46
433,59	1265,64
433,80	1277,93
434,00	1255,40
434,21	1265,64
434,41	1236,97
434,62	1273,84
434,82	1298,41
435,03	1343,47
435,23	1316,84
435,44	1294,32
435,64	1239,02
435,85	1261,55
436,06	1294,32
436,26	1310,70
436,47	1196,01
436,67	1243,12
436,88	1239,02
437,08	1212,40
437,29	1271,79
437,49	1263,60
437,70	1263,60
437,90	1288,17
438,11	1290,22
438,31	1279,98
438,52	1243,12
438,72	1234,93
438,93	1277,93
439,13	1312,75
439,34	1314,80
439,54	1322,99
439,75	1222,64
439,95	1290,22
440,16	1279,98
440,36	1298,41
440,57	1232,88
440,77	1259,50
440,98	1236,97
441,18	1255,40
441,39	1214,45
441,59	1216,49
441,80	1251,31
442,00	1263,60
442,21	1265,64
442,41	1234,93
442,62	1273,84
442,82	1296,36
443,02	1394,67
443,23	1296,36
443,43	1308,65
443,64	1335,28
443,84	1320,94
444,05	1249,26
444,25	1286,12
444,46	1335,28
444,66	1316,84
444,87	1257,45
445,07	1327,08
445,28	1288,17
445,48	1316,84
445,69	1277,93
445,89	1345,52
446,09	1167,34
446,30	1333,23
446,50	1265,64
446,71	1308,65
446,91	1196,01
447,12	1220,59
447,32	1230,83
447,53	1312,75
447,73	1286,12
447,93	1269,74
448,14	1308,65
448,34	1193,97
448,55	1284,08
448,75	1277,93
448,96	1347,56
449,16	1310,70
449,36	1286,12
449,57	1263,60
449,77	1271,79
449,98	1318,89
450,18	1247,21
450,39	1273,84
450,59	1288,17
450,79	1263,60
451,00	1318,89
451,20	1273,84
451,41	1368,04
451,61	1292,27
451,81	1298,41
452,02	1249,26
452,22	1257,45
452,43	1253,36
452,63	1263,60
452,84	1286,12
453,04	1308,65
453,24	1249,26
453,45	1294,32
453,65	1327,08
453,86	1359,85
454,06	1251,31
454,26	1273,84
454,47	1286,12
454,67	1202,16
454,87	1327,08
455,08	1224,69
455,28	1255,40
455,49	1288,17
455,69	1232,88
455,89	1341,42
456,10	1298,41
456,30	1279,98
456,51	1216,49
456,71	1228,78
456,91	1253,36
457,12	1353,71
457,32	1218,54
457,52	1349,61
457,73	1294,32
457,93	1259,50
458,14	1177,58
458,34	1269,74
458,54	1310,70
458,75	1339,37
458,95	1257,45
459,15	1290,22
459,36	1282,03
459,56	1243,12
459,76	1273,84
459,97	1200,11
460,17	1279,98
460,37	1210,35
460,58	1269,74
460,78	1220,59
460,99	1265,64
461,19	1284,08
461,39	1273,84
461,60	1263,60
461,80	1249,26
462,00	1312,75
462,21	1284,08
462,41	1290,22
462,61	1298,41
462,82	1288,17
463,02	1224,69
463,22	1271,79
463,43	1265,64
463,63	1290,22
463,83	1226,73
464,04	1320,94
464,24	1282,03
464,44	1259,50
464,64	1245,16
464,85	1263,60
465,05	1290,22
465,25	1325,04
465,46	1191,92
465,66	1230,83
465,86	1312,75
466,07	1302,51
466,27	1222,64
466,47	1282,03
466,68	1286,12
466,88	1306,60
467,08	1294,32
467,29	1273,84
467,49	1271,79
467,69	1279,98
467,89	1271,79
468,10	1296,36
468,30	1226,73
468,50	1382,38
468,71	1366,00
468,91	1273,84
469,11	1325,04
469,31	1277,93
469,52	1282,03
469,72	1251,31
469,92	1273,84
470,13	1241,07
470,33	1239,02
470,53	1200,11
470,73	1208,30
470,94	1255,40
471,14	1220,59
471,34	1331,18
471,54	1329,13
471,75	1255,40
471,95	1302,51
472,15	1357,80
472,36	1316,84
472,56	1226,73
472,76	1312,75
472,96	1279,98
473,17	1296,36
473,37	1245,16
473,57	1263,60
473,77	1208,30
473,98	1296,36
474,18	1277,93
474,38	1257,45
474,58	1220,59
474,79	1327,08
474,99	1206,25
475,19	1275,88
475,39	1292,27
475,60	1294,32
475,80	1316,84
476,00	1253,36
476,20	1255,40
476,41	1277,93
476,61	1257,45
476,81	1288,17
477,01	1257,45
477,21	1210,35
477,42	1261,55
477,62	1351,66
477,82	1298,41
478,02	1230,83
478,23	1282,03
478,43	1239,02
478,63	1255,40
478,83	1304,56
479,03	1341,42
479,24	1265,64
479,44	1376,24
479,64	1212,40
479,84	1253,36
480,04	1236,97
480,25	1222,64
480,45	1226,73
480,65	1277,93
480,85	1243,12
481,06	1269,74
481,26	1253,36
481,46	1245,16
481,66	1249,26
481,86	1296,36
482,06	1282,03
482,27	1273,84
482,47	1320,94
482,67	1218,54
482,87	1284,08
483,07	1251,31
483,28	1216,49
483,48	1241,07
483,68	1206,25
483,88	1185,77
484,08	1269,74
484,29	1249,26
484,49	1218,54
484,69	1314,80
484,89	1298,41
485,09	1300,46
485,29	1347,56
485,50	1282,03
485,70	1279,98
485,90	1353,71
486,10	1253,36
486,30	1232,88
486,50	1310,70
486,71	1220,59
486,91	1343,47
487,11	1286,12
487,31	1224,69
487,51	1314,80
487,71	1294,32
487,91	1261,55
488,12	1304,56
488,32	1296,36
488,52	1263,60
488,72	1284,08
488,92	1282,03
489,12	1286,12
489,32	1193,97
489,53	1234,93
489,73	1271,79
489,93	1265,64
490,13	1269,74
490,33	1239,02
490,53	1347,56
490,73	1273,84
490,94	1292,27
491,14	1259,50
491,34	1290,22
491,54	1267,69
491,74	1247,21
491,94	1271,79
492,14	1212,40
492,34	1282,03
492,54	1230,83
492,75	1286,12
492,95	1187,82
493,15	1298,41
493,35	1300,46
493,55	1302,51
493,75	1288,17
493,95	1269,74
494,15	1257,45
494,35	1284,08
494,56	1269,74
494,76	1279,98
494,96	1232,88
495,16	1318,89
495,36	1253,36
495,56	1282,03
495,76	1294,32
495,96	1193,97
496,16	1212,40
496,36	1339,37
496,56	1261,55
496,77	1265,64
496,97	1255,40
497,17	1265,64
497,37	1269,74
497,57	1271,79
497,77	1253,36
497,97	1275,88
498,17	1288,17
498,37	1245,16
498,57	1181,68
498,77	1380,33
498,97	1284,08
499,17	1249,26
499,38	1263,60
499,58	1271,79
499,78	1275,88
499,98	1404,91
500,18	1351,66
500,38	1279,98
500,58	1269,74
500,78	1288,17
500,98	1288,17
501,18	1247,21
501,38	1294,32
501,58	1282,03
501,78	1292,27
501,98	1277,93
502,18	1200,11
502,38	1273,84
502,58	1222,64
502,78	1255,40
502,98	1245,16
503,18	1351,66
503,38	1257,45
503,59	1294,32
503,79	1204,21
503,99	1230,83
504,19	1273,84
504,39	1288,17
504,59	1304,56
504,79	1271,79
504,99	1208,30
505,19	1320,94
505,39	1284,08
505,59	1265,64
505,79	1294,32
505,99	1234,93
506,19	1249,26
506,39	1314,80
506,59	1247,21
506,79	1290,22
506,99	1277,93
507,19	1224,69
507,39	1306,60
507,59	1308,65
507,79	1247,21
507,99	1275,88
508,19	1271,79
508,39	1204,21
508,59	1259,50
508,79	1277,93
508,99	1288,17
509,19	1263,60
509,39	1189,87
509,59	1263,60
509,79	1261,55
509,99	1247,21
510,19	1236,97
510,39	1241,07
510,59	1267,69
510,79	1282,03
510,99	1314,80
511,19	1308,65
511,39	1331,18
511,59	1277,93
511,79	1345,52
511,99	1345,52
512,19	1265,64
512,38	1241,07
512,58	1284,08
512,78	1226,73
512,98	1341,42
513,18	1292,27
513,38	1310,70
513,58	1302,51
513,78	1269,74
513,98	1279,98
514,18	1257,45
514,38	1290,22
514,58	1366,00
514,78	1257,45
514,98	1241,07
515,18	1277,93
515,38	1294,32
515,58	1306,60
515,78	1261,55
515,98	1329,13
516,18	1284,08
516,38	1292,27
516,57	1261,55
516,77	1312,75
516,97	1306,60
517,17	1251,31
517,37	1308,65
517,57	1368,04
517,77	1212,40
517,97	1257,45
518,17	1247,21
518,37	1257,45
518,57	1230,83
518,77	1230,83
518,97	1286,12
519,16	1327,08
519,36	1179,63
519,56	1339,37
519,76	1253,36
519,96	1310,70
520,16	1292,27
520,36	1288,17
520,56	1210,35
520,76	1236,97
520,96	1275,88
521,16	1273,84
521,35	1312,75
521,55	1318,89
521,75	1329,13
521,95	1290,22
522,15	1202,16
522,35	1267,69
522,55	1257,45
522,75	1277,93
522,95	1271,79
523,14	1337,32
523,34	1214,45
523,54	1279,98
523,74	1331,18
523,94	1298,41
524,14	1339,37
524,34	1294,32
524,54	1318,89
524,73	1294,32
524,93	1306,60
525,13	1304,56
525,33	1277,93
525,53	1318,89
525,73	1249,26
525,93	1370,09
526,13	1257,45
526,32	1251,31
526,52	1259,50
526,72	1269,74
526,92	1273,84
527,12	1329,13
527,32	1261,55
527,52	1216,49
527,71	1306,60
527,91	1314,80
528,11	1259,50
528,31	1265,64
528,51	1183,73
528,71	1304,56
528,90	1347,56
529,10	1269,74
529,30	1322,99
529,50	1337,32
529,70	1269,74
529,90	1271,79
530,09	1265,64
530,29	1271,79
530,49	1282,03
530,69	1355,76
530,89	1290,22
531,09	1187,82
531,28	1337,32
531,48	1320,94
531,68	1271,79
531,88	1329,13
532,08	1284,08
532,28	1282,03
532,47	1263,60
532,67	1214,45
532,87	1325,04
533,07	1292,27
533,27	1298,41
533,46	1310,70
533,66	1239,02
533,86	1271,79
534,06	1325,04
534,26	1290,22
534,45	1370,09
534,65	1255,40
534,85	1226,73
535,05	1265,64
535,25	1236,97
535,44	1349,61
535,64	1277,93
535,84	1349,61
536,04	1310,70
536,24	1249,26
536,43	1239,02
536,63	1243,12
536,83	1322,99
537,03	1239,02
537,22	1335,28
537,42	1327,08
537,62	1212,40
537,82	1257,45
538,02	1312,75
538,21	1327,08
538,41	1284,08
538,61	1261,55
538,81	1314,80
539,00	1251,31
539,20	1224,69
539,40	1253,36
539,60	1273,84
539,79	1298,41
539,99	1288,17
540,19	1308,65
540,39	1257,45
540,58	1277,93
540,78	1253,36
540,98	1271,79
541,18	1304,56
541,37	1325,04
541,57	1234,93
541,77	1282,03
541,97	1267,69
542,16	1255,40
542,36	1294,32
542,56	1288,17
542,76	1306,60
542,95	1277,93
543,15	1294,32
543,35	1320,94
543,54	1372,14
543,74	1302,51
543,94	1335,28
544,14	1300,46
544,33	1253,36
544,53	1290,22
544,73	1312,75
544,93	1273,84
545,12	1341,42
545,32	1259,50
545,52	1241,07
545,71	1337,32
545,91	1347,56
546,11	1273,84
546,30	1247,21
546,50	1226,73
546,70	1204,21
546,90	1259,50
547,09	1253,36
547,29	1361,90
547,49	1249,26
547,68	1230,83
547,88	1273,84
548,08	1294,32
548,27	1284,08
548,47	1277,93
548,67	1265,64
548,87	1361,90
549,06	1200,11
549,26	1224,69
549,46	1263,60
549,65	1300,46
549,85	1277,93
550,05	1318,89
550,24	1271,79
550,44	1327,08
550,64	1288,17
550,83	1249,26
551,03	1279,98
551,23	1261,55
551,42	1277,93
551,62	1263,60
551,82	1257,45
552,01	1263,60
552,21	1249,26
552,41	1331,18
552,60	1220,59
552,80	1249,26
553,00	1314,80
553,19	1296,36
553,39	1370,09
553,59	1279,98
553,78	1200,11
553,98	1294,32
554,17	1249,26
554,37	1279,98
554,57	1279,98
554,76	1294,32
554,96	1376,24
555,16	1234,93
555,35	1302,51
555,55	1292,27
555,75	1255,40
555,94	1304,56
556,14	1261,55
556,33	1226,73
556,53	1314,80
556,73	1224,69
556,92	1314,80
557,12	1312,75
557,32	1249,26
557,51	1236,97
557,71	1275,88
557,90	1288,17
558,10	1269,74
558,30	1320,94
558,49	1216,49
558,69	1277,93
558,88	1322,99
559,08	1288,17
559,28	1251,31
559,47	1284,08
559,67	1294,32
559,86	1304,56
560,06	1282,03
560,26	1271,79
560,45	1298,41
560,65	1196,01
560,84	1263,60
561,04	1288,17
561,24	1302,51
561,43	1263,60
561,63	1331,18
561,82	1257,45
562,02	1333,23
562,22	1318,89
562,41	1204,21
562,61	1302,51
562,80	1247,21
563,00	1314,80
563,19	1296,36
563,39	1294,32
563,59	1259,50
563,78	1265,64
563,98	1257,45
564,17	1308,65
564,37	1286,12
564,56	1247,21
564,76	1265,64
564,96	1322,99
565,15	1286,12
565,35	1343,47
565,54	1273,84
565,74	1269,74
565,93	1257,45
566,13	1279,98
566,32	1343,47
566,52	1337,32
566,71	1200,11
566,91	1247,21
567,11	1214,45
567,30	1224,69
567,50	1286,12
567,69	1226,73
567,89	1198,06
568,08	1206,25
568,28	1302,51
568,47	1282,03
568,67	1243,12
568,86	1257,45
569,06	1257,45
569,25	1251,31
569,45	1279,98
569,64	1337,32
569,84	1282,03
570,04	1320,94
570,23	1196,01
570,43	1353,71
570,62	1404,91
570,82	1230,83
571,01	1333,23
571,21	1239,02
571,40	1224,69
571,60	1343,47
571,79	1273,84
571,99	1198,06
572,18	1331,18
572,38	1286,12
572,57	1279,98
572,77	1331,18
572,96	1228,78
573,16	1341,42
573,35	1236,97
573,55	1322,99
573,74	1349,61
573,94	1241,07
574,13	1273,84
574,33	1273,84
574,52	1222,64
574,71	1294,32
574,91	1267,69
575,10	1269,74
575,30	1325,04
575,49	1261,55
575,69	1298,41
575,88	1312,75
576,08	1296,36
576,27	1230,83
576,47	1372,14
576,66	1306,60
576,86	1236,97
577,05	1359,85
577,25	1294,32
577,44	1282,03
577,64	1294,32
577,83	1247,21
578,02	1318,89
578,22	1288,17
578,41	1255,40
578,61	1296,36
578,80	1325,04
579,00	1282,03
579,19	1347,56
579,39	1288,17
579,58	1343,47
579,77	1277,93
579,97	1261,55
580,16	1353,71
580,36	1343,47
580,55	1181,68
580,75	1288,17
580,94	1218,54
581,13	1288,17
581,33	1325,04
581,52	1251,31
581,72	1271,79
581,91	1294,32
582,11	1366,00
582,30	1337,32
582,49	1241,07
582,69	1232,88
582,88	1286,12
583,08	1308,65
583,27	1286,12
583,47	1271,79
583,66	1286,12
583,85	1341,42
584,05	1265,64
584,24	1273,84
584,44	1325,04
584,63	1259,50
584,82	1290,22
585,02	1220,59
585,21	1306,60
585,41	1269,74
585,60	1310,70
585,79	1230,83
585,99	1304,56
586,18	1271,79
586,37	1292,27
586,57	1249,26
586,76	1298,41
586,96	1269,74
587,15	1310,70
587,34	1374,19
587,54	1351,66
587,73	1267,69
587,93	1230,83
588,12	1279,98
588,31	1290,22
588,51	1320,94
588,70	1304,56
588,89	1286,12
589,09	1312,75
589,28	1327,08
589,47	1265,64
589,67	1296,36
589,86	1286,12
590,06	1214,45
590,25	1304,56
590,44	1335,28
590,64	1296,36
590,83	1329,13
591,02	1208,30
591,22	1255,40
591,41	1327,08
591,60	1306,60
591,80	1261,55
591,99	1249,26
592,18	1284,08
592,38	1249,26
592,57	1271,79
592,76	1361,90
592,96	1339,37
593,15	1353,71
593,34	1247,21
593,54	1261,55
593,73	1259,50
593,92	1312,75
594,12	1331,18
594,31	1355,76
594,50	1333,23
594,70	1273,84
594,89	1279,98
595,08	1249,26
595,28	1290,22
595,47	1257,45
595,66	1216,49
595,86	1277,93
596,05	1296,36
596,24	1288,17
596,43	1294,32
596,63	1345,52
596,82	1288,17
597,01	1249,26
597,21	1271,79
597,40	1359,85
597,59	1267,69
597,79	1277,93
597,98	1310,70
598,17	1302,51
598,36	1234,93
598,56	1320,94
598,75	1265,64
598,94	1249,26
599,14	1265,64
599,33	1222,64
599,52	1298,41
599,71	1226,73
599,91	1290,22
600,10	1316,84
600,29	1253,36
600,48	1288,17
600,68	1224,69
600,87	1322,99
601,06	1335,28
601,26	1282,03
601,45	1308,65
601,64	1318,89
601,83	1298,41
602,03	1269,74
602,22	1247,21
602,41	1339,37
602,60	1300,46
602,80	1304,56
602,99	1255,40
603,18	1275,88
603,37	1314,80
603,57	1275,88
603,76	1236,97
603,95	1275,88
604,14	1314,80
604,34	1222,64
604,53	1232,88
604,72	1325,04
604,91	1265,64
605,10	1302,51
605,30	1296,36
605,49	1271,79
605,68	1251,31
605,87	1335,28
606,07	1322,99
606,26	1191,92
606,45	1284,08
606,64	1273,84
606,84	1277,93
607,03	1296,36
607,22	1279,98
607,41	1282,03
607,60	1204,21
607,80	1253,36
607,99	1263,60
608,18	1298,41
608,37	1355,76
608,56	1249,26
608,76	1316,84
608,95	1404,91
609,14	1290,22
609,33	1271,79
609,52	1255,40
609,72	1310,70
609,91	1255,40
610,10	1271,79
610,29	1253,36
610,48	1329,13
610,68	1337,32
610,87	1335,28
611,06	1230,83
611,25	1296,36
611,44	1277,93
611,63	1351,66
611,83	1308,65
612,02	1267,69
612,21	1331,18
612,40	1351,66
612,59	1267,69
612,79	1263,60
612,98	1310,70
613,17	1345,52
613,36	1255,40
613,55	1232,88
613,74	1304,56
613,93	1239,02
614,13	1273,84
614,32	1282,03
614,51	1275,88
614,70	1302,51
614,89	1208,30
615,08	1320,94
615,28	1341,42
615,47	1259,50
615,66	1253,36
615,85	1265,64
616,04	1288,17
616,23	1347,56
616,42	1286,12
616,62	1322,99
616,81	1331,18
617,00	1255,40
617,19	1261,55
617,38	1202,16
617,57	1277,93
617,76	1310,70
617,95	1241,07
618,15	1273,84
618,34	1290,22
618,53	1234,93
618,72	1273,84
618,91	1327,08
619,10	1247,21
619,29	1314,80
619,48	1292,27
619,68	1263,60
619,87	1245,16
620,06	1390,57
620,25	1273,84
620,44	1316,84
620,63	1279,98
620,82	1312,75
621,01	1271,79
621,20	1288,17
621,39	1329,13
621,59	1275,88
621,78	1331,18
621,97	1290,22
622,16	1337,32
622,35	1314,80
622,54	1255,40
622,73	1269,74
622,92	1269,74
623,11	1290,22
623,30	1241,07
623,49	1296,36
623,68	1339,37
623,88	1302,51
624,07	1314,80
624,26	1282,03
624,45	1312,75
624,64	1277,93
624,83	1351,66
625,02	1279,98
625,21	1265,64
625,40	1218,54
625,59	1304,56
625,78	1273,84
625,97	1257,45
626,16	1380,33
626,35	1335,28
626,54	1273,84
626,74	1239,02
626,93	1357,80
627,12	1234,93
627,31	1316,84
627,50	1343,47
627,69	1267,69
627,88	1249,26
628,07	1255,40
628,26	1374,19
628,45	1300,46
628,64	1277,93
628,83	1296,36
629,02	1253,36
629,21	1308,65
629,40	1331,18
629,59	1306,60
629,78	1228,78
629,97	1263,60
630,16	1253,36
630,35	1265,64
630,54	1361,90
630,73	1292,27
630,92	1320,94
631,11	1329,13
631,30	1329,13
631,49	1298,41
631,68	1404,91
631,87	1398,76
632,06	1552,36
632,25	1529,83
632,44	1476,59
632,63	1617,90
632,82	1943,52
633,01	2631,64
633,20	1955,81
633,39	2050,02
633,58	2164,70
633,77	2133,98
633,96	1933,28
634,15	1834,98
634,34	1984,48
634,53	1976,29
634,72	1976,29
634,91	1761,25
635,10	1634,28
635,29	1603,56
635,48	1509,35
635,67	1492,97
635,86	1460,20
636,05	1435,63
636,24	1411,05
636,43	1402,86
636,62	1325,04
636,81	1347,56
637,00	1329,13
637,19	1257,45
637,38	1353,71
637,57	1322,99
637,76	1306,60
637,95	1318,89
638,14	1288,17
638,33	1306,60
638,52	1312,75
638,71	1294,32
638,89	1337,32
639,08	1247,21
639,27	1320,94
639,46	1267,69
639,65	1279,98
639,84	1265,64
640,03	1210,35
640,22	1236,97
640,41	1357,80
640,60	1263,60
640,79	1322,99
640,98	1296,36
641,17	1304,56
641,36	1302,51
641,55	1255,40
641,74	1271,79
641,92	1273,84
642,11	1249,26
642,30	1302,51
642,49	1261,55
642,68	1247,21
642,87	1222,64
643,06	1347,56
643,25	1271,79
643,44	1271,79
643,63	1222,64
643,82	1247,21
644,00	1236,97
644,19	1339,37
644,38	1314,80
644,57	1271,79
644,76	1198,06
644,95	1265,64
645,14	1261,55
645,33	1277,93
645,52	1318,89
645,71	1286,12
645,89	1294,32
646,08	1290,22
646,27	1294,32
646,46	1339,37
646,65	1273,84
646,84	1263,60
647,03	1267,69
647,22	1322,99
647,40	1302,51
647,59	1261,55
647,78	1193,97
647,97	1304,56
648,16	1216,49
648,35	1230,83
648,54	1241,07
648,73	1282,03
648,91	1302,51
649,10	1286,12
649,29	1236,97
649,48	1234,93
649,67	1302,51
649,86	1304,56
650,05	1243,12
650,23	1296,36
650,42	1271,79
650,61	1320,94
650,80	1224,69
650,99	1247,21
651,18	1265,64
651,36	1259,50
651,55	1347,56
651,74	1175,53
651,93	1359,85
652,12	1247,21
652,31	1306,60
652,49	1253,36
652,68	1257,45
652,87	1308,65
653,06	1245,16
653,25	1363,95
653,44	1306,60
653,62	1357,80
653,81	1251,31
654,00	1292,27
654,19	1312,75
654,38	1290,22
654,56	1298,41
654,75	1269,74
654,94	1222,64
655,13	1241,07
655,32	1214,45
655,51	1394,67
655,69	1277,93
655,88	1273,84
656,07	1286,12
656,26	1294,32
656,45	1263,60
656,63	1212,40
656,82	1277,93
657,01	1249,26
657,20	1243,12
657,38	1294,32
657,57	1286,12
657,76	1198,06
657,95	1304,56
658,14	1251,31
658,32	1239,02
658,51	1261,55
658,70	1216,49
658,89	1363,95
659,08	1243,12
659,26	1263,60
659,45	1269,74
659,64	1187,82
659,83	1257,45
660,01	1290,22
660,20	1251,31
660,39	1191,92
660,58	1263,60
660,76	1273,84
660,95	1251,31
661,14	1275,88
661,33	1189,87
661,51	1325,04
661,70	1255,40
661,89	1306,60
662,08	1267,69
662,26	1241,07
662,45	1257,45
662,64	1253,36
662,83	1247,21
663,01	1253,36
663,20	1206,25
663,39	1331,18
663,58	1247,21
663,76	1322,99
663,95	1245,16
664,14	1243,12
664,32	1230,83
664,51	1314,80
664,70	1216,49
664,89	1304,56
665,07	1290,22
665,26	1259,50
665,45	1263,60
665,64	1337,32
665,82	1261,55
666,01	1273,84
666,20	1196,01
666,38	1298,41
666,57	1216,49
666,76	1249,26
666,95	1300,46
667,13	1273,84
667,32	1279,98
667,51	1212,40
667,69	1228,78
667,88	1294,32
668,07	1193,97
668,25	1322,99
668,44	1241,07
668,63	1243,12
668,81	1312,75
669,00	1196,01
669,19	1308,65
669,38	1249,26
669,56	1269,74
669,75	1304,56
669,94	1234,93
670,12	1275,88
670,31	1236,97
670,50	1316,84
670,68	1243,12
670,87	1284,08
671,06	1337,32
671,24	1331,18
671,43	1255,40
671,62	1245,16
671,80	1288,17
671,99	1325,04
672,18	1224,69
672,36	1296,36
672,55	1259,50
672,74	1247,21
672,92	1234,93
673,11	1314,80
673,29	1210,35
673,48	1320,94
673,67	1271,79
673,85	1241,07
674,04	1308,65
674,23	1267,69
674,41	1265,64
674,60	1286,12
674,79	1243,12
674,97	1300,46
675,16	1222,64
675,34	1253,36
675,53	1245,16
675,72	1316,84
675,90	1263,60
676,09	1222,64
676,28	1253,36
676,46	1300,46
676,65	1345,52
676,83	1202,16
677,02	1288,17
677,21	1247,21
677,39	1181,68
677,58	1386,47
677,77	1259,50
677,95	1292,27
678,14	1255,40
678,32	1239,02
678,51	1296,36
678,70	1376,24
678,88	1245,16
679,07	1267,69
679,25	1277,93
679,44	1290,22
679,63	1312,75
679,81	1282,03
680,00	1253,36
680,18	1273,84
680,37	1329,13
680,55	1290,22
680,74	1255,40
680,93	1222,64
681,11	1249,26
681,30	1296,36
681,48	1255,40
681,67	1249,26
681,85	1277,93
682,04	1269,74
682,23	1181,68
682,41	1296,36
682,60	1277,93
682,78	1239,02
682,97	1259,50
683,15	1222,64
683,34	1275,88
683,53	1306,60
683,71	1245,16
683,90	1241,07
684,08	1232,88
684,27	1359,85
684,45	1251,31
684,64	1314,80
684,82	1339,37
685,01	1296,36
685,19	1243,12
685,38	1292,27
685,57	1206,25
685,75	1218,54
685,94	1288,17
686,12	1247,21
686,31	1335,28
686,49	1208,30
686,68	1232,88
686,86	1263,60
687,05	1255,40
687,23	1218,54
687,42	1257,45
687,60	1337,32
687,79	1279,98
687,97	1261,55
688,16	1282,03
688,34	1271,79
688,53	1263,60
688,71	1339,37
688,90	1269,74
689,08	1251,31
689,27	1286,12
689,45	1275,88
689,64	1257,45
689,82	1218,54
690,01	1279,98
690,19	1308,65
690,38	1275,88
690,56	1277,93
690,75	1222,64
690,93	1226,73
691,12	1177,58
691,30	1265,64
691,49	1228,78
691,67	1173,49
691,86	1267,69
692,04	1300,46
692,23	1296,36
692,41	1255,40
692,60	1357,80
692,78	1292,27
692,97	1196,01
693,15	1243,12
693,34	1353,71
693,52	1314,80
693,71	1263,60
693,89	1212,40
694,08	1306,60
694,26	1226,73
694,44	1292,27
694,63	1279,98
694,81	1247,21
695,00	1243,12
695,18	1331,18
695,37	1304,56
695,55	1331,18
695,74	1292,27
695,92	1286,12
696,10	1298,41
696,29	1259,50
696,47	1294,32
696,66	1241,07
696,84	1208,30
697,03	1265,64
697,21	1308,65
697,40	1335,28
697,58	1339,37
697,76	1271,79
697,95	1284,08
698,13	1241,07
698,32	1222,64
698,50	1228,78
698,68	1245,16
698,87	1282,03
699,05	1288,17
699,24	1265,64
699,42	1282,03
699,61	1255,40
699,79	1282,03
699,97	1308,65
700,16	1245,16
700,34	1265,64
700,53	1288,17
700,71	1259,50
700,89	1298,41
701,08	1265,64
701,26	1247,21
701,45	1351,66
701,63	1241,07
701,81	1265,64
702,00	1275,88
702,18	1210,35
702,37	1259,50
702,55	1245,16
702,73	1327,08
702,92	1249,26
703,10	1239,02
703,28	1341,42
703,47	1230,83
703,65	1306,60
703,84	1251,31
704,02	1243,12
704,20	1290,22
704,39	1282,03
704,57	1312,75
704,75	1273,84
704,94	1357,80
705,12	1267,69
705,30	1257,45
705,49	1269,74
705,67	1269,74
705,86	1267,69
706,04	1241,07
706,22	1269,74
706,41	1306,60
706,59	1322,99
706,77	1249,26
706,96	1214,45
707,14	1284,08
707,32	1331,18
707,51	1189,87
707,69	1306,60
707,87	1320,94
708,06	1245,16
708,24	1255,40
708,42	1286,12
708,61	1286,12
708,79	1179,63
708,97	1284,08
709,16	1241,07
709,34	1316,84
709,52	1265,64
709,71	1228,78
709,89	1236,97
710,07	1261,55
710,26	1251,31
710,44	1273,84
710,62	1247,21
710,80	1273,84
710,99	1302,51
711,17	1220,59
711,35	1304,56
711,54	1290,22
711,72	1249,26
711,90	1302,51
712,09	1191,92
712,27	1304,56
712,45	1251,31
712,63	1234,93
712,82	1241,07
713,00	1286,12
713,18	1304,56
713,37	1353,71
713,55	1236,97
713,73	1351,66
713,91	1210,35
714,10	1310,70
714,28	1228,78
714,46	1294,32
714,65	1228,78
714,83	1257,45
715,01	1257,45
715,19	1320,94
715,38	1224,69
715,56	1265,64
715,74	1243,12
715,92	1290,22
716,11	1216,49
716,29	1253,36
716,47	1304,56
716,65	1239,02
716,84	1226,73
717,02	1261,55
717,20	1316,84
717,38	1236,97
717,57	1222,64
717,75	1294,32
717,93	1284,08
718,11	1263,60
718,30	1247,21
718,48	1304,56
718,66	1236,97
718,84	1279,98
719,03	1249,26
719,21	1284,08
719,39	1277,93
719,57	1253,36
719,75	1196,01
719,94	1183,73
720,12	1302,51
720,30	1222,64
720,48	1212,40
720,67	1218,54
720,85	1306,60
721,03	1216,49
721,21	1349,61
721,39	1257,45
721,58	1337,32
721,76	1273,84
721,94	1236,97
722,12	1220,59
722,30	1366,00
722,49	1263,60
722,67	1251,31
722,85	1216,49
723,03	1245,16
723,21	1247,21
723,40	1296,36
723,58	1191,92
723,76	1306,60
723,94	1279,98
724,12	1290,22
724,30	1265,64
724,49	1282,03
724,67	1279,98
724,85	1273,84
725,03	1263,60
725,21	1222,64
725,40	1261,55
725,58	1241,07
725,76	1290,22
725,94	1304,56
726,12	1306,60
726,30	1243,12
726,49	1259,50
726,67	1265,64
726,85	1216,49
727,03	1183,73
727,21	1214,45
727,39	1212,40
727,57	1269,74
727,76	1255,40
727,94	1259,50
728,12	1298,41
728,30	1288,17
728,48	1243,12
728,66	1234,93
728,84	1265,64
729,03	1286,12
729,21	1337,32
729,39	1343,47
729,57	1257,45
729,75	1196,01
729,93	1290,22
730,11	1286,12
730,30	1232,88
730,48	1245,16
730,66	1261,55
730,84	1269,74
731,02	1220,59
731,20	1312,75
731,38	1210,35
731,56	1173,49
731,74	1294,32
731,93	1290,22
732,11	1239,02
732,29	1230,83
732,47	1353,71
732,65	1257,45
732,83	1271,79
733,01	1286,12
733,19	1265,64
733,37	1163,25
733,56	1155,05
733,74	1214,45
733,92	1265,64
734,10	1357,80
734,28	1220,59
734,46	1288,17
734,64	1286,12
734,82	1286,12
735,00	1279,98
735,18	1261,55
735,36	1216,49
735,54	1308,65
735,73	1249,26
735,91	1294,32
736,09	1255,40
736,27	1230,83
736,45	1251,31
736,63	1249,26
736,81	1304,56
736,99	1331,18
737,17	1239,02
737,35	1261,55
737,53	1325,04
737,71	1292,27
737,89	1251,31
738,07	1279,98
738,25	1294,32
738,43	1306,60
738,61	1312,75
738,80	1304,56
738,98	1275,88
739,16	1296,36
739,34	1249,26
739,52	1202,16
739,70	1255,40
739,88	1406,95
740,06	1277,93
740,24	1275,88
740,42	1208,30
740,60	1241,07
740,78	1282,03
740,96	1300,46
741,14	1277,93
741,32	1263,60
741,50	1318,89
741,68	1273,84
741,86	1275,88
742,04	1226,73
742,22	1232,88
742,40	1216,49
742,58	1245,16
742,76	1277,93
742,94	1298,41
743,12	1230,83
743,30	1228,78
743,48	1212,40
743,66	1337,32
743,84	1288,17
744,02	1273,84
744,20	1249,26
744,38	1265,64
744,56	1245,16
744,74	1249,26
744,92	1341,42
745,10	1265,64
745,28	1294,32
745,46	1271,79
745,64	1257,45
745,82	1351,66
746,00	1325,04
746,18	1230,83
746,36	1216,49
746,54	1193,97
746,72	1286,12
746,90	1193,97
747,08	1304,56
747,26	1298,41
747,44	1202,16
747,62	1226,73
747,80	1320,94
747,98	1329,13
748,15	1191,92
748,33	1288,17
748,51	1271,79
748,69	1241,07
748,87	1279,98
749,05	1314,80
749,23	1300,46
749,41	1298,41
749,59	1296,36
749,77	1316,84
749,95	1263,60
750,13	1265,64
750,31	1181,68
750,49	1165,29
750,67	1271,79
750,85	1243,12
751,03	1279,98
751,20	1341,42
751,38	1249,26
751,56	1253,36
751,74	1320,94
751,92	1265,64
752,10	1267,69
752,28	1210,35
752,46	1312,75
752,64	1333,23
752,82	1296,36
753,00	1261,55
753,18	1236,97
753,35	1196,01
753,53	1312,75
753,71	1220,59
753,89	1290,22
754,07	1249,26
754,25	1265,64
754,43	1224,69
754,61	1282,03
754,79	1271,79
754,97	1292,27
755,14	1304,56
755,32	1218,54
755,50	1234,93
755,68	1284,08
755,86	1191,92
756,04	1232,88
756,22	1255,40
756,40	1318,89
756,57	1294,32
756,75	1214,45
756,93	1257,45
757,11	1292,27
757,29	1265,64
757,47	1249,26
757,65	1212,40
757,82	1277,93
758,00	1267,69
758,18	1228,78
758,36	1296,36
758,54	1257,45
758,72	1284,08
758,90	1224,69
759,07	1298,41
759,25	1255,40
759,43	1306,60
759,61	1263,60
759,79	1304,56
759,97	1267,69
760,15	1275,88
760,32	1310,70
760,50	1271,79
760,68	1236,97
760,86	1308,65
761,04	1202,16
761,22	1247,21
761,39	1198,06
761,57	1200,11
761,75	1200,11
761,93	1222,64
762,11	1239,02
762,28	1286,12
762,46	1259,50
762,64	1279,98
762,82	1308,65
763,00	1265,64
763,18	1300,46
763,35	1247,21
763,53	1271,79
763,71	1267,69
763,89	1378,28
764,07	1290,22
764,24	1277,93
764,42	1239,02
764,60	1208,30
764,78	1304,56
764,96	1292,27
765,13	1253,36
765,31	1277,93
765,49	1290,22
765,67	1271,79
765,84	1251,31
766,02	1304,56
766,20	1220,59
766,38	1261,55
766,56	1261,55
766,73	1269,74
766,91	1261,55
767,09	1288,17
767,27	1241,07
767,44	1187,82
767,62	1245,16
767,80	1314,80
767,98	1312,75
768,15	1333,23
768,33	1251,31
768,51	1288,17
768,69	1298,41
768,87	1200,11
769,04	1249,26
769,22	1290,22
769,40	1198,06
769,58	1232,88
769,75	1255,40
769,93	1325,04
770,11	1265,64
770,28	1236,97
770,46	1294,32
770,64	1294,32
770,82	1245,16
770,99	1224,69
771,17	1204,21
771,35	1310,70
771,53	1257,45
771,70	1271,79
771,88	1284,08
772,06	1255,40
772,23	1310,70
772,41	1333,23
772,59	1286,12
772,77	1312,75
772,94	1257,45
773,12	1308,65
773,30	1343,47
773,47	1290,22
773,65	1304,56
773,83	1273,84
774,01	1306,60
774,18	1216,49
774,36	1239,02
774,54	1239,02
774,71	1245,16
774,89	1279,98
775,07	1259,50
775,24	1290,22
775,42	1263,60
775,60	1202,16
775,78	1255,40
775,95	1247,21
776,13	1251,31
776,31	1249,26
776,48	1251,31
776,66	1296,36
776,84	1230,83
777,01	1206,25
777,19	1224,69
777,37	1294,32
777,54	1302,51
777,72	1241,07
777,90	1230,83
778,07	1257,45
778,25	1302,51
778,43	1239,02
778,60	1306,60
778,78	1298,41
778,96	1249,26
779,13	1337,32
779,31	1245,16
779,49	1322,99
779,66	1263,60
779,84	1300,46
780,01	1284,08
780,19	1232,88
780,37	1253,36
780,54	1255,40
780,72	1253,36
780,90	1218,54
781,07	1310,70
781,25	1222,64
781,43	1267,69
781,60	1245,16
781,78	1279,98
781,95	1243,12
782,13	1265,64
782,31	1275,88
782,48	1277,93
782,66	1224,69
782,83	1218,54
783,01	1220,59
783,19	1255,40
783,36	1212,40
783,54	1259,50
783,72	1249,26
783,89	1282,03
784,07	1265,64
784,24	1243,12
784,42	1208,30
784,60	1249,26
784,77	1230,83
784,95	1236,97
785,12	1269,74
785,30	1239,02
785,47	1269,74
785,65	1275,88
785,83	1314,80
786,00	1273,84
786,18	1290,22
786,35	1296,36
786,53	1232,88
786,71	1253,36
786,88	1308,65
787,06	1232,88
787,23	1290,22
787,41	1198,06
787,58	1228,78
787,76	1259,50
787,94	1257,45
788,11	1241,07
788,29	1249,26
788,46	1239,02
788,64	1257,45
788,81	1204,21
788,99	1320,94
789,16	1241,07
789,34	1320,94
789,52	1251,31
789,69	1241,07
789,87	1275,88
790,04	1263,60
790,22	1261,55
790,39	1263,60
790,57	1253,36
790,74	1308,65
790,92	1288,17
791,09	1288,17
791,27	1261,55
791,44	1232,88
791,62	1302,51
791,79	1212,40
791,97	1220,59
792,15	1279,98
792,32	1261,55
792,50	1253,36
792,67	1253,36
792,85	1327,08
793,02	1294,32
793,20	1243,12
793,37	1224,69
793,55	1267,69
793,72	1288,17
793,90	1275,88
794,07	1380,33
794,25	1177,58
794,42	1255,40
794,60	1273,84
794,77	1257,45
794,95	1292,27
795,12	1218,54
795,30	1249,26
795,47	1239,02
795,65	1325,04
795,82	1282,03
796,00	1245,16
796,17	1257,45
796,34	1136,62
796,52	1247,21
796,69	1290,22
796,87	1228,78
797,04	1232,88
797,22	1241,07
797,39	1265,64
797,57	1247,21
797,74	1275,88
797,92	1241,07
798,09	1279,98
798,27	1247,21
798,44	1255,40
798,62	1239,02
798,79	1255,40
798,96	1296,36
799,14	1337,32
799,31	1314,80
799,49	1239,02
799,66	1267,69
799,84	1275,88
800,01	1236,97
800,19	1302,51
800,36	1259,50
800,53	1247,21
800,71	1263,60
800,88	1271,79
801,06	1167,34
801,23	1282,03
801,41	1275,88
801,58	1198,06
801,75	1218,54
801,93	1366,00
802,10	1247,21
802,28	1210,35
802,45	1210,35
802,63	1292,27
802,80	1267,69
802,97	1206,25
803,15	1257,45
803,32	1284,08
803,50	1234,93
803,67	1269,74
803,84	1267,69
804,02	1288,17
804,19	1185,77
804,37	1249,26
804,54	1253,36
804,71	1208,30
804,89	1196,01
805,06	1271,79
805,24	1290,22
805,41	1204,21
805,58	1294,32
805,76	1306,60
805,93	1224,69
806,10	1245,16
806,28	1314,80
806,45	1239,02
806,63	1318,89
806,80	1282,03
806,97	1271,79
807,15	1212,40
807,32	1167,34
807,49	1306,60
807,67	1269,74
807,84	1277,93
808,01	1267,69
808,19	1267,69
808,36	1296,36
808,54	1273,84
808,71	1265,64
808,88	1222,64
809,06	1292,27
809,23	1204,21
809,40	1249,26
809,58	1271,79
809,75	1325,04
809,92	1302,51
810,10	1257,45
810,27	1228,78
810,44	1267,69
810,62	1257,45
810,79	1216,49
810,96	1210,35
811,14	1241,07
811,31	1265,64
811,48	1294,32
811,66	1247,21
811,83	1257,45
812,00	1341,42
812,18	1257,45
812,35	1302,51
812,52	1300,46
812,69	1327,08
812,87	1296,36
813,04	1249,26
813,21	1292,27
813,39	1284,08
813,56	1261,55
813,73	1269,74
813,91	1245,16
814,08	1306,60
814,25	1228,78
814,42	1224,69
814,60	1212,40
814,77	1267,69
814,94	1282,03
815,12	1267,69
815,29	1271,79
815,46	1267,69
815,63	1337,32
815,81	1251,31
815,98	1241,07
816,15	1282,03
816,33	1214,45
816,50	1261,55
816,67	1255,40
816,84	1271,79
817,02	1304,56
817,19	1316,84
817,36	1286,12
817,53	1316,84
817,71	1228,78
817,88	1286,12
818,05	1204,21
818,22	1226,73
818,40	1300,46
818,57	1202,16
818,74	1228,78
818,91	1290,22
819,09	1314,80
819,26	1206,25
819,43	1282,03
819,60	1214,45
819,78	1288,17
819,95	1284,08
820,12	1255,40
820,29	1304,56
820,47	1277,93
820,64	1339,37
820,81	1161,20
820,98	1267,69
821,15	1298,41
821,33	1257,45
821,50	1224,69
821,67	1361,90
821,84	1306,60
822,02	1282,03
822,19	1247,21
822,36	1189,87
822,53	1273,84
822,70	1241,07
822,88	1320,94
823,05	1249,26
823,22	1277,93
823,39	1298,41
823,56	1261,55
823,74	1249,26
823,91	1327,08
824,08	1304,56
824,25	1259,50
824,42	1265,64
824,60	1308,65
824,77	1214,45
824,94	1249,26
825,11	1288,17
825,28	1251,31
825,45	1247,21
825,63	1306,60
825,80	1273,84
825,97	1259,50
826,14	1239,02
826,31	1173,49
826,48	1343,47
826,66	1214,45
826,83	1275,88
827,00	1314,80
827,17	1277,93
827,34	1267,69
827,51	1222,64
827,69	1286,12
827,86	1284,08
828,03	1232,88
828,20	1261,55
828,37	1333,23
828,54	1284,08
828,71	1261,55
828,89	1314,80
829,06	1224,69
829,23	1234,93
829,40	1259,50
829,57	1314,80
829,74	1296,36
829,91	1257,45
830,09	1251,31
830,26	1261,55
830,43	1308,65
830,60	1273,84
830,77	1210,35
830,94	1327,08
831,11	1216,49
831,28	1292,27
831,46	1267,69
831,63	1271,79
831,80	1218,54
831,97	1275,88
832,14	1304,56
832,31	1277,93
832,48	1241,07
832,65	1286,12
832,82	1282,03
832,99	1288,17
833,17	1275,88
833,34	1220,59
833,51	1257,45
833,68	1308,65
833,85	1288,17
834,02	1263,60
834,19	1255,40
834,36	1306,60
834,53	1253,36
834,70	1290,22
834,87	1279,98
835,04	1312,75
835,22	1273,84
835,39	1234,93
835,56	1263,60
835,73	1259,50
835,90	1222,64
836,07	1300,46
836,24	1277,93
836,41	1257,45
836,58	1249,26
836,75	1327,08
836,92	1218,54
837,09	1275,88
837,26	1279,98
837,43	1290,22
837,60	1302,51
837,77	1279,98
837,94	1337,32
838,12	1251,31
838,29	1376,24
838,46	1267,69
838,63	1212,40
838,80	1222,64
838,97	1269,74
839,14	1257,45
839,31	1232,88
839,48	1255,40
839,65	1277,93
839,82	1251,31
839,99	1243,12
840,16	1239,02
840,33	1257,45
840,50	1214,45
840,67	1282,03
840,84	1208,30
841,01	1310,70
841,18	1347,56
841,35	1290,22
841,52	1269,74
841,69	1277,93
841,86	1255,40
842,03	1247,21
842,20	1368,04
842,37	1267,69
842,54	1308,65
842,71	1243,12
842,88	1249,26
843,05	1191,92
843,22	1304,56
843,39	1255,40
843,56	1224,69
843,73	1300,46
843,90	1224,69
844,07	1226,73
844,24	1226,73
844,41	1322,99
844,58	1261,55
844,75	1329,13
844,92	1277,93
845,09	1318,89
845,26	1236,97
845,43	1263,60
845,60	1183,73
845,77	1282,03
845,94	1331,18
846,10	1349,61
846,27	1286,12
846,44	1257,45
846,61	1279,98
846,78	1288,17
846,95	1251,31
847,12	1216,49
847,29	1224,69
847,46	1236,97
847,63	1265,64
847,80	1212,40
847,97	1279,98
848,14	1282,03
848,31	1282,03
848,48	1265,64
848,65	1251,31
848,82	1222,64
848,98	1292,27
849,15	1310,70
849,32	1228,78
849,49	1318,89
849,66	1236,97
849,83	1200,11
850,00	1261,55
850,17	1247,21
850,34	1333,23
850,51	1239,02
850,68	1251,31
850,85	1245,16
851,01	1241,07
851,18	1245,16
851,35	1300,46
851,52	1265,64
851,69	1249,26
851,86	1302,51
852,03	1261,55
852,20	1279,98
852,37	1318,89
852,53	1157,10
852,70	1273,84
852,87	1265,64
853,04	1292,27
853,21	1232,88
853,38	1277,93
853,55	1208,30
853,72	1230,83
853,89	1277,93
854,05	1265,64
854,22	1245,16
854,39	1243,12
854,56	1265,64
854,73	1290,22
854,90	1214,45
855,07	1241,07
855,23	1269,74
855,40	1290,22
855,57	1226,73
855,74	1257,45
855,91	1249,26
856,08	1253,36
856,25	1216,49
856,41	1247,21
856,58	1275,88
856,75	1302,51
856,92	1263,60
857,09	1310,70
857,26	1279,98
857,42	1249,26
857,59	1288,17
857,76	1251,31
857,93	1271,79
858,10	1220,59
858,27	1349,61
858,43	1224,69
858,60	1312,75
858,77	1290,22
858,94	1251,31
859,11	1263,60
859,27	1331,18
859,44	1208,30
859,61	1247,21
859,78	1257,45
859,95	1296,36
860,12	1277,93
860,28	1290,22
860,45	1312,75
860,62	1243,12
860,79	1261,55
860,95	1288,17
861,12	1282,03
861,29	1279,98
861,46	1200,11
861,63	1318,89
861,79	1318,89
861,96	1298,41
862,13	1261,55
862,30	1265,64
862,47	1220,59
862,63	1284,08
862,80	1204,21
862,97	1265,64
863,14	1296,36
863,30	1243,12
863,47	1267,69
863,64	1249,26
863,81	1282,03
863,97	1251,31
864,14	1304,56
864,31	1234,93
864,48	1232,88
864,65	1261,55
864,81	1298,41
864,98	1286,12
865,15	1251,31
865,32	1269,74
865,48	1308,65
865,65	1255,40
865,82	1232,88
865,98	1296,36
866,15	1263,60
866,32	1282,03
866,49	1261,55
866,65	1257,45
866,82	1214,45
866,99	1308,65
867,16	1284,08
867,32	1286,12
867,49	1267,69
867,66	1300,46
867,83	1214,45
867,99	1200,11
868,16	1236,97
868,33	1269,74
868,49	1241,07
868,66	1267,69
868,83	1277,93
868,99	1226,73
869,16	1200,11
869,33	1333,23
869,50	1245,16
869,66	1279,98
869,83	1304,56
870,00	1271,79
870,16	1239,02
870,33	1226,73
870,50	1279,98
870,66	1279,98
870,83	1259,50
871,00	1210,35
871,17	1161,20
871,33	1279,98
871,50	1259,50
871,67	1224,69
871,83	1343,47
872,00	1277,93
872,17	1327,08
872,33	1253,36
872,50	1259,50
872,67	1228,78
872,83	1300,46
873,00	1302,51
873,17	1216,49
873,33	1226,73
873,50	1241,07
873,67	1263,60
873,83	1267,69
874,00	1265,64
874,16	1288,17
874,33	1232,88
874,50	1279,98
874,66	1191,92
874,83	1263,60
875,00	1366,00
875,16	1263,60
875,33	1279,98
875,50	1282,03
875,66	1236,97
875,83	1191,92
875,99	1200,11
876,16	1314,80
876,33	1216,49
876,49	1304,56
876,66	1327,08
876,83	1329,13
876,99	1265,64
877,16	1257,45
877,32	1329,13
877,49	1251,31
877,66	1294,32
877,82	1249,26
877,99	1263,60
878,15	1320,94
878,32	1298,41
878,49	1292,27
878,65	1284,08
878,82	1310,70
878,98	1232,88
879,15	1224,69
879,32	1255,40
879,48	1279,98
879,65	1294,32
879,81	1277,93
879,98	1267,69
880,15	1263,60
880,31	1267,69
880,48	1288,17
880,64	1232,88
880,81	1296,36
880,97	1249,26
881,14	1325,04
881,31	1210,35
881,47	1318,89
881,64	1335,28
881,80	1228,78
881,97	1218,54
882,13	1232,88
882,30	1230,83
882,47	1234,93
882,63	1267,69
882,80	1255,40
882,96	1198,06
883,13	1243,12
883,29	1273,84
883,46	1294,32
883,62	1247,21
883,79	1308,65
883,95	1290,22
884,12	1263,60
884,29	1212,40
884,45	1310,70
884,62	1210,35
884,78	1269,74
884,95	1251,31
885,11	1181,68
885,28	1204,21
885,44	1253,36
885,61	1196,01
885,77	1279,98
885,94	1196,01
886,10	1216,49
886,27	1292,27
886,43	1202,16
886,60	1298,41
886,76	1290,22
886,93	1259,50
887,09	1292,27
887,26	1222,64
887,42	1241,07
887,59	1271,79
887,75	1294,32
887,92	1296,36
888,08	1255,40
888,25	1279,98
888,41	1247,21
888,58	1228,78
888,74	1300,46
888,91	1265,64
>>>>>End Processed Spectral Data<<<<<
