SpectraSuite Data File
++++++++++++++++++++++++++++++++++++
Date: Sun Apr 03 19:55:17 CEST 2016
User: root
Dark Spectrum Present: No
Reference Spectrum Present: No
Number of Sampled Component Spectra: 1
Spectrometers: USB4C02835
Integration Time (usec): 10000 (USB4C02835)
Spectra Averaged: 1 (USB4C02835)
Boxcar Smoothing: 0 (USB4C02835)
Correct for Electrical Dark: No (USB4C02835)
Strobe/Lamp Enabled: No (USB4C02835)
Correct for Detector Non-linearity: No (USB4C02835)
Correct for Stray Light: No (USB4C02835)
Number of Pixels in Processed Spectrum: 3648
>>>>>Begin Processed Spectral Data<<<<<
177,47	1159,15
177,69	1159,15
177,91	1159,15
178,13	1255,40
178,36	1228,78
178,58	1228,78
178,80	1251,31
179,02	1255,40
179,24	1269,74
179,46	1282,03
179,68	1288,17
179,90	1228,78
180,13	1306,60
180,35	1118,19
180,57	1273,84
180,79	1322,99
181,01	1298,41
181,23	1247,21
181,45	1298,41
181,67	1193,97
181,90	1234,93
182,12	1284,08
182,34	1269,74
182,56	1318,89
182,78	1241,07
183,00	1191,92
183,22	1228,78
183,44	1241,07
183,66	1255,40
183,89	1341,42
184,11	1273,84
184,33	1277,93
184,55	1247,21
184,77	1277,93
184,99	1189,87
185,21	1271,79
185,43	1320,94
185,65	1245,16
185,87	1183,73
186,10	1273,84
186,32	1294,32
186,54	1275,88
186,76	1284,08
186,98	1241,07
187,20	1236,97
187,42	1228,78
187,64	1230,83
187,86	1220,59
188,08	1265,64
188,30	1257,45
188,52	1261,55
188,75	1329,13
188,97	1181,68
189,19	1265,64
189,41	1239,02
189,63	1247,21
189,85	1234,93
190,07	1271,79
190,29	1249,26
190,51	1331,18
190,73	1220,59
190,95	1257,45
191,17	1261,55
191,39	1257,45
191,61	1263,60
191,84	1343,47
192,06	1261,55
192,28	1296,36
192,50	1216,49
192,72	1271,79
192,94	1249,26
193,16	1296,36
193,38	1232,88
193,60	1245,16
193,82	1279,98
194,04	1314,80
194,26	1189,87
194,48	1284,08
194,70	1298,41
194,92	1335,28
195,14	1253,36
195,36	1216,49
195,58	1208,30
195,80	1255,40
196,02	1247,21
196,24	1206,25
196,46	1277,93
196,69	1247,21
196,91	1263,60
197,13	1269,74
197,35	1314,80
197,57	1241,07
197,79	1255,40
198,01	1263,60
198,23	1245,16
198,45	1298,41
198,67	1290,22
198,89	1263,60
199,11	1200,11
199,33	1255,40
199,55	1277,93
199,77	1226,73
199,99	1202,16
200,21	1265,64
200,43	1314,80
200,65	1220,59
200,87	1275,88
201,09	1292,27
201,31	1251,31
201,53	1308,65
201,75	1327,08
201,97	1288,17
202,19	1273,84
202,41	1249,26
202,63	1314,80
202,85	1310,70
203,07	1273,84
203,29	1325,04
203,51	1290,22
203,73	1282,03
203,95	1304,56
204,17	1261,55
204,39	1343,47
204,61	1216,49
204,83	1302,51
205,05	1257,45
205,27	1267,69
205,49	1277,93
205,71	1306,60
205,93	1282,03
206,15	1290,22
206,37	1236,97
206,59	1275,88
206,81	1351,66
207,03	1245,16
207,25	1279,98
207,47	1292,27
207,69	1243,12
207,91	1249,26
208,13	1257,45
208,34	1308,65
208,56	1228,78
208,78	1290,22
209,00	1275,88
209,22	1329,13
209,44	1263,60
209,66	1257,45
209,88	1275,88
210,10	1296,36
210,32	1234,93
210,54	1228,78
210,76	1267,69
210,98	1261,55
211,20	1249,26
211,42	1261,55
211,64	1226,73
211,86	1296,36
212,08	1286,12
212,30	1355,76
212,52	1275,88
212,74	1234,93
212,96	1279,98
213,17	1247,21
213,39	1294,32
213,61	1245,16
213,83	1288,17
214,05	1247,21
214,27	1249,26
214,49	1265,64
214,71	1304,56
214,93	1277,93
215,15	1322,99
215,37	1267,69
215,59	1282,03
215,81	1236,97
216,03	1292,27
216,24	1263,60
216,46	1282,03
216,68	1230,83
216,90	1331,18
217,12	1247,21
217,34	1243,12
217,56	1279,98
217,78	1316,84
218,00	1314,80
218,22	1271,79
218,44	1286,12
218,66	1245,16
218,87	1265,64
219,09	1316,84
219,31	1284,08
219,53	1187,82
219,75	1306,60
219,97	1302,51
220,19	1304,56
220,41	1222,64
220,63	1216,49
220,85	1312,75
221,06	1312,75
221,28	1218,54
221,50	1247,21
221,72	1282,03
221,94	1200,11
222,16	1257,45
222,38	1296,36
222,60	1312,75
222,82	1339,37
223,03	1263,60
223,25	1282,03
223,47	1257,45
223,69	1273,84
223,91	1167,34
224,13	1261,55
224,35	1216,49
224,57	1271,79
224,78	1296,36
225,00	1290,22
225,22	1300,46
225,44	1304,56
225,66	1247,21
225,88	1259,50
226,10	1263,60
226,32	1279,98
226,53	1288,17
226,75	1306,60
226,97	1239,02
227,19	1271,79
227,41	1290,22
227,63	1288,17
227,85	1206,25
228,06	1306,60
228,28	1290,22
228,50	1284,08
228,72	1222,64
228,94	1296,36
229,16	1302,51
229,37	1314,80
229,59	1228,78
229,81	1320,94
230,03	1232,88
230,25	1232,88
230,47	1308,65
230,69	1335,28
230,90	1279,98
231,12	1290,22
231,34	1284,08
231,56	1288,17
231,78	1193,97
232,00	1292,27
232,21	1232,88
232,43	1265,64
232,65	1308,65
232,87	1269,74
233,09	1286,12
233,30	1341,42
233,52	1314,80
233,74	1241,07
233,96	1327,08
234,18	1234,93
234,40	1255,40
234,61	1322,99
234,83	1241,07
235,05	1294,32
235,27	1286,12
235,49	1269,74
235,70	1251,31
235,92	1234,93
236,14	1239,02
236,36	1263,60
236,58	1202,16
236,79	1253,36
237,01	1273,84
237,23	1243,12
237,45	1327,08
237,67	1253,36
237,88	1316,84
238,10	1263,60
238,32	1284,08
238,54	1181,68
238,76	1279,98
238,97	1308,65
239,19	1200,11
239,41	1290,22
239,63	1191,92
239,85	1253,36
240,06	1314,80
240,28	1208,30
240,50	1294,32
240,72	1288,17
240,93	1263,60
241,15	1251,31
241,37	1261,55
241,59	1257,45
241,81	1212,40
242,02	1288,17
242,24	1257,45
242,46	1279,98
242,68	1241,07
242,89	1271,79
243,11	1247,21
243,33	1282,03
243,55	1220,59
243,76	1275,88
243,98	1296,36
244,20	1228,78
244,42	1222,64
244,64	1312,75
244,85	1271,79
245,07	1269,74
245,29	1300,46
245,51	1236,97
245,72	1216,49
245,94	1290,22
246,16	1292,27
246,38	1325,04
246,59	1232,88
246,81	1275,88
247,03	1273,84
247,24	1314,80
247,46	1224,69
247,68	1202,16
247,90	1325,04
248,11	1282,03
248,33	1331,18
248,55	1320,94
248,77	1298,41
248,98	1290,22
249,20	1279,98
249,42	1224,69
249,64	1214,45
249,85	1294,32
250,07	1177,58
250,29	1265,64
250,50	1275,88
250,72	1224,69
250,94	1279,98
251,16	1273,84
251,37	1259,50
251,59	1224,69
251,81	1302,51
252,02	1236,97
252,24	1224,69
252,46	1251,31
252,68	1181,68
252,89	1249,26
253,11	1325,04
253,33	1282,03
253,54	1271,79
253,76	1265,64
253,98	1269,74
254,20	1355,76
254,41	1269,74
254,63	1290,22
254,85	1251,31
255,06	1300,46
255,28	1204,21
255,50	1232,88
255,71	1210,35
255,93	1247,21
256,15	1308,65
256,36	1322,99
256,58	1302,51
256,80	1247,21
257,02	1226,73
257,23	1325,04
257,45	1294,32
257,67	1249,26
257,88	1288,17
258,10	1234,93
258,32	1232,88
258,53	1306,60
258,75	1257,45
258,97	1279,98
259,18	1271,79
259,40	1232,88
259,62	1257,45
259,83	1224,69
260,05	1269,74
260,27	1351,66
260,48	1249,26
260,70	1296,36
260,92	1218,54
261,13	1298,41
261,35	1245,16
261,57	1279,98
261,78	1265,64
262,00	1298,41
262,22	1236,97
262,43	1300,46
262,65	1247,21
262,86	1273,84
263,08	1304,56
263,30	1245,16
263,51	1282,03
263,73	1212,40
263,95	1316,84
264,16	1300,46
264,38	1302,51
264,60	1314,80
264,81	1216,49
265,03	1239,02
265,25	1306,60
265,46	1273,84
265,68	1239,02
265,89	1286,12
266,11	1322,99
266,33	1269,74
266,54	1292,27
266,76	1300,46
266,98	1206,25
267,19	1302,51
267,41	1277,93
267,62	1234,93
267,84	1316,84
268,06	1267,69
268,27	1224,69
268,49	1249,26
268,70	1220,59
268,92	1265,64
269,14	1257,45
269,35	1230,83
269,57	1247,21
269,79	1322,99
270,00	1304,56
270,22	1181,68
270,43	1279,98
270,65	1243,12
270,87	1331,18
271,08	1318,89
271,30	1241,07
271,51	1282,03
271,73	1288,17
271,95	1300,46
272,16	1218,54
272,38	1322,99
272,59	1214,45
272,81	1226,73
273,02	1241,07
273,24	1183,73
273,46	1284,08
273,67	1261,55
273,89	1257,45
274,10	1308,65
274,32	1259,50
274,54	1265,64
274,75	1290,22
274,97	1251,31
275,18	1279,98
275,40	1304,56
275,61	1239,02
275,83	1318,89
276,05	1308,65
276,26	1329,13
276,48	1257,45
276,69	1216,49
276,91	1177,58
277,12	1306,60
277,34	1277,93
277,55	1191,92
277,77	1216,49
277,99	1243,12
278,20	1245,16
278,42	1224,69
278,63	1286,12
278,85	1320,94
279,06	1220,59
279,28	1222,64
279,49	1230,83
279,71	1239,02
279,93	1212,40
280,14	1296,36
280,36	1230,83
280,57	1181,68
280,79	1296,36
281,00	1306,60
281,22	1327,08
281,43	1318,89
281,65	1269,74
281,86	1257,45
282,08	1249,26
282,29	1273,84
282,51	1232,88
282,73	1218,54
282,94	1327,08
283,16	1234,93
283,37	1304,56
283,59	1257,45
283,80	1232,88
284,02	1245,16
284,23	1265,64
284,45	1308,65
284,66	1265,64
284,88	1251,31
285,09	1253,36
285,31	1224,69
285,52	1275,88
285,74	1320,94
285,95	1255,40
286,17	1308,65
286,38	1273,84
286,60	1245,16
286,81	1298,41
287,03	1351,66
287,24	1216,49
287,46	1279,98
287,67	1232,88
287,89	1265,64
288,10	1370,09
288,32	1290,22
288,53	1265,64
288,75	1329,13
288,96	1247,21
289,18	1198,06
289,39	1271,79
289,61	1273,84
289,82	1257,45
290,04	1236,97
290,25	1249,26
290,47	1232,88
290,68	1239,02
290,90	1279,98
291,11	1251,31
291,33	1261,55
291,54	1302,51
291,76	1249,26
291,97	1212,40
292,18	1353,71
292,40	1253,36
292,61	1271,79
292,83	1189,87
293,04	1247,21
293,26	1245,16
293,47	1261,55
293,69	1279,98
293,90	1286,12
294,12	1284,08
294,33	1277,93
294,55	1249,26
294,76	1255,40
294,97	1279,98
295,19	1241,07
295,40	1224,69
295,62	1265,64
295,83	1261,55
296,05	1253,36
296,26	1255,40
296,48	1314,80
296,69	1345,52
296,90	1216,49
297,12	1320,94
297,33	1282,03
297,55	1277,93
297,76	1255,40
297,98	1275,88
298,19	1292,27
298,41	1263,60
298,62	1271,79
298,83	1228,78
299,05	1236,97
299,26	1312,75
299,48	1239,02
299,69	1255,40
299,90	1220,59
300,12	1294,32
300,33	1257,45
300,55	1292,27
300,76	1294,32
300,98	1251,31
301,19	1265,64
301,40	1247,21
301,62	1335,28
301,83	1202,16
302,05	1259,50
302,26	1288,17
302,47	1261,55
302,69	1255,40
302,90	1279,98
303,12	1230,83
303,33	1345,52
303,54	1347,56
303,76	1298,41
303,97	1271,79
304,19	1277,93
304,40	1275,88
304,61	1306,60
304,83	1212,40
305,04	1251,31
305,26	1329,13
305,47	1220,59
305,68	1279,98
305,90	1193,97
306,11	1245,16
306,33	1269,74
306,54	1302,51
306,75	1267,69
306,97	1277,93
307,18	1292,27
307,39	1298,41
307,61	1177,58
307,82	1308,65
308,04	1243,12
308,25	1236,97
308,46	1306,60
308,68	1253,36
308,89	1282,03
309,10	1210,35
309,32	1253,36
309,53	1216,49
309,74	1261,55
309,96	1279,98
310,17	1185,77
310,39	1306,60
310,60	1202,16
310,81	1255,40
311,03	1345,52
311,24	1198,06
311,45	1255,40
311,67	1306,60
311,88	1241,07
312,09	1275,88
312,31	1267,69
312,52	1261,55
312,73	1277,93
312,95	1271,79
313,16	1290,22
313,37	1318,89
313,59	1271,79
313,80	1263,60
314,01	1255,40
314,23	1325,04
314,44	1306,60
314,65	1243,12
314,87	1277,93
315,08	1234,93
315,29	1245,16
315,51	1257,45
315,72	1320,94
315,93	1298,41
316,15	1279,98
316,36	1198,06
316,57	1310,70
316,79	1220,59
317,00	1292,27
317,21	1308,65
317,43	1206,25
317,64	1314,80
317,85	1247,21
318,07	1247,21
318,28	1247,21
318,49	1273,84
318,70	1277,93
318,92	1265,64
319,13	1288,17
319,34	1292,27
319,56	1232,88
319,77	1353,71
319,98	1265,64
320,20	1202,16
320,41	1218,54
320,62	1222,64
320,83	1243,12
321,05	1214,45
321,26	1249,26
321,47	1310,70
321,69	1277,93
321,90	1279,98
322,11	1316,84
322,32	1224,69
322,54	1413,10
322,75	1230,83
322,96	1337,32
323,18	1296,36
323,39	1290,22
323,60	1269,74
323,81	1277,93
324,03	1216,49
324,24	1308,65
324,45	1290,22
324,66	1271,79
324,88	1222,64
325,09	1259,50
325,30	1243,12
325,52	1232,88
325,73	1269,74
325,94	1245,16
326,15	1273,84
326,37	1318,89
326,58	1322,99
326,79	1191,92
327,00	1363,95
327,22	1298,41
327,43	1208,30
327,64	1296,36
327,85	1318,89
328,07	1279,98
328,28	1224,69
328,49	1249,26
328,70	1310,70
328,92	1249,26
329,13	1320,94
329,34	1267,69
329,55	1277,93
329,76	1271,79
329,98	1269,74
330,19	1343,47
330,40	1271,79
330,61	1245,16
330,83	1234,93
331,04	1239,02
331,25	1312,75
331,46	1265,64
331,68	1239,02
331,89	1200,11
332,10	1255,40
332,31	1251,31
332,52	1245,16
332,74	1294,32
332,95	1265,64
333,16	1232,88
333,37	1236,97
333,58	1263,60
333,80	1230,83
334,01	1191,92
334,22	1251,31
334,43	1275,88
334,64	1239,02
334,86	1302,51
335,07	1155,05
335,28	1239,02
335,49	1257,45
335,70	1339,37
335,92	1273,84
336,13	1341,42
336,34	1302,51
336,55	1300,46
336,76	1257,45
336,98	1259,50
337,19	1290,22
337,40	1288,17
337,61	1284,08
337,82	1286,12
338,04	1335,28
338,25	1277,93
338,46	1251,31
338,67	1253,36
338,88	1314,80
339,09	1216,49
339,31	1163,25
339,52	1267,69
339,73	1318,89
339,94	1271,79
340,15	1249,26
340,36	1308,65
340,58	1261,55
340,79	1288,17
341,00	1267,69
341,21	1327,08
341,42	1269,74
341,63	1245,16
341,85	1273,84
342,06	1232,88
342,27	1204,21
342,48	1267,69
342,69	1275,88
342,90	1306,60
343,12	1333,23
343,33	1302,51
343,54	1234,93
343,75	1249,26
343,96	1290,22
344,17	1339,37
344,38	1193,97
344,60	1273,84
344,81	1296,36
345,02	1316,84
345,23	1275,88
345,44	1265,64
345,65	1312,75
345,86	1255,40
346,07	1277,93
346,29	1273,84
346,50	1286,12
346,71	1306,60
346,92	1236,97
347,13	1247,21
347,34	1218,54
347,55	1347,56
347,76	1263,60
347,98	1251,31
348,19	1267,69
348,40	1294,32
348,61	1286,12
348,82	1314,80
349,03	1245,16
349,24	1204,21
349,45	1310,70
349,66	1279,98
349,88	1239,02
350,09	1193,97
350,30	1296,36
350,51	1269,74
350,72	1228,78
350,93	1308,65
351,14	1290,22
351,35	1187,82
351,56	1304,56
351,77	1249,26
351,99	1300,46
352,20	1181,68
352,41	1234,93
352,62	1255,40
352,83	1267,69
353,04	1269,74
353,25	1290,22
353,46	1249,26
353,67	1191,92
353,88	1218,54
354,09	1228,78
354,30	1273,84
354,52	1316,84
354,73	1300,46
354,94	1243,12
355,15	1259,50
355,36	1257,45
355,57	1279,98
355,78	1267,69
355,99	1243,12
356,20	1232,88
356,41	1220,59
356,62	1341,42
356,83	1226,73
357,04	1210,35
357,25	1312,75
357,46	1325,04
357,68	1265,64
357,89	1292,27
358,10	1241,07
358,31	1175,53
358,52	1255,40
358,73	1206,25
358,94	1267,69
359,15	1269,74
359,36	1245,16
359,57	1269,74
359,78	1239,02
359,99	1212,40
360,20	1277,93
360,41	1284,08
360,62	1294,32
360,83	1263,60
361,04	1236,97
361,25	1267,69
361,46	1269,74
361,67	1331,18
361,88	1257,45
362,09	1191,92
362,30	1288,17
362,51	1232,88
362,72	1316,84
362,93	1257,45
363,14	1286,12
363,35	1222,64
363,56	1226,73
363,78	1253,36
363,99	1249,26
364,20	1191,92
364,41	1322,99
364,62	1214,45
364,83	1382,38
365,04	1214,45
365,25	1267,69
365,46	1247,21
365,67	1232,88
365,88	1273,84
366,09	1253,36
366,30	1247,21
366,51	1279,98
366,72	1191,92
366,93	1302,51
367,14	1239,02
367,35	1279,98
367,56	1277,93
367,77	1253,36
367,98	1290,22
368,18	1216,49
368,39	1245,16
368,60	1275,88
368,81	1257,45
369,02	1265,64
369,23	1273,84
369,44	1230,83
369,65	1298,41
369,86	1261,55
370,07	1271,79
370,28	1224,69
370,49	1279,98
370,70	1247,21
370,91	1171,44
371,12	1302,51
371,33	1218,54
371,54	1368,04
371,75	1300,46
371,96	1226,73
372,17	1269,74
372,38	1191,92
372,59	1282,03
372,80	1236,97
373,01	1349,61
373,22	1214,45
373,43	1290,22
373,64	1288,17
373,85	1308,65
374,06	1304,56
374,26	1267,69
374,47	1282,03
374,68	1255,40
374,89	1265,64
375,10	1263,60
375,31	1249,26
375,52	1179,63
375,73	1257,45
375,94	1296,36
376,15	1239,02
376,36	1232,88
376,57	1251,31
376,78	1273,84
376,99	1212,40
377,20	1245,16
377,40	1347,56
377,61	1236,97
377,82	1298,41
378,03	1249,26
378,24	1282,03
378,45	1214,45
378,66	1337,32
378,87	1275,88
379,08	1298,41
379,29	1290,22
379,50	1257,45
379,71	1298,41
379,91	1279,98
380,12	1292,27
380,33	1251,31
380,54	1196,01
380,75	1351,66
380,96	1273,84
381,17	1290,22
381,38	1286,12
381,59	1292,27
381,80	1257,45
382,00	1267,69
382,21	1327,08
382,42	1288,17
382,63	1206,25
382,84	1236,97
383,05	1261,55
383,26	1329,13
383,47	1247,21
383,68	1353,71
383,88	1269,74
384,09	1204,21
384,30	1224,69
384,51	1320,94
384,72	1261,55
384,93	1292,27
385,14	1271,79
385,35	1292,27
385,55	1208,30
385,76	1288,17
385,97	1216,49
386,18	1253,36
386,39	1249,26
386,60	1220,59
386,81	1251,31
387,02	1191,92
387,22	1308,65
387,43	1318,89
387,64	1292,27
387,85	1357,80
388,06	1279,98
388,27	1230,83
388,48	1253,36
388,68	1308,65
388,89	1253,36
389,10	1187,82
389,31	1206,25
389,52	1257,45
389,73	1216,49
389,93	1261,55
390,14	1232,88
390,35	1239,02
390,56	1259,50
390,77	1204,21
390,98	1216,49
391,18	1271,79
391,39	1216,49
391,60	1224,69
391,81	1271,79
392,02	1288,17
392,23	1312,75
392,43	1298,41
392,64	1275,88
392,85	1288,17
393,06	1279,98
393,27	1210,35
393,47	1277,93
393,68	1275,88
393,89	1294,32
394,10	1251,31
394,31	1255,40
394,52	1331,18
394,72	1312,75
394,93	1284,08
395,14	1306,60
395,35	1249,26
395,56	1247,21
395,76	1294,32
395,97	1255,40
396,18	1282,03
396,39	1298,41
396,60	1263,60
396,80	1290,22
397,01	1220,59
397,22	1239,02
397,43	1247,21
397,64	1183,73
397,84	1183,73
398,05	1316,84
398,26	1271,79
398,47	1249,26
398,67	1228,78
398,88	1273,84
399,09	1267,69
399,30	1282,03
399,51	1220,59
399,71	1214,45
399,92	1216,49
400,13	1327,08
400,34	1277,93
400,54	1269,74
400,75	1232,88
400,96	1273,84
401,17	1236,97
401,37	1236,97
401,58	1265,64
401,79	1294,32
402,00	1284,08
402,21	1292,27
402,41	1300,46
402,62	1222,64
402,83	1249,26
403,04	1249,26
403,24	1273,84
403,45	1316,84
403,66	1253,36
403,87	1259,50
404,07	1226,73
404,28	1263,60
404,49	1329,13
404,70	1263,60
404,90	1271,79
405,11	1236,97
405,32	1206,25
405,52	1267,69
405,73	1206,25
405,94	1245,16
406,15	1261,55
406,35	1257,45
406,56	1292,27
406,77	1306,60
406,98	1191,92
407,18	1208,30
407,39	1232,88
407,60	1206,25
407,80	1279,98
408,01	1284,08
408,22	1220,59
408,43	1327,08
408,63	1255,40
408,84	1265,64
409,05	1273,84
409,25	1243,12
409,46	1267,69
409,67	1296,36
409,88	1329,13
410,08	1249,26
410,29	1290,22
410,50	1286,12
410,70	1359,85
410,91	1267,69
411,12	1253,36
411,32	1275,88
411,53	1302,51
411,74	1302,51
411,95	1253,36
412,15	1329,13
412,36	1261,55
412,57	1259,50
412,77	1294,32
412,98	1282,03
413,19	1185,77
413,39	1222,64
413,60	1257,45
413,81	1228,78
414,01	1249,26
414,22	1366,00
414,43	1310,70
414,63	1189,87
414,84	1288,17
415,05	1275,88
415,25	1261,55
415,46	1249,26
415,67	1335,28
415,87	1310,70
416,08	1218,54
416,29	1247,21
416,49	1282,03
416,70	1282,03
416,91	1286,12
417,11	1204,21
417,32	1224,69
417,53	1265,64
417,73	1210,35
417,94	1269,74
418,15	1222,64
418,35	1306,60
418,56	1265,64
418,77	1228,78
418,97	1282,03
419,18	1259,50
419,38	1220,59
419,59	1220,59
419,80	1343,47
420,00	1251,31
420,21	1273,84
420,42	1290,22
420,62	1232,88
420,83	1277,93
421,04	1282,03
421,24	1212,40
421,45	1300,46
421,65	1288,17
421,86	1212,40
422,07	1333,23
422,27	1214,45
422,48	1275,88
422,69	1271,79
422,89	1310,70
423,10	1351,66
423,30	1271,79
423,51	1302,51
423,72	1316,84
423,92	1230,83
424,13	1320,94
424,33	1255,40
424,54	1198,06
424,75	1249,26
424,95	1189,87
425,16	1247,21
425,36	1255,40
425,57	1273,84
425,78	1271,79
425,98	1337,32
426,19	1304,56
426,39	1259,50
426,60	1288,17
426,81	1271,79
427,01	1204,21
427,22	1257,45
427,42	1208,30
427,63	1273,84
427,83	1343,47
428,04	1243,12
428,25	1296,36
428,45	1318,89
428,66	1269,74
428,86	1269,74
429,07	1298,41
429,28	1296,36
429,48	1263,60
429,69	1255,40
429,89	1251,31
430,10	1271,79
430,30	1308,65
430,51	1214,45
430,71	1273,84
430,92	1279,98
431,13	1282,03
431,33	1259,50
431,54	1245,16
431,74	1306,60
431,95	1247,21
432,15	1257,45
432,36	1322,99
432,56	1288,17
432,77	1241,07
432,98	1243,12
433,18	1279,98
433,39	1226,73
433,59	1230,83
433,80	1269,74
434,00	1257,45
434,21	1265,64
434,41	1267,69
434,62	1263,60
434,82	1249,26
435,03	1314,80
435,23	1310,70
435,44	1302,51
435,64	1224,69
435,85	1279,98
436,06	1271,79
436,26	1196,01
436,47	1251,31
436,67	1216,49
436,88	1249,26
437,08	1335,28
437,29	1245,16
437,49	1298,41
437,70	1247,21
437,90	1284,08
438,11	1257,45
438,31	1302,51
438,52	1279,98
438,72	1279,98
438,93	1302,51
439,13	1216,49
439,34	1322,99
439,54	1288,17
439,75	1257,45
439,95	1341,42
440,16	1263,60
440,36	1304,56
440,57	1279,98
440,77	1275,88
440,98	1214,45
441,18	1239,02
441,39	1234,93
441,59	1288,17
441,80	1251,31
442,00	1302,51
442,21	1251,31
442,41	1202,16
442,62	1212,40
442,82	1288,17
443,02	1257,45
443,23	1306,60
443,43	1236,97
443,64	1255,40
443,84	1331,18
444,05	1255,40
444,25	1339,37
444,46	1265,64
444,66	1253,36
444,87	1261,55
445,07	1222,64
445,28	1200,11
445,48	1304,56
445,69	1263,60
445,89	1300,46
446,09	1263,60
446,30	1271,79
446,50	1196,01
446,71	1316,84
446,91	1304,56
447,12	1310,70
447,32	1241,07
447,53	1183,73
447,73	1277,93
447,93	1286,12
448,14	1318,89
448,34	1335,28
448,55	1286,12
448,75	1292,27
448,96	1298,41
449,16	1263,60
449,36	1327,08
449,57	1269,74
449,77	1294,32
449,98	1310,70
450,18	1234,93
450,39	1241,07
450,59	1259,50
450,79	1331,18
451,00	1265,64
451,20	1275,88
451,41	1298,41
451,61	1353,71
451,81	1269,74
452,02	1292,27
452,22	1325,04
452,43	1335,28
452,63	1224,69
452,84	1282,03
453,04	1302,51
453,24	1253,36
453,45	1265,64
453,65	1282,03
453,86	1208,30
454,06	1300,46
454,26	1191,92
454,47	1241,07
454,67	1263,60
454,87	1226,73
455,08	1257,45
455,28	1374,19
455,49	1345,52
455,69	1308,65
455,89	1265,64
456,10	1273,84
456,30	1253,36
456,51	1343,47
456,71	1232,88
456,91	1263,60
457,12	1329,13
457,32	1234,93
457,52	1236,97
457,73	1257,45
457,93	1300,46
458,14	1212,40
458,34	1257,45
458,54	1191,92
458,75	1290,22
458,95	1236,97
459,15	1261,55
459,36	1269,74
459,56	1275,88
459,76	1216,49
459,97	1222,64
460,17	1286,12
460,37	1292,27
460,58	1261,55
460,78	1239,02
460,99	1187,82
461,19	1247,21
461,39	1279,98
461,60	1241,07
461,80	1308,65
462,00	1339,37
462,21	1251,31
462,41	1277,93
462,61	1347,56
462,82	1296,36
463,02	1284,08
463,22	1173,49
463,43	1230,83
463,63	1247,21
463,83	1224,69
464,04	1304,56
464,24	1208,30
464,44	1269,74
464,64	1249,26
464,85	1230,83
465,05	1259,50
465,25	1249,26
465,46	1236,97
465,66	1314,80
465,86	1290,22
466,07	1306,60
466,27	1269,74
466,47	1273,84
466,68	1327,08
466,88	1282,03
467,08	1251,31
467,29	1251,31
467,49	1259,50
467,69	1282,03
467,89	1341,42
468,10	1204,21
468,30	1275,88
468,50	1222,64
468,71	1257,45
468,91	1322,99
469,11	1327,08
469,31	1368,04
469,52	1275,88
469,72	1247,21
469,92	1322,99
470,13	1355,76
470,33	1253,36
470,53	1316,84
470,73	1251,31
470,94	1337,32
471,14	1257,45
471,34	1314,80
471,54	1247,21
471,75	1249,26
471,95	1257,45
472,15	1312,75
472,36	1343,47
472,56	1261,55
472,76	1304,56
472,96	1265,64
473,17	1308,65
473,37	1273,84
473,57	1232,88
473,77	1210,35
473,98	1236,97
474,18	1261,55
474,38	1322,99
474,58	1316,84
474,79	1374,19
474,99	1279,98
475,19	1249,26
475,39	1206,25
475,60	1277,93
475,80	1214,45
476,00	1306,60
476,20	1249,26
476,41	1343,47
476,61	1339,37
476,81	1269,74
477,01	1279,98
477,21	1245,16
477,42	1339,37
477,62	1296,36
477,82	1271,79
478,02	1257,45
478,23	1226,73
478,43	1288,17
478,63	1241,07
478,83	1286,12
479,03	1255,40
479,24	1318,89
479,44	1232,88
479,64	1271,79
479,84	1230,83
480,04	1239,02
480,25	1335,28
480,45	1267,69
480,65	1214,45
480,85	1234,93
481,06	1241,07
481,26	1249,26
481,46	1243,12
481,66	1249,26
481,86	1273,84
482,06	1294,32
482,27	1282,03
482,47	1294,32
482,67	1277,93
482,87	1269,74
483,07	1220,59
483,28	1298,41
483,48	1259,50
483,68	1314,80
483,88	1241,07
484,08	1265,64
484,29	1294,32
484,49	1298,41
484,69	1232,88
484,89	1333,23
485,09	1241,07
485,29	1318,89
485,50	1241,07
485,70	1263,60
485,90	1282,03
486,10	1339,37
486,30	1288,17
486,50	1261,55
486,71	1290,22
486,91	1269,74
487,11	1298,41
487,31	1245,16
487,51	1306,60
487,71	1228,78
487,91	1339,37
488,12	1230,83
488,32	1312,75
488,52	1368,04
488,72	1339,37
488,92	1275,88
489,12	1247,21
489,32	1204,21
489,53	1337,32
489,73	1210,35
489,93	1288,17
490,13	1257,45
490,33	1239,02
490,53	1300,46
490,73	1279,98
490,94	1241,07
491,14	1214,45
491,34	1243,12
491,54	1277,93
491,74	1298,41
491,94	1249,26
492,14	1245,16
492,34	1234,93
492,54	1366,00
492,75	1243,12
492,95	1277,93
493,15	1337,32
493,35	1253,36
493,55	1279,98
493,75	1327,08
493,95	1249,26
494,15	1277,93
494,35	1339,37
494,56	1257,45
494,76	1329,13
494,96	1255,40
495,16	1337,32
495,36	1327,08
495,56	1284,08
495,76	1251,31
495,96	1173,49
496,16	1314,80
496,36	1294,32
496,56	1253,36
496,77	1279,98
496,97	1243,12
497,17	1296,36
497,37	1282,03
497,57	1230,83
497,77	1210,35
497,97	1271,79
498,17	1314,80
498,37	1265,64
498,57	1267,69
498,77	1269,74
498,97	1294,32
499,17	1245,16
499,38	1208,30
499,58	1279,98
499,78	1265,64
499,98	1314,80
500,18	1347,56
500,38	1208,30
500,58	1208,30
500,78	1343,47
500,98	1257,45
501,18	1282,03
501,38	1331,18
501,58	1279,98
501,78	1286,12
501,98	1243,12
502,18	1279,98
502,38	1325,04
502,58	1294,32
502,78	1349,61
502,98	1259,50
503,18	1277,93
503,38	1282,03
503,59	1312,75
503,79	1341,42
503,99	1257,45
504,19	1255,40
504,39	1245,16
504,59	1214,45
504,79	1251,31
504,99	1226,73
505,19	1226,73
505,39	1255,40
505,59	1282,03
505,79	1294,32
505,99	1376,24
506,19	1300,46
506,39	1294,32
506,59	1277,93
506,79	1290,22
506,99	1292,27
507,19	1253,36
507,39	1292,27
507,59	1234,93
507,79	1202,16
507,99	1255,40
508,19	1288,17
508,39	1282,03
508,59	1228,78
508,79	1263,60
508,99	1343,47
509,19	1234,93
509,39	1302,51
509,59	1331,18
509,79	1296,36
509,99	1265,64
510,19	1255,40
510,39	1255,40
510,59	1265,64
510,79	1269,74
510,99	1251,31
511,19	1310,70
511,39	1263,60
511,59	1322,99
511,79	1282,03
511,99	1249,26
512,19	1335,28
512,38	1306,60
512,58	1349,61
512,78	1236,97
512,98	1249,26
513,18	1290,22
513,38	1243,12
513,58	1279,98
513,78	1296,36
513,98	1300,46
514,18	1290,22
514,38	1269,74
514,58	1296,36
514,78	1296,36
514,98	1273,84
515,18	1265,64
515,38	1282,03
515,58	1290,22
515,78	1275,88
515,98	1275,88
516,18	1284,08
516,38	1286,12
516,57	1259,50
516,77	1273,84
516,97	1241,07
517,17	1310,70
517,37	1292,27
517,57	1288,17
517,77	1241,07
517,97	1322,99
518,17	1288,17
518,37	1327,08
518,57	1249,26
518,77	1277,93
518,97	1267,69
519,16	1249,26
519,36	1261,55
519,56	1269,74
519,76	1355,76
519,96	1300,46
520,16	1210,35
520,36	1200,11
520,56	1318,89
520,76	1253,36
520,96	1312,75
521,16	1275,88
521,35	1216,49
521,55	1290,22
521,75	1308,65
521,95	1265,64
522,15	1308,65
522,35	1226,73
522,55	1275,88
522,75	1247,21
522,95	1218,54
523,14	1204,21
523,34	1304,56
523,54	1277,93
523,74	1316,84
523,94	1245,16
524,14	1273,84
524,34	1271,79
524,54	1243,12
524,73	1359,85
524,93	1314,80
525,13	1282,03
525,33	1267,69
525,53	1320,94
525,73	1255,40
525,93	1251,31
526,13	1273,84
526,32	1236,97
526,52	1288,17
526,72	1290,22
526,92	1290,22
527,12	1302,51
527,32	1265,64
527,52	1175,53
527,71	1220,59
527,91	1245,16
528,11	1300,46
528,31	1255,40
528,51	1269,74
528,71	1296,36
528,90	1316,84
529,10	1314,80
529,30	1251,31
529,50	1310,70
529,70	1288,17
529,90	1359,85
530,09	1318,89
530,29	1253,36
530,49	1314,80
530,69	1249,26
530,89	1230,83
531,09	1220,59
531,28	1288,17
531,48	1302,51
531,68	1314,80
531,88	1259,50
532,08	1316,84
532,28	1361,90
532,47	1228,78
532,67	1236,97
532,87	1288,17
533,07	1282,03
533,27	1339,37
533,46	1202,16
533,66	1239,02
533,86	1302,51
534,06	1196,01
534,26	1286,12
534,45	1314,80
534,65	1253,36
534,85	1275,88
535,05	1257,45
535,25	1357,80
535,44	1376,24
535,64	1275,88
535,84	1380,33
536,04	1312,75
536,24	1271,79
536,43	1298,41
536,63	1331,18
536,83	1284,08
537,03	1288,17
537,22	1267,69
537,42	1234,93
537,62	1282,03
537,82	1333,23
538,02	1331,18
538,21	1318,89
538,41	1273,84
538,61	1351,66
538,81	1251,31
539,00	1212,40
539,20	1259,50
539,40	1304,56
539,60	1312,75
539,79	1267,69
539,99	1277,93
540,19	1247,21
540,39	1320,94
540,58	1155,05
540,78	1308,65
540,98	1257,45
541,18	1318,89
541,37	1257,45
541,57	1329,13
541,77	1271,79
541,97	1312,75
542,16	1251,31
542,36	1267,69
542,56	1269,74
542,76	1286,12
542,95	1355,76
543,15	1322,99
543,35	1306,60
543,54	1335,28
543,74	1277,93
543,94	1310,70
544,14	1214,45
544,33	1279,98
544,53	1249,26
544,73	1241,07
544,93	1312,75
545,12	1318,89
545,32	1308,65
545,52	1271,79
545,71	1261,55
545,91	1349,61
546,11	1226,73
546,30	1241,07
546,50	1288,17
546,70	1282,03
546,90	1329,13
547,09	1232,88
547,29	1279,98
547,49	1329,13
547,68	1318,89
547,88	1347,56
548,08	1259,50
548,27	1265,64
548,47	1263,60
548,67	1218,54
548,87	1273,84
549,06	1249,26
549,26	1290,22
549,46	1279,98
549,65	1288,17
549,85	1310,70
550,05	1294,32
550,24	1251,31
550,44	1288,17
550,64	1267,69
550,83	1271,79
551,03	1296,36
551,23	1282,03
551,42	1359,85
551,62	1277,93
551,82	1277,93
552,01	1284,08
552,21	1341,42
552,41	1271,79
552,60	1302,51
552,80	1257,45
553,00	1308,65
553,19	1210,35
553,39	1316,84
553,59	1292,27
553,78	1216,49
553,98	1271,79
554,17	1259,50
554,37	1245,16
554,57	1351,66
554,76	1310,70
554,96	1236,97
555,16	1314,80
555,35	1277,93
555,55	1249,26
555,75	1216,49
555,94	1249,26
556,14	1314,80
556,33	1263,60
556,53	1257,45
556,73	1253,36
556,92	1234,93
557,12	1247,21
557,32	1331,18
557,51	1208,30
557,71	1275,88
557,90	1320,94
558,10	1177,58
558,30	1212,40
558,49	1226,73
558,69	1247,21
558,88	1337,32
559,08	1314,80
559,28	1314,80
559,47	1222,64
559,67	1347,56
559,86	1247,21
560,06	1265,64
560,26	1232,88
560,45	1335,28
560,65	1279,98
560,84	1288,17
561,04	1265,64
561,24	1243,12
561,43	1263,60
561,63	1267,69
561,82	1279,98
562,02	1273,84
562,22	1298,41
562,41	1220,59
562,61	1300,46
562,80	1241,07
563,00	1298,41
563,19	1275,88
563,39	1257,45
563,59	1349,61
563,78	1279,98
563,98	1292,27
564,17	1312,75
564,37	1279,98
564,56	1310,70
564,76	1273,84
564,96	1366,00
565,15	1335,28
565,35	1302,51
565,54	1247,21
565,74	1298,41
565,93	1265,64
566,13	1271,79
566,32	1267,69
566,52	1310,70
566,71	1253,36
566,91	1331,18
567,11	1239,02
567,30	1212,40
567,50	1286,12
567,69	1198,06
567,89	1222,64
568,08	1316,84
568,28	1314,80
568,47	1269,74
568,67	1265,64
568,86	1335,28
569,06	1241,07
569,25	1265,64
569,45	1243,12
569,64	1204,21
569,84	1275,88
570,04	1263,60
570,23	1269,74
570,43	1255,40
570,62	1300,46
570,82	1269,74
571,01	1279,98
571,21	1298,41
571,40	1241,07
571,60	1306,60
571,79	1314,80
571,99	1294,32
572,18	1257,45
572,38	1308,65
572,57	1273,84
572,77	1279,98
572,96	1282,03
573,16	1310,70
573,35	1286,12
573,55	1339,37
573,74	1296,36
573,94	1282,03
574,13	1224,69
574,33	1253,36
574,52	1290,22
574,71	1288,17
574,91	1351,66
575,10	1245,16
575,30	1294,32
575,49	1316,84
575,69	1257,45
575,88	1243,12
576,08	1251,31
576,27	1279,98
576,47	1298,41
576,66	1368,04
576,86	1277,93
577,05	1312,75
577,25	1304,56
577,44	1234,93
577,64	1298,41
577,83	1347,56
578,02	1288,17
578,22	1327,08
578,41	1210,35
578,61	1269,74
578,80	1249,26
579,00	1333,23
579,19	1206,25
579,39	1327,08
579,58	1300,46
579,77	1269,74
579,97	1333,23
580,16	1263,60
580,36	1361,90
580,55	1257,45
580,75	1234,93
580,94	1253,36
581,13	1302,51
581,33	1269,74
581,52	1218,54
581,72	1314,80
581,91	1265,64
582,11	1310,70
582,30	1271,79
582,49	1337,32
582,69	1320,94
582,88	1277,93
583,08	1290,22
583,27	1335,28
583,47	1304,56
583,66	1310,70
583,85	1249,26
584,05	1333,23
584,24	1234,93
584,44	1290,22
584,63	1322,99
584,82	1292,27
585,02	1337,32
585,21	1279,98
585,41	1279,98
585,60	1370,09
585,79	1290,22
585,99	1392,62
586,18	1282,03
586,37	1329,13
586,57	1304,56
586,76	1304,56
586,96	1224,69
587,15	1322,99
587,34	1173,49
587,54	1198,06
587,73	1290,22
587,93	1308,65
588,12	1249,26
588,31	1271,79
588,51	1292,27
588,70	1308,65
588,89	1290,22
589,09	1265,64
589,28	1306,60
589,47	1249,26
589,67	1282,03
589,86	1204,21
590,06	1251,31
590,25	1288,17
590,44	1243,12
590,64	1290,22
590,83	1255,40
591,02	1339,37
591,22	1292,27
591,41	1275,88
591,60	1218,54
591,80	1247,21
591,99	1275,88
592,18	1292,27
592,38	1312,75
592,57	1255,40
592,76	1284,08
592,96	1286,12
593,15	1300,46
593,34	1343,47
593,54	1251,31
593,73	1220,59
593,92	1265,64
594,12	1263,60
594,31	1325,04
594,50	1384,43
594,70	1243,12
594,89	1267,69
595,08	1361,90
595,28	1320,94
595,47	1200,11
595,66	1251,31
595,86	1247,21
596,05	1249,26
596,24	1316,84
596,43	1290,22
596,63	1277,93
596,82	1302,51
597,01	1243,12
597,21	1247,21
597,40	1263,60
597,59	1349,61
597,79	1282,03
597,98	1316,84
598,17	1253,36
598,36	1302,51
598,56	1271,79
598,75	1279,98
598,94	1318,89
599,14	1286,12
599,33	1347,56
599,52	1284,08
599,71	1288,17
599,91	1284,08
600,10	1277,93
600,29	1306,60
600,48	1314,80
600,68	1290,22
600,87	1269,74
601,06	1298,41
601,26	1302,51
601,45	1298,41
601,64	1216,49
601,83	1241,07
602,03	1247,21
602,22	1312,75
602,41	1345,52
602,60	1361,90
602,80	1306,60
602,99	1232,88
603,18	1300,46
603,37	1355,76
603,57	1277,93
603,76	1208,30
603,95	1288,17
604,14	1286,12
604,34	1255,40
604,53	1269,74
604,72	1355,76
604,91	1302,51
605,10	1304,56
605,30	1249,26
605,49	1306,60
605,68	1302,51
605,87	1331,18
606,07	1302,51
606,26	1296,36
606,45	1257,45
606,64	1298,41
606,84	1284,08
607,03	1347,56
607,22	1277,93
607,41	1282,03
607,60	1320,94
607,80	1273,84
607,99	1337,32
608,18	1259,50
608,37	1249,26
608,56	1265,64
608,76	1306,60
608,95	1370,09
609,14	1296,36
609,33	1327,08
609,52	1351,66
609,72	1327,08
609,91	1282,03
610,10	1265,64
610,29	1239,02
610,48	1263,60
610,68	1302,51
610,87	1210,35
611,06	1337,32
611,25	1288,17
611,44	1292,27
611,63	1259,50
611,83	1234,93
612,02	1208,30
612,21	1304,56
612,40	1288,17
612,59	1271,79
612,79	1335,28
612,98	1314,80
613,17	1271,79
613,36	1329,13
613,55	1347,56
613,74	1296,36
613,93	1257,45
614,13	1288,17
614,32	1331,18
614,51	1329,13
614,70	1241,07
614,89	1333,23
615,08	1320,94
615,28	1343,47
615,47	1351,66
615,66	1322,99
615,85	1245,16
616,04	1279,98
616,23	1267,69
616,42	1236,97
616,62	1306,60
616,81	1290,22
617,00	1341,42
617,19	1314,80
617,38	1286,12
617,57	1243,12
617,76	1271,79
617,95	1376,24
618,15	1279,98
618,34	1257,45
618,53	1273,84
618,72	1239,02
618,91	1310,70
619,10	1325,04
619,29	1294,32
619,48	1249,26
619,68	1257,45
619,87	1302,51
620,06	1275,88
620,25	1279,98
620,44	1286,12
620,63	1294,32
620,82	1261,55
621,01	1253,36
621,20	1318,89
621,39	1257,45
621,59	1347,56
621,78	1277,93
621,97	1345,52
622,16	1261,55
622,35	1261,55
622,54	1394,67
622,73	1247,21
622,92	1320,94
623,11	1343,47
623,30	1249,26
623,49	1261,55
623,68	1333,23
623,88	1275,88
624,07	1306,60
624,26	1243,12
624,45	1343,47
624,64	1306,60
624,83	1347,56
625,02	1261,55
625,21	1200,11
625,40	1290,22
625,59	1294,32
625,78	1243,12
625,97	1257,45
626,16	1271,79
626,35	1320,94
626,54	1298,41
626,74	1300,46
626,93	1329,13
627,12	1279,98
627,31	1302,51
627,50	1247,21
627,69	1234,93
627,88	1366,00
628,07	1308,65
628,26	1296,36
628,45	1312,75
628,64	1327,08
628,83	1333,23
629,02	1355,76
629,21	1294,32
629,40	1290,22
629,59	1265,64
629,78	1329,13
629,97	1331,18
630,16	1245,16
630,35	1294,32
630,54	1288,17
630,73	1318,89
630,92	1220,59
631,11	1257,45
631,30	1361,90
631,49	1398,76
631,68	1427,43
631,87	2373,60
632,06	5353,39
632,25	7550,86
632,44	14513,95
632,63	22855,33
632,82	39089,58
633,01	41991,55
633,20	20639,43
633,39	8611,71
633,58	4319,17
633,77	3475,40
633,96	3321,81
634,15	2703,32
634,34	2238,43
634,53	2146,27
634,72	2058,21
634,91	1847,27
635,10	1957,86
635,29	1822,69
635,48	1763,30
635,67	1705,96
635,86	1570,79
636,05	1578,98
636,24	1583,08
636,43	1525,74
636,62	1576,94
636,81	1474,54
637,00	1427,43
637,19	1462,25
637,38	1331,18
637,57	1386,47
637,76	1400,81
637,95	1351,66
638,14	1421,29
638,33	1271,79
638,52	1378,28
638,71	1243,12
638,89	1308,65
639,08	1298,41
639,27	1339,37
639,46	1241,07
639,65	1230,83
639,84	1210,35
640,03	1345,52
640,22	1329,13
640,41	1304,56
640,60	1308,65
640,79	1247,21
640,98	1302,51
641,17	1298,41
641,36	1228,78
641,55	1320,94
641,74	1206,25
641,92	1247,21
642,11	1331,18
642,30	1271,79
642,49	1286,12
642,68	1259,50
642,87	1183,73
643,06	1277,93
643,25	1239,02
643,44	1253,36
643,63	1263,60
643,82	1306,60
644,00	1308,65
644,19	1331,18
644,38	1261,55
644,57	1236,97
644,76	1261,55
644,95	1271,79
645,14	1284,08
645,33	1230,83
645,52	1243,12
645,71	1200,11
645,89	1304,56
646,08	1261,55
646,27	1302,51
646,46	1226,73
646,65	1269,74
646,84	1325,04
647,03	1312,75
647,22	1318,89
647,40	1286,12
647,59	1288,17
647,78	1310,70
647,97	1298,41
648,16	1236,97
648,35	1282,03
648,54	1282,03
648,73	1265,64
648,91	1282,03
649,10	1298,41
649,29	1341,42
649,48	1302,51
649,67	1343,47
649,86	1273,84
650,05	1284,08
650,23	1220,59
650,42	1271,79
650,61	1300,46
650,80	1279,98
650,99	1288,17
651,18	1234,93
651,36	1249,26
651,55	1284,08
651,74	1316,84
651,93	1318,89
652,12	1288,17
652,31	1202,16
652,49	1308,65
652,68	1202,16
652,87	1298,41
653,06	1245,16
653,25	1298,41
653,44	1261,55
653,62	1294,32
653,81	1222,64
654,00	1261,55
654,19	1312,75
654,38	1302,51
654,56	1259,50
654,75	1327,08
654,94	1265,64
655,13	1329,13
655,32	1292,27
655,51	1337,32
655,69	1200,11
655,88	1271,79
656,07	1275,88
656,26	1249,26
656,45	1282,03
656,63	1247,21
656,82	1322,99
657,01	1335,28
657,20	1216,49
657,38	1322,99
657,57	1230,83
657,76	1241,07
657,95	1243,12
658,14	1269,74
658,32	1247,21
658,51	1234,93
658,70	1277,93
658,89	1333,23
659,08	1312,75
659,26	1294,32
659,45	1341,42
659,64	1282,03
659,83	1298,41
660,01	1247,21
660,20	1267,69
660,39	1257,45
660,58	1292,27
660,76	1302,51
660,95	1273,84
661,14	1271,79
661,33	1239,02
661,51	1247,21
661,70	1304,56
661,89	1247,21
662,08	1232,88
662,26	1243,12
662,45	1282,03
662,64	1251,31
662,83	1388,52
663,01	1296,36
663,20	1255,40
663,39	1241,07
663,58	1279,98
663,76	1310,70
663,95	1251,31
664,14	1271,79
664,32	1234,93
664,51	1275,88
664,70	1353,71
664,89	1304,56
665,07	1279,98
665,26	1302,51
665,45	1261,55
665,64	1345,52
665,82	1255,40
666,01	1193,97
666,20	1284,08
666,38	1222,64
666,57	1234,93
666,76	1296,36
666,95	1255,40
667,13	1316,84
667,32	1376,24
667,51	1261,55
667,69	1249,26
667,88	1279,98
668,07	1374,19
668,25	1267,69
668,44	1282,03
668,63	1322,99
668,81	1275,88
669,00	1239,02
669,19	1261,55
669,38	1232,88
669,56	1275,88
669,75	1259,50
669,94	1198,06
670,12	1312,75
670,31	1185,77
670,50	1273,84
670,68	1320,94
670,87	1249,26
671,06	1296,36
671,24	1290,22
671,43	1224,69
671,62	1298,41
671,80	1263,60
671,99	1273,84
672,18	1236,97
672,36	1226,73
672,55	1277,93
672,74	1234,93
672,92	1241,07
673,11	1253,36
673,29	1306,60
673,48	1296,36
673,67	1275,88
673,85	1200,11
674,04	1241,07
674,23	1279,98
674,41	1318,89
674,60	1331,18
674,79	1239,02
674,97	1277,93
675,16	1249,26
675,34	1234,93
675,53	1191,92
675,72	1337,32
675,90	1253,36
676,09	1267,69
676,28	1267,69
676,46	1212,40
676,65	1302,51
676,83	1239,02
677,02	1294,32
677,21	1239,02
677,39	1251,31
677,58	1196,01
677,77	1304,56
677,95	1265,64
678,14	1271,79
678,32	1193,97
678,51	1222,64
678,70	1329,13
678,88	1200,11
679,07	1304,56
679,25	1273,84
679,44	1253,36
679,63	1269,74
679,81	1331,18
680,00	1232,88
680,18	1288,17
680,37	1288,17
680,55	1218,54
680,74	1343,47
680,93	1249,26
681,11	1298,41
681,30	1263,60
681,48	1249,26
681,67	1282,03
681,85	1314,80
682,04	1232,88
682,23	1325,04
682,41	1363,95
682,60	1234,93
682,78	1316,84
682,97	1255,40
683,15	1212,40
683,34	1245,16
683,53	1204,21
683,71	1251,31
683,90	1386,47
684,08	1259,50
684,27	1226,73
684,45	1288,17
684,64	1277,93
684,82	1355,76
685,01	1316,84
685,19	1212,40
685,38	1214,45
685,57	1259,50
685,75	1218,54
685,94	1206,25
686,12	1284,08
686,31	1249,26
686,49	1239,02
686,68	1239,02
686,86	1284,08
687,05	1245,16
687,23	1177,58
687,42	1263,60
687,60	1316,84
687,79	1257,45
687,97	1257,45
688,16	1273,84
688,34	1249,26
688,53	1239,02
688,71	1251,31
688,90	1255,40
689,08	1222,64
689,27	1263,60
689,45	1226,73
689,64	1255,40
689,82	1296,36
690,01	1249,26
690,19	1257,45
690,38	1261,55
690,56	1306,60
690,75	1282,03
690,93	1202,16
691,12	1351,66
691,30	1290,22
691,49	1216,49
691,67	1249,26
691,86	1312,75
692,04	1263,60
692,23	1300,46
692,41	1271,79
692,60	1230,83
692,78	1208,30
692,97	1290,22
693,15	1292,27
693,34	1296,36
693,52	1345,52
693,71	1249,26
693,89	1318,89
694,08	1261,55
694,26	1279,98
694,44	1249,26
694,63	1273,84
694,81	1265,64
695,00	1241,07
695,18	1257,45
695,37	1261,55
695,55	1265,64
695,74	1304,56
695,92	1279,98
696,10	1286,12
696,29	1261,55
696,47	1224,69
696,66	1296,36
696,84	1198,06
697,03	1290,22
697,21	1314,80
697,40	1263,60
697,58	1325,04
697,76	1263,60
697,95	1257,45
698,13	1234,93
698,32	1212,40
698,50	1232,88
698,68	1253,36
698,87	1273,84
699,05	1277,93
699,24	1255,40
699,42	1284,08
699,61	1210,35
699,79	1327,08
699,97	1320,94
700,16	1298,41
700,34	1247,21
700,53	1265,64
700,71	1247,21
700,89	1228,78
701,08	1294,32
701,26	1265,64
701,45	1265,64
701,63	1226,73
701,81	1267,69
702,00	1236,97
702,18	1236,97
702,37	1243,12
702,55	1271,79
702,73	1294,32
702,92	1286,12
703,10	1290,22
703,28	1288,17
703,47	1267,69
703,65	1218,54
703,84	1234,93
704,02	1142,77
704,20	1257,45
704,39	1298,41
704,57	1282,03
704,75	1290,22
704,94	1288,17
705,12	1243,12
705,30	1314,80
705,49	1243,12
705,67	1257,45
705,86	1277,93
706,04	1261,55
706,22	1306,60
706,41	1267,69
706,59	1245,16
706,77	1279,98
706,96	1255,40
707,14	1294,32
707,32	1269,74
707,51	1193,97
707,69	1208,30
707,87	1290,22
708,06	1230,83
708,24	1282,03
708,42	1286,12
708,61	1267,69
708,79	1277,93
708,97	1296,36
709,16	1232,88
709,34	1253,36
709,52	1308,65
709,71	1189,87
709,89	1239,02
710,07	1253,36
710,26	1335,28
710,44	1271,79
710,62	1286,12
710,80	1286,12
710,99	1267,69
711,17	1300,46
711,35	1269,74
711,54	1331,18
711,72	1208,30
711,90	1236,97
712,09	1259,50
712,27	1236,97
712,45	1288,17
712,63	1279,98
712,82	1259,50
713,00	1347,56
713,18	1245,16
713,37	1329,13
713,55	1310,70
713,73	1218,54
713,91	1269,74
714,10	1265,64
714,28	1302,51
714,46	1271,79
714,65	1284,08
714,83	1271,79
715,01	1251,31
715,19	1236,97
715,38	1318,89
715,56	1230,83
715,74	1245,16
715,92	1234,93
716,11	1298,41
716,29	1298,41
716,47	1279,98
716,65	1224,69
716,84	1331,18
717,02	1241,07
717,20	1286,12
717,38	1208,30
717,57	1320,94
717,75	1304,56
717,93	1230,83
718,11	1255,40
718,30	1257,45
718,48	1243,12
718,66	1269,74
718,84	1261,55
719,03	1243,12
719,21	1288,17
719,39	1327,08
719,57	1306,60
719,75	1345,52
719,94	1226,73
720,12	1265,64
720,30	1298,41
720,48	1259,50
720,67	1294,32
720,85	1247,21
721,03	1329,13
721,21	1327,08
721,39	1220,59
721,58	1347,56
721,76	1325,04
721,94	1298,41
722,12	1200,11
722,30	1245,16
722,49	1329,13
722,67	1318,89
722,85	1318,89
723,03	1304,56
723,21	1271,79
723,40	1298,41
723,58	1216,49
723,76	1318,89
723,94	1228,78
724,12	1206,25
724,30	1306,60
724,49	1306,60
724,67	1263,60
724,85	1267,69
725,03	1288,17
725,21	1255,40
725,40	1329,13
725,58	1216,49
725,76	1257,45
725,94	1294,32
726,12	1337,32
726,30	1292,27
726,49	1273,84
726,67	1277,93
726,85	1189,87
727,03	1279,98
727,21	1253,36
727,39	1286,12
727,57	1314,80
727,76	1214,45
727,94	1294,32
728,12	1245,16
728,30	1284,08
728,48	1255,40
728,66	1245,16
728,84	1216,49
729,03	1200,11
729,21	1322,99
729,39	1282,03
729,57	1239,02
729,75	1255,40
729,93	1216,49
730,11	1241,07
730,30	1257,45
730,48	1286,12
730,66	1282,03
730,84	1269,74
731,02	1269,74
731,20	1296,36
731,38	1224,69
731,56	1261,55
731,74	1288,17
731,93	1179,63
732,11	1271,79
732,29	1255,40
732,47	1271,79
732,65	1259,50
732,83	1261,55
733,01	1284,08
733,19	1228,78
733,37	1269,74
733,56	1271,79
733,74	1208,30
733,92	1214,45
734,10	1292,27
734,28	1226,73
734,46	1216,49
734,64	1310,70
734,82	1239,02
735,00	1322,99
735,18	1263,60
735,36	1202,16
735,54	1239,02
735,73	1249,26
735,91	1265,64
736,09	1316,84
736,27	1292,27
736,45	1273,84
736,63	1224,69
736,81	1355,76
736,99	1296,36
737,17	1267,69
737,35	1265,64
737,53	1265,64
737,71	1175,53
737,89	1271,79
738,07	1220,59
738,25	1263,60
738,43	1249,26
738,61	1224,69
738,80	1327,08
738,98	1314,80
739,16	1282,03
739,34	1196,01
739,52	1347,56
739,70	1212,40
739,88	1271,79
740,06	1277,93
740,24	1269,74
740,42	1214,45
740,60	1251,31
740,78	1310,70
740,96	1298,41
741,14	1232,88
741,32	1265,64
741,50	1298,41
741,68	1206,25
741,86	1255,40
742,04	1259,50
742,22	1247,21
742,40	1218,54
742,58	1185,77
742,76	1325,04
742,94	1273,84
743,12	1298,41
743,30	1243,12
743,48	1306,60
743,66	1261,55
743,84	1179,63
744,02	1312,75
744,20	1302,51
744,38	1261,55
744,56	1279,98
744,74	1193,97
744,92	1306,60
745,10	1318,89
745,28	1306,60
745,46	1216,49
745,64	1226,73
745,82	1271,79
746,00	1273,84
746,18	1259,50
746,36	1200,11
746,54	1308,65
746,72	1243,12
746,90	1226,73
747,08	1153,01
747,26	1292,27
747,44	1259,50
747,62	1292,27
747,80	1230,83
747,98	1216,49
748,15	1253,36
748,33	1241,07
748,51	1337,32
748,69	1255,40
748,87	1253,36
749,05	1298,41
749,23	1269,74
749,41	1279,98
749,59	1255,40
749,77	1230,83
749,95	1298,41
750,13	1261,55
750,31	1306,60
750,49	1327,08
750,67	1296,36
750,85	1232,88
751,03	1253,36
751,20	1224,69
751,38	1243,12
751,56	1279,98
751,74	1245,16
751,92	1312,75
752,10	1216,49
752,28	1267,69
752,46	1279,98
752,64	1284,08
752,82	1271,79
753,00	1284,08
753,18	1275,88
753,35	1286,12
753,53	1363,95
753,71	1343,47
753,89	1230,83
754,07	1236,97
754,25	1290,22
754,43	1251,31
754,61	1249,26
754,79	1302,51
754,97	1185,77
755,14	1296,36
755,32	1191,92
755,50	1329,13
755,68	1230,83
755,86	1277,93
756,04	1214,45
756,22	1214,45
756,40	1247,21
756,57	1273,84
756,75	1298,41
756,93	1230,83
757,11	1298,41
757,29	1212,40
757,47	1296,36
757,65	1255,40
757,82	1255,40
758,00	1255,40
758,18	1279,98
758,36	1198,06
758,54	1232,88
758,72	1282,03
758,90	1243,12
759,07	1208,30
759,25	1255,40
759,43	1296,36
759,61	1261,55
759,79	1271,79
759,97	1298,41
760,15	1277,93
760,32	1253,36
760,50	1284,08
760,68	1306,60
760,86	1210,35
761,04	1286,12
761,22	1234,93
761,39	1185,77
761,57	1218,54
761,75	1257,45
761,93	1277,93
762,11	1239,02
762,28	1302,51
762,46	1216,49
762,64	1357,80
762,82	1234,93
763,00	1265,64
763,18	1243,12
763,35	1261,55
763,53	1298,41
763,71	1286,12
763,89	1261,55
764,07	1224,69
764,24	1267,69
764,42	1259,50
764,60	1257,45
764,78	1236,97
764,96	1298,41
765,13	1277,93
765,31	1236,97
765,49	1261,55
765,67	1226,73
765,84	1279,98
766,02	1263,60
766,20	1288,17
766,38	1220,59
766,56	1282,03
766,73	1314,80
766,91	1255,40
767,09	1224,69
767,27	1306,60
767,44	1175,53
767,62	1341,42
767,80	1249,26
767,98	1275,88
768,15	1239,02
768,33	1349,61
768,51	1282,03
768,69	1282,03
768,87	1282,03
769,04	1263,60
769,22	1263,60
769,40	1304,56
769,58	1296,36
769,75	1249,26
769,93	1290,22
770,11	1228,78
770,28	1333,23
770,46	1325,04
770,64	1191,92
770,82	1322,99
770,99	1279,98
771,17	1288,17
771,35	1247,21
771,53	1216,49
771,70	1253,36
771,88	1216,49
772,06	1224,69
772,23	1251,31
772,41	1255,40
772,59	1216,49
772,77	1228,78
772,94	1316,84
773,12	1329,13
773,30	1275,88
773,47	1273,84
773,65	1286,12
773,83	1298,41
774,01	1212,40
774,18	1286,12
774,36	1277,93
774,54	1263,60
774,71	1249,26
774,89	1232,88
775,07	1318,89
775,24	1232,88
775,42	1327,08
775,60	1247,21
775,78	1245,16
775,95	1288,17
776,13	1212,40
776,31	1265,64
776,48	1302,51
776,66	1265,64
776,84	1261,55
777,01	1273,84
777,19	1183,73
777,37	1232,88
777,54	1269,74
777,72	1214,45
777,90	1208,30
778,07	1300,46
778,25	1247,21
778,43	1282,03
778,60	1298,41
778,78	1292,27
778,96	1288,17
779,13	1296,36
779,31	1216,49
779,49	1261,55
779,66	1304,56
779,84	1279,98
780,01	1216,49
780,19	1261,55
780,37	1251,31
780,54	1212,40
780,72	1171,44
780,90	1273,84
781,07	1204,21
781,25	1279,98
781,43	1214,45
781,60	1261,55
781,78	1236,97
781,95	1288,17
782,13	1210,35
782,31	1314,80
782,48	1302,51
782,66	1247,21
782,83	1218,54
783,01	1208,30
783,19	1265,64
783,36	1331,18
783,54	1169,39
783,72	1284,08
783,89	1218,54
784,07	1208,30
784,24	1331,18
784,42	1314,80
784,60	1230,83
784,77	1247,21
784,95	1255,40
785,12	1327,08
785,30	1216,49
785,47	1284,08
785,65	1286,12
785,83	1228,78
786,00	1249,26
786,18	1273,84
786,35	1202,16
786,53	1257,45
786,71	1275,88
786,88	1284,08
787,06	1159,15
787,23	1269,74
787,41	1263,60
787,58	1249,26
787,76	1241,07
787,94	1261,55
788,11	1308,65
788,29	1249,26
788,46	1296,36
788,64	1288,17
788,81	1286,12
788,99	1292,27
789,16	1277,93
789,34	1247,21
789,52	1230,83
789,69	1306,60
789,87	1216,49
790,04	1327,08
790,22	1282,03
790,39	1290,22
790,57	1228,78
790,74	1210,35
790,92	1222,64
791,09	1216,49
791,27	1253,36
791,44	1234,93
791,62	1241,07
791,79	1241,07
791,97	1310,70
792,15	1298,41
792,32	1279,98
792,50	1247,21
792,67	1216,49
792,85	1271,79
793,02	1239,02
793,20	1279,98
793,37	1273,84
793,55	1265,64
793,72	1322,99
793,90	1263,60
794,07	1243,12
794,25	1226,73
794,42	1255,40
794,60	1261,55
794,77	1230,83
794,95	1204,21
795,12	1261,55
795,30	1263,60
795,47	1239,02
795,65	1236,97
795,82	1259,50
796,00	1245,16
796,17	1298,41
796,34	1224,69
796,52	1279,98
796,69	1232,88
796,87	1208,30
797,04	1337,32
797,22	1284,08
797,39	1269,74
797,57	1300,46
797,74	1224,69
797,92	1204,21
798,09	1257,45
798,27	1269,74
798,44	1325,04
798,62	1216,49
798,79	1337,32
798,96	1363,95
799,14	1335,28
799,31	1327,08
799,49	1247,21
799,66	1220,59
799,84	1251,31
800,01	1277,93
800,19	1251,31
800,36	1263,60
800,53	1196,01
800,71	1243,12
800,88	1308,65
801,06	1267,69
801,23	1224,69
801,41	1228,78
801,58	1210,35
801,75	1275,88
801,93	1249,26
802,10	1288,17
802,28	1271,79
802,45	1273,84
802,63	1261,55
802,80	1265,64
802,97	1304,56
803,15	1296,36
803,32	1245,16
803,50	1200,11
803,67	1310,70
803,84	1300,46
804,02	1310,70
804,19	1214,45
804,37	1228,78
804,54	1255,40
804,71	1269,74
804,89	1239,02
805,06	1292,27
805,24	1298,41
805,41	1232,88
805,58	1224,69
805,76	1212,40
805,93	1214,45
806,10	1263,60
806,28	1314,80
806,45	1294,32
806,63	1253,36
806,80	1304,56
806,97	1241,07
807,15	1239,02
807,32	1265,64
807,49	1257,45
807,67	1249,26
807,84	1249,26
808,01	1277,93
808,19	1296,36
808,36	1269,74
808,54	1275,88
808,71	1216,49
808,88	1271,79
809,06	1308,65
809,23	1273,84
809,40	1298,41
809,58	1277,93
809,75	1261,55
809,92	1282,03
810,10	1370,09
810,27	1290,22
810,44	1232,88
810,62	1300,46
810,79	1339,37
810,96	1261,55
811,14	1263,60
811,31	1282,03
811,48	1282,03
811,66	1306,60
811,83	1214,45
812,00	1284,08
812,18	1183,73
812,35	1298,41
812,52	1204,21
812,69	1202,16
812,87	1259,50
813,04	1261,55
813,21	1325,04
813,39	1220,59
813,56	1265,64
813,73	1224,69
813,91	1302,51
814,08	1273,84
814,25	1275,88
814,42	1325,04
814,60	1294,32
814,77	1245,16
814,94	1236,97
815,12	1339,37
815,29	1286,12
815,46	1302,51
815,63	1296,36
815,81	1189,87
815,98	1271,79
816,15	1279,98
816,33	1263,60
816,50	1310,70
816,67	1265,64
816,84	1306,60
817,02	1257,45
817,19	1226,73
817,36	1302,51
817,53	1288,17
817,71	1261,55
817,88	1218,54
818,05	1218,54
818,22	1224,69
818,40	1366,00
818,57	1222,64
818,74	1279,98
818,91	1290,22
819,09	1202,16
819,26	1308,65
819,43	1279,98
819,60	1259,50
819,78	1329,13
819,95	1261,55
820,12	1236,97
820,29	1214,45
820,47	1322,99
820,64	1302,51
820,81	1263,60
820,98	1314,80
821,15	1208,30
821,33	1269,74
821,50	1251,31
821,67	1216,49
821,84	1314,80
822,02	1216,49
822,19	1259,50
822,36	1306,60
822,53	1232,88
822,70	1294,32
822,88	1179,63
823,05	1208,30
823,22	1216,49
823,39	1279,98
823,56	1218,54
823,74	1263,60
823,91	1288,17
824,08	1275,88
824,25	1265,64
824,42	1279,98
824,60	1259,50
824,77	1249,26
824,94	1337,32
825,11	1282,03
825,28	1232,88
825,45	1298,41
825,63	1292,27
825,80	1255,40
825,97	1251,31
826,14	1310,70
826,31	1265,64
826,48	1273,84
826,66	1220,59
826,83	1304,56
827,00	1318,89
827,17	1249,26
827,34	1277,93
827,51	1286,12
827,69	1257,45
827,86	1234,93
828,03	1296,36
828,20	1298,41
828,37	1308,65
828,54	1257,45
828,71	1239,02
828,89	1267,69
829,06	1298,41
829,23	1222,64
829,40	1216,49
829,57	1239,02
829,74	1239,02
829,91	1257,45
830,09	1243,12
830,26	1247,21
830,43	1259,50
830,60	1247,21
830,77	1302,51
830,94	1300,46
831,11	1251,31
831,28	1277,93
831,46	1249,26
831,63	1275,88
831,80	1269,74
831,97	1294,32
832,14	1284,08
832,31	1269,74
832,48	1341,42
832,65	1249,26
832,82	1196,01
832,99	1271,79
833,17	1271,79
833,34	1286,12
833,51	1327,08
833,68	1163,25
833,85	1163,25
834,02	1232,88
834,19	1277,93
834,36	1294,32
834,53	1200,11
834,70	1247,21
834,87	1222,64
835,04	1267,69
835,22	1298,41
835,39	1296,36
835,56	1234,93
835,73	1198,06
835,90	1372,14
836,07	1296,36
836,24	1214,45
836,41	1249,26
836,58	1310,70
836,75	1277,93
836,92	1247,21
837,09	1265,64
837,26	1230,83
837,43	1318,89
837,60	1294,32
837,77	1302,51
837,94	1243,12
838,12	1306,60
838,29	1320,94
838,46	1279,98
838,63	1234,93
838,80	1312,75
838,97	1296,36
839,14	1228,78
839,31	1255,40
839,48	1304,56
839,65	1232,88
839,82	1298,41
839,99	1255,40
840,16	1302,51
840,33	1269,74
840,50	1214,45
840,67	1286,12
840,84	1247,21
841,01	1308,65
841,18	1269,74
841,35	1298,41
841,52	1279,98
841,69	1230,83
841,86	1257,45
842,03	1302,51
842,20	1286,12
842,37	1179,63
842,54	1327,08
842,71	1318,89
842,88	1239,02
843,05	1271,79
843,22	1327,08
843,39	1253,36
843,56	1208,30
843,73	1300,46
843,90	1249,26
844,07	1265,64
844,24	1232,88
844,41	1208,30
844,58	1296,36
844,75	1173,49
844,92	1277,93
845,09	1271,79
845,26	1243,12
845,43	1310,70
845,60	1191,92
845,77	1253,36
845,94	1271,79
846,10	1286,12
846,27	1169,39
846,44	1245,16
846,61	1277,93
846,78	1251,31
846,95	1249,26
847,12	1230,83
847,29	1277,93
847,46	1279,98
847,63	1341,42
847,80	1228,78
847,97	1296,36
848,14	1228,78
848,31	1241,07
848,48	1294,32
848,65	1249,26
848,82	1239,02
848,98	1298,41
849,15	1308,65
849,32	1290,22
849,49	1294,32
849,66	1241,07
849,83	1290,22
850,00	1265,64
850,17	1241,07
850,34	1236,97
850,51	1300,46
850,68	1224,69
850,85	1245,16
851,01	1253,36
851,18	1255,40
851,35	1279,98
851,52	1247,21
851,69	1275,88
851,86	1226,73
852,03	1282,03
852,20	1253,36
852,37	1296,36
852,53	1312,75
852,70	1230,83
852,87	1175,53
853,04	1288,17
853,21	1239,02
853,38	1198,06
853,55	1245,16
853,72	1306,60
853,89	1247,21
854,05	1257,45
854,22	1171,44
854,39	1329,13
854,56	1239,02
854,73	1241,07
854,90	1284,08
855,07	1261,55
855,23	1163,25
855,40	1241,07
855,57	1251,31
855,74	1322,99
855,91	1273,84
856,08	1230,83
856,25	1247,21
856,41	1290,22
856,58	1282,03
856,75	1300,46
856,92	1171,44
857,09	1255,40
857,26	1239,02
857,42	1245,16
857,59	1208,30
857,76	1222,64
857,93	1339,37
858,10	1304,56
858,27	1193,97
858,43	1239,02
858,60	1271,79
858,77	1220,59
858,94	1304,56
859,11	1239,02
859,27	1241,07
859,44	1251,31
859,61	1265,64
859,78	1310,70
859,95	1300,46
860,12	1218,54
860,28	1261,55
860,45	1245,16
860,62	1159,15
860,79	1273,84
860,95	1275,88
861,12	1288,17
861,29	1279,98
861,46	1300,46
861,63	1222,64
861,79	1353,71
861,96	1302,51
862,13	1286,12
862,30	1378,28
862,47	1239,02
862,63	1230,83
862,80	1290,22
862,97	1255,40
863,14	1200,11
863,30	1216,49
863,47	1298,41
863,64	1226,73
863,81	1255,40
863,97	1343,47
864,14	1314,80
864,31	1267,69
864,48	1249,26
864,65	1325,04
864,81	1339,37
864,98	1257,45
865,15	1282,03
865,32	1331,18
865,48	1204,21
865,65	1306,60
865,82	1294,32
865,98	1288,17
866,15	1255,40
866,32	1286,12
866,49	1284,08
866,65	1210,35
866,82	1310,70
866,99	1212,40
867,16	1337,32
867,32	1288,17
867,49	1279,98
867,66	1269,74
867,83	1206,25
867,99	1210,35
868,16	1325,04
868,33	1257,45
868,49	1249,26
868,66	1255,40
868,83	1249,26
868,99	1275,88
869,16	1255,40
869,33	1327,08
869,50	1288,17
869,66	1251,31
869,83	1279,98
870,00	1269,74
870,16	1292,27
870,33	1257,45
870,50	1198,06
870,66	1226,73
870,83	1304,56
871,00	1177,58
871,17	1286,12
871,33	1273,84
871,50	1296,36
871,67	1220,59
871,83	1282,03
872,00	1314,80
872,17	1224,69
872,33	1228,78
872,50	1259,50
872,67	1277,93
872,83	1263,60
873,00	1282,03
873,17	1228,78
873,33	1286,12
873,50	1255,40
873,67	1206,25
873,83	1226,73
874,00	1277,93
874,16	1314,80
874,33	1308,65
874,50	1296,36
874,66	1239,02
874,83	1357,80
875,00	1200,11
875,16	1257,45
875,33	1294,32
875,50	1286,12
875,66	1322,99
875,83	1302,51
875,99	1198,06
876,16	1208,30
876,33	1253,36
876,49	1286,12
876,66	1249,26
876,83	1247,21
876,99	1214,45
877,16	1333,23
877,32	1212,40
877,49	1232,88
877,66	1286,12
877,82	1316,84
877,99	1239,02
878,15	1259,50
878,32	1175,53
878,49	1273,84
878,65	1210,35
878,82	1222,64
878,98	1292,27
879,15	1331,18
879,32	1290,22
879,48	1255,40
879,65	1173,49
879,81	1249,26
879,98	1249,26
880,15	1279,98
880,31	1269,74
880,48	1220,59
880,64	1279,98
880,81	1316,84
880,97	1236,97
881,14	1249,26
881,31	1300,46
881,47	1296,36
881,64	1175,53
881,80	1241,07
881,97	1239,02
882,13	1304,56
882,30	1198,06
882,47	1308,65
882,63	1312,75
882,80	1249,26
882,96	1222,64
883,13	1269,74
883,29	1253,36
883,46	1255,40
883,62	1226,73
883,79	1212,40
883,95	1259,50
884,12	1320,94
884,29	1261,55
884,45	1222,64
884,62	1288,17
884,78	1255,40
884,95	1230,83
885,11	1300,46
885,28	1282,03
885,44	1343,47
885,61	1257,45
885,77	1239,02
885,94	1249,26
886,10	1282,03
886,27	1259,50
886,43	1296,36
886,60	1253,36
886,76	1290,22
886,93	1298,41
887,09	1261,55
887,26	1263,60
887,42	1322,99
887,59	1286,12
887,75	1245,16
887,92	1292,27
888,08	1308,65
888,25	1275,88
888,41	1269,74
888,58	1249,26
888,74	1236,97
888,91	1245,16
>>>>>End Processed Spectral Data<<<<<
