SpectraSuite Data File
++++++++++++++++++++++++++++++++++++
Date: Sun Apr 03 19:55:18 CEST 2016
User: root
Dark Spectrum Present: No
Reference Spectrum Present: No
Number of Sampled Component Spectra: 1
Spectrometers: USB4C02835
Integration Time (usec): 10000 (USB4C02835)
Spectra Averaged: 1 (USB4C02835)
Boxcar Smoothing: 0 (USB4C02835)
Correct for Electrical Dark: No (USB4C02835)
Strobe/Lamp Enabled: No (USB4C02835)
Correct for Detector Non-linearity: No (USB4C02835)
Correct for Stray Light: No (USB4C02835)
Number of Pixels in Processed Spectrum: 3648
>>>>>Begin Processed Spectral Data<<<<<
177,47	1198,06
177,69	1198,06
177,91	1198,06
178,13	1251,31
178,36	1249,26
178,58	1224,69
178,80	1216,49
179,02	1269,74
179,24	1214,45
179,46	1286,12
179,68	1179,63
179,90	1314,80
180,13	1208,30
180,35	1202,16
180,57	1239,02
180,79	1265,64
181,01	1206,25
181,23	1218,54
181,45	1333,23
181,67	1239,02
181,90	1234,93
182,12	1265,64
182,34	1243,12
182,56	1308,65
182,78	1288,17
183,00	1247,21
183,22	1245,16
183,44	1243,12
183,66	1292,27
183,89	1216,49
184,11	1255,40
184,33	1243,12
184,55	1284,08
184,77	1306,60
184,99	1290,22
185,21	1251,31
185,43	1292,27
185,65	1222,64
185,87	1318,89
186,10	1269,74
186,32	1271,79
186,54	1284,08
186,76	1349,61
186,98	1288,17
187,20	1273,84
187,42	1224,69
187,64	1259,50
187,86	1247,21
188,08	1320,94
188,30	1267,69
188,52	1228,78
188,75	1239,02
188,97	1294,32
189,19	1265,64
189,41	1206,25
189,63	1206,25
189,85	1241,07
190,07	1257,45
190,29	1347,56
190,51	1249,26
190,73	1232,88
190,95	1255,40
191,17	1263,60
191,39	1302,51
191,61	1318,89
191,84	1308,65
192,06	1300,46
192,28	1257,45
192,50	1304,56
192,72	1236,97
192,94	1306,60
193,16	1279,98
193,38	1282,03
193,60	1239,02
193,82	1249,26
194,04	1259,50
194,26	1243,12
194,48	1224,69
194,70	1347,56
194,92	1251,31
195,14	1261,55
195,36	1193,97
195,58	1241,07
195,80	1247,21
196,02	1318,89
196,24	1245,16
196,46	1263,60
196,69	1175,53
196,91	1267,69
197,13	1347,56
197,35	1208,30
197,57	1288,17
197,79	1320,94
198,01	1200,11
198,23	1339,37
198,45	1249,26
198,67	1232,88
198,89	1263,60
199,11	1234,93
199,33	1196,01
199,55	1290,22
199,77	1273,84
199,99	1347,56
200,21	1255,40
200,43	1257,45
200,65	1202,16
200,87	1193,97
201,09	1224,69
201,31	1279,98
201,53	1290,22
201,75	1241,07
201,97	1236,97
202,19	1236,97
202,41	1279,98
202,63	1275,88
202,85	1290,22
203,07	1265,64
203,29	1282,03
203,51	1232,88
203,73	1232,88
203,95	1329,13
204,17	1261,55
204,39	1241,07
204,61	1312,75
204,83	1279,98
205,05	1284,08
205,27	1339,37
205,49	1325,04
205,71	1239,02
205,93	1290,22
206,15	1275,88
206,37	1292,27
206,59	1304,56
206,81	1288,17
207,03	1232,88
207,25	1271,79
207,47	1267,69
207,69	1249,26
207,91	1218,54
208,13	1335,28
208,34	1304,56
208,56	1288,17
208,78	1312,75
209,00	1292,27
209,22	1257,45
209,44	1265,64
209,66	1230,83
209,88	1255,40
210,10	1253,36
210,32	1273,84
210,54	1325,04
210,76	1269,74
210,98	1370,09
211,20	1249,26
211,42	1232,88
211,64	1181,68
211,86	1273,84
212,08	1290,22
212,30	1284,08
212,52	1234,93
212,74	1239,02
212,96	1224,69
213,17	1275,88
213,39	1277,93
213,61	1273,84
213,83	1341,42
214,05	1263,60
214,27	1230,83
214,49	1290,22
214,71	1228,78
214,93	1296,36
215,15	1306,60
215,37	1222,64
215,59	1261,55
215,81	1228,78
216,03	1302,51
216,24	1284,08
216,46	1224,69
216,68	1259,50
216,90	1275,88
217,12	1224,69
217,34	1275,88
217,56	1247,21
217,78	1310,70
218,00	1265,64
218,22	1239,02
218,44	1261,55
218,66	1228,78
218,87	1198,06
219,09	1259,50
219,31	1273,84
219,53	1320,94
219,75	1269,74
219,97	1206,25
220,19	1279,98
220,41	1210,35
220,63	1335,28
220,85	1245,16
221,06	1282,03
221,28	1249,26
221,50	1282,03
221,72	1333,23
221,94	1308,65
222,16	1247,21
222,38	1234,93
222,60	1277,93
222,82	1212,40
223,03	1263,60
223,25	1294,32
223,47	1279,98
223,69	1210,35
223,91	1245,16
224,13	1167,34
224,35	1261,55
224,57	1288,17
224,78	1224,69
225,00	1388,52
225,22	1363,95
225,44	1320,94
225,66	1267,69
225,88	1251,31
226,10	1196,01
226,32	1314,80
226,53	1234,93
226,75	1259,50
226,97	1273,84
227,19	1214,45
227,41	1241,07
227,63	1222,64
227,85	1234,93
228,06	1294,32
228,28	1273,84
228,50	1335,28
228,72	1255,40
228,94	1279,98
229,16	1263,60
229,37	1245,16
229,59	1245,16
229,81	1226,73
230,03	1236,97
230,25	1275,88
230,47	1220,59
230,69	1255,40
230,90	1265,64
231,12	1236,97
231,34	1249,26
231,56	1263,60
231,78	1200,11
232,00	1273,84
232,21	1279,98
232,43	1230,83
232,65	1249,26
232,87	1279,98
233,09	1302,51
233,30	1239,02
233,52	1292,27
233,74	1228,78
233,96	1304,56
234,18	1249,26
234,40	1292,27
234,61	1286,12
234,83	1292,27
235,05	1232,88
235,27	1384,43
235,49	1265,64
235,70	1263,60
235,92	1282,03
236,14	1257,45
236,36	1335,28
236,58	1210,35
236,79	1273,84
237,01	1269,74
237,23	1259,50
237,45	1212,40
237,67	1314,80
237,88	1290,22
238,10	1232,88
238,32	1279,98
238,54	1214,45
238,76	1292,27
238,97	1312,75
239,19	1253,36
239,41	1257,45
239,63	1226,73
239,85	1220,59
240,06	1290,22
240,28	1251,31
240,50	1204,21
240,72	1232,88
240,93	1247,21
241,15	1265,64
241,37	1314,80
241,59	1234,93
241,81	1267,69
242,02	1271,79
242,24	1282,03
242,46	1366,00
242,68	1261,55
242,89	1310,70
243,11	1193,97
243,33	1267,69
243,55	1312,75
243,76	1279,98
243,98	1236,97
244,20	1279,98
244,42	1257,45
244,64	1286,12
244,85	1296,36
245,07	1282,03
245,29	1284,08
245,51	1251,31
245,72	1277,93
245,94	1175,53
246,16	1277,93
246,38	1304,56
246,59	1255,40
246,81	1298,41
247,03	1257,45
247,24	1241,07
247,46	1325,04
247,68	1288,17
247,90	1275,88
248,11	1306,60
248,33	1282,03
248,55	1200,11
248,77	1273,84
248,98	1230,83
249,20	1277,93
249,42	1296,36
249,64	1255,40
249,85	1257,45
250,07	1234,93
250,29	1279,98
250,50	1302,51
250,72	1198,06
250,94	1296,36
251,16	1273,84
251,37	1306,60
251,59	1206,25
251,81	1282,03
252,02	1255,40
252,24	1232,88
252,46	1269,74
252,68	1245,16
252,89	1243,12
253,11	1320,94
253,33	1261,55
253,54	1265,64
253,76	1351,66
253,98	1261,55
254,20	1284,08
254,41	1273,84
254,63	1259,50
254,85	1312,75
255,06	1370,09
255,28	1288,17
255,50	1226,73
255,71	1265,64
255,93	1327,08
256,15	1257,45
256,36	1257,45
256,58	1269,74
256,80	1193,97
257,02	1243,12
257,23	1261,55
257,45	1253,36
257,67	1343,47
257,88	1245,16
258,10	1263,60
258,32	1284,08
258,53	1294,32
258,75	1294,32
258,97	1298,41
259,18	1335,28
259,40	1339,37
259,62	1286,12
259,83	1279,98
260,05	1228,78
260,27	1275,88
260,48	1284,08
260,70	1224,69
260,92	1247,21
261,13	1302,51
261,35	1230,83
261,57	1212,40
261,78	1282,03
262,00	1136,62
262,22	1241,07
262,43	1267,69
262,65	1234,93
262,86	1212,40
263,08	1296,36
263,30	1193,97
263,51	1206,25
263,73	1245,16
263,95	1204,21
264,16	1212,40
264,38	1216,49
264,60	1226,73
264,81	1206,25
265,03	1214,45
265,25	1318,89
265,46	1261,55
265,68	1247,21
265,89	1253,36
266,11	1220,59
266,33	1302,51
266,54	1282,03
266,76	1279,98
266,98	1316,84
267,19	1249,26
267,41	1245,16
267,62	1271,79
267,84	1331,18
268,06	1320,94
268,27	1232,88
268,49	1228,78
268,70	1261,55
268,92	1216,49
269,14	1200,11
269,35	1275,88
269,57	1296,36
269,79	1236,97
270,00	1212,40
270,22	1204,21
270,43	1292,27
270,65	1247,21
270,87	1228,78
271,08	1294,32
271,30	1210,35
271,51	1247,21
271,73	1363,95
271,95	1294,32
272,16	1261,55
272,38	1296,36
272,59	1329,13
272,81	1337,32
273,02	1212,40
273,24	1306,60
273,46	1282,03
273,67	1249,26
273,89	1306,60
274,10	1284,08
274,32	1306,60
274,54	1345,52
274,75	1265,64
274,97	1294,32
275,18	1286,12
275,40	1294,32
275,61	1343,47
275,83	1265,64
276,05	1236,97
276,26	1249,26
276,48	1241,07
276,69	1275,88
276,91	1253,36
277,12	1327,08
277,34	1220,59
277,55	1247,21
277,77	1255,40
277,99	1275,88
278,20	1361,90
278,42	1265,64
278,63	1224,69
278,85	1339,37
279,06	1228,78
279,28	1185,77
279,49	1245,16
279,71	1261,55
279,93	1269,74
280,14	1279,98
280,36	1193,97
280,57	1325,04
280,79	1290,22
281,00	1300,46
281,22	1196,01
281,43	1265,64
281,65	1187,82
281,86	1236,97
282,08	1241,07
282,29	1228,78
282,51	1300,46
282,73	1273,84
282,94	1257,45
283,16	1288,17
283,37	1251,31
283,59	1222,64
283,80	1257,45
284,02	1245,16
284,23	1298,41
284,45	1243,12
284,66	1247,21
284,88	1294,32
285,09	1294,32
285,31	1282,03
285,52	1216,49
285,74	1302,51
285,95	1257,45
286,17	1308,65
286,38	1275,88
286,60	1198,06
286,81	1320,94
287,03	1251,31
287,24	1308,65
287,46	1249,26
287,67	1234,93
287,89	1275,88
288,10	1343,47
288,32	1255,40
288,53	1296,36
288,75	1265,64
288,96	1236,97
289,18	1341,42
289,39	1292,27
289,61	1257,45
289,82	1343,47
290,04	1284,08
290,25	1198,06
290,47	1298,41
290,68	1320,94
290,90	1306,60
291,11	1265,64
291,33	1251,31
291,54	1247,21
291,76	1249,26
291,97	1353,71
292,18	1216,49
292,40	1210,35
292,61	1318,89
292,83	1263,60
293,04	1253,36
293,26	1288,17
293,47	1257,45
293,69	1282,03
293,90	1288,17
294,12	1343,47
294,33	1347,56
294,55	1333,23
294,76	1253,36
294,97	1243,12
295,19	1265,64
295,40	1216,49
295,62	1255,40
295,83	1265,64
296,05	1216,49
296,26	1257,45
296,48	1282,03
296,69	1228,78
296,90	1290,22
297,12	1265,64
297,33	1294,32
297,55	1241,07
297,76	1282,03
297,98	1312,75
298,19	1284,08
298,41	1284,08
298,62	1304,56
298,83	1282,03
299,05	1308,65
299,26	1214,45
299,48	1257,45
299,69	1212,40
299,90	1259,50
300,12	1298,41
300,33	1333,23
300,55	1333,23
300,76	1312,75
300,98	1284,08
301,19	1282,03
301,40	1261,55
301,62	1241,07
301,83	1210,35
302,05	1249,26
302,26	1208,30
302,47	1271,79
302,69	1296,36
302,90	1261,55
303,12	1228,78
303,33	1314,80
303,54	1255,40
303,76	1241,07
303,97	1247,21
304,19	1232,88
304,40	1298,41
304,61	1292,27
304,83	1302,51
305,04	1245,16
305,26	1269,74
305,47	1286,12
305,68	1236,97
305,90	1294,32
306,11	1214,45
306,33	1216,49
306,54	1228,78
306,75	1306,60
306,97	1261,55
307,18	1206,25
307,39	1234,93
307,61	1290,22
307,82	1247,21
308,04	1325,04
308,25	1255,40
308,46	1312,75
308,68	1277,93
308,89	1271,79
309,10	1343,47
309,32	1304,56
309,53	1251,31
309,74	1232,88
309,96	1286,12
310,17	1294,32
310,39	1257,45
310,60	1282,03
310,81	1204,21
311,03	1355,76
311,24	1239,02
311,45	1218,54
311,67	1282,03
311,88	1251,31
312,09	1282,03
312,31	1241,07
312,52	1255,40
312,73	1189,87
312,95	1282,03
313,16	1290,22
313,37	1320,94
313,59	1310,70
313,80	1271,79
314,01	1359,85
314,23	1208,30
314,44	1290,22
314,65	1200,11
314,87	1255,40
315,08	1302,51
315,29	1249,26
315,51	1310,70
315,72	1232,88
315,93	1263,60
316,15	1224,69
316,36	1189,87
316,57	1198,06
316,79	1265,64
317,00	1302,51
317,21	1296,36
317,43	1259,50
317,64	1236,97
317,85	1318,89
318,07	1273,84
318,28	1251,31
318,49	1247,21
318,70	1146,86
318,92	1296,36
319,13	1337,32
319,34	1257,45
319,56	1265,64
319,77	1257,45
319,98	1286,12
320,20	1271,79
320,41	1265,64
320,62	1288,17
320,83	1251,31
321,05	1275,88
321,26	1220,59
321,47	1232,88
321,69	1335,28
321,90	1241,07
322,11	1257,45
322,32	1243,12
322,54	1294,32
322,75	1249,26
322,96	1290,22
323,18	1284,08
323,39	1265,64
323,60	1316,84
323,81	1269,74
324,03	1241,07
324,24	1249,26
324,45	1275,88
324,66	1345,52
324,88	1286,12
325,09	1214,45
325,30	1279,98
325,52	1279,98
325,73	1277,93
325,94	1306,60
326,15	1232,88
326,37	1236,97
326,58	1267,69
326,79	1294,32
327,00	1234,93
327,22	1148,91
327,43	1232,88
327,64	1243,12
327,85	1320,94
328,07	1290,22
328,28	1302,51
328,49	1353,71
328,70	1214,45
328,92	1239,02
329,13	1318,89
329,34	1261,55
329,55	1243,12
329,76	1265,64
329,98	1269,74
330,19	1253,36
330,40	1255,40
330,61	1261,55
330,83	1257,45
331,04	1288,17
331,25	1167,34
331,46	1310,70
331,68	1300,46
331,89	1310,70
332,10	1243,12
332,31	1316,84
332,52	1212,40
332,74	1247,21
332,95	1366,00
333,16	1284,08
333,37	1304,56
333,58	1271,79
333,80	1290,22
334,01	1214,45
334,22	1318,89
334,43	1279,98
334,64	1284,08
334,86	1265,64
335,07	1239,02
335,28	1253,36
335,49	1239,02
335,70	1339,37
335,92	1257,45
336,13	1314,80
336,34	1259,50
336,55	1255,40
336,76	1247,21
336,98	1234,93
337,19	1306,60
337,40	1234,93
337,61	1249,26
337,82	1214,45
338,04	1306,60
338,25	1273,84
338,46	1273,84
338,67	1298,41
338,88	1282,03
339,09	1265,64
339,31	1261,55
339,52	1198,06
339,73	1318,89
339,94	1234,93
340,15	1294,32
340,36	1253,36
340,58	1267,69
340,79	1269,74
341,00	1243,12
341,21	1271,79
341,42	1265,64
341,63	1273,84
341,85	1331,18
342,06	1236,97
342,27	1271,79
342,48	1265,64
342,69	1310,70
342,90	1304,56
343,12	1282,03
343,33	1216,49
343,54	1214,45
343,75	1308,65
343,96	1216,49
344,17	1310,70
344,38	1265,64
344,60	1253,36
344,81	1282,03
345,02	1198,06
345,23	1273,84
345,44	1279,98
345,65	1302,51
345,86	1339,37
346,07	1216,49
346,29	1279,98
346,50	1251,31
346,71	1308,65
346,92	1212,40
347,13	1263,60
347,34	1304,56
347,55	1290,22
347,76	1228,78
347,98	1249,26
348,19	1269,74
348,40	1296,36
348,61	1196,01
348,82	1316,84
349,03	1230,83
349,24	1236,97
349,45	1320,94
349,66	1318,89
349,88	1292,27
350,09	1282,03
350,30	1279,98
350,51	1271,79
350,72	1269,74
350,93	1257,45
351,14	1273,84
351,35	1271,79
351,56	1232,88
351,77	1322,99
351,99	1271,79
352,20	1263,60
352,41	1208,30
352,62	1310,70
352,83	1308,65
353,04	1259,50
353,25	1224,69
353,46	1257,45
353,67	1339,37
353,88	1288,17
354,09	1275,88
354,30	1247,21
354,52	1226,73
354,73	1337,32
354,94	1257,45
355,15	1380,33
355,36	1306,60
355,57	1257,45
355,78	1263,60
355,99	1232,88
356,20	1255,40
356,41	1249,26
356,62	1290,22
356,83	1243,12
357,04	1216,49
357,25	1265,64
357,46	1183,73
357,68	1300,46
357,89	1312,75
358,10	1318,89
358,31	1157,10
358,52	1275,88
358,73	1294,32
358,94	1265,64
359,15	1245,16
359,36	1335,28
359,57	1298,41
359,78	1312,75
359,99	1247,21
360,20	1306,60
360,41	1261,55
360,62	1234,93
360,83	1255,40
361,04	1271,79
361,25	1306,60
361,46	1359,85
361,67	1277,93
361,88	1273,84
362,09	1253,36
362,30	1247,21
362,51	1269,74
362,72	1320,94
362,93	1263,60
363,14	1241,07
363,35	1216,49
363,56	1273,84
363,78	1300,46
363,99	1247,21
364,20	1224,69
364,41	1241,07
364,62	1216,49
364,83	1228,78
365,04	1298,41
365,25	1279,98
365,46	1282,03
365,67	1263,60
365,88	1249,26
366,09	1210,35
366,30	1300,46
366,51	1222,64
366,72	1314,80
366,93	1286,12
367,14	1320,94
367,35	1290,22
367,56	1253,36
367,77	1257,45
367,98	1271,79
368,18	1257,45
368,39	1312,75
368,60	1271,79
368,81	1239,02
369,02	1267,69
369,23	1286,12
369,44	1277,93
369,65	1259,50
369,86	1284,08
370,07	1290,22
370,28	1255,40
370,49	1255,40
370,70	1296,36
370,91	1236,97
371,12	1239,02
371,33	1277,93
371,54	1265,64
371,75	1277,93
371,96	1251,31
372,17	1286,12
372,38	1253,36
372,59	1224,69
372,80	1216,49
373,01	1257,45
373,22	1249,26
373,43	1271,79
373,64	1290,22
373,85	1286,12
374,06	1212,40
374,26	1320,94
374,47	1345,52
374,68	1245,16
374,89	1306,60
375,10	1296,36
375,31	1279,98
375,52	1314,80
375,73	1306,60
375,94	1247,21
376,15	1302,51
376,36	1261,55
376,57	1288,17
376,78	1296,36
376,99	1255,40
377,20	1245,16
377,40	1290,22
377,61	1177,58
377,82	1337,32
378,03	1312,75
378,24	1304,56
378,45	1312,75
378,66	1308,65
378,87	1167,34
379,08	1286,12
379,29	1247,21
379,50	1191,92
379,71	1286,12
379,91	1279,98
380,12	1257,45
380,33	1243,12
380,54	1327,08
380,75	1259,50
380,96	1273,84
381,17	1320,94
381,38	1298,41
381,59	1222,64
381,80	1261,55
382,00	1341,42
382,21	1288,17
382,42	1202,16
382,63	1282,03
382,84	1275,88
383,05	1290,22
383,26	1292,27
383,47	1306,60
383,68	1230,83
383,88	1355,76
384,09	1265,64
384,30	1327,08
384,51	1232,88
384,72	1247,21
384,93	1202,16
385,14	1243,12
385,35	1286,12
385,55	1277,93
385,76	1298,41
385,97	1273,84
386,18	1306,60
386,39	1253,36
386,60	1271,79
386,81	1302,51
387,02	1181,68
387,22	1196,01
387,43	1255,40
387,64	1286,12
387,85	1265,64
388,06	1277,93
388,27	1290,22
388,48	1200,11
388,68	1314,80
388,89	1306,60
389,10	1277,93
389,31	1335,28
389,52	1282,03
389,73	1296,36
389,93	1388,52
390,14	1253,36
390,35	1230,83
390,56	1282,03
390,77	1208,30
390,98	1241,07
391,18	1247,21
391,39	1275,88
391,60	1175,53
391,81	1200,11
392,02	1239,02
392,23	1241,07
392,43	1322,99
392,64	1316,84
392,85	1292,27
393,06	1267,69
393,27	1249,26
393,47	1232,88
393,68	1288,17
393,89	1376,24
394,10	1286,12
394,31	1282,03
394,52	1230,83
394,72	1306,60
394,93	1220,59
395,14	1298,41
395,35	1230,83
395,56	1222,64
395,76	1374,19
395,97	1263,60
396,18	1249,26
396,39	1288,17
396,60	1265,64
396,80	1331,18
397,01	1273,84
397,22	1259,50
397,43	1306,60
397,64	1198,06
397,84	1277,93
398,05	1302,51
398,26	1306,60
398,47	1204,21
398,67	1273,84
398,88	1255,40
399,09	1300,46
399,30	1255,40
399,51	1335,28
399,71	1337,32
399,92	1273,84
400,13	1220,59
400,34	1296,36
400,54	1267,69
400,75	1286,12
400,96	1261,55
401,17	1288,17
401,37	1314,80
401,58	1271,79
401,79	1232,88
402,00	1279,98
402,21	1222,64
402,41	1359,85
402,62	1294,32
402,83	1318,89
403,04	1193,97
403,24	1325,04
403,45	1243,12
403,66	1277,93
403,87	1308,65
404,07	1236,97
404,28	1208,30
404,49	1275,88
404,70	1290,22
404,90	1298,41
405,11	1282,03
405,32	1226,73
405,52	1269,74
405,73	1271,79
405,94	1279,98
406,15	1265,64
406,35	1226,73
406,56	1286,12
406,77	1263,60
406,98	1271,79
407,18	1294,32
407,39	1320,94
407,60	1314,80
407,80	1263,60
408,01	1308,65
408,22	1306,60
408,43	1279,98
408,63	1241,07
408,84	1206,25
409,05	1368,04
409,25	1261,55
409,46	1302,51
409,67	1214,45
409,88	1222,64
410,08	1228,78
410,29	1271,79
410,50	1261,55
410,70	1331,18
410,91	1212,40
411,12	1196,01
411,32	1320,94
411,53	1343,47
411,74	1193,97
411,95	1284,08
412,15	1263,60
412,36	1251,31
412,57	1251,31
412,77	1304,56
412,98	1208,30
413,19	1269,74
413,39	1249,26
413,60	1372,14
413,81	1265,64
414,01	1224,69
414,22	1239,02
414,43	1243,12
414,63	1216,49
414,84	1232,88
415,05	1206,25
415,25	1239,02
415,46	1290,22
415,67	1306,60
415,87	1282,03
416,08	1200,11
416,29	1239,02
416,49	1298,41
416,70	1279,98
416,91	1210,35
417,11	1269,74
417,32	1251,31
417,53	1257,45
417,73	1282,03
417,94	1288,17
418,15	1200,11
418,35	1273,84
418,56	1265,64
418,77	1271,79
418,97	1290,22
419,18	1304,56
419,38	1290,22
419,59	1275,88
419,80	1359,85
420,00	1298,41
420,21	1294,32
420,42	1290,22
420,62	1257,45
420,83	1263,60
421,04	1292,27
421,24	1277,93
421,45	1247,21
421,65	1228,78
421,86	1267,69
422,07	1263,60
422,27	1265,64
422,48	1273,84
422,69	1241,07
422,89	1226,73
423,10	1249,26
423,30	1265,64
423,51	1325,04
423,72	1249,26
423,92	1292,27
424,13	1277,93
424,33	1284,08
424,54	1208,30
424,75	1288,17
424,95	1331,18
425,16	1312,75
425,36	1288,17
425,57	1249,26
425,78	1327,08
425,98	1200,11
426,19	1312,75
426,39	1255,40
426,60	1318,89
426,81	1359,85
427,01	1249,26
427,22	1263,60
427,42	1279,98
427,63	1345,52
427,83	1284,08
428,04	1275,88
428,25	1212,40
428,45	1273,84
428,66	1245,16
428,86	1327,08
429,07	1294,32
429,28	1175,53
429,48	1298,41
429,69	1247,21
429,89	1271,79
430,10	1273,84
430,30	1310,70
430,51	1255,40
430,71	1288,17
430,92	1284,08
431,13	1249,26
431,33	1249,26
431,54	1275,88
431,74	1216,49
431,95	1290,22
432,15	1247,21
432,36	1259,50
432,56	1318,89
432,77	1335,28
432,98	1200,11
433,18	1339,37
433,39	1171,44
433,59	1232,88
433,80	1329,13
434,00	1208,30
434,21	1187,82
434,41	1247,21
434,62	1198,06
434,82	1214,45
435,03	1310,70
435,23	1310,70
435,44	1267,69
435,64	1206,25
435,85	1304,56
436,06	1279,98
436,26	1288,17
436,47	1290,22
436,67	1318,89
436,88	1241,07
437,08	1275,88
437,29	1298,41
437,49	1249,26
437,70	1275,88
437,90	1290,22
438,11	1306,60
438,31	1325,04
438,52	1312,75
438,72	1269,74
438,93	1232,88
439,13	1249,26
439,34	1245,16
439,54	1284,08
439,75	1191,92
439,95	1263,60
440,16	1265,64
440,36	1265,64
440,57	1273,84
440,77	1282,03
440,98	1304,56
441,18	1191,92
441,39	1347,56
441,59	1308,65
441,80	1277,93
442,00	1218,54
442,21	1251,31
442,41	1218,54
442,62	1267,69
442,82	1282,03
443,02	1230,83
443,23	1279,98
443,43	1288,17
443,64	1279,98
443,84	1193,97
444,05	1232,88
444,25	1298,41
444,46	1296,36
444,66	1259,50
444,87	1286,12
445,07	1277,93
445,28	1228,78
445,48	1312,75
445,69	1298,41
445,89	1331,18
446,09	1316,84
446,30	1259,50
446,50	1296,36
446,71	1300,46
446,91	1241,07
447,12	1206,25
447,32	1312,75
447,53	1284,08
447,73	1226,73
447,93	1277,93
448,14	1290,22
448,34	1234,93
448,55	1224,69
448,75	1294,32
448,96	1300,46
449,16	1335,28
449,36	1236,97
449,57	1251,31
449,77	1241,07
449,98	1312,75
450,18	1322,99
450,39	1196,01
450,59	1222,64
450,79	1343,47
451,00	1310,70
451,20	1273,84
451,41	1241,07
451,61	1279,98
451,81	1306,60
452,02	1259,50
452,22	1279,98
452,43	1279,98
452,63	1347,56
452,84	1292,27
453,04	1279,98
453,24	1226,73
453,45	1282,03
453,65	1175,53
453,86	1247,21
454,06	1294,32
454,26	1296,36
454,47	1277,93
454,67	1335,28
454,87	1296,36
455,08	1284,08
455,28	1265,64
455,49	1288,17
455,69	1267,69
455,89	1253,36
456,10	1255,40
456,30	1329,13
456,51	1232,88
456,71	1288,17
456,91	1308,65
457,12	1312,75
457,32	1282,03
457,52	1249,26
457,73	1296,36
457,93	1284,08
458,14	1208,30
458,34	1282,03
458,54	1282,03
458,75	1253,36
458,95	1259,50
459,15	1277,93
459,36	1304,56
459,56	1220,59
459,76	1320,94
459,97	1286,12
460,17	1290,22
460,37	1279,98
460,58	1249,26
460,78	1316,84
460,99	1218,54
461,19	1191,92
461,39	1310,70
461,60	1290,22
461,80	1288,17
462,00	1298,41
462,21	1322,99
462,41	1255,40
462,61	1302,51
462,82	1241,07
463,02	1294,32
463,22	1292,27
463,43	1314,80
463,63	1255,40
463,83	1206,25
464,04	1249,26
464,24	1302,51
464,44	1322,99
464,64	1220,59
464,85	1259,50
465,05	1308,65
465,25	1300,46
465,46	1294,32
465,66	1275,88
465,86	1234,93
466,07	1282,03
466,27	1263,60
466,47	1185,77
466,68	1282,03
466,88	1265,64
467,08	1232,88
467,29	1282,03
467,49	1224,69
467,69	1275,88
467,89	1249,26
468,10	1318,89
468,30	1271,79
468,50	1314,80
468,71	1349,61
468,91	1247,21
469,11	1228,78
469,31	1257,45
469,52	1202,16
469,72	1378,28
469,92	1279,98
470,13	1288,17
470,33	1249,26
470,53	1372,14
470,73	1255,40
470,94	1247,21
471,14	1228,78
471,34	1253,36
471,54	1234,93
471,75	1257,45
471,95	1316,84
472,15	1288,17
472,36	1363,95
472,56	1249,26
472,76	1279,98
472,96	1255,40
473,17	1288,17
473,37	1271,79
473,57	1267,69
473,77	1271,79
473,98	1261,55
474,18	1220,59
474,38	1282,03
474,58	1339,37
474,79	1251,31
474,99	1298,41
475,19	1249,26
475,39	1304,56
475,60	1171,44
475,80	1349,61
476,00	1292,27
476,20	1253,36
476,41	1232,88
476,61	1306,60
476,81	1298,41
477,01	1337,32
477,21	1349,61
477,42	1316,84
477,62	1261,55
477,82	1298,41
478,02	1335,28
478,23	1366,00
478,43	1259,50
478,63	1277,93
478,83	1249,26
479,03	1298,41
479,24	1304,56
479,44	1306,60
479,64	1228,78
479,84	1212,40
480,04	1210,35
480,25	1314,80
480,45	1191,92
480,65	1275,88
480,85	1210,35
481,06	1255,40
481,26	1286,12
481,46	1251,31
481,66	1263,60
481,86	1214,45
482,06	1308,65
482,27	1277,93
482,47	1337,32
482,67	1325,04
482,87	1314,80
483,07	1232,88
483,28	1351,66
483,48	1206,25
483,68	1271,79
483,88	1208,30
484,08	1253,36
484,29	1198,06
484,49	1216,49
484,69	1255,40
484,89	1300,46
485,09	1322,99
485,29	1275,88
485,50	1306,60
485,70	1304,56
485,90	1322,99
486,10	1318,89
486,30	1273,84
486,50	1261,55
486,71	1273,84
486,91	1296,36
487,11	1304,56
487,31	1210,35
487,51	1288,17
487,71	1269,74
487,91	1304,56
488,12	1269,74
488,32	1269,74
488,52	1263,60
488,72	1247,21
488,92	1294,32
489,12	1320,94
489,32	1282,03
489,53	1284,08
489,73	1247,21
489,93	1288,17
490,13	1249,26
490,33	1288,17
490,53	1253,36
490,73	1286,12
490,94	1292,27
491,14	1298,41
491,34	1228,78
491,54	1271,79
491,74	1259,50
491,94	1269,74
492,14	1249,26
492,34	1302,51
492,54	1265,64
492,75	1288,17
492,95	1271,79
493,15	1269,74
493,35	1333,23
493,55	1243,12
493,75	1247,21
493,95	1255,40
494,15	1212,40
494,35	1282,03
494,56	1318,89
494,76	1243,12
494,96	1290,22
495,16	1353,71
495,36	1267,69
495,56	1232,88
495,76	1277,93
495,96	1228,78
496,16	1279,98
496,36	1298,41
496,56	1253,36
496,77	1308,65
496,97	1202,16
497,17	1267,69
497,37	1243,12
497,57	1226,73
497,77	1308,65
497,97	1222,64
498,17	1279,98
498,37	1304,56
498,57	1236,97
498,77	1265,64
498,97	1265,64
499,17	1243,12
499,38	1216,49
499,58	1322,99
499,78	1288,17
499,98	1298,41
500,18	1273,84
500,38	1316,84
500,58	1275,88
500,78	1236,97
500,98	1247,21
501,18	1265,64
501,38	1243,12
501,58	1347,56
501,78	1206,25
501,98	1337,32
502,18	1222,64
502,38	1327,08
502,58	1314,80
502,78	1296,36
502,98	1253,36
503,18	1316,84
503,38	1261,55
503,59	1292,27
503,79	1329,13
503,99	1273,84
504,19	1290,22
504,39	1308,65
504,59	1243,12
504,79	1265,64
504,99	1224,69
505,19	1290,22
505,39	1267,69
505,59	1310,70
505,79	1230,83
505,99	1267,69
506,19	1290,22
506,39	1241,07
506,59	1232,88
506,79	1247,21
506,99	1286,12
507,19	1271,79
507,39	1366,00
507,59	1277,93
507,79	1263,60
507,99	1380,33
508,19	1310,70
508,39	1241,07
508,59	1277,93
508,79	1357,80
508,99	1288,17
509,19	1292,27
509,39	1310,70
509,59	1300,46
509,79	1341,42
509,99	1351,66
510,19	1210,35
510,39	1206,25
510,59	1275,88
510,79	1230,83
510,99	1259,50
511,19	1322,99
511,39	1288,17
511,59	1320,94
511,79	1263,60
511,99	1234,93
512,19	1308,65
512,38	1312,75
512,58	1234,93
512,78	1253,36
512,98	1267,69
513,18	1249,26
513,38	1277,93
513,58	1265,64
513,78	1212,40
513,98	1288,17
514,18	1261,55
514,38	1277,93
514,58	1167,34
514,78	1337,32
514,98	1183,73
515,18	1273,84
515,38	1257,45
515,58	1298,41
515,78	1253,36
515,98	1282,03
516,18	1282,03
516,38	1312,75
516,57	1290,22
516,77	1247,21
516,97	1286,12
517,17	1284,08
517,37	1273,84
517,57	1329,13
517,77	1316,84
517,97	1218,54
518,17	1226,73
518,37	1290,22
518,57	1282,03
518,77	1298,41
518,97	1292,27
519,16	1384,43
519,36	1249,26
519,56	1222,64
519,76	1294,32
519,96	1267,69
520,16	1308,65
520,36	1304,56
520,56	1331,18
520,76	1306,60
520,96	1216,49
521,16	1329,13
521,35	1333,23
521,55	1279,98
521,75	1255,40
521,95	1239,02
522,15	1226,73
522,35	1331,18
522,55	1308,65
522,75	1257,45
522,95	1359,85
523,14	1257,45
523,34	1308,65
523,54	1327,08
523,74	1241,07
523,94	1298,41
524,14	1191,92
524,34	1298,41
524,54	1236,97
524,73	1353,71
524,93	1282,03
525,13	1296,36
525,33	1298,41
525,53	1376,24
525,73	1312,75
525,93	1302,51
526,13	1239,02
526,32	1232,88
526,52	1294,32
526,72	1349,61
526,92	1202,16
527,12	1222,64
527,32	1269,74
527,52	1327,08
527,71	1243,12
527,91	1275,88
528,11	1316,84
528,31	1247,21
528,51	1267,69
528,71	1265,64
528,90	1300,46
529,10	1284,08
529,30	1298,41
529,50	1251,31
529,70	1236,97
529,90	1327,08
530,09	1298,41
530,29	1279,98
530,49	1322,99
530,69	1271,79
530,89	1300,46
531,09	1222,64
531,28	1247,21
531,48	1329,13
531,68	1314,80
531,88	1308,65
532,08	1245,16
532,28	1261,55
532,47	1298,41
532,67	1253,36
532,87	1322,99
533,07	1269,74
533,27	1306,60
533,46	1312,75
533,66	1171,44
533,86	1314,80
534,06	1347,56
534,26	1388,52
534,45	1271,79
534,65	1351,66
534,85	1286,12
535,05	1241,07
535,25	1363,95
535,44	1259,50
535,64	1316,84
535,84	1351,66
536,04	1269,74
536,24	1245,16
536,43	1284,08
536,63	1267,69
536,83	1253,36
537,03	1239,02
537,22	1282,03
537,42	1318,89
537,62	1263,60
537,82	1263,60
538,02	1308,65
538,21	1234,93
538,41	1273,84
538,61	1259,50
538,81	1275,88
539,00	1255,40
539,20	1232,88
539,40	1306,60
539,60	1322,99
539,79	1279,98
539,99	1335,28
540,19	1263,60
540,39	1286,12
540,58	1236,97
540,78	1257,45
540,98	1302,51
541,18	1282,03
541,37	1318,89
541,57	1269,74
541,77	1290,22
541,97	1277,93
542,16	1298,41
542,36	1343,47
542,56	1294,32
542,76	1259,50
542,95	1316,84
543,15	1224,69
543,35	1239,02
543,54	1216,49
543,74	1304,56
543,94	1208,30
544,14	1310,70
544,33	1255,40
544,53	1208,30
544,73	1253,36
544,93	1298,41
545,12	1259,50
545,32	1294,32
545,52	1230,83
545,71	1261,55
545,91	1302,51
546,11	1292,27
546,30	1257,45
546,50	1210,35
546,70	1349,61
546,90	1286,12
547,09	1251,31
547,29	1247,21
547,49	1263,60
547,68	1322,99
547,88	1318,89
548,08	1290,22
548,27	1271,79
548,47	1310,70
548,67	1253,36
548,87	1271,79
549,06	1308,65
549,26	1175,53
549,46	1304,56
549,65	1261,55
549,85	1314,80
550,05	1320,94
550,24	1312,75
550,44	1253,36
550,64	1269,74
550,83	1259,50
551,03	1239,02
551,23	1322,99
551,42	1290,22
551,62	1312,75
551,82	1302,51
552,01	1241,07
552,21	1286,12
552,41	1243,12
552,60	1220,59
552,80	1282,03
553,00	1226,73
553,19	1322,99
553,39	1279,98
553,59	1320,94
553,78	1294,32
553,98	1333,23
554,17	1277,93
554,37	1312,75
554,57	1294,32
554,76	1232,88
554,96	1230,83
555,16	1327,08
555,35	1355,76
555,55	1318,89
555,75	1261,55
555,94	1255,40
556,14	1290,22
556,33	1249,26
556,53	1406,95
556,73	1341,42
556,92	1282,03
557,12	1310,70
557,32	1308,65
557,51	1255,40
557,71	1241,07
557,90	1353,71
558,10	1292,27
558,30	1257,45
558,49	1265,64
558,69	1302,51
558,88	1259,50
559,08	1310,70
559,28	1355,76
559,47	1298,41
559,67	1263,60
559,86	1282,03
560,06	1318,89
560,26	1294,32
560,45	1239,02
560,65	1257,45
560,84	1327,08
561,04	1312,75
561,24	1322,99
561,43	1308,65
561,63	1273,84
561,82	1306,60
562,02	1249,26
562,22	1347,56
562,41	1228,78
562,61	1288,17
562,80	1247,21
563,00	1296,36
563,19	1290,22
563,39	1245,16
563,59	1230,83
563,78	1384,43
563,98	1261,55
564,17	1294,32
564,37	1273,84
564,56	1304,56
564,76	1335,28
564,96	1286,12
565,15	1279,98
565,35	1310,70
565,54	1310,70
565,74	1300,46
565,93	1290,22
566,13	1306,60
566,32	1251,31
566,52	1275,88
566,71	1290,22
566,91	1222,64
567,11	1284,08
567,30	1337,32
567,50	1308,65
567,69	1298,41
567,89	1277,93
568,08	1314,80
568,28	1275,88
568,47	1273,84
568,67	1232,88
568,86	1322,99
569,06	1236,97
569,25	1255,40
569,45	1236,97
569,64	1275,88
569,84	1308,65
570,04	1271,79
570,23	1296,36
570,43	1378,28
570,62	1251,31
570,82	1300,46
571,01	1202,16
571,21	1288,17
571,40	1275,88
571,60	1351,66
571,79	1275,88
571,99	1314,80
572,18	1273,84
572,38	1265,64
572,57	1294,32
572,77	1335,28
572,96	1331,18
573,16	1259,50
573,35	1282,03
573,55	1318,89
573,74	1329,13
573,94	1306,60
574,13	1294,32
574,33	1288,17
574,52	1308,65
574,71	1265,64
574,91	1206,25
575,10	1288,17
575,30	1265,64
575,49	1298,41
575,69	1165,29
575,88	1312,75
576,08	1230,83
576,27	1341,42
576,47	1269,74
576,66	1206,25
576,86	1279,98
577,05	1234,93
577,25	1263,60
577,44	1253,36
577,64	1216,49
577,83	1279,98
578,02	1263,60
578,22	1241,07
578,41	1349,61
578,61	1241,07
578,80	1329,13
579,00	1312,75
579,19	1249,26
579,39	1273,84
579,58	1345,52
579,77	1259,50
579,97	1224,69
580,16	1253,36
580,36	1218,54
580,55	1288,17
580,75	1275,88
580,94	1273,84
581,13	1286,12
581,33	1279,98
581,52	1226,73
581,72	1282,03
581,91	1314,80
582,11	1253,36
582,30	1368,04
582,49	1245,16
582,69	1224,69
582,88	1304,56
583,08	1214,45
583,27	1296,36
583,47	1312,75
583,66	1247,21
583,85	1282,03
584,05	1284,08
584,24	1261,55
584,44	1218,54
584,63	1339,37
584,82	1351,66
585,02	1310,70
585,21	1322,99
585,41	1355,76
585,60	1273,84
585,79	1234,93
585,99	1267,69
586,18	1175,53
586,37	1216,49
586,57	1249,26
586,76	1329,13
586,96	1249,26
587,15	1380,33
587,34	1312,75
587,54	1294,32
587,73	1296,36
587,93	1259,50
588,12	1239,02
588,31	1265,64
588,51	1325,04
588,70	1300,46
588,89	1261,55
589,09	1279,98
589,28	1419,24
589,47	1277,93
589,67	1282,03
589,86	1316,84
590,06	1230,83
590,25	1294,32
590,44	1269,74
590,64	1241,07
590,83	1267,69
591,02	1308,65
591,22	1351,66
591,41	1228,78
591,60	1265,64
591,80	1269,74
591,99	1261,55
592,18	1288,17
592,38	1255,40
592,57	1363,95
592,76	1193,97
592,96	1310,70
593,15	1302,51
593,34	1325,04
593,54	1269,74
593,73	1259,50
593,92	1218,54
594,12	1277,93
594,31	1386,47
594,50	1341,42
594,70	1234,93
594,89	1279,98
595,08	1273,84
595,28	1265,64
595,47	1314,80
595,66	1247,21
595,86	1255,40
596,05	1286,12
596,24	1273,84
596,43	1206,25
596,63	1273,84
596,82	1314,80
597,01	1249,26
597,21	1218,54
597,40	1279,98
597,59	1308,65
597,79	1214,45
597,98	1298,41
598,17	1290,22
598,36	1298,41
598,56	1302,51
598,75	1216,49
598,94	1286,12
599,14	1320,94
599,33	1292,27
599,52	1290,22
599,71	1269,74
599,91	1318,89
600,10	1224,69
600,29	1316,84
600,48	1271,79
600,68	1300,46
600,87	1265,64
601,06	1294,32
601,26	1308,65
601,45	1279,98
601,64	1232,88
601,83	1253,36
602,03	1230,83
602,22	1273,84
602,41	1271,79
602,60	1325,04
602,80	1191,92
602,99	1253,36
603,18	1282,03
603,37	1353,71
603,57	1275,88
603,76	1302,51
603,95	1261,55
604,14	1284,08
604,34	1302,51
604,53	1300,46
604,72	1261,55
604,91	1292,27
605,10	1294,32
605,30	1265,64
605,49	1245,16
605,68	1335,28
605,87	1286,12
606,07	1290,22
606,26	1294,32
606,45	1298,41
606,64	1282,03
606,84	1310,70
607,03	1345,52
607,22	1335,28
607,41	1298,41
607,60	1282,03
607,80	1230,83
607,99	1255,40
608,18	1251,31
608,37	1284,08
608,56	1359,85
608,76	1335,28
608,95	1202,16
609,14	1267,69
609,33	1224,69
609,52	1277,93
609,72	1318,89
609,91	1269,74
610,10	1294,32
610,29	1288,17
610,48	1277,93
610,68	1249,26
610,87	1304,56
611,06	1306,60
611,25	1243,12
611,44	1331,18
611,63	1210,35
611,83	1284,08
612,02	1277,93
612,21	1241,07
612,40	1271,79
612,59	1236,97
612,79	1185,77
612,98	1263,60
613,17	1288,17
613,36	1214,45
613,55	1267,69
613,74	1265,64
613,93	1304,56
614,13	1290,22
614,32	1198,06
614,51	1253,36
614,70	1290,22
614,89	1265,64
615,08	1265,64
615,28	1300,46
615,47	1261,55
615,66	1302,51
615,85	1277,93
616,04	1253,36
616,23	1294,32
616,42	1189,87
616,62	1296,36
616,81	1249,26
617,00	1275,88
617,19	1310,70
617,38	1257,45
617,57	1288,17
617,76	1277,93
617,95	1245,16
618,15	1249,26
618,34	1165,29
618,53	1271,79
618,72	1239,02
618,91	1378,28
619,10	1290,22
619,29	1353,71
619,48	1257,45
619,68	1257,45
619,87	1255,40
620,06	1259,50
620,25	1267,69
620,44	1277,93
620,63	1310,70
620,82	1273,84
621,01	1239,02
621,20	1290,22
621,39	1296,36
621,59	1282,03
621,78	1269,74
621,97	1269,74
622,16	1318,89
622,35	1290,22
622,54	1306,60
622,73	1263,60
622,92	1304,56
623,11	1236,97
623,30	1296,36
623,49	1302,51
623,68	1255,40
623,88	1290,22
624,07	1245,16
624,26	1322,99
624,45	1304,56
624,64	1267,69
624,83	1275,88
625,02	1322,99
625,21	1198,06
625,40	1411,05
625,59	1269,74
625,78	1267,69
625,97	1277,93
626,16	1282,03
626,35	1249,26
626,54	1310,70
626,74	1335,28
626,93	1259,50
627,12	1247,21
627,31	1296,36
627,50	1314,80
627,69	1251,31
627,88	1257,45
628,07	1300,46
628,26	1263,60
628,45	1357,80
628,64	1292,27
628,83	1341,42
629,02	1341,42
629,21	1306,60
629,40	1288,17
629,59	1255,40
629,78	1226,73
629,97	1265,64
630,16	1275,88
630,35	1282,03
630,54	1294,32
630,73	1261,55
630,92	1300,46
631,11	1298,41
631,30	1288,17
631,49	1288,17
631,68	1388,52
631,87	1355,76
632,06	1495,02
632,25	1421,29
632,44	1394,67
632,63	1359,85
632,82	1484,78
633,01	1482,73
633,20	1333,23
633,39	1431,53
633,58	1380,33
633,77	1363,95
633,96	1482,73
634,15	1538,02
634,34	1746,92
634,53	1912,80
634,72	1658,85
634,91	1443,82
635,10	1595,37
635,29	1701,86
635,48	1949,67
635,67	2062,30
635,86	1814,50
636,05	1728,49
636,24	1525,74
636,43	1490,92
636,62	1413,10
636,81	1398,76
637,00	1368,04
637,19	1296,36
637,38	1374,19
637,57	1312,75
637,76	1376,24
637,95	1366,00
638,14	1325,04
638,33	1327,08
638,52	1343,47
638,71	1331,18
638,89	1366,00
639,08	1253,36
639,27	1282,03
639,46	1286,12
639,65	1292,27
639,84	1294,32
640,03	1341,42
640,22	1269,74
640,41	1331,18
640,60	1329,13
640,79	1273,84
640,98	1320,94
641,17	1243,12
641,36	1273,84
641,55	1333,23
641,74	1282,03
641,92	1271,79
642,11	1263,60
642,30	1273,84
642,49	1316,84
642,68	1304,56
642,87	1300,46
643,06	1269,74
643,25	1322,99
643,44	1325,04
643,63	1286,12
643,82	1331,18
644,00	1298,41
644,19	1304,56
644,38	1255,40
644,57	1312,75
644,76	1292,27
644,95	1306,60
645,14	1288,17
645,33	1320,94
645,52	1267,69
645,71	1308,65
645,89	1234,93
646,08	1343,47
646,27	1265,64
646,46	1257,45
646,65	1279,98
646,84	1187,82
647,03	1288,17
647,22	1255,40
647,40	1216,49
647,59	1304,56
647,78	1236,97
647,97	1312,75
648,16	1361,90
648,35	1327,08
648,54	1267,69
648,73	1259,50
648,91	1325,04
649,10	1273,84
649,29	1306,60
649,48	1292,27
649,67	1275,88
649,86	1288,17
650,05	1261,55
650,23	1353,71
650,42	1304,56
650,61	1277,93
650,80	1275,88
650,99	1173,49
651,18	1284,08
651,36	1253,36
651,55	1282,03
651,74	1282,03
651,93	1251,31
652,12	1241,07
652,31	1284,08
652,49	1232,88
652,68	1329,13
652,87	1241,07
653,06	1249,26
653,25	1376,24
653,44	1228,78
653,62	1300,46
653,81	1267,69
654,00	1312,75
654,19	1226,73
654,38	1263,60
654,56	1257,45
654,75	1271,79
654,94	1232,88
655,13	1284,08
655,32	1275,88
655,51	1265,64
655,69	1277,93
655,88	1282,03
656,07	1286,12
656,26	1306,60
656,45	1269,74
656,63	1234,93
656,82	1234,93
657,01	1273,84
657,20	1298,41
657,38	1267,69
657,57	1241,07
657,76	1249,26
657,95	1312,75
658,14	1296,36
658,32	1333,23
658,51	1208,30
658,70	1282,03
658,89	1292,27
659,08	1361,90
659,26	1275,88
659,45	1312,75
659,64	1247,21
659,83	1298,41
660,01	1351,66
660,20	1253,36
660,39	1343,47
660,58	1290,22
660,76	1247,21
660,95	1232,88
661,14	1261,55
661,33	1236,97
661,51	1259,50
661,70	1210,35
661,89	1286,12
662,08	1290,22
662,26	1247,21
662,45	1267,69
662,64	1279,98
662,83	1277,93
663,01	1292,27
663,20	1318,89
663,39	1288,17
663,58	1322,99
663,76	1325,04
663,95	1249,26
664,14	1296,36
664,32	1284,08
664,51	1224,69
664,70	1267,69
664,89	1216,49
665,07	1265,64
665,26	1255,40
665,45	1245,16
665,64	1304,56
665,82	1277,93
666,01	1259,50
666,20	1247,21
666,38	1306,60
666,57	1335,28
666,76	1245,16
666,95	1243,12
667,13	1247,21
667,32	1318,89
667,51	1265,64
667,69	1271,79
667,88	1224,69
668,07	1267,69
668,25	1306,60
668,44	1294,32
668,63	1271,79
668,81	1271,79
669,00	1294,32
669,19	1351,66
669,38	1298,41
669,56	1216,49
669,75	1204,21
669,94	1325,04
670,12	1306,60
670,31	1288,17
670,50	1277,93
670,68	1300,46
670,87	1282,03
671,06	1247,21
671,24	1273,84
671,43	1322,99
671,62	1236,97
671,80	1220,59
671,99	1261,55
672,18	1288,17
672,36	1257,45
672,55	1249,26
672,74	1329,13
672,92	1286,12
673,11	1275,88
673,29	1279,98
673,48	1255,40
673,67	1306,60
673,85	1220,59
674,04	1277,93
674,23	1220,59
674,41	1361,90
674,60	1228,78
674,79	1288,17
674,97	1191,92
675,16	1302,51
675,34	1257,45
675,53	1333,23
675,72	1239,02
675,90	1331,18
676,09	1269,74
676,28	1245,16
676,46	1222,64
676,65	1279,98
676,83	1247,21
677,02	1312,75
677,21	1243,12
677,39	1245,16
677,58	1239,02
677,77	1214,45
677,95	1296,36
678,14	1290,22
678,32	1269,74
678,51	1249,26
678,70	1331,18
678,88	1298,41
679,07	1204,21
679,25	1249,26
679,44	1271,79
679,63	1202,16
679,81	1312,75
680,00	1257,45
680,18	1298,41
680,37	1189,87
680,55	1234,93
680,74	1298,41
680,93	1208,30
681,11	1341,42
681,30	1304,56
681,48	1265,64
681,67	1241,07
681,85	1236,97
682,04	1298,41
682,23	1288,17
682,41	1247,21
682,60	1241,07
682,78	1257,45
682,97	1241,07
683,15	1298,41
683,34	1208,30
683,53	1300,46
683,71	1273,84
683,90	1247,21
684,08	1355,76
684,27	1202,16
684,45	1275,88
684,64	1333,23
684,82	1292,27
685,01	1234,93
685,19	1277,93
685,38	1232,88
685,57	1273,84
685,75	1282,03
685,94	1253,36
686,12	1318,89
686,31	1234,93
686,49	1304,56
686,68	1220,59
686,86	1318,89
687,05	1273,84
687,23	1267,69
687,42	1232,88
687,60	1263,60
687,79	1191,92
687,97	1224,69
688,16	1275,88
688,34	1310,70
688,53	1329,13
688,71	1284,08
688,90	1247,21
689,08	1220,59
689,27	1263,60
689,45	1185,77
689,64	1224,69
689,82	1226,73
690,01	1273,84
690,19	1261,55
690,38	1273,84
690,56	1339,37
690,75	1241,07
690,93	1288,17
691,12	1206,25
691,30	1187,82
691,49	1253,36
691,67	1249,26
691,86	1271,79
692,04	1230,83
692,23	1298,41
692,41	1296,36
692,60	1267,69
692,78	1265,64
692,97	1320,94
693,15	1269,74
693,34	1251,31
693,52	1300,46
693,71	1206,25
693,89	1322,99
694,08	1236,97
694,26	1253,36
694,44	1298,41
694,63	1253,36
694,81	1279,98
695,00	1302,51
695,18	1251,31
695,37	1239,02
695,55	1167,34
695,74	1304,56
695,92	1265,64
696,10	1314,80
696,29	1279,98
696,47	1345,52
696,66	1288,17
696,84	1251,31
697,03	1257,45
697,21	1257,45
697,40	1290,22
697,58	1232,88
697,76	1273,84
697,95	1308,65
698,13	1298,41
698,32	1175,53
698,50	1265,64
698,68	1310,70
698,87	1218,54
699,05	1284,08
699,24	1243,12
699,42	1247,21
699,61	1249,26
699,79	1304,56
699,97	1243,12
700,16	1230,83
700,34	1337,32
700,53	1236,97
700,71	1286,12
700,89	1271,79
701,08	1232,88
701,26	1239,02
701,45	1304,56
701,63	1265,64
701,81	1249,26
702,00	1273,84
702,18	1257,45
702,37	1265,64
702,55	1284,08
702,73	1277,93
702,92	1249,26
703,10	1224,69
703,28	1265,64
703,47	1292,27
703,65	1261,55
703,84	1204,21
704,02	1247,21
704,20	1265,64
704,39	1327,08
704,57	1222,64
704,75	1204,21
704,94	1220,59
705,12	1234,93
705,30	1290,22
705,49	1228,78
705,67	1263,60
705,86	1210,35
706,04	1314,80
706,22	1267,69
706,41	1253,36
706,59	1298,41
706,77	1271,79
706,96	1222,64
707,14	1339,37
707,32	1261,55
707,51	1290,22
707,69	1245,16
707,87	1241,07
708,06	1308,65
708,24	1261,55
708,42	1275,88
708,61	1290,22
708,79	1249,26
708,97	1341,42
709,16	1239,02
709,34	1331,18
709,52	1322,99
709,71	1243,12
709,89	1253,36
710,07	1282,03
710,26	1259,50
710,44	1257,45
710,62	1269,74
710,80	1314,80
710,99	1308,65
711,17	1226,73
711,35	1316,84
711,54	1181,68
711,72	1294,32
711,90	1273,84
712,09	1327,08
712,27	1282,03
712,45	1218,54
712,63	1341,42
712,82	1314,80
713,00	1212,40
713,18	1308,65
713,37	1331,18
713,55	1210,35
713,73	1255,40
713,91	1273,84
714,10	1243,12
714,28	1310,70
714,46	1302,51
714,65	1298,41
714,83	1296,36
715,01	1341,42
715,19	1292,27
715,38	1271,79
715,56	1286,12
715,74	1265,64
715,92	1220,59
716,11	1228,78
716,29	1224,69
716,47	1273,84
716,65	1290,22
716,84	1253,36
717,02	1302,51
717,20	1331,18
717,38	1259,50
717,57	1222,64
717,75	1325,04
717,93	1218,54
718,11	1216,49
718,30	1191,92
718,48	1216,49
718,66	1382,38
718,84	1241,07
719,03	1318,89
719,21	1312,75
719,39	1298,41
719,57	1282,03
719,75	1212,40
719,94	1226,73
720,12	1271,79
720,30	1292,27
720,48	1298,41
720,67	1257,45
720,85	1251,31
721,03	1249,26
721,21	1255,40
721,39	1226,73
721,58	1284,08
721,76	1288,17
721,94	1286,12
722,12	1236,97
722,30	1259,50
722,49	1202,16
722,67	1224,69
722,85	1290,22
723,03	1259,50
723,21	1335,28
723,40	1286,12
723,58	1273,84
723,76	1284,08
723,94	1228,78
724,12	1306,60
724,30	1327,08
724,49	1245,16
724,67	1271,79
724,85	1284,08
725,03	1257,45
725,21	1196,01
725,40	1271,79
725,58	1261,55
725,76	1277,93
725,94	1294,32
726,12	1279,98
726,30	1320,94
726,49	1292,27
726,67	1236,97
726,85	1351,66
727,03	1269,74
727,21	1222,64
727,39	1261,55
727,57	1271,79
727,76	1292,27
727,94	1314,80
728,12	1239,02
728,30	1329,13
728,48	1267,69
728,66	1257,45
728,84	1271,79
729,03	1263,60
729,21	1390,57
729,39	1296,36
729,57	1232,88
729,75	1271,79
729,93	1249,26
730,11	1267,69
730,30	1226,73
730,48	1279,98
730,66	1284,08
730,84	1288,17
731,02	1304,56
731,20	1292,27
731,38	1284,08
731,56	1196,01
731,74	1286,12
731,93	1265,64
732,11	1251,31
732,29	1230,83
732,47	1255,40
732,65	1245,16
732,83	1216,49
733,01	1282,03
733,19	1312,75
733,37	1236,97
733,56	1277,93
733,74	1253,36
733,92	1228,78
734,10	1310,70
734,28	1239,02
734,46	1296,36
734,64	1366,00
734,82	1232,88
735,00	1222,64
735,18	1284,08
735,36	1251,31
735,54	1249,26
735,73	1245,16
735,91	1275,88
736,09	1267,69
736,27	1284,08
736,45	1269,74
736,63	1167,34
736,81	1261,55
736,99	1239,02
737,17	1316,84
737,35	1310,70
737,53	1245,16
737,71	1247,21
737,89	1257,45
738,07	1290,22
738,25	1284,08
738,43	1253,36
738,61	1286,12
738,80	1294,32
738,98	1275,88
739,16	1157,10
739,34	1214,45
739,52	1335,28
739,70	1230,83
739,88	1255,40
740,06	1306,60
740,24	1269,74
740,42	1273,84
740,60	1243,12
740,78	1298,41
740,96	1251,31
741,14	1286,12
741,32	1279,98
741,50	1175,53
741,68	1300,46
741,86	1163,25
742,04	1277,93
742,22	1279,98
742,40	1255,40
742,58	1294,32
742,76	1220,59
742,94	1288,17
743,12	1277,93
743,30	1200,11
743,48	1265,64
743,66	1210,35
743,84	1298,41
744,02	1253,36
744,20	1312,75
744,38	1218,54
744,56	1331,18
744,74	1224,69
744,92	1257,45
745,10	1353,71
745,28	1277,93
745,46	1214,45
745,64	1257,45
745,82	1286,12
746,00	1314,80
746,18	1267,69
746,36	1333,23
746,54	1230,83
746,72	1212,40
746,90	1349,61
747,08	1370,09
747,26	1343,47
747,44	1257,45
747,62	1255,40
747,80	1284,08
747,98	1232,88
748,15	1271,79
748,33	1267,69
748,51	1222,64
748,69	1320,94
748,87	1222,64
749,05	1196,01
749,23	1230,83
749,41	1302,51
749,59	1298,41
749,77	1249,26
749,95	1312,75
750,13	1318,89
750,31	1296,36
750,49	1265,64
750,67	1222,64
750,85	1220,59
751,03	1234,93
751,20	1329,13
751,38	1224,69
751,56	1288,17
751,74	1271,79
751,92	1302,51
752,10	1222,64
752,28	1206,25
752,46	1335,28
752,64	1288,17
752,82	1296,36
753,00	1241,07
753,18	1228,78
753,35	1218,54
753,53	1249,26
753,71	1249,26
753,89	1239,02
754,07	1294,32
754,25	1253,36
754,43	1249,26
754,61	1298,41
754,79	1193,97
754,97	1247,21
755,14	1255,40
755,32	1335,28
755,50	1298,41
755,68	1189,87
755,86	1234,93
756,04	1304,56
756,22	1198,06
756,40	1193,97
756,57	1257,45
756,75	1239,02
756,93	1228,78
757,11	1304,56
757,29	1269,74
757,47	1271,79
757,65	1300,46
757,82	1298,41
758,00	1284,08
758,18	1239,02
758,36	1294,32
758,54	1236,97
758,72	1253,36
758,90	1353,71
759,07	1253,36
759,25	1298,41
759,43	1206,25
759,61	1306,60
759,79	1376,24
759,97	1296,36
760,15	1232,88
760,32	1243,12
760,50	1343,47
760,68	1337,32
760,86	1306,60
761,04	1279,98
761,22	1310,70
761,39	1298,41
761,57	1288,17
761,75	1228,78
761,93	1261,55
762,11	1245,16
762,28	1226,73
762,46	1273,84
762,64	1206,25
762,82	1312,75
763,00	1290,22
763,18	1220,59
763,35	1247,21
763,53	1341,42
763,71	1255,40
763,89	1290,22
764,07	1271,79
764,24	1255,40
764,42	1345,52
764,60	1273,84
764,78	1277,93
764,96	1302,51
765,13	1271,79
765,31	1255,40
765,49	1284,08
765,67	1218,54
765,84	1337,32
766,02	1312,75
766,20	1318,89
766,38	1310,70
766,56	1302,51
766,73	1212,40
766,91	1279,98
767,09	1220,59
767,27	1296,36
767,44	1316,84
767,62	1316,84
767,80	1253,36
767,98	1277,93
768,15	1298,41
768,33	1284,08
768,51	1320,94
768,69	1259,50
768,87	1308,65
769,04	1214,45
769,22	1284,08
769,40	1259,50
769,58	1333,23
769,75	1263,60
769,93	1216,49
770,11	1310,70
770,28	1314,80
770,46	1257,45
770,64	1243,12
770,82	1255,40
770,99	1290,22
771,17	1243,12
771,35	1269,74
771,53	1204,21
771,70	1308,65
771,88	1263,60
772,06	1279,98
772,23	1300,46
772,41	1263,60
772,59	1320,94
772,77	1335,28
772,94	1310,70
773,12	1228,78
773,30	1239,02
773,47	1253,36
773,65	1241,07
773,83	1282,03
774,01	1251,31
774,18	1261,55
774,36	1267,69
774,54	1234,93
774,71	1339,37
774,89	1320,94
775,07	1245,16
775,24	1282,03
775,42	1277,93
775,60	1304,56
775,78	1255,40
775,95	1331,18
776,13	1284,08
776,31	1261,55
776,48	1183,73
776,66	1275,88
776,84	1271,79
777,01	1257,45
777,19	1298,41
777,37	1261,55
777,54	1247,21
777,72	1208,30
777,90	1259,50
778,07	1255,40
778,25	1286,12
778,43	1306,60
778,60	1191,92
778,78	1239,02
778,96	1261,55
779,13	1208,30
779,31	1218,54
779,49	1202,16
779,66	1304,56
779,84	1253,36
780,01	1265,64
780,19	1263,60
780,37	1284,08
780,54	1290,22
780,72	1210,35
780,90	1288,17
781,07	1294,32
781,25	1271,79
781,43	1189,87
781,60	1318,89
781,78	1296,36
781,95	1320,94
782,13	1138,67
782,31	1282,03
782,48	1322,99
782,66	1308,65
782,83	1282,03
783,01	1267,69
783,19	1224,69
783,36	1279,98
783,54	1218,54
783,72	1296,36
783,89	1214,45
784,07	1298,41
784,24	1296,36
784,42	1220,59
784,60	1298,41
784,77	1251,31
784,95	1372,14
785,12	1263,60
785,30	1296,36
785,47	1279,98
785,65	1230,83
785,83	1239,02
786,00	1355,76
786,18	1257,45
786,35	1257,45
786,53	1226,73
786,71	1279,98
786,88	1312,75
787,06	1263,60
787,23	1236,97
787,41	1261,55
787,58	1228,78
787,76	1271,79
787,94	1343,47
788,11	1286,12
788,29	1290,22
788,46	1253,36
788,64	1325,04
788,81	1259,50
788,99	1273,84
789,16	1292,27
789,34	1271,79
789,52	1318,89
789,69	1247,21
789,87	1245,16
790,04	1206,25
790,22	1239,02
790,39	1294,32
790,57	1230,83
790,74	1265,64
790,92	1243,12
791,09	1249,26
791,27	1267,69
791,44	1265,64
791,62	1202,16
791,79	1269,74
791,97	1255,40
792,15	1228,78
792,32	1294,32
792,50	1247,21
792,67	1349,61
792,85	1312,75
793,02	1208,30
793,20	1284,08
793,37	1294,32
793,55	1275,88
793,72	1257,45
793,90	1286,12
794,07	1286,12
794,25	1265,64
794,42	1298,41
794,60	1322,99
794,77	1279,98
794,95	1187,82
795,12	1286,12
795,30	1288,17
795,47	1146,86
795,65	1239,02
795,82	1316,84
796,00	1320,94
796,17	1239,02
796,34	1296,36
796,52	1322,99
796,69	1224,69
796,87	1236,97
797,04	1230,83
797,22	1310,70
797,39	1318,89
797,57	1263,60
797,74	1308,65
797,92	1249,26
798,09	1333,23
798,27	1243,12
798,44	1353,71
798,62	1187,82
798,79	1288,17
798,96	1239,02
799,14	1220,59
799,31	1357,80
799,49	1241,07
799,66	1255,40
799,84	1351,66
800,01	1196,01
800,19	1234,93
800,36	1290,22
800,53	1275,88
800,71	1308,65
800,88	1218,54
801,06	1329,13
801,23	1224,69
801,41	1279,98
801,58	1304,56
801,75	1236,97
801,93	1249,26
802,10	1259,50
802,28	1316,84
802,45	1318,89
802,63	1322,99
802,80	1312,75
802,97	1204,21
803,15	1273,84
803,32	1255,40
803,50	1296,36
803,67	1277,93
803,84	1198,06
804,02	1269,74
804,19	1263,60
804,37	1216,49
804,54	1282,03
804,71	1228,78
804,89	1261,55
805,06	1273,84
805,24	1200,11
805,41	1265,64
805,58	1302,51
805,76	1196,01
805,93	1275,88
806,10	1298,41
806,28	1253,36
806,45	1247,21
806,63	1224,69
806,80	1279,98
806,97	1214,45
807,15	1316,84
807,32	1214,45
807,49	1320,94
807,67	1200,11
807,84	1265,64
808,01	1232,88
808,19	1308,65
808,36	1294,32
808,54	1232,88
808,71	1226,73
808,88	1265,64
809,06	1282,03
809,23	1273,84
809,40	1216,49
809,58	1294,32
809,75	1298,41
809,92	1343,47
810,10	1271,79
810,27	1214,45
810,44	1275,88
810,62	1327,08
810,79	1302,51
810,96	1257,45
811,14	1296,36
811,31	1257,45
811,48	1277,93
811,66	1314,80
811,83	1234,93
812,00	1277,93
812,18	1298,41
812,35	1257,45
812,52	1234,93
812,69	1292,27
812,87	1241,07
813,04	1259,50
813,21	1226,73
813,39	1251,31
813,56	1230,83
813,73	1277,93
813,91	1210,35
814,08	1304,56
814,25	1294,32
814,42	1306,60
814,60	1226,73
814,77	1241,07
814,94	1282,03
815,12	1284,08
815,29	1286,12
815,46	1257,45
815,63	1320,94
815,81	1327,08
815,98	1249,26
816,15	1245,16
816,33	1218,54
816,50	1316,84
816,67	1193,97
816,84	1304,56
817,02	1228,78
817,19	1279,98
817,36	1282,03
817,53	1306,60
817,71	1265,64
817,88	1230,83
818,05	1226,73
818,22	1198,06
818,40	1286,12
818,57	1247,21
818,74	1300,46
818,91	1247,21
819,09	1300,46
819,26	1200,11
819,43	1273,84
819,60	1265,64
819,78	1267,69
819,95	1335,28
820,12	1275,88
820,29	1263,60
820,47	1298,41
820,64	1273,84
820,81	1341,42
820,98	1251,31
821,15	1275,88
821,33	1341,42
821,50	1216,49
821,67	1263,60
821,84	1265,64
822,02	1263,60
822,19	1298,41
822,36	1286,12
822,53	1234,93
822,70	1243,12
822,88	1269,74
823,05	1300,46
823,22	1185,77
823,39	1200,11
823,56	1325,04
823,74	1279,98
823,91	1236,97
824,08	1171,44
824,25	1189,87
824,42	1288,17
824,60	1292,27
824,77	1349,61
824,94	1273,84
825,11	1232,88
825,28	1241,07
825,45	1257,45
825,63	1241,07
825,80	1202,16
825,97	1243,12
826,14	1222,64
826,31	1224,69
826,48	1269,74
826,66	1282,03
826,83	1286,12
827,00	1267,69
827,17	1247,21
827,34	1224,69
827,51	1193,97
827,69	1239,02
827,86	1228,78
828,03	1200,11
828,20	1255,40
828,37	1261,55
828,54	1214,45
828,71	1224,69
828,89	1271,79
829,06	1239,02
829,23	1312,75
829,40	1243,12
829,57	1294,32
829,74	1261,55
829,91	1316,84
830,09	1292,27
830,26	1288,17
830,43	1333,23
830,60	1265,64
830,77	1214,45
830,94	1257,45
831,11	1204,21
831,28	1288,17
831,46	1279,98
831,63	1292,27
831,80	1308,65
831,97	1189,87
832,14	1314,80
832,31	1265,64
832,48	1263,60
832,65	1273,84
832,82	1216,49
832,99	1300,46
833,17	1331,18
833,34	1257,45
833,51	1275,88
833,68	1267,69
833,85	1212,40
834,02	1302,51
834,19	1224,69
834,36	1322,99
834,53	1196,01
834,70	1220,59
834,87	1279,98
835,04	1273,84
835,22	1165,29
835,39	1245,16
835,56	1294,32
835,73	1292,27
835,90	1228,78
836,07	1286,12
836,24	1267,69
836,41	1298,41
836,58	1261,55
836,75	1312,75
836,92	1310,70
837,09	1241,07
837,26	1222,64
837,43	1232,88
837,60	1322,99
837,77	1298,41
837,94	1286,12
838,12	1241,07
838,29	1187,82
838,46	1290,22
838,63	1304,56
838,80	1394,67
838,97	1327,08
839,14	1257,45
839,31	1304,56
839,48	1257,45
839,65	1300,46
839,82	1288,17
839,99	1308,65
840,16	1296,36
840,33	1292,27
840,50	1325,04
840,67	1306,60
840,84	1347,56
841,01	1275,88
841,18	1255,40
841,35	1241,07
841,52	1230,83
841,69	1230,83
841,86	1355,76
842,03	1279,98
842,20	1214,45
842,37	1247,21
842,54	1255,40
842,71	1286,12
842,88	1320,94
843,05	1208,30
843,22	1261,55
843,39	1232,88
843,56	1284,08
843,73	1208,30
843,90	1216,49
844,07	1216,49
844,24	1271,79
844,41	1314,80
844,58	1277,93
844,75	1290,22
844,92	1335,28
845,09	1298,41
845,26	1329,13
845,43	1310,70
845,60	1206,25
845,77	1308,65
845,94	1271,79
846,10	1226,73
846,27	1292,27
846,44	1259,50
846,61	1224,69
846,78	1275,88
846,95	1304,56
847,12	1296,36
847,29	1234,93
847,46	1273,84
847,63	1200,11
847,80	1265,64
847,97	1282,03
848,14	1290,22
848,31	1271,79
848,48	1226,73
848,65	1312,75
848,82	1230,83
848,98	1245,16
849,15	1306,60
849,32	1269,74
849,49	1306,60
849,66	1286,12
849,83	1372,14
850,00	1263,60
850,17	1322,99
850,34	1331,18
850,51	1263,60
850,68	1224,69
850,85	1282,03
851,01	1273,84
851,18	1236,97
851,35	1269,74
851,52	1359,85
851,69	1300,46
851,86	1216,49
852,03	1202,16
852,20	1249,26
852,37	1300,46
852,53	1251,31
852,70	1275,88
852,87	1247,21
853,04	1320,94
853,21	1216,49
853,38	1290,22
853,55	1251,31
853,72	1200,11
853,89	1220,59
854,05	1265,64
854,22	1243,12
854,39	1241,07
854,56	1267,69
854,73	1296,36
854,90	1243,12
855,07	1275,88
855,23	1228,78
855,40	1255,40
855,57	1257,45
855,74	1304,56
855,91	1312,75
856,08	1230,83
856,25	1304,56
856,41	1253,36
856,58	1277,93
856,75	1310,70
856,92	1286,12
857,09	1255,40
857,26	1249,26
857,42	1339,37
857,59	1249,26
857,76	1267,69
857,93	1296,36
858,10	1202,16
858,27	1304,56
858,43	1294,32
858,60	1304,56
858,77	1282,03
858,94	1267,69
859,11	1284,08
859,27	1220,59
859,44	1282,03
859,61	1265,64
859,78	1271,79
859,95	1312,75
860,12	1279,98
860,28	1241,07
860,45	1228,78
860,62	1292,27
860,79	1331,18
860,95	1259,50
861,12	1253,36
861,29	1247,21
861,46	1286,12
861,63	1224,69
861,79	1277,93
861,96	1284,08
862,13	1279,98
862,30	1171,44
862,47	1234,93
862,63	1228,78
862,80	1255,40
862,97	1277,93
863,14	1253,36
863,30	1216,49
863,47	1296,36
863,64	1286,12
863,81	1286,12
863,97	1277,93
864,14	1236,97
864,31	1251,31
864,48	1265,64
864,65	1290,22
864,81	1273,84
864,98	1249,26
865,15	1243,12
865,32	1236,97
865,48	1239,02
865,65	1249,26
865,82	1300,46
865,98	1282,03
866,15	1269,74
866,32	1318,89
866,49	1308,65
866,65	1261,55
866,82	1230,83
866,99	1206,25
867,16	1318,89
867,32	1218,54
867,49	1200,11
867,66	1282,03
867,83	1261,55
867,99	1226,73
868,16	1239,02
868,33	1202,16
868,49	1255,40
868,66	1322,99
868,83	1253,36
868,99	1304,56
869,16	1249,26
869,33	1206,25
869,50	1241,07
869,66	1232,88
869,83	1208,30
870,00	1288,17
870,16	1263,60
870,33	1298,41
870,50	1318,89
870,66	1165,29
870,83	1341,42
871,00	1314,80
871,17	1353,71
871,33	1222,64
871,50	1185,77
871,67	1239,02
871,83	1204,21
872,00	1298,41
872,17	1271,79
872,33	1224,69
872,50	1304,56
872,67	1286,12
872,83	1214,45
873,00	1257,45
873,17	1187,82
873,33	1320,94
873,50	1239,02
873,67	1273,84
873,83	1282,03
874,00	1275,88
874,16	1286,12
874,33	1320,94
874,50	1251,31
874,66	1222,64
874,83	1241,07
875,00	1275,88
875,16	1296,36
875,33	1292,27
875,50	1314,80
875,66	1198,06
875,83	1306,60
875,99	1265,64
876,16	1298,41
876,33	1310,70
876,49	1273,84
876,66	1279,98
876,83	1265,64
876,99	1257,45
877,16	1286,12
877,32	1288,17
877,49	1247,21
877,66	1275,88
877,82	1312,75
877,99	1271,79
878,15	1212,40
878,32	1298,41
878,49	1296,36
878,65	1261,55
878,82	1259,50
878,98	1286,12
879,15	1241,07
879,32	1267,69
879,48	1325,04
879,65	1273,84
879,81	1212,40
879,98	1255,40
880,15	1236,97
880,31	1310,70
880,48	1261,55
880,64	1179,63
880,81	1273,84
880,97	1290,22
881,14	1294,32
881,31	1251,31
881,47	1279,98
881,64	1259,50
881,80	1267,69
881,97	1187,82
882,13	1271,79
882,30	1251,31
882,47	1265,64
882,63	1288,17
882,80	1314,80
882,96	1214,45
883,13	1294,32
883,29	1251,31
883,46	1292,27
883,62	1267,69
883,79	1347,56
883,95	1198,06
884,12	1247,21
884,29	1220,59
884,45	1228,78
884,62	1200,11
884,78	1327,08
884,95	1261,55
885,11	1300,46
885,28	1220,59
885,44	1241,07
885,61	1308,65
885,77	1314,80
885,94	1263,60
886,10	1288,17
886,27	1255,40
886,43	1294,32
886,60	1279,98
886,76	1265,64
886,93	1273,84
887,09	1294,32
887,26	1236,97
887,42	1206,25
887,59	1288,17
887,75	1255,40
887,92	1247,21
888,08	1247,21
888,25	1275,88
888,41	1277,93
888,58	1245,16
888,74	1261,55
888,91	1327,08
>>>>>End Processed Spectral Data<<<<<
