SpectraSuite Data File
++++++++++++++++++++++++++++++++++++
Date: Sun Apr 03 19:55:40 CEST 2016
User: root
Dark Spectrum Present: No
Reference Spectrum Present: No
Number of Sampled Component Spectra: 1
Spectrometers: USB4C02835
Integration Time (usec): 10000 (USB4C02835)
Spectra Averaged: 1 (USB4C02835)
Boxcar Smoothing: 0 (USB4C02835)
Correct for Electrical Dark: No (USB4C02835)
Strobe/Lamp Enabled: No (USB4C02835)
Correct for Detector Non-linearity: No (USB4C02835)
Correct for Stray Light: No (USB4C02835)
Number of Pixels in Processed Spectrum: 3648
>>>>>Begin Processed Spectral Data<<<<<
177,47	1249,26
177,69	1249,26
177,91	1249,26
178,13	1196,01
178,36	1269,74
178,58	1206,25
178,80	1339,37
179,02	1277,93
179,24	1271,79
179,46	1265,64
179,68	1263,60
179,90	1279,98
180,13	1230,83
180,35	1275,88
180,57	1222,64
180,79	1308,65
181,01	1271,79
181,23	1298,41
181,45	1222,64
181,67	1247,21
181,90	1155,05
182,12	1243,12
182,34	1247,21
182,56	1183,73
182,78	1310,70
183,00	1224,69
183,22	1259,50
183,44	1259,50
183,66	1259,50
183,89	1257,45
184,11	1263,60
184,33	1269,74
184,55	1273,84
184,77	1226,73
184,99	1228,78
185,21	1210,35
185,43	1322,99
185,65	1277,93
185,87	1232,88
186,10	1349,61
186,32	1288,17
186,54	1243,12
186,76	1230,83
186,98	1279,98
187,20	1339,37
187,42	1253,36
187,64	1247,21
187,86	1206,25
188,08	1253,36
188,30	1316,84
188,52	1304,56
188,75	1265,64
188,97	1339,37
189,19	1249,26
189,41	1243,12
189,63	1220,59
189,85	1271,79
190,07	1234,93
190,29	1304,56
190,51	1259,50
190,73	1269,74
190,95	1269,74
191,17	1204,21
191,39	1269,74
191,61	1265,64
191,84	1329,13
192,06	1277,93
192,28	1236,97
192,50	1300,46
192,72	1310,70
192,94	1292,27
193,16	1220,59
193,38	1329,13
193,60	1210,35
193,82	1228,78
194,04	1294,32
194,26	1269,74
194,48	1302,51
194,70	1241,07
194,92	1333,23
195,14	1288,17
195,36	1257,45
195,58	1331,18
195,80	1261,55
196,02	1273,84
196,24	1290,22
196,46	1269,74
196,69	1302,51
196,91	1269,74
197,13	1263,60
197,35	1216,49
197,57	1243,12
197,79	1255,40
198,01	1261,55
198,23	1312,75
198,45	1241,07
198,67	1279,98
198,89	1310,70
199,11	1251,31
199,33	1320,94
199,55	1228,78
199,77	1241,07
199,99	1286,12
200,21	1257,45
200,43	1310,70
200,65	1241,07
200,87	1257,45
201,09	1290,22
201,31	1249,26
201,53	1322,99
201,75	1150,96
201,97	1251,31
202,19	1243,12
202,41	1218,54
202,63	1236,97
202,85	1329,13
203,07	1314,80
203,29	1257,45
203,51	1341,42
203,73	1228,78
203,95	1284,08
204,17	1249,26
204,39	1271,79
204,61	1259,50
204,83	1241,07
205,05	1273,84
205,27	1208,30
205,49	1236,97
205,71	1292,27
205,93	1275,88
206,15	1286,12
206,37	1253,36
206,59	1257,45
206,81	1269,74
207,03	1279,98
207,25	1251,31
207,47	1232,88
207,69	1230,83
207,91	1259,50
208,13	1335,28
208,34	1322,99
208,56	1212,40
208,78	1269,74
209,00	1316,84
209,22	1232,88
209,44	1271,79
209,66	1271,79
209,88	1263,60
210,10	1222,64
210,32	1286,12
210,54	1294,32
210,76	1218,54
210,98	1337,32
211,20	1290,22
211,42	1224,69
211,64	1290,22
211,86	1249,26
212,08	1327,08
212,30	1269,74
212,52	1241,07
212,74	1212,40
212,96	1308,65
213,17	1345,52
213,39	1200,11
213,61	1294,32
213,83	1232,88
214,05	1247,21
214,27	1290,22
214,49	1331,18
214,71	1282,03
214,93	1214,45
215,15	1308,65
215,37	1286,12
215,59	1292,27
215,81	1269,74
216,03	1261,55
216,24	1275,88
216,46	1314,80
216,68	1306,60
216,90	1189,87
217,12	1269,74
217,34	1189,87
217,56	1302,51
217,78	1236,97
218,00	1308,65
218,22	1290,22
218,44	1230,83
218,66	1251,31
218,87	1230,83
219,09	1273,84
219,31	1249,26
219,53	1146,86
219,75	1298,41
219,97	1273,84
220,19	1206,25
220,41	1171,44
220,63	1191,92
220,85	1282,03
221,06	1368,04
221,28	1275,88
221,50	1325,04
221,72	1214,45
221,94	1245,16
222,16	1271,79
222,38	1282,03
222,60	1249,26
222,82	1282,03
223,03	1214,45
223,25	1232,88
223,47	1218,54
223,69	1298,41
223,91	1273,84
224,13	1292,27
224,35	1265,64
224,57	1232,88
224,78	1185,77
225,00	1300,46
225,22	1282,03
225,44	1265,64
225,66	1290,22
225,88	1228,78
226,10	1322,99
226,32	1263,60
226,53	1263,60
226,75	1271,79
226,97	1286,12
227,19	1314,80
227,41	1273,84
227,63	1212,40
227,85	1349,61
228,06	1247,21
228,28	1337,32
228,50	1279,98
228,72	1255,40
228,94	1253,36
229,16	1320,94
229,37	1265,64
229,59	1284,08
229,81	1247,21
230,03	1318,89
230,25	1253,36
230,47	1320,94
230,69	1277,93
230,90	1239,02
231,12	1253,36
231,34	1208,30
231,56	1316,84
231,78	1241,07
232,00	1290,22
232,21	1294,32
232,43	1247,21
232,65	1257,45
232,87	1232,88
233,09	1243,12
233,30	1247,21
233,52	1224,69
233,74	1273,84
233,96	1300,46
234,18	1329,13
234,40	1292,27
234,61	1226,73
234,83	1245,16
235,05	1273,84
235,27	1279,98
235,49	1261,55
235,70	1339,37
235,92	1298,41
236,14	1296,36
236,36	1253,36
236,58	1263,60
236,79	1261,55
237,01	1277,93
237,23	1232,88
237,45	1236,97
237,67	1279,98
237,88	1327,08
238,10	1327,08
238,32	1226,73
238,54	1253,36
238,76	1239,02
238,97	1259,50
239,19	1247,21
239,41	1361,90
239,63	1298,41
239,85	1279,98
240,06	1185,77
240,28	1271,79
240,50	1294,32
240,72	1239,02
240,93	1320,94
241,15	1333,23
241,37	1267,69
241,59	1325,04
241,81	1243,12
242,02	1249,26
242,24	1269,74
242,46	1218,54
242,68	1306,60
242,89	1261,55
243,11	1279,98
243,33	1228,78
243,55	1288,17
243,76	1222,64
243,98	1273,84
244,20	1294,32
244,42	1288,17
244,64	1263,60
244,85	1222,64
245,07	1316,84
245,29	1284,08
245,51	1269,74
245,72	1214,45
245,94	1277,93
246,16	1310,70
246,38	1212,40
246,59	1339,37
246,81	1216,49
247,03	1228,78
247,24	1236,97
247,46	1243,12
247,68	1327,08
247,90	1288,17
248,11	1271,79
248,33	1296,36
248,55	1261,55
248,77	1269,74
248,98	1269,74
249,20	1251,31
249,42	1216,49
249,64	1226,73
249,85	1279,98
250,07	1304,56
250,29	1269,74
250,50	1322,99
250,72	1263,60
250,94	1312,75
251,16	1271,79
251,37	1224,69
251,59	1267,69
251,81	1304,56
252,02	1308,65
252,24	1290,22
252,46	1337,32
252,68	1306,60
252,89	1255,40
253,11	1273,84
253,33	1308,65
253,54	1228,78
253,76	1239,02
253,98	1320,94
254,20	1232,88
254,41	1251,31
254,63	1290,22
254,85	1189,87
255,06	1298,41
255,28	1320,94
255,50	1232,88
255,71	1202,16
255,93	1277,93
256,15	1245,16
256,36	1296,36
256,58	1275,88
256,80	1322,99
257,02	1339,37
257,23	1222,64
257,45	1343,47
257,67	1292,27
257,88	1277,93
258,10	1331,18
258,32	1284,08
258,53	1282,03
258,75	1282,03
258,97	1318,89
259,18	1300,46
259,40	1245,16
259,62	1374,19
259,83	1167,34
260,05	1273,84
260,27	1302,51
260,48	1230,83
260,70	1253,36
260,92	1265,64
261,13	1265,64
261,35	1273,84
261,57	1222,64
261,78	1255,40
262,00	1249,26
262,22	1257,45
262,43	1279,98
262,65	1263,60
262,86	1261,55
263,08	1273,84
263,30	1310,70
263,51	1259,50
263,73	1255,40
263,95	1249,26
264,16	1263,60
264,38	1216,49
264,60	1220,59
264,81	1286,12
265,03	1279,98
265,25	1322,99
265,46	1257,45
265,68	1206,25
265,89	1265,64
266,11	1269,74
266,33	1265,64
266,54	1236,97
266,76	1261,55
266,98	1226,73
267,19	1232,88
267,41	1275,88
267,62	1247,21
267,84	1316,84
268,06	1267,69
268,27	1267,69
268,49	1210,35
268,70	1294,32
268,92	1292,27
269,14	1234,93
269,35	1306,60
269,57	1249,26
269,79	1196,01
270,00	1282,03
270,22	1275,88
270,43	1286,12
270,65	1257,45
270,87	1286,12
271,08	1232,88
271,30	1241,07
271,51	1298,41
271,73	1298,41
271,95	1279,98
272,16	1345,52
272,38	1288,17
272,59	1255,40
272,81	1325,04
273,02	1183,73
273,24	1271,79
273,46	1300,46
273,67	1241,07
273,89	1255,40
274,10	1261,55
274,32	1277,93
274,54	1259,50
274,75	1216,49
274,97	1243,12
275,18	1249,26
275,40	1316,84
275,61	1228,78
275,83	1288,17
276,05	1212,40
276,26	1200,11
276,48	1386,47
276,69	1218,54
276,91	1290,22
277,12	1298,41
277,34	1224,69
277,55	1282,03
277,77	1245,16
277,99	1187,82
278,20	1179,63
278,42	1286,12
278,63	1282,03
278,85	1298,41
279,06	1273,84
279,28	1290,22
279,49	1275,88
279,71	1239,02
279,93	1292,27
280,14	1273,84
280,36	1267,69
280,57	1247,21
280,79	1290,22
281,00	1282,03
281,22	1267,69
281,43	1267,69
281,65	1232,88
281,86	1296,36
282,08	1273,84
282,29	1304,56
282,51	1177,58
282,73	1296,36
282,94	1288,17
283,16	1288,17
283,37	1224,69
283,59	1300,46
283,80	1308,65
284,02	1271,79
284,23	1308,65
284,45	1263,60
284,66	1302,51
284,88	1249,26
285,09	1236,97
285,31	1255,40
285,52	1247,21
285,74	1329,13
285,95	1234,93
286,17	1296,36
286,38	1232,88
286,60	1279,98
286,81	1247,21
287,03	1216,49
287,24	1239,02
287,46	1263,60
287,67	1259,50
287,89	1251,31
288,10	1265,64
288,32	1249,26
288,53	1253,36
288,75	1259,50
288,96	1271,79
289,18	1253,36
289,39	1347,56
289,61	1265,64
289,82	1388,52
290,04	1320,94
290,25	1236,97
290,47	1255,40
290,68	1249,26
290,90	1298,41
291,11	1318,89
291,33	1239,02
291,54	1368,04
291,76	1263,60
291,97	1310,70
292,18	1267,69
292,40	1232,88
292,61	1306,60
292,83	1298,41
293,04	1247,21
293,26	1263,60
293,47	1222,64
293,69	1226,73
293,90	1337,32
294,12	1230,83
294,33	1263,60
294,55	1255,40
294,76	1261,55
294,97	1269,74
295,19	1236,97
295,40	1224,69
295,62	1316,84
295,83	1255,40
296,05	1282,03
296,26	1290,22
296,48	1320,94
296,69	1261,55
296,90	1279,98
297,12	1216,49
297,33	1206,25
297,55	1210,35
297,76	1241,07
297,98	1296,36
298,19	1241,07
298,41	1306,60
298,62	1243,12
298,83	1212,40
299,05	1304,56
299,26	1294,32
299,48	1234,93
299,69	1232,88
299,90	1222,64
300,12	1212,40
300,33	1259,50
300,55	1286,12
300,76	1284,08
300,98	1214,45
301,19	1247,21
301,40	1261,55
301,62	1181,68
301,83	1230,83
302,05	1288,17
302,26	1271,79
302,47	1288,17
302,69	1298,41
302,90	1271,79
303,12	1187,82
303,33	1257,45
303,54	1263,60
303,76	1298,41
303,97	1224,69
304,19	1282,03
304,40	1302,51
304,61	1279,98
304,83	1273,84
305,04	1265,64
305,26	1308,65
305,47	1255,40
305,68	1318,89
305,90	1310,70
306,11	1247,21
306,33	1308,65
306,54	1302,51
306,75	1310,70
306,97	1222,64
307,18	1263,60
307,39	1214,45
307,61	1273,84
307,82	1316,84
308,04	1306,60
308,25	1226,73
308,46	1304,56
308,68	1253,36
308,89	1314,80
309,10	1271,79
309,32	1374,19
309,53	1288,17
309,74	1239,02
309,96	1236,97
310,17	1345,52
310,39	1222,64
310,60	1275,88
310,81	1261,55
311,03	1275,88
311,24	1243,12
311,45	1267,69
311,67	1282,03
311,88	1273,84
312,09	1265,64
312,31	1249,26
312,52	1247,21
312,73	1255,40
312,95	1368,04
313,16	1284,08
313,37	1273,84
313,59	1271,79
313,80	1282,03
314,01	1251,31
314,23	1296,36
314,44	1308,65
314,65	1181,68
314,87	1292,27
315,08	1312,75
315,29	1310,70
315,51	1226,73
315,72	1300,46
315,93	1290,22
316,15	1261,55
316,36	1234,93
316,57	1239,02
316,79	1181,68
317,00	1316,84
317,21	1249,26
317,43	1261,55
317,64	1300,46
317,85	1239,02
318,07	1214,45
318,28	1261,55
318,49	1214,45
318,70	1318,89
318,92	1267,69
319,13	1292,27
319,34	1208,30
319,56	1228,78
319,77	1218,54
319,98	1230,83
320,20	1193,97
320,41	1277,93
320,62	1282,03
320,83	1265,64
321,05	1265,64
321,26	1253,36
321,47	1282,03
321,69	1257,45
321,90	1273,84
322,11	1234,93
322,32	1265,64
322,54	1243,12
322,75	1290,22
322,96	1318,89
323,18	1318,89
323,39	1294,32
323,60	1275,88
323,81	1308,65
324,03	1187,82
324,24	1241,07
324,45	1284,08
324,66	1259,50
324,88	1257,45
325,09	1253,36
325,30	1310,70
325,52	1226,73
325,73	1279,98
325,94	1298,41
326,15	1333,23
326,37	1318,89
326,58	1212,40
326,79	1224,69
327,00	1196,01
327,22	1247,21
327,43	1259,50
327,64	1239,02
327,85	1263,60
328,07	1261,55
328,28	1284,08
328,49	1255,40
328,70	1224,69
328,92	1331,18
329,13	1318,89
329,34	1230,83
329,55	1335,28
329,76	1269,74
329,98	1277,93
330,19	1327,08
330,40	1257,45
330,61	1253,36
330,83	1232,88
331,04	1253,36
331,25	1159,15
331,46	1282,03
331,68	1284,08
331,89	1284,08
332,10	1298,41
332,31	1277,93
332,52	1232,88
332,74	1232,88
332,95	1239,02
333,16	1232,88
333,37	1263,60
333,58	1263,60
333,80	1271,79
334,01	1298,41
334,22	1263,60
334,43	1269,74
334,64	1214,45
334,86	1208,30
335,07	1308,65
335,28	1243,12
335,49	1263,60
335,70	1341,42
335,92	1214,45
336,13	1243,12
336,34	1277,93
336,55	1218,54
336,76	1320,94
336,98	1288,17
337,19	1273,84
337,40	1214,45
337,61	1284,08
337,82	1271,79
338,04	1331,18
338,25	1304,56
338,46	1322,99
338,67	1284,08
338,88	1234,93
339,09	1220,59
339,31	1255,40
339,52	1200,11
339,73	1267,69
339,94	1294,32
340,15	1306,60
340,36	1290,22
340,58	1269,74
340,79	1304,56
341,00	1265,64
341,21	1279,98
341,42	1302,51
341,63	1261,55
341,85	1290,22
342,06	1220,59
342,27	1224,69
342,48	1316,84
342,69	1247,21
342,90	1282,03
343,12	1243,12
343,33	1206,25
343,54	1265,64
343,75	1296,36
343,96	1290,22
344,17	1282,03
344,38	1359,85
344,60	1263,60
344,81	1273,84
345,02	1277,93
345,23	1282,03
345,44	1271,79
345,65	1263,60
345,86	1241,07
346,07	1230,83
346,29	1286,12
346,50	1308,65
346,71	1239,02
346,92	1249,26
347,13	1257,45
347,34	1263,60
347,55	1273,84
347,76	1241,07
347,98	1298,41
348,19	1210,35
348,40	1267,69
348,61	1288,17
348,82	1249,26
349,03	1269,74
349,24	1263,60
349,45	1249,26
349,66	1269,74
349,88	1314,80
350,09	1286,12
350,30	1249,26
350,51	1267,69
350,72	1251,31
350,93	1308,65
351,14	1296,36
351,35	1273,84
351,56	1230,83
351,77	1318,89
351,99	1259,50
352,20	1320,94
352,41	1236,97
352,62	1298,41
352,83	1234,93
353,04	1265,64
353,25	1228,78
353,46	1327,08
353,67	1335,28
353,88	1253,36
354,09	1230,83
354,30	1232,88
354,52	1259,50
354,73	1318,89
354,94	1239,02
355,15	1271,79
355,36	1275,88
355,57	1292,27
355,78	1296,36
355,99	1284,08
356,20	1198,06
356,41	1269,74
356,62	1335,28
356,83	1292,27
357,04	1322,99
357,25	1239,02
357,46	1259,50
357,68	1269,74
357,89	1282,03
358,10	1212,40
358,31	1296,36
358,52	1236,97
358,73	1253,36
358,94	1288,17
359,15	1275,88
359,36	1243,12
359,57	1320,94
359,78	1267,69
359,99	1273,84
360,20	1265,64
360,41	1222,64
360,62	1296,36
360,83	1273,84
361,04	1296,36
361,25	1241,07
361,46	1279,98
361,67	1259,50
361,88	1310,70
362,09	1275,88
362,30	1261,55
362,51	1298,41
362,72	1282,03
362,93	1300,46
363,14	1273,84
363,35	1253,36
363,56	1261,55
363,78	1212,40
363,99	1312,75
364,20	1279,98
364,41	1243,12
364,62	1269,74
364,83	1277,93
365,04	1232,88
365,25	1267,69
365,46	1261,55
365,67	1259,50
365,88	1298,41
366,09	1247,21
366,30	1261,55
366,51	1236,97
366,72	1236,97
366,93	1345,52
367,14	1304,56
367,35	1306,60
367,56	1282,03
367,77	1269,74
367,98	1263,60
368,18	1322,99
368,39	1279,98
368,60	1296,36
368,81	1279,98
369,02	1286,12
369,23	1204,21
369,44	1241,07
369,65	1271,79
369,86	1263,60
370,07	1302,51
370,28	1234,93
370,49	1300,46
370,70	1271,79
370,91	1314,80
371,12	1251,31
371,33	1230,83
371,54	1275,88
371,75	1294,32
371,96	1239,02
372,17	1257,45
372,38	1232,88
372,59	1286,12
372,80	1282,03
373,01	1282,03
373,22	1273,84
373,43	1337,32
373,64	1265,64
373,85	1271,79
374,06	1320,94
374,26	1331,18
374,47	1249,26
374,68	1316,84
374,89	1267,69
375,10	1261,55
375,31	1208,30
375,52	1296,36
375,73	1232,88
375,94	1267,69
376,15	1284,08
376,36	1302,51
376,57	1206,25
376,78	1265,64
376,99	1308,65
377,20	1241,07
377,40	1267,69
377,61	1355,76
377,82	1249,26
378,03	1247,21
378,24	1308,65
378,45	1271,79
378,66	1290,22
378,87	1314,80
379,08	1269,74
379,29	1302,51
379,50	1263,60
379,71	1275,88
379,91	1255,40
380,12	1304,56
380,33	1265,64
380,54	1290,22
380,75	1234,93
380,96	1249,26
381,17	1150,96
381,38	1325,04
381,59	1257,45
381,80	1269,74
382,00	1298,41
382,21	1259,50
382,42	1296,36
382,63	1202,16
382,84	1243,12
383,05	1226,73
383,26	1302,51
383,47	1251,31
383,68	1343,47
383,88	1253,36
384,09	1290,22
384,30	1247,21
384,51	1320,94
384,72	1296,36
384,93	1210,35
385,14	1308,65
385,35	1249,26
385,55	1286,12
385,76	1249,26
385,97	1368,04
386,18	1175,53
386,39	1284,08
386,60	1263,60
386,81	1316,84
387,02	1263,60
387,22	1218,54
387,43	1224,69
387,64	1239,02
387,85	1236,97
388,06	1232,88
388,27	1212,40
388,48	1302,51
388,68	1322,99
388,89	1177,58
389,10	1234,93
389,31	1279,98
389,52	1198,06
389,73	1275,88
389,93	1271,79
390,14	1325,04
390,35	1273,84
390,56	1216,49
390,77	1253,36
390,98	1232,88
391,18	1261,55
391,39	1341,42
391,60	1294,32
391,81	1271,79
392,02	1253,36
392,23	1282,03
392,43	1212,40
392,64	1284,08
392,85	1249,26
393,06	1263,60
393,27	1253,36
393,47	1284,08
393,68	1298,41
393,89	1306,60
394,10	1275,88
394,31	1228,78
394,52	1265,64
394,72	1228,78
394,93	1320,94
395,14	1267,69
395,35	1288,17
395,56	1249,26
395,76	1259,50
395,97	1314,80
396,18	1263,60
396,39	1247,21
396,60	1298,41
396,80	1245,16
397,01	1314,80
397,22	1298,41
397,43	1277,93
397,64	1234,93
397,84	1259,50
398,05	1239,02
398,26	1269,74
398,47	1251,31
398,67	1279,98
398,88	1310,70
399,09	1314,80
399,30	1331,18
399,51	1300,46
399,71	1325,04
399,92	1314,80
400,13	1228,78
400,34	1247,21
400,54	1253,36
400,75	1273,84
400,96	1298,41
401,17	1204,21
401,37	1327,08
401,58	1290,22
401,79	1294,32
402,00	1296,36
402,21	1273,84
402,41	1261,55
402,62	1253,36
402,83	1286,12
403,04	1288,17
403,24	1312,75
403,45	1181,68
403,66	1304,56
403,87	1269,74
404,07	1275,88
404,28	1249,26
404,49	1284,08
404,70	1243,12
404,90	1343,47
405,11	1261,55
405,32	1257,45
405,52	1224,69
405,73	1277,93
405,94	1306,60
406,15	1333,23
406,35	1251,31
406,56	1236,97
406,77	1224,69
406,98	1259,50
407,18	1224,69
407,39	1275,88
407,60	1236,97
407,80	1204,21
408,01	1271,79
408,22	1273,84
408,43	1222,64
408,63	1202,16
408,84	1263,60
409,05	1304,56
409,25	1341,42
409,46	1253,36
409,67	1292,27
409,88	1288,17
410,08	1345,52
410,29	1320,94
410,50	1261,55
410,70	1255,40
410,91	1331,18
411,12	1193,97
411,32	1228,78
411,53	1304,56
411,74	1284,08
411,95	1300,46
412,15	1284,08
412,36	1245,16
412,57	1300,46
412,77	1314,80
412,98	1331,18
413,19	1339,37
413,39	1257,45
413,60	1241,07
413,81	1218,54
414,01	1208,30
414,22	1267,69
414,43	1329,13
414,63	1298,41
414,84	1286,12
415,05	1232,88
415,25	1257,45
415,46	1304,56
415,67	1275,88
415,87	1288,17
416,08	1314,80
416,29	1277,93
416,49	1279,98
416,70	1253,36
416,91	1198,06
417,11	1302,51
417,32	1282,03
417,53	1234,93
417,73	1286,12
417,94	1304,56
418,15	1269,74
418,35	1220,59
418,56	1294,32
418,77	1218,54
418,97	1296,36
419,18	1316,84
419,38	1239,02
419,59	1245,16
419,80	1282,03
420,00	1234,93
420,21	1314,80
420,42	1216,49
420,62	1245,16
420,83	1308,65
421,04	1327,08
421,24	1216,49
421,45	1236,97
421,65	1218,54
421,86	1263,60
422,07	1198,06
422,27	1249,26
422,48	1236,97
422,69	1327,08
422,89	1265,64
423,10	1282,03
423,30	1206,25
423,51	1251,31
423,72	1251,31
423,92	1212,40
424,13	1296,36
424,33	1314,80
424,54	1239,02
424,75	1228,78
424,95	1292,27
425,16	1325,04
425,36	1263,60
425,57	1333,23
425,78	1243,12
425,98	1259,50
426,19	1224,69
426,39	1318,89
426,60	1284,08
426,81	1259,50
427,01	1296,36
427,22	1279,98
427,42	1345,52
427,63	1288,17
427,83	1253,36
428,04	1224,69
428,25	1191,92
428,45	1294,32
428,66	1277,93
428,86	1320,94
429,07	1282,03
429,28	1310,70
429,48	1275,88
429,69	1247,21
429,89	1267,69
430,10	1157,10
430,30	1275,88
430,51	1245,16
430,71	1251,31
430,92	1353,71
431,13	1179,63
431,33	1282,03
431,54	1304,56
431,74	1212,40
431,95	1296,36
432,15	1273,84
432,36	1310,70
432,56	1277,93
432,77	1275,88
432,98	1249,26
433,18	1292,27
433,39	1241,07
433,59	1277,93
433,80	1353,71
434,00	1255,40
434,21	1257,45
434,41	1261,55
434,62	1296,36
434,82	1286,12
435,03	1277,93
435,23	1290,22
435,44	1212,40
435,64	1296,36
435,85	1277,93
436,06	1224,69
436,26	1263,60
436,47	1261,55
436,67	1259,50
436,88	1306,60
437,08	1322,99
437,29	1288,17
437,49	1269,74
437,70	1265,64
437,90	1329,13
438,11	1306,60
438,31	1259,50
438,52	1212,40
438,72	1290,22
438,93	1341,42
439,13	1333,23
439,34	1277,93
439,54	1296,36
439,75	1261,55
439,95	1298,41
440,16	1218,54
440,36	1273,84
440,57	1253,36
440,77	1298,41
440,98	1337,32
441,18	1282,03
441,39	1275,88
441,59	1331,18
441,80	1247,21
442,00	1277,93
442,21	1339,37
442,41	1296,36
442,62	1284,08
442,82	1255,40
443,02	1288,17
443,23	1357,80
443,43	1329,13
443,64	1290,22
443,84	1273,84
444,05	1263,60
444,25	1234,93
444,46	1261,55
444,66	1286,12
444,87	1288,17
445,07	1277,93
445,28	1296,36
445,48	1230,83
445,69	1314,80
445,89	1333,23
446,09	1275,88
446,30	1245,16
446,50	1230,83
446,71	1290,22
446,91	1220,59
447,12	1312,75
447,32	1318,89
447,53	1253,36
447,73	1306,60
447,93	1265,64
448,14	1251,31
448,34	1243,12
448,55	1247,21
448,75	1267,69
448,96	1302,51
449,16	1210,35
449,36	1269,74
449,57	1329,13
449,77	1282,03
449,98	1255,40
450,18	1327,08
450,39	1267,69
450,59	1259,50
450,79	1322,99
451,00	1255,40
451,20	1308,65
451,41	1282,03
451,61	1259,50
451,81	1312,75
452,02	1247,21
452,22	1214,45
452,43	1239,02
452,63	1275,88
452,84	1273,84
453,04	1310,70
453,24	1351,66
453,45	1245,16
453,65	1318,89
453,86	1263,60
454,06	1275,88
454,26	1261,55
454,47	1329,13
454,67	1304,56
454,87	1320,94
455,08	1339,37
455,28	1277,93
455,49	1335,28
455,69	1239,02
455,89	1267,69
456,10	1298,41
456,30	1265,64
456,51	1284,08
456,71	1296,36
456,91	1306,60
457,12	1216,49
457,32	1298,41
457,52	1271,79
457,73	1333,23
457,93	1302,51
458,14	1271,79
458,34	1249,26
458,54	1304,56
458,75	1331,18
458,95	1267,69
459,15	1228,78
459,36	1290,22
459,56	1310,70
459,76	1230,83
459,97	1245,16
460,17	1247,21
460,37	1331,18
460,58	1292,27
460,78	1234,93
460,99	1282,03
461,19	1298,41
461,39	1243,12
461,60	1286,12
461,80	1310,70
462,00	1245,16
462,21	1236,97
462,41	1214,45
462,61	1306,60
462,82	1300,46
463,02	1265,64
463,22	1290,22
463,43	1263,60
463,63	1265,64
463,83	1314,80
464,04	1333,23
464,24	1234,93
464,44	1255,40
464,64	1325,04
464,85	1259,50
465,05	1269,74
465,25	1290,22
465,46	1314,80
465,66	1228,78
465,86	1191,92
466,07	1298,41
466,27	1269,74
466,47	1269,74
466,68	1243,12
466,88	1185,77
467,08	1329,13
467,29	1228,78
467,49	1322,99
467,69	1282,03
467,89	1269,74
468,10	1271,79
468,30	1265,64
468,50	1271,79
468,71	1247,21
468,91	1331,18
469,11	1316,84
469,31	1232,88
469,52	1257,45
469,72	1269,74
469,92	1294,32
470,13	1273,84
470,33	1249,26
470,53	1329,13
470,73	1271,79
470,94	1265,64
471,14	1271,79
471,34	1222,64
471,54	1212,40
471,75	1234,93
471,95	1271,79
472,15	1359,85
472,36	1269,74
472,56	1261,55
472,76	1241,07
472,96	1265,64
473,17	1259,50
473,37	1288,17
473,57	1314,80
473,77	1232,88
473,98	1265,64
474,18	1265,64
474,38	1245,16
474,58	1253,36
474,79	1310,70
474,99	1290,22
475,19	1193,97
475,39	1212,40
475,60	1298,41
475,80	1312,75
476,00	1308,65
476,20	1224,69
476,41	1294,32
476,61	1265,64
476,81	1267,69
477,01	1257,45
477,21	1314,80
477,42	1279,98
477,62	1220,59
477,82	1339,37
478,02	1173,49
478,23	1294,32
478,43	1259,50
478,63	1255,40
478,83	1298,41
479,03	1320,94
479,24	1286,12
479,44	1241,07
479,64	1282,03
479,84	1300,46
480,04	1257,45
480,25	1298,41
480,45	1277,93
480,65	1261,55
480,85	1249,26
481,06	1265,64
481,26	1261,55
481,46	1298,41
481,66	1220,59
481,86	1265,64
482,06	1279,98
482,27	1257,45
482,47	1224,69
482,67	1308,65
482,87	1353,71
483,07	1298,41
483,28	1329,13
483,48	1306,60
483,68	1306,60
483,88	1282,03
484,08	1337,32
484,29	1236,97
484,49	1306,60
484,69	1288,17
484,89	1263,60
485,09	1316,84
485,29	1310,70
485,50	1275,88
485,70	1234,93
485,90	1331,18
486,10	1239,02
486,30	1249,26
486,50	1271,79
486,71	1304,56
486,91	1306,60
487,11	1257,45
487,31	1241,07
487,51	1253,36
487,71	1222,64
487,91	1288,17
488,12	1302,51
488,32	1298,41
488,52	1228,78
488,72	1298,41
488,92	1247,21
489,12	1200,11
489,32	1257,45
489,53	1355,76
489,73	1210,35
489,93	1255,40
490,13	1239,02
490,33	1269,74
490,53	1271,79
490,73	1331,18
490,94	1296,36
491,14	1271,79
491,34	1298,41
491,54	1282,03
491,74	1282,03
491,94	1204,21
492,14	1296,36
492,34	1263,60
492,54	1302,51
492,75	1208,30
492,95	1343,47
493,15	1282,03
493,35	1218,54
493,55	1249,26
493,75	1259,50
493,95	1286,12
494,15	1302,51
494,35	1243,12
494,56	1310,70
494,76	1333,23
494,96	1179,63
495,16	1316,84
495,36	1294,32
495,56	1275,88
495,76	1228,78
495,96	1257,45
496,16	1175,53
496,36	1298,41
496,56	1322,99
496,77	1288,17
496,97	1269,74
497,17	1335,28
497,37	1257,45
497,57	1232,88
497,77	1288,17
497,97	1292,27
498,17	1191,92
498,37	1261,55
498,57	1249,26
498,77	1220,59
498,97	1230,83
499,17	1224,69
499,38	1318,89
499,58	1310,70
499,78	1239,02
499,98	1343,47
500,18	1251,31
500,38	1265,64
500,58	1339,37
500,78	1271,79
500,98	1288,17
501,18	1247,21
501,38	1263,60
501,58	1259,50
501,78	1257,45
501,98	1257,45
502,18	1202,16
502,38	1216,49
502,58	1228,78
502,78	1241,07
502,98	1261,55
503,18	1241,07
503,38	1265,64
503,59	1259,50
503,79	1294,32
503,99	1296,36
504,19	1279,98
504,39	1290,22
504,59	1239,02
504,79	1306,60
504,99	1318,89
505,19	1308,65
505,39	1249,26
505,59	1234,93
505,79	1286,12
505,99	1273,84
506,19	1261,55
506,39	1335,28
506,59	1216,49
506,79	1267,69
506,99	1288,17
507,19	1271,79
507,39	1275,88
507,59	1247,21
507,79	1271,79
507,99	1259,50
508,19	1204,21
508,39	1298,41
508,59	1298,41
508,79	1245,16
508,99	1191,92
509,19	1333,23
509,39	1333,23
509,59	1269,74
509,79	1296,36
509,99	1251,31
510,19	1265,64
510,39	1290,22
510,59	1255,40
510,79	1255,40
510,99	1236,97
511,19	1292,27
511,39	1294,32
511,59	1255,40
511,79	1226,73
511,99	1300,46
512,19	1306,60
512,38	1241,07
512,58	1277,93
512,78	1273,84
512,98	1316,84
513,18	1372,14
513,38	1275,88
513,58	1255,40
513,78	1261,55
513,98	1296,36
514,18	1247,21
514,38	1302,51
514,58	1329,13
514,78	1312,75
514,98	1263,60
515,18	1284,08
515,38	1290,22
515,58	1320,94
515,78	1232,88
515,98	1232,88
516,18	1253,36
516,38	1267,69
516,57	1224,69
516,77	1226,73
516,97	1306,60
517,17	1265,64
517,37	1271,79
517,57	1339,37
517,77	1374,19
517,97	1265,64
518,17	1265,64
518,37	1284,08
518,57	1310,70
518,77	1261,55
518,97	1279,98
519,16	1359,85
519,36	1343,47
519,56	1265,64
519,76	1296,36
519,96	1269,74
520,16	1247,21
520,36	1292,27
520,56	1273,84
520,76	1290,22
520,96	1284,08
521,16	1263,60
521,35	1271,79
521,55	1296,36
521,75	1288,17
521,95	1306,60
522,15	1230,83
522,35	1269,74
522,55	1222,64
522,75	1273,84
522,95	1304,56
523,14	1339,37
523,34	1251,31
523,54	1243,12
523,74	1249,26
523,94	1255,40
524,14	1277,93
524,34	1292,27
524,54	1286,12
524,73	1337,32
524,93	1290,22
525,13	1292,27
525,33	1286,12
525,53	1239,02
525,73	1290,22
525,93	1302,51
526,13	1224,69
526,32	1331,18
526,52	1308,65
526,72	1292,27
526,92	1298,41
527,12	1206,25
527,32	1232,88
527,52	1271,79
527,71	1357,80
527,91	1296,36
528,11	1267,69
528,31	1279,98
528,51	1259,50
528,71	1300,46
528,90	1210,35
529,10	1286,12
529,30	1288,17
529,50	1279,98
529,70	1298,41
529,90	1245,16
530,09	1263,60
530,29	1327,08
530,49	1232,88
530,69	1322,99
530,89	1282,03
531,09	1357,80
531,28	1279,98
531,48	1222,64
531,68	1320,94
531,88	1312,75
532,08	1286,12
532,28	1239,02
532,47	1329,13
532,67	1216,49
532,87	1269,74
533,07	1327,08
533,27	1343,47
533,46	1265,64
533,66	1337,32
533,86	1239,02
534,06	1271,79
534,26	1335,28
534,45	1310,70
534,65	1282,03
534,85	1279,98
535,05	1251,31
535,25	1253,36
535,44	1294,32
535,64	1359,85
535,84	1241,07
536,04	1312,75
536,24	1265,64
536,43	1314,80
536,63	1241,07
536,83	1279,98
537,03	1286,12
537,22	1241,07
537,42	1302,51
537,62	1271,79
537,82	1271,79
538,02	1302,51
538,21	1277,93
538,41	1294,32
538,61	1259,50
538,81	1302,51
539,00	1253,36
539,20	1251,31
539,40	1286,12
539,60	1284,08
539,79	1279,98
539,99	1302,51
540,19	1249,26
540,39	1288,17
540,58	1257,45
540,78	1255,40
540,98	1245,16
541,18	1318,89
541,37	1306,60
541,57	1265,64
541,77	1298,41
541,97	1306,60
542,16	1292,27
542,36	1269,74
542,56	1253,36
542,76	1310,70
542,95	1322,99
543,15	1312,75
543,35	1282,03
543,54	1263,60
543,74	1316,84
543,94	1279,98
544,14	1279,98
544,33	1331,18
544,53	1282,03
544,73	1296,36
544,93	1286,12
545,12	1312,75
545,32	1288,17
545,52	1196,01
545,71	1255,40
545,91	1343,47
546,11	1183,73
546,30	1286,12
546,50	1304,56
546,70	1298,41
546,90	1282,03
547,09	1277,93
547,29	1298,41
547,49	1273,84
547,68	1277,93
547,88	1275,88
548,08	1265,64
548,27	1290,22
548,47	1292,27
548,67	1247,21
548,87	1282,03
549,06	1255,40
549,26	1245,16
549,46	1314,80
549,65	1310,70
549,85	1300,46
550,05	1304,56
550,24	1271,79
550,44	1234,93
550,64	1279,98
550,83	1314,80
551,03	1298,41
551,23	1327,08
551,42	1269,74
551,62	1353,71
551,82	1304,56
552,01	1339,37
552,21	1267,69
552,41	1277,93
552,60	1282,03
552,80	1279,98
553,00	1335,28
553,19	1232,88
553,39	1320,94
553,59	1347,56
553,78	1224,69
553,98	1288,17
554,17	1322,99
554,37	1310,70
554,57	1314,80
554,76	1282,03
554,96	1257,45
555,16	1316,84
555,35	1329,13
555,55	1318,89
555,75	1241,07
555,94	1290,22
556,14	1322,99
556,33	1310,70
556,53	1282,03
556,73	1247,21
556,92	1226,73
557,12	1277,93
557,32	1222,64
557,51	1329,13
557,71	1312,75
557,90	1273,84
558,10	1298,41
558,30	1314,80
558,49	1282,03
558,69	1306,60
558,88	1257,45
559,08	1279,98
559,28	1306,60
559,47	1279,98
559,67	1341,42
559,86	1202,16
560,06	1306,60
560,26	1236,97
560,45	1318,89
560,65	1310,70
560,84	1347,56
561,04	1372,14
561,24	1247,21
561,43	1282,03
561,63	1368,04
561,82	1296,36
562,02	1253,36
562,22	1337,32
562,41	1255,40
562,61	1310,70
562,80	1312,75
563,00	1284,08
563,19	1306,60
563,39	1341,42
563,59	1277,93
563,78	1292,27
563,98	1335,28
564,17	1271,79
564,37	1306,60
564,56	1245,16
564,76	1234,93
564,96	1304,56
565,15	1271,79
565,35	1273,84
565,54	1189,87
565,74	1249,26
565,93	1300,46
566,13	1279,98
566,32	1277,93
566,52	1249,26
566,71	1241,07
566,91	1249,26
567,11	1253,36
567,30	1296,36
567,50	1292,27
567,69	1308,65
567,89	1267,69
568,08	1349,61
568,28	1337,32
568,47	1286,12
568,67	1288,17
568,86	1282,03
569,06	1282,03
569,25	1271,79
569,45	1292,27
569,64	1292,27
569,84	1273,84
570,04	1337,32
570,23	1257,45
570,43	1234,93
570,62	1355,76
570,82	1284,08
571,01	1288,17
571,21	1329,13
571,40	1279,98
571,60	1247,21
571,79	1329,13
571,99	1304,56
572,18	1302,51
572,38	1255,40
572,57	1271,79
572,77	1322,99
572,96	1277,93
573,16	1327,08
573,35	1349,61
573,55	1265,64
573,74	1288,17
573,94	1216,49
574,13	1286,12
574,33	1314,80
574,52	1236,97
574,71	1312,75
574,91	1292,27
575,10	1316,84
575,30	1257,45
575,49	1234,93
575,69	1318,89
575,88	1273,84
576,08	1210,35
576,27	1300,46
576,47	1290,22
576,66	1206,25
576,86	1290,22
577,05	1269,74
577,25	1247,21
577,44	1329,13
577,64	1337,32
577,83	1308,65
578,02	1296,36
578,22	1327,08
578,41	1288,17
578,61	1265,64
578,80	1290,22
579,00	1312,75
579,19	1290,22
579,39	1249,26
579,58	1353,71
579,77	1230,83
579,97	1206,25
580,16	1302,51
580,36	1271,79
580,55	1310,70
580,75	1318,89
580,94	1257,45
581,13	1273,84
581,33	1228,78
581,52	1282,03
581,72	1265,64
581,91	1306,60
582,11	1308,65
582,30	1286,12
582,49	1306,60
582,69	1312,75
582,88	1294,32
583,08	1259,50
583,27	1286,12
583,47	1208,30
583,66	1236,97
583,85	1288,17
584,05	1353,71
584,24	1255,40
584,44	1206,25
584,63	1296,36
584,82	1261,55
585,02	1294,32
585,21	1208,30
585,41	1310,70
585,60	1316,84
585,79	1294,32
585,99	1310,70
586,18	1275,88
586,37	1300,46
586,57	1302,51
586,76	1277,93
586,96	1222,64
587,15	1308,65
587,34	1290,22
587,54	1296,36
587,73	1241,07
587,93	1265,64
588,12	1353,71
588,31	1263,60
588,51	1294,32
588,70	1239,02
588,89	1253,36
589,09	1288,17
589,28	1263,60
589,47	1220,59
589,67	1265,64
589,86	1247,21
590,06	1249,26
590,25	1345,52
590,44	1212,40
590,64	1288,17
590,83	1288,17
591,02	1288,17
591,22	1275,88
591,41	1247,21
591,60	1279,98
591,80	1216,49
591,99	1296,36
592,18	1279,98
592,38	1279,98
592,57	1216,49
592,76	1277,93
592,96	1302,51
593,15	1296,36
593,34	1261,55
593,54	1220,59
593,73	1257,45
593,92	1355,76
594,12	1314,80
594,31	1232,88
594,50	1265,64
594,70	1288,17
594,89	1247,21
595,08	1271,79
595,28	1325,04
595,47	1320,94
595,66	1337,32
595,86	1284,08
596,05	1345,52
596,24	1277,93
596,43	1316,84
596,63	1279,98
596,82	1228,78
597,01	1269,74
597,21	1247,21
597,40	1329,13
597,59	1347,56
597,79	1261,55
597,98	1224,69
598,17	1302,51
598,36	1355,76
598,56	1261,55
598,75	1263,60
598,94	1314,80
599,14	1318,89
599,33	1271,79
599,52	1370,09
599,71	1189,87
599,91	1296,36
600,10	1314,80
600,29	1251,31
600,48	1292,27
600,68	1277,93
600,87	1347,56
601,06	1294,32
601,26	1282,03
601,45	1243,12
601,64	1288,17
601,83	1265,64
602,03	1179,63
602,22	1251,31
602,41	1273,84
602,60	1239,02
602,80	1343,47
602,99	1316,84
603,18	1257,45
603,37	1298,41
603,57	1333,23
603,76	1349,61
603,95	1322,99
604,14	1329,13
604,34	1273,84
604,53	1259,50
604,72	1288,17
604,91	1298,41
605,10	1277,93
605,30	1239,02
605,49	1279,98
605,68	1269,74
605,87	1308,65
606,07	1255,40
606,26	1239,02
606,45	1322,99
606,64	1267,69
606,84	1308,65
607,03	1249,26
607,22	1265,64
607,41	1200,11
607,60	1308,65
607,80	1339,37
607,99	1304,56
608,18	1257,45
608,37	1214,45
608,56	1351,66
608,76	1314,80
608,95	1279,98
609,14	1249,26
609,33	1265,64
609,52	1279,98
609,72	1327,08
609,91	1316,84
610,10	1325,04
610,29	1282,03
610,48	1245,16
610,68	1255,40
610,87	1267,69
611,06	1273,84
611,25	1290,22
611,44	1312,75
611,63	1226,73
611,83	1333,23
612,02	1320,94
612,21	1275,88
612,40	1316,84
612,59	1249,26
612,79	1284,08
612,98	1269,74
613,17	1290,22
613,36	1259,50
613,55	1259,50
613,74	1298,41
613,93	1304,56
614,13	1329,13
614,32	1255,40
614,51	1296,36
614,70	1331,18
614,89	1310,70
615,08	1296,36
615,28	1329,13
615,47	1255,40
615,66	1318,89
615,85	1310,70
616,04	1255,40
616,23	1243,12
616,42	1292,27
616,62	1292,27
616,81	1294,32
617,00	1284,08
617,19	1275,88
617,38	1232,88
617,57	1318,89
617,76	1273,84
617,95	1290,22
618,15	1253,36
618,34	1314,80
618,53	1333,23
618,72	1296,36
618,91	1318,89
619,10	1271,79
619,29	1310,70
619,48	1277,93
619,68	1259,50
619,87	1232,88
620,06	1292,27
620,25	1282,03
620,44	1337,32
620,63	1282,03
620,82	1322,99
621,01	1394,67
621,20	1304,56
621,39	1325,04
621,59	1320,94
621,78	1239,02
621,97	1290,22
622,16	1282,03
622,35	1304,56
622,54	1296,36
622,73	1314,80
622,92	1263,60
623,11	1269,74
623,30	1347,56
623,49	1318,89
623,68	1331,18
623,88	1335,28
624,07	1316,84
624,26	1327,08
624,45	1290,22
624,64	1228,78
624,83	1327,08
625,02	1302,51
625,21	1290,22
625,40	1275,88
625,59	1286,12
625,78	1267,69
625,97	1257,45
626,16	1271,79
626,35	1302,51
626,54	1236,97
626,74	1277,93
626,93	1286,12
627,12	1253,36
627,31	1292,27
627,50	1247,21
627,69	1306,60
627,88	1265,64
628,07	1327,08
628,26	1394,67
628,45	1304,56
628,64	1314,80
628,83	1327,08
629,02	1322,99
629,21	1247,21
629,40	1273,84
629,59	1298,41
629,78	1243,12
629,97	1273,84
630,16	1347,56
630,35	1261,55
630,54	1271,79
630,73	1261,55
630,92	1300,46
631,11	1302,51
631,30	1341,42
631,49	1363,95
631,68	1478,63
631,87	3100,62
632,06	8253,31
632,25	14888,73
632,44	26621,55
632,63	43007,34
632,82	45483,34
633,01	21012,16
633,20	8398,72
633,39	5550,00
633,58	3610,57
633,77	2459,61
633,96	2234,33
634,15	2301,92
634,34	2052,06
634,53	1800,16
634,72	1882,08
634,91	1689,57
635,10	1699,81
635,29	1634,28
635,48	1587,18
635,67	1564,65
635,86	1499,11
636,05	1492,97
636,24	1458,15
636,43	1546,22
636,62	1470,44
636,81	1456,11
637,00	1355,76
637,19	1370,09
637,38	1445,87
637,57	1439,72
637,76	1341,42
637,95	1411,05
638,14	1329,13
638,33	1349,61
638,52	1363,95
638,71	1329,13
638,89	1325,04
639,08	1230,83
639,27	1312,75
639,46	1257,45
639,65	1339,37
639,84	1298,41
640,03	1261,55
640,22	1269,74
640,41	1331,18
640,60	1339,37
640,79	1257,45
640,98	1292,27
641,17	1275,88
641,36	1355,76
641,55	1306,60
641,74	1257,45
641,92	1255,40
642,11	1257,45
642,30	1298,41
642,49	1331,18
642,68	1245,16
642,87	1249,26
643,06	1269,74
643,25	1284,08
643,44	1234,93
643,63	1265,64
643,82	1341,42
644,00	1263,60
644,19	1349,61
644,38	1335,28
644,57	1318,89
644,76	1204,21
644,95	1263,60
645,14	1329,13
645,33	1282,03
645,52	1316,84
645,71	1288,17
645,89	1288,17
646,08	1261,55
646,27	1273,84
646,46	1308,65
646,65	1175,53
646,84	1312,75
647,03	1292,27
647,22	1304,56
647,40	1202,16
647,59	1347,56
647,78	1228,78
647,97	1198,06
648,16	1226,73
648,35	1296,36
648,54	1333,23
648,73	1333,23
648,91	1222,64
649,10	1224,69
649,29	1269,74
649,48	1265,64
649,67	1271,79
649,86	1261,55
650,05	1310,70
650,23	1325,04
650,42	1183,73
650,61	1288,17
650,80	1243,12
650,99	1214,45
651,18	1296,36
651,36	1222,64
651,55	1296,36
651,74	1343,47
651,93	1267,69
652,12	1226,73
652,31	1284,08
652,49	1339,37
652,68	1239,02
652,87	1325,04
653,06	1322,99
653,25	1275,88
653,44	1255,40
653,62	1255,40
653,81	1318,89
654,00	1300,46
654,19	1290,22
654,38	1304,56
654,56	1263,60
654,75	1320,94
654,94	1232,88
655,13	1263,60
655,32	1284,08
655,51	1304,56
655,69	1296,36
655,88	1327,08
656,07	1282,03
656,26	1310,70
656,45	1259,50
656,63	1249,26
656,82	1212,40
657,01	1288,17
657,20	1335,28
657,38	1277,93
657,57	1261,55
657,76	1339,37
657,95	1226,73
658,14	1191,92
658,32	1236,97
658,51	1243,12
658,70	1224,69
658,89	1296,36
659,08	1271,79
659,26	1288,17
659,45	1304,56
659,64	1306,60
659,83	1290,22
660,01	1265,64
660,20	1255,40
660,39	1261,55
660,58	1345,52
660,76	1236,97
660,95	1210,35
661,14	1314,80
661,33	1345,52
661,51	1196,01
661,70	1271,79
661,89	1329,13
662,08	1255,40
662,26	1220,59
662,45	1241,07
662,64	1345,52
662,83	1267,69
663,01	1234,93
663,20	1150,96
663,39	1290,22
663,58	1279,98
663,76	1290,22
663,95	1218,54
664,14	1255,40
664,32	1247,21
664,51	1337,32
664,70	1282,03
664,89	1275,88
665,07	1277,93
665,26	1243,12
665,45	1251,31
665,64	1275,88
665,82	1290,22
666,01	1255,40
666,20	1259,50
666,38	1269,74
666,57	1292,27
666,76	1300,46
666,95	1226,73
667,13	1202,16
667,32	1300,46
667,51	1239,02
667,69	1271,79
667,88	1292,27
668,07	1302,51
668,25	1282,03
668,44	1308,65
668,63	1300,46
668,81	1259,50
669,00	1298,41
669,19	1277,93
669,38	1265,64
669,56	1282,03
669,75	1316,84
669,94	1396,71
670,12	1259,50
670,31	1333,23
670,50	1335,28
670,68	1322,99
670,87	1308,65
671,06	1273,84
671,24	1216,49
671,43	1249,26
671,62	1296,36
671,80	1269,74
671,99	1277,93
672,18	1253,36
672,36	1312,75
672,55	1316,84
672,74	1247,21
672,92	1273,84
673,11	1290,22
673,29	1232,88
673,48	1226,73
673,67	1322,99
673,85	1327,08
674,04	1314,80
674,23	1255,40
674,41	1273,84
674,60	1239,02
674,79	1265,64
674,97	1282,03
675,16	1232,88
675,34	1228,78
675,53	1222,64
675,72	1228,78
675,90	1294,32
676,09	1251,31
676,28	1290,22
676,46	1304,56
676,65	1298,41
676,83	1200,11
677,02	1320,94
677,21	1335,28
677,39	1271,79
677,58	1226,73
677,77	1316,84
677,95	1273,84
678,14	1239,02
678,32	1292,27
678,51	1320,94
678,70	1282,03
678,88	1290,22
679,07	1269,74
679,25	1292,27
679,44	1208,30
679,63	1269,74
679,81	1333,23
680,00	1277,93
680,18	1345,52
680,37	1277,93
680,55	1292,27
680,74	1314,80
680,93	1167,34
681,11	1241,07
681,30	1222,64
681,48	1277,93
681,67	1216,49
681,85	1277,93
682,04	1292,27
682,23	1257,45
682,41	1288,17
682,60	1355,76
682,78	1230,83
682,97	1273,84
683,15	1368,04
683,34	1310,70
683,53	1273,84
683,71	1257,45
683,90	1310,70
684,08	1302,51
684,27	1282,03
684,45	1259,50
684,64	1267,69
684,82	1308,65
685,01	1282,03
685,19	1302,51
685,38	1224,69
685,57	1322,99
685,75	1288,17
685,94	1255,40
686,12	1263,60
686,31	1206,25
686,49	1337,32
686,68	1388,52
686,86	1220,59
687,05	1163,25
687,23	1245,16
687,42	1284,08
687,60	1273,84
687,79	1249,26
687,97	1267,69
688,16	1265,64
688,34	1296,36
688,53	1331,18
688,71	1271,79
688,90	1263,60
689,08	1282,03
689,27	1255,40
689,45	1284,08
689,64	1353,71
689,82	1331,18
690,01	1271,79
690,19	1286,12
690,38	1253,36
690,56	1259,50
690,75	1277,93
690,93	1216,49
691,12	1284,08
691,30	1290,22
691,49	1263,60
691,67	1253,36
691,86	1275,88
692,04	1298,41
692,23	1343,47
692,41	1267,69
692,60	1241,07
692,78	1202,16
692,97	1275,88
693,15	1306,60
693,34	1251,31
693,52	1282,03
693,71	1290,22
693,89	1265,64
694,08	1265,64
694,26	1228,78
694,44	1251,31
694,63	1232,88
694,81	1247,21
695,00	1275,88
695,18	1236,97
695,37	1331,18
695,55	1200,11
695,74	1296,36
695,92	1273,84
696,10	1259,50
696,29	1322,99
696,47	1253,36
696,66	1243,12
696,84	1265,64
697,03	1224,69
697,21	1288,17
697,40	1347,56
697,58	1232,88
697,76	1243,12
697,95	1337,32
698,13	1318,89
698,32	1284,08
698,50	1310,70
698,68	1376,24
698,87	1230,83
699,05	1241,07
699,24	1216,49
699,42	1245,16
699,61	1222,64
699,79	1273,84
699,97	1232,88
700,16	1251,31
700,34	1202,16
700,53	1259,50
700,71	1300,46
700,89	1243,12
701,08	1288,17
701,26	1306,60
701,45	1267,69
701,63	1241,07
701,81	1275,88
702,00	1290,22
702,18	1322,99
702,37	1226,73
702,55	1239,02
702,73	1245,16
702,92	1253,36
703,10	1314,80
703,28	1288,17
703,47	1261,55
703,65	1335,28
703,84	1241,07
704,02	1402,86
704,20	1279,98
704,39	1216,49
704,57	1216,49
704,75	1265,64
704,94	1261,55
705,12	1247,21
705,30	1253,36
705,49	1196,01
705,67	1273,84
705,86	1216,49
706,04	1290,22
706,22	1300,46
706,41	1208,30
706,59	1204,21
706,77	1277,93
706,96	1302,51
707,14	1255,40
707,32	1325,04
707,51	1208,30
707,69	1185,77
707,87	1236,97
708,06	1306,60
708,24	1263,60
708,42	1255,40
708,61	1288,17
708,79	1247,21
708,97	1331,18
709,16	1308,65
709,34	1277,93
709,52	1239,02
709,71	1296,36
709,89	1273,84
710,07	1275,88
710,26	1239,02
710,44	1224,69
710,62	1249,26
710,80	1292,27
710,99	1277,93
711,17	1302,51
711,35	1267,69
711,54	1302,51
711,72	1349,61
711,90	1273,84
712,09	1277,93
712,27	1251,31
712,45	1241,07
712,63	1259,50
712,82	1222,64
713,00	1257,45
713,18	1290,22
713,37	1257,45
713,55	1302,51
713,73	1318,89
713,91	1286,12
714,10	1304,56
714,28	1292,27
714,46	1304,56
714,65	1265,64
714,83	1259,50
715,01	1277,93
715,19	1226,73
715,38	1320,94
715,56	1183,73
715,74	1288,17
715,92	1222,64
716,11	1228,78
716,29	1279,98
716,47	1150,96
716,65	1255,40
716,84	1230,83
717,02	1202,16
717,20	1204,21
717,38	1261,55
717,57	1353,71
717,75	1193,97
717,93	1271,79
718,11	1261,55
718,30	1271,79
718,48	1265,64
718,66	1265,64
718,84	1232,88
719,03	1216,49
719,21	1210,35
719,39	1310,70
719,57	1269,74
719,75	1257,45
719,94	1296,36
720,12	1277,93
720,30	1279,98
720,48	1255,40
720,67	1296,36
720,85	1322,99
721,03	1241,07
721,21	1204,21
721,39	1220,59
721,58	1218,54
721,76	1245,16
721,94	1298,41
722,12	1220,59
722,30	1312,75
722,49	1298,41
722,67	1206,25
722,85	1277,93
723,03	1210,35
723,21	1249,26
723,40	1296,36
723,58	1306,60
723,76	1228,78
723,94	1298,41
724,12	1302,51
724,30	1282,03
724,49	1300,46
724,67	1308,65
724,85	1259,50
725,03	1247,21
725,21	1210,35
725,40	1208,30
725,58	1312,75
725,76	1249,26
725,94	1259,50
726,12	1279,98
726,30	1265,64
726,49	1265,64
726,67	1273,84
726,85	1277,93
727,03	1296,36
727,21	1261,55
727,39	1269,74
727,57	1279,98
727,76	1255,40
727,94	1253,36
728,12	1271,79
728,30	1263,60
728,48	1271,79
728,66	1282,03
728,84	1304,56
729,03	1277,93
729,21	1224,69
729,39	1320,94
729,57	1267,69
729,75	1241,07
729,93	1243,12
730,11	1193,97
730,30	1275,88
730,48	1218,54
730,66	1290,22
730,84	1286,12
731,02	1261,55
731,20	1286,12
731,38	1249,26
731,56	1179,63
731,74	1286,12
731,93	1218,54
732,11	1261,55
732,29	1263,60
732,47	1269,74
732,65	1234,93
732,83	1241,07
733,01	1312,75
733,19	1236,97
733,37	1314,80
733,56	1245,16
733,74	1282,03
733,92	1320,94
734,10	1239,02
734,28	1191,92
734,46	1226,73
734,64	1159,15
734,82	1265,64
735,00	1204,21
735,18	1263,60
735,36	1294,32
735,54	1251,31
735,73	1271,79
735,91	1302,51
736,09	1316,84
736,27	1306,60
736,45	1298,41
736,63	1333,23
736,81	1286,12
736,99	1300,46
737,17	1245,16
737,35	1290,22
737,53	1263,60
737,71	1200,11
737,89	1294,32
738,07	1273,84
738,25	1310,70
738,43	1251,31
738,61	1220,59
738,80	1269,74
738,98	1288,17
739,16	1271,79
739,34	1269,74
739,52	1298,41
739,70	1263,60
739,88	1259,50
740,06	1279,98
740,24	1191,92
740,42	1257,45
740,60	1189,87
740,78	1277,93
740,96	1210,35
741,14	1202,16
741,32	1292,27
741,50	1300,46
741,68	1304,56
741,86	1247,21
742,04	1329,13
742,22	1259,50
742,40	1304,56
742,58	1232,88
742,76	1298,41
742,94	1239,02
743,12	1193,97
743,30	1253,36
743,48	1204,21
743,66	1279,98
743,84	1265,64
744,02	1224,69
744,20	1267,69
744,38	1267,69
744,56	1286,12
744,74	1282,03
744,92	1259,50
745,10	1322,99
745,28	1267,69
745,46	1302,51
745,64	1304,56
745,82	1294,32
746,00	1255,40
746,18	1316,84
746,36	1277,93
746,54	1331,18
746,72	1271,79
746,90	1310,70
747,08	1181,68
747,26	1318,89
747,44	1261,55
747,62	1318,89
747,80	1245,16
747,98	1314,80
748,15	1222,64
748,33	1230,83
748,51	1298,41
748,69	1296,36
748,87	1243,12
749,05	1236,97
749,23	1282,03
749,41	1290,22
749,59	1236,97
749,77	1245,16
749,95	1306,60
750,13	1228,78
750,31	1247,21
750,49	1337,32
750,67	1341,42
750,85	1173,49
751,03	1234,93
751,20	1325,04
751,38	1329,13
751,56	1269,74
751,74	1239,02
751,92	1243,12
752,10	1263,60
752,28	1290,22
752,46	1345,52
752,64	1249,26
752,82	1230,83
753,00	1243,12
753,18	1263,60
753,35	1210,35
753,53	1290,22
753,71	1314,80
753,89	1216,49
754,07	1265,64
754,25	1304,56
754,43	1245,16
754,61	1265,64
754,79	1273,84
754,97	1257,45
755,14	1329,13
755,32	1249,26
755,50	1241,07
755,68	1322,99
755,86	1269,74
756,04	1277,93
756,22	1232,88
756,40	1259,50
756,57	1271,79
756,75	1282,03
756,93	1318,89
757,11	1290,22
757,29	1269,74
757,47	1300,46
757,65	1294,32
757,82	1263,60
758,00	1210,35
758,18	1261,55
758,36	1251,31
758,54	1267,69
758,72	1222,64
758,90	1273,84
759,07	1286,12
759,25	1257,45
759,43	1282,03
759,61	1292,27
759,79	1275,88
759,97	1253,36
760,15	1267,69
760,32	1157,10
760,50	1306,60
760,68	1290,22
760,86	1329,13
761,04	1245,16
761,22	1269,74
761,39	1288,17
761,57	1275,88
761,75	1265,64
761,93	1265,64
762,11	1259,50
762,28	1273,84
762,46	1204,21
762,64	1347,56
762,82	1239,02
763,00	1261,55
763,18	1265,64
763,35	1251,31
763,53	1275,88
763,71	1255,40
763,89	1259,50
764,07	1300,46
764,24	1277,93
764,42	1273,84
764,60	1320,94
764,78	1325,04
764,96	1312,75
765,13	1300,46
765,31	1241,07
765,49	1255,40
765,67	1265,64
765,84	1218,54
766,02	1306,60
766,20	1273,84
766,38	1148,91
766,56	1292,27
766,73	1214,45
766,91	1251,31
767,09	1251,31
767,27	1261,55
767,44	1329,13
767,62	1286,12
767,80	1255,40
767,98	1314,80
768,15	1320,94
768,33	1282,03
768,51	1312,75
768,69	1277,93
768,87	1245,16
769,04	1296,36
769,22	1286,12
769,40	1279,98
769,58	1302,51
769,75	1327,08
769,93	1263,60
770,11	1220,59
770,28	1239,02
770,46	1277,93
770,64	1265,64
770,82	1279,98
770,99	1316,84
771,17	1253,36
771,35	1329,13
771,53	1171,44
771,70	1267,69
771,88	1308,65
772,06	1298,41
772,23	1267,69
772,41	1232,88
772,59	1322,99
772,77	1359,85
772,94	1236,97
773,12	1304,56
773,30	1232,88
773,47	1214,45
773,65	1245,16
773,83	1282,03
774,01	1279,98
774,18	1236,97
774,36	1208,30
774,54	1269,74
774,71	1292,27
774,89	1253,36
775,07	1253,36
775,24	1284,08
775,42	1279,98
775,60	1294,32
775,78	1257,45
775,95	1267,69
776,13	1222,64
776,31	1259,50
776,48	1257,45
776,66	1241,07
776,84	1234,93
777,01	1267,69
777,19	1273,84
777,37	1263,60
777,54	1216,49
777,72	1249,26
777,90	1245,16
778,07	1288,17
778,25	1257,45
778,43	1263,60
778,60	1202,16
778,78	1304,56
778,96	1400,81
779,13	1265,64
779,31	1261,55
779,49	1292,27
779,66	1347,56
779,84	1275,88
780,01	1214,45
780,19	1339,37
780,37	1249,26
780,54	1304,56
780,72	1247,21
780,90	1275,88
781,07	1279,98
781,25	1304,56
781,43	1288,17
781,60	1314,80
781,78	1267,69
781,95	1218,54
782,13	1247,21
782,31	1275,88
782,48	1257,45
782,66	1191,92
782,83	1271,79
783,01	1249,26
783,19	1302,51
783,36	1269,74
783,54	1273,84
783,72	1290,22
783,89	1253,36
784,07	1314,80
784,24	1226,73
784,42	1261,55
784,60	1298,41
784,77	1273,84
784,95	1220,59
785,12	1320,94
785,30	1204,21
785,47	1304,56
785,65	1236,97
785,83	1247,21
786,00	1230,83
786,18	1273,84
786,35	1234,93
786,53	1232,88
786,71	1288,17
786,88	1216,49
787,06	1251,31
787,23	1296,36
787,41	1308,65
787,58	1255,40
787,76	1296,36
787,94	1341,42
788,11	1230,83
788,29	1337,32
788,46	1269,74
788,64	1245,16
788,81	1310,70
788,99	1167,34
789,16	1230,83
789,34	1339,37
789,52	1232,88
789,69	1277,93
789,87	1269,74
790,04	1236,97
790,22	1284,08
790,39	1241,07
790,57	1236,97
790,74	1286,12
790,92	1298,41
791,09	1230,83
791,27	1290,22
791,44	1265,64
791,62	1243,12
791,79	1241,07
791,97	1273,84
792,15	1304,56
792,32	1239,02
792,50	1247,21
792,67	1322,99
792,85	1368,04
793,02	1290,22
793,20	1312,75
793,37	1267,69
793,55	1251,31
793,72	1261,55
793,90	1279,98
794,07	1245,16
794,25	1257,45
794,42	1294,32
794,60	1234,93
794,77	1261,55
794,95	1230,83
795,12	1279,98
795,30	1306,60
795,47	1269,74
795,65	1320,94
795,82	1249,26
796,00	1265,64
796,17	1267,69
796,34	1263,60
796,52	1314,80
796,69	1275,88
796,87	1284,08
797,04	1267,69
797,22	1306,60
797,39	1288,17
797,57	1341,42
797,74	1286,12
797,92	1251,31
798,09	1245,16
798,27	1191,92
798,44	1214,45
798,62	1212,40
798,79	1269,74
798,96	1288,17
799,14	1228,78
799,31	1253,36
799,49	1198,06
799,66	1327,08
799,84	1263,60
800,01	1290,22
800,19	1271,79
800,36	1167,34
800,53	1232,88
800,71	1296,36
800,88	1273,84
801,06	1267,69
801,23	1257,45
801,41	1341,42
801,58	1259,50
801,75	1226,73
801,93	1261,55
802,10	1296,36
802,28	1206,25
802,45	1288,17
802,63	1284,08
802,80	1333,23
802,97	1257,45
803,15	1257,45
803,32	1284,08
803,50	1193,97
803,67	1282,03
803,84	1259,50
804,02	1343,47
804,19	1339,37
804,37	1269,74
804,54	1286,12
804,71	1216,49
804,89	1218,54
805,06	1320,94
805,24	1275,88
805,41	1253,36
805,58	1243,12
805,76	1236,97
805,93	1275,88
806,10	1277,93
806,28	1239,02
806,45	1292,27
806,63	1288,17
806,80	1279,98
806,97	1249,26
807,15	1224,69
807,32	1277,93
807,49	1298,41
807,67	1239,02
807,84	1300,46
808,01	1312,75
808,19	1243,12
808,36	1296,36
808,54	1249,26
808,71	1257,45
808,88	1294,32
809,06	1257,45
809,23	1226,73
809,40	1345,52
809,58	1267,69
809,75	1226,73
809,92	1282,03
810,10	1279,98
810,27	1271,79
810,44	1308,65
810,62	1290,22
810,79	1265,64
810,96	1259,50
811,14	1296,36
811,31	1247,21
811,48	1263,60
811,66	1306,60
811,83	1241,07
812,00	1292,27
812,18	1257,45
812,35	1245,16
812,52	1216,49
812,69	1282,03
812,87	1273,84
813,04	1251,31
813,21	1181,68
813,39	1257,45
813,56	1228,78
813,73	1333,23
813,91	1226,73
814,08	1300,46
814,25	1290,22
814,42	1183,73
814,60	1296,36
814,77	1312,75
814,94	1290,22
815,12	1263,60
815,29	1259,50
815,46	1304,56
815,63	1271,79
815,81	1308,65
815,98	1224,69
816,15	1325,04
816,33	1282,03
816,50	1265,64
816,67	1245,16
816,84	1288,17
817,02	1288,17
817,19	1265,64
817,36	1226,73
817,53	1320,94
817,71	1247,21
817,88	1286,12
818,05	1247,21
818,22	1325,04
818,40	1232,88
818,57	1265,64
818,74	1222,64
818,91	1292,27
819,09	1341,42
819,26	1320,94
819,43	1294,32
819,60	1306,60
819,78	1292,27
819,95	1286,12
820,12	1247,21
820,29	1298,41
820,47	1253,36
820,64	1218,54
820,81	1284,08
820,98	1284,08
821,15	1271,79
821,33	1241,07
821,50	1261,55
821,67	1232,88
821,84	1261,55
822,02	1277,93
822,19	1284,08
822,36	1236,97
822,53	1232,88
822,70	1312,75
822,88	1310,70
823,05	1265,64
823,22	1216,49
823,39	1351,66
823,56	1230,83
823,74	1236,97
823,91	1181,68
824,08	1282,03
824,25	1249,26
824,42	1347,56
824,60	1265,64
824,77	1232,88
824,94	1337,32
825,11	1265,64
825,28	1288,17
825,45	1257,45
825,63	1312,75
825,80	1296,36
825,97	1249,26
826,14	1249,26
826,31	1210,35
826,48	1304,56
826,66	1298,41
826,83	1253,36
827,00	1320,94
827,17	1271,79
827,34	1241,07
827,51	1249,26
827,69	1214,45
827,86	1316,84
828,03	1366,00
828,20	1269,74
828,37	1325,04
828,54	1286,12
828,71	1294,32
828,89	1265,64
829,06	1279,98
829,23	1277,93
829,40	1286,12
829,57	1316,84
829,74	1322,99
829,91	1322,99
830,09	1312,75
830,26	1265,64
830,43	1255,40
830,60	1179,63
830,77	1282,03
830,94	1247,21
831,11	1234,93
831,28	1302,51
831,46	1353,71
831,63	1277,93
831,80	1249,26
831,97	1220,59
832,14	1257,45
832,31	1300,46
832,48	1265,64
832,65	1265,64
832,82	1320,94
832,99	1273,84
833,17	1265,64
833,34	1228,78
833,51	1347,56
833,68	1236,97
833,85	1269,74
834,02	1304,56
834,19	1314,80
834,36	1255,40
834,53	1232,88
834,70	1200,11
834,87	1210,35
835,04	1312,75
835,22	1200,11
835,39	1179,63
835,56	1210,35
835,73	1214,45
835,90	1290,22
836,07	1302,51
836,24	1290,22
836,41	1265,64
836,58	1277,93
836,75	1239,02
836,92	1234,93
837,09	1277,93
837,26	1224,69
837,43	1183,73
837,60	1296,36
837,77	1196,01
837,94	1271,79
838,12	1314,80
838,29	1245,16
838,46	1204,21
838,63	1241,07
838,80	1310,70
838,97	1320,94
839,14	1341,42
839,31	1331,18
839,48	1269,74
839,65	1226,73
839,82	1193,97
839,99	1294,32
840,16	1261,55
840,33	1228,78
840,50	1310,70
840,67	1265,64
840,84	1232,88
841,01	1273,84
841,18	1257,45
841,35	1263,60
841,52	1275,88
841,69	1322,99
841,86	1308,65
842,03	1253,36
842,20	1257,45
842,37	1279,98
842,54	1273,84
842,71	1318,89
842,88	1271,79
843,05	1310,70
843,22	1269,74
843,39	1210,35
843,56	1224,69
843,73	1302,51
843,90	1302,51
844,07	1282,03
844,24	1265,64
844,41	1261,55
844,58	1310,70
844,75	1310,70
844,92	1361,90
845,09	1181,68
845,26	1234,93
845,43	1265,64
845,60	1239,02
845,77	1212,40
845,94	1290,22
846,10	1261,55
846,27	1337,32
846,44	1224,69
846,61	1277,93
846,78	1290,22
846,95	1230,83
847,12	1308,65
847,29	1212,40
847,46	1241,07
847,63	1306,60
847,80	1271,79
847,97	1230,83
848,14	1304,56
848,31	1265,64
848,48	1230,83
848,65	1273,84
848,82	1271,79
848,98	1226,73
849,15	1263,60
849,32	1296,36
849,49	1292,27
849,66	1191,92
849,83	1255,40
850,00	1234,93
850,17	1249,26
850,34	1333,23
850,51	1279,98
850,68	1279,98
850,85	1269,74
851,01	1265,64
851,18	1273,84
851,35	1277,93
851,52	1228,78
851,69	1310,70
851,86	1206,25
852,03	1335,28
852,20	1261,55
852,37	1273,84
852,53	1187,82
852,70	1284,08
852,87	1286,12
853,04	1247,21
853,21	1232,88
853,38	1320,94
853,55	1288,17
853,72	1288,17
853,89	1239,02
854,05	1351,66
854,22	1204,21
854,39	1298,41
854,56	1294,32
854,73	1304,56
854,90	1310,70
855,07	1284,08
855,23	1216,49
855,40	1306,60
855,57	1253,36
855,74	1230,83
855,91	1230,83
856,08	1224,69
856,25	1310,70
856,41	1296,36
856,58	1257,45
856,75	1320,94
856,92	1216,49
857,09	1288,17
857,26	1251,31
857,42	1257,45
857,59	1273,84
857,76	1243,12
857,93	1277,93
858,10	1318,89
858,27	1296,36
858,43	1308,65
858,60	1247,21
858,77	1249,26
858,94	1214,45
859,11	1230,83
859,27	1275,88
859,44	1279,98
859,61	1284,08
859,78	1298,41
859,95	1146,86
860,12	1245,16
860,28	1249,26
860,45	1165,29
860,62	1265,64
860,79	1261,55
860,95	1290,22
861,12	1193,97
861,29	1327,08
861,46	1226,73
861,63	1200,11
861,79	1257,45
861,96	1257,45
862,13	1245,16
862,30	1257,45
862,47	1277,93
862,63	1273,84
862,80	1279,98
862,97	1232,88
863,14	1273,84
863,30	1290,22
863,47	1341,42
863,64	1218,54
863,81	1351,66
863,97	1257,45
864,14	1273,84
864,31	1249,26
864,48	1277,93
864,65	1269,74
864,81	1249,26
864,98	1298,41
865,15	1306,60
865,32	1214,45
865,48	1325,04
865,65	1253,36
865,82	1312,75
865,98	1259,50
866,15	1275,88
866,32	1222,64
866,49	1253,36
866,65	1222,64
866,82	1286,12
866,99	1263,60
867,16	1257,45
867,32	1282,03
867,49	1288,17
867,66	1255,40
867,83	1222,64
867,99	1239,02
868,16	1234,93
868,33	1320,94
868,49	1265,64
868,66	1269,74
868,83	1249,26
868,99	1245,16
869,16	1312,75
869,33	1257,45
869,50	1265,64
869,66	1282,03
869,83	1290,22
870,00	1251,31
870,16	1296,36
870,33	1259,50
870,50	1249,26
870,66	1341,42
870,83	1269,74
871,00	1282,03
871,17	1249,26
871,33	1257,45
871,50	1290,22
871,67	1304,56
871,83	1286,12
872,00	1265,64
872,17	1241,07
872,33	1294,32
872,50	1241,07
872,67	1247,21
872,83	1234,93
873,00	1239,02
873,17	1290,22
873,33	1279,98
873,50	1286,12
873,67	1294,32
873,83	1322,99
874,00	1230,83
874,16	1316,84
874,33	1284,08
874,50	1269,74
874,66	1298,41
874,83	1325,04
875,00	1239,02
875,16	1298,41
875,33	1249,26
875,50	1284,08
875,66	1249,26
875,83	1296,36
875,99	1265,64
876,16	1284,08
876,33	1288,17
876,49	1249,26
876,66	1241,07
876,83	1193,97
876,99	1232,88
877,16	1253,36
877,32	1245,16
877,49	1228,78
877,66	1267,69
877,82	1249,26
877,99	1155,05
878,15	1286,12
878,32	1310,70
878,49	1329,13
878,65	1279,98
878,82	1249,26
878,98	1234,93
879,15	1245,16
879,32	1275,88
879,48	1273,84
879,65	1279,98
879,81	1202,16
879,98	1273,84
880,15	1265,64
880,31	1239,02
880,48	1282,03
880,64	1224,69
880,81	1267,69
880,97	1304,56
881,14	1247,21
881,31	1222,64
881,47	1241,07
881,64	1236,97
881,80	1251,31
881,97	1222,64
882,13	1359,85
882,30	1331,18
882,47	1279,98
882,63	1265,64
882,80	1331,18
882,96	1339,37
883,13	1310,70
883,29	1310,70
883,46	1249,26
883,62	1234,93
883,79	1241,07
883,95	1333,23
884,12	1212,40
884,29	1302,51
884,45	1222,64
884,62	1288,17
884,78	1296,36
884,95	1253,36
885,11	1284,08
885,28	1314,80
885,44	1279,98
885,61	1288,17
885,77	1243,12
885,94	1228,78
886,10	1263,60
886,27	1265,64
886,43	1279,98
886,60	1329,13
886,76	1210,35
886,93	1220,59
887,09	1314,80
887,26	1196,01
887,42	1257,45
887,59	1337,32
887,75	1302,51
887,92	1302,51
888,08	1294,32
888,25	1210,35
888,41	1302,51
888,58	1222,64
888,74	1226,73
888,91	1255,40
>>>>>End Processed Spectral Data<<<<<
