SpectraSuite Data File
++++++++++++++++++++++++++++++++++++
Date: Sun Apr 03 19:55:52 CEST 2016
User: root
Dark Spectrum Present: No
Reference Spectrum Present: No
Number of Sampled Component Spectra: 1
Spectrometers: USB4C02835
Integration Time (usec): 10000 (USB4C02835)
Spectra Averaged: 1 (USB4C02835)
Boxcar Smoothing: 0 (USB4C02835)
Correct for Electrical Dark: No (USB4C02835)
Strobe/Lamp Enabled: No (USB4C02835)
Correct for Detector Non-linearity: No (USB4C02835)
Correct for Stray Light: No (USB4C02835)
Number of Pixels in Processed Spectrum: 3648
>>>>>Begin Processed Spectral Data<<<<<
177,47	1251,31
177,69	1251,31
177,91	1251,31
178,13	1236,97
178,36	1306,60
178,58	1234,93
178,80	1292,27
179,02	1232,88
179,24	1249,26
179,46	1296,36
179,68	1277,93
179,90	1296,36
180,13	1302,51
180,35	1261,55
180,57	1218,54
180,79	1296,36
181,01	1298,41
181,23	1243,12
181,45	1259,50
181,67	1257,45
181,90	1228,78
182,12	1243,12
182,34	1271,79
182,56	1216,49
182,78	1271,79
183,00	1265,64
183,22	1214,45
183,44	1245,16
183,66	1265,64
183,89	1247,21
184,11	1275,88
184,33	1296,36
184,55	1308,65
184,77	1204,21
184,99	1290,22
185,21	1247,21
185,43	1279,98
185,65	1318,89
185,87	1208,30
186,10	1290,22
186,32	1294,32
186,54	1228,78
186,76	1249,26
186,98	1265,64
187,20	1288,17
187,42	1275,88
187,64	1257,45
187,86	1302,51
188,08	1277,93
188,30	1216,49
188,52	1273,84
188,75	1228,78
188,97	1329,13
189,19	1249,26
189,41	1234,93
189,63	1230,83
189,85	1206,25
190,07	1255,40
190,29	1325,04
190,51	1335,28
190,73	1267,69
190,95	1347,56
191,17	1228,78
191,39	1200,11
191,61	1198,06
191,84	1239,02
192,06	1265,64
192,28	1265,64
192,50	1263,60
192,72	1220,59
192,94	1253,36
193,16	1327,08
193,38	1277,93
193,60	1257,45
193,82	1257,45
194,04	1265,64
194,26	1226,73
194,48	1239,02
194,70	1282,03
194,92	1228,78
195,14	1265,64
195,36	1329,13
195,58	1265,64
195,80	1269,74
196,02	1212,40
196,24	1300,46
196,46	1308,65
196,69	1253,36
196,91	1284,08
197,13	1189,87
197,35	1296,36
197,57	1290,22
197,79	1251,31
198,01	1239,02
198,23	1245,16
198,45	1292,27
198,67	1271,79
198,89	1282,03
199,11	1322,99
199,33	1206,25
199,55	1241,07
199,77	1243,12
199,99	1290,22
200,21	1265,64
200,43	1247,21
200,65	1257,45
200,87	1249,26
201,09	1257,45
201,31	1232,88
201,53	1226,73
201,75	1314,80
201,97	1306,60
202,19	1206,25
202,41	1300,46
202,63	1271,79
202,85	1230,83
203,07	1230,83
203,29	1202,16
203,51	1234,93
203,73	1341,42
203,95	1232,88
204,17	1294,32
204,39	1181,68
204,61	1288,17
204,83	1224,69
205,05	1269,74
205,27	1273,84
205,49	1249,26
205,71	1247,21
205,93	1271,79
206,15	1314,80
206,37	1241,07
206,59	1310,70
206,81	1255,40
207,03	1275,88
207,25	1245,16
207,47	1271,79
207,69	1183,73
207,91	1206,25
208,13	1304,56
208,34	1312,75
208,56	1267,69
208,78	1314,80
209,00	1212,40
209,22	1271,79
209,44	1230,83
209,66	1329,13
209,88	1263,60
210,10	1292,27
210,32	1253,36
210,54	1353,71
210,76	1212,40
210,98	1226,73
211,20	1259,50
211,42	1290,22
211,64	1333,23
211,86	1263,60
212,08	1288,17
212,30	1241,07
212,52	1318,89
212,74	1325,04
212,96	1294,32
213,17	1212,40
213,39	1298,41
213,61	1236,97
213,83	1279,98
214,05	1220,59
214,27	1236,97
214,49	1290,22
214,71	1234,93
214,93	1261,55
215,15	1259,50
215,37	1331,18
215,59	1241,07
215,81	1253,36
216,03	1292,27
216,24	1271,79
216,46	1310,70
216,68	1267,69
216,90	1335,28
217,12	1294,32
217,34	1232,88
217,56	1236,97
217,78	1228,78
218,00	1273,84
218,22	1220,59
218,44	1241,07
218,66	1282,03
218,87	1249,26
219,09	1284,08
219,31	1253,36
219,53	1273,84
219,75	1257,45
219,97	1316,84
220,19	1329,13
220,41	1279,98
220,63	1232,88
220,85	1353,71
221,06	1253,36
221,28	1247,21
221,50	1265,64
221,72	1294,32
221,94	1271,79
222,16	1339,37
222,38	1263,60
222,60	1304,56
222,82	1294,32
223,03	1261,55
223,25	1331,18
223,47	1275,88
223,69	1318,89
223,91	1253,36
224,13	1232,88
224,35	1339,37
224,57	1253,36
224,78	1175,53
225,00	1245,16
225,22	1253,36
225,44	1265,64
225,66	1333,23
225,88	1245,16
226,10	1353,71
226,32	1327,08
226,53	1255,40
226,75	1288,17
226,97	1273,84
227,19	1247,21
227,41	1288,17
227,63	1320,94
227,85	1218,54
228,06	1314,80
228,28	1296,36
228,50	1318,89
228,72	1302,51
228,94	1314,80
229,16	1255,40
229,37	1279,98
229,59	1257,45
229,81	1255,40
230,03	1298,41
230,25	1263,60
230,47	1204,21
230,69	1224,69
230,90	1222,64
231,12	1261,55
231,34	1310,70
231,56	1282,03
231,78	1239,02
232,00	1337,32
232,21	1327,08
232,43	1265,64
232,65	1243,12
232,87	1255,40
233,09	1316,84
233,30	1259,50
233,52	1230,83
233,74	1261,55
233,96	1286,12
234,18	1279,98
234,40	1232,88
234,61	1290,22
234,83	1253,36
235,05	1314,80
235,27	1308,65
235,49	1241,07
235,70	1257,45
235,92	1288,17
236,14	1310,70
236,36	1331,18
236,58	1228,78
236,79	1210,35
237,01	1234,93
237,23	1290,22
237,45	1243,12
237,67	1341,42
237,88	1327,08
238,10	1290,22
238,32	1282,03
238,54	1284,08
238,76	1249,26
238,97	1294,32
239,19	1296,36
239,41	1206,25
239,63	1286,12
239,85	1279,98
240,06	1263,60
240,28	1312,75
240,50	1261,55
240,72	1296,36
240,93	1286,12
241,15	1282,03
241,37	1269,74
241,59	1343,47
241,81	1279,98
242,02	1314,80
242,24	1214,45
242,46	1249,26
242,68	1269,74
242,89	1378,28
243,11	1263,60
243,33	1175,53
243,55	1210,35
243,76	1257,45
243,98	1210,35
244,20	1216,49
244,42	1318,89
244,64	1261,55
244,85	1216,49
245,07	1296,36
245,29	1327,08
245,51	1302,51
245,72	1382,38
245,94	1296,36
246,16	1247,21
246,38	1288,17
246,59	1208,30
246,81	1249,26
247,03	1312,75
247,24	1322,99
247,46	1234,93
247,68	1282,03
247,90	1241,07
248,11	1261,55
248,33	1306,60
248,55	1253,36
248,77	1177,58
248,98	1277,93
249,20	1302,51
249,42	1288,17
249,64	1247,21
249,85	1255,40
250,07	1333,23
250,29	1320,94
250,50	1239,02
250,72	1265,64
250,94	1353,71
251,16	1314,80
251,37	1239,02
251,59	1290,22
251,81	1273,84
252,02	1249,26
252,24	1239,02
252,46	1347,56
252,68	1247,21
252,89	1296,36
253,11	1257,45
253,33	1298,41
253,54	1298,41
253,76	1312,75
253,98	1290,22
254,20	1249,26
254,41	1249,26
254,63	1245,16
254,85	1322,99
255,06	1300,46
255,28	1212,40
255,50	1273,84
255,71	1269,74
255,93	1189,87
256,15	1314,80
256,36	1200,11
256,58	1290,22
256,80	1271,79
257,02	1306,60
257,23	1218,54
257,45	1277,93
257,67	1320,94
257,88	1331,18
258,10	1193,97
258,32	1282,03
258,53	1304,56
258,75	1282,03
258,97	1245,16
259,18	1249,26
259,40	1277,93
259,62	1286,12
259,83	1234,93
260,05	1273,84
260,27	1290,22
260,48	1218,54
260,70	1279,98
260,92	1220,59
261,13	1222,64
261,35	1284,08
261,57	1265,64
261,78	1179,63
262,00	1247,21
262,22	1261,55
262,43	1230,83
262,65	1300,46
262,86	1273,84
263,08	1206,25
263,30	1284,08
263,51	1282,03
263,73	1214,45
263,95	1265,64
264,16	1329,13
264,38	1191,92
264,60	1294,32
264,81	1185,77
265,03	1251,31
265,25	1245,16
265,46	1335,28
265,68	1296,36
265,89	1320,94
266,11	1290,22
266,33	1314,80
266,54	1288,17
266,76	1273,84
266,98	1230,83
267,19	1208,30
267,41	1247,21
267,62	1263,60
267,84	1249,26
268,06	1286,12
268,27	1277,93
268,49	1234,93
268,70	1224,69
268,92	1263,60
269,14	1208,30
269,35	1314,80
269,57	1259,50
269,79	1368,04
270,00	1308,65
270,22	1259,50
270,43	1312,75
270,65	1204,21
270,87	1247,21
271,08	1206,25
271,30	1306,60
271,51	1243,12
271,73	1341,42
271,95	1288,17
272,16	1236,97
272,38	1198,06
272,59	1228,78
272,81	1269,74
273,02	1232,88
273,24	1273,84
273,46	1236,97
273,67	1247,21
273,89	1341,42
274,10	1290,22
274,32	1230,83
274,54	1279,98
274,75	1257,45
274,97	1312,75
275,18	1298,41
275,40	1269,74
275,61	1327,08
275,83	1318,89
276,05	1230,83
276,26	1329,13
276,48	1331,18
276,69	1279,98
276,91	1222,64
277,12	1245,16
277,34	1251,31
277,55	1320,94
277,77	1243,12
277,99	1261,55
278,20	1269,74
278,42	1224,69
278,63	1286,12
278,85	1298,41
279,06	1243,12
279,28	1245,16
279,49	1296,36
279,71	1310,70
279,93	1198,06
280,14	1251,31
280,36	1282,03
280,57	1308,65
280,79	1247,21
281,00	1331,18
281,22	1173,49
281,43	1167,34
281,65	1279,98
281,86	1282,03
282,08	1286,12
282,29	1206,25
282,51	1292,27
282,73	1275,88
282,94	1259,50
283,16	1339,37
283,37	1310,70
283,59	1228,78
283,80	1216,49
284,02	1284,08
284,23	1304,56
284,45	1245,16
284,66	1314,80
284,88	1275,88
285,09	1247,21
285,31	1249,26
285,52	1294,32
285,74	1263,60
285,95	1337,32
286,17	1282,03
286,38	1271,79
286,60	1216,49
286,81	1216,49
287,03	1259,50
287,24	1273,84
287,46	1302,51
287,67	1263,60
287,89	1298,41
288,10	1290,22
288,32	1224,69
288,53	1290,22
288,75	1226,73
288,96	1263,60
289,18	1173,49
289,39	1247,21
289,61	1273,84
289,82	1234,93
290,04	1279,98
290,25	1218,54
290,47	1245,16
290,68	1300,46
290,90	1277,93
291,11	1259,50
291,33	1267,69
291,54	1259,50
291,76	1314,80
291,97	1286,12
292,18	1279,98
292,40	1320,94
292,61	1271,79
292,83	1279,98
293,04	1275,88
293,26	1327,08
293,47	1230,83
293,69	1277,93
293,90	1228,78
294,12	1241,07
294,33	1265,64
294,55	1292,27
294,76	1296,36
294,97	1327,08
295,19	1239,02
295,40	1314,80
295,62	1300,46
295,83	1316,84
296,05	1271,79
296,26	1288,17
296,48	1265,64
296,69	1290,22
296,90	1337,32
297,12	1275,88
297,33	1288,17
297,55	1308,65
297,76	1228,78
297,98	1290,22
298,19	1271,79
298,41	1349,61
298,62	1300,46
298,83	1298,41
299,05	1275,88
299,26	1253,36
299,48	1210,35
299,69	1222,64
299,90	1282,03
300,12	1265,64
300,33	1269,74
300,55	1257,45
300,76	1222,64
300,98	1191,92
301,19	1396,71
301,40	1263,60
301,62	1253,36
301,83	1271,79
302,05	1308,65
302,26	1259,50
302,47	1257,45
302,69	1302,51
302,90	1355,76
303,12	1236,97
303,33	1263,60
303,54	1308,65
303,76	1257,45
303,97	1273,84
304,19	1243,12
304,40	1255,40
304,61	1265,64
304,83	1247,21
305,04	1267,69
305,26	1325,04
305,47	1304,56
305,68	1153,01
305,90	1294,32
306,11	1253,36
306,33	1288,17
306,54	1253,36
306,75	1230,83
306,97	1261,55
307,18	1304,56
307,39	1259,50
307,61	1259,50
307,82	1267,69
308,04	1306,60
308,25	1189,87
308,46	1216,49
308,68	1296,36
308,89	1296,36
309,10	1339,37
309,32	1282,03
309,53	1284,08
309,74	1243,12
309,96	1220,59
310,17	1232,88
310,39	1245,16
310,60	1253,36
310,81	1232,88
311,03	1304,56
311,24	1302,51
311,45	1216,49
311,67	1306,60
311,88	1236,97
312,09	1294,32
312,31	1312,75
312,52	1261,55
312,73	1243,12
312,95	1216,49
313,16	1339,37
313,37	1261,55
313,59	1298,41
313,80	1300,46
314,01	1181,68
314,23	1284,08
314,44	1181,68
314,65	1193,97
314,87	1306,60
315,08	1284,08
315,29	1304,56
315,51	1204,21
315,72	1279,98
315,93	1245,16
316,15	1296,36
316,36	1232,88
316,57	1243,12
316,79	1310,70
317,00	1316,84
317,21	1253,36
317,43	1306,60
317,64	1228,78
317,85	1265,64
318,07	1198,06
318,28	1212,40
318,49	1271,79
318,70	1191,92
318,92	1310,70
319,13	1296,36
319,34	1282,03
319,56	1284,08
319,77	1236,97
319,98	1232,88
320,20	1273,84
320,41	1204,21
320,62	1284,08
320,83	1253,36
321,05	1208,30
321,26	1339,37
321,47	1220,59
321,69	1282,03
321,90	1210,35
322,11	1202,16
322,32	1261,55
322,54	1306,60
322,75	1271,79
322,96	1282,03
323,18	1236,97
323,39	1208,30
323,60	1198,06
323,81	1290,22
324,03	1316,84
324,24	1269,74
324,45	1259,50
324,66	1273,84
324,88	1212,40
325,09	1339,37
325,30	1312,75
325,52	1269,74
325,73	1267,69
325,94	1329,13
326,15	1271,79
326,37	1310,70
326,58	1279,98
326,79	1265,64
327,00	1273,84
327,22	1253,36
327,43	1236,97
327,64	1294,32
327,85	1267,69
328,07	1191,92
328,28	1312,75
328,49	1290,22
328,70	1310,70
328,92	1214,45
329,13	1277,93
329,34	1230,83
329,55	1286,12
329,76	1314,80
329,98	1302,51
330,19	1228,78
330,40	1247,21
330,61	1214,45
330,83	1247,21
331,04	1255,40
331,25	1265,64
331,46	1263,60
331,68	1298,41
331,89	1239,02
332,10	1269,74
332,31	1337,32
332,52	1298,41
332,74	1282,03
332,95	1255,40
333,16	1271,79
333,37	1310,70
333,58	1259,50
333,80	1300,46
334,01	1206,25
334,22	1279,98
334,43	1261,55
334,64	1263,60
334,86	1277,93
335,07	1236,97
335,28	1290,22
335,49	1218,54
335,70	1267,69
335,92	1263,60
336,13	1224,69
336,34	1269,74
336,55	1284,08
336,76	1208,30
336,98	1329,13
337,19	1282,03
337,40	1302,51
337,61	1318,89
337,82	1288,17
338,04	1263,60
338,25	1255,40
338,46	1331,18
338,67	1218,54
338,88	1304,56
339,09	1251,31
339,31	1318,89
339,52	1292,27
339,73	1239,02
339,94	1279,98
340,15	1288,17
340,36	1210,35
340,58	1275,88
340,79	1259,50
341,00	1322,99
341,21	1249,26
341,42	1275,88
341,63	1249,26
341,85	1269,74
342,06	1257,45
342,27	1302,51
342,48	1304,56
342,69	1343,47
342,90	1282,03
343,12	1286,12
343,33	1294,32
343,54	1306,60
343,75	1273,84
343,96	1290,22
344,17	1292,27
344,38	1273,84
344,60	1255,40
344,81	1296,36
345,02	1224,69
345,23	1179,63
345,44	1273,84
345,65	1267,69
345,86	1257,45
346,07	1218,54
346,29	1247,21
346,50	1394,67
346,71	1230,83
346,92	1310,70
347,13	1257,45
347,34	1230,83
347,55	1351,66
347,76	1263,60
347,98	1236,97
348,19	1331,18
348,40	1243,12
348,61	1277,93
348,82	1265,64
349,03	1193,97
349,24	1185,77
349,45	1300,46
349,66	1306,60
349,88	1251,31
350,09	1277,93
350,30	1210,35
350,51	1265,64
350,72	1269,74
350,93	1351,66
351,14	1314,80
351,35	1282,03
351,56	1200,11
351,77	1234,93
351,99	1228,78
352,20	1292,27
352,41	1298,41
352,62	1236,97
352,83	1320,94
353,04	1204,21
353,25	1308,65
353,46	1327,08
353,67	1257,45
353,88	1243,12
354,09	1259,50
354,30	1308,65
354,52	1320,94
354,73	1232,88
354,94	1288,17
355,15	1263,60
355,36	1253,36
355,57	1243,12
355,78	1241,07
355,99	1249,26
356,20	1290,22
356,41	1294,32
356,62	1296,36
356,83	1267,69
357,04	1230,83
357,25	1282,03
357,46	1345,52
357,68	1210,35
357,89	1218,54
358,10	1216,49
358,31	1204,21
358,52	1239,02
358,73	1185,77
358,94	1294,32
359,15	1292,27
359,36	1230,83
359,57	1286,12
359,78	1230,83
359,99	1286,12
360,20	1189,87
360,41	1296,36
360,62	1296,36
360,83	1230,83
361,04	1206,25
361,25	1302,51
361,46	1259,50
361,67	1257,45
361,88	1216,49
362,09	1286,12
362,30	1245,16
362,51	1277,93
362,72	1265,64
362,93	1265,64
363,14	1265,64
363,35	1234,93
363,56	1247,21
363,78	1218,54
363,99	1279,98
364,20	1245,16
364,41	1279,98
364,62	1312,75
364,83	1271,79
365,04	1243,12
365,25	1232,88
365,46	1265,64
365,67	1243,12
365,88	1300,46
366,09	1310,70
366,30	1196,01
366,51	1296,36
366,72	1296,36
366,93	1310,70
367,14	1265,64
367,35	1286,12
367,56	1294,32
367,77	1226,73
367,98	1257,45
368,18	1198,06
368,39	1267,69
368,60	1239,02
368,81	1253,36
369,02	1249,26
369,23	1187,82
369,44	1265,64
369,65	1298,41
369,86	1329,13
370,07	1269,74
370,28	1273,84
370,49	1318,89
370,70	1306,60
370,91	1265,64
371,12	1282,03
371,33	1249,26
371,54	1300,46
371,75	1322,99
371,96	1261,55
372,17	1247,21
372,38	1296,36
372,59	1198,06
372,80	1251,31
373,01	1294,32
373,22	1282,03
373,43	1228,78
373,64	1294,32
373,85	1286,12
374,06	1294,32
374,26	1218,54
374,47	1249,26
374,68	1294,32
374,89	1241,07
375,10	1294,32
375,31	1265,64
375,52	1247,21
375,73	1296,36
375,94	1269,74
376,15	1247,21
376,36	1261,55
376,57	1241,07
376,78	1286,12
376,99	1298,41
377,20	1234,93
377,40	1277,93
377,61	1331,18
377,82	1198,06
378,03	1245,16
378,24	1222,64
378,45	1359,85
378,66	1314,80
378,87	1304,56
379,08	1273,84
379,29	1212,40
379,50	1298,41
379,71	1290,22
379,91	1282,03
380,12	1300,46
380,33	1239,02
380,54	1253,36
380,75	1333,23
380,96	1234,93
381,17	1296,36
381,38	1234,93
381,59	1271,79
381,80	1288,17
382,00	1284,08
382,21	1185,77
382,42	1239,02
382,63	1265,64
382,84	1288,17
383,05	1271,79
383,26	1222,64
383,47	1239,02
383,68	1212,40
383,88	1294,32
384,09	1282,03
384,30	1243,12
384,51	1255,40
384,72	1210,35
384,93	1300,46
385,14	1269,74
385,35	1257,45
385,55	1325,04
385,76	1241,07
385,97	1236,97
386,18	1255,40
386,39	1214,45
386,60	1277,93
386,81	1247,21
387,02	1222,64
387,22	1239,02
387,43	1269,74
387,64	1286,12
387,85	1304,56
388,06	1271,79
388,27	1241,07
388,48	1253,36
388,68	1261,55
388,89	1312,75
389,10	1284,08
389,31	1275,88
389,52	1284,08
389,73	1273,84
389,93	1279,98
390,14	1300,46
390,35	1259,50
390,56	1200,11
390,77	1296,36
390,98	1310,70
391,18	1265,64
391,39	1279,98
391,60	1282,03
391,81	1241,07
392,02	1292,27
392,23	1333,23
392,43	1316,84
392,64	1239,02
392,85	1265,64
393,06	1179,63
393,27	1288,17
393,47	1277,93
393,68	1255,40
393,89	1265,64
394,10	1282,03
394,31	1314,80
394,52	1284,08
394,72	1226,73
394,93	1255,40
395,14	1277,93
395,35	1251,31
395,56	1220,59
395,76	1279,98
395,97	1249,26
396,18	1322,99
396,39	1255,40
396,60	1263,60
396,80	1212,40
397,01	1286,12
397,22	1257,45
397,43	1222,64
397,64	1282,03
397,84	1206,25
398,05	1314,80
398,26	1288,17
398,47	1247,21
398,67	1230,83
398,88	1273,84
399,09	1312,75
399,30	1265,64
399,51	1255,40
399,71	1275,88
399,92	1300,46
400,13	1271,79
400,34	1304,56
400,54	1234,93
400,75	1222,64
400,96	1261,55
401,17	1265,64
401,37	1255,40
401,58	1277,93
401,79	1216,49
402,00	1263,60
402,21	1251,31
402,41	1290,22
402,62	1230,83
402,83	1273,84
403,04	1279,98
403,24	1230,83
403,45	1263,60
403,66	1247,21
403,87	1249,26
404,07	1245,16
404,28	1247,21
404,49	1294,32
404,70	1296,36
404,90	1277,93
405,11	1267,69
405,32	1257,45
405,52	1224,69
405,73	1273,84
405,94	1273,84
406,15	1222,64
406,35	1232,88
406,56	1277,93
406,77	1241,07
406,98	1243,12
407,18	1282,03
407,39	1329,13
407,60	1212,40
407,80	1243,12
408,01	1234,93
408,22	1298,41
408,43	1271,79
408,63	1306,60
408,84	1284,08
409,05	1212,40
409,25	1308,65
409,46	1312,75
409,67	1288,17
409,88	1263,60
410,08	1286,12
410,29	1255,40
410,50	1337,32
410,70	1296,36
410,91	1228,78
411,12	1247,21
411,32	1333,23
411,53	1292,27
411,74	1259,50
411,95	1320,94
412,15	1232,88
412,36	1351,66
412,57	1171,44
412,77	1183,73
412,98	1253,36
413,19	1185,77
413,39	1290,22
413,60	1173,49
413,81	1318,89
414,01	1277,93
414,22	1310,70
414,43	1228,78
414,63	1243,12
414,84	1271,79
415,05	1277,93
415,25	1290,22
415,46	1255,40
415,67	1210,35
415,87	1337,32
416,08	1333,23
416,29	1191,92
416,49	1273,84
416,70	1222,64
416,91	1259,50
417,11	1232,88
417,32	1245,16
417,53	1277,93
417,73	1267,69
417,94	1220,59
418,15	1273,84
418,35	1234,93
418,56	1312,75
418,77	1271,79
418,97	1298,41
419,18	1206,25
419,38	1275,88
419,59	1279,98
419,80	1282,03
420,00	1257,45
420,21	1288,17
420,42	1253,36
420,62	1294,32
420,83	1282,03
421,04	1275,88
421,24	1261,55
421,45	1318,89
421,65	1300,46
421,86	1314,80
422,07	1259,50
422,27	1236,97
422,48	1212,40
422,69	1236,97
422,89	1308,65
423,10	1267,69
423,30	1265,64
423,51	1234,93
423,72	1288,17
423,92	1288,17
424,13	1249,26
424,33	1286,12
424,54	1251,31
424,75	1292,27
424,95	1267,69
425,16	1318,89
425,36	1265,64
425,57	1273,84
425,78	1267,69
425,98	1214,45
426,19	1277,93
426,39	1306,60
426,60	1222,64
426,81	1257,45
427,01	1265,64
427,22	1269,74
427,42	1224,69
427,63	1257,45
427,83	1320,94
428,04	1261,55
428,25	1320,94
428,45	1286,12
428,66	1255,40
428,86	1249,26
429,07	1232,88
429,28	1206,25
429,48	1310,70
429,69	1241,07
429,89	1261,55
430,10	1212,40
430,30	1298,41
430,51	1273,84
430,71	1228,78
430,92	1300,46
431,13	1275,88
431,33	1314,80
431,54	1292,27
431,74	1263,60
431,95	1261,55
432,15	1249,26
432,36	1185,77
432,56	1308,65
432,77	1306,60
432,98	1296,36
433,18	1198,06
433,39	1292,27
433,59	1284,08
433,80	1273,84
434,00	1265,64
434,21	1286,12
434,41	1234,93
434,62	1257,45
434,82	1224,69
435,03	1337,32
435,23	1329,13
435,44	1271,79
435,64	1306,60
435,85	1284,08
436,06	1286,12
436,26	1339,37
436,47	1277,93
436,67	1196,01
436,88	1277,93
437,08	1269,74
437,29	1232,88
437,49	1286,12
437,70	1257,45
437,90	1247,21
438,11	1245,16
438,31	1269,74
438,52	1265,64
438,72	1220,59
438,93	1304,56
439,13	1290,22
439,34	1294,32
439,54	1243,12
439,75	1232,88
439,95	1202,16
440,16	1269,74
440,36	1339,37
440,57	1236,97
440,77	1306,60
440,98	1245,16
441,18	1251,31
441,39	1300,46
441,59	1300,46
441,80	1275,88
442,00	1359,85
442,21	1312,75
442,41	1331,18
442,62	1228,78
442,82	1241,07
443,02	1267,69
443,23	1214,45
443,43	1249,26
443,64	1259,50
443,84	1282,03
444,05	1253,36
444,25	1257,45
444,46	1255,40
444,66	1257,45
444,87	1265,64
445,07	1249,26
445,28	1292,27
445,48	1236,97
445,69	1230,83
445,89	1290,22
446,09	1255,40
446,30	1286,12
446,50	1286,12
446,71	1222,64
446,91	1245,16
447,12	1298,41
447,32	1282,03
447,53	1316,84
447,73	1271,79
447,93	1249,26
448,14	1314,80
448,34	1339,37
448,55	1224,69
448,75	1206,25
448,96	1292,27
449,16	1277,93
449,36	1273,84
449,57	1245,16
449,77	1279,98
449,98	1290,22
450,18	1245,16
450,39	1335,28
450,59	1314,80
450,79	1302,51
451,00	1263,60
451,20	1335,28
451,41	1228,78
451,61	1198,06
451,81	1310,70
452,02	1239,02
452,22	1249,26
452,43	1253,36
452,63	1294,32
452,84	1290,22
453,04	1322,99
453,24	1214,45
453,45	1296,36
453,65	1296,36
453,86	1325,04
454,06	1253,36
454,26	1306,60
454,47	1269,74
454,67	1302,51
454,87	1296,36
455,08	1298,41
455,28	1273,84
455,49	1333,23
455,69	1263,60
455,89	1179,63
456,10	1224,69
456,30	1353,71
456,51	1228,78
456,71	1271,79
456,91	1306,60
457,12	1296,36
457,32	1257,45
457,52	1232,88
457,73	1255,40
457,93	1228,78
458,14	1294,32
458,34	1230,83
458,54	1296,36
458,75	1312,75
458,95	1318,89
459,15	1224,69
459,36	1243,12
459,56	1263,60
459,76	1335,28
459,97	1265,64
460,17	1257,45
460,37	1347,56
460,58	1296,36
460,78	1251,31
460,99	1292,27
461,19	1282,03
461,39	1277,93
461,60	1286,12
461,80	1269,74
462,00	1349,61
462,21	1292,27
462,41	1304,56
462,61	1210,35
462,82	1269,74
463,02	1247,21
463,22	1257,45
463,43	1331,18
463,63	1308,65
463,83	1308,65
464,04	1314,80
464,24	1298,41
464,44	1239,02
464,64	1230,83
464,85	1257,45
465,05	1245,16
465,25	1302,51
465,46	1279,98
465,66	1378,28
465,86	1267,69
466,07	1263,60
466,27	1275,88
466,47	1232,88
466,68	1300,46
466,88	1236,97
467,08	1204,21
467,29	1232,88
467,49	1282,03
467,69	1255,40
467,89	1282,03
468,10	1279,98
468,30	1357,80
468,50	1286,12
468,71	1228,78
468,91	1208,30
469,11	1257,45
469,31	1304,56
469,52	1284,08
469,72	1273,84
469,92	1296,36
470,13	1337,32
470,33	1300,46
470,53	1363,95
470,73	1261,55
470,94	1308,65
471,14	1224,69
471,34	1261,55
471,54	1226,73
471,75	1335,28
471,95	1300,46
472,15	1236,97
472,36	1318,89
472,56	1212,40
472,76	1236,97
472,96	1355,76
473,17	1296,36
473,37	1279,98
473,57	1208,30
473,77	1196,01
473,98	1259,50
474,18	1310,70
474,38	1214,45
474,58	1275,88
474,79	1241,07
474,99	1302,51
475,19	1288,17
475,39	1255,40
475,60	1322,99
475,80	1253,36
476,00	1228,78
476,20	1296,36
476,41	1243,12
476,61	1226,73
476,81	1271,79
477,01	1294,32
477,21	1257,45
477,42	1284,08
477,62	1239,02
477,82	1288,17
478,02	1318,89
478,23	1239,02
478,43	1267,69
478,63	1263,60
478,83	1300,46
479,03	1304,56
479,24	1277,93
479,44	1294,32
479,64	1204,21
479,84	1282,03
480,04	1302,51
480,25	1263,60
480,45	1247,21
480,65	1286,12
480,85	1271,79
481,06	1329,13
481,26	1363,95
481,46	1353,71
481,66	1220,59
481,86	1226,73
482,06	1277,93
482,27	1220,59
482,47	1253,36
482,67	1296,36
482,87	1288,17
483,07	1347,56
483,28	1302,51
483,48	1265,64
483,68	1259,50
483,88	1282,03
484,08	1294,32
484,29	1265,64
484,49	1241,07
484,69	1226,73
484,89	1187,82
485,09	1331,18
485,29	1243,12
485,50	1232,88
485,70	1306,60
485,90	1243,12
486,10	1351,66
486,30	1241,07
486,50	1263,60
486,71	1202,16
486,91	1222,64
487,11	1255,40
487,31	1320,94
487,51	1265,64
487,71	1253,36
487,91	1296,36
488,12	1304,56
488,32	1257,45
488,52	1290,22
488,72	1200,11
488,92	1271,79
489,12	1298,41
489,32	1200,11
489,53	1296,36
489,73	1269,74
489,93	1236,97
490,13	1265,64
490,33	1286,12
490,53	1269,74
490,73	1263,60
490,94	1243,12
491,14	1320,94
491,34	1206,25
491,54	1335,28
491,74	1236,97
491,94	1304,56
492,14	1273,84
492,34	1247,21
492,54	1265,64
492,75	1282,03
492,95	1239,02
493,15	1298,41
493,35	1275,88
493,55	1300,46
493,75	1267,69
493,95	1279,98
494,15	1196,01
494,35	1288,17
494,56	1284,08
494,76	1259,50
494,96	1284,08
495,16	1247,21
495,36	1290,22
495,56	1255,40
495,76	1310,70
495,96	1286,12
496,16	1187,82
496,36	1269,74
496,56	1277,93
496,77	1239,02
496,97	1241,07
497,17	1271,79
497,37	1257,45
497,57	1275,88
497,77	1310,70
497,97	1218,54
498,17	1263,60
498,37	1353,71
498,57	1191,92
498,77	1187,82
498,97	1249,26
499,17	1325,04
499,38	1210,35
499,58	1269,74
499,78	1257,45
499,98	1236,97
500,18	1318,89
500,38	1198,06
500,58	1236,97
500,78	1286,12
500,98	1277,93
501,18	1308,65
501,38	1322,99
501,58	1294,32
501,78	1279,98
501,98	1282,03
502,18	1310,70
502,38	1304,56
502,58	1294,32
502,78	1259,50
502,98	1265,64
503,18	1267,69
503,38	1282,03
503,59	1282,03
503,79	1318,89
503,99	1308,65
504,19	1288,17
504,39	1300,46
504,59	1292,27
504,79	1222,64
504,99	1279,98
505,19	1257,45
505,39	1296,36
505,59	1220,59
505,79	1236,97
505,99	1275,88
506,19	1243,12
506,39	1255,40
506,59	1241,07
506,79	1249,26
506,99	1251,31
507,19	1282,03
507,39	1265,64
507,59	1337,32
507,79	1269,74
507,99	1320,94
508,19	1277,93
508,39	1292,27
508,59	1261,55
508,79	1261,55
508,99	1300,46
509,19	1243,12
509,39	1216,49
509,59	1353,71
509,79	1230,83
509,99	1298,41
510,19	1277,93
510,39	1255,40
510,59	1253,36
510,79	1312,75
510,99	1232,88
511,19	1296,36
511,39	1200,11
511,59	1337,32
511,79	1265,64
511,99	1279,98
512,19	1302,51
512,38	1210,35
512,58	1200,11
512,78	1345,52
512,98	1310,70
513,18	1320,94
513,38	1271,79
513,58	1312,75
513,78	1320,94
513,98	1279,98
514,18	1353,71
514,38	1249,26
514,58	1284,08
514,78	1263,60
514,98	1263,60
515,18	1290,22
515,38	1269,74
515,58	1267,69
515,78	1277,93
515,98	1273,84
516,18	1271,79
516,38	1327,08
516,57	1302,51
516,77	1320,94
516,97	1318,89
517,17	1265,64
517,37	1282,03
517,57	1320,94
517,77	1232,88
517,97	1296,36
518,17	1198,06
518,37	1226,73
518,57	1267,69
518,77	1245,16
518,97	1355,76
519,16	1296,36
519,36	1349,61
519,56	1288,17
519,76	1220,59
519,96	1239,02
520,16	1249,26
520,36	1241,07
520,56	1181,68
520,76	1267,69
520,96	1241,07
521,16	1292,27
521,35	1259,50
521,55	1196,01
521,75	1290,22
521,95	1263,60
522,15	1224,69
522,35	1273,84
522,55	1279,98
522,75	1202,16
522,95	1261,55
523,14	1320,94
523,34	1245,16
523,54	1253,36
523,74	1314,80
523,94	1337,32
524,14	1253,36
524,34	1327,08
524,54	1279,98
524,73	1286,12
524,93	1263,60
525,13	1290,22
525,33	1232,88
525,53	1302,51
525,73	1261,55
525,93	1339,37
526,13	1322,99
526,32	1282,03
526,52	1232,88
526,72	1253,36
526,92	1282,03
527,12	1316,84
527,32	1306,60
527,52	1247,21
527,71	1298,41
527,91	1359,85
528,11	1302,51
528,31	1286,12
528,51	1245,16
528,71	1249,26
528,90	1320,94
529,10	1333,23
529,30	1294,32
529,50	1245,16
529,70	1327,08
529,90	1288,17
530,09	1333,23
530,29	1363,95
530,49	1243,12
530,69	1243,12
530,89	1265,64
531,09	1275,88
531,28	1267,69
531,48	1216,49
531,68	1275,88
531,88	1290,22
532,08	1310,70
532,28	1257,45
532,47	1208,30
532,67	1345,52
532,87	1339,37
533,07	1142,77
533,27	1282,03
533,46	1374,19
533,66	1298,41
533,86	1310,70
534,06	1345,52
534,26	1239,02
534,45	1298,41
534,65	1320,94
534,85	1322,99
535,05	1296,36
535,25	1296,36
535,44	1310,70
535,64	1269,74
535,84	1314,80
536,04	1284,08
536,24	1236,97
536,43	1218,54
536,63	1306,60
536,83	1200,11
537,03	1230,83
537,22	1271,79
537,42	1245,16
537,62	1185,77
537,82	1327,08
538,02	1232,88
538,21	1320,94
538,41	1296,36
538,61	1263,60
538,81	1253,36
539,00	1273,84
539,20	1222,64
539,40	1210,35
539,60	1312,75
539,79	1243,12
539,99	1312,75
540,19	1222,64
540,39	1329,13
540,58	1288,17
540,78	1308,65
540,98	1255,40
541,18	1243,12
541,37	1261,55
541,57	1294,32
541,77	1290,22
541,97	1251,31
542,16	1339,37
542,36	1286,12
542,56	1273,84
542,76	1292,27
542,95	1257,45
543,15	1304,56
543,35	1261,55
543,54	1241,07
543,74	1292,27
543,94	1269,74
544,14	1265,64
544,33	1355,76
544,53	1273,84
544,73	1322,99
544,93	1294,32
545,12	1239,02
545,32	1298,41
545,52	1261,55
545,71	1286,12
545,91	1302,51
546,11	1273,84
546,30	1314,80
546,50	1284,08
546,70	1271,79
546,90	1284,08
547,09	1247,21
547,29	1267,69
547,49	1228,78
547,68	1255,40
547,88	1302,51
548,08	1273,84
548,27	1269,74
548,47	1322,99
548,67	1228,78
548,87	1314,80
549,06	1335,28
549,26	1322,99
549,46	1347,56
549,65	1294,32
549,85	1259,50
550,05	1251,31
550,24	1228,78
550,44	1329,13
550,64	1298,41
550,83	1320,94
551,03	1337,32
551,23	1368,04
551,42	1331,18
551,62	1310,70
551,82	1257,45
552,01	1263,60
552,21	1361,90
552,41	1306,60
552,60	1267,69
552,80	1265,64
553,00	1337,32
553,19	1312,75
553,39	1245,16
553,59	1267,69
553,78	1243,12
553,98	1253,36
554,17	1294,32
554,37	1316,84
554,57	1202,16
554,76	1251,31
554,96	1320,94
555,16	1255,40
555,35	1304,56
555,55	1253,36
555,75	1327,08
555,94	1312,75
556,14	1300,46
556,33	1228,78
556,53	1249,26
556,73	1255,40
556,92	1241,07
557,12	1208,30
557,32	1282,03
557,51	1286,12
557,71	1310,70
557,90	1269,74
558,10	1341,42
558,30	1265,64
558,49	1302,51
558,69	1265,64
558,88	1294,32
559,08	1273,84
559,28	1255,40
559,47	1265,64
559,67	1335,28
559,86	1271,79
560,06	1288,17
560,26	1228,78
560,45	1308,65
560,65	1279,98
560,84	1312,75
561,04	1247,21
561,24	1263,60
561,43	1284,08
561,63	1310,70
561,82	1232,88
562,02	1306,60
562,22	1341,42
562,41	1255,40
562,61	1269,74
562,80	1255,40
563,00	1372,14
563,19	1273,84
563,39	1300,46
563,59	1339,37
563,78	1273,84
563,98	1284,08
564,17	1292,27
564,37	1257,45
564,56	1224,69
564,76	1232,88
564,96	1329,13
565,15	1257,45
565,35	1255,40
565,54	1275,88
565,74	1372,14
565,93	1273,84
566,13	1282,03
566,32	1265,64
566,52	1259,50
566,71	1304,56
566,91	1265,64
567,11	1269,74
567,30	1282,03
567,50	1337,32
567,69	1288,17
567,89	1284,08
568,08	1343,47
568,28	1322,99
568,47	1284,08
568,67	1339,37
568,86	1294,32
569,06	1298,41
569,25	1263,60
569,45	1241,07
569,64	1267,69
569,84	1259,50
570,04	1294,32
570,23	1282,03
570,43	1253,36
570,62	1222,64
570,82	1306,60
571,01	1259,50
571,21	1318,89
571,40	1339,37
571,60	1232,88
571,79	1261,55
571,99	1347,56
572,18	1310,70
572,38	1329,13
572,57	1335,28
572,77	1277,93
572,96	1290,22
573,16	1224,69
573,35	1310,70
573,55	1267,69
573,74	1236,97
573,94	1247,21
574,13	1257,45
574,33	1310,70
574,52	1204,21
574,71	1220,59
574,91	1292,27
575,10	1267,69
575,30	1288,17
575,49	1339,37
575,69	1325,04
575,88	1228,78
576,08	1322,99
576,27	1370,09
576,47	1329,13
576,66	1286,12
576,86	1232,88
577,05	1374,19
577,25	1226,73
577,44	1249,26
577,64	1327,08
577,83	1282,03
578,02	1263,60
578,22	1275,88
578,41	1265,64
578,61	1271,79
578,80	1316,84
579,00	1261,55
579,19	1298,41
579,39	1345,52
579,58	1308,65
579,77	1249,26
579,97	1249,26
580,16	1318,89
580,36	1261,55
580,55	1349,61
580,75	1279,98
580,94	1259,50
581,13	1189,87
581,33	1300,46
581,52	1363,95
581,72	1226,73
581,91	1304,56
582,11	1251,31
582,30	1263,60
582,49	1245,16
582,69	1312,75
582,88	1241,07
583,08	1294,32
583,27	1247,21
583,47	1300,46
583,66	1261,55
583,85	1257,45
584,05	1353,71
584,24	1325,04
584,44	1322,99
584,63	1222,64
584,82	1314,80
585,02	1284,08
585,21	1255,40
585,41	1290,22
585,60	1224,69
585,79	1325,04
585,99	1269,74
586,18	1245,16
586,37	1288,17
586,57	1279,98
586,76	1312,75
586,96	1304,56
587,15	1339,37
587,34	1275,88
587,54	1318,89
587,73	1196,01
587,93	1243,12
588,12	1183,73
588,31	1290,22
588,51	1337,32
588,70	1273,84
588,89	1251,31
589,09	1296,36
589,28	1269,74
589,47	1224,69
589,67	1306,60
589,86	1279,98
590,06	1228,78
590,25	1202,16
590,44	1259,50
590,64	1265,64
590,83	1255,40
591,02	1265,64
591,22	1275,88
591,41	1306,60
591,60	1273,84
591,80	1282,03
591,99	1224,69
592,18	1273,84
592,38	1204,21
592,57	1345,52
592,76	1312,75
592,96	1236,97
593,15	1241,07
593,34	1331,18
593,54	1298,41
593,73	1282,03
593,92	1290,22
594,12	1306,60
594,31	1298,41
594,50	1279,98
594,70	1267,69
594,89	1288,17
595,08	1277,93
595,28	1232,88
595,47	1271,79
595,66	1284,08
595,86	1277,93
596,05	1308,65
596,24	1261,55
596,43	1222,64
596,63	1279,98
596,82	1271,79
597,01	1282,03
597,21	1239,02
597,40	1337,32
597,59	1279,98
597,79	1288,17
597,98	1320,94
598,17	1259,50
598,36	1263,60
598,56	1255,40
598,75	1187,82
598,94	1263,60
599,14	1204,21
599,33	1267,69
599,52	1282,03
599,71	1286,12
599,91	1249,26
600,10	1327,08
600,29	1255,40
600,48	1212,40
600,68	1304,56
600,87	1230,83
601,06	1230,83
601,26	1218,54
601,45	1347,56
601,64	1318,89
601,83	1288,17
602,03	1251,31
602,22	1288,17
602,41	1279,98
602,60	1232,88
602,80	1325,04
602,99	1306,60
603,18	1245,16
603,37	1296,36
603,57	1333,23
603,76	1300,46
603,95	1339,37
604,14	1314,80
604,34	1230,83
604,53	1282,03
604,72	1230,83
604,91	1286,12
605,10	1277,93
605,30	1320,94
605,49	1316,84
605,68	1234,93
605,87	1249,26
606,07	1239,02
606,26	1271,79
606,45	1320,94
606,64	1298,41
606,84	1288,17
607,03	1265,64
607,22	1253,36
607,41	1200,11
607,60	1286,12
607,80	1343,47
607,99	1247,21
608,18	1302,51
608,37	1310,70
608,56	1339,37
608,76	1347,56
608,95	1228,78
609,14	1263,60
609,33	1304,56
609,52	1241,07
609,72	1265,64
609,91	1239,02
610,10	1241,07
610,29	1312,75
610,48	1296,36
610,68	1292,27
610,87	1322,99
611,06	1249,26
611,25	1353,71
611,44	1265,64
611,63	1292,27
611,83	1245,16
612,02	1269,74
612,21	1333,23
612,40	1298,41
612,59	1314,80
612,79	1263,60
612,98	1282,03
613,17	1275,88
613,36	1302,51
613,55	1298,41
613,74	1347,56
613,93	1273,84
614,13	1253,36
614,32	1318,89
614,51	1265,64
614,70	1267,69
614,89	1273,84
615,08	1251,31
615,28	1275,88
615,47	1208,30
615,66	1243,12
615,85	1288,17
616,04	1269,74
616,23	1302,51
616,42	1239,02
616,62	1261,55
616,81	1347,56
617,00	1331,18
617,19	1247,21
617,38	1331,18
617,57	1273,84
617,76	1216,49
617,95	1298,41
618,15	1220,59
618,34	1277,93
618,53	1275,88
618,72	1318,89
618,91	1271,79
619,10	1306,60
619,29	1341,42
619,48	1277,93
619,68	1263,60
619,87	1275,88
620,06	1271,79
620,25	1228,78
620,44	1200,11
620,63	1273,84
620,82	1302,51
621,01	1314,80
621,20	1257,45
621,39	1267,69
621,59	1265,64
621,78	1300,46
621,97	1279,98
622,16	1222,64
622,35	1236,97
622,54	1255,40
622,73	1271,79
622,92	1202,16
623,11	1251,31
623,30	1312,75
623,49	1339,37
623,68	1273,84
623,88	1202,16
624,07	1263,60
624,26	1331,18
624,45	1271,79
624,64	1290,22
624,83	1222,64
625,02	1200,11
625,21	1306,60
625,40	1318,89
625,59	1271,79
625,78	1341,42
625,97	1339,37
626,16	1236,97
626,35	1300,46
626,54	1263,60
626,74	1265,64
626,93	1271,79
627,12	1347,56
627,31	1253,36
627,50	1251,31
627,69	1347,56
627,88	1308,65
628,07	1318,89
628,26	1376,24
628,45	1286,12
628,64	1310,70
628,83	1322,99
629,02	1245,16
629,21	1255,40
629,40	1290,22
629,59	1294,32
629,78	1331,18
629,97	1294,32
630,16	1347,56
630,35	1320,94
630,54	1363,95
630,73	1296,36
630,92	1304,56
631,11	1322,99
631,30	1361,90
631,49	1431,53
631,68	1646,57
631,87	2004,96
632,06	2715,61
632,25	3074,00
632,44	4519,87
632,63	7063,44
632,82	12353,35
633,01	14313,25
633,20	9226,10
633,39	6096,80
633,58	3846,09
633,77	2326,49
633,96	1966,05
634,15	1826,79
634,34	1726,44
634,53	1552,36
634,72	1480,68
634,91	1458,15
635,10	1484,78
635,29	1472,49
635,48	1343,47
635,67	1413,10
635,86	1359,85
636,05	1406,95
636,24	1413,10
636,43	1351,66
636,62	1363,95
636,81	1419,24
637,00	1345,52
637,19	1343,47
637,38	1331,18
637,57	1380,33
637,76	1398,76
637,95	1366,00
638,14	1290,22
638,33	1294,32
638,52	1322,99
638,71	1294,32
638,89	1306,60
639,08	1284,08
639,27	1232,88
639,46	1292,27
639,65	1294,32
639,84	1347,56
640,03	1329,13
640,22	1265,64
640,41	1341,42
640,60	1236,97
640,79	1257,45
640,98	1275,88
641,17	1253,36
641,36	1314,80
641,55	1263,60
641,74	1290,22
641,92	1302,51
642,11	1329,13
642,30	1294,32
642,49	1275,88
642,68	1224,69
642,87	1310,70
643,06	1279,98
643,25	1308,65
643,44	1345,52
643,63	1245,16
643,82	1300,46
644,00	1247,21
644,19	1253,36
644,38	1243,12
644,57	1189,87
644,76	1257,45
644,95	1200,11
645,14	1310,70
645,33	1245,16
645,52	1380,33
645,71	1277,93
645,89	1267,69
646,08	1329,13
646,27	1232,88
646,46	1288,17
646,65	1279,98
646,84	1257,45
647,03	1271,79
647,22	1269,74
647,40	1253,36
647,59	1294,32
647,78	1259,50
647,97	1257,45
648,16	1279,98
648,35	1294,32
648,54	1236,97
648,73	1304,56
648,91	1288,17
649,10	1189,87
649,29	1310,70
649,48	1279,98
649,67	1255,40
649,86	1232,88
650,05	1230,83
650,23	1255,40
650,42	1275,88
650,61	1255,40
650,80	1282,03
650,99	1267,69
651,18	1261,55
651,36	1218,54
651,55	1318,89
651,74	1296,36
651,93	1239,02
652,12	1245,16
652,31	1257,45
652,49	1247,21
652,68	1222,64
652,87	1294,32
653,06	1232,88
653,25	1290,22
653,44	1236,97
653,62	1265,64
653,81	1322,99
654,00	1245,16
654,19	1263,60
654,38	1318,89
654,56	1282,03
654,75	1265,64
654,94	1255,40
655,13	1316,84
655,32	1288,17
655,51	1249,26
655,69	1232,88
655,88	1286,12
656,07	1312,75
656,26	1216,49
656,45	1286,12
656,63	1349,61
656,82	1359,85
657,01	1314,80
657,20	1220,59
657,38	1271,79
657,57	1251,31
657,76	1267,69
657,95	1302,51
658,14	1224,69
658,32	1302,51
658,51	1236,97
658,70	1288,17
658,89	1253,36
659,08	1216,49
659,26	1249,26
659,45	1296,36
659,64	1339,37
659,83	1212,40
660,01	1187,82
660,20	1257,45
660,39	1294,32
660,58	1263,60
660,76	1284,08
660,95	1292,27
661,14	1275,88
661,33	1263,60
661,51	1239,02
661,70	1253,36
661,89	1222,64
662,08	1249,26
662,26	1224,69
662,45	1241,07
662,64	1251,31
662,83	1273,84
663,01	1230,83
663,20	1265,64
663,39	1275,88
663,58	1316,84
663,76	1232,88
663,95	1206,25
664,14	1279,98
664,32	1267,69
664,51	1306,60
664,70	1226,73
664,89	1288,17
665,07	1314,80
665,26	1245,16
665,45	1279,98
665,64	1183,73
665,82	1200,11
666,01	1232,88
666,20	1234,93
666,38	1310,70
666,57	1310,70
666,76	1282,03
666,95	1245,16
667,13	1290,22
667,32	1294,32
667,51	1296,36
667,69	1288,17
667,88	1243,12
668,07	1277,93
668,25	1337,32
668,44	1275,88
668,63	1322,99
668,81	1232,88
669,00	1261,55
669,19	1277,93
669,38	1234,93
669,56	1247,21
669,75	1183,73
669,94	1257,45
670,12	1316,84
670,31	1294,32
670,50	1220,59
670,68	1247,21
670,87	1208,30
671,06	1298,41
671,24	1236,97
671,43	1212,40
671,62	1304,56
671,80	1282,03
671,99	1292,27
672,18	1247,21
672,36	1300,46
672,55	1273,84
672,74	1316,84
672,92	1288,17
673,11	1261,55
673,29	1302,51
673,48	1249,26
673,67	1265,64
673,85	1263,60
674,04	1261,55
674,23	1265,64
674,41	1255,40
674,60	1214,45
674,79	1296,36
674,97	1241,07
675,16	1251,31
675,34	1300,46
675,53	1208,30
675,72	1232,88
675,90	1261,55
676,09	1234,93
676,28	1210,35
676,46	1306,60
676,65	1208,30
676,83	1189,87
677,02	1277,93
677,21	1282,03
677,39	1310,70
677,58	1302,51
677,77	1267,69
677,95	1234,93
678,14	1253,36
678,32	1273,84
678,51	1189,87
678,70	1257,45
678,88	1290,22
679,07	1249,26
679,25	1310,70
679,44	1245,16
679,63	1251,31
679,81	1253,36
680,00	1277,93
680,18	1263,60
680,37	1296,36
680,55	1290,22
680,74	1327,08
680,93	1302,51
681,11	1302,51
681,30	1273,84
681,48	1232,88
681,67	1253,36
681,85	1220,59
682,04	1247,21
682,23	1220,59
682,41	1239,02
682,60	1239,02
682,78	1224,69
682,97	1302,51
683,15	1302,51
683,34	1325,04
683,53	1290,22
683,71	1302,51
683,90	1243,12
684,08	1327,08
684,27	1288,17
684,45	1247,21
684,64	1329,13
684,82	1351,66
685,01	1292,27
685,19	1263,60
685,38	1314,80
685,57	1279,98
685,75	1302,51
685,94	1224,69
686,12	1322,99
686,31	1292,27
686,49	1263,60
686,68	1271,79
686,86	1257,45
687,05	1239,02
687,23	1241,07
687,42	1249,26
687,60	1220,59
687,79	1249,26
687,97	1245,16
688,16	1286,12
688,34	1298,41
688,53	1214,45
688,71	1282,03
688,90	1282,03
689,08	1263,60
689,27	1245,16
689,45	1265,64
689,64	1253,36
689,82	1273,84
690,01	1249,26
690,19	1187,82
690,38	1271,79
690,56	1265,64
690,75	1247,21
690,93	1333,23
691,12	1304,56
691,30	1302,51
691,49	1288,17
691,67	1267,69
691,86	1298,41
692,04	1236,97
692,23	1249,26
692,41	1269,74
692,60	1257,45
692,78	1318,89
692,97	1308,65
693,15	1318,89
693,34	1279,98
693,52	1333,23
693,71	1171,44
693,89	1196,01
694,08	1247,21
694,26	1296,36
694,44	1263,60
694,63	1239,02
694,81	1290,22
695,00	1241,07
695,18	1243,12
695,37	1284,08
695,55	1243,12
695,74	1284,08
695,92	1279,98
696,10	1275,88
696,29	1331,18
696,47	1198,06
696,66	1249,26
696,84	1304,56
697,03	1208,30
697,21	1304,56
697,40	1380,33
697,58	1335,28
697,76	1204,21
697,95	1294,32
698,13	1292,27
698,32	1255,40
698,50	1282,03
698,68	1304,56
698,87	1355,76
699,05	1292,27
699,24	1275,88
699,42	1255,40
699,61	1275,88
699,79	1249,26
699,97	1241,07
700,16	1234,93
700,34	1253,36
700,53	1298,41
700,71	1226,73
700,89	1265,64
701,08	1265,64
701,26	1249,26
701,45	1271,79
701,63	1290,22
701,81	1210,35
702,00	1232,88
702,18	1284,08
702,37	1292,27
702,55	1329,13
702,73	1251,31
702,92	1361,90
703,10	1255,40
703,28	1255,40
703,47	1314,80
703,65	1288,17
703,84	1183,73
704,02	1216,49
704,20	1271,79
704,39	1247,21
704,57	1265,64
704,75	1257,45
704,94	1216,49
705,12	1325,04
705,30	1222,64
705,49	1269,74
705,67	1327,08
705,86	1257,45
706,04	1228,78
706,22	1296,36
706,41	1351,66
706,59	1267,69
706,77	1288,17
706,96	1296,36
707,14	1200,11
707,32	1206,25
707,51	1296,36
707,69	1249,26
707,87	1224,69
708,06	1243,12
708,24	1245,16
708,42	1304,56
708,61	1298,41
708,79	1255,40
708,97	1271,79
709,16	1236,97
709,34	1249,26
709,52	1263,60
709,71	1277,93
709,89	1253,36
710,07	1241,07
710,26	1269,74
710,44	1218,54
710,62	1247,21
710,80	1265,64
710,99	1269,74
711,17	1239,02
711,35	1216,49
711,54	1290,22
711,72	1251,31
711,90	1310,70
712,09	1245,16
712,27	1261,55
712,45	1345,52
712,63	1271,79
712,82	1202,16
713,00	1279,98
713,18	1251,31
713,37	1304,56
713,55	1327,08
713,73	1263,60
713,91	1275,88
714,10	1275,88
714,28	1189,87
714,46	1265,64
714,65	1308,65
714,83	1265,64
715,01	1257,45
715,19	1310,70
715,38	1202,16
715,56	1257,45
715,74	1308,65
715,92	1255,40
716,11	1208,30
716,29	1257,45
716,47	1273,84
716,65	1337,32
716,84	1294,32
717,02	1337,32
717,20	1263,60
717,38	1261,55
717,57	1275,88
717,75	1249,26
717,93	1277,93
718,11	1261,55
718,30	1236,97
718,48	1306,60
718,66	1331,18
718,84	1318,89
719,03	1279,98
719,21	1220,59
719,39	1269,74
719,57	1253,36
719,75	1273,84
719,94	1294,32
720,12	1243,12
720,30	1251,31
720,48	1314,80
720,67	1247,21
720,85	1310,70
721,03	1277,93
721,21	1282,03
721,39	1353,71
721,58	1294,32
721,76	1247,21
721,94	1251,31
722,12	1247,21
722,30	1282,03
722,49	1193,97
722,67	1179,63
722,85	1279,98
723,03	1222,64
723,21	1249,26
723,40	1273,84
723,58	1210,35
723,76	1234,93
723,94	1224,69
724,12	1159,15
724,30	1366,00
724,49	1286,12
724,67	1210,35
724,85	1255,40
725,03	1245,16
725,21	1286,12
725,40	1298,41
725,58	1294,32
725,76	1376,24
725,94	1310,70
726,12	1251,31
726,30	1325,04
726,49	1236,97
726,67	1286,12
726,85	1275,88
727,03	1230,83
727,21	1318,89
727,39	1318,89
727,57	1212,40
727,76	1325,04
727,94	1288,17
728,12	1239,02
728,30	1241,07
728,48	1275,88
728,66	1261,55
728,84	1232,88
729,03	1236,97
729,21	1271,79
729,39	1329,13
729,57	1216,49
729,75	1292,27
729,93	1300,46
730,11	1331,18
730,30	1245,16
730,48	1327,08
730,66	1216,49
730,84	1273,84
731,02	1288,17
731,20	1236,97
731,38	1277,93
731,56	1273,84
731,74	1212,40
731,93	1263,60
732,11	1267,69
732,29	1296,36
732,47	1253,36
732,65	1251,31
732,83	1249,26
733,01	1314,80
733,19	1271,79
733,37	1292,27
733,56	1181,68
733,74	1249,26
733,92	1298,41
734,10	1282,03
734,28	1247,21
734,46	1271,79
734,64	1245,16
734,82	1306,60
735,00	1265,64
735,18	1263,60
735,36	1290,22
735,54	1241,07
735,73	1204,21
735,91	1296,36
736,09	1308,65
736,27	1271,79
736,45	1247,21
736,63	1298,41
736,81	1306,60
736,99	1206,25
737,17	1269,74
737,35	1249,26
737,53	1245,16
737,71	1208,30
737,89	1341,42
738,07	1257,45
738,25	1273,84
738,43	1271,79
738,61	1255,40
738,80	1265,64
738,98	1189,87
739,16	1265,64
739,34	1183,73
739,52	1302,51
739,70	1247,21
739,88	1302,51
740,06	1296,36
740,24	1282,03
740,42	1191,92
740,60	1300,46
740,78	1275,88
740,96	1265,64
741,14	1310,70
741,32	1230,83
741,50	1302,51
741,68	1290,22
741,86	1273,84
742,04	1265,64
742,22	1130,48
742,40	1261,55
742,58	1310,70
742,76	1292,27
742,94	1255,40
743,12	1263,60
743,30	1286,12
743,48	1331,18
743,66	1249,26
743,84	1296,36
744,02	1288,17
744,20	1306,60
744,38	1327,08
744,56	1183,73
744,74	1265,64
744,92	1329,13
745,10	1236,97
745,28	1331,18
745,46	1261,55
745,64	1218,54
745,82	1171,44
746,00	1275,88
746,18	1275,88
746,36	1261,55
746,54	1316,84
746,72	1351,66
746,90	1224,69
747,08	1255,40
747,26	1241,07
747,44	1239,02
747,62	1292,27
747,80	1255,40
747,98	1286,12
748,15	1279,98
748,33	1261,55
748,51	1314,80
748,69	1239,02
748,87	1290,22
749,05	1290,22
749,23	1310,70
749,41	1296,36
749,59	1261,55
749,77	1310,70
749,95	1290,22
750,13	1232,88
750,31	1249,26
750,49	1249,26
750,67	1253,36
750,85	1253,36
751,03	1245,16
751,20	1236,97
751,38	1282,03
751,56	1314,80
751,74	1271,79
751,92	1288,17
752,10	1331,18
752,28	1222,64
752,46	1288,17
752,64	1216,49
752,82	1277,93
753,00	1327,08
753,18	1255,40
753,35	1316,84
753,53	1210,35
753,71	1284,08
753,89	1304,56
754,07	1245,16
754,25	1189,87
754,43	1288,17
754,61	1224,69
754,79	1251,31
754,97	1271,79
755,14	1273,84
755,32	1269,74
755,50	1290,22
755,68	1273,84
755,86	1267,69
756,04	1322,99
756,22	1234,93
756,40	1261,55
756,57	1286,12
756,75	1263,60
756,93	1218,54
757,11	1222,64
757,29	1316,84
757,47	1275,88
757,65	1218,54
757,82	1224,69
758,00	1206,25
758,18	1259,50
758,36	1275,88
758,54	1269,74
758,72	1282,03
758,90	1259,50
759,07	1232,88
759,25	1329,13
759,43	1228,78
759,61	1290,22
759,79	1253,36
759,97	1253,36
760,15	1277,93
760,32	1322,99
760,50	1218,54
760,68	1241,07
760,86	1249,26
761,04	1261,55
761,22	1290,22
761,39	1200,11
761,57	1286,12
761,75	1232,88
761,93	1296,36
762,11	1249,26
762,28	1245,16
762,46	1273,84
762,64	1253,36
762,82	1265,64
763,00	1273,84
763,18	1263,60
763,35	1294,32
763,53	1224,69
763,71	1267,69
763,89	1228,78
764,07	1300,46
764,24	1224,69
764,42	1282,03
764,60	1304,56
764,78	1275,88
764,96	1292,27
765,13	1236,97
765,31	1261,55
765,49	1322,99
765,67	1263,60
765,84	1220,59
766,02	1251,31
766,20	1255,40
766,38	1282,03
766,56	1273,84
766,73	1253,36
766,91	1253,36
767,09	1255,40
767,27	1292,27
767,44	1245,16
767,62	1263,60
767,80	1273,84
767,98	1193,97
768,15	1245,16
768,33	1300,46
768,51	1222,64
768,69	1239,02
768,87	1257,45
769,04	1257,45
769,22	1232,88
769,40	1212,40
769,58	1345,52
769,75	1271,79
769,93	1265,64
770,11	1322,99
770,28	1282,03
770,46	1296,36
770,64	1265,64
770,82	1312,75
770,99	1282,03
771,17	1273,84
771,35	1314,80
771,53	1220,59
771,70	1239,02
771,88	1284,08
772,06	1226,73
772,23	1232,88
772,41	1277,93
772,59	1247,21
772,77	1245,16
772,94	1249,26
773,12	1228,78
773,30	1202,16
773,47	1296,36
773,65	1269,74
773,83	1200,11
774,01	1277,93
774,18	1300,46
774,36	1267,69
774,54	1294,32
774,71	1273,84
774,89	1273,84
775,07	1292,27
775,24	1296,36
775,42	1322,99
775,60	1290,22
775,78	1230,83
775,95	1222,64
776,13	1282,03
776,31	1259,50
776,48	1257,45
776,66	1234,93
776,84	1222,64
777,01	1271,79
777,19	1294,32
777,37	1257,45
777,54	1224,69
777,72	1316,84
777,90	1245,16
778,07	1239,02
778,25	1300,46
778,43	1249,26
778,60	1308,65
778,78	1277,93
778,96	1316,84
779,13	1277,93
779,31	1251,31
779,49	1284,08
779,66	1259,50
779,84	1251,31
780,01	1245,16
780,19	1212,40
780,37	1279,98
780,54	1286,12
780,72	1273,84
780,90	1261,55
781,07	1277,93
781,25	1296,36
781,43	1224,69
781,60	1255,40
781,78	1329,13
781,95	1308,65
782,13	1193,97
782,31	1288,17
782,48	1239,02
782,66	1275,88
782,83	1333,23
783,01	1257,45
783,19	1216,49
783,36	1290,22
783,54	1275,88
783,72	1273,84
783,89	1265,64
784,07	1306,60
784,24	1259,50
784,42	1206,25
784,60	1265,64
784,77	1294,32
784,95	1167,34
785,12	1292,27
785,30	1286,12
785,47	1249,26
785,65	1232,88
785,83	1191,92
786,00	1267,69
786,18	1271,79
786,35	1325,04
786,53	1286,12
786,71	1263,60
786,88	1257,45
787,06	1206,25
787,23	1265,64
787,41	1290,22
787,58	1277,93
787,76	1284,08
787,94	1251,31
788,11	1288,17
788,29	1300,46
788,46	1257,45
788,64	1306,60
788,81	1267,69
788,99	1273,84
789,16	1292,27
789,34	1259,50
789,52	1267,69
789,69	1275,88
789,87	1269,74
790,04	1286,12
790,22	1320,94
790,39	1282,03
790,57	1224,69
790,74	1228,78
790,92	1206,25
791,09	1255,40
791,27	1294,32
791,44	1310,70
791,62	1255,40
791,79	1312,75
791,97	1318,89
792,15	1216,49
792,32	1239,02
792,50	1400,81
792,67	1251,31
792,85	1267,69
793,02	1220,59
793,20	1239,02
793,37	1232,88
793,55	1286,12
793,72	1310,70
793,90	1249,26
794,07	1222,64
794,25	1267,69
794,42	1212,40
794,60	1222,64
794,77	1218,54
794,95	1286,12
795,12	1263,60
795,30	1259,50
795,47	1269,74
795,65	1312,75
795,82	1306,60
796,00	1269,74
796,17	1255,40
796,34	1296,36
796,52	1282,03
796,69	1277,93
796,87	1339,37
797,04	1282,03
797,22	1245,16
797,39	1241,07
797,57	1300,46
797,74	1245,16
797,92	1290,22
798,09	1257,45
798,27	1249,26
798,44	1284,08
798,62	1277,93
798,79	1314,80
798,96	1288,17
799,14	1241,07
799,31	1204,21
799,49	1284,08
799,66	1337,32
799,84	1257,45
800,01	1261,55
800,19	1325,04
800,36	1277,93
800,53	1279,98
800,71	1271,79
800,88	1191,92
801,06	1236,97
801,23	1331,18
801,41	1265,64
801,58	1284,08
801,75	1251,31
801,93	1275,88
802,10	1275,88
802,28	1236,97
802,45	1263,60
802,63	1222,64
802,80	1208,30
802,97	1218,54
803,15	1267,69
803,32	1222,64
803,50	1290,22
803,67	1320,94
803,84	1335,28
804,02	1232,88
804,19	1298,41
804,37	1312,75
804,54	1294,32
804,71	1282,03
804,89	1220,59
805,06	1312,75
805,24	1304,56
805,41	1310,70
805,58	1271,79
805,76	1310,70
805,93	1312,75
806,10	1196,01
806,28	1327,08
806,45	1282,03
806,63	1236,97
806,80	1331,18
806,97	1257,45
807,15	1261,55
807,32	1239,02
807,49	1263,60
807,67	1286,12
807,84	1288,17
808,01	1271,79
808,19	1312,75
808,36	1304,56
808,54	1228,78
808,71	1337,32
808,88	1255,40
809,06	1288,17
809,23	1259,50
809,40	1249,26
809,58	1327,08
809,75	1294,32
809,92	1300,46
810,10	1302,51
810,27	1236,97
810,44	1185,77
810,62	1314,80
810,79	1239,02
810,96	1200,11
811,14	1341,42
811,31	1304,56
811,48	1314,80
811,66	1265,64
811,83	1249,26
812,00	1230,83
812,18	1271,79
812,35	1351,66
812,52	1282,03
812,69	1273,84
812,87	1216,49
813,04	1314,80
813,21	1202,16
813,39	1329,13
813,56	1259,50
813,73	1302,51
813,91	1284,08
814,08	1253,36
814,25	1329,13
814,42	1286,12
814,60	1259,50
814,77	1241,07
814,94	1253,36
815,12	1257,45
815,29	1249,26
815,46	1165,29
815,63	1228,78
815,81	1267,69
815,98	1290,22
816,15	1288,17
816,33	1302,51
816,50	1353,71
816,67	1284,08
816,84	1255,40
817,02	1239,02
817,19	1263,60
817,36	1257,45
817,53	1304,56
817,71	1249,26
817,88	1306,60
818,05	1263,60
818,22	1241,07
818,40	1314,80
818,57	1257,45
818,74	1210,35
818,91	1251,31
819,09	1226,73
819,26	1255,40
819,43	1253,36
819,60	1304,56
819,78	1210,35
819,95	1224,69
820,12	1290,22
820,29	1290,22
820,47	1255,40
820,64	1290,22
820,81	1243,12
820,98	1273,84
821,15	1234,93
821,33	1253,36
821,50	1234,93
821,67	1275,88
821,84	1257,45
822,02	1241,07
822,19	1265,64
822,36	1294,32
822,53	1261,55
822,70	1308,65
822,88	1269,74
823,05	1253,36
823,22	1271,79
823,39	1279,98
823,56	1239,02
823,74	1290,22
823,91	1216,49
824,08	1234,93
824,25	1200,11
824,42	1263,60
824,60	1296,36
824,77	1331,18
824,94	1249,26
825,11	1275,88
825,28	1232,88
825,45	1189,87
825,63	1214,45
825,80	1247,21
825,97	1267,69
826,14	1282,03
826,31	1271,79
826,48	1298,41
826,66	1329,13
826,83	1236,97
827,00	1189,87
827,17	1265,64
827,34	1292,27
827,51	1277,93
827,69	1271,79
827,86	1245,16
828,03	1277,93
828,20	1247,21
828,37	1232,88
828,54	1257,45
828,71	1279,98
828,89	1247,21
829,06	1230,83
829,23	1308,65
829,40	1232,88
829,57	1320,94
829,74	1206,25
829,91	1214,45
830,09	1333,23
830,26	1257,45
830,43	1355,76
830,60	1306,60
830,77	1200,11
830,94	1265,64
831,11	1269,74
831,28	1239,02
831,46	1308,65
831,63	1269,74
831,80	1247,21
831,97	1286,12
832,14	1273,84
832,31	1251,31
832,48	1206,25
832,65	1316,84
832,82	1329,13
832,99	1218,54
833,17	1277,93
833,34	1314,80
833,51	1222,64
833,68	1191,92
833,85	1249,26
834,02	1306,60
834,19	1214,45
834,36	1259,50
834,53	1255,40
834,70	1167,34
834,87	1282,03
835,04	1273,84
835,22	1228,78
835,39	1232,88
835,56	1290,22
835,73	1230,83
835,90	1302,51
836,07	1212,40
836,24	1265,64
836,41	1267,69
836,58	1259,50
836,75	1220,59
836,92	1255,40
837,09	1196,01
837,26	1316,84
837,43	1220,59
837,60	1263,60
837,77	1325,04
837,94	1257,45
838,12	1243,12
838,29	1300,46
838,46	1232,88
838,63	1241,07
838,80	1279,98
838,97	1265,64
839,14	1243,12
839,31	1204,21
839,48	1214,45
839,65	1249,26
839,82	1236,97
839,99	1298,41
840,16	1232,88
840,33	1241,07
840,50	1310,70
840,67	1265,64
840,84	1261,55
841,01	1253,36
841,18	1226,73
841,35	1308,65
841,52	1259,50
841,69	1300,46
841,86	1257,45
842,03	1282,03
842,20	1331,18
842,37	1335,28
842,54	1294,32
842,71	1232,88
842,88	1196,01
843,05	1263,60
843,22	1282,03
843,39	1257,45
843,56	1222,64
843,73	1329,13
843,90	1241,07
844,07	1306,60
844,24	1241,07
844,41	1243,12
844,58	1284,08
844,75	1290,22
844,92	1329,13
845,09	1249,26
845,26	1247,21
845,43	1255,40
845,60	1210,35
845,77	1230,83
845,94	1259,50
846,10	1236,97
846,27	1224,69
846,44	1296,36
846,61	1376,24
846,78	1251,31
846,95	1253,36
847,12	1193,97
847,29	1279,98
847,46	1257,45
847,63	1247,21
847,80	1218,54
847,97	1277,93
848,14	1239,02
848,31	1253,36
848,48	1294,32
848,65	1298,41
848,82	1253,36
848,98	1275,88
849,15	1228,78
849,32	1241,07
849,49	1253,36
849,66	1292,27
849,83	1241,07
850,00	1306,60
850,17	1263,60
850,34	1206,25
850,51	1179,63
850,68	1290,22
850,85	1275,88
851,01	1284,08
851,18	1269,74
851,35	1296,36
851,52	1308,65
851,69	1345,52
851,86	1228,78
852,03	1255,40
852,20	1232,88
852,37	1206,25
852,53	1183,73
852,70	1296,36
852,87	1232,88
853,04	1216,49
853,21	1206,25
853,38	1216,49
853,55	1220,59
853,72	1224,69
853,89	1214,45
854,05	1279,98
854,22	1198,06
854,39	1236,97
854,56	1265,64
854,73	1296,36
854,90	1269,74
855,07	1239,02
855,23	1308,65
855,40	1300,46
855,57	1189,87
855,74	1271,79
855,91	1249,26
856,08	1236,97
856,25	1269,74
856,41	1191,92
856,58	1200,11
856,75	1208,30
856,92	1245,16
857,09	1273,84
857,26	1279,98
857,42	1288,17
857,59	1253,36
857,76	1175,53
857,93	1329,13
858,10	1339,37
858,27	1290,22
858,43	1257,45
858,60	1224,69
858,77	1320,94
858,94	1304,56
859,11	1286,12
859,27	1275,88
859,44	1212,40
859,61	1267,69
859,78	1236,97
859,95	1214,45
860,12	1271,79
860,28	1202,16
860,45	1267,69
860,62	1271,79
860,79	1261,55
860,95	1251,31
861,12	1257,45
861,29	1228,78
861,46	1257,45
861,63	1267,69
861,79	1228,78
861,96	1318,89
862,13	1363,95
862,30	1247,21
862,47	1345,52
862,63	1267,69
862,80	1247,21
862,97	1298,41
863,14	1263,60
863,30	1310,70
863,47	1245,16
863,64	1282,03
863,81	1314,80
863,97	1294,32
864,14	1286,12
864,31	1312,75
864,48	1333,23
864,65	1312,75
864,81	1228,78
864,98	1275,88
865,15	1255,40
865,32	1247,21
865,48	1239,02
865,65	1261,55
865,82	1298,41
865,98	1257,45
866,15	1335,28
866,32	1294,32
866,49	1253,36
866,65	1241,07
866,82	1273,84
866,99	1279,98
867,16	1251,31
867,32	1343,47
867,49	1306,60
867,66	1286,12
867,83	1228,78
867,99	1206,25
868,16	1255,40
868,33	1333,23
868,49	1265,64
868,66	1271,79
868,83	1261,55
868,99	1286,12
869,16	1275,88
869,33	1222,64
869,50	1353,71
869,66	1200,11
869,83	1220,59
870,00	1292,27
870,16	1296,36
870,33	1196,01
870,50	1261,55
870,66	1247,21
870,83	1249,26
871,00	1265,64
871,17	1298,41
871,33	1294,32
871,50	1245,16
871,67	1298,41
871,83	1296,36
872,00	1277,93
872,17	1302,51
872,33	1259,50
872,50	1292,27
872,67	1349,61
872,83	1275,88
873,00	1241,07
873,17	1300,46
873,33	1228,78
873,50	1251,31
873,67	1247,21
873,83	1322,99
874,00	1204,21
874,16	1253,36
874,33	1232,88
874,50	1279,98
874,66	1275,88
874,83	1247,21
875,00	1261,55
875,16	1327,08
875,33	1316,84
875,50	1263,60
875,66	1236,97
875,83	1243,12
875,99	1294,32
876,16	1249,26
876,33	1271,79
876,49	1286,12
876,66	1267,69
876,83	1284,08
876,99	1265,64
877,16	1245,16
877,32	1269,74
877,49	1275,88
877,66	1222,64
877,82	1232,88
877,99	1290,22
878,15	1279,98
878,32	1249,26
878,49	1177,58
878,65	1259,50
878,82	1288,17
878,98	1210,35
879,15	1249,26
879,32	1253,36
879,48	1329,13
879,65	1325,04
879,81	1290,22
879,98	1302,51
880,15	1261,55
880,31	1341,42
880,48	1275,88
880,64	1208,30
880,81	1294,32
880,97	1212,40
881,14	1370,09
881,31	1312,75
881,47	1277,93
881,64	1247,21
881,80	1241,07
881,97	1245,16
882,13	1304,56
882,30	1263,60
882,47	1275,88
882,63	1241,07
882,80	1251,31
882,96	1279,98
883,13	1282,03
883,29	1255,40
883,46	1253,36
883,62	1241,07
883,79	1265,64
883,95	1316,84
884,12	1232,88
884,29	1347,56
884,45	1292,27
884,62	1320,94
884,78	1308,65
884,95	1222,64
885,11	1300,46
885,28	1236,97
885,44	1241,07
885,61	1232,88
885,77	1255,40
885,94	1329,13
886,10	1296,36
886,27	1310,70
886,43	1310,70
886,60	1322,99
886,76	1345,52
886,93	1316,84
887,09	1325,04
887,26	1265,64
887,42	1273,84
887,59	1243,12
887,75	1263,60
887,92	1247,21
888,08	1269,74
888,25	1337,32
888,41	1206,25
888,58	1302,51
888,74	1290,22
888,91	1226,73
>>>>>End Processed Spectral Data<<<<<
