SpectraSuite Data File
++++++++++++++++++++++++++++++++++++
Date: Sun Apr 03 19:55:41 CEST 2016
User: root
Dark Spectrum Present: No
Reference Spectrum Present: No
Number of Sampled Component Spectra: 1
Spectrometers: USB4C02835
Integration Time (usec): 10000 (USB4C02835)
Spectra Averaged: 1 (USB4C02835)
Boxcar Smoothing: 0 (USB4C02835)
Correct for Electrical Dark: No (USB4C02835)
Strobe/Lamp Enabled: No (USB4C02835)
Correct for Detector Non-linearity: No (USB4C02835)
Correct for Stray Light: No (USB4C02835)
Number of Pixels in Processed Spectrum: 3648
>>>>>Begin Processed Spectral Data<<<<<
177,47	1251,31
177,69	1251,31
177,91	1251,31
178,13	1228,78
178,36	1247,21
178,58	1230,83
178,80	1191,92
179,02	1220,59
179,24	1241,07
179,46	1279,98
179,68	1239,02
179,90	1245,16
180,13	1222,64
180,35	1267,69
180,57	1306,60
180,79	1232,88
181,01	1224,69
181,23	1314,80
181,45	1269,74
181,67	1296,36
181,90	1265,64
182,12	1214,45
182,34	1288,17
182,56	1200,11
182,78	1267,69
183,00	1300,46
183,22	1304,56
183,44	1325,04
183,66	1253,36
183,89	1273,84
184,11	1241,07
184,33	1216,49
184,55	1224,69
184,77	1265,64
184,99	1243,12
185,21	1294,32
185,43	1253,36
185,65	1359,85
185,87	1239,02
186,10	1218,54
186,32	1294,32
186,54	1308,65
186,76	1234,93
186,98	1290,22
187,20	1171,44
187,42	1300,46
187,64	1277,93
187,86	1257,45
188,08	1236,97
188,30	1292,27
188,52	1271,79
188,75	1261,55
188,97	1320,94
189,19	1185,77
189,41	1232,88
189,63	1306,60
189,85	1216,49
190,07	1202,16
190,29	1282,03
190,51	1214,45
190,73	1167,34
190,95	1265,64
191,17	1273,84
191,39	1294,32
191,61	1189,87
191,84	1220,59
192,06	1277,93
192,28	1300,46
192,50	1261,55
192,72	1245,16
192,94	1306,60
193,16	1282,03
193,38	1314,80
193,60	1277,93
193,82	1275,88
194,04	1292,27
194,26	1273,84
194,48	1251,31
194,70	1234,93
194,92	1200,11
195,14	1363,95
195,36	1236,97
195,58	1267,69
195,80	1339,37
196,02	1294,32
196,24	1279,98
196,46	1292,27
196,69	1253,36
196,91	1320,94
197,13	1230,83
197,35	1316,84
197,57	1261,55
197,79	1269,74
198,01	1251,31
198,23	1269,74
198,45	1302,51
198,67	1298,41
198,89	1286,12
199,11	1312,75
199,33	1226,73
199,55	1312,75
199,77	1263,60
199,99	1292,27
200,21	1265,64
200,43	1310,70
200,65	1292,27
200,87	1298,41
201,09	1318,89
201,31	1300,46
201,53	1290,22
201,75	1259,50
201,97	1218,54
202,19	1216,49
202,41	1269,74
202,63	1316,84
202,85	1247,21
203,07	1277,93
203,29	1308,65
203,51	1236,97
203,73	1198,06
203,95	1253,36
204,17	1236,97
204,39	1263,60
204,61	1298,41
204,83	1314,80
205,05	1339,37
205,27	1267,69
205,49	1288,17
205,71	1226,73
205,93	1220,59
206,15	1224,69
206,37	1273,84
206,59	1257,45
206,81	1228,78
207,03	1271,79
207,25	1220,59
207,47	1292,27
207,69	1226,73
207,91	1255,40
208,13	1269,74
208,34	1236,97
208,56	1189,87
208,78	1314,80
209,00	1347,56
209,22	1249,26
209,44	1292,27
209,66	1269,74
209,88	1269,74
210,10	1222,64
210,32	1269,74
210,54	1282,03
210,76	1308,65
210,98	1232,88
211,20	1267,69
211,42	1247,21
211,64	1265,64
211,86	1316,84
212,08	1261,55
212,30	1224,69
212,52	1249,26
212,74	1347,56
212,96	1255,40
213,17	1226,73
213,39	1300,46
213,61	1284,08
213,83	1294,32
214,05	1222,64
214,27	1230,83
214,49	1271,79
214,71	1267,69
214,93	1263,60
215,15	1282,03
215,37	1222,64
215,59	1261,55
215,81	1200,11
216,03	1232,88
216,24	1224,69
216,46	1288,17
216,68	1263,60
216,90	1239,02
217,12	1249,26
217,34	1175,53
217,56	1282,03
217,78	1255,40
218,00	1263,60
218,22	1273,84
218,44	1298,41
218,66	1318,89
218,87	1253,36
219,09	1306,60
219,31	1279,98
219,53	1230,83
219,75	1208,30
219,97	1277,93
220,19	1226,73
220,41	1341,42
220,63	1296,36
220,85	1337,32
221,06	1249,26
221,28	1298,41
221,50	1267,69
221,72	1269,74
221,94	1282,03
222,16	1206,25
222,38	1257,45
222,60	1196,01
222,82	1322,99
223,03	1243,12
223,25	1325,04
223,47	1224,69
223,69	1216,49
223,91	1228,78
224,13	1259,50
224,35	1296,36
224,57	1191,92
224,78	1241,07
225,00	1200,11
225,22	1277,93
225,44	1292,27
225,66	1271,79
225,88	1286,12
226,10	1298,41
226,32	1259,50
226,53	1296,36
226,75	1218,54
226,97	1208,30
227,19	1251,31
227,41	1226,73
227,63	1232,88
227,85	1206,25
228,06	1212,40
228,28	1249,26
228,50	1245,16
228,72	1322,99
228,94	1230,83
229,16	1214,45
229,37	1275,88
229,59	1226,73
229,81	1282,03
230,03	1292,27
230,25	1249,26
230,47	1218,54
230,69	1290,22
230,90	1275,88
231,12	1234,93
231,34	1277,93
231,56	1193,97
231,78	1243,12
232,00	1193,97
232,21	1206,25
232,43	1247,21
232,65	1234,93
232,87	1232,88
233,09	1265,64
233,30	1382,38
233,52	1261,55
233,74	1304,56
233,96	1286,12
234,18	1220,59
234,40	1298,41
234,61	1245,16
234,83	1245,16
235,05	1265,64
235,27	1343,47
235,49	1322,99
235,70	1204,21
235,92	1314,80
236,14	1320,94
236,36	1261,55
236,58	1288,17
236,79	1228,78
237,01	1263,60
237,23	1216,49
237,45	1296,36
237,67	1288,17
237,88	1226,73
238,10	1265,64
238,32	1247,21
238,54	1310,70
238,76	1257,45
238,97	1292,27
239,19	1282,03
239,41	1341,42
239,63	1327,08
239,85	1214,45
240,06	1183,73
240,28	1337,32
240,50	1302,51
240,72	1345,52
240,93	1245,16
241,15	1230,83
241,37	1263,60
241,59	1308,65
241,81	1253,36
242,02	1232,88
242,24	1275,88
242,46	1208,30
242,68	1249,26
242,89	1298,41
243,11	1216,49
243,33	1292,27
243,55	1249,26
243,76	1251,31
243,98	1169,39
244,20	1292,27
244,42	1322,99
244,64	1212,40
244,85	1206,25
245,07	1257,45
245,29	1257,45
245,51	1243,12
245,72	1251,31
245,94	1265,64
246,16	1269,74
246,38	1320,94
246,59	1259,50
246,81	1282,03
247,03	1304,56
247,24	1232,88
247,46	1214,45
247,68	1273,84
247,90	1298,41
248,11	1273,84
248,33	1296,36
248,55	1249,26
248,77	1294,32
248,98	1277,93
249,20	1259,50
249,42	1228,78
249,64	1234,93
249,85	1241,07
250,07	1306,60
250,29	1322,99
250,50	1239,02
250,72	1208,30
250,94	1314,80
251,16	1230,83
251,37	1271,79
251,59	1263,60
251,81	1279,98
252,02	1294,32
252,24	1290,22
252,46	1288,17
252,68	1279,98
252,89	1300,46
253,11	1232,88
253,33	1310,70
253,54	1177,58
253,76	1259,50
253,98	1265,64
254,20	1236,97
254,41	1210,35
254,63	1251,31
254,85	1241,07
255,06	1269,74
255,28	1257,45
255,50	1206,25
255,71	1279,98
255,93	1206,25
256,15	1249,26
256,36	1255,40
256,58	1265,64
256,80	1282,03
257,02	1247,21
257,23	1357,80
257,45	1257,45
257,67	1341,42
257,88	1234,93
258,10	1288,17
258,32	1265,64
258,53	1343,47
258,75	1269,74
258,97	1200,11
259,18	1216,49
259,40	1296,36
259,62	1251,31
259,83	1257,45
260,05	1374,19
260,27	1318,89
260,48	1275,88
260,70	1220,59
260,92	1275,88
261,13	1253,36
261,35	1247,21
261,57	1331,18
261,78	1239,02
262,00	1234,93
262,22	1296,36
262,43	1300,46
262,65	1302,51
262,86	1322,99
263,08	1263,60
263,30	1224,69
263,51	1222,64
263,73	1318,89
263,95	1288,17
264,16	1236,97
264,38	1267,69
264,60	1284,08
264,81	1247,21
265,03	1279,98
265,25	1267,69
265,46	1298,41
265,68	1236,97
265,89	1196,01
266,11	1210,35
266,33	1347,56
266,54	1216,49
266,76	1204,21
266,98	1265,64
267,19	1279,98
267,41	1214,45
267,62	1282,03
267,84	1226,73
268,06	1298,41
268,27	1288,17
268,49	1261,55
268,70	1300,46
268,92	1220,59
269,14	1230,83
269,35	1253,36
269,57	1261,55
269,79	1259,50
270,00	1279,98
270,22	1320,94
270,43	1247,21
270,65	1308,65
270,87	1253,36
271,08	1200,11
271,30	1212,40
271,51	1265,64
271,73	1228,78
271,95	1374,19
272,16	1265,64
272,38	1294,32
272,59	1198,06
272,81	1284,08
273,02	1292,27
273,24	1226,73
273,46	1363,95
273,67	1228,78
273,89	1320,94
274,10	1329,13
274,32	1275,88
274,54	1284,08
274,75	1236,97
274,97	1382,38
275,18	1284,08
275,40	1273,84
275,61	1306,60
275,83	1325,04
276,05	1286,12
276,26	1355,76
276,48	1294,32
276,69	1245,16
276,91	1269,74
277,12	1298,41
277,34	1282,03
277,55	1312,75
277,77	1372,14
277,99	1257,45
278,20	1298,41
278,42	1259,50
278,63	1277,93
278,85	1292,27
279,06	1148,91
279,28	1308,65
279,49	1277,93
279,71	1284,08
279,93	1239,02
280,14	1232,88
280,36	1261,55
280,57	1247,21
280,79	1236,97
281,00	1310,70
281,22	1277,93
281,43	1210,35
281,65	1208,30
281,86	1253,36
282,08	1300,46
282,29	1275,88
282,51	1267,69
282,73	1212,40
282,94	1228,78
283,16	1273,84
283,37	1236,97
283,59	1251,31
283,80	1257,45
284,02	1282,03
284,23	1265,64
284,45	1259,50
284,66	1257,45
284,88	1218,54
285,09	1230,83
285,31	1234,93
285,52	1257,45
285,74	1243,12
285,95	1269,74
286,17	1370,09
286,38	1261,55
286,60	1298,41
286,81	1251,31
287,03	1255,40
287,24	1339,37
287,46	1304,56
287,67	1243,12
287,89	1245,16
288,10	1273,84
288,32	1300,46
288,53	1292,27
288,75	1265,64
288,96	1230,83
289,18	1267,69
289,39	1230,83
289,61	1277,93
289,82	1345,52
290,04	1241,07
290,25	1249,26
290,47	1304,56
290,68	1296,36
290,90	1202,16
291,11	1286,12
291,33	1232,88
291,54	1239,02
291,76	1282,03
291,97	1279,98
292,18	1265,64
292,40	1327,08
292,61	1220,59
292,83	1298,41
293,04	1288,17
293,26	1202,16
293,47	1236,97
293,69	1257,45
293,90	1296,36
294,12	1325,04
294,33	1312,75
294,55	1249,26
294,76	1239,02
294,97	1265,64
295,19	1251,31
295,40	1255,40
295,62	1286,12
295,83	1243,12
296,05	1271,79
296,26	1241,07
296,48	1236,97
296,69	1290,22
296,90	1265,64
297,12	1251,31
297,33	1210,35
297,55	1146,86
297,76	1327,08
297,98	1294,32
298,19	1187,82
298,41	1236,97
298,62	1341,42
298,83	1236,97
299,05	1269,74
299,26	1220,59
299,48	1200,11
299,69	1351,66
299,90	1345,52
300,12	1304,56
300,33	1183,73
300,55	1271,79
300,76	1245,16
300,98	1269,74
301,19	1259,50
301,40	1263,60
301,62	1255,40
301,83	1228,78
302,05	1243,12
302,26	1232,88
302,47	1259,50
302,69	1300,46
302,90	1245,16
303,12	1333,23
303,33	1359,85
303,54	1263,60
303,76	1239,02
303,97	1232,88
304,19	1337,32
304,40	1308,65
304,61	1294,32
304,83	1331,18
305,04	1269,74
305,26	1263,60
305,47	1271,79
305,68	1261,55
305,90	1249,26
306,11	1279,98
306,33	1320,94
306,54	1314,80
306,75	1322,99
306,97	1218,54
307,18	1185,77
307,39	1239,02
307,61	1277,93
307,82	1347,56
308,04	1245,16
308,25	1279,98
308,46	1325,04
308,68	1292,27
308,89	1282,03
309,10	1277,93
309,32	1308,65
309,53	1267,69
309,74	1273,84
309,96	1277,93
310,17	1220,59
310,39	1286,12
310,60	1310,70
310,81	1275,88
311,03	1286,12
311,24	1243,12
311,45	1318,89
311,67	1294,32
311,88	1290,22
312,09	1269,74
312,31	1292,27
312,52	1216,49
312,73	1253,36
312,95	1249,26
313,16	1241,07
313,37	1282,03
313,59	1241,07
313,80	1290,22
314,01	1187,82
314,23	1249,26
314,44	1249,26
314,65	1304,56
314,87	1290,22
315,08	1255,40
315,29	1306,60
315,51	1255,40
315,72	1271,79
315,93	1296,36
316,15	1298,41
316,36	1189,87
316,57	1273,84
316,79	1265,64
317,00	1241,07
317,21	1318,89
317,43	1282,03
317,64	1300,46
317,85	1269,74
318,07	1255,40
318,28	1239,02
318,49	1294,32
318,70	1322,99
318,92	1226,73
319,13	1294,32
319,34	1267,69
319,56	1216,49
319,77	1302,51
319,98	1220,59
320,20	1257,45
320,41	1275,88
320,62	1267,69
320,83	1318,89
321,05	1290,22
321,26	1296,36
321,47	1241,07
321,69	1286,12
321,90	1187,82
322,11	1351,66
322,32	1241,07
322,54	1263,60
322,75	1316,84
322,96	1253,36
323,18	1263,60
323,39	1230,83
323,60	1224,69
323,81	1298,41
324,03	1273,84
324,24	1292,27
324,45	1255,40
324,66	1300,46
324,88	1314,80
325,09	1292,27
325,30	1226,73
325,52	1257,45
325,73	1259,50
325,94	1239,02
326,15	1257,45
326,37	1329,13
326,58	1191,92
326,79	1249,26
327,00	1241,07
327,22	1210,35
327,43	1322,99
327,64	1224,69
327,85	1284,08
328,07	1253,36
328,28	1271,79
328,49	1304,56
328,70	1327,08
328,92	1277,93
329,13	1220,59
329,34	1353,71
329,55	1239,02
329,76	1275,88
329,98	1273,84
330,19	1271,79
330,40	1224,69
330,61	1306,60
330,83	1253,36
331,04	1261,55
331,25	1247,21
331,46	1259,50
331,68	1271,79
331,89	1265,64
332,10	1271,79
332,31	1325,04
332,52	1277,93
332,74	1294,32
332,95	1245,16
333,16	1261,55
333,37	1322,99
333,58	1314,80
333,80	1179,63
334,01	1282,03
334,22	1353,71
334,43	1257,45
334,64	1224,69
334,86	1249,26
335,07	1232,88
335,28	1282,03
335,49	1308,65
335,70	1269,74
335,92	1273,84
336,13	1361,90
336,34	1277,93
336,55	1273,84
336,76	1228,78
336,98	1325,04
337,19	1304,56
337,40	1261,55
337,61	1273,84
337,82	1263,60
338,04	1236,97
338,25	1271,79
338,46	1269,74
338,67	1322,99
338,88	1300,46
339,09	1261,55
339,31	1269,74
339,52	1292,27
339,73	1282,03
339,94	1343,47
340,15	1218,54
340,36	1243,12
340,58	1261,55
340,79	1265,64
341,00	1243,12
341,21	1282,03
341,42	1251,31
341,63	1255,40
341,85	1265,64
342,06	1226,73
342,27	1347,56
342,48	1204,21
342,69	1329,13
342,90	1279,98
343,12	1318,89
343,33	1210,35
343,54	1222,64
343,75	1363,95
343,96	1241,07
344,17	1224,69
344,38	1275,88
344,60	1253,36
344,81	1253,36
345,02	1300,46
345,23	1290,22
345,44	1325,04
345,65	1247,21
345,86	1243,12
346,07	1212,40
346,29	1177,58
346,50	1243,12
346,71	1245,16
346,92	1329,13
347,13	1368,04
347,34	1216,49
347,55	1294,32
347,76	1310,70
347,98	1288,17
348,19	1269,74
348,40	1263,60
348,61	1245,16
348,82	1251,31
349,03	1253,36
349,24	1236,97
349,45	1298,41
349,66	1243,12
349,88	1204,21
350,09	1236,97
350,30	1282,03
350,51	1298,41
350,72	1271,79
350,93	1245,16
351,14	1198,06
351,35	1322,99
351,56	1243,12
351,77	1273,84
351,99	1298,41
352,20	1282,03
352,41	1292,27
352,62	1257,45
352,83	1335,28
353,04	1288,17
353,25	1290,22
353,46	1292,27
353,67	1271,79
353,88	1294,32
354,09	1234,93
354,30	1290,22
354,52	1314,80
354,73	1255,40
354,94	1216,49
355,15	1288,17
355,36	1294,32
355,57	1304,56
355,78	1312,75
355,99	1306,60
356,20	1298,41
356,41	1290,22
356,62	1253,36
356,83	1247,21
357,04	1318,89
357,25	1255,40
357,46	1245,16
357,68	1292,27
357,89	1288,17
358,10	1273,84
358,31	1271,79
358,52	1259,50
358,73	1351,66
358,94	1288,17
359,15	1292,27
359,36	1265,64
359,57	1275,88
359,78	1284,08
359,99	1239,02
360,20	1322,99
360,41	1232,88
360,62	1259,50
360,83	1304,56
361,04	1279,98
361,25	1314,80
361,46	1273,84
361,67	1214,45
361,88	1251,31
362,09	1224,69
362,30	1218,54
362,51	1290,22
362,72	1218,54
362,93	1279,98
363,14	1253,36
363,35	1314,80
363,56	1310,70
363,78	1269,74
363,99	1325,04
364,20	1216,49
364,41	1302,51
364,62	1279,98
364,83	1259,50
365,04	1261,55
365,25	1200,11
365,46	1234,93
365,67	1294,32
365,88	1298,41
366,09	1239,02
366,30	1249,26
366,51	1265,64
366,72	1263,60
366,93	1269,74
367,14	1257,45
367,35	1191,92
367,56	1163,25
367,77	1224,69
367,98	1282,03
368,18	1279,98
368,39	1302,51
368,60	1277,93
368,81	1232,88
369,02	1269,74
369,23	1314,80
369,44	1208,30
369,65	1216,49
369,86	1198,06
370,07	1277,93
370,28	1210,35
370,49	1216,49
370,70	1337,32
370,91	1239,02
371,12	1296,36
371,33	1286,12
371,54	1300,46
371,75	1284,08
371,96	1292,27
372,17	1259,50
372,38	1222,64
372,59	1232,88
372,80	1292,27
373,01	1265,64
373,22	1214,45
373,43	1279,98
373,64	1269,74
373,85	1331,18
374,06	1314,80
374,26	1273,84
374,47	1296,36
374,68	1249,26
374,89	1302,51
375,10	1232,88
375,31	1312,75
375,52	1216,49
375,73	1282,03
375,94	1189,87
376,15	1243,12
376,36	1314,80
376,57	1273,84
376,78	1239,02
376,99	1288,17
377,20	1349,61
377,40	1239,02
377,61	1241,07
377,82	1230,83
378,03	1314,80
378,24	1241,07
378,45	1288,17
378,66	1185,77
378,87	1239,02
379,08	1210,35
379,29	1232,88
379,50	1298,41
379,71	1325,04
379,91	1279,98
380,12	1267,69
380,33	1329,13
380,54	1271,79
380,75	1306,60
380,96	1300,46
381,17	1210,35
381,38	1232,88
381,59	1263,60
381,80	1267,69
382,00	1282,03
382,21	1308,65
382,42	1249,26
382,63	1310,70
382,84	1337,32
383,05	1265,64
383,26	1290,22
383,47	1288,17
383,68	1257,45
383,88	1298,41
384,09	1304,56
384,30	1249,26
384,51	1257,45
384,72	1282,03
384,93	1306,60
385,14	1208,30
385,35	1271,79
385,55	1273,84
385,76	1292,27
385,97	1214,45
386,18	1298,41
386,39	1204,21
386,60	1267,69
386,81	1212,40
387,02	1298,41
387,22	1247,21
387,43	1331,18
387,64	1282,03
387,85	1267,69
388,06	1320,94
388,27	1247,21
388,48	1273,84
388,68	1300,46
388,89	1224,69
389,10	1282,03
389,31	1322,99
389,52	1251,31
389,73	1296,36
389,93	1208,30
390,14	1185,77
390,35	1257,45
390,56	1296,36
390,77	1282,03
390,98	1249,26
391,18	1263,60
391,39	1298,41
391,60	1232,88
391,81	1218,54
392,02	1239,02
392,23	1322,99
392,43	1306,60
392,64	1335,28
392,85	1224,69
393,06	1230,83
393,27	1263,60
393,47	1257,45
393,68	1204,21
393,89	1271,79
394,10	1296,36
394,31	1202,16
394,52	1308,65
394,72	1294,32
394,93	1327,08
395,14	1275,88
395,35	1294,32
395,56	1298,41
395,76	1200,11
395,97	1185,77
396,18	1228,78
396,39	1239,02
396,60	1273,84
396,80	1226,73
397,01	1234,93
397,22	1239,02
397,43	1286,12
397,64	1312,75
397,84	1265,64
398,05	1271,79
398,26	1277,93
398,47	1253,36
398,67	1296,36
398,88	1253,36
399,09	1206,25
399,30	1236,97
399,51	1269,74
399,71	1308,65
399,92	1320,94
400,13	1245,16
400,34	1230,83
400,54	1277,93
400,75	1279,98
400,96	1286,12
401,17	1286,12
401,37	1282,03
401,58	1329,13
401,79	1239,02
402,00	1351,66
402,21	1269,74
402,41	1236,97
402,62	1220,59
402,83	1325,04
403,04	1306,60
403,24	1290,22
403,45	1271,79
403,66	1247,21
403,87	1304,56
404,07	1316,84
404,28	1243,12
404,49	1310,70
404,70	1312,75
404,90	1263,60
405,11	1253,36
405,32	1247,21
405,52	1253,36
405,73	1247,21
405,94	1322,99
406,15	1249,26
406,35	1179,63
406,56	1282,03
406,77	1196,01
406,98	1286,12
407,18	1265,64
407,39	1345,52
407,60	1322,99
407,80	1320,94
408,01	1296,36
408,22	1320,94
408,43	1314,80
408,63	1271,79
408,84	1318,89
409,05	1251,31
409,25	1277,93
409,46	1253,36
409,67	1300,46
409,88	1282,03
410,08	1241,07
410,29	1179,63
410,50	1277,93
410,70	1206,25
410,91	1265,64
411,12	1259,50
411,32	1312,75
411,53	1310,70
411,74	1249,26
411,95	1306,60
412,15	1282,03
412,36	1269,74
412,57	1286,12
412,77	1380,33
412,98	1236,97
413,19	1290,22
413,39	1189,87
413,60	1306,60
413,81	1200,11
414,01	1234,93
414,22	1302,51
414,43	1343,47
414,63	1200,11
414,84	1222,64
415,05	1269,74
415,25	1308,65
415,46	1224,69
415,67	1251,31
415,87	1261,55
416,08	1253,36
416,29	1245,16
416,49	1327,08
416,70	1304,56
416,91	1261,55
417,11	1206,25
417,32	1339,37
417,53	1179,63
417,73	1329,13
417,94	1222,64
418,15	1232,88
418,35	1216,49
418,56	1269,74
418,77	1202,16
418,97	1259,50
419,18	1226,73
419,38	1314,80
419,59	1300,46
419,80	1249,26
420,00	1275,88
420,21	1251,31
420,42	1208,30
420,62	1249,26
420,83	1259,50
421,04	1282,03
421,24	1306,60
421,45	1310,70
421,65	1282,03
421,86	1249,26
422,07	1265,64
422,27	1290,22
422,48	1196,01
422,69	1193,97
422,89	1253,36
423,10	1150,96
423,30	1288,17
423,51	1222,64
423,72	1251,31
423,92	1232,88
424,13	1179,63
424,33	1314,80
424,54	1308,65
424,75	1249,26
424,95	1236,97
425,16	1300,46
425,36	1226,73
425,57	1236,97
425,78	1333,23
425,98	1302,51
426,19	1257,45
426,39	1284,08
426,60	1234,93
426,81	1224,69
427,01	1245,16
427,22	1308,65
427,42	1236,97
427,63	1263,60
427,83	1286,12
428,04	1259,50
428,25	1189,87
428,45	1316,84
428,66	1257,45
428,86	1284,08
429,07	1288,17
429,28	1312,75
429,48	1228,78
429,69	1339,37
429,89	1296,36
430,10	1310,70
430,30	1261,55
430,51	1257,45
430,71	1232,88
430,92	1329,13
431,13	1249,26
431,33	1314,80
431,54	1255,40
431,74	1230,83
431,95	1296,36
432,15	1232,88
432,36	1335,28
432,56	1279,98
432,77	1273,84
432,98	1288,17
433,18	1279,98
433,39	1261,55
433,59	1202,16
433,80	1359,85
434,00	1304,56
434,21	1206,25
434,41	1239,02
434,62	1306,60
434,82	1286,12
435,03	1236,97
435,23	1234,93
435,44	1277,93
435,64	1298,41
435,85	1212,40
436,06	1257,45
436,26	1312,75
436,47	1351,66
436,67	1253,36
436,88	1345,52
437,08	1296,36
437,29	1304,56
437,49	1308,65
437,70	1261,55
437,90	1261,55
438,11	1341,42
438,31	1294,32
438,52	1273,84
438,72	1224,69
438,93	1224,69
439,13	1322,99
439,34	1284,08
439,54	1312,75
439,75	1271,79
439,95	1282,03
440,16	1277,93
440,36	1249,26
440,57	1333,23
440,77	1245,16
440,98	1275,88
441,18	1304,56
441,39	1261,55
441,59	1298,41
441,80	1273,84
442,00	1296,36
442,21	1269,74
442,41	1314,80
442,62	1275,88
442,82	1253,36
443,02	1189,87
443,23	1306,60
443,43	1306,60
443,64	1261,55
443,84	1288,17
444,05	1243,12
444,25	1353,71
444,46	1298,41
444,66	1208,30
444,87	1249,26
445,07	1267,69
445,28	1191,92
445,48	1241,07
445,69	1277,93
445,89	1251,31
446,09	1308,65
446,30	1282,03
446,50	1286,12
446,71	1232,88
446,91	1288,17
447,12	1290,22
447,32	1263,60
447,53	1335,28
447,73	1320,94
447,93	1277,93
448,14	1302,51
448,34	1271,79
448,55	1239,02
448,75	1347,56
448,96	1290,22
449,16	1314,80
449,36	1296,36
449,57	1331,18
449,77	1212,40
449,98	1300,46
450,18	1222,64
450,39	1357,80
450,59	1241,07
450,79	1312,75
451,00	1288,17
451,20	1245,16
451,41	1269,74
451,61	1271,79
451,81	1214,45
452,02	1304,56
452,22	1224,69
452,43	1183,73
452,63	1302,51
452,84	1337,32
453,04	1273,84
453,24	1277,93
453,45	1306,60
453,65	1255,40
453,86	1343,47
454,06	1286,12
454,26	1263,60
454,47	1245,16
454,67	1267,69
454,87	1322,99
455,08	1265,64
455,28	1318,89
455,49	1261,55
455,69	1277,93
455,89	1314,80
456,10	1333,23
456,30	1245,16
456,51	1273,84
456,71	1273,84
456,91	1236,97
457,12	1337,32
457,32	1273,84
457,52	1347,56
457,73	1267,69
457,93	1257,45
458,14	1251,31
458,34	1304,56
458,54	1249,26
458,75	1251,31
458,95	1327,08
459,15	1322,99
459,36	1325,04
459,56	1271,79
459,76	1224,69
459,97	1226,73
460,17	1290,22
460,37	1239,02
460,58	1294,32
460,78	1294,32
460,99	1216,49
461,19	1273,84
461,39	1308,65
461,60	1267,69
461,80	1257,45
462,00	1243,12
462,21	1304,56
462,41	1355,76
462,61	1183,73
462,82	1327,08
463,02	1263,60
463,22	1290,22
463,43	1263,60
463,63	1353,71
463,83	1275,88
464,04	1212,40
464,24	1275,88
464,44	1232,88
464,64	1230,83
464,85	1220,59
465,05	1212,40
465,25	1275,88
465,46	1263,60
465,66	1247,21
465,86	1234,93
466,07	1343,47
466,27	1214,45
466,47	1273,84
466,68	1198,06
466,88	1306,60
467,08	1306,60
467,29	1226,73
467,49	1279,98
467,69	1296,36
467,89	1273,84
468,10	1282,03
468,30	1224,69
468,50	1279,98
468,71	1267,69
468,91	1226,73
469,11	1312,75
469,31	1263,60
469,52	1306,60
469,72	1327,08
469,92	1277,93
470,13	1259,50
470,33	1261,55
470,53	1204,21
470,73	1245,16
470,94	1273,84
471,14	1259,50
471,34	1351,66
471,54	1228,78
471,75	1329,13
471,95	1279,98
472,15	1288,17
472,36	1320,94
472,56	1247,21
472,76	1267,69
472,96	1318,89
473,17	1314,80
473,37	1275,88
473,57	1261,55
473,77	1210,35
473,98	1279,98
474,18	1282,03
474,38	1216,49
474,58	1226,73
474,79	1333,23
474,99	1331,18
475,19	1220,59
475,39	1308,65
475,60	1312,75
475,80	1277,93
476,00	1247,21
476,20	1271,79
476,41	1210,35
476,61	1241,07
476,81	1255,40
477,01	1300,46
477,21	1306,60
477,42	1263,60
477,62	1245,16
477,82	1247,21
478,02	1273,84
478,23	1271,79
478,43	1333,23
478,63	1302,51
478,83	1322,99
479,03	1284,08
479,24	1241,07
479,44	1294,32
479,64	1265,64
479,84	1290,22
480,04	1302,51
480,25	1253,36
480,45	1308,65
480,65	1314,80
480,85	1288,17
481,06	1261,55
481,26	1253,36
481,46	1288,17
481,66	1261,55
481,86	1228,78
482,06	1296,36
482,27	1263,60
482,47	1279,98
482,67	1247,21
482,87	1298,41
483,07	1222,64
483,28	1277,93
483,48	1314,80
483,68	1261,55
483,88	1249,26
484,08	1261,55
484,29	1271,79
484,49	1284,08
484,69	1290,22
484,89	1251,31
485,09	1320,94
485,29	1228,78
485,50	1255,40
485,70	1255,40
485,90	1279,98
486,10	1271,79
486,30	1216,49
486,50	1310,70
486,71	1241,07
486,91	1273,84
487,11	1245,16
487,31	1261,55
487,51	1314,80
487,71	1142,77
487,91	1304,56
488,12	1245,16
488,32	1226,73
488,52	1269,74
488,72	1296,36
488,92	1337,32
489,12	1282,03
489,32	1331,18
489,53	1247,21
489,73	1255,40
489,93	1200,11
490,13	1282,03
490,33	1255,40
490,53	1257,45
490,73	1218,54
490,94	1310,70
491,14	1288,17
491,34	1296,36
491,54	1302,51
491,74	1271,79
491,94	1355,76
492,14	1294,32
492,34	1282,03
492,54	1247,21
492,75	1230,83
492,95	1183,73
493,15	1202,16
493,35	1331,18
493,55	1245,16
493,75	1271,79
493,95	1378,28
494,15	1298,41
494,35	1271,79
494,56	1177,58
494,76	1327,08
494,96	1239,02
495,16	1259,50
495,36	1318,89
495,56	1282,03
495,76	1261,55
495,96	1296,36
496,16	1312,75
496,36	1275,88
496,56	1212,40
496,77	1306,60
496,97	1224,69
497,17	1261,55
497,37	1286,12
497,57	1292,27
497,77	1257,45
497,97	1310,70
498,17	1220,59
498,37	1292,27
498,57	1232,88
498,77	1288,17
498,97	1310,70
499,17	1333,23
499,38	1255,40
499,58	1296,36
499,78	1273,84
499,98	1271,79
500,18	1284,08
500,38	1339,37
500,58	1308,65
500,78	1261,55
500,98	1296,36
501,18	1241,07
501,38	1314,80
501,58	1245,16
501,78	1261,55
501,98	1316,84
502,18	1234,93
502,38	1292,27
502,58	1257,45
502,78	1255,40
502,98	1308,65
503,18	1257,45
503,38	1259,50
503,59	1239,02
503,79	1253,36
503,99	1257,45
504,19	1269,74
504,39	1216,49
504,59	1322,99
504,79	1259,50
504,99	1282,03
505,19	1249,26
505,39	1267,69
505,59	1232,88
505,79	1341,42
505,99	1298,41
506,19	1269,74
506,39	1241,07
506,59	1265,64
506,79	1245,16
506,99	1316,84
507,19	1247,21
507,39	1331,18
507,59	1261,55
507,79	1312,75
507,99	1214,45
508,19	1302,51
508,39	1286,12
508,59	1269,74
508,79	1239,02
508,99	1355,76
509,19	1296,36
509,39	1239,02
509,59	1241,07
509,79	1282,03
509,99	1277,93
510,19	1351,66
510,39	1288,17
510,59	1241,07
510,79	1302,51
510,99	1257,45
511,19	1271,79
511,39	1267,69
511,59	1216,49
511,79	1316,84
511,99	1282,03
512,19	1228,78
512,38	1230,83
512,58	1261,55
512,78	1263,60
512,98	1335,28
513,18	1243,12
513,38	1275,88
513,58	1255,40
513,78	1220,59
513,98	1265,64
514,18	1247,21
514,38	1243,12
514,58	1298,41
514,78	1292,27
514,98	1294,32
515,18	1282,03
515,38	1275,88
515,58	1245,16
515,78	1253,36
515,98	1290,22
516,18	1304,56
516,38	1271,79
516,57	1318,89
516,77	1304,56
516,97	1265,64
517,17	1337,32
517,37	1284,08
517,57	1243,12
517,77	1269,74
517,97	1247,21
518,17	1298,41
518,37	1279,98
518,57	1273,84
518,77	1249,26
518,97	1302,51
519,16	1298,41
519,36	1322,99
519,56	1288,17
519,76	1304,56
519,96	1294,32
520,16	1322,99
520,36	1314,80
520,56	1269,74
520,76	1241,07
520,96	1271,79
521,16	1345,52
521,35	1294,32
521,55	1331,18
521,75	1269,74
521,95	1271,79
522,15	1232,88
522,35	1277,93
522,55	1279,98
522,75	1230,83
522,95	1302,51
523,14	1302,51
523,34	1245,16
523,54	1304,56
523,74	1322,99
523,94	1339,37
524,14	1271,79
524,34	1275,88
524,54	1265,64
524,73	1310,70
524,93	1300,46
525,13	1341,42
525,33	1196,01
525,53	1339,37
525,73	1347,56
525,93	1239,02
526,13	1290,22
526,32	1273,84
526,52	1343,47
526,72	1300,46
526,92	1216,49
527,12	1355,76
527,32	1259,50
527,52	1329,13
527,71	1263,60
527,91	1271,79
528,11	1300,46
528,31	1239,02
528,51	1290,22
528,71	1282,03
528,90	1339,37
529,10	1271,79
529,30	1316,84
529,50	1306,60
529,70	1275,88
529,90	1234,93
530,09	1286,12
530,29	1318,89
530,49	1269,74
530,69	1296,36
530,89	1241,07
531,09	1306,60
531,28	1234,93
531,48	1241,07
531,68	1282,03
531,88	1222,64
532,08	1292,27
532,28	1320,94
532,47	1298,41
532,67	1308,65
532,87	1304,56
533,07	1302,51
533,27	1255,40
533,46	1341,42
533,66	1296,36
533,86	1304,56
534,06	1204,21
534,26	1273,84
534,45	1271,79
534,65	1329,13
534,85	1222,64
535,05	1273,84
535,25	1243,12
535,44	1245,16
535,64	1259,50
535,84	1361,90
536,04	1267,69
536,24	1290,22
536,43	1261,55
536,63	1298,41
536,83	1327,08
537,03	1298,41
537,22	1249,26
537,42	1308,65
537,62	1210,35
537,82	1236,97
538,02	1312,75
538,21	1312,75
538,41	1269,74
538,61	1257,45
538,81	1320,94
539,00	1327,08
539,20	1206,25
539,40	1236,97
539,60	1284,08
539,79	1273,84
539,99	1316,84
540,19	1273,84
540,39	1314,80
540,58	1327,08
540,78	1333,23
540,98	1263,60
541,18	1296,36
541,37	1302,51
541,57	1298,41
541,77	1247,21
541,97	1335,28
542,16	1232,88
542,36	1286,12
542,56	1282,03
542,76	1310,70
542,95	1255,40
543,15	1284,08
543,35	1312,75
543,54	1320,94
543,74	1341,42
543,94	1245,16
544,14	1306,60
544,33	1294,32
544,53	1236,97
544,73	1284,08
544,93	1298,41
545,12	1353,71
545,32	1232,88
545,52	1325,04
545,71	1193,97
545,91	1314,80
546,11	1279,98
546,30	1269,74
546,50	1308,65
546,70	1239,02
546,90	1343,47
547,09	1312,75
547,29	1251,31
547,49	1322,99
547,68	1216,49
547,88	1279,98
548,08	1269,74
548,27	1335,28
548,47	1277,93
548,67	1226,73
548,87	1312,75
549,06	1282,03
549,26	1265,64
549,46	1245,16
549,65	1296,36
549,85	1343,47
550,05	1290,22
550,24	1345,52
550,44	1302,51
550,64	1243,12
550,83	1320,94
551,03	1294,32
551,23	1224,69
551,42	1271,79
551,62	1261,55
551,82	1320,94
552,01	1316,84
552,21	1282,03
552,41	1302,51
552,60	1351,66
552,80	1314,80
553,00	1294,32
553,19	1265,64
553,39	1322,99
553,59	1241,07
553,78	1263,60
553,98	1333,23
554,17	1284,08
554,37	1279,98
554,57	1261,55
554,76	1251,31
554,96	1271,79
555,16	1290,22
555,35	1320,94
555,55	1226,73
555,75	1318,89
555,94	1247,21
556,14	1347,56
556,33	1300,46
556,53	1245,16
556,73	1247,21
556,92	1310,70
557,12	1245,16
557,32	1382,38
557,51	1290,22
557,71	1273,84
557,90	1257,45
558,10	1204,21
558,30	1304,56
558,49	1267,69
558,69	1288,17
558,88	1318,89
559,08	1206,25
559,28	1325,04
559,47	1288,17
559,67	1300,46
559,86	1202,16
560,06	1316,84
560,26	1282,03
560,45	1345,52
560,65	1343,47
560,84	1322,99
561,04	1214,45
561,24	1279,98
561,43	1286,12
561,63	1300,46
561,82	1267,69
562,02	1241,07
562,22	1267,69
562,41	1300,46
562,61	1329,13
562,80	1277,93
563,00	1318,89
563,19	1329,13
563,39	1347,56
563,59	1347,56
563,78	1314,80
563,98	1253,36
564,17	1259,50
564,37	1363,95
564,56	1327,08
564,76	1277,93
564,96	1388,52
565,15	1243,12
565,35	1361,90
565,54	1288,17
565,74	1249,26
565,93	1230,83
566,13	1415,15
566,32	1279,98
566,52	1202,16
566,71	1243,12
566,91	1329,13
567,11	1269,74
567,30	1306,60
567,50	1376,24
567,69	1406,95
567,89	1339,37
568,08	1255,40
568,28	1251,31
568,47	1335,28
568,67	1277,93
568,86	1327,08
569,06	1347,56
569,25	1329,13
569,45	1306,60
569,64	1314,80
569,84	1347,56
570,04	1277,93
570,23	1277,93
570,43	1318,89
570,62	1271,79
570,82	1343,47
571,01	1263,60
571,21	1306,60
571,40	1306,60
571,60	1253,36
571,79	1228,78
571,99	1243,12
572,18	1200,11
572,38	1359,85
572,57	1290,22
572,77	1245,16
572,96	1345,52
573,16	1245,16
573,35	1271,79
573,55	1294,32
573,74	1296,36
573,94	1241,07
574,13	1259,50
574,33	1273,84
574,52	1316,84
574,71	1296,36
574,91	1343,47
575,10	1290,22
575,30	1204,21
575,49	1236,97
575,69	1267,69
575,88	1288,17
576,08	1261,55
576,27	1337,32
576,47	1198,06
576,66	1253,36
576,86	1314,80
577,05	1279,98
577,25	1259,50
577,44	1275,88
577,64	1294,32
577,83	1300,46
578,02	1320,94
578,22	1325,04
578,41	1304,56
578,61	1296,36
578,80	1349,61
579,00	1322,99
579,19	1300,46
579,39	1277,93
579,58	1251,31
579,77	1267,69
579,97	1234,93
580,16	1255,40
580,36	1279,98
580,55	1290,22
580,75	1296,36
580,94	1327,08
581,13	1296,36
581,33	1275,88
581,52	1245,16
581,72	1198,06
581,91	1298,41
582,11	1279,98
582,30	1314,80
582,49	1279,98
582,69	1296,36
582,88	1265,64
583,08	1306,60
583,27	1329,13
583,47	1269,74
583,66	1290,22
583,85	1183,73
584,05	1351,66
584,24	1277,93
584,44	1302,51
584,63	1318,89
584,82	1275,88
585,02	1253,36
585,21	1302,51
585,41	1310,70
585,60	1247,21
585,79	1261,55
585,99	1322,99
586,18	1316,84
586,37	1202,16
586,57	1216,49
586,76	1306,60
586,96	1318,89
587,15	1322,99
587,34	1251,31
587,54	1236,97
587,73	1359,85
587,93	1220,59
588,12	1220,59
588,31	1298,41
588,51	1249,26
588,70	1327,08
588,89	1265,64
589,09	1310,70
589,28	1300,46
589,47	1284,08
589,67	1290,22
589,86	1228,78
590,06	1288,17
590,25	1226,73
590,44	1255,40
590,64	1351,66
590,83	1341,42
591,02	1230,83
591,22	1284,08
591,41	1247,21
591,60	1296,36
591,80	1292,27
591,99	1296,36
592,18	1273,84
592,38	1265,64
592,57	1251,31
592,76	1208,30
592,96	1257,45
593,15	1232,88
593,34	1271,79
593,54	1290,22
593,73	1359,85
593,92	1304,56
594,12	1306,60
594,31	1318,89
594,50	1345,52
594,70	1327,08
594,89	1224,69
595,08	1345,52
595,28	1302,51
595,47	1374,19
595,66	1284,08
595,86	1355,76
596,05	1286,12
596,24	1327,08
596,43	1277,93
596,63	1288,17
596,82	1249,26
597,01	1316,84
597,21	1267,69
597,40	1306,60
597,59	1353,71
597,79	1245,16
597,98	1306,60
598,17	1331,18
598,36	1234,93
598,56	1257,45
598,75	1241,07
598,94	1265,64
599,14	1245,16
599,33	1249,26
599,52	1347,56
599,71	1290,22
599,91	1232,88
600,10	1294,32
600,29	1355,76
600,48	1361,90
600,68	1224,69
600,87	1304,56
601,06	1271,79
601,26	1269,74
601,45	1314,80
601,64	1234,93
601,83	1363,95
602,03	1286,12
602,22	1259,50
602,41	1245,16
602,60	1255,40
602,80	1277,93
602,99	1331,18
603,18	1265,64
603,37	1271,79
603,57	1310,70
603,76	1329,13
603,95	1255,40
604,14	1290,22
604,34	1357,80
604,53	1329,13
604,72	1298,41
604,91	1359,85
605,10	1224,69
605,30	1239,02
605,49	1269,74
605,68	1290,22
605,87	1380,33
606,07	1273,84
606,26	1308,65
606,45	1257,45
606,64	1265,64
606,84	1279,98
607,03	1169,39
607,22	1263,60
607,41	1349,61
607,60	1294,32
607,80	1257,45
607,99	1271,79
608,18	1304,56
608,37	1339,37
608,56	1265,64
608,76	1273,84
608,95	1331,18
609,14	1222,64
609,33	1228,78
609,52	1327,08
609,72	1355,76
609,91	1327,08
610,10	1286,12
610,29	1310,70
610,48	1257,45
610,68	1232,88
610,87	1320,94
611,06	1345,52
611,25	1306,60
611,44	1339,37
611,63	1282,03
611,83	1331,18
612,02	1302,51
612,21	1251,31
612,40	1298,41
612,59	1263,60
612,79	1230,83
612,98	1243,12
613,17	1275,88
613,36	1347,56
613,55	1261,55
613,74	1275,88
613,93	1232,88
614,13	1361,90
614,32	1284,08
614,51	1292,27
614,70	1255,40
614,89	1275,88
615,08	1271,79
615,28	1263,60
615,47	1267,69
615,66	1279,98
615,85	1239,02
616,04	1292,27
616,23	1308,65
616,42	1327,08
616,62	1265,64
616,81	1204,21
617,00	1288,17
617,19	1230,83
617,38	1292,27
617,57	1327,08
617,76	1247,21
617,95	1253,36
618,15	1257,45
618,34	1382,38
618,53	1304,56
618,72	1288,17
618,91	1271,79
619,10	1335,28
619,29	1341,42
619,48	1273,84
619,68	1257,45
619,87	1259,50
620,06	1263,60
620,25	1271,79
620,44	1378,28
620,63	1216,49
620,82	1241,07
621,01	1353,71
621,20	1275,88
621,39	1273,84
621,59	1249,26
621,78	1282,03
621,97	1273,84
622,16	1310,70
622,35	1308,65
622,54	1286,12
622,73	1275,88
622,92	1267,69
623,11	1300,46
623,30	1265,64
623,49	1269,74
623,68	1298,41
623,88	1312,75
624,07	1265,64
624,26	1249,26
624,45	1368,04
624,64	1298,41
624,83	1284,08
625,02	1251,31
625,21	1263,60
625,40	1249,26
625,59	1325,04
625,78	1253,36
625,97	1243,12
626,16	1314,80
626,35	1284,08
626,54	1327,08
626,74	1234,93
626,93	1185,77
627,12	1193,97
627,31	1251,31
627,50	1292,27
627,69	1322,99
627,88	1249,26
628,07	1298,41
628,26	1361,90
628,45	1343,47
628,64	1322,99
628,83	1263,60
629,02	1247,21
629,21	1306,60
629,40	1294,32
629,59	1257,45
629,78	1202,16
629,97	1306,60
630,16	1247,21
630,35	1273,84
630,54	1275,88
630,73	1343,47
630,92	1306,60
631,11	1331,18
631,30	1357,80
631,49	1396,71
631,68	1339,37
631,87	1894,37
632,06	3215,31
632,25	4059,07
632,44	6248,35
632,63	10757,98
632,82	17782,51
633,01	16379,65
633,20	8650,62
633,39	4931,51
633,58	3028,95
633,77	2432,99
633,96	2359,26
634,15	2281,44
634,34	2070,50
634,53	2013,15
634,72	1900,52
634,91	1871,84
635,10	1806,31
635,29	1703,91
635,48	1697,77
635,67	1564,65
635,86	1581,03
636,05	1574,89
636,24	1445,87
636,43	1398,76
636,62	1310,70
636,81	1372,14
637,00	1380,33
637,19	1370,09
637,38	1257,45
637,57	1314,80
637,76	1329,13
637,95	1361,90
638,14	1339,37
638,33	1316,84
638,52	1331,18
638,71	1337,32
638,89	1312,75
639,08	1251,31
639,27	1292,27
639,46	1255,40
639,65	1337,32
639,84	1296,36
640,03	1329,13
640,22	1302,51
640,41	1339,37
640,60	1359,85
640,79	1320,94
640,98	1286,12
641,17	1349,61
641,36	1322,99
641,55	1339,37
641,74	1335,28
641,92	1378,28
642,11	1216,49
642,30	1312,75
642,49	1218,54
642,68	1325,04
642,87	1275,88
643,06	1241,07
643,25	1355,76
643,44	1216,49
643,63	1212,40
643,82	1279,98
644,00	1226,73
644,19	1255,40
644,38	1312,75
644,57	1277,93
644,76	1296,36
644,95	1196,01
645,14	1288,17
645,33	1253,36
645,52	1277,93
645,71	1265,64
645,89	1300,46
646,08	1296,36
646,27	1277,93
646,46	1236,97
646,65	1267,69
646,84	1251,31
647,03	1224,69
647,22	1245,16
647,40	1282,03
647,59	1239,02
647,78	1232,88
647,97	1343,47
648,16	1267,69
648,35	1314,80
648,54	1220,59
648,73	1269,74
648,91	1232,88
649,10	1304,56
649,29	1236,97
649,48	1247,21
649,67	1210,35
649,86	1327,08
650,05	1310,70
650,23	1288,17
650,42	1273,84
650,61	1302,51
650,80	1236,97
650,99	1306,60
651,18	1220,59
651,36	1306,60
651,55	1265,64
651,74	1234,93
651,93	1265,64
652,12	1265,64
652,31	1310,70
652,49	1257,45
652,68	1349,61
652,87	1361,90
653,06	1265,64
653,25	1316,84
653,44	1234,93
653,62	1316,84
653,81	1241,07
654,00	1306,60
654,19	1322,99
654,38	1351,66
654,56	1249,26
654,75	1214,45
654,94	1322,99
655,13	1255,40
655,32	1312,75
655,51	1290,22
655,69	1224,69
655,88	1249,26
656,07	1243,12
656,26	1251,31
656,45	1191,92
656,63	1263,60
656,82	1302,51
657,01	1259,50
657,20	1220,59
657,38	1232,88
657,57	1243,12
657,76	1277,93
657,95	1302,51
658,14	1261,55
658,32	1212,40
658,51	1302,51
658,70	1314,80
658,89	1300,46
659,08	1234,93
659,26	1269,74
659,45	1255,40
659,64	1230,83
659,83	1257,45
660,01	1206,25
660,20	1251,31
660,39	1277,93
660,58	1327,08
660,76	1226,73
660,95	1308,65
661,14	1224,69
661,33	1322,99
661,51	1255,40
661,70	1275,88
661,89	1296,36
662,08	1228,78
662,26	1339,37
662,45	1259,50
662,64	1279,98
662,83	1406,95
663,01	1224,69
663,20	1271,79
663,39	1275,88
663,58	1273,84
663,76	1308,65
663,95	1267,69
664,14	1304,56
664,32	1261,55
664,51	1282,03
664,70	1273,84
664,89	1290,22
665,07	1175,53
665,26	1198,06
665,45	1175,53
665,64	1273,84
665,82	1275,88
666,01	1261,55
666,20	1267,69
666,38	1247,21
666,57	1265,64
666,76	1273,84
666,95	1294,32
667,13	1288,17
667,32	1314,80
667,51	1232,88
667,69	1253,36
667,88	1251,31
668,07	1220,59
668,25	1322,99
668,44	1294,32
668,63	1212,40
668,81	1206,25
669,00	1265,64
669,19	1261,55
669,38	1292,27
669,56	1288,17
669,75	1308,65
669,94	1255,40
670,12	1288,17
670,31	1216,49
670,50	1216,49
670,68	1214,45
670,87	1263,60
671,06	1359,85
671,24	1312,75
671,43	1204,21
671,62	1277,93
671,80	1314,80
671,99	1271,79
672,18	1263,60
672,36	1331,18
672,55	1257,45
672,74	1296,36
672,92	1298,41
673,11	1343,47
673,29	1245,16
673,48	1206,25
673,67	1269,74
673,85	1288,17
674,04	1265,64
674,23	1320,94
674,41	1261,55
674,60	1255,40
674,79	1282,03
674,97	1263,60
675,16	1224,69
675,34	1236,97
675,53	1202,16
675,72	1265,64
675,90	1329,13
676,09	1298,41
676,28	1296,36
676,46	1261,55
676,65	1347,56
676,83	1208,30
677,02	1253,36
677,21	1255,40
677,39	1312,75
677,58	1265,64
677,77	1318,89
677,95	1206,25
678,14	1224,69
678,32	1228,78
678,51	1224,69
678,70	1290,22
678,88	1243,12
679,07	1232,88
679,25	1345,52
679,44	1251,31
679,63	1218,54
679,81	1296,36
680,00	1298,41
680,18	1234,93
680,37	1269,74
680,55	1230,83
680,74	1290,22
680,93	1363,95
681,11	1236,97
681,30	1374,19
681,48	1263,60
681,67	1259,50
681,85	1232,88
682,04	1267,69
682,23	1269,74
682,41	1239,02
682,60	1296,36
682,78	1230,83
682,97	1302,51
683,15	1255,40
683,34	1284,08
683,53	1290,22
683,71	1351,66
683,90	1277,93
684,08	1277,93
684,27	1275,88
684,45	1288,17
684,64	1306,60
684,82	1245,16
685,01	1277,93
685,19	1257,45
685,38	1263,60
685,57	1271,79
685,75	1277,93
685,94	1259,50
686,12	1234,93
686,31	1322,99
686,49	1187,82
686,68	1294,32
686,86	1316,84
687,05	1296,36
687,23	1241,07
687,42	1247,21
687,60	1282,03
687,79	1208,30
687,97	1247,21
688,16	1239,02
688,34	1230,83
688,53	1241,07
688,71	1288,17
688,90	1247,21
689,08	1271,79
689,27	1150,96
689,45	1267,69
689,64	1310,70
689,82	1300,46
690,01	1257,45
690,19	1286,12
690,38	1216,49
690,56	1263,60
690,75	1304,56
690,93	1273,84
691,12	1236,97
691,30	1230,83
691,49	1308,65
691,67	1232,88
691,86	1222,64
692,04	1259,50
692,23	1265,64
692,41	1308,65
692,60	1277,93
692,78	1222,64
692,97	1259,50
693,15	1214,45
693,34	1302,51
693,52	1191,92
693,71	1298,41
693,89	1259,50
694,08	1224,69
694,26	1320,94
694,44	1214,45
694,63	1322,99
694,81	1202,16
695,00	1288,17
695,18	1249,26
695,37	1306,60
695,55	1290,22
695,74	1222,64
695,92	1255,40
696,10	1333,23
696,29	1196,01
696,47	1279,98
696,66	1279,98
696,84	1265,64
697,03	1343,47
697,21	1277,93
697,40	1302,51
697,58	1288,17
697,76	1335,28
697,95	1312,75
698,13	1284,08
698,32	1290,22
698,50	1210,35
698,68	1277,93
698,87	1298,41
699,05	1236,97
699,24	1220,59
699,42	1257,45
699,61	1273,84
699,79	1290,22
699,97	1269,74
700,16	1318,89
700,34	1279,98
700,53	1294,32
700,71	1226,73
700,89	1292,27
701,08	1257,45
701,26	1216,49
701,45	1273,84
701,63	1325,04
701,81	1249,26
702,00	1275,88
702,18	1279,98
702,37	1269,74
702,55	1198,06
702,73	1269,74
702,92	1290,22
703,10	1304,56
703,28	1171,44
703,47	1265,64
703,65	1277,93
703,84	1275,88
704,02	1261,55
704,20	1257,45
704,39	1306,60
704,57	1284,08
704,75	1273,84
704,94	1208,30
705,12	1212,40
705,30	1265,64
705,49	1222,64
705,67	1228,78
705,86	1300,46
706,04	1349,61
706,22	1214,45
706,41	1241,07
706,59	1273,84
706,77	1261,55
706,96	1232,88
707,14	1292,27
707,32	1282,03
707,51	1257,45
707,69	1300,46
707,87	1273,84
708,06	1228,78
708,24	1333,23
708,42	1286,12
708,61	1296,36
708,79	1273,84
708,97	1159,15
709,16	1282,03
709,34	1232,88
709,52	1312,75
709,71	1279,98
709,89	1193,97
710,07	1277,93
710,26	1265,64
710,44	1253,36
710,62	1175,53
710,80	1306,60
710,99	1273,84
711,17	1292,27
711,35	1277,93
711,54	1284,08
711,72	1257,45
711,90	1296,36
712,09	1279,98
712,27	1265,64
712,45	1279,98
712,63	1241,07
712,82	1249,26
713,00	1247,21
713,18	1255,40
713,37	1384,43
713,55	1284,08
713,73	1345,52
713,91	1214,45
714,10	1232,88
714,28	1261,55
714,46	1322,99
714,65	1216,49
714,83	1273,84
715,01	1370,09
715,19	1296,36
715,38	1220,59
715,56	1292,27
715,74	1284,08
715,92	1282,03
716,11	1314,80
716,29	1198,06
716,47	1247,21
716,65	1214,45
716,84	1226,73
717,02	1169,39
717,20	1290,22
717,38	1282,03
717,57	1277,93
717,75	1277,93
717,93	1304,56
718,11	1343,47
718,30	1212,40
718,48	1267,69
718,66	1335,28
718,84	1273,84
719,03	1241,07
719,21	1255,40
719,39	1232,88
719,57	1265,64
719,75	1191,92
719,94	1322,99
720,12	1290,22
720,30	1224,69
720,48	1271,79
720,67	1261,55
720,85	1290,22
721,03	1261,55
721,21	1271,79
721,39	1224,69
721,58	1236,97
721,76	1261,55
721,94	1306,60
722,12	1243,12
722,30	1308,65
722,49	1222,64
722,67	1282,03
722,85	1302,51
723,03	1241,07
723,21	1288,17
723,40	1232,88
723,58	1265,64
723,76	1286,12
723,94	1257,45
724,12	1339,37
724,30	1196,01
724,49	1222,64
724,67	1259,50
724,85	1275,88
725,03	1265,64
725,21	1318,89
725,40	1267,69
725,58	1331,18
725,76	1265,64
725,94	1265,64
726,12	1288,17
726,30	1236,97
726,49	1290,22
726,67	1290,22
726,85	1255,40
727,03	1341,42
727,21	1253,36
727,39	1249,26
727,57	1261,55
727,76	1314,80
727,94	1181,68
728,12	1277,93
728,30	1355,76
728,48	1222,64
728,66	1181,68
728,84	1304,56
729,03	1279,98
729,21	1286,12
729,39	1337,32
729,57	1306,60
729,75	1304,56
729,93	1271,79
730,11	1220,59
730,30	1253,36
730,48	1261,55
730,66	1320,94
730,84	1271,79
731,02	1275,88
731,20	1292,27
731,38	1282,03
731,56	1288,17
731,74	1284,08
731,93	1290,22
732,11	1282,03
732,29	1216,49
732,47	1325,04
732,65	1308,65
732,83	1232,88
733,01	1343,47
733,19	1310,70
733,37	1279,98
733,56	1204,21
733,74	1341,42
733,92	1200,11
734,10	1245,16
734,28	1277,93
734,46	1271,79
734,64	1320,94
734,82	1269,74
735,00	1253,36
735,18	1230,83
735,36	1306,60
735,54	1298,41
735,73	1234,93
735,91	1286,12
736,09	1241,07
736,27	1273,84
736,45	1222,64
736,63	1327,08
736,81	1243,12
736,99	1253,36
737,17	1257,45
737,35	1325,04
737,53	1189,87
737,71	1208,30
737,89	1337,32
738,07	1290,22
738,25	1282,03
738,43	1277,93
738,61	1210,35
738,80	1253,36
738,98	1279,98
739,16	1310,70
739,34	1263,60
739,52	1275,88
739,70	1173,49
739,88	1290,22
740,06	1288,17
740,24	1302,51
740,42	1284,08
740,60	1247,21
740,78	1212,40
740,96	1288,17
741,14	1267,69
741,32	1251,31
741,50	1249,26
741,68	1265,64
741,86	1302,51
742,04	1214,45
742,22	1191,92
742,40	1312,75
742,58	1290,22
742,76	1279,98
742,94	1277,93
743,12	1257,45
743,30	1339,37
743,48	1257,45
743,66	1277,93
743,84	1288,17
744,02	1282,03
744,20	1279,98
744,38	1284,08
744,56	1241,07
744,74	1322,99
744,92	1282,03
745,10	1298,41
745,28	1185,77
745,46	1286,12
745,64	1306,60
745,82	1275,88
746,00	1304,56
746,18	1345,52
746,36	1308,65
746,54	1251,31
746,72	1318,89
746,90	1191,92
747,08	1312,75
747,26	1277,93
747,44	1296,36
747,62	1312,75
747,80	1218,54
747,98	1193,97
748,15	1259,50
748,33	1333,23
748,51	1302,51
748,69	1243,12
748,87	1296,36
749,05	1288,17
749,23	1282,03
749,41	1269,74
749,59	1308,65
749,77	1255,40
749,95	1232,88
750,13	1224,69
750,31	1273,84
750,49	1265,64
750,67	1271,79
750,85	1261,55
751,03	1314,80
751,20	1210,35
751,38	1296,36
751,56	1273,84
751,74	1255,40
751,92	1216,49
752,10	1282,03
752,28	1279,98
752,46	1259,50
752,64	1247,21
752,82	1241,07
753,00	1245,16
753,18	1241,07
753,35	1265,64
753,53	1331,18
753,71	1251,31
753,89	1273,84
754,07	1335,28
754,25	1314,80
754,43	1288,17
754,61	1255,40
754,79	1269,74
754,97	1279,98
755,14	1171,44
755,32	1226,73
755,50	1302,51
755,68	1208,30
755,86	1236,97
756,04	1239,02
756,22	1249,26
756,40	1249,26
756,57	1204,21
756,75	1265,64
756,93	1286,12
757,11	1275,88
757,29	1304,56
757,47	1249,26
757,65	1245,16
757,82	1257,45
758,00	1239,02
758,18	1343,47
758,36	1304,56
758,54	1279,98
758,72	1249,26
758,90	1331,18
759,07	1253,36
759,25	1302,51
759,43	1257,45
759,61	1298,41
759,79	1296,36
759,97	1310,70
760,15	1322,99
760,32	1226,73
760,50	1259,50
760,68	1316,84
760,86	1269,74
761,04	1294,32
761,22	1263,60
761,39	1253,36
761,57	1243,12
761,75	1290,22
761,93	1265,64
762,11	1269,74
762,28	1314,80
762,46	1228,78
762,64	1279,98
762,82	1284,08
763,00	1255,40
763,18	1304,56
763,35	1212,40
763,53	1298,41
763,71	1304,56
763,89	1329,13
764,07	1275,88
764,24	1239,02
764,42	1320,94
764,60	1263,60
764,78	1267,69
764,96	1286,12
765,13	1302,51
765,31	1265,64
765,49	1261,55
765,67	1347,56
765,84	1230,83
766,02	1277,93
766,20	1257,45
766,38	1306,60
766,56	1245,16
766,73	1222,64
766,91	1345,52
767,09	1230,83
767,27	1263,60
767,44	1257,45
767,62	1314,80
767,80	1191,92
767,98	1224,69
768,15	1263,60
768,33	1251,31
768,51	1177,58
768,69	1261,55
768,87	1189,87
769,04	1236,97
769,22	1296,36
769,40	1286,12
769,58	1275,88
769,75	1257,45
769,93	1259,50
770,11	1230,83
770,28	1282,03
770,46	1257,45
770,64	1286,12
770,82	1247,21
770,99	1247,21
771,17	1277,93
771,35	1357,80
771,53	1282,03
771,70	1273,84
771,88	1181,68
772,06	1304,56
772,23	1282,03
772,41	1310,70
772,59	1290,22
772,77	1320,94
772,94	1294,32
773,12	1341,42
773,30	1345,52
773,47	1273,84
773,65	1243,12
773,83	1325,04
774,01	1300,46
774,18	1273,84
774,36	1267,69
774,54	1243,12
774,71	1216,49
774,89	1175,53
775,07	1335,28
775,24	1222,64
775,42	1196,01
775,60	1275,88
775,78	1206,25
775,95	1322,99
776,13	1220,59
776,31	1222,64
776,48	1335,28
776,66	1239,02
776,84	1282,03
777,01	1318,89
777,19	1257,45
777,37	1327,08
777,54	1245,16
777,72	1275,88
777,90	1267,69
778,07	1265,64
778,25	1318,89
778,43	1284,08
778,60	1175,53
778,78	1228,78
778,96	1263,60
779,13	1292,27
779,31	1253,36
779,49	1265,64
779,66	1302,51
779,84	1243,12
780,01	1347,56
780,19	1310,70
780,37	1279,98
780,54	1253,36
780,72	1296,36
780,90	1277,93
781,07	1245,16
781,25	1214,45
781,43	1314,80
781,60	1177,58
781,78	1251,31
781,95	1259,50
782,13	1308,65
782,31	1357,80
782,48	1247,21
782,66	1222,64
782,83	1224,69
783,01	1263,60
783,19	1282,03
783,36	1296,36
783,54	1232,88
783,72	1206,25
783,89	1208,30
784,07	1320,94
784,24	1343,47
784,42	1271,79
784,60	1325,04
784,77	1269,74
784,95	1198,06
785,12	1345,52
785,30	1288,17
785,47	1239,02
785,65	1333,23
785,83	1284,08
786,00	1212,40
786,18	1314,80
786,35	1255,40
786,53	1247,21
786,71	1216,49
786,88	1339,37
787,06	1216,49
787,23	1255,40
787,41	1355,76
787,58	1286,12
787,76	1245,16
787,94	1210,35
788,11	1206,25
788,29	1290,22
788,46	1294,32
788,64	1265,64
788,81	1181,68
788,99	1189,87
789,16	1259,50
789,34	1320,94
789,52	1277,93
789,69	1234,93
789,87	1198,06
790,04	1312,75
790,22	1228,78
790,39	1261,55
790,57	1331,18
790,74	1271,79
790,92	1243,12
791,09	1263,60
791,27	1210,35
791,44	1212,40
791,62	1271,79
791,79	1335,28
791,97	1327,08
792,15	1325,04
792,32	1255,40
792,50	1286,12
792,67	1261,55
792,85	1282,03
793,02	1296,36
793,20	1239,02
793,37	1279,98
793,55	1312,75
793,72	1259,50
793,90	1265,64
794,07	1208,30
794,25	1222,64
794,42	1282,03
794,60	1298,41
794,77	1294,32
794,95	1331,18
795,12	1306,60
795,30	1322,99
795,47	1277,93
795,65	1343,47
795,82	1314,80
796,00	1232,88
796,17	1271,79
796,34	1204,21
796,52	1318,89
796,69	1290,22
796,87	1279,98
797,04	1218,54
797,22	1247,21
797,39	1275,88
797,57	1269,74
797,74	1193,97
797,92	1236,97
798,09	1212,40
798,27	1236,97
798,44	1269,74
798,62	1269,74
798,79	1279,98
798,96	1216,49
799,14	1316,84
799,31	1251,31
799,49	1243,12
799,66	1269,74
799,84	1251,31
800,01	1251,31
800,19	1259,50
800,36	1263,60
800,53	1263,60
800,71	1257,45
800,88	1255,40
801,06	1294,32
801,23	1206,25
801,41	1249,26
801,58	1206,25
801,75	1202,16
801,93	1300,46
802,10	1179,63
802,28	1255,40
802,45	1284,08
802,63	1286,12
802,80	1277,93
802,97	1329,13
803,15	1267,69
803,32	1239,02
803,50	1318,89
803,67	1300,46
803,84	1335,28
804,02	1265,64
804,19	1257,45
804,37	1286,12
804,54	1230,83
804,71	1247,21
804,89	1269,74
805,06	1214,45
805,24	1288,17
805,41	1302,51
805,58	1220,59
805,76	1275,88
805,93	1216,49
806,10	1308,65
806,28	1275,88
806,45	1202,16
806,63	1310,70
806,80	1212,40
806,97	1290,22
807,15	1288,17
807,32	1196,01
807,49	1310,70
807,67	1202,16
807,84	1222,64
808,01	1271,79
808,19	1267,69
808,36	1263,60
808,54	1337,32
808,71	1296,36
808,88	1239,02
809,06	1298,41
809,23	1196,01
809,40	1275,88
809,58	1298,41
809,75	1308,65
809,92	1259,50
810,10	1290,22
810,27	1265,64
810,44	1298,41
810,62	1273,84
810,79	1265,64
810,96	1271,79
811,14	1222,64
811,31	1347,56
811,48	1304,56
811,66	1216,49
811,83	1247,21
812,00	1265,64
812,18	1271,79
812,35	1363,95
812,52	1282,03
812,69	1286,12
812,87	1253,36
813,04	1271,79
813,21	1282,03
813,39	1335,28
813,56	1220,59
813,73	1316,84
813,91	1288,17
814,08	1259,50
814,25	1247,21
814,42	1216,49
814,60	1241,07
814,77	1236,97
814,94	1243,12
815,12	1347,56
815,29	1318,89
815,46	1208,30
815,63	1279,98
815,81	1259,50
815,98	1173,49
816,15	1335,28
816,33	1212,40
816,50	1236,97
816,67	1279,98
816,84	1294,32
817,02	1247,21
817,19	1265,64
817,36	1239,02
817,53	1296,36
817,71	1241,07
817,88	1247,21
818,05	1325,04
818,22	1312,75
818,40	1245,16
818,57	1239,02
818,74	1343,47
818,91	1298,41
819,09	1263,60
819,26	1279,98
819,43	1200,11
819,60	1263,60
819,78	1277,93
819,95	1296,36
820,12	1329,13
820,29	1341,42
820,47	1320,94
820,64	1273,84
820,81	1316,84
820,98	1230,83
821,15	1222,64
821,33	1261,55
821,50	1261,55
821,67	1290,22
821,84	1251,31
822,02	1255,40
822,19	1308,65
822,36	1241,07
822,53	1282,03
822,70	1253,36
822,88	1277,93
823,05	1273,84
823,22	1253,36
823,39	1210,35
823,56	1267,69
823,74	1282,03
823,91	1220,59
824,08	1296,36
824,25	1298,41
824,42	1333,23
824,60	1269,74
824,77	1273,84
824,94	1343,47
825,11	1183,73
825,28	1208,30
825,45	1257,45
825,63	1275,88
825,80	1325,04
825,97	1239,02
826,14	1265,64
826,31	1171,44
826,48	1218,54
826,66	1290,22
826,83	1271,79
827,00	1284,08
827,17	1290,22
827,34	1298,41
827,51	1294,32
827,69	1218,54
827,86	1318,89
828,03	1292,27
828,20	1255,40
828,37	1277,93
828,54	1279,98
828,71	1239,02
828,89	1271,79
829,06	1286,12
829,23	1265,64
829,40	1251,31
829,57	1312,75
829,74	1277,93
829,91	1286,12
830,09	1241,07
830,26	1288,17
830,43	1214,45
830,60	1269,74
830,77	1259,50
830,94	1290,22
831,11	1253,36
831,28	1273,84
831,46	1212,40
831,63	1273,84
831,80	1255,40
831,97	1333,23
832,14	1257,45
832,31	1320,94
832,48	1210,35
832,65	1279,98
832,82	1251,31
832,99	1249,26
833,17	1255,40
833,34	1302,51
833,51	1204,21
833,68	1236,97
833,85	1245,16
834,02	1325,04
834,19	1187,82
834,36	1179,63
834,53	1263,60
834,70	1247,21
834,87	1228,78
835,04	1314,80
835,22	1275,88
835,39	1273,84
835,56	1288,17
835,73	1284,08
835,90	1273,84
836,07	1359,85
836,24	1288,17
836,41	1286,12
836,58	1230,83
836,75	1302,51
836,92	1271,79
837,09	1275,88
837,26	1220,59
837,43	1306,60
837,60	1310,70
837,77	1187,82
837,94	1290,22
838,12	1306,60
838,29	1249,26
838,46	1200,11
838,63	1325,04
838,80	1265,64
838,97	1232,88
839,14	1277,93
839,31	1275,88
839,48	1302,51
839,65	1286,12
839,82	1230,83
839,99	1232,88
840,16	1310,70
840,33	1339,37
840,50	1251,31
840,67	1312,75
840,84	1284,08
841,01	1286,12
841,18	1329,13
841,35	1288,17
841,52	1255,40
841,69	1294,32
841,86	1257,45
842,03	1302,51
842,20	1208,30
842,37	1277,93
842,54	1210,35
842,71	1290,22
842,88	1241,07
843,05	1277,93
843,22	1253,36
843,39	1232,88
843,56	1341,42
843,73	1243,12
843,90	1302,51
844,07	1200,11
844,24	1286,12
844,41	1230,83
844,58	1292,27
844,75	1290,22
844,92	1208,30
845,09	1296,36
845,26	1216,49
845,43	1251,31
845,60	1275,88
845,77	1222,64
845,94	1265,64
846,10	1312,75
846,27	1210,35
846,44	1306,60
846,61	1290,22
846,78	1241,07
846,95	1296,36
847,12	1253,36
847,29	1327,08
847,46	1271,79
847,63	1220,59
847,80	1267,69
847,97	1302,51
848,14	1339,37
848,31	1318,89
848,48	1300,46
848,65	1263,60
848,82	1269,74
848,98	1290,22
849,15	1259,50
849,32	1228,78
849,49	1304,56
849,66	1396,71
849,83	1284,08
850,00	1306,60
850,17	1249,26
850,34	1241,07
850,51	1249,26
850,68	1286,12
850,85	1316,84
851,01	1261,55
851,18	1282,03
851,35	1224,69
851,52	1300,46
851,69	1269,74
851,86	1236,97
852,03	1333,23
852,20	1271,79
852,37	1314,80
852,53	1267,69
852,70	1247,21
852,87	1271,79
853,04	1259,50
853,21	1294,32
853,38	1277,93
853,55	1263,60
853,72	1329,13
853,89	1298,41
854,05	1343,47
854,22	1277,93
854,39	1265,64
854,56	1208,30
854,73	1286,12
854,90	1296,36
855,07	1304,56
855,23	1208,30
855,40	1265,64
855,57	1329,13
855,74	1308,65
855,91	1255,40
856,08	1275,88
856,25	1251,31
856,41	1198,06
856,58	1261,55
856,75	1183,73
856,92	1327,08
857,09	1261,55
857,26	1216,49
857,42	1312,75
857,59	1212,40
857,76	1222,64
857,93	1263,60
858,10	1275,88
858,27	1316,84
858,43	1222,64
858,60	1282,03
858,77	1282,03
858,94	1216,49
859,11	1239,02
859,27	1267,69
859,44	1265,64
859,61	1275,88
859,78	1263,60
859,95	1327,08
860,12	1257,45
860,28	1304,56
860,45	1265,64
860,62	1257,45
860,79	1306,60
860,95	1243,12
861,12	1275,88
861,29	1259,50
861,46	1230,83
861,63	1292,27
861,79	1302,51
861,96	1249,26
862,13	1310,70
862,30	1304,56
862,47	1255,40
862,63	1249,26
862,80	1255,40
862,97	1306,60
863,14	1257,45
863,30	1239,02
863,47	1318,89
863,64	1284,08
863,81	1200,11
863,97	1304,56
864,14	1234,93
864,31	1222,64
864,48	1228,78
864,65	1218,54
864,81	1292,27
864,98	1273,84
865,15	1263,60
865,32	1349,61
865,48	1302,51
865,65	1292,27
865,82	1249,26
865,98	1290,22
866,15	1263,60
866,32	1265,64
866,49	1212,40
866,65	1255,40
866,82	1212,40
866,99	1265,64
867,16	1222,64
867,32	1183,73
867,49	1243,12
867,66	1159,15
867,83	1279,98
867,99	1282,03
868,16	1271,79
868,33	1296,36
868,49	1241,07
868,66	1290,22
868,83	1257,45
868,99	1335,28
869,16	1224,69
869,33	1253,36
869,50	1243,12
869,66	1247,21
869,83	1261,55
870,00	1267,69
870,16	1226,73
870,33	1257,45
870,50	1263,60
870,66	1273,84
870,83	1275,88
871,00	1257,45
871,17	1265,64
871,33	1306,60
871,50	1292,27
871,67	1249,26
871,83	1271,79
872,00	1357,80
872,17	1325,04
872,33	1239,02
872,50	1263,60
872,67	1206,25
872,83	1267,69
873,00	1255,40
873,17	1257,45
873,33	1226,73
873,50	1249,26
873,67	1298,41
873,83	1243,12
874,00	1230,83
874,16	1249,26
874,33	1251,31
874,50	1198,06
874,66	1198,06
874,83	1267,69
875,00	1269,74
875,16	1282,03
875,33	1310,70
875,50	1325,04
875,66	1269,74
875,83	1312,75
875,99	1224,69
876,16	1286,12
876,33	1218,54
876,49	1308,65
876,66	1282,03
876,83	1282,03
876,99	1265,64
877,16	1273,84
877,32	1282,03
877,49	1290,22
877,66	1273,84
877,82	1292,27
877,99	1228,78
878,15	1251,31
878,32	1239,02
878,49	1259,50
878,65	1294,32
878,82	1251,31
878,98	1368,04
879,15	1322,99
879,32	1286,12
879,48	1298,41
879,65	1294,32
879,81	1318,89
879,98	1288,17
880,15	1273,84
880,31	1294,32
880,48	1269,74
880,64	1189,87
880,81	1267,69
880,97	1267,69
881,14	1239,02
881,31	1230,83
881,47	1261,55
881,64	1267,69
881,80	1286,12
881,97	1216,49
882,13	1263,60
882,30	1265,64
882,47	1275,88
882,63	1290,22
882,80	1257,45
882,96	1198,06
883,13	1243,12
883,29	1191,92
883,46	1267,69
883,62	1300,46
883,79	1279,98
883,95	1228,78
884,12	1255,40
884,29	1269,74
884,45	1284,08
884,62	1290,22
884,78	1216,49
884,95	1296,36
885,11	1249,26
885,28	1226,73
885,44	1241,07
885,61	1312,75
885,77	1251,31
885,94	1171,44
886,10	1251,31
886,27	1220,59
886,43	1269,74
886,60	1212,40
886,76	1353,71
886,93	1204,21
887,09	1259,50
887,26	1257,45
887,42	1234,93
887,59	1206,25
887,75	1294,32
887,92	1316,84
888,08	1300,46
888,25	1302,51
888,41	1245,16
888,58	1277,93
888,74	1208,30
888,91	1232,88
>>>>>End Processed Spectral Data<<<<<
