SpectraSuite Data File
++++++++++++++++++++++++++++++++++++
Date: Sun Apr 03 19:55:42 CEST 2016
User: root
Dark Spectrum Present: No
Reference Spectrum Present: No
Number of Sampled Component Spectra: 1
Spectrometers: USB4C02835
Integration Time (usec): 10000 (USB4C02835)
Spectra Averaged: 1 (USB4C02835)
Boxcar Smoothing: 0 (USB4C02835)
Correct for Electrical Dark: No (USB4C02835)
Strobe/Lamp Enabled: No (USB4C02835)
Correct for Detector Non-linearity: No (USB4C02835)
Correct for Stray Light: No (USB4C02835)
Number of Pixels in Processed Spectrum: 3648
>>>>>Begin Processed Spectral Data<<<<<
177,47	1241,07
177,69	1241,07
177,91	1241,07
178,13	1210,35
178,36	1232,88
178,58	1198,06
178,80	1304,56
179,02	1284,08
179,24	1273,84
179,46	1218,54
179,68	1292,27
179,90	1269,74
180,13	1337,32
180,35	1230,83
180,57	1302,51
180,79	1288,17
181,01	1259,50
181,23	1308,65
181,45	1343,47
181,67	1275,88
181,90	1253,36
182,12	1230,83
182,34	1224,69
182,56	1282,03
182,78	1241,07
183,00	1208,30
183,22	1333,23
183,44	1232,88
183,66	1286,12
183,89	1331,18
184,11	1292,27
184,33	1241,07
184,55	1271,79
184,77	1312,75
184,99	1200,11
185,21	1263,60
185,43	1279,98
185,65	1247,21
185,87	1236,97
186,10	1222,64
186,32	1284,08
186,54	1310,70
186,76	1202,16
186,98	1269,74
187,20	1234,93
187,42	1263,60
187,64	1249,26
187,86	1298,41
188,08	1257,45
188,30	1257,45
188,52	1292,27
188,75	1239,02
188,97	1312,75
189,19	1271,79
189,41	1247,21
189,63	1232,88
189,85	1230,83
190,07	1265,64
190,29	1322,99
190,51	1284,08
190,73	1310,70
190,95	1247,21
191,17	1277,93
191,39	1253,36
191,61	1298,41
191,84	1230,83
192,06	1251,31
192,28	1204,21
192,50	1308,65
192,72	1189,87
192,94	1267,69
193,16	1308,65
193,38	1337,32
193,60	1259,50
193,82	1290,22
194,04	1249,26
194,26	1255,40
194,48	1335,28
194,70	1273,84
194,92	1263,60
195,14	1265,64
195,36	1210,35
195,58	1247,21
195,80	1327,08
196,02	1294,32
196,24	1290,22
196,46	1265,64
196,69	1288,17
196,91	1320,94
197,13	1249,26
197,35	1322,99
197,57	1273,84
197,79	1282,03
198,01	1247,21
198,23	1290,22
198,45	1187,82
198,67	1271,79
198,89	1187,82
199,11	1316,84
199,33	1329,13
199,55	1230,83
199,77	1302,51
199,99	1265,64
200,21	1228,78
200,43	1316,84
200,65	1236,97
200,87	1128,43
201,09	1263,60
201,31	1294,32
201,53	1255,40
201,75	1224,69
201,97	1241,07
202,19	1292,27
202,41	1245,16
202,63	1290,22
202,85	1331,18
203,07	1243,12
203,29	1241,07
203,51	1290,22
203,73	1214,45
203,95	1257,45
204,17	1239,02
204,39	1214,45
204,61	1257,45
204,83	1259,50
205,05	1320,94
205,27	1327,08
205,49	1277,93
205,71	1329,13
205,93	1257,45
206,15	1292,27
206,37	1294,32
206,59	1241,07
206,81	1300,46
207,03	1298,41
207,25	1327,08
207,47	1300,46
207,69	1314,80
207,91	1257,45
208,13	1247,21
208,34	1241,07
208,56	1269,74
208,78	1320,94
209,00	1265,64
209,22	1286,12
209,44	1261,55
209,66	1257,45
209,88	1327,08
210,10	1222,64
210,32	1269,74
210,54	1279,98
210,76	1255,40
210,98	1247,21
211,20	1247,21
211,42	1241,07
211,64	1357,80
211,86	1329,13
212,08	1275,88
212,30	1212,40
212,52	1263,60
212,74	1204,21
212,96	1271,79
213,17	1257,45
213,39	1265,64
213,61	1257,45
213,83	1269,74
214,05	1298,41
214,27	1337,32
214,49	1236,97
214,71	1316,84
214,93	1300,46
215,15	1316,84
215,37	1277,93
215,59	1187,82
215,81	1298,41
216,03	1171,44
216,24	1335,28
216,46	1249,26
216,68	1300,46
216,90	1273,84
217,12	1294,32
217,34	1261,55
217,56	1271,79
217,78	1249,26
218,00	1300,46
218,22	1284,08
218,44	1239,02
218,66	1302,51
218,87	1292,27
219,09	1339,37
219,31	1312,75
219,53	1298,41
219,75	1253,36
219,97	1279,98
220,19	1263,60
220,41	1269,74
220,63	1255,40
220,85	1353,71
221,06	1265,64
221,28	1282,03
221,50	1226,73
221,72	1259,50
221,94	1263,60
222,16	1193,97
222,38	1236,97
222,60	1279,98
222,82	1286,12
223,03	1294,32
223,25	1230,83
223,47	1234,93
223,69	1298,41
223,91	1234,93
224,13	1218,54
224,35	1255,40
224,57	1271,79
224,78	1282,03
225,00	1277,93
225,22	1234,93
225,44	1273,84
225,66	1210,35
225,88	1253,36
226,10	1302,51
226,32	1208,30
226,53	1331,18
226,75	1212,40
226,97	1257,45
227,19	1275,88
227,41	1220,59
227,63	1279,98
227,85	1329,13
228,06	1267,69
228,28	1230,83
228,50	1304,56
228,72	1279,98
228,94	1275,88
229,16	1251,31
229,37	1241,07
229,59	1284,08
229,81	1271,79
230,03	1282,03
230,25	1247,21
230,47	1288,17
230,69	1249,26
230,90	1290,22
231,12	1234,93
231,34	1277,93
231,56	1277,93
231,78	1193,97
232,00	1239,02
232,21	1282,03
232,43	1361,90
232,65	1290,22
232,87	1288,17
233,09	1275,88
233,30	1322,99
233,52	1214,45
233,74	1316,84
233,96	1173,49
234,18	1241,07
234,40	1333,23
234,61	1318,89
234,83	1261,55
235,05	1239,02
235,27	1224,69
235,49	1345,52
235,70	1300,46
235,92	1308,65
236,14	1220,59
236,36	1253,36
236,58	1267,69
236,79	1243,12
237,01	1277,93
237,23	1265,64
237,45	1288,17
237,67	1302,51
237,88	1271,79
238,10	1269,74
238,32	1271,79
238,54	1241,07
238,76	1267,69
238,97	1249,26
239,19	1308,65
239,41	1234,93
239,63	1263,60
239,85	1284,08
240,06	1308,65
240,28	1361,90
240,50	1269,74
240,72	1296,36
240,93	1331,18
241,15	1290,22
241,37	1265,64
241,59	1267,69
241,81	1273,84
242,02	1257,45
242,24	1214,45
242,46	1253,36
242,68	1275,88
242,89	1288,17
243,11	1253,36
243,33	1239,02
243,55	1241,07
243,76	1253,36
243,98	1253,36
244,20	1318,89
244,42	1232,88
244,64	1230,83
244,85	1277,93
245,07	1269,74
245,29	1329,13
245,51	1255,40
245,72	1271,79
245,94	1261,55
246,16	1310,70
246,38	1314,80
246,59	1249,26
246,81	1312,75
247,03	1320,94
247,24	1279,98
247,46	1245,16
247,68	1249,26
247,90	1298,41
248,11	1267,69
248,33	1341,42
248,55	1296,36
248,77	1222,64
248,98	1249,26
249,20	1255,40
249,42	1263,60
249,64	1241,07
249,85	1257,45
250,07	1316,84
250,29	1275,88
250,50	1282,03
250,72	1279,98
250,94	1275,88
251,16	1253,36
251,37	1277,93
251,59	1261,55
251,81	1277,93
252,02	1279,98
252,24	1286,12
252,46	1265,64
252,68	1241,07
252,89	1251,31
253,11	1271,79
253,33	1300,46
253,54	1236,97
253,76	1290,22
253,98	1265,64
254,20	1261,55
254,41	1241,07
254,63	1290,22
254,85	1279,98
255,06	1259,50
255,28	1277,93
255,50	1284,08
255,71	1288,17
255,93	1247,21
256,15	1320,94
256,36	1368,04
256,58	1245,16
256,80	1286,12
257,02	1206,25
257,23	1353,71
257,45	1191,92
257,67	1245,16
257,88	1234,93
258,10	1314,80
258,32	1234,93
258,53	1296,36
258,75	1267,69
258,97	1265,64
259,18	1279,98
259,40	1236,97
259,62	1255,40
259,83	1265,64
260,05	1277,93
260,27	1282,03
260,48	1290,22
260,70	1249,26
260,92	1216,49
261,13	1241,07
261,35	1329,13
261,57	1292,27
261,78	1236,97
262,00	1230,83
262,22	1245,16
262,43	1325,04
262,65	1206,25
262,86	1255,40
263,08	1288,17
263,30	1255,40
263,51	1271,79
263,73	1228,78
263,95	1267,69
264,16	1257,45
264,38	1255,40
264,60	1282,03
264,81	1277,93
265,03	1277,93
265,25	1300,46
265,46	1263,60
265,68	1241,07
265,89	1277,93
266,11	1273,84
266,33	1310,70
266,54	1267,69
266,76	1255,40
266,98	1191,92
267,19	1310,70
267,41	1224,69
267,62	1322,99
267,84	1300,46
268,06	1249,26
268,27	1185,77
268,49	1288,17
268,70	1234,93
268,92	1290,22
269,14	1322,99
269,35	1232,88
269,57	1251,31
269,79	1282,03
270,00	1322,99
270,22	1234,93
270,43	1333,23
270,65	1259,50
270,87	1339,37
271,08	1320,94
271,30	1259,50
271,51	1277,93
271,73	1239,02
271,95	1273,84
272,16	1259,50
272,38	1236,97
272,59	1249,26
272,81	1312,75
273,02	1302,51
273,24	1241,07
273,46	1191,92
273,67	1208,30
273,89	1257,45
274,10	1290,22
274,32	1296,36
274,54	1279,98
274,75	1224,69
274,97	1263,60
275,18	1290,22
275,40	1255,40
275,61	1212,40
275,83	1226,73
276,05	1296,36
276,26	1253,36
276,48	1265,64
276,69	1204,21
276,91	1345,52
277,12	1216,49
277,34	1298,41
277,55	1279,98
277,77	1282,03
277,99	1298,41
278,20	1327,08
278,42	1269,74
278,63	1296,36
278,85	1249,26
279,06	1257,45
279,28	1265,64
279,49	1273,84
279,71	1265,64
279,93	1271,79
280,14	1275,88
280,36	1279,98
280,57	1306,60
280,79	1312,75
281,00	1306,60
281,22	1282,03
281,43	1247,21
281,65	1267,69
281,86	1306,60
282,08	1265,64
282,29	1218,54
282,51	1249,26
282,73	1200,11
282,94	1294,32
283,16	1271,79
283,37	1329,13
283,59	1335,28
283,80	1335,28
284,02	1243,12
284,23	1249,26
284,45	1253,36
284,66	1296,36
284,88	1269,74
285,09	1183,73
285,31	1275,88
285,52	1296,36
285,74	1275,88
285,95	1296,36
286,17	1232,88
286,38	1304,56
286,60	1308,65
286,81	1222,64
287,03	1224,69
287,24	1241,07
287,46	1345,52
287,67	1212,40
287,89	1316,84
288,10	1308,65
288,32	1279,98
288,53	1361,90
288,75	1230,83
288,96	1273,84
289,18	1253,36
289,39	1196,01
289,61	1271,79
289,82	1228,78
290,04	1306,60
290,25	1282,03
290,47	1294,32
290,68	1294,32
290,90	1290,22
291,11	1255,40
291,33	1312,75
291,54	1316,84
291,76	1318,89
291,97	1175,53
292,18	1234,93
292,40	1304,56
292,61	1304,56
292,83	1269,74
293,04	1259,50
293,26	1202,16
293,47	1177,58
293,69	1255,40
293,90	1249,26
294,12	1239,02
294,33	1243,12
294,55	1282,03
294,76	1294,32
294,97	1265,64
295,19	1298,41
295,40	1218,54
295,62	1257,45
295,83	1265,64
296,05	1269,74
296,26	1259,50
296,48	1288,17
296,69	1212,40
296,90	1232,88
297,12	1376,24
297,33	1271,79
297,55	1263,60
297,76	1204,21
297,98	1210,35
298,19	1347,56
298,41	1253,36
298,62	1247,21
298,83	1230,83
299,05	1243,12
299,26	1294,32
299,48	1259,50
299,69	1290,22
299,90	1339,37
300,12	1159,15
300,33	1318,89
300,55	1329,13
300,76	1279,98
300,98	1273,84
301,19	1284,08
301,40	1243,12
301,62	1261,55
301,83	1335,28
302,05	1232,88
302,26	1259,50
302,47	1271,79
302,69	1224,69
302,90	1273,84
303,12	1171,44
303,33	1298,41
303,54	1296,36
303,76	1259,50
303,97	1341,42
304,19	1239,02
304,40	1208,30
304,61	1277,93
304,83	1269,74
305,04	1257,45
305,26	1251,31
305,47	1282,03
305,68	1265,64
305,90	1265,64
306,11	1210,35
306,33	1286,12
306,54	1300,46
306,75	1261,55
306,97	1257,45
307,18	1277,93
307,39	1304,56
307,61	1302,51
307,82	1251,31
308,04	1320,94
308,25	1275,88
308,46	1282,03
308,68	1253,36
308,89	1314,80
309,10	1284,08
309,32	1269,74
309,53	1181,68
309,74	1312,75
309,96	1290,22
310,17	1298,41
310,39	1318,89
310,60	1277,93
310,81	1230,83
311,03	1304,56
311,24	1290,22
311,45	1329,13
311,67	1318,89
311,88	1279,98
312,09	1261,55
312,31	1267,69
312,52	1279,98
312,73	1302,51
312,95	1298,41
313,16	1263,60
313,37	1275,88
313,59	1318,89
313,80	1200,11
314,01	1261,55
314,23	1325,04
314,44	1253,36
314,65	1314,80
314,87	1259,50
315,08	1310,70
315,29	1204,21
315,51	1189,87
315,72	1331,18
315,93	1263,60
316,15	1351,66
316,36	1290,22
316,57	1269,74
316,79	1316,84
317,00	1277,93
317,21	1249,26
317,43	1255,40
317,64	1306,60
317,85	1234,93
318,07	1230,83
318,28	1273,84
318,49	1251,31
318,70	1290,22
318,92	1153,01
319,13	1318,89
319,34	1302,51
319,56	1198,06
319,77	1294,32
319,98	1253,36
320,20	1284,08
320,41	1331,18
320,62	1302,51
320,83	1206,25
321,05	1200,11
321,26	1239,02
321,47	1292,27
321,69	1243,12
321,90	1286,12
322,11	1314,80
322,32	1148,91
322,54	1263,60
322,75	1316,84
322,96	1347,56
323,18	1325,04
323,39	1263,60
323,60	1212,40
323,81	1232,88
324,03	1312,75
324,24	1308,65
324,45	1286,12
324,66	1269,74
324,88	1257,45
325,09	1255,40
325,30	1273,84
325,52	1368,04
325,73	1279,98
325,94	1279,98
326,15	1261,55
326,37	1310,70
326,58	1333,23
326,79	1230,83
327,00	1298,41
327,22	1298,41
327,43	1249,26
327,64	1298,41
327,85	1302,51
328,07	1222,64
328,28	1249,26
328,49	1284,08
328,70	1298,41
328,92	1265,64
329,13	1282,03
329,34	1271,79
329,55	1259,50
329,76	1249,26
329,98	1279,98
330,19	1249,26
330,40	1228,78
330,61	1320,94
330,83	1208,30
331,04	1269,74
331,25	1263,60
331,46	1282,03
331,68	1247,21
331,89	1216,49
332,10	1277,93
332,31	1177,58
332,52	1257,45
332,74	1241,07
332,95	1167,34
333,16	1239,02
333,37	1259,50
333,58	1265,64
333,80	1253,36
334,01	1275,88
334,22	1269,74
334,43	1304,56
334,64	1251,31
334,86	1273,84
335,07	1308,65
335,28	1265,64
335,49	1214,45
335,70	1277,93
335,92	1263,60
336,13	1304,56
336,34	1269,74
336,55	1228,78
336,76	1261,55
336,98	1300,46
337,19	1241,07
337,40	1294,32
337,61	1261,55
337,82	1294,32
338,04	1267,69
338,25	1193,97
338,46	1275,88
338,67	1216,49
338,88	1247,21
339,09	1347,56
339,31	1316,84
339,52	1255,40
339,73	1255,40
339,94	1255,40
340,15	1234,93
340,36	1232,88
340,58	1296,36
340,79	1267,69
341,00	1286,12
341,21	1214,45
341,42	1302,51
341,63	1286,12
341,85	1261,55
342,06	1279,98
342,27	1310,70
342,48	1296,36
342,69	1249,26
342,90	1269,74
343,12	1282,03
343,33	1247,21
343,54	1298,41
343,75	1304,56
343,96	1208,30
344,17	1320,94
344,38	1296,36
344,60	1269,74
344,81	1234,93
345,02	1316,84
345,23	1196,01
345,44	1343,47
345,65	1261,55
345,86	1316,84
346,07	1267,69
346,29	1275,88
346,50	1230,83
346,71	1261,55
346,92	1298,41
347,13	1249,26
347,34	1261,55
347,55	1288,17
347,76	1257,45
347,98	1337,32
348,19	1282,03
348,40	1351,66
348,61	1263,60
348,82	1216,49
349,03	1271,79
349,24	1273,84
349,45	1296,36
349,66	1316,84
349,88	1269,74
350,09	1253,36
350,30	1253,36
350,51	1292,27
350,72	1273,84
350,93	1257,45
351,14	1273,84
351,35	1308,65
351,56	1249,26
351,77	1249,26
351,99	1279,98
352,20	1222,64
352,41	1314,80
352,62	1294,32
352,83	1198,06
353,04	1241,07
353,25	1191,92
353,46	1273,84
353,67	1245,16
353,88	1308,65
354,09	1245,16
354,30	1298,41
354,52	1253,36
354,73	1320,94
354,94	1249,26
355,15	1370,09
355,36	1179,63
355,57	1322,99
355,78	1208,30
355,99	1284,08
356,20	1282,03
356,41	1220,59
356,62	1282,03
356,83	1204,21
357,04	1230,83
357,25	1210,35
357,46	1318,89
357,68	1214,45
357,89	1224,69
358,10	1322,99
358,31	1202,16
358,52	1265,64
358,73	1308,65
358,94	1347,56
359,15	1298,41
359,36	1271,79
359,57	1239,02
359,78	1294,32
359,99	1288,17
360,20	1341,42
360,41	1380,33
360,62	1224,69
360,83	1318,89
361,04	1236,97
361,25	1212,40
361,46	1245,16
361,67	1312,75
361,88	1306,60
362,09	1263,60
362,30	1241,07
362,51	1333,23
362,72	1255,40
362,93	1304,56
363,14	1322,99
363,35	1267,69
363,56	1265,64
363,78	1294,32
363,99	1249,26
364,20	1245,16
364,41	1290,22
364,62	1261,55
364,83	1282,03
365,04	1228,78
365,25	1275,88
365,46	1245,16
365,67	1265,64
365,88	1239,02
366,09	1269,74
366,30	1236,97
366,51	1210,35
366,72	1306,60
366,93	1314,80
367,14	1185,77
367,35	1251,31
367,56	1275,88
367,77	1279,98
367,98	1245,16
368,18	1243,12
368,39	1234,93
368,60	1267,69
368,81	1296,36
369,02	1294,32
369,23	1288,17
369,44	1206,25
369,65	1249,26
369,86	1296,36
370,07	1296,36
370,28	1282,03
370,49	1216,49
370,70	1271,79
370,91	1263,60
371,12	1257,45
371,33	1269,74
371,54	1255,40
371,75	1224,69
371,96	1277,93
372,17	1263,60
372,38	1222,64
372,59	1296,36
372,80	1269,74
373,01	1269,74
373,22	1257,45
373,43	1265,64
373,64	1245,16
373,85	1284,08
374,06	1308,65
374,26	1212,40
374,47	1257,45
374,68	1265,64
374,89	1279,98
375,10	1177,58
375,31	1265,64
375,52	1327,08
375,73	1239,02
375,94	1267,69
376,15	1253,36
376,36	1318,89
376,57	1206,25
376,78	1216,49
376,99	1312,75
377,20	1214,45
377,40	1349,61
377,61	1277,93
377,82	1306,60
378,03	1241,07
378,24	1239,02
378,45	1329,13
378,66	1314,80
378,87	1202,16
379,08	1298,41
379,29	1277,93
379,50	1177,58
379,71	1204,21
379,91	1288,17
380,12	1290,22
380,33	1212,40
380,54	1312,75
380,75	1333,23
380,96	1216,49
381,17	1269,74
381,38	1198,06
381,59	1263,60
381,80	1284,08
382,00	1290,22
382,21	1263,60
382,42	1222,64
382,63	1259,50
382,84	1251,31
383,05	1251,31
383,26	1249,26
383,47	1202,16
383,68	1220,59
383,88	1290,22
384,09	1257,45
384,30	1345,52
384,51	1263,60
384,72	1269,74
384,93	1259,50
385,14	1310,70
385,35	1288,17
385,55	1183,73
385,76	1236,97
385,97	1257,45
386,18	1279,98
386,39	1198,06
386,60	1284,08
386,81	1243,12
387,02	1296,36
387,22	1216,49
387,43	1245,16
387,64	1249,26
387,85	1241,07
388,06	1208,30
388,27	1214,45
388,48	1214,45
388,68	1292,27
388,89	1304,56
389,10	1359,85
389,31	1304,56
389,52	1249,26
389,73	1183,73
389,93	1243,12
390,14	1204,21
390,35	1265,64
390,56	1292,27
390,77	1273,84
390,98	1302,51
391,18	1251,31
391,39	1255,40
391,60	1232,88
391,81	1243,12
392,02	1314,80
392,23	1255,40
392,43	1269,74
392,64	1284,08
392,85	1236,97
393,06	1222,64
393,27	1232,88
393,47	1331,18
393,68	1304,56
393,89	1259,50
394,10	1282,03
394,31	1310,70
394,52	1322,99
394,72	1265,64
394,93	1304,56
395,14	1275,88
395,35	1322,99
395,56	1292,27
395,76	1263,60
395,97	1329,13
396,18	1261,55
396,39	1257,45
396,60	1253,36
396,80	1265,64
397,01	1220,59
397,22	1267,69
397,43	1255,40
397,64	1300,46
397,84	1312,75
398,05	1247,21
398,26	1294,32
398,47	1234,93
398,67	1333,23
398,88	1253,36
399,09	1167,34
399,30	1275,88
399,51	1318,89
399,71	1275,88
399,92	1253,36
400,13	1300,46
400,34	1253,36
400,54	1325,04
400,75	1224,69
400,96	1200,11
401,17	1322,99
401,37	1327,08
401,58	1228,78
401,79	1253,36
402,00	1310,70
402,21	1234,93
402,41	1279,98
402,62	1339,37
402,83	1263,60
403,04	1236,97
403,24	1239,02
403,45	1241,07
403,66	1310,70
403,87	1245,16
404,07	1202,16
404,28	1339,37
404,49	1234,93
404,70	1257,45
404,90	1208,30
405,11	1247,21
405,32	1302,51
405,52	1279,98
405,73	1271,79
405,94	1228,78
406,15	1257,45
406,35	1216,49
406,56	1265,64
406,77	1300,46
406,98	1292,27
407,18	1245,16
407,39	1247,21
407,60	1271,79
407,80	1189,87
408,01	1263,60
408,22	1282,03
408,43	1273,84
408,63	1290,22
408,84	1288,17
409,05	1277,93
409,25	1273,84
409,46	1310,70
409,67	1243,12
409,88	1312,75
410,08	1312,75
410,29	1263,60
410,50	1288,17
410,70	1296,36
410,91	1290,22
411,12	1298,41
411,32	1277,93
411,53	1249,26
411,74	1318,89
411,95	1333,23
412,15	1255,40
412,36	1263,60
412,57	1259,50
412,77	1284,08
412,98	1275,88
413,19	1239,02
413,39	1306,60
413,60	1294,32
413,81	1273,84
414,01	1273,84
414,22	1239,02
414,43	1277,93
414,63	1249,26
414,84	1327,08
415,05	1292,27
415,25	1269,74
415,46	1224,69
415,67	1234,93
415,87	1249,26
416,08	1279,98
416,29	1329,13
416,49	1243,12
416,70	1232,88
416,91	1275,88
417,11	1320,94
417,32	1245,16
417,53	1312,75
417,73	1273,84
417,94	1286,12
418,15	1298,41
418,35	1294,32
418,56	1208,30
418,77	1282,03
418,97	1322,99
419,18	1253,36
419,38	1304,56
419,59	1284,08
419,80	1296,36
420,00	1284,08
420,21	1312,75
420,42	1224,69
420,62	1380,33
420,83	1236,97
421,04	1261,55
421,24	1208,30
421,45	1316,84
421,65	1273,84
421,86	1216,49
422,07	1292,27
422,27	1269,74
422,48	1327,08
422,69	1282,03
422,89	1245,16
423,10	1206,25
423,30	1218,54
423,51	1241,07
423,72	1243,12
423,92	1271,79
424,13	1273,84
424,33	1294,32
424,54	1314,80
424,75	1241,07
424,95	1304,56
425,16	1265,64
425,36	1241,07
425,57	1210,35
425,78	1314,80
425,98	1261,55
426,19	1267,69
426,39	1277,93
426,60	1320,94
426,81	1204,21
427,01	1263,60
427,22	1339,37
427,42	1294,32
427,63	1261,55
427,83	1241,07
428,04	1249,26
428,25	1267,69
428,45	1327,08
428,66	1243,12
428,86	1263,60
429,07	1331,18
429,28	1271,79
429,48	1288,17
429,69	1271,79
429,89	1294,32
430,10	1277,93
430,30	1224,69
430,51	1325,04
430,71	1271,79
430,92	1286,12
431,13	1234,93
431,33	1337,32
431,54	1263,60
431,74	1308,65
431,95	1214,45
432,15	1241,07
432,36	1290,22
432,56	1286,12
432,77	1322,99
432,98	1306,60
433,18	1249,26
433,39	1271,79
433,59	1165,29
433,80	1263,60
434,00	1259,50
434,21	1255,40
434,41	1304,56
434,62	1290,22
434,82	1277,93
435,03	1257,45
435,23	1331,18
435,44	1263,60
435,64	1200,11
435,85	1345,52
436,06	1232,88
436,26	1255,40
436,47	1236,97
436,67	1304,56
436,88	1271,79
437,08	1277,93
437,29	1269,74
437,49	1273,84
437,70	1308,65
437,90	1302,51
438,11	1298,41
438,31	1249,26
438,52	1273,84
438,72	1263,60
438,93	1259,50
439,13	1259,50
439,34	1275,88
439,54	1243,12
439,75	1284,08
439,95	1257,45
440,16	1236,97
440,36	1230,83
440,57	1288,17
440,77	1286,12
440,98	1318,89
441,18	1312,75
441,39	1234,93
441,59	1288,17
441,80	1286,12
442,00	1257,45
442,21	1275,88
442,41	1214,45
442,62	1316,84
442,82	1294,32
443,02	1279,98
443,23	1216,49
443,43	1230,83
443,64	1218,54
443,84	1263,60
444,05	1282,03
444,25	1298,41
444,46	1210,35
444,66	1232,88
444,87	1271,79
445,07	1275,88
445,28	1277,93
445,48	1251,31
445,69	1243,12
445,89	1271,79
446,09	1251,31
446,30	1300,46
446,50	1247,21
446,71	1277,93
446,91	1277,93
447,12	1243,12
447,32	1273,84
447,53	1300,46
447,73	1249,26
447,93	1255,40
448,14	1236,97
448,34	1257,45
448,55	1331,18
448,75	1310,70
448,96	1230,83
449,16	1292,27
449,36	1247,21
449,57	1257,45
449,77	1241,07
449,98	1249,26
450,18	1224,69
450,39	1251,31
450,59	1245,16
450,79	1275,88
451,00	1284,08
451,20	1239,02
451,41	1200,11
451,61	1294,32
451,81	1308,65
452,02	1224,69
452,22	1212,40
452,43	1263,60
452,63	1224,69
452,84	1329,13
453,04	1284,08
453,24	1314,80
453,45	1267,69
453,65	1267,69
453,86	1282,03
454,06	1308,65
454,26	1263,60
454,47	1228,78
454,67	1329,13
454,87	1259,50
455,08	1310,70
455,28	1329,13
455,49	1282,03
455,69	1312,75
455,89	1294,32
456,10	1247,21
456,30	1284,08
456,51	1189,87
456,71	1310,70
456,91	1253,36
457,12	1275,88
457,32	1228,78
457,52	1279,98
457,73	1249,26
457,93	1267,69
458,14	1241,07
458,34	1251,31
458,54	1267,69
458,75	1241,07
458,95	1271,79
459,15	1286,12
459,36	1282,03
459,56	1320,94
459,76	1236,97
459,97	1335,28
460,17	1263,60
460,37	1208,30
460,58	1212,40
460,78	1310,70
460,99	1290,22
461,19	1351,66
461,39	1241,07
461,60	1304,56
461,80	1249,26
462,00	1175,53
462,21	1265,64
462,41	1245,16
462,61	1314,80
462,82	1327,08
463,02	1298,41
463,22	1275,88
463,43	1279,98
463,63	1249,26
463,83	1230,83
464,04	1257,45
464,24	1271,79
464,44	1282,03
464,64	1236,97
464,85	1322,99
465,05	1318,89
465,25	1294,32
465,46	1273,84
465,66	1245,16
465,86	1265,64
466,07	1261,55
466,27	1269,74
466,47	1253,36
466,68	1292,27
466,88	1257,45
467,08	1267,69
467,29	1304,56
467,49	1253,36
467,69	1282,03
467,89	1271,79
468,10	1292,27
468,30	1271,79
468,50	1269,74
468,71	1226,73
468,91	1273,84
469,11	1314,80
469,31	1196,01
469,52	1249,26
469,72	1269,74
469,92	1267,69
470,13	1298,41
470,33	1232,88
470,53	1257,45
470,73	1241,07
470,94	1206,25
471,14	1265,64
471,34	1296,36
471,54	1279,98
471,75	1220,59
471,95	1261,55
472,15	1255,40
472,36	1230,83
472,56	1267,69
472,76	1243,12
472,96	1325,04
473,17	1306,60
473,37	1265,64
473,57	1331,18
473,77	1298,41
473,98	1236,97
474,18	1271,79
474,38	1277,93
474,58	1249,26
474,79	1296,36
474,99	1288,17
475,19	1318,89
475,39	1331,18
475,60	1271,79
475,80	1267,69
476,00	1236,97
476,20	1241,07
476,41	1212,40
476,61	1263,60
476,81	1265,64
477,01	1269,74
477,21	1318,89
477,42	1261,55
477,62	1239,02
477,82	1226,73
478,02	1306,60
478,23	1331,18
478,43	1267,69
478,63	1310,70
478,83	1302,51
479,03	1288,17
479,24	1298,41
479,44	1257,45
479,64	1286,12
479,84	1306,60
480,04	1347,56
480,25	1310,70
480,45	1304,56
480,65	1263,60
480,85	1265,64
481,06	1279,98
481,26	1257,45
481,46	1265,64
481,66	1236,97
481,86	1296,36
482,06	1316,84
482,27	1253,36
482,47	1320,94
482,67	1355,76
482,87	1282,03
483,07	1312,75
483,28	1292,27
483,48	1232,88
483,68	1273,84
483,88	1271,79
484,08	1294,32
484,29	1232,88
484,49	1275,88
484,69	1259,50
484,89	1284,08
485,09	1335,28
485,29	1224,69
485,50	1284,08
485,70	1282,03
485,90	1312,75
486,10	1396,71
486,30	1257,45
486,50	1290,22
486,71	1331,18
486,91	1335,28
487,11	1288,17
487,31	1249,26
487,51	1239,02
487,71	1300,46
487,91	1255,40
488,12	1286,12
488,32	1298,41
488,52	1308,65
488,72	1292,27
488,92	1185,77
489,12	1284,08
489,32	1310,70
489,53	1277,93
489,73	1300,46
489,93	1314,80
490,13	1327,08
490,33	1284,08
490,53	1296,36
490,73	1333,23
490,94	1290,22
491,14	1265,64
491,34	1296,36
491,54	1314,80
491,74	1318,89
491,94	1347,56
492,14	1300,46
492,34	1253,36
492,54	1298,41
492,75	1325,04
492,95	1306,60
493,15	1300,46
493,35	1249,26
493,55	1318,89
493,75	1234,93
493,95	1314,80
494,15	1294,32
494,35	1253,36
494,56	1239,02
494,76	1230,83
494,96	1198,06
495,16	1257,45
495,36	1292,27
495,56	1257,45
495,76	1241,07
495,96	1259,50
496,16	1239,02
496,36	1322,99
496,56	1300,46
496,77	1271,79
496,97	1267,69
497,17	1298,41
497,37	1269,74
497,57	1312,75
497,77	1306,60
497,97	1251,31
498,17	1239,02
498,37	1290,22
498,57	1357,80
498,77	1241,07
498,97	1267,69
499,17	1253,36
499,38	1255,40
499,58	1282,03
499,78	1277,93
499,98	1267,69
500,18	1251,31
500,38	1288,17
500,58	1216,49
500,78	1349,61
500,98	1218,54
501,18	1288,17
501,38	1214,45
501,58	1220,59
501,78	1230,83
501,98	1372,14
502,18	1183,73
502,38	1290,22
502,58	1308,65
502,78	1232,88
502,98	1204,21
503,18	1294,32
503,38	1296,36
503,59	1234,93
503,79	1322,99
503,99	1290,22
504,19	1239,02
504,39	1292,27
504,59	1257,45
504,79	1249,26
504,99	1282,03
505,19	1294,32
505,39	1249,26
505,59	1312,75
505,79	1273,84
505,99	1296,36
506,19	1312,75
506,39	1310,70
506,59	1245,16
506,79	1239,02
506,99	1253,36
507,19	1288,17
507,39	1267,69
507,59	1241,07
507,79	1265,64
507,99	1245,16
508,19	1314,80
508,39	1263,60
508,59	1257,45
508,79	1314,80
508,99	1331,18
509,19	1296,36
509,39	1269,74
509,59	1282,03
509,79	1265,64
509,99	1243,12
510,19	1253,36
510,39	1273,84
510,59	1222,64
510,79	1304,56
510,99	1267,69
511,19	1308,65
511,39	1312,75
511,59	1294,32
511,79	1306,60
511,99	1306,60
512,19	1306,60
512,38	1304,56
512,58	1279,98
512,78	1249,26
512,98	1234,93
513,18	1302,51
513,38	1261,55
513,58	1296,36
513,78	1245,16
513,98	1335,28
514,18	1232,88
514,38	1257,45
514,58	1224,69
514,78	1359,85
514,98	1230,83
515,18	1351,66
515,38	1378,28
515,58	1177,58
515,78	1320,94
515,98	1347,56
516,18	1310,70
516,38	1269,74
516,57	1308,65
516,77	1296,36
516,97	1327,08
517,17	1259,50
517,37	1279,98
517,57	1347,56
517,77	1261,55
517,97	1277,93
518,17	1282,03
518,37	1273,84
518,57	1259,50
518,77	1318,89
518,97	1282,03
519,16	1224,69
519,36	1275,88
519,56	1310,70
519,76	1282,03
519,96	1296,36
520,16	1275,88
520,36	1222,64
520,56	1331,18
520,76	1265,64
520,96	1232,88
521,16	1265,64
521,35	1228,78
521,55	1273,84
521,75	1259,50
521,95	1275,88
522,15	1234,93
522,35	1265,64
522,55	1372,14
522,75	1275,88
522,95	1290,22
523,14	1329,13
523,34	1228,78
523,54	1245,16
523,74	1316,84
523,94	1392,62
524,14	1284,08
524,34	1296,36
524,54	1241,07
524,73	1198,06
524,93	1296,36
525,13	1263,60
525,33	1320,94
525,53	1290,22
525,73	1294,32
525,93	1241,07
526,13	1353,71
526,32	1230,83
526,52	1261,55
526,72	1288,17
526,92	1279,98
527,12	1275,88
527,32	1273,84
527,52	1308,65
527,71	1249,26
527,91	1239,02
528,11	1308,65
528,31	1249,26
528,51	1347,56
528,71	1347,56
528,90	1310,70
529,10	1249,26
529,30	1290,22
529,50	1286,12
529,70	1236,97
529,90	1308,65
530,09	1279,98
530,29	1214,45
530,49	1288,17
530,69	1275,88
530,89	1239,02
531,09	1259,50
531,28	1279,98
531,48	1204,21
531,68	1306,60
531,88	1251,31
532,08	1296,36
532,28	1335,28
532,47	1251,31
532,67	1279,98
532,87	1288,17
533,07	1279,98
533,27	1312,75
533,46	1290,22
533,66	1273,84
533,86	1265,64
534,06	1306,60
534,26	1290,22
534,45	1253,36
534,65	1267,69
534,85	1269,74
535,05	1247,21
535,25	1310,70
535,44	1269,74
535,64	1273,84
535,84	1222,64
536,04	1273,84
536,24	1288,17
536,43	1216,49
536,63	1265,64
536,83	1318,89
537,03	1296,36
537,22	1257,45
537,42	1185,77
537,62	1277,93
537,82	1329,13
538,02	1181,68
538,21	1277,93
538,41	1257,45
538,61	1296,36
538,81	1277,93
539,00	1273,84
539,20	1232,88
539,40	1310,70
539,60	1372,14
539,79	1296,36
539,99	1265,64
540,19	1296,36
540,39	1214,45
540,58	1277,93
540,78	1275,88
540,98	1290,22
541,18	1370,09
541,37	1196,01
541,57	1236,97
541,77	1380,33
541,97	1353,71
542,16	1296,36
542,36	1341,42
542,56	1265,64
542,76	1249,26
542,95	1282,03
543,15	1277,93
543,35	1306,60
543,54	1230,83
543,74	1277,93
543,94	1296,36
544,14	1208,30
544,33	1204,21
544,53	1288,17
544,73	1279,98
544,93	1290,22
545,12	1292,27
545,32	1277,93
545,52	1298,41
545,71	1277,93
545,91	1214,45
546,11	1257,45
546,30	1286,12
546,50	1296,36
546,70	1335,28
546,90	1322,99
547,09	1181,68
547,29	1261,55
547,49	1249,26
547,68	1216,49
547,88	1298,41
548,08	1298,41
548,27	1347,56
548,47	1296,36
548,67	1212,40
548,87	1263,60
549,06	1277,93
549,26	1279,98
549,46	1255,40
549,65	1345,52
549,85	1347,56
550,05	1294,32
550,24	1308,65
550,44	1277,93
550,64	1331,18
550,83	1232,88
551,03	1269,74
551,23	1312,75
551,42	1282,03
551,62	1341,42
551,82	1312,75
552,01	1300,46
552,21	1345,52
552,41	1261,55
552,60	1247,21
552,80	1366,00
553,00	1273,84
553,19	1325,04
553,39	1335,28
553,59	1320,94
553,78	1243,12
553,98	1257,45
554,17	1269,74
554,37	1361,90
554,57	1243,12
554,76	1304,56
554,96	1318,89
555,16	1255,40
555,35	1232,88
555,55	1345,52
555,75	1220,59
555,94	1236,97
556,14	1218,54
556,33	1271,79
556,53	1306,60
556,73	1304,56
556,92	1234,93
557,12	1257,45
557,32	1296,36
557,51	1257,45
557,71	1320,94
557,90	1312,75
558,10	1292,27
558,30	1292,27
558,49	1312,75
558,69	1239,02
558,88	1239,02
559,08	1370,09
559,28	1366,00
559,47	1304,56
559,67	1353,71
559,86	1368,04
560,06	1419,24
560,26	1253,36
560,45	1339,37
560,65	1308,65
560,84	1255,40
561,04	1298,41
561,24	1279,98
561,43	1300,46
561,63	1306,60
561,82	1261,55
562,02	1388,52
562,22	1263,60
562,41	1234,93
562,61	1277,93
562,80	1304,56
563,00	1288,17
563,19	1302,51
563,39	1232,88
563,59	1296,36
563,78	1353,71
563,98	1322,99
564,17	1236,97
564,37	1253,36
564,56	1249,26
564,76	1290,22
564,96	1243,12
565,15	1304,56
565,35	1177,58
565,54	1243,12
565,74	1312,75
565,93	1318,89
566,13	1322,99
566,32	1253,36
566,52	1316,84
566,71	1282,03
566,91	1298,41
567,11	1167,34
567,30	1337,32
567,50	1327,08
567,69	1337,32
567,89	1282,03
568,08	1230,83
568,28	1304,56
568,47	1279,98
568,67	1224,69
568,86	1320,94
569,06	1359,85
569,25	1265,64
569,45	1322,99
569,64	1290,22
569,84	1290,22
570,04	1261,55
570,23	1173,49
570,43	1282,03
570,62	1271,79
570,82	1265,64
571,01	1282,03
571,21	1292,27
571,40	1232,88
571,60	1343,47
571,79	1265,64
571,99	1255,40
572,18	1302,51
572,38	1263,60
572,57	1253,36
572,77	1349,61
572,96	1318,89
573,16	1290,22
573,35	1253,36
573,55	1288,17
573,74	1269,74
573,94	1241,07
574,13	1284,08
574,33	1271,79
574,52	1279,98
574,71	1300,46
574,91	1378,28
575,10	1265,64
575,30	1320,94
575,49	1306,60
575,69	1298,41
575,88	1269,74
576,08	1247,21
576,27	1249,26
576,47	1271,79
576,66	1249,26
576,86	1267,69
577,05	1241,07
577,25	1300,46
577,44	1277,93
577,64	1300,46
577,83	1318,89
578,02	1267,69
578,22	1271,79
578,41	1351,66
578,61	1247,21
578,80	1277,93
579,00	1304,56
579,19	1269,74
579,39	1333,23
579,58	1226,73
579,77	1310,70
579,97	1269,74
580,16	1224,69
580,36	1302,51
580,55	1247,21
580,75	1214,45
580,94	1310,70
581,13	1327,08
581,33	1265,64
581,52	1310,70
581,72	1206,25
581,91	1343,47
582,11	1269,74
582,30	1273,84
582,49	1286,12
582,69	1277,93
582,88	1318,89
583,08	1322,99
583,27	1277,93
583,47	1159,15
583,66	1331,18
583,85	1357,80
584,05	1282,03
584,24	1263,60
584,44	1239,02
584,63	1243,12
584,82	1292,27
585,02	1249,26
585,21	1263,60
585,41	1316,84
585,60	1329,13
585,79	1294,32
585,99	1306,60
586,18	1282,03
586,37	1232,88
586,57	1298,41
586,76	1318,89
586,96	1249,26
587,15	1290,22
587,34	1296,36
587,54	1312,75
587,73	1259,50
587,93	1306,60
588,12	1261,55
588,31	1206,25
588,51	1296,36
588,70	1312,75
588,89	1183,73
589,09	1322,99
589,28	1257,45
589,47	1241,07
589,67	1249,26
589,86	1275,88
590,06	1337,32
590,25	1341,42
590,44	1316,84
590,64	1335,28
590,83	1351,66
591,02	1306,60
591,22	1275,88
591,41	1355,76
591,60	1257,45
591,80	1290,22
591,99	1228,78
592,18	1243,12
592,38	1279,98
592,57	1300,46
592,76	1212,40
592,96	1275,88
593,15	1316,84
593,34	1298,41
593,54	1363,95
593,73	1288,17
593,92	1298,41
594,12	1257,45
594,31	1239,02
594,50	1329,13
594,70	1288,17
594,89	1202,16
595,08	1253,36
595,28	1243,12
595,47	1255,40
595,66	1308,65
595,86	1269,74
596,05	1298,41
596,24	1271,79
596,43	1347,56
596,63	1290,22
596,82	1265,64
597,01	1255,40
597,21	1314,80
597,40	1279,98
597,59	1314,80
597,79	1232,88
597,98	1232,88
598,17	1304,56
598,36	1265,64
598,56	1253,36
598,75	1314,80
598,94	1322,99
599,14	1230,83
599,33	1300,46
599,52	1200,11
599,71	1312,75
599,91	1304,56
600,10	1306,60
600,29	1224,69
600,48	1333,23
600,68	1290,22
600,87	1335,28
601,06	1312,75
601,26	1267,69
601,45	1257,45
601,64	1355,76
601,83	1257,45
602,03	1349,61
602,22	1335,28
602,41	1409,00
602,60	1306,60
602,80	1284,08
602,99	1316,84
603,18	1267,69
603,37	1339,37
603,57	1271,79
603,76	1292,27
603,95	1279,98
604,14	1259,50
604,34	1316,84
604,53	1232,88
604,72	1275,88
604,91	1249,26
605,10	1316,84
605,30	1245,16
605,49	1314,80
605,68	1263,60
605,87	1245,16
606,07	1312,75
606,26	1320,94
606,45	1284,08
606,64	1228,78
606,84	1245,16
607,03	1265,64
607,22	1429,48
607,41	1308,65
607,60	1394,67
607,80	1304,56
607,99	1277,93
608,18	1325,04
608,37	1257,45
608,56	1187,82
608,76	1402,86
608,95	1208,30
609,14	1282,03
609,33	1175,53
609,52	1322,99
609,72	1243,12
609,91	1273,84
610,10	1286,12
610,29	1277,93
610,48	1333,23
610,68	1325,04
610,87	1263,60
611,06	1292,27
611,25	1290,22
611,44	1302,51
611,63	1318,89
611,83	1269,74
612,02	1296,36
612,21	1269,74
612,40	1277,93
612,59	1275,88
612,79	1314,80
612,98	1353,71
613,17	1302,51
613,36	1312,75
613,55	1290,22
613,74	1312,75
613,93	1306,60
614,13	1320,94
614,32	1236,97
614,51	1263,60
614,70	1282,03
614,89	1247,21
615,08	1245,16
615,28	1345,52
615,47	1286,12
615,66	1294,32
615,85	1351,66
616,04	1249,26
616,23	1294,32
616,42	1343,47
616,62	1345,52
616,81	1265,64
617,00	1288,17
617,19	1282,03
617,38	1343,47
617,57	1222,64
617,76	1290,22
617,95	1337,32
618,15	1306,60
618,34	1277,93
618,53	1290,22
618,72	1230,83
618,91	1267,69
619,10	1263,60
619,29	1275,88
619,48	1220,59
619,68	1259,50
619,87	1353,71
620,06	1320,94
620,25	1327,08
620,44	1341,42
620,63	1294,32
620,82	1269,74
621,01	1255,40
621,20	1296,36
621,39	1314,80
621,59	1251,31
621,78	1290,22
621,97	1284,08
622,16	1275,88
622,35	1302,51
622,54	1312,75
622,73	1271,79
622,92	1306,60
623,11	1288,17
623,30	1329,13
623,49	1347,56
623,68	1288,17
623,88	1304,56
624,07	1296,36
624,26	1267,69
624,45	1286,12
624,64	1337,32
624,83	1230,83
625,02	1220,59
625,21	1308,65
625,40	1347,56
625,59	1298,41
625,78	1257,45
625,97	1333,23
626,16	1259,50
626,35	1282,03
626,54	1302,51
626,74	1329,13
626,93	1198,06
627,12	1257,45
627,31	1284,08
627,50	1351,66
627,69	1273,84
627,88	1228,78
628,07	1257,45
628,26	1296,36
628,45	1310,70
628,64	1335,28
628,83	1318,89
629,02	1290,22
629,21	1300,46
629,40	1226,73
629,59	1409,00
629,78	1335,28
629,97	1249,26
630,16	1286,12
630,35	1327,08
630,54	1275,88
630,73	1312,75
630,92	1267,69
631,11	1296,36
631,30	1308,65
631,49	1282,03
631,68	1355,76
631,87	1755,11
632,06	2899,92
632,25	2172,89
632,44	2496,47
632,63	2367,45
632,82	2398,17
633,01	3680,20
633,20	5662,63
633,39	6668,19
633,58	9197,43
633,77	19152,60
633,96	35079,66
634,15	50834,68
634,34	54564,03
634,53	43558,25
634,72	26648,17
634,91	14352,16
635,10	8034,18
635,29	5089,20
635,48	3547,08
635,67	2764,76
635,86	2426,84
636,05	2158,56
636,24	2033,63
636,43	1800,16
636,62	1662,95
636,81	1697,77
637,00	1626,09
637,19	1624,04
637,38	1466,35
637,57	1472,49
637,76	1462,25
637,95	1476,59
638,14	1406,95
638,33	1339,37
638,52	1363,95
638,71	1327,08
638,89	1396,71
639,08	1318,89
639,27	1308,65
639,46	1329,13
639,65	1325,04
639,84	1247,21
640,03	1308,65
640,22	1298,41
640,41	1337,32
640,60	1282,03
640,79	1288,17
640,98	1218,54
641,17	1243,12
641,36	1286,12
641,55	1310,70
641,74	1306,60
641,92	1314,80
642,11	1304,56
642,30	1234,93
642,49	1261,55
642,68	1212,40
642,87	1263,60
643,06	1257,45
643,25	1282,03
643,44	1224,69
643,63	1265,64
643,82	1382,38
644,00	1304,56
644,19	1355,76
644,38	1277,93
644,57	1325,04
644,76	1206,25
644,95	1347,56
645,14	1310,70
645,33	1310,70
645,52	1286,12
645,71	1282,03
645,89	1282,03
646,08	1312,75
646,27	1204,21
646,46	1298,41
646,65	1220,59
646,84	1261,55
647,03	1257,45
647,22	1257,45
647,40	1253,36
647,59	1374,19
647,78	1253,36
647,97	1306,60
648,16	1261,55
648,35	1290,22
648,54	1304,56
648,73	1277,93
648,91	1263,60
649,10	1275,88
649,29	1245,16
649,48	1329,13
649,67	1230,83
649,86	1265,64
650,05	1224,69
650,23	1320,94
650,42	1322,99
650,61	1259,50
650,80	1290,22
650,99	1282,03
651,18	1267,69
651,36	1290,22
651,55	1234,93
651,74	1288,17
651,93	1263,60
652,12	1257,45
652,31	1320,94
652,49	1230,83
652,68	1261,55
652,87	1239,02
653,06	1232,88
653,25	1312,75
653,44	1230,83
653,62	1230,83
653,81	1224,69
654,00	1290,22
654,19	1249,26
654,38	1257,45
654,56	1249,26
654,75	1224,69
654,94	1277,93
655,13	1273,84
655,32	1288,17
655,51	1275,88
655,69	1335,28
655,88	1282,03
656,07	1322,99
656,26	1288,17
656,45	1314,80
656,63	1284,08
656,82	1265,64
657,01	1339,37
657,20	1263,60
657,38	1208,30
657,57	1222,64
657,76	1222,64
657,95	1228,78
658,14	1257,45
658,32	1234,93
658,51	1253,36
658,70	1279,98
658,89	1298,41
659,08	1261,55
659,26	1310,70
659,45	1341,42
659,64	1241,07
659,83	1314,80
660,01	1241,07
660,20	1273,84
660,39	1269,74
660,58	1200,11
660,76	1277,93
660,95	1261,55
661,14	1343,47
661,33	1236,97
661,51	1302,51
661,70	1224,69
661,89	1222,64
662,08	1259,50
662,26	1298,41
662,45	1296,36
662,64	1282,03
662,83	1236,97
663,01	1263,60
663,20	1202,16
663,39	1331,18
663,58	1210,35
663,76	1290,22
663,95	1259,50
664,14	1374,19
664,32	1263,60
664,51	1251,31
664,70	1290,22
664,89	1312,75
665,07	1191,92
665,26	1296,36
665,45	1298,41
665,64	1271,79
665,82	1320,94
666,01	1265,64
666,20	1212,40
666,38	1239,02
666,57	1218,54
666,76	1288,17
666,95	1288,17
667,13	1255,40
667,32	1306,60
667,51	1296,36
667,69	1263,60
667,88	1351,66
668,07	1218,54
668,25	1335,28
668,44	1273,84
668,63	1263,60
668,81	1179,63
669,00	1290,22
669,19	1275,88
669,38	1335,28
669,56	1214,45
669,75	1228,78
669,94	1296,36
670,12	1259,50
670,31	1253,36
670,50	1265,64
670,68	1277,93
670,87	1296,36
671,06	1206,25
671,24	1279,98
671,43	1253,36
671,62	1269,74
671,80	1269,74
671,99	1232,88
672,18	1347,56
672,36	1273,84
672,55	1210,35
672,74	1243,12
672,92	1290,22
673,11	1279,98
673,29	1150,96
673,48	1275,88
673,67	1236,97
673,85	1298,41
674,04	1290,22
674,23	1304,56
674,41	1308,65
674,60	1353,71
674,79	1368,04
674,97	1236,97
675,16	1193,97
675,34	1241,07
675,53	1275,88
675,72	1302,51
675,90	1263,60
676,09	1288,17
676,28	1247,21
676,46	1298,41
676,65	1306,60
676,83	1220,59
677,02	1300,46
677,21	1286,12
677,39	1279,98
677,58	1263,60
677,77	1200,11
677,95	1273,84
678,14	1253,36
678,32	1314,80
678,51	1241,07
678,70	1247,21
678,88	1335,28
679,07	1327,08
679,25	1257,45
679,44	1253,36
679,63	1284,08
679,81	1269,74
680,00	1308,65
680,18	1247,21
680,37	1208,30
680,55	1247,21
680,74	1284,08
680,93	1255,40
681,11	1294,32
681,30	1345,52
681,48	1302,51
681,67	1253,36
681,85	1296,36
682,04	1253,36
682,23	1302,51
682,41	1275,88
682,60	1290,22
682,78	1357,80
682,97	1286,12
683,15	1322,99
683,34	1226,73
683,53	1345,52
683,71	1181,68
683,90	1265,64
684,08	1325,04
684,27	1288,17
684,45	1263,60
684,64	1273,84
684,82	1251,31
685,01	1239,02
685,19	1320,94
685,38	1183,73
685,57	1271,79
685,75	1286,12
685,94	1241,07
686,12	1286,12
686,31	1251,31
686,49	1279,98
686,68	1306,60
686,86	1249,26
687,05	1259,50
687,23	1271,79
687,42	1269,74
687,60	1247,21
687,79	1261,55
687,97	1142,77
688,16	1271,79
688,34	1265,64
688,53	1232,88
688,71	1304,56
688,90	1298,41
689,08	1230,83
689,27	1228,78
689,45	1349,61
689,64	1241,07
689,82	1261,55
690,01	1261,55
690,19	1322,99
690,38	1249,26
690,56	1255,40
690,75	1230,83
690,93	1306,60
691,12	1292,27
691,30	1273,84
691,49	1253,36
691,67	1232,88
691,86	1232,88
692,04	1239,02
692,23	1275,88
692,41	1298,41
692,60	1243,12
692,78	1351,66
692,97	1234,93
693,15	1241,07
693,34	1320,94
693,52	1282,03
693,71	1259,50
693,89	1390,57
694,08	1251,31
694,26	1277,93
694,44	1261,55
694,63	1368,04
694,81	1261,55
695,00	1222,64
695,18	1236,97
695,37	1239,02
695,55	1255,40
695,74	1224,69
695,92	1267,69
696,10	1337,32
696,29	1228,78
696,47	1275,88
696,66	1290,22
696,84	1325,04
697,03	1302,51
697,21	1277,93
697,40	1343,47
697,58	1245,16
697,76	1247,21
697,95	1222,64
698,13	1241,07
698,32	1292,27
698,50	1353,71
698,68	1296,36
698,87	1253,36
699,05	1298,41
699,24	1245,16
699,42	1249,26
699,61	1261,55
699,79	1243,12
699,97	1310,70
700,16	1288,17
700,34	1232,88
700,53	1255,40
700,71	1329,13
700,89	1241,07
701,08	1239,02
701,26	1222,64
701,45	1347,56
701,63	1286,12
701,81	1216,49
702,00	1220,59
702,18	1257,45
702,37	1273,84
702,55	1261,55
702,73	1290,22
702,92	1282,03
703,10	1331,18
703,28	1277,93
703,47	1255,40
703,65	1288,17
703,84	1261,55
704,02	1183,73
704,20	1241,07
704,39	1183,73
704,57	1292,27
704,75	1277,93
704,94	1265,64
705,12	1294,32
705,30	1241,07
705,49	1359,85
705,67	1318,89
705,86	1228,78
706,04	1253,36
706,22	1288,17
706,41	1261,55
706,59	1245,16
706,77	1282,03
706,96	1175,53
707,14	1300,46
707,32	1341,42
707,51	1226,73
707,69	1277,93
707,87	1271,79
708,06	1282,03
708,24	1368,04
708,42	1261,55
708,61	1222,64
708,79	1230,83
708,97	1249,26
709,16	1282,03
709,34	1204,21
709,52	1316,84
709,71	1236,97
709,89	1298,41
710,07	1282,03
710,26	1263,60
710,44	1257,45
710,62	1247,21
710,80	1265,64
710,99	1269,74
711,17	1286,12
711,35	1304,56
711,54	1253,36
711,72	1265,64
711,90	1275,88
712,09	1308,65
712,27	1286,12
712,45	1288,17
712,63	1339,37
712,82	1282,03
713,00	1273,84
713,18	1294,32
713,37	1335,28
713,55	1273,84
713,73	1351,66
713,91	1300,46
714,10	1312,75
714,28	1236,97
714,46	1189,87
714,65	1275,88
714,83	1308,65
715,01	1288,17
715,19	1224,69
715,38	1255,40
715,56	1269,74
715,74	1277,93
715,92	1232,88
716,11	1269,74
716,29	1228,78
716,47	1302,51
716,65	1261,55
716,84	1228,78
717,02	1259,50
717,20	1294,32
717,38	1277,93
717,57	1294,32
717,75	1288,17
717,93	1236,97
718,11	1236,97
718,30	1288,17
718,48	1282,03
718,66	1234,93
718,84	1265,64
719,03	1277,93
719,21	1279,98
719,39	1298,41
719,57	1171,44
719,75	1239,02
719,94	1308,65
720,12	1259,50
720,30	1259,50
720,48	1300,46
720,67	1255,40
720,85	1343,47
721,03	1251,31
721,21	1249,26
721,39	1273,84
721,58	1296,36
721,76	1290,22
721,94	1314,80
722,12	1261,55
722,30	1273,84
722,49	1331,18
722,67	1265,64
722,85	1366,00
723,03	1368,04
723,21	1265,64
723,40	1263,60
723,58	1261,55
723,76	1312,75
723,94	1198,06
724,12	1259,50
724,30	1171,44
724,49	1310,70
724,67	1269,74
724,85	1239,02
725,03	1277,93
725,21	1228,78
725,40	1265,64
725,58	1224,69
725,76	1271,79
725,94	1245,16
726,12	1290,22
726,30	1249,26
726,49	1257,45
726,67	1204,21
726,85	1292,27
727,03	1183,73
727,21	1253,36
727,39	1245,16
727,57	1263,60
727,76	1267,69
727,94	1271,79
728,12	1261,55
728,30	1312,75
728,48	1251,31
728,66	1253,36
728,84	1290,22
729,03	1265,64
729,21	1243,12
729,39	1312,75
729,57	1243,12
729,75	1320,94
729,93	1269,74
730,11	1247,21
730,30	1279,98
730,48	1269,74
730,66	1318,89
730,84	1241,07
731,02	1322,99
731,20	1232,88
731,38	1261,55
731,56	1275,88
731,74	1275,88
731,93	1263,60
732,11	1259,50
732,29	1329,13
732,47	1304,56
732,65	1251,31
732,83	1265,64
733,01	1198,06
733,19	1245,16
733,37	1234,93
733,56	1273,84
733,74	1267,69
733,92	1261,55
734,10	1312,75
734,28	1257,45
734,46	1337,32
734,64	1224,69
734,82	1345,52
735,00	1275,88
735,18	1294,32
735,36	1253,36
735,54	1263,60
735,73	1247,21
735,91	1312,75
736,09	1351,66
736,27	1288,17
736,45	1339,37
736,63	1312,75
736,81	1273,84
736,99	1277,93
737,17	1261,55
737,35	1234,93
737,53	1234,93
737,71	1251,31
737,89	1247,21
738,07	1220,59
738,25	1263,60
738,43	1306,60
738,61	1249,26
738,80	1337,32
738,98	1286,12
739,16	1286,12
739,34	1267,69
739,52	1296,36
739,70	1312,75
739,88	1236,97
740,06	1282,03
740,24	1335,28
740,42	1263,60
740,60	1216,49
740,78	1212,40
740,96	1255,40
741,14	1284,08
741,32	1206,25
741,50	1269,74
741,68	1234,93
741,86	1294,32
742,04	1191,92
742,22	1245,16
742,40	1230,83
742,58	1302,51
742,76	1292,27
742,94	1318,89
743,12	1320,94
743,30	1230,83
743,48	1312,75
743,66	1239,02
743,84	1316,84
744,02	1271,79
744,20	1245,16
744,38	1277,93
744,56	1212,40
744,74	1220,59
744,92	1261,55
745,10	1325,04
745,28	1306,60
745,46	1224,69
745,64	1292,27
745,82	1318,89
746,00	1265,64
746,18	1202,16
746,36	1224,69
746,54	1239,02
746,72	1261,55
746,90	1183,73
747,08	1290,22
747,26	1314,80
747,44	1282,03
747,62	1257,45
747,80	1282,03
747,98	1370,09
748,15	1232,88
748,33	1267,69
748,51	1284,08
748,69	1275,88
748,87	1308,65
749,05	1320,94
749,23	1343,47
749,41	1341,42
749,59	1263,60
749,77	1239,02
749,95	1269,74
750,13	1245,16
750,31	1216,49
750,49	1249,26
750,67	1212,40
750,85	1226,73
751,03	1265,64
751,20	1245,16
751,38	1284,08
751,56	1232,88
751,74	1279,98
751,92	1210,35
752,10	1298,41
752,28	1339,37
752,46	1247,21
752,64	1288,17
752,82	1222,64
753,00	1300,46
753,18	1279,98
753,35	1312,75
753,53	1312,75
753,71	1263,60
753,89	1251,31
754,07	1206,25
754,25	1314,80
754,43	1228,78
754,61	1253,36
754,79	1226,73
754,97	1322,99
755,14	1279,98
755,32	1263,60
755,50	1224,69
755,68	1259,50
755,86	1343,47
756,04	1224,69
756,22	1177,58
756,40	1279,98
756,57	1298,41
756,75	1322,99
756,93	1282,03
757,11	1300,46
757,29	1271,79
757,47	1255,40
757,65	1230,83
757,82	1169,39
758,00	1374,19
758,18	1245,16
758,36	1253,36
758,54	1331,18
758,72	1341,42
758,90	1249,26
759,07	1269,74
759,25	1294,32
759,43	1298,41
759,61	1312,75
759,79	1269,74
759,97	1288,17
760,15	1247,21
760,32	1296,36
760,50	1335,28
760,68	1345,52
760,86	1255,40
761,04	1312,75
761,22	1279,98
761,39	1210,35
761,57	1275,88
761,75	1282,03
761,93	1294,32
762,11	1230,83
762,28	1322,99
762,46	1228,78
762,64	1271,79
762,82	1241,07
763,00	1310,70
763,18	1284,08
763,35	1273,84
763,53	1183,73
763,71	1284,08
763,89	1269,74
764,07	1300,46
764,24	1271,79
764,42	1193,97
764,60	1261,55
764,78	1257,45
764,96	1306,60
765,13	1304,56
765,31	1290,22
765,49	1341,42
765,67	1275,88
765,84	1269,74
766,02	1226,73
766,20	1230,83
766,38	1261,55
766,56	1247,21
766,73	1269,74
766,91	1257,45
767,09	1232,88
767,27	1239,02
767,44	1277,93
767,62	1226,73
767,80	1302,51
767,98	1273,84
768,15	1325,04
768,33	1245,16
768,51	1339,37
768,69	1226,73
768,87	1275,88
769,04	1312,75
769,22	1241,07
769,40	1271,79
769,58	1316,84
769,75	1253,36
769,93	1265,64
770,11	1247,21
770,28	1275,88
770,46	1296,36
770,64	1271,79
770,82	1226,73
770,99	1226,73
771,17	1253,36
771,35	1251,31
771,53	1259,50
771,70	1263,60
771,88	1232,88
772,06	1288,17
772,23	1214,45
772,41	1198,06
772,59	1294,32
772,77	1325,04
772,94	1202,16
773,12	1224,69
773,30	1263,60
773,47	1263,60
773,65	1226,73
773,83	1296,36
774,01	1275,88
774,18	1236,97
774,36	1222,64
774,54	1288,17
774,71	1257,45
774,89	1286,12
775,07	1185,77
775,24	1241,07
775,42	1234,93
775,60	1265,64
775,78	1218,54
775,95	1249,26
776,13	1216,49
776,31	1243,12
776,48	1214,45
776,66	1261,55
776,84	1288,17
777,01	1257,45
777,19	1273,84
777,37	1288,17
777,54	1232,88
777,72	1273,84
777,90	1302,51
778,07	1263,60
778,25	1208,30
778,43	1275,88
778,60	1286,12
778,78	1234,93
778,96	1275,88
779,13	1234,93
779,31	1322,99
779,49	1269,74
779,66	1228,78
779,84	1173,49
780,01	1282,03
780,19	1296,36
780,37	1263,60
780,54	1279,98
780,72	1247,21
780,90	1230,83
781,07	1253,36
781,25	1222,64
781,43	1282,03
781,60	1302,51
781,78	1261,55
781,95	1286,12
782,13	1310,70
782,31	1273,84
782,48	1239,02
782,66	1275,88
782,83	1245,16
783,01	1290,22
783,19	1226,73
783,36	1347,56
783,54	1253,36
783,72	1284,08
783,89	1232,88
784,07	1296,36
784,24	1286,12
784,42	1349,61
784,60	1243,12
784,77	1253,36
784,95	1249,26
785,12	1236,97
785,30	1253,36
785,47	1253,36
785,65	1341,42
785,83	1249,26
786,00	1279,98
786,18	1198,06
786,35	1265,64
786,53	1241,07
786,71	1282,03
786,88	1216,49
787,06	1232,88
787,23	1230,83
787,41	1277,93
787,58	1241,07
787,76	1257,45
787,94	1241,07
788,11	1224,69
788,29	1259,50
788,46	1294,32
788,64	1251,31
788,81	1251,31
788,99	1263,60
789,16	1224,69
789,34	1261,55
789,52	1267,69
789,69	1316,84
789,87	1269,74
790,04	1265,64
790,22	1322,99
790,39	1333,23
790,57	1206,25
790,74	1232,88
790,92	1265,64
791,09	1239,02
791,27	1304,56
791,44	1273,84
791,62	1255,40
791,79	1259,50
791,97	1185,77
792,15	1277,93
792,32	1292,27
792,50	1277,93
792,67	1312,75
792,85	1245,16
793,02	1275,88
793,20	1290,22
793,37	1271,79
793,55	1327,08
793,72	1296,36
793,90	1236,97
794,07	1193,97
794,25	1259,50
794,42	1185,77
794,60	1269,74
794,77	1247,21
794,95	1306,60
795,12	1253,36
795,30	1241,07
795,47	1218,54
795,65	1331,18
795,82	1273,84
796,00	1302,51
796,17	1234,93
796,34	1279,98
796,52	1216,49
796,69	1222,64
796,87	1296,36
797,04	1282,03
797,22	1216,49
797,39	1286,12
797,57	1257,45
797,74	1224,69
797,92	1265,64
798,09	1245,16
798,27	1284,08
798,44	1247,21
798,62	1255,40
798,79	1257,45
798,96	1267,69
799,14	1255,40
799,31	1320,94
799,49	1255,40
799,66	1288,17
799,84	1243,12
800,01	1247,21
800,19	1261,55
800,36	1277,93
800,53	1232,88
800,71	1298,41
800,88	1290,22
801,06	1261,55
801,23	1286,12
801,41	1187,82
801,58	1239,02
801,75	1181,68
801,93	1290,22
802,10	1292,27
802,28	1265,64
802,45	1298,41
802,63	1312,75
802,80	1251,31
802,97	1265,64
803,15	1179,63
803,32	1175,53
803,50	1253,36
803,67	1232,88
803,84	1304,56
804,02	1261,55
804,19	1286,12
804,37	1279,98
804,54	1224,69
804,71	1183,73
804,89	1282,03
805,06	1286,12
805,24	1196,01
805,41	1265,64
805,58	1337,32
805,76	1296,36
805,93	1296,36
806,10	1316,84
806,28	1318,89
806,45	1267,69
806,63	1232,88
806,80	1343,47
806,97	1228,78
807,15	1320,94
807,32	1267,69
807,49	1277,93
807,67	1271,79
807,84	1222,64
808,01	1267,69
808,19	1275,88
808,36	1310,70
808,54	1257,45
808,71	1247,21
808,88	1306,60
809,06	1275,88
809,23	1191,92
809,40	1224,69
809,58	1271,79
809,75	1286,12
809,92	1255,40
810,10	1226,73
810,27	1282,03
810,44	1273,84
810,62	1290,22
810,79	1251,31
810,96	1212,40
811,14	1363,95
811,31	1263,60
811,48	1257,45
811,66	1284,08
811,83	1306,60
812,00	1253,36
812,18	1236,97
812,35	1228,78
812,52	1245,16
812,69	1247,21
812,87	1300,46
813,04	1189,87
813,21	1263,60
813,39	1253,36
813,56	1257,45
813,73	1273,84
813,91	1255,40
814,08	1224,69
814,25	1263,60
814,42	1222,64
814,60	1304,56
814,77	1322,99
814,94	1232,88
815,12	1279,98
815,29	1257,45
815,46	1271,79
815,63	1269,74
815,81	1271,79
815,98	1253,36
816,15	1212,40
816,33	1208,30
816,50	1216,49
816,67	1331,18
816,84	1200,11
817,02	1288,17
817,19	1298,41
817,36	1312,75
817,53	1226,73
817,71	1294,32
817,88	1286,12
818,05	1306,60
818,22	1265,64
818,40	1255,40
818,57	1296,36
818,74	1236,97
818,91	1232,88
819,09	1273,84
819,26	1241,07
819,43	1265,64
819,60	1284,08
819,78	1245,16
819,95	1271,79
820,12	1243,12
820,29	1226,73
820,47	1327,08
820,64	1265,64
820,81	1314,80
820,98	1329,13
821,15	1267,69
821,33	1273,84
821,50	1253,36
821,67	1263,60
821,84	1214,45
822,02	1220,59
822,19	1318,89
822,36	1255,40
822,53	1255,40
822,70	1312,75
822,88	1288,17
823,05	1282,03
823,22	1247,21
823,39	1224,69
823,56	1245,16
823,74	1273,84
823,91	1241,07
824,08	1214,45
824,25	1251,31
824,42	1275,88
824,60	1218,54
824,77	1288,17
824,94	1216,49
825,11	1241,07
825,28	1282,03
825,45	1230,83
825,63	1300,46
825,80	1206,25
825,97	1277,93
826,14	1255,40
826,31	1294,32
826,48	1273,84
826,66	1304,56
826,83	1222,64
827,00	1232,88
827,17	1275,88
827,34	1202,16
827,51	1277,93
827,69	1261,55
827,86	1224,69
828,03	1265,64
828,20	1337,32
828,37	1277,93
828,54	1241,07
828,71	1277,93
828,89	1347,56
829,06	1234,93
829,23	1271,79
829,40	1239,02
829,57	1247,21
829,74	1282,03
829,91	1275,88
830,09	1312,75
830,26	1265,64
830,43	1267,69
830,60	1265,64
830,77	1212,40
830,94	1247,21
831,11	1259,50
831,28	1304,56
831,46	1200,11
831,63	1329,13
831,80	1339,37
831,97	1253,36
832,14	1314,80
832,31	1275,88
832,48	1226,73
832,65	1226,73
832,82	1241,07
832,99	1271,79
833,17	1331,18
833,34	1316,84
833,51	1277,93
833,68	1185,77
833,85	1239,02
834,02	1279,98
834,19	1263,60
834,36	1306,60
834,53	1294,32
834,70	1226,73
834,87	1259,50
835,04	1284,08
835,22	1232,88
835,39	1249,26
835,56	1318,89
835,73	1245,16
835,90	1337,32
836,07	1232,88
836,24	1310,70
836,41	1189,87
836,58	1253,36
836,75	1329,13
836,92	1271,79
837,09	1247,21
837,26	1189,87
837,43	1251,31
837,60	1290,22
837,77	1288,17
837,94	1308,65
838,12	1331,18
838,29	1277,93
838,46	1306,60
838,63	1193,97
838,80	1304,56
838,97	1275,88
839,14	1249,26
839,31	1277,93
839,48	1288,17
839,65	1300,46
839,82	1257,45
839,99	1325,04
840,16	1277,93
840,33	1236,97
840,50	1296,36
840,67	1271,79
840,84	1232,88
841,01	1304,56
841,18	1300,46
841,35	1275,88
841,52	1290,22
841,69	1366,00
841,86	1220,59
842,03	1277,93
842,20	1245,16
842,37	1300,46
842,54	1290,22
842,71	1236,97
842,88	1204,21
843,05	1255,40
843,22	1320,94
843,39	1296,36
843,56	1251,31
843,73	1296,36
843,90	1286,12
844,07	1314,80
844,24	1320,94
844,41	1261,55
844,58	1282,03
844,75	1267,69
844,92	1181,68
845,09	1263,60
845,26	1212,40
845,43	1277,93
845,60	1249,26
845,77	1269,74
845,94	1249,26
846,10	1263,60
846,27	1236,97
846,44	1226,73
846,61	1196,01
846,78	1265,64
846,95	1222,64
847,12	1232,88
847,29	1251,31
847,46	1196,01
847,63	1339,37
847,80	1286,12
847,97	1249,26
848,14	1279,98
848,31	1251,31
848,48	1282,03
848,65	1259,50
848,82	1302,51
848,98	1251,31
849,15	1243,12
849,32	1273,84
849,49	1306,60
849,66	1226,73
849,83	1298,41
850,00	1277,93
850,17	1239,02
850,34	1271,79
850,51	1355,76
850,68	1308,65
850,85	1343,47
851,01	1341,42
851,18	1210,35
851,35	1206,25
851,52	1265,64
851,69	1189,87
851,86	1257,45
852,03	1167,34
852,20	1220,59
852,37	1253,36
852,53	1351,66
852,70	1200,11
852,87	1251,31
853,04	1241,07
853,21	1282,03
853,38	1343,47
853,55	1253,36
853,72	1279,98
853,89	1308,65
854,05	1224,69
854,22	1253,36
854,39	1212,40
854,56	1282,03
854,73	1302,51
854,90	1247,21
855,07	1275,88
855,23	1267,69
855,40	1245,16
855,57	1249,26
855,74	1249,26
855,91	1320,94
856,08	1204,21
856,25	1282,03
856,41	1275,88
856,58	1212,40
856,75	1169,39
856,92	1216,49
857,09	1255,40
857,26	1263,60
857,42	1261,55
857,59	1302,51
857,76	1292,27
857,93	1267,69
858,10	1245,16
858,27	1308,65
858,43	1261,55
858,60	1273,84
858,77	1316,84
858,94	1220,59
859,11	1220,59
859,27	1314,80
859,44	1279,98
859,61	1222,64
859,78	1298,41
859,95	1187,82
860,12	1228,78
860,28	1241,07
860,45	1232,88
860,62	1181,68
860,79	1335,28
860,95	1259,50
861,12	1234,93
861,29	1167,34
861,46	1247,21
861,63	1261,55
861,79	1296,36
861,96	1224,69
862,13	1232,88
862,30	1261,55
862,47	1239,02
862,63	1249,26
862,80	1220,59
862,97	1308,65
863,14	1261,55
863,30	1294,32
863,47	1222,64
863,64	1286,12
863,81	1331,18
863,97	1165,29
864,14	1273,84
864,31	1253,36
864,48	1275,88
864,65	1257,45
864,81	1320,94
864,98	1269,74
865,15	1314,80
865,32	1273,84
865,48	1257,45
865,65	1241,07
865,82	1333,23
865,98	1255,40
866,15	1232,88
866,32	1247,21
866,49	1265,64
866,65	1314,80
866,82	1236,97
866,99	1257,45
867,16	1200,11
867,32	1282,03
867,49	1265,64
867,66	1277,93
867,83	1249,26
867,99	1208,30
868,16	1216,49
868,33	1302,51
868,49	1239,02
868,66	1335,28
868,83	1316,84
868,99	1257,45
869,16	1189,87
869,33	1257,45
869,50	1241,07
869,66	1265,64
869,83	1296,36
870,00	1300,46
870,16	1275,88
870,33	1236,97
870,50	1298,41
870,66	1257,45
870,83	1253,36
871,00	1243,12
871,17	1343,47
871,33	1284,08
871,50	1265,64
871,67	1282,03
871,83	1236,97
872,00	1198,06
872,17	1288,17
872,33	1200,11
872,50	1306,60
872,67	1294,32
872,83	1261,55
873,00	1247,21
873,17	1239,02
873,33	1243,12
873,50	1241,07
873,67	1220,59
873,83	1230,83
874,00	1279,98
874,16	1271,79
874,33	1171,44
874,50	1204,21
874,66	1224,69
874,83	1269,74
875,00	1251,31
875,16	1269,74
875,33	1241,07
875,50	1312,75
875,66	1263,60
875,83	1298,41
875,99	1290,22
876,16	1259,50
876,33	1277,93
876,49	1204,21
876,66	1275,88
876,83	1304,56
876,99	1245,16
877,16	1230,83
877,32	1325,04
877,49	1208,30
877,66	1277,93
877,82	1343,47
877,99	1216,49
878,15	1290,22
878,32	1247,21
878,49	1245,16
878,65	1310,70
878,82	1226,73
878,98	1288,17
879,15	1320,94
879,32	1327,08
879,48	1216,49
879,65	1191,92
879,81	1320,94
879,98	1255,40
880,15	1277,93
880,31	1269,74
880,48	1282,03
880,64	1308,65
880,81	1288,17
880,97	1333,23
881,14	1279,98
881,31	1222,64
881,47	1230,83
881,64	1284,08
881,80	1251,31
881,97	1286,12
882,13	1212,40
882,30	1318,89
882,47	1271,79
882,63	1290,22
882,80	1253,36
882,96	1208,30
883,13	1271,79
883,29	1284,08
883,46	1327,08
883,62	1286,12
883,79	1208,30
883,95	1269,74
884,12	1247,21
884,29	1243,12
884,45	1363,95
884,62	1247,21
884,78	1304,56
884,95	1286,12
885,11	1175,53
885,28	1249,26
885,44	1259,50
885,61	1277,93
885,77	1290,22
885,94	1296,36
886,10	1204,21
886,27	1298,41
886,43	1277,93
886,60	1290,22
886,76	1290,22
886,93	1236,97
887,09	1226,73
887,26	1208,30
887,42	1282,03
887,59	1269,74
887,75	1263,60
887,92	1331,18
888,08	1226,73
888,25	1234,93
888,41	1290,22
888,58	1331,18
888,74	1273,84
888,91	1310,70
>>>>>End Processed Spectral Data<<<<<
