SpectraSuite Data File
++++++++++++++++++++++++++++++++++++
Date: Sun Apr 03 19:55:24 CEST 2016
User: root
Dark Spectrum Present: No
Reference Spectrum Present: No
Number of Sampled Component Spectra: 1
Spectrometers: USB4C02835
Integration Time (usec): 10000 (USB4C02835)
Spectra Averaged: 1 (USB4C02835)
Boxcar Smoothing: 0 (USB4C02835)
Correct for Electrical Dark: No (USB4C02835)
Strobe/Lamp Enabled: No (USB4C02835)
Correct for Detector Non-linearity: No (USB4C02835)
Correct for Stray Light: No (USB4C02835)
Number of Pixels in Processed Spectrum: 3648
>>>>>Begin Processed Spectral Data<<<<<
177,47	1261,55
177,69	1261,55
177,91	1261,55
178,13	1236,97
178,36	1257,45
178,58	1322,99
178,80	1298,41
179,02	1304,56
179,24	1333,23
179,46	1236,97
179,68	1288,17
179,90	1232,88
180,13	1275,88
180,35	1277,93
180,57	1226,73
180,79	1200,11
181,01	1288,17
181,23	1302,51
181,45	1249,26
181,67	1296,36
181,90	1292,27
182,12	1277,93
182,34	1282,03
182,56	1241,07
182,78	1316,84
183,00	1230,83
183,22	1234,93
183,44	1286,12
183,66	1204,21
183,89	1218,54
184,11	1329,13
184,33	1249,26
184,55	1337,32
184,77	1306,60
184,99	1245,16
185,21	1314,80
185,43	1189,87
185,65	1241,07
185,87	1224,69
186,10	1214,45
186,32	1288,17
186,54	1318,89
186,76	1400,81
186,98	1183,73
187,20	1331,18
187,42	1228,78
187,64	1245,16
187,86	1304,56
188,08	1251,31
188,30	1171,44
188,52	1234,93
188,75	1318,89
188,97	1183,73
189,19	1282,03
189,41	1286,12
189,63	1241,07
189,85	1296,36
190,07	1193,97
190,29	1314,80
190,51	1185,77
190,73	1269,74
190,95	1255,40
191,17	1341,42
191,39	1216,49
191,61	1314,80
191,84	1220,59
192,06	1228,78
192,28	1288,17
192,50	1253,36
192,72	1259,50
192,94	1212,40
193,16	1226,73
193,38	1253,36
193,60	1279,98
193,82	1245,16
194,04	1286,12
194,26	1189,87
194,48	1255,40
194,70	1286,12
194,92	1284,08
195,14	1243,12
195,36	1314,80
195,58	1271,79
195,80	1296,36
196,02	1273,84
196,24	1259,50
196,46	1157,10
196,69	1241,07
196,91	1288,17
197,13	1224,69
197,35	1212,40
197,57	1284,08
197,79	1255,40
198,01	1257,45
198,23	1255,40
198,45	1200,11
198,67	1267,69
198,89	1232,88
199,11	1232,88
199,33	1255,40
199,55	1259,50
199,77	1331,18
199,99	1259,50
200,21	1206,25
200,43	1265,64
200,65	1277,93
200,87	1286,12
201,09	1329,13
201,31	1310,70
201,53	1185,77
201,75	1259,50
201,97	1251,31
202,19	1245,16
202,41	1241,07
202,63	1298,41
202,85	1279,98
203,07	1247,21
203,29	1261,55
203,51	1263,60
203,73	1200,11
203,95	1288,17
204,17	1286,12
204,39	1241,07
204,61	1241,07
204,83	1282,03
205,05	1251,31
205,27	1298,41
205,49	1224,69
205,71	1216,49
205,93	1247,21
206,15	1282,03
206,37	1312,75
206,59	1230,83
206,81	1210,35
207,03	1300,46
207,25	1245,16
207,47	1265,64
207,69	1200,11
207,91	1310,70
208,13	1255,40
208,34	1331,18
208,56	1241,07
208,78	1208,30
209,00	1273,84
209,22	1234,93
209,44	1251,31
209,66	1275,88
209,88	1316,84
210,10	1257,45
210,32	1247,21
210,54	1298,41
210,76	1179,63
210,98	1310,70
211,20	1177,58
211,42	1296,36
211,64	1247,21
211,86	1269,74
212,08	1288,17
212,30	1251,31
212,52	1222,64
212,74	1263,60
212,96	1279,98
213,17	1239,02
213,39	1282,03
213,61	1179,63
213,83	1271,79
214,05	1224,69
214,27	1275,88
214,49	1251,31
214,71	1214,45
214,93	1218,54
215,15	1265,64
215,37	1265,64
215,59	1263,60
215,81	1310,70
216,03	1210,35
216,24	1189,87
216,46	1214,45
216,68	1189,87
216,90	1232,88
217,12	1292,27
217,34	1234,93
217,56	1232,88
217,78	1273,84
218,00	1341,42
218,22	1234,93
218,44	1304,56
218,66	1312,75
218,87	1228,78
219,09	1304,56
219,31	1331,18
219,53	1298,41
219,75	1245,16
219,97	1275,88
220,19	1294,32
220,41	1302,51
220,63	1298,41
220,85	1357,80
221,06	1230,83
221,28	1214,45
221,50	1345,52
221,72	1251,31
221,94	1304,56
222,16	1183,73
222,38	1255,40
222,60	1214,45
222,82	1294,32
223,03	1294,32
223,25	1310,70
223,47	1273,84
223,69	1271,79
223,91	1277,93
224,13	1271,79
224,35	1241,07
224,57	1288,17
224,78	1261,55
225,00	1226,73
225,22	1337,32
225,44	1298,41
225,66	1267,69
225,88	1325,04
226,10	1296,36
226,32	1220,59
226,53	1212,40
226,75	1257,45
226,97	1222,64
227,19	1277,93
227,41	1263,60
227,63	1273,84
227,85	1273,84
228,06	1267,69
228,28	1224,69
228,50	1263,60
228,72	1255,40
228,94	1218,54
229,16	1255,40
229,37	1294,32
229,59	1296,36
229,81	1259,50
230,03	1261,55
230,25	1331,18
230,47	1239,02
230,69	1163,25
230,90	1181,68
231,12	1161,20
231,34	1277,93
231,56	1245,16
231,78	1224,69
232,00	1245,16
232,21	1259,50
232,43	1275,88
232,65	1228,78
232,87	1279,98
233,09	1196,01
233,30	1251,31
233,52	1374,19
233,74	1259,50
233,96	1263,60
234,18	1265,64
234,40	1265,64
234,61	1198,06
234,83	1226,73
235,05	1249,26
235,27	1277,93
235,49	1245,16
235,70	1200,11
235,92	1327,08
236,14	1322,99
236,36	1314,80
236,58	1263,60
236,79	1140,72
237,01	1298,41
237,23	1193,97
237,45	1239,02
237,67	1296,36
237,88	1267,69
238,10	1277,93
238,32	1269,74
238,54	1368,04
238,76	1333,23
238,97	1236,97
239,19	1265,64
239,41	1234,93
239,63	1294,32
239,85	1255,40
240,06	1298,41
240,28	1288,17
240,50	1177,58
240,72	1275,88
240,93	1279,98
241,15	1261,55
241,37	1282,03
241,59	1345,52
241,81	1198,06
242,02	1288,17
242,24	1257,45
242,46	1196,01
242,68	1282,03
242,89	1337,32
243,11	1212,40
243,33	1298,41
243,55	1245,16
243,76	1249,26
243,98	1273,84
244,20	1294,32
244,42	1239,02
244,64	1249,26
244,85	1318,89
245,07	1259,50
245,29	1208,30
245,51	1310,70
245,72	1312,75
245,94	1279,98
246,16	1239,02
246,38	1210,35
246,59	1288,17
246,81	1275,88
247,03	1296,36
247,24	1206,25
247,46	1298,41
247,68	1282,03
247,90	1224,69
248,11	1269,74
248,33	1267,69
248,55	1341,42
248,77	1257,45
248,98	1294,32
249,20	1206,25
249,42	1298,41
249,64	1310,70
249,85	1253,36
250,07	1271,79
250,29	1249,26
250,50	1275,88
250,72	1228,78
250,94	1310,70
251,16	1261,55
251,37	1249,26
251,59	1300,46
251,81	1290,22
252,02	1320,94
252,24	1314,80
252,46	1284,08
252,68	1288,17
252,89	1277,93
253,11	1218,54
253,33	1294,32
253,54	1259,50
253,76	1261,55
253,98	1255,40
254,20	1273,84
254,41	1212,40
254,63	1265,64
254,85	1239,02
255,06	1298,41
255,28	1187,82
255,50	1226,73
255,71	1218,54
255,93	1263,60
256,15	1263,60
256,36	1261,55
256,58	1257,45
256,80	1271,79
257,02	1267,69
257,23	1239,02
257,45	1318,89
257,67	1298,41
257,88	1314,80
258,10	1298,41
258,32	1271,79
258,53	1249,26
258,75	1257,45
258,97	1273,84
259,18	1298,41
259,40	1333,23
259,62	1378,28
259,83	1292,27
260,05	1218,54
260,27	1353,71
260,48	1249,26
260,70	1271,79
260,92	1288,17
261,13	1257,45
261,35	1267,69
261,57	1269,74
261,78	1212,40
262,00	1214,45
262,22	1226,73
262,43	1232,88
262,65	1245,16
262,86	1263,60
263,08	1265,64
263,30	1329,13
263,51	1288,17
263,73	1314,80
263,95	1245,16
264,16	1216,49
264,38	1314,80
264,60	1298,41
264,81	1249,26
265,03	1253,36
265,25	1271,79
265,46	1249,26
265,68	1286,12
265,89	1243,12
266,11	1175,53
266,33	1318,89
266,54	1275,88
266,76	1263,60
266,98	1255,40
267,19	1241,07
267,41	1296,36
267,62	1253,36
267,84	1259,50
268,06	1236,97
268,27	1288,17
268,49	1193,97
268,70	1226,73
268,92	1208,30
269,14	1359,85
269,35	1255,40
269,57	1306,60
269,79	1296,36
270,00	1212,40
270,22	1314,80
270,43	1220,59
270,65	1220,59
270,87	1320,94
271,08	1298,41
271,30	1286,12
271,51	1273,84
271,73	1290,22
271,95	1222,64
272,16	1228,78
272,38	1241,07
272,59	1273,84
272,81	1267,69
273,02	1298,41
273,24	1282,03
273,46	1185,77
273,67	1247,21
273,89	1241,07
274,10	1241,07
274,32	1253,36
274,54	1298,41
274,75	1349,61
274,97	1288,17
275,18	1329,13
275,40	1318,89
275,61	1249,26
275,83	1224,69
276,05	1249,26
276,26	1288,17
276,48	1263,60
276,69	1191,92
276,91	1243,12
277,12	1304,56
277,34	1212,40
277,55	1275,88
277,77	1259,50
277,99	1327,08
278,20	1247,21
278,42	1239,02
278,63	1271,79
278,85	1265,64
279,06	1277,93
279,28	1292,27
279,49	1294,32
279,71	1239,02
279,93	1216,49
280,14	1273,84
280,36	1230,83
280,57	1286,12
280,79	1312,75
281,00	1247,21
281,22	1339,37
281,43	1296,36
281,65	1318,89
281,86	1257,45
282,08	1269,74
282,29	1304,56
282,51	1275,88
282,73	1255,40
282,94	1255,40
283,16	1241,07
283,37	1253,36
283,59	1224,69
283,80	1255,40
284,02	1247,21
284,23	1331,18
284,45	1269,74
284,66	1279,98
284,88	1337,32
285,09	1322,99
285,31	1366,00
285,52	1243,12
285,74	1273,84
285,95	1329,13
286,17	1306,60
286,38	1273,84
286,60	1290,22
286,81	1232,88
287,03	1261,55
287,24	1271,79
287,46	1265,64
287,67	1277,93
287,89	1191,92
288,10	1294,32
288,32	1284,08
288,53	1212,40
288,75	1306,60
288,96	1241,07
289,18	1265,64
289,39	1232,88
289,61	1261,55
289,82	1255,40
290,04	1282,03
290,25	1243,12
290,47	1271,79
290,68	1241,07
290,90	1265,64
291,11	1214,45
291,33	1314,80
291,54	1228,78
291,76	1300,46
291,97	1265,64
292,18	1261,55
292,40	1322,99
292,61	1218,54
292,83	1298,41
293,04	1257,45
293,26	1288,17
293,47	1198,06
293,69	1282,03
293,90	1243,12
294,12	1292,27
294,33	1279,98
294,55	1253,36
294,76	1296,36
294,97	1282,03
295,19	1263,60
295,40	1275,88
295,62	1288,17
295,83	1191,92
296,05	1302,51
296,26	1331,18
296,48	1228,78
296,69	1351,66
296,90	1263,60
297,12	1269,74
297,33	1292,27
297,55	1187,82
297,76	1265,64
297,98	1247,21
298,19	1222,64
298,41	1230,83
298,62	1257,45
298,83	1259,50
299,05	1247,21
299,26	1226,73
299,48	1222,64
299,69	1247,21
299,90	1296,36
300,12	1218,54
300,33	1300,46
300,55	1259,50
300,76	1306,60
300,98	1222,64
301,19	1249,26
301,40	1310,70
301,62	1239,02
301,83	1279,98
302,05	1320,94
302,26	1232,88
302,47	1204,21
302,69	1273,84
302,90	1304,56
303,12	1204,21
303,33	1325,04
303,54	1259,50
303,76	1214,45
303,97	1312,75
304,19	1247,21
304,40	1249,26
304,61	1333,23
304,83	1282,03
305,04	1320,94
305,26	1290,22
305,47	1269,74
305,68	1224,69
305,90	1265,64
306,11	1265,64
306,33	1271,79
306,54	1284,08
306,75	1214,45
306,97	1273,84
307,18	1292,27
307,39	1325,04
307,61	1257,45
307,82	1259,50
308,04	1232,88
308,25	1261,55
308,46	1216,49
308,68	1247,21
308,89	1269,74
309,10	1216,49
309,32	1282,03
309,53	1273,84
309,74	1361,90
309,96	1267,69
310,17	1257,45
310,39	1329,13
310,60	1224,69
310,81	1275,88
311,03	1269,74
311,24	1269,74
311,45	1292,27
311,67	1261,55
311,88	1251,31
312,09	1239,02
312,31	1322,99
312,52	1351,66
312,73	1288,17
312,95	1337,32
313,16	1273,84
313,37	1271,79
313,59	1251,31
313,80	1294,32
314,01	1255,40
314,23	1312,75
314,44	1267,69
314,65	1241,07
314,87	1249,26
315,08	1226,73
315,29	1245,16
315,51	1247,21
315,72	1325,04
315,93	1277,93
316,15	1279,98
316,36	1263,60
316,57	1294,32
316,79	1222,64
317,00	1294,32
317,21	1282,03
317,43	1290,22
317,64	1284,08
317,85	1310,70
318,07	1275,88
318,28	1284,08
318,49	1314,80
318,70	1312,75
318,92	1286,12
319,13	1243,12
319,34	1261,55
319,56	1181,68
319,77	1265,64
319,98	1267,69
320,20	1269,74
320,41	1286,12
320,62	1322,99
320,83	1210,35
321,05	1261,55
321,26	1284,08
321,47	1257,45
321,69	1312,75
321,90	1177,58
322,11	1243,12
322,32	1312,75
322,54	1255,40
322,75	1277,93
322,96	1298,41
323,18	1232,88
323,39	1200,11
323,60	1224,69
323,81	1226,73
324,03	1218,54
324,24	1224,69
324,45	1286,12
324,66	1222,64
324,88	1249,26
325,09	1314,80
325,30	1314,80
325,52	1284,08
325,73	1226,73
325,94	1302,51
326,15	1239,02
326,37	1273,84
326,58	1275,88
326,79	1249,26
327,00	1232,88
327,22	1224,69
327,43	1306,60
327,64	1275,88
327,85	1320,94
328,07	1220,59
328,28	1249,26
328,49	1247,21
328,70	1257,45
328,92	1320,94
329,13	1271,79
329,34	1271,79
329,55	1263,60
329,76	1265,64
329,98	1277,93
330,19	1269,74
330,40	1277,93
330,61	1261,55
330,83	1282,03
331,04	1236,97
331,25	1247,21
331,46	1265,64
331,68	1220,59
331,89	1216,49
332,10	1224,69
332,31	1241,07
332,52	1202,16
332,74	1277,93
332,95	1249,26
333,16	1304,56
333,37	1226,73
333,58	1265,64
333,80	1216,49
334,01	1210,35
334,22	1296,36
334,43	1300,46
334,64	1331,18
334,86	1296,36
335,07	1228,78
335,28	1290,22
335,49	1288,17
335,70	1296,36
335,92	1312,75
336,13	1277,93
336,34	1243,12
336,55	1220,59
336,76	1298,41
336,98	1234,93
337,19	1325,04
337,40	1288,17
337,61	1288,17
337,82	1269,74
338,04	1247,21
338,25	1308,65
338,46	1290,22
338,67	1282,03
338,88	1294,32
339,09	1282,03
339,31	1304,56
339,52	1282,03
339,73	1222,64
339,94	1232,88
340,15	1236,97
340,36	1259,50
340,58	1179,63
340,79	1222,64
341,00	1253,36
341,21	1239,02
341,42	1302,51
341,63	1171,44
341,85	1275,88
342,06	1314,80
342,27	1228,78
342,48	1320,94
342,69	1247,21
342,90	1214,45
343,12	1251,31
343,33	1300,46
343,54	1257,45
343,75	1224,69
343,96	1288,17
344,17	1312,75
344,38	1198,06
344,60	1288,17
344,81	1284,08
345,02	1239,02
345,23	1249,26
345,44	1236,97
345,65	1241,07
345,86	1183,73
346,07	1224,69
346,29	1378,28
346,50	1249,26
346,71	1247,21
346,92	1228,78
347,13	1279,98
347,34	1329,13
347,55	1253,36
347,76	1277,93
347,98	1284,08
348,19	1245,16
348,40	1206,25
348,61	1249,26
348,82	1259,50
349,03	1288,17
349,24	1200,11
349,45	1265,64
349,66	1294,32
349,88	1286,12
350,09	1241,07
350,30	1316,84
350,51	1282,03
350,72	1333,23
350,93	1335,28
351,14	1284,08
351,35	1353,71
351,56	1228,78
351,77	1206,25
351,99	1312,75
352,20	1353,71
352,41	1249,26
352,62	1343,47
352,83	1202,16
353,04	1271,79
353,25	1261,55
353,46	1310,70
353,67	1298,41
353,88	1288,17
354,09	1284,08
354,30	1277,93
354,52	1206,25
354,73	1322,99
354,94	1208,30
355,15	1228,78
355,36	1294,32
355,57	1314,80
355,78	1271,79
355,99	1279,98
356,20	1267,69
356,41	1282,03
356,62	1247,21
356,83	1261,55
357,04	1271,79
357,25	1271,79
357,46	1202,16
357,68	1271,79
357,89	1220,59
358,10	1249,26
358,31	1212,40
358,52	1173,49
358,73	1230,83
358,94	1302,51
359,15	1265,64
359,36	1267,69
359,57	1212,40
359,78	1288,17
359,99	1263,60
360,20	1320,94
360,41	1224,69
360,62	1239,02
360,83	1196,01
361,04	1263,60
361,25	1234,93
361,46	1310,70
361,67	1191,92
361,88	1249,26
362,09	1249,26
362,30	1339,37
362,51	1214,45
362,72	1224,69
362,93	1263,60
363,14	1282,03
363,35	1236,97
363,56	1282,03
363,78	1259,50
363,99	1277,93
364,20	1265,64
364,41	1243,12
364,62	1316,84
364,83	1245,16
365,04	1310,70
365,25	1286,12
365,46	1245,16
365,67	1230,83
365,88	1228,78
366,09	1312,75
366,30	1325,04
366,51	1304,56
366,72	1273,84
366,93	1251,31
367,14	1273,84
367,35	1370,09
367,56	1275,88
367,77	1314,80
367,98	1282,03
368,18	1279,98
368,39	1216,49
368,60	1263,60
368,81	1267,69
369,02	1263,60
369,23	1259,50
369,44	1286,12
369,65	1218,54
369,86	1288,17
370,07	1247,21
370,28	1204,21
370,49	1247,21
370,70	1269,74
370,91	1239,02
371,12	1263,60
371,33	1279,98
371,54	1263,60
371,75	1275,88
371,96	1206,25
372,17	1271,79
372,38	1288,17
372,59	1265,64
372,80	1251,31
373,01	1273,84
373,22	1288,17
373,43	1347,56
373,64	1241,07
373,85	1261,55
374,06	1288,17
374,26	1279,98
374,47	1255,40
374,68	1277,93
374,89	1290,22
375,10	1204,21
375,31	1267,69
375,52	1257,45
375,73	1279,98
375,94	1271,79
376,15	1249,26
376,36	1279,98
376,57	1263,60
376,78	1185,77
376,99	1296,36
377,20	1284,08
377,40	1232,88
377,61	1312,75
377,82	1208,30
378,03	1263,60
378,24	1267,69
378,45	1286,12
378,66	1333,23
378,87	1255,40
379,08	1273,84
379,29	1226,73
379,50	1206,25
379,71	1210,35
379,91	1263,60
380,12	1298,41
380,33	1249,26
380,54	1249,26
380,75	1279,98
380,96	1257,45
381,17	1306,60
381,38	1279,98
381,59	1247,21
381,80	1275,88
382,00	1224,69
382,21	1255,40
382,42	1255,40
382,63	1322,99
382,84	1249,26
383,05	1236,97
383,26	1222,64
383,47	1171,44
383,68	1286,12
383,88	1304,56
384,09	1273,84
384,30	1236,97
384,51	1298,41
384,72	1300,46
384,93	1249,26
385,14	1298,41
385,35	1312,75
385,55	1263,60
385,76	1230,83
385,97	1318,89
386,18	1316,84
386,39	1234,93
386,60	1218,54
386,81	1279,98
387,02	1294,32
387,22	1255,40
387,43	1282,03
387,64	1259,50
387,85	1357,80
388,06	1239,02
388,27	1349,61
388,48	1249,26
388,68	1269,74
388,89	1331,18
389,10	1200,11
389,31	1226,73
389,52	1183,73
389,73	1183,73
389,93	1239,02
390,14	1263,60
390,35	1241,07
390,56	1327,08
390,77	1247,21
390,98	1306,60
391,18	1288,17
391,39	1247,21
391,60	1253,36
391,81	1232,88
392,02	1273,84
392,23	1271,79
392,43	1282,03
392,64	1320,94
392,85	1279,98
393,06	1284,08
393,27	1216,49
393,47	1220,59
393,68	1239,02
393,89	1271,79
394,10	1249,26
394,31	1267,69
394,52	1263,60
394,72	1257,45
394,93	1253,36
395,14	1273,84
395,35	1271,79
395,56	1271,79
395,76	1232,88
395,97	1245,16
396,18	1306,60
396,39	1284,08
396,60	1245,16
396,80	1269,74
397,01	1212,40
397,22	1304,56
397,43	1277,93
397,64	1239,02
397,84	1257,45
398,05	1204,21
398,26	1247,21
398,47	1253,36
398,67	1322,99
398,88	1284,08
399,09	1314,80
399,30	1216,49
399,51	1284,08
399,71	1212,40
399,92	1300,46
400,13	1247,21
400,34	1257,45
400,54	1251,31
400,75	1241,07
400,96	1228,78
401,17	1255,40
401,37	1249,26
401,58	1251,31
401,79	1277,93
402,00	1241,07
402,21	1236,97
402,41	1206,25
402,62	1169,39
402,83	1296,36
403,04	1277,93
403,24	1210,35
403,45	1257,45
403,66	1243,12
403,87	1290,22
404,07	1296,36
404,28	1265,64
404,49	1290,22
404,70	1257,45
404,90	1327,08
405,11	1279,98
405,32	1331,18
405,52	1314,80
405,73	1267,69
405,94	1239,02
406,15	1241,07
406,35	1245,16
406,56	1306,60
406,77	1200,11
406,98	1282,03
407,18	1279,98
407,39	1241,07
407,60	1298,41
407,80	1314,80
408,01	1267,69
408,22	1269,74
408,43	1327,08
408,63	1239,02
408,84	1275,88
409,05	1245,16
409,25	1191,92
409,46	1234,93
409,67	1316,84
409,88	1257,45
410,08	1206,25
410,29	1302,51
410,50	1243,12
410,70	1257,45
410,91	1298,41
411,12	1331,18
411,32	1284,08
411,53	1325,04
411,74	1251,31
411,95	1251,31
412,15	1290,22
412,36	1267,69
412,57	1265,64
412,77	1282,03
412,98	1191,92
413,19	1247,21
413,39	1269,74
413,60	1183,73
413,81	1257,45
414,01	1255,40
414,22	1308,65
414,43	1265,64
414,63	1265,64
414,84	1230,83
415,05	1243,12
415,25	1214,45
415,46	1241,07
415,67	1247,21
415,87	1271,79
416,08	1263,60
416,29	1318,89
416,49	1249,26
416,70	1243,12
416,91	1259,50
417,11	1257,45
417,32	1275,88
417,53	1239,02
417,73	1302,51
417,94	1216,49
418,15	1282,03
418,35	1255,40
418,56	1275,88
418,77	1261,55
418,97	1265,64
419,18	1314,80
419,38	1284,08
419,59	1249,26
419,80	1308,65
420,00	1230,83
420,21	1234,93
420,42	1298,41
420,62	1261,55
420,83	1179,63
421,04	1292,27
421,24	1228,78
421,45	1245,16
421,65	1331,18
421,86	1263,60
422,07	1275,88
422,27	1255,40
422,48	1259,50
422,69	1265,64
422,89	1263,60
423,10	1302,51
423,30	1224,69
423,51	1247,21
423,72	1286,12
423,92	1277,93
424,13	1249,26
424,33	1296,36
424,54	1224,69
424,75	1288,17
424,95	1288,17
425,16	1290,22
425,36	1318,89
425,57	1290,22
425,78	1263,60
425,98	1302,51
426,19	1228,78
426,39	1267,69
426,60	1226,73
426,81	1282,03
427,01	1216,49
427,22	1298,41
427,42	1279,98
427,63	1310,70
427,83	1316,84
428,04	1282,03
428,25	1257,45
428,45	1322,99
428,66	1320,94
428,86	1304,56
429,07	1290,22
429,28	1230,83
429,48	1261,55
429,69	1263,60
429,89	1263,60
430,10	1290,22
430,30	1230,83
430,51	1290,22
430,71	1322,99
430,92	1277,93
431,13	1294,32
431,33	1212,40
431,54	1273,84
431,74	1210,35
431,95	1300,46
432,15	1302,51
432,36	1261,55
432,56	1279,98
432,77	1294,32
432,98	1327,08
433,18	1298,41
433,39	1222,64
433,59	1259,50
433,80	1304,56
434,00	1292,27
434,21	1294,32
434,41	1241,07
434,62	1265,64
434,82	1298,41
435,03	1269,74
435,23	1216,49
435,44	1288,17
435,64	1273,84
435,85	1259,50
436,06	1218,54
436,26	1288,17
436,47	1308,65
436,67	1279,98
436,88	1236,97
437,08	1339,37
437,29	1273,84
437,49	1247,21
437,70	1257,45
437,90	1218,54
438,11	1343,47
438,31	1284,08
438,52	1257,45
438,72	1243,12
438,93	1331,18
439,13	1273,84
439,34	1243,12
439,54	1322,99
439,75	1277,93
439,95	1253,36
440,16	1269,74
440,36	1269,74
440,57	1290,22
440,77	1273,84
440,98	1288,17
441,18	1277,93
441,39	1318,89
441,59	1257,45
441,80	1302,51
442,00	1259,50
442,21	1306,60
442,41	1314,80
442,62	1275,88
442,82	1271,79
443,02	1277,93
443,23	1296,36
443,43	1308,65
443,64	1302,51
443,84	1279,98
444,05	1265,64
444,25	1296,36
444,46	1275,88
444,66	1232,88
444,87	1257,45
445,07	1232,88
445,28	1183,73
445,48	1241,07
445,69	1335,28
445,89	1294,32
446,09	1261,55
446,30	1314,80
446,50	1310,70
446,71	1290,22
446,91	1292,27
447,12	1265,64
447,32	1271,79
447,53	1212,40
447,73	1286,12
447,93	1306,60
448,14	1236,97
448,34	1263,60
448,55	1294,32
448,75	1273,84
448,96	1320,94
449,16	1292,27
449,36	1257,45
449,57	1310,70
449,77	1286,12
449,98	1261,55
450,18	1249,26
450,39	1294,32
450,59	1302,51
450,79	1226,73
451,00	1257,45
451,20	1267,69
451,41	1314,80
451,61	1255,40
451,81	1302,51
452,02	1273,84
452,22	1318,89
452,43	1212,40
452,63	1247,21
452,84	1314,80
453,04	1302,51
453,24	1253,36
453,45	1267,69
453,65	1343,47
453,86	1247,21
454,06	1298,41
454,26	1292,27
454,47	1183,73
454,67	1345,52
454,87	1327,08
455,08	1351,66
455,28	1261,55
455,49	1312,75
455,69	1226,73
455,89	1228,78
456,10	1273,84
456,30	1257,45
456,51	1241,07
456,71	1273,84
456,91	1335,28
457,12	1265,64
457,32	1214,45
457,52	1261,55
457,73	1257,45
457,93	1345,52
458,14	1249,26
458,34	1337,32
458,54	1333,23
458,75	1331,18
458,95	1247,21
459,15	1273,84
459,36	1261,55
459,56	1325,04
459,76	1304,56
459,97	1253,36
460,17	1333,23
460,37	1292,27
460,58	1222,64
460,78	1222,64
460,99	1251,31
461,19	1189,87
461,39	1288,17
461,60	1306,60
461,80	1226,73
462,00	1202,16
462,21	1320,94
462,41	1302,51
462,61	1288,17
462,82	1337,32
463,02	1261,55
463,22	1271,79
463,43	1327,08
463,63	1273,84
463,83	1243,12
464,04	1273,84
464,24	1269,74
464,44	1335,28
464,64	1284,08
464,85	1308,65
465,05	1316,84
465,25	1304,56
465,46	1249,26
465,66	1249,26
465,86	1241,07
466,07	1298,41
466,27	1288,17
466,47	1288,17
466,68	1351,66
466,88	1218,54
467,08	1261,55
467,29	1265,64
467,49	1271,79
467,69	1239,02
467,89	1263,60
468,10	1275,88
468,30	1316,84
468,50	1232,88
468,71	1216,49
468,91	1234,93
469,11	1302,51
469,31	1282,03
469,52	1267,69
469,72	1284,08
469,92	1284,08
470,13	1310,70
470,33	1261,55
470,53	1273,84
470,73	1267,69
470,94	1210,35
471,14	1292,27
471,34	1292,27
471,54	1241,07
471,75	1263,60
471,95	1273,84
472,15	1261,55
472,36	1284,08
472,56	1279,98
472,76	1198,06
472,96	1288,17
473,17	1259,50
473,37	1279,98
473,57	1284,08
473,77	1261,55
473,98	1214,45
474,18	1290,22
474,38	1290,22
474,58	1245,16
474,79	1265,64
474,99	1249,26
475,19	1247,21
475,39	1286,12
475,60	1183,73
475,80	1292,27
476,00	1253,36
476,20	1284,08
476,41	1279,98
476,61	1263,60
476,81	1263,60
477,01	1327,08
477,21	1298,41
477,42	1253,36
477,62	1255,40
477,82	1249,26
478,02	1279,98
478,23	1273,84
478,43	1284,08
478,63	1355,76
478,83	1175,53
479,03	1298,41
479,24	1298,41
479,44	1251,31
479,64	1200,11
479,84	1261,55
480,04	1222,64
480,25	1325,04
480,45	1253,36
480,65	1241,07
480,85	1337,32
481,06	1277,93
481,26	1241,07
481,46	1288,17
481,66	1210,35
481,86	1325,04
482,06	1322,99
482,27	1290,22
482,47	1218,54
482,67	1218,54
482,87	1284,08
483,07	1263,60
483,28	1220,59
483,48	1243,12
483,68	1277,93
483,88	1294,32
484,08	1193,97
484,29	1363,95
484,49	1331,18
484,69	1187,82
484,89	1253,36
485,09	1312,75
485,29	1275,88
485,50	1234,93
485,70	1245,16
485,90	1288,17
486,10	1253,36
486,30	1245,16
486,50	1236,97
486,71	1331,18
486,91	1339,37
487,11	1247,21
487,31	1290,22
487,51	1216,49
487,71	1320,94
487,91	1265,64
488,12	1230,83
488,32	1253,36
488,52	1200,11
488,72	1282,03
488,92	1318,89
489,12	1306,60
489,32	1282,03
489,53	1261,55
489,73	1210,35
489,93	1312,75
490,13	1253,36
490,33	1316,84
490,53	1290,22
490,73	1218,54
490,94	1189,87
491,14	1220,59
491,34	1267,69
491,54	1230,83
491,74	1288,17
491,94	1302,51
492,14	1314,80
492,34	1239,02
492,54	1322,99
492,75	1259,50
492,95	1304,56
493,15	1273,84
493,35	1261,55
493,55	1370,09
493,75	1308,65
493,95	1259,50
494,15	1267,69
494,35	1218,54
494,56	1177,58
494,76	1247,21
494,96	1308,65
495,16	1314,80
495,36	1226,73
495,56	1261,55
495,76	1302,51
495,96	1316,84
496,16	1271,79
496,36	1308,65
496,56	1275,88
496,77	1259,50
496,97	1226,73
497,17	1329,13
497,37	1341,42
497,57	1255,40
497,77	1249,26
497,97	1263,60
498,17	1216,49
498,37	1312,75
498,57	1331,18
498,77	1318,89
498,97	1310,70
499,17	1230,83
499,38	1288,17
499,58	1304,56
499,78	1269,74
499,98	1318,89
500,18	1273,84
500,38	1314,80
500,58	1273,84
500,78	1312,75
500,98	1273,84
501,18	1296,36
501,38	1277,93
501,58	1210,35
501,78	1322,99
501,98	1220,59
502,18	1261,55
502,38	1339,37
502,58	1245,16
502,78	1314,80
502,98	1202,16
503,18	1279,98
503,38	1239,02
503,59	1296,36
503,79	1318,89
503,99	1331,18
504,19	1304,56
504,39	1347,56
504,59	1259,50
504,79	1335,28
504,99	1277,93
505,19	1282,03
505,39	1298,41
505,59	1316,84
505,79	1239,02
505,99	1298,41
506,19	1273,84
506,39	1277,93
506,59	1222,64
506,79	1282,03
506,99	1279,98
507,19	1308,65
507,39	1261,55
507,59	1294,32
507,79	1263,60
507,99	1296,36
508,19	1329,13
508,39	1275,88
508,59	1265,64
508,79	1224,69
508,99	1267,69
509,19	1232,88
509,39	1257,45
509,59	1232,88
509,79	1337,32
509,99	1275,88
510,19	1290,22
510,39	1269,74
510,59	1282,03
510,79	1349,61
510,99	1310,70
511,19	1247,21
511,39	1241,07
511,59	1290,22
511,79	1239,02
511,99	1249,26
512,19	1288,17
512,38	1296,36
512,58	1263,60
512,78	1265,64
512,98	1200,11
513,18	1331,18
513,38	1333,23
513,58	1298,41
513,78	1288,17
513,98	1378,28
514,18	1261,55
514,38	1308,65
514,58	1259,50
514,78	1351,66
514,98	1251,31
515,18	1273,84
515,38	1265,64
515,58	1300,46
515,78	1259,50
515,98	1247,21
516,18	1290,22
516,38	1273,84
516,57	1241,07
516,77	1337,32
516,97	1267,69
517,17	1236,97
517,37	1273,84
517,57	1314,80
517,77	1300,46
517,97	1253,36
518,17	1273,84
518,37	1277,93
518,57	1239,02
518,77	1236,97
518,97	1277,93
519,16	1228,78
519,36	1269,74
519,56	1273,84
519,76	1298,41
519,96	1294,32
520,16	1306,60
520,36	1187,82
520,56	1275,88
520,76	1316,84
520,96	1239,02
521,16	1226,73
521,35	1331,18
521,55	1306,60
521,75	1257,45
521,95	1290,22
522,15	1286,12
522,35	1310,70
522,55	1214,45
522,75	1284,08
522,95	1304,56
523,14	1286,12
523,34	1277,93
523,54	1204,21
523,74	1243,12
523,94	1282,03
524,14	1282,03
524,34	1298,41
524,54	1232,88
524,73	1308,65
524,93	1286,12
525,13	1277,93
525,33	1310,70
525,53	1308,65
525,73	1214,45
525,93	1273,84
526,13	1335,28
526,32	1357,80
526,52	1286,12
526,72	1220,59
526,92	1230,83
527,12	1263,60
527,32	1232,88
527,52	1302,51
527,71	1247,21
527,91	1359,85
528,11	1261,55
528,31	1273,84
528,51	1243,12
528,71	1234,93
528,90	1294,32
529,10	1255,40
529,30	1296,36
529,50	1273,84
529,70	1347,56
529,90	1239,02
530,09	1314,80
530,29	1279,98
530,49	1300,46
530,69	1312,75
530,89	1263,60
531,09	1304,56
531,28	1290,22
531,48	1259,50
531,68	1339,37
531,88	1257,45
532,08	1300,46
532,28	1249,26
532,47	1222,64
532,67	1277,93
532,87	1269,74
533,07	1316,84
533,27	1236,97
533,46	1310,70
533,66	1288,17
533,86	1255,40
534,06	1277,93
534,26	1239,02
534,45	1263,60
534,65	1273,84
534,85	1300,46
535,05	1355,76
535,25	1261,55
535,44	1249,26
535,64	1292,27
535,84	1288,17
536,04	1292,27
536,24	1298,41
536,43	1302,51
536,63	1263,60
536,83	1267,69
537,03	1226,73
537,22	1366,00
537,42	1232,88
537,62	1277,93
537,82	1337,32
538,02	1351,66
538,21	1316,84
538,41	1327,08
538,61	1292,27
538,81	1279,98
539,00	1322,99
539,20	1286,12
539,40	1327,08
539,60	1212,40
539,79	1275,88
539,99	1279,98
540,19	1269,74
540,39	1263,60
540,58	1279,98
540,78	1224,69
540,98	1265,64
541,18	1374,19
541,37	1300,46
541,57	1325,04
541,77	1282,03
541,97	1279,98
542,16	1288,17
542,36	1224,69
542,56	1302,51
542,76	1322,99
542,95	1236,97
543,15	1269,74
543,35	1337,32
543,54	1222,64
543,74	1355,76
543,94	1292,27
544,14	1255,40
544,33	1234,93
544,53	1226,73
544,73	1308,65
544,93	1347,56
545,12	1351,66
545,32	1255,40
545,52	1351,66
545,71	1282,03
545,91	1265,64
546,11	1253,36
546,30	1325,04
546,50	1255,40
546,70	1249,26
546,90	1263,60
547,09	1357,80
547,29	1339,37
547,49	1302,51
547,68	1239,02
547,88	1239,02
548,08	1259,50
548,27	1218,54
548,47	1275,88
548,67	1271,79
548,87	1247,21
549,06	1347,56
549,26	1314,80
549,46	1236,97
549,65	1253,36
549,85	1236,97
550,05	1265,64
550,24	1286,12
550,44	1269,74
550,64	1245,16
550,83	1230,83
551,03	1277,93
551,23	1284,08
551,42	1265,64
551,62	1282,03
551,82	1253,36
552,01	1296,36
552,21	1286,12
552,41	1306,60
552,60	1304,56
552,80	1216,49
553,00	1306,60
553,19	1306,60
553,39	1282,03
553,59	1329,13
553,78	1249,26
553,98	1222,64
554,17	1200,11
554,37	1312,75
554,57	1320,94
554,76	1259,50
554,96	1306,60
555,16	1316,84
555,35	1318,89
555,55	1232,88
555,75	1318,89
555,94	1294,32
556,14	1230,83
556,33	1288,17
556,53	1267,69
556,73	1271,79
556,92	1284,08
557,12	1241,07
557,32	1277,93
557,51	1277,93
557,71	1316,84
557,90	1320,94
558,10	1261,55
558,30	1193,97
558,49	1284,08
558,69	1304,56
558,88	1247,21
559,08	1257,45
559,28	1216,49
559,47	1304,56
559,67	1284,08
559,86	1339,37
560,06	1212,40
560,26	1286,12
560,45	1296,36
560,65	1267,69
560,84	1263,60
561,04	1300,46
561,24	1198,06
561,43	1282,03
561,63	1312,75
561,82	1279,98
562,02	1347,56
562,22	1294,32
562,41	1255,40
562,61	1314,80
562,80	1204,21
563,00	1327,08
563,19	1308,65
563,39	1329,13
563,59	1255,40
563,78	1300,46
563,98	1243,12
564,17	1234,93
564,37	1236,97
564,56	1314,80
564,76	1269,74
564,96	1282,03
565,15	1286,12
565,35	1331,18
565,54	1308,65
565,74	1284,08
565,93	1249,26
566,13	1298,41
566,32	1212,40
566,52	1286,12
566,71	1241,07
566,91	1185,77
567,11	1286,12
567,30	1269,74
567,50	1226,73
567,69	1200,11
567,89	1271,79
568,08	1279,98
568,28	1224,69
568,47	1243,12
568,67	1277,93
568,86	1265,64
569,06	1288,17
569,25	1265,64
569,45	1294,32
569,64	1261,55
569,84	1269,74
570,04	1325,04
570,23	1339,37
570,43	1304,56
570,62	1259,50
570,82	1255,40
571,01	1286,12
571,21	1243,12
571,40	1255,40
571,60	1355,76
571,79	1277,93
571,99	1320,94
572,18	1341,42
572,38	1267,69
572,57	1267,69
572,77	1296,36
572,96	1292,27
573,16	1327,08
573,35	1236,97
573,55	1310,70
573,74	1322,99
573,94	1271,79
574,13	1265,64
574,33	1284,08
574,52	1316,84
574,71	1261,55
574,91	1275,88
575,10	1181,68
575,30	1286,12
575,49	1322,99
575,69	1286,12
575,88	1224,69
576,08	1259,50
576,27	1273,84
576,47	1245,16
576,66	1347,56
576,86	1243,12
577,05	1249,26
577,25	1214,45
577,44	1259,50
577,64	1279,98
577,83	1312,75
578,02	1191,92
578,22	1308,65
578,41	1247,21
578,61	1279,98
578,80	1296,36
579,00	1271,79
579,19	1302,51
579,39	1206,25
579,58	1279,98
579,77	1251,31
579,97	1259,50
580,16	1290,22
580,36	1290,22
580,55	1265,64
580,75	1325,04
580,94	1282,03
581,13	1273,84
581,33	1263,60
581,52	1245,16
581,72	1245,16
581,91	1331,18
582,11	1320,94
582,30	1300,46
582,49	1259,50
582,69	1325,04
582,88	1187,82
583,08	1261,55
583,27	1372,14
583,47	1409,00
583,66	1320,94
583,85	1343,47
584,05	1308,65
584,24	1261,55
584,44	1310,70
584,63	1269,74
584,82	1247,21
585,02	1226,73
585,21	1263,60
585,41	1359,85
585,60	1220,59
585,79	1284,08
585,99	1284,08
586,18	1357,80
586,37	1296,36
586,57	1318,89
586,76	1347,56
586,96	1304,56
587,15	1249,26
587,34	1255,40
587,54	1282,03
587,73	1290,22
587,93	1306,60
588,12	1265,64
588,31	1279,98
588,51	1300,46
588,70	1298,41
588,89	1255,40
589,09	1208,30
589,28	1255,40
589,47	1306,60
589,67	1269,74
589,86	1306,60
590,06	1253,36
590,25	1306,60
590,44	1277,93
590,64	1263,60
590,83	1269,74
591,02	1273,84
591,22	1286,12
591,41	1318,89
591,60	1304,56
591,80	1331,18
591,99	1257,45
592,18	1267,69
592,38	1325,04
592,57	1351,66
592,76	1347,56
592,96	1325,04
593,15	1310,70
593,34	1345,52
593,54	1267,69
593,73	1300,46
593,92	1318,89
594,12	1279,98
594,31	1224,69
594,50	1327,08
594,70	1255,40
594,89	1308,65
595,08	1296,36
595,28	1253,36
595,47	1167,34
595,66	1298,41
595,86	1288,17
596,05	1329,13
596,24	1265,64
596,43	1284,08
596,63	1284,08
596,82	1265,64
597,01	1335,28
597,21	1273,84
597,40	1277,93
597,59	1247,21
597,79	1245,16
597,98	1243,12
598,17	1273,84
598,36	1310,70
598,56	1220,59
598,75	1275,88
598,94	1294,32
599,14	1374,19
599,33	1275,88
599,52	1361,90
599,71	1241,07
599,91	1243,12
600,10	1292,27
600,29	1241,07
600,48	1277,93
600,68	1269,74
600,87	1273,84
601,06	1312,75
601,26	1341,42
601,45	1320,94
601,64	1265,64
601,83	1335,28
602,03	1263,60
602,22	1230,83
602,41	1275,88
602,60	1273,84
602,80	1308,65
602,99	1284,08
603,18	1224,69
603,37	1290,22
603,57	1308,65
603,76	1302,51
603,95	1345,52
604,14	1263,60
604,34	1255,40
604,53	1290,22
604,72	1234,93
604,91	1310,70
605,10	1267,69
605,30	1253,36
605,49	1269,74
605,68	1245,16
605,87	1337,32
606,07	1284,08
606,26	1290,22
606,45	1241,07
606,64	1318,89
606,84	1292,27
607,03	1310,70
607,22	1271,79
607,41	1271,79
607,60	1290,22
607,80	1269,74
607,99	1329,13
608,18	1282,03
608,37	1269,74
608,56	1265,64
608,76	1306,60
608,95	1314,80
609,14	1351,66
609,33	1282,03
609,52	1316,84
609,72	1310,70
609,91	1269,74
610,10	1312,75
610,29	1226,73
610,48	1298,41
610,68	1249,26
610,87	1228,78
611,06	1290,22
611,25	1239,02
611,44	1261,55
611,63	1257,45
611,83	1329,13
612,02	1251,31
612,21	1257,45
612,40	1320,94
612,59	1251,31
612,79	1249,26
612,98	1300,46
613,17	1214,45
613,36	1339,37
613,55	1351,66
613,74	1288,17
613,93	1216,49
614,13	1255,40
614,32	1298,41
614,51	1253,36
614,70	1279,98
614,89	1314,80
615,08	1329,13
615,28	1331,18
615,47	1290,22
615,66	1337,32
615,85	1200,11
616,04	1249,26
616,23	1214,45
616,42	1243,12
616,62	1200,11
616,81	1302,51
617,00	1212,40
617,19	1234,93
617,38	1247,21
617,57	1249,26
617,76	1191,92
617,95	1239,02
618,15	1269,74
618,34	1341,42
618,53	1265,64
618,72	1275,88
618,91	1214,45
619,10	1304,56
619,29	1271,79
619,48	1216,49
619,68	1218,54
619,87	1372,14
620,06	1239,02
620,25	1288,17
620,44	1302,51
620,63	1325,04
620,82	1320,94
621,01	1224,69
621,20	1208,30
621,39	1282,03
621,59	1290,22
621,78	1277,93
621,97	1355,76
622,16	1302,51
622,35	1355,76
622,54	1269,74
622,73	1294,32
622,92	1263,60
623,11	1263,60
623,30	1380,33
623,49	1296,36
623,68	1236,97
623,88	1292,27
624,07	1259,50
624,26	1224,69
624,45	1302,51
624,64	1284,08
624,83	1279,98
625,02	1224,69
625,21	1322,99
625,40	1232,88
625,59	1304,56
625,78	1300,46
625,97	1251,31
626,16	1296,36
626,35	1327,08
626,54	1308,65
626,74	1288,17
626,93	1275,88
627,12	1247,21
627,31	1234,93
627,50	1331,18
627,69	1286,12
627,88	1294,32
628,07	1312,75
628,26	1208,30
628,45	1322,99
628,64	1337,32
628,83	1290,22
629,02	1241,07
629,21	1339,37
629,40	1290,22
629,59	1341,42
629,78	1355,76
629,97	1306,60
630,16	1267,69
630,35	1290,22
630,54	1265,64
630,73	1306,60
630,92	1329,13
631,11	1318,89
631,30	1226,73
631,49	1353,71
631,68	1460,20
631,87	4972,47
632,06	18212,59
632,25	34582,00
632,44	45602,12
632,63	57758,86
632,82	40996,24
633,01	13676,34
633,20	5672,87
633,39	5121,97
633,58	4057,03
633,77	2828,24
633,96	2258,91
634,15	2258,91
634,34	2140,13
634,53	1830,88
634,72	1806,31
634,91	1834,98
635,10	1740,77
635,29	1650,66
635,48	1662,95
635,67	1630,18
635,86	1517,54
636,05	1576,94
636,24	1415,15
636,43	1316,84
636,62	1392,62
636,81	1308,65
637,00	1386,47
637,19	1318,89
637,38	1337,32
637,57	1247,21
637,76	1361,90
637,95	1357,80
638,14	1251,31
638,33	1329,13
638,52	1290,22
638,71	1306,60
638,89	1396,71
639,08	1322,99
639,27	1331,18
639,46	1363,95
639,65	1304,56
639,84	1310,70
640,03	1378,28
640,22	1306,60
640,41	1247,21
640,60	1290,22
640,79	1206,25
640,98	1241,07
641,17	1226,73
641,36	1279,98
641,55	1312,75
641,74	1247,21
641,92	1331,18
642,11	1279,98
642,30	1329,13
642,49	1343,47
642,68	1269,74
642,87	1292,27
643,06	1273,84
643,25	1302,51
643,44	1310,70
643,63	1318,89
643,82	1257,45
644,00	1288,17
644,19	1314,80
644,38	1292,27
644,57	1333,23
644,76	1304,56
644,95	1279,98
645,14	1294,32
645,33	1312,75
645,52	1269,74
645,71	1331,18
645,89	1339,37
646,08	1325,04
646,27	1306,60
646,46	1337,32
646,65	1253,36
646,84	1275,88
647,03	1273,84
647,22	1284,08
647,40	1253,36
647,59	1204,21
647,78	1300,46
647,97	1329,13
648,16	1253,36
648,35	1265,64
648,54	1292,27
648,73	1353,71
648,91	1333,23
649,10	1316,84
649,29	1298,41
649,48	1294,32
649,67	1261,55
649,86	1247,21
650,05	1282,03
650,23	1245,16
650,42	1218,54
650,61	1306,60
650,80	1286,12
650,99	1320,94
651,18	1257,45
651,36	1298,41
651,55	1333,23
651,74	1263,60
651,93	1265,64
652,12	1298,41
652,31	1282,03
652,49	1269,74
652,68	1294,32
652,87	1296,36
653,06	1279,98
653,25	1265,64
653,44	1255,40
653,62	1277,93
653,81	1263,60
654,00	1363,95
654,19	1320,94
654,38	1279,98
654,56	1271,79
654,75	1277,93
654,94	1279,98
655,13	1232,88
655,32	1273,84
655,51	1284,08
655,69	1263,60
655,88	1263,60
656,07	1245,16
656,26	1300,46
656,45	1230,83
656,63	1302,51
656,82	1261,55
657,01	1247,21
657,20	1228,78
657,38	1228,78
657,57	1243,12
657,76	1269,74
657,95	1253,36
658,14	1230,83
658,32	1224,69
658,51	1312,75
658,70	1290,22
658,89	1296,36
659,08	1230,83
659,26	1234,93
659,45	1314,80
659,64	1343,47
659,83	1257,45
660,01	1204,21
660,20	1251,31
660,39	1284,08
660,58	1279,98
660,76	1325,04
660,95	1275,88
661,14	1298,41
661,33	1259,50
661,51	1232,88
661,70	1212,40
661,89	1253,36
662,08	1253,36
662,26	1327,08
662,45	1236,97
662,64	1282,03
662,83	1234,93
663,01	1271,79
663,20	1277,93
663,39	1265,64
663,58	1232,88
663,76	1251,31
663,95	1220,59
664,14	1210,35
664,32	1337,32
664,51	1296,36
664,70	1245,16
664,89	1236,97
665,07	1263,60
665,26	1224,69
665,45	1277,93
665,64	1298,41
665,82	1279,98
666,01	1269,74
666,20	1345,52
666,38	1279,98
666,57	1302,51
666,76	1249,26
666,95	1212,40
667,13	1273,84
667,32	1296,36
667,51	1288,17
667,69	1249,26
667,88	1255,40
668,07	1263,60
668,25	1304,56
668,44	1302,51
668,63	1232,88
668,81	1224,69
669,00	1239,02
669,19	1269,74
669,38	1265,64
669,56	1243,12
669,75	1279,98
669,94	1265,64
670,12	1279,98
670,31	1296,36
670,50	1277,93
670,68	1273,84
670,87	1183,73
671,06	1241,07
671,24	1316,84
671,43	1265,64
671,62	1259,50
671,80	1218,54
671,99	1292,27
672,18	1202,16
672,36	1294,32
672,55	1236,97
672,74	1265,64
672,92	1228,78
673,11	1245,16
673,29	1290,22
673,48	1261,55
673,67	1220,59
673,85	1243,12
674,04	1224,69
674,23	1269,74
674,41	1263,60
674,60	1279,98
674,79	1212,40
674,97	1265,64
675,16	1273,84
675,34	1275,88
675,53	1269,74
675,72	1284,08
675,90	1286,12
676,09	1261,55
676,28	1239,02
676,46	1318,89
676,65	1273,84
676,83	1290,22
677,02	1284,08
677,21	1290,22
677,39	1298,41
677,58	1222,64
677,77	1271,79
677,95	1288,17
678,14	1255,40
678,32	1298,41
678,51	1249,26
678,70	1290,22
678,88	1267,69
679,07	1196,01
679,25	1275,88
679,44	1282,03
679,63	1255,40
679,81	1298,41
680,00	1277,93
680,18	1263,60
680,37	1228,78
680,55	1241,07
680,74	1304,56
680,93	1273,84
681,11	1296,36
681,30	1265,64
681,48	1265,64
681,67	1257,45
681,85	1214,45
682,04	1304,56
682,23	1241,07
682,41	1298,41
682,60	1331,18
682,78	1271,79
682,97	1249,26
683,15	1247,21
683,34	1286,12
683,53	1243,12
683,71	1245,16
683,90	1267,69
684,08	1253,36
684,27	1206,25
684,45	1261,55
684,64	1277,93
684,82	1366,00
685,01	1257,45
685,19	1269,74
685,38	1337,32
685,57	1216,49
685,75	1312,75
685,94	1290,22
686,12	1267,69
686,31	1251,31
686,49	1255,40
686,68	1282,03
686,86	1245,16
687,05	1239,02
687,23	1245,16
687,42	1241,07
687,60	1241,07
687,79	1253,36
687,97	1269,74
688,16	1298,41
688,34	1306,60
688,53	1247,21
688,71	1279,98
688,90	1241,07
689,08	1267,69
689,27	1325,04
689,45	1306,60
689,64	1300,46
689,82	1353,71
690,01	1265,64
690,19	1249,26
690,38	1228,78
690,56	1265,64
690,75	1245,16
690,93	1284,08
691,12	1239,02
691,30	1302,51
691,49	1302,51
691,67	1257,45
691,86	1284,08
692,04	1322,99
692,23	1222,64
692,41	1245,16
692,60	1257,45
692,78	1279,98
692,97	1275,88
693,15	1216,49
693,34	1189,87
693,52	1261,55
693,71	1253,36
693,89	1241,07
694,08	1232,88
694,26	1232,88
694,44	1230,83
694,63	1267,69
694,81	1220,59
695,00	1298,41
695,18	1325,04
695,37	1308,65
695,55	1282,03
695,74	1304,56
695,92	1257,45
696,10	1325,04
696,29	1265,64
696,47	1284,08
696,66	1300,46
696,84	1259,50
697,03	1310,70
697,21	1296,36
697,40	1331,18
697,58	1294,32
697,76	1267,69
697,95	1263,60
698,13	1236,97
698,32	1253,36
698,50	1255,40
698,68	1241,07
698,87	1267,69
699,05	1265,64
699,24	1247,21
699,42	1265,64
699,61	1267,69
699,79	1239,02
699,97	1232,88
700,16	1271,79
700,34	1263,60
700,53	1230,83
700,71	1337,32
700,89	1316,84
701,08	1304,56
701,26	1282,03
701,45	1243,12
701,63	1275,88
701,81	1251,31
702,00	1249,26
702,18	1277,93
702,37	1265,64
702,55	1261,55
702,73	1296,36
702,92	1247,21
703,10	1277,93
703,28	1318,89
703,47	1329,13
703,65	1236,97
703,84	1288,17
704,02	1187,82
704,20	1294,32
704,39	1292,27
704,57	1243,12
704,75	1183,73
704,94	1259,50
705,12	1306,60
705,30	1216,49
705,49	1261,55
705,67	1236,97
705,86	1249,26
706,04	1349,61
706,22	1318,89
706,41	1304,56
706,59	1212,40
706,77	1224,69
706,96	1269,74
707,14	1296,36
707,32	1286,12
707,51	1306,60
707,69	1216,49
707,87	1331,18
708,06	1298,41
708,24	1267,69
708,42	1273,84
708,61	1251,31
708,79	1232,88
708,97	1282,03
709,16	1267,69
709,34	1259,50
709,52	1253,36
709,71	1341,42
709,89	1300,46
710,07	1257,45
710,26	1259,50
710,44	1243,12
710,62	1232,88
710,80	1296,36
710,99	1216,49
711,17	1218,54
711,35	1175,53
711,54	1234,93
711,72	1198,06
711,90	1275,88
712,09	1196,01
712,27	1312,75
712,45	1282,03
712,63	1273,84
712,82	1257,45
713,00	1241,07
713,18	1212,40
713,37	1236,97
713,55	1267,69
713,73	1306,60
713,91	1314,80
714,10	1243,12
714,28	1210,35
714,46	1212,40
714,65	1279,98
714,83	1177,58
715,01	1243,12
715,19	1277,93
715,38	1220,59
715,56	1306,60
715,74	1249,26
715,92	1271,79
716,11	1292,27
716,29	1296,36
716,47	1253,36
716,65	1267,69
716,84	1263,60
717,02	1290,22
717,20	1228,78
717,38	1279,98
717,57	1243,12
717,75	1249,26
717,93	1271,79
718,11	1239,02
718,30	1257,45
718,48	1251,31
718,66	1228,78
718,84	1314,80
719,03	1236,97
719,21	1243,12
719,39	1306,60
719,57	1329,13
719,75	1226,73
719,94	1245,16
720,12	1247,21
720,30	1292,27
720,48	1308,65
720,67	1282,03
720,85	1310,70
721,03	1273,84
721,21	1253,36
721,39	1302,51
721,58	1234,93
721,76	1288,17
721,94	1232,88
722,12	1316,84
722,30	1243,12
722,49	1302,51
722,67	1327,08
722,85	1271,79
723,03	1253,36
723,21	1306,60
723,40	1245,16
723,58	1282,03
723,76	1224,69
723,94	1249,26
724,12	1253,36
724,30	1306,60
724,49	1236,97
724,67	1294,32
724,85	1214,45
725,03	1304,56
725,21	1275,88
725,40	1314,80
725,58	1200,11
725,76	1241,07
725,94	1251,31
726,12	1304,56
726,30	1259,50
726,49	1327,08
726,67	1306,60
726,85	1318,89
727,03	1265,64
727,21	1265,64
727,39	1282,03
727,57	1204,21
727,76	1279,98
727,94	1271,79
728,12	1275,88
728,30	1239,02
728,48	1222,64
728,66	1265,64
728,84	1243,12
729,03	1316,84
729,21	1277,93
729,39	1253,36
729,57	1226,73
729,75	1345,52
729,93	1224,69
730,11	1306,60
730,30	1275,88
730,48	1247,21
730,66	1218,54
730,84	1224,69
731,02	1294,32
731,20	1255,40
731,38	1253,36
731,56	1284,08
731,74	1290,22
731,93	1228,78
732,11	1290,22
732,29	1261,55
732,47	1322,99
732,65	1337,32
732,83	1288,17
733,01	1273,84
733,19	1239,02
733,37	1282,03
733,56	1265,64
733,74	1329,13
733,92	1271,79
734,10	1208,30
734,28	1300,46
734,46	1243,12
734,64	1273,84
734,82	1296,36
735,00	1255,40
735,18	1275,88
735,36	1355,76
735,54	1261,55
735,73	1216,49
735,91	1247,21
736,09	1384,43
736,27	1185,77
736,45	1173,49
736,63	1294,32
736,81	1267,69
736,99	1322,99
737,17	1228,78
737,35	1241,07
737,53	1220,59
737,71	1296,36
737,89	1275,88
738,07	1257,45
738,25	1277,93
738,43	1271,79
738,61	1198,06
738,80	1208,30
738,98	1284,08
739,16	1271,79
739,34	1335,28
739,52	1343,47
739,70	1347,56
739,88	1212,40
740,06	1300,46
740,24	1290,22
740,42	1265,64
740,60	1290,22
740,78	1253,36
740,96	1282,03
741,14	1363,95
741,32	1392,62
741,50	1181,68
741,68	1241,07
741,86	1255,40
742,04	1271,79
742,22	1230,83
742,40	1208,30
742,58	1316,84
742,76	1230,83
742,94	1294,32
743,12	1290,22
743,30	1355,76
743,48	1282,03
743,66	1267,69
743,84	1349,61
744,02	1318,89
744,20	1243,12
744,38	1261,55
744,56	1187,82
744,74	1245,16
744,92	1359,85
745,10	1277,93
745,28	1279,98
745,46	1208,30
745,64	1292,27
745,82	1261,55
746,00	1279,98
746,18	1236,97
746,36	1273,84
746,54	1279,98
746,72	1255,40
746,90	1298,41
747,08	1183,73
747,26	1204,21
747,44	1325,04
747,62	1294,32
747,80	1255,40
747,98	1298,41
748,15	1304,56
748,33	1282,03
748,51	1232,88
748,69	1253,36
748,87	1253,36
749,05	1351,66
749,23	1222,64
749,41	1310,70
749,59	1298,41
749,77	1249,26
749,95	1320,94
750,13	1304,56
750,31	1284,08
750,49	1228,78
750,67	1277,93
750,85	1308,65
751,03	1296,36
751,20	1232,88
751,38	1273,84
751,56	1222,64
751,74	1302,51
751,92	1267,69
752,10	1271,79
752,28	1253,36
752,46	1279,98
752,64	1269,74
752,82	1282,03
753,00	1320,94
753,18	1204,21
753,35	1265,64
753,53	1245,16
753,71	1200,11
753,89	1249,26
754,07	1222,64
754,25	1273,84
754,43	1241,07
754,61	1294,32
754,79	1310,70
754,97	1257,45
755,14	1214,45
755,32	1208,30
755,50	1275,88
755,68	1208,30
755,86	1337,32
756,04	1230,83
756,22	1259,50
756,40	1232,88
756,57	1298,41
756,75	1185,77
756,93	1341,42
757,11	1282,03
757,29	1232,88
757,47	1261,55
757,65	1308,65
757,82	1245,16
758,00	1279,98
758,18	1298,41
758,36	1234,93
758,54	1265,64
758,72	1269,74
758,90	1232,88
759,07	1271,79
759,25	1245,16
759,43	1243,12
759,61	1351,66
759,79	1273,84
759,97	1249,26
760,15	1267,69
760,32	1273,84
760,50	1234,93
760,68	1216,49
760,86	1214,45
761,04	1269,74
761,22	1226,73
761,39	1212,40
761,57	1193,97
761,75	1234,93
761,93	1275,88
762,11	1277,93
762,28	1290,22
762,46	1239,02
762,64	1286,12
762,82	1208,30
763,00	1214,45
763,18	1228,78
763,35	1185,77
763,53	1261,55
763,71	1241,07
763,89	1310,70
764,07	1232,88
764,24	1269,74
764,42	1247,21
764,60	1290,22
764,78	1296,36
764,96	1234,93
765,13	1249,26
765,31	1343,47
765,49	1228,78
765,67	1298,41
765,84	1282,03
766,02	1255,40
766,20	1284,08
766,38	1263,60
766,56	1236,97
766,73	1222,64
766,91	1288,17
767,09	1284,08
767,27	1271,79
767,44	1271,79
767,62	1218,54
767,80	1282,03
767,98	1257,45
768,15	1333,23
768,33	1263,60
768,51	1345,52
768,69	1308,65
768,87	1277,93
769,04	1271,79
769,22	1294,32
769,40	1349,61
769,58	1308,65
769,75	1322,99
769,93	1277,93
770,11	1277,93
770,28	1290,22
770,46	1222,64
770,64	1216,49
770,82	1294,32
770,99	1150,96
771,17	1286,12
771,35	1232,88
771,53	1236,97
771,70	1255,40
771,88	1236,97
772,06	1279,98
772,23	1267,69
772,41	1359,85
772,59	1249,26
772,77	1245,16
772,94	1196,01
773,12	1249,26
773,30	1243,12
773,47	1257,45
773,65	1310,70
773,83	1206,25
774,01	1273,84
774,18	1247,21
774,36	1286,12
774,54	1236,97
774,71	1255,40
774,89	1304,56
775,07	1255,40
775,24	1212,40
775,42	1314,80
775,60	1236,97
775,78	1179,63
775,95	1216,49
776,13	1282,03
776,31	1372,14
776,48	1259,50
776,66	1288,17
776,84	1279,98
777,01	1286,12
777,19	1183,73
777,37	1220,59
777,54	1318,89
777,72	1249,26
777,90	1298,41
778,07	1216,49
778,25	1259,50
778,43	1271,79
778,60	1288,17
778,78	1277,93
778,96	1236,97
779,13	1306,60
779,31	1327,08
779,49	1261,55
779,66	1230,83
779,84	1273,84
780,01	1241,07
780,19	1306,60
780,37	1273,84
780,54	1325,04
780,72	1292,27
780,90	1292,27
781,07	1316,84
781,25	1267,69
781,43	1300,46
781,60	1279,98
781,78	1331,18
781,95	1273,84
782,13	1263,60
782,31	1259,50
782,48	1325,04
782,66	1286,12
782,83	1222,64
783,01	1339,37
783,19	1306,60
783,36	1329,13
783,54	1296,36
783,72	1335,28
783,89	1329,13
784,07	1263,60
784,24	1306,60
784,42	1284,08
784,60	1249,26
784,77	1304,56
784,95	1214,45
785,12	1206,25
785,30	1300,46
785,47	1232,88
785,65	1269,74
785,83	1318,89
786,00	1232,88
786,18	1306,60
786,35	1202,16
786,53	1259,50
786,71	1234,93
786,88	1269,74
787,06	1257,45
787,23	1232,88
787,41	1200,11
787,58	1222,64
787,76	1265,64
787,94	1214,45
788,11	1257,45
788,29	1239,02
788,46	1282,03
788,64	1263,60
788,81	1263,60
788,99	1261,55
789,16	1316,84
789,34	1288,17
789,52	1218,54
789,69	1255,40
789,87	1306,60
790,04	1243,12
790,22	1245,16
790,39	1284,08
790,57	1253,36
790,74	1230,83
790,92	1208,30
791,09	1298,41
791,27	1257,45
791,44	1331,18
791,62	1298,41
791,79	1294,32
791,97	1206,25
792,15	1345,52
792,32	1198,06
792,50	1228,78
792,67	1316,84
792,85	1296,36
793,02	1208,30
793,20	1282,03
793,37	1253,36
793,55	1282,03
793,72	1308,65
793,90	1267,69
794,07	1277,93
794,25	1247,21
794,42	1232,88
794,60	1212,40
794,77	1241,07
794,95	1243,12
795,12	1212,40
795,30	1312,75
795,47	1325,04
795,65	1277,93
795,82	1267,69
796,00	1318,89
796,17	1265,64
796,34	1282,03
796,52	1345,52
796,69	1251,31
796,87	1257,45
797,04	1263,60
797,22	1284,08
797,39	1318,89
797,57	1208,30
797,74	1320,94
797,92	1224,69
798,09	1228,78
798,27	1277,93
798,44	1327,08
798,62	1300,46
798,79	1288,17
798,96	1271,79
799,14	1224,69
799,31	1267,69
799,49	1300,46
799,66	1200,11
799,84	1259,50
800,01	1275,88
800,19	1320,94
800,36	1271,79
800,53	1337,32
800,71	1308,65
800,88	1312,75
801,06	1163,25
801,23	1255,40
801,41	1314,80
801,58	1316,84
801,75	1298,41
801,93	1292,27
802,10	1308,65
802,28	1286,12
802,45	1263,60
802,63	1347,56
802,80	1245,16
802,97	1249,26
803,15	1263,60
803,32	1251,31
803,50	1214,45
803,67	1241,07
803,84	1279,98
804,02	1279,98
804,19	1294,32
804,37	1273,84
804,54	1333,23
804,71	1312,75
804,89	1294,32
805,06	1216,49
805,24	1294,32
805,41	1255,40
805,58	1245,16
805,76	1286,12
805,93	1298,41
806,10	1286,12
806,28	1253,36
806,45	1196,01
806,63	1269,74
806,80	1191,92
806,97	1282,03
807,15	1259,50
807,32	1247,21
807,49	1277,93
807,67	1359,85
807,84	1347,56
808,01	1208,30
808,19	1290,22
808,36	1277,93
808,54	1236,97
808,71	1212,40
808,88	1339,37
809,06	1261,55
809,23	1302,51
809,40	1275,88
809,58	1275,88
809,75	1271,79
809,92	1245,16
810,10	1243,12
810,27	1216,49
810,44	1277,93
810,62	1275,88
810,79	1228,78
810,96	1310,70
811,14	1214,45
811,31	1271,79
811,48	1284,08
811,66	1294,32
811,83	1296,36
812,00	1306,60
812,18	1327,08
812,35	1294,32
812,52	1255,40
812,69	1288,17
812,87	1263,60
813,04	1241,07
813,21	1220,59
813,39	1191,92
813,56	1210,35
813,73	1269,74
813,91	1271,79
814,08	1271,79
814,25	1241,07
814,42	1296,36
814,60	1271,79
814,77	1234,93
814,94	1335,28
815,12	1216,49
815,29	1355,76
815,46	1345,52
815,63	1302,51
815,81	1230,83
815,98	1318,89
816,15	1245,16
816,33	1189,87
816,50	1247,21
816,67	1292,27
816,84	1239,02
817,02	1286,12
817,19	1286,12
817,36	1251,31
817,53	1335,28
817,71	1259,50
817,88	1263,60
818,05	1257,45
818,22	1290,22
818,40	1228,78
818,57	1247,21
818,74	1261,55
818,91	1200,11
819,09	1259,50
819,26	1277,93
819,43	1277,93
819,60	1267,69
819,78	1269,74
819,95	1312,75
820,12	1251,31
820,29	1239,02
820,47	1247,21
820,64	1234,93
820,81	1232,88
820,98	1298,41
821,15	1290,22
821,33	1339,37
821,50	1282,03
821,67	1284,08
821,84	1253,36
822,02	1277,93
822,19	1200,11
822,36	1273,84
822,53	1247,21
822,70	1314,80
822,88	1216,49
823,05	1298,41
823,22	1261,55
823,39	1306,60
823,56	1210,35
823,74	1259,50
823,91	1290,22
824,08	1265,64
824,25	1259,50
824,42	1298,41
824,60	1247,21
824,77	1247,21
824,94	1253,36
825,11	1294,32
825,28	1337,32
825,45	1294,32
825,63	1257,45
825,80	1212,40
825,97	1302,51
826,14	1220,59
826,31	1241,07
826,48	1298,41
826,66	1191,92
826,83	1230,83
827,00	1271,79
827,17	1257,45
827,34	1279,98
827,51	1273,84
827,69	1245,16
827,86	1372,14
828,03	1269,74
828,20	1255,40
828,37	1308,65
828,54	1282,03
828,71	1247,21
828,89	1232,88
829,06	1273,84
829,23	1269,74
829,40	1316,84
829,57	1271,79
829,74	1282,03
829,91	1271,79
830,09	1300,46
830,26	1179,63
830,43	1279,98
830,60	1232,88
830,77	1253,36
830,94	1306,60
831,11	1325,04
831,28	1247,21
831,46	1257,45
831,63	1267,69
831,80	1255,40
831,97	1210,35
832,14	1234,93
832,31	1245,16
832,48	1306,60
832,65	1279,98
832,82	1282,03
832,99	1273,84
833,17	1239,02
833,34	1357,80
833,51	1306,60
833,68	1304,56
833,85	1294,32
834,02	1279,98
834,19	1306,60
834,36	1245,16
834,53	1271,79
834,70	1298,41
834,87	1179,63
835,04	1196,01
835,22	1251,31
835,39	1306,60
835,56	1210,35
835,73	1232,88
835,90	1290,22
836,07	1226,73
836,24	1327,08
836,41	1181,68
836,58	1277,93
836,75	1318,89
836,92	1208,30
837,09	1257,45
837,26	1234,93
837,43	1302,51
837,60	1247,21
837,77	1228,78
837,94	1224,69
838,12	1239,02
838,29	1251,31
838,46	1234,93
838,63	1259,50
838,80	1263,60
838,97	1273,84
839,14	1259,50
839,31	1267,69
839,48	1314,80
839,65	1269,74
839,82	1306,60
839,99	1302,51
840,16	1286,12
840,33	1228,78
840,50	1224,69
840,67	1333,23
840,84	1257,45
841,01	1329,13
841,18	1236,97
841,35	1234,93
841,52	1226,73
841,69	1269,74
841,86	1232,88
842,03	1257,45
842,20	1290,22
842,37	1304,56
842,54	1331,18
842,71	1322,99
842,88	1239,02
843,05	1189,87
843,22	1198,06
843,39	1230,83
843,56	1183,73
843,73	1220,59
843,90	1314,80
844,07	1263,60
844,24	1265,64
844,41	1259,50
844,58	1243,12
844,75	1284,08
844,92	1230,83
845,09	1251,31
845,26	1269,74
845,43	1331,18
845,60	1300,46
845,77	1263,60
845,94	1255,40
846,10	1245,16
846,27	1202,16
846,44	1331,18
846,61	1253,36
846,78	1236,97
846,95	1259,50
847,12	1312,75
847,29	1253,36
847,46	1263,60
847,63	1298,41
847,80	1183,73
847,97	1306,60
848,14	1277,93
848,31	1314,80
848,48	1296,36
848,65	1310,70
848,82	1329,13
848,98	1282,03
849,15	1232,88
849,32	1273,84
849,49	1216,49
849,66	1282,03
849,83	1261,55
850,00	1249,26
850,17	1185,77
850,34	1191,92
850,51	1224,69
850,68	1251,31
850,85	1284,08
851,01	1318,89
851,18	1279,98
851,35	1228,78
851,52	1351,66
851,69	1306,60
851,86	1282,03
852,03	1273,84
852,20	1312,75
852,37	1257,45
852,53	1234,93
852,70	1322,99
852,87	1259,50
853,04	1316,84
853,21	1245,16
853,38	1282,03
853,55	1243,12
853,72	1222,64
853,89	1206,25
854,05	1198,06
854,22	1239,02
854,39	1282,03
854,56	1288,17
854,73	1353,71
854,90	1316,84
855,07	1249,26
855,23	1314,80
855,40	1239,02
855,57	1232,88
855,74	1228,78
855,91	1288,17
856,08	1239,02
856,25	1247,21
856,41	1282,03
856,58	1320,94
856,75	1304,56
856,92	1304,56
857,09	1249,26
857,26	1247,21
857,42	1290,22
857,59	1208,30
857,76	1249,26
857,93	1271,79
858,10	1267,69
858,27	1222,64
858,43	1310,70
858,60	1247,21
858,77	1300,46
858,94	1320,94
859,11	1329,13
859,27	1232,88
859,44	1239,02
859,61	1257,45
859,78	1292,27
859,95	1251,31
860,12	1282,03
860,28	1282,03
860,45	1337,32
860,62	1165,29
860,79	1243,12
860,95	1296,36
861,12	1204,21
861,29	1257,45
861,46	1220,59
861,63	1251,31
861,79	1236,97
861,96	1249,26
862,13	1228,78
862,30	1296,36
862,47	1333,23
862,63	1226,73
862,80	1253,36
862,97	1263,60
863,14	1263,60
863,30	1290,22
863,47	1253,36
863,64	1259,50
863,81	1265,64
863,97	1212,40
864,14	1306,60
864,31	1318,89
864,48	1273,84
864,65	1304,56
864,81	1300,46
864,98	1245,16
865,15	1329,13
865,32	1290,22
865,48	1279,98
865,65	1212,40
865,82	1271,79
865,98	1236,97
866,15	1273,84
866,32	1255,40
866,49	1241,07
866,65	1243,12
866,82	1292,27
866,99	1282,03
867,16	1257,45
867,32	1290,22
867,49	1267,69
867,66	1214,45
867,83	1269,74
867,99	1271,79
868,16	1247,21
868,33	1302,51
868,49	1247,21
868,66	1277,93
868,83	1271,79
868,99	1257,45
869,16	1251,31
869,33	1314,80
869,50	1226,73
869,66	1277,93
869,83	1247,21
870,00	1261,55
870,16	1239,02
870,33	1298,41
870,50	1302,51
870,66	1251,31
870,83	1222,64
871,00	1292,27
871,17	1290,22
871,33	1212,40
871,50	1271,79
871,67	1325,04
871,83	1261,55
872,00	1370,09
872,17	1294,32
872,33	1257,45
872,50	1314,80
872,67	1279,98
872,83	1296,36
873,00	1249,26
873,17	1296,36
873,33	1273,84
873,50	1228,78
873,67	1296,36
873,83	1245,16
874,00	1230,83
874,16	1290,22
874,33	1196,01
874,50	1265,64
874,66	1400,81
874,83	1241,07
875,00	1273,84
875,16	1263,60
875,33	1322,99
875,50	1228,78
875,66	1257,45
875,83	1216,49
875,99	1257,45
876,16	1212,40
876,33	1275,88
876,49	1263,60
876,66	1271,79
876,83	1314,80
876,99	1269,74
877,16	1322,99
877,32	1214,45
877,49	1253,36
877,66	1294,32
877,82	1304,56
877,99	1255,40
878,15	1288,17
878,32	1245,16
878,49	1236,97
878,65	1243,12
878,82	1253,36
878,98	1273,84
879,15	1236,97
879,32	1306,60
879,48	1253,36
879,65	1196,01
879,81	1210,35
879,98	1267,69
880,15	1196,01
880,31	1253,36
880,48	1290,22
880,64	1200,11
880,81	1214,45
880,97	1263,60
881,14	1290,22
881,31	1279,98
881,47	1202,16
881,64	1318,89
881,80	1345,52
881,97	1230,83
882,13	1255,40
882,30	1296,36
882,47	1329,13
882,63	1128,43
882,80	1282,03
882,96	1241,07
883,13	1343,47
883,29	1226,73
883,46	1294,32
883,62	1277,93
883,79	1247,21
883,95	1234,93
884,12	1318,89
884,29	1288,17
884,45	1316,84
884,62	1232,88
884,78	1245,16
884,95	1290,22
885,11	1198,06
885,28	1277,93
885,44	1239,02
885,61	1279,98
885,77	1273,84
885,94	1320,94
886,10	1304,56
886,27	1273,84
886,43	1259,50
886,60	1304,56
886,76	1259,50
886,93	1279,98
887,09	1218,54
887,26	1232,88
887,42	1253,36
887,59	1286,12
887,75	1232,88
887,92	1226,73
888,08	1329,13
888,25	1296,36
888,41	1249,26
888,58	1290,22
888,74	1247,21
888,91	1298,41
>>>>>End Processed Spectral Data<<<<<
