SpectraSuite Data File
++++++++++++++++++++++++++++++++++++
Date: Sun Apr 03 19:55:13 CEST 2016
User: root
Dark Spectrum Present: No
Reference Spectrum Present: No
Number of Sampled Component Spectra: 1
Spectrometers: USB4C02835
Integration Time (usec): 10000 (USB4C02835)
Spectra Averaged: 1 (USB4C02835)
Boxcar Smoothing: 0 (USB4C02835)
Correct for Electrical Dark: No (USB4C02835)
Strobe/Lamp Enabled: No (USB4C02835)
Correct for Detector Non-linearity: No (USB4C02835)
Correct for Stray Light: No (USB4C02835)
Number of Pixels in Processed Spectrum: 3648
>>>>>Begin Processed Spectral Data<<<<<
177,47	1275,88
177,69	1275,88
177,91	1275,88
178,13	1249,26
178,36	1267,69
178,58	1314,80
178,80	1208,30
179,02	1253,36
179,24	1282,03
179,46	1257,45
179,68	1239,02
179,90	1245,16
180,13	1282,03
180,35	1236,97
180,57	1271,79
180,79	1259,50
181,01	1308,65
181,23	1277,93
181,45	1212,40
181,67	1277,93
181,90	1183,73
182,12	1284,08
182,34	1241,07
182,56	1239,02
182,78	1251,31
183,00	1259,50
183,22	1304,56
183,44	1300,46
183,66	1269,74
183,89	1341,42
184,11	1241,07
184,33	1316,84
184,55	1236,97
184,77	1269,74
184,99	1292,27
185,21	1306,60
185,43	1279,98
185,65	1341,42
185,87	1300,46
186,10	1239,02
186,32	1333,23
186,54	1247,21
186,76	1294,32
186,98	1214,45
187,20	1232,88
187,42	1279,98
187,64	1322,99
187,86	1304,56
188,08	1341,42
188,30	1273,84
188,52	1298,41
188,75	1288,17
188,97	1216,49
189,19	1251,31
189,41	1214,45
189,63	1357,80
189,85	1277,93
190,07	1181,68
190,29	1232,88
190,51	1290,22
190,73	1255,40
190,95	1320,94
191,17	1312,75
191,39	1224,69
191,61	1263,60
191,84	1322,99
192,06	1294,32
192,28	1212,40
192,50	1257,45
192,72	1286,12
192,94	1218,54
193,16	1208,30
193,38	1273,84
193,60	1286,12
193,82	1329,13
194,04	1271,79
194,26	1300,46
194,48	1277,93
194,70	1191,92
194,92	1247,21
195,14	1306,60
195,36	1255,40
195,58	1255,40
195,80	1224,69
196,02	1298,41
196,24	1220,59
196,46	1296,36
196,69	1304,56
196,91	1302,51
197,13	1282,03
197,35	1261,55
197,57	1253,36
197,79	1300,46
198,01	1257,45
198,23	1347,56
198,45	1232,88
198,67	1337,32
198,89	1335,28
199,11	1306,60
199,33	1310,70
199,55	1261,55
199,77	1300,46
199,99	1247,21
200,21	1253,36
200,43	1255,40
200,65	1261,55
200,87	1234,93
201,09	1253,36
201,31	1292,27
201,53	1255,40
201,75	1308,65
201,97	1288,17
202,19	1302,51
202,41	1279,98
202,63	1273,84
202,85	1226,73
203,07	1234,93
203,29	1202,16
203,51	1263,60
203,73	1259,50
203,95	1257,45
204,17	1374,19
204,39	1210,35
204,61	1232,88
204,83	1232,88
205,05	1271,79
205,27	1282,03
205,49	1331,18
205,71	1263,60
205,93	1241,07
206,15	1257,45
206,37	1224,69
206,59	1294,32
206,81	1265,64
207,03	1216,49
207,25	1247,21
207,47	1230,83
207,69	1249,26
207,91	1245,16
208,13	1255,40
208,34	1247,21
208,56	1275,88
208,78	1327,08
209,00	1208,30
209,22	1191,92
209,44	1251,31
209,66	1232,88
209,88	1282,03
210,10	1245,16
210,32	1288,17
210,54	1275,88
210,76	1218,54
210,98	1271,79
211,20	1239,02
211,42	1253,36
211,64	1212,40
211,86	1275,88
212,08	1255,40
212,30	1212,40
212,52	1239,02
212,74	1222,64
212,96	1302,51
213,17	1245,16
213,39	1263,60
213,61	1314,80
213,83	1224,69
214,05	1273,84
214,27	1267,69
214,49	1294,32
214,71	1310,70
214,93	1322,99
215,15	1331,18
215,37	1271,79
215,59	1300,46
215,81	1325,04
216,03	1232,88
216,24	1296,36
216,46	1288,17
216,68	1277,93
216,90	1232,88
217,12	1306,60
217,34	1347,56
217,56	1279,98
217,78	1296,36
218,00	1341,42
218,22	1339,37
218,44	1286,12
218,66	1255,40
218,87	1382,38
219,09	1206,25
219,31	1232,88
219,53	1320,94
219,75	1282,03
219,97	1263,60
220,19	1251,31
220,41	1271,79
220,63	1339,37
220,85	1236,97
221,06	1296,36
221,28	1300,46
221,50	1300,46
221,72	1273,84
221,94	1286,12
222,16	1357,80
222,38	1253,36
222,60	1265,64
222,82	1355,76
223,03	1253,36
223,25	1320,94
223,47	1312,75
223,69	1292,27
223,91	1216,49
224,13	1249,26
224,35	1282,03
224,57	1224,69
224,78	1322,99
225,00	1275,88
225,22	1306,60
225,44	1228,78
225,66	1288,17
225,88	1241,07
226,10	1296,36
226,32	1271,79
226,53	1296,36
226,75	1286,12
226,97	1257,45
227,19	1259,50
227,41	1284,08
227,63	1249,26
227,85	1251,31
228,06	1271,79
228,28	1206,25
228,50	1267,69
228,72	1269,74
228,94	1214,45
229,16	1255,40
229,37	1259,50
229,59	1286,12
229,81	1249,26
230,03	1245,16
230,25	1271,79
230,47	1173,49
230,69	1206,25
230,90	1226,73
231,12	1251,31
231,34	1265,64
231,56	1247,21
231,78	1204,21
232,00	1247,21
232,21	1247,21
232,43	1277,93
232,65	1312,75
232,87	1234,93
233,09	1269,74
233,30	1263,60
233,52	1359,85
233,74	1378,28
233,96	1275,88
234,18	1292,27
234,40	1216,49
234,61	1320,94
234,83	1249,26
235,05	1277,93
235,27	1329,13
235,49	1253,36
235,70	1314,80
235,92	1241,07
236,14	1286,12
236,36	1312,75
236,58	1261,55
236,79	1255,40
237,01	1284,08
237,23	1294,32
237,45	1212,40
237,67	1234,93
237,88	1292,27
238,10	1243,12
238,32	1247,21
238,54	1210,35
238,76	1208,30
238,97	1208,30
239,19	1228,78
239,41	1261,55
239,63	1222,64
239,85	1200,11
240,06	1241,07
240,28	1265,64
240,50	1261,55
240,72	1273,84
240,93	1222,64
241,15	1236,97
241,37	1298,41
241,59	1292,27
241,81	1210,35
242,02	1290,22
242,24	1292,27
242,46	1273,84
242,68	1271,79
242,89	1322,99
243,11	1284,08
243,33	1314,80
243,55	1228,78
243,76	1288,17
243,98	1253,36
244,20	1239,02
244,42	1261,55
244,64	1241,07
244,85	1245,16
245,07	1263,60
245,29	1245,16
245,51	1275,88
245,72	1314,80
245,94	1314,80
246,16	1243,12
246,38	1282,03
246,59	1198,06
246,81	1312,75
247,03	1234,93
247,24	1284,08
247,46	1331,18
247,68	1310,70
247,90	1261,55
248,11	1224,69
248,33	1257,45
248,55	1273,84
248,77	1243,12
248,98	1253,36
249,20	1218,54
249,42	1234,93
249,64	1286,12
249,85	1277,93
250,07	1222,64
250,29	1247,21
250,50	1257,45
250,72	1265,64
250,94	1322,99
251,16	1282,03
251,37	1179,63
251,59	1419,24
251,81	1290,22
252,02	1241,07
252,24	1253,36
252,46	1279,98
252,68	1308,65
252,89	1279,98
253,11	1241,07
253,33	1320,94
253,54	1284,08
253,76	1255,40
253,98	1259,50
254,20	1224,69
254,41	1253,36
254,63	1255,40
254,85	1191,92
255,06	1198,06
255,28	1263,60
255,50	1224,69
255,71	1204,21
255,93	1255,40
256,15	1230,83
256,36	1304,56
256,58	1220,59
256,80	1322,99
257,02	1286,12
257,23	1288,17
257,45	1265,64
257,67	1249,26
257,88	1271,79
258,10	1310,70
258,32	1257,45
258,53	1296,36
258,75	1183,73
258,97	1288,17
259,18	1228,78
259,40	1277,93
259,62	1282,03
259,83	1263,60
260,05	1277,93
260,27	1296,36
260,48	1294,32
260,70	1247,21
260,92	1304,56
261,13	1234,93
261,35	1239,02
261,57	1210,35
261,78	1277,93
262,00	1222,64
262,22	1222,64
262,43	1263,60
262,65	1331,18
262,86	1222,64
263,08	1222,64
263,30	1163,25
263,51	1249,26
263,73	1310,70
263,95	1251,31
264,16	1349,61
264,38	1204,21
264,60	1253,36
264,81	1269,74
265,03	1206,25
265,25	1222,64
265,46	1259,50
265,68	1261,55
265,89	1292,27
266,11	1253,36
266,33	1249,26
266,54	1222,64
266,76	1267,69
266,98	1298,41
267,19	1312,75
267,41	1368,04
267,62	1400,81
267,84	1308,65
268,06	1279,98
268,27	1300,46
268,49	1263,60
268,70	1228,78
268,92	1279,98
269,14	1269,74
269,35	1255,40
269,57	1265,64
269,79	1335,28
270,00	1224,69
270,22	1329,13
270,43	1290,22
270,65	1292,27
270,87	1224,69
271,08	1193,97
271,30	1253,36
271,51	1271,79
271,73	1279,98
271,95	1263,60
272,16	1255,40
272,38	1298,41
272,59	1249,26
272,81	1341,42
273,02	1265,64
273,24	1214,45
273,46	1263,60
273,67	1279,98
273,89	1277,93
274,10	1271,79
274,32	1286,12
274,54	1316,84
274,75	1298,41
274,97	1288,17
275,18	1251,31
275,40	1322,99
275,61	1290,22
275,83	1302,51
276,05	1245,16
276,26	1298,41
276,48	1257,45
276,69	1259,50
276,91	1148,91
277,12	1267,69
277,34	1282,03
277,55	1370,09
277,77	1290,22
277,99	1273,84
278,20	1296,36
278,42	1304,56
278,63	1216,49
278,85	1304,56
279,06	1345,52
279,28	1275,88
279,49	1181,68
279,71	1265,64
279,93	1277,93
280,14	1322,99
280,36	1269,74
280,57	1249,26
280,79	1271,79
281,00	1288,17
281,22	1210,35
281,43	1294,32
281,65	1265,64
281,86	1300,46
282,08	1279,98
282,29	1251,31
282,51	1236,97
282,73	1288,17
282,94	1239,02
283,16	1259,50
283,37	1257,45
283,59	1216,49
283,80	1288,17
284,02	1298,41
284,23	1251,31
284,45	1236,97
284,66	1228,78
284,88	1263,60
285,09	1290,22
285,31	1204,21
285,52	1183,73
285,74	1236,97
285,95	1224,69
286,17	1265,64
286,38	1347,56
286,60	1198,06
286,81	1271,79
287,03	1275,88
287,24	1265,64
287,46	1312,75
287,67	1286,12
287,89	1284,08
288,10	1255,40
288,32	1241,07
288,53	1300,46
288,75	1267,69
288,96	1247,21
289,18	1261,55
289,39	1230,83
289,61	1241,07
289,82	1310,70
290,04	1277,93
290,25	1273,84
290,47	1245,16
290,68	1191,92
290,90	1302,51
291,11	1294,32
291,33	1312,75
291,54	1232,88
291,76	1271,79
291,97	1267,69
292,18	1294,32
292,40	1265,64
292,61	1236,97
292,83	1294,32
293,04	1290,22
293,26	1263,60
293,47	1243,12
293,69	1200,11
293,90	1269,74
294,12	1255,40
294,33	1241,07
294,55	1265,64
294,76	1277,93
294,97	1220,59
295,19	1320,94
295,40	1239,02
295,62	1288,17
295,83	1253,36
296,05	1286,12
296,26	1228,78
296,48	1337,32
296,69	1232,88
296,90	1259,50
297,12	1193,97
297,33	1288,17
297,55	1234,93
297,76	1314,80
297,98	1288,17
298,19	1214,45
298,41	1267,69
298,62	1290,22
298,83	1296,36
299,05	1273,84
299,26	1243,12
299,48	1251,31
299,69	1189,87
299,90	1304,56
300,12	1243,12
300,33	1187,82
300,55	1267,69
300,76	1277,93
300,98	1345,52
301,19	1247,21
301,40	1239,02
301,62	1275,88
301,83	1228,78
302,05	1349,61
302,26	1228,78
302,47	1296,36
302,69	1228,78
302,90	1265,64
303,12	1247,21
303,33	1257,45
303,54	1294,32
303,76	1363,95
303,97	1236,97
304,19	1331,18
304,40	1298,41
304,61	1318,89
304,83	1273,84
305,04	1247,21
305,26	1216,49
305,47	1245,16
305,68	1257,45
305,90	1310,70
306,11	1226,73
306,33	1308,65
306,54	1245,16
306,75	1210,35
306,97	1204,21
307,18	1294,32
307,39	1263,60
307,61	1263,60
307,82	1279,98
308,04	1286,12
308,25	1265,64
308,46	1249,26
308,68	1249,26
308,89	1310,70
309,10	1230,83
309,32	1318,89
309,53	1214,45
309,74	1208,30
309,96	1322,99
310,17	1286,12
310,39	1253,36
310,60	1230,83
310,81	1249,26
311,03	1208,30
311,24	1304,56
311,45	1224,69
311,67	1322,99
311,88	1353,71
312,09	1302,51
312,31	1333,23
312,52	1284,08
312,73	1226,73
312,95	1232,88
313,16	1273,84
313,37	1247,21
313,59	1308,65
313,80	1273,84
314,01	1318,89
314,23	1282,03
314,44	1230,83
314,65	1325,04
314,87	1206,25
315,08	1255,40
315,29	1282,03
315,51	1282,03
315,72	1251,31
315,93	1275,88
316,15	1189,87
316,36	1271,79
316,57	1245,16
316,79	1255,40
317,00	1327,08
317,21	1271,79
317,43	1257,45
317,64	1277,93
317,85	1218,54
318,07	1232,88
318,28	1312,75
318,49	1269,74
318,70	1267,69
318,92	1230,83
319,13	1169,39
319,34	1239,02
319,56	1185,77
319,77	1259,50
319,98	1255,40
320,20	1253,36
320,41	1230,83
320,62	1193,97
320,83	1198,06
321,05	1267,69
321,26	1239,02
321,47	1216,49
321,69	1284,08
321,90	1220,59
322,11	1214,45
322,32	1226,73
322,54	1214,45
322,75	1251,31
322,96	1306,60
323,18	1226,73
323,39	1183,73
323,60	1306,60
323,81	1271,79
324,03	1222,64
324,24	1255,40
324,45	1265,64
324,66	1380,33
324,88	1230,83
325,09	1286,12
325,30	1286,12
325,52	1302,51
325,73	1316,84
325,94	1290,22
326,15	1249,26
326,37	1265,64
326,58	1249,26
326,79	1249,26
327,00	1259,50
327,22	1255,40
327,43	1236,97
327,64	1269,74
327,85	1310,70
328,07	1275,88
328,28	1226,73
328,49	1267,69
328,70	1204,21
328,92	1312,75
329,13	1271,79
329,34	1241,07
329,55	1236,97
329,76	1277,93
329,98	1288,17
330,19	1312,75
330,40	1298,41
330,61	1320,94
330,83	1265,64
331,04	1275,88
331,25	1208,30
331,46	1224,69
331,68	1236,97
331,89	1271,79
332,10	1277,93
332,31	1261,55
332,52	1243,12
332,74	1263,60
332,95	1304,56
333,16	1339,37
333,37	1269,74
333,58	1306,60
333,80	1282,03
334,01	1320,94
334,22	1226,73
334,43	1255,40
334,64	1247,21
334,86	1232,88
335,07	1216,49
335,28	1234,93
335,49	1189,87
335,70	1322,99
335,92	1193,97
336,13	1282,03
336,34	1243,12
336,55	1267,69
336,76	1288,17
336,98	1310,70
337,19	1226,73
337,40	1222,64
337,61	1282,03
337,82	1257,45
338,04	1196,01
338,25	1249,26
338,46	1261,55
338,67	1243,12
338,88	1226,73
339,09	1175,53
339,31	1275,88
339,52	1290,22
339,73	1331,18
339,94	1318,89
340,15	1322,99
340,36	1271,79
340,58	1269,74
340,79	1206,25
341,00	1273,84
341,21	1245,16
341,42	1232,88
341,63	1300,46
341,85	1314,80
342,06	1249,26
342,27	1257,45
342,48	1261,55
342,69	1263,60
342,90	1218,54
343,12	1279,98
343,33	1236,97
343,54	1282,03
343,75	1249,26
343,96	1284,08
344,17	1257,45
344,38	1347,56
344,60	1241,07
344,81	1288,17
345,02	1255,40
345,23	1236,97
345,44	1349,61
345,65	1261,55
345,86	1298,41
346,07	1261,55
346,29	1271,79
346,50	1247,21
346,71	1267,69
346,92	1286,12
347,13	1349,61
347,34	1279,98
347,55	1196,01
347,76	1286,12
347,98	1249,26
348,19	1239,02
348,40	1277,93
348,61	1210,35
348,82	1204,21
349,03	1282,03
349,24	1292,27
349,45	1245,16
349,66	1257,45
349,88	1251,31
350,09	1288,17
350,30	1304,56
350,51	1253,36
350,72	1224,69
350,93	1339,37
351,14	1298,41
351,35	1222,64
351,56	1329,13
351,77	1255,40
351,99	1327,08
352,20	1218,54
352,41	1284,08
352,62	1314,80
352,83	1236,97
353,04	1239,02
353,25	1259,50
353,46	1306,60
353,67	1273,84
353,88	1247,21
354,09	1279,98
354,30	1247,21
354,52	1224,69
354,73	1296,36
354,94	1275,88
355,15	1304,56
355,36	1308,65
355,57	1306,60
355,78	1279,98
355,99	1232,88
356,20	1312,75
356,41	1249,26
356,62	1279,98
356,83	1189,87
357,04	1269,74
357,25	1273,84
357,46	1253,36
357,68	1286,12
357,89	1206,25
358,10	1249,26
358,31	1357,80
358,52	1224,69
358,73	1265,64
358,94	1261,55
359,15	1220,59
359,36	1232,88
359,57	1263,60
359,78	1288,17
359,99	1282,03
360,20	1243,12
360,41	1341,42
360,62	1310,70
360,83	1263,60
361,04	1249,26
361,25	1222,64
361,46	1226,73
361,67	1185,77
361,88	1296,36
362,09	1226,73
362,30	1286,12
362,51	1255,40
362,72	1230,83
362,93	1290,22
363,14	1304,56
363,35	1279,98
363,56	1239,02
363,78	1304,56
363,99	1286,12
364,20	1230,83
364,41	1249,26
364,62	1265,64
364,83	1212,40
365,04	1245,16
365,25	1222,64
365,46	1269,74
365,67	1296,36
365,88	1239,02
366,09	1269,74
366,30	1320,94
366,51	1249,26
366,72	1331,18
366,93	1263,60
367,14	1253,36
367,35	1243,12
367,56	1222,64
367,77	1300,46
367,98	1277,93
368,18	1234,93
368,39	1247,21
368,60	1224,69
368,81	1224,69
369,02	1265,64
369,23	1292,27
369,44	1255,40
369,65	1236,97
369,86	1271,79
370,07	1269,74
370,28	1304,56
370,49	1224,69
370,70	1234,93
370,91	1243,12
371,12	1290,22
371,33	1300,46
371,54	1232,88
371,75	1228,78
371,96	1251,31
372,17	1288,17
372,38	1316,84
372,59	1282,03
372,80	1271,79
373,01	1236,97
373,22	1198,06
373,43	1267,69
373,64	1282,03
373,85	1300,46
374,06	1282,03
374,26	1302,51
374,47	1308,65
374,68	1279,98
374,89	1310,70
375,10	1224,69
375,31	1300,46
375,52	1284,08
375,73	1302,51
375,94	1257,45
376,15	1247,21
376,36	1265,64
376,57	1288,17
376,78	1261,55
376,99	1282,03
377,20	1230,83
377,40	1269,74
377,61	1257,45
377,82	1279,98
378,03	1308,65
378,24	1232,88
378,45	1165,29
378,66	1279,98
378,87	1261,55
379,08	1265,64
379,29	1316,84
379,50	1243,12
379,71	1294,32
379,91	1271,79
380,12	1318,89
380,33	1294,32
380,54	1282,03
380,75	1247,21
380,96	1314,80
381,17	1236,97
381,38	1273,84
381,59	1288,17
381,80	1282,03
382,00	1232,88
382,21	1284,08
382,42	1273,84
382,63	1265,64
382,84	1253,36
383,05	1292,27
383,26	1253,36
383,47	1320,94
383,68	1269,74
383,88	1312,75
384,09	1290,22
384,30	1294,32
384,51	1261,55
384,72	1277,93
384,93	1243,12
385,14	1198,06
385,35	1181,68
385,55	1259,50
385,76	1251,31
385,97	1275,88
386,18	1271,79
386,39	1232,88
386,60	1230,83
386,81	1265,64
387,02	1232,88
387,22	1241,07
387,43	1314,80
387,64	1320,94
387,85	1261,55
388,06	1279,98
388,27	1265,64
388,48	1247,21
388,68	1257,45
388,89	1241,07
389,10	1261,55
389,31	1304,56
389,52	1306,60
389,73	1271,79
389,93	1241,07
390,14	1224,69
390,35	1282,03
390,56	1251,31
390,77	1216,49
390,98	1224,69
391,18	1312,75
391,39	1277,93
391,60	1333,23
391,81	1265,64
392,02	1236,97
392,23	1298,41
392,43	1335,28
392,64	1296,36
392,85	1249,26
393,06	1275,88
393,27	1298,41
393,47	1265,64
393,68	1271,79
393,89	1277,93
394,10	1327,08
394,31	1310,70
394,52	1265,64
394,72	1265,64
394,93	1243,12
395,14	1259,50
395,35	1263,60
395,56	1216,49
395,76	1312,75
395,97	1322,99
396,18	1249,26
396,39	1241,07
396,60	1269,74
396,80	1220,59
397,01	1271,79
397,22	1212,40
397,43	1247,21
397,64	1257,45
397,84	1298,41
398,05	1290,22
398,26	1286,12
398,47	1204,21
398,67	1282,03
398,88	1234,93
399,09	1331,18
399,30	1282,03
399,51	1282,03
399,71	1234,93
399,92	1224,69
400,13	1331,18
400,34	1230,83
400,54	1275,88
400,75	1298,41
400,96	1290,22
401,17	1232,88
401,37	1294,32
401,58	1241,07
401,79	1230,83
402,00	1239,02
402,21	1212,40
402,41	1271,79
402,62	1269,74
402,83	1249,26
403,04	1288,17
403,24	1279,98
403,45	1286,12
403,66	1275,88
403,87	1353,71
404,07	1343,47
404,28	1359,85
404,49	1273,84
404,70	1279,98
404,90	1224,69
405,11	1232,88
405,32	1296,36
405,52	1267,69
405,73	1310,70
405,94	1251,31
406,15	1312,75
406,35	1302,51
406,56	1345,52
406,77	1288,17
406,98	1298,41
407,18	1269,74
407,39	1179,63
407,60	1327,08
407,80	1271,79
408,01	1232,88
408,22	1298,41
408,43	1275,88
408,63	1343,47
408,84	1351,66
409,05	1273,84
409,25	1302,51
409,46	1200,11
409,67	1208,30
409,88	1298,41
410,08	1257,45
410,29	1239,02
410,50	1282,03
410,70	1310,70
410,91	1247,21
411,12	1339,37
411,32	1302,51
411,53	1232,88
411,74	1277,93
411,95	1261,55
412,15	1214,45
412,36	1265,64
412,57	1267,69
412,77	1261,55
412,98	1243,12
413,19	1193,97
413,39	1288,17
413,60	1269,74
413,81	1222,64
414,01	1345,52
414,22	1288,17
414,43	1277,93
414,63	1255,40
414,84	1318,89
415,05	1239,02
415,25	1306,60
415,46	1259,50
415,67	1265,64
415,87	1251,31
416,08	1282,03
416,29	1265,64
416,49	1269,74
416,70	1296,36
416,91	1222,64
417,11	1302,51
417,32	1286,12
417,53	1251,31
417,73	1320,94
417,94	1273,84
418,15	1337,32
418,35	1288,17
418,56	1284,08
418,77	1279,98
418,97	1245,16
419,18	1177,58
419,38	1277,93
419,59	1251,31
419,80	1232,88
420,00	1273,84
420,21	1292,27
420,42	1275,88
420,62	1290,22
420,83	1243,12
421,04	1259,50
421,24	1236,97
421,45	1269,74
421,65	1167,34
421,86	1312,75
422,07	1224,69
422,27	1249,26
422,48	1359,85
422,69	1263,60
422,89	1286,12
423,10	1247,21
423,30	1257,45
423,51	1247,21
423,72	1376,24
423,92	1245,16
424,13	1257,45
424,33	1273,84
424,54	1222,64
424,75	1232,88
424,95	1355,76
425,16	1314,80
425,36	1247,21
425,57	1318,89
425,78	1275,88
425,98	1255,40
426,19	1306,60
426,39	1257,45
426,60	1214,45
426,81	1277,93
427,01	1277,93
427,22	1300,46
427,42	1228,78
427,63	1253,36
427,83	1294,32
428,04	1294,32
428,25	1286,12
428,45	1267,69
428,66	1275,88
428,86	1247,21
429,07	1286,12
429,28	1271,79
429,48	1236,97
429,69	1257,45
429,89	1204,21
430,10	1286,12
430,30	1300,46
430,51	1286,12
430,71	1275,88
430,92	1236,97
431,13	1249,26
431,33	1304,56
431,54	1265,64
431,74	1259,50
431,95	1245,16
432,15	1294,32
432,36	1214,45
432,56	1279,98
432,77	1347,56
432,98	1298,41
433,18	1228,78
433,39	1271,79
433,59	1290,22
433,80	1226,73
434,00	1302,51
434,21	1288,17
434,41	1302,51
434,62	1279,98
434,82	1290,22
435,03	1259,50
435,23	1232,88
435,44	1265,64
435,64	1267,69
435,85	1296,36
436,06	1273,84
436,26	1302,51
436,47	1259,50
436,67	1329,13
436,88	1284,08
437,08	1322,99
437,29	1306,60
437,49	1245,16
437,70	1284,08
437,90	1273,84
438,11	1204,21
438,31	1277,93
438,52	1216,49
438,72	1312,75
438,93	1265,64
439,13	1290,22
439,34	1245,16
439,54	1267,69
439,75	1265,64
439,95	1329,13
440,16	1261,55
440,36	1228,78
440,57	1187,82
440,77	1251,31
440,98	1310,70
441,18	1279,98
441,39	1325,04
441,59	1245,16
441,80	1255,40
442,00	1286,12
442,21	1263,60
442,41	1226,73
442,62	1302,51
442,82	1257,45
443,02	1275,88
443,23	1282,03
443,43	1327,08
443,64	1243,12
443,84	1177,58
444,05	1290,22
444,25	1288,17
444,46	1288,17
444,66	1208,30
444,87	1275,88
445,07	1271,79
445,28	1261,55
445,48	1333,23
445,69	1314,80
445,89	1257,45
446,09	1284,08
446,30	1298,41
446,50	1191,92
446,71	1255,40
446,91	1265,64
447,12	1314,80
447,32	1351,66
447,53	1284,08
447,73	1212,40
447,93	1255,40
448,14	1302,51
448,34	1347,56
448,55	1282,03
448,75	1359,85
448,96	1302,51
449,16	1322,99
449,36	1327,08
449,57	1335,28
449,77	1306,60
449,98	1212,40
450,18	1286,12
450,39	1288,17
450,59	1370,09
450,79	1277,93
451,00	1298,41
451,20	1273,84
451,41	1318,89
451,61	1298,41
451,81	1243,12
452,02	1273,84
452,22	1314,80
452,43	1220,59
452,63	1269,74
452,84	1191,92
453,04	1275,88
453,24	1314,80
453,45	1363,95
453,65	1312,75
453,86	1300,46
454,06	1259,50
454,26	1259,50
454,47	1341,42
454,67	1239,02
454,87	1249,26
455,08	1343,47
455,28	1318,89
455,49	1292,27
455,69	1206,25
455,89	1288,17
456,10	1261,55
456,30	1306,60
456,51	1347,56
456,71	1312,75
456,91	1251,31
457,12	1214,45
457,32	1232,88
457,52	1247,21
457,73	1286,12
457,93	1251,31
458,14	1267,69
458,34	1347,56
458,54	1222,64
458,75	1347,56
458,95	1277,93
459,15	1351,66
459,36	1302,51
459,56	1314,80
459,76	1320,94
459,97	1249,26
460,17	1320,94
460,37	1286,12
460,58	1292,27
460,78	1249,26
460,99	1261,55
461,19	1325,04
461,39	1282,03
461,60	1337,32
461,80	1247,21
462,00	1269,74
462,21	1300,46
462,41	1230,83
462,61	1259,50
462,82	1314,80
463,02	1308,65
463,22	1275,88
463,43	1282,03
463,63	1224,69
463,83	1312,75
464,04	1296,36
464,24	1310,70
464,44	1241,07
464,64	1318,89
464,85	1298,41
465,05	1185,77
465,25	1300,46
465,46	1372,14
465,66	1304,56
465,86	1193,97
466,07	1413,10
466,27	1251,31
466,47	1224,69
466,68	1208,30
466,88	1265,64
467,08	1288,17
467,29	1302,51
467,49	1300,46
467,69	1232,88
467,89	1214,45
468,10	1247,21
468,30	1300,46
468,50	1271,79
468,71	1226,73
468,91	1243,12
469,11	1300,46
469,31	1271,79
469,52	1253,36
469,72	1265,64
469,92	1314,80
470,13	1247,21
470,33	1318,89
470,53	1353,71
470,73	1306,60
470,94	1218,54
471,14	1267,69
471,34	1259,50
471,54	1257,45
471,75	1325,04
471,95	1290,22
472,15	1226,73
472,36	1247,21
472,56	1243,12
472,76	1290,22
472,96	1265,64
473,17	1298,41
473,37	1241,07
473,57	1251,31
473,77	1257,45
473,98	1249,26
474,18	1241,07
474,38	1300,46
474,58	1288,17
474,79	1310,70
474,99	1376,24
475,19	1294,32
475,39	1279,98
475,60	1353,71
475,80	1306,60
476,00	1236,97
476,20	1255,40
476,41	1257,45
476,61	1361,90
476,81	1239,02
477,01	1247,21
477,21	1292,27
477,42	1290,22
477,62	1255,40
477,82	1282,03
478,02	1349,61
478,23	1253,36
478,43	1251,31
478,63	1247,21
478,83	1282,03
479,03	1277,93
479,24	1234,93
479,44	1296,36
479,64	1216,49
479,84	1224,69
480,04	1320,94
480,25	1286,12
480,45	1282,03
480,65	1288,17
480,85	1322,99
481,06	1318,89
481,26	1273,84
481,46	1226,73
481,66	1241,07
481,86	1273,84
482,06	1261,55
482,27	1259,50
482,47	1239,02
482,67	1314,80
482,87	1220,59
483,07	1191,92
483,28	1212,40
483,48	1277,93
483,68	1339,37
483,88	1249,26
484,08	1224,69
484,29	1296,36
484,49	1253,36
484,69	1218,54
484,89	1249,26
485,09	1294,32
485,29	1288,17
485,50	1325,04
485,70	1288,17
485,90	1345,52
486,10	1298,41
486,30	1329,13
486,50	1361,90
486,71	1271,79
486,91	1183,73
487,11	1286,12
487,31	1259,50
487,51	1292,27
487,71	1234,93
487,91	1298,41
488,12	1255,40
488,32	1331,18
488,52	1292,27
488,72	1316,84
488,92	1306,60
489,12	1255,40
489,32	1351,66
489,53	1275,88
489,73	1198,06
489,93	1251,31
490,13	1236,97
490,33	1294,32
490,53	1298,41
490,73	1269,74
490,94	1243,12
491,14	1216,49
491,34	1245,16
491,54	1351,66
491,74	1284,08
491,94	1259,50
492,14	1263,60
492,34	1212,40
492,54	1290,22
492,75	1290,22
492,95	1357,80
493,15	1204,21
493,35	1353,71
493,55	1296,36
493,75	1257,45
493,95	1187,82
494,15	1259,50
494,35	1265,64
494,56	1216,49
494,76	1312,75
494,96	1193,97
495,16	1314,80
495,36	1273,84
495,56	1261,55
495,76	1271,79
495,96	1275,88
496,16	1288,17
496,36	1220,59
496,56	1306,60
496,77	1298,41
496,97	1265,64
497,17	1290,22
497,37	1318,89
497,57	1292,27
497,77	1265,64
497,97	1239,02
498,17	1296,36
498,37	1212,40
498,57	1232,88
498,77	1284,08
498,97	1267,69
499,17	1337,32
499,38	1316,84
499,58	1314,80
499,78	1310,70
499,98	1232,88
500,18	1228,78
500,38	1331,18
500,58	1304,56
500,78	1257,45
500,98	1265,64
501,18	1296,36
501,38	1300,46
501,58	1261,55
501,78	1310,70
501,98	1208,30
502,18	1259,50
502,38	1202,16
502,58	1261,55
502,78	1249,26
502,98	1228,78
503,18	1298,41
503,38	1277,93
503,59	1265,64
503,79	1251,31
503,99	1331,18
504,19	1261,55
504,39	1286,12
504,59	1298,41
504,79	1304,56
504,99	1257,45
505,19	1253,36
505,39	1239,02
505,59	1196,01
505,79	1255,40
505,99	1273,84
506,19	1251,31
506,39	1247,21
506,59	1259,50
506,79	1277,93
506,99	1204,21
507,19	1415,15
507,39	1247,21
507,59	1331,18
507,79	1265,64
507,99	1265,64
508,19	1265,64
508,39	1320,94
508,59	1218,54
508,79	1333,23
508,99	1263,60
509,19	1243,12
509,39	1269,74
509,59	1316,84
509,79	1275,88
509,99	1239,02
510,19	1232,88
510,39	1368,04
510,59	1316,84
510,79	1241,07
510,99	1294,32
511,19	1339,37
511,39	1251,31
511,59	1245,16
511,79	1337,32
511,99	1273,84
512,19	1386,47
512,38	1212,40
512,58	1259,50
512,78	1296,36
512,98	1163,25
513,18	1271,79
513,38	1220,59
513,58	1327,08
513,78	1296,36
513,98	1255,40
514,18	1228,78
514,38	1234,93
514,58	1259,50
514,78	1265,64
514,98	1290,22
515,18	1236,97
515,38	1351,66
515,58	1337,32
515,78	1257,45
515,98	1261,55
516,18	1265,64
516,38	1339,37
516,57	1226,73
516,77	1294,32
516,97	1308,65
517,17	1292,27
517,37	1275,88
517,57	1314,80
517,77	1294,32
517,97	1308,65
518,17	1241,07
518,37	1310,70
518,57	1271,79
518,77	1267,69
518,97	1271,79
519,16	1306,60
519,36	1247,21
519,56	1302,51
519,76	1257,45
519,96	1212,40
520,16	1296,36
520,36	1312,75
520,56	1267,69
520,76	1286,12
520,96	1286,12
521,16	1224,69
521,35	1318,89
521,55	1234,93
521,75	1257,45
521,95	1404,91
522,15	1253,36
522,35	1257,45
522,55	1239,02
522,75	1269,74
522,95	1302,51
523,14	1234,93
523,34	1255,40
523,54	1314,80
523,74	1327,08
523,94	1212,40
524,14	1228,78
524,34	1232,88
524,54	1220,59
524,73	1300,46
524,93	1327,08
525,13	1253,36
525,33	1261,55
525,53	1286,12
525,73	1267,69
525,93	1208,30
526,13	1261,55
526,32	1316,84
526,52	1267,69
526,72	1341,42
526,92	1318,89
527,12	1343,47
527,32	1241,07
527,52	1302,51
527,71	1279,98
527,91	1300,46
528,11	1310,70
528,31	1273,84
528,51	1294,32
528,71	1249,26
528,90	1255,40
529,10	1329,13
529,30	1302,51
529,50	1234,93
529,70	1255,40
529,90	1284,08
530,09	1331,18
530,29	1216,49
530,49	1206,25
530,69	1273,84
530,89	1239,02
531,09	1298,41
531,28	1269,74
531,48	1288,17
531,68	1284,08
531,88	1304,56
532,08	1218,54
532,28	1316,84
532,47	1353,71
532,67	1290,22
532,87	1218,54
533,07	1236,97
533,27	1355,76
533,46	1271,79
533,66	1343,47
533,86	1236,97
534,06	1269,74
534,26	1304,56
534,45	1318,89
534,65	1284,08
534,85	1257,45
535,05	1239,02
535,25	1347,56
535,44	1282,03
535,64	1275,88
535,84	1239,02
536,04	1294,32
536,24	1263,60
536,43	1290,22
536,63	1306,60
536,83	1245,16
537,03	1353,71
537,22	1277,93
537,42	1288,17
537,62	1316,84
537,82	1247,21
538,02	1318,89
538,21	1331,18
538,41	1284,08
538,61	1316,84
538,81	1325,04
539,00	1204,21
539,20	1212,40
539,40	1308,65
539,60	1255,40
539,79	1259,50
539,99	1339,37
540,19	1271,79
540,39	1282,03
540,58	1247,21
540,78	1288,17
540,98	1259,50
541,18	1288,17
541,37	1298,41
541,57	1263,60
541,77	1255,40
541,97	1267,69
542,16	1263,60
542,36	1320,94
542,56	1239,02
542,76	1298,41
542,95	1296,36
543,15	1318,89
543,35	1353,71
543,54	1251,31
543,74	1273,84
543,94	1271,79
544,14	1288,17
544,33	1316,84
544,53	1308,65
544,73	1245,16
544,93	1327,08
545,12	1251,31
545,32	1245,16
545,52	1247,21
545,71	1271,79
545,91	1275,88
546,11	1241,07
546,30	1294,32
546,50	1327,08
546,70	1277,93
546,90	1204,21
547,09	1257,45
547,29	1306,60
547,49	1355,76
547,68	1290,22
547,88	1249,26
548,08	1284,08
548,27	1294,32
548,47	1263,60
548,67	1320,94
548,87	1306,60
549,06	1292,27
549,26	1259,50
549,46	1261,55
549,65	1339,37
549,85	1263,60
550,05	1263,60
550,24	1206,25
550,44	1230,83
550,64	1265,64
550,83	1355,76
551,03	1267,69
551,23	1208,30
551,42	1304,56
551,62	1384,43
551,82	1226,73
552,01	1306,60
552,21	1294,32
552,41	1263,60
552,60	1329,13
552,80	1200,11
553,00	1236,97
553,19	1290,22
553,39	1304,56
553,59	1263,60
553,78	1251,31
553,98	1241,07
554,17	1279,98
554,37	1335,28
554,57	1302,51
554,76	1298,41
554,96	1279,98
555,16	1296,36
555,35	1310,70
555,55	1322,99
555,75	1257,45
555,94	1294,32
556,14	1320,94
556,33	1306,60
556,53	1271,79
556,73	1314,80
556,92	1271,79
557,12	1236,97
557,32	1249,26
557,51	1294,32
557,71	1298,41
557,90	1406,95
558,10	1333,23
558,30	1273,84
558,49	1325,04
558,69	1318,89
558,88	1249,26
559,08	1351,66
559,28	1257,45
559,47	1279,98
559,67	1298,41
559,86	1290,22
560,06	1304,56
560,26	1308,65
560,45	1308,65
560,65	1220,59
560,84	1312,75
561,04	1247,21
561,24	1372,14
561,43	1314,80
561,63	1224,69
561,82	1306,60
562,02	1277,93
562,22	1271,79
562,41	1265,64
562,61	1329,13
562,80	1257,45
563,00	1302,51
563,19	1298,41
563,39	1296,36
563,59	1249,26
563,78	1230,83
563,98	1261,55
564,17	1273,84
564,37	1359,85
564,56	1300,46
564,76	1239,02
564,96	1366,00
565,15	1316,84
565,35	1296,36
565,54	1249,26
565,74	1251,31
565,93	1316,84
566,13	1376,24
566,32	1271,79
566,52	1241,07
566,71	1249,26
566,91	1331,18
567,11	1333,23
567,30	1241,07
567,50	1253,36
567,69	1310,70
567,89	1290,22
568,08	1224,69
568,28	1265,64
568,47	1298,41
568,67	1261,55
568,86	1296,36
569,06	1273,84
569,25	1343,47
569,45	1288,17
569,64	1335,28
569,84	1267,69
570,04	1329,13
570,23	1210,35
570,43	1290,22
570,62	1206,25
570,82	1339,37
571,01	1257,45
571,21	1255,40
571,40	1341,42
571,60	1284,08
571,79	1269,74
571,99	1322,99
572,18	1269,74
572,38	1339,37
572,57	1310,70
572,77	1370,09
572,96	1277,93
573,16	1331,18
573,35	1265,64
573,55	1325,04
573,74	1224,69
573,94	1388,52
574,13	1314,80
574,33	1296,36
574,52	1302,51
574,71	1241,07
574,91	1290,22
575,10	1269,74
575,30	1228,78
575,49	1279,98
575,69	1304,56
575,88	1271,79
576,08	1236,97
576,27	1284,08
576,47	1232,88
576,66	1320,94
576,86	1243,12
577,05	1222,64
577,25	1257,45
577,44	1259,50
577,64	1308,65
577,83	1339,37
578,02	1253,36
578,22	1318,89
578,41	1339,37
578,61	1286,12
578,80	1273,84
579,00	1257,45
579,19	1253,36
579,39	1288,17
579,58	1308,65
579,77	1259,50
579,97	1267,69
580,16	1286,12
580,36	1304,56
580,55	1308,65
580,75	1236,97
580,94	1300,46
581,13	1318,89
581,33	1292,27
581,52	1292,27
581,72	1286,12
581,91	1327,08
582,11	1255,40
582,30	1245,16
582,49	1296,36
582,69	1296,36
582,88	1296,36
583,08	1249,26
583,27	1333,23
583,47	1308,65
583,66	1318,89
583,85	1269,74
584,05	1257,45
584,24	1236,97
584,44	1236,97
584,63	1232,88
584,82	1255,40
585,02	1257,45
585,21	1275,88
585,41	1316,84
585,60	1310,70
585,79	1249,26
585,99	1234,93
586,18	1286,12
586,37	1329,13
586,57	1230,83
586,76	1329,13
586,96	1304,56
587,15	1325,04
587,34	1292,27
587,54	1288,17
587,73	1249,26
587,93	1183,73
588,12	1224,69
588,31	1271,79
588,51	1294,32
588,70	1322,99
588,89	1220,59
589,09	1263,60
589,28	1282,03
589,47	1273,84
589,67	1245,16
589,86	1318,89
590,06	1318,89
590,25	1320,94
590,44	1282,03
590,64	1267,69
590,83	1198,06
591,02	1329,13
591,22	1306,60
591,41	1251,31
591,60	1302,51
591,80	1296,36
591,99	1249,26
592,18	1300,46
592,38	1208,30
592,57	1277,93
592,76	1294,32
592,96	1302,51
593,15	1282,03
593,34	1333,23
593,54	1310,70
593,73	1320,94
593,92	1339,37
594,12	1273,84
594,31	1269,74
594,50	1245,16
594,70	1277,93
594,89	1310,70
595,08	1269,74
595,28	1306,60
595,47	1259,50
595,66	1269,74
595,86	1216,49
596,05	1357,80
596,24	1318,89
596,43	1298,41
596,63	1341,42
596,82	1292,27
597,01	1277,93
597,21	1318,89
597,40	1286,12
597,59	1257,45
597,79	1273,84
597,98	1290,22
598,17	1288,17
598,36	1286,12
598,56	1331,18
598,75	1298,41
598,94	1234,93
599,14	1224,69
599,33	1322,99
599,52	1294,32
599,71	1239,02
599,91	1247,21
600,10	1261,55
600,29	1290,22
600,48	1290,22
600,68	1275,88
600,87	1216,49
601,06	1282,03
601,26	1273,84
601,45	1327,08
601,64	1282,03
601,83	1329,13
602,03	1267,69
602,22	1255,40
602,41	1212,40
602,60	1296,36
602,80	1175,53
602,99	1320,94
603,18	1234,93
603,37	1372,14
603,57	1339,37
603,76	1288,17
603,95	1232,88
604,14	1263,60
604,34	1296,36
604,53	1275,88
604,72	1220,59
604,91	1261,55
605,10	1259,50
605,30	1232,88
605,49	1249,26
605,68	1298,41
605,87	1333,23
606,07	1306,60
606,26	1247,21
606,45	1239,02
606,64	1232,88
606,84	1314,80
607,03	1314,80
607,22	1314,80
607,41	1322,99
607,60	1230,83
607,80	1316,84
607,99	1230,83
608,18	1269,74
608,37	1265,64
608,56	1282,03
608,76	1292,27
608,95	1243,12
609,14	1361,90
609,33	1298,41
609,52	1337,32
609,72	1312,75
609,91	1345,52
610,10	1228,78
610,29	1251,31
610,48	1271,79
610,68	1320,94
610,87	1210,35
611,06	1279,98
611,25	1376,24
611,44	1249,26
611,63	1271,79
611,83	1220,59
612,02	1310,70
612,21	1329,13
612,40	1302,51
612,59	1271,79
612,79	1259,50
612,98	1300,46
613,17	1384,43
613,36	1288,17
613,55	1333,23
613,74	1193,97
613,93	1327,08
614,13	1265,64
614,32	1308,65
614,51	1284,08
614,70	1361,90
614,89	1253,36
615,08	1327,08
615,28	1261,55
615,47	1314,80
615,66	1337,32
615,85	1284,08
616,04	1259,50
616,23	1288,17
616,42	1263,60
616,62	1263,60
616,81	1224,69
617,00	1273,84
617,19	1318,89
617,38	1290,22
617,57	1337,32
617,76	1284,08
617,95	1286,12
618,15	1286,12
618,34	1269,74
618,53	1314,80
618,72	1271,79
618,91	1292,27
619,10	1304,56
619,29	1257,45
619,48	1273,84
619,68	1284,08
619,87	1329,13
620,06	1298,41
620,25	1298,41
620,44	1286,12
620,63	1288,17
620,82	1247,21
621,01	1339,37
621,20	1331,18
621,39	1257,45
621,59	1275,88
621,78	1226,73
621,97	1308,65
622,16	1304,56
622,35	1298,41
622,54	1265,64
622,73	1333,23
622,92	1318,89
623,11	1290,22
623,30	1310,70
623,49	1263,60
623,68	1255,40
623,88	1263,60
624,07	1279,98
624,26	1331,18
624,45	1304,56
624,64	1259,50
624,83	1292,27
625,02	1239,02
625,21	1341,42
625,40	1198,06
625,59	1329,13
625,78	1363,95
625,97	1304,56
626,16	1298,41
626,35	1318,89
626,54	1265,64
626,74	1214,45
626,93	1255,40
627,12	1384,43
627,31	1304,56
627,50	1306,60
627,69	1302,51
627,88	1327,08
628,07	1277,93
628,26	1306,60
628,45	1335,28
628,64	1292,27
628,83	1277,93
629,02	1286,12
629,21	1191,92
629,40	1351,66
629,59	1357,80
629,78	1316,84
629,97	1273,84
630,16	1294,32
630,35	1247,21
630,54	1353,71
630,73	1300,46
630,92	1302,51
631,11	1292,27
631,30	1390,57
631,49	1290,22
631,68	1335,28
631,87	1708,01
632,06	2906,07
632,25	2017,25
632,44	2215,90
632,63	1810,40
632,82	1894,37
633,01	2936,79
633,20	2107,36
633,39	3588,04
633,58	3702,73
633,77	2748,37
633,96	3575,75
634,15	6680,47
634,34	10389,35
634,53	12791,61
634,72	24456,84
634,91	42808,69
635,10	55192,76
635,29	53660,88
635,48	44688,73
635,67	33619,46
635,86	23199,39
636,05	15560,47
636,24	10440,54
636,43	6803,35
636,62	4536,25
636,81	3096,53
637,00	2174,94
637,19	1802,21
637,38	1640,42
637,57	1564,65
637,76	1503,21
637,95	1521,64
638,14	1429,48
638,33	1398,76
638,52	1345,52
638,71	1339,37
638,89	1357,80
639,08	1325,04
639,27	1255,40
639,46	1337,32
639,65	1374,19
639,84	1306,60
640,03	1271,79
640,22	1322,99
640,41	1298,41
640,60	1298,41
640,79	1331,18
640,98	1261,55
641,17	1247,21
641,36	1243,12
641,55	1306,60
641,74	1261,55
641,92	1341,42
642,11	1265,64
642,30	1282,03
642,49	1228,78
642,68	1265,64
642,87	1239,02
643,06	1357,80
643,25	1212,40
643,44	1320,94
643,63	1337,32
643,82	1333,23
644,00	1269,74
644,19	1322,99
644,38	1282,03
644,57	1247,21
644,76	1255,40
644,95	1265,64
645,14	1232,88
645,33	1282,03
645,52	1296,36
645,71	1306,60
645,89	1263,60
646,08	1271,79
646,27	1314,80
646,46	1290,22
646,65	1306,60
646,84	1249,26
647,03	1220,59
647,22	1277,93
647,40	1249,26
647,59	1329,13
647,78	1265,64
647,97	1312,75
648,16	1275,88
648,35	1288,17
648,54	1269,74
648,73	1247,21
648,91	1251,31
649,10	1271,79
649,29	1247,21
649,48	1288,17
649,67	1296,36
649,86	1337,32
650,05	1261,55
650,23	1269,74
650,42	1279,98
650,61	1236,97
650,80	1241,07
650,99	1224,69
651,18	1325,04
651,36	1290,22
651,55	1298,41
651,74	1294,32
651,93	1290,22
652,12	1282,03
652,31	1239,02
652,49	1247,21
652,68	1320,94
652,87	1304,56
653,06	1290,22
653,25	1310,70
653,44	1247,21
653,62	1359,85
653,81	1222,64
654,00	1329,13
654,19	1255,40
654,38	1306,60
654,56	1253,36
654,75	1265,64
654,94	1282,03
655,13	1222,64
655,32	1329,13
655,51	1257,45
655,69	1302,51
655,88	1288,17
656,07	1245,16
656,26	1312,75
656,45	1241,07
656,63	1265,64
656,82	1253,36
657,01	1277,93
657,20	1267,69
657,38	1265,64
657,57	1245,16
657,76	1267,69
657,95	1232,88
658,14	1363,95
658,32	1263,60
658,51	1179,63
658,70	1304,56
658,89	1245,16
659,08	1296,36
659,26	1241,07
659,45	1300,46
659,64	1322,99
659,83	1296,36
660,01	1351,66
660,20	1316,84
660,39	1249,26
660,58	1253,36
660,76	1292,27
660,95	1232,88
661,14	1331,18
661,33	1247,21
661,51	1255,40
661,70	1341,42
661,89	1241,07
662,08	1191,92
662,26	1257,45
662,45	1214,45
662,64	1302,51
662,83	1290,22
663,01	1187,82
663,20	1224,69
663,39	1314,80
663,58	1320,94
663,76	1298,41
663,95	1329,13
664,14	1298,41
664,32	1200,11
664,51	1314,80
664,70	1249,26
664,89	1275,88
665,07	1230,83
665,26	1257,45
665,45	1210,35
665,64	1226,73
665,82	1255,40
666,01	1271,79
666,20	1236,97
666,38	1320,94
666,57	1177,58
666,76	1251,31
666,95	1245,16
667,13	1253,36
667,32	1267,69
667,51	1298,41
667,69	1269,74
667,88	1306,60
668,07	1191,92
668,25	1318,89
668,44	1267,69
668,63	1251,31
668,81	1267,69
669,00	1329,13
669,19	1241,07
669,38	1239,02
669,56	1308,65
669,75	1249,26
669,94	1286,12
670,12	1296,36
670,31	1284,08
670,50	1290,22
670,68	1282,03
670,87	1273,84
671,06	1277,93
671,24	1200,11
671,43	1269,74
671,62	1308,65
671,80	1294,32
671,99	1249,26
672,18	1271,79
672,36	1255,40
672,55	1290,22
672,74	1261,55
672,92	1267,69
673,11	1296,36
673,29	1320,94
673,48	1284,08
673,67	1265,64
673,85	1257,45
674,04	1275,88
674,23	1304,56
674,41	1269,74
674,60	1224,69
674,79	1277,93
674,97	1249,26
675,16	1255,40
675,34	1329,13
675,53	1206,25
675,72	1275,88
675,90	1325,04
676,09	1306,60
676,28	1230,83
676,46	1310,70
676,65	1294,32
676,83	1310,70
677,02	1234,93
677,21	1247,21
677,39	1208,30
677,58	1232,88
677,77	1265,64
677,95	1284,08
678,14	1198,06
678,32	1292,27
678,51	1234,93
678,70	1249,26
678,88	1322,99
679,07	1263,60
679,25	1216,49
679,44	1275,88
679,63	1245,16
679,81	1320,94
680,00	1294,32
680,18	1294,32
680,37	1318,89
680,55	1216,49
680,74	1263,60
680,93	1290,22
681,11	1255,40
681,30	1265,64
681,48	1275,88
681,67	1228,78
681,85	1335,28
682,04	1314,80
682,23	1296,36
682,41	1251,31
682,60	1253,36
682,78	1239,02
682,97	1255,40
683,15	1279,98
683,34	1314,80
683,53	1314,80
683,71	1279,98
683,90	1257,45
684,08	1243,12
684,27	1300,46
684,45	1329,13
684,64	1259,50
684,82	1300,46
685,01	1269,74
685,19	1294,32
685,38	1325,04
685,57	1232,88
685,75	1288,17
685,94	1279,98
686,12	1335,28
686,31	1163,25
686,49	1325,04
686,68	1312,75
686,86	1267,69
687,05	1298,41
687,23	1245,16
687,42	1253,36
687,60	1245,16
687,79	1298,41
687,97	1200,11
688,16	1255,40
688,34	1294,32
688,53	1255,40
688,71	1271,79
688,90	1257,45
689,08	1288,17
689,27	1337,32
689,45	1284,08
689,64	1230,83
689,82	1263,60
690,01	1265,64
690,19	1335,28
690,38	1294,32
690,56	1282,03
690,75	1314,80
690,93	1288,17
691,12	1335,28
691,30	1249,26
691,49	1345,52
691,67	1261,55
691,86	1247,21
692,04	1304,56
692,23	1304,56
692,41	1257,45
692,60	1241,07
692,78	1294,32
692,97	1239,02
693,15	1208,30
693,34	1265,64
693,52	1239,02
693,71	1243,12
693,89	1222,64
694,08	1320,94
694,26	1257,45
694,44	1288,17
694,63	1298,41
694,81	1253,36
695,00	1189,87
695,18	1245,16
695,37	1300,46
695,55	1261,55
695,74	1257,45
695,92	1204,21
696,10	1273,84
696,29	1255,40
696,47	1232,88
696,66	1279,98
696,84	1300,46
697,03	1222,64
697,21	1320,94
697,40	1304,56
697,58	1239,02
697,76	1267,69
697,95	1322,99
698,13	1263,60
698,32	1265,64
698,50	1335,28
698,68	1208,30
698,87	1308,65
699,05	1298,41
699,24	1212,40
699,42	1273,84
699,61	1222,64
699,79	1286,12
699,97	1210,35
700,16	1171,44
700,34	1271,79
700,53	1202,16
700,71	1290,22
700,89	1236,97
701,08	1308,65
701,26	1329,13
701,45	1333,23
701,63	1306,60
701,81	1236,97
702,00	1263,60
702,18	1273,84
702,37	1279,98
702,55	1320,94
702,73	1232,88
702,92	1318,89
703,10	1212,40
703,28	1247,21
703,47	1320,94
703,65	1191,92
703,84	1253,36
704,02	1220,59
704,20	1282,03
704,39	1232,88
704,57	1273,84
704,75	1286,12
704,94	1171,44
705,12	1251,31
705,30	1335,28
705,49	1220,59
705,67	1257,45
705,86	1226,73
706,04	1353,71
706,22	1202,16
706,41	1337,32
706,59	1286,12
706,77	1284,08
706,96	1255,40
707,14	1241,07
707,32	1224,69
707,51	1259,50
707,69	1226,73
707,87	1316,84
708,06	1322,99
708,24	1245,16
708,42	1249,26
708,61	1206,25
708,79	1251,31
708,97	1271,79
709,16	1277,93
709,34	1294,32
709,52	1249,26
709,71	1271,79
709,89	1273,84
710,07	1251,31
710,26	1265,64
710,44	1255,40
710,62	1243,12
710,80	1284,08
710,99	1189,87
711,17	1273,84
711,35	1292,27
711,54	1212,40
711,72	1239,02
711,90	1204,21
712,09	1185,77
712,27	1292,27
712,45	1198,06
712,63	1230,83
712,82	1247,21
713,00	1306,60
713,18	1261,55
713,37	1267,69
713,55	1271,79
713,73	1282,03
713,91	1224,69
714,10	1292,27
714,28	1304,56
714,46	1241,07
714,65	1277,93
714,83	1320,94
715,01	1251,31
715,19	1310,70
715,38	1292,27
715,56	1292,27
715,74	1284,08
715,92	1279,98
716,11	1255,40
716,29	1306,60
716,47	1261,55
716,65	1224,69
716,84	1189,87
717,02	1177,58
717,20	1296,36
717,38	1263,60
717,57	1253,36
717,75	1214,45
717,93	1214,45
718,11	1257,45
718,30	1204,21
718,48	1187,82
718,66	1327,08
718,84	1273,84
719,03	1310,70
719,21	1189,87
719,39	1310,70
719,57	1206,25
719,75	1228,78
719,94	1343,47
720,12	1204,21
720,30	1232,88
720,48	1216,49
720,67	1294,32
720,85	1271,79
721,03	1327,08
721,21	1232,88
721,39	1208,30
721,58	1218,54
721,76	1239,02
721,94	1284,08
722,12	1173,49
722,30	1310,70
722,49	1282,03
722,67	1302,51
722,85	1302,51
723,03	1275,88
723,21	1302,51
723,40	1275,88
723,58	1302,51
723,76	1355,76
723,94	1288,17
724,12	1286,12
724,30	1302,51
724,49	1216,49
724,67	1212,40
724,85	1196,01
725,03	1200,11
725,21	1232,88
725,40	1279,98
725,58	1269,74
725,76	1312,75
725,94	1243,12
726,12	1263,60
726,30	1312,75
726,49	1288,17
726,67	1241,07
726,85	1292,27
727,03	1310,70
727,21	1241,07
727,39	1345,52
727,57	1322,99
727,76	1167,34
727,94	1333,23
728,12	1226,73
728,30	1220,59
728,48	1245,16
728,66	1271,79
728,84	1277,93
729,03	1230,83
729,21	1322,99
729,39	1292,27
729,57	1290,22
729,75	1294,32
729,93	1257,45
730,11	1302,51
730,30	1204,21
730,48	1279,98
730,66	1257,45
730,84	1261,55
731,02	1241,07
731,20	1284,08
731,38	1232,88
731,56	1275,88
731,74	1282,03
731,93	1298,41
732,11	1275,88
732,29	1286,12
732,47	1286,12
732,65	1259,50
732,83	1353,71
733,01	1300,46
733,19	1306,60
733,37	1300,46
733,56	1216,49
733,74	1245,16
733,92	1232,88
734,10	1216,49
734,28	1292,27
734,46	1214,45
734,64	1273,84
734,82	1284,08
735,00	1294,32
735,18	1232,88
735,36	1267,69
735,54	1232,88
735,73	1249,26
735,91	1261,55
736,09	1325,04
736,27	1302,51
736,45	1304,56
736,63	1216,49
736,81	1271,79
736,99	1296,36
737,17	1247,21
737,35	1306,60
737,53	1279,98
737,71	1275,88
737,89	1251,31
738,07	1222,64
738,25	1294,32
738,43	1189,87
738,61	1187,82
738,80	1318,89
738,98	1333,23
739,16	1306,60
739,34	1224,69
739,52	1316,84
739,70	1372,14
739,88	1234,93
740,06	1263,60
740,24	1306,60
740,42	1239,02
740,60	1261,55
740,78	1294,32
740,96	1257,45
741,14	1249,26
741,32	1304,56
741,50	1251,31
741,68	1345,52
741,86	1261,55
742,04	1218,54
742,22	1249,26
742,40	1249,26
742,58	1308,65
742,76	1298,41
742,94	1322,99
743,12	1269,74
743,30	1277,93
743,48	1210,35
743,66	1273,84
743,84	1255,40
744,02	1220,59
744,20	1286,12
744,38	1183,73
744,56	1251,31
744,74	1269,74
744,92	1292,27
745,10	1282,03
745,28	1288,17
745,46	1241,07
745,64	1282,03
745,82	1302,51
746,00	1304,56
746,18	1273,84
746,36	1224,69
746,54	1275,88
746,72	1388,52
746,90	1212,40
747,08	1286,12
747,26	1290,22
747,44	1355,76
747,62	1288,17
747,80	1306,60
747,98	1193,97
748,15	1308,65
748,33	1298,41
748,51	1179,63
748,69	1290,22
748,87	1294,32
749,05	1243,12
749,23	1228,78
749,41	1302,51
749,59	1253,36
749,77	1333,23
749,95	1232,88
750,13	1275,88
750,31	1292,27
750,49	1200,11
750,67	1273,84
750,85	1241,07
751,03	1282,03
751,20	1224,69
751,38	1310,70
751,56	1228,78
751,74	1257,45
751,92	1335,28
752,10	1292,27
752,28	1236,97
752,46	1247,21
752,64	1312,75
752,82	1331,18
753,00	1261,55
753,18	1255,40
753,35	1234,93
753,53	1370,09
753,71	1243,12
753,89	1255,40
754,07	1312,75
754,25	1310,70
754,43	1314,80
754,61	1306,60
754,79	1241,07
754,97	1259,50
755,14	1304,56
755,32	1288,17
755,50	1234,93
755,68	1302,51
755,86	1263,60
756,04	1327,08
756,22	1220,59
756,40	1318,89
756,57	1249,26
756,75	1234,93
756,93	1257,45
757,11	1337,32
757,29	1290,22
757,47	1222,64
757,65	1216,49
757,82	1224,69
758,00	1259,50
758,18	1282,03
758,36	1230,83
758,54	1267,69
758,72	1271,79
758,90	1261,55
759,07	1298,41
759,25	1265,64
759,43	1249,26
759,61	1284,08
759,79	1329,13
759,97	1230,83
760,15	1265,64
760,32	1267,69
760,50	1228,78
760,68	1273,84
760,86	1288,17
761,04	1249,26
761,22	1265,64
761,39	1234,93
761,57	1247,21
761,75	1294,32
761,93	1333,23
762,11	1298,41
762,28	1255,40
762,46	1306,60
762,64	1228,78
762,82	1218,54
763,00	1279,98
763,18	1249,26
763,35	1228,78
763,53	1245,16
763,71	1322,99
763,89	1290,22
764,07	1257,45
764,24	1290,22
764,42	1241,07
764,60	1191,92
764,78	1308,65
764,96	1320,94
765,13	1316,84
765,31	1314,80
765,49	1212,40
765,67	1325,04
765,84	1255,40
766,02	1245,16
766,20	1417,19
766,38	1298,41
766,56	1284,08
766,73	1245,16
766,91	1259,50
767,09	1230,83
767,27	1245,16
767,44	1282,03
767,62	1335,28
767,80	1290,22
767,98	1255,40
768,15	1257,45
768,33	1304,56
768,51	1378,28
768,69	1251,31
768,87	1208,30
769,04	1265,64
769,22	1255,40
769,40	1255,40
769,58	1257,45
769,75	1232,88
769,93	1294,32
770,11	1282,03
770,28	1251,31
770,46	1279,98
770,64	1327,08
770,82	1282,03
770,99	1259,50
771,17	1224,69
771,35	1265,64
771,53	1216,49
771,70	1232,88
771,88	1345,52
772,06	1359,85
772,23	1245,16
772,41	1292,27
772,59	1239,02
772,77	1275,88
772,94	1288,17
773,12	1294,32
773,30	1214,45
773,47	1318,89
773,65	1290,22
773,83	1259,50
774,01	1294,32
774,18	1224,69
774,36	1263,60
774,54	1236,97
774,71	1257,45
774,89	1247,21
775,07	1261,55
775,24	1265,64
775,42	1290,22
775,60	1279,98
775,78	1253,36
775,95	1226,73
776,13	1271,79
776,31	1271,79
776,48	1337,32
776,66	1298,41
776,84	1249,26
777,01	1314,80
777,19	1230,83
777,37	1298,41
777,54	1241,07
777,72	1255,40
777,90	1314,80
778,07	1241,07
778,25	1306,60
778,43	1314,80
778,60	1290,22
778,78	1290,22
778,96	1228,78
779,13	1284,08
779,31	1302,51
779,49	1296,36
779,66	1228,78
779,84	1241,07
780,01	1366,00
780,19	1284,08
780,37	1312,75
780,54	1312,75
780,72	1255,40
780,90	1327,08
781,07	1286,12
781,25	1236,97
781,43	1306,60
781,60	1247,21
781,78	1294,32
781,95	1222,64
782,13	1210,35
782,31	1253,36
782,48	1290,22
782,66	1234,93
782,83	1257,45
783,01	1288,17
783,19	1277,93
783,36	1216,49
783,54	1314,80
783,72	1202,16
783,89	1249,26
784,07	1249,26
784,24	1288,17
784,42	1263,60
784,60	1286,12
784,77	1282,03
784,95	1312,75
785,12	1390,57
785,30	1267,69
785,47	1314,80
785,65	1294,32
785,83	1257,45
786,00	1343,47
786,18	1251,31
786,35	1282,03
786,53	1249,26
786,71	1247,21
786,88	1275,88
787,06	1294,32
787,23	1236,97
787,41	1380,33
787,58	1279,98
787,76	1239,02
787,94	1175,53
788,11	1292,27
788,29	1265,64
788,46	1228,78
788,64	1253,36
788,81	1183,73
788,99	1269,74
789,16	1275,88
789,34	1271,79
789,52	1284,08
789,69	1275,88
789,87	1288,17
790,04	1249,26
790,22	1232,88
790,39	1306,60
790,57	1267,69
790,74	1277,93
790,92	1220,59
791,09	1345,52
791,27	1261,55
791,44	1314,80
791,62	1234,93
791,79	1261,55
791,97	1243,12
792,15	1148,91
792,32	1255,40
792,50	1284,08
792,67	1277,93
792,85	1234,93
793,02	1304,56
793,20	1279,98
793,37	1249,26
793,55	1296,36
793,72	1224,69
793,90	1232,88
794,07	1267,69
794,25	1230,83
794,42	1292,27
794,60	1193,97
794,77	1273,84
794,95	1220,59
795,12	1259,50
795,30	1286,12
795,47	1269,74
795,65	1286,12
795,82	1251,31
796,00	1273,84
796,17	1204,21
796,34	1277,93
796,52	1341,42
796,69	1351,66
796,87	1282,03
797,04	1265,64
797,22	1265,64
797,39	1302,51
797,57	1296,36
797,74	1277,93
797,92	1226,73
798,09	1218,54
798,27	1228,78
798,44	1282,03
798,62	1292,27
798,79	1255,40
798,96	1284,08
799,14	1236,97
799,31	1308,65
799,49	1181,68
799,66	1273,84
799,84	1335,28
800,01	1245,16
800,19	1351,66
800,36	1243,12
800,53	1269,74
800,71	1191,92
800,88	1343,47
801,06	1236,97
801,23	1308,65
801,41	1378,28
801,58	1259,50
801,75	1310,70
801,93	1302,51
802,10	1314,80
802,28	1251,31
802,45	1275,88
802,63	1288,17
802,80	1290,22
802,97	1230,83
803,15	1288,17
803,32	1288,17
803,50	1306,60
803,67	1302,51
803,84	1241,07
804,02	1263,60
804,19	1249,26
804,37	1298,41
804,54	1284,08
804,71	1232,88
804,89	1282,03
805,06	1261,55
805,24	1243,12
805,41	1220,59
805,58	1257,45
805,76	1241,07
805,93	1255,40
806,10	1271,79
806,28	1216,49
806,45	1275,88
806,63	1275,88
806,80	1236,97
806,97	1241,07
807,15	1331,18
807,32	1277,93
807,49	1208,30
807,67	1271,79
807,84	1331,18
808,01	1318,89
808,19	1318,89
808,36	1333,23
808,54	1298,41
808,71	1208,30
808,88	1263,60
809,06	1255,40
809,23	1277,93
809,40	1259,50
809,58	1333,23
809,75	1236,97
809,92	1257,45
810,10	1322,99
810,27	1222,64
810,44	1347,56
810,62	1210,35
810,79	1302,51
810,96	1232,88
811,14	1214,45
811,31	1222,64
811,48	1245,16
811,66	1279,98
811,83	1277,93
812,00	1329,13
812,18	1327,08
812,35	1292,27
812,52	1261,55
812,69	1232,88
812,87	1218,54
813,04	1294,32
813,21	1269,74
813,39	1327,08
813,56	1247,21
813,73	1341,42
813,91	1247,21
814,08	1286,12
814,25	1286,12
814,42	1236,97
814,60	1265,64
814,77	1284,08
814,94	1255,40
815,12	1284,08
815,29	1333,23
815,46	1257,45
815,63	1306,60
815,81	1288,17
815,98	1294,32
816,15	1312,75
816,33	1302,51
816,50	1208,30
816,67	1218,54
816,84	1249,26
817,02	1257,45
817,19	1314,80
817,36	1247,21
817,53	1298,41
817,71	1222,64
817,88	1157,10
818,05	1257,45
818,22	1265,64
818,40	1282,03
818,57	1282,03
818,74	1212,40
818,91	1347,56
819,09	1226,73
819,26	1331,18
819,43	1300,46
819,60	1249,26
819,78	1298,41
819,95	1288,17
820,12	1331,18
820,29	1294,32
820,47	1282,03
820,64	1279,98
820,81	1267,69
820,98	1216,49
821,15	1230,83
821,33	1279,98
821,50	1224,69
821,67	1300,46
821,84	1245,16
822,02	1224,69
822,19	1263,60
822,36	1222,64
822,53	1202,16
822,70	1263,60
822,88	1304,56
823,05	1269,74
823,22	1282,03
823,39	1312,75
823,56	1243,12
823,74	1255,40
823,91	1236,97
824,08	1279,98
824,25	1249,26
824,42	1273,84
824,60	1243,12
824,77	1243,12
824,94	1222,64
825,11	1286,12
825,28	1245,16
825,45	1212,40
825,63	1183,73
825,80	1347,56
825,97	1257,45
826,14	1282,03
826,31	1363,95
826,48	1273,84
826,66	1196,01
826,83	1228,78
827,00	1284,08
827,17	1249,26
827,34	1193,97
827,51	1331,18
827,69	1181,68
827,86	1320,94
828,03	1298,41
828,20	1247,21
828,37	1224,69
828,54	1265,64
828,71	1255,40
828,89	1226,73
829,06	1261,55
829,23	1253,36
829,40	1269,74
829,57	1247,21
829,74	1275,88
829,91	1284,08
830,09	1226,73
830,26	1298,41
830,43	1277,93
830,60	1275,88
830,77	1263,60
830,94	1247,21
831,11	1183,73
831,28	1222,64
831,46	1302,51
831,63	1273,84
831,80	1302,51
831,97	1322,99
832,14	1294,32
832,31	1310,70
832,48	1247,21
832,65	1224,69
832,82	1310,70
832,99	1279,98
833,17	1218,54
833,34	1265,64
833,51	1263,60
833,68	1206,25
833,85	1161,20
834,02	1329,13
834,19	1308,65
834,36	1214,45
834,53	1271,79
834,70	1239,02
834,87	1269,74
835,04	1247,21
835,22	1269,74
835,39	1234,93
835,56	1302,51
835,73	1298,41
835,90	1245,16
836,07	1271,79
836,24	1279,98
836,41	1298,41
836,58	1288,17
836,75	1277,93
836,92	1224,69
837,09	1230,83
837,26	1292,27
837,43	1249,26
837,60	1273,84
837,77	1269,74
837,94	1212,40
838,12	1226,73
838,29	1245,16
838,46	1249,26
838,63	1241,07
838,80	1181,68
838,97	1267,69
839,14	1347,56
839,31	1245,16
839,48	1181,68
839,65	1316,84
839,82	1310,70
839,99	1259,50
840,16	1222,64
840,33	1292,27
840,50	1193,97
840,67	1245,16
840,84	1284,08
841,01	1302,51
841,18	1310,70
841,35	1282,03
841,52	1251,31
841,69	1286,12
841,86	1296,36
842,03	1284,08
842,20	1284,08
842,37	1329,13
842,54	1245,16
842,71	1271,79
842,88	1228,78
843,05	1288,17
843,22	1306,60
843,39	1325,04
843,56	1257,45
843,73	1296,36
843,90	1232,88
844,07	1306,60
844,24	1273,84
844,41	1239,02
844,58	1304,56
844,75	1257,45
844,92	1243,12
845,09	1316,84
845,26	1300,46
845,43	1286,12
845,60	1302,51
845,77	1318,89
845,94	1265,64
846,10	1257,45
846,27	1306,60
846,44	1261,55
846,61	1335,28
846,78	1249,26
846,95	1282,03
847,12	1300,46
847,29	1269,74
847,46	1286,12
847,63	1335,28
847,80	1222,64
847,97	1214,45
848,14	1251,31
848,31	1239,02
848,48	1255,40
848,65	1294,32
848,82	1273,84
848,98	1294,32
849,15	1230,83
849,32	1284,08
849,49	1253,36
849,66	1269,74
849,83	1296,36
850,00	1267,69
850,17	1333,23
850,34	1224,69
850,51	1245,16
850,68	1253,36
850,85	1288,17
851,01	1263,60
851,18	1298,41
851,35	1196,01
851,52	1282,03
851,69	1316,84
851,86	1216,49
852,03	1294,32
852,20	1226,73
852,37	1279,98
852,53	1177,58
852,70	1257,45
852,87	1218,54
853,04	1212,40
853,21	1243,12
853,38	1290,22
853,55	1267,69
853,72	1286,12
853,89	1212,40
854,05	1224,69
854,22	1251,31
854,39	1290,22
854,56	1275,88
854,73	1302,51
854,90	1265,64
855,07	1236,97
855,23	1224,69
855,40	1302,51
855,57	1275,88
855,74	1214,45
855,91	1243,12
856,08	1286,12
856,25	1288,17
856,41	1253,36
856,58	1269,74
856,75	1286,12
856,92	1255,40
857,09	1290,22
857,26	1294,32
857,42	1228,78
857,59	1302,51
857,76	1265,64
857,93	1243,12
858,10	1208,30
858,27	1290,22
858,43	1265,64
858,60	1212,40
858,77	1257,45
858,94	1257,45
859,11	1269,74
859,27	1232,88
859,44	1224,69
859,61	1214,45
859,78	1312,75
859,95	1329,13
860,12	1259,50
860,28	1181,68
860,45	1333,23
860,62	1239,02
860,79	1255,40
860,95	1296,36
861,12	1241,07
861,29	1249,26
861,46	1345,52
861,63	1275,88
861,79	1284,08
861,96	1331,18
862,13	1267,69
862,30	1351,66
862,47	1257,45
862,63	1277,93
862,80	1349,61
862,97	1273,84
863,14	1220,59
863,30	1290,22
863,47	1224,69
863,64	1243,12
863,81	1288,17
863,97	1257,45
864,14	1279,98
864,31	1353,71
864,48	1304,56
864,65	1263,60
864,81	1218,54
864,98	1288,17
865,15	1243,12
865,32	1255,40
865,48	1261,55
865,65	1241,07
865,82	1271,79
865,98	1243,12
866,15	1327,08
866,32	1265,64
866,49	1228,78
866,65	1288,17
866,82	1245,16
866,99	1302,51
867,16	1228,78
867,32	1196,01
867,49	1304,56
867,66	1222,64
867,83	1212,40
867,99	1286,12
868,16	1226,73
868,33	1224,69
868,49	1243,12
868,66	1372,14
868,83	1261,55
868,99	1245,16
869,16	1286,12
869,33	1257,45
869,50	1355,76
869,66	1224,69
869,83	1312,75
870,00	1265,64
870,16	1327,08
870,33	1374,19
870,50	1294,32
870,66	1288,17
870,83	1202,16
871,00	1247,21
871,17	1292,27
871,33	1263,60
871,50	1208,30
871,67	1228,78
871,83	1292,27
872,00	1216,49
872,17	1298,41
872,33	1306,60
872,50	1255,40
872,67	1257,45
872,83	1257,45
873,00	1214,45
873,17	1189,87
873,33	1204,21
873,50	1290,22
873,67	1290,22
873,83	1267,69
874,00	1304,56
874,16	1318,89
874,33	1239,02
874,50	1277,93
874,66	1351,66
874,83	1337,32
875,00	1331,18
875,16	1277,93
875,33	1277,93
875,50	1271,79
875,66	1228,78
875,83	1318,89
875,99	1306,60
876,16	1247,21
876,33	1255,40
876,49	1308,65
876,66	1173,49
876,83	1296,36
876,99	1222,64
877,16	1241,07
877,32	1327,08
877,49	1230,83
877,66	1253,36
877,82	1339,37
877,99	1294,32
878,15	1290,22
878,32	1327,08
878,49	1241,07
878,65	1220,59
878,82	1318,89
878,98	1284,08
879,15	1308,65
879,32	1294,32
879,48	1200,11
879,65	1282,03
879,81	1312,75
879,98	1282,03
880,15	1257,45
880,31	1218,54
880,48	1284,08
880,64	1292,27
880,81	1230,83
880,97	1290,22
881,14	1239,02
881,31	1247,21
881,47	1255,40
881,64	1249,26
881,80	1200,11
881,97	1343,47
882,13	1175,53
882,30	1314,80
882,47	1202,16
882,63	1257,45
882,80	1310,70
882,96	1200,11
883,13	1292,27
883,29	1257,45
883,46	1294,32
883,62	1257,45
883,79	1306,60
883,95	1290,22
884,12	1212,40
884,29	1310,70
884,45	1302,51
884,62	1277,93
884,78	1265,64
884,95	1212,40
885,11	1234,93
885,28	1290,22
885,44	1269,74
885,61	1282,03
885,77	1222,64
885,94	1226,73
886,10	1304,56
886,27	1228,78
886,43	1314,80
886,60	1255,40
886,76	1302,51
886,93	1210,35
887,09	1218,54
887,26	1267,69
887,42	1236,97
887,59	1296,36
887,75	1271,79
887,92	1257,45
888,08	1335,28
888,25	1269,74
888,41	1236,97
888,58	1230,83
888,74	1282,03
888,91	1279,98
>>>>>End Processed Spectral Data<<<<<
