SpectraSuite Data File
++++++++++++++++++++++++++++++++++++
Date: Sun Apr 03 19:55:24 CEST 2016
User: root
Dark Spectrum Present: No
Reference Spectrum Present: No
Number of Sampled Component Spectra: 1
Spectrometers: USB4C02835
Integration Time (usec): 10000 (USB4C02835)
Spectra Averaged: 1 (USB4C02835)
Boxcar Smoothing: 0 (USB4C02835)
Correct for Electrical Dark: No (USB4C02835)
Strobe/Lamp Enabled: No (USB4C02835)
Correct for Detector Non-linearity: No (USB4C02835)
Correct for Stray Light: No (USB4C02835)
Number of Pixels in Processed Spectrum: 3648
>>>>>Begin Processed Spectral Data<<<<<
177,47	1230,83
177,69	1230,83
177,91	1230,83
178,13	1251,31
178,36	1239,02
178,58	1277,93
178,80	1273,84
179,02	1277,93
179,24	1318,89
179,46	1236,97
179,68	1318,89
179,90	1255,40
180,13	1368,04
180,35	1222,64
180,57	1261,55
180,79	1249,26
181,01	1337,32
181,23	1327,08
181,45	1200,11
181,67	1214,45
181,90	1206,25
182,12	1325,04
182,34	1261,55
182,56	1322,99
182,78	1273,84
183,00	1304,56
183,22	1247,21
183,44	1200,11
183,66	1282,03
183,89	1216,49
184,11	1304,56
184,33	1275,88
184,55	1214,45
184,77	1277,93
184,99	1247,21
185,21	1259,50
185,43	1249,26
185,65	1261,55
185,87	1265,64
186,10	1226,73
186,32	1255,40
186,54	1271,79
186,76	1322,99
186,98	1269,74
187,20	1257,45
187,42	1331,18
187,64	1277,93
187,86	1300,46
188,08	1230,83
188,30	1239,02
188,52	1314,80
188,75	1327,08
188,97	1243,12
189,19	1175,53
189,41	1224,69
189,63	1310,70
189,85	1322,99
190,07	1249,26
190,29	1261,55
190,51	1259,50
190,73	1230,83
190,95	1275,88
191,17	1284,08
191,39	1347,56
191,61	1245,16
191,84	1286,12
192,06	1304,56
192,28	1234,93
192,50	1355,76
192,72	1339,37
192,94	1298,41
193,16	1304,56
193,38	1241,07
193,60	1236,97
193,82	1218,54
194,04	1249,26
194,26	1183,73
194,48	1312,75
194,70	1249,26
194,92	1310,70
195,14	1331,18
195,36	1222,64
195,58	1275,88
195,80	1304,56
196,02	1206,25
196,24	1236,97
196,46	1296,36
196,69	1331,18
196,91	1247,21
197,13	1308,65
197,35	1337,32
197,57	1306,60
197,79	1263,60
198,01	1327,08
198,23	1355,76
198,45	1144,81
198,67	1322,99
198,89	1214,45
199,11	1255,40
199,33	1232,88
199,55	1218,54
199,77	1304,56
199,99	1263,60
200,21	1251,31
200,43	1245,16
200,65	1304,56
200,87	1310,70
201,09	1210,35
201,31	1286,12
201,53	1310,70
201,75	1320,94
201,97	1253,36
202,19	1286,12
202,41	1255,40
202,63	1275,88
202,85	1327,08
203,07	1275,88
203,29	1271,79
203,51	1245,16
203,73	1275,88
203,95	1214,45
204,17	1275,88
204,39	1241,07
204,61	1288,17
204,83	1265,64
205,05	1247,21
205,27	1288,17
205,49	1306,60
205,71	1275,88
205,93	1247,21
206,15	1327,08
206,37	1292,27
206,59	1302,51
206,81	1308,65
207,03	1279,98
207,25	1253,36
207,47	1138,67
207,69	1275,88
207,91	1253,36
208,13	1290,22
208,34	1226,73
208,56	1308,65
208,78	1265,64
209,00	1255,40
209,22	1251,31
209,44	1198,06
209,66	1239,02
209,88	1335,28
210,10	1241,07
210,32	1310,70
210,54	1245,16
210,76	1335,28
210,98	1269,74
211,20	1228,78
211,42	1263,60
211,64	1247,21
211,86	1245,16
212,08	1288,17
212,30	1183,73
212,52	1263,60
212,74	1236,97
212,96	1222,64
213,17	1296,36
213,39	1236,97
213,61	1308,65
213,83	1329,13
214,05	1306,60
214,27	1282,03
214,49	1241,07
214,71	1292,27
214,93	1306,60
215,15	1245,16
215,37	1355,76
215,59	1279,98
215,81	1320,94
216,03	1212,40
216,24	1290,22
216,46	1292,27
216,68	1271,79
216,90	1271,79
217,12	1249,26
217,34	1202,16
217,56	1173,49
217,78	1329,13
218,00	1198,06
218,22	1249,26
218,44	1310,70
218,66	1318,89
218,87	1263,60
219,09	1249,26
219,31	1277,93
219,53	1181,68
219,75	1218,54
219,97	1257,45
220,19	1247,21
220,41	1320,94
220,63	1255,40
220,85	1302,51
221,06	1306,60
221,28	1261,55
221,50	1294,32
221,72	1218,54
221,94	1214,45
222,16	1265,64
222,38	1210,35
222,60	1269,74
222,82	1243,12
223,03	1275,88
223,25	1296,36
223,47	1232,88
223,69	1310,70
223,91	1310,70
224,13	1239,02
224,35	1374,19
224,57	1335,28
224,78	1253,36
225,00	1292,27
225,22	1269,74
225,44	1308,65
225,66	1267,69
225,88	1267,69
226,10	1296,36
226,32	1292,27
226,53	1247,21
226,75	1298,41
226,97	1292,27
227,19	1247,21
227,41	1275,88
227,63	1232,88
227,85	1202,16
228,06	1265,64
228,28	1228,78
228,50	1267,69
228,72	1257,45
228,94	1327,08
229,16	1218,54
229,37	1232,88
229,59	1261,55
229,81	1222,64
230,03	1271,79
230,25	1302,51
230,47	1208,30
230,69	1331,18
230,90	1322,99
231,12	1261,55
231,34	1277,93
231,56	1222,64
231,78	1245,16
232,00	1230,83
232,21	1265,64
232,43	1249,26
232,65	1253,36
232,87	1282,03
233,09	1290,22
233,30	1296,36
233,52	1208,30
233,74	1230,83
233,96	1255,40
234,18	1292,27
234,40	1210,35
234,61	1220,59
234,83	1255,40
235,05	1232,88
235,27	1204,21
235,49	1331,18
235,70	1243,12
235,92	1337,32
236,14	1249,26
236,36	1210,35
236,58	1257,45
236,79	1226,73
237,01	1277,93
237,23	1314,80
237,45	1208,30
237,67	1247,21
237,88	1318,89
238,10	1261,55
238,32	1337,32
238,54	1357,80
238,76	1310,70
238,97	1245,16
239,19	1206,25
239,41	1290,22
239,63	1331,18
239,85	1253,36
240,06	1253,36
240,28	1279,98
240,50	1228,78
240,72	1249,26
240,93	1263,60
241,15	1279,98
241,37	1220,59
241,59	1236,97
241,81	1232,88
242,02	1296,36
242,24	1243,12
242,46	1302,51
242,68	1273,84
242,89	1257,45
243,11	1306,60
243,33	1261,55
243,55	1271,79
243,76	1251,31
243,98	1273,84
244,20	1255,40
244,42	1294,32
244,64	1239,02
244,85	1277,93
245,07	1366,00
245,29	1243,12
245,51	1189,87
245,72	1306,60
245,94	1284,08
246,16	1261,55
246,38	1286,12
246,59	1259,50
246,81	1327,08
247,03	1228,78
247,24	1249,26
247,46	1310,70
247,68	1277,93
247,90	1320,94
248,11	1288,17
248,33	1271,79
248,55	1351,66
248,77	1294,32
248,98	1183,73
249,20	1212,40
249,42	1318,89
249,64	1239,02
249,85	1251,31
250,07	1245,16
250,29	1265,64
250,50	1226,73
250,72	1251,31
250,94	1210,35
251,16	1300,46
251,37	1290,22
251,59	1286,12
251,81	1241,07
252,02	1230,83
252,24	1308,65
252,46	1232,88
252,68	1241,07
252,89	1308,65
253,11	1220,59
253,33	1302,51
253,54	1232,88
253,76	1249,26
253,98	1284,08
254,20	1290,22
254,41	1306,60
254,63	1304,56
254,85	1236,97
255,06	1232,88
255,28	1298,41
255,50	1290,22
255,71	1284,08
255,93	1271,79
256,15	1296,36
256,36	1245,16
256,58	1208,30
256,80	1288,17
257,02	1292,27
257,23	1226,73
257,45	1308,65
257,67	1247,21
257,88	1263,60
258,10	1243,12
258,32	1196,01
258,53	1296,36
258,75	1310,70
258,97	1320,94
259,18	1286,12
259,40	1298,41
259,62	1239,02
259,83	1273,84
260,05	1249,26
260,27	1320,94
260,48	1275,88
260,70	1239,02
260,92	1193,97
261,13	1239,02
261,35	1261,55
261,57	1292,27
261,78	1249,26
262,00	1282,03
262,22	1361,90
262,43	1249,26
262,65	1210,35
262,86	1304,56
263,08	1245,16
263,30	1314,80
263,51	1288,17
263,73	1251,31
263,95	1249,26
264,16	1353,71
264,38	1230,83
264,60	1267,69
264,81	1273,84
265,03	1257,45
265,25	1314,80
265,46	1288,17
265,68	1275,88
265,89	1214,45
266,11	1284,08
266,33	1253,36
266,54	1259,50
266,76	1286,12
266,98	1232,88
267,19	1253,36
267,41	1349,61
267,62	1275,88
267,84	1249,26
268,06	1292,27
268,27	1273,84
268,49	1290,22
268,70	1294,32
268,92	1251,31
269,14	1257,45
269,35	1230,83
269,57	1292,27
269,79	1279,98
270,00	1230,83
270,22	1306,60
270,43	1255,40
270,65	1259,50
270,87	1200,11
271,08	1181,68
271,30	1243,12
271,51	1247,21
271,73	1234,93
271,95	1277,93
272,16	1306,60
272,38	1306,60
272,59	1245,16
272,81	1228,78
273,02	1300,46
273,24	1320,94
273,46	1312,75
273,67	1273,84
273,89	1282,03
274,10	1210,35
274,32	1279,98
274,54	1253,36
274,75	1337,32
274,97	1224,69
275,18	1351,66
275,40	1239,02
275,61	1302,51
275,83	1263,60
276,05	1212,40
276,26	1241,07
276,48	1312,75
276,69	1202,16
276,91	1212,40
277,12	1337,32
277,34	1232,88
277,55	1263,60
277,77	1310,70
277,99	1282,03
278,20	1259,50
278,42	1183,73
278,63	1269,74
278,85	1265,64
279,06	1296,36
279,28	1308,65
279,49	1294,32
279,71	1249,26
279,93	1243,12
280,14	1236,97
280,36	1257,45
280,57	1241,07
280,79	1302,51
281,00	1232,88
281,22	1279,98
281,43	1290,22
281,65	1298,41
281,86	1224,69
282,08	1304,56
282,29	1357,80
282,51	1232,88
282,73	1312,75
282,94	1273,84
283,16	1208,30
283,37	1230,83
283,59	1236,97
283,80	1318,89
284,02	1255,40
284,23	1193,97
284,45	1265,64
284,66	1312,75
284,88	1241,07
285,09	1193,97
285,31	1282,03
285,52	1298,41
285,74	1296,36
285,95	1224,69
286,17	1304,56
286,38	1271,79
286,60	1263,60
286,81	1253,36
287,03	1329,13
287,24	1275,88
287,46	1224,69
287,67	1247,21
287,89	1298,41
288,10	1228,78
288,32	1284,08
288,53	1239,02
288,75	1247,21
288,96	1259,50
289,18	1304,56
289,39	1298,41
289,61	1271,79
289,82	1343,47
290,04	1257,45
290,25	1263,60
290,47	1228,78
290,68	1318,89
290,90	1329,13
291,11	1257,45
291,33	1261,55
291,54	1204,21
291,76	1265,64
291,97	1269,74
292,18	1273,84
292,40	1247,21
292,61	1275,88
292,83	1259,50
293,04	1232,88
293,26	1224,69
293,47	1222,64
293,69	1292,27
293,90	1239,02
294,12	1325,04
294,33	1212,40
294,55	1259,50
294,76	1279,98
294,97	1253,36
295,19	1298,41
295,40	1191,92
295,62	1245,16
295,83	1222,64
296,05	1275,88
296,26	1318,89
296,48	1284,08
296,69	1353,71
296,90	1273,84
297,12	1208,30
297,33	1325,04
297,55	1257,45
297,76	1366,00
297,98	1271,79
298,19	1210,35
298,41	1249,26
298,62	1273,84
298,83	1267,69
299,05	1228,78
299,26	1318,89
299,48	1165,29
299,69	1251,31
299,90	1302,51
300,12	1316,84
300,33	1349,61
300,55	1271,79
300,76	1277,93
300,98	1325,04
301,19	1236,97
301,40	1202,16
301,62	1265,64
301,83	1236,97
302,05	1255,40
302,26	1304,56
302,47	1279,98
302,69	1183,73
302,90	1288,17
303,12	1204,21
303,33	1294,32
303,54	1222,64
303,76	1191,92
303,97	1277,93
304,19	1308,65
304,40	1257,45
304,61	1314,80
304,83	1310,70
305,04	1294,32
305,26	1388,52
305,47	1239,02
305,68	1300,46
305,90	1290,22
306,11	1282,03
306,33	1304,56
306,54	1277,93
306,75	1288,17
306,97	1251,31
307,18	1230,83
307,39	1419,24
307,61	1253,36
307,82	1189,87
308,04	1322,99
308,25	1292,27
308,46	1259,50
308,68	1232,88
308,89	1314,80
309,10	1243,12
309,32	1314,80
309,53	1251,31
309,74	1224,69
309,96	1193,97
310,17	1306,60
310,39	1292,27
310,60	1288,17
310,81	1243,12
311,03	1220,59
311,24	1335,28
311,45	1282,03
311,67	1300,46
311,88	1333,23
312,09	1185,77
312,31	1300,46
312,52	1222,64
312,73	1267,69
312,95	1259,50
313,16	1304,56
313,37	1304,56
313,59	1234,93
313,80	1353,71
314,01	1277,93
314,23	1267,69
314,44	1255,40
314,65	1306,60
314,87	1271,79
315,08	1284,08
315,29	1327,08
315,51	1259,50
315,72	1353,71
315,93	1316,84
316,15	1327,08
316,36	1312,75
316,57	1253,36
316,79	1312,75
317,00	1263,60
317,21	1177,58
317,43	1208,30
317,64	1261,55
317,85	1284,08
318,07	1189,87
318,28	1322,99
318,49	1239,02
318,70	1275,88
318,92	1232,88
319,13	1273,84
319,34	1284,08
319,56	1208,30
319,77	1339,37
319,98	1300,46
320,20	1302,51
320,41	1286,12
320,62	1253,36
320,83	1306,60
321,05	1249,26
321,26	1261,55
321,47	1208,30
321,69	1206,25
321,90	1179,63
322,11	1296,36
322,32	1353,71
322,54	1175,53
322,75	1265,64
322,96	1290,22
323,18	1232,88
323,39	1310,70
323,60	1277,93
323,81	1300,46
324,03	1261,55
324,24	1267,69
324,45	1322,99
324,66	1216,49
324,88	1239,02
325,09	1226,73
325,30	1263,60
325,52	1249,26
325,73	1208,30
325,94	1300,46
326,15	1271,79
326,37	1269,74
326,58	1363,95
326,79	1318,89
327,00	1204,21
327,22	1245,16
327,43	1175,53
327,64	1312,75
327,85	1267,69
328,07	1282,03
328,28	1259,50
328,49	1290,22
328,70	1279,98
328,92	1308,65
329,13	1316,84
329,34	1306,60
329,55	1300,46
329,76	1236,97
329,98	1267,69
330,19	1329,13
330,40	1290,22
330,61	1212,40
330,83	1245,16
331,04	1263,60
331,25	1308,65
331,46	1292,27
331,68	1228,78
331,89	1355,76
332,10	1261,55
332,31	1359,85
332,52	1271,79
332,74	1302,51
332,95	1218,54
333,16	1320,94
333,37	1210,35
333,58	1204,21
333,80	1306,60
334,01	1226,73
334,22	1251,31
334,43	1249,26
334,64	1259,50
334,86	1271,79
335,07	1290,22
335,28	1357,80
335,49	1267,69
335,70	1196,01
335,92	1253,36
336,13	1284,08
336,34	1341,42
336,55	1251,31
336,76	1216,49
336,98	1214,45
337,19	1224,69
337,40	1245,16
337,61	1296,36
337,82	1263,60
338,04	1263,60
338,25	1282,03
338,46	1261,55
338,67	1292,27
338,88	1279,98
339,09	1234,93
339,31	1341,42
339,52	1224,69
339,73	1257,45
339,94	1267,69
340,15	1286,12
340,36	1271,79
340,58	1308,65
340,79	1247,21
341,00	1247,21
341,21	1335,28
341,42	1343,47
341,63	1304,56
341,85	1265,64
342,06	1261,55
342,27	1243,12
342,48	1306,60
342,69	1290,22
342,90	1234,93
343,12	1333,23
343,33	1286,12
343,54	1196,01
343,75	1279,98
343,96	1267,69
344,17	1241,07
344,38	1200,11
344,60	1261,55
344,81	1255,40
345,02	1265,64
345,23	1282,03
345,44	1296,36
345,65	1282,03
345,86	1314,80
346,07	1267,69
346,29	1286,12
346,50	1249,26
346,71	1193,97
346,92	1271,79
347,13	1308,65
347,34	1355,76
347,55	1286,12
347,76	1288,17
347,98	1277,93
348,19	1327,08
348,40	1253,36
348,61	1234,93
348,82	1298,41
349,03	1239,02
349,24	1255,40
349,45	1243,12
349,66	1282,03
349,88	1236,97
350,09	1282,03
350,30	1316,84
350,51	1296,36
350,72	1204,21
350,93	1275,88
351,14	1312,75
351,35	1255,40
351,56	1163,25
351,77	1179,63
351,99	1335,28
352,20	1241,07
352,41	1339,37
352,62	1249,26
352,83	1202,16
353,04	1263,60
353,25	1234,93
353,46	1290,22
353,67	1273,84
353,88	1216,49
354,09	1198,06
354,30	1294,32
354,52	1210,35
354,73	1310,70
354,94	1212,40
355,15	1269,74
355,36	1241,07
355,57	1263,60
355,78	1306,60
355,99	1226,73
356,20	1314,80
356,41	1245,16
356,62	1265,64
356,83	1271,79
357,04	1304,56
357,25	1269,74
357,46	1173,49
357,68	1269,74
357,89	1292,27
358,10	1279,98
358,31	1282,03
358,52	1290,22
358,73	1286,12
358,94	1247,21
359,15	1257,45
359,36	1322,99
359,57	1296,36
359,78	1279,98
359,99	1269,74
360,20	1296,36
360,41	1284,08
360,62	1257,45
360,83	1218,54
361,04	1198,06
361,25	1273,84
361,46	1245,16
361,67	1320,94
361,88	1265,64
362,09	1275,88
362,30	1335,28
362,51	1259,50
362,72	1290,22
362,93	1322,99
363,14	1308,65
363,35	1208,30
363,56	1255,40
363,78	1284,08
363,99	1251,31
364,20	1243,12
364,41	1234,93
364,62	1277,93
364,83	1282,03
365,04	1304,56
365,25	1269,74
365,46	1206,25
365,67	1290,22
365,88	1257,45
366,09	1212,40
366,30	1310,70
366,51	1298,41
366,72	1263,60
366,93	1310,70
367,14	1294,32
367,35	1304,56
367,56	1200,11
367,77	1296,36
367,98	1198,06
368,18	1265,64
368,39	1226,73
368,60	1257,45
368,81	1216,49
369,02	1265,64
369,23	1320,94
369,44	1224,69
369,65	1243,12
369,86	1216,49
370,07	1267,69
370,28	1247,21
370,49	1243,12
370,70	1316,84
370,91	1120,24
371,12	1310,70
371,33	1226,73
371,54	1216,49
371,75	1261,55
371,96	1284,08
372,17	1243,12
372,38	1275,88
372,59	1320,94
372,80	1187,82
373,01	1288,17
373,22	1234,93
373,43	1220,59
373,64	1228,78
373,85	1282,03
374,06	1286,12
374,26	1236,97
374,47	1249,26
374,68	1318,89
374,89	1282,03
375,10	1222,64
375,31	1265,64
375,52	1279,98
375,73	1277,93
375,94	1269,74
376,15	1253,36
376,36	1241,07
376,57	1288,17
376,78	1208,30
376,99	1298,41
377,20	1239,02
377,40	1263,60
377,61	1198,06
377,82	1218,54
378,03	1308,65
378,24	1290,22
378,45	1261,55
378,66	1226,73
378,87	1298,41
379,08	1228,78
379,29	1228,78
379,50	1224,69
379,71	1292,27
379,91	1232,88
380,12	1212,40
380,33	1224,69
380,54	1265,64
380,75	1279,98
380,96	1271,79
381,17	1318,89
381,38	1269,74
381,59	1304,56
381,80	1284,08
382,00	1329,13
382,21	1261,55
382,42	1308,65
382,63	1294,32
382,84	1228,78
383,05	1277,93
383,26	1298,41
383,47	1208,30
383,68	1325,04
383,88	1239,02
384,09	1183,73
384,30	1318,89
384,51	1210,35
384,72	1269,74
384,93	1214,45
385,14	1245,16
385,35	1333,23
385,55	1271,79
385,76	1320,94
385,97	1226,73
386,18	1228,78
386,39	1200,11
386,60	1265,64
386,81	1212,40
387,02	1335,28
387,22	1277,93
387,43	1300,46
387,64	1298,41
387,85	1302,51
388,06	1294,32
388,27	1325,04
388,48	1271,79
388,68	1277,93
388,89	1263,60
389,10	1239,02
389,31	1257,45
389,52	1298,41
389,73	1284,08
389,93	1265,64
390,14	1282,03
390,35	1304,56
390,56	1249,26
390,77	1275,88
390,98	1208,30
391,18	1284,08
391,39	1302,51
391,60	1232,88
391,81	1230,83
392,02	1318,89
392,23	1230,83
392,43	1234,93
392,64	1331,18
392,85	1318,89
393,06	1314,80
393,27	1290,22
393,47	1333,23
393,68	1277,93
393,89	1273,84
394,10	1282,03
394,31	1329,13
394,52	1263,60
394,72	1226,73
394,93	1239,02
395,14	1236,97
395,35	1220,59
395,56	1255,40
395,76	1306,60
395,97	1302,51
396,18	1288,17
396,39	1290,22
396,60	1304,56
396,80	1331,18
397,01	1347,56
397,22	1269,74
397,43	1279,98
397,64	1277,93
397,84	1228,78
398,05	1261,55
398,26	1300,46
398,47	1286,12
398,67	1257,45
398,88	1239,02
399,09	1245,16
399,30	1310,70
399,51	1306,60
399,71	1257,45
399,92	1245,16
400,13	1296,36
400,34	1249,26
400,54	1249,26
400,75	1288,17
400,96	1222,64
401,17	1265,64
401,37	1253,36
401,58	1255,40
401,79	1230,83
402,00	1286,12
402,21	1318,89
402,41	1200,11
402,62	1329,13
402,83	1279,98
403,04	1282,03
403,24	1290,22
403,45	1257,45
403,66	1298,41
403,87	1228,78
404,07	1198,06
404,28	1279,98
404,49	1306,60
404,70	1255,40
404,90	1261,55
405,11	1261,55
405,32	1269,74
405,52	1232,88
405,73	1259,50
405,94	1212,40
406,15	1257,45
406,35	1196,01
406,56	1304,56
406,77	1218,54
406,98	1232,88
407,18	1275,88
407,39	1322,99
407,60	1257,45
407,80	1314,80
408,01	1310,70
408,22	1318,89
408,43	1263,60
408,63	1259,50
408,84	1312,75
409,05	1208,30
409,25	1216,49
409,46	1329,13
409,67	1361,90
409,88	1284,08
410,08	1298,41
410,29	1288,17
410,50	1271,79
410,70	1312,75
410,91	1224,69
411,12	1279,98
411,32	1232,88
411,53	1255,40
411,74	1302,51
411,95	1263,60
412,15	1230,83
412,36	1290,22
412,57	1241,07
412,77	1241,07
412,98	1325,04
413,19	1329,13
413,39	1282,03
413,60	1298,41
413,81	1232,88
414,01	1253,36
414,22	1253,36
414,43	1327,08
414,63	1234,93
414,84	1298,41
415,05	1308,65
415,25	1282,03
415,46	1292,27
415,67	1333,23
415,87	1236,97
416,08	1230,83
416,29	1300,46
416,49	1232,88
416,70	1222,64
416,91	1218,54
417,11	1282,03
417,32	1253,36
417,53	1261,55
417,73	1265,64
417,94	1314,80
418,15	1337,32
418,35	1294,32
418,56	1222,64
418,77	1212,40
418,97	1288,17
419,18	1214,45
419,38	1265,64
419,59	1251,31
419,80	1265,64
420,00	1224,69
420,21	1206,25
420,42	1304,56
420,62	1241,07
420,83	1312,75
421,04	1241,07
421,24	1325,04
421,45	1187,82
421,65	1200,11
421,86	1251,31
422,07	1257,45
422,27	1202,16
422,48	1263,60
422,69	1228,78
422,89	1236,97
423,10	1228,78
423,30	1300,46
423,51	1241,07
423,72	1263,60
423,92	1310,70
424,13	1245,16
424,33	1314,80
424,54	1214,45
424,75	1294,32
424,95	1224,69
425,16	1314,80
425,36	1306,60
425,57	1234,93
425,78	1218,54
425,98	1265,64
426,19	1333,23
426,39	1234,93
426,60	1271,79
426,81	1282,03
427,01	1298,41
427,22	1325,04
427,42	1251,31
427,63	1265,64
427,83	1236,97
428,04	1267,69
428,25	1218,54
428,45	1275,88
428,66	1249,26
428,86	1157,10
429,07	1261,55
429,28	1275,88
429,48	1224,69
429,69	1296,36
429,89	1304,56
430,10	1282,03
430,30	1265,64
430,51	1304,56
430,71	1206,25
430,92	1210,35
431,13	1312,75
431,33	1306,60
431,54	1234,93
431,74	1269,74
431,95	1265,64
432,15	1294,32
432,36	1251,31
432,56	1347,56
432,77	1220,59
432,98	1239,02
433,18	1253,36
433,39	1316,84
433,59	1312,75
433,80	1282,03
434,00	1261,55
434,21	1271,79
434,41	1271,79
434,62	1329,13
434,82	1241,07
435,03	1249,26
435,23	1259,50
435,44	1224,69
435,64	1273,84
435,85	1228,78
436,06	1253,36
436,26	1232,88
436,47	1251,31
436,67	1277,93
436,88	1257,45
437,08	1284,08
437,29	1314,80
437,49	1232,88
437,70	1255,40
437,90	1277,93
438,11	1257,45
438,31	1300,46
438,52	1247,21
438,72	1288,17
438,93	1318,89
439,13	1314,80
439,34	1316,84
439,54	1228,78
439,75	1249,26
439,95	1273,84
440,16	1198,06
440,36	1265,64
440,57	1259,50
440,77	1259,50
440,98	1259,50
441,18	1347,56
441,39	1316,84
441,59	1273,84
441,80	1183,73
442,00	1288,17
442,21	1302,51
442,41	1257,45
442,62	1232,88
442,82	1263,60
443,02	1218,54
443,23	1341,42
443,43	1279,98
443,64	1253,36
443,84	1243,12
444,05	1241,07
444,25	1314,80
444,46	1290,22
444,66	1296,36
444,87	1388,52
445,07	1226,73
445,28	1236,97
445,48	1318,89
445,69	1273,84
445,89	1224,69
446,09	1286,12
446,30	1314,80
446,50	1249,26
446,71	1255,40
446,91	1251,31
447,12	1265,64
447,32	1316,84
447,53	1341,42
447,73	1282,03
447,93	1259,50
448,14	1273,84
448,34	1347,56
448,55	1284,08
448,75	1320,94
448,96	1267,69
449,16	1259,50
449,36	1275,88
449,57	1282,03
449,77	1292,27
449,98	1290,22
450,18	1331,18
450,39	1236,97
450,59	1249,26
450,79	1296,36
451,00	1245,16
451,20	1239,02
451,41	1312,75
451,61	1286,12
451,81	1263,60
452,02	1286,12
452,22	1277,93
452,43	1257,45
452,63	1269,74
452,84	1218,54
453,04	1212,40
453,24	1247,21
453,45	1296,36
453,65	1294,32
453,86	1347,56
454,06	1224,69
454,26	1331,18
454,47	1296,36
454,67	1298,41
454,87	1257,45
455,08	1226,73
455,28	1327,08
455,49	1277,93
455,69	1189,87
455,89	1302,51
456,10	1249,26
456,30	1241,07
456,51	1234,93
456,71	1306,60
456,91	1263,60
457,12	1263,60
457,32	1296,36
457,52	1230,83
457,73	1435,63
457,93	1187,82
458,14	1259,50
458,34	1279,98
458,54	1257,45
458,75	1296,36
458,95	1359,85
459,15	1296,36
459,36	1366,00
459,56	1298,41
459,76	1304,56
459,97	1249,26
460,17	1216,49
460,37	1288,17
460,58	1267,69
460,78	1263,60
460,99	1165,29
461,19	1325,04
461,39	1220,59
461,60	1306,60
461,80	1282,03
462,00	1296,36
462,21	1249,26
462,41	1271,79
462,61	1251,31
462,82	1241,07
463,02	1275,88
463,22	1200,11
463,43	1245,16
463,63	1286,12
463,83	1230,83
464,04	1341,42
464,24	1296,36
464,44	1290,22
464,64	1236,97
464,85	1218,54
465,05	1308,65
465,25	1191,92
465,46	1249,26
465,66	1273,84
465,86	1230,83
466,07	1275,88
466,27	1236,97
466,47	1206,25
466,68	1267,69
466,88	1222,64
467,08	1318,89
467,29	1288,17
467,49	1310,70
467,69	1232,88
467,89	1331,18
468,10	1220,59
468,30	1343,47
468,50	1204,21
468,71	1273,84
468,91	1329,13
469,11	1263,60
469,31	1255,40
469,52	1294,32
469,72	1245,16
469,92	1224,69
470,13	1273,84
470,33	1265,64
470,53	1294,32
470,73	1208,30
470,94	1200,11
471,14	1279,98
471,34	1339,37
471,54	1220,59
471,75	1239,02
471,95	1273,84
472,15	1249,26
472,36	1265,64
472,56	1312,75
472,76	1265,64
472,96	1208,30
473,17	1247,21
473,37	1304,56
473,57	1310,70
473,77	1269,74
473,98	1255,40
474,18	1210,35
474,38	1224,69
474,58	1300,46
474,79	1318,89
474,99	1273,84
475,19	1286,12
475,39	1300,46
475,60	1257,45
475,80	1279,98
476,00	1218,54
476,20	1230,83
476,41	1265,64
476,61	1318,89
476,81	1241,07
477,01	1327,08
477,21	1327,08
477,42	1253,36
477,62	1216,49
477,82	1210,35
478,02	1230,83
478,23	1279,98
478,43	1284,08
478,63	1251,31
478,83	1284,08
479,03	1296,36
479,24	1230,83
479,44	1220,59
479,64	1282,03
479,84	1273,84
480,04	1312,75
480,25	1249,26
480,45	1226,73
480,65	1249,26
480,85	1236,97
481,06	1269,74
481,26	1222,64
481,46	1265,64
481,66	1222,64
481,86	1263,60
482,06	1214,45
482,27	1359,85
482,47	1257,45
482,67	1263,60
482,87	1249,26
483,07	1241,07
483,28	1304,56
483,48	1363,95
483,68	1298,41
483,88	1275,88
484,08	1318,89
484,29	1263,60
484,49	1265,64
484,69	1273,84
484,89	1253,36
485,09	1257,45
485,29	1243,12
485,50	1232,88
485,70	1288,17
485,90	1325,04
486,10	1228,78
486,30	1261,55
486,50	1247,21
486,71	1271,79
486,91	1288,17
487,11	1259,50
487,31	1257,45
487,51	1196,01
487,71	1304,56
487,91	1245,16
488,12	1294,32
488,32	1239,02
488,52	1239,02
488,72	1335,28
488,92	1329,13
489,12	1257,45
489,32	1243,12
489,53	1224,69
489,73	1343,47
489,93	1261,55
490,13	1245,16
490,33	1218,54
490,53	1255,40
490,73	1277,93
490,94	1273,84
491,14	1306,60
491,34	1251,31
491,54	1314,80
491,74	1206,25
491,94	1337,32
492,14	1228,78
492,34	1226,73
492,54	1327,08
492,75	1261,55
492,95	1269,74
493,15	1294,32
493,35	1257,45
493,55	1300,46
493,75	1294,32
493,95	1320,94
494,15	1318,89
494,35	1185,77
494,56	1271,79
494,76	1241,07
494,96	1286,12
495,16	1304,56
495,36	1290,22
495,56	1304,56
495,76	1300,46
495,96	1294,32
496,16	1277,93
496,36	1290,22
496,56	1257,45
496,77	1253,36
496,97	1247,21
497,17	1331,18
497,37	1236,97
497,57	1273,84
497,77	1304,56
497,97	1255,40
498,17	1306,60
498,37	1275,88
498,57	1226,73
498,77	1271,79
498,97	1253,36
499,17	1243,12
499,38	1251,31
499,58	1257,45
499,78	1288,17
499,98	1263,60
500,18	1222,64
500,38	1265,64
500,58	1255,40
500,78	1284,08
500,98	1232,88
501,18	1380,33
501,38	1228,78
501,58	1312,75
501,78	1210,35
501,98	1320,94
502,18	1214,45
502,38	1275,88
502,58	1273,84
502,78	1282,03
502,98	1245,16
503,18	1259,50
503,38	1284,08
503,59	1296,36
503,79	1318,89
503,99	1322,99
504,19	1224,69
504,39	1296,36
504,59	1255,40
504,79	1179,63
504,99	1290,22
505,19	1204,21
505,39	1271,79
505,59	1298,41
505,79	1224,69
505,99	1312,75
506,19	1279,98
506,39	1232,88
506,59	1333,23
506,79	1296,36
506,99	1208,30
507,19	1200,11
507,39	1279,98
507,59	1265,64
507,79	1236,97
507,99	1245,16
508,19	1259,50
508,39	1273,84
508,59	1298,41
508,79	1222,64
508,99	1255,40
509,19	1277,93
509,39	1282,03
509,59	1370,09
509,79	1310,70
509,99	1236,97
510,19	1331,18
510,39	1253,36
510,59	1306,60
510,79	1191,92
510,99	1232,88
511,19	1290,22
511,39	1263,60
511,59	1282,03
511,79	1255,40
511,99	1282,03
512,19	1230,83
512,38	1200,11
512,58	1298,41
512,78	1282,03
512,98	1325,04
513,18	1333,23
513,38	1282,03
513,58	1265,64
513,78	1263,60
513,98	1337,32
514,18	1277,93
514,38	1218,54
514,58	1335,28
514,78	1251,31
514,98	1220,59
515,18	1316,84
515,38	1261,55
515,58	1265,64
515,78	1204,21
515,98	1361,90
516,18	1320,94
516,38	1304,56
516,57	1286,12
516,77	1318,89
516,97	1253,36
517,17	1298,41
517,37	1269,74
517,57	1263,60
517,77	1286,12
517,97	1312,75
518,17	1257,45
518,37	1279,98
518,57	1239,02
518,77	1337,32
518,97	1265,64
519,16	1282,03
519,36	1232,88
519,56	1239,02
519,76	1265,64
519,96	1234,93
520,16	1273,84
520,36	1337,32
520,56	1298,41
520,76	1292,27
520,96	1331,18
521,16	1294,32
521,35	1290,22
521,55	1322,99
521,75	1347,56
521,95	1247,21
522,15	1294,32
522,35	1232,88
522,55	1300,46
522,75	1269,74
522,95	1302,51
523,14	1243,12
523,34	1249,26
523,54	1222,64
523,74	1261,55
523,94	1296,36
524,14	1228,78
524,34	1298,41
524,54	1202,16
524,73	1263,60
524,93	1357,80
525,13	1292,27
525,33	1300,46
525,53	1259,50
525,73	1284,08
525,93	1320,94
526,13	1247,21
526,32	1304,56
526,52	1202,16
526,72	1347,56
526,92	1249,26
527,12	1329,13
527,32	1288,17
527,52	1269,74
527,71	1292,27
527,91	1228,78
528,11	1271,79
528,31	1279,98
528,51	1222,64
528,71	1310,70
528,90	1329,13
529,10	1296,36
529,30	1288,17
529,50	1277,93
529,70	1298,41
529,90	1243,12
530,09	1290,22
530,29	1234,93
530,49	1277,93
530,69	1304,56
530,89	1298,41
531,09	1183,73
531,28	1337,32
531,48	1253,36
531,68	1245,16
531,88	1318,89
532,08	1327,08
532,28	1251,31
532,47	1234,93
532,67	1347,56
532,87	1316,84
533,07	1191,92
533,27	1261,55
533,46	1327,08
533,66	1288,17
533,86	1263,60
534,06	1243,12
534,26	1298,41
534,45	1327,08
534,65	1318,89
534,85	1318,89
535,05	1261,55
535,25	1271,79
535,44	1249,26
535,64	1187,82
535,84	1312,75
536,04	1316,84
536,24	1279,98
536,43	1296,36
536,63	1306,60
536,83	1255,40
537,03	1214,45
537,22	1245,16
537,42	1288,17
537,62	1267,69
537,82	1234,93
538,02	1316,84
538,21	1243,12
538,41	1296,36
538,61	1171,44
538,81	1302,51
539,00	1265,64
539,20	1261,55
539,40	1275,88
539,60	1284,08
539,79	1376,24
539,99	1267,69
540,19	1312,75
540,39	1290,22
540,58	1230,83
540,78	1261,55
540,98	1271,79
541,18	1286,12
541,37	1239,02
541,57	1232,88
541,77	1329,13
541,97	1320,94
542,16	1288,17
542,36	1243,12
542,56	1269,74
542,76	1335,28
542,95	1282,03
543,15	1286,12
543,35	1333,23
543,54	1290,22
543,74	1257,45
543,94	1300,46
544,14	1355,76
544,33	1282,03
544,53	1296,36
544,73	1224,69
544,93	1222,64
545,12	1273,84
545,32	1370,09
545,52	1275,88
545,71	1363,95
545,91	1322,99
546,11	1300,46
546,30	1212,40
546,50	1230,83
546,70	1267,69
546,90	1253,36
547,09	1308,65
547,29	1220,59
547,49	1279,98
547,68	1200,11
547,88	1257,45
548,08	1286,12
548,27	1327,08
548,47	1255,40
548,67	1318,89
548,87	1351,66
549,06	1277,93
549,26	1255,40
549,46	1329,13
549,65	1388,52
549,85	1327,08
550,05	1294,32
550,24	1265,64
550,44	1263,60
550,64	1239,02
550,83	1298,41
551,03	1251,31
551,23	1322,99
551,42	1273,84
551,62	1304,56
551,82	1296,36
552,01	1267,69
552,21	1308,65
552,41	1220,59
552,60	1257,45
552,80	1247,21
553,00	1206,25
553,19	1253,36
553,39	1249,26
553,59	1271,79
553,78	1236,97
553,98	1241,07
554,17	1255,40
554,37	1306,60
554,57	1247,21
554,76	1259,50
554,96	1286,12
555,16	1267,69
555,35	1275,88
555,55	1255,40
555,75	1302,51
555,94	1261,55
556,14	1290,22
556,33	1308,65
556,53	1279,98
556,73	1306,60
556,92	1239,02
557,12	1298,41
557,32	1269,74
557,51	1273,84
557,71	1343,47
557,90	1298,41
558,10	1312,75
558,30	1216,49
558,49	1290,22
558,69	1267,69
558,88	1284,08
559,08	1282,03
559,28	1257,45
559,47	1253,36
559,67	1290,22
559,86	1333,23
560,06	1335,28
560,26	1224,69
560,45	1277,93
560,65	1316,84
560,84	1257,45
561,04	1351,66
561,24	1322,99
561,43	1255,40
561,63	1331,18
561,82	1296,36
562,02	1253,36
562,22	1347,56
562,41	1216,49
562,61	1296,36
562,80	1325,04
563,00	1265,64
563,19	1275,88
563,39	1263,60
563,59	1310,70
563,78	1243,12
563,98	1355,76
564,17	1265,64
564,37	1279,98
564,56	1277,93
564,76	1329,13
564,96	1345,52
565,15	1185,77
565,35	1261,55
565,54	1228,78
565,74	1279,98
565,93	1288,17
566,13	1263,60
566,32	1310,70
566,52	1296,36
566,71	1294,32
566,91	1251,31
567,11	1208,30
567,30	1249,26
567,50	1300,46
567,69	1314,80
567,89	1288,17
568,08	1306,60
568,28	1298,41
568,47	1277,93
568,67	1292,27
568,86	1257,45
569,06	1263,60
569,25	1300,46
569,45	1310,70
569,64	1329,13
569,84	1222,64
570,04	1247,21
570,23	1241,07
570,43	1286,12
570,62	1290,22
570,82	1380,33
571,01	1216,49
571,21	1230,83
571,40	1284,08
571,60	1249,26
571,79	1249,26
571,99	1290,22
572,18	1318,89
572,38	1271,79
572,57	1288,17
572,77	1259,50
572,96	1327,08
573,16	1282,03
573,35	1288,17
573,55	1216,49
573,74	1220,59
573,94	1306,60
574,13	1234,93
574,33	1298,41
574,52	1271,79
574,71	1265,64
574,91	1312,75
575,10	1277,93
575,30	1241,07
575,49	1279,98
575,69	1271,79
575,88	1286,12
576,08	1249,26
576,27	1271,79
576,47	1253,36
576,66	1249,26
576,86	1339,37
577,05	1259,50
577,25	1282,03
577,44	1372,14
577,64	1259,50
577,83	1329,13
578,02	1247,21
578,22	1402,86
578,41	1273,84
578,61	1269,74
578,80	1275,88
579,00	1339,37
579,19	1249,26
579,39	1310,70
579,58	1232,88
579,77	1310,70
579,97	1286,12
580,16	1253,36
580,36	1222,64
580,55	1382,38
580,75	1292,27
580,94	1286,12
581,13	1228,78
581,33	1331,18
581,52	1228,78
581,72	1341,42
581,91	1300,46
582,11	1331,18
582,30	1239,02
582,49	1271,79
582,69	1271,79
582,88	1304,56
583,08	1253,36
583,27	1308,65
583,47	1261,55
583,66	1337,32
583,85	1206,25
584,05	1294,32
584,24	1175,53
584,44	1257,45
584,63	1290,22
584,82	1171,44
585,02	1335,28
585,21	1302,51
585,41	1271,79
585,60	1294,32
585,79	1282,03
585,99	1339,37
586,18	1300,46
586,37	1218,54
586,57	1304,56
586,76	1298,41
586,96	1263,60
587,15	1241,07
587,34	1277,93
587,54	1308,65
587,73	1316,84
587,93	1267,69
588,12	1376,24
588,31	1382,38
588,51	1294,32
588,70	1279,98
588,89	1216,49
589,09	1339,37
589,28	1282,03
589,47	1255,40
589,67	1318,89
589,86	1257,45
590,06	1310,70
590,25	1275,88
590,44	1261,55
590,64	1302,51
590,83	1300,46
591,02	1322,99
591,22	1310,70
591,41	1273,84
591,60	1241,07
591,80	1232,88
591,99	1271,79
592,18	1370,09
592,38	1245,16
592,57	1236,97
592,76	1318,89
592,96	1284,08
593,15	1239,02
593,34	1316,84
593,54	1286,12
593,73	1269,74
593,92	1230,83
594,12	1294,32
594,31	1228,78
594,50	1239,02
594,70	1277,93
594,89	1220,59
595,08	1318,89
595,28	1298,41
595,47	1255,40
595,66	1271,79
595,86	1265,64
596,05	1312,75
596,24	1245,16
596,43	1212,40
596,63	1304,56
596,82	1277,93
597,01	1302,51
597,21	1302,51
597,40	1288,17
597,59	1345,52
597,79	1312,75
597,98	1265,64
598,17	1245,16
598,36	1282,03
598,56	1337,32
598,75	1298,41
598,94	1282,03
599,14	1263,60
599,33	1232,88
599,52	1284,08
599,71	1325,04
599,91	1220,59
600,10	1349,61
600,29	1259,50
600,48	1226,73
600,68	1273,84
600,87	1318,89
601,06	1249,26
601,26	1265,64
601,45	1208,30
601,64	1251,31
601,83	1292,27
602,03	1339,37
602,22	1232,88
602,41	1226,73
602,60	1353,71
602,80	1316,84
602,99	1265,64
603,18	1308,65
603,37	1306,60
603,57	1282,03
603,76	1304,56
603,95	1325,04
604,14	1314,80
604,34	1253,36
604,53	1318,89
604,72	1286,12
604,91	1273,84
605,10	1298,41
605,30	1224,69
605,49	1271,79
605,68	1314,80
605,87	1351,66
606,07	1249,26
606,26	1294,32
606,45	1218,54
606,64	1245,16
606,84	1314,80
607,03	1220,59
607,22	1187,82
607,41	1290,22
607,60	1259,50
607,80	1290,22
607,99	1290,22
608,18	1253,36
608,37	1312,75
608,56	1273,84
608,76	1247,21
608,95	1273,84
609,14	1263,60
609,33	1251,31
609,52	1267,69
609,72	1236,97
609,91	1331,18
610,10	1290,22
610,29	1359,85
610,48	1257,45
610,68	1351,66
610,87	1288,17
611,06	1259,50
611,25	1232,88
611,44	1263,60
611,63	1345,52
611,83	1286,12
612,02	1298,41
612,21	1302,51
612,40	1288,17
612,59	1226,73
612,79	1333,23
612,98	1263,60
613,17	1236,97
613,36	1312,75
613,55	1333,23
613,74	1312,75
613,93	1292,27
614,13	1253,36
614,32	1220,59
614,51	1306,60
614,70	1380,33
614,89	1310,70
615,08	1306,60
615,28	1296,36
615,47	1282,03
615,66	1314,80
615,85	1222,64
616,04	1298,41
616,23	1210,35
616,42	1263,60
616,62	1275,88
616,81	1271,79
617,00	1269,74
617,19	1341,42
617,38	1261,55
617,57	1257,45
617,76	1320,94
617,95	1243,12
618,15	1339,37
618,34	1314,80
618,53	1286,12
618,72	1308,65
618,91	1228,78
619,10	1322,99
619,29	1275,88
619,48	1265,64
619,68	1355,76
619,87	1263,60
620,06	1318,89
620,25	1284,08
620,44	1269,74
620,63	1267,69
620,82	1265,64
621,01	1273,84
621,20	1361,90
621,39	1210,35
621,59	1241,07
621,78	1243,12
621,97	1304,56
622,16	1286,12
622,35	1298,41
622,54	1294,32
622,73	1322,99
622,92	1314,80
623,11	1279,98
623,30	1261,55
623,49	1290,22
623,68	1277,93
623,88	1267,69
624,07	1198,06
624,26	1263,60
624,45	1230,83
624,64	1253,36
624,83	1249,26
625,02	1288,17
625,21	1288,17
625,40	1275,88
625,59	1296,36
625,78	1286,12
625,97	1263,60
626,16	1282,03
626,35	1286,12
626,54	1273,84
626,74	1347,56
626,93	1318,89
627,12	1249,26
627,31	1277,93
627,50	1312,75
627,69	1322,99
627,88	1222,64
628,07	1257,45
628,26	1320,94
628,45	1304,56
628,64	1271,79
628,83	1296,36
629,02	1275,88
629,21	1247,21
629,40	1329,13
629,59	1257,45
629,78	1366,00
629,97	1359,85
630,16	1269,74
630,35	1296,36
630,54	1368,04
630,73	1290,22
630,92	1349,61
631,11	1310,70
631,30	1310,70
631,49	1347,56
631,68	1728,49
631,87	6657,95
632,06	27301,47
632,25	58344,58
632,44	48291,10
632,63	34887,15
632,82	30180,92
633,01	7759,75
633,20	3641,29
633,39	3168,21
633,58	2879,44
633,77	2064,35
633,96	1826,79
634,15	1781,73
634,34	1746,92
634,53	1654,76
634,72	1605,61
634,91	1564,65
635,10	1505,26
635,29	1501,16
635,48	1464,30
635,67	1484,78
635,86	1468,39
636,05	1394,67
636,24	1402,86
636,43	1325,04
636,62	1339,37
636,81	1302,51
637,00	1296,36
637,19	1331,18
637,38	1355,76
637,57	1370,09
637,76	1353,71
637,95	1314,80
638,14	1306,60
638,33	1347,56
638,52	1316,84
638,71	1236,97
638,89	1202,16
639,08	1236,97
639,27	1304,56
639,46	1290,22
639,65	1286,12
639,84	1198,06
640,03	1292,27
640,22	1269,74
640,41	1286,12
640,60	1222,64
640,79	1363,95
640,98	1302,51
641,17	1320,94
641,36	1277,93
641,55	1251,31
641,74	1265,64
641,92	1284,08
642,11	1269,74
642,30	1320,94
642,49	1239,02
642,68	1273,84
642,87	1320,94
643,06	1337,32
643,25	1226,73
643,44	1306,60
643,63	1329,13
643,82	1239,02
644,00	1316,84
644,19	1294,32
644,38	1218,54
644,57	1292,27
644,76	1257,45
644,95	1267,69
645,14	1275,88
645,33	1331,18
645,52	1282,03
645,71	1263,60
645,89	1275,88
646,08	1277,93
646,27	1306,60
646,46	1243,12
646,65	1247,21
646,84	1263,60
647,03	1314,80
647,22	1314,80
647,40	1290,22
647,59	1257,45
647,78	1249,26
647,97	1290,22
648,16	1286,12
648,35	1241,07
648,54	1331,18
648,73	1198,06
648,91	1284,08
649,10	1304,56
649,29	1290,22
649,48	1284,08
649,67	1259,50
649,86	1337,32
650,05	1290,22
650,23	1249,26
650,42	1306,60
650,61	1390,57
650,80	1322,99
650,99	1247,21
651,18	1275,88
651,36	1316,84
651,55	1327,08
651,74	1216,49
651,93	1243,12
652,12	1308,65
652,31	1232,88
652,49	1241,07
652,68	1327,08
652,87	1292,27
653,06	1333,23
653,25	1261,55
653,44	1325,04
653,62	1206,25
653,81	1249,26
654,00	1300,46
654,19	1263,60
654,38	1302,51
654,56	1282,03
654,75	1288,17
654,94	1312,75
655,13	1236,97
655,32	1298,41
655,51	1261,55
655,69	1236,97
655,88	1232,88
656,07	1273,84
656,26	1310,70
656,45	1298,41
656,63	1267,69
656,82	1269,74
657,01	1263,60
657,20	1259,50
657,38	1241,07
657,57	1257,45
657,76	1271,79
657,95	1306,60
658,14	1259,50
658,32	1277,93
658,51	1261,55
658,70	1300,46
658,89	1208,30
659,08	1228,78
659,26	1245,16
659,45	1320,94
659,64	1331,18
659,83	1243,12
660,01	1273,84
660,20	1247,21
660,39	1267,69
660,58	1337,32
660,76	1269,74
660,95	1239,02
661,14	1304,56
661,33	1279,98
661,51	1232,88
661,70	1296,36
661,89	1331,18
662,08	1277,93
662,26	1286,12
662,45	1220,59
662,64	1396,71
662,83	1353,71
663,01	1292,27
663,20	1294,32
663,39	1261,55
663,58	1196,01
663,76	1302,51
663,95	1284,08
664,14	1273,84
664,32	1345,52
664,51	1243,12
664,70	1282,03
664,89	1304,56
665,07	1196,01
665,26	1300,46
665,45	1261,55
665,64	1243,12
665,82	1279,98
666,01	1306,60
666,20	1253,36
666,38	1259,50
666,57	1282,03
666,76	1277,93
666,95	1288,17
667,13	1304,56
667,32	1265,64
667,51	1290,22
667,69	1259,50
667,88	1257,45
668,07	1212,40
668,25	1271,79
668,44	1228,78
668,63	1282,03
668,81	1193,97
669,00	1310,70
669,19	1243,12
669,38	1327,08
669,56	1269,74
669,75	1204,21
669,94	1273,84
670,12	1306,60
670,31	1239,02
670,50	1263,60
670,68	1288,17
670,87	1255,40
671,06	1210,35
671,24	1279,98
671,43	1300,46
671,62	1298,41
671,80	1245,16
671,99	1245,16
672,18	1322,99
672,36	1241,07
672,55	1249,26
672,74	1290,22
672,92	1251,31
673,11	1329,13
673,29	1239,02
673,48	1239,02
673,67	1316,84
673,85	1302,51
674,04	1265,64
674,23	1191,92
674,41	1198,06
674,60	1331,18
674,79	1298,41
674,97	1290,22
675,16	1247,21
675,34	1265,64
675,53	1241,07
675,72	1230,83
675,90	1253,36
676,09	1239,02
676,28	1298,41
676,46	1306,60
676,65	1267,69
676,83	1265,64
677,02	1290,22
677,21	1318,89
677,39	1312,75
677,58	1273,84
677,77	1300,46
677,95	1265,64
678,14	1265,64
678,32	1265,64
678,51	1343,47
678,70	1298,41
678,88	1349,61
679,07	1282,03
679,25	1298,41
679,44	1322,99
679,63	1290,22
679,81	1294,32
680,00	1282,03
680,18	1288,17
680,37	1273,84
680,55	1253,36
680,74	1277,93
680,93	1288,17
681,11	1290,22
681,30	1191,92
681,48	1198,06
681,67	1308,65
681,85	1286,12
682,04	1247,21
682,23	1312,75
682,41	1322,99
682,60	1208,30
682,78	1300,46
682,97	1261,55
683,15	1245,16
683,34	1247,21
683,53	1306,60
683,71	1277,93
683,90	1314,80
684,08	1310,70
684,27	1212,40
684,45	1206,25
684,64	1239,02
684,82	1286,12
685,01	1302,51
685,19	1288,17
685,38	1146,86
685,57	1241,07
685,75	1304,56
685,94	1247,21
686,12	1253,36
686,31	1263,60
686,49	1228,78
686,68	1269,74
686,86	1261,55
687,05	1279,98
687,23	1191,92
687,42	1259,50
687,60	1220,59
687,79	1329,13
687,97	1327,08
688,16	1245,16
688,34	1284,08
688,53	1327,08
688,71	1318,89
688,90	1294,32
689,08	1279,98
689,27	1265,64
689,45	1308,65
689,64	1261,55
689,82	1339,37
690,01	1261,55
690,19	1222,64
690,38	1286,12
690,56	1351,66
690,75	1245,16
690,93	1241,07
691,12	1265,64
691,30	1290,22
691,49	1224,69
691,67	1335,28
691,86	1236,97
692,04	1273,84
692,23	1288,17
692,41	1271,79
692,60	1308,65
692,78	1271,79
692,97	1251,31
693,15	1255,40
693,34	1302,51
693,52	1314,80
693,71	1208,30
693,89	1322,99
694,08	1265,64
694,26	1253,36
694,44	1185,77
694,63	1259,50
694,81	1277,93
695,00	1294,32
695,18	1288,17
695,37	1269,74
695,55	1214,45
695,74	1288,17
695,92	1267,69
696,10	1132,53
696,29	1267,69
696,47	1318,89
696,66	1224,69
696,84	1257,45
697,03	1265,64
697,21	1322,99
697,40	1335,28
697,58	1347,56
697,76	1167,34
697,95	1224,69
698,13	1294,32
698,32	1306,60
698,50	1214,45
698,68	1243,12
698,87	1271,79
699,05	1243,12
699,24	1306,60
699,42	1234,93
699,61	1288,17
699,79	1284,08
699,97	1239,02
700,16	1282,03
700,34	1304,56
700,53	1241,07
700,71	1353,71
700,89	1322,99
701,08	1263,60
701,26	1292,27
701,45	1261,55
701,63	1316,84
701,81	1222,64
702,00	1222,64
702,18	1284,08
702,37	1271,79
702,55	1261,55
702,73	1216,49
702,92	1214,45
703,10	1206,25
703,28	1249,26
703,47	1234,93
703,65	1286,12
703,84	1322,99
704,02	1210,35
704,20	1255,40
704,39	1239,02
704,57	1230,83
704,75	1261,55
704,94	1282,03
705,12	1277,93
705,30	1220,59
705,49	1247,21
705,67	1251,31
705,86	1282,03
706,04	1282,03
706,22	1308,65
706,41	1253,36
706,59	1333,23
706,77	1290,22
706,96	1318,89
707,14	1228,78
707,32	1253,36
707,51	1265,64
707,69	1273,84
707,87	1284,08
708,06	1241,07
708,24	1277,93
708,42	1234,93
708,61	1204,21
708,79	1239,02
708,97	1284,08
709,16	1302,51
709,34	1218,54
709,52	1226,73
709,71	1216,49
709,89	1347,56
710,07	1175,53
710,26	1253,36
710,44	1298,41
710,62	1277,93
710,80	1263,60
710,99	1273,84
711,17	1335,28
711,35	1228,78
711,54	1259,50
711,72	1261,55
711,90	1267,69
712,09	1253,36
712,27	1263,60
712,45	1189,87
712,63	1314,80
712,82	1329,13
713,00	1288,17
713,18	1304,56
713,37	1304,56
713,55	1253,36
713,73	1259,50
713,91	1236,97
714,10	1259,50
714,28	1269,74
714,46	1265,64
714,65	1247,21
714,83	1290,22
715,01	1261,55
715,19	1292,27
715,38	1191,92
715,56	1271,79
715,74	1306,60
715,92	1214,45
716,11	1298,41
716,29	1318,89
716,47	1267,69
716,65	1302,51
716,84	1230,83
717,02	1257,45
717,20	1230,83
717,38	1208,30
717,57	1239,02
717,75	1226,73
717,93	1247,21
718,11	1200,11
718,30	1181,68
718,48	1341,42
718,66	1290,22
718,84	1259,50
719,03	1277,93
719,21	1277,93
719,39	1222,64
719,57	1236,97
719,75	1243,12
719,94	1230,83
720,12	1204,21
720,30	1288,17
720,48	1300,46
720,67	1181,68
720,85	1247,21
721,03	1275,88
721,21	1208,30
721,39	1259,50
721,58	1259,50
721,76	1243,12
721,94	1189,87
722,12	1265,64
722,30	1286,12
722,49	1294,32
722,67	1335,28
722,85	1243,12
723,03	1298,41
723,21	1310,70
723,40	1255,40
723,58	1294,32
723,76	1290,22
723,94	1292,27
724,12	1298,41
724,30	1241,07
724,49	1249,26
724,67	1331,18
724,85	1255,40
725,03	1249,26
725,21	1290,22
725,40	1298,41
725,58	1220,59
725,76	1230,83
725,94	1298,41
726,12	1273,84
726,30	1261,55
726,49	1275,88
726,67	1339,37
726,85	1273,84
727,03	1318,89
727,21	1320,94
727,39	1269,74
727,57	1269,74
727,76	1251,31
727,94	1241,07
728,12	1308,65
728,30	1239,02
728,48	1253,36
728,66	1282,03
728,84	1257,45
729,03	1308,65
729,21	1202,16
729,39	1249,26
729,57	1234,93
729,75	1257,45
729,93	1275,88
730,11	1282,03
730,30	1302,51
730,48	1247,21
730,66	1273,84
730,84	1292,27
731,02	1167,34
731,20	1269,74
731,38	1284,08
731,56	1304,56
731,74	1267,69
731,93	1335,28
732,11	1226,73
732,29	1265,64
732,47	1322,99
732,65	1275,88
732,83	1341,42
733,01	1286,12
733,19	1245,16
733,37	1273,84
733,56	1308,65
733,74	1310,70
733,92	1249,26
734,10	1249,26
734,28	1243,12
734,46	1292,27
734,64	1177,58
734,82	1308,65
735,00	1267,69
735,18	1232,88
735,36	1284,08
735,54	1263,60
735,73	1366,00
735,91	1279,98
736,09	1325,04
736,27	1306,60
736,45	1277,93
736,63	1228,78
736,81	1234,93
736,99	1271,79
737,17	1265,64
737,35	1306,60
737,53	1288,17
737,71	1320,94
737,89	1228,78
738,07	1304,56
738,25	1296,36
738,43	1304,56
738,61	1292,27
738,80	1247,21
738,98	1202,16
739,16	1292,27
739,34	1243,12
739,52	1318,89
739,70	1298,41
739,88	1316,84
740,06	1230,83
740,24	1222,64
740,42	1259,50
740,60	1214,45
740,78	1224,69
740,96	1251,31
741,14	1331,18
741,32	1232,88
741,50	1310,70
741,68	1232,88
741,86	1310,70
742,04	1288,17
742,22	1247,21
742,40	1206,25
742,58	1241,07
742,76	1296,36
742,94	1245,16
743,12	1275,88
743,30	1263,60
743,48	1273,84
743,66	1247,21
743,84	1290,22
744,02	1273,84
744,20	1306,60
744,38	1249,26
744,56	1265,64
744,74	1228,78
744,92	1261,55
745,10	1236,97
745,28	1253,36
745,46	1234,93
745,64	1245,16
745,82	1345,52
746,00	1284,08
746,18	1337,32
746,36	1310,70
746,54	1208,30
746,72	1265,64
746,90	1214,45
747,08	1314,80
747,26	1253,36
747,44	1275,88
747,62	1253,36
747,80	1247,21
747,98	1241,07
748,15	1232,88
748,33	1353,71
748,51	1273,84
748,69	1236,97
748,87	1273,84
749,05	1302,51
749,23	1302,51
749,41	1294,32
749,59	1355,76
749,77	1329,13
749,95	1290,22
750,13	1267,69
750,31	1267,69
750,49	1230,83
750,67	1335,28
750,85	1310,70
751,03	1208,30
751,20	1335,28
751,38	1290,22
751,56	1294,32
751,74	1308,65
751,92	1273,84
752,10	1265,64
752,28	1255,40
752,46	1202,16
752,64	1290,22
752,82	1218,54
753,00	1187,82
753,18	1310,70
753,35	1216,49
753,53	1279,98
753,71	1267,69
753,89	1320,94
754,07	1232,88
754,25	1212,40
754,43	1177,58
754,61	1275,88
754,79	1220,59
754,97	1294,32
755,14	1230,83
755,32	1271,79
755,50	1224,69
755,68	1316,84
755,86	1249,26
756,04	1216,49
756,22	1312,75
756,40	1259,50
756,57	1306,60
756,75	1288,17
756,93	1224,69
757,11	1310,70
757,29	1243,12
757,47	1183,73
757,65	1206,25
757,82	1300,46
758,00	1304,56
758,18	1288,17
758,36	1224,69
758,54	1257,45
758,72	1220,59
758,90	1277,93
759,07	1257,45
759,25	1261,55
759,43	1247,21
759,61	1234,93
759,79	1345,52
759,97	1200,11
760,15	1288,17
760,32	1239,02
760,50	1347,56
760,68	1294,32
760,86	1273,84
761,04	1206,25
761,22	1284,08
761,39	1316,84
761,57	1255,40
761,75	1220,59
761,93	1304,56
762,11	1241,07
762,28	1304,56
762,46	1210,35
762,64	1306,60
762,82	1189,87
763,00	1236,97
763,18	1294,32
763,35	1236,97
763,53	1267,69
763,71	1263,60
763,89	1214,45
764,07	1304,56
764,24	1273,84
764,42	1247,21
764,60	1181,68
764,78	1241,07
764,96	1220,59
765,13	1271,79
765,31	1273,84
765,49	1265,64
765,67	1220,59
765,84	1265,64
766,02	1306,60
766,20	1198,06
766,38	1212,40
766,56	1220,59
766,73	1322,99
766,91	1298,41
767,09	1245,16
767,27	1255,40
767,44	1208,30
767,62	1210,35
767,80	1275,88
767,98	1257,45
768,15	1277,93
768,33	1257,45
768,51	1306,60
768,69	1304,56
768,87	1224,69
769,04	1306,60
769,22	1335,28
769,40	1255,40
769,58	1335,28
769,75	1183,73
769,93	1247,21
770,11	1263,60
770,28	1257,45
770,46	1300,46
770,64	1290,22
770,82	1279,98
770,99	1312,75
771,17	1265,64
771,35	1228,78
771,53	1271,79
771,70	1296,36
771,88	1306,60
772,06	1269,74
772,23	1208,30
772,41	1275,88
772,59	1255,40
772,77	1247,21
772,94	1269,74
773,12	1204,21
773,30	1282,03
773,47	1318,89
773,65	1161,20
773,83	1228,78
774,01	1200,11
774,18	1271,79
774,36	1296,36
774,54	1325,04
774,71	1167,34
774,89	1327,08
775,07	1245,16
775,24	1279,98
775,42	1208,30
775,60	1271,79
775,78	1245,16
775,95	1277,93
776,13	1327,08
776,31	1243,12
776,48	1239,02
776,66	1251,31
776,84	1255,40
777,01	1267,69
777,19	1243,12
777,37	1290,22
777,54	1337,32
777,72	1212,40
777,90	1198,06
778,07	1255,40
778,25	1288,17
778,43	1200,11
778,60	1239,02
778,78	1294,32
778,96	1239,02
779,13	1208,30
779,31	1216,49
779,49	1247,21
779,66	1236,97
779,84	1245,16
780,01	1245,16
780,19	1265,64
780,37	1335,28
780,54	1282,03
780,72	1277,93
780,90	1241,07
781,07	1279,98
781,25	1273,84
781,43	1222,64
781,60	1296,36
781,78	1255,40
781,95	1249,26
782,13	1243,12
782,31	1304,56
782,48	1282,03
782,66	1288,17
782,83	1279,98
783,01	1363,95
783,19	1245,16
783,36	1220,59
783,54	1292,27
783,72	1290,22
783,89	1286,12
784,07	1236,97
784,24	1247,21
784,42	1294,32
784,60	1245,16
784,77	1226,73
784,95	1269,74
785,12	1230,83
785,30	1275,88
785,47	1322,99
785,65	1273,84
785,83	1273,84
786,00	1296,36
786,18	1304,56
786,35	1314,80
786,53	1337,32
786,71	1202,16
786,88	1316,84
787,06	1243,12
787,23	1286,12
787,41	1292,27
787,58	1275,88
787,76	1198,06
787,94	1243,12
788,11	1251,31
788,29	1218,54
788,46	1345,52
788,64	1161,20
788,81	1265,64
788,99	1224,69
789,16	1288,17
789,34	1241,07
789,52	1263,60
789,69	1228,78
789,87	1241,07
790,04	1300,46
790,22	1284,08
790,39	1234,93
790,57	1298,41
790,74	1247,21
790,92	1247,21
791,09	1275,88
791,27	1310,70
791,44	1263,60
791,62	1216,49
791,79	1259,50
791,97	1273,84
792,15	1286,12
792,32	1185,77
792,50	1171,44
792,67	1277,93
792,85	1333,23
793,02	1255,40
793,20	1263,60
793,37	1247,21
793,55	1271,79
793,72	1343,47
793,90	1265,64
794,07	1263,60
794,25	1325,04
794,42	1255,40
794,60	1314,80
794,77	1232,88
794,95	1275,88
795,12	1228,78
795,30	1236,97
795,47	1249,26
795,65	1288,17
795,82	1247,21
796,00	1265,64
796,17	1179,63
796,34	1329,13
796,52	1277,93
796,69	1312,75
796,87	1204,21
797,04	1294,32
797,22	1277,93
797,39	1259,50
797,57	1243,12
797,74	1325,04
797,92	1214,45
798,09	1179,63
798,27	1236,97
798,44	1331,18
798,62	1189,87
798,79	1345,52
798,96	1341,42
799,14	1257,45
799,31	1255,40
799,49	1351,66
799,66	1255,40
799,84	1322,99
800,01	1228,78
800,19	1288,17
800,36	1257,45
800,53	1245,16
800,71	1304,56
800,88	1339,37
801,06	1210,35
801,23	1341,42
801,41	1286,12
801,58	1298,41
801,75	1208,30
801,93	1226,73
802,10	1255,40
802,28	1267,69
802,45	1273,84
802,63	1204,21
802,80	1271,79
802,97	1241,07
803,15	1265,64
803,32	1245,16
803,50	1290,22
803,67	1210,35
803,84	1187,82
804,02	1292,27
804,19	1243,12
804,37	1310,70
804,54	1263,60
804,71	1214,45
804,89	1228,78
805,06	1241,07
805,24	1312,75
805,41	1236,97
805,58	1259,50
805,76	1257,45
805,93	1292,27
806,10	1236,97
806,28	1284,08
806,45	1222,64
806,63	1300,46
806,80	1222,64
806,97	1279,98
807,15	1259,50
807,32	1452,01
807,49	1259,50
807,67	1275,88
807,84	1273,84
808,01	1263,60
808,19	1255,40
808,36	1282,03
808,54	1290,22
808,71	1241,07
808,88	1206,25
809,06	1232,88
809,23	1298,41
809,40	1269,74
809,58	1282,03
809,75	1247,21
809,92	1304,56
810,10	1327,08
810,27	1200,11
810,44	1325,04
810,62	1275,88
810,79	1243,12
810,96	1234,93
811,14	1265,64
811,31	1327,08
811,48	1347,56
811,66	1310,70
811,83	1316,84
812,00	1306,60
812,18	1236,97
812,35	1271,79
812,52	1271,79
812,69	1267,69
812,87	1255,40
813,04	1269,74
813,21	1275,88
813,39	1251,31
813,56	1265,64
813,73	1282,03
813,91	1286,12
814,08	1245,16
814,25	1290,22
814,42	1230,83
814,60	1288,17
814,77	1265,64
814,94	1273,84
815,12	1306,60
815,29	1288,17
815,46	1288,17
815,63	1298,41
815,81	1284,08
815,98	1243,12
816,15	1204,21
816,33	1275,88
816,50	1275,88
816,67	1216,49
816,84	1236,97
817,02	1249,26
817,19	1273,84
817,36	1247,21
817,53	1306,60
817,71	1226,73
817,88	1335,28
818,05	1183,73
818,22	1263,60
818,40	1230,83
818,57	1232,88
818,74	1261,55
818,91	1275,88
819,09	1251,31
819,26	1318,89
819,43	1245,16
819,60	1249,26
819,78	1251,31
819,95	1290,22
820,12	1247,21
820,29	1263,60
820,47	1279,98
820,64	1275,88
820,81	1296,36
820,98	1224,69
821,15	1257,45
821,33	1230,83
821,50	1277,93
821,67	1331,18
821,84	1273,84
822,02	1267,69
822,19	1300,46
822,36	1282,03
822,53	1265,64
822,70	1257,45
822,88	1251,31
823,05	1245,16
823,22	1294,32
823,39	1271,79
823,56	1318,89
823,74	1232,88
823,91	1255,40
824,08	1177,58
824,25	1200,11
824,42	1308,65
824,60	1202,16
824,77	1296,36
824,94	1259,50
825,11	1265,64
825,28	1218,54
825,45	1241,07
825,63	1243,12
825,80	1228,78
825,97	1228,78
826,14	1257,45
826,31	1243,12
826,48	1282,03
826,66	1204,21
826,83	1355,76
827,00	1292,27
827,17	1312,75
827,34	1279,98
827,51	1232,88
827,69	1232,88
827,86	1265,64
828,03	1329,13
828,20	1249,26
828,37	1230,83
828,54	1329,13
828,71	1310,70
828,89	1255,40
829,06	1271,79
829,23	1224,69
829,40	1138,67
829,57	1294,32
829,74	1257,45
829,91	1296,36
830,09	1298,41
830,26	1314,80
830,43	1232,88
830,60	1239,02
830,77	1198,06
830,94	1275,88
831,11	1232,88
831,28	1275,88
831,46	1228,78
831,63	1247,21
831,80	1232,88
831,97	1253,36
832,14	1253,36
832,31	1302,51
832,48	1335,28
832,65	1277,93
832,82	1302,51
832,99	1292,27
833,17	1232,88
833,34	1261,55
833,51	1322,99
833,68	1232,88
833,85	1261,55
834,02	1275,88
834,19	1236,97
834,36	1245,16
834,53	1253,36
834,70	1290,22
834,87	1282,03
835,04	1284,08
835,22	1241,07
835,39	1214,45
835,56	1296,36
835,73	1249,26
835,90	1247,21
836,07	1284,08
836,24	1222,64
836,41	1271,79
836,58	1292,27
836,75	1263,60
836,92	1236,97
837,09	1273,84
837,26	1228,78
837,43	1216,49
837,60	1200,11
837,77	1269,74
837,94	1308,65
838,12	1234,93
838,29	1224,69
838,46	1263,60
838,63	1331,18
838,80	1279,98
838,97	1224,69
839,14	1222,64
839,31	1300,46
839,48	1304,56
839,65	1320,94
839,82	1290,22
839,99	1269,74
840,16	1267,69
840,33	1236,97
840,50	1286,12
840,67	1249,26
840,84	1216,49
841,01	1325,04
841,18	1271,79
841,35	1294,32
841,52	1191,92
841,69	1228,78
841,86	1234,93
842,03	1224,69
842,20	1251,31
842,37	1347,56
842,54	1230,83
842,71	1288,17
842,88	1226,73
843,05	1169,39
843,22	1232,88
843,39	1208,30
843,56	1267,69
843,73	1314,80
843,90	1331,18
844,07	1290,22
844,24	1298,41
844,41	1267,69
844,58	1337,32
844,75	1208,30
844,92	1370,09
845,09	1288,17
845,26	1257,45
845,43	1247,21
845,60	1282,03
845,77	1282,03
845,94	1300,46
846,10	1228,78
846,27	1220,59
846,44	1265,64
846,61	1275,88
846,78	1261,55
846,95	1341,42
847,12	1222,64
847,29	1257,45
847,46	1265,64
847,63	1335,28
847,80	1265,64
847,97	1259,50
848,14	1277,93
848,31	1341,42
848,48	1234,93
848,65	1277,93
848,82	1251,31
848,98	1353,71
849,15	1271,79
849,32	1271,79
849,49	1220,59
849,66	1196,01
849,83	1318,89
850,00	1269,74
850,17	1267,69
850,34	1286,12
850,51	1232,88
850,68	1216,49
850,85	1257,45
851,01	1253,36
851,18	1282,03
851,35	1261,55
851,52	1302,51
851,69	1310,70
851,86	1273,84
852,03	1275,88
852,20	1232,88
852,37	1290,22
852,53	1198,06
852,70	1247,21
852,87	1290,22
853,04	1245,16
853,21	1294,32
853,38	1255,40
853,55	1232,88
853,72	1294,32
853,89	1296,36
854,05	1292,27
854,22	1236,97
854,39	1282,03
854,56	1245,16
854,73	1308,65
854,90	1257,45
855,07	1298,41
855,23	1298,41
855,40	1265,64
855,57	1290,22
855,74	1222,64
855,91	1228,78
856,08	1210,35
856,25	1269,74
856,41	1257,45
856,58	1298,41
856,75	1259,50
856,92	1312,75
857,09	1304,56
857,26	1239,02
857,42	1253,36
857,59	1306,60
857,76	1222,64
857,93	1310,70
858,10	1243,12
858,27	1228,78
858,43	1239,02
858,60	1277,93
858,77	1308,65
858,94	1253,36
859,11	1269,74
859,27	1316,84
859,44	1279,98
859,61	1271,79
859,78	1253,36
859,95	1228,78
860,12	1277,93
860,28	1294,32
860,45	1267,69
860,62	1241,07
860,79	1259,50
860,95	1314,80
861,12	1220,59
861,29	1288,17
861,46	1257,45
861,63	1253,36
861,79	1320,94
861,96	1243,12
862,13	1282,03
862,30	1273,84
862,47	1290,22
862,63	1249,26
862,80	1302,51
862,97	1279,98
863,14	1267,69
863,30	1232,88
863,47	1208,30
863,64	1286,12
863,81	1216,49
863,97	1245,16
864,14	1255,40
864,31	1298,41
864,48	1284,08
864,65	1247,21
864,81	1306,60
864,98	1269,74
865,15	1329,13
865,32	1241,07
865,48	1224,69
865,65	1312,75
865,82	1239,02
865,98	1202,16
866,15	1271,79
866,32	1179,63
866,49	1273,84
866,65	1282,03
866,82	1267,69
866,99	1243,12
867,16	1355,76
867,32	1243,12
867,49	1269,74
867,66	1187,82
867,83	1261,55
867,99	1271,79
868,16	1255,40
868,33	1277,93
868,49	1306,60
868,66	1210,35
868,83	1232,88
868,99	1261,55
869,16	1277,93
869,33	1298,41
869,50	1286,12
869,66	1275,88
869,83	1261,55
870,00	1236,97
870,16	1277,93
870,33	1253,36
870,50	1239,02
870,66	1333,23
870,83	1310,70
871,00	1277,93
871,17	1255,40
871,33	1331,18
871,50	1267,69
871,67	1312,75
871,83	1290,22
872,00	1255,40
872,17	1273,84
872,33	1220,59
872,50	1251,31
872,67	1277,93
872,83	1253,36
873,00	1320,94
873,17	1325,04
873,33	1196,01
873,50	1267,69
873,67	1286,12
873,83	1243,12
874,00	1216,49
874,16	1232,88
874,33	1257,45
874,50	1359,85
874,66	1298,41
874,83	1261,55
875,00	1236,97
875,16	1200,11
875,33	1257,45
875,50	1304,56
875,66	1320,94
875,83	1222,64
875,99	1259,50
876,16	1257,45
876,33	1286,12
876,49	1212,40
876,66	1200,11
876,83	1314,80
876,99	1200,11
877,16	1249,26
877,32	1267,69
877,49	1277,93
877,66	1255,40
877,82	1306,60
877,99	1239,02
878,15	1206,25
878,32	1222,64
878,49	1290,22
878,65	1259,50
878,82	1296,36
878,98	1228,78
879,15	1279,98
879,32	1271,79
879,48	1279,98
879,65	1296,36
879,81	1333,23
879,98	1282,03
880,15	1339,37
880,31	1271,79
880,48	1333,23
880,64	1290,22
880,81	1288,17
880,97	1261,55
881,14	1277,93
881,31	1277,93
881,47	1292,27
881,64	1204,21
881,80	1263,60
881,97	1282,03
882,13	1239,02
882,30	1282,03
882,47	1279,98
882,63	1275,88
882,80	1263,60
882,96	1302,51
883,13	1271,79
883,29	1261,55
883,46	1282,03
883,62	1261,55
883,79	1200,11
883,95	1298,41
884,12	1327,08
884,29	1284,08
884,45	1298,41
884,62	1304,56
884,78	1292,27
884,95	1329,13
885,11	1271,79
885,28	1261,55
885,44	1306,60
885,61	1261,55
885,77	1286,12
885,94	1261,55
886,10	1245,16
886,27	1224,69
886,43	1298,41
886,60	1200,11
886,76	1263,60
886,93	1255,40
887,09	1261,55
887,26	1245,16
887,42	1327,08
887,59	1288,17
887,75	1263,60
887,92	1290,22
888,08	1318,89
888,25	1236,97
888,41	1296,36
888,58	1257,45
888,74	1234,93
888,91	1234,93
>>>>>End Processed Spectral Data<<<<<
