SpectraSuite Data File
++++++++++++++++++++++++++++++++++++
Date: Sun Apr 03 19:55:54 CEST 2016
User: root
Dark Spectrum Present: No
Reference Spectrum Present: No
Number of Sampled Component Spectra: 1
Spectrometers: USB4C02835
Integration Time (usec): 10000 (USB4C02835)
Spectra Averaged: 1 (USB4C02835)
Boxcar Smoothing: 0 (USB4C02835)
Correct for Electrical Dark: No (USB4C02835)
Strobe/Lamp Enabled: No (USB4C02835)
Correct for Detector Non-linearity: No (USB4C02835)
Correct for Stray Light: No (USB4C02835)
Number of Pixels in Processed Spectrum: 3648
>>>>>Begin Processed Spectral Data<<<<<
177,47	1294,32
177,69	1294,32
177,91	1294,32
178,13	1189,87
178,36	1284,08
178,58	1355,76
178,80	1337,32
179,02	1294,32
179,24	1294,32
179,46	1292,27
179,68	1275,88
179,90	1290,22
180,13	1337,32
180,35	1263,60
180,57	1288,17
180,79	1251,31
181,01	1322,99
181,23	1236,97
181,45	1263,60
181,67	1251,31
181,90	1251,31
182,12	1261,55
182,34	1228,78
182,56	1243,12
182,78	1294,32
183,00	1239,02
183,22	1263,60
183,44	1259,50
183,66	1257,45
183,89	1212,40
184,11	1247,21
184,33	1232,88
184,55	1236,97
184,77	1218,54
184,99	1298,41
185,21	1306,60
185,43	1236,97
185,65	1308,65
185,87	1259,50
186,10	1282,03
186,32	1310,70
186,54	1251,31
186,76	1286,12
186,98	1230,83
187,20	1171,44
187,42	1255,40
187,64	1308,65
187,86	1261,55
188,08	1271,79
188,30	1279,98
188,52	1314,80
188,75	1232,88
188,97	1292,27
189,19	1294,32
189,41	1216,49
189,63	1310,70
189,85	1222,64
190,07	1222,64
190,29	1208,30
190,51	1200,11
190,73	1228,78
190,95	1288,17
191,17	1257,45
191,39	1310,70
191,61	1327,08
191,84	1333,23
192,06	1185,77
192,28	1300,46
192,50	1269,74
192,72	1193,97
192,94	1232,88
193,16	1349,61
193,38	1304,56
193,60	1269,74
193,82	1220,59
194,04	1286,12
194,26	1257,45
194,48	1224,69
194,70	1322,99
194,92	1247,21
195,14	1263,60
195,36	1318,89
195,58	1206,25
195,80	1255,40
196,02	1245,16
196,24	1220,59
196,46	1300,46
196,69	1222,64
196,91	1261,55
197,13	1302,51
197,35	1228,78
197,57	1275,88
197,79	1228,78
198,01	1271,79
198,23	1312,75
198,45	1253,36
198,67	1337,32
198,89	1259,50
199,11	1298,41
199,33	1255,40
199,55	1279,98
199,77	1210,35
199,99	1277,93
200,21	1257,45
200,43	1282,03
200,65	1261,55
200,87	1279,98
201,09	1247,21
201,31	1294,32
201,53	1308,65
201,75	1265,64
201,97	1232,88
202,19	1279,98
202,41	1236,97
202,63	1279,98
202,85	1271,79
203,07	1325,04
203,29	1247,21
203,51	1312,75
203,73	1245,16
203,95	1249,26
204,17	1253,36
204,39	1255,40
204,61	1275,88
204,83	1241,07
205,05	1253,36
205,27	1228,78
205,49	1275,88
205,71	1312,75
205,93	1310,70
206,15	1277,93
206,37	1339,37
206,59	1208,30
206,81	1290,22
207,03	1294,32
207,25	1228,78
207,47	1290,22
207,69	1271,79
207,91	1288,17
208,13	1185,77
208,34	1253,36
208,56	1236,97
208,78	1234,93
209,00	1275,88
209,22	1273,84
209,44	1232,88
209,66	1320,94
209,88	1296,36
210,10	1208,30
210,32	1251,31
210,54	1255,40
210,76	1257,45
210,98	1261,55
211,20	1241,07
211,42	1200,11
211,64	1275,88
211,86	1232,88
212,08	1251,31
212,30	1331,18
212,52	1347,56
212,74	1339,37
212,96	1282,03
213,17	1257,45
213,39	1200,11
213,61	1259,50
213,83	1277,93
214,05	1261,55
214,27	1269,74
214,49	1263,60
214,71	1265,64
214,93	1310,70
215,15	1228,78
215,37	1271,79
215,59	1327,08
215,81	1312,75
216,03	1243,12
216,24	1288,17
216,46	1339,37
216,68	1239,02
216,90	1282,03
217,12	1277,93
217,34	1251,31
217,56	1255,40
217,78	1294,32
218,00	1335,28
218,22	1279,98
218,44	1273,84
218,66	1284,08
218,87	1279,98
219,09	1263,60
219,31	1294,32
219,53	1306,60
219,75	1273,84
219,97	1224,69
220,19	1294,32
220,41	1279,98
220,63	1296,36
220,85	1253,36
221,06	1273,84
221,28	1236,97
221,50	1230,83
221,72	1224,69
221,94	1339,37
222,16	1241,07
222,38	1337,32
222,60	1310,70
222,82	1230,83
223,03	1245,16
223,25	1224,69
223,47	1228,78
223,69	1341,42
223,91	1202,16
224,13	1241,07
224,35	1210,35
224,57	1273,84
224,78	1308,65
225,00	1232,88
225,22	1269,74
225,44	1269,74
225,66	1161,20
225,88	1302,51
226,10	1204,21
226,32	1224,69
226,53	1288,17
226,75	1296,36
226,97	1196,01
227,19	1302,51
227,41	1267,69
227,63	1202,16
227,85	1308,65
228,06	1284,08
228,28	1273,84
228,50	1312,75
228,72	1282,03
228,94	1288,17
229,16	1261,55
229,37	1236,97
229,59	1218,54
229,81	1298,41
230,03	1290,22
230,25	1208,30
230,47	1267,69
230,69	1279,98
230,90	1267,69
231,12	1271,79
231,34	1341,42
231,56	1220,59
231,78	1288,17
232,00	1279,98
232,21	1314,80
232,43	1241,07
232,65	1279,98
232,87	1314,80
233,09	1284,08
233,30	1220,59
233,52	1177,58
233,74	1228,78
233,96	1284,08
234,18	1316,84
234,40	1353,71
234,61	1257,45
234,83	1294,32
235,05	1277,93
235,27	1306,60
235,49	1284,08
235,70	1322,99
235,92	1282,03
236,14	1322,99
236,36	1269,74
236,58	1202,16
236,79	1253,36
237,01	1267,69
237,23	1333,23
237,45	1290,22
237,67	1253,36
237,88	1277,93
238,10	1263,60
238,32	1179,63
238,54	1267,69
238,76	1239,02
238,97	1292,27
239,19	1261,55
239,41	1359,85
239,63	1273,84
239,85	1304,56
240,06	1167,34
240,28	1265,64
240,50	1241,07
240,72	1259,50
240,93	1241,07
241,15	1239,02
241,37	1277,93
241,59	1269,74
241,81	1257,45
242,02	1282,03
242,24	1284,08
242,46	1187,82
242,68	1300,46
242,89	1247,21
243,11	1251,31
243,33	1351,66
243,55	1247,21
243,76	1263,60
243,98	1294,32
244,20	1279,98
244,42	1275,88
244,64	1273,84
244,85	1222,64
245,07	1232,88
245,29	1265,64
245,51	1310,70
245,72	1282,03
245,94	1263,60
246,16	1310,70
246,38	1282,03
246,59	1234,93
246,81	1357,80
247,03	1282,03
247,24	1267,69
247,46	1234,93
247,68	1251,31
247,90	1253,36
248,11	1228,78
248,33	1241,07
248,55	1296,36
248,77	1271,79
248,98	1241,07
249,20	1310,70
249,42	1247,21
249,64	1347,56
249,85	1271,79
250,07	1183,73
250,29	1341,42
250,50	1239,02
250,72	1265,64
250,94	1177,58
251,16	1327,08
251,37	1259,50
251,59	1277,93
251,81	1224,69
252,02	1292,27
252,24	1183,73
252,46	1282,03
252,68	1222,64
252,89	1286,12
253,11	1284,08
253,33	1298,41
253,54	1327,08
253,76	1212,40
253,98	1282,03
254,20	1267,69
254,41	1304,56
254,63	1255,40
254,85	1261,55
255,06	1232,88
255,28	1267,69
255,50	1247,21
255,71	1259,50
255,93	1288,17
256,15	1337,32
256,36	1251,31
256,58	1265,64
256,80	1327,08
257,02	1310,70
257,23	1263,60
257,45	1269,74
257,67	1263,60
257,88	1279,98
258,10	1236,97
258,32	1236,97
258,53	1318,89
258,75	1296,36
258,97	1327,08
259,18	1234,93
259,40	1284,08
259,62	1241,07
259,83	1343,47
260,05	1165,29
260,27	1198,06
260,48	1232,88
260,70	1226,73
260,92	1271,79
261,13	1261,55
261,35	1318,89
261,57	1216,49
261,78	1241,07
262,00	1222,64
262,22	1310,70
262,43	1282,03
262,65	1273,84
262,86	1269,74
263,08	1216,49
263,30	1277,93
263,51	1269,74
263,73	1183,73
263,95	1312,75
264,16	1292,27
264,38	1331,18
264,60	1363,95
264,81	1243,12
265,03	1214,45
265,25	1251,31
265,46	1292,27
265,68	1243,12
265,89	1325,04
266,11	1249,26
266,33	1243,12
266,54	1222,64
266,76	1282,03
266,98	1294,32
267,19	1239,02
267,41	1306,60
267,62	1200,11
267,84	1236,97
268,06	1325,04
268,27	1189,87
268,49	1296,36
268,70	1249,26
268,92	1247,21
269,14	1234,93
269,35	1345,52
269,57	1245,16
269,79	1220,59
270,00	1189,87
270,22	1263,60
270,43	1228,78
270,65	1267,69
270,87	1216,49
271,08	1265,64
271,30	1288,17
271,51	1337,32
271,73	1314,80
271,95	1251,31
272,16	1255,40
272,38	1228,78
272,59	1261,55
272,81	1316,84
273,02	1241,07
273,24	1245,16
273,46	1226,73
273,67	1271,79
273,89	1316,84
274,10	1294,32
274,32	1234,93
274,54	1267,69
274,75	1251,31
274,97	1316,84
275,18	1294,32
275,40	1206,25
275,61	1286,12
275,83	1314,80
276,05	1273,84
276,26	1273,84
276,48	1300,46
276,69	1292,27
276,91	1294,32
277,12	1241,07
277,34	1245,16
277,55	1302,51
277,77	1294,32
277,99	1302,51
278,20	1267,69
278,42	1267,69
278,63	1255,40
278,85	1263,60
279,06	1257,45
279,28	1273,84
279,49	1257,45
279,71	1314,80
279,93	1214,45
280,14	1288,17
280,36	1273,84
280,57	1200,11
280,79	1341,42
281,00	1243,12
281,22	1249,26
281,43	1206,25
281,65	1286,12
281,86	1175,53
282,08	1284,08
282,29	1282,03
282,51	1222,64
282,73	1251,31
282,94	1257,45
283,16	1298,41
283,37	1304,56
283,59	1275,88
283,80	1253,36
284,02	1247,21
284,23	1269,74
284,45	1263,60
284,66	1234,93
284,88	1372,14
285,09	1275,88
285,31	1329,13
285,52	1277,93
285,74	1269,74
285,95	1253,36
286,17	1261,55
286,38	1218,54
286,60	1282,03
286,81	1228,78
287,03	1265,64
287,24	1296,36
287,46	1212,40
287,67	1257,45
287,89	1243,12
288,10	1345,52
288,32	1282,03
288,53	1175,53
288,75	1298,41
288,96	1286,12
289,18	1257,45
289,39	1181,68
289,61	1331,18
289,82	1304,56
290,04	1359,85
290,25	1234,93
290,47	1236,97
290,68	1241,07
290,90	1271,79
291,11	1234,93
291,33	1282,03
291,54	1239,02
291,76	1261,55
291,97	1265,64
292,18	1232,88
292,40	1306,60
292,61	1214,45
292,83	1310,70
293,04	1316,84
293,26	1245,16
293,47	1253,36
293,69	1224,69
293,90	1267,69
294,12	1232,88
294,33	1216,49
294,55	1310,70
294,76	1269,74
294,97	1224,69
295,19	1239,02
295,40	1271,79
295,62	1310,70
295,83	1333,23
296,05	1339,37
296,26	1331,18
296,48	1216,49
296,69	1263,60
296,90	1308,65
297,12	1232,88
297,33	1253,36
297,55	1257,45
297,76	1255,40
297,98	1282,03
298,19	1216,49
298,41	1216,49
298,62	1216,49
298,83	1234,93
299,05	1239,02
299,26	1263,60
299,48	1257,45
299,69	1216,49
299,90	1208,30
300,12	1241,07
300,33	1353,71
300,55	1206,25
300,76	1261,55
300,98	1296,36
301,19	1183,73
301,40	1286,12
301,62	1359,85
301,83	1282,03
302,05	1243,12
302,26	1214,45
302,47	1288,17
302,69	1263,60
302,90	1265,64
303,12	1253,36
303,33	1318,89
303,54	1241,07
303,76	1259,50
303,97	1228,78
304,19	1306,60
304,40	1247,21
304,61	1277,93
304,83	1275,88
305,04	1284,08
305,26	1290,22
305,47	1236,97
305,68	1269,74
305,90	1265,64
306,11	1298,41
306,33	1296,36
306,54	1226,73
306,75	1314,80
306,97	1222,64
307,18	1218,54
307,39	1279,98
307,61	1232,88
307,82	1269,74
308,04	1226,73
308,25	1202,16
308,46	1261,55
308,68	1220,59
308,89	1251,31
309,10	1253,36
309,32	1320,94
309,53	1335,28
309,74	1284,08
309,96	1306,60
310,17	1226,73
310,39	1282,03
310,60	1273,84
310,81	1314,80
311,03	1259,50
311,24	1245,16
311,45	1292,27
311,67	1275,88
311,88	1206,25
312,09	1304,56
312,31	1232,88
312,52	1331,18
312,73	1302,51
312,95	1247,21
313,16	1243,12
313,37	1232,88
313,59	1269,74
313,80	1267,69
314,01	1312,75
314,23	1322,99
314,44	1312,75
314,65	1368,04
314,87	1349,61
315,08	1236,97
315,29	1292,27
315,51	1275,88
315,72	1353,71
315,93	1286,12
316,15	1277,93
316,36	1263,60
316,57	1308,65
316,79	1290,22
317,00	1253,36
317,21	1255,40
317,43	1286,12
317,64	1343,47
317,85	1277,93
318,07	1224,69
318,28	1261,55
318,49	1271,79
318,70	1251,31
318,92	1259,50
319,13	1275,88
319,34	1230,83
319,56	1279,98
319,77	1314,80
319,98	1282,03
320,20	1265,64
320,41	1206,25
320,62	1249,26
320,83	1292,27
321,05	1298,41
321,26	1366,00
321,47	1304,56
321,69	1241,07
321,90	1236,97
322,11	1253,36
322,32	1298,41
322,54	1306,60
322,75	1277,93
322,96	1247,21
323,18	1196,01
323,39	1335,28
323,60	1304,56
323,81	1253,36
324,03	1331,18
324,24	1249,26
324,45	1302,51
324,66	1302,51
324,88	1247,21
325,09	1273,84
325,30	1249,26
325,52	1222,64
325,73	1251,31
325,94	1282,03
326,15	1279,98
326,37	1290,22
326,58	1269,74
326,79	1263,60
327,00	1255,40
327,22	1273,84
327,43	1226,73
327,64	1253,36
327,85	1341,42
328,07	1296,36
328,28	1236,97
328,49	1255,40
328,70	1296,36
328,92	1275,88
329,13	1271,79
329,34	1216,49
329,55	1277,93
329,76	1255,40
329,98	1288,17
330,19	1241,07
330,40	1259,50
330,61	1234,93
330,83	1206,25
331,04	1263,60
331,25	1193,97
331,46	1327,08
331,68	1247,21
331,89	1269,74
332,10	1312,75
332,31	1257,45
332,52	1234,93
332,74	1204,21
332,95	1216,49
333,16	1165,29
333,37	1236,97
333,58	1284,08
333,80	1327,08
334,01	1329,13
334,22	1218,54
334,43	1273,84
334,64	1206,25
334,86	1296,36
335,07	1255,40
335,28	1253,36
335,49	1271,79
335,70	1236,97
335,92	1277,93
336,13	1275,88
336,34	1265,64
336,55	1257,45
336,76	1171,44
336,98	1310,70
337,19	1345,52
337,40	1253,36
337,61	1216,49
337,82	1257,45
338,04	1273,84
338,25	1292,27
338,46	1327,08
338,67	1288,17
338,88	1177,58
339,09	1253,36
339,31	1331,18
339,52	1249,26
339,73	1226,73
339,94	1306,60
340,15	1271,79
340,36	1200,11
340,58	1193,97
340,79	1271,79
341,00	1230,83
341,21	1263,60
341,42	1239,02
341,63	1267,69
341,85	1302,51
342,06	1236,97
342,27	1282,03
342,48	1279,98
342,69	1314,80
342,90	1263,60
343,12	1245,16
343,33	1292,27
343,54	1255,40
343,75	1273,84
343,96	1284,08
344,17	1263,60
344,38	1380,33
344,60	1251,31
344,81	1290,22
345,02	1398,76
345,23	1214,45
345,44	1251,31
345,65	1212,40
345,86	1302,51
346,07	1255,40
346,29	1320,94
346,50	1216,49
346,71	1230,83
346,92	1175,53
347,13	1329,13
347,34	1298,41
347,55	1208,30
347,76	1249,26
347,98	1206,25
348,19	1271,79
348,40	1288,17
348,61	1279,98
348,82	1286,12
349,03	1347,56
349,24	1306,60
349,45	1322,99
349,66	1216,49
349,88	1333,23
350,09	1271,79
350,30	1277,93
350,51	1312,75
350,72	1200,11
350,93	1292,27
351,14	1294,32
351,35	1255,40
351,56	1257,45
351,77	1224,69
351,99	1226,73
352,20	1269,74
352,41	1273,84
352,62	1253,36
352,83	1241,07
353,04	1220,59
353,25	1236,97
353,46	1288,17
353,67	1273,84
353,88	1247,21
354,09	1228,78
354,30	1292,27
354,52	1296,36
354,73	1275,88
354,94	1214,45
355,15	1320,94
355,36	1249,26
355,57	1327,08
355,78	1245,16
355,99	1236,97
356,20	1284,08
356,41	1337,32
356,62	1251,31
356,83	1296,36
357,04	1320,94
357,25	1353,71
357,46	1306,60
357,68	1232,88
357,89	1228,78
358,10	1210,35
358,31	1220,59
358,52	1265,64
358,73	1253,36
358,94	1230,83
359,15	1183,73
359,36	1331,18
359,57	1210,35
359,78	1331,18
359,99	1265,64
360,20	1294,32
360,41	1290,22
360,62	1322,99
360,83	1239,02
361,04	1333,23
361,25	1228,78
361,46	1249,26
361,67	1261,55
361,88	1273,84
362,09	1288,17
362,30	1245,16
362,51	1216,49
362,72	1271,79
362,93	1357,80
363,14	1335,28
363,35	1202,16
363,56	1320,94
363,78	1269,74
363,99	1286,12
364,20	1292,27
364,41	1255,40
364,62	1261,55
364,83	1269,74
365,04	1263,60
365,25	1284,08
365,46	1279,98
365,67	1175,53
365,88	1288,17
366,09	1267,69
366,30	1290,22
366,51	1279,98
366,72	1329,13
366,93	1232,88
367,14	1267,69
367,35	1271,79
367,56	1263,60
367,77	1314,80
367,98	1261,55
368,18	1267,69
368,39	1314,80
368,60	1292,27
368,81	1222,64
369,02	1314,80
369,23	1243,12
369,44	1247,21
369,65	1200,11
369,86	1263,60
370,07	1273,84
370,28	1339,37
370,49	1265,64
370,70	1347,56
370,91	1282,03
371,12	1245,16
371,33	1261,55
371,54	1310,70
371,75	1214,45
371,96	1191,92
372,17	1284,08
372,38	1277,93
372,59	1249,26
372,80	1273,84
373,01	1265,64
373,22	1249,26
373,43	1251,31
373,64	1259,50
373,85	1241,07
374,06	1273,84
374,26	1265,64
374,47	1312,75
374,68	1308,65
374,89	1247,21
375,10	1271,79
375,31	1226,73
375,52	1200,11
375,73	1257,45
375,94	1198,06
376,15	1314,80
376,36	1196,01
376,57	1234,93
376,78	1230,83
376,99	1271,79
377,20	1273,84
377,40	1198,06
377,61	1191,92
377,82	1241,07
378,03	1265,64
378,24	1296,36
378,45	1216,49
378,66	1253,36
378,87	1265,64
379,08	1239,02
379,29	1216,49
379,50	1284,08
379,71	1261,55
379,91	1279,98
380,12	1271,79
380,33	1230,83
380,54	1216,49
380,75	1271,79
380,96	1273,84
381,17	1339,37
381,38	1253,36
381,59	1230,83
381,80	1300,46
382,00	1298,41
382,21	1241,07
382,42	1247,21
382,63	1263,60
382,84	1228,78
383,05	1290,22
383,26	1306,60
383,47	1286,12
383,68	1292,27
383,88	1239,02
384,09	1257,45
384,30	1196,01
384,51	1245,16
384,72	1259,50
384,93	1312,75
385,14	1277,93
385,35	1253,36
385,55	1269,74
385,76	1257,45
385,97	1292,27
386,18	1271,79
386,39	1230,83
386,60	1239,02
386,81	1247,21
387,02	1269,74
387,22	1208,30
387,43	1218,54
387,64	1267,69
387,85	1261,55
388,06	1290,22
388,27	1298,41
388,48	1187,82
388,68	1271,79
388,89	1263,60
389,10	1275,88
389,31	1167,34
389,52	1335,28
389,73	1255,40
389,93	1206,25
390,14	1220,59
390,35	1253,36
390,56	1257,45
390,77	1306,60
390,98	1284,08
391,18	1239,02
391,39	1333,23
391,60	1351,66
391,81	1239,02
392,02	1316,84
392,23	1230,83
392,43	1198,06
392,64	1277,93
392,85	1236,97
393,06	1234,93
393,27	1304,56
393,47	1271,79
393,68	1247,21
393,89	1253,36
394,10	1282,03
394,31	1226,73
394,52	1294,32
394,72	1222,64
394,93	1355,76
395,14	1228,78
395,35	1271,79
395,56	1179,63
395,76	1363,95
395,97	1322,99
396,18	1275,88
396,39	1245,16
396,60	1273,84
396,80	1267,69
397,01	1234,93
397,22	1239,02
397,43	1222,64
397,64	1277,93
397,84	1292,27
398,05	1261,55
398,26	1222,64
398,47	1294,32
398,67	1196,01
398,88	1294,32
399,09	1230,83
399,30	1255,40
399,51	1206,25
399,71	1304,56
399,92	1275,88
400,13	1228,78
400,34	1294,32
400,54	1290,22
400,75	1290,22
400,96	1310,70
401,17	1288,17
401,37	1212,40
401,58	1243,12
401,79	1187,82
402,00	1271,79
402,21	1259,50
402,41	1263,60
402,62	1263,60
402,83	1275,88
403,04	1286,12
403,24	1267,69
403,45	1204,21
403,66	1325,04
403,87	1329,13
404,07	1185,77
404,28	1277,93
404,49	1288,17
404,70	1247,21
404,90	1284,08
405,11	1300,46
405,32	1204,21
405,52	1210,35
405,73	1314,80
405,94	1245,16
406,15	1226,73
406,35	1286,12
406,56	1222,64
406,77	1279,98
406,98	1255,40
407,18	1196,01
407,39	1314,80
407,60	1279,98
407,80	1277,93
408,01	1239,02
408,22	1247,21
408,43	1183,73
408,63	1253,36
408,84	1234,93
409,05	1208,30
409,25	1249,26
409,46	1298,41
409,67	1216,49
409,88	1236,97
410,08	1302,51
410,29	1302,51
410,50	1245,16
410,70	1320,94
410,91	1300,46
411,12	1290,22
411,32	1300,46
411,53	1282,03
411,74	1282,03
411,95	1304,56
412,15	1251,31
412,36	1275,88
412,57	1222,64
412,77	1259,50
412,98	1284,08
413,19	1167,34
413,39	1224,69
413,60	1263,60
413,81	1253,36
414,01	1296,36
414,22	1259,50
414,43	1314,80
414,63	1230,83
414,84	1267,69
415,05	1333,23
415,25	1279,98
415,46	1304,56
415,67	1255,40
415,87	1314,80
416,08	1312,75
416,29	1222,64
416,49	1288,17
416,70	1347,56
416,91	1294,32
417,11	1277,93
417,32	1312,75
417,53	1308,65
417,73	1273,84
417,94	1249,26
418,15	1261,55
418,35	1226,73
418,56	1234,93
418,77	1288,17
418,97	1253,36
419,18	1206,25
419,38	1267,69
419,59	1298,41
419,80	1202,16
420,00	1230,83
420,21	1294,32
420,42	1273,84
420,62	1337,32
420,83	1298,41
421,04	1284,08
421,24	1206,25
421,45	1288,17
421,65	1282,03
421,86	1298,41
422,07	1265,64
422,27	1298,41
422,48	1302,51
422,69	1265,64
422,89	1325,04
423,10	1239,02
423,30	1214,45
423,51	1269,74
423,72	1185,77
423,92	1294,32
424,13	1257,45
424,33	1288,17
424,54	1304,56
424,75	1279,98
424,95	1269,74
425,16	1159,15
425,36	1300,46
425,57	1286,12
425,78	1282,03
425,98	1239,02
426,19	1226,73
426,39	1234,93
426,60	1310,70
426,81	1269,74
427,01	1253,36
427,22	1187,82
427,42	1228,78
427,63	1308,65
427,83	1298,41
428,04	1314,80
428,25	1290,22
428,45	1286,12
428,66	1312,75
428,86	1273,84
429,07	1290,22
429,28	1271,79
429,48	1208,30
429,69	1279,98
429,89	1271,79
430,10	1288,17
430,30	1366,00
430,51	1284,08
430,71	1308,65
430,92	1255,40
431,13	1294,32
431,33	1224,69
431,54	1267,69
431,74	1220,59
431,95	1259,50
432,15	1257,45
432,36	1298,41
432,56	1314,80
432,77	1320,94
432,98	1236,97
433,18	1271,79
433,39	1263,60
433,59	1255,40
433,80	1363,95
434,00	1284,08
434,21	1296,36
434,41	1282,03
434,62	1255,40
434,82	1329,13
435,03	1271,79
435,23	1275,88
435,44	1290,22
435,64	1265,64
435,85	1212,40
436,06	1167,34
436,26	1275,88
436,47	1306,60
436,67	1222,64
436,88	1216,49
437,08	1222,64
437,29	1206,25
437,49	1228,78
437,70	1308,65
437,90	1288,17
438,11	1271,79
438,31	1208,30
438,52	1304,56
438,72	1349,61
438,93	1265,64
439,13	1267,69
439,34	1200,11
439,54	1288,17
439,75	1267,69
439,95	1290,22
440,16	1243,12
440,36	1314,80
440,57	1208,30
440,77	1312,75
440,98	1341,42
441,18	1329,13
441,39	1255,40
441,59	1304,56
441,80	1279,98
442,00	1214,45
442,21	1337,32
442,41	1327,08
442,62	1222,64
442,82	1300,46
443,02	1259,50
443,23	1288,17
443,43	1259,50
443,64	1165,29
443,84	1304,56
444,05	1304,56
444,25	1255,40
444,46	1282,03
444,66	1251,31
444,87	1320,94
445,07	1259,50
445,28	1320,94
445,48	1275,88
445,69	1267,69
445,89	1302,51
446,09	1327,08
446,30	1261,55
446,50	1230,83
446,71	1206,25
446,91	1226,73
447,12	1298,41
447,32	1247,21
447,53	1304,56
447,73	1304,56
447,93	1298,41
448,14	1296,36
448,34	1191,92
448,55	1341,42
448,75	1279,98
448,96	1331,18
449,16	1239,02
449,36	1286,12
449,57	1331,18
449,77	1316,84
449,98	1320,94
450,18	1333,23
450,39	1249,26
450,59	1275,88
450,79	1341,42
451,00	1314,80
451,20	1279,98
451,41	1306,60
451,61	1210,35
451,81	1284,08
452,02	1259,50
452,22	1279,98
452,43	1265,64
452,63	1261,55
452,84	1243,12
453,04	1259,50
453,24	1279,98
453,45	1269,74
453,65	1310,70
453,86	1241,07
454,06	1200,11
454,26	1245,16
454,47	1251,31
454,67	1339,37
454,87	1245,16
455,08	1267,69
455,28	1335,28
455,49	1298,41
455,69	1288,17
455,89	1290,22
456,10	1333,23
456,30	1290,22
456,51	1302,51
456,71	1290,22
456,91	1322,99
457,12	1310,70
457,32	1298,41
457,52	1298,41
457,73	1234,93
457,93	1286,12
458,14	1349,61
458,34	1232,88
458,54	1263,60
458,75	1265,64
458,95	1245,16
459,15	1363,95
459,36	1236,97
459,56	1282,03
459,76	1298,41
459,97	1359,85
460,17	1312,75
460,37	1292,27
460,58	1271,79
460,78	1249,26
460,99	1261,55
461,19	1349,61
461,39	1251,31
461,60	1253,36
461,80	1275,88
462,00	1224,69
462,21	1224,69
462,41	1277,93
462,61	1308,65
462,82	1222,64
463,02	1310,70
463,22	1310,70
463,43	1222,64
463,63	1255,40
463,83	1251,31
464,04	1282,03
464,24	1308,65
464,44	1255,40
464,64	1282,03
464,85	1294,32
465,05	1355,76
465,25	1222,64
465,46	1345,52
465,66	1331,18
465,86	1273,84
466,07	1279,98
466,27	1300,46
466,47	1282,03
466,68	1220,59
466,88	1253,36
467,08	1222,64
467,29	1234,93
467,49	1279,98
467,69	1232,88
467,89	1245,16
468,10	1189,87
468,30	1267,69
468,50	1288,17
468,71	1292,27
468,91	1302,51
469,11	1265,64
469,31	1243,12
469,52	1218,54
469,72	1308,65
469,92	1245,16
470,13	1284,08
470,33	1253,36
470,53	1265,64
470,73	1331,18
470,94	1306,60
471,14	1257,45
471,34	1241,07
471,54	1212,40
471,75	1306,60
471,95	1239,02
472,15	1226,73
472,36	1226,73
472,56	1304,56
472,76	1347,56
472,96	1308,65
473,17	1300,46
473,37	1277,93
473,57	1261,55
473,77	1228,78
473,98	1271,79
474,18	1236,97
474,38	1267,69
474,58	1257,45
474,79	1261,55
474,99	1318,89
475,19	1306,60
475,39	1232,88
475,60	1198,06
475,80	1308,65
476,00	1288,17
476,20	1275,88
476,41	1251,31
476,61	1286,12
476,81	1243,12
477,01	1267,69
477,21	1259,50
477,42	1265,64
477,62	1308,65
477,82	1265,64
478,02	1255,40
478,23	1318,89
478,43	1263,60
478,63	1325,04
478,83	1222,64
479,03	1296,36
479,24	1214,45
479,44	1263,60
479,64	1292,27
479,84	1353,71
480,04	1220,59
480,25	1296,36
480,45	1271,79
480,65	1239,02
480,85	1259,50
481,06	1204,21
481,26	1290,22
481,46	1282,03
481,66	1259,50
481,86	1193,97
482,06	1275,88
482,27	1261,55
482,47	1325,04
482,67	1255,40
482,87	1277,93
483,07	1267,69
483,28	1284,08
483,48	1273,84
483,68	1284,08
483,88	1314,80
484,08	1263,60
484,29	1239,02
484,49	1292,27
484,69	1265,64
484,89	1214,45
485,09	1341,42
485,29	1316,84
485,50	1255,40
485,70	1265,64
485,90	1279,98
486,10	1355,76
486,30	1261,55
486,50	1253,36
486,71	1282,03
486,91	1173,49
487,11	1216,49
487,31	1314,80
487,51	1263,60
487,71	1247,21
487,91	1271,79
488,12	1257,45
488,32	1329,13
488,52	1175,53
488,72	1214,45
488,92	1339,37
489,12	1302,51
489,32	1314,80
489,53	1312,75
489,73	1249,26
489,93	1236,97
490,13	1308,65
490,33	1236,97
490,53	1310,70
490,73	1292,27
490,94	1204,21
491,14	1257,45
491,34	1261,55
491,54	1265,64
491,74	1269,74
491,94	1331,18
492,14	1234,93
492,34	1337,32
492,54	1316,84
492,75	1232,88
492,95	1277,93
493,15	1214,45
493,35	1282,03
493,55	1232,88
493,75	1243,12
493,95	1292,27
494,15	1198,06
494,35	1312,75
494,56	1150,96
494,76	1298,41
494,96	1341,42
495,16	1345,52
495,36	1275,88
495,56	1316,84
495,76	1284,08
495,96	1236,97
496,16	1337,32
496,36	1302,51
496,56	1271,79
496,77	1263,60
496,97	1241,07
497,17	1331,18
497,37	1232,88
497,57	1312,75
497,77	1343,47
497,97	1273,84
498,17	1220,59
498,37	1169,39
498,57	1273,84
498,77	1298,41
498,97	1290,22
499,17	1300,46
499,38	1351,66
499,58	1267,69
499,78	1296,36
499,98	1288,17
500,18	1279,98
500,38	1296,36
500,58	1320,94
500,78	1259,50
500,98	1257,45
501,18	1345,52
501,38	1282,03
501,58	1312,75
501,78	1251,31
501,98	1232,88
502,18	1249,26
502,38	1329,13
502,58	1189,87
502,78	1314,80
502,98	1310,70
503,18	1263,60
503,38	1269,74
503,59	1253,36
503,79	1286,12
503,99	1251,31
504,19	1288,17
504,39	1298,41
504,59	1269,74
504,79	1267,69
504,99	1282,03
505,19	1241,07
505,39	1245,16
505,59	1302,51
505,79	1312,75
505,99	1277,93
506,19	1239,02
506,39	1273,84
506,59	1243,12
506,79	1206,25
506,99	1294,32
507,19	1286,12
507,39	1189,87
507,59	1279,98
507,79	1302,51
507,99	1267,69
508,19	1224,69
508,39	1257,45
508,59	1277,93
508,79	1234,93
508,99	1257,45
509,19	1236,97
509,39	1216,49
509,59	1224,69
509,79	1222,64
509,99	1286,12
510,19	1247,21
510,39	1249,26
510,59	1271,79
510,79	1292,27
510,99	1290,22
511,19	1241,07
511,39	1312,75
511,59	1341,42
511,79	1331,18
511,99	1335,28
512,19	1275,88
512,38	1298,41
512,58	1300,46
512,78	1292,27
512,98	1261,55
513,18	1304,56
513,38	1245,16
513,58	1296,36
513,78	1214,45
513,98	1181,68
514,18	1255,40
514,38	1304,56
514,58	1318,89
514,78	1392,62
514,98	1294,32
515,18	1353,71
515,38	1288,17
515,58	1277,93
515,78	1286,12
515,98	1224,69
516,18	1279,98
516,38	1294,32
516,57	1255,40
516,77	1249,26
516,97	1322,99
517,17	1265,64
517,37	1247,21
517,57	1329,13
517,77	1306,60
517,97	1290,22
518,17	1347,56
518,37	1288,17
518,57	1273,84
518,77	1296,36
518,97	1337,32
519,16	1265,64
519,36	1177,58
519,56	1273,84
519,76	1279,98
519,96	1247,21
520,16	1312,75
520,36	1312,75
520,56	1294,32
520,76	1312,75
520,96	1298,41
521,16	1290,22
521,35	1269,74
521,55	1265,64
521,75	1255,40
521,95	1257,45
522,15	1310,70
522,35	1314,80
522,55	1249,26
522,75	1284,08
522,95	1271,79
523,14	1271,79
523,34	1310,70
523,54	1273,84
523,74	1296,36
523,94	1288,17
524,14	1310,70
524,34	1351,66
524,54	1286,12
524,73	1247,21
524,93	1273,84
525,13	1310,70
525,33	1230,83
525,53	1298,41
525,73	1249,26
525,93	1335,28
526,13	1343,47
526,32	1300,46
526,52	1259,50
526,72	1273,84
526,92	1239,02
527,12	1234,93
527,32	1228,78
527,52	1191,92
527,71	1292,27
527,91	1241,07
528,11	1322,99
528,31	1245,16
528,51	1310,70
528,71	1257,45
528,90	1224,69
529,10	1376,24
529,30	1327,08
529,50	1253,36
529,70	1263,60
529,90	1327,08
530,09	1296,36
530,29	1269,74
530,49	1335,28
530,69	1361,90
530,89	1198,06
531,09	1320,94
531,28	1234,93
531,48	1318,89
531,68	1234,93
531,88	1333,23
532,08	1320,94
532,28	1261,55
532,47	1275,88
532,67	1310,70
532,87	1308,65
533,07	1214,45
533,27	1290,22
533,46	1263,60
533,66	1294,32
533,86	1249,26
534,06	1329,13
534,26	1273,84
534,45	1220,59
534,65	1261,55
534,85	1288,17
535,05	1341,42
535,25	1273,84
535,44	1329,13
535,64	1290,22
535,84	1226,73
536,04	1316,84
536,24	1232,88
536,43	1294,32
536,63	1308,65
536,83	1212,40
537,03	1265,64
537,22	1253,36
537,42	1322,99
537,62	1310,70
537,82	1292,27
538,02	1284,08
538,21	1232,88
538,41	1267,69
538,61	1304,56
538,81	1306,60
539,00	1304,56
539,20	1259,50
539,40	1279,98
539,60	1302,51
539,79	1335,28
539,99	1265,64
540,19	1277,93
540,39	1298,41
540,58	1259,50
540,78	1271,79
540,98	1296,36
541,18	1306,60
541,37	1241,07
541,57	1228,78
541,77	1329,13
541,97	1267,69
542,16	1273,84
542,36	1316,84
542,56	1308,65
542,76	1282,03
542,95	1263,60
543,15	1343,47
543,35	1296,36
543,54	1296,36
543,74	1279,98
543,94	1316,84
544,14	1269,74
544,33	1347,56
544,53	1263,60
544,73	1279,98
544,93	1294,32
545,12	1329,13
545,32	1292,27
545,52	1320,94
545,71	1243,12
545,91	1282,03
546,11	1284,08
546,30	1275,88
546,50	1333,23
546,70	1351,66
546,90	1298,41
547,09	1200,11
547,29	1302,51
547,49	1294,32
547,68	1263,60
547,88	1224,69
548,08	1325,04
548,27	1302,51
548,47	1220,59
548,67	1257,45
548,87	1318,89
549,06	1300,46
549,26	1234,93
549,46	1298,41
549,65	1296,36
549,85	1288,17
550,05	1261,55
550,24	1249,26
550,44	1267,69
550,64	1312,75
550,83	1312,75
551,03	1320,94
551,23	1282,03
551,42	1200,11
551,62	1277,93
551,82	1263,60
552,01	1265,64
552,21	1316,84
552,41	1314,80
552,60	1269,74
552,80	1341,42
553,00	1224,69
553,19	1261,55
553,39	1277,93
553,59	1243,12
553,78	1320,94
553,98	1316,84
554,17	1277,93
554,37	1284,08
554,57	1269,74
554,76	1292,27
554,96	1298,41
555,16	1290,22
555,35	1298,41
555,55	1298,41
555,75	1228,78
555,94	1282,03
556,14	1339,37
556,33	1294,32
556,53	1292,27
556,73	1290,22
556,92	1247,21
557,12	1290,22
557,32	1263,60
557,51	1320,94
557,71	1216,49
557,90	1298,41
558,10	1282,03
558,30	1413,10
558,49	1341,42
558,69	1282,03
558,88	1292,27
559,08	1236,97
559,28	1290,22
559,47	1249,26
559,67	1304,56
559,86	1275,88
560,06	1339,37
560,26	1294,32
560,45	1220,59
560,65	1288,17
560,84	1255,40
561,04	1245,16
561,24	1333,23
561,43	1265,64
561,63	1282,03
561,82	1269,74
562,02	1255,40
562,22	1318,89
562,41	1261,55
562,61	1247,21
562,80	1337,32
563,00	1294,32
563,19	1355,76
563,39	1331,18
563,59	1253,36
563,78	1355,76
563,98	1331,18
564,17	1318,89
564,37	1282,03
564,56	1288,17
564,76	1290,22
564,96	1294,32
565,15	1257,45
565,35	1304,56
565,54	1224,69
565,74	1304,56
565,93	1226,73
566,13	1255,40
566,32	1331,18
566,52	1284,08
566,71	1226,73
566,91	1241,07
567,11	1271,79
567,30	1322,99
567,50	1273,84
567,69	1320,94
567,89	1251,31
568,08	1298,41
568,28	1320,94
568,47	1224,69
568,67	1241,07
568,86	1247,21
569,06	1210,35
569,25	1306,60
569,45	1273,84
569,64	1214,45
569,84	1310,70
570,04	1214,45
570,23	1271,79
570,43	1243,12
570,62	1265,64
570,82	1318,89
571,01	1298,41
571,21	1243,12
571,40	1292,27
571,60	1349,61
571,79	1259,50
571,99	1275,88
572,18	1200,11
572,38	1279,98
572,57	1292,27
572,77	1259,50
572,96	1343,47
573,16	1312,75
573,35	1216,49
573,55	1255,40
573,74	1253,36
573,94	1341,42
574,13	1247,21
574,33	1284,08
574,52	1314,80
574,71	1331,18
574,91	1243,12
575,10	1286,12
575,30	1224,69
575,49	1263,60
575,69	1236,97
575,88	1335,28
576,08	1284,08
576,27	1245,16
576,47	1185,77
576,66	1263,60
576,86	1269,74
577,05	1355,76
577,25	1245,16
577,44	1261,55
577,64	1202,16
577,83	1286,12
578,02	1273,84
578,22	1265,64
578,41	1255,40
578,61	1255,40
578,80	1279,98
579,00	1308,65
579,19	1290,22
579,39	1257,45
579,58	1284,08
579,77	1335,28
579,97	1282,03
580,16	1261,55
580,36	1320,94
580,55	1271,79
580,75	1298,41
580,94	1327,08
581,13	1318,89
581,33	1263,60
581,52	1255,40
581,72	1284,08
581,91	1234,93
582,11	1394,67
582,30	1322,99
582,49	1226,73
582,69	1279,98
582,88	1253,36
583,08	1298,41
583,27	1292,27
583,47	1290,22
583,66	1236,97
583,85	1239,02
584,05	1220,59
584,24	1359,85
584,44	1322,99
584,63	1363,95
584,82	1331,18
585,02	1245,16
585,21	1265,64
585,41	1206,25
585,60	1259,50
585,79	1347,56
585,99	1335,28
586,18	1261,55
586,37	1304,56
586,57	1286,12
586,76	1216,49
586,96	1265,64
587,15	1279,98
587,34	1275,88
587,54	1327,08
587,73	1298,41
587,93	1314,80
588,12	1273,84
588,31	1337,32
588,51	1286,12
588,70	1300,46
588,89	1224,69
589,09	1325,04
589,28	1312,75
589,47	1267,69
589,67	1271,79
589,86	1312,75
590,06	1239,02
590,25	1288,17
590,44	1353,71
590,64	1286,12
590,83	1318,89
591,02	1255,40
591,22	1282,03
591,41	1267,69
591,60	1257,45
591,80	1236,97
591,99	1234,93
592,18	1284,08
592,38	1271,79
592,57	1243,12
592,76	1243,12
592,96	1269,74
593,15	1304,56
593,34	1288,17
593,54	1284,08
593,73	1322,99
593,92	1279,98
594,12	1275,88
594,31	1294,32
594,50	1277,93
594,70	1208,30
594,89	1302,51
595,08	1306,60
595,28	1275,88
595,47	1228,78
595,66	1263,60
595,86	1245,16
596,05	1267,69
596,24	1253,36
596,43	1304,56
596,63	1329,13
596,82	1290,22
597,01	1290,22
597,21	1259,50
597,40	1228,78
597,59	1308,65
597,79	1214,45
597,98	1251,31
598,17	1261,55
598,36	1322,99
598,56	1169,39
598,75	1282,03
598,94	1284,08
599,14	1259,50
599,33	1288,17
599,52	1300,46
599,71	1306,60
599,91	1343,47
600,10	1306,60
600,29	1261,55
600,48	1298,41
600,68	1284,08
600,87	1239,02
601,06	1255,40
601,26	1239,02
601,45	1232,88
601,64	1282,03
601,83	1304,56
602,03	1249,26
602,22	1243,12
602,41	1298,41
602,60	1318,89
602,80	1269,74
602,99	1292,27
603,18	1251,31
603,37	1275,88
603,57	1239,02
603,76	1269,74
603,95	1263,60
604,14	1341,42
604,34	1335,28
604,53	1318,89
604,72	1300,46
604,91	1277,93
605,10	1298,41
605,30	1320,94
605,49	1273,84
605,68	1232,88
605,87	1322,99
606,07	1245,16
606,26	1273,84
606,45	1284,08
606,64	1269,74
606,84	1236,97
607,03	1318,89
607,22	1288,17
607,41	1318,89
607,60	1288,17
607,80	1329,13
607,99	1316,84
608,18	1261,55
608,37	1277,93
608,56	1247,21
608,76	1331,18
608,95	1296,36
609,14	1263,60
609,33	1335,28
609,52	1314,80
609,72	1273,84
609,91	1288,17
610,10	1255,40
610,29	1230,83
610,48	1290,22
610,68	1304,56
610,87	1279,98
611,06	1310,70
611,25	1320,94
611,44	1232,88
611,63	1261,55
611,83	1247,21
612,02	1249,26
612,21	1277,93
612,40	1275,88
612,59	1257,45
612,79	1347,56
612,98	1191,92
613,17	1282,03
613,36	1226,73
613,55	1304,56
613,74	1255,40
613,93	1316,84
614,13	1337,32
614,32	1282,03
614,51	1284,08
614,70	1279,98
614,89	1357,80
615,08	1288,17
615,28	1384,43
615,47	1253,36
615,66	1282,03
615,85	1286,12
616,04	1314,80
616,23	1263,60
616,42	1267,69
616,62	1206,25
616,81	1349,61
617,00	1290,22
617,19	1368,04
617,38	1200,11
617,57	1327,08
617,76	1298,41
617,95	1372,14
618,15	1269,74
618,34	1249,26
618,53	1212,40
618,72	1284,08
618,91	1325,04
619,10	1318,89
619,29	1302,51
619,48	1232,88
619,68	1265,64
619,87	1286,12
620,06	1259,50
620,25	1306,60
620,44	1331,18
620,63	1279,98
620,82	1310,70
621,01	1286,12
621,20	1273,84
621,39	1312,75
621,59	1310,70
621,78	1282,03
621,97	1290,22
622,16	1320,94
622,35	1261,55
622,54	1288,17
622,73	1345,52
622,92	1337,32
623,11	1294,32
623,30	1273,84
623,49	1236,97
623,68	1302,51
623,88	1253,36
624,07	1265,64
624,26	1290,22
624,45	1314,80
624,64	1265,64
624,83	1257,45
625,02	1267,69
625,21	1353,71
625,40	1279,98
625,59	1300,46
625,78	1314,80
625,97	1327,08
626,16	1339,37
626,35	1265,64
626,54	1357,80
626,74	1304,56
626,93	1320,94
627,12	1382,38
627,31	1259,50
627,50	1345,52
627,69	1234,93
627,88	1279,98
628,07	1327,08
628,26	1269,74
628,45	1241,07
628,64	1265,64
628,83	1294,32
629,02	1298,41
629,21	1282,03
629,40	1263,60
629,59	1263,60
629,78	1296,36
629,97	1271,79
630,16	1329,13
630,35	1327,08
630,54	1212,40
630,73	1294,32
630,92	1314,80
631,11	1306,60
631,30	1310,70
631,49	1388,52
631,68	1441,77
631,87	1513,45
632,06	1714,15
632,25	1554,41
632,44	1626,09
632,63	1703,91
632,82	2146,27
633,01	3817,41
633,20	3317,71
633,39	3067,86
633,58	2109,41
633,77	2338,78
633,96	3413,96
634,15	4321,21
634,34	4200,38
634,53	3106,77
634,72	2277,34
634,91	1818,60
635,10	1640,42
635,29	1646,57
635,48	1591,27
635,67	1533,93
635,86	1445,87
636,05	1429,48
636,24	1423,34
636,43	1322,99
636,62	1337,32
636,81	1275,88
637,00	1357,80
637,19	1337,32
637,38	1341,42
637,57	1249,26
637,76	1320,94
637,95	1318,89
638,14	1306,60
638,33	1376,24
638,52	1298,41
638,71	1368,04
638,89	1259,50
639,08	1292,27
639,27	1341,42
639,46	1310,70
639,65	1322,99
639,84	1249,26
640,03	1292,27
640,22	1296,36
640,41	1257,45
640,60	1267,69
640,79	1318,89
640,98	1284,08
641,17	1273,84
641,36	1253,36
641,55	1331,18
641,74	1224,69
641,92	1329,13
642,11	1288,17
642,30	1249,26
642,49	1282,03
642,68	1390,57
642,87	1232,88
643,06	1249,26
643,25	1320,94
643,44	1212,40
643,63	1261,55
643,82	1273,84
644,00	1259,50
644,19	1269,74
644,38	1294,32
644,57	1269,74
644,76	1255,40
644,95	1257,45
645,14	1214,45
645,33	1331,18
645,52	1308,65
645,71	1263,60
645,89	1204,21
646,08	1298,41
646,27	1325,04
646,46	1314,80
646,65	1298,41
646,84	1290,22
647,03	1253,36
647,22	1310,70
647,40	1279,98
647,59	1290,22
647,78	1236,97
647,97	1247,21
648,16	1257,45
648,35	1308,65
648,54	1318,89
648,73	1304,56
648,91	1282,03
649,10	1277,93
649,29	1318,89
649,48	1263,60
649,67	1253,36
649,86	1271,79
650,05	1267,69
650,23	1271,79
650,42	1277,93
650,61	1359,85
650,80	1230,83
650,99	1269,74
651,18	1335,28
651,36	1241,07
651,55	1249,26
651,74	1339,37
651,93	1191,92
652,12	1259,50
652,31	1185,77
652,49	1277,93
652,68	1296,36
652,87	1304,56
653,06	1290,22
653,25	1255,40
653,44	1271,79
653,62	1322,99
653,81	1269,74
654,00	1290,22
654,19	1284,08
654,38	1239,02
654,56	1228,78
654,75	1267,69
654,94	1286,12
655,13	1239,02
655,32	1314,80
655,51	1288,17
655,69	1200,11
655,88	1314,80
656,07	1345,52
656,26	1279,98
656,45	1196,01
656,63	1277,93
656,82	1196,01
657,01	1226,73
657,20	1216,49
657,38	1333,23
657,57	1284,08
657,76	1257,45
657,95	1261,55
658,14	1232,88
658,32	1253,36
658,51	1302,51
658,70	1257,45
658,89	1320,94
659,08	1208,30
659,26	1245,16
659,45	1296,36
659,64	1241,07
659,83	1310,70
660,01	1243,12
660,20	1312,75
660,39	1366,00
660,58	1212,40
660,76	1329,13
660,95	1333,23
661,14	1277,93
661,33	1222,64
661,51	1261,55
661,70	1273,84
661,89	1296,36
662,08	1236,97
662,26	1146,86
662,45	1220,59
662,64	1288,17
662,83	1255,40
663,01	1384,43
663,20	1257,45
663,39	1296,36
663,58	1306,60
663,76	1255,40
663,95	1318,89
664,14	1247,21
664,32	1288,17
664,51	1269,74
664,70	1273,84
664,89	1214,45
665,07	1171,44
665,26	1241,07
665,45	1255,40
665,64	1296,36
665,82	1218,54
666,01	1257,45
666,20	1286,12
666,38	1337,32
666,57	1269,74
666,76	1353,71
666,95	1314,80
667,13	1312,75
667,32	1290,22
667,51	1277,93
667,69	1200,11
667,88	1206,25
668,07	1341,42
668,25	1253,36
668,44	1261,55
668,63	1277,93
668,81	1288,17
669,00	1282,03
669,19	1314,80
669,38	1302,51
669,56	1310,70
669,75	1286,12
669,94	1308,65
670,12	1306,60
670,31	1230,83
670,50	1298,41
670,68	1275,88
670,87	1269,74
671,06	1331,18
671,24	1247,21
671,43	1361,90
671,62	1263,60
671,80	1273,84
671,99	1247,21
672,18	1279,98
672,36	1298,41
672,55	1331,18
672,74	1282,03
672,92	1271,79
673,11	1290,22
673,29	1253,36
673,48	1294,32
673,67	1314,80
673,85	1187,82
674,04	1249,26
674,23	1265,64
674,41	1236,97
674,60	1228,78
674,79	1282,03
674,97	1263,60
675,16	1257,45
675,34	1263,60
675,53	1277,93
675,72	1228,78
675,90	1249,26
676,09	1310,70
676,28	1290,22
676,46	1249,26
676,65	1241,07
676,83	1288,17
677,02	1300,46
677,21	1327,08
677,39	1259,50
677,58	1279,98
677,77	1234,93
677,95	1282,03
678,14	1273,84
678,32	1298,41
678,51	1253,36
678,70	1263,60
678,88	1308,65
679,07	1275,88
679,25	1279,98
679,44	1282,03
679,63	1257,45
679,81	1290,22
680,00	1265,64
680,18	1163,25
680,37	1239,02
680,55	1279,98
680,74	1247,21
680,93	1290,22
681,11	1333,23
681,30	1294,32
681,48	1296,36
681,67	1302,51
681,85	1316,84
682,04	1247,21
682,23	1284,08
682,41	1294,32
682,60	1284,08
682,78	1310,70
682,97	1302,51
683,15	1249,26
683,34	1322,99
683,53	1255,40
683,71	1245,16
683,90	1322,99
684,08	1245,16
684,27	1288,17
684,45	1261,55
684,64	1298,41
684,82	1284,08
685,01	1288,17
685,19	1241,07
685,38	1343,47
685,57	1261,55
685,75	1277,93
685,94	1232,88
686,12	1232,88
686,31	1212,40
686,49	1275,88
686,68	1245,16
686,86	1269,74
687,05	1298,41
687,23	1353,71
687,42	1282,03
687,60	1249,26
687,79	1232,88
687,97	1302,51
688,16	1210,35
688,34	1261,55
688,53	1230,83
688,71	1296,36
688,90	1279,98
689,08	1265,64
689,27	1282,03
689,45	1294,32
689,64	1253,36
689,82	1236,97
690,01	1245,16
690,19	1259,50
690,38	1228,78
690,56	1210,35
690,75	1277,93
690,93	1263,60
691,12	1249,26
691,30	1277,93
691,49	1277,93
691,67	1245,16
691,86	1322,99
692,04	1312,75
692,23	1359,85
692,41	1302,51
692,60	1261,55
692,78	1222,64
692,97	1294,32
693,15	1318,89
693,34	1275,88
693,52	1282,03
693,71	1232,88
693,89	1255,40
694,08	1187,82
694,26	1228,78
694,44	1263,60
694,63	1273,84
694,81	1271,79
695,00	1261,55
695,18	1318,89
695,37	1284,08
695,55	1261,55
695,74	1249,26
695,92	1243,12
696,10	1208,30
696,29	1271,79
696,47	1271,79
696,66	1265,64
696,84	1288,17
697,03	1253,36
697,21	1269,74
697,40	1366,00
697,58	1306,60
697,76	1150,96
697,95	1337,32
698,13	1234,93
698,32	1247,21
698,50	1288,17
698,68	1331,18
698,87	1210,35
699,05	1296,36
699,24	1310,70
699,42	1214,45
699,61	1329,13
699,79	1236,97
699,97	1298,41
700,16	1271,79
700,34	1251,31
700,53	1290,22
700,71	1279,98
700,89	1288,17
701,08	1263,60
701,26	1318,89
701,45	1310,70
701,63	1294,32
701,81	1212,40
702,00	1279,98
702,18	1310,70
702,37	1251,31
702,55	1232,88
702,73	1282,03
702,92	1206,25
703,10	1239,02
703,28	1288,17
703,47	1273,84
703,65	1310,70
703,84	1255,40
704,02	1259,50
704,20	1269,74
704,39	1312,75
704,57	1208,30
704,75	1179,63
704,94	1257,45
705,12	1288,17
705,30	1247,21
705,49	1310,70
705,67	1308,65
705,86	1316,84
706,04	1239,02
706,22	1273,84
706,41	1257,45
706,59	1228,78
706,77	1202,16
706,96	1296,36
707,14	1282,03
707,32	1284,08
707,51	1331,18
707,69	1267,69
707,87	1310,70
708,06	1275,88
708,24	1300,46
708,42	1228,78
708,61	1224,69
708,79	1222,64
708,97	1236,97
709,16	1273,84
709,34	1302,51
709,52	1245,16
709,71	1236,97
709,89	1279,98
710,07	1253,36
710,26	1294,32
710,44	1292,27
710,62	1269,74
710,80	1212,40
710,99	1226,73
711,17	1208,30
711,35	1224,69
711,54	1234,93
711,72	1271,79
711,90	1300,46
712,09	1228,78
712,27	1292,27
712,45	1263,60
712,63	1257,45
712,82	1249,26
713,00	1296,36
713,18	1282,03
713,37	1306,60
713,55	1245,16
713,73	1259,50
713,91	1232,88
714,10	1341,42
714,28	1290,22
714,46	1296,36
714,65	1230,83
714,83	1288,17
715,01	1263,60
715,19	1200,11
715,38	1212,40
715,56	1290,22
715,74	1236,97
715,92	1339,37
716,11	1189,87
716,29	1251,31
716,47	1318,89
716,65	1222,64
716,84	1243,12
717,02	1288,17
717,20	1277,93
717,38	1275,88
717,57	1253,36
717,75	1271,79
717,93	1290,22
718,11	1247,21
718,30	1275,88
718,48	1163,25
718,66	1337,32
718,84	1286,12
719,03	1284,08
719,21	1232,88
719,39	1271,79
719,57	1247,21
719,75	1243,12
719,94	1236,97
720,12	1220,59
720,30	1239,02
720,48	1253,36
720,67	1259,50
720,85	1279,98
721,03	1263,60
721,21	1273,84
721,39	1275,88
721,58	1282,03
721,76	1261,55
721,94	1292,27
722,12	1282,03
722,30	1253,36
722,49	1208,30
722,67	1216,49
722,85	1222,64
723,03	1239,02
723,21	1263,60
723,40	1271,79
723,58	1234,93
723,76	1271,79
723,94	1216,49
724,12	1263,60
724,30	1331,18
724,49	1329,13
724,67	1306,60
724,85	1310,70
725,03	1312,75
725,21	1361,90
725,40	1282,03
725,58	1259,50
725,76	1224,69
725,94	1243,12
726,12	1257,45
726,30	1273,84
726,49	1292,27
726,67	1273,84
726,85	1275,88
727,03	1198,06
727,21	1249,26
727,39	1296,36
727,57	1253,36
727,76	1273,84
727,94	1224,69
728,12	1228,78
728,30	1273,84
728,48	1265,64
728,66	1282,03
728,84	1253,36
729,03	1318,89
729,21	1212,40
729,39	1253,36
729,57	1329,13
729,75	1282,03
729,93	1239,02
730,11	1284,08
730,30	1255,40
730,48	1298,41
730,66	1269,74
730,84	1259,50
731,02	1298,41
731,20	1282,03
731,38	1255,40
731,56	1269,74
731,74	1269,74
731,93	1273,84
732,11	1286,12
732,29	1329,13
732,47	1222,64
732,65	1273,84
732,83	1228,78
733,01	1343,47
733,19	1232,88
733,37	1191,92
733,56	1271,79
733,74	1290,22
733,92	1232,88
734,10	1259,50
734,28	1316,84
734,46	1236,97
734,64	1273,84
734,82	1320,94
735,00	1310,70
735,18	1277,93
735,36	1241,07
735,54	1253,36
735,73	1234,93
735,91	1282,03
736,09	1294,32
736,27	1243,12
736,45	1296,36
736,63	1302,51
736,81	1310,70
736,99	1253,36
737,17	1314,80
737,35	1282,03
737,53	1261,55
737,71	1216,49
737,89	1286,12
738,07	1294,32
738,25	1290,22
738,43	1306,60
738,61	1255,40
738,80	1255,40
738,98	1267,69
739,16	1306,60
739,34	1167,34
739,52	1284,08
739,70	1329,13
739,88	1284,08
740,06	1286,12
740,24	1325,04
740,42	1327,08
740,60	1255,40
740,78	1310,70
740,96	1251,31
741,14	1279,98
741,32	1302,51
741,50	1273,84
741,68	1255,40
741,86	1210,35
742,04	1271,79
742,22	1277,93
742,40	1196,01
742,58	1236,97
742,76	1306,60
742,94	1230,83
743,12	1273,84
743,30	1204,21
743,48	1318,89
743,66	1220,59
743,84	1224,69
744,02	1234,93
744,20	1259,50
744,38	1257,45
744,56	1191,92
744,74	1310,70
744,92	1279,98
745,10	1345,52
745,28	1245,16
745,46	1236,97
745,64	1255,40
745,82	1265,64
746,00	1290,22
746,18	1314,80
746,36	1249,26
746,54	1331,18
746,72	1261,55
746,90	1290,22
747,08	1275,88
747,26	1247,21
747,44	1275,88
747,62	1189,87
747,80	1261,55
747,98	1247,21
748,15	1259,50
748,33	1269,74
748,51	1247,21
748,69	1306,60
748,87	1226,73
749,05	1277,93
749,23	1245,16
749,41	1269,74
749,59	1331,18
749,77	1290,22
749,95	1247,21
750,13	1314,80
750,31	1245,16
750,49	1275,88
750,67	1277,93
750,85	1259,50
751,03	1384,43
751,20	1327,08
751,38	1298,41
751,56	1226,73
751,74	1294,32
751,92	1294,32
752,10	1288,17
752,28	1208,30
752,46	1257,45
752,64	1265,64
752,82	1298,41
753,00	1286,12
753,18	1279,98
753,35	1255,40
753,53	1282,03
753,71	1306,60
753,89	1294,32
754,07	1265,64
754,25	1247,21
754,43	1241,07
754,61	1284,08
754,79	1239,02
754,97	1325,04
755,14	1214,45
755,32	1343,47
755,50	1284,08
755,68	1366,00
755,86	1257,45
756,04	1273,84
756,22	1269,74
756,40	1282,03
756,57	1286,12
756,75	1306,60
756,93	1236,97
757,11	1284,08
757,29	1222,64
757,47	1273,84
757,65	1255,40
757,82	1265,64
758,00	1247,21
758,18	1298,41
758,36	1187,82
758,54	1302,51
758,72	1212,40
758,90	1331,18
759,07	1288,17
759,25	1279,98
759,43	1300,46
759,61	1243,12
759,79	1325,04
759,97	1236,97
760,15	1171,44
760,32	1273,84
760,50	1247,21
760,68	1282,03
760,86	1222,64
761,04	1316,84
761,22	1249,26
761,39	1224,69
761,57	1230,83
761,75	1261,55
761,93	1292,27
762,11	1284,08
762,28	1245,16
762,46	1236,97
762,64	1271,79
762,82	1232,88
763,00	1216,49
763,18	1343,47
763,35	1243,12
763,53	1279,98
763,71	1271,79
763,89	1269,74
764,07	1239,02
764,24	1318,89
764,42	1253,36
764,60	1214,45
764,78	1341,42
764,96	1341,42
765,13	1286,12
765,31	1228,78
765,49	1279,98
765,67	1310,70
765,84	1224,69
766,02	1267,69
766,20	1159,15
766,38	1284,08
766,56	1333,23
766,73	1273,84
766,91	1236,97
767,09	1263,60
767,27	1249,26
767,44	1206,25
767,62	1243,12
767,80	1271,79
767,98	1282,03
768,15	1243,12
768,33	1202,16
768,51	1224,69
768,69	1232,88
768,87	1263,60
769,04	1249,26
769,22	1224,69
769,40	1261,55
769,58	1302,51
769,75	1269,74
769,93	1249,26
770,11	1318,89
770,28	1234,93
770,46	1271,79
770,64	1269,74
770,82	1320,94
770,99	1257,45
771,17	1312,75
771,35	1296,36
771,53	1320,94
771,70	1253,36
771,88	1273,84
772,06	1314,80
772,23	1251,31
772,41	1298,41
772,59	1269,74
772,77	1269,74
772,94	1253,36
773,12	1294,32
773,30	1304,56
773,47	1232,88
773,65	1181,68
773,83	1241,07
774,01	1243,12
774,18	1271,79
774,36	1282,03
774,54	1271,79
774,71	1308,65
774,89	1239,02
775,07	1247,21
775,24	1247,21
775,42	1273,84
775,60	1320,94
775,78	1277,93
775,95	1210,35
776,13	1249,26
776,31	1265,64
776,48	1277,93
776,66	1277,93
776,84	1245,16
777,01	1277,93
777,19	1204,21
777,37	1243,12
777,54	1298,41
777,72	1341,42
777,90	1236,97
778,07	1277,93
778,25	1173,49
778,43	1294,32
778,60	1322,99
778,78	1263,60
778,96	1234,93
779,13	1234,93
779,31	1290,22
779,49	1193,97
779,66	1263,60
779,84	1247,21
780,01	1224,69
780,19	1294,32
780,37	1257,45
780,54	1312,75
780,72	1200,11
780,90	1300,46
781,07	1288,17
781,25	1306,60
781,43	1236,97
781,60	1247,21
781,78	1286,12
781,95	1304,56
782,13	1290,22
782,31	1316,84
782,48	1273,84
782,66	1257,45
782,83	1318,89
783,01	1263,60
783,19	1304,56
783,36	1286,12
783,54	1210,35
783,72	1308,65
783,89	1286,12
784,07	1241,07
784,24	1271,79
784,42	1232,88
784,60	1247,21
784,77	1193,97
784,95	1239,02
785,12	1196,01
785,30	1296,36
785,47	1279,98
785,65	1310,70
785,83	1333,23
786,00	1257,45
786,18	1198,06
786,35	1228,78
786,53	1269,74
786,71	1267,69
786,88	1284,08
787,06	1265,64
787,23	1284,08
787,41	1247,21
787,58	1212,40
787,76	1265,64
787,94	1255,40
788,11	1288,17
788,29	1292,27
788,46	1286,12
788,64	1290,22
788,81	1185,77
788,99	1265,64
789,16	1253,36
789,34	1265,64
789,52	1224,69
789,69	1230,83
789,87	1253,36
790,04	1222,64
790,22	1284,08
790,39	1236,97
790,57	1265,64
790,74	1239,02
790,92	1241,07
791,09	1239,02
791,27	1306,60
791,44	1202,16
791,62	1312,75
791,79	1198,06
791,97	1245,16
792,15	1259,50
792,32	1284,08
792,50	1243,12
792,67	1267,69
792,85	1294,32
793,02	1282,03
793,20	1247,21
793,37	1290,22
793,55	1269,74
793,72	1239,02
793,90	1243,12
794,07	1261,55
794,25	1271,79
794,42	1208,30
794,60	1196,01
794,77	1255,40
794,95	1232,88
795,12	1193,97
795,30	1220,59
795,47	1269,74
795,65	1333,23
795,82	1206,25
796,00	1239,02
796,17	1269,74
796,34	1222,64
796,52	1234,93
796,69	1255,40
796,87	1255,40
797,04	1273,84
797,22	1269,74
797,39	1290,22
797,57	1234,93
797,74	1292,27
797,92	1279,98
798,09	1312,75
798,27	1341,42
798,44	1304,56
798,62	1204,21
798,79	1304,56
798,96	1218,54
799,14	1257,45
799,31	1234,93
799,49	1255,40
799,66	1335,28
799,84	1249,26
800,01	1298,41
800,19	1298,41
800,36	1253,36
800,53	1298,41
800,71	1247,21
800,88	1298,41
801,06	1257,45
801,23	1273,84
801,41	1249,26
801,58	1277,93
801,75	1288,17
801,93	1249,26
802,10	1306,60
802,28	1234,93
802,45	1284,08
802,63	1269,74
802,80	1359,85
802,97	1245,16
803,15	1335,28
803,32	1273,84
803,50	1286,12
803,67	1384,43
803,84	1222,64
804,02	1312,75
804,19	1234,93
804,37	1349,61
804,54	1271,79
804,71	1273,84
804,89	1249,26
805,06	1222,64
805,24	1214,45
805,41	1286,12
805,58	1218,54
805,76	1345,52
805,93	1234,93
806,10	1290,22
806,28	1202,16
806,45	1265,64
806,63	1349,61
806,80	1327,08
806,97	1185,77
807,15	1239,02
807,32	1267,69
807,49	1296,36
807,67	1261,55
807,84	1241,07
808,01	1247,21
808,19	1259,50
808,36	1241,07
808,54	1296,36
808,71	1247,21
808,88	1271,79
809,06	1269,74
809,23	1249,26
809,40	1296,36
809,58	1300,46
809,75	1185,77
809,92	1241,07
810,10	1351,66
810,27	1331,18
810,44	1269,74
810,62	1284,08
810,79	1320,94
810,96	1329,13
811,14	1294,32
811,31	1275,88
811,48	1273,84
811,66	1259,50
811,83	1247,21
812,00	1275,88
812,18	1257,45
812,35	1296,36
812,52	1249,26
812,69	1304,56
812,87	1296,36
813,04	1306,60
813,21	1314,80
813,39	1191,92
813,56	1263,60
813,73	1355,76
813,91	1251,31
814,08	1292,27
814,25	1208,30
814,42	1236,97
814,60	1220,59
814,77	1245,16
814,94	1226,73
815,12	1286,12
815,29	1265,64
815,46	1300,46
815,63	1214,45
815,81	1310,70
815,98	1312,75
816,15	1245,16
816,33	1261,55
816,50	1228,78
816,67	1261,55
816,84	1234,93
817,02	1247,21
817,19	1204,21
817,36	1212,40
817,53	1312,75
817,71	1255,40
817,88	1208,30
818,05	1279,98
818,22	1316,84
818,40	1337,32
818,57	1286,12
818,74	1196,01
818,91	1265,64
819,09	1290,22
819,26	1273,84
819,43	1331,18
819,60	1263,60
819,78	1310,70
819,95	1273,84
820,12	1318,89
820,29	1279,98
820,47	1241,07
820,64	1206,25
820,81	1228,78
820,98	1290,22
821,15	1261,55
821,33	1355,76
821,50	1245,16
821,67	1255,40
821,84	1335,28
822,02	1292,27
822,19	1267,69
822,36	1241,07
822,53	1267,69
822,70	1243,12
822,88	1343,47
823,05	1286,12
823,22	1239,02
823,39	1302,51
823,56	1251,31
823,74	1271,79
823,91	1236,97
824,08	1251,31
824,25	1273,84
824,42	1308,65
824,60	1259,50
824,77	1329,13
824,94	1177,58
825,11	1232,88
825,28	1286,12
825,45	1236,97
825,63	1239,02
825,80	1236,97
825,97	1261,55
826,14	1296,36
826,31	1318,89
826,48	1269,74
826,66	1294,32
826,83	1329,13
827,00	1249,26
827,17	1267,69
827,34	1314,80
827,51	1245,16
827,69	1261,55
827,86	1302,51
828,03	1300,46
828,20	1263,60
828,37	1212,40
828,54	1261,55
828,71	1241,07
828,89	1222,64
829,06	1300,46
829,23	1296,36
829,40	1243,12
829,57	1232,88
829,74	1322,99
829,91	1325,04
830,09	1257,45
830,26	1294,32
830,43	1239,02
830,60	1267,69
830,77	1257,45
830,94	1269,74
831,11	1298,41
831,28	1316,84
831,46	1261,55
831,63	1355,76
831,80	1224,69
831,97	1245,16
832,14	1232,88
832,31	1247,21
832,48	1243,12
832,65	1241,07
832,82	1251,31
832,99	1304,56
833,17	1306,60
833,34	1277,93
833,51	1245,16
833,68	1253,36
833,85	1288,17
834,02	1296,36
834,19	1245,16
834,36	1196,01
834,53	1259,50
834,70	1243,12
834,87	1245,16
835,04	1282,03
835,22	1257,45
835,39	1249,26
835,56	1318,89
835,73	1265,64
835,90	1118,19
836,07	1290,22
836,24	1206,25
836,41	1271,79
836,58	1292,27
836,75	1249,26
836,92	1304,56
837,09	1282,03
837,26	1282,03
837,43	1253,36
837,60	1290,22
837,77	1155,05
837,94	1243,12
838,12	1206,25
838,29	1288,17
838,46	1183,73
838,63	1247,21
838,80	1279,98
838,97	1277,93
839,14	1284,08
839,31	1202,16
839,48	1257,45
839,65	1302,51
839,82	1277,93
839,99	1306,60
840,16	1318,89
840,33	1218,54
840,50	1181,68
840,67	1298,41
840,84	1351,66
841,01	1273,84
841,18	1228,78
841,35	1302,51
841,52	1325,04
841,69	1191,92
841,86	1298,41
842,03	1300,46
842,20	1335,28
842,37	1253,36
842,54	1298,41
842,71	1261,55
842,88	1224,69
843,05	1296,36
843,22	1191,92
843,39	1255,40
843,56	1337,32
843,73	1275,88
843,90	1271,79
844,07	1249,26
844,24	1230,83
844,41	1255,40
844,58	1300,46
844,75	1212,40
844,92	1273,84
845,09	1271,79
845,26	1232,88
845,43	1267,69
845,60	1269,74
845,77	1243,12
845,94	1279,98
846,10	1245,16
846,27	1232,88
846,44	1263,60
846,61	1269,74
846,78	1220,59
846,95	1247,21
847,12	1226,73
847,29	1247,21
847,46	1257,45
847,63	1300,46
847,80	1261,55
847,97	1261,55
848,14	1294,32
848,31	1263,60
848,48	1310,70
848,65	1212,40
848,82	1259,50
848,98	1306,60
849,15	1300,46
849,32	1312,75
849,49	1212,40
849,66	1232,88
849,83	1230,83
850,00	1269,74
850,17	1286,12
850,34	1253,36
850,51	1255,40
850,68	1300,46
850,85	1220,59
851,01	1210,35
851,18	1282,03
851,35	1298,41
851,52	1255,40
851,69	1347,56
851,86	1251,31
852,03	1275,88
852,20	1216,49
852,37	1243,12
852,53	1294,32
852,70	1282,03
852,87	1198,06
853,04	1263,60
853,21	1224,69
853,38	1279,98
853,55	1226,73
853,72	1245,16
853,89	1187,82
854,05	1296,36
854,22	1277,93
854,39	1279,98
854,56	1292,27
854,73	1208,30
854,90	1224,69
855,07	1284,08
855,23	1355,76
855,40	1267,69
855,57	1308,65
855,74	1275,88
855,91	1249,26
856,08	1284,08
856,25	1230,83
856,41	1271,79
856,58	1267,69
856,75	1282,03
856,92	1265,64
857,09	1308,65
857,26	1298,41
857,42	1349,61
857,59	1290,22
857,76	1290,22
857,93	1298,41
858,10	1302,51
858,27	1312,75
858,43	1245,16
858,60	1279,98
858,77	1308,65
858,94	1259,50
859,11	1173,49
859,27	1200,11
859,44	1261,55
859,61	1298,41
859,78	1226,73
859,95	1255,40
860,12	1243,12
860,28	1230,83
860,45	1322,99
860,62	1261,55
860,79	1294,32
860,95	1261,55
861,12	1310,70
861,29	1294,32
861,46	1224,69
861,63	1239,02
861,79	1300,46
861,96	1269,74
862,13	1302,51
862,30	1265,64
862,47	1277,93
862,63	1183,73
862,80	1376,24
862,97	1257,45
863,14	1183,73
863,30	1206,25
863,47	1331,18
863,64	1316,84
863,81	1288,17
863,97	1263,60
864,14	1236,97
864,31	1216,49
864,48	1351,66
864,65	1288,17
864,81	1265,64
864,98	1245,16
865,15	1282,03
865,32	1261,55
865,48	1212,40
865,65	1298,41
865,82	1261,55
865,98	1304,56
866,15	1232,88
866,32	1273,84
866,49	1191,92
866,65	1316,84
866,82	1286,12
866,99	1310,70
867,16	1239,02
867,32	1271,79
867,49	1298,41
867,66	1208,30
867,83	1294,32
867,99	1193,97
868,16	1273,84
868,33	1239,02
868,49	1236,97
868,66	1300,46
868,83	1275,88
868,99	1255,40
869,16	1239,02
869,33	1251,31
869,50	1275,88
869,66	1245,16
869,83	1230,83
870,00	1253,36
870,16	1263,60
870,33	1265,64
870,50	1232,88
870,66	1304,56
870,83	1298,41
871,00	1228,78
871,17	1304,56
871,33	1294,32
871,50	1261,55
871,67	1279,98
871,83	1312,75
872,00	1290,22
872,17	1243,12
872,33	1312,75
872,50	1288,17
872,67	1232,88
872,83	1286,12
873,00	1277,93
873,17	1333,23
873,33	1320,94
873,50	1337,32
873,67	1271,79
873,83	1257,45
874,00	1236,97
874,16	1243,12
874,33	1243,12
874,50	1269,74
874,66	1208,30
874,83	1230,83
875,00	1277,93
875,16	1290,22
875,33	1220,59
875,50	1271,79
875,66	1296,36
875,83	1275,88
875,99	1329,13
876,16	1247,21
876,33	1230,83
876,49	1224,69
876,66	1312,75
876,83	1275,88
876,99	1286,12
877,16	1222,64
877,32	1298,41
877,49	1286,12
877,66	1259,50
877,82	1245,16
877,99	1259,50
878,15	1273,84
878,32	1300,46
878,49	1257,45
878,65	1232,88
878,82	1353,71
878,98	1325,04
879,15	1232,88
879,32	1269,74
879,48	1271,79
879,65	1261,55
879,81	1200,11
879,98	1271,79
880,15	1265,64
880,31	1236,97
880,48	1196,01
880,64	1267,69
880,81	1234,93
880,97	1263,60
881,14	1269,74
881,31	1267,69
881,47	1282,03
881,64	1210,35
881,80	1290,22
881,97	1282,03
882,13	1282,03
882,30	1243,12
882,47	1255,40
882,63	1173,49
882,80	1263,60
882,96	1243,12
883,13	1286,12
883,29	1212,40
883,46	1275,88
883,62	1273,84
883,79	1284,08
883,95	1251,31
884,12	1245,16
884,29	1218,54
884,45	1261,55
884,62	1157,10
884,78	1245,16
884,95	1304,56
885,11	1308,65
885,28	1224,69
885,44	1298,41
885,61	1290,22
885,77	1269,74
885,94	1284,08
886,10	1216,49
886,27	1284,08
886,43	1298,41
886,60	1314,80
886,76	1265,64
886,93	1275,88
887,09	1308,65
887,26	1279,98
887,42	1290,22
887,59	1312,75
887,75	1296,36
887,92	1294,32
888,08	1208,30
888,25	1290,22
888,41	1222,64
888,58	1284,08
888,74	1263,60
888,91	1181,68
>>>>>End Processed Spectral Data<<<<<
