SpectraSuite Data File
++++++++++++++++++++++++++++++++++++
Date: Sun Apr 03 19:55:36 CEST 2016
User: root
Dark Spectrum Present: No
Reference Spectrum Present: No
Number of Sampled Component Spectra: 1
Spectrometers: USB4C02835
Integration Time (usec): 10000 (USB4C02835)
Spectra Averaged: 1 (USB4C02835)
Boxcar Smoothing: 0 (USB4C02835)
Correct for Electrical Dark: No (USB4C02835)
Strobe/Lamp Enabled: No (USB4C02835)
Correct for Detector Non-linearity: No (USB4C02835)
Correct for Stray Light: No (USB4C02835)
Number of Pixels in Processed Spectrum: 3648
>>>>>Begin Processed Spectral Data<<<<<
177,47	1257,45
177,69	1257,45
177,91	1257,45
178,13	1257,45
178,36	1245,16
178,58	1269,74
178,80	1261,55
179,02	1185,77
179,24	1228,78
179,46	1249,26
179,68	1202,16
179,90	1284,08
180,13	1249,26
180,35	1282,03
180,57	1275,88
180,79	1212,40
181,01	1286,12
181,23	1269,74
181,45	1318,89
181,67	1296,36
181,90	1247,21
182,12	1265,64
182,34	1220,59
182,56	1255,40
182,78	1345,52
183,00	1282,03
183,22	1304,56
183,44	1273,84
183,66	1298,41
183,89	1239,02
184,11	1222,64
184,33	1271,79
184,55	1226,73
184,77	1322,99
184,99	1320,94
185,21	1216,49
185,43	1292,27
185,65	1253,36
185,87	1290,22
186,10	1265,64
186,32	1212,40
186,54	1257,45
186,76	1320,94
186,98	1271,79
187,20	1261,55
187,42	1212,40
187,64	1251,31
187,86	1259,50
188,08	1247,21
188,30	1247,21
188,52	1257,45
188,75	1232,88
188,97	1243,12
189,19	1284,08
189,41	1322,99
189,63	1333,23
189,85	1265,64
190,07	1282,03
190,29	1226,73
190,51	1265,64
190,73	1261,55
190,95	1241,07
191,17	1251,31
191,39	1294,32
191,61	1302,51
191,84	1320,94
192,06	1333,23
192,28	1290,22
192,50	1263,60
192,72	1265,64
192,94	1265,64
193,16	1251,31
193,38	1347,56
193,60	1298,41
193,82	1292,27
194,04	1210,35
194,26	1271,79
194,48	1214,45
194,70	1245,16
194,92	1253,36
195,14	1261,55
195,36	1216,49
195,58	1273,84
195,80	1308,65
196,02	1210,35
196,24	1275,88
196,46	1267,69
196,69	1312,75
196,91	1312,75
197,13	1306,60
197,35	1271,79
197,57	1269,74
197,79	1288,17
198,01	1210,35
198,23	1294,32
198,45	1189,87
198,67	1263,60
198,89	1263,60
199,11	1308,65
199,33	1259,50
199,55	1269,74
199,77	1263,60
199,99	1290,22
200,21	1189,87
200,43	1353,71
200,65	1208,30
200,87	1363,95
201,09	1208,30
201,31	1302,51
201,53	1239,02
201,75	1189,87
201,97	1257,45
202,19	1277,93
202,41	1296,36
202,63	1226,73
202,85	1296,36
203,07	1322,99
203,29	1279,98
203,51	1302,51
203,73	1259,50
203,95	1191,92
204,17	1257,45
204,39	1273,84
204,61	1245,16
204,83	1284,08
205,05	1216,49
205,27	1314,80
205,49	1312,75
205,71	1218,54
205,93	1265,64
206,15	1282,03
206,37	1279,98
206,59	1286,12
206,81	1335,28
207,03	1286,12
207,25	1216,49
207,47	1269,74
207,69	1261,55
207,91	1347,56
208,13	1251,31
208,34	1304,56
208,56	1200,11
208,78	1247,21
209,00	1236,97
209,22	1279,98
209,44	1306,60
209,66	1239,02
209,88	1304,56
210,10	1255,40
210,32	1222,64
210,54	1296,36
210,76	1232,88
210,98	1300,46
211,20	1300,46
211,42	1275,88
211,64	1259,50
211,86	1273,84
212,08	1296,36
212,30	1284,08
212,52	1331,18
212,74	1298,41
212,96	1302,51
213,17	1271,79
213,39	1224,69
213,61	1286,12
213,83	1284,08
214,05	1253,36
214,27	1247,21
214,49	1259,50
214,71	1255,40
214,93	1261,55
215,15	1284,08
215,37	1204,21
215,59	1290,22
215,81	1241,07
216,03	1361,90
216,24	1298,41
216,46	1288,17
216,68	1302,51
216,90	1224,69
217,12	1253,36
217,34	1249,26
217,56	1279,98
217,78	1259,50
218,00	1198,06
218,22	1292,27
218,44	1275,88
218,66	1263,60
218,87	1353,71
219,09	1204,21
219,31	1288,17
219,53	1316,84
219,75	1263,60
219,97	1312,75
220,19	1251,31
220,41	1306,60
220,63	1247,21
220,85	1277,93
221,06	1259,50
221,28	1245,16
221,50	1214,45
221,72	1308,65
221,94	1257,45
222,16	1249,26
222,38	1310,70
222,60	1228,78
222,82	1306,60
223,03	1286,12
223,25	1208,30
223,47	1325,04
223,69	1286,12
223,91	1298,41
224,13	1304,56
224,35	1236,97
224,57	1290,22
224,78	1273,84
225,00	1294,32
225,22	1210,35
225,44	1214,45
225,66	1236,97
225,88	1222,64
226,10	1310,70
226,32	1359,85
226,53	1273,84
226,75	1175,53
226,97	1296,36
227,19	1282,03
227,41	1294,32
227,63	1275,88
227,85	1200,11
228,06	1327,08
228,28	1314,80
228,50	1302,51
228,72	1191,92
228,94	1269,74
229,16	1232,88
229,37	1255,40
229,59	1224,69
229,81	1271,79
230,03	1308,65
230,25	1300,46
230,47	1284,08
230,69	1292,27
230,90	1331,18
231,12	1296,36
231,34	1263,60
231,56	1306,60
231,78	1277,93
232,00	1263,60
232,21	1273,84
232,43	1312,75
232,65	1206,25
232,87	1208,30
233,09	1245,16
233,30	1265,64
233,52	1331,18
233,74	1263,60
233,96	1343,47
234,18	1267,69
234,40	1322,99
234,61	1226,73
234,83	1218,54
235,05	1269,74
235,27	1263,60
235,49	1212,40
235,70	1329,13
235,92	1279,98
236,14	1239,02
236,36	1286,12
236,58	1249,26
236,79	1263,60
237,01	1259,50
237,23	1308,65
237,45	1245,16
237,67	1236,97
237,88	1251,31
238,10	1265,64
238,32	1296,36
238,54	1214,45
238,76	1243,12
238,97	1234,93
239,19	1259,50
239,41	1282,03
239,63	1339,37
239,85	1292,27
240,06	1288,17
240,28	1292,27
240,50	1322,99
240,72	1249,26
240,93	1251,31
241,15	1320,94
241,37	1296,36
241,59	1204,21
241,81	1261,55
242,02	1306,60
242,24	1318,89
242,46	1275,88
242,68	1228,78
242,89	1249,26
243,11	1261,55
243,33	1275,88
243,55	1292,27
243,76	1269,74
243,98	1304,56
244,20	1243,12
244,42	1343,47
244,64	1251,31
244,85	1216,49
245,07	1306,60
245,29	1273,84
245,51	1261,55
245,72	1222,64
245,94	1376,24
246,16	1200,11
246,38	1232,88
246,59	1273,84
246,81	1306,60
247,03	1290,22
247,24	1353,71
247,46	1253,36
247,68	1298,41
247,90	1318,89
248,11	1222,64
248,33	1265,64
248,55	1282,03
248,77	1275,88
248,98	1277,93
249,20	1239,02
249,42	1284,08
249,64	1277,93
249,85	1343,47
250,07	1308,65
250,29	1269,74
250,50	1249,26
250,72	1257,45
250,94	1306,60
251,16	1251,31
251,37	1267,69
251,59	1171,44
251,81	1212,40
252,02	1294,32
252,24	1226,73
252,46	1253,36
252,68	1275,88
252,89	1218,54
253,11	1312,75
253,33	1347,56
253,54	1284,08
253,76	1241,07
253,98	1286,12
254,20	1273,84
254,41	1277,93
254,63	1282,03
254,85	1267,69
255,06	1275,88
255,28	1261,55
255,50	1296,36
255,71	1271,79
255,93	1255,40
256,15	1251,31
256,36	1296,36
256,58	1222,64
256,80	1363,95
257,02	1290,22
257,23	1286,12
257,45	1263,60
257,67	1261,55
257,88	1230,83
258,10	1265,64
258,32	1292,27
258,53	1343,47
258,75	1327,08
258,97	1230,83
259,18	1245,16
259,40	1206,25
259,62	1230,83
259,83	1277,93
260,05	1245,16
260,27	1232,88
260,48	1218,54
260,70	1261,55
260,92	1263,60
261,13	1275,88
261,35	1288,17
261,57	1241,07
261,78	1257,45
262,00	1241,07
262,22	1239,02
262,43	1314,80
262,65	1282,03
262,86	1226,73
263,08	1279,98
263,30	1224,69
263,51	1236,97
263,73	1208,30
263,95	1261,55
264,16	1363,95
264,38	1269,74
264,60	1241,07
264,81	1271,79
265,03	1279,98
265,25	1320,94
265,46	1241,07
265,68	1216,49
265,89	1249,26
266,11	1239,02
266,33	1261,55
266,54	1306,60
266,76	1255,40
266,98	1230,83
267,19	1228,78
267,41	1243,12
267,62	1263,60
267,84	1269,74
268,06	1296,36
268,27	1239,02
268,49	1302,51
268,70	1279,98
268,92	1306,60
269,14	1294,32
269,35	1239,02
269,57	1239,02
269,79	1370,09
270,00	1292,27
270,22	1247,21
270,43	1259,50
270,65	1259,50
270,87	1261,55
271,08	1279,98
271,30	1277,93
271,51	1191,92
271,73	1253,36
271,95	1312,75
272,16	1300,46
272,38	1239,02
272,59	1320,94
272,81	1318,89
273,02	1294,32
273,24	1257,45
273,46	1271,79
273,67	1286,12
273,89	1263,60
274,10	1288,17
274,32	1243,12
274,54	1220,59
274,75	1257,45
274,97	1302,51
275,18	1320,94
275,40	1271,79
275,61	1191,92
275,83	1175,53
276,05	1265,64
276,26	1273,84
276,48	1282,03
276,69	1265,64
276,91	1290,22
277,12	1284,08
277,34	1277,93
277,55	1263,60
277,77	1218,54
277,99	1279,98
278,20	1273,84
278,42	1226,73
278,63	1239,02
278,85	1296,36
279,06	1175,53
279,28	1308,65
279,49	1265,64
279,71	1298,41
279,93	1308,65
280,14	1230,83
280,36	1214,45
280,57	1267,69
280,79	1269,74
281,00	1234,93
281,22	1208,30
281,43	1284,08
281,65	1273,84
281,86	1275,88
282,08	1222,64
282,29	1314,80
282,51	1286,12
282,73	1232,88
282,94	1275,88
283,16	1288,17
283,37	1249,26
283,59	1267,69
283,80	1275,88
284,02	1269,74
284,23	1288,17
284,45	1294,32
284,66	1253,36
284,88	1314,80
285,09	1181,68
285,31	1279,98
285,52	1349,61
285,74	1191,92
285,95	1282,03
286,17	1286,12
286,38	1232,88
286,60	1314,80
286,81	1265,64
287,03	1271,79
287,24	1314,80
287,46	1257,45
287,67	1312,75
287,89	1372,14
288,10	1259,50
288,32	1208,30
288,53	1329,13
288,75	1286,12
288,96	1333,23
289,18	1245,16
289,39	1249,26
289,61	1282,03
289,82	1322,99
290,04	1282,03
290,25	1282,03
290,47	1279,98
290,68	1261,55
290,90	1236,97
291,11	1325,04
291,33	1265,64
291,54	1288,17
291,76	1327,08
291,97	1216,49
292,18	1318,89
292,40	1249,26
292,61	1212,40
292,83	1257,45
293,04	1320,94
293,26	1286,12
293,47	1325,04
293,69	1331,18
293,90	1255,40
294,12	1267,69
294,33	1286,12
294,55	1173,49
294,76	1214,45
294,97	1247,21
295,19	1286,12
295,40	1279,98
295,62	1288,17
295,83	1239,02
296,05	1255,40
296,26	1296,36
296,48	1304,56
296,69	1265,64
296,90	1279,98
297,12	1239,02
297,33	1245,16
297,55	1279,98
297,76	1273,84
297,98	1228,78
298,19	1247,21
298,41	1267,69
298,62	1206,25
298,83	1296,36
299,05	1181,68
299,26	1300,46
299,48	1304,56
299,69	1282,03
299,90	1265,64
300,12	1290,22
300,33	1245,16
300,55	1282,03
300,76	1198,06
300,98	1273,84
301,19	1329,13
301,40	1208,30
301,62	1282,03
301,83	1263,60
302,05	1282,03
302,26	1288,17
302,47	1312,75
302,69	1200,11
302,90	1306,60
303,12	1239,02
303,33	1271,79
303,54	1282,03
303,76	1265,64
303,97	1286,12
304,19	1228,78
304,40	1251,31
304,61	1273,84
304,83	1226,73
305,04	1226,73
305,26	1304,56
305,47	1279,98
305,68	1273,84
305,90	1322,99
306,11	1269,74
306,33	1290,22
306,54	1245,16
306,75	1247,21
306,97	1337,32
307,18	1290,22
307,39	1230,83
307,61	1279,98
307,82	1296,36
308,04	1327,08
308,25	1265,64
308,46	1234,93
308,68	1222,64
308,89	1232,88
309,10	1306,60
309,32	1247,21
309,53	1339,37
309,74	1345,52
309,96	1208,30
310,17	1239,02
310,39	1271,79
310,60	1220,59
310,81	1249,26
311,03	1247,21
311,24	1259,50
311,45	1294,32
311,67	1243,12
311,88	1345,52
312,09	1290,22
312,31	1296,36
312,52	1325,04
312,73	1200,11
312,95	1294,32
313,16	1261,55
313,37	1292,27
313,59	1249,26
313,80	1224,69
314,01	1284,08
314,23	1279,98
314,44	1265,64
314,65	1212,40
314,87	1296,36
315,08	1320,94
315,29	1275,88
315,51	1306,60
315,72	1224,69
315,93	1243,12
316,15	1259,50
316,36	1261,55
316,57	1187,82
316,79	1273,84
317,00	1263,60
317,21	1341,42
317,43	1271,79
317,64	1277,93
317,85	1193,97
318,07	1302,51
318,28	1298,41
318,49	1255,40
318,70	1247,21
318,92	1224,69
319,13	1318,89
319,34	1232,88
319,56	1286,12
319,77	1286,12
319,98	1189,87
320,20	1265,64
320,41	1290,22
320,62	1234,93
320,83	1255,40
321,05	1222,64
321,26	1282,03
321,47	1355,76
321,69	1322,99
321,90	1265,64
322,11	1255,40
322,32	1241,07
322,54	1316,84
322,75	1277,93
322,96	1363,95
323,18	1300,46
323,39	1304,56
323,60	1228,78
323,81	1257,45
324,03	1267,69
324,24	1230,83
324,45	1155,05
324,66	1286,12
324,88	1349,61
325,09	1257,45
325,30	1222,64
325,52	1257,45
325,73	1271,79
325,94	1163,25
326,15	1310,70
326,37	1294,32
326,58	1288,17
326,79	1308,65
327,00	1322,99
327,22	1249,26
327,43	1277,93
327,64	1243,12
327,85	1257,45
328,07	1347,56
328,28	1306,60
328,49	1300,46
328,70	1298,41
328,92	1325,04
329,13	1312,75
329,34	1210,35
329,55	1189,87
329,76	1294,32
329,98	1232,88
330,19	1239,02
330,40	1302,51
330,61	1249,26
330,83	1259,50
331,04	1232,88
331,25	1263,60
331,46	1294,32
331,68	1341,42
331,89	1241,07
332,10	1228,78
332,31	1322,99
332,52	1277,93
332,74	1257,45
332,95	1228,78
333,16	1292,27
333,37	1224,69
333,58	1292,27
333,80	1236,97
334,01	1273,84
334,22	1279,98
334,43	1288,17
334,64	1310,70
334,86	1228,78
335,07	1288,17
335,28	1261,55
335,49	1224,69
335,70	1243,12
335,92	1277,93
336,13	1257,45
336,34	1290,22
336,55	1316,84
336,76	1357,80
336,98	1236,97
337,19	1273,84
337,40	1218,54
337,61	1341,42
337,82	1214,45
338,04	1206,25
338,25	1234,93
338,46	1243,12
338,67	1304,56
338,88	1259,50
339,09	1228,78
339,31	1224,69
339,52	1304,56
339,73	1226,73
339,94	1263,60
340,15	1247,21
340,36	1253,36
340,58	1271,79
340,79	1234,93
341,00	1243,12
341,21	1302,51
341,42	1337,32
341,63	1247,21
341,85	1220,59
342,06	1245,16
342,27	1204,21
342,48	1265,64
342,69	1302,51
342,90	1234,93
343,12	1236,97
343,33	1230,83
343,54	1288,17
343,75	1284,08
343,96	1308,65
344,17	1189,87
344,38	1308,65
344,60	1267,69
344,81	1212,40
345,02	1271,79
345,23	1339,37
345,44	1296,36
345,65	1327,08
345,86	1261,55
346,07	1271,79
346,29	1275,88
346,50	1316,84
346,71	1292,27
346,92	1296,36
347,13	1261,55
347,34	1232,88
347,55	1255,40
347,76	1218,54
347,98	1302,51
348,19	1247,21
348,40	1265,64
348,61	1286,12
348,82	1304,56
349,03	1265,64
349,24	1279,98
349,45	1269,74
349,66	1175,53
349,88	1212,40
350,09	1212,40
350,30	1279,98
350,51	1257,45
350,72	1239,02
350,93	1302,51
351,14	1234,93
351,35	1259,50
351,56	1284,08
351,77	1337,32
351,99	1228,78
352,20	1269,74
352,41	1294,32
352,62	1288,17
352,83	1257,45
353,04	1255,40
353,25	1148,91
353,46	1261,55
353,67	1226,73
353,88	1263,60
354,09	1279,98
354,30	1257,45
354,52	1308,65
354,73	1304,56
354,94	1218,54
355,15	1230,83
355,36	1220,59
355,57	1277,93
355,78	1212,40
355,99	1282,03
356,20	1259,50
356,41	1294,32
356,62	1255,40
356,83	1279,98
357,04	1245,16
357,25	1226,73
357,46	1249,26
357,68	1241,07
357,89	1288,17
358,10	1241,07
358,31	1263,60
358,52	1275,88
358,73	1277,93
358,94	1288,17
359,15	1263,60
359,36	1322,99
359,57	1370,09
359,78	1288,17
359,99	1249,26
360,20	1239,02
360,41	1232,88
360,62	1210,35
360,83	1206,25
361,04	1282,03
361,25	1300,46
361,46	1257,45
361,67	1257,45
361,88	1286,12
362,09	1228,78
362,30	1222,64
362,51	1306,60
362,72	1331,18
362,93	1314,80
363,14	1273,84
363,35	1234,93
363,56	1253,36
363,78	1331,18
363,99	1243,12
364,20	1279,98
364,41	1282,03
364,62	1308,65
364,83	1191,92
365,04	1204,21
365,25	1255,40
365,46	1306,60
365,67	1224,69
365,88	1241,07
366,09	1249,26
366,30	1290,22
366,51	1277,93
366,72	1286,12
366,93	1249,26
367,14	1269,74
367,35	1343,47
367,56	1271,79
367,77	1302,51
367,98	1282,03
368,18	1345,52
368,39	1230,83
368,60	1159,15
368,81	1277,93
369,02	1239,02
369,23	1271,79
369,44	1259,50
369,65	1259,50
369,86	1249,26
370,07	1220,59
370,28	1366,00
370,49	1265,64
370,70	1241,07
370,91	1230,83
371,12	1226,73
371,33	1241,07
371,54	1249,26
371,75	1273,84
371,96	1251,31
372,17	1269,74
372,38	1310,70
372,59	1230,83
372,80	1216,49
373,01	1206,25
373,22	1236,97
373,43	1308,65
373,64	1232,88
373,85	1200,11
374,06	1241,07
374,26	1245,16
374,47	1279,98
374,68	1241,07
374,89	1224,69
375,10	1257,45
375,31	1232,88
375,52	1275,88
375,73	1263,60
375,94	1224,69
376,15	1290,22
376,36	1271,79
376,57	1294,32
376,78	1269,74
376,99	1245,16
377,20	1208,30
377,40	1257,45
377,61	1286,12
377,82	1247,21
378,03	1286,12
378,24	1282,03
378,45	1300,46
378,66	1251,31
378,87	1271,79
379,08	1257,45
379,29	1290,22
379,50	1212,40
379,71	1257,45
379,91	1282,03
380,12	1314,80
380,33	1236,97
380,54	1275,88
380,75	1355,76
380,96	1294,32
381,17	1255,40
381,38	1234,93
381,59	1329,13
381,80	1232,88
382,00	1298,41
382,21	1322,99
382,42	1245,16
382,63	1284,08
382,84	1290,22
383,05	1208,30
383,26	1335,28
383,47	1286,12
383,68	1292,27
383,88	1257,45
384,09	1265,64
384,30	1265,64
384,51	1245,16
384,72	1208,30
384,93	1253,36
385,14	1267,69
385,35	1267,69
385,55	1279,98
385,76	1290,22
385,97	1261,55
386,18	1310,70
386,39	1239,02
386,60	1253,36
386,81	1249,26
387,02	1265,64
387,22	1218,54
387,43	1298,41
387,64	1298,41
387,85	1265,64
388,06	1310,70
388,27	1275,88
388,48	1318,89
388,68	1322,99
388,89	1261,55
389,10	1265,64
389,31	1230,83
389,52	1249,26
389,73	1232,88
389,93	1279,98
390,14	1236,97
390,35	1265,64
390,56	1214,45
390,77	1171,44
390,98	1255,40
391,18	1183,73
391,39	1206,25
391,60	1206,25
391,81	1284,08
392,02	1265,64
392,23	1224,69
392,43	1306,60
392,64	1292,27
392,85	1269,74
393,06	1241,07
393,27	1290,22
393,47	1298,41
393,68	1288,17
393,89	1212,40
394,10	1253,36
394,31	1253,36
394,52	1261,55
394,72	1253,36
394,93	1232,88
395,14	1210,35
395,35	1302,51
395,56	1224,69
395,76	1298,41
395,97	1218,54
396,18	1265,64
396,39	1288,17
396,60	1269,74
396,80	1251,31
397,01	1261,55
397,22	1296,36
397,43	1279,98
397,64	1296,36
397,84	1249,26
398,05	1290,22
398,26	1261,55
398,47	1216,49
398,67	1214,45
398,88	1257,45
399,09	1282,03
399,30	1267,69
399,51	1370,09
399,71	1284,08
399,92	1236,97
400,13	1275,88
400,34	1220,59
400,54	1253,36
400,75	1282,03
400,96	1257,45
401,17	1292,27
401,37	1347,56
401,58	1249,26
401,79	1196,01
402,00	1232,88
402,21	1275,88
402,41	1249,26
402,62	1232,88
402,83	1243,12
403,04	1236,97
403,24	1294,32
403,45	1218,54
403,66	1284,08
403,87	1275,88
404,07	1296,36
404,28	1271,79
404,49	1312,75
404,70	1261,55
404,90	1275,88
405,11	1249,26
405,32	1286,12
405,52	1288,17
405,73	1296,36
405,94	1208,30
406,15	1259,50
406,35	1259,50
406,56	1271,79
406,77	1279,98
406,98	1269,74
407,18	1329,13
407,39	1294,32
407,60	1249,26
407,80	1255,40
408,01	1273,84
408,22	1312,75
408,43	1286,12
408,63	1304,56
408,84	1284,08
409,05	1226,73
409,25	1241,07
409,46	1320,94
409,67	1279,98
409,88	1306,60
410,08	1241,07
410,29	1212,40
410,50	1327,08
410,70	1292,27
410,91	1269,74
411,12	1265,64
411,32	1325,04
411,53	1204,21
411,74	1359,85
411,95	1253,36
412,15	1222,64
412,36	1234,93
412,57	1290,22
412,77	1261,55
412,98	1257,45
413,19	1241,07
413,39	1320,94
413,60	1320,94
413,81	1224,69
414,01	1310,70
414,22	1271,79
414,43	1269,74
414,63	1224,69
414,84	1265,64
415,05	1212,40
415,25	1327,08
415,46	1265,64
415,67	1232,88
415,87	1273,84
416,08	1312,75
416,29	1253,36
416,49	1290,22
416,70	1218,54
416,91	1290,22
417,11	1284,08
417,32	1259,50
417,53	1302,51
417,73	1284,08
417,94	1247,21
418,15	1239,02
418,35	1230,83
418,56	1304,56
418,77	1269,74
418,97	1257,45
419,18	1249,26
419,38	1255,40
419,59	1255,40
419,80	1325,04
420,00	1298,41
420,21	1259,50
420,42	1226,73
420,62	1286,12
420,83	1253,36
421,04	1279,98
421,24	1275,88
421,45	1257,45
421,65	1300,46
421,86	1337,32
422,07	1220,59
422,27	1241,07
422,48	1302,51
422,69	1294,32
422,89	1312,75
423,10	1241,07
423,30	1275,88
423,51	1257,45
423,72	1220,59
423,92	1234,93
424,13	1234,93
424,33	1337,32
424,54	1290,22
424,75	1284,08
424,95	1304,56
425,16	1302,51
425,36	1224,69
425,57	1236,97
425,78	1245,16
425,98	1265,64
426,19	1234,93
426,39	1214,45
426,60	1288,17
426,81	1224,69
427,01	1259,50
427,22	1236,97
427,42	1234,93
427,63	1265,64
427,83	1200,11
428,04	1232,88
428,25	1310,70
428,45	1288,17
428,66	1247,21
428,86	1306,60
429,07	1191,92
429,28	1245,16
429,48	1275,88
429,69	1202,16
429,89	1234,93
430,10	1265,64
430,30	1277,93
430,51	1296,36
430,71	1224,69
430,92	1286,12
431,13	1290,22
431,33	1249,26
431,54	1224,69
431,74	1296,36
431,95	1284,08
432,15	1300,46
432,36	1302,51
432,56	1202,16
432,77	1271,79
432,98	1331,18
433,18	1282,03
433,39	1267,69
433,59	1181,68
433,80	1247,21
434,00	1224,69
434,21	1310,70
434,41	1279,98
434,62	1279,98
434,82	1226,73
435,03	1296,36
435,23	1318,89
435,44	1298,41
435,64	1261,55
435,85	1239,02
436,06	1322,99
436,26	1331,18
436,47	1216,49
436,67	1347,56
436,88	1296,36
437,08	1228,78
437,29	1333,23
437,49	1230,83
437,70	1216,49
437,90	1312,75
438,11	1265,64
438,31	1290,22
438,52	1347,56
438,72	1216,49
438,93	1230,83
439,13	1267,69
439,34	1198,06
439,54	1206,25
439,75	1224,69
439,95	1337,32
440,16	1329,13
440,36	1263,60
440,57	1212,40
440,77	1259,50
440,98	1183,73
441,18	1279,98
441,39	1239,02
441,59	1269,74
441,80	1308,65
442,00	1273,84
442,21	1241,07
442,41	1226,73
442,62	1290,22
442,82	1298,41
443,02	1343,47
443,23	1257,45
443,43	1284,08
443,64	1282,03
443,84	1261,55
444,05	1312,75
444,25	1226,73
444,46	1325,04
444,66	1234,93
444,87	1214,45
445,07	1224,69
445,28	1245,16
445,48	1333,23
445,69	1314,80
445,89	1267,69
446,09	1253,36
446,30	1232,88
446,50	1265,64
446,71	1277,93
446,91	1288,17
447,12	1271,79
447,32	1267,69
447,53	1259,50
447,73	1292,27
447,93	1241,07
448,14	1302,51
448,34	1257,45
448,55	1269,74
448,75	1269,74
448,96	1290,22
449,16	1234,93
449,36	1271,79
449,57	1269,74
449,77	1343,47
449,98	1269,74
450,18	1259,50
450,39	1308,65
450,59	1318,89
450,79	1329,13
451,00	1277,93
451,20	1251,31
451,41	1298,41
451,61	1232,88
451,81	1271,79
452,02	1298,41
452,22	1284,08
452,43	1288,17
452,63	1228,78
452,84	1261,55
453,04	1273,84
453,24	1300,46
453,45	1298,41
453,65	1257,45
453,86	1230,83
454,06	1282,03
454,26	1290,22
454,47	1292,27
454,67	1263,60
454,87	1316,84
455,08	1265,64
455,28	1331,18
455,49	1255,40
455,69	1294,32
455,89	1282,03
456,10	1234,93
456,30	1273,84
456,51	1277,93
456,71	1253,36
456,91	1253,36
457,12	1267,69
457,32	1269,74
457,52	1355,76
457,73	1241,07
457,93	1312,75
458,14	1312,75
458,34	1249,26
458,54	1298,41
458,75	1282,03
458,95	1294,32
459,15	1325,04
459,36	1343,47
459,56	1263,60
459,76	1251,31
459,97	1191,92
460,17	1255,40
460,37	1316,84
460,58	1267,69
460,78	1298,41
460,99	1286,12
461,19	1230,83
461,39	1322,99
461,60	1296,36
461,80	1290,22
462,00	1253,36
462,21	1265,64
462,41	1277,93
462,61	1279,98
462,82	1259,50
463,02	1241,07
463,22	1351,66
463,43	1294,32
463,63	1241,07
463,83	1288,17
464,04	1273,84
464,24	1232,88
464,44	1265,64
464,64	1232,88
464,85	1234,93
465,05	1187,82
465,25	1337,32
465,46	1318,89
465,66	1261,55
465,86	1230,83
466,07	1314,80
466,27	1243,12
466,47	1241,07
466,68	1216,49
466,88	1269,74
467,08	1232,88
467,29	1241,07
467,49	1335,28
467,69	1216,49
467,89	1271,79
468,10	1279,98
468,30	1306,60
468,50	1312,75
468,71	1253,36
468,91	1222,64
469,11	1269,74
469,31	1222,64
469,52	1290,22
469,72	1257,45
469,92	1290,22
470,13	1298,41
470,33	1234,93
470,53	1273,84
470,73	1234,93
470,94	1320,94
471,14	1232,88
471,34	1279,98
471,54	1255,40
471,75	1257,45
471,95	1163,25
472,15	1234,93
472,36	1265,64
472,56	1243,12
472,76	1310,70
472,96	1222,64
473,17	1265,64
473,37	1318,89
473,57	1255,40
473,77	1275,88
473,98	1200,11
474,18	1243,12
474,38	1212,40
474,58	1239,02
474,79	1269,74
474,99	1241,07
475,19	1236,97
475,39	1288,17
475,60	1302,51
475,80	1198,06
476,00	1290,22
476,20	1202,16
476,41	1282,03
476,61	1267,69
476,81	1314,80
477,01	1294,32
477,21	1294,32
477,42	1226,73
477,62	1267,69
477,82	1294,32
478,02	1245,16
478,23	1335,28
478,43	1308,65
478,63	1253,36
478,83	1294,32
479,03	1200,11
479,24	1239,02
479,44	1310,70
479,64	1253,36
479,84	1316,84
480,04	1212,40
480,25	1261,55
480,45	1349,61
480,65	1255,40
480,85	1302,51
481,06	1329,13
481,26	1345,52
481,46	1296,36
481,66	1314,80
481,86	1253,36
482,06	1253,36
482,27	1263,60
482,47	1286,12
482,67	1214,45
482,87	1239,02
483,07	1341,42
483,28	1236,97
483,48	1271,79
483,68	1312,75
483,88	1226,73
484,08	1294,32
484,29	1306,60
484,49	1273,84
484,69	1247,21
484,89	1265,64
485,09	1241,07
485,29	1288,17
485,50	1441,77
485,70	1292,27
485,90	1296,36
486,10	1257,45
486,30	1279,98
486,50	1265,64
486,71	1239,02
486,91	1302,51
487,11	1296,36
487,31	1253,36
487,51	1333,23
487,71	1245,16
487,91	1253,36
488,12	1286,12
488,32	1261,55
488,52	1288,17
488,72	1286,12
488,92	1306,60
489,12	1224,69
489,32	1310,70
489,53	1255,40
489,73	1247,21
489,93	1314,80
490,13	1306,60
490,33	1271,79
490,53	1216,49
490,73	1245,16
490,94	1241,07
491,14	1236,97
491,34	1198,06
491,54	1298,41
491,74	1245,16
491,94	1314,80
492,14	1171,44
492,34	1279,98
492,54	1232,88
492,75	1271,79
492,95	1214,45
493,15	1265,64
493,35	1224,69
493,55	1314,80
493,75	1341,42
493,95	1316,84
494,15	1290,22
494,35	1255,40
494,56	1232,88
494,76	1300,46
494,96	1232,88
495,16	1288,17
495,36	1226,73
495,56	1267,69
495,76	1204,21
495,96	1196,01
496,16	1241,07
496,36	1224,69
496,56	1302,51
496,77	1241,07
496,97	1312,75
497,17	1306,60
497,37	1224,69
497,57	1196,01
497,77	1359,85
497,97	1202,16
498,17	1239,02
498,37	1312,75
498,57	1308,65
498,77	1255,40
498,97	1325,04
499,17	1279,98
499,38	1216,49
499,58	1316,84
499,78	1222,64
499,98	1370,09
500,18	1257,45
500,38	1312,75
500,58	1316,84
500,78	1292,27
500,98	1220,59
501,18	1296,36
501,38	1277,93
501,58	1263,60
501,78	1234,93
501,98	1329,13
502,18	1298,41
502,38	1255,40
502,58	1279,98
502,78	1267,69
502,98	1298,41
503,18	1312,75
503,38	1265,64
503,59	1306,60
503,79	1312,75
503,99	1222,64
504,19	1359,85
504,39	1322,99
504,59	1296,36
504,79	1198,06
504,99	1304,56
505,19	1212,40
505,39	1312,75
505,59	1312,75
505,79	1255,40
505,99	1267,69
506,19	1245,16
506,39	1296,36
506,59	1316,84
506,79	1271,79
506,99	1259,50
507,19	1284,08
507,39	1267,69
507,59	1284,08
507,79	1232,88
507,99	1253,36
508,19	1265,64
508,39	1304,56
508,59	1296,36
508,79	1322,99
508,99	1296,36
509,19	1245,16
509,39	1343,47
509,59	1263,60
509,79	1275,88
509,99	1290,22
510,19	1263,60
510,39	1329,13
510,59	1265,64
510,79	1288,17
510,99	1263,60
511,19	1269,74
511,39	1343,47
511,59	1273,84
511,79	1208,30
511,99	1263,60
512,19	1304,56
512,38	1347,56
512,58	1286,12
512,78	1230,83
512,98	1255,40
513,18	1380,33
513,38	1300,46
513,58	1302,51
513,78	1220,59
513,98	1312,75
514,18	1318,89
514,38	1275,88
514,58	1302,51
514,78	1265,64
514,98	1249,26
515,18	1308,65
515,38	1245,16
515,58	1318,89
515,78	1234,93
515,98	1370,09
516,18	1286,12
516,38	1351,66
516,57	1249,26
516,77	1167,34
516,97	1300,46
517,17	1175,53
517,37	1249,26
517,57	1208,30
517,77	1351,66
517,97	1249,26
518,17	1191,92
518,37	1339,37
518,57	1265,64
518,77	1239,02
518,97	1314,80
519,16	1282,03
519,36	1282,03
519,56	1331,18
519,76	1351,66
519,96	1255,40
520,16	1267,69
520,36	1288,17
520,56	1234,93
520,76	1279,98
520,96	1243,12
521,16	1173,49
521,35	1255,40
521,55	1251,31
521,75	1345,52
521,95	1251,31
522,15	1271,79
522,35	1320,94
522,55	1282,03
522,75	1273,84
522,95	1255,40
523,14	1302,51
523,34	1312,75
523,54	1263,60
523,74	1331,18
523,94	1310,70
524,14	1288,17
524,34	1269,74
524,54	1259,50
524,73	1277,93
524,93	1273,84
525,13	1306,60
525,33	1220,59
525,53	1292,27
525,73	1218,54
525,93	1294,32
526,13	1331,18
526,32	1353,71
526,52	1241,07
526,72	1337,32
526,92	1230,83
527,12	1251,31
527,32	1249,26
527,52	1191,92
527,71	1265,64
527,91	1296,36
528,11	1296,36
528,31	1298,41
528,51	1314,80
528,71	1263,60
528,90	1335,28
529,10	1228,78
529,30	1273,84
529,50	1271,79
529,70	1251,31
529,90	1322,99
530,09	1312,75
530,29	1304,56
530,49	1267,69
530,69	1265,64
530,89	1318,89
531,09	1322,99
531,28	1277,93
531,48	1322,99
531,68	1290,22
531,88	1337,32
532,08	1273,84
532,28	1212,40
532,47	1322,99
532,67	1279,98
532,87	1257,45
533,07	1255,40
533,27	1294,32
533,46	1322,99
533,66	1253,36
533,86	1329,13
534,06	1253,36
534,26	1230,83
534,45	1273,84
534,65	1279,98
534,85	1236,97
535,05	1288,17
535,25	1234,93
535,44	1298,41
535,64	1232,88
535,84	1292,27
536,04	1277,93
536,24	1325,04
536,43	1335,28
536,63	1245,16
536,83	1339,37
537,03	1232,88
537,22	1236,97
537,42	1243,12
537,62	1294,32
537,82	1249,26
538,02	1322,99
538,21	1284,08
538,41	1296,36
538,61	1322,99
538,81	1273,84
539,00	1261,55
539,20	1198,06
539,40	1325,04
539,60	1241,07
539,79	1314,80
539,99	1261,55
540,19	1277,93
540,39	1247,21
540,58	1298,41
540,78	1308,65
540,98	1298,41
541,18	1269,74
541,37	1259,50
541,57	1279,98
541,77	1284,08
541,97	1302,51
542,16	1292,27
542,36	1249,26
542,56	1298,41
542,76	1247,21
542,95	1322,99
543,15	1363,95
543,35	1282,03
543,54	1302,51
543,74	1253,36
543,94	1286,12
544,14	1265,64
544,33	1294,32
544,53	1355,76
544,73	1277,93
544,93	1206,25
545,12	1267,69
545,32	1329,13
545,52	1206,25
545,71	1243,12
545,91	1337,32
546,11	1220,59
546,30	1279,98
546,50	1347,56
546,70	1306,60
546,90	1306,60
547,09	1222,64
547,29	1331,18
547,49	1325,04
547,68	1353,71
547,88	1320,94
548,08	1325,04
548,27	1294,32
548,47	1277,93
548,67	1322,99
548,87	1292,27
549,06	1310,70
549,26	1288,17
549,46	1363,95
549,65	1292,27
549,85	1282,03
550,05	1306,60
550,24	1275,88
550,44	1249,26
550,64	1308,65
550,83	1300,46
551,03	1318,89
551,23	1335,28
551,42	1261,55
551,62	1304,56
551,82	1298,41
552,01	1277,93
552,21	1239,02
552,41	1224,69
552,60	1273,84
552,80	1296,36
553,00	1224,69
553,19	1302,51
553,39	1263,60
553,59	1259,50
553,78	1265,64
553,98	1216,49
554,17	1224,69
554,37	1331,18
554,57	1304,56
554,76	1263,60
554,96	1259,50
555,16	1337,32
555,35	1314,80
555,55	1322,99
555,75	1249,26
555,94	1273,84
556,14	1220,59
556,33	1341,42
556,53	1286,12
556,73	1249,26
556,92	1284,08
557,12	1320,94
557,32	1257,45
557,51	1316,84
557,71	1300,46
557,90	1282,03
558,10	1271,79
558,30	1343,47
558,49	1310,70
558,69	1312,75
558,88	1300,46
559,08	1288,17
559,28	1296,36
559,47	1236,97
559,67	1234,93
559,86	1320,94
560,06	1339,37
560,26	1357,80
560,45	1275,88
560,65	1277,93
560,84	1292,27
561,04	1255,40
561,24	1259,50
561,43	1275,88
561,63	1284,08
561,82	1267,69
562,02	1279,98
562,22	1255,40
562,41	1349,61
562,61	1314,80
562,80	1279,98
563,00	1241,07
563,19	1265,64
563,39	1243,12
563,59	1298,41
563,78	1263,60
563,98	1251,31
564,17	1329,13
564,37	1312,75
564,56	1224,69
564,76	1212,40
564,96	1296,36
565,15	1304,56
565,35	1322,99
565,54	1341,42
565,74	1247,21
565,93	1284,08
566,13	1247,21
566,32	1292,27
566,52	1284,08
566,71	1277,93
566,91	1325,04
567,11	1347,56
567,30	1300,46
567,50	1275,88
567,69	1279,98
567,89	1282,03
568,08	1263,60
568,28	1290,22
568,47	1267,69
568,67	1230,83
568,86	1308,65
569,06	1185,77
569,25	1314,80
569,45	1269,74
569,64	1277,93
569,84	1304,56
570,04	1308,65
570,23	1282,03
570,43	1239,02
570,62	1316,84
570,82	1325,04
571,01	1345,52
571,21	1269,74
571,40	1277,93
571,60	1218,54
571,79	1286,12
571,99	1302,51
572,18	1222,64
572,38	1263,60
572,57	1320,94
572,77	1249,26
572,96	1249,26
573,16	1318,89
573,35	1241,07
573,55	1282,03
573,74	1271,79
573,94	1363,95
574,13	1292,27
574,33	1273,84
574,52	1308,65
574,71	1259,50
574,91	1286,12
575,10	1343,47
575,30	1341,42
575,49	1236,97
575,69	1304,56
575,88	1265,64
576,08	1337,32
576,27	1232,88
576,47	1189,87
576,66	1314,80
576,86	1374,19
577,05	1331,18
577,25	1339,37
577,44	1292,27
577,64	1353,71
577,83	1325,04
578,02	1251,31
578,22	1308,65
578,41	1232,88
578,61	1265,64
578,80	1279,98
579,00	1306,60
579,19	1216,49
579,39	1292,27
579,58	1277,93
579,77	1269,74
579,97	1269,74
580,16	1337,32
580,36	1208,30
580,55	1361,90
580,75	1261,55
580,94	1306,60
581,13	1210,35
581,33	1306,60
581,52	1349,61
581,72	1228,78
581,91	1282,03
582,11	1241,07
582,30	1245,16
582,49	1306,60
582,69	1241,07
582,88	1376,24
583,08	1282,03
583,27	1273,84
583,47	1196,01
583,66	1296,36
583,85	1376,24
584,05	1241,07
584,24	1282,03
584,44	1279,98
584,63	1310,70
584,82	1290,22
585,02	1335,28
585,21	1267,69
585,41	1335,28
585,60	1269,74
585,79	1267,69
585,99	1320,94
586,18	1257,45
586,37	1279,98
586,57	1304,56
586,76	1322,99
586,96	1302,51
587,15	1355,76
587,34	1273,84
587,54	1300,46
587,73	1271,79
587,93	1294,32
588,12	1245,16
588,31	1232,88
588,51	1308,65
588,70	1308,65
588,89	1349,61
589,09	1277,93
589,28	1282,03
589,47	1230,83
589,67	1245,16
589,86	1322,99
590,06	1265,64
590,25	1282,03
590,44	1259,50
590,64	1279,98
590,83	1214,45
591,02	1314,80
591,22	1372,14
591,41	1314,80
591,60	1222,64
591,80	1247,21
591,99	1249,26
592,18	1290,22
592,38	1267,69
592,57	1247,21
592,76	1282,03
592,96	1259,50
593,15	1249,26
593,34	1304,56
593,54	1261,55
593,73	1318,89
593,92	1269,74
594,12	1232,88
594,31	1349,61
594,50	1288,17
594,70	1218,54
594,89	1269,74
595,08	1261,55
595,28	1331,18
595,47	1304,56
595,66	1292,27
595,86	1290,22
596,05	1388,52
596,24	1212,40
596,43	1345,52
596,63	1277,93
596,82	1359,85
597,01	1236,97
597,21	1349,61
597,40	1327,08
597,59	1284,08
597,79	1271,79
597,98	1290,22
598,17	1257,45
598,36	1267,69
598,56	1222,64
598,75	1236,97
598,94	1337,32
599,14	1261,55
599,33	1288,17
599,52	1259,50
599,71	1224,69
599,91	1294,32
600,10	1249,26
600,29	1361,90
600,48	1298,41
600,68	1331,18
600,87	1245,16
601,06	1261,55
601,26	1357,80
601,45	1318,89
601,64	1206,25
601,83	1378,28
602,03	1249,26
602,22	1259,50
602,41	1271,79
602,60	1335,28
602,80	1308,65
602,99	1253,36
603,18	1310,70
603,37	1269,74
603,57	1304,56
603,76	1224,69
603,95	1292,27
604,14	1310,70
604,34	1273,84
604,53	1261,55
604,72	1241,07
604,91	1271,79
605,10	1261,55
605,30	1339,37
605,49	1302,51
605,68	1288,17
605,87	1228,78
606,07	1265,64
606,26	1298,41
606,45	1331,18
606,64	1279,98
606,84	1257,45
607,03	1198,06
607,22	1325,04
607,41	1277,93
607,60	1265,64
607,80	1333,23
607,99	1294,32
608,18	1265,64
608,37	1279,98
608,56	1282,03
608,76	1249,26
608,95	1220,59
609,14	1259,50
609,33	1275,88
609,52	1216,49
609,72	1232,88
609,91	1300,46
610,10	1294,32
610,29	1298,41
610,48	1239,02
610,68	1282,03
610,87	1302,51
611,06	1314,80
611,25	1210,35
611,44	1290,22
611,63	1226,73
611,83	1343,47
612,02	1259,50
612,21	1320,94
612,40	1292,27
612,59	1267,69
612,79	1230,83
612,98	1257,45
613,17	1212,40
613,36	1349,61
613,55	1273,84
613,74	1337,32
613,93	1267,69
614,13	1286,12
614,32	1257,45
614,51	1290,22
614,70	1204,21
614,89	1327,08
615,08	1298,41
615,28	1304,56
615,47	1300,46
615,66	1263,60
615,85	1267,69
616,04	1222,64
616,23	1294,32
616,42	1290,22
616,62	1284,08
616,81	1290,22
617,00	1216,49
617,19	1232,88
617,38	1304,56
617,57	1300,46
617,76	1253,36
617,95	1259,50
618,15	1263,60
618,34	1255,40
618,53	1232,88
618,72	1306,60
618,91	1333,23
619,10	1357,80
619,29	1314,80
619,48	1335,28
619,68	1316,84
619,87	1282,03
620,06	1284,08
620,25	1249,26
620,44	1335,28
620,63	1286,12
620,82	1306,60
621,01	1269,74
621,20	1374,19
621,39	1333,23
621,59	1310,70
621,78	1269,74
621,97	1306,60
622,16	1282,03
622,35	1255,40
622,54	1228,78
622,73	1224,69
622,92	1277,93
623,11	1245,16
623,30	1273,84
623,49	1257,45
623,68	1339,37
623,88	1279,98
624,07	1296,36
624,26	1310,70
624,45	1214,45
624,64	1241,07
624,83	1304,56
625,02	1284,08
625,21	1279,98
625,40	1310,70
625,59	1257,45
625,78	1300,46
625,97	1318,89
626,16	1316,84
626,35	1261,55
626,54	1279,98
626,74	1300,46
626,93	1306,60
627,12	1286,12
627,31	1318,89
627,50	1259,50
627,69	1284,08
627,88	1308,65
628,07	1322,99
628,26	1318,89
628,45	1339,37
628,64	1329,13
628,83	1189,87
629,02	1357,80
629,21	1306,60
629,40	1345,52
629,59	1271,79
629,78	1271,79
629,97	1351,66
630,16	1306,60
630,35	1308,65
630,54	1347,56
630,73	1339,37
630,92	1337,32
631,11	1226,73
631,30	1370,09
631,49	1390,57
631,68	1384,43
631,87	1912,80
632,06	2613,21
632,25	2058,21
632,44	2326,49
632,63	2111,46
632,82	2072,54
633,01	2602,97
633,20	2154,46
633,39	2942,93
633,58	3227,60
633,77	2181,09
633,96	2332,64
634,15	3854,28
634,34	7346,06
634,53	6983,57
634,72	6317,98
634,91	10098,53
635,10	16285,45
635,29	19302,11
635,48	18603,75
635,67	15511,32
635,86	11874,12
636,05	8828,79
636,24	6502,30
636,43	4687,80
636,62	3332,05
636,81	2469,85
637,00	1822,69
637,19	1640,42
637,38	1560,55
637,57	1511,40
637,76	1456,11
637,95	1386,47
638,14	1382,38
638,33	1378,28
638,52	1343,47
638,71	1329,13
638,89	1351,66
639,08	1236,97
639,27	1335,28
639,46	1249,26
639,65	1329,13
639,84	1312,75
640,03	1282,03
640,22	1335,28
640,41	1320,94
640,60	1253,36
640,79	1376,24
640,98	1284,08
641,17	1265,64
641,36	1318,89
641,55	1253,36
641,74	1263,60
641,92	1320,94
642,11	1310,70
642,30	1263,60
642,49	1249,26
642,68	1333,23
642,87	1263,60
643,06	1298,41
643,25	1275,88
643,44	1318,89
643,63	1292,27
643,82	1341,42
644,00	1253,36
644,19	1284,08
644,38	1232,88
644,57	1269,74
644,76	1284,08
644,95	1353,71
645,14	1265,64
645,33	1261,55
645,52	1273,84
645,71	1298,41
645,89	1236,97
646,08	1232,88
646,27	1304,56
646,46	1275,88
646,65	1247,21
646,84	1337,32
647,03	1284,08
647,22	1312,75
647,40	1298,41
647,59	1290,22
647,78	1255,40
647,97	1271,79
648,16	1249,26
648,35	1318,89
648,54	1312,75
648,73	1318,89
648,91	1269,74
649,10	1277,93
649,29	1277,93
649,48	1263,60
649,67	1284,08
649,86	1359,85
650,05	1253,36
650,23	1320,94
650,42	1271,79
650,61	1314,80
650,80	1134,57
650,99	1265,64
651,18	1181,68
651,36	1312,75
651,55	1320,94
651,74	1300,46
651,93	1269,74
652,12	1261,55
652,31	1370,09
652,49	1255,40
652,68	1275,88
652,87	1306,60
653,06	1273,84
653,25	1304,56
653,44	1216,49
653,62	1271,79
653,81	1329,13
654,00	1318,89
654,19	1243,12
654,38	1300,46
654,56	1253,36
654,75	1245,16
654,94	1322,99
655,13	1374,19
655,32	1300,46
655,51	1275,88
655,69	1257,45
655,88	1247,21
656,07	1290,22
656,26	1282,03
656,45	1232,88
656,63	1322,99
656,82	1316,84
657,01	1224,69
657,20	1228,78
657,38	1241,07
657,57	1341,42
657,76	1339,37
657,95	1265,64
658,14	1310,70
658,32	1228,78
658,51	1335,28
658,70	1282,03
658,89	1314,80
659,08	1214,45
659,26	1294,32
659,45	1296,36
659,64	1224,69
659,83	1282,03
660,01	1257,45
660,20	1325,04
660,39	1388,52
660,58	1372,14
660,76	1298,41
660,95	1300,46
661,14	1335,28
661,33	1286,12
661,51	1243,12
661,70	1339,37
661,89	1251,31
662,08	1253,36
662,26	1308,65
662,45	1232,88
662,64	1359,85
662,83	1341,42
663,01	1331,18
663,20	1279,98
663,39	1322,99
663,58	1355,76
663,76	1259,50
663,95	1177,58
664,14	1298,41
664,32	1185,77
664,51	1255,40
664,70	1296,36
664,89	1279,98
665,07	1251,31
665,26	1318,89
665,45	1288,17
665,64	1255,40
665,82	1296,36
666,01	1282,03
666,20	1224,69
666,38	1314,80
666,57	1267,69
666,76	1368,04
666,95	1224,69
667,13	1175,53
667,32	1290,22
667,51	1286,12
667,69	1310,70
667,88	1296,36
668,07	1193,97
668,25	1265,64
668,44	1222,64
668,63	1265,64
668,81	1290,22
669,00	1290,22
669,19	1279,98
669,38	1265,64
669,56	1271,79
669,75	1267,69
669,94	1271,79
670,12	1253,36
670,31	1257,45
670,50	1277,93
670,68	1290,22
670,87	1273,84
671,06	1308,65
671,24	1310,70
671,43	1228,78
671,62	1265,64
671,80	1261,55
671,99	1290,22
672,18	1296,36
672,36	1243,12
672,55	1314,80
672,74	1253,36
672,92	1318,89
673,11	1243,12
673,29	1253,36
673,48	1298,41
673,67	1286,12
673,85	1337,32
674,04	1245,16
674,23	1249,26
674,41	1320,94
674,60	1277,93
674,79	1351,66
674,97	1294,32
675,16	1302,51
675,34	1251,31
675,53	1267,69
675,72	1298,41
675,90	1316,84
676,09	1339,37
676,28	1275,88
676,46	1322,99
676,65	1255,40
676,83	1267,69
677,02	1253,36
677,21	1288,17
677,39	1193,97
677,58	1320,94
677,77	1282,03
677,95	1253,36
678,14	1267,69
678,32	1247,21
678,51	1261,55
678,70	1275,88
678,88	1247,21
679,07	1271,79
679,25	1288,17
679,44	1263,60
679,63	1273,84
679,81	1335,28
680,00	1300,46
680,18	1257,45
680,37	1243,12
680,55	1294,32
680,74	1298,41
680,93	1273,84
681,11	1312,75
681,30	1310,70
681,48	1257,45
681,67	1255,40
681,85	1226,73
682,04	1345,52
682,23	1251,31
682,41	1290,22
682,60	1335,28
682,78	1273,84
682,97	1212,40
683,15	1228,78
683,34	1329,13
683,53	1275,88
683,71	1312,75
683,90	1314,80
684,08	1275,88
684,27	1255,40
684,45	1236,97
684,64	1210,35
684,82	1298,41
685,01	1263,60
685,19	1230,83
685,38	1247,21
685,57	1193,97
685,75	1275,88
685,94	1275,88
686,12	1226,73
686,31	1267,69
686,49	1198,06
686,68	1257,45
686,86	1302,51
687,05	1226,73
687,23	1331,18
687,42	1286,12
687,60	1275,88
687,79	1265,64
687,97	1288,17
688,16	1243,12
688,34	1257,45
688,53	1325,04
688,71	1341,42
688,90	1353,71
689,08	1298,41
689,27	1267,69
689,45	1257,45
689,64	1318,89
689,82	1200,11
690,01	1269,74
690,19	1247,21
690,38	1241,07
690,56	1282,03
690,75	1275,88
690,93	1265,64
691,12	1236,97
691,30	1279,98
691,49	1191,92
691,67	1263,60
691,86	1284,08
692,04	1249,26
692,23	1290,22
692,41	1292,27
692,60	1263,60
692,78	1286,12
692,97	1290,22
693,15	1273,84
693,34	1335,28
693,52	1277,93
693,71	1232,88
693,89	1335,28
694,08	1329,13
694,26	1224,69
694,44	1294,32
694,63	1249,26
694,81	1384,43
695,00	1284,08
695,18	1216,49
695,37	1300,46
695,55	1271,79
695,74	1273,84
695,92	1261,55
696,10	1298,41
696,29	1284,08
696,47	1230,83
696,66	1296,36
696,84	1271,79
697,03	1331,18
697,21	1318,89
697,40	1284,08
697,58	1247,21
697,76	1234,93
697,95	1230,83
698,13	1333,23
698,32	1257,45
698,50	1271,79
698,68	1255,40
698,87	1239,02
699,05	1277,93
699,24	1312,75
699,42	1241,07
699,61	1304,56
699,79	1245,16
699,97	1312,75
700,16	1247,21
700,34	1243,12
700,53	1259,50
700,71	1257,45
700,89	1224,69
701,08	1247,21
701,26	1236,97
701,45	1359,85
701,63	1302,51
701,81	1271,79
702,00	1257,45
702,18	1304,56
702,37	1314,80
702,55	1224,69
702,73	1306,60
702,92	1263,60
703,10	1292,27
703,28	1269,74
703,47	1255,40
703,65	1275,88
703,84	1304,56
704,02	1277,93
704,20	1255,40
704,39	1316,84
704,57	1236,97
704,75	1236,97
704,94	1282,03
705,12	1308,65
705,30	1273,84
705,49	1269,74
705,67	1318,89
705,86	1282,03
706,04	1320,94
706,22	1265,64
706,41	1275,88
706,59	1234,93
706,77	1230,83
706,96	1214,45
707,14	1247,21
707,32	1179,63
707,51	1279,98
707,69	1288,17
707,87	1269,74
708,06	1329,13
708,24	1282,03
708,42	1286,12
708,61	1275,88
708,79	1239,02
708,97	1320,94
709,16	1298,41
709,34	1206,25
709,52	1224,69
709,71	1312,75
709,89	1210,35
710,07	1288,17
710,26	1210,35
710,44	1228,78
710,62	1187,82
710,80	1273,84
710,99	1265,64
711,17	1316,84
711,35	1302,51
711,54	1247,21
711,72	1269,74
711,90	1236,97
712,09	1208,30
712,27	1259,50
712,45	1224,69
712,63	1261,55
712,82	1355,76
713,00	1296,36
713,18	1263,60
713,37	1306,60
713,55	1290,22
713,73	1224,69
713,91	1257,45
714,10	1314,80
714,28	1292,27
714,46	1363,95
714,65	1353,71
714,83	1261,55
715,01	1239,02
715,19	1286,12
715,38	1232,88
715,56	1222,64
715,74	1277,93
715,92	1259,50
716,11	1196,01
716,29	1249,26
716,47	1257,45
716,65	1320,94
716,84	1257,45
717,02	1290,22
717,20	1224,69
717,38	1335,28
717,57	1279,98
717,75	1253,36
717,93	1204,21
718,11	1181,68
718,30	1218,54
718,48	1275,88
718,66	1255,40
718,84	1259,50
719,03	1251,31
719,21	1257,45
719,39	1275,88
719,57	1247,21
719,75	1294,32
719,94	1290,22
720,12	1247,21
720,30	1310,70
720,48	1347,56
720,67	1263,60
720,85	1316,84
721,03	1196,01
721,21	1257,45
721,39	1232,88
721,58	1273,84
721,76	1216,49
721,94	1206,25
722,12	1265,64
722,30	1279,98
722,49	1314,80
722,67	1277,93
722,85	1296,36
723,03	1210,35
723,21	1294,32
723,40	1220,59
723,58	1232,88
723,76	1292,27
723,94	1351,66
724,12	1245,16
724,30	1292,27
724,49	1204,21
724,67	1329,13
724,85	1282,03
725,03	1208,30
725,21	1273,84
725,40	1265,64
725,58	1232,88
725,76	1302,51
725,94	1259,50
726,12	1232,88
726,30	1265,64
726,49	1204,21
726,67	1300,46
726,85	1253,36
727,03	1304,56
727,21	1290,22
727,39	1304,56
727,57	1310,70
727,76	1302,51
727,94	1290,22
728,12	1292,27
728,30	1206,25
728,48	1345,52
728,66	1200,11
728,84	1349,61
729,03	1261,55
729,21	1243,12
729,39	1296,36
729,57	1261,55
729,75	1210,35
729,93	1206,25
730,11	1282,03
730,30	1286,12
730,48	1296,36
730,66	1294,32
730,84	1220,59
731,02	1175,53
731,20	1212,40
731,38	1265,64
731,56	1251,31
731,74	1247,21
731,93	1318,89
732,11	1253,36
732,29	1351,66
732,47	1292,27
732,65	1267,69
732,83	1267,69
733,01	1253,36
733,19	1253,36
733,37	1173,49
733,56	1239,02
733,74	1230,83
733,92	1300,46
734,10	1234,93
734,28	1216,49
734,46	1298,41
734,64	1302,51
734,82	1288,17
735,00	1257,45
735,18	1290,22
735,36	1290,22
735,54	1265,64
735,73	1204,21
735,91	1245,16
736,09	1267,69
736,27	1257,45
736,45	1304,56
736,63	1183,73
736,81	1273,84
736,99	1257,45
737,17	1292,27
737,35	1298,41
737,53	1265,64
737,71	1275,88
737,89	1331,18
738,07	1236,97
738,25	1224,69
738,43	1306,60
738,61	1247,21
738,80	1271,79
738,98	1370,09
739,16	1232,88
739,34	1204,21
739,52	1261,55
739,70	1243,12
739,88	1234,93
740,06	1337,32
740,24	1146,86
740,42	1259,50
740,60	1253,36
740,78	1331,18
740,96	1277,93
741,14	1277,93
741,32	1304,56
741,50	1310,70
741,68	1300,46
741,86	1298,41
742,04	1292,27
742,22	1232,88
742,40	1214,45
742,58	1245,16
742,76	1347,56
742,94	1198,06
743,12	1212,40
743,30	1214,45
743,48	1224,69
743,66	1232,88
743,84	1288,17
744,02	1320,94
744,20	1245,16
744,38	1314,80
744,56	1288,17
744,74	1253,36
744,92	1267,69
745,10	1288,17
745,28	1265,64
745,46	1251,31
745,64	1290,22
745,82	1255,40
746,00	1314,80
746,18	1222,64
746,36	1226,73
746,54	1255,40
746,72	1337,32
746,90	1331,18
747,08	1279,98
747,26	1286,12
747,44	1269,74
747,62	1230,83
747,80	1265,64
747,98	1257,45
748,15	1298,41
748,33	1236,97
748,51	1292,27
748,69	1296,36
748,87	1331,18
749,05	1259,50
749,23	1277,93
749,41	1312,75
749,59	1261,55
749,77	1284,08
749,95	1187,82
750,13	1335,28
750,31	1257,45
750,49	1380,33
750,67	1292,27
750,85	1232,88
751,03	1247,21
751,20	1361,90
751,38	1214,45
751,56	1333,23
751,74	1282,03
751,92	1320,94
752,10	1167,34
752,28	1288,17
752,46	1263,60
752,64	1294,32
752,82	1296,36
753,00	1322,99
753,18	1335,28
753,35	1218,54
753,53	1232,88
753,71	1296,36
753,89	1224,69
754,07	1314,80
754,25	1216,49
754,43	1294,32
754,61	1259,50
754,79	1234,93
754,97	1239,02
755,14	1298,41
755,32	1208,30
755,50	1304,56
755,68	1269,74
755,86	1243,12
756,04	1282,03
756,22	1304,56
756,40	1218,54
756,57	1388,52
756,75	1277,93
756,93	1243,12
757,11	1224,69
757,29	1236,97
757,47	1226,73
757,65	1314,80
757,82	1267,69
758,00	1245,16
758,18	1284,08
758,36	1296,36
758,54	1247,21
758,72	1288,17
758,90	1363,95
759,07	1216,49
759,25	1380,33
759,43	1226,73
759,61	1232,88
759,79	1298,41
759,97	1208,30
760,15	1288,17
760,32	1220,59
760,50	1202,16
760,68	1261,55
760,86	1214,45
761,04	1263,60
761,22	1236,97
761,39	1265,64
761,57	1284,08
761,75	1341,42
761,93	1300,46
762,11	1232,88
762,28	1288,17
762,46	1249,26
762,64	1253,36
762,82	1304,56
763,00	1255,40
763,18	1329,13
763,35	1269,74
763,53	1257,45
763,71	1247,21
763,89	1296,36
764,07	1298,41
764,24	1253,36
764,42	1292,27
764,60	1251,31
764,78	1292,27
764,96	1322,99
765,13	1239,02
765,31	1314,80
765,49	1210,35
765,67	1298,41
765,84	1269,74
766,02	1239,02
766,20	1296,36
766,38	1279,98
766,56	1251,31
766,73	1355,76
766,91	1245,16
767,09	1292,27
767,27	1249,26
767,44	1318,89
767,62	1263,60
767,80	1325,04
767,98	1216,49
768,15	1241,07
768,33	1239,02
768,51	1265,64
768,69	1247,21
768,87	1265,64
769,04	1298,41
769,22	1282,03
769,40	1189,87
769,58	1310,70
769,75	1226,73
769,93	1306,60
770,11	1243,12
770,28	1275,88
770,46	1288,17
770,64	1310,70
770,82	1273,84
770,99	1249,26
771,17	1277,93
771,35	1257,45
771,53	1331,18
771,70	1331,18
771,88	1261,55
772,06	1294,32
772,23	1241,07
772,41	1304,56
772,59	1329,13
772,77	1253,36
772,94	1353,71
773,12	1230,83
773,30	1331,18
773,47	1232,88
773,65	1277,93
773,83	1243,12
774,01	1232,88
774,18	1263,60
774,36	1257,45
774,54	1327,08
774,71	1286,12
774,89	1226,73
775,07	1241,07
775,24	1279,98
775,42	1247,21
775,60	1230,83
775,78	1294,32
775,95	1314,80
776,13	1275,88
776,31	1290,22
776,48	1312,75
776,66	1241,07
776,84	1243,12
777,01	1275,88
777,19	1292,27
777,37	1239,02
777,54	1239,02
777,72	1279,98
777,90	1304,56
778,07	1214,45
778,25	1243,12
778,43	1241,07
778,60	1263,60
778,78	1304,56
778,96	1267,69
779,13	1325,04
779,31	1243,12
779,49	1298,41
779,66	1296,36
779,84	1273,84
780,01	1298,41
780,19	1298,41
780,37	1255,40
780,54	1273,84
780,72	1204,21
780,90	1245,16
781,07	1241,07
781,25	1259,50
781,43	1265,64
781,60	1294,32
781,78	1306,60
781,95	1294,32
782,13	1296,36
782,31	1230,83
782,48	1294,32
782,66	1236,97
782,83	1212,40
783,01	1327,08
783,19	1273,84
783,36	1286,12
783,54	1214,45
783,72	1279,98
783,89	1314,80
784,07	1228,78
784,24	1290,22
784,42	1288,17
784,60	1288,17
784,77	1198,06
784,95	1216,49
785,12	1239,02
785,30	1232,88
785,47	1206,25
785,65	1234,93
785,83	1249,26
786,00	1265,64
786,18	1282,03
786,35	1275,88
786,53	1263,60
786,71	1318,89
786,88	1249,26
787,06	1304,56
787,23	1282,03
787,41	1304,56
787,58	1241,07
787,76	1286,12
787,94	1239,02
788,11	1218,54
788,29	1255,40
788,46	1282,03
788,64	1325,04
788,81	1325,04
788,99	1263,60
789,16	1253,36
789,34	1261,55
789,52	1232,88
789,69	1232,88
789,87	1183,73
790,04	1269,74
790,22	1310,70
790,39	1273,84
790,57	1271,79
790,74	1169,39
790,92	1275,88
791,09	1298,41
791,27	1327,08
791,44	1218,54
791,62	1273,84
791,79	1273,84
791,97	1304,56
792,15	1286,12
792,32	1282,03
792,50	1290,22
792,67	1257,45
792,85	1239,02
793,02	1316,84
793,20	1284,08
793,37	1249,26
793,55	1204,21
793,72	1306,60
793,90	1230,83
794,07	1271,79
794,25	1284,08
794,42	1282,03
794,60	1329,13
794,77	1236,97
794,95	1251,31
795,12	1298,41
795,30	1255,40
795,47	1239,02
795,65	1265,64
795,82	1245,16
796,00	1298,41
796,17	1277,93
796,34	1294,32
796,52	1255,40
796,69	1257,45
796,87	1290,22
797,04	1273,84
797,22	1275,88
797,39	1202,16
797,57	1273,84
797,74	1269,74
797,92	1294,32
798,09	1245,16
798,27	1298,41
798,44	1265,64
798,62	1298,41
798,79	1318,89
798,96	1257,45
799,14	1298,41
799,31	1220,59
799,49	1265,64
799,66	1239,02
799,84	1282,03
800,01	1261,55
800,19	1314,80
800,36	1286,12
800,53	1220,59
800,71	1318,89
800,88	1271,79
801,06	1329,13
801,23	1306,60
801,41	1277,93
801,58	1249,26
801,75	1327,08
801,93	1224,69
802,10	1300,46
802,28	1198,06
802,45	1241,07
802,63	1372,14
802,80	1261,55
802,97	1255,40
803,15	1179,63
803,32	1230,83
803,50	1251,31
803,67	1284,08
803,84	1286,12
804,02	1234,93
804,19	1263,60
804,37	1275,88
804,54	1331,18
804,71	1210,35
804,89	1267,69
805,06	1236,97
805,24	1282,03
805,41	1230,83
805,58	1239,02
805,76	1275,88
805,93	1282,03
806,10	1247,21
806,28	1335,28
806,45	1220,59
806,63	1279,98
806,80	1273,84
806,97	1275,88
807,15	1261,55
807,32	1251,31
807,49	1279,98
807,67	1216,49
807,84	1282,03
808,01	1273,84
808,19	1290,22
808,36	1267,69
808,54	1236,97
808,71	1267,69
808,88	1171,44
809,06	1329,13
809,23	1265,64
809,40	1282,03
809,58	1273,84
809,75	1312,75
809,92	1298,41
810,10	1224,69
810,27	1282,03
810,44	1243,12
810,62	1234,93
810,79	1247,21
810,96	1290,22
811,14	1247,21
811,31	1320,94
811,48	1288,17
811,66	1290,22
811,83	1286,12
812,00	1298,41
812,18	1228,78
812,35	1216,49
812,52	1353,71
812,69	1269,74
812,87	1253,36
813,04	1216,49
813,21	1224,69
813,39	1257,45
813,56	1306,60
813,73	1214,45
813,91	1255,40
814,08	1308,65
814,25	1273,84
814,42	1243,12
814,60	1169,39
814,77	1279,98
814,94	1253,36
815,12	1314,80
815,29	1261,55
815,46	1329,13
815,63	1284,08
815,81	1325,04
815,98	1290,22
816,15	1210,35
816,33	1308,65
816,50	1275,88
816,67	1306,60
816,84	1273,84
817,02	1187,82
817,19	1294,32
817,36	1251,31
817,53	1339,37
817,71	1202,16
817,88	1279,98
818,05	1275,88
818,22	1279,98
818,40	1261,55
818,57	1239,02
818,74	1187,82
818,91	1226,73
819,09	1257,45
819,26	1265,64
819,43	1249,26
819,60	1304,56
819,78	1253,36
819,95	1292,27
820,12	1271,79
820,29	1239,02
820,47	1249,26
820,64	1273,84
820,81	1282,03
820,98	1181,68
821,15	1267,69
821,33	1282,03
821,50	1267,69
821,67	1247,21
821,84	1269,74
822,02	1206,25
822,19	1294,32
822,36	1259,50
822,53	1282,03
822,70	1234,93
822,88	1212,40
823,05	1257,45
823,22	1200,11
823,39	1269,74
823,56	1183,73
823,74	1290,22
823,91	1277,93
824,08	1294,32
824,25	1263,60
824,42	1282,03
824,60	1224,69
824,77	1273,84
824,94	1302,51
825,11	1273,84
825,28	1189,87
825,45	1314,80
825,63	1308,65
825,80	1251,31
825,97	1212,40
826,14	1265,64
826,31	1269,74
826,48	1312,75
826,66	1224,69
826,83	1282,03
827,00	1245,16
827,17	1208,30
827,34	1288,17
827,51	1298,41
827,69	1267,69
827,86	1265,64
828,03	1255,40
828,20	1341,42
828,37	1234,93
828,54	1359,85
828,71	1277,93
828,89	1269,74
829,06	1294,32
829,23	1277,93
829,40	1255,40
829,57	1232,88
829,74	1314,80
829,91	1294,32
830,09	1302,51
830,26	1208,30
830,43	1282,03
830,60	1290,22
830,77	1249,26
830,94	1288,17
831,11	1253,36
831,28	1269,74
831,46	1249,26
831,63	1267,69
831,80	1279,98
831,97	1308,65
832,14	1247,21
832,31	1216,49
832,48	1265,64
832,65	1339,37
832,82	1218,54
832,99	1255,40
833,17	1243,12
833,34	1263,60
833,51	1265,64
833,68	1277,93
833,85	1234,93
834,02	1257,45
834,19	1271,79
834,36	1234,93
834,53	1257,45
834,70	1275,88
834,87	1337,32
835,04	1261,55
835,22	1226,73
835,39	1251,31
835,56	1286,12
835,73	1282,03
835,90	1296,36
836,07	1241,07
836,24	1265,64
836,41	1277,93
836,58	1216,49
836,75	1320,94
836,92	1310,70
837,09	1202,16
837,26	1347,56
837,43	1228,78
837,60	1320,94
837,77	1232,88
837,94	1171,44
838,12	1316,84
838,29	1310,70
838,46	1267,69
838,63	1279,98
838,80	1298,41
838,97	1273,84
839,14	1292,27
839,31	1288,17
839,48	1210,35
839,65	1210,35
839,82	1232,88
839,99	1263,60
840,16	1349,61
840,33	1269,74
840,50	1271,79
840,67	1279,98
840,84	1345,52
841,01	1263,60
841,18	1284,08
841,35	1290,22
841,52	1314,80
841,69	1327,08
841,86	1314,80
842,03	1304,56
842,20	1261,55
842,37	1232,88
842,54	1259,50
842,71	1191,92
842,88	1247,21
843,05	1277,93
843,22	1273,84
843,39	1187,82
843,56	1226,73
843,73	1253,36
843,90	1318,89
844,07	1187,82
844,24	1296,36
844,41	1261,55
844,58	1255,40
844,75	1318,89
844,92	1310,70
845,09	1290,22
845,26	1288,17
845,43	1234,93
845,60	1318,89
845,77	1265,64
845,94	1255,40
846,10	1257,45
846,27	1239,02
846,44	1208,30
846,61	1222,64
846,78	1202,16
846,95	1239,02
847,12	1325,04
847,29	1279,98
847,46	1247,21
847,63	1253,36
847,80	1320,94
847,97	1263,60
848,14	1267,69
848,31	1249,26
848,48	1208,30
848,65	1271,79
848,82	1277,93
848,98	1261,55
849,15	1210,35
849,32	1275,88
849,49	1335,28
849,66	1282,03
849,83	1300,46
850,00	1277,93
850,17	1279,98
850,34	1228,78
850,51	1312,75
850,68	1302,51
850,85	1271,79
851,01	1243,12
851,18	1212,40
851,35	1288,17
851,52	1259,50
851,69	1282,03
851,86	1257,45
852,03	1265,64
852,20	1265,64
852,37	1331,18
852,53	1351,66
852,70	1232,88
852,87	1292,27
853,04	1271,79
853,21	1277,93
853,38	1327,08
853,55	1204,21
853,72	1232,88
853,89	1275,88
854,05	1279,98
854,22	1316,84
854,39	1337,32
854,56	1259,50
854,73	1286,12
854,90	1245,16
855,07	1271,79
855,23	1290,22
855,40	1314,80
855,57	1296,36
855,74	1304,56
855,91	1253,36
856,08	1257,45
856,25	1247,21
856,41	1279,98
856,58	1273,84
856,75	1286,12
856,92	1357,80
857,09	1277,93
857,26	1265,64
857,42	1273,84
857,59	1286,12
857,76	1228,78
857,93	1249,26
858,10	1312,75
858,27	1273,84
858,43	1277,93
858,60	1271,79
858,77	1290,22
858,94	1306,60
859,11	1296,36
859,27	1257,45
859,44	1288,17
859,61	1204,21
859,78	1255,40
859,95	1282,03
860,12	1306,60
860,28	1273,84
860,45	1275,88
860,62	1298,41
860,79	1277,93
860,95	1224,69
861,12	1277,93
861,29	1259,50
861,46	1277,93
861,63	1216,49
861,79	1269,74
861,96	1161,20
862,13	1290,22
862,30	1322,99
862,47	1253,36
862,63	1241,07
862,80	1277,93
862,97	1265,64
863,14	1243,12
863,30	1277,93
863,47	1310,70
863,64	1265,64
863,81	1333,23
863,97	1302,51
864,14	1312,75
864,31	1327,08
864,48	1277,93
864,65	1220,59
864,81	1214,45
864,98	1249,26
865,15	1247,21
865,32	1249,26
865,48	1288,17
865,65	1320,94
865,82	1288,17
865,98	1257,45
866,15	1245,16
866,32	1257,45
866,49	1292,27
866,65	1327,08
866,82	1241,07
866,99	1263,60
867,16	1232,88
867,32	1243,12
867,49	1216,49
867,66	1339,37
867,83	1224,69
867,99	1241,07
868,16	1288,17
868,33	1261,55
868,49	1286,12
868,66	1271,79
868,83	1259,50
868,99	1271,79
869,16	1279,98
869,33	1316,84
869,50	1212,40
869,66	1290,22
869,83	1218,54
870,00	1196,01
870,16	1271,79
870,33	1265,64
870,50	1277,93
870,66	1267,69
870,83	1271,79
871,00	1179,63
871,17	1300,46
871,33	1249,26
871,50	1267,69
871,67	1263,60
871,83	1236,97
872,00	1210,35
872,17	1273,84
872,33	1294,32
872,50	1232,88
872,67	1267,69
872,83	1163,25
873,00	1247,21
873,17	1298,41
873,33	1206,25
873,50	1273,84
873,67	1273,84
873,83	1279,98
874,00	1273,84
874,16	1224,69
874,33	1282,03
874,50	1325,04
874,66	1306,60
874,83	1269,74
875,00	1284,08
875,16	1243,12
875,33	1251,31
875,50	1312,75
875,66	1302,51
875,83	1261,55
875,99	1249,26
876,16	1202,16
876,33	1261,55
876,49	1245,16
876,66	1243,12
876,83	1279,98
876,99	1316,84
877,16	1273,84
877,32	1282,03
877,49	1216,49
877,66	1239,02
877,82	1255,40
877,99	1288,17
878,15	1255,40
878,32	1261,55
878,49	1239,02
878,65	1282,03
878,82	1296,36
878,98	1298,41
879,15	1196,01
879,32	1267,69
879,48	1314,80
879,65	1224,69
879,81	1300,46
879,98	1241,07
880,15	1200,11
880,31	1318,89
880,48	1288,17
880,64	1273,84
880,81	1279,98
880,97	1294,32
881,14	1277,93
881,31	1292,27
881,47	1304,56
881,64	1347,56
881,80	1273,84
881,97	1304,56
882,13	1345,52
882,30	1302,51
882,47	1290,22
882,63	1294,32
882,80	1204,21
882,96	1241,07
883,13	1384,43
883,29	1302,51
883,46	1247,21
883,62	1269,74
883,79	1277,93
883,95	1294,32
884,12	1259,50
884,29	1277,93
884,45	1243,12
884,62	1234,93
884,78	1247,21
884,95	1265,64
885,11	1294,32
885,28	1200,11
885,44	1267,69
885,61	1282,03
885,77	1314,80
885,94	1259,50
886,10	1183,73
886,27	1267,69
886,43	1306,60
886,60	1249,26
886,76	1241,07
886,93	1288,17
887,09	1249,26
887,26	1322,99
887,42	1257,45
887,59	1282,03
887,75	1226,73
887,92	1314,80
888,08	1284,08
888,25	1284,08
888,41	1200,11
888,58	1277,93
888,74	1236,97
888,91	1263,60
>>>>>End Processed Spectral Data<<<<<
