SpectraSuite Data File
++++++++++++++++++++++++++++++++++++
Date: Sun Apr 03 19:55:51 CEST 2016
User: root
Dark Spectrum Present: No
Reference Spectrum Present: No
Number of Sampled Component Spectra: 1
Spectrometers: USB4C02835
Integration Time (usec): 10000 (USB4C02835)
Spectra Averaged: 1 (USB4C02835)
Boxcar Smoothing: 0 (USB4C02835)
Correct for Electrical Dark: No (USB4C02835)
Strobe/Lamp Enabled: No (USB4C02835)
Correct for Detector Non-linearity: No (USB4C02835)
Correct for Stray Light: No (USB4C02835)
Number of Pixels in Processed Spectrum: 3648
>>>>>Begin Processed Spectral Data<<<<<
177,47	1210,35
177,69	1210,35
177,91	1210,35
178,13	1308,65
178,36	1269,74
178,58	1282,03
178,80	1245,16
179,02	1255,40
179,24	1202,16
179,46	1261,55
179,68	1279,98
179,90	1183,73
180,13	1261,55
180,35	1224,69
180,57	1249,26
180,79	1290,22
181,01	1265,64
181,23	1294,32
181,45	1292,27
181,67	1304,56
181,90	1322,99
182,12	1306,60
182,34	1245,16
182,56	1214,45
182,78	1236,97
183,00	1275,88
183,22	1314,80
183,44	1308,65
183,66	1263,60
183,89	1257,45
184,11	1236,97
184,33	1325,04
184,55	1288,17
184,77	1267,69
184,99	1304,56
185,21	1198,06
185,43	1239,02
185,65	1241,07
185,87	1302,51
186,10	1355,76
186,32	1218,54
186,54	1300,46
186,76	1298,41
186,98	1279,98
187,20	1310,70
187,42	1257,45
187,64	1226,73
187,86	1255,40
188,08	1257,45
188,30	1312,75
188,52	1241,07
188,75	1267,69
188,97	1226,73
189,19	1273,84
189,41	1273,84
189,63	1271,79
189,85	1284,08
190,07	1245,16
190,29	1304,56
190,51	1263,60
190,73	1292,27
190,95	1308,65
191,17	1292,27
191,39	1296,36
191,61	1255,40
191,84	1230,83
192,06	1304,56
192,28	1210,35
192,50	1253,36
192,72	1267,69
192,94	1232,88
193,16	1208,30
193,38	1253,36
193,60	1288,17
193,82	1296,36
194,04	1263,60
194,26	1290,22
194,48	1245,16
194,70	1290,22
194,92	1267,69
195,14	1214,45
195,36	1251,31
195,58	1263,60
195,80	1220,59
196,02	1327,08
196,24	1282,03
196,46	1234,93
196,69	1234,93
196,91	1304,56
197,13	1296,36
197,35	1316,84
197,57	1175,53
197,79	1263,60
198,01	1335,28
198,23	1345,52
198,45	1210,35
198,67	1239,02
198,89	1253,36
199,11	1288,17
199,33	1337,32
199,55	1245,16
199,77	1261,55
199,99	1306,60
200,21	1372,14
200,43	1226,73
200,65	1251,31
200,87	1249,26
201,09	1247,21
201,31	1284,08
201,53	1294,32
201,75	1253,36
201,97	1308,65
202,19	1230,83
202,41	1253,36
202,63	1325,04
202,85	1284,08
203,07	1300,46
203,29	1245,16
203,51	1257,45
203,73	1314,80
203,95	1257,45
204,17	1333,23
204,39	1304,56
204,61	1261,55
204,83	1232,88
205,05	1282,03
205,27	1284,08
205,49	1284,08
205,71	1191,92
205,93	1269,74
206,15	1239,02
206,37	1306,60
206,59	1271,79
206,81	1257,45
207,03	1239,02
207,25	1255,40
207,47	1261,55
207,69	1271,79
207,91	1253,36
208,13	1290,22
208,34	1263,60
208,56	1261,55
208,78	1290,22
209,00	1243,12
209,22	1279,98
209,44	1216,49
209,66	1282,03
209,88	1279,98
210,10	1247,21
210,32	1308,65
210,54	1273,84
210,76	1275,88
210,98	1239,02
211,20	1230,83
211,42	1275,88
211,64	1200,11
211,86	1277,93
212,08	1296,36
212,30	1216,49
212,52	1331,18
212,74	1257,45
212,96	1263,60
213,17	1282,03
213,39	1279,98
213,61	1308,65
213,83	1286,12
214,05	1312,75
214,27	1273,84
214,49	1288,17
214,71	1255,40
214,93	1325,04
215,15	1232,88
215,37	1208,30
215,59	1320,94
215,81	1331,18
216,03	1196,01
216,24	1261,55
216,46	1277,93
216,68	1329,13
216,90	1224,69
217,12	1249,26
217,34	1282,03
217,56	1296,36
217,78	1255,40
218,00	1282,03
218,22	1294,32
218,44	1298,41
218,66	1206,25
218,87	1359,85
219,09	1302,51
219,31	1304,56
219,53	1263,60
219,75	1241,07
219,97	1279,98
220,19	1267,69
220,41	1243,12
220,63	1282,03
220,85	1329,13
221,06	1126,38
221,28	1249,26
221,50	1243,12
221,72	1234,93
221,94	1288,17
222,16	1284,08
222,38	1286,12
222,60	1284,08
222,82	1263,60
223,03	1247,21
223,25	1265,64
223,47	1234,93
223,69	1320,94
223,91	1318,89
224,13	1296,36
224,35	1355,76
224,57	1269,74
224,78	1253,36
225,00	1249,26
225,22	1243,12
225,44	1263,60
225,66	1261,55
225,88	1286,12
226,10	1282,03
226,32	1333,23
226,53	1306,60
226,75	1249,26
226,97	1273,84
227,19	1232,88
227,41	1261,55
227,63	1234,93
227,85	1273,84
228,06	1224,69
228,28	1296,36
228,50	1318,89
228,72	1277,93
228,94	1230,83
229,16	1275,88
229,37	1267,69
229,59	1236,97
229,81	1265,64
230,03	1245,16
230,25	1257,45
230,47	1236,97
230,69	1286,12
230,90	1290,22
231,12	1277,93
231,34	1247,21
231,56	1236,97
231,78	1279,98
232,00	1282,03
232,21	1243,12
232,43	1277,93
232,65	1331,18
232,87	1243,12
233,09	1296,36
233,30	1257,45
233,52	1212,40
233,74	1218,54
233,96	1269,74
234,18	1275,88
234,40	1294,32
234,61	1271,79
234,83	1214,45
235,05	1302,51
235,27	1306,60
235,49	1241,07
235,70	1322,99
235,92	1261,55
236,14	1181,68
236,36	1234,93
236,58	1239,02
236,79	1273,84
237,01	1196,01
237,23	1216,49
237,45	1196,01
237,67	1329,13
237,88	1202,16
238,10	1210,35
238,32	1275,88
238,54	1335,28
238,76	1253,36
238,97	1265,64
239,19	1331,18
239,41	1279,98
239,63	1275,88
239,85	1345,52
240,06	1314,80
240,28	1277,93
240,50	1202,16
240,72	1286,12
240,93	1320,94
241,15	1236,97
241,37	1245,16
241,59	1245,16
241,81	1273,84
242,02	1279,98
242,24	1308,65
242,46	1304,56
242,68	1265,64
242,89	1247,21
243,11	1275,88
243,33	1322,99
243,55	1298,41
243,76	1181,68
243,98	1322,99
244,20	1249,26
244,42	1257,45
244,64	1271,79
244,85	1222,64
245,07	1279,98
245,29	1282,03
245,51	1200,11
245,72	1257,45
245,94	1312,75
246,16	1243,12
246,38	1253,36
246,59	1251,31
246,81	1224,69
247,03	1259,50
247,24	1216,49
247,46	1306,60
247,68	1292,27
247,90	1232,88
248,11	1322,99
248,33	1236,97
248,55	1224,69
248,77	1322,99
248,98	1251,31
249,20	1257,45
249,42	1273,84
249,64	1380,33
249,85	1228,78
250,07	1216,49
250,29	1361,90
250,50	1306,60
250,72	1312,75
250,94	1269,74
251,16	1304,56
251,37	1275,88
251,59	1286,12
251,81	1208,30
252,02	1265,64
252,24	1224,69
252,46	1261,55
252,68	1316,84
252,89	1253,36
253,11	1183,73
253,33	1243,12
253,54	1292,27
253,76	1198,06
253,98	1247,21
254,20	1306,60
254,41	1202,16
254,63	1273,84
254,85	1226,73
255,06	1288,17
255,28	1279,98
255,50	1271,79
255,71	1181,68
255,93	1271,79
256,15	1275,88
256,36	1202,16
256,58	1239,02
256,80	1232,88
257,02	1300,46
257,23	1271,79
257,45	1232,88
257,67	1243,12
257,88	1310,70
258,10	1300,46
258,32	1296,36
258,53	1290,22
258,75	1292,27
258,97	1259,50
259,18	1253,36
259,40	1255,40
259,62	1265,64
259,83	1265,64
260,05	1335,28
260,27	1322,99
260,48	1273,84
260,70	1296,36
260,92	1310,70
261,13	1245,16
261,35	1236,97
261,57	1282,03
261,78	1265,64
262,00	1251,31
262,22	1202,16
262,43	1320,94
262,65	1177,58
262,86	1277,93
263,08	1239,02
263,30	1257,45
263,51	1253,36
263,73	1263,60
263,95	1286,12
264,16	1226,73
264,38	1265,64
264,60	1286,12
264,81	1325,04
265,03	1191,92
265,25	1337,32
265,46	1306,60
265,68	1249,26
265,89	1267,69
266,11	1253,36
266,33	1232,88
266,54	1196,01
266,76	1253,36
266,98	1255,40
267,19	1353,71
267,41	1271,79
267,62	1265,64
267,84	1277,93
268,06	1261,55
268,27	1273,84
268,49	1265,64
268,70	1191,92
268,92	1286,12
269,14	1243,12
269,35	1230,83
269,57	1249,26
269,79	1249,26
270,00	1247,21
270,22	1253,36
270,43	1298,41
270,65	1255,40
270,87	1312,75
271,08	1363,95
271,30	1318,89
271,51	1306,60
271,73	1245,16
271,95	1251,31
272,16	1243,12
272,38	1257,45
272,59	1257,45
272,81	1255,40
273,02	1222,64
273,24	1216,49
273,46	1279,98
273,67	1273,84
273,89	1273,84
274,10	1294,32
274,32	1265,64
274,54	1279,98
274,75	1222,64
274,97	1271,79
275,18	1224,69
275,40	1325,04
275,61	1239,02
275,83	1249,26
276,05	1196,01
276,26	1277,93
276,48	1234,93
276,69	1261,55
276,91	1322,99
277,12	1296,36
277,34	1234,93
277,55	1310,70
277,77	1290,22
277,99	1304,56
278,20	1286,12
278,42	1241,07
278,63	1259,50
278,85	1263,60
279,06	1275,88
279,28	1275,88
279,49	1216,49
279,71	1286,12
279,93	1253,36
280,14	1273,84
280,36	1300,46
280,57	1239,02
280,79	1329,13
281,00	1312,75
281,22	1245,16
281,43	1247,21
281,65	1251,31
281,86	1282,03
282,08	1273,84
282,29	1279,98
282,51	1275,88
282,73	1286,12
282,94	1306,60
283,16	1212,40
283,37	1310,70
283,59	1320,94
283,80	1290,22
284,02	1200,11
284,23	1296,36
284,45	1198,06
284,66	1230,83
284,88	1327,08
285,09	1210,35
285,31	1279,98
285,52	1286,12
285,74	1273,84
285,95	1275,88
286,17	1269,74
286,38	1202,16
286,60	1345,52
286,81	1241,07
287,03	1296,36
287,24	1236,97
287,46	1327,08
287,67	1239,02
287,89	1271,79
288,10	1269,74
288,32	1294,32
288,53	1273,84
288,75	1304,56
288,96	1189,87
289,18	1243,12
289,39	1255,40
289,61	1335,28
289,82	1232,88
290,04	1271,79
290,25	1314,80
290,47	1245,16
290,68	1261,55
290,90	1269,74
291,11	1234,93
291,33	1241,07
291,54	1273,84
291,76	1257,45
291,97	1296,36
292,18	1247,21
292,40	1267,69
292,61	1353,71
292,83	1214,45
293,04	1279,98
293,26	1239,02
293,47	1269,74
293,69	1234,93
293,90	1271,79
294,12	1329,13
294,33	1257,45
294,55	1290,22
294,76	1226,73
294,97	1273,84
295,19	1255,40
295,40	1261,55
295,62	1294,32
295,83	1255,40
296,05	1228,78
296,26	1228,78
296,48	1271,79
296,69	1265,64
296,90	1259,50
297,12	1263,60
297,33	1290,22
297,55	1275,88
297,76	1249,26
297,98	1236,97
298,19	1288,17
298,41	1210,35
298,62	1310,70
298,83	1302,51
299,05	1265,64
299,26	1198,06
299,48	1230,83
299,69	1316,84
299,90	1236,97
300,12	1286,12
300,33	1298,41
300,55	1232,88
300,76	1247,21
300,98	1206,25
301,19	1216,49
301,40	1247,21
301,62	1279,98
301,83	1277,93
302,05	1261,55
302,26	1302,51
302,47	1273,84
302,69	1191,92
302,90	1306,60
303,12	1265,64
303,33	1230,83
303,54	1318,89
303,76	1298,41
303,97	1277,93
304,19	1249,26
304,40	1261,55
304,61	1359,85
304,83	1277,93
305,04	1279,98
305,26	1361,90
305,47	1220,59
305,68	1234,93
305,90	1290,22
306,11	1290,22
306,33	1314,80
306,54	1204,21
306,75	1245,16
306,97	1216,49
307,18	1265,64
307,39	1249,26
307,61	1218,54
307,82	1193,97
308,04	1243,12
308,25	1284,08
308,46	1263,60
308,68	1314,80
308,89	1259,50
309,10	1269,74
309,32	1310,70
309,53	1253,36
309,74	1263,60
309,96	1265,64
310,17	1294,32
310,39	1230,83
310,60	1247,21
310,81	1243,12
311,03	1193,97
311,24	1196,01
311,45	1282,03
311,67	1253,36
311,88	1241,07
312,09	1228,78
312,31	1316,84
312,52	1339,37
312,73	1271,79
312,95	1216,49
313,16	1286,12
313,37	1259,50
313,59	1271,79
313,80	1306,60
314,01	1290,22
314,23	1298,41
314,44	1271,79
314,65	1257,45
314,87	1341,42
315,08	1277,93
315,29	1234,93
315,51	1193,97
315,72	1263,60
315,93	1290,22
316,15	1232,88
316,36	1296,36
316,57	1239,02
316,79	1308,65
317,00	1249,26
317,21	1304,56
317,43	1286,12
317,64	1292,27
317,85	1257,45
318,07	1261,55
318,28	1191,92
318,49	1222,64
318,70	1277,93
318,92	1322,99
319,13	1230,83
319,34	1304,56
319,56	1306,60
319,77	1294,32
319,98	1357,80
320,20	1304,56
320,41	1322,99
320,62	1282,03
320,83	1228,78
321,05	1247,21
321,26	1294,32
321,47	1284,08
321,69	1275,88
321,90	1257,45
322,11	1263,60
322,32	1320,94
322,54	1245,16
322,75	1185,77
322,96	1310,70
323,18	1249,26
323,39	1255,40
323,60	1327,08
323,81	1269,74
324,03	1292,27
324,24	1241,07
324,45	1251,31
324,66	1273,84
324,88	1249,26
325,09	1253,36
325,30	1273,84
325,52	1183,73
325,73	1263,60
325,94	1269,74
326,15	1255,40
326,37	1327,08
326,58	1296,36
326,79	1314,80
327,00	1312,75
327,22	1290,22
327,43	1239,02
327,64	1265,64
327,85	1294,32
328,07	1255,40
328,28	1269,74
328,49	1249,26
328,70	1314,80
328,92	1200,11
329,13	1226,73
329,34	1263,60
329,55	1265,64
329,76	1306,60
329,98	1265,64
330,19	1318,89
330,40	1279,98
330,61	1206,25
330,83	1277,93
331,04	1247,21
331,25	1226,73
331,46	1302,51
331,68	1335,28
331,89	1218,54
332,10	1243,12
332,31	1292,27
332,52	1236,97
332,74	1277,93
332,95	1253,36
333,16	1304,56
333,37	1312,75
333,58	1316,84
333,80	1290,22
334,01	1249,26
334,22	1208,30
334,43	1273,84
334,64	1308,65
334,86	1282,03
335,07	1329,13
335,28	1341,42
335,49	1216,49
335,70	1339,37
335,92	1318,89
336,13	1279,98
336,34	1224,69
336,55	1298,41
336,76	1331,18
336,98	1312,75
337,19	1308,65
337,40	1249,26
337,61	1265,64
337,82	1267,69
338,04	1277,93
338,25	1249,26
338,46	1253,36
338,67	1308,65
338,88	1255,40
339,09	1306,60
339,31	1208,30
339,52	1230,83
339,73	1187,82
339,94	1304,56
340,15	1267,69
340,36	1337,32
340,58	1193,97
340,79	1267,69
341,00	1306,60
341,21	1327,08
341,42	1261,55
341,63	1290,22
341,85	1302,51
342,06	1245,16
342,27	1288,17
342,48	1349,61
342,69	1269,74
342,90	1253,36
343,12	1316,84
343,33	1304,56
343,54	1236,97
343,75	1236,97
343,96	1232,88
344,17	1312,75
344,38	1202,16
344,60	1294,32
344,81	1267,69
345,02	1282,03
345,23	1333,23
345,44	1253,36
345,65	1300,46
345,86	1282,03
346,07	1245,16
346,29	1216,49
346,50	1284,08
346,71	1288,17
346,92	1298,41
347,13	1284,08
347,34	1253,36
347,55	1269,74
347,76	1263,60
347,98	1316,84
348,19	1249,26
348,40	1267,69
348,61	1206,25
348,82	1333,23
349,03	1251,31
349,24	1279,98
349,45	1255,40
349,66	1279,98
349,88	1249,26
350,09	1253,36
350,30	1247,21
350,51	1277,93
350,72	1316,84
350,93	1337,32
351,14	1214,45
351,35	1294,32
351,56	1312,75
351,77	1265,64
351,99	1249,26
352,20	1351,66
352,41	1308,65
352,62	1239,02
352,83	1255,40
353,04	1333,23
353,25	1212,40
353,46	1341,42
353,67	1271,79
353,88	1300,46
354,09	1325,04
354,30	1208,30
354,52	1210,35
354,73	1286,12
354,94	1267,69
355,15	1257,45
355,36	1277,93
355,57	1259,50
355,78	1284,08
355,99	1253,36
356,20	1320,94
356,41	1302,51
356,62	1261,55
356,83	1304,56
357,04	1232,88
357,25	1236,97
357,46	1241,07
357,68	1216,49
357,89	1298,41
358,10	1234,93
358,31	1255,40
358,52	1214,45
358,73	1218,54
358,94	1314,80
359,15	1271,79
359,36	1322,99
359,57	1302,51
359,78	1208,30
359,99	1306,60
360,20	1359,85
360,41	1271,79
360,62	1249,26
360,83	1298,41
361,04	1263,60
361,25	1294,32
361,46	1288,17
361,67	1253,36
361,88	1232,88
362,09	1253,36
362,30	1279,98
362,51	1239,02
362,72	1341,42
362,93	1261,55
363,14	1257,45
363,35	1267,69
363,56	1257,45
363,78	1290,22
363,99	1239,02
364,20	1269,74
364,41	1306,60
364,62	1236,97
364,83	1247,21
365,04	1224,69
365,25	1331,18
365,46	1314,80
365,67	1257,45
365,88	1257,45
366,09	1333,23
366,30	1208,30
366,51	1288,17
366,72	1216,49
366,93	1249,26
367,14	1308,65
367,35	1298,41
367,56	1202,16
367,77	1347,56
367,98	1249,26
368,18	1249,26
368,39	1202,16
368,60	1304,56
368,81	1312,75
369,02	1255,40
369,23	1239,02
369,44	1271,79
369,65	1286,12
369,86	1236,97
370,07	1306,60
370,28	1306,60
370,49	1339,37
370,70	1292,27
370,91	1275,88
371,12	1245,16
371,33	1208,30
371,54	1325,04
371,75	1191,92
371,96	1288,17
372,17	1304,56
372,38	1277,93
372,59	1226,73
372,80	1267,69
373,01	1257,45
373,22	1253,36
373,43	1279,98
373,64	1239,02
373,85	1251,31
374,06	1216,49
374,26	1329,13
374,47	1294,32
374,68	1249,26
374,89	1269,74
375,10	1226,73
375,31	1316,84
375,52	1318,89
375,73	1265,64
375,94	1239,02
376,15	1320,94
376,36	1234,93
376,57	1230,83
376,78	1239,02
376,99	1216,49
377,20	1239,02
377,40	1212,40
377,61	1239,02
377,82	1232,88
378,03	1263,60
378,24	1302,51
378,45	1239,02
378,66	1191,92
378,87	1298,41
379,08	1292,27
379,29	1294,32
379,50	1255,40
379,71	1300,46
379,91	1249,26
380,12	1222,64
380,33	1257,45
380,54	1271,79
380,75	1273,84
380,96	1226,73
381,17	1275,88
381,38	1243,12
381,59	1249,26
381,80	1257,45
382,00	1251,31
382,21	1261,55
382,42	1275,88
382,63	1208,30
382,84	1302,51
383,05	1228,78
383,26	1253,36
383,47	1279,98
383,68	1282,03
383,88	1261,55
384,09	1279,98
384,30	1337,32
384,51	1236,97
384,72	1224,69
384,93	1327,08
385,14	1343,47
385,35	1277,93
385,55	1261,55
385,76	1335,28
385,97	1284,08
386,18	1279,98
386,39	1255,40
386,60	1228,78
386,81	1234,93
387,02	1290,22
387,22	1284,08
387,43	1314,80
387,64	1290,22
387,85	1224,69
388,06	1271,79
388,27	1224,69
388,48	1222,64
388,68	1282,03
388,89	1261,55
389,10	1247,21
389,31	1261,55
389,52	1304,56
389,73	1245,16
389,93	1239,02
390,14	1290,22
390,35	1290,22
390,56	1232,88
390,77	1312,75
390,98	1265,64
391,18	1255,40
391,39	1261,55
391,60	1267,69
391,81	1271,79
392,02	1333,23
392,23	1312,75
392,43	1308,65
392,64	1277,93
392,85	1318,89
393,06	1269,74
393,27	1230,83
393,47	1292,27
393,68	1261,55
393,89	1259,50
394,10	1263,60
394,31	1325,04
394,52	1247,21
394,72	1273,84
394,93	1325,04
395,14	1181,68
395,35	1253,36
395,56	1200,11
395,76	1286,12
395,97	1261,55
396,18	1322,99
396,39	1241,07
396,60	1241,07
396,80	1236,97
397,01	1335,28
397,22	1257,45
397,43	1241,07
397,64	1226,73
397,84	1267,69
398,05	1230,83
398,26	1263,60
398,47	1351,66
398,67	1265,64
398,88	1251,31
399,09	1177,58
399,30	1341,42
399,51	1271,79
399,71	1273,84
399,92	1249,26
400,13	1294,32
400,34	1255,40
400,54	1255,40
400,75	1378,28
400,96	1265,64
401,17	1265,64
401,37	1273,84
401,58	1320,94
401,79	1290,22
402,00	1222,64
402,21	1277,93
402,41	1247,21
402,62	1279,98
402,83	1271,79
403,04	1245,16
403,24	1267,69
403,45	1218,54
403,66	1306,60
403,87	1284,08
404,07	1212,40
404,28	1322,99
404,49	1282,03
404,70	1288,17
404,90	1247,21
405,11	1251,31
405,32	1288,17
405,52	1277,93
405,73	1249,26
405,94	1265,64
406,15	1234,93
406,35	1286,12
406,56	1306,60
406,77	1304,56
406,98	1282,03
407,18	1288,17
407,39	1251,31
407,60	1271,79
407,80	1228,78
408,01	1247,21
408,22	1271,79
408,43	1255,40
408,63	1265,64
408,84	1290,22
409,05	1277,93
409,25	1259,50
409,46	1306,60
409,67	1294,32
409,88	1288,17
410,08	1282,03
410,29	1288,17
410,50	1306,60
410,70	1290,22
410,91	1265,64
411,12	1284,08
411,32	1275,88
411,53	1230,83
411,74	1269,74
411,95	1267,69
412,15	1312,75
412,36	1230,83
412,57	1220,59
412,77	1318,89
412,98	1329,13
413,19	1265,64
413,39	1171,44
413,60	1234,93
413,81	1308,65
414,01	1273,84
414,22	1247,21
414,43	1210,35
414,63	1312,75
414,84	1329,13
415,05	1316,84
415,25	1314,80
415,46	1257,45
415,67	1298,41
415,87	1302,51
416,08	1241,07
416,29	1302,51
416,49	1306,60
416,70	1187,82
416,91	1220,59
417,11	1316,84
417,32	1263,60
417,53	1335,28
417,73	1218,54
417,94	1263,60
418,15	1259,50
418,35	1261,55
418,56	1245,16
418,77	1275,88
418,97	1282,03
419,18	1257,45
419,38	1228,78
419,59	1284,08
419,80	1292,27
420,00	1187,82
420,21	1294,32
420,42	1216,49
420,62	1191,92
420,83	1265,64
421,04	1337,32
421,24	1290,22
421,45	1300,46
421,65	1214,45
421,86	1159,15
422,07	1292,27
422,27	1232,88
422,48	1294,32
422,69	1277,93
422,89	1300,46
423,10	1353,71
423,30	1286,12
423,51	1273,84
423,72	1296,36
423,92	1298,41
424,13	1279,98
424,33	1292,27
424,54	1265,64
424,75	1290,22
424,95	1269,74
425,16	1191,92
425,36	1265,64
425,57	1286,12
425,78	1277,93
425,98	1269,74
426,19	1282,03
426,39	1284,08
426,60	1296,36
426,81	1222,64
427,01	1224,69
427,22	1275,88
427,42	1286,12
427,63	1347,56
427,83	1200,11
428,04	1273,84
428,25	1261,55
428,45	1263,60
428,66	1306,60
428,86	1269,74
429,07	1251,31
429,28	1241,07
429,48	1263,60
429,69	1325,04
429,89	1265,64
430,10	1224,69
430,30	1261,55
430,51	1277,93
430,71	1247,21
430,92	1218,54
431,13	1288,17
431,33	1224,69
431,54	1267,69
431,74	1247,21
431,95	1322,99
432,15	1329,13
432,36	1243,12
432,56	1302,51
432,77	1257,45
432,98	1282,03
433,18	1304,56
433,39	1337,32
433,59	1245,16
433,80	1292,27
434,00	1308,65
434,21	1304,56
434,41	1267,69
434,62	1302,51
434,82	1263,60
435,03	1236,97
435,23	1245,16
435,44	1253,36
435,64	1200,11
435,85	1263,60
436,06	1269,74
436,26	1275,88
436,47	1226,73
436,67	1226,73
436,88	1316,84
437,08	1224,69
437,29	1286,12
437,49	1298,41
437,70	1239,02
437,90	1212,40
438,11	1245,16
438,31	1257,45
438,52	1212,40
438,72	1263,60
438,93	1290,22
439,13	1314,80
439,34	1277,93
439,54	1249,26
439,75	1310,70
439,95	1245,16
440,16	1267,69
440,36	1273,84
440,57	1284,08
440,77	1214,45
440,98	1241,07
441,18	1306,60
441,39	1312,75
441,59	1214,45
441,80	1251,31
442,00	1337,32
442,21	1259,50
442,41	1279,98
442,62	1279,98
442,82	1292,27
443,02	1286,12
443,23	1216,49
443,43	1204,21
443,64	1290,22
443,84	1259,50
444,05	1345,52
444,25	1171,44
444,46	1253,36
444,66	1255,40
444,87	1265,64
445,07	1243,12
445,28	1304,56
445,48	1290,22
445,69	1263,60
445,89	1300,46
446,09	1306,60
446,30	1236,97
446,50	1286,12
446,71	1263,60
446,91	1210,35
447,12	1253,36
447,32	1327,08
447,53	1241,07
447,73	1294,32
447,93	1333,23
448,14	1331,18
448,34	1308,65
448,55	1214,45
448,75	1202,16
448,96	1339,37
449,16	1251,31
449,36	1302,51
449,57	1271,79
449,77	1290,22
449,98	1271,79
450,18	1327,08
450,39	1320,94
450,59	1173,49
450,79	1257,45
451,00	1247,21
451,20	1261,55
451,41	1251,31
451,61	1230,83
451,81	1271,79
452,02	1269,74
452,22	1374,19
452,43	1294,32
452,63	1286,12
452,84	1193,97
453,04	1267,69
453,24	1232,88
453,45	1290,22
453,65	1263,60
453,86	1284,08
454,06	1277,93
454,26	1357,80
454,47	1220,59
454,67	1294,32
454,87	1259,50
455,08	1277,93
455,28	1288,17
455,49	1320,94
455,69	1230,83
455,89	1259,50
456,10	1312,75
456,30	1263,60
456,51	1261,55
456,71	1279,98
456,91	1263,60
457,12	1284,08
457,32	1337,32
457,52	1284,08
457,73	1306,60
457,93	1277,93
458,14	1279,98
458,34	1282,03
458,54	1255,40
458,75	1298,41
458,95	1263,60
459,15	1304,56
459,36	1220,59
459,56	1302,51
459,76	1269,74
459,97	1210,35
460,17	1284,08
460,37	1325,04
460,58	1234,93
460,78	1314,80
460,99	1249,26
461,19	1312,75
461,39	1253,36
461,60	1210,35
461,80	1267,69
462,00	1257,45
462,21	1247,21
462,41	1286,12
462,61	1220,59
462,82	1304,56
463,02	1212,40
463,22	1290,22
463,43	1245,16
463,63	1292,27
463,83	1247,21
464,04	1269,74
464,24	1228,78
464,44	1302,51
464,64	1230,83
464,85	1269,74
465,05	1294,32
465,25	1322,99
465,46	1228,78
465,66	1318,89
465,86	1286,12
466,07	1275,88
466,27	1202,16
466,47	1263,60
466,68	1261,55
466,88	1296,36
467,08	1259,50
467,29	1282,03
467,49	1306,60
467,69	1247,21
467,89	1224,69
468,10	1259,50
468,30	1232,88
468,50	1292,27
468,71	1265,64
468,91	1279,98
469,11	1333,23
469,31	1265,64
469,52	1277,93
469,72	1273,84
469,92	1310,70
470,13	1234,93
470,33	1273,84
470,53	1296,36
470,73	1298,41
470,94	1191,92
471,14	1228,78
471,34	1275,88
471,54	1279,98
471,75	1337,32
471,95	1257,45
472,15	1239,02
472,36	1318,89
472,56	1157,10
472,76	1222,64
472,96	1265,64
473,17	1273,84
473,37	1239,02
473,57	1322,99
473,77	1306,60
473,98	1298,41
474,18	1267,69
474,38	1230,83
474,58	1320,94
474,79	1212,40
474,99	1241,07
475,19	1273,84
475,39	1273,84
475,60	1220,59
475,80	1282,03
476,00	1222,64
476,20	1245,16
476,41	1249,26
476,61	1277,93
476,81	1228,78
477,01	1271,79
477,21	1337,32
477,42	1267,69
477,62	1257,45
477,82	1294,32
478,02	1245,16
478,23	1298,41
478,43	1265,64
478,63	1308,65
478,83	1275,88
479,03	1249,26
479,24	1308,65
479,44	1251,31
479,64	1288,17
479,84	1300,46
480,04	1261,55
480,25	1327,08
480,45	1253,36
480,65	1259,50
480,85	1284,08
481,06	1296,36
481,26	1249,26
481,46	1216,49
481,66	1198,06
481,86	1249,26
482,06	1273,84
482,27	1290,22
482,47	1370,09
482,67	1320,94
482,87	1247,21
483,07	1322,99
483,28	1269,74
483,48	1228,78
483,68	1187,82
483,88	1335,28
484,08	1196,01
484,29	1277,93
484,49	1279,98
484,69	1302,51
484,89	1236,97
485,09	1204,21
485,29	1314,80
485,50	1292,27
485,70	1275,88
485,90	1329,13
486,10	1257,45
486,30	1247,21
486,50	1273,84
486,71	1228,78
486,91	1279,98
487,11	1300,46
487,31	1208,30
487,51	1265,64
487,71	1261,55
487,91	1282,03
488,12	1347,56
488,32	1214,45
488,52	1304,56
488,72	1214,45
488,92	1230,83
489,12	1306,60
489,32	1226,73
489,53	1214,45
489,73	1302,51
489,93	1247,21
490,13	1286,12
490,33	1259,50
490,53	1228,78
490,73	1249,26
490,94	1191,92
491,14	1261,55
491,34	1273,84
491,54	1339,37
491,74	1243,12
491,94	1368,04
492,14	1265,64
492,34	1263,60
492,54	1341,42
492,75	1277,93
492,95	1239,02
493,15	1300,46
493,35	1261,55
493,55	1282,03
493,75	1263,60
493,95	1284,08
494,15	1239,02
494,35	1273,84
494,56	1218,54
494,76	1308,65
494,96	1296,36
495,16	1380,33
495,36	1288,17
495,56	1228,78
495,76	1286,12
495,96	1331,18
496,16	1253,36
496,36	1320,94
496,56	1224,69
496,77	1273,84
496,97	1257,45
497,17	1189,87
497,37	1290,22
497,57	1261,55
497,77	1327,08
497,97	1275,88
498,17	1284,08
498,37	1263,60
498,57	1302,51
498,77	1279,98
498,97	1308,65
499,17	1228,78
499,38	1284,08
499,58	1259,50
499,78	1232,88
499,98	1202,16
500,18	1279,98
500,38	1355,76
500,58	1220,59
500,78	1325,04
500,98	1220,59
501,18	1339,37
501,38	1259,50
501,58	1243,12
501,78	1282,03
501,98	1273,84
502,18	1286,12
502,38	1220,59
502,58	1224,69
502,78	1286,12
502,98	1284,08
503,18	1300,46
503,38	1261,55
503,59	1214,45
503,79	1277,93
503,99	1308,65
504,19	1220,59
504,39	1335,28
504,59	1302,51
504,79	1284,08
504,99	1288,17
505,19	1284,08
505,39	1241,07
505,59	1339,37
505,79	1271,79
505,99	1343,47
506,19	1273,84
506,39	1257,45
506,59	1322,99
506,79	1325,04
506,99	1271,79
507,19	1273,84
507,39	1308,65
507,59	1249,26
507,79	1286,12
507,99	1327,08
508,19	1310,70
508,39	1296,36
508,59	1316,84
508,79	1351,66
508,99	1259,50
509,19	1306,60
509,39	1335,28
509,59	1296,36
509,79	1228,78
509,99	1257,45
510,19	1269,74
510,39	1306,60
510,59	1251,31
510,79	1296,36
510,99	1273,84
511,19	1206,25
511,39	1179,63
511,59	1329,13
511,79	1312,75
511,99	1273,84
512,19	1251,31
512,38	1265,64
512,58	1302,51
512,78	1275,88
512,98	1275,88
513,18	1282,03
513,38	1218,54
513,58	1255,40
513,78	1312,75
513,98	1357,80
514,18	1267,69
514,38	1314,80
514,58	1275,88
514,78	1322,99
514,98	1300,46
515,18	1341,42
515,38	1320,94
515,58	1329,13
515,78	1288,17
515,98	1241,07
516,18	1314,80
516,38	1337,32
516,57	1337,32
516,77	1296,36
516,97	1273,84
517,17	1265,64
517,37	1273,84
517,57	1302,51
517,77	1288,17
517,97	1292,27
518,17	1316,84
518,37	1277,93
518,57	1224,69
518,77	1310,70
518,97	1271,79
519,16	1302,51
519,36	1275,88
519,56	1265,64
519,76	1275,88
519,96	1318,89
520,16	1286,12
520,36	1259,50
520,56	1294,32
520,76	1306,60
520,96	1249,26
521,16	1292,27
521,35	1298,41
521,55	1263,60
521,75	1300,46
521,95	1325,04
522,15	1277,93
522,35	1261,55
522,55	1261,55
522,75	1294,32
522,95	1296,36
523,14	1226,73
523,34	1202,16
523,54	1294,32
523,74	1343,47
523,94	1241,07
524,14	1277,93
524,34	1304,56
524,54	1298,41
524,73	1232,88
524,93	1282,03
525,13	1312,75
525,33	1322,99
525,53	1265,64
525,73	1304,56
525,93	1282,03
526,13	1294,32
526,32	1261,55
526,52	1318,89
526,72	1318,89
526,92	1327,08
527,12	1368,04
527,32	1193,97
527,52	1282,03
527,71	1275,88
527,91	1243,12
528,11	1302,51
528,31	1279,98
528,51	1239,02
528,71	1312,75
528,90	1310,70
529,10	1273,84
529,30	1308,65
529,50	1327,08
529,70	1232,88
529,90	1331,18
530,09	1230,83
530,29	1286,12
530,49	1263,60
530,69	1241,07
530,89	1251,31
531,09	1230,83
531,28	1249,26
531,48	1284,08
531,68	1300,46
531,88	1261,55
532,08	1259,50
532,28	1290,22
532,47	1302,51
532,67	1347,56
532,87	1290,22
533,07	1261,55
533,27	1257,45
533,46	1277,93
533,66	1286,12
533,86	1337,32
534,06	1273,84
534,26	1239,02
534,45	1257,45
534,65	1224,69
534,85	1279,98
535,05	1294,32
535,25	1273,84
535,44	1271,79
535,64	1306,60
535,84	1236,97
536,04	1290,22
536,24	1388,52
536,43	1247,21
536,63	1255,40
536,83	1163,25
537,03	1294,32
537,22	1253,36
537,42	1222,64
537,62	1259,50
537,82	1310,70
538,02	1314,80
538,21	1286,12
538,41	1304,56
538,61	1212,40
538,81	1316,84
539,00	1255,40
539,20	1251,31
539,40	1286,12
539,60	1251,31
539,79	1284,08
539,99	1279,98
540,19	1267,69
540,39	1273,84
540,58	1245,16
540,78	1224,69
540,98	1277,93
541,18	1210,35
541,37	1363,95
541,57	1329,13
541,77	1255,40
541,97	1257,45
542,16	1259,50
542,36	1292,27
542,56	1255,40
542,76	1271,79
542,95	1247,21
543,15	1255,40
543,35	1298,41
543,54	1284,08
543,74	1286,12
543,94	1263,60
544,14	1263,60
544,33	1259,50
544,53	1296,36
544,73	1218,54
544,93	1273,84
545,12	1322,99
545,32	1263,60
545,52	1286,12
545,71	1273,84
545,91	1222,64
546,11	1284,08
546,30	1208,30
546,50	1339,37
546,70	1253,36
546,90	1255,40
547,09	1200,11
547,29	1226,73
547,49	1236,97
547,68	1329,13
547,88	1325,04
548,08	1261,55
548,27	1372,14
548,47	1275,88
548,67	1257,45
548,87	1243,12
549,06	1288,17
549,26	1327,08
549,46	1257,45
549,65	1292,27
549,85	1282,03
550,05	1376,24
550,24	1304,56
550,44	1335,28
550,64	1224,69
550,83	1259,50
551,03	1312,75
551,23	1269,74
551,42	1318,89
551,62	1277,93
551,82	1273,84
552,01	1212,40
552,21	1325,04
552,41	1306,60
552,60	1292,27
552,80	1273,84
553,00	1228,78
553,19	1335,28
553,39	1212,40
553,59	1257,45
553,78	1236,97
553,98	1220,59
554,17	1263,60
554,37	1374,19
554,57	1251,31
554,76	1243,12
554,96	1316,84
555,16	1236,97
555,35	1243,12
555,55	1241,07
555,75	1345,52
555,94	1302,51
556,14	1273,84
556,33	1294,32
556,53	1269,74
556,73	1294,32
556,92	1308,65
557,12	1288,17
557,32	1288,17
557,51	1263,60
557,71	1296,36
557,90	1320,94
558,10	1302,51
558,30	1232,88
558,49	1304,56
558,69	1263,60
558,88	1265,64
559,08	1320,94
559,28	1282,03
559,47	1263,60
559,67	1314,80
559,86	1304,56
560,06	1206,25
560,26	1318,89
560,45	1212,40
560,65	1284,08
560,84	1300,46
561,04	1269,74
561,24	1327,08
561,43	1271,79
561,63	1290,22
561,82	1347,56
562,02	1318,89
562,22	1335,28
562,41	1343,47
562,61	1331,18
562,80	1206,25
563,00	1261,55
563,19	1329,13
563,39	1316,84
563,59	1314,80
563,78	1294,32
563,98	1273,84
564,17	1345,52
564,37	1335,28
564,56	1275,88
564,76	1314,80
564,96	1337,32
565,15	1253,36
565,35	1255,40
565,54	1241,07
565,74	1232,88
565,93	1312,75
566,13	1275,88
566,32	1306,60
566,52	1245,16
566,71	1275,88
566,91	1296,36
567,11	1322,99
567,30	1304,56
567,50	1304,56
567,69	1341,42
567,89	1275,88
568,08	1308,65
568,28	1294,32
568,47	1296,36
568,67	1302,51
568,86	1261,55
569,06	1265,64
569,25	1294,32
569,45	1273,84
569,64	1206,25
569,84	1261,55
570,04	1306,60
570,23	1349,61
570,43	1275,88
570,62	1327,08
570,82	1282,03
571,01	1322,99
571,21	1265,64
571,40	1331,18
571,60	1345,52
571,79	1263,60
571,99	1290,22
572,18	1247,21
572,38	1282,03
572,57	1275,88
572,77	1329,13
572,96	1249,26
573,16	1216,49
573,35	1290,22
573,55	1267,69
573,74	1214,45
573,94	1255,40
574,13	1275,88
574,33	1282,03
574,52	1308,65
574,71	1314,80
574,91	1327,08
575,10	1296,36
575,30	1306,60
575,49	1257,45
575,69	1232,88
575,88	1284,08
576,08	1267,69
576,27	1359,85
576,47	1279,98
576,66	1290,22
576,86	1343,47
577,05	1214,45
577,25	1337,32
577,44	1306,60
577,64	1279,98
577,83	1296,36
578,02	1273,84
578,22	1212,40
578,41	1273,84
578,61	1218,54
578,80	1308,65
579,00	1304,56
579,19	1226,73
579,39	1288,17
579,58	1273,84
579,77	1286,12
579,97	1234,93
580,16	1331,18
580,36	1290,22
580,55	1275,88
580,75	1251,31
580,94	1333,23
581,13	1318,89
581,33	1288,17
581,52	1259,50
581,72	1304,56
581,91	1251,31
582,11	1284,08
582,30	1277,93
582,49	1366,00
582,69	1255,40
582,88	1314,80
583,08	1187,82
583,27	1267,69
583,47	1224,69
583,66	1279,98
583,85	1286,12
584,05	1279,98
584,24	1318,89
584,44	1253,36
584,63	1261,55
584,82	1327,08
585,02	1243,12
585,21	1259,50
585,41	1316,84
585,60	1230,83
585,79	1312,75
585,99	1374,19
586,18	1245,16
586,37	1347,56
586,57	1310,70
586,76	1290,22
586,96	1269,74
587,15	1277,93
587,34	1284,08
587,54	1265,64
587,73	1347,56
587,93	1294,32
588,12	1308,65
588,31	1284,08
588,51	1275,88
588,70	1333,23
588,89	1286,12
589,09	1247,21
589,28	1296,36
589,47	1288,17
589,67	1218,54
589,86	1277,93
590,06	1232,88
590,25	1314,80
590,44	1228,78
590,64	1249,26
590,83	1239,02
591,02	1296,36
591,22	1226,73
591,41	1236,97
591,60	1286,12
591,80	1275,88
591,99	1286,12
592,18	1349,61
592,38	1265,64
592,57	1329,13
592,76	1306,60
592,96	1306,60
593,15	1230,83
593,34	1312,75
593,54	1220,59
593,73	1226,73
593,92	1347,56
594,12	1318,89
594,31	1234,93
594,50	1306,60
594,70	1286,12
594,89	1304,56
595,08	1247,21
595,28	1265,64
595,47	1331,18
595,66	1251,31
595,86	1310,70
596,05	1306,60
596,24	1265,64
596,43	1279,98
596,63	1208,30
596,82	1347,56
597,01	1294,32
597,21	1316,84
597,40	1316,84
597,59	1306,60
597,79	1277,93
597,98	1294,32
598,17	1273,84
598,36	1343,47
598,56	1259,50
598,75	1259,50
598,94	1302,51
599,14	1294,32
599,33	1292,27
599,52	1345,52
599,71	1329,13
599,91	1214,45
600,10	1372,14
600,29	1275,88
600,48	1261,55
600,68	1296,36
600,87	1288,17
601,06	1331,18
601,26	1357,80
601,45	1234,93
601,64	1257,45
601,83	1273,84
602,03	1224,69
602,22	1290,22
602,41	1228,78
602,60	1300,46
602,80	1318,89
602,99	1386,47
603,18	1245,16
603,37	1282,03
603,57	1228,78
603,76	1247,21
603,95	1259,50
604,14	1269,74
604,34	1277,93
604,53	1267,69
604,72	1263,60
604,91	1277,93
605,10	1261,55
605,30	1241,07
605,49	1314,80
605,68	1279,98
605,87	1335,28
606,07	1310,70
606,26	1318,89
606,45	1273,84
606,64	1284,08
606,84	1279,98
607,03	1234,93
607,22	1273,84
607,41	1322,99
607,60	1304,56
607,80	1220,59
607,99	1210,35
608,18	1249,26
608,37	1259,50
608,56	1187,82
608,76	1335,28
608,95	1255,40
609,14	1271,79
609,33	1259,50
609,52	1288,17
609,72	1228,78
609,91	1234,93
610,10	1271,79
610,29	1318,89
610,48	1253,36
610,68	1271,79
610,87	1226,73
611,06	1226,73
611,25	1304,56
611,44	1257,45
611,63	1265,64
611,83	1314,80
612,02	1298,41
612,21	1314,80
612,40	1245,16
612,59	1351,66
612,79	1251,31
612,98	1320,94
613,17	1304,56
613,36	1204,21
613,55	1282,03
613,74	1261,55
613,93	1290,22
614,13	1230,83
614,32	1243,12
614,51	1263,60
614,70	1265,64
614,89	1261,55
615,08	1294,32
615,28	1425,39
615,47	1267,69
615,66	1298,41
615,85	1288,17
616,04	1263,60
616,23	1279,98
616,42	1329,13
616,62	1243,12
616,81	1298,41
617,00	1253,36
617,19	1282,03
617,38	1325,04
617,57	1220,59
617,76	1306,60
617,95	1341,42
618,15	1232,88
618,34	1314,80
618,53	1236,97
618,72	1220,59
618,91	1292,27
619,10	1269,74
619,29	1275,88
619,48	1302,51
619,68	1263,60
619,87	1267,69
620,06	1312,75
620,25	1345,52
620,44	1269,74
620,63	1243,12
620,82	1290,22
621,01	1255,40
621,20	1247,21
621,39	1298,41
621,59	1273,84
621,78	1265,64
621,97	1355,76
622,16	1306,60
622,35	1257,45
622,54	1320,94
622,73	1320,94
622,92	1292,27
623,11	1331,18
623,30	1304,56
623,49	1224,69
623,68	1335,28
623,88	1284,08
624,07	1331,18
624,26	1347,56
624,45	1249,26
624,64	1300,46
624,83	1296,36
625,02	1327,08
625,21	1320,94
625,40	1234,93
625,59	1349,61
625,78	1251,31
625,97	1329,13
626,16	1294,32
626,35	1265,64
626,54	1257,45
626,74	1296,36
626,93	1267,69
627,12	1302,51
627,31	1363,95
627,50	1224,69
627,69	1343,47
627,88	1394,67
628,07	1269,74
628,26	1263,60
628,45	1312,75
628,64	1241,07
628,83	1339,37
629,02	1331,18
629,21	1288,17
629,40	1271,79
629,59	1282,03
629,78	1263,60
629,97	1273,84
630,16	1361,90
630,35	1265,64
630,54	1349,61
630,73	1312,75
630,92	1318,89
631,11	1376,24
631,30	1392,62
631,49	1396,71
631,68	1576,94
631,87	2148,32
632,06	3649,48
632,25	2977,75
632,44	3762,12
632,63	4726,71
632,82	9422,70
633,01	9516,91
633,20	14765,85
633,39	35177,96
633,58	53628,11
633,77	65535,00
633,96	65535,00
634,15	65229,85
634,34	46619,96
634,53	25460,35
634,72	14473,00
634,91	7411,60
635,10	3837,89
635,29	2439,13
635,48	1800,16
635,67	1615,85
635,86	1468,39
636,05	1421,29
636,24	1449,96
636,43	1421,29
636,62	1388,52
636,81	1396,71
637,00	1388,52
637,19	1417,19
637,38	1329,13
637,57	1327,08
637,76	1282,03
637,95	1322,99
638,14	1355,76
638,33	1331,18
638,52	1333,23
638,71	1271,79
638,89	1386,47
639,08	1329,13
639,27	1363,95
639,46	1288,17
639,65	1310,70
639,84	1265,64
640,03	1312,75
640,22	1247,21
640,41	1320,94
640,60	1255,40
640,79	1257,45
640,98	1316,84
641,17	1347,56
641,36	1247,21
641,55	1282,03
641,74	1208,30
641,92	1247,21
642,11	1224,69
642,30	1243,12
642,49	1218,54
642,68	1271,79
642,87	1290,22
643,06	1265,64
643,25	1271,79
643,44	1216,49
643,63	1275,88
643,82	1265,64
644,00	1267,69
644,19	1282,03
644,38	1296,36
644,57	1257,45
644,76	1253,36
644,95	1298,41
645,14	1318,89
645,33	1261,55
645,52	1300,46
645,71	1339,37
645,89	1277,93
646,08	1298,41
646,27	1273,84
646,46	1296,36
646,65	1322,99
646,84	1316,84
647,03	1251,31
647,22	1308,65
647,40	1269,74
647,59	1165,29
647,78	1169,39
647,97	1300,46
648,16	1228,78
648,35	1314,80
648,54	1343,47
648,73	1294,32
648,91	1282,03
649,10	1337,32
649,29	1263,60
649,48	1339,37
649,67	1286,12
649,86	1255,40
650,05	1279,98
650,23	1304,56
650,42	1247,21
650,61	1306,60
650,80	1230,83
650,99	1322,99
651,18	1288,17
651,36	1249,26
651,55	1298,41
651,74	1265,64
651,93	1249,26
652,12	1230,83
652,31	1273,84
652,49	1275,88
652,68	1290,22
652,87	1257,45
653,06	1263,60
653,25	1314,80
653,44	1275,88
653,62	1273,84
653,81	1300,46
654,00	1298,41
654,19	1265,64
654,38	1300,46
654,56	1273,84
654,75	1282,03
654,94	1286,12
655,13	1302,51
655,32	1296,36
655,51	1245,16
655,69	1204,21
655,88	1327,08
656,07	1247,21
656,26	1304,56
656,45	1265,64
656,63	1224,69
656,82	1318,89
657,01	1294,32
657,20	1230,83
657,38	1271,79
657,57	1288,17
657,76	1253,36
657,95	1247,21
658,14	1255,40
658,32	1290,22
658,51	1296,36
658,70	1138,67
658,89	1286,12
659,08	1222,64
659,26	1290,22
659,45	1202,16
659,64	1257,45
659,83	1312,75
660,01	1257,45
660,20	1257,45
660,39	1275,88
660,58	1191,92
660,76	1282,03
660,95	1245,16
661,14	1265,64
661,33	1269,74
661,51	1249,26
661,70	1284,08
661,89	1308,65
662,08	1218,54
662,26	1222,64
662,45	1308,65
662,64	1267,69
662,83	1284,08
663,01	1257,45
663,20	1279,98
663,39	1230,83
663,58	1255,40
663,76	1251,31
663,95	1282,03
664,14	1212,40
664,32	1232,88
664,51	1273,84
664,70	1245,16
664,89	1279,98
665,07	1318,89
665,26	1331,18
665,45	1308,65
665,64	1300,46
665,82	1263,60
666,01	1337,32
666,20	1171,44
666,38	1259,50
666,57	1273,84
666,76	1236,97
666,95	1273,84
667,13	1286,12
667,32	1271,79
667,51	1290,22
667,69	1292,27
667,88	1241,07
668,07	1216,49
668,25	1322,99
668,44	1257,45
668,63	1206,25
668,81	1265,64
669,00	1298,41
669,19	1224,69
669,38	1232,88
669,56	1320,94
669,75	1265,64
669,94	1175,53
670,12	1255,40
670,31	1273,84
670,50	1314,80
670,68	1288,17
670,87	1253,36
671,06	1253,36
671,24	1241,07
671,43	1308,65
671,62	1337,32
671,80	1249,26
671,99	1234,93
672,18	1232,88
672,36	1230,83
672,55	1279,98
672,74	1265,64
672,92	1277,93
673,11	1239,02
673,29	1327,08
673,48	1304,56
673,67	1218,54
673,85	1216,49
674,04	1239,02
674,23	1267,69
674,41	1249,26
674,60	1337,32
674,79	1230,83
674,97	1257,45
675,16	1261,55
675,34	1255,40
675,53	1282,03
675,72	1306,60
675,90	1247,21
676,09	1290,22
676,28	1222,64
676,46	1290,22
676,65	1236,97
676,83	1282,03
677,02	1253,36
677,21	1325,04
677,39	1335,28
677,58	1212,40
677,77	1277,93
677,95	1288,17
678,14	1363,95
678,32	1286,12
678,51	1286,12
678,70	1298,41
678,88	1263,60
679,07	1335,28
679,25	1298,41
679,44	1286,12
679,63	1220,59
679,81	1247,21
680,00	1267,69
680,18	1286,12
680,37	1273,84
680,55	1261,55
680,74	1273,84
680,93	1216,49
681,11	1312,75
681,30	1265,64
681,48	1222,64
681,67	1255,40
681,85	1302,51
682,04	1245,16
682,23	1335,28
682,41	1282,03
682,60	1286,12
682,78	1273,84
682,97	1224,69
683,15	1314,80
683,34	1298,41
683,53	1294,32
683,71	1286,12
683,90	1304,56
684,08	1153,01
684,27	1206,25
684,45	1232,88
684,64	1241,07
684,82	1290,22
685,01	1228,78
685,19	1279,98
685,38	1314,80
685,57	1232,88
685,75	1210,35
685,94	1288,17
686,12	1249,26
686,31	1249,26
686,49	1333,23
686,68	1249,26
686,86	1269,74
687,05	1243,12
687,23	1267,69
687,42	1288,17
687,60	1239,02
687,79	1222,64
687,97	1271,79
688,16	1230,83
688,34	1224,69
688,53	1273,84
688,71	1312,75
688,90	1290,22
689,08	1263,60
689,27	1267,69
689,45	1265,64
689,64	1249,26
689,82	1277,93
690,01	1304,56
690,19	1187,82
690,38	1320,94
690,56	1296,36
690,75	1220,59
690,93	1251,31
691,12	1277,93
691,30	1261,55
691,49	1355,76
691,67	1265,64
691,86	1286,12
692,04	1261,55
692,23	1257,45
692,41	1279,98
692,60	1232,88
692,78	1290,22
692,97	1300,46
693,15	1241,07
693,34	1294,32
693,52	1306,60
693,71	1255,40
693,89	1284,08
694,08	1302,51
694,26	1316,84
694,44	1187,82
694,63	1267,69
694,81	1218,54
695,00	1255,40
695,18	1257,45
695,37	1271,79
695,55	1212,40
695,74	1288,17
695,92	1288,17
696,10	1202,16
696,29	1179,63
696,47	1284,08
696,66	1212,40
696,84	1282,03
697,03	1257,45
697,21	1284,08
697,40	1277,93
697,58	1353,71
697,76	1255,40
697,95	1273,84
698,13	1208,30
698,32	1304,56
698,50	1355,76
698,68	1230,83
698,87	1245,16
699,05	1253,36
699,24	1308,65
699,42	1294,32
699,61	1269,74
699,79	1273,84
699,97	1230,83
700,16	1341,42
700,34	1298,41
700,53	1226,73
700,71	1228,78
700,89	1239,02
701,08	1261,55
701,26	1232,88
701,45	1308,65
701,63	1232,88
701,81	1202,16
702,00	1320,94
702,18	1279,98
702,37	1290,22
702,55	1343,47
702,73	1208,30
702,92	1263,60
703,10	1228,78
703,28	1267,69
703,47	1251,31
703,65	1288,17
703,84	1220,59
704,02	1288,17
704,20	1304,56
704,39	1261,55
704,57	1232,88
704,75	1222,64
704,94	1265,64
705,12	1265,64
705,30	1292,27
705,49	1224,69
705,67	1275,88
705,86	1234,93
706,04	1269,74
706,22	1286,12
706,41	1224,69
706,59	1388,52
706,77	1290,22
706,96	1300,46
707,14	1267,69
707,32	1239,02
707,51	1363,95
707,69	1261,55
707,87	1204,21
708,06	1282,03
708,24	1343,47
708,42	1318,89
708,61	1277,93
708,79	1269,74
708,97	1279,98
709,16	1253,36
709,34	1259,50
709,52	1255,40
709,71	1271,79
709,89	1177,58
710,07	1265,64
710,26	1261,55
710,44	1304,56
710,62	1255,40
710,80	1327,08
710,99	1300,46
711,17	1259,50
711,35	1208,30
711,54	1273,84
711,72	1198,06
711,90	1284,08
712,09	1273,84
712,27	1232,88
712,45	1286,12
712,63	1247,21
712,82	1310,70
713,00	1277,93
713,18	1200,11
713,37	1314,80
713,55	1241,07
713,73	1236,97
713,91	1224,69
714,10	1265,64
714,28	1329,13
714,46	1284,08
714,65	1292,27
714,83	1284,08
715,01	1310,70
715,19	1327,08
715,38	1286,12
715,56	1335,28
715,74	1327,08
715,92	1243,12
716,11	1275,88
716,29	1288,17
716,47	1245,16
716,65	1249,26
716,84	1247,21
717,02	1366,00
717,20	1220,59
717,38	1279,98
717,57	1269,74
717,75	1300,46
717,93	1204,21
718,11	1322,99
718,30	1277,93
718,48	1294,32
718,66	1286,12
718,84	1329,13
719,03	1247,21
719,21	1279,98
719,39	1277,93
719,57	1261,55
719,75	1232,88
719,94	1314,80
720,12	1292,27
720,30	1263,60
720,48	1337,32
720,67	1306,60
720,85	1273,84
721,03	1292,27
721,21	1314,80
721,39	1259,50
721,58	1298,41
721,76	1347,56
721,94	1267,69
722,12	1322,99
722,30	1251,31
722,49	1271,79
722,67	1222,64
722,85	1302,51
723,03	1288,17
723,21	1306,60
723,40	1304,56
723,58	1261,55
723,76	1271,79
723,94	1251,31
724,12	1253,36
724,30	1286,12
724,49	1273,84
724,67	1320,94
724,85	1255,40
725,03	1331,18
725,21	1243,12
725,40	1273,84
725,58	1265,64
725,76	1249,26
725,94	1282,03
726,12	1255,40
726,30	1255,40
726,49	1206,25
726,67	1322,99
726,85	1245,16
727,03	1222,64
727,21	1282,03
727,39	1208,30
727,57	1327,08
727,76	1282,03
727,94	1245,16
728,12	1245,16
728,30	1312,75
728,48	1345,52
728,66	1310,70
728,84	1232,88
729,03	1269,74
729,21	1292,27
729,39	1239,02
729,57	1290,22
729,75	1269,74
729,93	1257,45
730,11	1247,21
730,30	1224,69
730,48	1269,74
730,66	1304,56
730,84	1222,64
731,02	1265,64
731,20	1284,08
731,38	1241,07
731,56	1189,87
731,74	1239,02
731,93	1220,59
732,11	1271,79
732,29	1222,64
732,47	1255,40
732,65	1265,64
732,83	1263,60
733,01	1241,07
733,19	1261,55
733,37	1282,03
733,56	1239,02
733,74	1210,35
733,92	1255,40
734,10	1304,56
734,28	1294,32
734,46	1245,16
734,64	1189,87
734,82	1263,60
735,00	1265,64
735,18	1259,50
735,36	1236,97
735,54	1253,36
735,73	1277,93
735,91	1288,17
736,09	1236,97
736,27	1255,40
736,45	1263,60
736,63	1251,31
736,81	1294,32
736,99	1193,97
737,17	1284,08
737,35	1296,36
737,53	1212,40
737,71	1388,52
737,89	1298,41
738,07	1288,17
738,25	1292,27
738,43	1236,97
738,61	1273,84
738,80	1366,00
738,98	1216,49
739,16	1234,93
739,34	1236,97
739,52	1271,79
739,70	1292,27
739,88	1279,98
740,06	1257,45
740,24	1304,56
740,42	1230,83
740,60	1279,98
740,78	1200,11
740,96	1267,69
741,14	1269,74
741,32	1339,37
741,50	1284,08
741,68	1284,08
741,86	1245,16
742,04	1243,12
742,22	1255,40
742,40	1249,26
742,58	1214,45
742,76	1261,55
742,94	1279,98
743,12	1234,93
743,30	1259,50
743,48	1232,88
743,66	1257,45
743,84	1263,60
744,02	1253,36
744,20	1257,45
744,38	1267,69
744,56	1312,75
744,74	1208,30
744,92	1296,36
745,10	1327,08
745,28	1259,50
745,46	1214,45
745,64	1341,42
745,82	1275,88
746,00	1261,55
746,18	1284,08
746,36	1228,78
746,54	1331,18
746,72	1290,22
746,90	1263,60
747,08	1277,93
747,26	1275,88
747,44	1253,36
747,62	1253,36
747,80	1263,60
747,98	1263,60
748,15	1304,56
748,33	1331,18
748,51	1273,84
748,69	1318,89
748,87	1271,79
749,05	1218,54
749,23	1310,70
749,41	1275,88
749,59	1286,12
749,77	1214,45
749,95	1265,64
750,13	1265,64
750,31	1230,83
750,49	1335,28
750,67	1204,21
750,85	1290,22
751,03	1259,50
751,20	1261,55
751,38	1253,36
751,56	1261,55
751,74	1228,78
751,92	1249,26
752,10	1290,22
752,28	1261,55
752,46	1343,47
752,64	1249,26
752,82	1286,12
753,00	1310,70
753,18	1236,97
753,35	1265,64
753,53	1206,25
753,71	1327,08
753,89	1271,79
754,07	1265,64
754,25	1300,46
754,43	1363,95
754,61	1282,03
754,79	1271,79
754,97	1292,27
755,14	1265,64
755,32	1226,73
755,50	1273,84
755,68	1202,16
755,86	1236,97
756,04	1267,69
756,22	1214,45
756,40	1259,50
756,57	1288,17
756,75	1232,88
756,93	1253,36
757,11	1191,92
757,29	1275,88
757,47	1267,69
757,65	1249,26
757,82	1216,49
758,00	1249,26
758,18	1306,60
758,36	1306,60
758,54	1290,22
758,72	1304,56
758,90	1241,07
759,07	1204,21
759,25	1261,55
759,43	1249,26
759,61	1271,79
759,79	1275,88
759,97	1302,51
760,15	1310,70
760,32	1296,36
760,50	1275,88
760,68	1337,32
760,86	1310,70
761,04	1279,98
761,22	1288,17
761,39	1322,99
761,57	1241,07
761,75	1282,03
761,93	1187,82
762,11	1282,03
762,28	1304,56
762,46	1263,60
762,64	1271,79
762,82	1271,79
763,00	1243,12
763,18	1302,51
763,35	1302,51
763,53	1300,46
763,71	1214,45
763,89	1288,17
764,07	1234,93
764,24	1243,12
764,42	1296,36
764,60	1230,83
764,78	1226,73
764,96	1296,36
765,13	1257,45
765,31	1286,12
765,49	1318,89
765,67	1322,99
765,84	1251,31
766,02	1234,93
766,20	1300,46
766,38	1273,84
766,56	1277,93
766,73	1222,64
766,91	1247,21
767,09	1273,84
767,27	1298,41
767,44	1265,64
767,62	1253,36
767,80	1239,02
767,98	1230,83
768,15	1265,64
768,33	1271,79
768,51	1355,76
768,69	1212,40
768,87	1251,31
769,04	1267,69
769,22	1263,60
769,40	1183,73
769,58	1253,36
769,75	1341,42
769,93	1282,03
770,11	1288,17
770,28	1228,78
770,46	1271,79
770,64	1314,80
770,82	1275,88
770,99	1296,36
771,17	1224,69
771,35	1239,02
771,53	1290,22
771,70	1259,50
771,88	1306,60
772,06	1282,03
772,23	1263,60
772,41	1306,60
772,59	1286,12
772,77	1298,41
772,94	1286,12
773,12	1255,40
773,30	1349,61
773,47	1292,27
773,65	1267,69
773,83	1306,60
774,01	1288,17
774,18	1325,04
774,36	1241,07
774,54	1261,55
774,71	1236,97
774,89	1282,03
775,07	1300,46
775,24	1306,60
775,42	1181,68
775,60	1286,12
775,78	1257,45
775,95	1241,07
776,13	1257,45
776,31	1255,40
776,48	1290,22
776,66	1191,92
776,84	1236,97
777,01	1220,59
777,19	1232,88
777,37	1322,99
777,54	1216,49
777,72	1279,98
777,90	1296,36
778,07	1320,94
778,25	1290,22
778,43	1224,69
778,60	1302,51
778,78	1232,88
778,96	1275,88
779,13	1243,12
779,31	1241,07
779,49	1322,99
779,66	1204,21
779,84	1290,22
780,01	1241,07
780,19	1386,47
780,37	1239,02
780,54	1288,17
780,72	1200,11
780,90	1196,01
781,07	1230,83
781,25	1251,31
781,43	1259,50
781,60	1294,32
781,78	1290,22
781,95	1279,98
782,13	1288,17
782,31	1263,60
782,48	1271,79
782,66	1273,84
782,83	1261,55
783,01	1253,36
783,19	1341,42
783,36	1288,17
783,54	1236,97
783,72	1292,27
783,89	1302,51
784,07	1331,18
784,24	1312,75
784,42	1357,80
784,60	1224,69
784,77	1234,93
784,95	1320,94
785,12	1267,69
785,30	1302,51
785,47	1265,64
785,65	1337,32
785,83	1286,12
786,00	1265,64
786,18	1245,16
786,35	1257,45
786,53	1230,83
786,71	1204,21
786,88	1263,60
787,06	1290,22
787,23	1210,35
787,41	1204,21
787,58	1343,47
787,76	1247,21
787,94	1318,89
788,11	1228,78
788,29	1277,93
788,46	1269,74
788,64	1292,27
788,81	1222,64
788,99	1306,60
789,16	1249,26
789,34	1290,22
789,52	1206,25
789,69	1292,27
789,87	1296,36
790,04	1230,83
790,22	1222,64
790,39	1232,88
790,57	1247,21
790,74	1230,83
790,92	1296,36
791,09	1222,64
791,27	1267,69
791,44	1302,51
791,62	1230,83
791,79	1271,79
791,97	1335,28
792,15	1316,84
792,32	1273,84
792,50	1267,69
792,67	1226,73
792,85	1275,88
793,02	1335,28
793,20	1253,36
793,37	1241,07
793,55	1222,64
793,72	1257,45
793,90	1181,68
794,07	1210,35
794,25	1282,03
794,42	1224,69
794,60	1226,73
794,77	1275,88
794,95	1316,84
795,12	1196,01
795,30	1284,08
795,47	1210,35
795,65	1277,93
795,82	1218,54
796,00	1271,79
796,17	1288,17
796,34	1306,60
796,52	1282,03
796,69	1232,88
796,87	1259,50
797,04	1290,22
797,22	1241,07
797,39	1271,79
797,57	1282,03
797,74	1331,18
797,92	1279,98
798,09	1224,69
798,27	1294,32
798,44	1265,64
798,62	1259,50
798,79	1290,22
798,96	1284,08
799,14	1316,84
799,31	1249,26
799,49	1273,84
799,66	1271,79
799,84	1277,93
800,01	1325,04
800,19	1290,22
800,36	1243,12
800,53	1292,27
800,71	1232,88
800,88	1239,02
801,06	1267,69
801,23	1329,13
801,41	1249,26
801,58	1259,50
801,75	1165,29
801,93	1236,97
802,10	1251,31
802,28	1181,68
802,45	1314,80
802,63	1312,75
802,80	1241,07
802,97	1308,65
803,15	1261,55
803,32	1286,12
803,50	1284,08
803,67	1282,03
803,84	1259,50
804,02	1265,64
804,19	1308,65
804,37	1175,53
804,54	1286,12
804,71	1243,12
804,89	1320,94
805,06	1247,21
805,24	1310,70
805,41	1253,36
805,58	1198,06
805,76	1271,79
805,93	1222,64
806,10	1239,02
806,28	1243,12
806,45	1302,51
806,63	1253,36
806,80	1294,32
806,97	1329,13
807,15	1265,64
807,32	1257,45
807,49	1271,79
807,67	1257,45
807,84	1224,69
808,01	1259,50
808,19	1273,84
808,36	1286,12
808,54	1327,08
808,71	1273,84
808,88	1318,89
809,06	1263,60
809,23	1241,07
809,40	1222,64
809,58	1312,75
809,75	1265,64
809,92	1263,60
810,10	1241,07
810,27	1284,08
810,44	1200,11
810,62	1253,36
810,79	1200,11
810,96	1327,08
811,14	1300,46
811,31	1191,92
811,48	1310,70
811,66	1286,12
811,83	1302,51
812,00	1329,13
812,18	1347,56
812,35	1261,55
812,52	1298,41
812,69	1232,88
812,87	1261,55
813,04	1286,12
813,21	1257,45
813,39	1241,07
813,56	1239,02
813,73	1251,31
813,91	1267,69
814,08	1241,07
814,25	1320,94
814,42	1261,55
814,60	1234,93
814,77	1212,40
814,94	1216,49
815,12	1288,17
815,29	1173,49
815,46	1239,02
815,63	1312,75
815,81	1228,78
815,98	1257,45
816,15	1249,26
816,33	1241,07
816,50	1198,06
816,67	1298,41
816,84	1249,26
817,02	1271,79
817,19	1294,32
817,36	1243,12
817,53	1232,88
817,71	1273,84
817,88	1189,87
818,05	1159,15
818,22	1236,97
818,40	1304,56
818,57	1302,51
818,74	1263,60
818,91	1279,98
819,09	1286,12
819,26	1257,45
819,43	1210,35
819,60	1290,22
819,78	1320,94
819,95	1310,70
820,12	1259,50
820,29	1220,59
820,47	1304,56
820,64	1314,80
820,81	1216,49
820,98	1290,22
821,15	1245,16
821,33	1249,26
821,50	1220,59
821,67	1286,12
821,84	1249,26
822,02	1212,40
822,19	1318,89
822,36	1257,45
822,53	1296,36
822,70	1261,55
822,88	1271,79
823,05	1265,64
823,22	1314,80
823,39	1265,64
823,56	1273,84
823,74	1339,37
823,91	1249,26
824,08	1255,40
824,25	1304,56
824,42	1232,88
824,60	1236,97
824,77	1243,12
824,94	1224,69
825,11	1265,64
825,28	1157,10
825,45	1249,26
825,63	1275,88
825,80	1271,79
825,97	1247,21
826,14	1331,18
826,31	1245,16
826,48	1257,45
826,66	1251,31
826,83	1228,78
827,00	1318,89
827,17	1261,55
827,34	1257,45
827,51	1239,02
827,69	1275,88
827,86	1243,12
828,03	1236,97
828,20	1351,66
828,37	1134,57
828,54	1279,98
828,71	1304,56
828,89	1300,46
829,06	1228,78
829,23	1308,65
829,40	1273,84
829,57	1339,37
829,74	1343,47
829,91	1241,07
830,09	1251,31
830,26	1318,89
830,43	1251,31
830,60	1271,79
830,77	1290,22
830,94	1189,87
831,11	1198,06
831,28	1236,97
831,46	1351,66
831,63	1236,97
831,80	1374,19
831,97	1261,55
832,14	1245,16
832,31	1200,11
832,48	1253,36
832,65	1294,32
832,82	1304,56
832,99	1249,26
833,17	1232,88
833,34	1312,75
833,51	1212,40
833,68	1265,64
833,85	1302,51
834,02	1234,93
834,19	1314,80
834,36	1247,21
834,53	1327,08
834,70	1325,04
834,87	1263,60
835,04	1296,36
835,22	1232,88
835,39	1208,30
835,56	1249,26
835,73	1249,26
835,90	1306,60
836,07	1275,88
836,24	1279,98
836,41	1269,74
836,58	1257,45
836,75	1286,12
836,92	1273,84
837,09	1290,22
837,26	1267,69
837,43	1257,45
837,60	1247,21
837,77	1251,31
837,94	1294,32
838,12	1292,27
838,29	1196,01
838,46	1363,95
838,63	1220,59
838,80	1296,36
838,97	1273,84
839,14	1310,70
839,31	1261,55
839,48	1282,03
839,65	1341,42
839,82	1187,82
839,99	1288,17
840,16	1241,07
840,33	1273,84
840,50	1277,93
840,67	1255,40
840,84	1288,17
841,01	1251,31
841,18	1271,79
841,35	1269,74
841,52	1306,60
841,69	1288,17
841,86	1320,94
842,03	1214,45
842,20	1288,17
842,37	1185,77
842,54	1251,31
842,71	1239,02
842,88	1257,45
843,05	1265,64
843,22	1253,36
843,39	1267,69
843,56	1279,98
843,73	1193,97
843,90	1310,70
844,07	1290,22
844,24	1279,98
844,41	1279,98
844,58	1306,60
844,75	1210,35
844,92	1261,55
845,09	1273,84
845,26	1271,79
845,43	1296,36
845,60	1314,80
845,77	1243,12
845,94	1284,08
846,10	1257,45
846,27	1239,02
846,44	1249,26
846,61	1322,99
846,78	1306,60
846,95	1204,21
847,12	1216,49
847,29	1226,73
847,46	1224,69
847,63	1269,74
847,80	1193,97
847,97	1273,84
848,14	1206,25
848,31	1259,50
848,48	1226,73
848,65	1263,60
848,82	1234,93
848,98	1304,56
849,15	1294,32
849,32	1300,46
849,49	1327,08
849,66	1329,13
849,83	1273,84
850,00	1232,88
850,17	1279,98
850,34	1255,40
850,51	1304,56
850,68	1304,56
850,85	1279,98
851,01	1265,64
851,18	1234,93
851,35	1286,12
851,52	1261,55
851,69	1265,64
851,86	1224,69
852,03	1275,88
852,20	1271,79
852,37	1228,78
852,53	1265,64
852,70	1204,21
852,87	1224,69
853,04	1320,94
853,21	1325,04
853,38	1388,52
853,55	1282,03
853,72	1286,12
853,89	1261,55
854,05	1325,04
854,22	1279,98
854,39	1224,69
854,56	1314,80
854,73	1279,98
854,90	1249,26
855,07	1288,17
855,23	1236,97
855,40	1234,93
855,57	1263,60
855,74	1312,75
855,91	1279,98
856,08	1228,78
856,25	1314,80
856,41	1302,51
856,58	1206,25
856,75	1288,17
856,92	1302,51
857,09	1314,80
857,26	1243,12
857,42	1261,55
857,59	1265,64
857,76	1322,99
857,93	1232,88
858,10	1296,36
858,27	1290,22
858,43	1257,45
858,60	1279,98
858,77	1322,99
858,94	1329,13
859,11	1277,93
859,27	1218,54
859,44	1232,88
859,61	1273,84
859,78	1304,56
859,95	1286,12
860,12	1212,40
860,28	1208,30
860,45	1306,60
860,62	1224,69
860,79	1255,40
860,95	1247,21
861,12	1243,12
861,29	1236,97
861,46	1271,79
861,63	1226,73
861,79	1218,54
861,96	1265,64
862,13	1308,65
862,30	1279,98
862,47	1230,83
862,63	1271,79
862,80	1306,60
862,97	1286,12
863,14	1247,21
863,30	1263,60
863,47	1279,98
863,64	1265,64
863,81	1261,55
863,97	1292,27
864,14	1202,16
864,31	1320,94
864,48	1269,74
864,65	1265,64
864,81	1312,75
864,98	1292,27
865,15	1189,87
865,32	1286,12
865,48	1257,45
865,65	1275,88
865,82	1208,30
865,98	1292,27
866,15	1241,07
866,32	1171,44
866,49	1232,88
866,65	1304,56
866,82	1247,21
866,99	1230,83
867,16	1275,88
867,32	1245,16
867,49	1210,35
867,66	1216,49
867,83	1300,46
867,99	1212,40
868,16	1247,21
868,33	1257,45
868,49	1329,13
868,66	1271,79
868,83	1331,18
868,99	1314,80
869,16	1241,07
869,33	1241,07
869,50	1325,04
869,66	1247,21
869,83	1257,45
870,00	1314,80
870,16	1255,40
870,33	1259,50
870,50	1296,36
870,66	1204,21
870,83	1271,79
871,00	1228,78
871,17	1259,50
871,33	1288,17
871,50	1249,26
871,67	1327,08
871,83	1216,49
872,00	1279,98
872,17	1222,64
872,33	1288,17
872,50	1216,49
872,67	1273,84
872,83	1282,03
873,00	1271,79
873,17	1279,98
873,33	1294,32
873,50	1267,69
873,67	1208,30
873,83	1259,50
874,00	1279,98
874,16	1204,21
874,33	1269,74
874,50	1241,07
874,66	1265,64
874,83	1294,32
875,00	1185,77
875,16	1329,13
875,33	1302,51
875,50	1333,23
875,66	1216,49
875,83	1296,36
875,99	1257,45
876,16	1245,16
876,33	1306,60
876,49	1347,56
876,66	1239,02
876,83	1236,97
876,99	1241,07
877,16	1249,26
877,32	1294,32
877,49	1234,93
877,66	1222,64
877,82	1267,69
877,99	1263,60
878,15	1239,02
878,32	1210,35
878,49	1150,96
878,65	1290,22
878,82	1333,23
878,98	1257,45
879,15	1286,12
879,32	1200,11
879,48	1333,23
879,65	1286,12
879,81	1275,88
879,98	1251,31
880,15	1263,60
880,31	1302,51
880,48	1322,99
880,64	1255,40
880,81	1265,64
880,97	1275,88
881,14	1269,74
881,31	1243,12
881,47	1353,71
881,64	1298,41
881,80	1269,74
881,97	1320,94
882,13	1249,26
882,30	1224,69
882,47	1296,36
882,63	1275,88
882,80	1218,54
882,96	1222,64
883,13	1232,88
883,29	1245,16
883,46	1218,54
883,62	1339,37
883,79	1249,26
883,95	1140,72
884,12	1277,93
884,29	1277,93
884,45	1226,73
884,62	1271,79
884,78	1222,64
884,95	1220,59
885,11	1314,80
885,28	1232,88
885,44	1249,26
885,61	1224,69
885,77	1208,30
885,94	1198,06
886,10	1249,26
886,27	1279,98
886,43	1208,30
886,60	1222,64
886,76	1183,73
886,93	1294,32
887,09	1243,12
887,26	1273,84
887,42	1273,84
887,59	1302,51
887,75	1312,75
887,92	1325,04
888,08	1292,27
888,25	1279,98
888,41	1318,89
888,58	1228,78
888,74	1216,49
888,91	1308,65
>>>>>End Processed Spectral Data<<<<<
