SpectraSuite Data File
++++++++++++++++++++++++++++++++++++
Date: Sun Apr 03 19:55:33 CEST 2016
User: root
Dark Spectrum Present: No
Reference Spectrum Present: No
Number of Sampled Component Spectra: 1
Spectrometers: USB4C02835
Integration Time (usec): 10000 (USB4C02835)
Spectra Averaged: 1 (USB4C02835)
Boxcar Smoothing: 0 (USB4C02835)
Correct for Electrical Dark: No (USB4C02835)
Strobe/Lamp Enabled: No (USB4C02835)
Correct for Detector Non-linearity: No (USB4C02835)
Correct for Stray Light: No (USB4C02835)
Number of Pixels in Processed Spectrum: 3648
>>>>>Begin Processed Spectral Data<<<<<
177,47	1222,64
177,69	1222,64
177,91	1222,64
178,13	1232,88
178,36	1255,40
178,58	1218,54
178,80	1239,02
179,02	1208,30
179,24	1275,88
179,46	1290,22
179,68	1288,17
179,90	1232,88
180,13	1279,98
180,35	1335,28
180,57	1257,45
180,79	1249,26
181,01	1284,08
181,23	1245,16
181,45	1361,90
181,67	1265,64
181,90	1308,65
182,12	1273,84
182,34	1204,21
182,56	1265,64
182,78	1230,83
183,00	1298,41
183,22	1179,63
183,44	1294,32
183,66	1271,79
183,89	1232,88
184,11	1198,06
184,33	1267,69
184,55	1216,49
184,77	1257,45
184,99	1292,27
185,21	1267,69
185,43	1331,18
185,65	1290,22
185,87	1298,41
186,10	1380,33
186,32	1216,49
186,54	1277,93
186,76	1234,93
186,98	1253,36
187,20	1298,41
187,42	1265,64
187,64	1322,99
187,86	1290,22
188,08	1294,32
188,30	1259,50
188,52	1284,08
188,75	1210,35
188,97	1304,56
189,19	1245,16
189,41	1191,92
189,63	1251,31
189,85	1247,21
190,07	1273,84
190,29	1247,21
190,51	1208,30
190,73	1337,32
190,95	1294,32
191,17	1263,60
191,39	1273,84
191,61	1265,64
191,84	1220,59
192,06	1226,73
192,28	1273,84
192,50	1316,84
192,72	1265,64
192,94	1245,16
193,16	1236,97
193,38	1243,12
193,60	1241,07
193,82	1290,22
194,04	1257,45
194,26	1249,26
194,48	1294,32
194,70	1253,36
194,92	1277,93
195,14	1284,08
195,36	1193,97
195,58	1249,26
195,80	1263,60
196,02	1249,26
196,24	1286,12
196,46	1236,97
196,69	1314,80
196,91	1318,89
197,13	1298,41
197,35	1216,49
197,57	1279,98
197,79	1265,64
198,01	1335,28
198,23	1286,12
198,45	1308,65
198,67	1253,36
198,89	1247,21
199,11	1273,84
199,33	1255,40
199,55	1222,64
199,77	1265,64
199,99	1325,04
200,21	1310,70
200,43	1318,89
200,65	1282,03
200,87	1193,97
201,09	1224,69
201,31	1279,98
201,53	1380,33
201,75	1306,60
201,97	1222,64
202,19	1308,65
202,41	1243,12
202,63	1218,54
202,85	1320,94
203,07	1265,64
203,29	1292,27
203,51	1273,84
203,73	1236,97
203,95	1304,56
204,17	1288,17
204,39	1279,98
204,61	1171,44
204,83	1236,97
205,05	1316,84
205,27	1271,79
205,49	1220,59
205,71	1318,89
205,93	1204,21
206,15	1269,74
206,37	1220,59
206,59	1282,03
206,81	1261,55
207,03	1265,64
207,25	1273,84
207,47	1261,55
207,69	1282,03
207,91	1257,45
208,13	1239,02
208,34	1282,03
208,56	1222,64
208,78	1251,31
209,00	1253,36
209,22	1267,69
209,44	1306,60
209,66	1257,45
209,88	1271,79
210,10	1290,22
210,32	1294,32
210,54	1292,27
210,76	1314,80
210,98	1234,93
211,20	1249,26
211,42	1259,50
211,64	1214,45
211,86	1343,47
212,08	1265,64
212,30	1355,76
212,52	1255,40
212,74	1255,40
212,96	1263,60
213,17	1253,36
213,39	1277,93
213,61	1296,36
213,83	1239,02
214,05	1288,17
214,27	1271,79
214,49	1232,88
214,71	1175,53
214,93	1288,17
215,15	1269,74
215,37	1284,08
215,59	1282,03
215,81	1308,65
216,03	1236,97
216,24	1263,60
216,46	1214,45
216,68	1279,98
216,90	1212,40
217,12	1314,80
217,34	1230,83
217,56	1282,03
217,78	1255,40
218,00	1265,64
218,22	1322,99
218,44	1243,12
218,66	1210,35
218,87	1304,56
219,09	1298,41
219,31	1249,26
219,53	1218,54
219,75	1245,16
219,97	1271,79
220,19	1292,27
220,41	1275,88
220,63	1275,88
220,85	1273,84
221,06	1173,49
221,28	1196,01
221,50	1267,69
221,72	1245,16
221,94	1263,60
222,16	1288,17
222,38	1277,93
222,60	1277,93
222,82	1318,89
223,03	1322,99
223,25	1253,36
223,47	1220,59
223,69	1304,56
223,91	1263,60
224,13	1296,36
224,35	1226,73
224,57	1245,16
224,78	1228,78
225,00	1198,06
225,22	1343,47
225,44	1263,60
225,66	1247,21
225,88	1173,49
226,10	1239,02
226,32	1292,27
226,53	1253,36
226,75	1251,31
226,97	1212,40
227,19	1296,36
227,41	1251,31
227,63	1253,36
227,85	1255,40
228,06	1322,99
228,28	1226,73
228,50	1222,64
228,72	1216,49
228,94	1245,16
229,16	1245,16
229,37	1267,69
229,59	1271,79
229,81	1363,95
230,03	1306,60
230,25	1271,79
230,47	1318,89
230,69	1288,17
230,90	1271,79
231,12	1320,94
231,34	1304,56
231,56	1245,16
231,78	1282,03
232,00	1251,31
232,21	1290,22
232,43	1290,22
232,65	1175,53
232,87	1269,74
233,09	1206,25
233,30	1210,35
233,52	1265,64
233,74	1273,84
233,96	1232,88
234,18	1290,22
234,40	1259,50
234,61	1251,31
234,83	1259,50
235,05	1220,59
235,27	1245,16
235,49	1378,28
235,70	1273,84
235,92	1300,46
236,14	1218,54
236,36	1214,45
236,58	1290,22
236,79	1261,55
237,01	1294,32
237,23	1269,74
237,45	1200,11
237,67	1259,50
237,88	1331,18
238,10	1267,69
238,32	1288,17
238,54	1286,12
238,76	1325,04
238,97	1265,64
239,19	1267,69
239,41	1273,84
239,63	1366,00
239,85	1255,40
240,06	1206,25
240,28	1273,84
240,50	1314,80
240,72	1318,89
240,93	1333,23
241,15	1251,31
241,37	1302,51
241,59	1275,88
241,81	1288,17
242,02	1294,32
242,24	1255,40
242,46	1236,97
242,68	1214,45
242,89	1263,60
243,11	1306,60
243,33	1271,79
243,55	1273,84
243,76	1273,84
243,98	1214,45
244,20	1241,07
244,42	1265,64
244,64	1322,99
244,85	1269,74
245,07	1347,56
245,29	1239,02
245,51	1236,97
245,72	1271,79
245,94	1265,64
246,16	1239,02
246,38	1253,36
246,59	1310,70
246,81	1279,98
247,03	1210,35
247,24	1251,31
247,46	1263,60
247,68	1253,36
247,90	1277,93
248,11	1232,88
248,33	1298,41
248,55	1247,21
248,77	1310,70
248,98	1247,21
249,20	1298,41
249,42	1247,21
249,64	1288,17
249,85	1263,60
250,07	1214,45
250,29	1265,64
250,50	1298,41
250,72	1236,97
250,94	1296,36
251,16	1284,08
251,37	1249,26
251,59	1286,12
251,81	1279,98
252,02	1226,73
252,24	1245,16
252,46	1239,02
252,68	1267,69
252,89	1284,08
253,11	1298,41
253,33	1314,80
253,54	1314,80
253,76	1314,80
253,98	1292,27
254,20	1259,50
254,41	1290,22
254,63	1220,59
254,85	1273,84
255,06	1271,79
255,28	1261,55
255,50	1304,56
255,71	1329,13
255,93	1294,32
256,15	1222,64
256,36	1275,88
256,58	1288,17
256,80	1271,79
257,02	1306,60
257,23	1380,33
257,45	1249,26
257,67	1255,40
257,88	1259,50
258,10	1288,17
258,32	1277,93
258,53	1298,41
258,75	1308,65
258,97	1261,55
259,18	1230,83
259,40	1298,41
259,62	1269,74
259,83	1329,13
260,05	1277,93
260,27	1224,69
260,48	1273,84
260,70	1277,93
260,92	1269,74
261,13	1376,24
261,35	1277,93
261,57	1253,36
261,78	1228,78
262,00	1322,99
262,22	1288,17
262,43	1275,88
262,65	1193,97
262,86	1282,03
263,08	1277,93
263,30	1298,41
263,51	1249,26
263,73	1259,50
263,95	1196,01
264,16	1279,98
264,38	1249,26
264,60	1245,16
264,81	1290,22
265,03	1265,64
265,25	1255,40
265,46	1320,94
265,68	1273,84
265,89	1257,45
266,11	1187,82
266,33	1236,97
266,54	1232,88
266,76	1282,03
266,98	1312,75
267,19	1251,31
267,41	1320,94
267,62	1288,17
267,84	1265,64
268,06	1163,25
268,27	1234,93
268,49	1275,88
268,70	1247,21
268,92	1232,88
269,14	1265,64
269,35	1271,79
269,57	1255,40
269,79	1257,45
270,00	1286,12
270,22	1327,08
270,43	1292,27
270,65	1271,79
270,87	1206,25
271,08	1337,32
271,30	1282,03
271,51	1261,55
271,73	1279,98
271,95	1333,23
272,16	1247,21
272,38	1314,80
272,59	1251,31
272,81	1288,17
273,02	1255,40
273,24	1257,45
273,46	1181,68
273,67	1294,32
273,89	1314,80
274,10	1255,40
274,32	1279,98
274,54	1294,32
274,75	1234,93
274,97	1304,56
275,18	1245,16
275,40	1259,50
275,61	1271,79
275,83	1292,27
276,05	1267,69
276,26	1282,03
276,48	1196,01
276,69	1239,02
276,91	1267,69
277,12	1265,64
277,34	1290,22
277,55	1286,12
277,77	1230,83
277,99	1286,12
278,20	1351,66
278,42	1191,92
278,63	1210,35
278,85	1337,32
279,06	1343,47
279,28	1228,78
279,49	1255,40
279,71	1249,26
279,93	1239,02
280,14	1249,26
280,36	1302,51
280,57	1251,31
280,79	1198,06
281,00	1220,59
281,22	1290,22
281,43	1357,80
281,65	1292,27
281,86	1292,27
282,08	1236,97
282,29	1277,93
282,51	1355,76
282,73	1310,70
282,94	1239,02
283,16	1284,08
283,37	1193,97
283,59	1253,36
283,80	1290,22
284,02	1189,87
284,23	1241,07
284,45	1234,93
284,66	1210,35
284,88	1343,47
285,09	1224,69
285,31	1290,22
285,52	1306,60
285,74	1241,07
285,95	1298,41
286,17	1265,64
286,38	1302,51
286,60	1318,89
286,81	1234,93
287,03	1265,64
287,24	1277,93
287,46	1279,98
287,67	1312,75
287,89	1255,40
288,10	1279,98
288,32	1290,22
288,53	1224,69
288,75	1282,03
288,96	1265,64
289,18	1273,84
289,39	1247,21
289,61	1267,69
289,82	1245,16
290,04	1263,60
290,25	1241,07
290,47	1214,45
290,68	1310,70
290,90	1288,17
291,11	1224,69
291,33	1261,55
291,54	1308,65
291,76	1300,46
291,97	1236,97
292,18	1300,46
292,40	1286,12
292,61	1273,84
292,83	1277,93
293,04	1255,40
293,26	1275,88
293,47	1275,88
293,69	1224,69
293,90	1230,83
294,12	1304,56
294,33	1314,80
294,55	1259,50
294,76	1298,41
294,97	1259,50
295,19	1290,22
295,40	1267,69
295,62	1243,12
295,83	1314,80
296,05	1226,73
296,26	1273,84
296,48	1247,21
296,69	1308,65
296,90	1234,93
297,12	1234,93
297,33	1214,45
297,55	1275,88
297,76	1204,21
297,98	1327,08
298,19	1206,25
298,41	1216,49
298,62	1284,08
298,83	1284,08
299,05	1300,46
299,26	1284,08
299,48	1316,84
299,69	1224,69
299,90	1243,12
300,12	1183,73
300,33	1341,42
300,55	1296,36
300,76	1243,12
300,98	1241,07
301,19	1296,36
301,40	1241,07
301,62	1318,89
301,83	1241,07
302,05	1306,60
302,26	1265,64
302,47	1337,32
302,69	1275,88
302,90	1208,30
303,12	1314,80
303,33	1282,03
303,54	1269,74
303,76	1265,64
303,97	1347,56
304,19	1206,25
304,40	1388,52
304,61	1310,70
304,83	1286,12
305,04	1232,88
305,26	1171,44
305,47	1263,60
305,68	1251,31
305,90	1261,55
306,11	1275,88
306,33	1255,40
306,54	1300,46
306,75	1273,84
306,97	1220,59
307,18	1241,07
307,39	1212,40
307,61	1265,64
307,82	1263,60
308,04	1312,75
308,25	1222,64
308,46	1273,84
308,68	1191,92
308,89	1257,45
309,10	1265,64
309,32	1263,60
309,53	1243,12
309,74	1329,13
309,96	1220,59
310,17	1341,42
310,39	1292,27
310,60	1343,47
310,81	1298,41
311,03	1251,31
311,24	1257,45
311,45	1202,16
311,67	1329,13
311,88	1294,32
312,09	1294,32
312,31	1247,21
312,52	1300,46
312,73	1296,36
312,95	1263,60
313,16	1292,27
313,37	1259,50
313,59	1236,97
313,80	1273,84
314,01	1265,64
314,23	1255,40
314,44	1259,50
314,65	1218,54
314,87	1308,65
315,08	1255,40
315,29	1239,02
315,51	1243,12
315,72	1341,42
315,93	1230,83
316,15	1284,08
316,36	1253,36
316,57	1236,97
316,79	1306,60
317,00	1257,45
317,21	1312,75
317,43	1220,59
317,64	1234,93
317,85	1273,84
318,07	1284,08
318,28	1255,40
318,49	1236,97
318,70	1208,30
318,92	1300,46
319,13	1267,69
319,34	1300,46
319,56	1216,49
319,77	1275,88
319,98	1288,17
320,20	1169,39
320,41	1312,75
320,62	1220,59
320,83	1343,47
321,05	1327,08
321,26	1286,12
321,47	1286,12
321,69	1234,93
321,90	1218,54
322,11	1245,16
322,32	1318,89
322,54	1245,16
322,75	1226,73
322,96	1224,69
323,18	1306,60
323,39	1282,03
323,60	1261,55
323,81	1300,46
324,03	1325,04
324,24	1327,08
324,45	1333,23
324,66	1232,88
324,88	1241,07
325,09	1320,94
325,30	1263,60
325,52	1314,80
325,73	1275,88
325,94	1351,66
326,15	1298,41
326,37	1310,70
326,58	1290,22
326,79	1337,32
327,00	1327,08
327,22	1279,98
327,43	1220,59
327,64	1300,46
327,85	1296,36
328,07	1257,45
328,28	1288,17
328,49	1247,21
328,70	1241,07
328,92	1316,84
329,13	1275,88
329,34	1277,93
329,55	1220,59
329,76	1318,89
329,98	1253,36
330,19	1255,40
330,40	1241,07
330,61	1247,21
330,83	1288,17
331,04	1275,88
331,25	1204,21
331,46	1249,26
331,68	1202,16
331,89	1314,80
332,10	1290,22
332,31	1230,83
332,52	1243,12
332,74	1308,65
332,95	1243,12
333,16	1249,26
333,37	1318,89
333,58	1368,04
333,80	1224,69
334,01	1288,17
334,22	1228,78
334,43	1314,80
334,64	1218,54
334,86	1282,03
335,07	1245,16
335,28	1230,83
335,49	1267,69
335,70	1286,12
335,92	1345,52
336,13	1306,60
336,34	1310,70
336,55	1245,16
336,76	1245,16
336,98	1257,45
337,19	1222,64
337,40	1327,08
337,61	1263,60
337,82	1239,02
338,04	1261,55
338,25	1273,84
338,46	1294,32
338,67	1366,00
338,88	1228,78
339,09	1288,17
339,31	1279,98
339,52	1247,21
339,73	1294,32
339,94	1300,46
340,15	1292,27
340,36	1245,16
340,58	1253,36
340,79	1294,32
341,00	1265,64
341,21	1294,32
341,42	1271,79
341,63	1329,13
341,85	1271,79
342,06	1279,98
342,27	1298,41
342,48	1294,32
342,69	1277,93
342,90	1243,12
343,12	1306,60
343,33	1279,98
343,54	1265,64
343,75	1271,79
343,96	1208,30
344,17	1341,42
344,38	1239,02
344,60	1327,08
344,81	1308,65
345,02	1335,28
345,23	1236,97
345,44	1247,21
345,65	1359,85
345,86	1288,17
346,07	1333,23
346,29	1261,55
346,50	1316,84
346,71	1247,21
346,92	1277,93
347,13	1325,04
347,34	1228,78
347,55	1265,64
347,76	1335,28
347,98	1282,03
348,19	1241,07
348,40	1302,51
348,61	1232,88
348,82	1265,64
349,03	1251,31
349,24	1273,84
349,45	1284,08
349,66	1275,88
349,88	1245,16
350,09	1226,73
350,30	1267,69
350,51	1230,83
350,72	1232,88
350,93	1273,84
351,14	1253,36
351,35	1273,84
351,56	1210,35
351,77	1230,83
351,99	1298,41
352,20	1306,60
352,41	1263,60
352,62	1257,45
352,83	1212,40
353,04	1286,12
353,25	1234,93
353,46	1271,79
353,67	1247,21
353,88	1279,98
354,09	1232,88
354,30	1230,83
354,52	1249,26
354,73	1232,88
354,94	1245,16
355,15	1232,88
355,36	1247,21
355,57	1265,64
355,78	1224,69
355,99	1253,36
356,20	1275,88
356,41	1304,56
356,62	1247,21
356,83	1220,59
357,04	1277,93
357,25	1259,50
357,46	1200,11
357,68	1202,16
357,89	1261,55
358,10	1236,97
358,31	1257,45
358,52	1277,93
358,73	1294,32
358,94	1331,18
359,15	1261,55
359,36	1255,40
359,57	1329,13
359,78	1224,69
359,99	1325,04
360,20	1214,45
360,41	1335,28
360,62	1290,22
360,83	1273,84
361,04	1277,93
361,25	1243,12
361,46	1279,98
361,67	1255,40
361,88	1241,07
362,09	1341,42
362,30	1259,50
362,51	1249,26
362,72	1308,65
362,93	1277,93
363,14	1322,99
363,35	1273,84
363,56	1253,36
363,78	1259,50
363,99	1185,77
364,20	1247,21
364,41	1306,60
364,62	1396,71
364,83	1265,64
365,04	1218,54
365,25	1294,32
365,46	1212,40
365,67	1271,79
365,88	1265,64
366,09	1314,80
366,30	1265,64
366,51	1255,40
366,72	1296,36
366,93	1255,40
367,14	1257,45
367,35	1204,21
367,56	1284,08
367,77	1214,45
367,98	1273,84
368,18	1286,12
368,39	1282,03
368,60	1224,69
368,81	1257,45
369,02	1245,16
369,23	1271,79
369,44	1292,27
369,65	1322,99
369,86	1290,22
370,07	1212,40
370,28	1241,07
370,49	1187,82
370,70	1249,26
370,91	1296,36
371,12	1273,84
371,33	1196,01
371,54	1222,64
371,75	1222,64
371,96	1232,88
372,17	1288,17
372,38	1236,97
372,59	1300,46
372,80	1214,45
373,01	1284,08
373,22	1245,16
373,43	1288,17
373,64	1200,11
373,85	1273,84
374,06	1232,88
374,26	1251,31
374,47	1263,60
374,68	1277,93
374,89	1308,65
375,10	1275,88
375,31	1265,64
375,52	1245,16
375,73	1296,36
375,94	1279,98
376,15	1202,16
376,36	1306,60
376,57	1279,98
376,78	1263,60
376,99	1208,30
377,20	1257,45
377,40	1314,80
377,61	1271,79
377,82	1265,64
378,03	1234,93
378,24	1312,75
378,45	1316,84
378,66	1341,42
378,87	1202,16
379,08	1265,64
379,29	1202,16
379,50	1300,46
379,71	1277,93
379,91	1279,98
380,12	1257,45
380,33	1339,37
380,54	1325,04
380,75	1292,27
380,96	1275,88
381,17	1198,06
381,38	1314,80
381,59	1329,13
381,80	1220,59
382,00	1249,26
382,21	1226,73
382,42	1257,45
382,63	1322,99
382,84	1265,64
383,05	1294,32
383,26	1325,04
383,47	1243,12
383,68	1234,93
383,88	1314,80
384,09	1193,97
384,30	1255,40
384,51	1308,65
384,72	1239,02
384,93	1212,40
385,14	1241,07
385,35	1288,17
385,55	1269,74
385,76	1279,98
385,97	1251,31
386,18	1247,21
386,39	1222,64
386,60	1198,06
386,81	1271,79
387,02	1228,78
387,22	1204,21
387,43	1265,64
387,64	1275,88
387,85	1304,56
388,06	1251,31
388,27	1290,22
388,48	1331,18
388,68	1302,51
388,89	1222,64
389,10	1269,74
389,31	1245,16
389,52	1216,49
389,73	1222,64
389,93	1249,26
390,14	1275,88
390,35	1257,45
390,56	1271,79
390,77	1269,74
390,98	1251,31
391,18	1271,79
391,39	1251,31
391,60	1259,50
391,81	1269,74
392,02	1304,56
392,23	1294,32
392,43	1241,07
392,64	1234,93
392,85	1304,56
393,06	1226,73
393,27	1218,54
393,47	1282,03
393,68	1228,78
393,89	1271,79
394,10	1255,40
394,31	1308,65
394,52	1245,16
394,72	1335,28
394,93	1257,45
395,14	1214,45
395,35	1202,16
395,56	1236,97
395,76	1232,88
395,97	1232,88
396,18	1306,60
396,39	1263,60
396,60	1288,17
396,80	1247,21
397,01	1288,17
397,22	1306,60
397,43	1200,11
397,64	1275,88
397,84	1249,26
398,05	1257,45
398,26	1277,93
398,47	1198,06
398,67	1298,41
398,88	1255,40
399,09	1222,64
399,30	1255,40
399,51	1292,27
399,71	1265,64
399,92	1269,74
400,13	1263,60
400,34	1269,74
400,54	1253,36
400,75	1257,45
400,96	1271,79
401,17	1288,17
401,37	1277,93
401,58	1239,02
401,79	1222,64
402,00	1224,69
402,21	1284,08
402,41	1279,98
402,62	1257,45
402,83	1363,95
403,04	1228,78
403,24	1333,23
403,45	1279,98
403,66	1251,31
403,87	1251,31
404,07	1226,73
404,28	1232,88
404,49	1288,17
404,70	1267,69
404,90	1247,21
405,11	1255,40
405,32	1310,70
405,52	1210,35
405,73	1275,88
405,94	1236,97
406,15	1261,55
406,35	1310,70
406,56	1259,50
406,77	1329,13
406,98	1304,56
407,18	1267,69
407,39	1243,12
407,60	1208,30
407,80	1284,08
408,01	1306,60
408,22	1241,07
408,43	1253,36
408,63	1316,84
408,84	1204,21
409,05	1257,45
409,25	1255,40
409,46	1234,93
409,67	1234,93
409,88	1318,89
410,08	1251,31
410,29	1251,31
410,50	1263,60
410,70	1292,27
410,91	1193,97
411,12	1247,21
411,32	1245,16
411,53	1302,51
411,74	1302,51
411,95	1216,49
412,15	1284,08
412,36	1218,54
412,57	1318,89
412,77	1279,98
412,98	1263,60
413,19	1265,64
413,39	1230,83
413,60	1339,37
413,81	1259,50
414,01	1249,26
414,22	1214,45
414,43	1316,84
414,63	1241,07
414,84	1187,82
415,05	1245,16
415,25	1310,70
415,46	1247,21
415,67	1232,88
415,87	1239,02
416,08	1271,79
416,29	1261,55
416,49	1279,98
416,70	1329,13
416,91	1312,75
417,11	1224,69
417,32	1292,27
417,53	1273,84
417,73	1259,50
417,94	1234,93
418,15	1212,40
418,35	1230,83
418,56	1400,81
418,77	1261,55
418,97	1310,70
419,18	1284,08
419,38	1230,83
419,59	1316,84
419,80	1310,70
420,00	1259,50
420,21	1247,21
420,42	1343,47
420,62	1353,71
420,83	1196,01
421,04	1222,64
421,24	1241,07
421,45	1329,13
421,65	1208,30
421,86	1216,49
422,07	1247,21
422,27	1327,08
422,48	1241,07
422,69	1253,36
422,89	1261,55
423,10	1300,46
423,30	1212,40
423,51	1255,40
423,72	1269,74
423,92	1230,83
424,13	1269,74
424,33	1304,56
424,54	1245,16
424,75	1261,55
424,95	1230,83
425,16	1271,79
425,36	1220,59
425,57	1296,36
425,78	1243,12
425,98	1228,78
426,19	1282,03
426,39	1251,31
426,60	1257,45
426,81	1265,64
427,01	1282,03
427,22	1292,27
427,42	1273,84
427,63	1296,36
427,83	1282,03
428,04	1279,98
428,25	1277,93
428,45	1265,64
428,66	1234,93
428,86	1218,54
429,07	1204,21
429,28	1300,46
429,48	1271,79
429,69	1290,22
429,89	1310,70
430,10	1282,03
430,30	1265,64
430,51	1222,64
430,71	1308,65
430,92	1277,93
431,13	1222,64
431,33	1273,84
431,54	1255,40
431,74	1236,97
431,95	1206,25
432,15	1318,89
432,36	1200,11
432,56	1286,12
432,77	1339,37
432,98	1275,88
433,18	1275,88
433,39	1275,88
433,59	1265,64
433,80	1232,88
434,00	1241,07
434,21	1298,41
434,41	1269,74
434,62	1273,84
434,82	1310,70
435,03	1232,88
435,23	1296,36
435,44	1300,46
435,64	1335,28
435,85	1232,88
436,06	1245,16
436,26	1275,88
436,47	1294,32
436,67	1200,11
436,88	1286,12
437,08	1284,08
437,29	1259,50
437,49	1247,21
437,70	1202,16
437,90	1273,84
438,11	1318,89
438,31	1349,61
438,52	1310,70
438,72	1327,08
438,93	1316,84
439,13	1271,79
439,34	1337,32
439,54	1277,93
439,75	1239,02
439,95	1271,79
440,16	1230,83
440,36	1286,12
440,57	1228,78
440,77	1282,03
440,98	1253,36
441,18	1279,98
441,39	1325,04
441,59	1282,03
441,80	1290,22
442,00	1259,50
442,21	1212,40
442,41	1239,02
442,62	1290,22
442,82	1314,80
443,02	1296,36
443,23	1249,26
443,43	1220,59
443,64	1304,56
443,84	1298,41
444,05	1275,88
444,25	1288,17
444,46	1241,07
444,66	1306,60
444,87	1226,73
445,07	1343,47
445,28	1257,45
445,48	1214,45
445,69	1220,59
445,89	1302,51
446,09	1275,88
446,30	1316,84
446,50	1331,18
446,71	1167,34
446,91	1241,07
447,12	1320,94
447,32	1257,45
447,53	1361,90
447,73	1302,51
447,93	1165,29
448,14	1296,36
448,34	1230,83
448,55	1236,97
448,75	1220,59
448,96	1261,55
449,16	1273,84
449,36	1343,47
449,57	1243,12
449,77	1284,08
449,98	1314,80
450,18	1298,41
450,39	1251,31
450,59	1286,12
450,79	1271,79
451,00	1236,97
451,20	1247,21
451,41	1230,83
451,61	1241,07
451,81	1290,22
452,02	1277,93
452,22	1222,64
452,43	1253,36
452,63	1294,32
452,84	1282,03
453,04	1251,31
453,24	1296,36
453,45	1257,45
453,65	1243,12
453,86	1294,32
454,06	1279,98
454,26	1306,60
454,47	1355,76
454,67	1234,93
454,87	1304,56
455,08	1329,13
455,28	1226,73
455,49	1232,88
455,69	1263,60
455,89	1290,22
456,10	1273,84
456,30	1290,22
456,51	1279,98
456,71	1269,74
456,91	1263,60
457,12	1247,21
457,32	1292,27
457,52	1294,32
457,73	1273,84
457,93	1198,06
458,14	1318,89
458,34	1271,79
458,54	1251,31
458,75	1222,64
458,95	1282,03
459,15	1273,84
459,36	1286,12
459,56	1320,94
459,76	1302,51
459,97	1269,74
460,17	1239,02
460,37	1224,69
460,58	1279,98
460,78	1279,98
460,99	1302,51
461,19	1296,36
461,39	1265,64
461,60	1314,80
461,80	1294,32
462,00	1257,45
462,21	1286,12
462,41	1294,32
462,61	1263,60
462,82	1322,99
463,02	1271,79
463,22	1224,69
463,43	1261,55
463,63	1263,60
463,83	1310,70
464,04	1290,22
464,24	1322,99
464,44	1279,98
464,64	1325,04
464,85	1292,27
465,05	1318,89
465,25	1263,60
465,46	1245,16
465,66	1234,93
465,86	1236,97
466,07	1259,50
466,27	1363,95
466,47	1302,51
466,68	1282,03
466,88	1318,89
467,08	1239,02
467,29	1202,16
467,49	1339,37
467,69	1296,36
467,89	1259,50
468,10	1302,51
468,30	1279,98
468,50	1261,55
468,71	1249,26
468,91	1298,41
469,11	1230,83
469,31	1265,64
469,52	1257,45
469,72	1269,74
469,92	1322,99
470,13	1257,45
470,33	1298,41
470,53	1296,36
470,73	1214,45
470,94	1282,03
471,14	1325,04
471,34	1279,98
471,54	1202,16
471,75	1306,60
471,95	1269,74
472,15	1273,84
472,36	1318,89
472,56	1331,18
472,76	1286,12
472,96	1316,84
473,17	1308,65
473,37	1269,74
473,57	1239,02
473,77	1198,06
473,98	1255,40
474,18	1286,12
474,38	1337,32
474,58	1290,22
474,79	1308,65
474,99	1247,21
475,19	1279,98
475,39	1189,87
475,60	1241,07
475,80	1298,41
476,00	1241,07
476,20	1263,60
476,41	1269,74
476,61	1230,83
476,81	1259,50
477,01	1275,88
477,21	1275,88
477,42	1253,36
477,62	1243,12
477,82	1271,79
478,02	1279,98
478,23	1294,32
478,43	1220,59
478,63	1265,64
478,83	1296,36
479,03	1218,54
479,24	1210,35
479,44	1312,75
479,64	1220,59
479,84	1257,45
480,04	1300,46
480,25	1239,02
480,45	1212,40
480,65	1247,21
480,85	1226,73
481,06	1277,93
481,26	1341,42
481,46	1214,45
481,66	1232,88
481,86	1263,60
482,06	1310,70
482,27	1263,60
482,47	1249,26
482,67	1273,84
482,87	1320,94
483,07	1322,99
483,28	1251,31
483,48	1306,60
483,68	1257,45
483,88	1232,88
484,08	1259,50
484,29	1236,97
484,49	1316,84
484,69	1320,94
484,89	1193,97
485,09	1331,18
485,29	1333,23
485,50	1210,35
485,70	1275,88
485,90	1265,64
486,10	1284,08
486,30	1322,99
486,50	1298,41
486,71	1222,64
486,91	1232,88
487,11	1271,79
487,31	1265,64
487,51	1310,70
487,71	1298,41
487,91	1306,60
488,12	1269,74
488,32	1236,97
488,52	1259,50
488,72	1273,84
488,92	1290,22
489,12	1263,60
489,32	1273,84
489,53	1279,98
489,73	1208,30
489,93	1302,51
490,13	1261,55
490,33	1222,64
490,53	1290,22
490,73	1253,36
490,94	1241,07
491,14	1298,41
491,34	1269,74
491,54	1230,83
491,74	1298,41
491,94	1300,46
492,14	1271,79
492,34	1331,18
492,54	1265,64
492,75	1228,78
492,95	1318,89
493,15	1288,17
493,35	1212,40
493,55	1239,02
493,75	1286,12
493,95	1198,06
494,15	1294,32
494,35	1288,17
494,56	1275,88
494,76	1273,84
494,96	1259,50
495,16	1183,73
495,36	1271,79
495,56	1228,78
495,76	1282,03
495,96	1279,98
496,16	1243,12
496,36	1296,36
496,56	1234,93
496,77	1298,41
496,97	1230,83
497,17	1288,17
497,37	1243,12
497,57	1218,54
497,77	1241,07
497,97	1265,64
498,17	1265,64
498,37	1259,50
498,57	1265,64
498,77	1208,30
498,97	1245,16
499,17	1359,85
499,38	1239,02
499,58	1282,03
499,78	1318,89
499,98	1259,50
500,18	1224,69
500,38	1243,12
500,58	1306,60
500,78	1273,84
500,98	1265,64
501,18	1247,21
501,38	1304,56
501,58	1230,83
501,78	1239,02
501,98	1310,70
502,18	1267,69
502,38	1214,45
502,58	1247,21
502,78	1232,88
502,98	1282,03
503,18	1279,98
503,38	1314,80
503,59	1185,77
503,79	1298,41
503,99	1269,74
504,19	1409,00
504,39	1234,93
504,59	1329,13
504,79	1273,84
504,99	1306,60
505,19	1224,69
505,39	1232,88
505,59	1239,02
505,79	1251,31
505,99	1290,22
506,19	1290,22
506,39	1241,07
506,59	1257,45
506,79	1277,93
506,99	1273,84
507,19	1378,28
507,39	1267,69
507,59	1294,32
507,79	1263,60
507,99	1265,64
508,19	1322,99
508,39	1236,97
508,59	1286,12
508,79	1265,64
508,99	1294,32
509,19	1230,83
509,39	1339,37
509,59	1277,93
509,79	1212,40
509,99	1347,56
510,19	1286,12
510,39	1312,75
510,59	1325,04
510,79	1279,98
510,99	1222,64
511,19	1220,59
511,39	1255,40
511,59	1302,51
511,79	1277,93
511,99	1275,88
512,19	1265,64
512,38	1318,89
512,58	1357,80
512,78	1241,07
512,98	1290,22
513,18	1318,89
513,38	1228,78
513,58	1220,59
513,78	1325,04
513,98	1273,84
514,18	1226,73
514,38	1357,80
514,58	1298,41
514,78	1312,75
514,98	1288,17
515,18	1333,23
515,38	1249,26
515,58	1339,37
515,78	1279,98
515,98	1277,93
516,18	1343,47
516,38	1300,46
516,57	1251,31
516,77	1286,12
516,97	1314,80
517,17	1359,85
517,37	1208,30
517,57	1265,64
517,77	1327,08
517,97	1337,32
518,17	1308,65
518,37	1286,12
518,57	1282,03
518,77	1312,75
518,97	1271,79
519,16	1210,35
519,36	1245,16
519,56	1230,83
519,76	1308,65
519,96	1282,03
520,16	1290,22
520,36	1294,32
520,56	1325,04
520,76	1255,40
520,96	1325,04
521,16	1228,78
521,35	1239,02
521,55	1226,73
521,75	1290,22
521,95	1279,98
522,15	1210,35
522,35	1282,03
522,55	1314,80
522,75	1290,22
522,95	1312,75
523,14	1306,60
523,34	1253,36
523,54	1273,84
523,74	1284,08
523,94	1277,93
524,14	1286,12
524,34	1345,52
524,54	1314,80
524,73	1298,41
524,93	1277,93
525,13	1226,73
525,33	1325,04
525,53	1292,27
525,73	1212,40
525,93	1320,94
526,13	1232,88
526,32	1273,84
526,52	1245,16
526,72	1279,98
526,92	1353,71
527,12	1249,26
527,32	1343,47
527,52	1277,93
527,71	1314,80
527,91	1277,93
528,11	1228,78
528,31	1353,71
528,51	1216,49
528,71	1216,49
528,90	1320,94
529,10	1288,17
529,30	1245,16
529,50	1228,78
529,70	1249,26
529,90	1253,36
530,09	1277,93
530,29	1261,55
530,49	1267,69
530,69	1296,36
530,89	1335,28
531,09	1308,65
531,28	1247,21
531,48	1327,08
531,68	1288,17
531,88	1271,79
532,08	1271,79
532,28	1335,28
532,47	1255,40
532,67	1273,84
532,87	1226,73
533,07	1298,41
533,27	1351,66
533,46	1282,03
533,66	1228,78
533,86	1245,16
534,06	1253,36
534,26	1290,22
534,45	1347,56
534,65	1290,22
534,85	1320,94
535,05	1259,50
535,25	1372,14
535,44	1253,36
535,64	1224,69
535,84	1294,32
536,04	1198,06
536,24	1279,98
536,43	1284,08
536,63	1312,75
536,83	1269,74
537,03	1239,02
537,22	1320,94
537,42	1279,98
537,62	1329,13
537,82	1316,84
538,02	1368,04
538,21	1208,30
538,41	1312,75
538,61	1267,69
538,81	1320,94
539,00	1222,64
539,20	1279,98
539,40	1167,34
539,60	1339,37
539,79	1286,12
539,99	1267,69
540,19	1263,60
540,39	1204,21
540,58	1226,73
540,78	1335,28
540,98	1230,83
541,18	1239,02
541,37	1269,74
541,57	1259,50
541,77	1255,40
541,97	1277,93
542,16	1267,69
542,36	1331,18
542,56	1251,31
542,76	1220,59
542,95	1255,40
543,15	1255,40
543,35	1228,78
543,54	1273,84
543,74	1271,79
543,94	1255,40
544,14	1286,12
544,33	1306,60
544,53	1288,17
544,73	1282,03
544,93	1318,89
545,12	1310,70
545,32	1279,98
545,52	1255,40
545,71	1255,40
545,91	1263,60
546,11	1294,32
546,30	1333,23
546,50	1257,45
546,70	1304,56
546,90	1226,73
547,09	1169,39
547,29	1286,12
547,49	1359,85
547,68	1322,99
547,88	1304,56
548,08	1300,46
548,27	1298,41
548,47	1286,12
548,67	1329,13
548,87	1275,88
549,06	1325,04
549,26	1220,59
549,46	1300,46
549,65	1230,83
549,85	1277,93
550,05	1275,88
550,24	1255,40
550,44	1302,51
550,64	1339,37
550,83	1290,22
551,03	1351,66
551,23	1347,56
551,42	1347,56
551,62	1290,22
551,82	1294,32
552,01	1257,45
552,21	1255,40
552,41	1284,08
552,60	1239,02
552,80	1337,32
553,00	1320,94
553,19	1277,93
553,39	1275,88
553,59	1288,17
553,78	1245,16
553,98	1288,17
554,17	1275,88
554,37	1273,84
554,57	1394,67
554,76	1282,03
554,96	1275,88
555,16	1220,59
555,35	1361,90
555,55	1279,98
555,75	1234,93
555,94	1288,17
556,14	1241,07
556,33	1331,18
556,53	1286,12
556,73	1368,04
556,92	1296,36
557,12	1308,65
557,32	1241,07
557,51	1294,32
557,71	1347,56
557,90	1263,60
558,10	1247,21
558,30	1255,40
558,49	1271,79
558,69	1228,78
558,88	1220,59
559,08	1331,18
559,28	1255,40
559,47	1273,84
559,67	1306,60
559,86	1269,74
560,06	1318,89
560,26	1417,19
560,45	1302,51
560,65	1271,79
560,84	1288,17
561,04	1284,08
561,24	1275,88
561,43	1273,84
561,63	1222,64
561,82	1302,51
562,02	1257,45
562,22	1318,89
562,41	1310,70
562,61	1271,79
562,80	1300,46
563,00	1271,79
563,19	1316,84
563,39	1243,12
563,59	1298,41
563,78	1265,64
563,98	1230,83
564,17	1286,12
564,37	1220,59
564,56	1314,80
564,76	1224,69
564,96	1296,36
565,15	1275,88
565,35	1347,56
565,54	1253,36
565,74	1335,28
565,93	1329,13
566,13	1259,50
566,32	1251,31
566,52	1302,51
566,71	1318,89
566,91	1253,36
567,11	1251,31
567,30	1355,76
567,50	1302,51
567,69	1161,20
567,89	1349,61
568,08	1226,73
568,28	1279,98
568,47	1273,84
568,67	1236,97
568,86	1228,78
569,06	1239,02
569,25	1212,40
569,45	1286,12
569,64	1331,18
569,84	1327,08
570,04	1282,03
570,23	1234,93
570,43	1286,12
570,62	1220,59
570,82	1257,45
571,01	1216,49
571,21	1265,64
571,40	1282,03
571,60	1339,37
571,79	1271,79
571,99	1277,93
572,18	1183,73
572,38	1308,65
572,57	1271,79
572,77	1161,20
572,96	1277,93
573,16	1271,79
573,35	1210,35
573,55	1247,21
573,74	1316,84
573,94	1273,84
574,13	1261,55
574,33	1304,56
574,52	1345,52
574,71	1378,28
574,91	1265,64
575,10	1314,80
575,30	1304,56
575,49	1171,44
575,69	1322,99
575,88	1259,50
576,08	1306,60
576,27	1239,02
576,47	1257,45
576,66	1347,56
576,86	1316,84
577,05	1304,56
577,25	1286,12
577,44	1251,31
577,64	1327,08
577,83	1245,16
578,02	1208,30
578,22	1290,22
578,41	1312,75
578,61	1310,70
578,80	1261,55
579,00	1296,36
579,19	1271,79
579,39	1273,84
579,58	1296,36
579,77	1277,93
579,97	1306,60
580,16	1269,74
580,36	1322,99
580,55	1312,75
580,75	1292,27
580,94	1288,17
581,13	1304,56
581,33	1359,85
581,52	1316,84
581,72	1339,37
581,91	1337,32
582,11	1263,60
582,30	1286,12
582,49	1327,08
582,69	1255,40
582,88	1267,69
583,08	1255,40
583,27	1275,88
583,47	1302,51
583,66	1327,08
583,85	1292,27
584,05	1288,17
584,24	1263,60
584,44	1265,64
584,63	1214,45
584,82	1294,32
585,02	1304,56
585,21	1165,29
585,41	1329,13
585,60	1290,22
585,79	1329,13
585,99	1294,32
586,18	1236,97
586,37	1263,60
586,57	1259,50
586,76	1359,85
586,96	1253,36
587,15	1282,03
587,34	1296,36
587,54	1327,08
587,73	1341,42
587,93	1359,85
588,12	1273,84
588,31	1265,64
588,51	1263,60
588,70	1279,98
588,89	1206,25
589,09	1294,32
589,28	1245,16
589,47	1232,88
589,67	1282,03
589,86	1345,52
590,06	1259,50
590,25	1220,59
590,44	1228,78
590,64	1275,88
590,83	1316,84
591,02	1333,23
591,22	1212,40
591,41	1257,45
591,60	1296,36
591,80	1312,75
591,99	1279,98
592,18	1314,80
592,38	1296,36
592,57	1294,32
592,76	1316,84
592,96	1251,31
593,15	1316,84
593,34	1327,08
593,54	1339,37
593,73	1279,98
593,92	1302,51
594,12	1296,36
594,31	1247,21
594,50	1310,70
594,70	1314,80
594,89	1282,03
595,08	1269,74
595,28	1282,03
595,47	1351,66
595,66	1312,75
595,86	1249,26
596,05	1243,12
596,24	1284,08
596,43	1322,99
596,63	1363,95
596,82	1279,98
597,01	1314,80
597,21	1247,21
597,40	1292,27
597,59	1331,18
597,79	1316,84
597,98	1286,12
598,17	1325,04
598,36	1339,37
598,56	1294,32
598,75	1193,97
598,94	1341,42
599,14	1277,93
599,33	1247,21
599,52	1325,04
599,71	1286,12
599,91	1310,70
600,10	1269,74
600,29	1290,22
600,48	1284,08
600,68	1286,12
600,87	1265,64
601,06	1314,80
601,26	1329,13
601,45	1296,36
601,64	1304,56
601,83	1302,51
602,03	1282,03
602,22	1239,02
602,41	1325,04
602,60	1277,93
602,80	1257,45
602,99	1265,64
603,18	1273,84
603,37	1236,97
603,57	1277,93
603,76	1343,47
603,95	1216,49
604,14	1343,47
604,34	1271,79
604,53	1279,98
604,72	1255,40
604,91	1290,22
605,10	1304,56
605,30	1230,83
605,49	1206,25
605,68	1394,67
605,87	1230,83
606,07	1265,64
606,26	1247,21
606,45	1257,45
606,64	1298,41
606,84	1290,22
607,03	1247,21
607,22	1337,32
607,41	1273,84
607,60	1339,37
607,80	1234,93
607,99	1320,94
608,18	1282,03
608,37	1294,32
608,56	1288,17
608,76	1257,45
608,95	1294,32
609,14	1265,64
609,33	1239,02
609,52	1331,18
609,72	1175,53
609,91	1402,86
610,10	1302,51
610,29	1282,03
610,48	1267,69
610,68	1318,89
610,87	1335,28
611,06	1269,74
611,25	1320,94
611,44	1249,26
611,63	1267,69
611,83	1282,03
612,02	1333,23
612,21	1341,42
612,40	1216,49
612,59	1232,88
612,79	1255,40
612,98	1357,80
613,17	1239,02
613,36	1251,31
613,55	1187,82
613,74	1243,12
613,93	1312,75
614,13	1279,98
614,32	1251,31
614,51	1282,03
614,70	1296,36
614,89	1271,79
615,08	1320,94
615,28	1361,90
615,47	1253,36
615,66	1286,12
615,85	1320,94
616,04	1253,36
616,23	1224,69
616,42	1325,04
616,62	1257,45
616,81	1310,70
617,00	1318,89
617,19	1257,45
617,38	1351,66
617,57	1282,03
617,76	1329,13
617,95	1335,28
618,15	1210,35
618,34	1298,41
618,53	1232,88
618,72	1271,79
618,91	1290,22
619,10	1282,03
619,29	1308,65
619,48	1345,52
619,68	1310,70
619,87	1249,26
620,06	1257,45
620,25	1296,36
620,44	1329,13
620,63	1255,40
620,82	1298,41
621,01	1341,42
621,20	1310,70
621,39	1282,03
621,59	1271,79
621,78	1263,60
621,97	1331,18
622,16	1279,98
622,35	1306,60
622,54	1267,69
622,73	1220,59
622,92	1302,51
623,11	1302,51
623,30	1296,36
623,49	1335,28
623,68	1320,94
623,88	1337,32
624,07	1337,32
624,26	1234,93
624,45	1308,65
624,64	1308,65
624,83	1282,03
625,02	1253,36
625,21	1343,47
625,40	1325,04
625,59	1335,28
625,78	1347,56
625,97	1286,12
626,16	1310,70
626,35	1345,52
626,54	1310,70
626,74	1269,74
626,93	1222,64
627,12	1279,98
627,31	1304,56
627,50	1337,32
627,69	1320,94
627,88	1343,47
628,07	1298,41
628,26	1306,60
628,45	1275,88
628,64	1282,03
628,83	1269,74
629,02	1288,17
629,21	1271,79
629,40	1218,54
629,59	1214,45
629,78	1275,88
629,97	1382,38
630,16	1288,17
630,35	1261,55
630,54	1282,03
630,73	1306,60
630,92	1263,60
631,11	1347,56
631,30	1279,98
631,49	1290,22
631,68	1325,04
631,87	1720,29
632,06	2609,11
632,25	1984,48
632,44	2197,47
632,63	2011,11
632,82	2080,74
633,01	2756,57
633,20	3672,01
633,39	5089,20
633,58	5046,20
633,77	7774,09
633,96	17090,30
634,15	31776,28
634,34	42851,70
634,53	40848,78
634,72	30613,04
634,91	19619,54
635,10	11898,70
635,29	7012,24
635,48	4560,83
635,67	3069,91
635,86	2568,15
636,05	2244,57
636,24	2080,74
636,43	1957,86
636,62	1957,86
636,81	1779,68
637,00	1699,81
637,19	1581,03
637,38	1638,38
637,57	1495,02
637,76	1503,21
637,95	1402,86
638,14	1320,94
638,33	1374,19
638,52	1400,81
638,71	1316,84
638,89	1290,22
639,08	1404,91
639,27	1341,42
639,46	1257,45
639,65	1322,99
639,84	1218,54
640,03	1241,07
640,22	1263,60
640,41	1286,12
640,60	1304,56
640,79	1343,47
640,98	1275,88
641,17	1282,03
641,36	1300,46
641,55	1253,36
641,74	1259,50
641,92	1304,56
642,11	1357,80
642,30	1241,07
642,49	1335,28
642,68	1310,70
642,87	1230,83
643,06	1257,45
643,25	1308,65
643,44	1298,41
643,63	1234,93
643,82	1279,98
644,00	1374,19
644,19	1353,71
644,38	1314,80
644,57	1282,03
644,76	1302,51
644,95	1263,60
645,14	1253,36
645,33	1204,21
645,52	1302,51
645,71	1253,36
645,89	1290,22
646,08	1261,55
646,27	1333,23
646,46	1261,55
646,65	1263,60
646,84	1335,28
647,03	1257,45
647,22	1279,98
647,40	1253,36
647,59	1265,64
647,78	1212,40
647,97	1284,08
648,16	1261,55
648,35	1212,40
648,54	1331,18
648,73	1370,09
648,91	1318,89
649,10	1300,46
649,29	1198,06
649,48	1304,56
649,67	1222,64
649,86	1298,41
650,05	1263,60
650,23	1331,18
650,42	1292,27
650,61	1325,04
650,80	1222,64
650,99	1298,41
651,18	1269,74
651,36	1286,12
651,55	1277,93
651,74	1271,79
651,93	1273,84
652,12	1220,59
652,31	1222,64
652,49	1245,16
652,68	1216,49
652,87	1271,79
653,06	1277,93
653,25	1312,75
653,44	1286,12
653,62	1279,98
653,81	1353,71
654,00	1269,74
654,19	1320,94
654,38	1292,27
654,56	1236,97
654,75	1261,55
654,94	1271,79
655,13	1302,51
655,32	1247,21
655,51	1234,93
655,69	1290,22
655,88	1263,60
656,07	1267,69
656,26	1290,22
656,45	1335,28
656,63	1304,56
656,82	1263,60
657,01	1302,51
657,20	1282,03
657,38	1257,45
657,57	1239,02
657,76	1216,49
657,95	1302,51
658,14	1282,03
658,32	1230,83
658,51	1259,50
658,70	1273,84
658,89	1226,73
659,08	1261,55
659,26	1298,41
659,45	1306,60
659,64	1236,97
659,83	1230,83
660,01	1282,03
660,20	1236,97
660,39	1349,61
660,58	1251,31
660,76	1273,84
660,95	1253,36
661,14	1265,64
661,33	1263,60
661,51	1271,79
661,70	1253,36
661,89	1269,74
662,08	1331,18
662,26	1239,02
662,45	1241,07
662,64	1349,61
662,83	1220,59
663,01	1259,50
663,20	1290,22
663,39	1261,55
663,58	1226,73
663,76	1265,64
663,95	1275,88
664,14	1261,55
664,32	1243,12
664,51	1243,12
664,70	1253,36
664,89	1183,73
665,07	1155,05
665,26	1236,97
665,45	1255,40
665,64	1312,75
665,82	1220,59
666,01	1236,97
666,20	1216,49
666,38	1286,12
666,57	1351,66
666,76	1216,49
666,95	1161,20
667,13	1273,84
667,32	1310,70
667,51	1304,56
667,69	1343,47
667,88	1241,07
668,07	1263,60
668,25	1306,60
668,44	1318,89
668,63	1288,17
668,81	1286,12
669,00	1265,64
669,19	1292,27
669,38	1286,12
669,56	1341,42
669,75	1312,75
669,94	1200,11
670,12	1320,94
670,31	1275,88
670,50	1208,30
670,68	1290,22
670,87	1222,64
671,06	1239,02
671,24	1329,13
671,43	1282,03
671,62	1267,69
671,80	1279,98
671,99	1314,80
672,18	1263,60
672,36	1261,55
672,55	1267,69
672,74	1300,46
672,92	1296,36
673,11	1259,50
673,29	1286,12
673,48	1288,17
673,67	1218,54
673,85	1275,88
674,04	1329,13
674,23	1226,73
674,41	1247,21
674,60	1273,84
674,79	1314,80
674,97	1265,64
675,16	1277,93
675,34	1265,64
675,53	1269,74
675,72	1267,69
675,90	1247,21
676,09	1277,93
676,28	1265,64
676,46	1265,64
676,65	1216,49
676,83	1204,21
677,02	1320,94
677,21	1234,93
677,39	1320,94
677,58	1255,40
677,77	1277,93
677,95	1318,89
678,14	1316,84
678,32	1279,98
678,51	1261,55
678,70	1310,70
678,88	1310,70
679,07	1265,64
679,25	1290,22
679,44	1279,98
679,63	1294,32
679,81	1279,98
680,00	1286,12
680,18	1310,70
680,37	1224,69
680,55	1198,06
680,74	1208,30
680,93	1247,21
681,11	1273,84
681,30	1271,79
681,48	1247,21
681,67	1308,65
681,85	1224,69
682,04	1282,03
682,23	1263,60
682,41	1249,26
682,60	1318,89
682,78	1282,03
682,97	1275,88
683,15	1247,21
683,34	1355,76
683,53	1308,65
683,71	1294,32
683,90	1257,45
684,08	1314,80
684,27	1204,21
684,45	1202,16
684,64	1245,16
684,82	1273,84
685,01	1279,98
685,19	1306,60
685,38	1259,50
685,57	1273,84
685,75	1247,21
685,94	1284,08
686,12	1251,31
686,31	1271,79
686,49	1247,21
686,68	1255,40
686,86	1273,84
687,05	1257,45
687,23	1273,84
687,42	1243,12
687,60	1314,80
687,79	1140,72
687,97	1284,08
688,16	1218,54
688,34	1288,17
688,53	1251,31
688,71	1296,36
688,90	1247,21
689,08	1306,60
689,27	1245,16
689,45	1216,49
689,64	1312,75
689,82	1269,74
690,01	1255,40
690,19	1329,13
690,38	1257,45
690,56	1255,40
690,75	1306,60
690,93	1306,60
691,12	1282,03
691,30	1257,45
691,49	1304,56
691,67	1308,65
691,86	1265,64
692,04	1349,61
692,23	1322,99
692,41	1210,35
692,60	1322,99
692,78	1253,36
692,97	1249,26
693,15	1224,69
693,34	1302,51
693,52	1193,97
693,71	1214,45
693,89	1191,92
694,08	1226,73
694,26	1290,22
694,44	1247,21
694,63	1279,98
694,81	1261,55
695,00	1269,74
695,18	1239,02
695,37	1265,64
695,55	1384,43
695,74	1200,11
695,92	1255,40
696,10	1224,69
696,29	1366,00
696,47	1302,51
696,66	1282,03
696,84	1267,69
697,03	1279,98
697,21	1257,45
697,40	1279,98
697,58	1304,56
697,76	1150,96
697,95	1222,64
698,13	1265,64
698,32	1269,74
698,50	1343,47
698,68	1249,26
698,87	1351,66
699,05	1357,80
699,24	1241,07
699,42	1308,65
699,61	1249,26
699,79	1296,36
699,97	1241,07
700,16	1261,55
700,34	1232,88
700,53	1249,26
700,71	1261,55
700,89	1300,46
701,08	1273,84
701,26	1255,40
701,45	1284,08
701,63	1345,52
701,81	1249,26
702,00	1349,61
702,18	1251,31
702,37	1339,37
702,55	1187,82
702,73	1236,97
702,92	1243,12
703,10	1314,80
703,28	1273,84
703,47	1290,22
703,65	1224,69
703,84	1282,03
704,02	1224,69
704,20	1239,02
704,39	1284,08
704,57	1363,95
704,75	1267,69
704,94	1329,13
705,12	1224,69
705,30	1251,31
705,49	1230,83
705,67	1290,22
705,86	1263,60
706,04	1259,50
706,22	1290,22
706,41	1304,56
706,59	1241,07
706,77	1243,12
706,96	1306,60
707,14	1253,36
707,32	1234,93
707,51	1282,03
707,69	1269,74
707,87	1273,84
708,06	1310,70
708,24	1234,93
708,42	1316,84
708,61	1255,40
708,79	1249,26
708,97	1290,22
709,16	1208,30
709,34	1331,18
709,52	1222,64
709,71	1298,41
709,89	1206,25
710,07	1243,12
710,26	1320,94
710,44	1320,94
710,62	1200,11
710,80	1245,16
710,99	1239,02
711,17	1306,60
711,35	1224,69
711,54	1304,56
711,72	1275,88
711,90	1263,60
712,09	1296,36
712,27	1306,60
712,45	1224,69
712,63	1282,03
712,82	1216,49
713,00	1292,27
713,18	1294,32
713,37	1304,56
713,55	1249,26
713,73	1257,45
713,91	1224,69
714,10	1261,55
714,28	1261,55
714,46	1245,16
714,65	1316,84
714,83	1226,73
715,01	1314,80
715,19	1282,03
715,38	1267,69
715,56	1292,27
715,74	1310,70
715,92	1193,97
716,11	1310,70
716,29	1302,51
716,47	1202,16
716,65	1255,40
716,84	1286,12
717,02	1271,79
717,20	1181,68
717,38	1265,64
717,57	1251,31
717,75	1267,69
717,93	1239,02
718,11	1196,01
718,30	1308,65
718,48	1302,51
718,66	1284,08
718,84	1314,80
719,03	1286,12
719,21	1269,74
719,39	1222,64
719,57	1234,93
719,75	1265,64
719,94	1353,71
720,12	1249,26
720,30	1279,98
720,48	1232,88
720,67	1286,12
720,85	1306,60
721,03	1286,12
721,21	1230,83
721,39	1284,08
721,58	1265,64
721,76	1265,64
721,94	1271,79
722,12	1284,08
722,30	1304,56
722,49	1294,32
722,67	1290,22
722,85	1308,65
723,03	1255,40
723,21	1224,69
723,40	1290,22
723,58	1318,89
723,76	1212,40
723,94	1337,32
724,12	1282,03
724,30	1327,08
724,49	1325,04
724,67	1249,26
724,85	1296,36
725,03	1239,02
725,21	1269,74
725,40	1327,08
725,58	1322,99
725,76	1284,08
725,94	1204,21
726,12	1214,45
726,30	1279,98
726,49	1300,46
726,67	1202,16
726,85	1284,08
727,03	1300,46
727,21	1331,18
727,39	1363,95
727,57	1247,21
727,76	1257,45
727,94	1335,28
728,12	1275,88
728,30	1259,50
728,48	1279,98
728,66	1279,98
728,84	1282,03
729,03	1243,12
729,21	1331,18
729,39	1236,97
729,57	1245,16
729,75	1269,74
729,93	1394,67
730,11	1277,93
730,30	1212,40
730,48	1337,32
730,66	1191,92
730,84	1279,98
731,02	1273,84
731,20	1312,75
731,38	1275,88
731,56	1261,55
731,74	1267,69
731,93	1220,59
732,11	1288,17
732,29	1288,17
732,47	1222,64
732,65	1269,74
732,83	1241,07
733,01	1279,98
733,19	1337,32
733,37	1214,45
733,56	1277,93
733,74	1216,49
733,92	1214,45
734,10	1277,93
734,28	1228,78
734,46	1320,94
734,64	1298,41
734,82	1255,40
735,00	1243,12
735,18	1257,45
735,36	1288,17
735,54	1279,98
735,73	1224,69
735,91	1292,27
736,09	1345,52
736,27	1296,36
736,45	1310,70
736,63	1230,83
736,81	1218,54
736,99	1333,23
737,17	1169,39
737,35	1273,84
737,53	1249,26
737,71	1288,17
737,89	1308,65
738,07	1232,88
738,25	1234,93
738,43	1132,53
738,61	1273,84
738,80	1279,98
738,98	1239,02
739,16	1253,36
739,34	1292,27
739,52	1175,53
739,70	1183,73
739,88	1290,22
740,06	1230,83
740,24	1245,16
740,42	1355,76
740,60	1263,60
740,78	1269,74
740,96	1312,75
741,14	1218,54
741,32	1279,98
741,50	1216,49
741,68	1296,36
741,86	1284,08
742,04	1304,56
742,22	1263,60
742,40	1288,17
742,58	1230,83
742,76	1247,21
742,94	1236,97
743,12	1263,60
743,30	1277,93
743,48	1322,99
743,66	1216,49
743,84	1294,32
744,02	1191,92
744,20	1187,82
744,38	1294,32
744,56	1282,03
744,74	1255,40
744,92	1265,64
745,10	1228,78
745,28	1236,97
745,46	1265,64
745,64	1200,11
745,82	1232,88
746,00	1208,30
746,18	1288,17
746,36	1257,45
746,54	1210,35
746,72	1210,35
746,90	1284,08
747,08	1288,17
747,26	1308,65
747,44	1279,98
747,62	1282,03
747,80	1347,56
747,98	1247,21
748,15	1257,45
748,33	1234,93
748,51	1277,93
748,69	1265,64
748,87	1251,31
749,05	1298,41
749,23	1251,31
749,41	1310,70
749,59	1200,11
749,77	1257,45
749,95	1251,31
750,13	1220,59
750,31	1318,89
750,49	1204,21
750,67	1249,26
750,85	1292,27
751,03	1284,08
751,20	1208,30
751,38	1316,84
751,56	1245,16
751,74	1271,79
751,92	1253,36
752,10	1234,93
752,28	1279,98
752,46	1288,17
752,64	1249,26
752,82	1216,49
753,00	1232,88
753,18	1269,74
753,35	1308,65
753,53	1298,41
753,71	1277,93
753,89	1245,16
754,07	1247,21
754,25	1263,60
754,43	1267,69
754,61	1306,60
754,79	1271,79
754,97	1247,21
755,14	1298,41
755,32	1267,69
755,50	1247,21
755,68	1206,25
755,86	1343,47
756,04	1245,16
756,22	1298,41
756,40	1269,74
756,57	1300,46
756,75	1286,12
756,93	1300,46
757,11	1331,18
757,29	1257,45
757,47	1257,45
757,65	1279,98
757,82	1263,60
758,00	1302,51
758,18	1302,51
758,36	1218,54
758,54	1296,36
758,72	1247,21
758,90	1224,69
759,07	1312,75
759,25	1302,51
759,43	1253,36
759,61	1257,45
759,79	1325,04
759,97	1320,94
760,15	1265,64
760,32	1255,40
760,50	1263,60
760,68	1226,73
760,86	1265,64
761,04	1226,73
761,22	1277,93
761,39	1230,83
761,57	1251,31
761,75	1191,92
761,93	1265,64
762,11	1316,84
762,28	1249,26
762,46	1282,03
762,64	1265,64
762,82	1241,07
763,00	1298,41
763,18	1363,95
763,35	1304,56
763,53	1267,69
763,71	1271,79
763,89	1273,84
764,07	1290,22
764,24	1222,64
764,42	1288,17
764,60	1249,26
764,78	1204,21
764,96	1265,64
765,13	1224,69
765,31	1284,08
765,49	1263,60
765,67	1353,71
765,84	1269,74
766,02	1314,80
766,20	1263,60
766,38	1298,41
766,56	1302,51
766,73	1284,08
766,91	1241,07
767,09	1257,45
767,27	1306,60
767,44	1236,97
767,62	1243,12
767,80	1288,17
767,98	1243,12
768,15	1232,88
768,33	1273,84
768,51	1333,23
768,69	1257,45
768,87	1269,74
769,04	1263,60
769,22	1320,94
769,40	1296,36
769,58	1277,93
769,75	1257,45
769,93	1269,74
770,11	1302,51
770,28	1316,84
770,46	1183,73
770,64	1335,28
770,82	1290,22
770,99	1245,16
771,17	1218,54
771,35	1245,16
771,53	1271,79
771,70	1187,82
771,88	1290,22
772,06	1218,54
772,23	1241,07
772,41	1263,60
772,59	1243,12
772,77	1218,54
772,94	1273,84
773,12	1239,02
773,30	1220,59
773,47	1189,87
773,65	1198,06
773,83	1300,46
774,01	1320,94
774,18	1220,59
774,36	1288,17
774,54	1265,64
774,71	1239,02
774,89	1189,87
775,07	1265,64
775,24	1308,65
775,42	1226,73
775,60	1261,55
775,78	1300,46
775,95	1253,36
776,13	1284,08
776,31	1239,02
776,48	1263,60
776,66	1263,60
776,84	1261,55
777,01	1329,13
777,19	1267,69
777,37	1230,83
777,54	1239,02
777,72	1331,18
777,90	1314,80
778,07	1310,70
778,25	1243,12
778,43	1239,02
778,60	1239,02
778,78	1263,60
778,96	1214,45
779,13	1222,64
779,31	1310,70
779,49	1343,47
779,66	1275,88
779,84	1265,64
780,01	1220,59
780,19	1259,50
780,37	1300,46
780,54	1298,41
780,72	1269,74
780,90	1224,69
781,07	1279,98
781,25	1296,36
781,43	1224,69
781,60	1294,32
781,78	1241,07
781,95	1298,41
782,13	1181,68
782,31	1331,18
782,48	1232,88
782,66	1277,93
782,83	1327,08
783,01	1306,60
783,19	1216,49
783,36	1228,78
783,54	1230,83
783,72	1259,50
783,89	1230,83
784,07	1300,46
784,24	1253,36
784,42	1236,97
784,60	1220,59
784,77	1292,27
784,95	1298,41
785,12	1279,98
785,30	1320,94
785,47	1253,36
785,65	1214,45
785,83	1232,88
786,00	1257,45
786,18	1300,46
786,35	1245,16
786,53	1304,56
786,71	1318,89
786,88	1316,84
787,06	1282,03
787,23	1279,98
787,41	1241,07
787,58	1286,12
787,76	1202,16
787,94	1267,69
788,11	1183,73
788,29	1279,98
788,46	1288,17
788,64	1253,36
788,81	1312,75
788,99	1337,32
789,16	1308,65
789,34	1269,74
789,52	1200,11
789,69	1255,40
789,87	1243,12
790,04	1298,41
790,22	1261,55
790,39	1247,21
790,57	1320,94
790,74	1257,45
790,92	1261,55
791,09	1226,73
791,27	1271,79
791,44	1224,69
791,62	1193,97
791,79	1232,88
791,97	1249,26
792,15	1277,93
792,32	1265,64
792,50	1251,31
792,67	1216,49
792,85	1230,83
793,02	1312,75
793,20	1290,22
793,37	1236,97
793,55	1304,56
793,72	1265,64
793,90	1306,60
794,07	1253,36
794,25	1241,07
794,42	1302,51
794,60	1253,36
794,77	1255,40
794,95	1251,31
795,12	1304,56
795,30	1306,60
795,47	1212,40
795,65	1208,30
795,82	1243,12
796,00	1320,94
796,17	1241,07
796,34	1204,21
796,52	1255,40
796,69	1259,50
796,87	1271,79
797,04	1273,84
797,22	1318,89
797,39	1271,79
797,57	1232,88
797,74	1245,16
797,92	1312,75
798,09	1304,56
798,27	1290,22
798,44	1337,32
798,62	1300,46
798,79	1239,02
798,96	1275,88
799,14	1249,26
799,31	1337,32
799,49	1265,64
799,66	1204,21
799,84	1296,36
800,01	1327,08
800,19	1339,37
800,36	1302,51
800,53	1230,83
800,71	1275,88
800,88	1236,97
801,06	1257,45
801,23	1210,35
801,41	1290,22
801,58	1331,18
801,75	1292,27
801,93	1296,36
802,10	1193,97
802,28	1271,79
802,45	1247,21
802,63	1314,80
802,80	1275,88
802,97	1335,28
803,15	1267,69
803,32	1198,06
803,50	1331,18
803,67	1239,02
803,84	1308,65
804,02	1363,95
804,19	1243,12
804,37	1312,75
804,54	1241,07
804,71	1257,45
804,89	1253,36
805,06	1232,88
805,24	1210,35
805,41	1204,21
805,58	1267,69
805,76	1273,84
805,93	1341,42
806,10	1245,16
806,28	1222,64
806,45	1290,22
806,63	1257,45
806,80	1273,84
806,97	1302,51
807,15	1290,22
807,32	1341,42
807,49	1308,65
807,67	1251,31
807,84	1304,56
808,01	1284,08
808,19	1265,64
808,36	1314,80
808,54	1318,89
808,71	1243,12
808,88	1292,27
809,06	1296,36
809,23	1208,30
809,40	1255,40
809,58	1282,03
809,75	1310,70
809,92	1222,64
810,10	1322,99
810,27	1263,60
810,44	1261,55
810,62	1257,45
810,79	1224,69
810,96	1261,55
811,14	1243,12
811,31	1320,94
811,48	1279,98
811,66	1253,36
811,83	1218,54
812,00	1232,88
812,18	1230,83
812,35	1279,98
812,52	1183,73
812,69	1277,93
812,87	1282,03
813,04	1241,07
813,21	1288,17
813,39	1286,12
813,56	1232,88
813,73	1277,93
813,91	1243,12
814,08	1261,55
814,25	1304,56
814,42	1257,45
814,60	1222,64
814,77	1282,03
814,94	1282,03
815,12	1259,50
815,29	1232,88
815,46	1253,36
815,63	1273,84
815,81	1316,84
815,98	1333,23
816,15	1279,98
816,33	1230,83
816,50	1363,95
816,67	1232,88
816,84	1245,16
817,02	1290,22
817,19	1300,46
817,36	1265,64
817,53	1173,49
817,71	1241,07
817,88	1282,03
818,05	1275,88
818,22	1243,12
818,40	1257,45
818,57	1245,16
818,74	1318,89
818,91	1255,40
819,09	1302,51
819,26	1290,22
819,43	1263,60
819,60	1312,75
819,78	1204,21
819,95	1279,98
820,12	1269,74
820,29	1257,45
820,47	1263,60
820,64	1312,75
820,81	1241,07
820,98	1255,40
821,15	1282,03
821,33	1251,31
821,50	1294,32
821,67	1212,40
821,84	1296,36
822,02	1263,60
822,19	1353,71
822,36	1218,54
822,53	1249,26
822,70	1286,12
822,88	1218,54
823,05	1368,04
823,22	1316,84
823,39	1257,45
823,56	1325,04
823,74	1279,98
823,91	1273,84
824,08	1292,27
824,25	1255,40
824,42	1214,45
824,60	1257,45
824,77	1243,12
824,94	1288,17
825,11	1310,70
825,28	1335,28
825,45	1261,55
825,63	1265,64
825,80	1239,02
825,97	1206,25
826,14	1271,79
826,31	1255,40
826,48	1241,07
826,66	1269,74
826,83	1288,17
827,00	1247,21
827,17	1298,41
827,34	1277,93
827,51	1290,22
827,69	1282,03
827,86	1222,64
828,03	1286,12
828,20	1322,99
828,37	1249,26
828,54	1306,60
828,71	1224,69
828,89	1241,07
829,06	1263,60
829,23	1284,08
829,40	1343,47
829,57	1230,83
829,74	1265,64
829,91	1165,29
830,09	1286,12
830,26	1263,60
830,43	1290,22
830,60	1296,36
830,77	1284,08
830,94	1241,07
831,11	1294,32
831,28	1202,16
831,46	1292,27
831,63	1282,03
831,80	1259,50
831,97	1239,02
832,14	1306,60
832,31	1290,22
832,48	1214,45
832,65	1279,98
832,82	1243,12
832,99	1253,36
833,17	1265,64
833,34	1222,64
833,51	1316,84
833,68	1257,45
833,85	1247,21
834,02	1341,42
834,19	1200,11
834,36	1306,60
834,53	1318,89
834,70	1337,32
834,87	1368,04
835,04	1279,98
835,22	1234,93
835,39	1314,80
835,56	1222,64
835,73	1255,40
835,90	1271,79
836,07	1298,41
836,24	1220,59
836,41	1284,08
836,58	1322,99
836,75	1210,35
836,92	1263,60
837,09	1243,12
837,26	1275,88
837,43	1212,40
837,60	1259,50
837,77	1312,75
837,94	1306,60
838,12	1230,83
838,29	1220,59
838,46	1269,74
838,63	1255,40
838,80	1267,69
838,97	1318,89
839,14	1265,64
839,31	1298,41
839,48	1292,27
839,65	1282,03
839,82	1265,64
839,99	1259,50
840,16	1337,32
840,33	1267,69
840,50	1249,26
840,67	1320,94
840,84	1193,97
841,01	1306,60
841,18	1226,73
841,35	1232,88
841,52	1310,70
841,69	1335,28
841,86	1277,93
842,03	1261,55
842,20	1222,64
842,37	1269,74
842,54	1239,02
842,71	1243,12
842,88	1271,79
843,05	1202,16
843,22	1296,36
843,39	1243,12
843,56	1286,12
843,73	1234,93
843,90	1316,84
844,07	1267,69
844,24	1327,08
844,41	1234,93
844,58	1282,03
844,75	1218,54
844,92	1318,89
845,09	1271,79
845,26	1273,84
845,43	1279,98
845,60	1230,83
845,77	1265,64
845,94	1243,12
846,10	1245,16
846,27	1290,22
846,44	1234,93
846,61	1247,21
846,78	1277,93
846,95	1216,49
847,12	1236,97
847,29	1277,93
847,46	1286,12
847,63	1247,21
847,80	1337,32
847,97	1294,32
848,14	1259,50
848,31	1167,34
848,48	1318,89
848,65	1294,32
848,82	1271,79
848,98	1249,26
849,15	1236,97
849,32	1327,08
849,49	1255,40
849,66	1232,88
849,83	1316,84
850,00	1224,69
850,17	1302,51
850,34	1249,26
850,51	1286,12
850,68	1255,40
850,85	1314,80
851,01	1275,88
851,18	1261,55
851,35	1255,40
851,52	1277,93
851,69	1200,11
851,86	1249,26
852,03	1241,07
852,20	1263,60
852,37	1218,54
852,53	1277,93
852,70	1214,45
852,87	1247,21
853,04	1347,56
853,21	1294,32
853,38	1273,84
853,55	1286,12
853,72	1212,40
853,89	1220,59
854,05	1226,73
854,22	1204,21
854,39	1327,08
854,56	1198,06
854,73	1251,31
854,90	1292,27
855,07	1257,45
855,23	1314,80
855,40	1314,80
855,57	1345,52
855,74	1320,94
855,91	1302,51
856,08	1279,98
856,25	1261,55
856,41	1275,88
856,58	1263,60
856,75	1259,50
856,92	1265,64
857,09	1269,74
857,26	1322,99
857,42	1267,69
857,59	1314,80
857,76	1271,79
857,93	1284,08
858,10	1259,50
858,27	1290,22
858,43	1206,25
858,60	1275,88
858,77	1241,07
858,94	1257,45
859,11	1263,60
859,27	1279,98
859,44	1257,45
859,61	1275,88
859,78	1236,97
859,95	1218,54
860,12	1294,32
860,28	1286,12
860,45	1269,74
860,62	1257,45
860,79	1249,26
860,95	1294,32
861,12	1294,32
861,29	1273,84
861,46	1363,95
861,63	1275,88
861,79	1183,73
861,96	1251,31
862,13	1218,54
862,30	1249,26
862,47	1310,70
862,63	1273,84
862,80	1279,98
862,97	1279,98
863,14	1347,56
863,30	1288,17
863,47	1304,56
863,64	1259,50
863,81	1247,21
863,97	1316,84
864,14	1220,59
864,31	1284,08
864,48	1175,53
864,65	1259,50
864,81	1333,23
864,98	1251,31
865,15	1241,07
865,32	1265,64
865,48	1228,78
865,65	1239,02
865,82	1343,47
865,98	1296,36
866,15	1320,94
866,32	1277,93
866,49	1220,59
866,65	1294,32
866,82	1345,52
866,99	1236,97
867,16	1284,08
867,32	1224,69
867,49	1265,64
867,66	1228,78
867,83	1224,69
867,99	1288,17
868,16	1318,89
868,33	1261,55
868,49	1253,36
868,66	1265,64
868,83	1298,41
868,99	1236,97
869,16	1275,88
869,33	1282,03
869,50	1259,50
869,66	1253,36
869,83	1290,22
870,00	1306,60
870,16	1247,21
870,33	1165,29
870,50	1306,60
870,66	1296,36
870,83	1284,08
871,00	1298,41
871,17	1271,79
871,33	1255,40
871,50	1261,55
871,67	1304,56
871,83	1351,66
872,00	1314,80
872,17	1320,94
872,33	1271,79
872,50	1279,98
872,67	1320,94
872,83	1296,36
873,00	1292,27
873,17	1271,79
873,33	1177,58
873,50	1292,27
873,67	1265,64
873,83	1279,98
874,00	1261,55
874,16	1284,08
874,33	1304,56
874,50	1271,79
874,66	1296,36
874,83	1357,80
875,00	1298,41
875,16	1263,60
875,33	1261,55
875,50	1277,93
875,66	1253,36
875,83	1312,75
875,99	1273,84
876,16	1216,49
876,33	1308,65
876,49	1265,64
876,66	1275,88
876,83	1214,45
876,99	1255,40
877,16	1175,53
877,32	1284,08
877,49	1355,76
877,66	1212,40
877,82	1288,17
877,99	1177,58
878,15	1226,73
878,32	1230,83
878,49	1292,27
878,65	1243,12
878,82	1284,08
878,98	1212,40
879,15	1282,03
879,32	1216,49
879,48	1265,64
879,65	1282,03
879,81	1333,23
879,98	1333,23
880,15	1196,01
880,31	1220,59
880,48	1265,64
880,64	1220,59
880,81	1331,18
880,97	1372,14
881,14	1230,83
881,31	1282,03
881,47	1263,60
881,64	1275,88
881,80	1214,45
881,97	1275,88
882,13	1269,74
882,30	1277,93
882,47	1222,64
882,63	1251,31
882,80	1314,80
882,96	1245,16
883,13	1228,78
883,29	1286,12
883,46	1224,69
883,62	1247,21
883,79	1290,22
883,95	1279,98
884,12	1255,40
884,29	1245,16
884,45	1251,31
884,62	1310,70
884,78	1239,02
884,95	1255,40
885,11	1306,60
885,28	1263,60
885,44	1226,73
885,61	1316,84
885,77	1267,69
885,94	1279,98
886,10	1210,35
886,27	1308,65
886,43	1282,03
886,60	1251,31
886,76	1273,84
886,93	1161,20
887,09	1265,64
887,26	1249,26
887,42	1267,69
887,59	1212,40
887,75	1316,84
887,92	1277,93
888,08	1286,12
888,25	1226,73
888,41	1263,60
888,58	1247,21
888,74	1247,21
888,91	1304,56
>>>>>End Processed Spectral Data<<<<<
