SpectraSuite Data File
++++++++++++++++++++++++++++++++++++
Date: Sun Apr 03 19:55:51 CEST 2016
User: root
Dark Spectrum Present: No
Reference Spectrum Present: No
Number of Sampled Component Spectra: 1
Spectrometers: USB4C02835
Integration Time (usec): 10000 (USB4C02835)
Spectra Averaged: 1 (USB4C02835)
Boxcar Smoothing: 0 (USB4C02835)
Correct for Electrical Dark: No (USB4C02835)
Strobe/Lamp Enabled: No (USB4C02835)
Correct for Detector Non-linearity: No (USB4C02835)
Correct for Stray Light: No (USB4C02835)
Number of Pixels in Processed Spectrum: 3648
>>>>>Begin Processed Spectral Data<<<<<
177,47	1286,12
177,69	1286,12
177,91	1286,12
178,13	1312,75
178,36	1357,80
178,58	1273,84
178,80	1265,64
179,02	1241,07
179,24	1279,98
179,46	1308,65
179,68	1329,13
179,90	1230,83
180,13	1279,98
180,35	1290,22
180,57	1261,55
180,79	1261,55
181,01	1359,85
181,23	1183,73
181,45	1294,32
181,67	1304,56
181,90	1277,93
182,12	1339,37
182,34	1339,37
182,56	1230,83
182,78	1263,60
183,00	1230,83
183,22	1312,75
183,44	1267,69
183,66	1206,25
183,89	1255,40
184,11	1370,09
184,33	1271,79
184,55	1341,42
184,77	1333,23
184,99	1241,07
185,21	1286,12
185,43	1314,80
185,65	1261,55
185,87	1308,65
186,10	1271,79
186,32	1277,93
186,54	1290,22
186,76	1193,97
186,98	1230,83
187,20	1257,45
187,42	1175,53
187,64	1236,97
187,86	1265,64
188,08	1263,60
188,30	1269,74
188,52	1208,30
188,75	1232,88
188,97	1294,32
189,19	1187,82
189,41	1261,55
189,63	1236,97
189,85	1286,12
190,07	1247,21
190,29	1239,02
190,51	1226,73
190,73	1251,31
190,95	1202,16
191,17	1249,26
191,39	1234,93
191,61	1310,70
191,84	1296,36
192,06	1298,41
192,28	1198,06
192,50	1230,83
192,72	1277,93
192,94	1277,93
193,16	1282,03
193,38	1265,64
193,60	1232,88
193,82	1265,64
194,04	1265,64
194,26	1230,83
194,48	1282,03
194,70	1273,84
194,92	1296,36
195,14	1288,17
195,36	1288,17
195,58	1249,26
195,80	1304,56
196,02	1288,17
196,24	1228,78
196,46	1226,73
196,69	1247,21
196,91	1239,02
197,13	1265,64
197,35	1263,60
197,57	1284,08
197,79	1306,60
198,01	1251,31
198,23	1214,45
198,45	1239,02
198,67	1273,84
198,89	1271,79
199,11	1200,11
199,33	1243,12
199,55	1169,39
199,77	1241,07
199,99	1312,75
200,21	1265,64
200,43	1271,79
200,65	1267,69
200,87	1249,26
201,09	1282,03
201,31	1284,08
201,53	1320,94
201,75	1296,36
201,97	1318,89
202,19	1304,56
202,41	1208,30
202,63	1167,34
202,85	1288,17
203,07	1247,21
203,29	1187,82
203,51	1282,03
203,73	1271,79
203,95	1257,45
204,17	1247,21
204,39	1304,56
204,61	1261,55
204,83	1353,71
205,05	1290,22
205,27	1314,80
205,49	1284,08
205,71	1261,55
205,93	1273,84
206,15	1322,99
206,37	1292,27
206,59	1245,16
206,81	1279,98
207,03	1245,16
207,25	1234,93
207,47	1314,80
207,69	1296,36
207,91	1273,84
208,13	1230,83
208,34	1241,07
208,56	1322,99
208,78	1239,02
209,00	1263,60
209,22	1310,70
209,44	1239,02
209,66	1255,40
209,88	1236,97
210,10	1331,18
210,32	1294,32
210,54	1306,60
210,76	1218,54
210,98	1236,97
211,20	1263,60
211,42	1267,69
211,64	1300,46
211,86	1306,60
212,08	1320,94
212,30	1282,03
212,52	1290,22
212,74	1249,26
212,96	1337,32
213,17	1241,07
213,39	1234,93
213,61	1251,31
213,83	1198,06
214,05	1273,84
214,27	1269,74
214,49	1259,50
214,71	1179,63
214,93	1329,13
215,15	1232,88
215,37	1284,08
215,59	1236,97
215,81	1245,16
216,03	1236,97
216,24	1279,98
216,46	1228,78
216,68	1228,78
216,90	1232,88
217,12	1249,26
217,34	1232,88
217,56	1273,84
217,78	1316,84
218,00	1228,78
218,22	1290,22
218,44	1253,36
218,66	1314,80
218,87	1335,28
219,09	1310,70
219,31	1228,78
219,53	1302,51
219,75	1212,40
219,97	1279,98
220,19	1306,60
220,41	1294,32
220,63	1234,93
220,85	1222,64
221,06	1236,97
221,28	1286,12
221,50	1245,16
221,72	1222,64
221,94	1304,56
222,16	1286,12
222,38	1243,12
222,60	1208,30
222,82	1314,80
223,03	1222,64
223,25	1279,98
223,47	1286,12
223,69	1290,22
223,91	1267,69
224,13	1255,40
224,35	1179,63
224,57	1306,60
224,78	1282,03
225,00	1236,97
225,22	1314,80
225,44	1316,84
225,66	1298,41
225,88	1318,89
226,10	1282,03
226,32	1263,60
226,53	1255,40
226,75	1210,35
226,97	1253,36
227,19	1290,22
227,41	1214,45
227,63	1329,13
227,85	1265,64
228,06	1163,25
228,28	1245,16
228,50	1288,17
228,72	1288,17
228,94	1241,07
229,16	1288,17
229,37	1314,80
229,59	1212,40
229,81	1296,36
230,03	1232,88
230,25	1275,88
230,47	1208,30
230,69	1224,69
230,90	1208,30
231,12	1239,02
231,34	1322,99
231,56	1245,16
231,78	1308,65
232,00	1261,55
232,21	1320,94
232,43	1239,02
232,65	1320,94
232,87	1351,66
233,09	1265,64
233,30	1243,12
233,52	1290,22
233,74	1298,41
233,96	1230,83
234,18	1208,30
234,40	1312,75
234,61	1312,75
234,83	1296,36
235,05	1249,26
235,27	1290,22
235,49	1247,21
235,70	1257,45
235,92	1335,28
236,14	1308,65
236,36	1337,32
236,58	1302,51
236,79	1171,44
237,01	1239,02
237,23	1300,46
237,45	1302,51
237,67	1282,03
237,88	1290,22
238,10	1314,80
238,32	1359,85
238,54	1357,80
238,76	1284,08
238,97	1224,69
239,19	1249,26
239,41	1298,41
239,63	1187,82
239,85	1261,55
240,06	1294,32
240,28	1222,64
240,50	1236,97
240,72	1249,26
240,93	1294,32
241,15	1249,26
241,37	1216,49
241,59	1304,56
241,81	1269,74
242,02	1222,64
242,24	1230,83
242,46	1286,12
242,68	1214,45
242,89	1302,51
243,11	1243,12
243,33	1200,11
243,55	1230,83
243,76	1261,55
243,98	1224,69
244,20	1224,69
244,42	1204,21
244,64	1259,50
244,85	1335,28
245,07	1249,26
245,29	1298,41
245,51	1255,40
245,72	1331,18
245,94	1265,64
246,16	1275,88
246,38	1320,94
246,59	1257,45
246,81	1224,69
247,03	1310,70
247,24	1292,27
247,46	1200,11
247,68	1251,31
247,90	1257,45
248,11	1290,22
248,33	1310,70
248,55	1277,93
248,77	1232,88
248,98	1337,32
249,20	1290,22
249,42	1310,70
249,64	1226,73
249,85	1267,69
250,07	1302,51
250,29	1284,08
250,50	1234,93
250,72	1239,02
250,94	1327,08
251,16	1255,40
251,37	1292,27
251,59	1265,64
251,81	1253,36
252,02	1269,74
252,24	1226,73
252,46	1247,21
252,68	1251,31
252,89	1208,30
253,11	1222,64
253,33	1310,70
253,54	1220,59
253,76	1273,84
253,98	1296,36
254,20	1249,26
254,41	1234,93
254,63	1257,45
254,85	1249,26
255,06	1275,88
255,28	1243,12
255,50	1294,32
255,71	1236,97
255,93	1257,45
256,15	1236,97
256,36	1239,02
256,58	1322,99
256,80	1216,49
257,02	1298,41
257,23	1241,07
257,45	1245,16
257,67	1288,17
257,88	1298,41
258,10	1181,68
258,32	1253,36
258,53	1294,32
258,75	1304,56
258,97	1265,64
259,18	1318,89
259,40	1308,65
259,62	1249,26
259,83	1273,84
260,05	1298,41
260,27	1294,32
260,48	1241,07
260,70	1230,83
260,92	1320,94
261,13	1339,37
261,35	1320,94
261,57	1259,50
261,78	1337,32
262,00	1234,93
262,22	1259,50
262,43	1282,03
262,65	1267,69
262,86	1208,30
263,08	1339,37
263,30	1226,73
263,51	1265,64
263,73	1228,78
263,95	1245,16
264,16	1314,80
264,38	1277,93
264,60	1292,27
264,81	1286,12
265,03	1245,16
265,25	1282,03
265,46	1286,12
265,68	1335,28
265,89	1257,45
266,11	1249,26
266,33	1247,21
266,54	1292,27
266,76	1343,47
266,98	1331,18
267,19	1255,40
267,41	1279,98
267,62	1263,60
267,84	1245,16
268,06	1273,84
268,27	1247,21
268,49	1306,60
268,70	1284,08
268,92	1296,36
269,14	1234,93
269,35	1228,78
269,57	1245,16
269,79	1204,21
270,00	1284,08
270,22	1275,88
270,43	1296,36
270,65	1322,99
270,87	1255,40
271,08	1333,23
271,30	1259,50
271,51	1284,08
271,73	1292,27
271,95	1269,74
272,16	1302,51
272,38	1247,21
272,59	1241,07
272,81	1292,27
273,02	1277,93
273,24	1243,12
273,46	1265,64
273,67	1277,93
273,89	1243,12
274,10	1279,98
274,32	1269,74
274,54	1310,70
274,75	1284,08
274,97	1322,99
275,18	1220,59
275,40	1298,41
275,61	1230,83
275,83	1196,01
276,05	1232,88
276,26	1228,78
276,48	1261,55
276,69	1232,88
276,91	1296,36
277,12	1279,98
277,34	1292,27
277,55	1349,61
277,77	1327,08
277,99	1269,74
278,20	1239,02
278,42	1286,12
278,63	1239,02
278,85	1236,97
279,06	1279,98
279,28	1241,07
279,49	1275,88
279,71	1302,51
279,93	1191,92
280,14	1296,36
280,36	1247,21
280,57	1286,12
280,79	1308,65
281,00	1243,12
281,22	1214,45
281,43	1263,60
281,65	1271,79
281,86	1273,84
282,08	1177,58
282,29	1165,29
282,51	1196,01
282,73	1271,79
282,94	1304,56
283,16	1257,45
283,37	1335,28
283,59	1296,36
283,80	1265,64
284,02	1183,73
284,23	1314,80
284,45	1284,08
284,66	1234,93
284,88	1259,50
285,09	1316,84
285,31	1263,60
285,52	1239,02
285,74	1239,02
285,95	1269,74
286,17	1304,56
286,38	1267,69
286,60	1253,36
286,81	1253,36
287,03	1335,28
287,24	1271,79
287,46	1259,50
287,67	1228,78
287,89	1200,11
288,10	1284,08
288,32	1308,65
288,53	1226,73
288,75	1325,04
288,96	1202,16
289,18	1269,74
289,39	1308,65
289,61	1300,46
289,82	1310,70
290,04	1241,07
290,25	1191,92
290,47	1267,69
290,68	1310,70
290,90	1331,18
291,11	1363,95
291,33	1314,80
291,54	1290,22
291,76	1261,55
291,97	1282,03
292,18	1265,64
292,40	1261,55
292,61	1255,40
292,83	1273,84
293,04	1306,60
293,26	1177,58
293,47	1234,93
293,69	1271,79
293,90	1257,45
294,12	1200,11
294,33	1247,21
294,55	1220,59
294,76	1241,07
294,97	1271,79
295,19	1245,16
295,40	1279,98
295,62	1282,03
295,83	1277,93
296,05	1226,73
296,26	1294,32
296,48	1306,60
296,69	1378,28
296,90	1296,36
297,12	1265,64
297,33	1257,45
297,55	1253,36
297,76	1345,52
297,98	1257,45
298,19	1259,50
298,41	1214,45
298,62	1224,69
298,83	1406,95
299,05	1294,32
299,26	1273,84
299,48	1271,79
299,69	1327,08
299,90	1226,73
300,12	1288,17
300,33	1335,28
300,55	1257,45
300,76	1265,64
300,98	1230,83
301,19	1232,88
301,40	1300,46
301,62	1214,45
301,83	1251,31
302,05	1310,70
302,26	1245,16
302,47	1232,88
302,69	1288,17
302,90	1290,22
303,12	1306,60
303,33	1343,47
303,54	1284,08
303,76	1329,13
303,97	1255,40
304,19	1245,16
304,40	1265,64
304,61	1241,07
304,83	1263,60
305,04	1304,56
305,26	1228,78
305,47	1232,88
305,68	1226,73
305,90	1265,64
306,11	1239,02
306,33	1349,61
306,54	1257,45
306,75	1224,69
306,97	1191,92
307,18	1314,80
307,39	1239,02
307,61	1263,60
307,82	1241,07
308,04	1298,41
308,25	1302,51
308,46	1277,93
308,68	1263,60
308,89	1241,07
309,10	1296,36
309,32	1282,03
309,53	1208,30
309,74	1226,73
309,96	1312,75
310,17	1275,88
310,39	1277,93
310,60	1282,03
310,81	1298,41
311,03	1236,97
311,24	1345,52
311,45	1335,28
311,67	1292,27
311,88	1196,01
312,09	1253,36
312,31	1204,21
312,52	1306,60
312,73	1253,36
312,95	1312,75
313,16	1282,03
313,37	1296,36
313,59	1300,46
313,80	1298,41
314,01	1216,49
314,23	1257,45
314,44	1230,83
314,65	1284,08
314,87	1290,22
315,08	1257,45
315,29	1232,88
315,51	1245,16
315,72	1173,49
315,93	1273,84
316,15	1257,45
316,36	1290,22
316,57	1290,22
316,79	1257,45
317,00	1273,84
317,21	1359,85
317,43	1228,78
317,64	1214,45
317,85	1380,33
318,07	1222,64
318,28	1310,70
318,49	1236,97
318,70	1175,53
318,92	1290,22
319,13	1251,31
319,34	1263,60
319,56	1269,74
319,77	1320,94
319,98	1214,45
320,20	1228,78
320,41	1294,32
320,62	1312,75
320,83	1228,78
321,05	1273,84
321,26	1265,64
321,47	1236,97
321,69	1267,69
321,90	1224,69
322,11	1306,60
322,32	1298,41
322,54	1230,83
322,75	1304,56
322,96	1224,69
323,18	1259,50
323,39	1320,94
323,60	1267,69
323,81	1234,93
324,03	1284,08
324,24	1175,53
324,45	1331,18
324,66	1263,60
324,88	1271,79
325,09	1175,53
325,30	1282,03
325,52	1257,45
325,73	1257,45
325,94	1255,40
326,15	1230,83
326,37	1271,79
326,58	1277,93
326,79	1236,97
327,00	1247,21
327,22	1208,30
327,43	1226,73
327,64	1306,60
327,85	1208,30
328,07	1288,17
328,28	1181,68
328,49	1331,18
328,70	1267,69
328,92	1241,07
329,13	1296,36
329,34	1251,31
329,55	1241,07
329,76	1218,54
329,98	1286,12
330,19	1288,17
330,40	1294,32
330,61	1243,12
330,83	1273,84
331,04	1345,52
331,25	1253,36
331,46	1279,98
331,68	1241,07
331,89	1292,27
332,10	1261,55
332,31	1236,97
332,52	1226,73
332,74	1306,60
332,95	1228,78
333,16	1277,93
333,37	1298,41
333,58	1255,40
333,80	1339,37
334,01	1290,22
334,22	1222,64
334,43	1267,69
334,64	1318,89
334,86	1220,59
335,07	1255,40
335,28	1333,23
335,49	1249,26
335,70	1296,36
335,92	1267,69
336,13	1300,46
336,34	1292,27
336,55	1290,22
336,76	1298,41
336,98	1259,50
337,19	1273,84
337,40	1222,64
337,61	1273,84
337,82	1269,74
338,04	1296,36
338,25	1249,26
338,46	1212,40
338,67	1292,27
338,88	1279,98
339,09	1263,60
339,31	1310,70
339,52	1257,45
339,73	1245,16
339,94	1302,51
340,15	1173,49
340,36	1224,69
340,58	1263,60
340,79	1259,50
341,00	1304,56
341,21	1277,93
341,42	1286,12
341,63	1279,98
341,85	1277,93
342,06	1247,21
342,27	1304,56
342,48	1279,98
342,69	1253,36
342,90	1271,79
343,12	1239,02
343,33	1236,97
343,54	1292,27
343,75	1282,03
343,96	1234,93
344,17	1222,64
344,38	1214,45
344,60	1204,21
344,81	1282,03
345,02	1196,01
345,23	1267,69
345,44	1220,59
345,65	1236,97
345,86	1198,06
346,07	1273,84
346,29	1277,93
346,50	1282,03
346,71	1288,17
346,92	1234,93
347,13	1341,42
347,34	1247,21
347,55	1296,36
347,76	1286,12
347,98	1296,36
348,19	1228,78
348,40	1271,79
348,61	1277,93
348,82	1288,17
349,03	1253,36
349,24	1320,94
349,45	1247,21
349,66	1226,73
349,88	1298,41
350,09	1255,40
350,30	1312,75
350,51	1267,69
350,72	1296,36
350,93	1181,68
351,14	1298,41
351,35	1273,84
351,56	1218,54
351,77	1357,80
351,99	1253,36
352,20	1329,13
352,41	1243,12
352,62	1243,12
352,83	1259,50
353,04	1245,16
353,25	1224,69
353,46	1226,73
353,67	1267,69
353,88	1298,41
354,09	1198,06
354,30	1200,11
354,52	1282,03
354,73	1275,88
354,94	1243,12
355,15	1249,26
355,36	1179,63
355,57	1251,31
355,78	1232,88
355,99	1273,84
356,20	1253,36
356,41	1286,12
356,62	1208,30
356,83	1208,30
357,04	1288,17
357,25	1298,41
357,46	1271,79
357,68	1271,79
357,89	1208,30
358,10	1288,17
358,31	1277,93
358,52	1288,17
358,73	1189,87
358,94	1318,89
359,15	1290,22
359,36	1253,36
359,57	1310,70
359,78	1257,45
359,99	1257,45
360,20	1222,64
360,41	1204,21
360,62	1288,17
360,83	1206,25
361,04	1290,22
361,25	1329,13
361,46	1288,17
361,67	1314,80
361,88	1306,60
362,09	1286,12
362,30	1265,64
362,51	1327,08
362,72	1275,88
362,93	1298,41
363,14	1312,75
363,35	1370,09
363,56	1204,21
363,78	1206,25
363,99	1327,08
364,20	1247,21
364,41	1239,02
364,62	1198,06
364,83	1308,65
365,04	1265,64
365,25	1292,27
365,46	1165,29
365,67	1282,03
365,88	1196,01
366,09	1300,46
366,30	1220,59
366,51	1288,17
366,72	1300,46
366,93	1288,17
367,14	1224,69
367,35	1335,28
367,56	1232,88
367,77	1265,64
367,98	1249,26
368,18	1292,27
368,39	1286,12
368,60	1257,45
368,81	1296,36
369,02	1241,07
369,23	1271,79
369,44	1239,02
369,65	1300,46
369,86	1277,93
370,07	1193,97
370,28	1206,25
370,49	1318,89
370,70	1214,45
370,91	1277,93
371,12	1273,84
371,33	1236,97
371,54	1282,03
371,75	1318,89
371,96	1286,12
372,17	1259,50
372,38	1282,03
372,59	1282,03
372,80	1257,45
373,01	1222,64
373,22	1220,59
373,43	1273,84
373,64	1218,54
373,85	1290,22
374,06	1279,98
374,26	1300,46
374,47	1308,65
374,68	1300,46
374,89	1265,64
375,10	1296,36
375,31	1253,36
375,52	1288,17
375,73	1208,30
375,94	1277,93
376,15	1282,03
376,36	1368,04
376,57	1331,18
376,78	1251,31
376,99	1298,41
377,20	1294,32
377,40	1263,60
377,61	1212,40
377,82	1322,99
378,03	1245,16
378,24	1298,41
378,45	1325,04
378,66	1288,17
378,87	1322,99
379,08	1220,59
379,29	1263,60
379,50	1286,12
379,71	1267,69
379,91	1282,03
380,12	1200,11
380,33	1269,74
380,54	1175,53
380,75	1353,71
380,96	1255,40
381,17	1212,40
381,38	1290,22
381,59	1263,60
381,80	1306,60
382,00	1247,21
382,21	1271,79
382,42	1310,70
382,63	1220,59
382,84	1226,73
383,05	1236,97
383,26	1318,89
383,47	1292,27
383,68	1198,06
383,88	1320,94
384,09	1284,08
384,30	1224,69
384,51	1300,46
384,72	1232,88
384,93	1273,84
385,14	1279,98
385,35	1247,21
385,55	1249,26
385,76	1214,45
385,97	1271,79
386,18	1220,59
386,39	1304,56
386,60	1206,25
386,81	1232,88
387,02	1206,25
387,22	1210,35
387,43	1261,55
387,64	1236,97
387,85	1296,36
388,06	1222,64
388,27	1202,16
388,48	1279,98
388,68	1187,82
388,89	1218,54
389,10	1312,75
389,31	1300,46
389,52	1271,79
389,73	1308,65
389,93	1273,84
390,14	1282,03
390,35	1257,45
390,56	1277,93
390,77	1224,69
390,98	1171,44
391,18	1296,36
391,39	1228,78
391,60	1288,17
391,81	1255,40
392,02	1312,75
392,23	1239,02
392,43	1230,83
392,64	1279,98
392,85	1230,83
393,06	1253,36
393,27	1253,36
393,47	1294,32
393,68	1234,93
393,89	1245,16
394,10	1257,45
394,31	1239,02
394,52	1241,07
394,72	1282,03
394,93	1304,56
395,14	1220,59
395,35	1257,45
395,56	1177,58
395,76	1265,64
395,97	1163,25
396,18	1241,07
396,39	1331,18
396,60	1296,36
396,80	1243,12
397,01	1224,69
397,22	1302,51
397,43	1228,78
397,64	1216,49
397,84	1232,88
398,05	1271,79
398,26	1314,80
398,47	1308,65
398,67	1277,93
398,88	1279,98
399,09	1271,79
399,30	1222,64
399,51	1304,56
399,71	1273,84
399,92	1220,59
400,13	1222,64
400,34	1298,41
400,54	1277,93
400,75	1282,03
400,96	1294,32
401,17	1261,55
401,37	1271,79
401,58	1284,08
401,79	1277,93
402,00	1208,30
402,21	1343,47
402,41	1322,99
402,62	1279,98
402,83	1277,93
403,04	1245,16
403,24	1273,84
403,45	1355,76
403,66	1247,21
403,87	1286,12
404,07	1265,64
404,28	1275,88
404,49	1232,88
404,70	1241,07
404,90	1241,07
405,11	1214,45
405,32	1286,12
405,52	1208,30
405,73	1279,98
405,94	1263,60
406,15	1230,83
406,35	1327,08
406,56	1306,60
406,77	1275,88
406,98	1243,12
407,18	1210,35
407,39	1224,69
407,60	1253,36
407,80	1257,45
408,01	1296,36
408,22	1343,47
408,43	1239,02
408,63	1216,49
408,84	1273,84
409,05	1265,64
409,25	1257,45
409,46	1290,22
409,67	1226,73
409,88	1255,40
410,08	1261,55
410,29	1253,36
410,50	1314,80
410,70	1253,36
410,91	1249,26
411,12	1269,74
411,32	1257,45
411,53	1314,80
411,74	1247,21
411,95	1322,99
412,15	1318,89
412,36	1296,36
412,57	1232,88
412,77	1261,55
412,98	1228,78
413,19	1298,41
413,39	1322,99
413,60	1294,32
413,81	1296,36
414,01	1230,83
414,22	1265,64
414,43	1296,36
414,63	1277,93
414,84	1216,49
415,05	1263,60
415,25	1327,08
415,46	1322,99
415,67	1263,60
415,87	1308,65
416,08	1234,93
416,29	1308,65
416,49	1320,94
416,70	1249,26
416,91	1355,76
417,11	1290,22
417,32	1314,80
417,53	1304,56
417,73	1282,03
417,94	1232,88
418,15	1380,33
418,35	1245,16
418,56	1298,41
418,77	1204,21
418,97	1224,69
419,18	1263,60
419,38	1282,03
419,59	1218,54
419,80	1331,18
420,00	1298,41
420,21	1181,68
420,42	1302,51
420,62	1177,58
420,83	1265,64
421,04	1210,35
421,24	1282,03
421,45	1261,55
421,65	1314,80
421,86	1265,64
422,07	1304,56
422,27	1279,98
422,48	1304,56
422,69	1306,60
422,89	1214,45
423,10	1306,60
423,30	1202,16
423,51	1337,32
423,72	1265,64
423,92	1277,93
424,13	1232,88
424,33	1343,47
424,54	1218,54
424,75	1257,45
424,95	1314,80
425,16	1265,64
425,36	1251,31
425,57	1294,32
425,78	1247,21
425,98	1224,69
426,19	1216,49
426,39	1329,13
426,60	1286,12
426,81	1292,27
427,01	1308,65
427,22	1245,16
427,42	1308,65
427,63	1329,13
427,83	1230,83
428,04	1306,60
428,25	1251,31
428,45	1284,08
428,66	1288,17
428,86	1325,04
429,07	1241,07
429,28	1282,03
429,48	1245,16
429,69	1269,74
429,89	1267,69
430,10	1253,36
430,30	1304,56
430,51	1273,84
430,71	1255,40
430,92	1247,21
431,13	1316,84
431,33	1284,08
431,54	1284,08
431,74	1189,87
431,95	1306,60
432,15	1310,70
432,36	1208,30
432,56	1296,36
432,77	1335,28
432,98	1314,80
433,18	1286,12
433,39	1265,64
433,59	1308,65
433,80	1279,98
434,00	1320,94
434,21	1234,93
434,41	1263,60
434,62	1277,93
434,82	1310,70
435,03	1251,31
435,23	1232,88
435,44	1259,50
435,64	1257,45
435,85	1171,44
436,06	1279,98
436,26	1277,93
436,47	1286,12
436,67	1282,03
436,88	1327,08
437,08	1296,36
437,29	1200,11
437,49	1253,36
437,70	1261,55
437,90	1296,36
438,11	1255,40
438,31	1304,56
438,52	1273,84
438,72	1310,70
438,93	1247,21
439,13	1263,60
439,34	1243,12
439,54	1253,36
439,75	1351,66
439,95	1290,22
440,16	1286,12
440,36	1292,27
440,57	1265,64
440,77	1277,93
440,98	1298,41
441,18	1284,08
441,39	1351,66
441,59	1220,59
441,80	1243,12
442,00	1247,21
442,21	1282,03
442,41	1320,94
442,62	1290,22
442,82	1308,65
443,02	1306,60
443,23	1345,52
443,43	1286,12
443,64	1236,97
443,84	1306,60
444,05	1271,79
444,25	1263,60
444,46	1236,97
444,66	1267,69
444,87	1259,50
445,07	1304,56
445,28	1357,80
445,48	1208,30
445,69	1267,69
445,89	1206,25
446,09	1296,36
446,30	1275,88
446,50	1331,18
446,71	1261,55
446,91	1210,35
447,12	1286,12
447,32	1368,04
447,53	1261,55
447,73	1279,98
447,93	1249,26
448,14	1261,55
448,34	1329,13
448,55	1224,69
448,75	1220,59
448,96	1282,03
449,16	1239,02
449,36	1347,56
449,57	1251,31
449,77	1234,93
449,98	1224,69
450,18	1320,94
450,39	1335,28
450,59	1200,11
450,79	1261,55
451,00	1318,89
451,20	1306,60
451,41	1310,70
451,61	1300,46
451,81	1263,60
452,02	1320,94
452,22	1277,93
452,43	1298,41
452,63	1273,84
452,84	1243,12
453,04	1294,32
453,24	1292,27
453,45	1282,03
453,65	1288,17
453,86	1263,60
454,06	1261,55
454,26	1267,69
454,47	1284,08
454,67	1308,65
454,87	1265,64
455,08	1294,32
455,28	1331,18
455,49	1236,97
455,69	1277,93
455,89	1259,50
456,10	1333,23
456,30	1228,78
456,51	1165,29
456,71	1296,36
456,91	1302,51
457,12	1282,03
457,32	1296,36
457,52	1302,51
457,73	1218,54
457,93	1286,12
458,14	1304,56
458,34	1222,64
458,54	1239,02
458,75	1322,99
458,95	1318,89
459,15	1290,22
459,36	1220,59
459,56	1310,70
459,76	1284,08
459,97	1306,60
460,17	1257,45
460,37	1230,83
460,58	1273,84
460,78	1243,12
460,99	1306,60
461,19	1265,64
461,39	1308,65
461,60	1210,35
461,80	1327,08
462,00	1216,49
462,21	1329,13
462,41	1296,36
462,61	1236,97
462,82	1261,55
463,02	1216,49
463,22	1312,75
463,43	1169,39
463,63	1286,12
463,83	1277,93
464,04	1275,88
464,24	1247,21
464,44	1222,64
464,64	1298,41
464,85	1273,84
465,05	1275,88
465,25	1206,25
465,46	1261,55
465,66	1341,42
465,86	1292,27
466,07	1249,26
466,27	1263,60
466,47	1277,93
466,68	1279,98
466,88	1310,70
467,08	1257,45
467,29	1239,02
467,49	1288,17
467,69	1214,45
467,89	1261,55
468,10	1232,88
468,30	1314,80
468,50	1275,88
468,71	1327,08
468,91	1212,40
469,11	1312,75
469,31	1284,08
469,52	1251,31
469,72	1263,60
469,92	1243,12
470,13	1214,45
470,33	1210,35
470,53	1267,69
470,73	1306,60
470,94	1282,03
471,14	1269,74
471,34	1341,42
471,54	1290,22
471,75	1265,64
471,95	1361,90
472,15	1316,84
472,36	1165,29
472,56	1292,27
472,76	1271,79
472,96	1241,07
473,17	1249,26
473,37	1226,73
473,57	1314,80
473,77	1241,07
473,98	1243,12
474,18	1284,08
474,38	1257,45
474,58	1216,49
474,79	1265,64
474,99	1263,60
475,19	1290,22
475,39	1189,87
475,60	1230,83
475,80	1216,49
476,00	1226,73
476,20	1239,02
476,41	1269,74
476,61	1279,98
476,81	1282,03
477,01	1310,70
477,21	1271,79
477,42	1189,87
477,62	1322,99
477,82	1220,59
478,02	1206,25
478,23	1214,45
478,43	1288,17
478,63	1208,30
478,83	1247,21
479,03	1302,51
479,24	1325,04
479,44	1243,12
479,64	1273,84
479,84	1298,41
480,04	1255,40
480,25	1302,51
480,45	1288,17
480,65	1251,31
480,85	1261,55
481,06	1331,18
481,26	1224,69
481,46	1273,84
481,66	1302,51
481,86	1286,12
482,06	1304,56
482,27	1239,02
482,47	1290,22
482,67	1255,40
482,87	1249,26
483,07	1298,41
483,28	1220,59
483,48	1279,98
483,68	1267,69
483,88	1239,02
484,08	1245,16
484,29	1239,02
484,49	1269,74
484,69	1304,56
484,89	1247,21
485,09	1214,45
485,29	1239,02
485,50	1236,97
485,70	1259,50
485,90	1267,69
486,10	1269,74
486,30	1271,79
486,50	1312,75
486,71	1236,97
486,91	1251,31
487,11	1316,84
487,31	1306,60
487,51	1277,93
487,71	1294,32
487,91	1329,13
488,12	1292,27
488,32	1218,54
488,52	1296,36
488,72	1327,08
488,92	1247,21
489,12	1388,52
489,32	1298,41
489,53	1247,21
489,73	1226,73
489,93	1247,21
490,13	1241,07
490,33	1279,98
490,53	1282,03
490,73	1314,80
490,94	1318,89
491,14	1355,76
491,34	1187,82
491,54	1226,73
491,74	1318,89
491,94	1263,60
492,14	1273,84
492,34	1239,02
492,54	1263,60
492,75	1220,59
492,95	1329,13
493,15	1220,59
493,35	1277,93
493,55	1267,69
493,75	1245,16
493,95	1249,26
494,15	1314,80
494,35	1306,60
494,56	1294,32
494,76	1271,79
494,96	1257,45
495,16	1284,08
495,36	1216,49
495,56	1290,22
495,76	1325,04
495,96	1292,27
496,16	1257,45
496,36	1241,07
496,56	1335,28
496,77	1259,50
496,97	1265,64
497,17	1214,45
497,37	1284,08
497,57	1255,40
497,77	1306,60
497,97	1236,97
498,17	1312,75
498,37	1363,95
498,57	1355,76
498,77	1314,80
498,97	1247,21
499,17	1329,13
499,38	1320,94
499,58	1294,32
499,78	1355,76
499,98	1275,88
500,18	1290,22
500,38	1349,61
500,58	1290,22
500,78	1347,56
500,98	1290,22
501,18	1273,84
501,38	1261,55
501,58	1284,08
501,78	1236,97
501,98	1310,70
502,18	1269,74
502,38	1279,98
502,58	1335,28
502,78	1304,56
502,98	1296,36
503,18	1239,02
503,38	1228,78
503,59	1251,31
503,79	1288,17
503,99	1265,64
504,19	1320,94
504,39	1269,74
504,59	1271,79
504,79	1198,06
504,99	1245,16
505,19	1275,88
505,39	1302,51
505,59	1314,80
505,79	1296,36
505,99	1230,83
506,19	1271,79
506,39	1245,16
506,59	1351,66
506,79	1239,02
506,99	1214,45
507,19	1290,22
507,39	1241,07
507,59	1294,32
507,79	1327,08
507,99	1273,84
508,19	1273,84
508,39	1318,89
508,59	1275,88
508,79	1265,64
508,99	1269,74
509,19	1339,37
509,39	1304,56
509,59	1314,80
509,79	1175,53
509,99	1198,06
510,19	1265,64
510,39	1255,40
510,59	1337,32
510,79	1286,12
510,99	1322,99
511,19	1257,45
511,39	1322,99
511,59	1370,09
511,79	1273,84
511,99	1329,13
512,19	1277,93
512,38	1249,26
512,58	1265,64
512,78	1298,41
512,98	1230,83
513,18	1232,88
513,38	1310,70
513,58	1296,36
513,78	1275,88
513,98	1327,08
514,18	1284,08
514,38	1288,17
514,58	1243,12
514,78	1302,51
514,98	1351,66
515,18	1294,32
515,38	1294,32
515,58	1296,36
515,78	1298,41
515,98	1329,13
516,18	1306,60
516,38	1255,40
516,57	1200,11
516,77	1296,36
516,97	1253,36
517,17	1294,32
517,37	1382,38
517,57	1271,79
517,77	1257,45
517,97	1286,12
518,17	1249,26
518,37	1247,21
518,57	1333,23
518,77	1263,60
518,97	1290,22
519,16	1312,75
519,36	1214,45
519,56	1239,02
519,76	1279,98
519,96	1347,56
520,16	1257,45
520,36	1220,59
520,56	1290,22
520,76	1271,79
520,96	1259,50
521,16	1257,45
521,35	1361,90
521,55	1292,27
521,75	1345,52
521,95	1269,74
522,15	1312,75
522,35	1193,97
522,55	1286,12
522,75	1290,22
522,95	1257,45
523,14	1300,46
523,34	1243,12
523,54	1298,41
523,74	1304,56
523,94	1196,01
524,14	1236,97
524,34	1380,33
524,54	1294,32
524,73	1296,36
524,93	1296,36
525,13	1232,88
525,33	1236,97
525,53	1339,37
525,73	1294,32
525,93	1290,22
526,13	1263,60
526,32	1306,60
526,52	1320,94
526,72	1265,64
526,92	1361,90
527,12	1249,26
527,32	1329,13
527,52	1310,70
527,71	1320,94
527,91	1226,73
528,11	1267,69
528,31	1304,56
528,51	1257,45
528,71	1298,41
528,90	1239,02
529,10	1249,26
529,30	1310,70
529,50	1228,78
529,70	1253,36
529,90	1259,50
530,09	1236,97
530,29	1255,40
530,49	1249,26
530,69	1304,56
530,89	1325,04
531,09	1187,82
531,28	1282,03
531,48	1269,74
531,68	1304,56
531,88	1294,32
532,08	1312,75
532,28	1249,26
532,47	1241,07
532,67	1243,12
532,87	1271,79
533,07	1259,50
533,27	1349,61
533,46	1275,88
533,66	1273,84
533,86	1273,84
534,06	1279,98
534,26	1216,49
534,45	1366,00
534,65	1372,14
534,85	1232,88
535,05	1279,98
535,25	1292,27
535,44	1245,16
535,64	1329,13
535,84	1316,84
536,04	1183,73
536,24	1314,80
536,43	1245,16
536,63	1298,41
536,83	1275,88
537,03	1273,84
537,22	1241,07
537,42	1271,79
537,62	1222,64
537,82	1261,55
538,02	1269,74
538,21	1292,27
538,41	1322,99
538,61	1224,69
538,81	1245,16
539,00	1314,80
539,20	1306,60
539,40	1286,12
539,60	1292,27
539,79	1312,75
539,99	1206,25
540,19	1341,42
540,39	1284,08
540,58	1273,84
540,78	1333,23
540,98	1337,32
541,18	1306,60
541,37	1277,93
541,57	1222,64
541,77	1325,04
541,97	1269,74
542,16	1333,23
542,36	1236,97
542,56	1306,60
542,76	1312,75
542,95	1286,12
543,15	1236,97
543,35	1243,12
543,54	1306,60
543,74	1292,27
543,94	1243,12
544,14	1284,08
544,33	1294,32
544,53	1302,51
544,73	1277,93
544,93	1269,74
545,12	1345,52
545,32	1249,26
545,52	1257,45
545,71	1257,45
545,91	1265,64
546,11	1349,61
546,30	1300,46
546,50	1255,40
546,70	1275,88
546,90	1271,79
547,09	1275,88
547,29	1265,64
547,49	1282,03
547,68	1271,79
547,88	1308,65
548,08	1288,17
548,27	1341,42
548,47	1310,70
548,67	1241,07
548,87	1298,41
549,06	1255,40
549,26	1296,36
549,46	1310,70
549,65	1243,12
549,85	1298,41
550,05	1214,45
550,24	1224,69
550,44	1267,69
550,64	1355,76
550,83	1284,08
551,03	1290,22
551,23	1290,22
551,42	1343,47
551,62	1243,12
551,82	1241,07
552,01	1290,22
552,21	1333,23
552,41	1351,66
552,60	1210,35
552,80	1298,41
553,00	1210,35
553,19	1273,84
553,39	1327,08
553,59	1345,52
553,78	1265,64
553,98	1292,27
554,17	1253,36
554,37	1267,69
554,57	1286,12
554,76	1292,27
554,96	1298,41
555,16	1277,93
555,35	1271,79
555,55	1230,83
555,75	1263,60
555,94	1284,08
556,14	1267,69
556,33	1318,89
556,53	1271,79
556,73	1261,55
556,92	1327,08
557,12	1361,90
557,32	1318,89
557,51	1243,12
557,71	1294,32
557,90	1302,51
558,10	1245,16
558,30	1267,69
558,49	1298,41
558,69	1353,71
558,88	1318,89
559,08	1292,27
559,28	1329,13
559,47	1265,64
559,67	1251,31
559,86	1286,12
560,06	1247,21
560,26	1304,56
560,45	1261,55
560,65	1314,80
560,84	1230,83
561,04	1312,75
561,24	1284,08
561,43	1333,23
561,63	1263,60
561,82	1306,60
562,02	1329,13
562,22	1298,41
562,41	1271,79
562,61	1296,36
562,80	1288,17
563,00	1298,41
563,19	1288,17
563,39	1265,64
563,59	1296,36
563,78	1331,18
563,98	1249,26
564,17	1218,54
564,37	1290,22
564,56	1263,60
564,76	1296,36
564,96	1241,07
565,15	1306,60
565,35	1316,84
565,54	1269,74
565,74	1263,60
565,93	1286,12
566,13	1333,23
566,32	1288,17
566,52	1292,27
566,71	1208,30
566,91	1322,99
567,11	1286,12
567,30	1292,27
567,50	1224,69
567,69	1300,46
567,89	1204,21
568,08	1224,69
568,28	1210,35
568,47	1361,90
568,67	1257,45
568,86	1226,73
569,06	1255,40
569,25	1288,17
569,45	1288,17
569,64	1318,89
569,84	1239,02
570,04	1245,16
570,23	1327,08
570,43	1286,12
570,62	1277,93
570,82	1273,84
571,01	1239,02
571,21	1226,73
571,40	1204,21
571,60	1249,26
571,79	1286,12
571,99	1308,65
572,18	1292,27
572,38	1226,73
572,57	1212,40
572,77	1208,30
572,96	1282,03
573,16	1277,93
573,35	1236,97
573,55	1353,71
573,74	1282,03
573,94	1277,93
574,13	1267,69
574,33	1312,75
574,52	1277,93
574,71	1279,98
574,91	1298,41
575,10	1286,12
575,30	1372,14
575,49	1271,79
575,69	1277,93
575,88	1245,16
576,08	1269,74
576,27	1322,99
576,47	1355,76
576,66	1320,94
576,86	1236,97
577,05	1241,07
577,25	1271,79
577,44	1284,08
577,64	1277,93
577,83	1308,65
578,02	1232,88
578,22	1269,74
578,41	1300,46
578,61	1304,56
578,80	1253,36
579,00	1300,46
579,19	1284,08
579,39	1322,99
579,58	1300,46
579,77	1220,59
579,97	1255,40
580,16	1316,84
580,36	1243,12
580,55	1300,46
580,75	1243,12
580,94	1384,43
581,13	1325,04
581,33	1302,51
581,52	1284,08
581,72	1222,64
581,91	1239,02
582,11	1263,60
582,30	1290,22
582,49	1263,60
582,69	1257,45
582,88	1251,31
583,08	1300,46
583,27	1257,45
583,47	1294,32
583,66	1236,97
583,85	1243,12
584,05	1236,97
584,24	1351,66
584,44	1282,03
584,63	1249,26
584,82	1269,74
585,02	1253,36
585,21	1337,32
585,41	1288,17
585,60	1257,45
585,79	1294,32
585,99	1349,61
586,18	1306,60
586,37	1298,41
586,57	1322,99
586,76	1247,21
586,96	1290,22
587,15	1361,90
587,34	1279,98
587,54	1277,93
587,73	1271,79
587,93	1214,45
588,12	1257,45
588,31	1337,32
588,51	1341,42
588,70	1273,84
588,89	1290,22
589,09	1308,65
589,28	1206,25
589,47	1273,84
589,67	1253,36
589,86	1343,47
590,06	1259,50
590,25	1251,31
590,44	1232,88
590,64	1347,56
590,83	1216,49
591,02	1304,56
591,22	1271,79
591,41	1310,70
591,60	1255,40
591,80	1232,88
591,99	1253,36
592,18	1243,12
592,38	1263,60
592,57	1306,60
592,76	1294,32
592,96	1339,37
593,15	1378,28
593,34	1284,08
593,54	1296,36
593,73	1251,31
593,92	1234,93
594,12	1279,98
594,31	1316,84
594,50	1306,60
594,70	1241,07
594,89	1288,17
595,08	1245,16
595,28	1296,36
595,47	1304,56
595,66	1241,07
595,86	1261,55
596,05	1341,42
596,24	1314,80
596,43	1298,41
596,63	1249,26
596,82	1255,40
597,01	1361,90
597,21	1298,41
597,40	1277,93
597,59	1306,60
597,79	1265,64
597,98	1314,80
598,17	1300,46
598,36	1282,03
598,56	1310,70
598,75	1353,71
598,94	1263,60
599,14	1243,12
599,33	1320,94
599,52	1288,17
599,71	1218,54
599,91	1273,84
600,10	1279,98
600,29	1296,36
600,48	1284,08
600,68	1286,12
600,87	1290,22
601,06	1273,84
601,26	1286,12
601,45	1308,65
601,64	1298,41
601,83	1355,76
602,03	1314,80
602,22	1273,84
602,41	1308,65
602,60	1257,45
602,80	1302,51
602,99	1265,64
603,18	1322,99
603,37	1261,55
603,57	1290,22
603,76	1277,93
603,95	1263,60
604,14	1331,18
604,34	1263,60
604,53	1296,36
604,72	1361,90
604,91	1294,32
605,10	1251,31
605,30	1277,93
605,49	1243,12
605,68	1331,18
605,87	1304,56
606,07	1331,18
606,26	1292,27
606,45	1316,84
606,64	1329,13
606,84	1226,73
607,03	1308,65
607,22	1247,21
607,41	1255,40
607,60	1294,32
607,80	1341,42
607,99	1306,60
608,18	1257,45
608,37	1275,88
608,56	1232,88
608,76	1284,08
608,95	1302,51
609,14	1247,21
609,33	1300,46
609,52	1247,21
609,72	1325,04
609,91	1265,64
610,10	1253,36
610,29	1355,76
610,48	1292,27
610,68	1282,03
610,87	1257,45
611,06	1279,98
611,25	1277,93
611,44	1335,28
611,63	1294,32
611,83	1325,04
612,02	1300,46
612,21	1390,57
612,40	1239,02
612,59	1243,12
612,79	1259,50
612,98	1329,13
613,17	1273,84
613,36	1241,07
613,55	1312,75
613,74	1331,18
613,93	1265,64
614,13	1239,02
614,32	1306,60
614,51	1230,83
614,70	1259,50
614,89	1251,31
615,08	1183,73
615,28	1304,56
615,47	1329,13
615,66	1298,41
615,85	1298,41
616,04	1314,80
616,23	1218,54
616,42	1325,04
616,62	1361,90
616,81	1251,31
617,00	1347,56
617,19	1310,70
617,38	1286,12
617,57	1245,16
617,76	1284,08
617,95	1255,40
618,15	1292,27
618,34	1349,61
618,53	1241,07
618,72	1357,80
618,91	1353,71
619,10	1271,79
619,29	1269,74
619,48	1222,64
619,68	1388,52
619,87	1193,97
620,06	1296,36
620,25	1265,64
620,44	1304,56
620,63	1308,65
620,82	1349,61
621,01	1249,26
621,20	1325,04
621,39	1239,02
621,59	1327,08
621,78	1210,35
621,97	1325,04
622,16	1361,90
622,35	1261,55
622,54	1298,41
622,73	1361,90
622,92	1290,22
623,11	1277,93
623,30	1347,56
623,49	1265,64
623,68	1343,47
623,88	1282,03
624,07	1339,37
624,26	1257,45
624,45	1271,79
624,64	1292,27
624,83	1269,74
625,02	1286,12
625,21	1177,58
625,40	1298,41
625,59	1329,13
625,78	1265,64
625,97	1370,09
626,16	1306,60
626,35	1236,97
626,54	1261,55
626,74	1351,66
626,93	1275,88
627,12	1259,50
627,31	1273,84
627,50	1353,71
627,69	1302,51
627,88	1261,55
628,07	1230,83
628,26	1296,36
628,45	1279,98
628,64	1310,70
628,83	1169,39
629,02	1298,41
629,21	1243,12
629,40	1245,16
629,59	1282,03
629,78	1249,26
629,97	1273,84
630,16	1236,97
630,35	1251,31
630,54	1298,41
630,73	1218,54
630,92	1382,38
631,11	1312,75
631,30	1269,74
631,49	1286,12
631,68	1316,84
631,87	1331,18
632,06	1533,93
632,25	1366,00
632,44	1462,25
632,63	1398,76
632,82	1355,76
633,01	1366,00
633,20	1462,25
633,39	1486,83
633,58	1460,20
633,77	1406,95
633,96	1560,55
634,15	1503,21
634,34	2019,30
634,53	2465,75
634,72	1765,35
634,91	1497,07
635,10	1624,04
635,29	2138,08
635,48	2564,06
635,67	2648,02
635,86	2361,31
636,05	2093,02
636,24	1726,44
636,43	1681,38
636,62	1445,87
636,81	1417,19
637,00	1363,95
637,19	1394,67
637,38	1386,47
637,57	1347,56
637,76	1394,67
637,95	1271,79
638,14	1349,61
638,33	1275,88
638,52	1228,78
638,71	1259,50
638,89	1273,84
639,08	1269,74
639,27	1255,40
639,46	1335,28
639,65	1351,66
639,84	1273,84
640,03	1302,51
640,22	1292,27
640,41	1335,28
640,60	1302,51
640,79	1304,56
640,98	1232,88
641,17	1271,79
641,36	1259,50
641,55	1236,97
641,74	1265,64
641,92	1224,69
642,11	1279,98
642,30	1288,17
642,49	1306,60
642,68	1228,78
642,87	1331,18
643,06	1306,60
643,25	1230,83
643,44	1222,64
643,63	1312,75
643,82	1292,27
644,00	1286,12
644,19	1292,27
644,38	1277,93
644,57	1339,37
644,76	1300,46
644,95	1239,02
645,14	1204,21
645,33	1230,83
645,52	1224,69
645,71	1273,84
645,89	1253,36
646,08	1245,16
646,27	1241,07
646,46	1249,26
646,65	1279,98
646,84	1288,17
647,03	1271,79
647,22	1341,42
647,40	1212,40
647,59	1226,73
647,78	1228,78
647,97	1292,27
648,16	1232,88
648,35	1294,32
648,54	1261,55
648,73	1376,24
648,91	1251,31
649,10	1269,74
649,29	1290,22
649,48	1239,02
649,67	1267,69
649,86	1267,69
650,05	1288,17
650,23	1312,75
650,42	1177,58
650,61	1279,98
650,80	1335,28
650,99	1279,98
651,18	1322,99
651,36	1267,69
651,55	1255,40
651,74	1265,64
651,93	1294,32
652,12	1275,88
652,31	1300,46
652,49	1257,45
652,68	1271,79
652,87	1318,89
653,06	1241,07
653,25	1257,45
653,44	1208,30
653,62	1239,02
653,81	1230,83
654,00	1239,02
654,19	1335,28
654,38	1310,70
654,56	1261,55
654,75	1318,89
654,94	1216,49
655,13	1243,12
655,32	1325,04
655,51	1239,02
655,69	1261,55
655,88	1236,97
656,07	1292,27
656,26	1241,07
656,45	1239,02
656,63	1241,07
656,82	1277,93
657,01	1310,70
657,20	1224,69
657,38	1241,07
657,57	1298,41
657,76	1302,51
657,95	1335,28
658,14	1251,31
658,32	1245,16
658,51	1269,74
658,70	1249,26
658,89	1271,79
659,08	1191,92
659,26	1255,40
659,45	1261,55
659,64	1243,12
659,83	1224,69
660,01	1322,99
660,20	1251,31
660,39	1320,94
660,58	1292,27
660,76	1263,60
660,95	1253,36
661,14	1286,12
661,33	1263,60
661,51	1249,26
661,70	1222,64
661,89	1267,69
662,08	1218,54
662,26	1239,02
662,45	1228,78
662,64	1325,04
662,83	1249,26
663,01	1222,64
663,20	1259,50
663,39	1300,46
663,58	1257,45
663,76	1277,93
663,95	1271,79
664,14	1251,31
664,32	1331,18
664,51	1247,21
664,70	1284,08
664,89	1298,41
665,07	1216,49
665,26	1277,93
665,45	1269,74
665,64	1220,59
665,82	1308,65
666,01	1322,99
666,20	1216,49
666,38	1335,28
666,57	1253,36
666,76	1320,94
666,95	1234,93
667,13	1239,02
667,32	1249,26
667,51	1230,83
667,69	1234,93
667,88	1310,70
668,07	1208,30
668,25	1273,84
668,44	1288,17
668,63	1226,73
668,81	1300,46
669,00	1347,56
669,19	1249,26
669,38	1318,89
669,56	1259,50
669,75	1292,27
669,94	1259,50
670,12	1310,70
670,31	1259,50
670,50	1269,74
670,68	1236,97
670,87	1196,01
671,06	1349,61
671,24	1191,92
671,43	1318,89
671,62	1318,89
671,80	1241,07
671,99	1282,03
672,18	1265,64
672,36	1331,18
672,55	1271,79
672,74	1308,65
672,92	1196,01
673,11	1247,21
673,29	1327,08
673,48	1292,27
673,67	1265,64
673,85	1345,52
674,04	1236,97
674,23	1267,69
674,41	1239,02
674,60	1253,36
674,79	1257,45
674,97	1273,84
675,16	1312,75
675,34	1290,22
675,53	1304,56
675,72	1253,36
675,90	1241,07
676,09	1236,97
676,28	1271,79
676,46	1304,56
676,65	1255,40
676,83	1226,73
677,02	1302,51
677,21	1296,36
677,39	1284,08
677,58	1275,88
677,77	1249,26
677,95	1312,75
678,14	1359,85
678,32	1327,08
678,51	1257,45
678,70	1300,46
678,88	1224,69
679,07	1253,36
679,25	1228,78
679,44	1290,22
679,63	1265,64
679,81	1239,02
680,00	1245,16
680,18	1253,36
680,37	1269,74
680,55	1296,36
680,74	1239,02
680,93	1310,70
681,11	1294,32
681,30	1271,79
681,48	1222,64
681,67	1193,97
681,85	1263,60
682,04	1279,98
682,23	1296,36
682,41	1271,79
682,60	1222,64
682,78	1282,03
682,97	1243,12
683,15	1253,36
683,34	1232,88
683,53	1253,36
683,71	1282,03
683,90	1292,27
684,08	1214,45
684,27	1239,02
684,45	1257,45
684,64	1298,41
684,82	1249,26
685,01	1341,42
685,19	1253,36
685,38	1271,79
685,57	1294,32
685,75	1282,03
685,94	1198,06
686,12	1298,41
686,31	1204,21
686,49	1241,07
686,68	1224,69
686,86	1255,40
687,05	1265,64
687,23	1198,06
687,42	1241,07
687,60	1232,88
687,79	1247,21
687,97	1290,22
688,16	1259,50
688,34	1343,47
688,53	1243,12
688,71	1282,03
688,90	1302,51
689,08	1275,88
689,27	1271,79
689,45	1306,60
689,64	1294,32
689,82	1306,60
690,01	1247,21
690,19	1257,45
690,38	1308,65
690,56	1296,36
690,75	1286,12
690,93	1261,55
691,12	1308,65
691,30	1261,55
691,49	1273,84
691,67	1271,79
691,86	1339,37
692,04	1255,40
692,23	1259,50
692,41	1302,51
692,60	1255,40
692,78	1320,94
692,97	1249,26
693,15	1304,56
693,34	1341,42
693,52	1208,30
693,71	1243,12
693,89	1284,08
694,08	1286,12
694,26	1314,80
694,44	1212,40
694,63	1265,64
694,81	1310,70
695,00	1208,30
695,18	1255,40
695,37	1277,93
695,55	1312,75
695,74	1239,02
695,92	1255,40
696,10	1306,60
696,29	1255,40
696,47	1318,89
696,66	1310,70
696,84	1247,21
697,03	1261,55
697,21	1284,08
697,40	1316,84
697,58	1318,89
697,76	1232,88
697,95	1320,94
698,13	1320,94
698,32	1222,64
698,50	1304,56
698,68	1335,28
698,87	1261,55
699,05	1241,07
699,24	1320,94
699,42	1320,94
699,61	1236,97
699,79	1275,88
699,97	1214,45
700,16	1304,56
700,34	1279,98
700,53	1290,22
700,71	1273,84
700,89	1259,50
701,08	1253,36
701,26	1247,21
701,45	1284,08
701,63	1277,93
701,81	1200,11
702,00	1249,26
702,18	1341,42
702,37	1267,69
702,55	1222,64
702,73	1255,40
702,92	1337,32
703,10	1228,78
703,28	1286,12
703,47	1210,35
703,65	1292,27
703,84	1329,13
704,02	1290,22
704,20	1320,94
704,39	1206,25
704,57	1228,78
704,75	1290,22
704,94	1341,42
705,12	1245,16
705,30	1314,80
705,49	1210,35
705,67	1257,45
705,86	1245,16
706,04	1314,80
706,22	1300,46
706,41	1288,17
706,59	1261,55
706,77	1298,41
706,96	1214,45
707,14	1286,12
707,32	1261,55
707,51	1306,60
707,69	1261,55
707,87	1265,64
708,06	1370,09
708,24	1366,00
708,42	1282,03
708,61	1249,26
708,79	1310,70
708,97	1261,55
709,16	1226,73
709,34	1249,26
709,52	1310,70
709,71	1269,74
709,89	1255,40
710,07	1337,32
710,26	1251,31
710,44	1273,84
710,62	1327,08
710,80	1306,60
710,99	1243,12
711,17	1298,41
711,35	1302,51
711,54	1263,60
711,72	1236,97
711,90	1247,21
712,09	1359,85
712,27	1253,36
712,45	1333,23
712,63	1298,41
712,82	1247,21
713,00	1302,51
713,18	1212,40
713,37	1312,75
713,55	1308,65
713,73	1363,95
713,91	1265,64
714,10	1249,26
714,28	1269,74
714,46	1273,84
714,65	1298,41
714,83	1257,45
715,01	1261,55
715,19	1239,02
715,38	1257,45
715,56	1253,36
715,74	1241,07
715,92	1267,69
716,11	1191,92
716,29	1232,88
716,47	1290,22
716,65	1335,28
716,84	1253,36
717,02	1236,97
717,20	1284,08
717,38	1361,90
717,57	1290,22
717,75	1279,98
717,93	1263,60
718,11	1257,45
718,30	1173,49
718,48	1333,23
718,66	1236,97
718,84	1241,07
719,03	1236,97
719,21	1288,17
719,39	1302,51
719,57	1257,45
719,75	1249,26
719,94	1308,65
720,12	1245,16
720,30	1306,60
720,48	1249,26
720,67	1279,98
720,85	1265,64
721,03	1263,60
721,21	1271,79
721,39	1288,17
721,58	1312,75
721,76	1279,98
721,94	1290,22
722,12	1273,84
722,30	1251,31
722,49	1333,23
722,67	1296,36
722,85	1333,23
723,03	1271,79
723,21	1292,27
723,40	1220,59
723,58	1249,26
723,76	1275,88
723,94	1284,08
724,12	1277,93
724,30	1257,45
724,49	1284,08
724,67	1232,88
724,85	1290,22
725,03	1290,22
725,21	1296,36
725,40	1275,88
725,58	1269,74
725,76	1277,93
725,94	1243,12
726,12	1314,80
726,30	1245,16
726,49	1232,88
726,67	1257,45
726,85	1245,16
727,03	1251,31
727,21	1239,02
727,39	1228,78
727,57	1312,75
727,76	1230,83
727,94	1263,60
728,12	1249,26
728,30	1226,73
728,48	1331,18
728,66	1247,21
728,84	1146,86
729,03	1349,61
729,21	1241,07
729,39	1255,40
729,57	1251,31
729,75	1312,75
729,93	1193,97
730,11	1183,73
730,30	1277,93
730,48	1216,49
730,66	1284,08
730,84	1222,64
731,02	1247,21
731,20	1271,79
731,38	1261,55
731,56	1267,69
731,74	1257,45
731,93	1259,50
732,11	1345,52
732,29	1228,78
732,47	1298,41
732,65	1224,69
732,83	1253,36
733,01	1296,36
733,19	1277,93
733,37	1353,71
733,56	1284,08
733,74	1349,61
733,92	1239,02
734,10	1267,69
734,28	1212,40
734,46	1200,11
734,64	1273,84
734,82	1263,60
735,00	1282,03
735,18	1208,30
735,36	1282,03
735,54	1228,78
735,73	1292,27
735,91	1290,22
736,09	1222,64
736,27	1255,40
736,45	1236,97
736,63	1257,45
736,81	1255,40
736,99	1298,41
737,17	1290,22
737,35	1273,84
737,53	1253,36
737,71	1263,60
737,89	1247,21
738,07	1269,74
738,25	1163,25
738,43	1220,59
738,61	1286,12
738,80	1277,93
738,98	1222,64
739,16	1267,69
739,34	1228,78
739,52	1210,35
739,70	1273,84
739,88	1288,17
740,06	1271,79
740,24	1310,70
740,42	1331,18
740,60	1251,31
740,78	1288,17
740,96	1239,02
741,14	1282,03
741,32	1279,98
741,50	1232,88
741,68	1275,88
741,86	1269,74
742,04	1263,60
742,22	1253,36
742,40	1314,80
742,58	1251,31
742,76	1249,26
742,94	1269,74
743,12	1279,98
743,30	1208,30
743,48	1239,02
743,66	1314,80
743,84	1241,07
744,02	1294,32
744,20	1296,36
744,38	1318,89
744,56	1265,64
744,74	1239,02
744,92	1273,84
745,10	1243,12
745,28	1253,36
745,46	1208,30
745,64	1290,22
745,82	1234,93
746,00	1304,56
746,18	1286,12
746,36	1273,84
746,54	1306,60
746,72	1271,79
746,90	1265,64
747,08	1241,07
747,26	1249,26
747,44	1310,70
747,62	1312,75
747,80	1267,69
747,98	1253,36
748,15	1241,07
748,33	1288,17
748,51	1161,20
748,69	1355,76
748,87	1298,41
749,05	1308,65
749,23	1255,40
749,41	1249,26
749,59	1302,51
749,77	1282,03
749,95	1288,17
750,13	1314,80
750,31	1216,49
750,49	1247,21
750,67	1241,07
750,85	1325,04
751,03	1279,98
751,20	1263,60
751,38	1216,49
751,56	1327,08
751,74	1236,97
751,92	1189,87
752,10	1290,22
752,28	1212,40
752,46	1198,06
752,64	1302,51
752,82	1247,21
753,00	1302,51
753,18	1232,88
753,35	1267,69
753,53	1259,50
753,71	1177,58
753,89	1249,26
754,07	1310,70
754,25	1366,00
754,43	1161,20
754,61	1265,64
754,79	1335,28
754,97	1314,80
755,14	1255,40
755,32	1273,84
755,50	1335,28
755,68	1267,69
755,86	1290,22
756,04	1306,60
756,22	1206,25
756,40	1429,48
756,57	1236,97
756,75	1277,93
756,93	1247,21
757,11	1263,60
757,29	1191,92
757,47	1273,84
757,65	1245,16
757,82	1257,45
758,00	1245,16
758,18	1247,21
758,36	1296,36
758,54	1263,60
758,72	1230,83
758,90	1232,88
759,07	1255,40
759,25	1214,45
759,43	1312,75
759,61	1247,21
759,79	1263,60
759,97	1232,88
760,15	1255,40
760,32	1230,83
760,50	1212,40
760,68	1265,64
760,86	1226,73
761,04	1251,31
761,22	1234,93
761,39	1267,69
761,57	1288,17
761,75	1255,40
761,93	1261,55
762,11	1290,22
762,28	1236,97
762,46	1234,93
762,64	1294,32
762,82	1306,60
763,00	1282,03
763,18	1275,88
763,35	1198,06
763,53	1265,64
763,71	1261,55
763,89	1318,89
764,07	1288,17
764,24	1267,69
764,42	1245,16
764,60	1239,02
764,78	1261,55
764,96	1255,40
765,13	1257,45
765,31	1216,49
765,49	1271,79
765,67	1230,83
765,84	1316,84
766,02	1306,60
766,20	1279,98
766,38	1239,02
766,56	1284,08
766,73	1286,12
766,91	1286,12
767,09	1273,84
767,27	1263,60
767,44	1292,27
767,62	1298,41
767,80	1236,97
767,98	1261,55
768,15	1226,73
768,33	1243,12
768,51	1253,36
768,69	1249,26
768,87	1251,31
769,04	1255,40
769,22	1296,36
769,40	1333,23
769,58	1253,36
769,75	1191,92
769,93	1298,41
770,11	1241,07
770,28	1318,89
770,46	1277,93
770,64	1277,93
770,82	1298,41
770,99	1292,27
771,17	1269,74
771,35	1345,52
771,53	1251,31
771,70	1239,02
771,88	1216,49
772,06	1222,64
772,23	1241,07
772,41	1257,45
772,59	1230,83
772,77	1239,02
772,94	1249,26
773,12	1320,94
773,30	1308,65
773,47	1300,46
773,65	1224,69
773,83	1212,40
774,01	1300,46
774,18	1253,36
774,36	1271,79
774,54	1320,94
774,71	1185,77
774,89	1300,46
775,07	1239,02
775,24	1316,84
775,42	1304,56
775,60	1230,83
775,78	1241,07
775,95	1245,16
776,13	1271,79
776,31	1277,93
776,48	1347,56
776,66	1273,84
776,84	1255,40
777,01	1279,98
777,19	1294,32
777,37	1224,69
777,54	1374,19
777,72	1265,64
777,90	1234,93
778,07	1314,80
778,25	1259,50
778,43	1224,69
778,60	1290,22
778,78	1236,97
778,96	1308,65
779,13	1302,51
779,31	1247,21
779,49	1261,55
779,66	1208,30
779,84	1337,32
780,01	1255,40
780,19	1198,06
780,37	1288,17
780,54	1263,60
780,72	1218,54
780,90	1322,99
781,07	1251,31
781,25	1236,97
781,43	1257,45
781,60	1286,12
781,78	1200,11
781,95	1265,64
782,13	1257,45
782,31	1224,69
782,48	1269,74
782,66	1312,75
782,83	1251,31
783,01	1312,75
783,19	1220,59
783,36	1271,79
783,54	1284,08
783,72	1290,22
783,89	1302,51
784,07	1245,16
784,24	1261,55
784,42	1230,83
784,60	1230,83
784,77	1282,03
784,95	1230,83
785,12	1271,79
785,30	1282,03
785,47	1259,50
785,65	1247,21
785,83	1296,36
786,00	1159,15
786,18	1212,40
786,35	1263,60
786,53	1273,84
786,71	1263,60
786,88	1400,81
787,06	1234,93
787,23	1249,26
787,41	1232,88
787,58	1275,88
787,76	1329,13
787,94	1232,88
788,11	1232,88
788,29	1267,69
788,46	1245,16
788,64	1191,92
788,81	1222,64
788,99	1288,17
789,16	1316,84
789,34	1279,98
789,52	1249,26
789,69	1265,64
789,87	1279,98
790,04	1304,56
790,22	1245,16
790,39	1286,12
790,57	1206,25
790,74	1269,74
790,92	1267,69
791,09	1290,22
791,27	1228,78
791,44	1187,82
791,62	1257,45
791,79	1277,93
791,97	1282,03
792,15	1245,16
792,32	1236,97
792,50	1255,40
792,67	1261,55
792,85	1267,69
793,02	1286,12
793,20	1269,74
793,37	1308,65
793,55	1288,17
793,72	1273,84
793,90	1232,88
794,07	1314,80
794,25	1298,41
794,42	1282,03
794,60	1341,42
794,77	1300,46
794,95	1292,27
795,12	1261,55
795,30	1275,88
795,47	1234,93
795,65	1296,36
795,82	1310,70
796,00	1257,45
796,17	1304,56
796,34	1265,64
796,52	1308,65
796,69	1210,35
796,87	1208,30
797,04	1294,32
797,22	1302,51
797,39	1271,79
797,57	1245,16
797,74	1273,84
797,92	1220,59
798,09	1245,16
798,27	1241,07
798,44	1228,78
798,62	1210,35
798,79	1322,99
798,96	1210,35
799,14	1251,31
799,31	1273,84
799,49	1251,31
799,66	1294,32
799,84	1298,41
800,01	1206,25
800,19	1355,76
800,36	1210,35
800,53	1275,88
800,71	1185,77
800,88	1232,88
801,06	1282,03
801,23	1259,50
801,41	1224,69
801,58	1183,73
801,75	1290,22
801,93	1239,02
802,10	1357,80
802,28	1294,32
802,45	1259,50
802,63	1200,11
802,80	1210,35
802,97	1284,08
803,15	1269,74
803,32	1232,88
803,50	1306,60
803,67	1333,23
803,84	1322,99
804,02	1310,70
804,19	1314,80
804,37	1292,27
804,54	1247,21
804,71	1279,98
804,89	1331,18
805,06	1282,03
805,24	1355,76
805,41	1269,74
805,58	1361,90
805,76	1302,51
805,93	1236,97
806,10	1212,40
806,28	1224,69
806,45	1261,55
806,63	1265,64
806,80	1173,49
806,97	1308,65
807,15	1243,12
807,32	1298,41
807,49	1214,45
807,67	1177,58
807,84	1271,79
808,01	1310,70
808,19	1220,59
808,36	1302,51
808,54	1259,50
808,71	1275,88
808,88	1257,45
809,06	1273,84
809,23	1318,89
809,40	1245,16
809,58	1263,60
809,75	1245,16
809,92	1300,46
810,10	1312,75
810,27	1169,39
810,44	1208,30
810,62	1304,56
810,79	1210,35
810,96	1257,45
811,14	1282,03
811,31	1322,99
811,48	1218,54
811,66	1290,22
811,83	1212,40
812,00	1290,22
812,18	1263,60
812,35	1259,50
812,52	1271,79
812,69	1198,06
812,87	1239,02
813,04	1271,79
813,21	1290,22
813,39	1318,89
813,56	1259,50
813,73	1288,17
813,91	1296,36
814,08	1228,78
814,25	1282,03
814,42	1298,41
814,60	1327,08
814,77	1329,13
814,94	1273,84
815,12	1222,64
815,29	1277,93
815,46	1236,97
815,63	1312,75
815,81	1236,97
815,98	1261,55
816,15	1259,50
816,33	1228,78
816,50	1269,74
816,67	1263,60
816,84	1249,26
817,02	1300,46
817,19	1288,17
817,36	1337,32
817,53	1251,31
817,71	1273,84
817,88	1318,89
818,05	1167,34
818,22	1331,18
818,40	1312,75
818,57	1310,70
818,74	1282,03
818,91	1282,03
819,09	1214,45
819,26	1216,49
819,43	1286,12
819,60	1234,93
819,78	1337,32
819,95	1253,36
820,12	1249,26
820,29	1271,79
820,47	1226,73
820,64	1253,36
820,81	1236,97
820,98	1224,69
821,15	1282,03
821,33	1306,60
821,50	1249,26
821,67	1222,64
821,84	1279,98
822,02	1292,27
822,19	1255,40
822,36	1277,93
822,53	1302,51
822,70	1200,11
822,88	1200,11
823,05	1216,49
823,22	1206,25
823,39	1325,04
823,56	1243,12
823,74	1271,79
823,91	1347,56
824,08	1200,11
824,25	1269,74
824,42	1277,93
824,60	1228,78
824,77	1249,26
824,94	1247,21
825,11	1269,74
825,28	1206,25
825,45	1271,79
825,63	1288,17
825,80	1296,36
825,97	1189,87
826,14	1198,06
826,31	1243,12
826,48	1259,50
826,66	1314,80
826,83	1282,03
827,00	1310,70
827,17	1265,64
827,34	1275,88
827,51	1288,17
827,69	1200,11
827,86	1206,25
828,03	1271,79
828,20	1331,18
828,37	1357,80
828,54	1304,56
828,71	1220,59
828,89	1271,79
829,06	1204,21
829,23	1329,13
829,40	1263,60
829,57	1228,78
829,74	1298,41
829,91	1286,12
830,09	1247,21
830,26	1282,03
830,43	1300,46
830,60	1335,28
830,77	1236,97
830,94	1251,31
831,11	1282,03
831,28	1245,16
831,46	1234,93
831,63	1265,64
831,80	1306,60
831,97	1263,60
832,14	1331,18
832,31	1275,88
832,48	1265,64
832,65	1255,40
832,82	1267,69
832,99	1277,93
833,17	1251,31
833,34	1251,31
833,51	1230,83
833,68	1294,32
833,85	1286,12
834,02	1232,88
834,19	1245,16
834,36	1128,43
834,53	1228,78
834,70	1300,46
834,87	1290,22
835,04	1222,64
835,22	1296,36
835,39	1234,93
835,56	1257,45
835,73	1255,40
835,90	1296,36
836,07	1241,07
836,24	1257,45
836,41	1247,21
836,58	1224,69
836,75	1251,31
836,92	1243,12
837,09	1148,91
837,26	1222,64
837,43	1261,55
837,60	1253,36
837,77	1251,31
837,94	1310,70
838,12	1269,74
838,29	1265,64
838,46	1271,79
838,63	1337,32
838,80	1253,36
838,97	1288,17
839,14	1159,15
839,31	1273,84
839,48	1351,66
839,65	1302,51
839,82	1241,07
839,99	1212,40
840,16	1222,64
840,33	1236,97
840,50	1273,84
840,67	1222,64
840,84	1259,50
841,01	1312,75
841,18	1306,60
841,35	1255,40
841,52	1286,12
841,69	1206,25
841,86	1269,74
842,03	1236,97
842,20	1298,41
842,37	1284,08
842,54	1329,13
842,71	1236,97
842,88	1327,08
843,05	1255,40
843,22	1304,56
843,39	1355,76
843,56	1251,31
843,73	1216,49
843,90	1322,99
844,07	1243,12
844,24	1253,36
844,41	1245,16
844,58	1249,26
844,75	1204,21
844,92	1279,98
845,09	1277,93
845,26	1259,50
845,43	1304,56
845,60	1247,21
845,77	1257,45
845,94	1282,03
846,10	1292,27
846,27	1249,26
846,44	1218,54
846,61	1327,08
846,78	1306,60
846,95	1245,16
847,12	1265,64
847,29	1269,74
847,46	1208,30
847,63	1271,79
847,80	1243,12
847,97	1277,93
848,14	1322,99
848,31	1290,22
848,48	1146,86
848,65	1239,02
848,82	1261,55
848,98	1277,93
849,15	1290,22
849,32	1308,65
849,49	1298,41
849,66	1300,46
849,83	1267,69
850,00	1316,84
850,17	1277,93
850,34	1318,89
850,51	1239,02
850,68	1198,06
850,85	1279,98
851,01	1275,88
851,18	1230,83
851,35	1263,60
851,52	1300,46
851,69	1271,79
851,86	1224,69
852,03	1290,22
852,20	1267,69
852,37	1222,64
852,53	1271,79
852,70	1322,99
852,87	1265,64
853,04	1271,79
853,21	1275,88
853,38	1279,98
853,55	1269,74
853,72	1234,93
853,89	1226,73
854,05	1245,16
854,22	1279,98
854,39	1325,04
854,56	1327,08
854,73	1200,11
854,90	1157,10
855,07	1257,45
855,23	1263,60
855,40	1263,60
855,57	1331,18
855,74	1339,37
855,91	1212,40
856,08	1288,17
856,25	1298,41
856,41	1294,32
856,58	1302,51
856,75	1267,69
856,92	1241,07
857,09	1259,50
857,26	1253,36
857,42	1232,88
857,59	1198,06
857,76	1306,60
857,93	1292,27
858,10	1255,40
858,27	1288,17
858,43	1273,84
858,60	1249,26
858,77	1275,88
858,94	1282,03
859,11	1232,88
859,27	1279,98
859,44	1249,26
859,61	1232,88
859,78	1331,18
859,95	1269,74
860,12	1216,49
860,28	1224,69
860,45	1339,37
860,62	1241,07
860,79	1286,12
860,95	1224,69
861,12	1259,50
861,29	1222,64
861,46	1316,84
861,63	1304,56
861,79	1232,88
861,96	1163,25
862,13	1318,89
862,30	1312,75
862,47	1232,88
862,63	1304,56
862,80	1251,31
862,97	1220,59
863,14	1343,47
863,30	1294,32
863,47	1308,65
863,64	1277,93
863,81	1232,88
863,97	1294,32
864,14	1265,64
864,31	1300,46
864,48	1310,70
864,65	1265,64
864,81	1261,55
864,98	1243,12
865,15	1277,93
865,32	1269,74
865,48	1355,76
865,65	1347,56
865,82	1255,40
865,98	1212,40
866,15	1286,12
866,32	1333,23
866,49	1288,17
866,65	1341,42
866,82	1261,55
866,99	1288,17
867,16	1290,22
867,32	1275,88
867,49	1247,21
867,66	1220,59
867,83	1308,65
867,99	1282,03
868,16	1275,88
868,33	1259,50
868,49	1222,64
868,66	1261,55
868,83	1294,32
868,99	1269,74
869,16	1271,79
869,33	1290,22
869,50	1286,12
869,66	1232,88
869,83	1335,28
870,00	1288,17
870,16	1232,88
870,33	1216,49
870,50	1247,21
870,66	1314,80
870,83	1341,42
871,00	1261,55
871,17	1312,75
871,33	1286,12
871,50	1282,03
871,67	1187,82
871,83	1206,25
872,00	1310,70
872,17	1239,02
872,33	1218,54
872,50	1202,16
872,67	1230,83
872,83	1275,88
873,00	1239,02
873,17	1327,08
873,33	1247,21
873,50	1251,31
873,67	1288,17
873,83	1345,52
874,00	1361,90
874,16	1265,64
874,33	1314,80
874,50	1230,83
874,66	1327,08
874,83	1273,84
875,00	1304,56
875,16	1273,84
875,33	1349,61
875,50	1298,41
875,66	1300,46
875,83	1263,60
875,99	1288,17
876,16	1275,88
876,33	1284,08
876,49	1273,84
876,66	1279,98
876,83	1257,45
876,99	1304,56
877,16	1325,04
877,32	1331,18
877,49	1288,17
877,66	1290,22
877,82	1368,04
877,99	1304,56
878,15	1304,56
878,32	1224,69
878,49	1255,40
878,65	1210,35
878,82	1273,84
878,98	1247,21
879,15	1316,84
879,32	1355,76
879,48	1222,64
879,65	1228,78
879,81	1216,49
879,98	1253,36
880,15	1236,97
880,31	1308,65
880,48	1306,60
880,64	1236,97
880,81	1279,98
880,97	1269,74
881,14	1279,98
881,31	1288,17
881,47	1298,41
881,64	1300,46
881,80	1308,65
881,97	1230,83
882,13	1292,27
882,30	1222,64
882,47	1306,60
882,63	1282,03
882,80	1263,60
882,96	1220,59
883,13	1243,12
883,29	1150,96
883,46	1310,70
883,62	1286,12
883,79	1267,69
883,95	1265,64
884,12	1282,03
884,29	1300,46
884,45	1296,36
884,62	1300,46
884,78	1185,77
884,95	1269,74
885,11	1224,69
885,28	1216,49
885,44	1257,45
885,61	1273,84
885,77	1279,98
885,94	1279,98
886,10	1322,99
886,27	1210,35
886,43	1290,22
886,60	1253,36
886,76	1282,03
886,93	1236,97
887,09	1333,23
887,26	1290,22
887,42	1275,88
887,59	1269,74
887,75	1300,46
887,92	1208,30
888,08	1249,26
888,25	1271,79
888,41	1290,22
888,58	1216,49
888,74	1294,32
888,91	1277,93
>>>>>End Processed Spectral Data<<<<<
