SpectraSuite Data File
++++++++++++++++++++++++++++++++++++
Date: Sun Apr 03 19:55:36 CEST 2016
User: root
Dark Spectrum Present: No
Reference Spectrum Present: No
Number of Sampled Component Spectra: 1
Spectrometers: USB4C02835
Integration Time (usec): 10000 (USB4C02835)
Spectra Averaged: 1 (USB4C02835)
Boxcar Smoothing: 0 (USB4C02835)
Correct for Electrical Dark: No (USB4C02835)
Strobe/Lamp Enabled: No (USB4C02835)
Correct for Detector Non-linearity: No (USB4C02835)
Correct for Stray Light: No (USB4C02835)
Number of Pixels in Processed Spectrum: 3648
>>>>>Begin Processed Spectral Data<<<<<
177,47	1220,59
177,69	1220,59
177,91	1220,59
178,13	1251,31
178,36	1206,25
178,58	1267,69
178,80	1298,41
179,02	1245,16
179,24	1181,68
179,46	1351,66
179,68	1226,73
179,90	1226,73
180,13	1273,84
180,35	1298,41
180,57	1239,02
180,79	1249,26
181,01	1253,36
181,23	1255,40
181,45	1292,27
181,67	1228,78
181,90	1148,91
182,12	1218,54
182,34	1282,03
182,56	1265,64
182,78	1302,51
183,00	1306,60
183,22	1226,73
183,44	1300,46
183,66	1288,17
183,89	1298,41
184,11	1275,88
184,33	1275,88
184,55	1290,22
184,77	1255,40
184,99	1265,64
185,21	1193,97
185,43	1226,73
185,65	1279,98
185,87	1271,79
186,10	1331,18
186,32	1206,25
186,54	1273,84
186,76	1247,21
186,98	1282,03
187,20	1218,54
187,42	1267,69
187,64	1284,08
187,86	1224,69
188,08	1314,80
188,30	1261,55
188,52	1185,77
188,75	1232,88
188,97	1298,41
189,19	1347,56
189,41	1269,74
189,63	1273,84
189,85	1257,45
190,07	1282,03
190,29	1282,03
190,51	1296,36
190,73	1208,30
190,95	1288,17
191,17	1290,22
191,39	1273,84
191,61	1226,73
191,84	1267,69
192,06	1284,08
192,28	1236,97
192,50	1290,22
192,72	1187,82
192,94	1325,04
193,16	1284,08
193,38	1275,88
193,60	1251,31
193,82	1243,12
194,04	1214,45
194,26	1228,78
194,48	1349,61
194,70	1257,45
194,92	1222,64
195,14	1253,36
195,36	1228,78
195,58	1265,64
195,80	1255,40
196,02	1286,12
196,24	1263,60
196,46	1284,08
196,69	1243,12
196,91	1302,51
197,13	1304,56
197,35	1251,31
197,57	1290,22
197,79	1228,78
198,01	1277,93
198,23	1318,89
198,45	1183,73
198,67	1320,94
198,89	1263,60
199,11	1255,40
199,33	1298,41
199,55	1216,49
199,77	1273,84
199,99	1312,75
200,21	1243,12
200,43	1277,93
200,65	1210,35
200,87	1222,64
201,09	1273,84
201,31	1263,60
201,53	1253,36
201,75	1216,49
201,97	1261,55
202,19	1279,98
202,41	1298,41
202,63	1351,66
202,85	1167,34
203,07	1275,88
203,29	1228,78
203,51	1322,99
203,73	1239,02
203,95	1363,95
204,17	1269,74
204,39	1333,23
204,61	1208,30
204,83	1277,93
205,05	1294,32
205,27	1331,18
205,49	1279,98
205,71	1296,36
205,93	1329,13
206,15	1335,28
206,37	1325,04
206,59	1277,93
206,81	1216,49
207,03	1249,26
207,25	1320,94
207,47	1277,93
207,69	1255,40
207,91	1257,45
208,13	1218,54
208,34	1169,39
208,56	1296,36
208,78	1253,36
209,00	1161,20
209,22	1271,79
209,44	1308,65
209,66	1239,02
209,88	1298,41
210,10	1290,22
210,32	1193,97
210,54	1290,22
210,76	1241,07
210,98	1228,78
211,20	1298,41
211,42	1306,60
211,64	1288,17
211,86	1286,12
212,08	1253,36
212,30	1284,08
212,52	1271,79
212,74	1234,93
212,96	1263,60
213,17	1331,18
213,39	1259,50
213,61	1275,88
213,83	1175,53
214,05	1329,13
214,27	1226,73
214,49	1255,40
214,71	1290,22
214,93	1263,60
215,15	1236,97
215,37	1251,31
215,59	1148,91
215,81	1269,74
216,03	1298,41
216,24	1327,08
216,46	1271,79
216,68	1232,88
216,90	1247,21
217,12	1198,06
217,34	1228,78
217,56	1327,08
217,78	1255,40
218,00	1273,84
218,22	1239,02
218,44	1292,27
218,66	1296,36
218,87	1196,01
219,09	1269,74
219,31	1247,21
219,53	1239,02
219,75	1239,02
219,97	1167,34
220,19	1349,61
220,41	1214,45
220,63	1267,69
220,85	1306,60
221,06	1306,60
221,28	1302,51
221,50	1259,50
221,72	1296,36
221,94	1288,17
222,16	1322,99
222,38	1288,17
222,60	1290,22
222,82	1271,79
223,03	1363,95
223,25	1204,21
223,47	1239,02
223,69	1310,70
223,91	1314,80
224,13	1282,03
224,35	1294,32
224,57	1312,75
224,78	1300,46
225,00	1257,45
225,22	1253,36
225,44	1282,03
225,66	1288,17
225,88	1288,17
226,10	1263,60
226,32	1320,94
226,53	1279,98
226,75	1249,26
226,97	1353,71
227,19	1253,36
227,41	1298,41
227,63	1329,13
227,85	1282,03
228,06	1232,88
228,28	1259,50
228,50	1265,64
228,72	1294,32
228,94	1275,88
229,16	1279,98
229,37	1271,79
229,59	1269,74
229,81	1251,31
230,03	1314,80
230,25	1269,74
230,47	1226,73
230,69	1347,56
230,90	1265,64
231,12	1222,64
231,34	1284,08
231,56	1302,51
231,78	1290,22
232,00	1257,45
232,21	1261,55
232,43	1247,21
232,65	1277,93
232,87	1279,98
233,09	1224,69
233,30	1241,07
233,52	1261,55
233,74	1234,93
233,96	1282,03
234,18	1228,78
234,40	1241,07
234,61	1359,85
234,83	1187,82
235,05	1284,08
235,27	1292,27
235,49	1312,75
235,70	1267,69
235,92	1267,69
236,14	1161,20
236,36	1286,12
236,58	1251,31
236,79	1284,08
237,01	1318,89
237,23	1290,22
237,45	1224,69
237,67	1306,60
237,88	1208,30
238,10	1253,36
238,32	1286,12
238,54	1325,04
238,76	1282,03
238,97	1239,02
239,19	1241,07
239,41	1294,32
239,63	1282,03
239,85	1204,21
240,06	1253,36
240,28	1234,93
240,50	1232,88
240,72	1243,12
240,93	1212,40
241,15	1273,84
241,37	1257,45
241,59	1265,64
241,81	1298,41
242,02	1310,70
242,24	1302,51
242,46	1286,12
242,68	1241,07
242,89	1216,49
243,11	1353,71
243,33	1339,37
243,55	1261,55
243,76	1265,64
243,98	1275,88
244,20	1271,79
244,42	1327,08
244,64	1288,17
244,85	1206,25
245,07	1257,45
245,29	1271,79
245,51	1222,64
245,72	1210,35
245,94	1216,49
246,16	1202,16
246,38	1318,89
246,59	1327,08
246,81	1320,94
247,03	1312,75
247,24	1273,84
247,46	1269,74
247,68	1314,80
247,90	1286,12
248,11	1257,45
248,33	1243,12
248,55	1273,84
248,77	1294,32
248,98	1253,36
249,20	1310,70
249,42	1286,12
249,64	1349,61
249,85	1265,64
250,07	1251,31
250,29	1314,80
250,50	1216,49
250,72	1214,45
250,94	1267,69
251,16	1279,98
251,37	1249,26
251,59	1279,98
251,81	1294,32
252,02	1234,93
252,24	1286,12
252,46	1298,41
252,68	1290,22
252,89	1302,51
253,11	1290,22
253,33	1288,17
253,54	1245,16
253,76	1249,26
253,98	1320,94
254,20	1255,40
254,41	1245,16
254,63	1247,21
254,85	1232,88
255,06	1318,89
255,28	1218,54
255,50	1304,56
255,71	1234,93
255,93	1232,88
256,15	1210,35
256,36	1267,69
256,58	1320,94
256,80	1183,73
257,02	1243,12
257,23	1331,18
257,45	1308,65
257,67	1259,50
257,88	1331,18
258,10	1290,22
258,32	1296,36
258,53	1277,93
258,75	1353,71
258,97	1275,88
259,18	1224,69
259,40	1249,26
259,62	1290,22
259,83	1316,84
260,05	1279,98
260,27	1333,23
260,48	1271,79
260,70	1241,07
260,92	1253,36
261,13	1269,74
261,35	1206,25
261,57	1314,80
261,78	1241,07
262,00	1337,32
262,22	1232,88
262,43	1214,45
262,65	1202,16
262,86	1224,69
263,08	1265,64
263,30	1241,07
263,51	1228,78
263,73	1245,16
263,95	1261,55
264,16	1241,07
264,38	1337,32
264,60	1253,36
264,81	1198,06
265,03	1255,40
265,25	1273,84
265,46	1288,17
265,68	1236,97
265,89	1275,88
266,11	1222,64
266,33	1200,11
266,54	1251,31
266,76	1288,17
266,98	1257,45
267,19	1284,08
267,41	1183,73
267,62	1263,60
267,84	1247,21
268,06	1300,46
268,27	1261,55
268,49	1232,88
268,70	1300,46
268,92	1308,65
269,14	1269,74
269,35	1277,93
269,57	1257,45
269,79	1253,36
270,00	1269,74
270,22	1269,74
270,43	1245,16
270,65	1224,69
270,87	1275,88
271,08	1288,17
271,30	1200,11
271,51	1232,88
271,73	1271,79
271,95	1329,13
272,16	1251,31
272,38	1271,79
272,59	1282,03
272,81	1314,80
273,02	1255,40
273,24	1275,88
273,46	1232,88
273,67	1261,55
273,89	1288,17
274,10	1241,07
274,32	1341,42
274,54	1298,41
274,75	1294,32
274,97	1331,18
275,18	1279,98
275,40	1308,65
275,61	1257,45
275,83	1267,69
276,05	1273,84
276,26	1239,02
276,48	1282,03
276,69	1243,12
276,91	1257,45
277,12	1279,98
277,34	1282,03
277,55	1263,60
277,77	1351,66
277,99	1288,17
278,20	1247,21
278,42	1294,32
278,63	1261,55
278,85	1308,65
279,06	1273,84
279,28	1251,31
279,49	1214,45
279,71	1292,27
279,93	1300,46
280,14	1337,32
280,36	1210,35
280,57	1218,54
280,79	1224,69
281,00	1218,54
281,22	1339,37
281,43	1302,51
281,65	1226,73
281,86	1224,69
282,08	1257,45
282,29	1226,73
282,51	1226,73
282,73	1259,50
282,94	1253,36
283,16	1335,28
283,37	1282,03
283,59	1234,93
283,80	1314,80
284,02	1226,73
284,23	1239,02
284,45	1243,12
284,66	1286,12
284,88	1230,83
285,09	1316,84
285,31	1306,60
285,52	1277,93
285,74	1271,79
285,95	1302,51
286,17	1257,45
286,38	1339,37
286,60	1302,51
286,81	1290,22
287,03	1257,45
287,24	1216,49
287,46	1306,60
287,67	1247,21
287,89	1249,26
288,10	1298,41
288,32	1286,12
288,53	1263,60
288,75	1175,53
288,96	1267,69
289,18	1234,93
289,39	1232,88
289,61	1273,84
289,82	1273,84
290,04	1273,84
290,25	1269,74
290,47	1265,64
290,68	1200,11
290,90	1269,74
291,11	1265,64
291,33	1251,31
291,54	1288,17
291,76	1271,79
291,97	1216,49
292,18	1253,36
292,40	1261,55
292,61	1284,08
292,83	1331,18
293,04	1265,64
293,26	1314,80
293,47	1316,84
293,69	1241,07
293,90	1290,22
294,12	1234,93
294,33	1265,64
294,55	1347,56
294,76	1271,79
294,97	1322,99
295,19	1263,60
295,40	1263,60
295,62	1279,98
295,83	1275,88
296,05	1273,84
296,26	1263,60
296,48	1243,12
296,69	1327,08
296,90	1304,56
297,12	1277,93
297,33	1245,16
297,55	1322,99
297,76	1267,69
297,98	1210,35
298,19	1288,17
298,41	1322,99
298,62	1357,80
298,83	1290,22
299,05	1306,60
299,26	1277,93
299,48	1302,51
299,69	1294,32
299,90	1216,49
300,12	1251,31
300,33	1189,87
300,55	1245,16
300,76	1284,08
300,98	1253,36
301,19	1296,36
301,40	1265,64
301,62	1245,16
301,83	1273,84
302,05	1304,56
302,26	1312,75
302,47	1275,88
302,69	1341,42
302,90	1279,98
303,12	1253,36
303,33	1288,17
303,54	1288,17
303,76	1265,64
303,97	1173,49
304,19	1300,46
304,40	1279,98
304,61	1191,92
304,83	1282,03
305,04	1239,02
305,26	1185,77
305,47	1222,64
305,68	1310,70
305,90	1331,18
306,11	1226,73
306,33	1218,54
306,54	1296,36
306,75	1236,97
306,97	1224,69
307,18	1183,73
307,39	1265,64
307,61	1308,65
307,82	1232,88
308,04	1298,41
308,25	1193,97
308,46	1320,94
308,68	1304,56
308,89	1234,93
309,10	1245,16
309,32	1292,27
309,53	1279,98
309,74	1296,36
309,96	1304,56
310,17	1298,41
310,39	1212,40
310,60	1239,02
310,81	1271,79
311,03	1265,64
311,24	1253,36
311,45	1271,79
311,67	1234,93
311,88	1296,36
312,09	1241,07
312,31	1345,52
312,52	1378,28
312,73	1335,28
312,95	1277,93
313,16	1234,93
313,37	1224,69
313,59	1284,08
313,80	1257,45
314,01	1239,02
314,23	1228,78
314,44	1298,41
314,65	1316,84
314,87	1312,75
315,08	1275,88
315,29	1232,88
315,51	1271,79
315,72	1261,55
315,93	1302,51
316,15	1255,40
316,36	1298,41
316,57	1249,26
316,79	1361,90
317,00	1288,17
317,21	1298,41
317,43	1271,79
317,64	1220,59
317,85	1208,30
318,07	1282,03
318,28	1204,21
318,49	1251,31
318,70	1288,17
318,92	1200,11
319,13	1316,84
319,34	1253,36
319,56	1214,45
319,77	1222,64
319,98	1304,56
320,20	1263,60
320,41	1296,36
320,62	1243,12
320,83	1359,85
321,05	1288,17
321,26	1273,84
321,47	1282,03
321,69	1290,22
321,90	1236,97
322,11	1271,79
322,32	1249,26
322,54	1267,69
322,75	1282,03
322,96	1261,55
323,18	1245,16
323,39	1359,85
323,60	1234,93
323,81	1318,89
324,03	1273,84
324,24	1263,60
324,45	1290,22
324,66	1239,02
324,88	1339,37
325,09	1157,10
325,30	1269,74
325,52	1312,75
325,73	1275,88
325,94	1292,27
326,15	1279,98
326,37	1298,41
326,58	1273,84
326,79	1196,01
327,00	1189,87
327,22	1294,32
327,43	1259,50
327,64	1279,98
327,85	1339,37
328,07	1294,32
328,28	1253,36
328,49	1286,12
328,70	1277,93
328,92	1298,41
329,13	1292,27
329,34	1302,51
329,55	1230,83
329,76	1196,01
329,98	1187,82
330,19	1277,93
330,40	1271,79
330,61	1320,94
330,83	1175,53
331,04	1263,60
331,25	1298,41
331,46	1302,51
331,68	1298,41
331,89	1306,60
332,10	1288,17
332,31	1249,26
332,52	1212,40
332,74	1335,28
332,95	1243,12
333,16	1232,88
333,37	1282,03
333,58	1273,84
333,80	1208,30
334,01	1273,84
334,22	1337,32
334,43	1314,80
334,64	1245,16
334,86	1265,64
335,07	1226,73
335,28	1279,98
335,49	1279,98
335,70	1261,55
335,92	1312,75
336,13	1288,17
336,34	1294,32
336,55	1259,50
336,76	1261,55
336,98	1298,41
337,19	1269,74
337,40	1296,36
337,61	1337,32
337,82	1241,07
338,04	1259,50
338,25	1339,37
338,46	1284,08
338,67	1216,49
338,88	1257,45
339,09	1288,17
339,31	1259,50
339,52	1337,32
339,73	1294,32
339,94	1300,46
340,15	1302,51
340,36	1298,41
340,58	1253,36
340,79	1243,12
341,00	1275,88
341,21	1189,87
341,42	1312,75
341,63	1181,68
341,85	1308,65
342,06	1273,84
342,27	1279,98
342,48	1200,11
342,69	1286,12
342,90	1200,11
343,12	1306,60
343,33	1284,08
343,54	1230,83
343,75	1302,51
343,96	1228,78
344,17	1263,60
344,38	1282,03
344,60	1247,21
344,81	1298,41
345,02	1257,45
345,23	1296,36
345,44	1257,45
345,65	1271,79
345,86	1329,13
346,07	1255,40
346,29	1316,84
346,50	1294,32
346,71	1331,18
346,92	1257,45
347,13	1208,30
347,34	1249,26
347,55	1247,21
347,76	1320,94
347,98	1347,56
348,19	1208,30
348,40	1212,40
348,61	1224,69
348,82	1265,64
349,03	1292,27
349,24	1191,92
349,45	1277,93
349,66	1273,84
349,88	1329,13
350,09	1218,54
350,30	1327,08
350,51	1279,98
350,72	1263,60
350,93	1331,18
351,14	1271,79
351,35	1298,41
351,56	1249,26
351,77	1306,60
351,99	1251,31
352,20	1298,41
352,41	1257,45
352,62	1275,88
352,83	1204,21
353,04	1226,73
353,25	1341,42
353,46	1275,88
353,67	1279,98
353,88	1316,84
354,09	1200,11
354,30	1269,74
354,52	1273,84
354,73	1249,26
354,94	1308,65
355,15	1337,32
355,36	1282,03
355,57	1220,59
355,78	1279,98
355,99	1273,84
356,20	1267,69
356,41	1298,41
356,62	1306,60
356,83	1286,12
357,04	1259,50
357,25	1241,07
357,46	1333,23
357,68	1296,36
357,89	1271,79
358,10	1320,94
358,31	1277,93
358,52	1294,32
358,73	1290,22
358,94	1271,79
359,15	1290,22
359,36	1284,08
359,57	1308,65
359,78	1232,88
359,99	1316,84
360,20	1206,25
360,41	1327,08
360,62	1257,45
360,83	1302,51
361,04	1306,60
361,25	1292,27
361,46	1275,88
361,67	1277,93
361,88	1187,82
362,09	1263,60
362,30	1263,60
362,51	1300,46
362,72	1341,42
362,93	1249,26
363,14	1249,26
363,35	1249,26
363,56	1286,12
363,78	1263,60
363,99	1249,26
364,20	1288,17
364,41	1245,16
364,62	1327,08
364,83	1314,80
365,04	1265,64
365,25	1232,88
365,46	1290,22
365,67	1249,26
365,88	1191,92
366,09	1261,55
366,30	1234,93
366,51	1318,89
366,72	1339,37
366,93	1298,41
367,14	1245,16
367,35	1228,78
367,56	1253,36
367,77	1210,35
367,98	1214,45
368,18	1290,22
368,39	1290,22
368,60	1257,45
368,81	1245,16
369,02	1282,03
369,23	1294,32
369,44	1167,34
369,65	1294,32
369,86	1255,40
370,07	1228,78
370,28	1267,69
370,49	1306,60
370,70	1245,16
370,91	1218,54
371,12	1179,63
371,33	1196,01
371,54	1271,79
371,75	1312,75
371,96	1236,97
372,17	1251,31
372,38	1232,88
372,59	1277,93
372,80	1249,26
373,01	1279,98
373,22	1325,04
373,43	1255,40
373,64	1290,22
373,85	1357,80
374,06	1247,21
374,26	1218,54
374,47	1261,55
374,68	1325,04
374,89	1263,60
375,10	1259,50
375,31	1261,55
375,52	1269,74
375,73	1308,65
375,94	1351,66
376,15	1322,99
376,36	1255,40
376,57	1234,93
376,78	1288,17
376,99	1363,95
377,20	1322,99
377,40	1218,54
377,61	1279,98
377,82	1232,88
378,03	1320,94
378,24	1308,65
378,45	1236,97
378,66	1257,45
378,87	1296,36
379,08	1273,84
379,29	1300,46
379,50	1306,60
379,71	1251,31
379,91	1265,64
380,12	1218,54
380,33	1241,07
380,54	1212,40
380,75	1228,78
380,96	1261,55
381,17	1226,73
381,38	1218,54
381,59	1228,78
381,80	1257,45
382,00	1232,88
382,21	1220,59
382,42	1302,51
382,63	1331,18
382,84	1282,03
383,05	1271,79
383,26	1308,65
383,47	1261,55
383,68	1247,21
383,88	1337,32
384,09	1261,55
384,30	1308,65
384,51	1234,93
384,72	1259,50
384,93	1218,54
385,14	1249,26
385,35	1320,94
385,55	1220,59
385,76	1341,42
385,97	1308,65
386,18	1296,36
386,39	1265,64
386,60	1251,31
386,81	1275,88
387,02	1288,17
387,22	1243,12
387,43	1269,74
387,64	1247,21
387,85	1277,93
388,06	1257,45
388,27	1273,84
388,48	1243,12
388,68	1277,93
388,89	1327,08
389,10	1335,28
389,31	1175,53
389,52	1296,36
389,73	1226,73
389,93	1261,55
390,14	1351,66
390,35	1331,18
390,56	1296,36
390,77	1271,79
390,98	1327,08
391,18	1261,55
391,39	1312,75
391,60	1282,03
391,81	1314,80
392,02	1275,88
392,23	1296,36
392,43	1230,83
392,64	1232,88
392,85	1325,04
393,06	1234,93
393,27	1304,56
393,47	1247,21
393,68	1273,84
393,89	1202,16
394,10	1265,64
394,31	1294,32
394,52	1275,88
394,72	1320,94
394,93	1273,84
395,14	1265,64
395,35	1325,04
395,56	1265,64
395,76	1241,07
395,97	1251,31
396,18	1241,07
396,39	1322,99
396,60	1304,56
396,80	1249,26
397,01	1253,36
397,22	1245,16
397,43	1304,56
397,64	1286,12
397,84	1230,83
398,05	1214,45
398,26	1271,79
398,47	1271,79
398,67	1224,69
398,88	1243,12
399,09	1153,01
399,30	1271,79
399,51	1241,07
399,71	1243,12
399,92	1269,74
400,13	1214,45
400,34	1265,64
400,54	1228,78
400,75	1265,64
400,96	1159,15
401,17	1261,55
401,37	1259,50
401,58	1288,17
401,79	1239,02
402,00	1267,69
402,21	1308,65
402,41	1339,37
402,62	1251,31
402,83	1220,59
403,04	1265,64
403,24	1300,46
403,45	1263,60
403,66	1322,99
403,87	1241,07
404,07	1306,60
404,28	1345,52
404,49	1241,07
404,70	1236,97
404,90	1304,56
405,11	1259,50
405,32	1255,40
405,52	1243,12
405,73	1335,28
405,94	1261,55
406,15	1302,51
406,35	1304,56
406,56	1271,79
406,77	1263,60
406,98	1290,22
407,18	1286,12
407,39	1259,50
407,60	1241,07
407,80	1298,41
408,01	1325,04
408,22	1286,12
408,43	1245,16
408,63	1298,41
408,84	1255,40
409,05	1253,36
409,25	1232,88
409,46	1257,45
409,67	1333,23
409,88	1253,36
410,08	1196,01
410,29	1257,45
410,50	1230,83
410,70	1288,17
410,91	1275,88
411,12	1247,21
411,32	1255,40
411,53	1241,07
411,74	1331,18
411,95	1265,64
412,15	1282,03
412,36	1247,21
412,57	1282,03
412,77	1302,51
412,98	1286,12
413,19	1275,88
413,39	1243,12
413,60	1275,88
413,81	1298,41
414,01	1253,36
414,22	1269,74
414,43	1288,17
414,63	1267,69
414,84	1341,42
415,05	1304,56
415,25	1275,88
415,46	1261,55
415,67	1302,51
415,87	1224,69
416,08	1265,64
416,29	1277,93
416,49	1302,51
416,70	1351,66
416,91	1243,12
417,11	1345,52
417,32	1292,27
417,53	1208,30
417,73	1222,64
417,94	1273,84
418,15	1286,12
418,35	1314,80
418,56	1218,54
418,77	1284,08
418,97	1263,60
419,18	1308,65
419,38	1265,64
419,59	1206,25
419,80	1300,46
420,00	1259,50
420,21	1277,93
420,42	1224,69
420,62	1304,56
420,83	1263,60
421,04	1300,46
421,24	1277,93
421,45	1298,41
421,65	1279,98
421,86	1263,60
422,07	1189,87
422,27	1214,45
422,48	1275,88
422,69	1236,97
422,89	1314,80
423,10	1337,32
423,30	1259,50
423,51	1298,41
423,72	1222,64
423,92	1187,82
424,13	1247,21
424,33	1286,12
424,54	1232,88
424,75	1296,36
424,95	1239,02
425,16	1294,32
425,36	1212,40
425,57	1255,40
425,78	1261,55
425,98	1282,03
426,19	1288,17
426,39	1308,65
426,60	1218,54
426,81	1284,08
427,01	1230,83
427,22	1302,51
427,42	1265,64
427,63	1345,52
427,83	1251,31
428,04	1236,97
428,25	1316,84
428,45	1226,73
428,66	1277,93
428,86	1277,93
429,07	1241,07
429,28	1310,70
429,48	1265,64
429,69	1236,97
429,89	1230,83
430,10	1259,50
430,30	1232,88
430,51	1232,88
430,71	1273,84
430,92	1251,31
431,13	1284,08
431,33	1292,27
431,54	1347,56
431,74	1320,94
431,95	1282,03
432,15	1282,03
432,36	1279,98
432,56	1257,45
432,77	1202,16
432,98	1269,74
433,18	1245,16
433,39	1263,60
433,59	1286,12
433,80	1306,60
434,00	1277,93
434,21	1247,21
434,41	1251,31
434,62	1310,70
434,82	1253,36
435,03	1224,69
435,23	1261,55
435,44	1294,32
435,64	1255,40
435,85	1243,12
436,06	1337,32
436,26	1208,30
436,47	1300,46
436,67	1296,36
436,88	1271,79
437,08	1257,45
437,29	1286,12
437,49	1241,07
437,70	1318,89
437,90	1277,93
438,11	1210,35
438,31	1245,16
438,52	1241,07
438,72	1232,88
438,93	1306,60
439,13	1322,99
439,34	1267,69
439,54	1263,60
439,75	1271,79
439,95	1263,60
440,16	1232,88
440,36	1343,47
440,57	1288,17
440,77	1304,56
440,98	1263,60
441,18	1308,65
441,39	1294,32
441,59	1316,84
441,80	1304,56
442,00	1269,74
442,21	1290,22
442,41	1292,27
442,62	1253,36
442,82	1251,31
443,02	1290,22
443,23	1251,31
443,43	1296,36
443,64	1253,36
443,84	1204,21
444,05	1302,51
444,25	1249,26
444,46	1269,74
444,66	1183,73
444,87	1316,84
445,07	1257,45
445,28	1298,41
445,48	1261,55
445,69	1325,04
445,89	1251,31
446,09	1249,26
446,30	1327,08
446,50	1247,21
446,71	1228,78
446,91	1204,21
447,12	1306,60
447,32	1327,08
447,53	1175,53
447,73	1329,13
447,93	1318,89
448,14	1265,64
448,34	1286,12
448,55	1245,16
448,75	1228,78
448,96	1279,98
449,16	1247,21
449,36	1279,98
449,57	1300,46
449,77	1251,31
449,98	1267,69
450,18	1251,31
450,39	1279,98
450,59	1241,07
450,79	1257,45
451,00	1261,55
451,20	1249,26
451,41	1314,80
451,61	1257,45
451,81	1196,01
452,02	1279,98
452,22	1370,09
452,43	1259,50
452,63	1257,45
452,84	1275,88
453,04	1284,08
453,24	1288,17
453,45	1310,70
453,65	1327,08
453,86	1302,51
454,06	1263,60
454,26	1286,12
454,47	1325,04
454,67	1306,60
454,87	1349,61
455,08	1269,74
455,28	1316,84
455,49	1241,07
455,69	1228,78
455,89	1339,37
456,10	1345,52
456,30	1320,94
456,51	1257,45
456,71	1304,56
456,91	1230,83
457,12	1318,89
457,32	1259,50
457,52	1277,93
457,73	1267,69
457,93	1339,37
458,14	1294,32
458,34	1288,17
458,54	1316,84
458,75	1265,64
458,95	1277,93
459,15	1316,84
459,36	1243,12
459,56	1259,50
459,76	1298,41
459,97	1325,04
460,17	1335,28
460,37	1331,18
460,58	1265,64
460,78	1335,28
460,99	1257,45
461,19	1277,93
461,39	1253,36
461,60	1339,37
461,80	1290,22
462,00	1304,56
462,21	1288,17
462,41	1286,12
462,61	1296,36
462,82	1337,32
463,02	1302,51
463,22	1263,60
463,43	1374,19
463,63	1294,32
463,83	1308,65
464,04	1294,32
464,24	1290,22
464,44	1275,88
464,64	1294,32
464,85	1191,92
465,05	1306,60
465,25	1302,51
465,46	1308,65
465,66	1271,79
465,86	1267,69
466,07	1234,93
466,27	1243,12
466,47	1251,31
466,68	1228,78
466,88	1245,16
467,08	1312,75
467,29	1304,56
467,49	1263,60
467,69	1294,32
467,89	1331,18
468,10	1310,70
468,30	1261,55
468,50	1269,74
468,71	1263,60
468,91	1173,49
469,11	1234,93
469,31	1298,41
469,52	1290,22
469,72	1212,40
469,92	1271,79
470,13	1275,88
470,33	1271,79
470,53	1273,84
470,73	1331,18
470,94	1296,36
471,14	1241,07
471,34	1271,79
471,54	1294,32
471,75	1335,28
471,95	1261,55
472,15	1329,13
472,36	1265,64
472,56	1251,31
472,76	1282,03
472,96	1226,73
473,17	1298,41
473,37	1234,93
473,57	1302,51
473,77	1329,13
473,98	1325,04
474,18	1298,41
474,38	1241,07
474,58	1193,97
474,79	1210,35
474,99	1312,75
475,19	1320,94
475,39	1329,13
475,60	1374,19
475,80	1320,94
476,00	1257,45
476,20	1312,75
476,41	1234,93
476,61	1275,88
476,81	1351,66
477,01	1314,80
477,21	1353,71
477,42	1339,37
477,62	1269,74
477,82	1249,26
478,02	1267,69
478,23	1210,35
478,43	1243,12
478,63	1288,17
478,83	1282,03
479,03	1228,78
479,24	1374,19
479,44	1214,45
479,64	1267,69
479,84	1259,50
480,04	1263,60
480,25	1314,80
480,45	1284,08
480,65	1247,21
480,85	1343,47
481,06	1314,80
481,26	1286,12
481,46	1245,16
481,66	1263,60
481,86	1302,51
482,06	1300,46
482,27	1275,88
482,47	1247,21
482,67	1302,51
482,87	1271,79
483,07	1298,41
483,28	1273,84
483,48	1247,21
483,68	1243,12
483,88	1220,59
484,08	1243,12
484,29	1288,17
484,49	1206,25
484,69	1322,99
484,89	1290,22
485,09	1306,60
485,29	1275,88
485,50	1263,60
485,70	1302,51
485,90	1255,40
486,10	1251,31
486,30	1220,59
486,50	1249,26
486,71	1339,37
486,91	1273,84
487,11	1253,36
487,31	1247,21
487,51	1234,93
487,71	1306,60
487,91	1302,51
488,12	1329,13
488,32	1263,60
488,52	1257,45
488,72	1208,30
488,92	1282,03
489,12	1255,40
489,32	1234,93
489,53	1351,66
489,73	1234,93
489,93	1273,84
490,13	1220,59
490,33	1294,32
490,53	1296,36
490,73	1322,99
490,94	1228,78
491,14	1275,88
491,34	1335,28
491,54	1271,79
491,74	1306,60
491,94	1255,40
492,14	1310,70
492,34	1314,80
492,54	1245,16
492,75	1351,66
492,95	1247,21
493,15	1224,69
493,35	1210,35
493,55	1210,35
493,75	1234,93
493,95	1193,97
494,15	1327,08
494,35	1353,71
494,56	1304,56
494,76	1206,25
494,96	1161,20
495,16	1290,22
495,36	1298,41
495,56	1284,08
495,76	1296,36
495,96	1222,64
496,16	1249,26
496,36	1290,22
496,56	1320,94
496,77	1325,04
496,97	1249,26
497,17	1249,26
497,37	1284,08
497,57	1300,46
497,77	1261,55
497,97	1259,50
498,17	1261,55
498,37	1288,17
498,57	1296,36
498,77	1265,64
498,97	1308,65
499,17	1314,80
499,38	1224,69
499,58	1292,27
499,78	1189,87
499,98	1257,45
500,18	1306,60
500,38	1286,12
500,58	1269,74
500,78	1259,50
500,98	1318,89
501,18	1302,51
501,38	1261,55
501,58	1320,94
501,78	1265,64
501,98	1269,74
502,18	1249,26
502,38	1228,78
502,58	1239,02
502,78	1224,69
502,98	1251,31
503,18	1310,70
503,38	1263,60
503,59	1318,89
503,79	1294,32
503,99	1208,30
504,19	1236,97
504,39	1243,12
504,59	1216,49
504,79	1265,64
504,99	1273,84
505,19	1249,26
505,39	1292,27
505,59	1304,56
505,79	1245,16
505,99	1261,55
506,19	1253,36
506,39	1294,32
506,59	1263,60
506,79	1304,56
506,99	1288,17
507,19	1339,37
507,39	1241,07
507,59	1292,27
507,79	1239,02
507,99	1234,93
508,19	1259,50
508,39	1304,56
508,59	1282,03
508,79	1294,32
508,99	1284,08
509,19	1257,45
509,39	1247,21
509,59	1296,36
509,79	1234,93
509,99	1351,66
510,19	1216,49
510,39	1265,64
510,59	1214,45
510,79	1339,37
510,99	1300,46
511,19	1218,54
511,39	1320,94
511,59	1347,56
511,79	1282,03
511,99	1263,60
512,19	1300,46
512,38	1286,12
512,58	1288,17
512,78	1306,60
512,98	1261,55
513,18	1310,70
513,38	1286,12
513,58	1273,84
513,78	1222,64
513,98	1271,79
514,18	1222,64
514,38	1253,36
514,58	1273,84
514,78	1263,60
514,98	1239,02
515,18	1331,18
515,38	1275,88
515,58	1288,17
515,78	1245,16
515,98	1335,28
516,18	1320,94
516,38	1300,46
516,57	1286,12
516,77	1282,03
516,97	1269,74
517,17	1310,70
517,37	1232,88
517,57	1273,84
517,77	1290,22
517,97	1214,45
518,17	1263,60
518,37	1341,42
518,57	1308,65
518,77	1284,08
518,97	1267,69
519,16	1308,65
519,36	1265,64
519,56	1372,14
519,76	1288,17
519,96	1294,32
520,16	1222,64
520,36	1314,80
520,56	1277,93
520,76	1282,03
520,96	1277,93
521,16	1198,06
521,35	1304,56
521,55	1298,41
521,75	1265,64
521,95	1292,27
522,15	1249,26
522,35	1345,52
522,55	1261,55
522,75	1259,50
522,95	1275,88
523,14	1279,98
523,34	1245,16
523,54	1257,45
523,74	1249,26
523,94	1253,36
524,14	1261,55
524,34	1236,97
524,54	1220,59
524,73	1308,65
524,93	1308,65
525,13	1339,37
525,33	1251,31
525,53	1267,69
525,73	1261,55
525,93	1265,64
526,13	1290,22
526,32	1273,84
526,52	1292,27
526,72	1255,40
526,92	1308,65
527,12	1259,50
527,32	1255,40
527,52	1300,46
527,71	1345,52
527,91	1224,69
528,11	1191,92
528,31	1298,41
528,51	1351,66
528,71	1249,26
528,90	1294,32
529,10	1304,56
529,30	1314,80
529,50	1282,03
529,70	1218,54
529,90	1277,93
530,09	1265,64
530,29	1304,56
530,49	1318,89
530,69	1296,36
530,89	1277,93
531,09	1288,17
531,28	1279,98
531,48	1265,64
531,68	1347,56
531,88	1284,08
532,08	1245,16
532,28	1366,00
532,47	1206,25
532,67	1243,12
532,87	1232,88
533,07	1282,03
533,27	1341,42
533,46	1249,26
533,66	1325,04
533,86	1269,74
534,06	1226,73
534,26	1222,64
534,45	1290,22
534,65	1251,31
534,85	1304,56
535,05	1316,84
535,25	1298,41
535,44	1282,03
535,64	1327,08
535,84	1286,12
536,04	1251,31
536,24	1300,46
536,43	1296,36
536,63	1234,93
536,83	1304,56
537,03	1279,98
537,22	1312,75
537,42	1363,95
537,62	1263,60
537,82	1279,98
538,02	1140,72
538,21	1290,22
538,41	1310,70
538,61	1298,41
538,81	1265,64
539,00	1304,56
539,20	1236,97
539,40	1288,17
539,60	1314,80
539,79	1337,32
539,99	1263,60
540,19	1269,74
540,39	1257,45
540,58	1267,69
540,78	1216,49
540,98	1222,64
541,18	1339,37
541,37	1329,13
541,57	1302,51
541,77	1251,31
541,97	1349,61
542,16	1300,46
542,36	1243,12
542,56	1282,03
542,76	1251,31
542,95	1310,70
543,15	1234,93
543,35	1224,69
543,54	1296,36
543,74	1232,88
543,94	1232,88
544,14	1282,03
544,33	1239,02
544,53	1253,36
544,73	1220,59
544,93	1337,32
545,12	1331,18
545,32	1224,69
545,52	1302,51
545,71	1230,83
545,91	1327,08
546,11	1286,12
546,30	1263,60
546,50	1300,46
546,70	1273,84
546,90	1247,21
547,09	1288,17
547,29	1322,99
547,49	1333,23
547,68	1318,89
547,88	1253,36
548,08	1212,40
548,27	1308,65
548,47	1294,32
548,67	1312,75
548,87	1310,70
549,06	1279,98
549,26	1306,60
549,46	1300,46
549,65	1318,89
549,85	1314,80
550,05	1312,75
550,24	1257,45
550,44	1304,56
550,64	1337,32
550,83	1253,36
551,03	1257,45
551,23	1298,41
551,42	1355,76
551,62	1298,41
551,82	1218,54
552,01	1277,93
552,21	1187,82
552,41	1331,18
552,60	1343,47
552,80	1284,08
553,00	1286,12
553,19	1277,93
553,39	1304,56
553,59	1191,92
553,78	1306,60
553,98	1329,13
554,17	1355,76
554,37	1208,30
554,57	1275,88
554,76	1322,99
554,96	1216,49
555,16	1308,65
555,35	1253,36
555,55	1255,40
555,75	1275,88
555,94	1294,32
556,14	1349,61
556,33	1243,12
556,53	1286,12
556,73	1255,40
556,92	1261,55
557,12	1322,99
557,32	1329,13
557,51	1257,45
557,71	1247,21
557,90	1296,36
558,10	1261,55
558,30	1335,28
558,49	1208,30
558,69	1288,17
558,88	1292,27
559,08	1265,64
559,28	1267,69
559,47	1261,55
559,67	1273,84
559,86	1290,22
560,06	1265,64
560,26	1347,56
560,45	1247,21
560,65	1265,64
560,84	1318,89
561,04	1347,56
561,24	1290,22
561,43	1249,26
561,63	1320,94
561,82	1277,93
562,02	1290,22
562,22	1277,93
562,41	1322,99
562,61	1255,40
562,80	1261,55
563,00	1249,26
563,19	1261,55
563,39	1222,64
563,59	1273,84
563,78	1265,64
563,98	1241,07
564,17	1318,89
564,37	1294,32
564,56	1249,26
564,76	1183,73
564,96	1318,89
565,15	1288,17
565,35	1288,17
565,54	1320,94
565,74	1318,89
565,93	1245,16
566,13	1308,65
566,32	1193,97
566,52	1261,55
566,71	1286,12
566,91	1322,99
567,11	1292,27
567,30	1320,94
567,50	1236,97
567,69	1279,98
567,89	1220,59
568,08	1228,78
568,28	1245,16
568,47	1243,12
568,67	1341,42
568,86	1273,84
569,06	1226,73
569,25	1302,51
569,45	1236,97
569,64	1337,32
569,84	1228,78
570,04	1318,89
570,23	1271,79
570,43	1220,59
570,62	1316,84
570,82	1304,56
571,01	1296,36
571,21	1271,79
571,40	1320,94
571,60	1247,21
571,79	1304,56
571,99	1259,50
572,18	1282,03
572,38	1275,88
572,57	1241,07
572,77	1312,75
572,96	1345,52
573,16	1345,52
573,35	1292,27
573,55	1265,64
573,74	1224,69
573,94	1263,60
574,13	1316,84
574,33	1294,32
574,52	1267,69
574,71	1239,02
574,91	1286,12
575,10	1386,47
575,30	1271,79
575,49	1224,69
575,69	1327,08
575,88	1247,21
576,08	1214,45
576,27	1247,21
576,47	1187,82
576,66	1353,71
576,86	1210,35
577,05	1343,47
577,25	1279,98
577,44	1378,28
577,64	1290,22
577,83	1282,03
578,02	1257,45
578,22	1290,22
578,41	1288,17
578,61	1247,21
578,80	1329,13
579,00	1282,03
579,19	1333,23
579,39	1232,88
579,58	1230,83
579,77	1298,41
579,97	1265,64
580,16	1296,36
580,36	1273,84
580,55	1308,65
580,75	1271,79
580,94	1243,12
581,13	1294,32
581,33	1320,94
581,52	1267,69
581,72	1337,32
581,91	1290,22
582,11	1271,79
582,30	1263,60
582,49	1265,64
582,69	1282,03
582,88	1302,51
583,08	1239,02
583,27	1224,69
583,47	1290,22
583,66	1320,94
583,85	1380,33
584,05	1310,70
584,24	1300,46
584,44	1296,36
584,63	1288,17
584,82	1316,84
585,02	1314,80
585,21	1245,16
585,41	1284,08
585,60	1257,45
585,79	1318,89
585,99	1206,25
586,18	1247,21
586,37	1310,70
586,57	1308,65
586,76	1251,31
586,96	1232,88
587,15	1271,79
587,34	1255,40
587,54	1300,46
587,73	1316,84
587,93	1306,60
588,12	1275,88
588,31	1417,19
588,51	1249,26
588,70	1304,56
588,89	1312,75
589,09	1247,21
589,28	1275,88
589,47	1263,60
589,67	1294,32
589,86	1271,79
590,06	1290,22
590,25	1341,42
590,44	1318,89
590,64	1290,22
590,83	1232,88
591,02	1304,56
591,22	1279,98
591,41	1337,32
591,60	1286,12
591,80	1316,84
591,99	1245,16
592,18	1304,56
592,38	1279,98
592,57	1339,37
592,76	1318,89
592,96	1273,84
593,15	1314,80
593,34	1284,08
593,54	1239,02
593,73	1271,79
593,92	1310,70
594,12	1320,94
594,31	1306,60
594,50	1302,51
594,70	1294,32
594,89	1224,69
595,08	1318,89
595,28	1255,40
595,47	1288,17
595,66	1329,13
595,86	1282,03
596,05	1396,71
596,24	1232,88
596,43	1335,28
596,63	1331,18
596,82	1282,03
597,01	1261,55
597,21	1296,36
597,40	1265,64
597,59	1193,97
597,79	1273,84
597,98	1335,28
598,17	1292,27
598,36	1380,33
598,56	1368,04
598,75	1286,12
598,94	1261,55
599,14	1345,52
599,33	1226,73
599,52	1271,79
599,71	1243,12
599,91	1288,17
600,10	1202,16
600,29	1327,08
600,48	1232,88
600,68	1249,26
600,87	1234,93
601,06	1241,07
601,26	1290,22
601,45	1288,17
601,64	1370,09
601,83	1261,55
602,03	1282,03
602,22	1353,71
602,41	1343,47
602,60	1341,42
602,80	1300,46
602,99	1249,26
603,18	1284,08
603,37	1310,70
603,57	1302,51
603,76	1255,40
603,95	1284,08
604,14	1257,45
604,34	1279,98
604,53	1294,32
604,72	1261,55
604,91	1230,83
605,10	1302,51
605,30	1318,89
605,49	1265,64
605,68	1298,41
605,87	1275,88
606,07	1312,75
606,26	1247,21
606,45	1216,49
606,64	1269,74
606,84	1331,18
607,03	1296,36
607,22	1239,02
607,41	1284,08
607,60	1286,12
607,80	1263,60
607,99	1273,84
608,18	1269,74
608,37	1288,17
608,56	1214,45
608,76	1216,49
608,95	1286,12
609,14	1294,32
609,33	1249,26
609,52	1339,37
609,72	1271,79
609,91	1320,94
610,10	1331,18
610,29	1300,46
610,48	1300,46
610,68	1241,07
610,87	1306,60
611,06	1286,12
611,25	1292,27
611,44	1273,84
611,63	1214,45
611,83	1302,51
612,02	1292,27
612,21	1259,50
612,40	1320,94
612,59	1318,89
612,79	1294,32
612,98	1298,41
613,17	1294,32
613,36	1269,74
613,55	1306,60
613,74	1232,88
613,93	1316,84
614,13	1337,32
614,32	1236,97
614,51	1243,12
614,70	1236,97
614,89	1265,64
615,08	1386,47
615,28	1249,26
615,47	1349,61
615,66	1306,60
615,85	1306,60
616,04	1273,84
616,23	1279,98
616,42	1294,32
616,62	1275,88
616,81	1218,54
617,00	1271,79
617,19	1304,56
617,38	1322,99
617,57	1239,02
617,76	1329,13
617,95	1310,70
618,15	1282,03
618,34	1279,98
618,53	1234,93
618,72	1206,25
618,91	1198,06
619,10	1298,41
619,29	1265,64
619,48	1310,70
619,68	1296,36
619,87	1312,75
620,06	1306,60
620,25	1241,07
620,44	1298,41
620,63	1243,12
620,82	1220,59
621,01	1267,69
621,20	1232,88
621,39	1304,56
621,59	1296,36
621,78	1327,08
621,97	1206,25
622,16	1337,32
622,35	1316,84
622,54	1298,41
622,73	1300,46
622,92	1271,79
623,11	1370,09
623,30	1296,36
623,49	1257,45
623,68	1239,02
623,88	1335,28
624,07	1318,89
624,26	1279,98
624,45	1331,18
624,64	1239,02
624,83	1257,45
625,02	1298,41
625,21	1206,25
625,40	1335,28
625,59	1294,32
625,78	1302,51
625,97	1288,17
626,16	1265,64
626,35	1210,35
626,54	1308,65
626,74	1361,90
626,93	1347,56
627,12	1306,60
627,31	1386,47
627,50	1325,04
627,69	1267,69
627,88	1357,80
628,07	1296,36
628,26	1288,17
628,45	1298,41
628,64	1329,13
628,83	1230,83
629,02	1241,07
629,21	1294,32
629,40	1325,04
629,59	1241,07
629,78	1345,52
629,97	1337,32
630,16	1329,13
630,35	1331,18
630,54	1279,98
630,73	1261,55
630,92	1261,55
631,11	1290,22
631,30	1173,49
631,49	1310,70
631,68	1322,99
631,87	1370,09
632,06	1544,17
632,25	1384,43
632,44	1384,43
632,63	1351,66
632,82	1431,53
633,01	1492,97
633,20	1443,82
633,39	1433,58
633,58	1515,50
633,77	1458,15
633,96	1535,98
634,15	1744,87
634,34	2891,73
634,53	3219,41
634,72	2236,38
634,91	1925,09
635,10	3272,65
635,29	4802,49
635,48	5236,66
635,67	4890,55
635,86	4042,69
636,05	3096,53
636,24	2467,80
636,43	1949,67
636,62	1644,52
636,81	1548,26
637,00	1421,29
637,19	1402,86
637,38	1353,71
637,57	1372,14
637,76	1411,05
637,95	1333,23
638,14	1363,95
638,33	1288,17
638,52	1255,40
638,71	1277,93
638,89	1282,03
639,08	1255,40
639,27	1279,98
639,46	1255,40
639,65	1331,18
639,84	1181,68
640,03	1294,32
640,22	1277,93
640,41	1230,83
640,60	1245,16
640,79	1286,12
640,98	1310,70
641,17	1325,04
641,36	1314,80
641,55	1294,32
641,74	1257,45
641,92	1437,67
642,11	1306,60
642,30	1247,21
642,49	1255,40
642,68	1247,21
642,87	1230,83
643,06	1224,69
643,25	1257,45
643,44	1253,36
643,63	1298,41
643,82	1304,56
644,00	1312,75
644,19	1378,28
644,38	1275,88
644,57	1304,56
644,76	1253,36
644,95	1218,54
645,14	1320,94
645,33	1255,40
645,52	1341,42
645,71	1243,12
645,89	1220,59
646,08	1314,80
646,27	1220,59
646,46	1331,18
646,65	1220,59
646,84	1320,94
647,03	1232,88
647,22	1277,93
647,40	1282,03
647,59	1245,16
647,78	1234,93
647,97	1239,02
648,16	1290,22
648,35	1294,32
648,54	1257,45
648,73	1372,14
648,91	1302,51
649,10	1286,12
649,29	1298,41
649,48	1222,64
649,67	1247,21
649,86	1288,17
650,05	1275,88
650,23	1271,79
650,42	1329,13
650,61	1314,80
650,80	1312,75
650,99	1214,45
651,18	1282,03
651,36	1275,88
651,55	1333,23
651,74	1243,12
651,93	1308,65
652,12	1255,40
652,31	1349,61
652,49	1343,47
652,68	1247,21
652,87	1380,33
653,06	1302,51
653,25	1261,55
653,44	1179,63
653,62	1284,08
653,81	1298,41
654,00	1257,45
654,19	1282,03
654,38	1308,65
654,56	1265,64
654,75	1253,36
654,94	1275,88
655,13	1298,41
655,32	1322,99
655,51	1337,32
655,69	1251,31
655,88	1175,53
656,07	1275,88
656,26	1290,22
656,45	1314,80
656,63	1210,35
656,82	1257,45
657,01	1298,41
657,20	1212,40
657,38	1282,03
657,57	1271,79
657,76	1222,64
657,95	1314,80
658,14	1284,08
658,32	1290,22
658,51	1247,21
658,70	1251,31
658,89	1341,42
659,08	1296,36
659,26	1294,32
659,45	1355,76
659,64	1271,79
659,83	1322,99
660,01	1298,41
660,20	1298,41
660,39	1290,22
660,58	1277,93
660,76	1249,26
660,95	1148,91
661,14	1255,40
661,33	1257,45
661,51	1269,74
661,70	1263,60
661,89	1277,93
662,08	1261,55
662,26	1302,51
662,45	1261,55
662,64	1329,13
662,83	1275,88
663,01	1273,84
663,20	1189,87
663,39	1279,98
663,58	1265,64
663,76	1282,03
663,95	1290,22
664,14	1196,01
664,32	1265,64
664,51	1288,17
664,70	1239,02
664,89	1322,99
665,07	1226,73
665,26	1294,32
665,45	1257,45
665,64	1292,27
665,82	1333,23
666,01	1312,75
666,20	1298,41
666,38	1261,55
666,57	1275,88
666,76	1267,69
666,95	1296,36
667,13	1314,80
667,32	1271,79
667,51	1296,36
667,69	1243,12
667,88	1304,56
668,07	1302,51
668,25	1267,69
668,44	1255,40
668,63	1267,69
668,81	1294,32
669,00	1275,88
669,19	1275,88
669,38	1333,23
669,56	1247,21
669,75	1279,98
669,94	1290,22
670,12	1253,36
670,31	1232,88
670,50	1261,55
670,68	1329,13
670,87	1308,65
671,06	1179,63
671,24	1284,08
671,43	1253,36
671,62	1277,93
671,80	1316,84
671,99	1255,40
672,18	1230,83
672,36	1259,50
672,55	1310,70
672,74	1275,88
672,92	1359,85
673,11	1312,75
673,29	1296,36
673,48	1269,74
673,67	1210,35
673,85	1263,60
674,04	1284,08
674,23	1286,12
674,41	1337,32
674,60	1249,26
674,79	1212,40
674,97	1253,36
675,16	1263,60
675,34	1298,41
675,53	1232,88
675,72	1308,65
675,90	1253,36
676,09	1290,22
676,28	1271,79
676,46	1322,99
676,65	1261,55
676,83	1253,36
677,02	1304,56
677,21	1259,50
677,39	1345,52
677,58	1306,60
677,77	1265,64
677,95	1255,40
678,14	1329,13
678,32	1230,83
678,51	1298,41
678,70	1298,41
678,88	1320,94
679,07	1265,64
679,25	1208,30
679,44	1316,84
679,63	1267,69
679,81	1304,56
680,00	1257,45
680,18	1314,80
680,37	1345,52
680,55	1255,40
680,74	1269,74
680,93	1318,89
681,11	1236,97
681,30	1296,36
681,48	1275,88
681,67	1247,21
681,85	1290,22
682,04	1279,98
682,23	1314,80
682,41	1327,08
682,60	1378,28
682,78	1234,93
682,97	1206,25
683,15	1298,41
683,34	1312,75
683,53	1296,36
683,71	1232,88
683,90	1200,11
684,08	1267,69
684,27	1249,26
684,45	1241,07
684,64	1255,40
684,82	1267,69
685,01	1286,12
685,19	1241,07
685,38	1241,07
685,57	1273,84
685,75	1310,70
685,94	1290,22
686,12	1290,22
686,31	1251,31
686,49	1302,51
686,68	1204,21
686,86	1302,51
687,05	1241,07
687,23	1193,97
687,42	1335,28
687,60	1226,73
687,79	1306,60
687,97	1251,31
688,16	1230,83
688,34	1347,56
688,53	1265,64
688,71	1286,12
688,90	1325,04
689,08	1220,59
689,27	1288,17
689,45	1236,97
689,64	1306,60
689,82	1222,64
690,01	1247,21
690,19	1349,61
690,38	1236,97
690,56	1335,28
690,75	1312,75
690,93	1265,64
691,12	1239,02
691,30	1255,40
691,49	1275,88
691,67	1259,50
691,86	1261,55
692,04	1226,73
692,23	1316,84
692,41	1277,93
692,60	1249,26
692,78	1255,40
692,97	1275,88
693,15	1286,12
693,34	1290,22
693,52	1306,60
693,71	1249,26
693,89	1296,36
694,08	1273,84
694,26	1374,19
694,44	1329,13
694,63	1267,69
694,81	1294,32
695,00	1212,40
695,18	1302,51
695,37	1220,59
695,55	1249,26
695,74	1263,60
695,92	1210,35
696,10	1290,22
696,29	1267,69
696,47	1284,08
696,66	1294,32
696,84	1251,31
697,03	1222,64
697,21	1333,23
697,40	1318,89
697,58	1273,84
697,76	1300,46
697,95	1216,49
698,13	1257,45
698,32	1310,70
698,50	1265,64
698,68	1290,22
698,87	1265,64
699,05	1239,02
699,24	1249,26
699,42	1298,41
699,61	1249,26
699,79	1271,79
699,97	1193,97
700,16	1241,07
700,34	1331,18
700,53	1206,25
700,71	1239,02
700,89	1302,51
701,08	1257,45
701,26	1329,13
701,45	1292,27
701,63	1236,97
701,81	1265,64
702,00	1193,97
702,18	1257,45
702,37	1208,30
702,55	1224,69
702,73	1368,04
702,92	1177,58
703,10	1282,03
703,28	1232,88
703,47	1271,79
703,65	1294,32
703,84	1279,98
704,02	1239,02
704,20	1236,97
704,39	1279,98
704,57	1181,68
704,75	1277,93
704,94	1261,55
705,12	1224,69
705,30	1339,37
705,49	1271,79
705,67	1159,15
705,86	1277,93
706,04	1314,80
706,22	1306,60
706,41	1183,73
706,59	1294,32
706,77	1296,36
706,96	1191,92
707,14	1210,35
707,32	1224,69
707,51	1347,56
707,69	1232,88
707,87	1273,84
708,06	1286,12
708,24	1273,84
708,42	1206,25
708,61	1308,65
708,79	1171,44
708,97	1312,75
709,16	1286,12
709,34	1339,37
709,52	1236,97
709,71	1265,64
709,89	1261,55
710,07	1230,83
710,26	1294,32
710,44	1273,84
710,62	1267,69
710,80	1200,11
710,99	1234,93
711,17	1261,55
711,35	1241,07
711,54	1292,27
711,72	1245,16
711,90	1288,17
712,09	1310,70
712,27	1267,69
712,45	1318,89
712,63	1224,69
712,82	1196,01
713,00	1234,93
713,18	1318,89
713,37	1351,66
713,55	1290,22
713,73	1298,41
713,91	1236,97
714,10	1253,36
714,28	1234,93
714,46	1236,97
714,65	1249,26
714,83	1241,07
715,01	1230,83
715,19	1316,84
715,38	1310,70
715,56	1267,69
715,74	1230,83
715,92	1288,17
716,11	1288,17
716,29	1267,69
716,47	1304,56
716,65	1241,07
716,84	1243,12
717,02	1370,09
717,20	1230,83
717,38	1288,17
717,57	1245,16
717,75	1259,50
717,93	1220,59
718,11	1253,36
718,30	1273,84
718,48	1335,28
718,66	1325,04
718,84	1222,64
719,03	1271,79
719,21	1224,69
719,39	1290,22
719,57	1232,88
719,75	1245,16
719,94	1247,21
720,12	1169,39
720,30	1329,13
720,48	1249,26
720,67	1306,60
720,85	1277,93
721,03	1288,17
721,21	1273,84
721,39	1290,22
721,58	1279,98
721,76	1286,12
721,94	1236,97
722,12	1333,23
722,30	1189,87
722,49	1241,07
722,67	1325,04
722,85	1232,88
723,03	1236,97
723,21	1306,60
723,40	1271,79
723,58	1230,83
723,76	1306,60
723,94	1249,26
724,12	1247,21
724,30	1263,60
724,49	1314,80
724,67	1208,30
724,85	1316,84
725,03	1302,51
725,21	1355,76
725,40	1230,83
725,58	1255,40
725,76	1314,80
725,94	1243,12
726,12	1243,12
726,30	1261,55
726,49	1296,36
726,67	1271,79
726,85	1345,52
727,03	1234,93
727,21	1288,17
727,39	1208,30
727,57	1290,22
727,76	1271,79
727,94	1226,73
728,12	1255,40
728,30	1208,30
728,48	1286,12
728,66	1193,97
728,84	1282,03
729,03	1253,36
729,21	1296,36
729,39	1216,49
729,57	1253,36
729,75	1202,16
729,93	1226,73
730,11	1269,74
730,30	1249,26
730,48	1273,84
730,66	1273,84
730,84	1243,12
731,02	1249,26
731,20	1255,40
731,38	1245,16
731,56	1236,97
731,74	1208,30
731,93	1271,79
732,11	1279,98
732,29	1302,51
732,47	1290,22
732,65	1239,02
732,83	1275,88
733,01	1286,12
733,19	1294,32
733,37	1261,55
733,56	1306,60
733,74	1253,36
733,92	1267,69
734,10	1198,06
734,28	1255,40
734,46	1218,54
734,64	1243,12
734,82	1279,98
735,00	1247,21
735,18	1288,17
735,36	1296,36
735,54	1263,60
735,73	1304,56
735,91	1279,98
736,09	1294,32
736,27	1273,84
736,45	1325,04
736,63	1265,64
736,81	1243,12
736,99	1249,26
737,17	1218,54
737,35	1294,32
737,53	1298,41
737,71	1277,93
737,89	1245,16
738,07	1257,45
738,25	1318,89
738,43	1257,45
738,61	1212,40
738,80	1308,65
738,98	1327,08
739,16	1259,50
739,34	1279,98
739,52	1277,93
739,70	1263,60
739,88	1216,49
740,06	1273,84
740,24	1337,32
740,42	1284,08
740,60	1271,79
740,78	1251,31
740,96	1282,03
741,14	1257,45
741,32	1222,64
741,50	1286,12
741,68	1263,60
741,86	1181,68
742,04	1279,98
742,22	1327,08
742,40	1249,26
742,58	1243,12
742,76	1286,12
742,94	1292,27
743,12	1288,17
743,30	1275,88
743,48	1247,21
743,66	1267,69
743,84	1304,56
744,02	1222,64
744,20	1255,40
744,38	1212,40
744,56	1251,31
744,74	1236,97
744,92	1251,31
745,10	1234,93
745,28	1239,02
745,46	1218,54
745,64	1210,35
745,82	1341,42
746,00	1284,08
746,18	1337,32
746,36	1267,69
746,54	1247,21
746,72	1279,98
746,90	1198,06
747,08	1298,41
747,26	1267,69
747,44	1314,80
747,62	1230,83
747,80	1351,66
747,98	1275,88
748,15	1253,36
748,33	1249,26
748,51	1253,36
748,69	1282,03
748,87	1212,40
749,05	1310,70
749,23	1265,64
749,41	1204,21
749,59	1243,12
749,77	1273,84
749,95	1294,32
750,13	1312,75
750,31	1314,80
750,49	1245,16
750,67	1212,40
750,85	1300,46
751,03	1282,03
751,20	1269,74
751,38	1292,27
751,56	1259,50
751,74	1284,08
751,92	1265,64
752,10	1284,08
752,28	1222,64
752,46	1277,93
752,64	1308,65
752,82	1220,59
753,00	1275,88
753,18	1288,17
753,35	1302,51
753,53	1286,12
753,71	1300,46
753,89	1255,40
754,07	1322,99
754,25	1284,08
754,43	1161,20
754,61	1247,21
754,79	1267,69
754,97	1273,84
755,14	1241,07
755,32	1249,26
755,50	1257,45
755,68	1271,79
755,86	1325,04
756,04	1312,75
756,22	1310,70
756,40	1259,50
756,57	1253,36
756,75	1212,40
756,93	1282,03
757,11	1298,41
757,29	1304,56
757,47	1230,83
757,65	1243,12
757,82	1306,60
758,00	1198,06
758,18	1286,12
758,36	1261,55
758,54	1212,40
758,72	1243,12
758,90	1363,95
759,07	1265,64
759,25	1341,42
759,43	1218,54
759,61	1263,60
759,79	1222,64
759,97	1314,80
760,15	1232,88
760,32	1312,75
760,50	1269,74
760,68	1253,36
760,86	1261,55
761,04	1259,50
761,22	1259,50
761,39	1269,74
761,57	1239,02
761,75	1247,21
761,93	1263,60
762,11	1230,83
762,28	1288,17
762,46	1249,26
762,64	1220,59
762,82	1142,77
763,00	1218,54
763,18	1259,50
763,35	1286,12
763,53	1325,04
763,71	1181,68
763,89	1255,40
764,07	1267,69
764,24	1341,42
764,42	1251,31
764,60	1314,80
764,78	1308,65
764,96	1314,80
765,13	1275,88
765,31	1265,64
765,49	1257,45
765,67	1302,51
765,84	1208,30
766,02	1318,89
766,20	1226,73
766,38	1282,03
766,56	1253,36
766,73	1343,47
766,91	1216,49
767,09	1314,80
767,27	1253,36
767,44	1249,26
767,62	1228,78
767,80	1282,03
767,98	1247,21
768,15	1345,52
768,33	1249,26
768,51	1290,22
768,69	1226,73
768,87	1230,83
769,04	1224,69
769,22	1288,17
769,40	1267,69
769,58	1282,03
769,75	1284,08
769,93	1263,60
770,11	1312,75
770,28	1224,69
770,46	1243,12
770,64	1265,64
770,82	1263,60
770,99	1226,73
771,17	1261,55
771,35	1253,36
771,53	1304,56
771,70	1255,40
771,88	1318,89
772,06	1265,64
772,23	1279,98
772,41	1343,47
772,59	1228,78
772,77	1273,84
772,94	1261,55
773,12	1241,07
773,30	1206,25
773,47	1300,46
773,65	1251,31
773,83	1327,08
774,01	1243,12
774,18	1253,36
774,36	1298,41
774,54	1273,84
774,71	1302,51
774,89	1296,36
775,07	1347,56
775,24	1267,69
775,42	1249,26
775,60	1216,49
775,78	1208,30
775,95	1232,88
776,13	1198,06
776,31	1198,06
776,48	1232,88
776,66	1191,92
776,84	1329,13
777,01	1239,02
777,19	1253,36
777,37	1245,16
777,54	1273,84
777,72	1261,55
777,90	1222,64
778,07	1218,54
778,25	1200,11
778,43	1267,69
778,60	1263,60
778,78	1257,45
778,96	1218,54
779,13	1282,03
779,31	1230,83
779,49	1222,64
779,66	1263,60
779,84	1273,84
780,01	1273,84
780,19	1259,50
780,37	1263,60
780,54	1224,69
780,72	1286,12
780,90	1306,60
781,07	1239,02
781,25	1247,21
781,43	1290,22
781,60	1308,65
781,78	1220,59
781,95	1259,50
782,13	1245,16
782,31	1243,12
782,48	1265,64
782,66	1224,69
782,83	1224,69
783,01	1218,54
783,19	1236,97
783,36	1249,26
783,54	1306,60
783,72	1298,41
783,89	1230,83
784,07	1261,55
784,24	1282,03
784,42	1251,31
784,60	1325,04
784,77	1239,02
784,95	1273,84
785,12	1302,51
785,30	1265,64
785,47	1243,12
785,65	1310,70
785,83	1298,41
786,00	1312,75
786,18	1257,45
786,35	1277,93
786,53	1247,21
786,71	1294,32
786,88	1259,50
787,06	1257,45
787,23	1320,94
787,41	1282,03
787,58	1239,02
787,76	1212,40
787,94	1288,17
788,11	1306,60
788,29	1349,61
788,46	1249,26
788,64	1214,45
788,81	1226,73
788,99	1216,49
789,16	1189,87
789,34	1329,13
789,52	1320,94
789,69	1279,98
789,87	1161,20
790,04	1265,64
790,22	1226,73
790,39	1335,28
790,57	1265,64
790,74	1288,17
790,92	1349,61
791,09	1345,52
791,27	1249,26
791,44	1341,42
791,62	1247,21
791,79	1265,64
791,97	1191,92
792,15	1302,51
792,32	1271,79
792,50	1282,03
792,67	1261,55
792,85	1302,51
793,02	1306,60
793,20	1279,98
793,37	1234,93
793,55	1271,79
793,72	1243,12
793,90	1263,60
794,07	1292,27
794,25	1220,59
794,42	1243,12
794,60	1277,93
794,77	1345,52
794,95	1236,97
795,12	1208,30
795,30	1183,73
795,47	1265,64
795,65	1279,98
795,82	1304,56
796,00	1247,21
796,17	1241,07
796,34	1234,93
796,52	1210,35
796,69	1259,50
796,87	1312,75
797,04	1245,16
797,22	1255,40
797,39	1249,26
797,57	1247,21
797,74	1212,40
797,92	1298,41
798,09	1318,89
798,27	1284,08
798,44	1243,12
798,62	1284,08
798,79	1239,02
798,96	1200,11
799,14	1304,56
799,31	1241,07
799,49	1245,16
799,66	1261,55
799,84	1251,31
800,01	1327,08
800,19	1265,64
800,36	1318,89
800,53	1298,41
800,71	1189,87
800,88	1273,84
801,06	1218,54
801,23	1361,90
801,41	1259,50
801,58	1230,83
801,75	1210,35
801,93	1247,21
802,10	1294,32
802,28	1304,56
802,45	1286,12
802,63	1302,51
802,80	1267,69
802,97	1212,40
803,15	1243,12
803,32	1241,07
803,50	1296,36
803,67	1267,69
803,84	1263,60
804,02	1251,31
804,19	1251,31
804,37	1245,16
804,54	1224,69
804,71	1267,69
804,89	1277,93
805,06	1269,74
805,24	1257,45
805,41	1265,64
805,58	1271,79
805,76	1222,64
805,93	1218,54
806,10	1294,32
806,28	1279,98
806,45	1222,64
806,63	1263,60
806,80	1224,69
806,97	1312,75
807,15	1245,16
807,32	1263,60
807,49	1245,16
807,67	1314,80
807,84	1257,45
808,01	1253,36
808,19	1261,55
808,36	1267,69
808,54	1263,60
808,71	1243,12
808,88	1331,18
809,06	1310,70
809,23	1222,64
809,40	1191,92
809,58	1282,03
809,75	1249,26
809,92	1257,45
810,10	1241,07
810,27	1294,32
810,44	1265,64
810,62	1255,40
810,79	1232,88
810,96	1234,93
811,14	1198,06
811,31	1216,49
811,48	1255,40
811,66	1204,21
811,83	1302,51
812,00	1269,74
812,18	1271,79
812,35	1298,41
812,52	1267,69
812,69	1232,88
812,87	1298,41
813,04	1314,80
813,21	1239,02
813,39	1298,41
813,56	1251,31
813,73	1261,55
813,91	1267,69
814,08	1302,51
814,25	1222,64
814,42	1320,94
814,60	1234,93
814,77	1277,93
814,94	1249,26
815,12	1245,16
815,29	1306,60
815,46	1347,56
815,63	1306,60
815,81	1196,01
815,98	1253,36
816,15	1232,88
816,33	1294,32
816,50	1191,92
816,67	1304,56
816,84	1296,36
817,02	1290,22
817,19	1296,36
817,36	1232,88
817,53	1294,32
817,71	1202,16
817,88	1300,46
818,05	1263,60
818,22	1279,98
818,40	1259,50
818,57	1259,50
818,74	1302,51
818,91	1251,31
819,09	1300,46
819,26	1243,12
819,43	1228,78
819,60	1279,98
819,78	1366,00
819,95	1312,75
820,12	1286,12
820,29	1310,70
820,47	1261,55
820,64	1216,49
820,81	1220,59
820,98	1292,27
821,15	1239,02
821,33	1310,70
821,50	1282,03
821,67	1196,01
821,84	1314,80
822,02	1312,75
822,19	1310,70
822,36	1226,73
822,53	1279,98
822,70	1304,56
822,88	1226,73
823,05	1257,45
823,22	1290,22
823,39	1269,74
823,56	1241,07
823,74	1294,32
823,91	1267,69
824,08	1269,74
824,25	1296,36
824,42	1298,41
824,60	1298,41
824,77	1316,84
824,94	1306,60
825,11	1263,60
825,28	1255,40
825,45	1288,17
825,63	1200,11
825,80	1282,03
825,97	1296,36
826,14	1236,97
826,31	1265,64
826,48	1292,27
826,66	1126,38
826,83	1222,64
827,00	1198,06
827,17	1234,93
827,34	1288,17
827,51	1277,93
827,69	1239,02
827,86	1200,11
828,03	1296,36
828,20	1306,60
828,37	1304,56
828,54	1263,60
828,71	1255,40
828,89	1243,12
829,06	1200,11
829,23	1304,56
829,40	1273,84
829,57	1273,84
829,74	1253,36
829,91	1200,11
830,09	1261,55
830,26	1267,69
830,43	1263,60
830,60	1298,41
830,77	1236,97
830,94	1331,18
831,11	1310,70
831,28	1288,17
831,46	1157,10
831,63	1279,98
831,80	1296,36
831,97	1339,37
832,14	1224,69
832,31	1361,90
832,48	1282,03
832,65	1300,46
832,82	1292,27
832,99	1179,63
833,17	1263,60
833,34	1251,31
833,51	1284,08
833,68	1208,30
833,85	1273,84
834,02	1247,21
834,19	1343,47
834,36	1236,97
834,53	1247,21
834,70	1339,37
834,87	1290,22
835,04	1259,50
835,22	1251,31
835,39	1222,64
835,56	1279,98
835,73	1218,54
835,90	1312,75
836,07	1345,52
836,24	1183,73
836,41	1261,55
836,58	1273,84
836,75	1298,41
836,92	1222,64
837,09	1306,60
837,26	1259,50
837,43	1353,71
837,60	1331,18
837,77	1273,84
837,94	1310,70
838,12	1267,69
838,29	1333,23
838,46	1290,22
838,63	1247,21
838,80	1187,82
838,97	1275,88
839,14	1329,13
839,31	1198,06
839,48	1247,21
839,65	1290,22
839,82	1271,79
839,99	1298,41
840,16	1146,86
840,33	1251,31
840,50	1269,74
840,67	1269,74
840,84	1224,69
841,01	1228,78
841,18	1347,56
841,35	1271,79
841,52	1239,02
841,69	1275,88
841,86	1261,55
842,03	1255,40
842,20	1302,51
842,37	1277,93
842,54	1245,16
842,71	1290,22
842,88	1292,27
843,05	1247,21
843,22	1257,45
843,39	1288,17
843,56	1247,21
843,73	1200,11
843,90	1275,88
844,07	1228,78
844,24	1335,28
844,41	1245,16
844,58	1239,02
844,75	1296,36
844,92	1296,36
845,09	1208,30
845,26	1277,93
845,43	1265,64
845,60	1255,40
845,77	1306,60
845,94	1267,69
846,10	1290,22
846,27	1245,16
846,44	1200,11
846,61	1279,98
846,78	1286,12
846,95	1241,07
847,12	1341,42
847,29	1290,22
847,46	1224,69
847,63	1218,54
847,80	1243,12
847,97	1253,36
848,14	1310,70
848,31	1269,74
848,48	1230,83
848,65	1320,94
848,82	1261,55
848,98	1347,56
849,15	1263,60
849,32	1265,64
849,49	1230,83
849,66	1298,41
849,83	1292,27
850,00	1247,21
850,17	1220,59
850,34	1198,06
850,51	1257,45
850,68	1243,12
850,85	1314,80
851,01	1290,22
851,18	1230,83
851,35	1222,64
851,52	1251,31
851,69	1245,16
851,86	1200,11
852,03	1220,59
852,20	1302,51
852,37	1273,84
852,53	1224,69
852,70	1279,98
852,87	1277,93
853,04	1304,56
853,21	1261,55
853,38	1271,79
853,55	1261,55
853,72	1200,11
853,89	1277,93
854,05	1206,25
854,22	1275,88
854,39	1282,03
854,56	1269,74
854,73	1296,36
854,90	1263,60
855,07	1331,18
855,23	1245,16
855,40	1302,51
855,57	1292,27
855,74	1247,21
855,91	1202,16
856,08	1232,88
856,25	1261,55
856,41	1269,74
856,58	1208,30
856,75	1259,50
856,92	1304,56
857,09	1271,79
857,26	1286,12
857,42	1271,79
857,59	1204,21
857,76	1368,04
857,93	1253,36
858,10	1290,22
858,27	1271,79
858,43	1265,64
858,60	1290,22
858,77	1185,77
858,94	1271,79
859,11	1251,31
859,27	1265,64
859,44	1286,12
859,61	1312,75
859,78	1189,87
859,95	1257,45
860,12	1245,16
860,28	1167,34
860,45	1239,02
860,62	1263,60
860,79	1314,80
860,95	1314,80
861,12	1320,94
861,29	1232,88
861,46	1234,93
861,63	1400,81
861,79	1284,08
861,96	1316,84
862,13	1284,08
862,30	1314,80
862,47	1271,79
862,63	1290,22
862,80	1288,17
862,97	1312,75
863,14	1249,26
863,30	1232,88
863,47	1314,80
863,64	1271,79
863,81	1325,04
863,97	1284,08
864,14	1245,16
864,31	1249,26
864,48	1214,45
864,65	1282,03
864,81	1327,08
864,98	1282,03
865,15	1241,07
865,32	1304,56
865,48	1286,12
865,65	1226,73
865,82	1273,84
865,98	1259,50
866,15	1277,93
866,32	1224,69
866,49	1269,74
866,65	1288,17
866,82	1265,64
866,99	1257,45
867,16	1265,64
867,32	1251,31
867,49	1277,93
867,66	1271,79
867,83	1320,94
867,99	1271,79
868,16	1253,36
868,33	1241,07
868,49	1232,88
868,66	1300,46
868,83	1241,07
868,99	1253,36
869,16	1261,55
869,33	1316,84
869,50	1273,84
869,66	1214,45
869,83	1265,64
870,00	1302,51
870,16	1234,93
870,33	1312,75
870,50	1241,07
870,66	1239,02
870,83	1269,74
871,00	1320,94
871,17	1290,22
871,33	1230,83
871,50	1357,80
871,67	1253,36
871,83	1306,60
872,00	1241,07
872,17	1204,21
872,33	1288,17
872,50	1265,64
872,67	1314,80
872,83	1279,98
873,00	1220,59
873,17	1294,32
873,33	1341,42
873,50	1273,84
873,67	1234,93
873,83	1282,03
874,00	1327,08
874,16	1259,50
874,33	1294,32
874,50	1282,03
874,66	1232,88
874,83	1257,45
875,00	1243,12
875,16	1257,45
875,33	1243,12
875,50	1286,12
875,66	1253,36
875,83	1267,69
875,99	1271,79
876,16	1210,35
876,33	1355,76
876,49	1320,94
876,66	1228,78
876,83	1247,21
876,99	1292,27
877,16	1282,03
877,32	1304,56
877,49	1273,84
877,66	1249,26
877,82	1279,98
877,99	1232,88
878,15	1288,17
878,32	1275,88
878,49	1284,08
878,65	1247,21
878,82	1333,23
878,98	1251,31
879,15	1249,26
879,32	1265,64
879,48	1290,22
879,65	1267,69
879,81	1249,26
879,98	1286,12
880,15	1273,84
880,31	1216,49
880,48	1212,40
880,64	1279,98
880,81	1255,40
880,97	1241,07
881,14	1302,51
881,31	1224,69
881,47	1253,36
881,64	1329,13
881,80	1282,03
881,97	1243,12
882,13	1284,08
882,30	1279,98
882,47	1304,56
882,63	1265,64
882,80	1290,22
882,96	1286,12
883,13	1218,54
883,29	1302,51
883,46	1253,36
883,62	1304,56
883,79	1263,60
883,95	1239,02
884,12	1312,75
884,29	1249,26
884,45	1296,36
884,62	1226,73
884,78	1302,51
884,95	1255,40
885,11	1366,00
885,28	1288,17
885,44	1265,64
885,61	1257,45
885,77	1286,12
885,94	1263,60
886,10	1234,93
886,27	1333,23
886,43	1253,36
886,60	1212,40
886,76	1284,08
886,93	1288,17
887,09	1265,64
887,26	1253,36
887,42	1243,12
887,59	1294,32
887,75	1253,36
887,92	1263,60
888,08	1284,08
888,25	1261,55
888,41	1269,74
888,58	1300,46
888,74	1302,51
888,91	1245,16
>>>>>End Processed Spectral Data<<<<<
