SpectraSuite Data File
++++++++++++++++++++++++++++++++++++
Date: Sun Apr 03 19:55:23 CEST 2016
User: root
Dark Spectrum Present: No
Reference Spectrum Present: No
Number of Sampled Component Spectra: 1
Spectrometers: USB4C02835
Integration Time (usec): 10000 (USB4C02835)
Spectra Averaged: 1 (USB4C02835)
Boxcar Smoothing: 0 (USB4C02835)
Correct for Electrical Dark: No (USB4C02835)
Strobe/Lamp Enabled: No (USB4C02835)
Correct for Detector Non-linearity: No (USB4C02835)
Correct for Stray Light: No (USB4C02835)
Number of Pixels in Processed Spectrum: 3648
>>>>>Begin Processed Spectral Data<<<<<
177,47	1185,77
177,69	1185,77
177,91	1185,77
178,13	1277,93
178,36	1255,40
178,58	1212,40
178,80	1304,56
179,02	1198,06
179,24	1241,07
179,46	1257,45
179,68	1282,03
179,90	1345,52
180,13	1245,16
180,35	1322,99
180,57	1277,93
180,79	1255,40
181,01	1279,98
181,23	1294,32
181,45	1306,60
181,67	1343,47
181,90	1290,22
182,12	1257,45
182,34	1255,40
182,56	1234,93
182,78	1296,36
183,00	1306,60
183,22	1292,27
183,44	1191,92
183,66	1312,75
183,89	1236,97
184,11	1284,08
184,33	1269,74
184,55	1294,32
184,77	1308,65
184,99	1282,03
185,21	1210,35
185,43	1271,79
185,65	1269,74
185,87	1277,93
186,10	1333,23
186,32	1253,36
186,54	1263,60
186,76	1294,32
186,98	1243,12
187,20	1230,83
187,42	1292,27
187,64	1273,84
187,86	1255,40
188,08	1230,83
188,30	1253,36
188,52	1331,18
188,75	1376,24
188,97	1230,83
189,19	1224,69
189,41	1304,56
189,63	1251,31
189,85	1292,27
190,07	1236,97
190,29	1275,88
190,51	1187,82
190,73	1257,45
190,95	1218,54
191,17	1206,25
191,39	1327,08
191,61	1196,01
191,84	1257,45
192,06	1290,22
192,28	1214,45
192,50	1263,60
192,72	1259,50
192,94	1257,45
193,16	1294,32
193,38	1249,26
193,60	1302,51
193,82	1249,26
194,04	1331,18
194,26	1314,80
194,48	1269,74
194,70	1273,84
194,92	1204,21
195,14	1273,84
195,36	1261,55
195,58	1247,21
195,80	1320,94
196,02	1335,28
196,24	1282,03
196,46	1230,83
196,69	1214,45
196,91	1259,50
197,13	1279,98
197,35	1249,26
197,57	1325,04
197,79	1208,30
198,01	1263,60
198,23	1265,64
198,45	1218,54
198,67	1320,94
198,89	1226,73
199,11	1251,31
199,33	1279,98
199,55	1284,08
199,77	1288,17
199,99	1302,51
200,21	1288,17
200,43	1271,79
200,65	1349,61
200,87	1269,74
201,09	1220,59
201,31	1214,45
201,53	1214,45
201,75	1265,64
201,97	1245,16
202,19	1320,94
202,41	1265,64
202,63	1224,69
202,85	1286,12
203,07	1265,64
203,29	1331,18
203,51	1306,60
203,73	1314,80
203,95	1265,64
204,17	1261,55
204,39	1306,60
204,61	1284,08
204,83	1249,26
205,05	1286,12
205,27	1275,88
205,49	1275,88
205,71	1273,84
205,93	1277,93
206,15	1191,92
206,37	1241,07
206,59	1196,01
206,81	1290,22
207,03	1245,16
207,25	1349,61
207,47	1232,88
207,69	1296,36
207,91	1216,49
208,13	1239,02
208,34	1263,60
208,56	1245,16
208,78	1255,40
209,00	1230,83
209,22	1337,32
209,44	1284,08
209,66	1257,45
209,88	1251,31
210,10	1302,51
210,32	1290,22
210,54	1333,23
210,76	1253,36
210,98	1279,98
211,20	1282,03
211,42	1202,16
211,64	1290,22
211,86	1333,23
212,08	1204,21
212,30	1290,22
212,52	1298,41
212,74	1284,08
212,96	1208,30
213,17	1282,03
213,39	1243,12
213,61	1300,46
213,83	1275,88
214,05	1232,88
214,27	1255,40
214,49	1255,40
214,71	1290,22
214,93	1290,22
215,15	1294,32
215,37	1257,45
215,59	1351,66
215,81	1253,36
216,03	1241,07
216,24	1275,88
216,46	1216,49
216,68	1247,21
216,90	1292,27
217,12	1290,22
217,34	1239,02
217,56	1279,98
217,78	1265,64
218,00	1253,36
218,22	1277,93
218,44	1255,40
218,66	1302,51
218,87	1296,36
219,09	1277,93
219,31	1329,13
219,53	1318,89
219,75	1200,11
219,97	1222,64
220,19	1312,75
220,41	1286,12
220,63	1261,55
220,85	1325,04
221,06	1150,96
221,28	1267,69
221,50	1220,59
221,72	1226,73
221,94	1290,22
222,16	1232,88
222,38	1261,55
222,60	1322,99
222,82	1230,83
223,03	1247,21
223,25	1228,78
223,47	1245,16
223,69	1298,41
223,91	1327,08
224,13	1257,45
224,35	1236,97
224,57	1314,80
224,78	1308,65
225,00	1271,79
225,22	1261,55
225,44	1290,22
225,66	1243,12
225,88	1312,75
226,10	1294,32
226,32	1249,26
226,53	1284,08
226,75	1353,71
226,97	1329,13
227,19	1216,49
227,41	1236,97
227,63	1271,79
227,85	1226,73
228,06	1327,08
228,28	1322,99
228,50	1259,50
228,72	1224,69
228,94	1220,59
229,16	1214,45
229,37	1271,79
229,59	1271,79
229,81	1288,17
230,03	1187,82
230,25	1245,16
230,47	1212,40
230,69	1357,80
230,90	1259,50
231,12	1279,98
231,34	1259,50
231,56	1224,69
231,78	1288,17
232,00	1251,31
232,21	1236,97
232,43	1329,13
232,65	1267,69
232,87	1325,04
233,09	1318,89
233,30	1212,40
233,52	1351,66
233,74	1282,03
233,96	1251,31
234,18	1257,45
234,40	1228,78
234,61	1271,79
234,83	1284,08
235,05	1247,21
235,27	1320,94
235,49	1325,04
235,70	1298,41
235,92	1298,41
236,14	1189,87
236,36	1175,53
236,58	1282,03
236,79	1228,78
237,01	1224,69
237,23	1208,30
237,45	1243,12
237,67	1329,13
237,88	1228,78
238,10	1263,60
238,32	1249,26
238,54	1216,49
238,76	1275,88
238,97	1304,56
239,19	1255,40
239,41	1273,84
239,63	1273,84
239,85	1294,32
240,06	1234,93
240,28	1261,55
240,50	1228,78
240,72	1290,22
240,93	1255,40
241,15	1302,51
241,37	1257,45
241,59	1296,36
241,81	1277,93
242,02	1255,40
242,24	1243,12
242,46	1288,17
242,68	1138,67
242,89	1312,75
243,11	1222,64
243,33	1282,03
243,55	1253,36
243,76	1216,49
243,98	1261,55
244,20	1314,80
244,42	1257,45
244,64	1331,18
244,85	1298,41
245,07	1239,02
245,29	1255,40
245,51	1265,64
245,72	1191,92
245,94	1245,16
246,16	1193,97
246,38	1263,60
246,59	1218,54
246,81	1286,12
247,03	1230,83
247,24	1173,49
247,46	1249,26
247,68	1232,88
247,90	1290,22
248,11	1282,03
248,33	1308,65
248,55	1288,17
248,77	1308,65
248,98	1273,84
249,20	1251,31
249,42	1255,40
249,64	1292,27
249,85	1204,21
250,07	1241,07
250,29	1214,45
250,50	1200,11
250,72	1327,08
250,94	1306,60
251,16	1230,83
251,37	1228,78
251,59	1241,07
251,81	1214,45
252,02	1277,93
252,24	1200,11
252,46	1288,17
252,68	1224,69
252,89	1249,26
253,11	1263,60
253,33	1220,59
253,54	1279,98
253,76	1228,78
253,98	1230,83
254,20	1302,51
254,41	1226,73
254,63	1212,40
254,85	1198,06
255,06	1314,80
255,28	1290,22
255,50	1239,02
255,71	1271,79
255,93	1271,79
256,15	1279,98
256,36	1228,78
256,58	1271,79
256,80	1251,31
257,02	1236,97
257,23	1247,21
257,45	1269,74
257,67	1208,30
257,88	1290,22
258,10	1241,07
258,32	1275,88
258,53	1249,26
258,75	1320,94
258,97	1204,21
259,18	1226,73
259,40	1261,55
259,62	1282,03
259,83	1314,80
260,05	1222,64
260,27	1259,50
260,48	1298,41
260,70	1296,36
260,92	1243,12
261,13	1261,55
261,35	1271,79
261,57	1345,52
261,78	1226,73
262,00	1298,41
262,22	1146,86
262,43	1269,74
262,65	1300,46
262,86	1292,27
263,08	1257,45
263,30	1218,54
263,51	1230,83
263,73	1212,40
263,95	1241,07
264,16	1269,74
264,38	1251,31
264,60	1218,54
264,81	1265,64
265,03	1241,07
265,25	1253,36
265,46	1277,93
265,68	1308,65
265,89	1232,88
266,11	1208,30
266,33	1290,22
266,54	1300,46
266,76	1232,88
266,98	1368,04
267,19	1261,55
267,41	1279,98
267,62	1314,80
267,84	1275,88
268,06	1273,84
268,27	1341,42
268,49	1273,84
268,70	1187,82
268,92	1243,12
269,14	1296,36
269,35	1259,50
269,57	1318,89
269,79	1216,49
270,00	1312,75
270,22	1212,40
270,43	1247,21
270,65	1269,74
270,87	1216,49
271,08	1335,28
271,30	1255,40
271,51	1181,68
271,73	1329,13
271,95	1249,26
272,16	1243,12
272,38	1339,37
272,59	1273,84
272,81	1259,50
273,02	1314,80
273,24	1306,60
273,46	1288,17
273,67	1273,84
273,89	1261,55
274,10	1277,93
274,32	1230,83
274,54	1257,45
274,75	1261,55
274,97	1298,41
275,18	1185,77
275,40	1298,41
275,61	1308,65
275,83	1261,55
276,05	1234,93
276,26	1271,79
276,48	1251,31
276,69	1316,84
276,91	1286,12
277,12	1284,08
277,34	1267,69
277,55	1265,64
277,77	1294,32
277,99	1282,03
278,20	1370,09
278,42	1277,93
278,63	1241,07
278,85	1173,49
279,06	1294,32
279,28	1236,97
279,49	1265,64
279,71	1253,36
279,93	1284,08
280,14	1318,89
280,36	1290,22
280,57	1290,22
280,79	1220,59
281,00	1279,98
281,22	1206,25
281,43	1286,12
281,65	1257,45
281,86	1239,02
282,08	1294,32
282,29	1312,75
282,51	1263,60
282,73	1318,89
282,94	1241,07
283,16	1214,45
283,37	1198,06
283,59	1333,23
283,80	1253,36
284,02	1243,12
284,23	1247,21
284,45	1316,84
284,66	1249,26
284,88	1257,45
285,09	1247,21
285,31	1300,46
285,52	1294,32
285,74	1325,04
285,95	1269,74
286,17	1239,02
286,38	1314,80
286,60	1243,12
286,81	1253,36
287,03	1259,50
287,24	1228,78
287,46	1249,26
287,67	1257,45
287,89	1308,65
288,10	1245,16
288,32	1196,01
288,53	1228,78
288,75	1290,22
288,96	1286,12
289,18	1312,75
289,39	1339,37
289,61	1282,03
289,82	1273,84
290,04	1265,64
290,25	1245,16
290,47	1253,36
290,68	1230,83
290,90	1220,59
291,11	1284,08
291,33	1269,74
291,54	1277,93
291,76	1290,22
291,97	1275,88
292,18	1282,03
292,40	1222,64
292,61	1241,07
292,83	1302,51
293,04	1288,17
293,26	1290,22
293,47	1310,70
293,69	1343,47
293,90	1290,22
294,12	1277,93
294,33	1314,80
294,55	1273,84
294,76	1243,12
294,97	1257,45
295,19	1251,31
295,40	1271,79
295,62	1290,22
295,83	1271,79
296,05	1345,52
296,26	1232,88
296,48	1304,56
296,69	1243,12
296,90	1288,17
297,12	1239,02
297,33	1228,78
297,55	1271,79
297,76	1327,08
297,98	1243,12
298,19	1265,64
298,41	1234,93
298,62	1316,84
298,83	1300,46
299,05	1259,50
299,26	1191,92
299,48	1263,60
299,69	1302,51
299,90	1298,41
300,12	1275,88
300,33	1232,88
300,55	1257,45
300,76	1300,46
300,98	1298,41
301,19	1247,21
301,40	1331,18
301,62	1331,18
301,83	1218,54
302,05	1241,07
302,26	1204,21
302,47	1196,01
302,69	1284,08
302,90	1222,64
303,12	1212,40
303,33	1208,30
303,54	1245,16
303,76	1257,45
303,97	1236,97
304,19	1245,16
304,40	1218,54
304,61	1341,42
304,83	1265,64
305,04	1296,36
305,26	1255,40
305,47	1288,17
305,68	1322,99
305,90	1232,88
306,11	1277,93
306,33	1288,17
306,54	1290,22
306,75	1357,80
306,97	1243,12
307,18	1286,12
307,39	1204,21
307,61	1245,16
307,82	1239,02
308,04	1320,94
308,25	1275,88
308,46	1325,04
308,68	1224,69
308,89	1286,12
309,10	1296,36
309,32	1320,94
309,53	1284,08
309,74	1349,61
309,96	1263,60
310,17	1282,03
310,39	1249,26
310,60	1259,50
310,81	1196,01
311,03	1277,93
311,24	1335,28
311,45	1230,83
311,67	1255,40
311,88	1292,27
312,09	1312,75
312,31	1273,84
312,52	1290,22
312,73	1261,55
312,95	1302,51
313,16	1265,64
313,37	1236,97
313,59	1251,31
313,80	1273,84
314,01	1343,47
314,23	1286,12
314,44	1335,28
314,65	1363,95
314,87	1294,32
315,08	1232,88
315,29	1263,60
315,51	1228,78
315,72	1286,12
315,93	1282,03
316,15	1269,74
316,36	1185,77
316,57	1249,26
316,79	1296,36
317,00	1263,60
317,21	1290,22
317,43	1300,46
317,64	1241,07
317,85	1267,69
318,07	1310,70
318,28	1259,50
318,49	1263,60
318,70	1290,22
318,92	1210,35
319,13	1298,41
319,34	1277,93
319,56	1232,88
319,77	1312,75
319,98	1288,17
320,20	1204,21
320,41	1306,60
320,62	1298,41
320,83	1251,31
321,05	1308,65
321,26	1261,55
321,47	1275,88
321,69	1349,61
321,90	1232,88
322,11	1253,36
322,32	1269,74
322,54	1224,69
322,75	1183,73
322,96	1265,64
323,18	1271,79
323,39	1273,84
323,60	1275,88
323,81	1271,79
324,03	1318,89
324,24	1226,73
324,45	1204,21
324,66	1290,22
324,88	1273,84
325,09	1294,32
325,30	1245,16
325,52	1298,41
325,73	1144,81
325,94	1232,88
326,15	1243,12
326,37	1236,97
326,58	1228,78
326,79	1296,36
327,00	1292,27
327,22	1251,31
327,43	1253,36
327,64	1257,45
327,85	1261,55
328,07	1257,45
328,28	1298,41
328,49	1269,74
328,70	1300,46
328,92	1251,31
329,13	1259,50
329,34	1282,03
329,55	1296,36
329,76	1302,51
329,98	1308,65
330,19	1259,50
330,40	1224,69
330,61	1253,36
330,83	1277,93
331,04	1230,83
331,25	1232,88
331,46	1259,50
331,68	1232,88
331,89	1200,11
332,10	1302,51
332,31	1331,18
332,52	1196,01
332,74	1277,93
332,95	1273,84
333,16	1226,73
333,37	1265,64
333,58	1263,60
333,80	1247,21
334,01	1271,79
334,22	1290,22
334,43	1271,79
334,64	1232,88
334,86	1214,45
335,07	1226,73
335,28	1212,40
335,49	1132,53
335,70	1202,16
335,92	1300,46
336,13	1273,84
336,34	1298,41
336,55	1255,40
336,76	1349,61
336,98	1294,32
337,19	1300,46
337,40	1341,42
337,61	1222,64
337,82	1265,64
338,04	1261,55
338,25	1265,64
338,46	1298,41
338,67	1265,64
338,88	1288,17
339,09	1327,08
339,31	1224,69
339,52	1302,51
339,73	1271,79
339,94	1220,59
340,15	1226,73
340,36	1304,56
340,58	1232,88
340,79	1296,36
341,00	1239,02
341,21	1185,77
341,42	1282,03
341,63	1257,45
341,85	1275,88
342,06	1279,98
342,27	1232,88
342,48	1312,75
342,69	1200,11
342,90	1294,32
343,12	1277,93
343,33	1222,64
343,54	1236,97
343,75	1247,21
343,96	1214,45
344,17	1304,56
344,38	1269,74
344,60	1230,83
344,81	1273,84
345,02	1204,21
345,23	1290,22
345,44	1232,88
345,65	1224,69
345,86	1318,89
346,07	1261,55
346,29	1218,54
346,50	1298,41
346,71	1298,41
346,92	1304,56
347,13	1265,64
347,34	1271,79
347,55	1345,52
347,76	1286,12
347,98	1290,22
348,19	1255,40
348,40	1296,36
348,61	1271,79
348,82	1208,30
349,03	1292,27
349,24	1282,03
349,45	1210,35
349,66	1247,21
349,88	1271,79
350,09	1316,84
350,30	1277,93
350,51	1247,21
350,72	1239,02
350,93	1224,69
351,14	1204,21
351,35	1212,40
351,56	1269,74
351,77	1173,49
351,99	1310,70
352,20	1273,84
352,41	1267,69
352,62	1314,80
352,83	1327,08
353,04	1296,36
353,25	1226,73
353,46	1290,22
353,67	1257,45
353,88	1263,60
354,09	1236,97
354,30	1298,41
354,52	1257,45
354,73	1267,69
354,94	1271,79
355,15	1265,64
355,36	1355,76
355,57	1288,17
355,78	1265,64
355,99	1298,41
356,20	1261,55
356,41	1253,36
356,62	1257,45
356,83	1216,49
357,04	1206,25
357,25	1241,07
357,46	1241,07
357,68	1269,74
357,89	1296,36
358,10	1245,16
358,31	1273,84
358,52	1228,78
358,73	1261,55
358,94	1273,84
359,15	1241,07
359,36	1296,36
359,57	1253,36
359,78	1263,60
359,99	1269,74
360,20	1204,21
360,41	1210,35
360,62	1296,36
360,83	1273,84
361,04	1230,83
361,25	1269,74
361,46	1314,80
361,67	1239,02
361,88	1306,60
362,09	1294,32
362,30	1245,16
362,51	1314,80
362,72	1232,88
362,93	1277,93
363,14	1316,84
363,35	1294,32
363,56	1316,84
363,78	1245,16
363,99	1271,79
364,20	1318,89
364,41	1239,02
364,62	1290,22
364,83	1241,07
365,04	1368,04
365,25	1239,02
365,46	1232,88
365,67	1298,41
365,88	1220,59
366,09	1277,93
366,30	1255,40
366,51	1259,50
366,72	1282,03
366,93	1300,46
367,14	1230,83
367,35	1189,87
367,56	1255,40
367,77	1226,73
367,98	1320,94
368,18	1257,45
368,39	1202,16
368,60	1277,93
368,81	1298,41
369,02	1247,21
369,23	1230,83
369,44	1310,70
369,65	1279,98
369,86	1239,02
370,07	1273,84
370,28	1243,12
370,49	1222,64
370,70	1261,55
370,91	1251,31
371,12	1279,98
371,33	1220,59
371,54	1322,99
371,75	1273,84
371,96	1333,23
372,17	1236,97
372,38	1261,55
372,59	1265,64
372,80	1249,26
373,01	1318,89
373,22	1312,75
373,43	1269,74
373,64	1249,26
373,85	1290,22
374,06	1282,03
374,26	1320,94
374,47	1290,22
374,68	1294,32
374,89	1284,08
375,10	1210,35
375,31	1210,35
375,52	1245,16
375,73	1253,36
375,94	1218,54
376,15	1275,88
376,36	1257,45
376,57	1298,41
376,78	1304,56
376,99	1214,45
377,20	1228,78
377,40	1234,93
377,61	1282,03
377,82	1286,12
378,03	1253,36
378,24	1249,26
378,45	1277,93
378,66	1267,69
378,87	1255,40
379,08	1257,45
379,29	1255,40
379,50	1327,08
379,71	1220,59
379,91	1275,88
380,12	1263,60
380,33	1275,88
380,54	1232,88
380,75	1335,28
380,96	1341,42
381,17	1271,79
381,38	1257,45
381,59	1263,60
381,80	1261,55
382,00	1169,39
382,21	1335,28
382,42	1263,60
382,63	1286,12
382,84	1325,04
383,05	1296,36
383,26	1279,98
383,47	1288,17
383,68	1255,40
383,88	1255,40
384,09	1247,21
384,30	1277,93
384,51	1251,31
384,72	1228,78
384,93	1187,82
385,14	1279,98
385,35	1286,12
385,55	1257,45
385,76	1284,08
385,97	1306,60
386,18	1206,25
386,39	1183,73
386,60	1234,93
386,81	1265,64
387,02	1273,84
387,22	1257,45
387,43	1333,23
387,64	1206,25
387,85	1286,12
388,06	1259,50
388,27	1277,93
388,48	1232,88
388,68	1314,80
388,89	1247,21
389,10	1282,03
389,31	1282,03
389,52	1314,80
389,73	1255,40
389,93	1277,93
390,14	1241,07
390,35	1273,84
390,56	1228,78
390,77	1288,17
390,98	1271,79
391,18	1271,79
391,39	1241,07
391,60	1257,45
391,81	1245,16
392,02	1249,26
392,23	1259,50
392,43	1282,03
392,64	1265,64
392,85	1208,30
393,06	1265,64
393,27	1306,60
393,47	1286,12
393,68	1155,05
393,89	1302,51
394,10	1263,60
394,31	1255,40
394,52	1286,12
394,72	1241,07
394,93	1253,36
395,14	1234,93
395,35	1304,56
395,56	1298,41
395,76	1200,11
395,97	1224,69
396,18	1279,98
396,39	1269,74
396,60	1243,12
396,80	1228,78
397,01	1230,83
397,22	1298,41
397,43	1288,17
397,64	1212,40
397,84	1282,03
398,05	1245,16
398,26	1249,26
398,47	1292,27
398,67	1251,31
398,88	1218,54
399,09	1300,46
399,30	1218,54
399,51	1187,82
399,71	1253,36
399,92	1345,52
400,13	1316,84
400,34	1312,75
400,54	1273,84
400,75	1271,79
400,96	1308,65
401,17	1265,64
401,37	1228,78
401,58	1228,78
401,79	1245,16
402,00	1294,32
402,21	1222,64
402,41	1251,31
402,62	1198,06
402,83	1282,03
403,04	1288,17
403,24	1279,98
403,45	1261,55
403,66	1290,22
403,87	1255,40
404,07	1251,31
404,28	1230,83
404,49	1251,31
404,70	1261,55
404,90	1302,51
405,11	1265,64
405,32	1232,88
405,52	1214,45
405,73	1296,36
405,94	1255,40
406,15	1267,69
406,35	1263,60
406,56	1292,27
406,77	1232,88
406,98	1247,21
407,18	1320,94
407,39	1312,75
407,60	1222,64
407,80	1261,55
408,01	1261,55
408,22	1255,40
408,43	1292,27
408,63	1220,59
408,84	1241,07
409,05	1298,41
409,25	1273,84
409,46	1241,07
409,67	1288,17
409,88	1337,32
410,08	1239,02
410,29	1322,99
410,50	1198,06
410,70	1261,55
410,91	1322,99
411,12	1294,32
411,32	1247,21
411,53	1273,84
411,74	1253,36
411,95	1210,35
412,15	1222,64
412,36	1282,03
412,57	1318,89
412,77	1306,60
412,98	1255,40
413,19	1261,55
413,39	1255,40
413,60	1306,60
413,81	1234,93
414,01	1325,04
414,22	1214,45
414,43	1261,55
414,63	1202,16
414,84	1277,93
415,05	1230,83
415,25	1255,40
415,46	1279,98
415,67	1273,84
415,87	1277,93
416,08	1292,27
416,29	1343,47
416,49	1302,51
416,70	1286,12
416,91	1296,36
417,11	1208,30
417,32	1261,55
417,53	1304,56
417,73	1300,46
417,94	1300,46
418,15	1318,89
418,35	1290,22
418,56	1288,17
418,77	1302,51
418,97	1318,89
419,18	1234,93
419,38	1292,27
419,59	1279,98
419,80	1318,89
420,00	1263,60
420,21	1173,49
420,42	1279,98
420,62	1279,98
420,83	1257,45
421,04	1236,97
421,24	1241,07
421,45	1300,46
421,65	1241,07
421,86	1279,98
422,07	1269,74
422,27	1255,40
422,48	1308,65
422,69	1304,56
422,89	1275,88
423,10	1247,21
423,30	1304,56
423,51	1189,87
423,72	1243,12
423,92	1243,12
424,13	1239,02
424,33	1226,73
424,54	1284,08
424,75	1249,26
424,95	1316,84
425,16	1247,21
425,36	1271,79
425,57	1257,45
425,78	1290,22
425,98	1222,64
426,19	1279,98
426,39	1288,17
426,60	1263,60
426,81	1279,98
427,01	1314,80
427,22	1259,50
427,42	1226,73
427,63	1304,56
427,83	1193,97
428,04	1284,08
428,25	1343,47
428,45	1302,51
428,66	1198,06
428,86	1263,60
429,07	1255,40
429,28	1308,65
429,48	1224,69
429,69	1361,90
429,89	1232,88
430,10	1253,36
430,30	1222,64
430,51	1337,32
430,71	1255,40
430,92	1288,17
431,13	1265,64
431,33	1327,08
431,54	1275,88
431,74	1288,17
431,95	1212,40
432,15	1253,36
432,36	1189,87
432,56	1241,07
432,77	1263,60
432,98	1372,14
433,18	1247,21
433,39	1232,88
433,59	1265,64
433,80	1288,17
434,00	1292,27
434,21	1286,12
434,41	1368,04
434,62	1290,22
434,82	1325,04
435,03	1247,21
435,23	1316,84
435,44	1277,93
435,64	1335,28
435,85	1257,45
436,06	1239,02
436,26	1239,02
436,47	1251,31
436,67	1255,40
436,88	1239,02
437,08	1314,80
437,29	1171,44
437,49	1269,74
437,70	1363,95
437,90	1220,59
438,11	1243,12
438,31	1312,75
438,52	1140,72
438,72	1290,22
438,93	1302,51
439,13	1241,07
439,34	1290,22
439,54	1261,55
439,75	1218,54
439,95	1155,05
440,16	1185,77
440,36	1261,55
440,57	1306,60
440,77	1298,41
440,98	1275,88
441,18	1220,59
441,39	1241,07
441,59	1204,21
441,80	1347,56
442,00	1298,41
442,21	1277,93
442,41	1241,07
442,62	1282,03
442,82	1245,16
443,02	1298,41
443,23	1294,32
443,43	1286,12
443,64	1236,97
443,84	1228,78
444,05	1294,32
444,25	1308,65
444,46	1292,27
444,66	1282,03
444,87	1263,60
445,07	1339,37
445,28	1236,97
445,48	1310,70
445,69	1216,49
445,89	1273,84
446,09	1339,37
446,30	1290,22
446,50	1282,03
446,71	1284,08
446,91	1275,88
447,12	1144,81
447,32	1318,89
447,53	1279,98
447,73	1273,84
447,93	1255,40
448,14	1298,41
448,34	1359,85
448,55	1222,64
448,75	1243,12
448,96	1273,84
449,16	1255,40
449,36	1269,74
449,57	1216,49
449,77	1198,06
449,98	1241,07
450,18	1325,04
450,39	1275,88
450,59	1251,31
450,79	1234,93
451,00	1218,54
451,20	1304,56
451,41	1331,18
451,61	1359,85
451,81	1308,65
452,02	1206,25
452,22	1345,52
452,43	1255,40
452,63	1251,31
452,84	1294,32
453,04	1183,73
453,24	1263,60
453,45	1327,08
453,65	1392,62
453,86	1300,46
454,06	1300,46
454,26	1236,97
454,47	1277,93
454,67	1271,79
454,87	1208,30
455,08	1216,49
455,28	1361,90
455,49	1218,54
455,69	1279,98
455,89	1320,94
456,10	1245,16
456,30	1279,98
456,51	1279,98
456,71	1292,27
456,91	1316,84
457,12	1253,36
457,32	1263,60
457,52	1214,45
457,73	1271,79
457,93	1277,93
458,14	1243,12
458,34	1308,65
458,54	1294,32
458,75	1331,18
458,95	1279,98
459,15	1306,60
459,36	1296,36
459,56	1224,69
459,76	1271,79
459,97	1302,51
460,17	1245,16
460,37	1339,37
460,58	1333,23
460,78	1288,17
460,99	1271,79
461,19	1245,16
461,39	1249,26
461,60	1292,27
461,80	1255,40
462,00	1290,22
462,21	1275,88
462,41	1296,36
462,61	1279,98
462,82	1232,88
463,02	1249,26
463,22	1226,73
463,43	1298,41
463,63	1290,22
463,83	1206,25
464,04	1277,93
464,24	1286,12
464,44	1302,51
464,64	1255,40
464,85	1298,41
465,05	1273,84
465,25	1286,12
465,46	1294,32
465,66	1214,45
465,86	1310,70
466,07	1294,32
466,27	1265,64
466,47	1316,84
466,68	1277,93
466,88	1298,41
467,08	1202,16
467,29	1255,40
467,49	1312,75
467,69	1255,40
467,89	1316,84
468,10	1253,36
468,30	1198,06
468,50	1298,41
468,71	1216,49
468,91	1263,60
469,11	1279,98
469,31	1243,12
469,52	1222,64
469,72	1273,84
469,92	1304,56
470,13	1294,32
470,33	1228,78
470,53	1300,46
470,73	1351,66
470,94	1345,52
471,14	1187,82
471,34	1337,32
471,54	1275,88
471,75	1312,75
471,95	1230,83
472,15	1282,03
472,36	1216,49
472,56	1220,59
472,76	1234,93
472,96	1247,21
473,17	1286,12
473,37	1409,00
473,57	1257,45
473,77	1292,27
473,98	1212,40
474,18	1224,69
474,38	1308,65
474,58	1273,84
474,79	1302,51
474,99	1318,89
475,19	1271,79
475,39	1241,07
475,60	1279,98
475,80	1247,21
476,00	1228,78
476,20	1255,40
476,41	1224,69
476,61	1228,78
476,81	1275,88
477,01	1277,93
477,21	1286,12
477,42	1267,69
477,62	1224,69
477,82	1224,69
478,02	1253,36
478,23	1298,41
478,43	1269,74
478,63	1273,84
478,83	1327,08
479,03	1249,26
479,24	1230,83
479,44	1312,75
479,64	1239,02
479,84	1300,46
480,04	1277,93
480,25	1265,64
480,45	1196,01
480,65	1220,59
480,85	1298,41
481,06	1224,69
481,26	1224,69
481,46	1273,84
481,66	1263,60
481,86	1302,51
482,06	1284,08
482,27	1304,56
482,47	1247,21
482,67	1232,88
482,87	1239,02
483,07	1298,41
483,28	1331,18
483,48	1296,36
483,68	1255,40
483,88	1288,17
484,08	1269,74
484,29	1222,64
484,49	1304,56
484,69	1247,21
484,89	1265,64
485,09	1200,11
485,29	1310,70
485,50	1306,60
485,70	1353,71
485,90	1290,22
486,10	1286,12
486,30	1275,88
486,50	1251,31
486,71	1271,79
486,91	1286,12
487,11	1288,17
487,31	1243,12
487,51	1325,04
487,71	1298,41
487,91	1316,84
488,12	1288,17
488,32	1196,01
488,52	1259,50
488,72	1241,07
488,92	1251,31
489,12	1249,26
489,32	1320,94
489,53	1314,80
489,73	1210,35
489,93	1296,36
490,13	1218,54
490,33	1204,21
490,53	1163,25
490,73	1251,31
490,94	1298,41
491,14	1253,36
491,34	1261,55
491,54	1214,45
491,74	1304,56
491,94	1243,12
492,14	1279,98
492,34	1355,76
492,54	1273,84
492,75	1320,94
492,95	1230,83
493,15	1265,64
493,35	1279,98
493,55	1241,07
493,75	1282,03
493,95	1269,74
494,15	1212,40
494,35	1220,59
494,56	1325,04
494,76	1265,64
494,96	1277,93
495,16	1239,02
495,36	1282,03
495,56	1300,46
495,76	1247,21
495,96	1288,17
496,16	1236,97
496,36	1296,36
496,56	1306,60
496,77	1329,13
496,97	1239,02
497,17	1251,31
497,37	1279,98
497,57	1386,47
497,77	1294,32
497,97	1279,98
498,17	1329,13
498,37	1230,83
498,57	1212,40
498,77	1288,17
498,97	1325,04
499,17	1284,08
499,38	1271,79
499,58	1224,69
499,78	1273,84
499,98	1353,71
500,18	1273,84
500,38	1292,27
500,58	1316,84
500,78	1318,89
500,98	1288,17
501,18	1341,42
501,38	1247,21
501,58	1146,86
501,78	1257,45
501,98	1273,84
502,18	1335,28
502,38	1322,99
502,58	1243,12
502,78	1175,53
502,98	1284,08
503,18	1304,56
503,38	1304,56
503,59	1265,64
503,79	1318,89
503,99	1249,26
504,19	1298,41
504,39	1265,64
504,59	1243,12
504,79	1251,31
504,99	1318,89
505,19	1239,02
505,39	1275,88
505,59	1314,80
505,79	1335,28
505,99	1277,93
506,19	1302,51
506,39	1322,99
506,59	1306,60
506,79	1232,88
506,99	1282,03
507,19	1271,79
507,39	1232,88
507,59	1279,98
507,79	1232,88
507,99	1300,46
508,19	1269,74
508,39	1232,88
508,59	1279,98
508,79	1347,56
508,99	1286,12
509,19	1329,13
509,39	1306,60
509,59	1263,60
509,79	1214,45
509,99	1282,03
510,19	1226,73
510,39	1296,36
510,59	1218,54
510,79	1306,60
510,99	1292,27
511,19	1318,89
511,39	1273,84
511,59	1322,99
511,79	1226,73
511,99	1284,08
512,19	1222,64
512,38	1224,69
512,58	1282,03
512,78	1273,84
512,98	1298,41
513,18	1259,50
513,38	1247,21
513,58	1271,79
513,78	1271,79
513,98	1329,13
514,18	1267,69
514,38	1349,61
514,58	1193,97
514,78	1306,60
514,98	1245,16
515,18	1271,79
515,38	1343,47
515,58	1322,99
515,78	1232,88
515,98	1263,60
516,18	1265,64
516,38	1255,40
516,57	1259,50
516,77	1261,55
516,97	1271,79
517,17	1265,64
517,37	1277,93
517,57	1257,45
517,77	1232,88
517,97	1335,28
518,17	1218,54
518,37	1255,40
518,57	1226,73
518,77	1310,70
518,97	1329,13
519,16	1300,46
519,36	1241,07
519,56	1349,61
519,76	1318,89
519,96	1208,30
520,16	1273,84
520,36	1294,32
520,56	1337,32
520,76	1249,26
520,96	1265,64
521,16	1261,55
521,35	1210,35
521,55	1296,36
521,75	1241,07
521,95	1265,64
522,15	1298,41
522,35	1314,80
522,55	1335,28
522,75	1267,69
522,95	1318,89
523,14	1275,88
523,34	1290,22
523,54	1351,66
523,74	1253,36
523,94	1263,60
524,14	1282,03
524,34	1279,98
524,54	1284,08
524,73	1339,37
524,93	1245,16
525,13	1230,83
525,33	1310,70
525,53	1249,26
525,73	1249,26
525,93	1210,35
526,13	1316,84
526,32	1271,79
526,52	1249,26
526,72	1279,98
526,92	1218,54
527,12	1228,78
527,32	1288,17
527,52	1298,41
527,71	1298,41
527,91	1222,64
528,11	1286,12
528,31	1380,33
528,51	1253,36
528,71	1257,45
528,90	1228,78
529,10	1314,80
529,30	1271,79
529,50	1314,80
529,70	1243,12
529,90	1304,56
530,09	1279,98
530,29	1269,74
530,49	1263,60
530,69	1298,41
530,89	1325,04
531,09	1320,94
531,28	1249,26
531,48	1329,13
531,68	1325,04
531,88	1329,13
532,08	1314,80
532,28	1265,64
532,47	1257,45
532,67	1310,70
532,87	1284,08
533,07	1331,18
533,27	1232,88
533,46	1312,75
533,66	1318,89
533,86	1286,12
534,06	1290,22
534,26	1298,41
534,45	1294,32
534,65	1290,22
534,85	1259,50
535,05	1277,93
535,25	1247,21
535,44	1243,12
535,64	1273,84
535,84	1271,79
536,04	1351,66
536,24	1312,75
536,43	1357,80
536,63	1245,16
536,83	1273,84
537,03	1306,60
537,22	1277,93
537,42	1316,84
537,62	1279,98
537,82	1245,16
538,02	1265,64
538,21	1284,08
538,41	1290,22
538,61	1279,98
538,81	1234,93
539,00	1284,08
539,20	1224,69
539,40	1257,45
539,60	1290,22
539,79	1271,79
539,99	1255,40
540,19	1269,74
540,39	1292,27
540,58	1290,22
540,78	1206,25
540,98	1288,17
541,18	1310,70
541,37	1214,45
541,57	1249,26
541,77	1286,12
541,97	1304,56
542,16	1308,65
542,36	1304,56
542,56	1271,79
542,76	1273,84
542,95	1282,03
543,15	1279,98
543,35	1263,60
543,54	1290,22
543,74	1212,40
543,94	1286,12
544,14	1288,17
544,33	1226,73
544,53	1292,27
544,73	1247,21
544,93	1273,84
545,12	1239,02
545,32	1279,98
545,52	1275,88
545,71	1296,36
545,91	1279,98
546,11	1245,16
546,30	1273,84
546,50	1341,42
546,70	1261,55
546,90	1316,84
547,09	1228,78
547,29	1300,46
547,49	1241,07
547,68	1314,80
547,88	1259,50
548,08	1247,21
548,27	1296,36
548,47	1372,14
548,67	1302,51
548,87	1308,65
549,06	1259,50
549,26	1230,83
549,46	1279,98
549,65	1298,41
549,85	1286,12
550,05	1196,01
550,24	1322,99
550,44	1343,47
550,64	1271,79
550,83	1277,93
551,03	1298,41
551,23	1271,79
551,42	1296,36
551,62	1222,64
551,82	1306,60
552,01	1273,84
552,21	1333,23
552,41	1378,28
552,60	1189,87
552,80	1298,41
553,00	1347,56
553,19	1273,84
553,39	1314,80
553,59	1304,56
553,78	1290,22
553,98	1279,98
554,17	1318,89
554,37	1341,42
554,57	1249,26
554,76	1251,31
554,96	1253,36
555,16	1282,03
555,35	1302,51
555,55	1261,55
555,75	1325,04
555,94	1288,17
556,14	1304,56
556,33	1224,69
556,53	1331,18
556,73	1314,80
556,92	1286,12
557,12	1298,41
557,32	1224,69
557,51	1269,74
557,71	1296,36
557,90	1298,41
558,10	1216,49
558,30	1255,40
558,49	1271,79
558,69	1298,41
558,88	1318,89
559,08	1277,93
559,28	1259,50
559,47	1382,38
559,67	1277,93
559,86	1318,89
560,06	1265,64
560,26	1310,70
560,45	1275,88
560,65	1290,22
560,84	1255,40
561,04	1265,64
561,24	1226,73
561,43	1273,84
561,63	1318,89
561,82	1298,41
562,02	1357,80
562,22	1314,80
562,41	1302,51
562,61	1234,93
562,80	1263,60
563,00	1273,84
563,19	1310,70
563,39	1236,97
563,59	1296,36
563,78	1298,41
563,98	1314,80
564,17	1232,88
564,37	1282,03
564,56	1298,41
564,76	1234,93
564,96	1314,80
565,15	1279,98
565,35	1257,45
565,54	1239,02
565,74	1275,88
565,93	1312,75
566,13	1230,83
566,32	1265,64
566,52	1263,60
566,71	1253,36
566,91	1279,98
567,11	1222,64
567,30	1294,32
567,50	1269,74
567,69	1269,74
567,89	1255,40
568,08	1355,76
568,28	1292,27
568,47	1282,03
568,67	1241,07
568,86	1284,08
569,06	1247,21
569,25	1310,70
569,45	1277,93
569,64	1335,28
569,84	1257,45
570,04	1300,46
570,23	1279,98
570,43	1263,60
570,62	1241,07
570,82	1224,69
571,01	1236,97
571,21	1255,40
571,40	1261,55
571,60	1331,18
571,79	1318,89
571,99	1320,94
572,18	1261,55
572,38	1333,23
572,57	1271,79
572,77	1265,64
572,96	1351,66
573,16	1353,71
573,35	1368,04
573,55	1286,12
573,74	1294,32
573,94	1294,32
574,13	1269,74
574,33	1318,89
574,52	1275,88
574,71	1310,70
574,91	1273,84
575,10	1257,45
575,30	1310,70
575,49	1275,88
575,69	1282,03
575,88	1366,00
576,08	1359,85
576,27	1304,56
576,47	1372,14
576,66	1347,56
576,86	1263,60
577,05	1255,40
577,25	1243,12
577,44	1306,60
577,64	1273,84
577,83	1318,89
578,02	1308,65
578,22	1310,70
578,41	1304,56
578,61	1202,16
578,80	1304,56
579,00	1331,18
579,19	1189,87
579,39	1284,08
579,58	1284,08
579,77	1308,65
579,97	1306,60
580,16	1325,04
580,36	1251,31
580,55	1308,65
580,75	1189,87
580,94	1247,21
581,13	1341,42
581,33	1318,89
581,52	1263,60
581,72	1322,99
581,91	1290,22
582,11	1257,45
582,30	1259,50
582,49	1304,56
582,69	1296,36
582,88	1265,64
583,08	1292,27
583,27	1255,40
583,47	1208,30
583,66	1216,49
583,85	1298,41
584,05	1304,56
584,24	1312,75
584,44	1247,21
584,63	1259,50
584,82	1271,79
585,02	1318,89
585,21	1290,22
585,41	1318,89
585,60	1261,55
585,79	1333,23
585,99	1296,36
586,18	1255,40
586,37	1277,93
586,57	1347,56
586,76	1275,88
586,96	1329,13
587,15	1331,18
587,34	1257,45
587,54	1290,22
587,73	1239,02
587,93	1265,64
588,12	1204,21
588,31	1200,11
588,51	1304,56
588,70	1236,97
588,89	1271,79
589,09	1251,31
589,28	1277,93
589,47	1294,32
589,67	1322,99
589,86	1402,86
590,06	1224,69
590,25	1300,46
590,44	1290,22
590,64	1339,37
590,83	1216,49
591,02	1288,17
591,22	1298,41
591,41	1263,60
591,60	1247,21
591,80	1327,08
591,99	1257,45
592,18	1265,64
592,38	1302,51
592,57	1239,02
592,76	1333,23
592,96	1267,69
593,15	1267,69
593,34	1243,12
593,54	1284,08
593,73	1290,22
593,92	1316,84
594,12	1282,03
594,31	1232,88
594,50	1296,36
594,70	1267,69
594,89	1273,84
595,08	1269,74
595,28	1247,21
595,47	1296,36
595,66	1245,16
595,86	1220,59
596,05	1253,36
596,24	1302,51
596,43	1269,74
596,63	1325,04
596,82	1331,18
597,01	1312,75
597,21	1228,78
597,40	1259,50
597,59	1241,07
597,79	1333,23
597,98	1247,21
598,17	1310,70
598,36	1261,55
598,56	1277,93
598,75	1261,55
598,94	1236,97
599,14	1247,21
599,33	1251,31
599,52	1345,52
599,71	1320,94
599,91	1273,84
600,10	1275,88
600,29	1290,22
600,48	1353,71
600,68	1261,55
600,87	1320,94
601,06	1284,08
601,26	1333,23
601,45	1286,12
601,64	1232,88
601,83	1286,12
602,03	1269,74
602,22	1277,93
602,41	1298,41
602,60	1267,69
602,80	1296,36
602,99	1271,79
603,18	1267,69
603,37	1314,80
603,57	1257,45
603,76	1290,22
603,95	1392,62
604,14	1253,36
604,34	1316,84
604,53	1241,07
604,72	1337,32
604,91	1232,88
605,10	1210,35
605,30	1310,70
605,49	1257,45
605,68	1298,41
605,87	1290,22
606,07	1322,99
606,26	1189,87
606,45	1257,45
606,64	1253,36
606,84	1361,90
607,03	1298,41
607,22	1273,84
607,41	1226,73
607,60	1265,64
607,80	1298,41
607,99	1279,98
608,18	1282,03
608,37	1312,75
608,56	1312,75
608,76	1314,80
608,95	1384,43
609,14	1290,22
609,33	1208,30
609,52	1214,45
609,72	1230,83
609,91	1318,89
610,10	1265,64
610,29	1230,83
610,48	1288,17
610,68	1284,08
610,87	1298,41
611,06	1290,22
611,25	1296,36
611,44	1267,69
611,63	1220,59
611,83	1302,51
612,02	1331,18
612,21	1296,36
612,40	1318,89
612,59	1236,97
612,79	1234,93
612,98	1304,56
613,17	1183,73
613,36	1310,70
613,55	1294,32
613,74	1331,18
613,93	1398,76
614,13	1298,41
614,32	1265,64
614,51	1243,12
614,70	1333,23
614,89	1320,94
615,08	1253,36
615,28	1314,80
615,47	1284,08
615,66	1241,07
615,85	1308,65
616,04	1288,17
616,23	1210,35
616,42	1355,76
616,62	1282,03
616,81	1353,71
617,00	1267,69
617,19	1253,36
617,38	1257,45
617,57	1249,26
617,76	1241,07
617,95	1259,50
618,15	1275,88
618,34	1343,47
618,53	1298,41
618,72	1275,88
618,91	1269,74
619,10	1310,70
619,29	1308,65
619,48	1296,36
619,68	1253,36
619,87	1243,12
620,06	1255,40
620,25	1366,00
620,44	1234,93
620,63	1296,36
620,82	1249,26
621,01	1208,30
621,20	1234,93
621,39	1284,08
621,59	1249,26
621,78	1284,08
621,97	1286,12
622,16	1322,99
622,35	1267,69
622,54	1267,69
622,73	1259,50
622,92	1261,55
623,11	1290,22
623,30	1200,11
623,49	1279,98
623,68	1245,16
623,88	1153,01
624,07	1265,64
624,26	1245,16
624,45	1300,46
624,64	1220,59
624,83	1294,32
625,02	1333,23
625,21	1236,97
625,40	1306,60
625,59	1286,12
625,78	1396,71
625,97	1343,47
626,16	1263,60
626,35	1306,60
626,54	1241,07
626,74	1318,89
626,93	1372,14
627,12	1304,56
627,31	1290,22
627,50	1331,18
627,69	1341,42
627,88	1314,80
628,07	1296,36
628,26	1265,64
628,45	1290,22
628,64	1265,64
628,83	1239,02
629,02	1300,46
629,21	1232,88
629,40	1333,23
629,59	1308,65
629,78	1265,64
629,97	1327,08
630,16	1298,41
630,35	1249,26
630,54	1261,55
630,73	1247,21
630,92	1341,42
631,11	1366,00
631,30	1333,23
631,49	1329,13
631,68	1511,40
631,87	3747,78
632,06	11767,63
632,25	21065,41
632,44	36824,53
632,63	55850,16
632,82	51502,32
633,01	22351,53
633,20	10098,53
633,39	6129,57
633,58	3700,68
633,77	2588,63
633,96	2435,03
634,15	2414,56
634,34	2115,55
634,53	1804,26
634,72	1787,88
634,91	1740,77
635,10	1667,05
635,29	1736,68
635,48	1644,52
635,67	1605,61
635,86	1525,74
636,05	1501,16
636,24	1513,45
636,43	1415,15
636,62	1404,91
636,81	1507,30
637,00	1470,44
637,19	1458,15
637,38	1361,90
637,57	1400,81
637,76	1376,24
637,95	1308,65
638,14	1343,47
638,33	1300,46
638,52	1296,36
638,71	1361,90
638,89	1304,56
639,08	1279,98
639,27	1288,17
639,46	1298,41
639,65	1296,36
639,84	1269,74
640,03	1239,02
640,22	1239,02
640,41	1370,09
640,60	1298,41
640,79	1216,49
640,98	1255,40
641,17	1271,79
641,36	1316,84
641,55	1271,79
641,74	1349,61
641,92	1298,41
642,11	1271,79
642,30	1273,84
642,49	1251,31
642,68	1282,03
642,87	1292,27
643,06	1218,54
643,25	1228,78
643,44	1269,74
643,63	1308,65
643,82	1206,25
644,00	1290,22
644,19	1265,64
644,38	1265,64
644,57	1208,30
644,76	1374,19
644,95	1341,42
645,14	1308,65
645,33	1308,65
645,52	1273,84
645,71	1286,12
645,89	1286,12
646,08	1271,79
646,27	1294,32
646,46	1247,21
646,65	1257,45
646,84	1263,60
647,03	1322,99
647,22	1292,27
647,40	1296,36
647,59	1255,40
647,78	1185,77
647,97	1296,36
648,16	1236,97
648,35	1316,84
648,54	1296,36
648,73	1345,52
648,91	1234,93
649,10	1279,98
649,29	1267,69
649,48	1329,13
649,67	1290,22
649,86	1243,12
650,05	1298,41
650,23	1187,82
650,42	1337,32
650,61	1306,60
650,80	1331,18
650,99	1314,80
651,18	1284,08
651,36	1279,98
651,55	1263,60
651,74	1253,36
651,93	1216,49
652,12	1314,80
652,31	1277,93
652,49	1241,07
652,68	1200,11
652,87	1341,42
653,06	1218,54
653,25	1286,12
653,44	1282,03
653,62	1265,64
653,81	1228,78
654,00	1271,79
654,19	1269,74
654,38	1325,04
654,56	1366,00
654,75	1257,45
654,94	1243,12
655,13	1251,31
655,32	1322,99
655,51	1282,03
655,69	1232,88
655,88	1245,16
656,07	1310,70
656,26	1234,93
656,45	1273,84
656,63	1261,55
656,82	1292,27
657,01	1284,08
657,20	1279,98
657,38	1296,36
657,57	1230,83
657,76	1226,73
657,95	1308,65
658,14	1249,26
658,32	1261,55
658,51	1269,74
658,70	1310,70
658,89	1277,93
659,08	1265,64
659,26	1345,52
659,45	1339,37
659,64	1263,60
659,83	1282,03
660,01	1308,65
660,20	1245,16
660,39	1263,60
660,58	1284,08
660,76	1288,17
660,95	1284,08
661,14	1271,79
661,33	1257,45
661,51	1206,25
661,70	1253,36
661,89	1279,98
662,08	1212,40
662,26	1261,55
662,45	1312,75
662,64	1259,50
662,83	1234,93
663,01	1286,12
663,20	1263,60
663,39	1273,84
663,58	1214,45
663,76	1282,03
663,95	1271,79
664,14	1226,73
664,32	1228,78
664,51	1302,51
664,70	1271,79
664,89	1224,69
665,07	1232,88
665,26	1277,93
665,45	1296,36
665,64	1271,79
665,82	1234,93
666,01	1282,03
666,20	1310,70
666,38	1282,03
666,57	1202,16
666,76	1261,55
666,95	1265,64
667,13	1279,98
667,32	1296,36
667,51	1224,69
667,69	1257,45
667,88	1333,23
668,07	1320,94
668,25	1294,32
668,44	1296,36
668,63	1200,11
668,81	1296,36
669,00	1251,31
669,19	1269,74
669,38	1306,60
669,56	1312,75
669,75	1335,28
669,94	1253,36
670,12	1325,04
670,31	1269,74
670,50	1306,60
670,68	1316,84
670,87	1325,04
671,06	1263,60
671,24	1284,08
671,43	1300,46
671,62	1308,65
671,80	1292,27
671,99	1263,60
672,18	1204,21
672,36	1269,74
672,55	1255,40
672,74	1253,36
672,92	1273,84
673,11	1271,79
673,29	1279,98
673,48	1247,21
673,67	1279,98
673,85	1337,32
674,04	1193,97
674,23	1234,93
674,41	1251,31
674,60	1355,76
674,79	1304,56
674,97	1386,47
675,16	1261,55
675,34	1263,60
675,53	1312,75
675,72	1226,73
675,90	1292,27
676,09	1318,89
676,28	1302,51
676,46	1191,92
676,65	1347,56
676,83	1243,12
677,02	1232,88
677,21	1265,64
677,39	1249,26
677,58	1304,56
677,77	1208,30
677,95	1222,64
678,14	1253,36
678,32	1290,22
678,51	1279,98
678,70	1339,37
678,88	1271,79
679,07	1292,27
679,25	1210,35
679,44	1259,50
679,63	1173,49
679,81	1253,36
680,00	1253,36
680,18	1259,50
680,37	1296,36
680,55	1216,49
680,74	1257,45
680,93	1298,41
681,11	1320,94
681,30	1269,74
681,48	1273,84
681,67	1245,16
681,85	1232,88
682,04	1251,31
682,23	1359,85
682,41	1204,21
682,60	1249,26
682,78	1298,41
682,97	1263,60
683,15	1255,40
683,34	1169,39
683,53	1247,21
683,71	1232,88
683,90	1304,56
684,08	1261,55
684,27	1265,64
684,45	1298,41
684,64	1310,70
684,82	1290,22
685,01	1286,12
685,19	1273,84
685,38	1300,46
685,57	1261,55
685,75	1327,08
685,94	1294,32
686,12	1269,74
686,31	1214,45
686,49	1304,56
686,68	1331,18
686,86	1232,88
687,05	1239,02
687,23	1292,27
687,42	1232,88
687,60	1327,08
687,79	1345,52
687,97	1245,16
688,16	1284,08
688,34	1298,41
688,53	1177,58
688,71	1310,70
688,90	1232,88
689,08	1261,55
689,27	1302,51
689,45	1275,88
689,64	1275,88
689,82	1271,79
690,01	1210,35
690,19	1345,52
690,38	1200,11
690,56	1306,60
690,75	1275,88
690,93	1257,45
691,12	1265,64
691,30	1259,50
691,49	1241,07
691,67	1314,80
691,86	1343,47
692,04	1298,41
692,23	1294,32
692,41	1261,55
692,60	1216,49
692,78	1304,56
692,97	1273,84
693,15	1253,36
693,34	1284,08
693,52	1314,80
693,71	1290,22
693,89	1273,84
694,08	1200,11
694,26	1255,40
694,44	1210,35
694,63	1310,70
694,81	1214,45
695,00	1296,36
695,18	1230,83
695,37	1230,83
695,55	1169,39
695,74	1218,54
695,92	1198,06
696,10	1355,76
696,29	1220,59
696,47	1239,02
696,66	1214,45
696,84	1230,83
697,03	1265,64
697,21	1294,32
697,40	1261,55
697,58	1318,89
697,76	1163,25
697,95	1222,64
698,13	1286,12
698,32	1273,84
698,50	1273,84
698,68	1306,60
698,87	1247,21
699,05	1245,16
699,24	1230,83
699,42	1339,37
699,61	1265,64
699,79	1265,64
699,97	1230,83
700,16	1232,88
700,34	1224,69
700,53	1359,85
700,71	1255,40
700,89	1247,21
701,08	1335,28
701,26	1277,93
701,45	1277,93
701,63	1277,93
701,81	1247,21
702,00	1271,79
702,18	1232,88
702,37	1247,21
702,55	1273,84
702,73	1312,75
702,92	1259,50
703,10	1271,79
703,28	1282,03
703,47	1216,49
703,65	1255,40
703,84	1243,12
704,02	1193,97
704,20	1322,99
704,39	1241,07
704,57	1214,45
704,75	1228,78
704,94	1306,60
705,12	1267,69
705,30	1273,84
705,49	1257,45
705,67	1318,89
705,86	1241,07
706,04	1316,84
706,22	1296,36
706,41	1214,45
706,59	1288,17
706,77	1247,21
706,96	1222,64
707,14	1335,28
707,32	1232,88
707,51	1329,13
707,69	1275,88
707,87	1267,69
708,06	1275,88
708,24	1261,55
708,42	1247,21
708,61	1263,60
708,79	1302,51
708,97	1294,32
709,16	1241,07
709,34	1314,80
709,52	1212,40
709,71	1322,99
709,89	1249,26
710,07	1286,12
710,26	1273,84
710,44	1249,26
710,62	1327,08
710,80	1267,69
710,99	1251,31
711,17	1343,47
711,35	1245,16
711,54	1298,41
711,72	1236,97
711,90	1234,93
712,09	1261,55
712,27	1279,98
712,45	1277,93
712,63	1316,84
712,82	1228,78
713,00	1234,93
713,18	1263,60
713,37	1292,27
713,55	1263,60
713,73	1320,94
713,91	1263,60
714,10	1329,13
714,28	1271,79
714,46	1300,46
714,65	1277,93
714,83	1249,26
715,01	1269,74
715,19	1300,46
715,38	1255,40
715,56	1271,79
715,74	1292,27
715,92	1245,16
716,11	1333,23
716,29	1279,98
716,47	1249,26
716,65	1236,97
716,84	1279,98
717,02	1230,83
717,20	1239,02
717,38	1284,08
717,57	1265,64
717,75	1271,79
717,93	1228,78
718,11	1255,40
718,30	1271,79
718,48	1255,40
718,66	1247,21
718,84	1267,69
719,03	1282,03
719,21	1212,40
719,39	1320,94
719,57	1298,41
719,75	1212,40
719,94	1314,80
720,12	1232,88
720,30	1261,55
720,48	1282,03
720,67	1296,36
720,85	1286,12
721,03	1165,29
721,21	1357,80
721,39	1275,88
721,58	1298,41
721,76	1277,93
721,94	1298,41
722,12	1257,45
722,30	1329,13
722,49	1265,64
722,67	1290,22
722,85	1345,52
723,03	1265,64
723,21	1261,55
723,40	1306,60
723,58	1263,60
723,76	1304,56
723,94	1329,13
724,12	1269,74
724,30	1341,42
724,49	1251,31
724,67	1273,84
724,85	1279,98
725,03	1220,59
725,21	1325,04
725,40	1259,50
725,58	1257,45
725,76	1226,73
725,94	1279,98
726,12	1206,25
726,30	1243,12
726,49	1343,47
726,67	1269,74
726,85	1257,45
727,03	1251,31
727,21	1325,04
727,39	1189,87
727,57	1226,73
727,76	1263,60
727,94	1218,54
728,12	1292,27
728,30	1230,83
728,48	1204,21
728,66	1263,60
728,84	1251,31
729,03	1290,22
729,21	1230,83
729,39	1251,31
729,57	1279,98
729,75	1259,50
729,93	1230,83
730,11	1228,78
730,30	1312,75
730,48	1282,03
730,66	1290,22
730,84	1277,93
731,02	1304,56
731,20	1239,02
731,38	1234,93
731,56	1239,02
731,74	1312,75
731,93	1259,50
732,11	1292,27
732,29	1239,02
732,47	1222,64
732,65	1245,16
732,83	1243,12
733,01	1284,08
733,19	1335,28
733,37	1314,80
733,56	1249,26
733,74	1265,64
733,92	1226,73
734,10	1259,50
734,28	1296,36
734,46	1257,45
734,64	1322,99
734,82	1218,54
735,00	1181,68
735,18	1271,79
735,36	1275,88
735,54	1239,02
735,73	1257,45
735,91	1241,07
736,09	1259,50
736,27	1208,30
736,45	1306,60
736,63	1255,40
736,81	1214,45
736,99	1306,60
737,17	1271,79
737,35	1347,56
737,53	1259,50
737,71	1292,27
737,89	1282,03
738,07	1269,74
738,25	1306,60
738,43	1316,84
738,61	1300,46
738,80	1236,97
738,98	1265,64
739,16	1271,79
739,34	1314,80
739,52	1267,69
739,70	1228,78
739,88	1300,46
740,06	1275,88
740,24	1239,02
740,42	1269,74
740,60	1282,03
740,78	1277,93
740,96	1335,28
741,14	1265,64
741,32	1245,16
741,50	1273,84
741,68	1302,51
741,86	1273,84
742,04	1273,84
742,22	1245,16
742,40	1339,37
742,58	1208,30
742,76	1269,74
742,94	1284,08
743,12	1255,40
743,30	1249,26
743,48	1224,69
743,66	1296,36
743,84	1245,16
744,02	1251,31
744,20	1374,19
744,38	1253,36
744,56	1265,64
744,74	1263,60
744,92	1263,60
745,10	1296,36
745,28	1255,40
745,46	1263,60
745,64	1255,40
745,82	1269,74
746,00	1208,30
746,18	1241,07
746,36	1155,05
746,54	1206,25
746,72	1204,21
746,90	1290,22
747,08	1279,98
747,26	1277,93
747,44	1273,84
747,62	1212,40
747,80	1243,12
747,98	1310,70
748,15	1273,84
748,33	1273,84
748,51	1290,22
748,69	1282,03
748,87	1232,88
749,05	1329,13
749,23	1318,89
749,41	1232,88
749,59	1253,36
749,77	1275,88
749,95	1273,84
750,13	1175,53
750,31	1325,04
750,49	1294,32
750,67	1263,60
750,85	1282,03
751,03	1331,18
751,20	1228,78
751,38	1337,32
751,56	1234,93
751,74	1208,30
751,92	1298,41
752,10	1288,17
752,28	1253,36
752,46	1236,97
752,64	1263,60
752,82	1271,79
753,00	1296,36
753,18	1251,31
753,35	1257,45
753,53	1177,58
753,71	1284,08
753,89	1290,22
754,07	1241,07
754,25	1265,64
754,43	1241,07
754,61	1261,55
754,79	1263,60
754,97	1314,80
755,14	1232,88
755,32	1277,93
755,50	1228,78
755,68	1239,02
755,86	1249,26
756,04	1300,46
756,22	1298,41
756,40	1253,36
756,57	1257,45
756,75	1349,61
756,93	1318,89
757,11	1257,45
757,29	1220,59
757,47	1196,01
757,65	1247,21
757,82	1294,32
758,00	1239,02
758,18	1257,45
758,36	1304,56
758,54	1298,41
758,72	1232,88
758,90	1263,60
759,07	1296,36
759,25	1282,03
759,43	1241,07
759,61	1239,02
759,79	1306,60
759,97	1279,98
760,15	1263,60
760,32	1269,74
760,50	1337,32
760,68	1279,98
760,86	1273,84
761,04	1279,98
761,22	1220,59
761,39	1263,60
761,57	1251,31
761,75	1259,50
761,93	1286,12
762,11	1286,12
762,28	1275,88
762,46	1230,83
762,64	1349,61
762,82	1322,99
763,00	1241,07
763,18	1269,74
763,35	1208,30
763,53	1257,45
763,71	1257,45
763,89	1200,11
764,07	1249,26
764,24	1265,64
764,42	1228,78
764,60	1257,45
764,78	1386,47
764,96	1296,36
765,13	1314,80
765,31	1251,31
765,49	1253,36
765,67	1247,21
765,84	1245,16
766,02	1337,32
766,20	1314,80
766,38	1292,27
766,56	1279,98
766,73	1253,36
766,91	1273,84
767,09	1202,16
767,27	1198,06
767,44	1263,60
767,62	1322,99
767,80	1267,69
767,98	1306,60
768,15	1294,32
768,33	1314,80
768,51	1286,12
768,69	1294,32
768,87	1263,60
769,04	1322,99
769,22	1275,88
769,40	1255,40
769,58	1249,26
769,75	1277,93
769,93	1208,30
770,11	1241,07
770,28	1267,69
770,46	1298,41
770,64	1230,83
770,82	1220,59
770,99	1261,55
771,17	1236,97
771,35	1214,45
771,53	1269,74
771,70	1357,80
771,88	1263,60
772,06	1232,88
772,23	1249,26
772,41	1296,36
772,59	1230,83
772,77	1241,07
772,94	1286,12
773,12	1265,64
773,30	1286,12
773,47	1304,56
773,65	1243,12
773,83	1245,16
774,01	1198,06
774,18	1265,64
774,36	1255,40
774,54	1294,32
774,71	1265,64
774,89	1249,26
775,07	1245,16
775,24	1296,36
775,42	1224,69
775,60	1282,03
775,78	1271,79
775,95	1257,45
776,13	1253,36
776,31	1263,60
776,48	1243,12
776,66	1345,52
776,84	1277,93
777,01	1232,88
777,19	1300,46
777,37	1226,73
777,54	1255,40
777,72	1183,73
777,90	1357,80
778,07	1327,08
778,25	1294,32
778,43	1267,69
778,60	1216,49
778,78	1296,36
778,96	1232,88
779,13	1316,84
779,31	1249,26
779,49	1255,40
779,66	1214,45
779,84	1286,12
780,01	1228,78
780,19	1214,45
780,37	1286,12
780,54	1284,08
780,72	1234,93
780,90	1298,41
781,07	1339,37
781,25	1247,21
781,43	1288,17
781,60	1320,94
781,78	1298,41
781,95	1275,88
782,13	1265,64
782,31	1247,21
782,48	1298,41
782,66	1265,64
782,83	1316,84
783,01	1310,70
783,19	1296,36
783,36	1296,36
783,54	1277,93
783,72	1277,93
783,89	1269,74
784,07	1265,64
784,24	1253,36
784,42	1265,64
784,60	1290,22
784,77	1304,56
784,95	1273,84
785,12	1239,02
785,30	1255,40
785,47	1269,74
785,65	1292,27
785,83	1302,51
786,00	1255,40
786,18	1271,79
786,35	1171,44
786,53	1236,97
786,71	1241,07
786,88	1216,49
787,06	1261,55
787,23	1218,54
787,41	1282,03
787,58	1279,98
787,76	1310,70
787,94	1275,88
788,11	1257,45
788,29	1255,40
788,46	1306,60
788,64	1273,84
788,81	1294,32
788,99	1284,08
789,16	1171,44
789,34	1241,07
789,52	1265,64
789,69	1224,69
789,87	1286,12
790,04	1284,08
790,22	1298,41
790,39	1320,94
790,57	1230,83
790,74	1230,83
790,92	1294,32
791,09	1226,73
791,27	1290,22
791,44	1337,32
791,62	1273,84
791,79	1241,07
791,97	1226,73
792,15	1273,84
792,32	1232,88
792,50	1255,40
792,67	1304,56
792,85	1298,41
793,02	1300,46
793,20	1275,88
793,37	1249,26
793,55	1249,26
793,72	1331,18
793,90	1314,80
794,07	1257,45
794,25	1259,50
794,42	1267,69
794,60	1228,78
794,77	1228,78
794,95	1308,65
795,12	1267,69
795,30	1267,69
795,47	1284,08
795,65	1304,56
795,82	1241,07
796,00	1284,08
796,17	1245,16
796,34	1257,45
796,52	1241,07
796,69	1325,04
796,87	1273,84
797,04	1269,74
797,22	1277,93
797,39	1320,94
797,57	1261,55
797,74	1275,88
797,92	1261,55
798,09	1165,29
798,27	1257,45
798,44	1253,36
798,62	1224,69
798,79	1257,45
798,96	1292,27
799,14	1245,16
799,31	1296,36
799,49	1288,17
799,66	1224,69
799,84	1263,60
800,01	1345,52
800,19	1247,21
800,36	1263,60
800,53	1257,45
800,71	1333,23
800,88	1329,13
801,06	1277,93
801,23	1302,51
801,41	1269,74
801,58	1312,75
801,75	1220,59
801,93	1255,40
802,10	1304,56
802,28	1234,93
802,45	1255,40
802,63	1241,07
802,80	1275,88
802,97	1271,79
803,15	1269,74
803,32	1318,89
803,50	1239,02
803,67	1249,26
803,84	1286,12
804,02	1290,22
804,19	1191,92
804,37	1314,80
804,54	1271,79
804,71	1265,64
804,89	1304,56
805,06	1314,80
805,24	1218,54
805,41	1337,32
805,58	1310,70
805,76	1314,80
805,93	1247,21
806,10	1251,31
806,28	1335,28
806,45	1241,07
806,63	1286,12
806,80	1245,16
806,97	1243,12
807,15	1277,93
807,32	1308,65
807,49	1290,22
807,67	1249,26
807,84	1241,07
808,01	1265,64
808,19	1284,08
808,36	1327,08
808,54	1265,64
808,71	1296,36
808,88	1292,27
809,06	1255,40
809,23	1277,93
809,40	1290,22
809,58	1241,07
809,75	1191,92
809,92	1249,26
810,10	1282,03
810,27	1224,69
810,44	1333,23
810,62	1234,93
810,79	1259,50
810,96	1302,51
811,14	1245,16
811,31	1200,11
811,48	1310,70
811,66	1277,93
811,83	1267,69
812,00	1359,85
812,18	1288,17
812,35	1386,47
812,52	1273,84
812,69	1263,60
812,87	1228,78
813,04	1181,68
813,21	1165,29
813,39	1249,26
813,56	1271,79
813,73	1247,21
813,91	1298,41
814,08	1236,97
814,25	1239,02
814,42	1249,26
814,60	1204,21
814,77	1216,49
814,94	1273,84
815,12	1300,46
815,29	1267,69
815,46	1296,36
815,63	1206,25
815,81	1208,30
815,98	1265,64
816,15	1288,17
816,33	1298,41
816,50	1322,99
816,67	1236,97
816,84	1294,32
817,02	1198,06
817,19	1239,02
817,36	1198,06
817,53	1306,60
817,71	1259,50
817,88	1312,75
818,05	1245,16
818,22	1185,77
818,40	1220,59
818,57	1294,32
818,74	1318,89
818,91	1300,46
819,09	1300,46
819,26	1322,99
819,43	1261,55
819,60	1265,64
819,78	1314,80
819,95	1228,78
820,12	1234,93
820,29	1265,64
820,47	1282,03
820,64	1239,02
820,81	1282,03
820,98	1269,74
821,15	1282,03
821,33	1230,83
821,50	1234,93
821,67	1222,64
821,84	1275,88
822,02	1282,03
822,19	1327,08
822,36	1232,88
822,53	1302,51
822,70	1173,49
822,88	1236,97
823,05	1279,98
823,22	1288,17
823,39	1277,93
823,56	1284,08
823,74	1179,63
823,91	1220,59
824,08	1322,99
824,25	1294,32
824,42	1271,79
824,60	1241,07
824,77	1308,65
824,94	1261,55
825,11	1337,32
825,28	1239,02
825,45	1253,36
825,63	1322,99
825,80	1243,12
825,97	1282,03
826,14	1304,56
826,31	1275,88
826,48	1288,17
826,66	1312,75
826,83	1308,65
827,00	1208,30
827,17	1302,51
827,34	1253,36
827,51	1269,74
827,69	1193,97
827,86	1189,87
828,03	1232,88
828,20	1279,98
828,37	1232,88
828,54	1241,07
828,71	1335,28
828,89	1208,30
829,06	1193,97
829,23	1243,12
829,40	1341,42
829,57	1370,09
829,74	1269,74
829,91	1234,93
830,09	1230,83
830,26	1245,16
830,43	1282,03
830,60	1284,08
830,77	1314,80
830,94	1310,70
831,11	1269,74
831,28	1249,26
831,46	1302,51
831,63	1216,49
831,80	1329,13
831,97	1310,70
832,14	1312,75
832,31	1243,12
832,48	1265,64
832,65	1214,45
832,82	1374,19
832,99	1290,22
833,17	1239,02
833,34	1224,69
833,51	1279,98
833,68	1228,78
833,85	1222,64
834,02	1253,36
834,19	1239,02
834,36	1277,93
834,53	1230,83
834,70	1265,64
834,87	1239,02
835,04	1308,65
835,22	1279,98
835,39	1241,07
835,56	1249,26
835,73	1275,88
835,90	1247,21
836,07	1300,46
836,24	1247,21
836,41	1241,07
836,58	1265,64
836,75	1261,55
836,92	1216,49
837,09	1353,71
837,26	1257,45
837,43	1241,07
837,60	1314,80
837,77	1271,79
837,94	1204,21
838,12	1288,17
838,29	1220,59
838,46	1275,88
838,63	1290,22
838,80	1271,79
838,97	1290,22
839,14	1234,93
839,31	1275,88
839,48	1265,64
839,65	1234,93
839,82	1222,64
839,99	1232,88
840,16	1310,70
840,33	1271,79
840,50	1204,21
840,67	1198,06
840,84	1277,93
841,01	1232,88
841,18	1273,84
841,35	1257,45
841,52	1331,18
841,69	1298,41
841,86	1288,17
842,03	1294,32
842,20	1243,12
842,37	1249,26
842,54	1284,08
842,71	1224,69
842,88	1282,03
843,05	1318,89
843,22	1288,17
843,39	1210,35
843,56	1224,69
843,73	1249,26
843,90	1279,98
844,07	1243,12
844,24	1306,60
844,41	1269,74
844,58	1269,74
844,75	1249,26
844,92	1269,74
845,09	1222,64
845,26	1261,55
845,43	1208,30
845,60	1286,12
845,77	1310,70
845,94	1249,26
846,10	1275,88
846,27	1312,75
846,44	1284,08
846,61	1249,26
846,78	1236,97
846,95	1232,88
847,12	1265,64
847,29	1271,79
847,46	1267,69
847,63	1220,59
847,80	1265,64
847,97	1198,06
848,14	1263,60
848,31	1316,84
848,48	1288,17
848,65	1282,03
848,82	1302,51
848,98	1263,60
849,15	1212,40
849,32	1247,21
849,49	1243,12
849,66	1243,12
849,83	1275,88
850,00	1298,41
850,17	1232,88
850,34	1300,46
850,51	1333,23
850,68	1220,59
850,85	1222,64
851,01	1269,74
851,18	1249,26
851,35	1300,46
851,52	1241,07
851,69	1282,03
851,86	1259,50
852,03	1241,07
852,20	1214,45
852,37	1189,87
852,53	1349,61
852,70	1153,01
852,87	1253,36
853,04	1232,88
853,21	1249,26
853,38	1263,60
853,55	1232,88
853,72	1314,80
853,89	1267,69
854,05	1292,27
854,22	1269,74
854,39	1239,02
854,56	1255,40
854,73	1298,41
854,90	1329,13
855,07	1298,41
855,23	1269,74
855,40	1228,78
855,57	1288,17
855,74	1181,68
855,91	1167,34
856,08	1257,45
856,25	1312,75
856,41	1345,52
856,58	1189,87
856,75	1271,79
856,92	1257,45
857,09	1271,79
857,26	1251,31
857,42	1212,40
857,59	1239,02
857,76	1263,60
857,93	1210,35
858,10	1236,97
858,27	1261,55
858,43	1273,84
858,60	1230,83
858,77	1220,59
858,94	1265,64
859,11	1308,65
859,27	1224,69
859,44	1286,12
859,61	1273,84
859,78	1306,60
859,95	1183,73
860,12	1284,08
860,28	1277,93
860,45	1249,26
860,62	1296,36
860,79	1290,22
860,95	1329,13
861,12	1343,47
861,29	1220,59
861,46	1284,08
861,63	1282,03
861,79	1263,60
861,96	1218,54
862,13	1273,84
862,30	1230,83
862,47	1273,84
862,63	1255,40
862,80	1314,80
862,97	1277,93
863,14	1234,93
863,30	1275,88
863,47	1249,26
863,64	1300,46
863,81	1292,27
863,97	1277,93
864,14	1298,41
864,31	1331,18
864,48	1243,12
864,65	1318,89
864,81	1277,93
864,98	1308,65
865,15	1306,60
865,32	1261,55
865,48	1269,74
865,65	1249,26
865,82	1273,84
865,98	1255,40
866,15	1267,69
866,32	1265,64
866,49	1206,25
866,65	1224,69
866,82	1288,17
866,99	1296,36
867,16	1339,37
867,32	1275,88
867,49	1271,79
867,66	1302,51
867,83	1333,23
867,99	1263,60
868,16	1245,16
868,33	1279,98
868,49	1290,22
868,66	1224,69
868,83	1245,16
868,99	1249,26
869,16	1325,04
869,33	1255,40
869,50	1308,65
869,66	1265,64
869,83	1296,36
870,00	1320,94
870,16	1196,01
870,33	1234,93
870,50	1257,45
870,66	1206,25
870,83	1247,21
871,00	1300,46
871,17	1198,06
871,33	1269,74
871,50	1245,16
871,67	1304,56
871,83	1232,88
872,00	1228,78
872,17	1261,55
872,33	1241,07
872,50	1300,46
872,67	1236,97
872,83	1320,94
873,00	1245,16
873,17	1302,51
873,33	1275,88
873,50	1271,79
873,67	1298,41
873,83	1228,78
874,00	1314,80
874,16	1230,83
874,33	1302,51
874,50	1265,64
874,66	1308,65
874,83	1263,60
875,00	1257,45
875,16	1312,75
875,33	1232,88
875,50	1224,69
875,66	1290,22
875,83	1222,64
875,99	1232,88
876,16	1224,69
876,33	1255,40
876,49	1259,50
876,66	1249,26
876,83	1255,40
876,99	1220,59
877,16	1306,60
877,32	1308,65
877,49	1308,65
877,66	1230,83
877,82	1331,18
877,99	1310,70
878,15	1222,64
878,32	1306,60
878,49	1263,60
878,65	1279,98
878,82	1257,45
878,98	1216,49
879,15	1314,80
879,32	1302,51
879,48	1236,97
879,65	1251,31
879,81	1275,88
879,98	1282,03
880,15	1288,17
880,31	1212,40
880,48	1271,79
880,64	1290,22
880,81	1277,93
880,97	1253,36
881,14	1245,16
881,31	1210,35
881,47	1286,12
881,64	1239,02
881,80	1261,55
881,97	1298,41
882,13	1271,79
882,30	1210,35
882,47	1322,99
882,63	1243,12
882,80	1189,87
882,96	1198,06
883,13	1214,45
883,29	1282,03
883,46	1212,40
883,62	1294,32
883,79	1243,12
883,95	1329,13
884,12	1236,97
884,29	1218,54
884,45	1308,65
884,62	1294,32
884,78	1247,21
884,95	1253,36
885,11	1314,80
885,28	1292,27
885,44	1236,97
885,61	1228,78
885,77	1277,93
885,94	1271,79
886,10	1220,59
886,27	1279,98
886,43	1224,69
886,60	1218,54
886,76	1290,22
886,93	1234,93
887,09	1275,88
887,26	1322,99
887,42	1261,55
887,59	1220,59
887,75	1288,17
887,92	1263,60
888,08	1251,31
888,25	1349,61
888,41	1234,93
888,58	1304,56
888,74	1239,02
888,91	1290,22
>>>>>End Processed Spectral Data<<<<<
