SpectraSuite Data File
++++++++++++++++++++++++++++++++++++
Date: Sun Apr 03 19:55:51 CEST 2016
User: root
Dark Spectrum Present: No
Reference Spectrum Present: No
Number of Sampled Component Spectra: 1
Spectrometers: USB4C02835
Integration Time (usec): 10000 (USB4C02835)
Spectra Averaged: 1 (USB4C02835)
Boxcar Smoothing: 0 (USB4C02835)
Correct for Electrical Dark: No (USB4C02835)
Strobe/Lamp Enabled: No (USB4C02835)
Correct for Detector Non-linearity: No (USB4C02835)
Correct for Stray Light: No (USB4C02835)
Number of Pixels in Processed Spectrum: 3648
>>>>>Begin Processed Spectral Data<<<<<
177,47	1298,41
177,69	1298,41
177,91	1298,41
178,13	1294,32
178,36	1265,64
178,58	1316,84
178,80	1286,12
179,02	1206,25
179,24	1288,17
179,46	1310,70
179,68	1206,25
179,90	1294,32
180,13	1187,82
180,35	1355,76
180,57	1273,84
180,79	1277,93
181,01	1302,51
181,23	1212,40
181,45	1212,40
181,67	1200,11
181,90	1175,53
182,12	1308,65
182,34	1273,84
182,56	1171,44
182,78	1378,28
183,00	1308,65
183,22	1263,60
183,44	1282,03
183,66	1239,02
183,89	1251,31
184,11	1249,26
184,33	1279,98
184,55	1259,50
184,77	1294,32
184,99	1251,31
185,21	1363,95
185,43	1257,45
185,65	1310,70
185,87	1335,28
186,10	1193,97
186,32	1304,56
186,54	1304,56
186,76	1275,88
186,98	1191,92
187,20	1269,74
187,42	1286,12
187,64	1288,17
187,86	1234,93
188,08	1265,64
188,30	1187,82
188,52	1263,60
188,75	1366,00
188,97	1284,08
189,19	1259,50
189,41	1259,50
189,63	1308,65
189,85	1290,22
190,07	1204,21
190,29	1304,56
190,51	1243,12
190,73	1189,87
190,95	1290,22
191,17	1310,70
191,39	1259,50
191,61	1226,73
191,84	1214,45
192,06	1259,50
192,28	1216,49
192,50	1351,66
192,72	1288,17
192,94	1193,97
193,16	1245,16
193,38	1282,03
193,60	1253,36
193,82	1273,84
194,04	1265,64
194,26	1198,06
194,48	1279,98
194,70	1271,79
194,92	1257,45
195,14	1249,26
195,36	1271,79
195,58	1198,06
195,80	1277,93
196,02	1322,99
196,24	1228,78
196,46	1310,70
196,69	1241,07
196,91	1335,28
197,13	1296,36
197,35	1273,84
197,57	1247,21
197,79	1196,01
198,01	1220,59
198,23	1290,22
198,45	1239,02
198,67	1304,56
198,89	1271,79
199,11	1249,26
199,33	1269,74
199,55	1298,41
199,77	1239,02
199,99	1318,89
200,21	1261,55
200,43	1300,46
200,65	1191,92
200,87	1273,84
201,09	1271,79
201,31	1249,26
201,53	1290,22
201,75	1288,17
201,97	1294,32
202,19	1245,16
202,41	1216,49
202,63	1243,12
202,85	1228,78
203,07	1298,41
203,29	1277,93
203,51	1255,40
203,73	1216,49
203,95	1343,47
204,17	1286,12
204,39	1306,60
204,61	1236,97
204,83	1296,36
205,05	1267,69
205,27	1312,75
205,49	1271,79
205,71	1243,12
205,93	1292,27
206,15	1222,64
206,37	1277,93
206,59	1206,25
206,81	1277,93
207,03	1224,69
207,25	1314,80
207,47	1279,98
207,69	1275,88
207,91	1277,93
208,13	1316,84
208,34	1239,02
208,56	1279,98
208,78	1245,16
209,00	1275,88
209,22	1210,35
209,44	1249,26
209,66	1263,60
209,88	1298,41
210,10	1216,49
210,32	1257,45
210,54	1294,32
210,76	1263,60
210,98	1253,36
211,20	1210,35
211,42	1265,64
211,64	1271,79
211,86	1325,04
212,08	1294,32
212,30	1327,08
212,52	1224,69
212,74	1361,90
212,96	1243,12
213,17	1292,27
213,39	1302,51
213,61	1224,69
213,83	1353,71
214,05	1288,17
214,27	1241,07
214,49	1304,56
214,71	1249,26
214,93	1302,51
215,15	1308,65
215,37	1318,89
215,59	1247,21
215,81	1247,21
216,03	1269,74
216,24	1318,89
216,46	1302,51
216,68	1222,64
216,90	1284,08
217,12	1224,69
217,34	1271,79
217,56	1320,94
217,78	1257,45
218,00	1290,22
218,22	1228,78
218,44	1259,50
218,66	1363,95
218,87	1247,21
219,09	1275,88
219,31	1247,21
219,53	1251,31
219,75	1306,60
219,97	1153,01
220,19	1249,26
220,41	1277,93
220,63	1296,36
220,85	1251,31
221,06	1296,36
221,28	1234,93
221,50	1204,21
221,72	1279,98
221,94	1290,22
222,16	1308,65
222,38	1345,52
222,60	1288,17
222,82	1234,93
223,03	1277,93
223,25	1277,93
223,47	1263,60
223,69	1339,37
223,91	1259,50
224,13	1208,30
224,35	1243,12
224,57	1271,79
224,78	1318,89
225,00	1327,08
225,22	1247,21
225,44	1339,37
225,66	1265,64
225,88	1232,88
226,10	1200,11
226,32	1282,03
226,53	1298,41
226,75	1343,47
226,97	1269,74
227,19	1277,93
227,41	1230,83
227,63	1253,36
227,85	1226,73
228,06	1267,69
228,28	1300,46
228,50	1312,75
228,72	1259,50
228,94	1277,93
229,16	1351,66
229,37	1257,45
229,59	1249,26
229,81	1312,75
230,03	1265,64
230,25	1292,27
230,47	1273,84
230,69	1247,21
230,90	1263,60
231,12	1210,35
231,34	1239,02
231,56	1314,80
231,78	1261,55
232,00	1271,79
232,21	1300,46
232,43	1210,35
232,65	1286,12
232,87	1271,79
233,09	1335,28
233,30	1230,83
233,52	1234,93
233,74	1208,30
233,96	1284,08
234,18	1282,03
234,40	1255,40
234,61	1312,75
234,83	1224,69
235,05	1241,07
235,27	1259,50
235,49	1331,18
235,70	1275,88
235,92	1333,23
236,14	1288,17
236,36	1269,74
236,58	1220,59
236,79	1232,88
237,01	1245,16
237,23	1243,12
237,45	1316,84
237,67	1216,49
237,88	1288,17
238,10	1269,74
238,32	1239,02
238,54	1349,61
238,76	1249,26
238,97	1310,70
239,19	1263,60
239,41	1298,41
239,63	1271,79
239,85	1314,80
240,06	1271,79
240,28	1269,74
240,50	1304,56
240,72	1226,73
240,93	1173,49
241,15	1337,32
241,37	1335,28
241,59	1273,84
241,81	1249,26
242,02	1241,07
242,24	1271,79
242,46	1273,84
242,68	1296,36
242,89	1292,27
243,11	1300,46
243,33	1290,22
243,55	1359,85
243,76	1329,13
243,98	1245,16
244,20	1263,60
244,42	1337,32
244,64	1279,98
244,85	1230,83
245,07	1253,36
245,29	1232,88
245,51	1286,12
245,72	1255,40
245,94	1300,46
246,16	1236,97
246,38	1275,88
246,59	1302,51
246,81	1275,88
247,03	1339,37
247,24	1275,88
247,46	1288,17
247,68	1216,49
247,90	1284,08
248,11	1265,64
248,33	1214,45
248,55	1218,54
248,77	1200,11
248,98	1271,79
249,20	1222,64
249,42	1239,02
249,64	1259,50
249,85	1218,54
250,07	1290,22
250,29	1298,41
250,50	1279,98
250,72	1253,36
250,94	1261,55
251,16	1269,74
251,37	1181,68
251,59	1200,11
251,81	1173,49
252,02	1239,02
252,24	1298,41
252,46	1284,08
252,68	1271,79
252,89	1273,84
253,11	1234,93
253,33	1271,79
253,54	1265,64
253,76	1302,51
253,98	1322,99
254,20	1314,80
254,41	1333,23
254,63	1220,59
254,85	1247,21
255,06	1312,75
255,28	1333,23
255,50	1304,56
255,71	1232,88
255,93	1261,55
256,15	1279,98
256,36	1378,28
256,58	1206,25
256,80	1294,32
257,02	1220,59
257,23	1316,84
257,45	1286,12
257,67	1269,74
257,88	1224,69
258,10	1310,70
258,32	1228,78
258,53	1273,84
258,75	1282,03
258,97	1314,80
259,18	1273,84
259,40	1312,75
259,62	1255,40
259,83	1206,25
260,05	1234,93
260,27	1279,98
260,48	1271,79
260,70	1255,40
260,92	1314,80
261,13	1308,65
261,35	1210,35
261,57	1277,93
261,78	1216,49
262,00	1335,28
262,22	1294,32
262,43	1228,78
262,65	1310,70
262,86	1232,88
263,08	1265,64
263,30	1245,16
263,51	1279,98
263,73	1251,31
263,95	1243,12
264,16	1263,60
264,38	1245,16
264,60	1232,88
264,81	1257,45
265,03	1277,93
265,25	1341,42
265,46	1245,16
265,68	1320,94
265,89	1273,84
266,11	1288,17
266,33	1247,21
266,54	1277,93
266,76	1314,80
266,98	1310,70
267,19	1255,40
267,41	1226,73
267,62	1228,78
267,84	1228,78
268,06	1308,65
268,27	1275,88
268,49	1284,08
268,70	1275,88
268,92	1253,36
269,14	1247,21
269,35	1325,04
269,57	1191,92
269,79	1273,84
270,00	1253,36
270,22	1247,21
270,43	1290,22
270,65	1325,04
270,87	1296,36
271,08	1257,45
271,30	1306,60
271,51	1329,13
271,73	1286,12
271,95	1304,56
272,16	1286,12
272,38	1267,69
272,59	1234,93
272,81	1265,64
273,02	1331,18
273,24	1245,16
273,46	1243,12
273,67	1288,17
273,89	1196,01
274,10	1255,40
274,32	1263,60
274,54	1261,55
274,75	1333,23
274,97	1177,58
275,18	1279,98
275,40	1251,31
275,61	1230,83
275,83	1253,36
276,05	1296,36
276,26	1300,46
276,48	1183,73
276,69	1302,51
276,91	1241,07
277,12	1216,49
277,34	1210,35
277,55	1253,36
277,77	1331,18
277,99	1277,93
278,20	1206,25
278,42	1263,60
278,63	1286,12
278,85	1224,69
279,06	1296,36
279,28	1286,12
279,49	1269,74
279,71	1243,12
279,93	1249,26
280,14	1220,59
280,36	1257,45
280,57	1202,16
280,79	1214,45
281,00	1253,36
281,22	1329,13
281,43	1288,17
281,65	1290,22
281,86	1267,69
282,08	1214,45
282,29	1230,83
282,51	1228,78
282,73	1343,47
282,94	1271,79
283,16	1275,88
283,37	1282,03
283,59	1347,56
283,80	1220,59
284,02	1232,88
284,23	1249,26
284,45	1263,60
284,66	1230,83
284,88	1277,93
285,09	1234,93
285,31	1294,32
285,52	1273,84
285,74	1298,41
285,95	1275,88
286,17	1271,79
286,38	1243,12
286,60	1261,55
286,81	1277,93
287,03	1261,55
287,24	1263,60
287,46	1288,17
287,67	1234,93
287,89	1249,26
288,10	1245,16
288,32	1253,36
288,53	1214,45
288,75	1271,79
288,96	1216,49
289,18	1243,12
289,39	1351,66
289,61	1282,03
289,82	1241,07
290,04	1306,60
290,25	1243,12
290,47	1267,69
290,68	1275,88
290,90	1202,16
291,11	1257,45
291,33	1249,26
291,54	1296,36
291,76	1257,45
291,97	1224,69
292,18	1245,16
292,40	1265,64
292,61	1273,84
292,83	1253,36
293,04	1306,60
293,26	1251,31
293,47	1310,70
293,69	1273,84
293,90	1216,49
294,12	1249,26
294,33	1212,40
294,55	1265,64
294,76	1370,09
294,97	1259,50
295,19	1251,31
295,40	1220,59
295,62	1273,84
295,83	1232,88
296,05	1402,86
296,26	1302,51
296,48	1251,31
296,69	1318,89
296,90	1269,74
297,12	1249,26
297,33	1198,06
297,55	1341,42
297,76	1304,56
297,98	1294,32
298,19	1312,75
298,41	1193,97
298,62	1271,79
298,83	1271,79
299,05	1312,75
299,26	1273,84
299,48	1232,88
299,69	1273,84
299,90	1169,39
300,12	1212,40
300,33	1269,74
300,55	1290,22
300,76	1282,03
300,98	1300,46
301,19	1327,08
301,40	1232,88
301,62	1296,36
301,83	1290,22
302,05	1273,84
302,26	1288,17
302,47	1247,21
302,69	1245,16
302,90	1249,26
303,12	1216,49
303,33	1263,60
303,54	1232,88
303,76	1208,30
303,97	1249,26
304,19	1304,56
304,40	1232,88
304,61	1259,50
304,83	1253,36
305,04	1251,31
305,26	1253,36
305,47	1275,88
305,68	1230,83
305,90	1296,36
306,11	1232,88
306,33	1226,73
306,54	1222,64
306,75	1267,69
306,97	1249,26
307,18	1277,93
307,39	1279,98
307,61	1273,84
307,82	1286,12
308,04	1228,78
308,25	1247,21
308,46	1208,30
308,68	1282,03
308,89	1308,65
309,10	1263,60
309,32	1263,60
309,53	1339,37
309,74	1273,84
309,96	1269,74
310,17	1273,84
310,39	1304,56
310,60	1216,49
310,81	1228,78
311,03	1294,32
311,24	1249,26
311,45	1304,56
311,67	1249,26
311,88	1273,84
312,09	1247,21
312,31	1232,88
312,52	1261,55
312,73	1349,61
312,95	1267,69
313,16	1247,21
313,37	1347,56
313,59	1310,70
313,80	1345,52
314,01	1294,32
314,23	1265,64
314,44	1329,13
314,65	1302,51
314,87	1312,75
315,08	1271,79
315,29	1314,80
315,51	1296,36
315,72	1210,35
315,93	1347,56
316,15	1245,16
316,36	1263,60
316,57	1265,64
316,79	1300,46
317,00	1247,21
317,21	1241,07
317,43	1257,45
317,64	1228,78
317,85	1265,64
318,07	1234,93
318,28	1263,60
318,49	1267,69
318,70	1282,03
318,92	1247,21
319,13	1282,03
319,34	1265,64
319,56	1189,87
319,77	1286,12
319,98	1284,08
320,20	1259,50
320,41	1259,50
320,62	1263,60
320,83	1282,03
321,05	1243,12
321,26	1257,45
321,47	1288,17
321,69	1255,40
321,90	1236,97
322,11	1322,99
322,32	1343,47
322,54	1247,21
322,75	1208,30
322,96	1269,74
323,18	1214,45
323,39	1318,89
323,60	1292,27
323,81	1232,88
324,03	1261,55
324,24	1208,30
324,45	1279,98
324,66	1284,08
324,88	1273,84
325,09	1282,03
325,30	1220,59
325,52	1263,60
325,73	1271,79
325,94	1239,02
326,15	1286,12
326,37	1275,88
326,58	1234,93
326,79	1325,04
327,00	1271,79
327,22	1271,79
327,43	1286,12
327,64	1202,16
327,85	1185,77
328,07	1282,03
328,28	1271,79
328,49	1267,69
328,70	1265,64
328,92	1306,60
329,13	1243,12
329,34	1245,16
329,55	1157,10
329,76	1359,85
329,98	1218,54
330,19	1265,64
330,40	1279,98
330,61	1257,45
330,83	1292,27
331,04	1292,27
331,25	1216,49
331,46	1333,23
331,68	1236,97
331,89	1339,37
332,10	1259,50
332,31	1261,55
332,52	1269,74
332,74	1263,60
332,95	1286,12
333,16	1245,16
333,37	1271,79
333,58	1284,08
333,80	1288,17
334,01	1269,74
334,22	1253,36
334,43	1255,40
334,64	1253,36
334,86	1273,84
335,07	1269,74
335,28	1312,75
335,49	1282,03
335,70	1322,99
335,92	1273,84
336,13	1255,40
336,34	1345,52
336,55	1198,06
336,76	1267,69
336,98	1263,60
337,19	1210,35
337,40	1236,97
337,61	1304,56
337,82	1239,02
338,04	1325,04
338,25	1185,77
338,46	1282,03
338,67	1236,97
338,88	1216,49
339,09	1249,26
339,31	1206,25
339,52	1341,42
339,73	1208,30
339,94	1296,36
340,15	1288,17
340,36	1216,49
340,58	1214,45
340,79	1296,36
341,00	1286,12
341,21	1257,45
341,42	1245,16
341,63	1226,73
341,85	1208,30
342,06	1320,94
342,27	1234,93
342,48	1331,18
342,69	1331,18
342,90	1273,84
343,12	1228,78
343,33	1273,84
343,54	1290,22
343,75	1267,69
343,96	1255,40
344,17	1259,50
344,38	1294,32
344,60	1230,83
344,81	1269,74
345,02	1318,89
345,23	1322,99
345,44	1325,04
345,65	1224,69
345,86	1351,66
346,07	1314,80
346,29	1212,40
346,50	1286,12
346,71	1286,12
346,92	1294,32
347,13	1208,30
347,34	1288,17
347,55	1218,54
347,76	1212,40
347,98	1212,40
348,19	1241,07
348,40	1239,02
348,61	1202,16
348,82	1335,28
349,03	1251,31
349,24	1269,74
349,45	1175,53
349,66	1241,07
349,88	1243,12
350,09	1335,28
350,30	1257,45
350,51	1308,65
350,72	1294,32
350,93	1267,69
351,14	1241,07
351,35	1228,78
351,56	1243,12
351,77	1232,88
351,99	1271,79
352,20	1247,21
352,41	1288,17
352,62	1288,17
352,83	1314,80
353,04	1310,70
353,25	1218,54
353,46	1361,90
353,67	1284,08
353,88	1316,84
354,09	1310,70
354,30	1279,98
354,52	1247,21
354,73	1322,99
354,94	1286,12
355,15	1193,97
355,36	1279,98
355,57	1255,40
355,78	1216,49
355,99	1294,32
356,20	1234,93
356,41	1271,79
356,62	1206,25
356,83	1314,80
357,04	1228,78
357,25	1255,40
357,46	1241,07
357,68	1306,60
357,89	1298,41
358,10	1251,31
358,31	1247,21
358,52	1173,49
358,73	1198,06
358,94	1282,03
359,15	1196,01
359,36	1310,70
359,57	1261,55
359,78	1322,99
359,99	1198,06
360,20	1288,17
360,41	1282,03
360,62	1261,55
360,83	1306,60
361,04	1314,80
361,25	1208,30
361,46	1292,27
361,67	1253,36
361,88	1322,99
362,09	1286,12
362,30	1288,17
362,51	1226,73
362,72	1247,21
362,93	1226,73
363,14	1286,12
363,35	1296,36
363,56	1322,99
363,78	1263,60
363,99	1249,26
364,20	1222,64
364,41	1263,60
364,62	1261,55
364,83	1296,36
365,04	1239,02
365,25	1327,08
365,46	1251,31
365,67	1216,49
365,88	1288,17
366,09	1249,26
366,30	1243,12
366,51	1273,84
366,72	1224,69
366,93	1218,54
367,14	1257,45
367,35	1292,27
367,56	1275,88
367,77	1304,56
367,98	1279,98
368,18	1284,08
368,39	1275,88
368,60	1247,21
368,81	1241,07
369,02	1208,30
369,23	1302,51
369,44	1308,65
369,65	1216,49
369,86	1269,74
370,07	1265,64
370,28	1355,76
370,49	1271,79
370,70	1208,30
370,91	1224,69
371,12	1210,35
371,33	1302,51
371,54	1314,80
371,75	1282,03
371,96	1253,36
372,17	1298,41
372,38	1298,41
372,59	1249,26
372,80	1271,79
373,01	1208,30
373,22	1216,49
373,43	1329,13
373,64	1294,32
373,85	1259,50
374,06	1292,27
374,26	1245,16
374,47	1273,84
374,68	1208,30
374,89	1284,08
375,10	1210,35
375,31	1329,13
375,52	1255,40
375,73	1308,65
375,94	1265,64
376,15	1304,56
376,36	1267,69
376,57	1208,30
376,78	1302,51
376,99	1230,83
377,20	1249,26
377,40	1232,88
377,61	1273,84
377,82	1249,26
378,03	1267,69
378,24	1247,21
378,45	1300,46
378,66	1314,80
378,87	1298,41
379,08	1228,78
379,29	1198,06
379,50	1228,78
379,71	1249,26
379,91	1253,36
380,12	1339,37
380,33	1304,56
380,54	1275,88
380,75	1269,74
380,96	1249,26
381,17	1288,17
381,38	1277,93
381,59	1269,74
381,80	1290,22
382,00	1316,84
382,21	1247,21
382,42	1247,21
382,63	1275,88
382,84	1314,80
383,05	1300,46
383,26	1261,55
383,47	1286,12
383,68	1234,93
383,88	1290,22
384,09	1279,98
384,30	1253,36
384,51	1222,64
384,72	1251,31
384,93	1269,74
385,14	1288,17
385,35	1267,69
385,55	1273,84
385,76	1265,64
385,97	1333,23
386,18	1220,59
386,39	1161,20
386,60	1284,08
386,81	1247,21
387,02	1310,70
387,22	1304,56
387,43	1245,16
387,64	1232,88
387,85	1265,64
388,06	1298,41
388,27	1224,69
388,48	1206,25
388,68	1279,98
388,89	1279,98
389,10	1298,41
389,31	1302,51
389,52	1249,26
389,73	1214,45
389,93	1247,21
390,14	1259,50
390,35	1243,12
390,56	1275,88
390,77	1257,45
390,98	1206,25
391,18	1255,40
391,39	1304,56
391,60	1239,02
391,81	1310,70
392,02	1255,40
392,23	1251,31
392,43	1302,51
392,64	1257,45
392,85	1212,40
393,06	1304,56
393,27	1236,97
393,47	1304,56
393,68	1298,41
393,89	1294,32
394,10	1333,23
394,31	1314,80
394,52	1214,45
394,72	1306,60
394,93	1314,80
395,14	1218,54
395,35	1345,52
395,56	1249,26
395,76	1271,79
395,97	1257,45
396,18	1290,22
396,39	1284,08
396,60	1236,97
396,80	1265,64
397,01	1253,36
397,22	1234,93
397,43	1282,03
397,64	1216,49
397,84	1294,32
398,05	1329,13
398,26	1249,26
398,47	1253,36
398,67	1263,60
398,88	1308,65
399,09	1314,80
399,30	1288,17
399,51	1331,18
399,71	1294,32
399,92	1282,03
400,13	1282,03
400,34	1292,27
400,54	1257,45
400,75	1273,84
400,96	1251,31
401,17	1339,37
401,37	1312,75
401,58	1292,27
401,79	1312,75
402,00	1269,74
402,21	1331,18
402,41	1355,76
402,62	1275,88
402,83	1337,32
403,04	1247,21
403,24	1298,41
403,45	1345,52
403,66	1234,93
403,87	1267,69
404,07	1308,65
404,28	1249,26
404,49	1220,59
404,70	1275,88
404,90	1230,83
405,11	1296,36
405,32	1206,25
405,52	1355,76
405,73	1296,36
405,94	1249,26
406,15	1212,40
406,35	1255,40
406,56	1251,31
406,77	1263,60
406,98	1271,79
407,18	1277,93
407,39	1284,08
407,60	1206,25
407,80	1333,23
408,01	1255,40
408,22	1263,60
408,43	1222,64
408,63	1261,55
408,84	1316,84
409,05	1239,02
409,25	1247,21
409,46	1292,27
409,67	1273,84
409,88	1286,12
410,08	1253,36
410,29	1322,99
410,50	1325,04
410,70	1284,08
410,91	1189,87
411,12	1312,75
411,32	1236,97
411,53	1259,50
411,74	1312,75
411,95	1284,08
412,15	1249,26
412,36	1263,60
412,57	1191,92
412,77	1357,80
412,98	1259,50
413,19	1302,51
413,39	1341,42
413,60	1298,41
413,81	1300,46
414,01	1267,69
414,22	1288,17
414,43	1245,16
414,63	1181,68
414,84	1316,84
415,05	1239,02
415,25	1232,88
415,46	1267,69
415,67	1288,17
415,87	1271,79
416,08	1224,69
416,29	1239,02
416,49	1279,98
416,70	1224,69
416,91	1239,02
417,11	1310,70
417,32	1314,80
417,53	1218,54
417,73	1265,64
417,94	1298,41
418,15	1343,47
418,35	1263,60
418,56	1288,17
418,77	1230,83
418,97	1306,60
419,18	1234,93
419,38	1327,08
419,59	1191,92
419,80	1310,70
420,00	1189,87
420,21	1325,04
420,42	1179,63
420,62	1259,50
420,83	1361,90
421,04	1314,80
421,24	1210,35
421,45	1335,28
421,65	1279,98
421,86	1267,69
422,07	1298,41
422,27	1230,83
422,48	1218,54
422,69	1314,80
422,89	1181,68
423,10	1322,99
423,30	1228,78
423,51	1329,13
423,72	1308,65
423,92	1222,64
424,13	1265,64
424,33	1198,06
424,54	1284,08
424,75	1226,73
424,95	1257,45
425,16	1216,49
425,36	1284,08
425,57	1298,41
425,78	1294,32
425,98	1261,55
426,19	1224,69
426,39	1271,79
426,60	1267,69
426,81	1245,16
427,01	1259,50
427,22	1306,60
427,42	1210,35
427,63	1275,88
427,83	1230,83
428,04	1314,80
428,25	1263,60
428,45	1290,22
428,66	1230,83
428,86	1349,61
429,07	1298,41
429,28	1241,07
429,48	1243,12
429,69	1257,45
429,89	1239,02
430,10	1265,64
430,30	1288,17
430,51	1198,06
430,71	1263,60
430,92	1167,34
431,13	1271,79
431,33	1251,31
431,54	1230,83
431,74	1269,74
431,95	1249,26
432,15	1320,94
432,36	1243,12
432,56	1298,41
432,77	1337,32
432,98	1202,16
433,18	1292,27
433,39	1288,17
433,59	1290,22
433,80	1279,98
434,00	1255,40
434,21	1167,34
434,41	1275,88
434,62	1181,68
434,82	1224,69
435,03	1273,84
435,23	1275,88
435,44	1282,03
435,64	1347,56
435,85	1226,73
436,06	1308,65
436,26	1277,93
436,47	1255,40
436,67	1355,76
436,88	1236,97
437,08	1261,55
437,29	1230,83
437,49	1298,41
437,70	1171,44
437,90	1241,07
438,11	1243,12
438,31	1286,12
438,52	1333,23
438,72	1335,28
438,93	1310,70
439,13	1298,41
439,34	1234,93
439,54	1271,79
439,75	1243,12
439,95	1312,75
440,16	1253,36
440,36	1302,51
440,57	1265,64
440,77	1251,31
440,98	1284,08
441,18	1335,28
441,39	1318,89
441,59	1310,70
441,80	1185,77
442,00	1247,21
442,21	1253,36
442,41	1216,49
442,62	1232,88
442,82	1314,80
443,02	1249,26
443,23	1265,64
443,43	1210,35
443,64	1298,41
443,84	1302,51
444,05	1306,60
444,25	1267,69
444,46	1249,26
444,66	1200,11
444,87	1253,36
445,07	1198,06
445,28	1282,03
445,48	1288,17
445,69	1269,74
445,89	1269,74
446,09	1320,94
446,30	1320,94
446,50	1290,22
446,71	1273,84
446,91	1271,79
447,12	1228,78
447,32	1275,88
447,53	1279,98
447,73	1200,11
447,93	1308,65
448,14	1304,56
448,34	1296,36
448,55	1290,22
448,75	1282,03
448,96	1296,36
449,16	1374,19
449,36	1310,70
449,57	1277,93
449,77	1273,84
449,98	1308,65
450,18	1329,13
450,39	1290,22
450,59	1277,93
450,79	1351,66
451,00	1282,03
451,20	1351,66
451,41	1220,59
451,61	1288,17
451,81	1206,25
452,02	1279,98
452,22	1341,42
452,43	1243,12
452,63	1292,27
452,84	1216,49
453,04	1316,84
453,24	1269,74
453,45	1273,84
453,65	1298,41
453,86	1220,59
454,06	1335,28
454,26	1279,98
454,47	1265,64
454,67	1329,13
454,87	1247,21
455,08	1314,80
455,28	1226,73
455,49	1322,99
455,69	1277,93
455,89	1308,65
456,10	1236,97
456,30	1337,32
456,51	1292,27
456,71	1222,64
456,91	1296,36
457,12	1259,50
457,32	1247,21
457,52	1331,18
457,73	1290,22
457,93	1189,87
458,14	1230,83
458,34	1236,97
458,54	1241,07
458,75	1245,16
458,95	1273,84
459,15	1263,60
459,36	1222,64
459,56	1288,17
459,76	1300,46
459,97	1298,41
460,17	1257,45
460,37	1269,74
460,58	1308,65
460,78	1224,69
460,99	1263,60
461,19	1269,74
461,39	1286,12
461,60	1327,08
461,80	1181,68
462,00	1300,46
462,21	1236,97
462,41	1314,80
462,61	1210,35
462,82	1265,64
463,02	1308,65
463,22	1265,64
463,43	1243,12
463,63	1271,79
463,83	1318,89
464,04	1273,84
464,24	1322,99
464,44	1341,42
464,64	1224,69
464,85	1294,32
465,05	1300,46
465,25	1261,55
465,46	1243,12
465,66	1306,60
465,86	1245,16
466,07	1241,07
466,27	1304,56
466,47	1290,22
466,68	1294,32
466,88	1271,79
467,08	1253,36
467,29	1286,12
467,49	1267,69
467,69	1261,55
467,89	1292,27
468,10	1306,60
468,30	1329,13
468,50	1218,54
468,71	1282,03
468,91	1275,88
469,11	1279,98
469,31	1282,03
469,52	1267,69
469,72	1273,84
469,92	1218,54
470,13	1337,32
470,33	1224,69
470,53	1277,93
470,73	1290,22
470,94	1226,73
471,14	1302,51
471,34	1275,88
471,54	1298,41
471,75	1214,45
471,95	1306,60
472,15	1361,90
472,36	1292,27
472,56	1269,74
472,76	1257,45
472,96	1269,74
473,17	1290,22
473,37	1294,32
473,57	1224,69
473,77	1282,03
473,98	1304,56
474,18	1292,27
474,38	1191,92
474,58	1288,17
474,79	1263,60
474,99	1322,99
475,19	1243,12
475,39	1282,03
475,60	1314,80
475,80	1228,78
476,00	1253,36
476,20	1218,54
476,41	1245,16
476,61	1292,27
476,81	1282,03
477,01	1298,41
477,21	1245,16
477,42	1228,78
477,62	1271,79
477,82	1275,88
478,02	1253,36
478,23	1204,21
478,43	1198,06
478,63	1253,36
478,83	1325,04
479,03	1292,27
479,24	1320,94
479,44	1300,46
479,64	1290,22
479,84	1230,83
480,04	1282,03
480,25	1327,08
480,45	1224,69
480,65	1232,88
480,85	1312,75
481,06	1298,41
481,26	1290,22
481,46	1239,02
481,66	1243,12
481,86	1329,13
482,06	1288,17
482,27	1327,08
482,47	1181,68
482,67	1271,79
482,87	1247,21
483,07	1282,03
483,28	1325,04
483,48	1343,47
483,68	1294,32
483,88	1329,13
484,08	1279,98
484,29	1261,55
484,49	1284,08
484,69	1284,08
484,89	1361,90
485,09	1314,80
485,29	1296,36
485,50	1249,26
485,70	1288,17
485,90	1329,13
486,10	1249,26
486,30	1282,03
486,50	1306,60
486,71	1298,41
486,91	1292,27
487,11	1275,88
487,31	1269,74
487,51	1312,75
487,71	1243,12
487,91	1228,78
488,12	1245,16
488,32	1329,13
488,52	1277,93
488,72	1259,50
488,92	1300,46
489,12	1220,59
489,32	1243,12
489,53	1216,49
489,73	1247,21
489,93	1310,70
490,13	1269,74
490,33	1257,45
490,53	1282,03
490,73	1259,50
490,94	1304,56
491,14	1277,93
491,34	1271,79
491,54	1255,40
491,74	1273,84
491,94	1304,56
492,14	1302,51
492,34	1329,13
492,54	1294,32
492,75	1198,06
492,95	1349,61
493,15	1331,18
493,35	1257,45
493,55	1255,40
493,75	1329,13
493,95	1236,97
494,15	1279,98
494,35	1216,49
494,56	1243,12
494,76	1296,36
494,96	1275,88
495,16	1267,69
495,36	1253,36
495,56	1304,56
495,76	1277,93
495,96	1220,59
496,16	1302,51
496,36	1216,49
496,56	1239,02
496,77	1322,99
496,97	1349,61
497,17	1294,32
497,37	1275,88
497,57	1220,59
497,77	1265,64
497,97	1290,22
498,17	1286,12
498,37	1294,32
498,57	1249,26
498,77	1302,51
498,97	1269,74
499,17	1265,64
499,38	1355,76
499,58	1320,94
499,78	1302,51
499,98	1259,50
500,18	1271,79
500,38	1255,40
500,58	1279,98
500,78	1296,36
500,98	1279,98
501,18	1273,84
501,38	1337,32
501,58	1290,22
501,78	1282,03
501,98	1191,92
502,18	1298,41
502,38	1306,60
502,58	1292,27
502,78	1279,98
502,98	1251,31
503,18	1284,08
503,38	1286,12
503,59	1298,41
503,79	1296,36
503,99	1296,36
504,19	1292,27
504,39	1241,07
504,59	1339,37
504,79	1206,25
504,99	1302,51
505,19	1312,75
505,39	1265,64
505,59	1263,60
505,79	1253,36
505,99	1279,98
506,19	1265,64
506,39	1247,21
506,59	1314,80
506,79	1298,41
506,99	1318,89
507,19	1273,84
507,39	1245,16
507,59	1241,07
507,79	1245,16
507,99	1265,64
508,19	1226,73
508,39	1230,83
508,59	1236,97
508,79	1368,04
508,99	1220,59
509,19	1259,50
509,39	1286,12
509,59	1226,73
509,79	1322,99
509,99	1355,76
510,19	1318,89
510,39	1296,36
510,59	1204,21
510,79	1337,32
510,99	1236,97
511,19	1245,16
511,39	1363,95
511,59	1263,60
511,79	1275,88
511,99	1282,03
512,19	1290,22
512,38	1277,93
512,58	1296,36
512,78	1327,08
512,98	1265,64
513,18	1318,89
513,38	1251,31
513,58	1374,19
513,78	1296,36
513,98	1327,08
514,18	1228,78
514,38	1292,27
514,58	1282,03
514,78	1257,45
514,98	1329,13
515,18	1253,36
515,38	1224,69
515,58	1279,98
515,78	1335,28
515,98	1333,23
516,18	1249,26
516,38	1314,80
516,57	1290,22
516,77	1312,75
516,97	1314,80
517,17	1292,27
517,37	1224,69
517,57	1261,55
517,77	1224,69
517,97	1228,78
518,17	1277,93
518,37	1220,59
518,57	1314,80
518,77	1159,15
518,97	1228,78
519,16	1300,46
519,36	1275,88
519,56	1325,04
519,76	1282,03
519,96	1355,76
520,16	1306,60
520,36	1167,34
520,56	1282,03
520,76	1269,74
520,96	1308,65
521,16	1296,36
521,35	1337,32
521,55	1294,32
521,75	1318,89
521,95	1304,56
522,15	1316,84
522,35	1312,75
522,55	1304,56
522,75	1241,07
522,95	1253,36
523,14	1255,40
523,34	1277,93
523,54	1284,08
523,74	1236,97
523,94	1257,45
524,14	1185,77
524,34	1345,52
524,54	1333,23
524,73	1347,56
524,93	1253,36
525,13	1253,36
525,33	1255,40
525,53	1249,26
525,73	1253,36
525,93	1249,26
526,13	1224,69
526,32	1290,22
526,52	1302,51
526,72	1312,75
526,92	1257,45
527,12	1267,69
527,32	1282,03
527,52	1312,75
527,71	1298,41
527,91	1353,71
528,11	1316,84
528,31	1236,97
528,51	1241,07
528,71	1259,50
528,90	1241,07
529,10	1351,66
529,30	1318,89
529,50	1300,46
529,70	1282,03
529,90	1327,08
530,09	1204,21
530,29	1355,76
530,49	1267,69
530,69	1255,40
530,89	1226,73
531,09	1357,80
531,28	1300,46
531,48	1322,99
531,68	1279,98
531,88	1353,71
532,08	1290,22
532,28	1202,16
532,47	1290,22
532,67	1290,22
532,87	1212,40
533,07	1322,99
533,27	1302,51
533,46	1273,84
533,66	1320,94
533,86	1310,70
534,06	1273,84
534,26	1322,99
534,45	1300,46
534,65	1271,79
534,85	1259,50
535,05	1265,64
535,25	1310,70
535,44	1392,62
535,64	1265,64
535,84	1349,61
536,04	1247,21
536,24	1245,16
536,43	1288,17
536,63	1255,40
536,83	1279,98
537,03	1196,01
537,22	1327,08
537,42	1255,40
537,62	1245,16
537,82	1265,64
538,02	1234,93
538,21	1255,40
538,41	1306,60
538,61	1314,80
538,81	1296,36
539,00	1273,84
539,20	1298,41
539,40	1263,60
539,60	1347,56
539,79	1337,32
539,99	1216,49
540,19	1253,36
540,39	1363,95
540,58	1294,32
540,78	1269,74
540,98	1275,88
541,18	1320,94
541,37	1306,60
541,57	1273,84
541,77	1249,26
541,97	1310,70
542,16	1255,40
542,36	1224,69
542,56	1234,93
542,76	1265,64
542,95	1329,13
543,15	1290,22
543,35	1300,46
543,54	1216,49
543,74	1265,64
543,94	1320,94
544,14	1314,80
544,33	1312,75
544,53	1312,75
544,73	1267,69
544,93	1320,94
545,12	1275,88
545,32	1343,47
545,52	1265,64
545,71	1304,56
545,91	1212,40
546,11	1259,50
546,30	1232,88
546,50	1327,08
546,70	1243,12
546,90	1275,88
547,09	1251,31
547,29	1263,60
547,49	1282,03
547,68	1241,07
547,88	1300,46
548,08	1290,22
548,27	1312,75
548,47	1269,74
548,67	1353,71
548,87	1198,06
549,06	1308,65
549,26	1269,74
549,46	1320,94
549,65	1273,84
549,85	1284,08
550,05	1329,13
550,24	1259,50
550,44	1325,04
550,64	1378,28
550,83	1214,45
551,03	1282,03
551,23	1284,08
551,42	1259,50
551,62	1210,35
551,82	1273,84
552,01	1325,04
552,21	1282,03
552,41	1300,46
552,60	1335,28
552,80	1249,26
553,00	1314,80
553,19	1245,16
553,39	1325,04
553,59	1298,41
553,78	1368,04
553,98	1325,04
554,17	1255,40
554,37	1271,79
554,57	1243,12
554,76	1335,28
554,96	1267,69
555,16	1296,36
555,35	1308,65
555,55	1325,04
555,75	1265,64
555,94	1290,22
556,14	1267,69
556,33	1327,08
556,53	1300,46
556,73	1347,56
556,92	1181,68
557,12	1327,08
557,32	1265,64
557,51	1265,64
557,71	1308,65
557,90	1249,26
558,10	1214,45
558,30	1347,56
558,49	1267,69
558,69	1312,75
558,88	1298,41
559,08	1245,16
559,28	1259,50
559,47	1257,45
559,67	1318,89
559,86	1314,80
560,06	1296,36
560,26	1341,42
560,45	1310,70
560,65	1265,64
560,84	1298,41
561,04	1314,80
561,24	1263,60
561,43	1327,08
561,63	1284,08
561,82	1320,94
562,02	1253,36
562,22	1187,82
562,41	1263,60
562,61	1202,16
562,80	1175,53
563,00	1263,60
563,19	1277,93
563,39	1267,69
563,59	1269,74
563,78	1269,74
563,98	1284,08
564,17	1279,98
564,37	1277,93
564,56	1370,09
564,76	1308,65
564,96	1316,84
565,15	1314,80
565,35	1275,88
565,54	1279,98
565,74	1187,82
565,93	1226,73
566,13	1288,17
566,32	1374,19
566,52	1329,13
566,71	1239,02
566,91	1304,56
567,11	1337,32
567,30	1261,55
567,50	1210,35
567,69	1212,40
567,89	1222,64
568,08	1277,93
568,28	1310,70
568,47	1247,21
568,67	1259,50
568,86	1302,51
569,06	1255,40
569,25	1339,37
569,45	1269,74
569,64	1273,84
569,84	1318,89
570,04	1361,90
570,23	1251,31
570,43	1320,94
570,62	1286,12
570,82	1300,46
571,01	1288,17
571,21	1298,41
571,40	1263,60
571,60	1337,32
571,79	1243,12
571,99	1310,70
572,18	1243,12
572,38	1288,17
572,57	1310,70
572,77	1261,55
572,96	1310,70
573,16	1255,40
573,35	1286,12
573,55	1300,46
573,74	1236,97
573,94	1357,80
574,13	1261,55
574,33	1339,37
574,52	1239,02
574,71	1196,01
574,91	1322,99
575,10	1216,49
575,30	1351,66
575,49	1251,31
575,69	1310,70
575,88	1294,32
576,08	1275,88
576,27	1318,89
576,47	1275,88
576,66	1318,89
576,86	1218,54
577,05	1322,99
577,25	1261,55
577,44	1226,73
577,64	1320,94
577,83	1255,40
578,02	1312,75
578,22	1263,60
578,41	1234,93
578,61	1335,28
578,80	1296,36
579,00	1241,07
579,19	1322,99
579,39	1306,60
579,58	1279,98
579,77	1314,80
579,97	1273,84
580,16	1257,45
580,36	1224,69
580,55	1300,46
580,75	1286,12
580,94	1294,32
581,13	1298,41
581,33	1347,56
581,52	1261,55
581,72	1236,97
581,91	1300,46
582,11	1277,93
582,30	1329,13
582,49	1298,41
582,69	1331,18
582,88	1306,60
583,08	1368,04
583,27	1261,55
583,47	1222,64
583,66	1341,42
583,85	1222,64
584,05	1294,32
584,24	1290,22
584,44	1294,32
584,63	1267,69
584,82	1314,80
585,02	1263,60
585,21	1239,02
585,41	1224,69
585,60	1273,84
585,79	1312,75
585,99	1282,03
586,18	1286,12
586,37	1277,93
586,57	1265,64
586,76	1325,04
586,96	1239,02
587,15	1271,79
587,34	1282,03
587,54	1286,12
587,73	1310,70
587,93	1279,98
588,12	1290,22
588,31	1302,51
588,51	1284,08
588,70	1247,21
588,89	1222,64
589,09	1331,18
589,28	1392,62
589,47	1257,45
589,67	1343,47
589,86	1355,76
590,06	1232,88
590,25	1296,36
590,44	1239,02
590,64	1253,36
590,83	1239,02
591,02	1318,89
591,22	1247,21
591,41	1288,17
591,60	1300,46
591,80	1277,93
591,99	1275,88
592,18	1253,36
592,38	1327,08
592,57	1265,64
592,76	1292,27
592,96	1284,08
593,15	1310,70
593,34	1351,66
593,54	1390,57
593,73	1314,80
593,92	1257,45
594,12	1193,97
594,31	1249,26
594,50	1298,41
594,70	1236,97
594,89	1310,70
595,08	1298,41
595,28	1284,08
595,47	1263,60
595,66	1339,37
595,86	1325,04
596,05	1327,08
596,24	1370,09
596,43	1286,12
596,63	1312,75
596,82	1249,26
597,01	1224,69
597,21	1300,46
597,40	1302,51
597,59	1241,07
597,79	1214,45
597,98	1284,08
598,17	1306,60
598,36	1286,12
598,56	1239,02
598,75	1308,65
598,94	1261,55
599,14	1271,79
599,33	1273,84
599,52	1335,28
599,71	1230,83
599,91	1353,71
600,10	1306,60
600,29	1292,27
600,48	1306,60
600,68	1298,41
600,87	1318,89
601,06	1222,64
601,26	1208,30
601,45	1220,59
601,64	1239,02
601,83	1312,75
602,03	1306,60
602,22	1300,46
602,41	1228,78
602,60	1212,40
602,80	1265,64
602,99	1312,75
603,18	1277,93
603,37	1239,02
603,57	1286,12
603,76	1273,84
603,95	1286,12
604,14	1327,08
604,34	1294,32
604,53	1316,84
604,72	1320,94
604,91	1257,45
605,10	1322,99
605,30	1257,45
605,49	1232,88
605,68	1241,07
605,87	1241,07
606,07	1361,90
606,26	1216,49
606,45	1279,98
606,64	1290,22
606,84	1290,22
607,03	1273,84
607,22	1302,51
607,41	1288,17
607,60	1327,08
607,80	1210,35
607,99	1335,28
608,18	1279,98
608,37	1230,83
608,56	1300,46
608,76	1310,70
608,95	1290,22
609,14	1306,60
609,33	1302,51
609,52	1316,84
609,72	1277,93
609,91	1286,12
610,10	1296,36
610,29	1302,51
610,48	1273,84
610,68	1294,32
610,87	1226,73
611,06	1265,64
611,25	1234,93
611,44	1320,94
611,63	1234,93
611,83	1304,56
612,02	1337,32
612,21	1290,22
612,40	1345,52
612,59	1232,88
612,79	1230,83
612,98	1271,79
613,17	1269,74
613,36	1318,89
613,55	1314,80
613,74	1253,36
613,93	1294,32
614,13	1312,75
614,32	1269,74
614,51	1279,98
614,70	1273,84
614,89	1224,69
615,08	1230,83
615,28	1300,46
615,47	1239,02
615,66	1277,93
615,85	1241,07
616,04	1314,80
616,23	1314,80
616,42	1234,93
616,62	1296,36
616,81	1314,80
617,00	1228,78
617,19	1259,50
617,38	1284,08
617,57	1232,88
617,76	1212,40
617,95	1327,08
618,15	1306,60
618,34	1228,78
618,53	1294,32
618,72	1277,93
618,91	1351,66
619,10	1282,03
619,29	1316,84
619,48	1347,56
619,68	1261,55
619,87	1306,60
620,06	1310,70
620,25	1294,32
620,44	1277,93
620,63	1241,07
620,82	1263,60
621,01	1251,31
621,20	1351,66
621,39	1298,41
621,59	1236,97
621,78	1308,65
621,97	1273,84
622,16	1263,60
622,35	1325,04
622,54	1347,56
622,73	1234,93
622,92	1370,09
623,11	1320,94
623,30	1343,47
623,49	1310,70
623,68	1222,64
623,88	1279,98
624,07	1345,52
624,26	1243,12
624,45	1316,84
624,64	1294,32
624,83	1298,41
625,02	1230,83
625,21	1390,57
625,40	1300,46
625,59	1279,98
625,78	1265,64
625,97	1306,60
626,16	1241,07
626,35	1343,47
626,54	1294,32
626,74	1275,88
626,93	1286,12
627,12	1279,98
627,31	1255,40
627,50	1327,08
627,69	1265,64
627,88	1273,84
628,07	1202,16
628,26	1255,40
628,45	1339,37
628,64	1374,19
628,83	1314,80
629,02	1286,12
629,21	1251,31
629,40	1312,75
629,59	1306,60
629,78	1304,56
629,97	1361,90
630,16	1320,94
630,35	1230,83
630,54	1390,57
630,73	1257,45
630,92	1316,84
631,11	1310,70
631,30	1331,18
631,49	1325,04
631,68	1554,41
631,87	5009,33
632,06	18026,22
632,25	33986,04
632,44	45876,55
632,63	57777,29
632,82	40732,05
633,01	13469,49
633,20	5746,60
633,39	5011,38
633,58	4147,14
633,77	2809,81
633,96	2224,09
634,15	2082,78
634,34	2117,60
634,53	1894,37
634,72	1751,01
634,91	1654,76
635,10	1648,61
635,29	1646,57
635,48	1597,42
635,67	1626,09
635,86	1626,09
636,05	1519,59
636,24	1470,44
636,43	1345,52
636,62	1347,56
636,81	1378,28
637,00	1390,57
637,19	1282,03
637,38	1366,00
637,57	1325,04
637,76	1312,75
637,95	1409,00
638,14	1271,79
638,33	1251,31
638,52	1279,98
638,71	1273,84
638,89	1290,22
639,08	1382,38
639,27	1282,03
639,46	1294,32
639,65	1296,36
639,84	1247,21
640,03	1325,04
640,22	1320,94
640,41	1259,50
640,60	1277,93
640,79	1327,08
640,98	1327,08
641,17	1279,98
641,36	1290,22
641,55	1259,50
641,74	1306,60
641,92	1318,89
642,11	1349,61
642,30	1304,56
642,49	1284,08
642,68	1372,14
642,87	1273,84
643,06	1292,27
643,25	1282,03
643,44	1339,37
643,63	1314,80
643,82	1355,76
644,00	1290,22
644,19	1304,56
644,38	1294,32
644,57	1267,69
644,76	1208,30
644,95	1314,80
645,14	1318,89
645,33	1202,16
645,52	1275,88
645,71	1316,84
645,89	1220,59
646,08	1230,83
646,27	1388,52
646,46	1351,66
646,65	1265,64
646,84	1271,79
647,03	1243,12
647,22	1241,07
647,40	1292,27
647,59	1306,60
647,78	1267,69
647,97	1302,51
648,16	1320,94
648,35	1259,50
648,54	1300,46
648,73	1284,08
648,91	1228,78
649,10	1296,36
649,29	1257,45
649,48	1263,60
649,67	1218,54
649,86	1236,97
650,05	1271,79
650,23	1255,40
650,42	1265,64
650,61	1200,11
650,80	1296,36
650,99	1255,40
651,18	1243,12
651,36	1288,17
651,55	1296,36
651,74	1265,64
651,93	1171,44
652,12	1273,84
652,31	1239,02
652,49	1302,51
652,68	1298,41
652,87	1234,93
653,06	1339,37
653,25	1329,13
653,44	1247,21
653,62	1247,21
653,81	1210,35
654,00	1286,12
654,19	1304,56
654,38	1329,13
654,56	1261,55
654,75	1261,55
654,94	1228,78
655,13	1312,75
655,32	1212,40
655,51	1322,99
655,69	1286,12
655,88	1292,27
656,07	1261,55
656,26	1271,79
656,45	1273,84
656,63	1279,98
656,82	1255,40
657,01	1314,80
657,20	1261,55
657,38	1320,94
657,57	1320,94
657,76	1314,80
657,95	1277,93
658,14	1292,27
658,32	1282,03
658,51	1253,36
658,70	1282,03
658,89	1279,98
659,08	1216,49
659,26	1249,26
659,45	1279,98
659,64	1249,26
659,83	1277,93
660,01	1302,51
660,20	1314,80
660,39	1265,64
660,58	1245,16
660,76	1294,32
660,95	1226,73
661,14	1363,95
661,33	1288,17
661,51	1257,45
661,70	1290,22
661,89	1284,08
662,08	1241,07
662,26	1245,16
662,45	1247,21
662,64	1314,80
662,83	1239,02
663,01	1351,66
663,20	1259,50
663,39	1298,41
663,58	1304,56
663,76	1284,08
663,95	1214,45
664,14	1245,16
664,32	1294,32
664,51	1259,50
664,70	1249,26
664,89	1306,60
665,07	1284,08
665,26	1302,51
665,45	1177,58
665,64	1327,08
665,82	1220,59
666,01	1316,84
666,20	1333,23
666,38	1279,98
666,57	1294,32
666,76	1294,32
666,95	1253,36
667,13	1179,63
667,32	1261,55
667,51	1275,88
667,69	1279,98
667,88	1298,41
668,07	1286,12
668,25	1214,45
668,44	1251,31
668,63	1273,84
668,81	1267,69
669,00	1241,07
669,19	1294,32
669,38	1265,64
669,56	1196,01
669,75	1290,22
669,94	1241,07
670,12	1335,28
670,31	1267,69
670,50	1263,60
670,68	1239,02
670,87	1277,93
671,06	1263,60
671,24	1239,02
671,43	1304,56
671,62	1290,22
671,80	1306,60
671,99	1331,18
672,18	1271,79
672,36	1259,50
672,55	1292,27
672,74	1255,40
672,92	1290,22
673,11	1269,74
673,29	1302,51
673,48	1292,27
673,67	1282,03
673,85	1282,03
674,04	1179,63
674,23	1306,60
674,41	1302,51
674,60	1290,22
674,79	1306,60
674,97	1245,16
675,16	1292,27
675,34	1288,17
675,53	1312,75
675,72	1282,03
675,90	1312,75
676,09	1265,64
676,28	1312,75
676,46	1243,12
676,65	1271,79
676,83	1279,98
677,02	1257,45
677,21	1279,98
677,39	1288,17
677,58	1306,60
677,77	1216,49
677,95	1273,84
678,14	1241,07
678,32	1271,79
678,51	1267,69
678,70	1208,30
678,88	1208,30
679,07	1259,50
679,25	1259,50
679,44	1261,55
679,63	1314,80
679,81	1345,52
680,00	1263,60
680,18	1310,70
680,37	1232,88
680,55	1191,92
680,74	1263,60
680,93	1253,36
681,11	1294,32
681,30	1284,08
681,48	1298,41
681,67	1214,45
681,85	1265,64
682,04	1257,45
682,23	1279,98
682,41	1269,74
682,60	1273,84
682,78	1249,26
682,97	1247,21
683,15	1251,31
683,34	1245,16
683,53	1294,32
683,71	1288,17
683,90	1230,83
684,08	1255,40
684,27	1216,49
684,45	1275,88
684,64	1288,17
684,82	1200,11
685,01	1204,21
685,19	1230,83
685,38	1282,03
685,57	1292,27
685,75	1286,12
685,94	1310,70
686,12	1277,93
686,31	1239,02
686,49	1318,89
686,68	1239,02
686,86	1325,04
687,05	1392,62
687,23	1320,94
687,42	1232,88
687,60	1214,45
687,79	1296,36
687,97	1320,94
688,16	1267,69
688,34	1236,97
688,53	1267,69
688,71	1331,18
688,90	1329,13
689,08	1265,64
689,27	1277,93
689,45	1282,03
689,64	1193,97
689,82	1298,41
690,01	1222,64
690,19	1292,27
690,38	1224,69
690,56	1282,03
690,75	1222,64
690,93	1331,18
691,12	1265,64
691,30	1345,52
691,49	1214,45
691,67	1222,64
691,86	1273,84
692,04	1261,55
692,23	1343,47
692,41	1255,40
692,60	1314,80
692,78	1286,12
692,97	1288,17
693,15	1290,22
693,34	1234,93
693,52	1245,16
693,71	1247,21
693,89	1314,80
694,08	1277,93
694,26	1273,84
694,44	1257,45
694,63	1212,40
694,81	1329,13
695,00	1277,93
695,18	1165,29
695,37	1292,27
695,55	1279,98
695,74	1236,97
695,92	1247,21
696,10	1314,80
696,29	1269,74
696,47	1355,76
696,66	1245,16
696,84	1316,84
697,03	1302,51
697,21	1282,03
697,40	1298,41
697,58	1273,84
697,76	1251,31
697,95	1234,93
698,13	1249,26
698,32	1249,26
698,50	1245,16
698,68	1300,46
698,87	1290,22
699,05	1382,38
699,24	1230,83
699,42	1294,32
699,61	1255,40
699,79	1253,36
699,97	1251,31
700,16	1191,92
700,34	1275,88
700,53	1314,80
700,71	1318,89
700,89	1318,89
701,08	1267,69
701,26	1204,21
701,45	1273,84
701,63	1247,21
701,81	1310,70
702,00	1253,36
702,18	1226,73
702,37	1290,22
702,55	1265,64
702,73	1304,56
702,92	1314,80
703,10	1302,51
703,28	1275,88
703,47	1261,55
703,65	1290,22
703,84	1232,88
704,02	1255,40
704,20	1288,17
704,39	1296,36
704,57	1304,56
704,75	1234,93
704,94	1275,88
705,12	1179,63
705,30	1257,45
705,49	1257,45
705,67	1265,64
705,86	1204,21
706,04	1294,32
706,22	1216,49
706,41	1312,75
706,59	1298,41
706,77	1347,56
706,96	1296,36
707,14	1241,07
707,32	1212,40
707,51	1302,51
707,69	1224,69
707,87	1228,78
708,06	1284,08
708,24	1259,50
708,42	1271,79
708,61	1290,22
708,79	1261,55
708,97	1239,02
709,16	1333,23
709,34	1249,26
709,52	1269,74
709,71	1320,94
709,89	1298,41
710,07	1294,32
710,26	1226,73
710,44	1234,93
710,62	1294,32
710,80	1206,25
710,99	1241,07
711,17	1261,55
711,35	1286,12
711,54	1284,08
711,72	1296,36
711,90	1245,16
712,09	1284,08
712,27	1247,21
712,45	1261,55
712,63	1165,29
712,82	1261,55
713,00	1275,88
713,18	1304,56
713,37	1294,32
713,55	1255,40
713,73	1269,74
713,91	1255,40
714,10	1269,74
714,28	1253,36
714,46	1329,13
714,65	1247,21
714,83	1224,69
715,01	1206,25
715,19	1216,49
715,38	1200,11
715,56	1196,01
715,74	1267,69
715,92	1259,50
716,11	1300,46
716,29	1232,88
716,47	1206,25
716,65	1290,22
716,84	1257,45
717,02	1294,32
717,20	1265,64
717,38	1286,12
717,57	1230,83
717,75	1228,78
717,93	1249,26
718,11	1263,60
718,30	1259,50
718,48	1273,84
718,66	1253,36
718,84	1308,65
719,03	1339,37
719,21	1292,27
719,39	1300,46
719,57	1294,32
719,75	1308,65
719,94	1265,64
720,12	1212,40
720,30	1318,89
720,48	1292,27
720,67	1243,12
720,85	1296,36
721,03	1247,21
721,21	1282,03
721,39	1310,70
721,58	1230,83
721,76	1239,02
721,94	1232,88
722,12	1277,93
722,30	1286,12
722,49	1206,25
722,67	1320,94
722,85	1232,88
723,03	1222,64
723,21	1255,40
723,40	1255,40
723,58	1349,61
723,76	1220,59
723,94	1282,03
724,12	1251,31
724,30	1273,84
724,49	1273,84
724,67	1255,40
724,85	1306,60
725,03	1316,84
725,21	1277,93
725,40	1249,26
725,58	1245,16
725,76	1193,97
725,94	1263,60
726,12	1292,27
726,30	1218,54
726,49	1298,41
726,67	1267,69
726,85	1259,50
727,03	1218,54
727,21	1275,88
727,39	1306,60
727,57	1175,53
727,76	1189,87
727,94	1263,60
728,12	1331,18
728,30	1259,50
728,48	1282,03
728,66	1263,60
728,84	1236,97
729,03	1273,84
729,21	1267,69
729,39	1218,54
729,57	1329,13
729,75	1273,84
729,93	1255,40
730,11	1239,02
730,30	1208,30
730,48	1296,36
730,66	1224,69
730,84	1308,65
731,02	1265,64
731,20	1249,26
731,38	1288,17
731,56	1247,21
731,74	1265,64
731,93	1241,07
732,11	1243,12
732,29	1286,12
732,47	1222,64
732,65	1306,60
732,83	1226,73
733,01	1241,07
733,19	1173,49
733,37	1210,35
733,56	1230,83
733,74	1284,08
733,92	1245,16
734,10	1267,69
734,28	1300,46
734,46	1302,51
734,64	1316,84
734,82	1312,75
735,00	1308,65
735,18	1241,07
735,36	1325,04
735,54	1314,80
735,73	1216,49
735,91	1273,84
736,09	1357,80
736,27	1282,03
736,45	1251,31
736,63	1171,44
736,81	1312,75
736,99	1255,40
737,17	1320,94
737,35	1310,70
737,53	1247,21
737,71	1267,69
737,89	1363,95
738,07	1261,55
738,25	1236,97
738,43	1269,74
738,61	1222,64
738,80	1245,16
738,98	1153,01
739,16	1228,78
739,34	1236,97
739,52	1345,52
739,70	1236,97
739,88	1298,41
740,06	1210,35
740,24	1253,36
740,42	1239,02
740,60	1306,60
740,78	1245,16
740,96	1275,88
741,14	1169,39
741,32	1320,94
741,50	1245,16
741,68	1273,84
741,86	1251,31
742,04	1294,32
742,22	1335,28
742,40	1288,17
742,58	1239,02
742,76	1314,80
742,94	1232,88
743,12	1312,75
743,30	1284,08
743,48	1292,27
743,66	1232,88
743,84	1265,64
744,02	1288,17
744,20	1273,84
744,38	1294,32
744,56	1257,45
744,74	1253,36
744,92	1300,46
745,10	1247,21
745,28	1239,02
745,46	1288,17
745,64	1249,26
745,82	1290,22
746,00	1267,69
746,18	1359,85
746,36	1245,16
746,54	1234,93
746,72	1288,17
746,90	1288,17
747,08	1279,98
747,26	1191,92
747,44	1249,26
747,62	1226,73
747,80	1177,58
747,98	1275,88
748,15	1234,93
748,33	1337,32
748,51	1275,88
748,69	1298,41
748,87	1275,88
749,05	1273,84
749,23	1320,94
749,41	1241,07
749,59	1316,84
749,77	1257,45
749,95	1259,50
750,13	1241,07
750,31	1304,56
750,49	1243,12
750,67	1214,45
750,85	1253,36
751,03	1263,60
751,20	1271,79
751,38	1232,88
751,56	1253,36
751,74	1257,45
751,92	1257,45
752,10	1286,12
752,28	1279,98
752,46	1277,93
752,64	1288,17
752,82	1310,70
753,00	1247,21
753,18	1275,88
753,35	1226,73
753,53	1259,50
753,71	1245,16
753,89	1347,56
754,07	1294,32
754,25	1337,32
754,43	1271,79
754,61	1253,36
754,79	1218,54
754,97	1249,26
755,14	1249,26
755,32	1279,98
755,50	1210,35
755,68	1347,56
755,86	1290,22
756,04	1255,40
756,22	1251,31
756,40	1306,60
756,57	1302,51
756,75	1257,45
756,93	1263,60
757,11	1282,03
757,29	1269,74
757,47	1261,55
757,65	1230,83
757,82	1265,64
758,00	1218,54
758,18	1245,16
758,36	1300,46
758,54	1277,93
758,72	1181,68
758,90	1290,22
759,07	1290,22
759,25	1282,03
759,43	1241,07
759,61	1320,94
759,79	1226,73
759,97	1245,16
760,15	1253,36
760,32	1279,98
760,50	1236,97
760,68	1183,73
760,86	1239,02
761,04	1290,22
761,22	1261,55
761,39	1265,64
761,57	1333,23
761,75	1269,74
761,93	1243,12
762,11	1288,17
762,28	1232,88
762,46	1310,70
762,64	1273,84
762,82	1318,89
763,00	1222,64
763,18	1329,13
763,35	1261,55
763,53	1384,43
763,71	1318,89
763,89	1290,22
764,07	1214,45
764,24	1208,30
764,42	1210,35
764,60	1236,97
764,78	1253,36
764,96	1322,99
765,13	1269,74
765,31	1191,92
765,49	1261,55
765,67	1279,98
765,84	1224,69
766,02	1277,93
766,20	1261,55
766,38	1239,02
766,56	1218,54
766,73	1290,22
766,91	1316,84
767,09	1263,60
767,27	1316,84
767,44	1322,99
767,62	1228,78
767,80	1349,61
767,98	1300,46
768,15	1314,80
768,33	1245,16
768,51	1269,74
768,69	1224,69
768,87	1267,69
769,04	1267,69
769,22	1232,88
769,40	1212,40
769,58	1269,74
769,75	1220,59
769,93	1232,88
770,11	1210,35
770,28	1288,17
770,46	1255,40
770,64	1357,80
770,82	1277,93
770,99	1241,07
771,17	1216,49
771,35	1286,12
771,53	1292,27
771,70	1255,40
771,88	1228,78
772,06	1312,75
772,23	1261,55
772,41	1253,36
772,59	1247,21
772,77	1279,98
772,94	1294,32
773,12	1300,46
773,30	1296,36
773,47	1214,45
773,65	1185,77
773,83	1322,99
774,01	1216,49
774,18	1239,02
774,36	1273,84
774,54	1253,36
774,71	1245,16
774,89	1279,98
775,07	1234,93
775,24	1277,93
775,42	1230,83
775,60	1265,64
775,78	1220,59
775,95	1327,08
776,13	1230,83
776,31	1314,80
776,48	1249,26
776,66	1282,03
776,84	1177,58
777,01	1277,93
777,19	1292,27
777,37	1296,36
777,54	1271,79
777,72	1249,26
777,90	1345,52
778,07	1261,55
778,25	1273,84
778,43	1327,08
778,60	1193,97
778,78	1216,49
778,96	1316,84
779,13	1310,70
779,31	1261,55
779,49	1265,64
779,66	1220,59
779,84	1277,93
780,01	1314,80
780,19	1212,40
780,37	1220,59
780,54	1298,41
780,72	1279,98
780,90	1208,30
781,07	1230,83
781,25	1290,22
781,43	1273,84
781,60	1265,64
781,78	1216,49
781,95	1296,36
782,13	1239,02
782,31	1245,16
782,48	1249,26
782,66	1241,07
782,83	1198,06
783,01	1411,05
783,19	1263,60
783,36	1218,54
783,54	1263,60
783,72	1263,60
783,89	1292,27
784,07	1202,16
784,24	1275,88
784,42	1275,88
784,60	1275,88
784,77	1218,54
784,95	1271,79
785,12	1249,26
785,30	1243,12
785,47	1167,34
785,65	1267,69
785,83	1255,40
786,00	1312,75
786,18	1288,17
786,35	1290,22
786,53	1288,17
786,71	1265,64
786,88	1300,46
787,06	1294,32
787,23	1255,40
787,41	1218,54
787,58	1251,31
787,76	1255,40
787,94	1282,03
788,11	1294,32
788,29	1261,55
788,46	1265,64
788,64	1292,27
788,81	1251,31
788,99	1257,45
789,16	1251,31
789,34	1282,03
789,52	1271,79
789,69	1241,07
789,87	1226,73
790,04	1279,98
790,22	1277,93
790,39	1279,98
790,57	1247,21
790,74	1228,78
790,92	1245,16
791,09	1302,51
791,27	1245,16
791,44	1329,13
791,62	1284,08
791,79	1277,93
791,97	1251,31
792,15	1277,93
792,32	1220,59
792,50	1273,84
792,67	1284,08
792,85	1302,51
793,02	1302,51
793,20	1296,36
793,37	1253,36
793,55	1236,97
793,72	1298,41
793,90	1370,09
794,07	1277,93
794,25	1316,84
794,42	1331,18
794,60	1263,60
794,77	1275,88
794,95	1241,07
795,12	1245,16
795,30	1232,88
795,47	1335,28
795,65	1345,52
795,82	1290,22
796,00	1259,50
796,17	1183,73
796,34	1232,88
796,52	1327,08
796,69	1251,31
796,87	1286,12
797,04	1267,69
797,22	1224,69
797,39	1236,97
797,57	1271,79
797,74	1277,93
797,92	1251,31
798,09	1257,45
798,27	1224,69
798,44	1273,84
798,62	1136,62
798,79	1216,49
798,96	1228,78
799,14	1290,22
799,31	1251,31
799,49	1253,36
799,66	1216,49
799,84	1241,07
800,01	1286,12
800,19	1292,27
800,36	1202,16
800,53	1288,17
800,71	1249,26
800,88	1232,88
801,06	1249,26
801,23	1234,93
801,41	1333,23
801,58	1226,73
801,75	1284,08
801,93	1239,02
802,10	1282,03
802,28	1284,08
802,45	1271,79
802,63	1271,79
802,80	1202,16
802,97	1198,06
803,15	1232,88
803,32	1261,55
803,50	1269,74
803,67	1179,63
803,84	1314,80
804,02	1290,22
804,19	1243,12
804,37	1253,36
804,54	1292,27
804,71	1341,42
804,89	1236,97
805,06	1298,41
805,24	1304,56
805,41	1300,46
805,58	1302,51
805,76	1322,99
805,93	1279,98
806,10	1282,03
806,28	1275,88
806,45	1298,41
806,63	1257,45
806,80	1335,28
806,97	1239,02
807,15	1314,80
807,32	1298,41
807,49	1275,88
807,67	1345,52
807,84	1284,08
808,01	1273,84
808,19	1355,76
808,36	1185,77
808,54	1306,60
808,71	1265,64
808,88	1302,51
809,06	1271,79
809,23	1210,35
809,40	1228,78
809,58	1265,64
809,75	1253,36
809,92	1243,12
810,10	1300,46
810,27	1257,45
810,44	1337,32
810,62	1208,30
810,79	1277,93
810,96	1316,84
811,14	1273,84
811,31	1325,04
811,48	1261,55
811,66	1298,41
811,83	1236,97
812,00	1314,80
812,18	1208,30
812,35	1269,74
812,52	1284,08
812,69	1296,36
812,87	1257,45
813,04	1302,51
813,21	1284,08
813,39	1310,70
813,56	1331,18
813,73	1302,51
813,91	1224,69
814,08	1314,80
814,25	1210,35
814,42	1232,88
814,60	1204,21
814,77	1265,64
814,94	1263,60
815,12	1277,93
815,29	1286,12
815,46	1206,25
815,63	1200,11
815,81	1333,23
815,98	1263,60
816,15	1261,55
816,33	1292,27
816,50	1310,70
816,67	1265,64
816,84	1282,03
817,02	1255,40
817,19	1249,26
817,36	1308,65
817,53	1206,25
817,71	1239,02
817,88	1234,93
818,05	1275,88
818,22	1253,36
818,40	1288,17
818,57	1187,82
818,74	1212,40
818,91	1249,26
819,09	1294,32
819,26	1210,35
819,43	1279,98
819,60	1214,45
819,78	1292,27
819,95	1263,60
820,12	1316,84
820,29	1329,13
820,47	1210,35
820,64	1251,31
820,81	1331,18
820,98	1331,18
821,15	1234,93
821,33	1224,69
821,50	1265,64
821,67	1267,69
821,84	1269,74
822,02	1261,55
822,19	1292,27
822,36	1198,06
822,53	1277,93
822,70	1216,49
822,88	1224,69
823,05	1208,30
823,22	1325,04
823,39	1208,30
823,56	1337,32
823,74	1257,45
823,91	1261,55
824,08	1263,60
824,25	1275,88
824,42	1288,17
824,60	1236,97
824,77	1230,83
824,94	1263,60
825,11	1204,21
825,28	1290,22
825,45	1308,65
825,63	1216,49
825,80	1234,93
825,97	1247,21
826,14	1269,74
826,31	1230,83
826,48	1304,56
826,66	1255,40
826,83	1298,41
827,00	1216,49
827,17	1296,36
827,34	1298,41
827,51	1273,84
827,69	1255,40
827,86	1314,80
828,03	1265,64
828,20	1263,60
828,37	1241,07
828,54	1284,08
828,71	1222,64
828,89	1275,88
829,06	1253,36
829,23	1208,30
829,40	1292,27
829,57	1234,93
829,74	1253,36
829,91	1183,73
830,09	1306,60
830,26	1181,68
830,43	1312,75
830,60	1361,90
830,77	1284,08
830,94	1220,59
831,11	1286,12
831,28	1325,04
831,46	1290,22
831,63	1261,55
831,80	1351,66
831,97	1214,45
832,14	1226,73
832,31	1314,80
832,48	1245,16
832,65	1284,08
832,82	1228,78
832,99	1314,80
833,17	1337,32
833,34	1247,21
833,51	1214,45
833,68	1292,27
833,85	1304,56
834,02	1370,09
834,19	1294,32
834,36	1310,70
834,53	1316,84
834,70	1218,54
834,87	1210,35
835,04	1185,77
835,22	1259,50
835,39	1230,83
835,56	1288,17
835,73	1282,03
835,90	1318,89
836,07	1243,12
836,24	1284,08
836,41	1245,16
836,58	1265,64
836,75	1312,75
836,92	1251,31
837,09	1288,17
837,26	1255,40
837,43	1232,88
837,60	1226,73
837,77	1304,56
837,94	1322,99
838,12	1290,22
838,29	1302,51
838,46	1269,74
838,63	1329,13
838,80	1294,32
838,97	1284,08
839,14	1298,41
839,31	1284,08
839,48	1253,36
839,65	1261,55
839,82	1245,16
839,99	1282,03
840,16	1306,60
840,33	1259,50
840,50	1308,65
840,67	1177,58
840,84	1347,56
841,01	1261,55
841,18	1234,93
841,35	1253,36
841,52	1273,84
841,69	1308,65
841,86	1310,70
842,03	1277,93
842,20	1286,12
842,37	1271,79
842,54	1275,88
842,71	1327,08
842,88	1277,93
843,05	1339,37
843,22	1275,88
843,39	1234,93
843,56	1267,69
843,73	1263,60
843,90	1300,46
844,07	1230,83
844,24	1222,64
844,41	1310,70
844,58	1239,02
844,75	1267,69
844,92	1312,75
845,09	1265,64
845,26	1277,93
845,43	1284,08
845,60	1316,84
845,77	1282,03
845,94	1220,59
846,10	1275,88
846,27	1286,12
846,44	1267,69
846,61	1261,55
846,78	1257,45
846,95	1308,65
847,12	1286,12
847,29	1251,31
847,46	1241,07
847,63	1253,36
847,80	1306,60
847,97	1255,40
848,14	1269,74
848,31	1273,84
848,48	1220,59
848,65	1298,41
848,82	1318,89
848,98	1331,18
849,15	1247,21
849,32	1300,46
849,49	1226,73
849,66	1292,27
849,83	1290,22
850,00	1265,64
850,17	1290,22
850,34	1290,22
850,51	1193,97
850,68	1263,60
850,85	1226,73
851,01	1265,64
851,18	1279,98
851,35	1282,03
851,52	1220,59
851,69	1286,12
851,86	1230,83
852,03	1249,26
852,20	1259,50
852,37	1267,69
852,53	1245,16
852,70	1247,21
852,87	1269,74
853,04	1261,55
853,21	1277,93
853,38	1341,42
853,55	1251,31
853,72	1239,02
853,89	1263,60
854,05	1251,31
854,22	1279,98
854,39	1251,31
854,56	1275,88
854,73	1320,94
854,90	1212,40
855,07	1271,79
855,23	1263,60
855,40	1304,56
855,57	1271,79
855,74	1216,49
855,91	1339,37
856,08	1236,97
856,25	1257,45
856,41	1234,93
856,58	1257,45
856,75	1224,69
856,92	1230,83
857,09	1314,80
857,26	1255,40
857,42	1232,88
857,59	1329,13
857,76	1218,54
857,93	1269,74
858,10	1247,21
858,27	1169,39
858,43	1265,64
858,60	1253,36
858,77	1208,30
858,94	1191,92
859,11	1255,40
859,27	1257,45
859,44	1232,88
859,61	1241,07
859,78	1216,49
859,95	1269,74
860,12	1222,64
860,28	1267,69
860,45	1265,64
860,62	1239,02
860,79	1308,65
860,95	1236,97
861,12	1339,37
861,29	1308,65
861,46	1265,64
861,63	1290,22
861,79	1208,30
861,96	1263,60
862,13	1245,16
862,30	1251,31
862,47	1275,88
862,63	1239,02
862,80	1279,98
862,97	1255,40
863,14	1243,12
863,30	1277,93
863,47	1236,97
863,64	1224,69
863,81	1255,40
863,97	1247,21
864,14	1294,32
864,31	1282,03
864,48	1222,64
864,65	1232,88
864,81	1265,64
864,98	1212,40
865,15	1214,45
865,32	1261,55
865,48	1220,59
865,65	1306,60
865,82	1222,64
865,98	1204,21
866,15	1269,74
866,32	1249,26
866,49	1372,14
866,65	1183,73
866,82	1249,26
866,99	1318,89
867,16	1239,02
867,32	1204,21
867,49	1308,65
867,66	1286,12
867,83	1306,60
867,99	1327,08
868,16	1275,88
868,33	1247,21
868,49	1241,07
868,66	1247,21
868,83	1314,80
868,99	1269,74
869,16	1243,12
869,33	1239,02
869,50	1257,45
869,66	1261,55
869,83	1228,78
870,00	1249,26
870,16	1331,18
870,33	1212,40
870,50	1296,36
870,66	1308,65
870,83	1325,04
871,00	1279,98
871,17	1241,07
871,33	1310,70
871,50	1230,83
871,67	1202,16
871,83	1257,45
872,00	1339,37
872,17	1232,88
872,33	1271,79
872,50	1259,50
872,67	1200,11
872,83	1279,98
873,00	1345,52
873,17	1234,93
873,33	1214,45
873,50	1245,16
873,67	1224,69
873,83	1316,84
874,00	1284,08
874,16	1306,60
874,33	1239,02
874,50	1282,03
874,66	1196,01
874,83	1245,16
875,00	1277,93
875,16	1261,55
875,33	1245,16
875,50	1275,88
875,66	1241,07
875,83	1314,80
875,99	1286,12
876,16	1271,79
876,33	1220,59
876,49	1230,83
876,66	1206,25
876,83	1239,02
876,99	1259,50
877,16	1312,75
877,32	1230,83
877,49	1349,61
877,66	1318,89
877,82	1341,42
877,99	1187,82
878,15	1347,56
878,32	1185,77
878,49	1290,22
878,65	1339,37
878,82	1263,60
878,98	1343,47
879,15	1347,56
879,32	1308,65
879,48	1320,94
879,65	1294,32
879,81	1249,26
879,98	1198,06
880,15	1204,21
880,31	1290,22
880,48	1230,83
880,64	1222,64
880,81	1304,56
880,97	1247,21
881,14	1269,74
881,31	1271,79
881,47	1316,84
881,64	1294,32
881,80	1236,97
881,97	1279,98
882,13	1243,12
882,30	1255,40
882,47	1241,07
882,63	1208,30
882,80	1222,64
882,96	1345,52
883,13	1316,84
883,29	1230,83
883,46	1259,50
883,62	1224,69
883,79	1253,36
883,95	1239,02
884,12	1241,07
884,29	1257,45
884,45	1329,13
884,62	1226,73
884,78	1232,88
884,95	1286,12
885,11	1277,93
885,28	1279,98
885,44	1320,94
885,61	1265,64
885,77	1259,50
885,94	1208,30
886,10	1288,17
886,27	1241,07
886,43	1284,08
886,60	1247,21
886,76	1261,55
886,93	1314,80
887,09	1273,84
887,26	1220,59
887,42	1284,08
887,59	1232,88
887,75	1294,32
887,92	1265,64
888,08	1370,09
888,25	1234,93
888,41	1284,08
888,58	1308,65
888,74	1265,64
888,91	1236,97
>>>>>End Processed Spectral Data<<<<<
