SpectraSuite Data File
++++++++++++++++++++++++++++++++++++
Date: Sun Apr 03 19:55:30 CEST 2016
User: root
Dark Spectrum Present: No
Reference Spectrum Present: No
Number of Sampled Component Spectra: 1
Spectrometers: USB4C02835
Integration Time (usec): 10000 (USB4C02835)
Spectra Averaged: 1 (USB4C02835)
Boxcar Smoothing: 0 (USB4C02835)
Correct for Electrical Dark: No (USB4C02835)
Strobe/Lamp Enabled: No (USB4C02835)
Correct for Detector Non-linearity: No (USB4C02835)
Correct for Stray Light: No (USB4C02835)
Number of Pixels in Processed Spectrum: 3648
>>>>>Begin Processed Spectral Data<<<<<
177,47	1282,03
177,69	1282,03
177,91	1282,03
178,13	1294,32
178,36	1249,26
178,58	1245,16
178,80	1228,78
179,02	1245,16
179,24	1304,56
179,46	1255,40
179,68	1286,12
179,90	1286,12
180,13	1329,13
180,35	1228,78
180,57	1279,98
180,79	1269,74
181,01	1224,69
181,23	1261,55
181,45	1271,79
181,67	1216,49
181,90	1255,40
182,12	1314,80
182,34	1243,12
182,56	1218,54
182,78	1259,50
183,00	1257,45
183,22	1286,12
183,44	1316,84
183,66	1208,30
183,89	1241,07
184,11	1236,97
184,33	1171,44
184,55	1212,40
184,77	1249,26
184,99	1228,78
185,21	1230,83
185,43	1263,60
185,65	1193,97
185,87	1236,97
186,10	1216,49
186,32	1286,12
186,54	1292,27
186,76	1230,83
186,98	1232,88
187,20	1255,40
187,42	1298,41
187,64	1253,36
187,86	1290,22
188,08	1314,80
188,30	1169,39
188,52	1232,88
188,75	1255,40
188,97	1294,32
189,19	1269,74
189,41	1241,07
189,63	1298,41
189,85	1288,17
190,07	1222,64
190,29	1253,36
190,51	1282,03
190,73	1267,69
190,95	1279,98
191,17	1212,40
191,39	1249,26
191,61	1298,41
191,84	1290,22
192,06	1243,12
192,28	1175,53
192,50	1222,64
192,72	1316,84
192,94	1277,93
193,16	1222,64
193,38	1265,64
193,60	1277,93
193,82	1251,31
194,04	1269,74
194,26	1210,35
194,48	1226,73
194,70	1302,51
194,92	1204,21
195,14	1269,74
195,36	1208,30
195,58	1284,08
195,80	1273,84
196,02	1282,03
196,24	1273,84
196,46	1249,26
196,69	1239,02
196,91	1220,59
197,13	1314,80
197,35	1239,02
197,57	1220,59
197,79	1255,40
198,01	1275,88
198,23	1224,69
198,45	1253,36
198,67	1302,51
198,89	1183,73
199,11	1204,21
199,33	1251,31
199,55	1282,03
199,77	1210,35
199,99	1228,78
200,21	1243,12
200,43	1204,21
200,65	1212,40
200,87	1290,22
201,09	1265,64
201,31	1306,60
201,53	1232,88
201,75	1306,60
201,97	1318,89
202,19	1224,69
202,41	1269,74
202,63	1263,60
202,85	1267,69
203,07	1271,79
203,29	1284,08
203,51	1230,83
203,73	1216,49
203,95	1202,16
204,17	1300,46
204,39	1208,30
204,61	1234,93
204,83	1187,82
205,05	1234,93
205,27	1265,64
205,49	1241,07
205,71	1282,03
205,93	1286,12
206,15	1292,27
206,37	1282,03
206,59	1269,74
206,81	1286,12
207,03	1208,30
207,25	1232,88
207,47	1263,60
207,69	1234,93
207,91	1294,32
208,13	1257,45
208,34	1271,79
208,56	1241,07
208,78	1308,65
209,00	1347,56
209,22	1271,79
209,44	1224,69
209,66	1331,18
209,88	1241,07
210,10	1304,56
210,32	1273,84
210,54	1284,08
210,76	1300,46
210,98	1230,83
211,20	1212,40
211,42	1347,56
211,64	1255,40
211,86	1269,74
212,08	1236,97
212,30	1267,69
212,52	1253,36
212,74	1279,98
212,96	1296,36
213,17	1277,93
213,39	1282,03
213,61	1279,98
213,83	1263,60
214,05	1341,42
214,27	1232,88
214,49	1306,60
214,71	1269,74
214,93	1257,45
215,15	1277,93
215,37	1298,41
215,59	1189,87
215,81	1236,97
216,03	1288,17
216,24	1298,41
216,46	1249,26
216,68	1251,31
216,90	1269,74
217,12	1253,36
217,34	1232,88
217,56	1239,02
217,78	1273,84
218,00	1271,79
218,22	1247,21
218,44	1173,49
218,66	1288,17
218,87	1232,88
219,09	1312,75
219,31	1306,60
219,53	1259,50
219,75	1316,84
219,97	1282,03
220,19	1216,49
220,41	1286,12
220,63	1282,03
220,85	1185,77
221,06	1245,16
221,28	1296,36
221,50	1304,56
221,72	1261,55
221,94	1259,50
222,16	1163,25
222,38	1239,02
222,60	1222,64
222,82	1173,49
223,03	1222,64
223,25	1288,17
223,47	1236,97
223,69	1261,55
223,91	1271,79
224,13	1273,84
224,35	1308,65
224,57	1279,98
224,78	1236,97
225,00	1263,60
225,22	1253,36
225,44	1292,27
225,66	1239,02
225,88	1253,36
226,10	1284,08
226,32	1296,36
226,53	1257,45
226,75	1359,85
226,97	1316,84
227,19	1232,88
227,41	1292,27
227,63	1277,93
227,85	1230,83
228,06	1263,60
228,28	1277,93
228,50	1273,84
228,72	1214,45
228,94	1263,60
229,16	1249,26
229,37	1232,88
229,59	1230,83
229,81	1228,78
230,03	1312,75
230,25	1290,22
230,47	1265,64
230,69	1255,40
230,90	1327,08
231,12	1259,50
231,34	1269,74
231,56	1241,07
231,78	1214,45
232,00	1296,36
232,21	1325,04
232,43	1200,11
232,65	1191,92
232,87	1277,93
233,09	1286,12
233,30	1222,64
233,52	1343,47
233,74	1265,64
233,96	1325,04
234,18	1351,66
234,40	1212,40
234,61	1282,03
234,83	1226,73
235,05	1259,50
235,27	1284,08
235,49	1275,88
235,70	1286,12
235,92	1226,73
236,14	1267,69
236,36	1368,04
236,58	1251,31
236,79	1349,61
237,01	1232,88
237,23	1282,03
237,45	1257,45
237,67	1271,79
237,88	1239,02
238,10	1290,22
238,32	1275,88
238,54	1298,41
238,76	1306,60
238,97	1263,60
239,19	1167,34
239,41	1243,12
239,63	1234,93
239,85	1341,42
240,06	1267,69
240,28	1239,02
240,50	1265,64
240,72	1267,69
240,93	1251,31
241,15	1265,64
241,37	1288,17
241,59	1251,31
241,81	1269,74
242,02	1204,21
242,24	1257,45
242,46	1218,54
242,68	1204,21
242,89	1290,22
243,11	1239,02
243,33	1230,83
243,55	1253,36
243,76	1249,26
243,98	1273,84
244,20	1261,55
244,42	1210,35
244,64	1241,07
244,85	1302,51
245,07	1316,84
245,29	1222,64
245,51	1292,27
245,72	1228,78
245,94	1288,17
246,16	1292,27
246,38	1325,04
246,59	1259,50
246,81	1284,08
247,03	1277,93
247,24	1249,26
247,46	1273,84
247,68	1216,49
247,90	1284,08
248,11	1259,50
248,33	1306,60
248,55	1249,26
248,77	1257,45
248,98	1249,26
249,20	1273,84
249,42	1353,71
249,64	1273,84
249,85	1296,36
250,07	1263,60
250,29	1286,12
250,50	1202,16
250,72	1232,88
250,94	1169,39
251,16	1210,35
251,37	1325,04
251,59	1282,03
251,81	1314,80
252,02	1288,17
252,24	1269,74
252,46	1318,89
252,68	1308,65
252,89	1255,40
253,11	1310,70
253,33	1275,88
253,54	1251,31
253,76	1239,02
253,98	1279,98
254,20	1200,11
254,41	1185,77
254,63	1251,31
254,85	1230,83
255,06	1298,41
255,28	1234,93
255,50	1198,06
255,71	1265,64
255,93	1232,88
256,15	1271,79
256,36	1316,84
256,58	1271,79
256,80	1243,12
257,02	1261,55
257,23	1318,89
257,45	1263,60
257,67	1257,45
257,88	1343,47
258,10	1271,79
258,32	1255,40
258,53	1230,83
258,75	1273,84
258,97	1218,54
259,18	1314,80
259,40	1304,56
259,62	1251,31
259,83	1286,12
260,05	1320,94
260,27	1345,52
260,48	1259,50
260,70	1202,16
260,92	1232,88
261,13	1322,99
261,35	1318,89
261,57	1314,80
261,78	1271,79
262,00	1257,45
262,22	1279,98
262,43	1290,22
262,65	1279,98
262,86	1302,51
263,08	1308,65
263,30	1247,21
263,51	1191,92
263,73	1273,84
263,95	1236,97
264,16	1286,12
264,38	1286,12
264,60	1239,02
264,81	1282,03
265,03	1236,97
265,25	1228,78
265,46	1265,64
265,68	1366,00
265,89	1257,45
266,11	1226,73
266,33	1282,03
266,54	1277,93
266,76	1228,78
266,98	1247,21
267,19	1232,88
267,41	1214,45
267,62	1271,79
267,84	1302,51
268,06	1245,16
268,27	1320,94
268,49	1247,21
268,70	1294,32
268,92	1259,50
269,14	1322,99
269,35	1271,79
269,57	1222,64
269,79	1236,97
270,00	1275,88
270,22	1347,56
270,43	1269,74
270,65	1243,12
270,87	1236,97
271,08	1241,07
271,30	1298,41
271,51	1277,93
271,73	1228,78
271,95	1236,97
272,16	1267,69
272,38	1220,59
272,59	1269,74
272,81	1298,41
273,02	1286,12
273,24	1220,59
273,46	1322,99
273,67	1325,04
273,89	1339,37
274,10	1265,64
274,32	1284,08
274,54	1288,17
274,75	1255,40
274,97	1257,45
275,18	1292,27
275,40	1263,60
275,61	1339,37
275,83	1314,80
276,05	1329,13
276,26	1368,04
276,48	1277,93
276,69	1239,02
276,91	1308,65
277,12	1286,12
277,34	1251,31
277,55	1279,98
277,77	1320,94
277,99	1275,88
278,20	1257,45
278,42	1239,02
278,63	1232,88
278,85	1282,03
279,06	1277,93
279,28	1279,98
279,49	1259,50
279,71	1249,26
279,93	1253,36
280,14	1253,36
280,36	1210,35
280,57	1298,41
280,79	1296,36
281,00	1210,35
281,22	1220,59
281,43	1322,99
281,65	1226,73
281,86	1173,49
282,08	1273,84
282,29	1214,45
282,51	1284,08
282,73	1269,74
282,94	1267,69
283,16	1282,03
283,37	1232,88
283,59	1282,03
283,80	1159,15
284,02	1259,50
284,23	1296,36
284,45	1331,18
284,66	1245,16
284,88	1331,18
285,09	1253,36
285,31	1249,26
285,52	1275,88
285,74	1263,60
285,95	1245,16
286,17	1269,74
286,38	1288,17
286,60	1300,46
286,81	1239,02
287,03	1267,69
287,24	1241,07
287,46	1284,08
287,67	1271,79
287,89	1224,69
288,10	1279,98
288,32	1243,12
288,53	1329,13
288,75	1282,03
288,96	1302,51
289,18	1261,55
289,39	1308,65
289,61	1310,70
289,82	1269,74
290,04	1261,55
290,25	1214,45
290,47	1261,55
290,68	1279,98
290,90	1239,02
291,11	1236,97
291,33	1310,70
291,54	1245,16
291,76	1212,40
291,97	1298,41
292,18	1269,74
292,40	1263,60
292,61	1304,56
292,83	1247,21
293,04	1316,84
293,26	1243,12
293,47	1224,69
293,69	1261,55
293,90	1339,37
294,12	1259,50
294,33	1378,28
294,55	1273,84
294,76	1251,31
294,97	1265,64
295,19	1288,17
295,40	1265,64
295,62	1286,12
295,83	1363,95
296,05	1284,08
296,26	1322,99
296,48	1337,32
296,69	1216,49
296,90	1269,74
297,12	1189,87
297,33	1271,79
297,55	1249,26
297,76	1339,37
297,98	1261,55
298,19	1286,12
298,41	1243,12
298,62	1294,32
298,83	1277,93
299,05	1255,40
299,26	1290,22
299,48	1265,64
299,69	1286,12
299,90	1275,88
300,12	1255,40
300,33	1271,79
300,55	1263,60
300,76	1226,73
300,98	1232,88
301,19	1286,12
301,40	1312,75
301,62	1239,02
301,83	1261,55
302,05	1288,17
302,26	1290,22
302,47	1263,60
302,69	1325,04
302,90	1189,87
303,12	1261,55
303,33	1275,88
303,54	1275,88
303,76	1271,79
303,97	1224,69
304,19	1279,98
304,40	1167,34
304,61	1208,30
304,83	1286,12
305,04	1232,88
305,26	1193,97
305,47	1232,88
305,68	1273,84
305,90	1279,98
306,11	1208,30
306,33	1251,31
306,54	1282,03
306,75	1228,78
306,97	1271,79
307,18	1208,30
307,39	1263,60
307,61	1269,74
307,82	1288,17
308,04	1308,65
308,25	1273,84
308,46	1304,56
308,68	1202,16
308,89	1290,22
309,10	1320,94
309,32	1298,41
309,53	1208,30
309,74	1263,60
309,96	1183,73
310,17	1216,49
310,39	1226,73
310,60	1294,32
310,81	1286,12
311,03	1247,21
311,24	1269,74
311,45	1263,60
311,67	1224,69
311,88	1275,88
312,09	1171,44
312,31	1243,12
312,52	1277,93
312,73	1247,21
312,95	1314,80
313,16	1249,26
313,37	1241,07
313,59	1187,82
313,80	1251,31
314,01	1261,55
314,23	1310,70
314,44	1290,22
314,65	1198,06
314,87	1216,49
315,08	1257,45
315,29	1282,03
315,51	1187,82
315,72	1294,32
315,93	1277,93
316,15	1275,88
316,36	1269,74
316,57	1236,97
316,79	1265,64
317,00	1282,03
317,21	1275,88
317,43	1318,89
317,64	1300,46
317,85	1253,36
318,07	1251,31
318,28	1322,99
318,49	1236,97
318,70	1306,60
318,92	1222,64
319,13	1222,64
319,34	1228,78
319,56	1222,64
319,77	1273,84
319,98	1251,31
320,20	1279,98
320,41	1273,84
320,62	1282,03
320,83	1267,69
321,05	1288,17
321,26	1300,46
321,47	1228,78
321,69	1228,78
321,90	1271,79
322,11	1239,02
322,32	1257,45
322,54	1261,55
322,75	1249,26
322,96	1294,32
323,18	1271,79
323,39	1275,88
323,60	1241,07
323,81	1275,88
324,03	1267,69
324,24	1212,40
324,45	1318,89
324,66	1247,21
324,88	1300,46
325,09	1273,84
325,30	1296,36
325,52	1296,36
325,73	1257,45
325,94	1187,82
326,15	1275,88
326,37	1322,99
326,58	1267,69
326,79	1241,07
327,00	1269,74
327,22	1312,75
327,43	1255,40
327,64	1322,99
327,85	1234,93
328,07	1265,64
328,28	1239,02
328,49	1329,13
328,70	1294,32
328,92	1296,36
329,13	1236,97
329,34	1284,08
329,55	1343,47
329,76	1312,75
329,98	1294,32
330,19	1329,13
330,40	1253,36
330,61	1275,88
330,83	1232,88
331,04	1263,60
331,25	1265,64
331,46	1241,07
331,68	1263,60
331,89	1271,79
332,10	1282,03
332,31	1290,22
332,52	1253,36
332,74	1206,25
332,95	1290,22
333,16	1263,60
333,37	1263,60
333,58	1269,74
333,80	1239,02
334,01	1251,31
334,22	1290,22
334,43	1247,21
334,64	1253,36
334,86	1288,17
335,07	1304,56
335,28	1298,41
335,49	1234,93
335,70	1282,03
335,92	1255,40
336,13	1247,21
336,34	1292,27
336,55	1261,55
336,76	1277,93
336,98	1241,07
337,19	1337,32
337,40	1331,18
337,61	1249,26
337,82	1175,53
338,04	1253,36
338,25	1277,93
338,46	1222,64
338,67	1316,84
338,88	1212,40
339,09	1286,12
339,31	1226,73
339,52	1228,78
339,73	1308,65
339,94	1288,17
340,15	1267,69
340,36	1253,36
340,58	1298,41
340,79	1222,64
341,00	1314,80
341,21	1239,02
341,42	1228,78
341,63	1279,98
341,85	1249,26
342,06	1259,50
342,27	1183,73
342,48	1177,58
342,69	1282,03
342,90	1279,98
343,12	1255,40
343,33	1292,27
343,54	1363,95
343,75	1230,83
343,96	1263,60
344,17	1253,36
344,38	1249,26
344,60	1228,78
344,81	1331,18
345,02	1353,71
345,23	1273,84
345,44	1261,55
345,65	1232,88
345,86	1257,45
346,07	1228,78
346,29	1282,03
346,50	1220,59
346,71	1341,42
346,92	1279,98
347,13	1345,52
347,34	1253,36
347,55	1175,53
347,76	1275,88
347,98	1271,79
348,19	1191,92
348,40	1265,64
348,61	1290,22
348,82	1273,84
349,03	1292,27
349,24	1341,42
349,45	1302,51
349,66	1232,88
349,88	1224,69
350,09	1296,36
350,30	1304,56
350,51	1279,98
350,72	1294,32
350,93	1277,93
351,14	1261,55
351,35	1202,16
351,56	1196,01
351,77	1265,64
351,99	1296,36
352,20	1308,65
352,41	1300,46
352,62	1298,41
352,83	1288,17
353,04	1298,41
353,25	1310,70
353,46	1294,32
353,67	1277,93
353,88	1232,88
354,09	1230,83
354,30	1198,06
354,52	1282,03
354,73	1275,88
354,94	1232,88
355,15	1212,40
355,36	1232,88
355,57	1265,64
355,78	1230,83
355,99	1284,08
356,20	1279,98
356,41	1312,75
356,62	1253,36
356,83	1234,93
357,04	1271,79
357,25	1312,75
357,46	1236,97
357,68	1265,64
357,89	1263,60
358,10	1239,02
358,31	1265,64
358,52	1286,12
358,73	1226,73
358,94	1312,75
359,15	1306,60
359,36	1208,30
359,57	1208,30
359,78	1243,12
359,99	1312,75
360,20	1271,79
360,41	1218,54
360,62	1259,50
360,83	1286,12
361,04	1255,40
361,25	1325,04
361,46	1277,93
361,67	1228,78
361,88	1302,51
362,09	1294,32
362,30	1245,16
362,51	1333,23
362,72	1259,50
362,93	1339,37
363,14	1255,40
363,35	1243,12
363,56	1316,84
363,78	1222,64
363,99	1230,83
364,20	1298,41
364,41	1277,93
364,62	1253,36
364,83	1257,45
365,04	1349,61
365,25	1241,07
365,46	1261,55
365,67	1232,88
365,88	1292,27
366,09	1290,22
366,30	1241,07
366,51	1310,70
366,72	1339,37
366,93	1314,80
367,14	1290,22
367,35	1212,40
367,56	1224,69
367,77	1249,26
367,98	1300,46
368,18	1239,02
368,39	1253,36
368,60	1331,18
368,81	1277,93
369,02	1277,93
369,23	1298,41
369,44	1320,94
369,65	1183,73
369,86	1298,41
370,07	1273,84
370,28	1282,03
370,49	1331,18
370,70	1316,84
370,91	1273,84
371,12	1269,74
371,33	1241,07
371,54	1306,60
371,75	1294,32
371,96	1304,56
372,17	1282,03
372,38	1241,07
372,59	1247,21
372,80	1361,90
373,01	1259,50
373,22	1284,08
373,43	1212,40
373,64	1288,17
373,85	1263,60
374,06	1320,94
374,26	1239,02
374,47	1290,22
374,68	1277,93
374,89	1247,21
375,10	1312,75
375,31	1325,04
375,52	1286,12
375,73	1255,40
375,94	1296,36
376,15	1304,56
376,36	1304,56
376,57	1251,31
376,78	1271,79
376,99	1230,83
377,20	1204,21
377,40	1232,88
377,61	1277,93
377,82	1337,32
378,03	1253,36
378,24	1249,26
378,45	1310,70
378,66	1277,93
378,87	1277,93
379,08	1267,69
379,29	1265,64
379,50	1345,52
379,71	1277,93
379,91	1220,59
380,12	1245,16
380,33	1286,12
380,54	1347,56
380,75	1298,41
380,96	1275,88
381,17	1296,36
381,38	1292,27
381,59	1206,25
381,80	1304,56
382,00	1333,23
382,21	1286,12
382,42	1310,70
382,63	1200,11
382,84	1306,60
383,05	1253,36
383,26	1284,08
383,47	1290,22
383,68	1230,83
383,88	1224,69
384,09	1255,40
384,30	1232,88
384,51	1314,80
384,72	1206,25
384,93	1232,88
385,14	1296,36
385,35	1355,76
385,55	1279,98
385,76	1339,37
385,97	1259,50
386,18	1226,73
386,39	1337,32
386,60	1208,30
386,81	1202,16
387,02	1220,59
387,22	1216,49
387,43	1255,40
387,64	1249,26
387,85	1245,16
388,06	1263,60
388,27	1345,52
388,48	1290,22
388,68	1232,88
388,89	1243,12
389,10	1290,22
389,31	1239,02
389,52	1310,70
389,73	1261,55
389,93	1273,84
390,14	1275,88
390,35	1249,26
390,56	1282,03
390,77	1261,55
390,98	1306,60
391,18	1212,40
391,39	1273,84
391,60	1249,26
391,81	1304,56
392,02	1277,93
392,23	1308,65
392,43	1239,02
392,64	1273,84
392,85	1261,55
393,06	1279,98
393,27	1368,04
393,47	1302,51
393,68	1243,12
393,89	1290,22
394,10	1286,12
394,31	1247,21
394,52	1286,12
394,72	1241,07
394,93	1222,64
395,14	1333,23
395,35	1298,41
395,56	1302,51
395,76	1251,31
395,97	1243,12
396,18	1341,42
396,39	1253,36
396,60	1165,29
396,80	1236,97
397,01	1259,50
397,22	1214,45
397,43	1159,15
397,64	1196,01
397,84	1239,02
398,05	1245,16
398,26	1271,79
398,47	1302,51
398,67	1310,70
398,88	1275,88
399,09	1218,54
399,30	1243,12
399,51	1232,88
399,71	1292,27
399,92	1224,69
400,13	1210,35
400,34	1277,93
400,54	1200,11
400,75	1284,08
400,96	1232,88
401,17	1298,41
401,37	1292,27
401,58	1253,36
401,79	1265,64
402,00	1257,45
402,21	1284,08
402,41	1214,45
402,62	1279,98
402,83	1271,79
403,04	1179,63
403,24	1257,45
403,45	1306,60
403,66	1329,13
403,87	1255,40
404,07	1241,07
404,28	1271,79
404,49	1357,80
404,70	1312,75
404,90	1200,11
405,11	1259,50
405,32	1196,01
405,52	1255,40
405,73	1226,73
405,94	1202,16
406,15	1228,78
406,35	1226,73
406,56	1232,88
406,77	1247,21
406,98	1189,87
407,18	1206,25
407,39	1306,60
407,60	1232,88
407,80	1304,56
408,01	1239,02
408,22	1261,55
408,43	1200,11
408,63	1236,97
408,84	1234,93
409,05	1263,60
409,25	1286,12
409,46	1206,25
409,67	1218,54
409,88	1220,59
410,08	1382,38
410,29	1245,16
410,50	1243,12
410,70	1347,56
410,91	1279,98
411,12	1314,80
411,32	1247,21
411,53	1239,02
411,74	1228,78
411,95	1218,54
412,15	1259,50
412,36	1288,17
412,57	1230,83
412,77	1282,03
412,98	1167,34
413,19	1282,03
413,39	1273,84
413,60	1288,17
413,81	1220,59
414,01	1189,87
414,22	1320,94
414,43	1245,16
414,63	1286,12
414,84	1257,45
415,05	1279,98
415,25	1181,68
415,46	1224,69
415,67	1269,74
415,87	1292,27
416,08	1239,02
416,29	1277,93
416,49	1318,89
416,70	1259,50
416,91	1310,70
417,11	1193,97
417,32	1310,70
417,53	1232,88
417,73	1208,30
417,94	1232,88
418,15	1253,36
418,35	1320,94
418,56	1298,41
418,77	1249,26
418,97	1171,44
419,18	1230,83
419,38	1224,69
419,59	1269,74
419,80	1236,97
420,00	1253,36
420,21	1298,41
420,42	1279,98
420,62	1247,21
420,83	1226,73
421,04	1191,92
421,24	1306,60
421,45	1265,64
421,65	1286,12
421,86	1241,07
422,07	1220,59
422,27	1337,32
422,48	1300,46
422,69	1253,36
422,89	1230,83
423,10	1230,83
423,30	1255,40
423,51	1212,40
423,72	1257,45
423,92	1304,56
424,13	1275,88
424,33	1306,60
424,54	1222,64
424,75	1228,78
424,95	1265,64
425,16	1294,32
425,36	1263,60
425,57	1212,40
425,78	1273,84
425,98	1249,26
426,19	1277,93
426,39	1251,31
426,60	1314,80
426,81	1241,07
427,01	1282,03
427,22	1304,56
427,42	1257,45
427,63	1327,08
427,83	1245,16
428,04	1331,18
428,25	1257,45
428,45	1224,69
428,66	1308,65
428,86	1261,55
429,07	1247,21
429,28	1241,07
429,48	1257,45
429,69	1263,60
429,89	1277,93
430,10	1314,80
430,30	1318,89
430,51	1243,12
430,71	1300,46
430,92	1269,74
431,13	1259,50
431,33	1314,80
431,54	1257,45
431,74	1294,32
431,95	1312,75
432,15	1282,03
432,36	1253,36
432,56	1312,75
432,77	1257,45
432,98	1302,51
433,18	1222,64
433,39	1214,45
433,59	1245,16
433,80	1282,03
434,00	1251,31
434,21	1271,79
434,41	1214,45
434,62	1275,88
434,82	1210,35
435,03	1257,45
435,23	1216,49
435,44	1282,03
435,64	1304,56
435,85	1282,03
436,06	1232,88
436,26	1282,03
436,47	1304,56
436,67	1265,64
436,88	1351,66
437,08	1271,79
437,29	1241,07
437,49	1224,69
437,70	1284,08
437,90	1163,25
438,11	1259,50
438,31	1298,41
438,52	1269,74
438,72	1257,45
438,93	1288,17
439,13	1265,64
439,34	1290,22
439,54	1234,93
439,75	1243,12
439,95	1259,50
440,16	1273,84
440,36	1292,27
440,57	1292,27
440,77	1196,01
440,98	1320,94
441,18	1312,75
441,39	1257,45
441,59	1288,17
441,80	1296,36
442,00	1294,32
442,21	1218,54
442,41	1259,50
442,62	1275,88
442,82	1232,88
443,02	1226,73
443,23	1245,16
443,43	1245,16
443,64	1329,13
443,84	1257,45
444,05	1222,64
444,25	1273,84
444,46	1259,50
444,66	1269,74
444,87	1263,60
445,07	1271,79
445,28	1312,75
445,48	1241,07
445,69	1273,84
445,89	1302,51
446,09	1253,36
446,30	1255,40
446,50	1277,93
446,71	1296,36
446,91	1275,88
447,12	1337,32
447,32	1298,41
447,53	1220,59
447,73	1189,87
447,93	1282,03
448,14	1378,28
448,34	1347,56
448,55	1327,08
448,75	1296,36
448,96	1273,84
449,16	1325,04
449,36	1290,22
449,57	1273,84
449,77	1198,06
449,98	1263,60
450,18	1228,78
450,39	1226,73
450,59	1312,75
450,79	1361,90
451,00	1277,93
451,20	1198,06
451,41	1257,45
451,61	1314,80
451,81	1345,52
452,02	1292,27
452,22	1320,94
452,43	1288,17
452,63	1322,99
452,84	1236,97
453,04	1239,02
453,24	1230,83
453,45	1273,84
453,65	1288,17
453,86	1347,56
454,06	1333,23
454,26	1257,45
454,47	1243,12
454,67	1298,41
454,87	1249,26
455,08	1253,36
455,28	1265,64
455,49	1236,97
455,69	1273,84
455,89	1331,18
456,10	1251,31
456,30	1296,36
456,51	1253,36
456,71	1245,16
456,91	1265,64
457,12	1261,55
457,32	1310,70
457,52	1269,74
457,73	1286,12
457,93	1284,08
458,14	1329,13
458,34	1363,95
458,54	1284,08
458,75	1232,88
458,95	1269,74
459,15	1259,50
459,36	1263,60
459,56	1294,32
459,76	1337,32
459,97	1294,32
460,17	1218,54
460,37	1230,83
460,58	1275,88
460,78	1236,97
460,99	1224,69
461,19	1294,32
461,39	1255,40
461,60	1261,55
461,80	1314,80
462,00	1239,02
462,21	1271,79
462,41	1310,70
462,61	1210,35
462,82	1255,40
463,02	1378,28
463,22	1263,60
463,43	1318,89
463,63	1304,56
463,83	1185,77
464,04	1273,84
464,24	1239,02
464,44	1318,89
464,64	1232,88
464,85	1218,54
465,05	1236,97
465,25	1294,32
465,46	1241,07
465,66	1245,16
465,86	1232,88
466,07	1335,28
466,27	1226,73
466,47	1300,46
466,68	1284,08
466,88	1296,36
467,08	1273,84
467,29	1222,64
467,49	1247,21
467,69	1253,36
467,89	1286,12
468,10	1232,88
468,30	1249,26
468,50	1390,57
468,71	1245,16
468,91	1275,88
469,11	1290,22
469,31	1322,99
469,52	1218,54
469,72	1204,21
469,92	1279,98
470,13	1306,60
470,33	1302,51
470,53	1255,40
470,73	1286,12
470,94	1298,41
471,14	1306,60
471,34	1298,41
471,54	1265,64
471,75	1349,61
471,95	1239,02
472,15	1306,60
472,36	1331,18
472,56	1216,49
472,76	1277,93
472,96	1259,50
473,17	1300,46
473,37	1294,32
473,57	1302,51
473,77	1304,56
473,98	1286,12
474,18	1273,84
474,38	1228,78
474,58	1232,88
474,79	1322,99
474,99	1341,42
475,19	1251,31
475,39	1298,41
475,60	1218,54
475,80	1241,07
476,00	1294,32
476,20	1302,51
476,41	1275,88
476,61	1296,36
476,81	1239,02
477,01	1284,08
477,21	1298,41
477,42	1306,60
477,62	1267,69
477,82	1368,04
478,02	1243,12
478,23	1288,17
478,43	1263,60
478,63	1269,74
478,83	1247,21
479,03	1273,84
479,24	1210,35
479,44	1253,36
479,64	1232,88
479,84	1228,78
480,04	1312,75
480,25	1312,75
480,45	1245,16
480,65	1347,56
480,85	1241,07
481,06	1337,32
481,26	1239,02
481,46	1308,65
481,66	1292,27
481,86	1232,88
482,06	1226,73
482,27	1269,74
482,47	1267,69
482,67	1245,16
482,87	1234,93
483,07	1249,26
483,28	1265,64
483,48	1314,80
483,68	1298,41
483,88	1271,79
484,08	1312,75
484,29	1288,17
484,49	1259,50
484,69	1239,02
484,89	1257,45
485,09	1282,03
485,29	1232,88
485,50	1255,40
485,70	1302,51
485,90	1312,75
486,10	1298,41
486,30	1165,29
486,50	1241,07
486,71	1232,88
486,91	1306,60
487,11	1236,97
487,31	1214,45
487,51	1257,45
487,71	1277,93
487,91	1263,60
488,12	1263,60
488,32	1218,54
488,52	1312,75
488,72	1282,03
488,92	1241,07
489,12	1271,79
489,32	1261,55
489,53	1245,16
489,73	1271,79
489,93	1284,08
490,13	1275,88
490,33	1249,26
490,53	1306,60
490,73	1294,32
490,94	1298,41
491,14	1275,88
491,34	1275,88
491,54	1247,21
491,74	1284,08
491,94	1249,26
492,14	1322,99
492,34	1249,26
492,54	1234,93
492,75	1261,55
492,95	1191,92
493,15	1316,84
493,35	1271,79
493,55	1271,79
493,75	1296,36
493,95	1253,36
494,15	1230,83
494,35	1263,60
494,56	1343,47
494,76	1255,40
494,96	1298,41
495,16	1245,16
495,36	1314,80
495,56	1187,82
495,76	1267,69
495,96	1273,84
496,16	1310,70
496,36	1339,37
496,56	1273,84
496,77	1263,60
496,97	1224,69
497,17	1300,46
497,37	1267,69
497,57	1259,50
497,77	1296,36
497,97	1226,73
498,17	1368,04
498,37	1224,69
498,57	1320,94
498,77	1253,36
498,97	1288,17
499,17	1322,99
499,38	1232,88
499,58	1310,70
499,78	1376,24
499,98	1310,70
500,18	1312,75
500,38	1234,93
500,58	1302,51
500,78	1284,08
500,98	1267,69
501,18	1253,36
501,38	1302,51
501,58	1249,26
501,78	1236,97
501,98	1314,80
502,18	1251,31
502,38	1286,12
502,58	1294,32
502,78	1269,74
502,98	1298,41
503,18	1261,55
503,38	1214,45
503,59	1263,60
503,79	1329,13
503,99	1320,94
504,19	1310,70
504,39	1255,40
504,59	1370,09
504,79	1185,77
504,99	1239,02
505,19	1249,26
505,39	1247,21
505,59	1329,13
505,79	1279,98
505,99	1290,22
506,19	1298,41
506,39	1402,86
506,59	1269,74
506,79	1302,51
506,99	1255,40
507,19	1279,98
507,39	1314,80
507,59	1267,69
507,79	1298,41
507,99	1282,03
508,19	1253,36
508,39	1294,32
508,59	1286,12
508,79	1347,56
508,99	1357,80
509,19	1198,06
509,39	1206,25
509,59	1318,89
509,79	1267,69
509,99	1335,28
510,19	1247,21
510,39	1308,65
510,59	1257,45
510,79	1322,99
510,99	1284,08
511,19	1214,45
511,39	1228,78
511,59	1363,95
511,79	1325,04
511,99	1273,84
512,19	1341,42
512,38	1314,80
512,58	1259,50
512,78	1292,27
512,98	1282,03
513,18	1325,04
513,38	1316,84
513,58	1282,03
513,78	1296,36
513,98	1220,59
514,18	1312,75
514,38	1271,79
514,58	1279,98
514,78	1273,84
514,98	1318,89
515,18	1349,61
515,38	1290,22
515,58	1345,52
515,78	1271,79
515,98	1306,60
516,18	1257,45
516,38	1370,09
516,57	1304,56
516,77	1318,89
516,97	1345,52
517,17	1316,84
517,37	1294,32
517,57	1294,32
517,77	1239,02
517,97	1331,18
518,17	1327,08
518,37	1259,50
518,57	1282,03
518,77	1255,40
518,97	1277,93
519,16	1282,03
519,36	1284,08
519,56	1320,94
519,76	1298,41
519,96	1245,16
520,16	1341,42
520,36	1312,75
520,56	1243,12
520,76	1279,98
520,96	1271,79
521,16	1271,79
521,35	1316,84
521,55	1363,95
521,75	1232,88
521,95	1255,40
522,15	1320,94
522,35	1290,22
522,55	1325,04
522,75	1216,49
522,95	1308,65
523,14	1286,12
523,34	1304,56
523,54	1277,93
523,74	1298,41
523,94	1294,32
524,14	1296,36
524,34	1302,51
524,54	1167,34
524,73	1261,55
524,93	1206,25
525,13	1247,21
525,33	1271,79
525,53	1243,12
525,73	1236,97
525,93	1226,73
526,13	1222,64
526,32	1282,03
526,52	1282,03
526,72	1239,02
526,92	1290,22
527,12	1267,69
527,32	1249,26
527,52	1304,56
527,71	1245,16
527,91	1312,75
528,11	1341,42
528,31	1300,46
528,51	1296,36
528,71	1300,46
528,90	1277,93
529,10	1279,98
529,30	1277,93
529,50	1265,64
529,70	1296,36
529,90	1247,21
530,09	1279,98
530,29	1308,65
530,49	1263,60
530,69	1282,03
530,89	1232,88
531,09	1333,23
531,28	1275,88
531,48	1228,78
531,68	1249,26
531,88	1345,52
532,08	1265,64
532,28	1300,46
532,47	1339,37
532,67	1331,18
532,87	1312,75
533,07	1290,22
533,27	1255,40
533,46	1273,84
533,66	1245,16
533,86	1169,39
534,06	1255,40
534,26	1279,98
534,45	1341,42
534,65	1234,93
534,85	1259,50
535,05	1306,60
535,25	1222,64
535,44	1267,69
535,64	1292,27
535,84	1316,84
536,04	1251,31
536,24	1249,26
536,43	1239,02
536,63	1374,19
536,83	1249,26
537,03	1337,32
537,22	1245,16
537,42	1282,03
537,62	1234,93
537,82	1230,83
538,02	1314,80
538,21	1265,64
538,41	1290,22
538,61	1318,89
538,81	1239,02
539,00	1273,84
539,20	1320,94
539,40	1300,46
539,60	1284,08
539,79	1220,59
539,99	1279,98
540,19	1267,69
540,39	1265,64
540,58	1273,84
540,78	1361,90
540,98	1304,56
541,18	1218,54
541,37	1318,89
541,57	1318,89
541,77	1216,49
541,97	1222,64
542,16	1339,37
542,36	1329,13
542,56	1304,56
542,76	1255,40
542,95	1288,17
543,15	1179,63
543,35	1325,04
543,54	1314,80
543,74	1306,60
543,94	1302,51
544,14	1290,22
544,33	1257,45
544,53	1279,98
544,73	1361,90
544,93	1228,78
545,12	1214,45
545,32	1384,43
545,52	1279,98
545,71	1255,40
545,91	1232,88
546,11	1288,17
546,30	1296,36
546,50	1325,04
546,70	1345,52
546,90	1275,88
547,09	1286,12
547,29	1255,40
547,49	1304,56
547,68	1181,68
547,88	1310,70
548,08	1329,13
548,27	1277,93
548,47	1193,97
548,67	1325,04
548,87	1234,93
549,06	1310,70
549,26	1183,73
549,46	1277,93
549,65	1257,45
549,85	1288,17
550,05	1275,88
550,24	1292,27
550,44	1239,02
550,64	1198,06
550,83	1394,67
551,03	1202,16
551,23	1318,89
551,42	1200,11
551,62	1322,99
551,82	1310,70
552,01	1257,45
552,21	1269,74
552,41	1312,75
552,60	1226,73
552,80	1239,02
553,00	1282,03
553,19	1302,51
553,39	1277,93
553,59	1265,64
553,78	1290,22
553,98	1290,22
554,17	1282,03
554,37	1296,36
554,57	1322,99
554,76	1306,60
554,96	1316,84
555,16	1261,55
555,35	1302,51
555,55	1314,80
555,75	1290,22
555,94	1335,28
556,14	1249,26
556,33	1232,88
556,53	1302,51
556,73	1277,93
556,92	1306,60
557,12	1363,95
557,32	1257,45
557,51	1282,03
557,71	1318,89
557,90	1314,80
558,10	1314,80
558,30	1304,56
558,49	1308,65
558,69	1288,17
558,88	1290,22
559,08	1298,41
559,28	1290,22
559,47	1263,60
559,67	1277,93
559,86	1318,89
560,06	1339,37
560,26	1296,36
560,45	1300,46
560,65	1273,84
560,84	1275,88
561,04	1279,98
561,24	1294,32
561,43	1312,75
561,63	1351,66
561,82	1269,74
562,02	1245,16
562,22	1245,16
562,41	1292,27
562,61	1327,08
562,80	1228,78
563,00	1273,84
563,19	1255,40
563,39	1296,36
563,59	1292,27
563,78	1265,64
563,98	1241,07
564,17	1230,83
564,37	1261,55
564,56	1257,45
564,76	1275,88
564,96	1331,18
565,15	1224,69
565,35	1302,51
565,54	1255,40
565,74	1261,55
565,93	1304,56
566,13	1316,84
566,32	1284,08
566,52	1277,93
566,71	1277,93
566,91	1308,65
567,11	1282,03
567,30	1345,52
567,50	1230,83
567,69	1263,60
567,89	1236,97
568,08	1286,12
568,28	1298,41
568,47	1265,64
568,67	1230,83
568,86	1275,88
569,06	1325,04
569,25	1198,06
569,45	1277,93
569,64	1331,18
569,84	1253,36
570,04	1298,41
570,23	1204,21
570,43	1302,51
570,62	1304,56
570,82	1239,02
571,01	1288,17
571,21	1351,66
571,40	1312,75
571,60	1302,51
571,79	1263,60
571,99	1232,88
572,18	1292,27
572,38	1261,55
572,57	1216,49
572,77	1269,74
572,96	1329,13
573,16	1329,13
573,35	1265,64
573,55	1333,23
573,74	1325,04
573,94	1286,12
574,13	1277,93
574,33	1253,36
574,52	1259,50
574,71	1279,98
574,91	1212,40
575,10	1282,03
575,30	1329,13
575,49	1308,65
575,69	1208,30
575,88	1316,84
576,08	1230,83
576,27	1286,12
576,47	1261,55
576,66	1263,60
576,86	1275,88
577,05	1241,07
577,25	1306,60
577,44	1286,12
577,64	1220,59
577,83	1351,66
578,02	1284,08
578,22	1296,36
578,41	1320,94
578,61	1310,70
578,80	1275,88
579,00	1259,50
579,19	1241,07
579,39	1308,65
579,58	1335,28
579,77	1298,41
579,97	1286,12
580,16	1357,80
580,36	1247,21
580,55	1271,79
580,75	1210,35
580,94	1277,93
581,13	1275,88
581,33	1230,83
581,52	1279,98
581,72	1355,76
581,91	1206,25
582,11	1325,04
582,30	1267,69
582,49	1187,82
582,69	1327,08
582,88	1243,12
583,08	1306,60
583,27	1218,54
583,47	1292,27
583,66	1247,21
583,85	1310,70
584,05	1253,36
584,24	1214,45
584,44	1206,25
584,63	1212,40
584,82	1236,97
585,02	1318,89
585,21	1302,51
585,41	1333,23
585,60	1239,02
585,79	1290,22
585,99	1329,13
586,18	1247,21
586,37	1273,84
586,57	1267,69
586,76	1304,56
586,96	1267,69
587,15	1353,71
587,34	1241,07
587,54	1302,51
587,73	1282,03
587,93	1263,60
588,12	1247,21
588,31	1370,09
588,51	1298,41
588,70	1255,40
588,89	1175,53
589,09	1269,74
589,28	1243,12
589,47	1308,65
589,67	1331,18
589,86	1224,69
590,06	1263,60
590,25	1335,28
590,44	1249,26
590,64	1265,64
590,83	1275,88
591,02	1282,03
591,22	1265,64
591,41	1282,03
591,60	1374,19
591,80	1335,28
591,99	1296,36
592,18	1273,84
592,38	1263,60
592,57	1187,82
592,76	1222,64
592,96	1282,03
593,15	1282,03
593,34	1290,22
593,54	1308,65
593,73	1318,89
593,92	1345,52
594,12	1318,89
594,31	1318,89
594,50	1298,41
594,70	1318,89
594,89	1253,36
595,08	1279,98
595,28	1288,17
595,47	1329,13
595,66	1230,83
595,86	1304,56
596,05	1286,12
596,24	1310,70
596,43	1255,40
596,63	1253,36
596,82	1296,36
597,01	1284,08
597,21	1253,36
597,40	1261,55
597,59	1306,60
597,79	1308,65
597,98	1302,51
598,17	1253,36
598,36	1267,69
598,56	1282,03
598,75	1245,16
598,94	1318,89
599,14	1322,99
599,33	1286,12
599,52	1296,36
599,71	1239,02
599,91	1290,22
600,10	1329,13
600,29	1333,23
600,48	1306,60
600,68	1310,70
600,87	1239,02
601,06	1302,51
601,26	1259,50
601,45	1212,40
601,64	1214,45
601,83	1257,45
602,03	1253,36
602,22	1310,70
602,41	1302,51
602,60	1259,50
602,80	1279,98
602,99	1253,36
603,18	1296,36
603,37	1277,93
603,57	1273,84
603,76	1228,78
603,95	1261,55
604,14	1312,75
604,34	1234,93
604,53	1296,36
604,72	1329,13
604,91	1282,03
605,10	1241,07
605,30	1181,68
605,49	1279,98
605,68	1308,65
605,87	1312,75
606,07	1189,87
606,26	1320,94
606,45	1290,22
606,64	1286,12
606,84	1273,84
607,03	1308,65
607,22	1298,41
607,41	1306,60
607,60	1298,41
607,80	1247,21
607,99	1329,13
608,18	1271,79
608,37	1296,36
608,56	1224,69
608,76	1273,84
608,95	1239,02
609,14	1275,88
609,33	1220,59
609,52	1318,89
609,72	1253,36
609,91	1271,79
610,10	1322,99
610,29	1310,70
610,48	1312,75
610,68	1251,31
610,87	1304,56
611,06	1314,80
611,25	1279,98
611,44	1279,98
611,63	1241,07
611,83	1341,42
612,02	1310,70
612,21	1226,73
612,40	1304,56
612,59	1232,88
612,79	1216,49
612,98	1329,13
613,17	1173,49
613,36	1232,88
613,55	1335,28
613,74	1290,22
613,93	1298,41
614,13	1282,03
614,32	1320,94
614,51	1288,17
614,70	1261,55
614,89	1296,36
615,08	1310,70
615,28	1327,08
615,47	1222,64
615,66	1277,93
615,85	1243,12
616,04	1304,56
616,23	1265,64
616,42	1286,12
616,62	1234,93
616,81	1275,88
617,00	1308,65
617,19	1259,50
617,38	1284,08
617,57	1222,64
617,76	1308,65
617,95	1286,12
618,15	1304,56
618,34	1339,37
618,53	1282,03
618,72	1279,98
618,91	1331,18
619,10	1239,02
619,29	1265,64
619,48	1286,12
619,68	1259,50
619,87	1312,75
620,06	1279,98
620,25	1234,93
620,44	1312,75
620,63	1257,45
620,82	1247,21
621,01	1251,31
621,20	1339,37
621,39	1247,21
621,59	1312,75
621,78	1304,56
621,97	1288,17
622,16	1265,64
622,35	1247,21
622,54	1230,83
622,73	1261,55
622,92	1269,74
623,11	1275,88
623,30	1271,79
623,49	1288,17
623,68	1314,80
623,88	1329,13
624,07	1247,21
624,26	1306,60
624,45	1306,60
624,64	1347,56
624,83	1290,22
625,02	1318,89
625,21	1288,17
625,40	1345,52
625,59	1376,24
625,78	1232,88
625,97	1277,93
626,16	1335,28
626,35	1296,36
626,54	1271,79
626,74	1222,64
626,93	1339,37
627,12	1265,64
627,31	1271,79
627,50	1247,21
627,69	1296,36
627,88	1230,83
628,07	1347,56
628,26	1339,37
628,45	1335,28
628,64	1302,51
628,83	1255,40
629,02	1290,22
629,21	1271,79
629,40	1335,28
629,59	1294,32
629,78	1286,12
629,97	1306,60
630,16	1306,60
630,35	1331,18
630,54	1255,40
630,73	1288,17
630,92	1292,27
631,11	1183,73
631,30	1335,28
631,49	1292,27
631,68	1421,29
631,87	1363,95
632,06	1462,25
632,25	1458,15
632,44	1466,35
632,63	1597,42
632,82	1599,46
633,01	2066,40
633,20	1609,70
633,39	1658,85
633,58	1730,53
633,77	1748,97
633,96	1624,04
634,15	1611,75
634,34	1617,90
634,53	1628,14
634,72	1578,98
634,91	1552,36
635,10	1480,68
635,29	1394,67
635,48	1454,06
635,67	1499,11
635,86	1472,49
636,05	1394,67
636,24	1435,63
636,43	1318,89
636,62	1298,41
636,81	1339,37
637,00	1296,36
637,19	1409,00
637,38	1294,32
637,57	1257,45
637,76	1267,69
637,95	1322,99
638,14	1327,08
638,33	1361,90
638,52	1216,49
638,71	1302,51
638,89	1290,22
639,08	1241,07
639,27	1331,18
639,46	1269,74
639,65	1286,12
639,84	1302,51
640,03	1232,88
640,22	1204,21
640,41	1269,74
640,60	1302,51
640,79	1224,69
640,98	1279,98
641,17	1318,89
641,36	1327,08
641,55	1298,41
641,74	1253,36
641,92	1343,47
642,11	1263,60
642,30	1265,64
642,49	1226,73
642,68	1271,79
642,87	1277,93
643,06	1294,32
643,25	1239,02
643,44	1279,98
643,63	1325,04
643,82	1263,60
644,00	1275,88
644,19	1241,07
644,38	1230,83
644,57	1241,07
644,76	1275,88
644,95	1353,71
645,14	1263,60
645,33	1247,21
645,52	1249,26
645,71	1314,80
645,89	1300,46
646,08	1331,18
646,27	1298,41
646,46	1308,65
646,65	1241,07
646,84	1282,03
647,03	1187,82
647,22	1257,45
647,40	1304,56
647,59	1312,75
647,78	1247,21
647,97	1265,64
648,16	1294,32
648,35	1220,59
648,54	1253,36
648,73	1308,65
648,91	1292,27
649,10	1306,60
649,29	1290,22
649,48	1300,46
649,67	1320,94
649,86	1302,51
650,05	1259,50
650,23	1318,89
650,42	1210,35
650,61	1322,99
650,80	1222,64
650,99	1271,79
651,18	1284,08
651,36	1273,84
651,55	1247,21
651,74	1316,84
651,93	1253,36
652,12	1290,22
652,31	1214,45
652,49	1239,02
652,68	1349,61
652,87	1234,93
653,06	1265,64
653,25	1259,50
653,44	1294,32
653,62	1273,84
653,81	1318,89
654,00	1261,55
654,19	1236,97
654,38	1212,40
654,56	1259,50
654,75	1277,93
654,94	1234,93
655,13	1273,84
655,32	1206,25
655,51	1320,94
655,69	1241,07
655,88	1263,60
656,07	1263,60
656,26	1286,12
656,45	1271,79
656,63	1277,93
656,82	1214,45
657,01	1257,45
657,20	1271,79
657,38	1259,50
657,57	1325,04
657,76	1318,89
657,95	1265,64
658,14	1200,11
658,32	1273,84
658,51	1265,64
658,70	1298,41
658,89	1206,25
659,08	1290,22
659,26	1331,18
659,45	1236,97
659,64	1279,98
659,83	1292,27
660,01	1290,22
660,20	1380,33
660,39	1279,98
660,58	1230,83
660,76	1265,64
660,95	1232,88
661,14	1220,59
661,33	1255,40
661,51	1327,08
661,70	1228,78
661,89	1386,47
662,08	1224,69
662,26	1224,69
662,45	1304,56
662,64	1310,70
662,83	1290,22
663,01	1312,75
663,20	1292,27
663,39	1361,90
663,58	1234,93
663,76	1327,08
663,95	1286,12
664,14	1173,49
664,32	1314,80
664,51	1339,37
664,70	1320,94
664,89	1320,94
665,07	1288,17
665,26	1282,03
665,45	1269,74
665,64	1296,36
665,82	1257,45
666,01	1253,36
666,20	1241,07
666,38	1212,40
666,57	1232,88
666,76	1304,56
666,95	1292,27
667,13	1294,32
667,32	1208,30
667,51	1232,88
667,69	1271,79
667,88	1296,36
668,07	1241,07
668,25	1259,50
668,44	1302,51
668,63	1261,55
668,81	1241,07
669,00	1327,08
669,19	1189,87
669,38	1292,27
669,56	1347,56
669,75	1249,26
669,94	1212,40
670,12	1253,36
670,31	1200,11
670,50	1259,50
670,68	1224,69
670,87	1243,12
671,06	1226,73
671,24	1228,78
671,43	1220,59
671,62	1259,50
671,80	1251,31
671,99	1304,56
672,18	1249,26
672,36	1241,07
672,55	1212,40
672,74	1239,02
672,92	1243,12
673,11	1302,51
673,29	1198,06
673,48	1263,60
673,67	1298,41
673,85	1230,83
674,04	1318,89
674,23	1279,98
674,41	1241,07
674,60	1236,97
674,79	1288,17
674,97	1265,64
675,16	1234,93
675,34	1282,03
675,53	1279,98
675,72	1320,94
675,90	1236,97
676,09	1279,98
676,28	1239,02
676,46	1314,80
676,65	1306,60
676,83	1169,39
677,02	1331,18
677,21	1247,21
677,39	1282,03
677,58	1288,17
677,77	1275,88
677,95	1236,97
678,14	1320,94
678,32	1212,40
678,51	1257,45
678,70	1290,22
678,88	1273,84
679,07	1288,17
679,25	1275,88
679,44	1331,18
679,63	1236,97
679,81	1282,03
680,00	1212,40
680,18	1261,55
680,37	1294,32
680,55	1298,41
680,74	1286,12
680,93	1335,28
681,11	1230,83
681,30	1271,79
681,48	1308,65
681,67	1255,40
681,85	1263,60
682,04	1269,74
682,23	1210,35
682,41	1263,60
682,60	1331,18
682,78	1318,89
682,97	1300,46
683,15	1294,32
683,34	1220,59
683,53	1290,22
683,71	1279,98
683,90	1218,54
684,08	1320,94
684,27	1284,08
684,45	1271,79
684,64	1222,64
684,82	1269,74
685,01	1302,51
685,19	1273,84
685,38	1253,36
685,57	1200,11
685,75	1265,64
685,94	1298,41
686,12	1241,07
686,31	1290,22
686,49	1286,12
686,68	1263,60
686,86	1279,98
687,05	1273,84
687,23	1302,51
687,42	1339,37
687,60	1322,99
687,79	1306,60
687,97	1255,40
688,16	1247,21
688,34	1261,55
688,53	1218,54
688,71	1279,98
688,90	1302,51
689,08	1255,40
689,27	1251,31
689,45	1304,56
689,64	1239,02
689,82	1298,41
690,01	1269,74
690,19	1359,85
690,38	1284,08
690,56	1306,60
690,75	1206,25
690,93	1271,79
691,12	1212,40
691,30	1173,49
691,49	1265,64
691,67	1294,32
691,86	1290,22
692,04	1236,97
692,23	1304,56
692,41	1206,25
692,60	1245,16
692,78	1284,08
692,97	1212,40
693,15	1294,32
693,34	1253,36
693,52	1302,51
693,71	1259,50
693,89	1308,65
694,08	1222,64
694,26	1290,22
694,44	1257,45
694,63	1269,74
694,81	1284,08
695,00	1245,16
695,18	1171,44
695,37	1290,22
695,55	1314,80
695,74	1284,08
695,92	1241,07
696,10	1253,36
696,29	1206,25
696,47	1333,23
696,66	1261,55
696,84	1224,69
697,03	1212,40
697,21	1316,84
697,40	1347,56
697,58	1318,89
697,76	1290,22
697,95	1253,36
698,13	1314,80
698,32	1204,21
698,50	1331,18
698,68	1288,17
698,87	1292,27
699,05	1288,17
699,24	1269,74
699,42	1351,66
699,61	1212,40
699,79	1239,02
699,97	1249,26
700,16	1208,30
700,34	1298,41
700,53	1279,98
700,71	1302,51
700,89	1318,89
701,08	1286,12
701,26	1327,08
701,45	1279,98
701,63	1331,18
701,81	1261,55
702,00	1245,16
702,18	1241,07
702,37	1263,60
702,55	1273,84
702,73	1312,75
702,92	1236,97
703,10	1322,99
703,28	1277,93
703,47	1198,06
703,65	1226,73
703,84	1282,03
704,02	1370,09
704,20	1243,12
704,39	1200,11
704,57	1253,36
704,75	1308,65
704,94	1249,26
705,12	1247,21
705,30	1255,40
705,49	1269,74
705,67	1325,04
705,86	1288,17
706,04	1253,36
706,22	1212,40
706,41	1282,03
706,59	1241,07
706,77	1241,07
706,96	1265,64
707,14	1255,40
707,32	1279,98
707,51	1312,75
707,69	1261,55
707,87	1284,08
708,06	1275,88
708,24	1271,79
708,42	1218,54
708,61	1200,11
708,79	1271,79
708,97	1290,22
709,16	1243,12
709,34	1245,16
709,52	1306,60
709,71	1265,64
709,89	1265,64
710,07	1228,78
710,26	1271,79
710,44	1273,84
710,62	1220,59
710,80	1308,65
710,99	1247,21
711,17	1259,50
711,35	1253,36
711,54	1318,89
711,72	1282,03
711,90	1263,60
712,09	1284,08
712,27	1269,74
712,45	1292,27
712,63	1273,84
712,82	1265,64
713,00	1329,13
713,18	1269,74
713,37	1296,36
713,55	1210,35
713,73	1273,84
713,91	1226,73
714,10	1255,40
714,28	1263,60
714,46	1212,40
714,65	1234,93
714,83	1286,12
715,01	1273,84
715,19	1284,08
715,38	1298,41
715,56	1259,50
715,74	1282,03
715,92	1241,07
716,11	1234,93
716,29	1259,50
716,47	1210,35
716,65	1271,79
716,84	1294,32
717,02	1263,60
717,20	1200,11
717,38	1294,32
717,57	1234,93
717,75	1255,40
717,93	1236,97
718,11	1314,80
718,30	1263,60
718,48	1282,03
718,66	1310,70
718,84	1275,88
719,03	1208,30
719,21	1265,64
719,39	1228,78
719,57	1277,93
719,75	1208,30
719,94	1279,98
720,12	1187,82
720,30	1282,03
720,48	1273,84
720,67	1247,21
720,85	1273,84
721,03	1298,41
721,21	1210,35
721,39	1259,50
721,58	1251,31
721,76	1288,17
721,94	1249,26
722,12	1265,64
722,30	1236,97
722,49	1222,64
722,67	1282,03
722,85	1243,12
723,03	1294,32
723,21	1232,88
723,40	1249,26
723,58	1318,89
723,76	1277,93
723,94	1314,80
724,12	1269,74
724,30	1298,41
724,49	1255,40
724,67	1245,16
724,85	1210,35
725,03	1255,40
725,21	1286,12
725,40	1279,98
725,58	1327,08
725,76	1261,55
725,94	1294,32
726,12	1226,73
726,30	1267,69
726,49	1191,92
726,67	1257,45
726,85	1189,87
727,03	1243,12
727,21	1322,99
727,39	1290,22
727,57	1212,40
727,76	1277,93
727,94	1263,60
728,12	1247,21
728,30	1236,97
728,48	1300,46
728,66	1175,53
728,84	1232,88
729,03	1331,18
729,21	1228,78
729,39	1239,02
729,57	1343,47
729,75	1216,49
729,93	1269,74
730,11	1292,27
730,30	1249,26
730,48	1251,31
730,66	1245,16
730,84	1286,12
731,02	1255,40
731,20	1224,69
731,38	1263,60
731,56	1247,21
731,74	1239,02
731,93	1282,03
732,11	1304,56
732,29	1198,06
732,47	1343,47
732,65	1282,03
732,83	1239,02
733,01	1302,51
733,19	1257,45
733,37	1253,36
733,56	1150,96
733,74	1265,64
733,92	1171,44
734,10	1300,46
734,28	1322,99
734,46	1325,04
734,64	1275,88
734,82	1298,41
735,00	1245,16
735,18	1247,21
735,36	1277,93
735,54	1296,36
735,73	1202,16
735,91	1230,83
736,09	1234,93
736,27	1253,36
736,45	1320,94
736,63	1282,03
736,81	1255,40
736,99	1243,12
737,17	1302,51
737,35	1249,26
737,53	1294,32
737,71	1308,65
737,89	1273,84
738,07	1241,07
738,25	1206,25
738,43	1290,22
738,61	1218,54
738,80	1265,64
738,98	1150,96
739,16	1282,03
739,34	1304,56
739,52	1249,26
739,70	1257,45
739,88	1208,30
740,06	1253,36
740,24	1306,60
740,42	1312,75
740,60	1273,84
740,78	1251,31
740,96	1247,21
741,14	1279,98
741,32	1255,40
741,50	1343,47
741,68	1312,75
741,86	1294,32
742,04	1232,88
742,22	1241,07
742,40	1294,32
742,58	1343,47
742,76	1310,70
742,94	1284,08
743,12	1247,21
743,30	1263,60
743,48	1312,75
743,66	1265,64
743,84	1282,03
744,02	1302,51
744,20	1214,45
744,38	1251,31
744,56	1239,02
744,74	1331,18
744,92	1318,89
745,10	1247,21
745,28	1241,07
745,46	1292,27
745,64	1232,88
745,82	1241,07
746,00	1275,88
746,18	1245,16
746,36	1249,26
746,54	1245,16
746,72	1265,64
746,90	1277,93
747,08	1261,55
747,26	1271,79
747,44	1300,46
747,62	1275,88
747,80	1271,79
747,98	1290,22
748,15	1228,78
748,33	1294,32
748,51	1286,12
748,69	1282,03
748,87	1320,94
749,05	1263,60
749,23	1275,88
749,41	1234,93
749,59	1306,60
749,77	1275,88
749,95	1241,07
750,13	1284,08
750,31	1273,84
750,49	1304,56
750,67	1359,85
750,85	1241,07
751,03	1222,64
751,20	1267,69
751,38	1279,98
751,56	1243,12
751,74	1208,30
751,92	1226,73
752,10	1224,69
752,28	1282,03
752,46	1222,64
752,64	1243,12
752,82	1290,22
753,00	1277,93
753,18	1234,93
753,35	1177,58
753,53	1284,08
753,71	1245,16
753,89	1302,51
754,07	1183,73
754,25	1282,03
754,43	1304,56
754,61	1212,40
754,79	1284,08
754,97	1316,84
755,14	1290,22
755,32	1255,40
755,50	1261,55
755,68	1296,36
755,86	1243,12
756,04	1257,45
756,22	1257,45
756,40	1300,46
756,57	1316,84
756,75	1269,74
756,93	1316,84
757,11	1308,65
757,29	1265,64
757,47	1292,27
757,65	1275,88
757,82	1271,79
758,00	1263,60
758,18	1273,84
758,36	1290,22
758,54	1343,47
758,72	1288,17
758,90	1222,64
759,07	1253,36
759,25	1230,83
759,43	1208,30
759,61	1271,79
759,79	1312,75
759,97	1275,88
760,15	1269,74
760,32	1200,11
760,50	1331,18
760,68	1286,12
760,86	1245,16
761,04	1288,17
761,22	1257,45
761,39	1220,59
761,57	1189,87
761,75	1263,60
761,93	1249,26
762,11	1222,64
762,28	1267,69
762,46	1214,45
762,64	1236,97
762,82	1175,53
763,00	1228,78
763,18	1208,30
763,35	1216,49
763,53	1273,84
763,71	1200,11
763,89	1298,41
764,07	1173,49
764,24	1249,26
764,42	1241,07
764,60	1218,54
764,78	1277,93
764,96	1259,50
765,13	1220,59
765,31	1241,07
765,49	1220,59
765,67	1304,56
765,84	1261,55
766,02	1269,74
766,20	1239,02
766,38	1218,54
766,56	1275,88
766,73	1279,98
766,91	1298,41
767,09	1302,51
767,27	1275,88
767,44	1247,21
767,62	1206,25
767,80	1298,41
767,98	1302,51
768,15	1298,41
768,33	1200,11
768,51	1282,03
768,69	1222,64
768,87	1277,93
769,04	1230,83
769,22	1228,78
769,40	1249,26
769,58	1255,40
769,75	1232,88
769,93	1257,45
770,11	1241,07
770,28	1302,51
770,46	1284,08
770,64	1253,36
770,82	1198,06
770,99	1277,93
771,17	1198,06
771,35	1259,50
771,53	1339,37
771,70	1245,16
771,88	1290,22
772,06	1204,21
772,23	1204,21
772,41	1247,21
772,59	1290,22
772,77	1341,42
772,94	1273,84
773,12	1232,88
773,30	1255,40
773,47	1310,70
773,65	1257,45
773,83	1345,52
774,01	1265,64
774,18	1298,41
774,36	1234,93
774,54	1294,32
774,71	1306,60
774,89	1255,40
775,07	1245,16
775,24	1312,75
775,42	1232,88
775,60	1253,36
775,78	1247,21
775,95	1265,64
776,13	1228,78
776,31	1273,84
776,48	1314,80
776,66	1296,36
776,84	1279,98
777,01	1310,70
777,19	1226,73
777,37	1263,60
777,54	1216,49
777,72	1251,31
777,90	1259,50
778,07	1271,79
778,25	1239,02
778,43	1282,03
778,60	1191,92
778,78	1193,97
778,96	1286,12
779,13	1267,69
779,31	1210,35
779,49	1208,30
779,66	1255,40
779,84	1228,78
780,01	1261,55
780,19	1296,36
780,37	1298,41
780,54	1216,49
780,72	1212,40
780,90	1236,97
781,07	1220,59
781,25	1214,45
781,43	1259,50
781,60	1247,21
781,78	1349,61
781,95	1335,28
782,13	1261,55
782,31	1296,36
782,48	1314,80
782,66	1282,03
782,83	1288,17
783,01	1255,40
783,19	1314,80
783,36	1261,55
783,54	1255,40
783,72	1292,27
783,89	1337,32
784,07	1275,88
784,24	1314,80
784,42	1302,51
784,60	1257,45
784,77	1347,56
784,95	1261,55
785,12	1314,80
785,30	1247,21
785,47	1257,45
785,65	1261,55
785,83	1226,73
786,00	1165,29
786,18	1253,36
786,35	1335,28
786,53	1306,60
786,71	1247,21
786,88	1290,22
787,06	1218,54
787,23	1257,45
787,41	1316,84
787,58	1286,12
787,76	1241,07
787,94	1214,45
788,11	1314,80
788,29	1282,03
788,46	1222,64
788,64	1179,63
788,81	1224,69
788,99	1275,88
789,16	1275,88
789,34	1249,26
789,52	1243,12
789,69	1298,41
789,87	1247,21
790,04	1306,60
790,22	1261,55
790,39	1292,27
790,57	1212,40
790,74	1339,37
790,92	1269,74
791,09	1327,08
791,27	1259,50
791,44	1279,98
791,62	1322,99
791,79	1245,16
791,97	1304,56
792,15	1292,27
792,32	1218,54
792,50	1247,21
792,67	1243,12
792,85	1247,21
793,02	1185,77
793,20	1282,03
793,37	1236,97
793,55	1239,02
793,72	1210,35
793,90	1214,45
794,07	1290,22
794,25	1343,47
794,42	1329,13
794,60	1216,49
794,77	1296,36
794,95	1247,21
795,12	1284,08
795,30	1290,22
795,47	1241,07
795,65	1226,73
795,82	1204,21
796,00	1255,40
796,17	1302,51
796,34	1216,49
796,52	1288,17
796,69	1257,45
796,87	1261,55
797,04	1306,60
797,22	1228,78
797,39	1271,79
797,57	1277,93
797,74	1230,83
797,92	1206,25
798,09	1259,50
798,27	1275,88
798,44	1304,56
798,62	1210,35
798,79	1282,03
798,96	1251,31
799,14	1257,45
799,31	1271,79
799,49	1263,60
799,66	1241,07
799,84	1271,79
800,01	1275,88
800,19	1300,46
800,36	1279,98
800,53	1216,49
800,71	1228,78
800,88	1247,21
801,06	1265,64
801,23	1298,41
801,41	1271,79
801,58	1257,45
801,75	1269,74
801,93	1296,36
802,10	1271,79
802,28	1339,37
802,45	1316,84
802,63	1279,98
802,80	1279,98
802,97	1187,82
803,15	1261,55
803,32	1216,49
803,50	1271,79
803,67	1259,50
803,84	1234,93
804,02	1279,98
804,19	1265,64
804,37	1298,41
804,54	1320,94
804,71	1245,16
804,89	1163,25
805,06	1239,02
805,24	1204,21
805,41	1275,88
805,58	1189,87
805,76	1302,51
805,93	1286,12
806,10	1261,55
806,28	1232,88
806,45	1234,93
806,63	1306,60
806,80	1253,36
806,97	1230,83
807,15	1202,16
807,32	1310,70
807,49	1234,93
807,67	1202,16
807,84	1214,45
808,01	1296,36
808,19	1196,01
808,36	1249,26
808,54	1279,98
808,71	1236,97
808,88	1277,93
809,06	1322,99
809,23	1316,84
809,40	1322,99
809,58	1314,80
809,75	1263,60
809,92	1220,59
810,10	1292,27
810,27	1210,35
810,44	1290,22
810,62	1312,75
810,79	1247,21
810,96	1267,69
811,14	1212,40
811,31	1273,84
811,48	1144,81
811,66	1220,59
811,83	1265,64
812,00	1310,70
812,18	1243,12
812,35	1345,52
812,52	1292,27
812,69	1343,47
812,87	1284,08
813,04	1241,07
813,21	1234,93
813,39	1236,97
813,56	1255,40
813,73	1300,46
813,91	1271,79
814,08	1302,51
814,25	1294,32
814,42	1243,12
814,60	1306,60
814,77	1279,98
814,94	1204,21
815,12	1263,60
815,29	1239,02
815,46	1263,60
815,63	1322,99
815,81	1288,17
815,98	1286,12
816,15	1298,41
816,33	1306,60
816,50	1320,94
816,67	1273,84
816,84	1249,26
817,02	1269,74
817,19	1193,97
817,36	1279,98
817,53	1294,32
817,71	1206,25
817,88	1269,74
818,05	1302,51
818,22	1335,28
818,40	1253,36
818,57	1273,84
818,74	1220,59
818,91	1306,60
819,09	1318,89
819,26	1222,64
819,43	1277,93
819,60	1214,45
819,78	1206,25
819,95	1300,46
820,12	1216,49
820,29	1224,69
820,47	1247,21
820,64	1212,40
820,81	1345,52
820,98	1282,03
821,15	1304,56
821,33	1216,49
821,50	1198,06
821,67	1224,69
821,84	1296,36
822,02	1241,07
822,19	1325,04
822,36	1241,07
822,53	1298,41
822,70	1282,03
822,88	1294,32
823,05	1279,98
823,22	1347,56
823,39	1230,83
823,56	1261,55
823,74	1267,69
823,91	1198,06
824,08	1294,32
824,25	1322,99
824,42	1200,11
824,60	1241,07
824,77	1198,06
824,94	1271,79
825,11	1267,69
825,28	1310,70
825,45	1243,12
825,63	1312,75
825,80	1290,22
825,97	1331,18
826,14	1251,31
826,31	1202,16
826,48	1228,78
826,66	1243,12
826,83	1249,26
827,00	1255,40
827,17	1302,51
827,34	1253,36
827,51	1253,36
827,69	1261,55
827,86	1245,16
828,03	1273,84
828,20	1277,93
828,37	1302,51
828,54	1273,84
828,71	1279,98
828,89	1376,24
829,06	1318,89
829,23	1288,17
829,40	1310,70
829,57	1245,16
829,74	1234,93
829,91	1339,37
830,09	1312,75
830,26	1347,56
830,43	1249,26
830,60	1306,60
830,77	1257,45
830,94	1222,64
831,11	1257,45
831,28	1273,84
831,46	1208,30
831,63	1279,98
831,80	1306,60
831,97	1224,69
832,14	1288,17
832,31	1253,36
832,48	1234,93
832,65	1245,16
832,82	1185,77
832,99	1357,80
833,17	1255,40
833,34	1320,94
833,51	1308,65
833,68	1279,98
833,85	1255,40
834,02	1259,50
834,19	1337,32
834,36	1302,51
834,53	1312,75
834,70	1288,17
834,87	1271,79
835,04	1210,35
835,22	1302,51
835,39	1263,60
835,56	1282,03
835,73	1208,30
835,90	1320,94
836,07	1257,45
836,24	1206,25
836,41	1245,16
836,58	1271,79
836,75	1290,22
836,92	1249,26
837,09	1265,64
837,26	1273,84
837,43	1228,78
837,60	1298,41
837,77	1279,98
837,94	1269,74
838,12	1298,41
838,29	1273,84
838,46	1261,55
838,63	1290,22
838,80	1253,36
838,97	1212,40
839,14	1232,88
839,31	1298,41
839,48	1220,59
839,65	1292,27
839,82	1302,51
839,99	1263,60
840,16	1271,79
840,33	1255,40
840,50	1204,21
840,67	1210,35
840,84	1230,83
841,01	1253,36
841,18	1239,02
841,35	1253,36
841,52	1312,75
841,69	1257,45
841,86	1265,64
842,03	1282,03
842,20	1269,74
842,37	1275,88
842,54	1279,98
842,71	1204,21
842,88	1259,50
843,05	1312,75
843,22	1269,74
843,39	1277,93
843,56	1198,06
843,73	1171,44
843,90	1292,27
844,07	1310,70
844,24	1300,46
844,41	1224,69
844,58	1331,18
844,75	1269,74
844,92	1245,16
845,09	1247,21
845,26	1265,64
845,43	1261,55
845,60	1296,36
845,77	1263,60
845,94	1302,51
846,10	1239,02
846,27	1263,60
846,44	1247,21
846,61	1282,03
846,78	1279,98
846,95	1318,89
847,12	1296,36
847,29	1257,45
847,46	1253,36
847,63	1255,40
847,80	1214,45
847,97	1310,70
848,14	1259,50
848,31	1249,26
848,48	1310,70
848,65	1273,84
848,82	1245,16
848,98	1255,40
849,15	1234,93
849,32	1308,65
849,49	1312,75
849,66	1232,88
849,83	1245,16
850,00	1239,02
850,17	1263,60
850,34	1265,64
850,51	1245,16
850,68	1269,74
850,85	1310,70
851,01	1263,60
851,18	1284,08
851,35	1304,56
851,52	1253,36
851,69	1351,66
851,86	1312,75
852,03	1275,88
852,20	1286,12
852,37	1279,98
852,53	1273,84
852,70	1271,79
852,87	1269,74
853,04	1255,40
853,21	1253,36
853,38	1275,88
853,55	1220,59
853,72	1290,22
853,89	1322,99
854,05	1232,88
854,22	1275,88
854,39	1331,18
854,56	1290,22
854,73	1267,69
854,90	1269,74
855,07	1193,97
855,23	1304,56
855,40	1214,45
855,57	1216,49
855,74	1255,40
855,91	1273,84
856,08	1304,56
856,25	1232,88
856,41	1368,04
856,58	1294,32
856,75	1304,56
856,92	1255,40
857,09	1200,11
857,26	1261,55
857,42	1320,94
857,59	1273,84
857,76	1257,45
857,93	1222,64
858,10	1267,69
858,27	1243,12
858,43	1267,69
858,60	1218,54
858,77	1196,01
858,94	1234,93
859,11	1224,69
859,27	1335,28
859,44	1282,03
859,61	1318,89
859,78	1257,45
859,95	1148,91
860,12	1243,12
860,28	1331,18
860,45	1210,35
860,62	1236,97
860,79	1269,74
860,95	1306,60
861,12	1325,04
861,29	1312,75
861,46	1296,36
861,63	1271,79
861,79	1312,75
861,96	1191,92
862,13	1312,75
862,30	1226,73
862,47	1294,32
862,63	1263,60
862,80	1302,51
862,97	1259,50
863,14	1263,60
863,30	1251,31
863,47	1277,93
863,64	1290,22
863,81	1292,27
863,97	1220,59
864,14	1277,93
864,31	1300,46
864,48	1206,25
864,65	1239,02
864,81	1275,88
864,98	1282,03
865,15	1288,17
865,32	1241,07
865,48	1304,56
865,65	1232,88
865,82	1267,69
865,98	1286,12
866,15	1277,93
866,32	1271,79
866,49	1310,70
866,65	1290,22
866,82	1257,45
866,99	1245,16
867,16	1230,83
867,32	1239,02
867,49	1253,36
867,66	1251,31
867,83	1269,74
867,99	1345,52
868,16	1275,88
868,33	1257,45
868,49	1296,36
868,66	1337,32
868,83	1232,88
868,99	1245,16
869,16	1249,26
869,33	1304,56
869,50	1263,60
869,66	1273,84
869,83	1273,84
870,00	1343,47
870,16	1290,22
870,33	1275,88
870,50	1239,02
870,66	1216,49
870,83	1300,46
871,00	1210,35
871,17	1239,02
871,33	1269,74
871,50	1271,79
871,67	1288,17
871,83	1187,82
872,00	1310,70
872,17	1288,17
872,33	1189,87
872,50	1322,99
872,67	1273,84
872,83	1282,03
873,00	1277,93
873,17	1314,80
873,33	1236,97
873,50	1310,70
873,67	1236,97
873,83	1226,73
874,00	1361,90
874,16	1261,55
874,33	1185,77
874,50	1247,21
874,66	1198,06
874,83	1249,26
875,00	1210,35
875,16	1265,64
875,33	1310,70
875,50	1263,60
875,66	1329,13
875,83	1288,17
875,99	1228,78
876,16	1304,56
876,33	1261,55
876,49	1331,18
876,66	1300,46
876,83	1310,70
876,99	1232,88
877,16	1267,69
877,32	1253,36
877,49	1251,31
877,66	1308,65
877,82	1224,69
877,99	1241,07
878,15	1288,17
878,32	1296,36
878,49	1214,45
878,65	1343,47
878,82	1200,11
878,98	1282,03
879,15	1183,73
879,32	1243,12
879,48	1277,93
879,65	1234,93
879,81	1255,40
879,98	1239,02
880,15	1267,69
880,31	1271,79
880,48	1284,08
880,64	1288,17
880,81	1204,21
880,97	1257,45
881,14	1296,36
881,31	1263,60
881,47	1316,84
881,64	1150,96
881,80	1247,21
881,97	1230,83
882,13	1318,89
882,30	1251,31
882,47	1224,69
882,63	1241,07
882,80	1279,98
882,96	1265,64
883,13	1279,98
883,29	1310,70
883,46	1345,52
883,62	1339,37
883,79	1206,25
883,95	1257,45
884,12	1286,12
884,29	1230,83
884,45	1255,40
884,62	1318,89
884,78	1216,49
884,95	1310,70
885,11	1255,40
885,28	1275,88
885,44	1263,60
885,61	1224,69
885,77	1234,93
885,94	1241,07
886,10	1208,30
886,27	1259,50
886,43	1261,55
886,60	1249,26
886,76	1292,27
886,93	1304,56
887,09	1263,60
887,26	1263,60
887,42	1226,73
887,59	1245,16
887,75	1265,64
887,92	1236,97
888,08	1327,08
888,25	1239,02
888,41	1306,60
888,58	1249,26
888,74	1290,22
888,91	1193,97
>>>>>End Processed Spectral Data<<<<<
