SpectraSuite Data File
++++++++++++++++++++++++++++++++++++
Date: Sun Apr 03 19:55:44 CEST 2016
User: root
Dark Spectrum Present: No
Reference Spectrum Present: No
Number of Sampled Component Spectra: 1
Spectrometers: USB4C02835
Integration Time (usec): 10000 (USB4C02835)
Spectra Averaged: 1 (USB4C02835)
Boxcar Smoothing: 0 (USB4C02835)
Correct for Electrical Dark: No (USB4C02835)
Strobe/Lamp Enabled: No (USB4C02835)
Correct for Detector Non-linearity: No (USB4C02835)
Correct for Stray Light: No (USB4C02835)
Number of Pixels in Processed Spectrum: 3648
>>>>>Begin Processed Spectral Data<<<<<
177,47	1269,74
177,69	1269,74
177,91	1269,74
178,13	1282,03
178,36	1282,03
178,58	1177,58
178,80	1230,83
179,02	1284,08
179,24	1247,21
179,46	1273,84
179,68	1288,17
179,90	1282,03
180,13	1259,50
180,35	1232,88
180,57	1271,79
180,79	1241,07
181,01	1247,21
181,23	1193,97
181,45	1271,79
181,67	1267,69
181,90	1267,69
182,12	1306,60
182,34	1241,07
182,56	1310,70
182,78	1222,64
183,00	1259,50
183,22	1296,36
183,44	1257,45
183,66	1282,03
183,89	1269,74
184,11	1284,08
184,33	1298,41
184,55	1251,31
184,77	1288,17
184,99	1292,27
185,21	1257,45
185,43	1247,21
185,65	1267,69
185,87	1226,73
186,10	1320,94
186,32	1341,42
186,54	1310,70
186,76	1210,35
186,98	1196,01
187,20	1271,79
187,42	1230,83
187,64	1269,74
187,86	1277,93
188,08	1245,16
188,30	1251,31
188,52	1220,59
188,75	1306,60
188,97	1320,94
189,19	1232,88
189,41	1304,56
189,63	1320,94
189,85	1251,31
190,07	1292,27
190,29	1253,36
190,51	1286,12
190,73	1251,31
190,95	1234,93
191,17	1196,01
191,39	1210,35
191,61	1239,02
191,84	1230,83
192,06	1378,28
192,28	1282,03
192,50	1161,20
192,72	1236,97
192,94	1259,50
193,16	1288,17
193,38	1234,93
193,60	1228,78
193,82	1261,55
194,04	1296,36
194,26	1226,73
194,48	1318,89
194,70	1271,79
194,92	1253,36
195,14	1308,65
195,36	1279,98
195,58	1308,65
195,80	1216,49
196,02	1243,12
196,24	1277,93
196,46	1339,37
196,69	1210,35
196,91	1306,60
197,13	1292,27
197,35	1263,60
197,57	1228,78
197,79	1269,74
198,01	1284,08
198,23	1290,22
198,45	1261,55
198,67	1222,64
198,89	1290,22
199,11	1282,03
199,33	1271,79
199,55	1284,08
199,77	1249,26
199,99	1277,93
200,21	1191,92
200,43	1314,80
200,65	1310,70
200,87	1226,73
201,09	1236,97
201,31	1304,56
201,53	1322,99
201,75	1325,04
201,97	1273,84
202,19	1247,21
202,41	1257,45
202,63	1236,97
202,85	1306,60
203,07	1234,93
203,29	1261,55
203,51	1300,46
203,73	1249,26
203,95	1275,88
204,17	1196,01
204,39	1247,21
204,61	1251,31
204,83	1269,74
205,05	1271,79
205,27	1239,02
205,49	1200,11
205,71	1300,46
205,93	1304,56
206,15	1167,34
206,37	1277,93
206,59	1236,97
206,81	1253,36
207,03	1271,79
207,25	1347,56
207,47	1325,04
207,69	1161,20
207,91	1267,69
208,13	1302,51
208,34	1257,45
208,56	1230,83
208,78	1273,84
209,00	1325,04
209,22	1257,45
209,44	1277,93
209,66	1302,51
209,88	1257,45
210,10	1331,18
210,32	1232,88
210,54	1329,13
210,76	1230,83
210,98	1269,74
211,20	1282,03
211,42	1306,60
211,64	1316,84
211,86	1232,88
212,08	1226,73
212,30	1290,22
212,52	1271,79
212,74	1273,84
212,96	1277,93
213,17	1239,02
213,39	1284,08
213,61	1304,56
213,83	1298,41
214,05	1306,60
214,27	1228,78
214,49	1228,78
214,71	1185,77
214,93	1257,45
215,15	1243,12
215,37	1204,21
215,59	1261,55
215,81	1296,36
216,03	1282,03
216,24	1189,87
216,46	1275,88
216,68	1255,40
216,90	1212,40
217,12	1251,31
217,34	1327,08
217,56	1282,03
217,78	1265,64
218,00	1300,46
218,22	1193,97
218,44	1320,94
218,66	1290,22
218,87	1314,80
219,09	1325,04
219,31	1249,26
219,53	1247,21
219,75	1230,83
219,97	1271,79
220,19	1300,46
220,41	1247,21
220,63	1273,84
220,85	1257,45
221,06	1320,94
221,28	1257,45
221,50	1241,07
221,72	1247,21
221,94	1245,16
222,16	1224,69
222,38	1306,60
222,60	1308,65
222,82	1208,30
223,03	1196,01
223,25	1372,14
223,47	1216,49
223,69	1312,75
223,91	1236,97
224,13	1259,50
224,35	1296,36
224,57	1150,96
224,78	1277,93
225,00	1335,28
225,22	1230,83
225,44	1294,32
225,66	1198,06
225,88	1249,26
226,10	1294,32
226,32	1251,31
226,53	1234,93
226,75	1255,40
226,97	1290,22
227,19	1298,41
227,41	1210,35
227,63	1286,12
227,85	1206,25
228,06	1273,84
228,28	1267,69
228,50	1282,03
228,72	1310,70
228,94	1290,22
229,16	1298,41
229,37	1232,88
229,59	1380,33
229,81	1265,64
230,03	1337,32
230,25	1247,21
230,47	1232,88
230,69	1224,69
230,90	1263,60
231,12	1284,08
231,34	1275,88
231,56	1292,27
231,78	1236,97
232,00	1204,21
232,21	1284,08
232,43	1255,40
232,65	1316,84
232,87	1331,18
233,09	1218,54
233,30	1189,87
233,52	1333,23
233,74	1269,74
233,96	1243,12
234,18	1245,16
234,40	1359,85
234,61	1345,52
234,83	1234,93
235,05	1331,18
235,27	1300,46
235,49	1304,56
235,70	1245,16
235,92	1337,32
236,14	1206,25
236,36	1255,40
236,58	1243,12
236,79	1243,12
237,01	1198,06
237,23	1230,83
237,45	1273,84
237,67	1249,26
237,88	1259,50
238,10	1218,54
238,32	1255,40
238,54	1306,60
238,76	1265,64
238,97	1224,69
239,19	1198,06
239,41	1304,56
239,63	1259,50
239,85	1232,88
240,06	1249,26
240,28	1224,69
240,50	1187,82
240,72	1255,40
240,93	1245,16
241,15	1353,71
241,37	1273,84
241,59	1232,88
241,81	1243,12
242,02	1290,22
242,24	1251,31
242,46	1239,02
242,68	1279,98
242,89	1208,30
243,11	1234,93
243,33	1222,64
243,55	1304,56
243,76	1265,64
243,98	1269,74
244,20	1243,12
244,42	1286,12
244,64	1249,26
244,85	1304,56
245,07	1269,74
245,29	1234,93
245,51	1292,27
245,72	1316,84
245,94	1208,30
246,16	1206,25
246,38	1304,56
246,59	1325,04
246,81	1351,66
247,03	1206,25
247,24	1292,27
247,46	1292,27
247,68	1279,98
247,90	1341,42
248,11	1241,07
248,33	1302,51
248,55	1200,11
248,77	1253,36
248,98	1273,84
249,20	1282,03
249,42	1175,53
249,64	1243,12
249,85	1282,03
250,07	1226,73
250,29	1259,50
250,50	1273,84
250,72	1318,89
250,94	1267,69
251,16	1302,51
251,37	1288,17
251,59	1222,64
251,81	1243,12
252,02	1296,36
252,24	1302,51
252,46	1243,12
252,68	1306,60
252,89	1290,22
253,11	1249,26
253,33	1247,21
253,54	1247,21
253,76	1245,16
253,98	1261,55
254,20	1333,23
254,41	1277,93
254,63	1296,36
254,85	1261,55
255,06	1261,55
255,28	1212,40
255,50	1267,69
255,71	1228,78
255,93	1290,22
256,15	1294,32
256,36	1331,18
256,58	1298,41
256,80	1273,84
257,02	1232,88
257,23	1234,93
257,45	1198,06
257,67	1271,79
257,88	1218,54
258,10	1243,12
258,32	1200,11
258,53	1271,79
258,75	1230,83
258,97	1261,55
259,18	1273,84
259,40	1282,03
259,62	1214,45
259,83	1224,69
260,05	1271,79
260,27	1302,51
260,48	1243,12
260,70	1306,60
260,92	1284,08
261,13	1218,54
261,35	1263,60
261,57	1300,46
261,78	1218,54
262,00	1296,36
262,22	1255,40
262,43	1273,84
262,65	1277,93
262,86	1239,02
263,08	1253,36
263,30	1216,49
263,51	1269,74
263,73	1265,64
263,95	1239,02
264,16	1257,45
264,38	1185,77
264,60	1325,04
264,81	1257,45
265,03	1306,60
265,25	1273,84
265,46	1316,84
265,68	1277,93
265,89	1282,03
266,11	1189,87
266,33	1265,64
266,54	1208,30
266,76	1273,84
266,98	1236,97
267,19	1374,19
267,41	1271,79
267,62	1290,22
267,84	1222,64
268,06	1226,73
268,27	1245,16
268,49	1245,16
268,70	1236,97
268,92	1292,27
269,14	1271,79
269,35	1267,69
269,57	1263,60
269,79	1316,84
270,00	1337,32
270,22	1259,50
270,43	1214,45
270,65	1228,78
270,87	1351,66
271,08	1282,03
271,30	1288,17
271,51	1206,25
271,73	1232,88
271,95	1284,08
272,16	1314,80
272,38	1302,51
272,59	1222,64
272,81	1300,46
273,02	1312,75
273,24	1232,88
273,46	1318,89
273,67	1296,36
273,89	1292,27
274,10	1241,07
274,32	1222,64
274,54	1253,36
274,75	1318,89
274,97	1204,21
275,18	1288,17
275,40	1239,02
275,61	1306,60
275,83	1277,93
276,05	1253,36
276,26	1249,26
276,48	1216,49
276,69	1261,55
276,91	1232,88
277,12	1257,45
277,34	1286,12
277,55	1251,31
277,77	1298,41
277,99	1220,59
278,20	1251,31
278,42	1263,60
278,63	1279,98
278,85	1269,74
279,06	1255,40
279,28	1218,54
279,49	1300,46
279,71	1294,32
279,93	1275,88
280,14	1382,38
280,36	1230,83
280,57	1292,27
280,79	1296,36
281,00	1296,36
281,22	1241,07
281,43	1279,98
281,65	1232,88
281,86	1290,22
282,08	1318,89
282,29	1214,45
282,51	1288,17
282,73	1224,69
282,94	1232,88
283,16	1339,37
283,37	1269,74
283,59	1275,88
283,80	1239,02
284,02	1275,88
284,23	1243,12
284,45	1212,40
284,66	1247,21
284,88	1353,71
285,09	1232,88
285,31	1241,07
285,52	1259,50
285,74	1331,18
285,95	1230,83
286,17	1267,69
286,38	1265,64
286,60	1255,40
286,81	1286,12
287,03	1263,60
287,24	1249,26
287,46	1218,54
287,67	1290,22
287,89	1288,17
288,10	1257,45
288,32	1265,64
288,53	1318,89
288,75	1331,18
288,96	1226,73
289,18	1259,50
289,39	1208,30
289,61	1308,65
289,82	1218,54
290,04	1257,45
290,25	1273,84
290,47	1273,84
290,68	1261,55
290,90	1271,79
291,11	1290,22
291,33	1269,74
291,54	1212,40
291,76	1327,08
291,97	1267,69
292,18	1327,08
292,40	1263,60
292,61	1216,49
292,83	1312,75
293,04	1320,94
293,26	1300,46
293,47	1273,84
293,69	1251,31
293,90	1331,18
294,12	1269,74
294,33	1302,51
294,55	1277,93
294,76	1263,60
294,97	1216,49
295,19	1304,56
295,40	1193,97
295,62	1236,97
295,83	1259,50
296,05	1263,60
296,26	1302,51
296,48	1222,64
296,69	1310,70
296,90	1279,98
297,12	1181,68
297,33	1294,32
297,55	1349,61
297,76	1255,40
297,98	1269,74
298,19	1173,49
298,41	1249,26
298,62	1224,69
298,83	1312,75
299,05	1271,79
299,26	1298,41
299,48	1259,50
299,69	1279,98
299,90	1320,94
300,12	1232,88
300,33	1296,36
300,55	1232,88
300,76	1314,80
300,98	1269,74
301,19	1318,89
301,40	1257,45
301,62	1314,80
301,83	1277,93
302,05	1253,36
302,26	1327,08
302,47	1339,37
302,69	1257,45
302,90	1261,55
303,12	1318,89
303,33	1208,30
303,54	1292,27
303,76	1329,13
303,97	1282,03
304,19	1249,26
304,40	1259,50
304,61	1308,65
304,83	1390,57
305,04	1325,04
305,26	1314,80
305,47	1253,36
305,68	1224,69
305,90	1288,17
306,11	1230,83
306,33	1263,60
306,54	1265,64
306,75	1308,65
306,97	1187,82
307,18	1214,45
307,39	1304,56
307,61	1279,98
307,82	1300,46
308,04	1265,64
308,25	1234,93
308,46	1327,08
308,68	1292,27
308,89	1224,69
309,10	1198,06
309,32	1214,45
309,53	1271,79
309,74	1259,50
309,96	1288,17
310,17	1331,18
310,39	1257,45
310,60	1279,98
310,81	1304,56
311,03	1312,75
311,24	1318,89
311,45	1366,00
311,67	1327,08
311,88	1249,26
312,09	1230,83
312,31	1298,41
312,52	1239,02
312,73	1277,93
312,95	1316,84
313,16	1269,74
313,37	1316,84
313,59	1239,02
313,80	1286,12
314,01	1198,06
314,23	1273,84
314,44	1284,08
314,65	1304,56
314,87	1279,98
315,08	1314,80
315,29	1292,27
315,51	1312,75
315,72	1257,45
315,93	1302,51
316,15	1288,17
316,36	1275,88
316,57	1232,88
316,79	1343,47
317,00	1300,46
317,21	1277,93
317,43	1273,84
317,64	1265,64
317,85	1239,02
318,07	1204,21
318,28	1261,55
318,49	1247,21
318,70	1292,27
318,92	1259,50
319,13	1304,56
319,34	1288,17
319,56	1257,45
319,77	1243,12
319,98	1282,03
320,20	1232,88
320,41	1314,80
320,62	1224,69
320,83	1279,98
321,05	1265,64
321,26	1249,26
321,47	1298,41
321,69	1279,98
321,90	1277,93
322,11	1257,45
322,32	1296,36
322,54	1363,95
322,75	1210,35
322,96	1376,24
323,18	1232,88
323,39	1325,04
323,60	1224,69
323,81	1308,65
324,03	1214,45
324,24	1263,60
324,45	1335,28
324,66	1236,97
324,88	1232,88
325,09	1282,03
325,30	1265,64
325,52	1292,27
325,73	1253,36
325,94	1275,88
326,15	1249,26
326,37	1363,95
326,58	1294,32
326,79	1306,60
327,00	1257,45
327,22	1275,88
327,43	1322,99
327,64	1230,83
327,85	1241,07
328,07	1314,80
328,28	1382,38
328,49	1234,93
328,70	1284,08
328,92	1257,45
329,13	1269,74
329,34	1284,08
329,55	1286,12
329,76	1290,22
329,98	1263,60
330,19	1253,36
330,40	1290,22
330,61	1224,69
330,83	1202,16
331,04	1200,11
331,25	1294,32
331,46	1284,08
331,68	1224,69
331,89	1273,84
332,10	1290,22
332,31	1259,50
332,52	1224,69
332,74	1310,70
332,95	1216,49
333,16	1263,60
333,37	1300,46
333,58	1296,36
333,80	1267,69
334,01	1339,37
334,22	1224,69
334,43	1230,83
334,64	1279,98
334,86	1193,97
335,07	1179,63
335,28	1259,50
335,49	1236,97
335,70	1222,64
335,92	1259,50
336,13	1294,32
336,34	1271,79
336,55	1265,64
336,76	1212,40
336,98	1273,84
337,19	1310,70
337,40	1292,27
337,61	1308,65
337,82	1304,56
338,04	1257,45
338,25	1265,64
338,46	1290,22
338,67	1232,88
338,88	1234,93
339,09	1279,98
339,31	1277,93
339,52	1255,40
339,73	1290,22
339,94	1284,08
340,15	1279,98
340,36	1308,65
340,58	1245,16
340,79	1277,93
341,00	1210,35
341,21	1292,27
341,42	1284,08
341,63	1282,03
341,85	1310,70
342,06	1269,74
342,27	1185,77
342,48	1232,88
342,69	1267,69
342,90	1310,70
343,12	1279,98
343,33	1193,97
343,54	1271,79
343,75	1257,45
343,96	1212,40
344,17	1257,45
344,38	1271,79
344,60	1239,02
344,81	1329,13
345,02	1273,84
345,23	1298,41
345,44	1349,61
345,65	1271,79
345,86	1290,22
346,07	1294,32
346,29	1271,79
346,50	1318,89
346,71	1212,40
346,92	1331,18
347,13	1290,22
347,34	1259,50
347,55	1282,03
347,76	1232,88
347,98	1243,12
348,19	1308,65
348,40	1232,88
348,61	1273,84
348,82	1247,21
349,03	1275,88
349,24	1310,70
349,45	1316,84
349,66	1292,27
349,88	1294,32
350,09	1288,17
350,30	1284,08
350,51	1308,65
350,72	1261,55
350,93	1286,12
351,14	1212,40
351,35	1255,40
351,56	1255,40
351,77	1245,16
351,99	1265,64
352,20	1271,79
352,41	1310,70
352,62	1302,51
352,83	1304,56
353,04	1271,79
353,25	1312,75
353,46	1308,65
353,67	1267,69
353,88	1329,13
354,09	1363,95
354,30	1298,41
354,52	1329,13
354,73	1259,50
354,94	1288,17
355,15	1265,64
355,36	1267,69
355,57	1271,79
355,78	1282,03
355,99	1273,84
356,20	1200,11
356,41	1331,18
356,62	1279,98
356,83	1269,74
357,04	1245,16
357,25	1224,69
357,46	1265,64
357,68	1257,45
357,89	1298,41
358,10	1273,84
358,31	1263,60
358,52	1263,60
358,73	1265,64
358,94	1230,83
359,15	1255,40
359,36	1273,84
359,57	1247,21
359,78	1267,69
359,99	1282,03
360,20	1290,22
360,41	1263,60
360,62	1265,64
360,83	1271,79
361,04	1308,65
361,25	1185,77
361,46	1269,74
361,67	1286,12
361,88	1259,50
362,09	1175,53
362,30	1273,84
362,51	1239,02
362,72	1269,74
362,93	1341,42
363,14	1271,79
363,35	1261,55
363,56	1230,83
363,78	1234,93
363,99	1316,84
364,20	1222,64
364,41	1245,16
364,62	1320,94
364,83	1255,40
365,04	1245,16
365,25	1222,64
365,46	1255,40
365,67	1243,12
365,88	1296,36
366,09	1255,40
366,30	1224,69
366,51	1294,32
366,72	1290,22
366,93	1296,36
367,14	1181,68
367,35	1279,98
367,56	1314,80
367,77	1239,02
367,98	1257,45
368,18	1200,11
368,39	1292,27
368,60	1255,40
368,81	1224,69
369,02	1234,93
369,23	1275,88
369,44	1247,21
369,65	1318,89
369,86	1255,40
370,07	1212,40
370,28	1282,03
370,49	1296,36
370,70	1294,32
370,91	1263,60
371,12	1308,65
371,33	1236,97
371,54	1271,79
371,75	1196,01
371,96	1255,40
372,17	1224,69
372,38	1257,45
372,59	1228,78
372,80	1261,55
373,01	1314,80
373,22	1386,47
373,43	1253,36
373,64	1298,41
373,85	1288,17
374,06	1294,32
374,26	1202,16
374,47	1279,98
374,68	1239,02
374,89	1171,44
375,10	1216,49
375,31	1257,45
375,52	1253,36
375,73	1263,60
375,94	1269,74
376,15	1263,60
376,36	1241,07
376,57	1265,64
376,78	1251,31
376,99	1290,22
377,20	1269,74
377,40	1306,60
377,61	1241,07
377,82	1251,31
378,03	1253,36
378,24	1277,93
378,45	1347,56
378,66	1204,21
378,87	1249,26
379,08	1200,11
379,29	1261,55
379,50	1294,32
379,71	1273,84
379,91	1271,79
380,12	1351,66
380,33	1271,79
380,54	1189,87
380,75	1312,75
380,96	1259,50
381,17	1327,08
381,38	1261,55
381,59	1224,69
381,80	1290,22
382,00	1243,12
382,21	1210,35
382,42	1222,64
382,63	1277,93
382,84	1204,21
383,05	1255,40
383,26	1351,66
383,47	1251,31
383,68	1271,79
383,88	1267,69
384,09	1265,64
384,30	1284,08
384,51	1271,79
384,72	1224,69
384,93	1263,60
385,14	1239,02
385,35	1273,84
385,55	1198,06
385,76	1230,83
385,97	1277,93
386,18	1265,64
386,39	1245,16
386,60	1284,08
386,81	1243,12
387,02	1296,36
387,22	1277,93
387,43	1243,12
387,64	1314,80
387,85	1279,98
388,06	1290,22
388,27	1259,50
388,48	1224,69
388,68	1290,22
388,89	1253,36
389,10	1271,79
389,31	1277,93
389,52	1267,69
389,73	1318,89
389,93	1239,02
390,14	1282,03
390,35	1277,93
390,56	1257,45
390,77	1253,36
390,98	1247,21
391,18	1236,97
391,39	1351,66
391,60	1290,22
391,81	1300,46
392,02	1273,84
392,23	1273,84
392,43	1310,70
392,64	1202,16
392,85	1277,93
393,06	1361,90
393,27	1200,11
393,47	1259,50
393,68	1298,41
393,89	1251,31
394,10	1290,22
394,31	1241,07
394,52	1271,79
394,72	1245,16
394,93	1218,54
395,14	1288,17
395,35	1286,12
395,56	1249,26
395,76	1337,32
395,97	1349,61
396,18	1282,03
396,39	1220,59
396,60	1251,31
396,80	1271,79
397,01	1347,56
397,22	1253,36
397,43	1316,84
397,64	1228,78
397,84	1259,50
398,05	1279,98
398,26	1277,93
398,47	1247,21
398,67	1290,22
398,88	1257,45
399,09	1269,74
399,30	1325,04
399,51	1318,89
399,71	1294,32
399,92	1232,88
400,13	1351,66
400,34	1282,03
400,54	1322,99
400,75	1279,98
400,96	1294,32
401,17	1271,79
401,37	1271,79
401,58	1267,69
401,79	1251,31
402,00	1206,25
402,21	1206,25
402,41	1232,88
402,62	1298,41
402,83	1259,50
403,04	1216,49
403,24	1329,13
403,45	1187,82
403,66	1337,32
403,87	1275,88
404,07	1259,50
404,28	1255,40
404,49	1288,17
404,70	1234,93
404,90	1292,27
405,11	1189,87
405,32	1243,12
405,52	1224,69
405,73	1232,88
405,94	1191,92
406,15	1322,99
406,35	1271,79
406,56	1261,55
406,77	1241,07
406,98	1259,50
407,18	1308,65
407,39	1384,43
407,60	1292,27
407,80	1306,60
408,01	1222,64
408,22	1191,92
408,43	1220,59
408,63	1251,31
408,84	1263,60
409,05	1236,97
409,25	1234,93
409,46	1187,82
409,67	1316,84
409,88	1273,84
410,08	1224,69
410,29	1273,84
410,50	1282,03
410,70	1204,21
410,91	1167,34
411,12	1286,12
411,32	1253,36
411,53	1308,65
411,74	1269,74
411,95	1273,84
412,15	1271,79
412,36	1269,74
412,57	1257,45
412,77	1228,78
412,98	1245,16
413,19	1298,41
413,39	1286,12
413,60	1257,45
413,81	1163,25
414,01	1263,60
414,22	1269,74
414,43	1208,30
414,63	1245,16
414,84	1282,03
415,05	1224,69
415,25	1286,12
415,46	1257,45
415,67	1171,44
415,87	1216,49
416,08	1282,03
416,29	1290,22
416,49	1226,73
416,70	1282,03
416,91	1234,93
417,11	1294,32
417,32	1206,25
417,53	1245,16
417,73	1253,36
417,94	1296,36
418,15	1298,41
418,35	1343,47
418,56	1261,55
418,77	1273,84
418,97	1310,70
419,18	1228,78
419,38	1284,08
419,59	1206,25
419,80	1306,60
420,00	1222,64
420,21	1300,46
420,42	1286,12
420,62	1290,22
420,83	1214,45
421,04	1320,94
421,24	1339,37
421,45	1259,50
421,65	1279,98
421,86	1255,40
422,07	1296,36
422,27	1294,32
422,48	1286,12
422,69	1292,27
422,89	1349,61
423,10	1288,17
423,30	1210,35
423,51	1273,84
423,72	1263,60
423,92	1255,40
424,13	1271,79
424,33	1257,45
424,54	1247,21
424,75	1269,74
424,95	1263,60
425,16	1341,42
425,36	1263,60
425,57	1306,60
425,78	1286,12
425,98	1314,80
426,19	1314,80
426,39	1286,12
426,60	1236,97
426,81	1296,36
427,01	1292,27
427,22	1175,53
427,42	1257,45
427,63	1296,36
427,83	1302,51
428,04	1296,36
428,25	1310,70
428,45	1296,36
428,66	1245,16
428,86	1175,53
429,07	1173,49
429,28	1322,99
429,48	1206,25
429,69	1255,40
429,89	1286,12
430,10	1314,80
430,30	1243,12
430,51	1255,40
430,71	1226,73
430,92	1310,70
431,13	1257,45
431,33	1277,93
431,54	1277,93
431,74	1241,07
431,95	1302,51
432,15	1232,88
432,36	1214,45
432,56	1267,69
432,77	1282,03
432,98	1374,19
433,18	1220,59
433,39	1187,82
433,59	1294,32
433,80	1261,55
434,00	1327,08
434,21	1298,41
434,41	1314,80
434,62	1257,45
434,82	1255,40
435,03	1251,31
435,23	1306,60
435,44	1247,21
435,64	1204,21
435,85	1316,84
436,06	1312,75
436,26	1327,08
436,47	1277,93
436,67	1255,40
436,88	1251,31
437,08	1318,89
437,29	1224,69
437,49	1249,26
437,70	1277,93
437,90	1300,46
438,11	1261,55
438,31	1257,45
438,52	1302,51
438,72	1224,69
438,93	1275,88
439,13	1314,80
439,34	1257,45
439,54	1263,60
439,75	1239,02
439,95	1216,49
440,16	1212,40
440,36	1267,69
440,57	1259,50
440,77	1273,84
440,98	1310,70
441,18	1316,84
441,39	1247,21
441,59	1277,93
441,80	1134,57
442,00	1251,31
442,21	1253,36
442,41	1310,70
442,62	1288,17
442,82	1298,41
443,02	1300,46
443,23	1304,56
443,43	1239,02
443,64	1345,52
443,84	1277,93
444,05	1265,64
444,25	1253,36
444,46	1275,88
444,66	1243,12
444,87	1325,04
445,07	1279,98
445,28	1302,51
445,48	1206,25
445,69	1286,12
445,89	1282,03
446,09	1314,80
446,30	1255,40
446,50	1296,36
446,71	1304,56
446,91	1288,17
447,12	1212,40
447,32	1224,69
447,53	1239,02
447,73	1312,75
447,93	1261,55
448,14	1265,64
448,34	1204,21
448,55	1269,74
448,75	1273,84
448,96	1263,60
449,16	1302,51
449,36	1320,94
449,57	1282,03
449,77	1279,98
449,98	1292,27
450,18	1212,40
450,39	1308,65
450,59	1257,45
450,79	1310,70
451,00	1204,21
451,20	1284,08
451,41	1329,13
451,61	1306,60
451,81	1257,45
452,02	1269,74
452,22	1314,80
452,43	1171,44
452,63	1273,84
452,84	1298,41
453,04	1320,94
453,24	1263,60
453,45	1216,49
453,65	1333,23
453,86	1243,12
454,06	1261,55
454,26	1277,93
454,47	1230,83
454,67	1241,07
454,87	1298,41
455,08	1282,03
455,28	1331,18
455,49	1245,16
455,69	1202,16
455,89	1308,65
456,10	1290,22
456,30	1216,49
456,51	1210,35
456,71	1232,88
456,91	1296,36
457,12	1232,88
457,32	1286,12
457,52	1261,55
457,73	1306,60
457,93	1310,70
458,14	1304,56
458,34	1148,91
458,54	1196,01
458,75	1308,65
458,95	1218,54
459,15	1296,36
459,36	1230,83
459,56	1327,08
459,76	1294,32
459,97	1284,08
460,17	1331,18
460,37	1273,84
460,58	1286,12
460,78	1312,75
460,99	1239,02
461,19	1290,22
461,39	1251,31
461,60	1290,22
461,80	1271,79
462,00	1290,22
462,21	1318,89
462,41	1275,88
462,61	1296,36
462,82	1294,32
463,02	1222,64
463,22	1327,08
463,43	1259,50
463,63	1353,71
463,83	1271,79
464,04	1277,93
464,24	1298,41
464,44	1271,79
464,64	1335,28
464,85	1302,51
465,05	1316,84
465,25	1241,07
465,46	1286,12
465,66	1294,32
465,86	1282,03
466,07	1296,36
466,27	1282,03
466,47	1265,64
466,68	1236,97
466,88	1228,78
467,08	1271,79
467,29	1347,56
467,49	1271,79
467,69	1300,46
467,89	1349,61
468,10	1300,46
468,30	1239,02
468,50	1306,60
468,71	1314,80
468,91	1275,88
469,11	1300,46
469,31	1308,65
469,52	1282,03
469,72	1286,12
469,92	1327,08
470,13	1263,60
470,33	1253,36
470,53	1288,17
470,73	1273,84
470,94	1251,31
471,14	1294,32
471,34	1273,84
471,54	1263,60
471,75	1251,31
471,95	1314,80
472,15	1263,60
472,36	1273,84
472,56	1243,12
472,76	1296,36
472,96	1216,49
473,17	1245,16
473,37	1357,80
473,57	1261,55
473,77	1296,36
473,98	1312,75
474,18	1255,40
474,38	1208,30
474,58	1239,02
474,79	1279,98
474,99	1304,56
475,19	1269,74
475,39	1290,22
475,60	1318,89
475,80	1286,12
476,00	1245,16
476,20	1314,80
476,41	1284,08
476,61	1296,36
476,81	1204,21
477,01	1302,51
477,21	1267,69
477,42	1267,69
477,62	1273,84
477,82	1310,70
478,02	1265,64
478,23	1232,88
478,43	1359,85
478,63	1314,80
478,83	1234,93
479,03	1208,30
479,24	1206,25
479,44	1347,56
479,64	1304,56
479,84	1380,33
480,04	1269,74
480,25	1247,21
480,45	1279,98
480,65	1296,36
480,85	1230,83
481,06	1226,73
481,26	1275,88
481,46	1234,93
481,66	1271,79
481,86	1210,35
482,06	1294,32
482,27	1261,55
482,47	1300,46
482,67	1294,32
482,87	1292,27
483,07	1255,40
483,28	1255,40
483,48	1327,08
483,68	1206,25
483,88	1200,11
484,08	1245,16
484,29	1234,93
484,49	1316,84
484,69	1241,07
484,89	1290,22
485,09	1282,03
485,29	1273,84
485,50	1249,26
485,70	1218,54
485,90	1253,36
486,10	1296,36
486,30	1230,83
486,50	1302,51
486,71	1320,94
486,91	1249,26
487,11	1265,64
487,31	1282,03
487,51	1277,93
487,71	1241,07
487,91	1302,51
488,12	1275,88
488,32	1265,64
488,52	1232,88
488,72	1331,18
488,92	1294,32
489,12	1343,47
489,32	1296,36
489,53	1206,25
489,73	1331,18
489,93	1290,22
490,13	1282,03
490,33	1316,84
490,53	1267,69
490,73	1212,40
490,94	1245,16
491,14	1204,21
491,34	1245,16
491,54	1243,12
491,74	1294,32
491,94	1282,03
492,14	1234,93
492,34	1288,17
492,54	1251,31
492,75	1273,84
492,95	1269,74
493,15	1232,88
493,35	1329,13
493,55	1261,55
493,75	1263,60
493,95	1265,64
494,15	1271,79
494,35	1304,56
494,56	1245,16
494,76	1329,13
494,96	1322,99
495,16	1290,22
495,36	1331,18
495,56	1249,26
495,76	1286,12
495,96	1241,07
496,16	1265,64
496,36	1265,64
496,56	1314,80
496,77	1267,69
496,97	1314,80
497,17	1249,26
497,37	1247,21
497,57	1224,69
497,77	1263,60
497,97	1271,79
498,17	1288,17
498,37	1267,69
498,57	1255,40
498,77	1198,06
498,97	1228,78
499,17	1279,98
499,38	1202,16
499,58	1318,89
499,78	1261,55
499,98	1265,64
500,18	1318,89
500,38	1259,50
500,58	1224,69
500,78	1308,65
500,98	1320,94
501,18	1277,93
501,38	1314,80
501,58	1284,08
501,78	1208,30
501,98	1200,11
502,18	1282,03
502,38	1335,28
502,58	1263,60
502,78	1306,60
502,98	1236,97
503,18	1304,56
503,38	1253,36
503,59	1247,21
503,79	1292,27
503,99	1257,45
504,19	1327,08
504,39	1333,23
504,59	1284,08
504,79	1241,07
504,99	1200,11
505,19	1259,50
505,39	1300,46
505,59	1366,00
505,79	1322,99
505,99	1290,22
506,19	1251,31
506,39	1308,65
506,59	1183,73
506,79	1218,54
506,99	1284,08
507,19	1290,22
507,39	1290,22
507,59	1232,88
507,79	1247,21
507,99	1243,12
508,19	1318,89
508,39	1302,51
508,59	1290,22
508,79	1318,89
508,99	1286,12
509,19	1224,69
509,39	1329,13
509,59	1288,17
509,79	1259,50
509,99	1312,75
510,19	1220,59
510,39	1310,70
510,59	1271,79
510,79	1239,02
510,99	1253,36
511,19	1265,64
511,39	1239,02
511,59	1282,03
511,79	1322,99
511,99	1335,28
512,19	1322,99
512,38	1288,17
512,58	1243,12
512,78	1255,40
512,98	1286,12
513,18	1327,08
513,38	1189,87
513,58	1273,84
513,78	1284,08
513,98	1277,93
514,18	1234,93
514,38	1175,53
514,58	1277,93
514,78	1298,41
514,98	1232,88
515,18	1290,22
515,38	1288,17
515,58	1318,89
515,78	1306,60
515,98	1335,28
516,18	1290,22
516,38	1286,12
516,57	1353,71
516,77	1257,45
516,97	1257,45
517,17	1298,41
517,37	1255,40
517,57	1187,82
517,77	1255,40
517,97	1302,51
518,17	1359,85
518,37	1271,79
518,57	1349,61
518,77	1257,45
518,97	1284,08
519,16	1329,13
519,36	1259,50
519,56	1288,17
519,76	1329,13
519,96	1306,60
520,16	1349,61
520,36	1249,26
520,56	1335,28
520,76	1292,27
520,96	1273,84
521,16	1306,60
521,35	1224,69
521,55	1345,52
521,75	1243,12
521,95	1257,45
522,15	1259,50
522,35	1314,80
522,55	1296,36
522,75	1284,08
522,95	1218,54
523,14	1325,04
523,34	1286,12
523,54	1273,84
523,74	1255,40
523,94	1249,26
524,14	1298,41
524,34	1310,70
524,54	1247,21
524,73	1290,22
524,93	1267,69
525,13	1267,69
525,33	1267,69
525,53	1232,88
525,73	1269,74
525,93	1288,17
526,13	1290,22
526,32	1347,56
526,52	1279,98
526,72	1269,74
526,92	1224,69
527,12	1310,70
527,32	1175,53
527,52	1232,88
527,71	1300,46
527,91	1282,03
528,11	1269,74
528,31	1259,50
528,51	1335,28
528,71	1302,51
528,90	1279,98
529,10	1322,99
529,30	1286,12
529,50	1282,03
529,70	1261,55
529,90	1294,32
530,09	1218,54
530,29	1331,18
530,49	1351,66
530,69	1259,50
530,89	1232,88
531,09	1214,45
531,28	1183,73
531,48	1290,22
531,68	1288,17
531,88	1269,74
532,08	1312,75
532,28	1206,25
532,47	1265,64
532,67	1243,12
532,87	1245,16
533,07	1298,41
533,27	1304,56
533,46	1300,46
533,66	1294,32
533,86	1286,12
534,06	1294,32
534,26	1288,17
534,45	1290,22
534,65	1357,80
534,85	1349,61
535,05	1282,03
535,25	1275,88
535,44	1208,30
535,64	1251,31
535,84	1253,36
536,04	1298,41
536,24	1316,84
536,43	1171,44
536,63	1306,60
536,83	1329,13
537,03	1241,07
537,22	1265,64
537,42	1290,22
537,62	1327,08
537,82	1255,40
538,02	1288,17
538,21	1294,32
538,41	1298,41
538,61	1290,22
538,81	1298,41
539,00	1245,16
539,20	1292,27
539,40	1318,89
539,60	1273,84
539,79	1277,93
539,99	1302,51
540,19	1255,40
540,39	1275,88
540,58	1245,16
540,78	1257,45
540,98	1380,33
541,18	1337,32
541,37	1196,01
541,57	1259,50
541,77	1275,88
541,97	1294,32
542,16	1200,11
542,36	1249,26
542,56	1290,22
542,76	1290,22
542,95	1325,04
543,15	1302,51
543,35	1200,11
543,54	1177,58
543,74	1290,22
543,94	1345,52
544,14	1290,22
544,33	1271,79
544,53	1243,12
544,73	1265,64
544,93	1275,88
545,12	1204,21
545,32	1337,32
545,52	1269,74
545,71	1273,84
545,91	1353,71
546,11	1216,49
546,30	1245,16
546,50	1312,75
546,70	1277,93
546,90	1292,27
547,09	1298,41
547,29	1267,69
547,49	1312,75
547,68	1259,50
547,88	1220,59
548,08	1263,60
548,27	1251,31
548,47	1277,93
548,67	1312,75
548,87	1304,56
549,06	1339,37
549,26	1234,93
549,46	1218,54
549,65	1230,83
549,85	1236,97
550,05	1331,18
550,24	1216,49
550,44	1314,80
550,64	1243,12
550,83	1204,21
551,03	1279,98
551,23	1308,65
551,42	1290,22
551,62	1343,47
551,82	1279,98
552,01	1312,75
552,21	1339,37
552,41	1312,75
552,60	1263,60
552,80	1347,56
553,00	1265,64
553,19	1279,98
553,39	1335,28
553,59	1265,64
553,78	1191,92
553,98	1294,32
554,17	1290,22
554,37	1294,32
554,57	1212,40
554,76	1288,17
554,96	1292,27
555,16	1245,16
555,35	1277,93
555,55	1269,74
555,75	1247,21
555,94	1267,69
556,14	1273,84
556,33	1310,70
556,53	1298,41
556,73	1257,45
556,92	1359,85
557,12	1292,27
557,32	1247,21
557,51	1304,56
557,71	1241,07
557,90	1310,70
558,10	1333,23
558,30	1232,88
558,49	1294,32
558,69	1396,71
558,88	1343,47
559,08	1304,56
559,28	1288,17
559,47	1273,84
559,67	1296,36
559,86	1275,88
560,06	1277,93
560,26	1228,78
560,45	1306,60
560,65	1304,56
560,84	1271,79
561,04	1275,88
561,24	1320,94
561,43	1255,40
561,63	1253,36
561,82	1333,23
562,02	1224,69
562,22	1279,98
562,41	1232,88
562,61	1230,83
562,80	1296,36
563,00	1329,13
563,19	1300,46
563,39	1298,41
563,59	1253,36
563,78	1306,60
563,98	1335,28
564,17	1220,59
564,37	1239,02
564,56	1314,80
564,76	1296,36
564,96	1312,75
565,15	1271,79
565,35	1249,26
565,54	1177,58
565,74	1290,22
565,93	1314,80
566,13	1327,08
566,32	1337,32
566,52	1304,56
566,71	1247,21
566,91	1255,40
567,11	1253,36
567,30	1284,08
567,50	1384,43
567,69	1292,27
567,89	1282,03
568,08	1308,65
568,28	1236,97
568,47	1275,88
568,67	1269,74
568,86	1249,26
569,06	1216,49
569,25	1277,93
569,45	1247,21
569,64	1251,31
569,84	1284,08
570,04	1296,36
570,23	1257,45
570,43	1308,65
570,62	1302,51
570,82	1241,07
571,01	1263,60
571,21	1298,41
571,40	1343,47
571,60	1226,73
571,79	1261,55
571,99	1306,60
572,18	1208,30
572,38	1312,75
572,57	1320,94
572,77	1263,60
572,96	1288,17
573,16	1214,45
573,35	1282,03
573,55	1294,32
573,74	1329,13
573,94	1286,12
574,13	1247,21
574,33	1232,88
574,52	1308,65
574,71	1263,60
574,91	1245,16
575,10	1286,12
575,30	1253,36
575,49	1269,74
575,69	1322,99
575,88	1277,93
576,08	1241,07
576,27	1314,80
576,47	1273,84
576,66	1333,23
576,86	1247,21
577,05	1232,88
577,25	1308,65
577,44	1298,41
577,64	1316,84
577,83	1247,21
578,02	1279,98
578,22	1320,94
578,41	1302,51
578,61	1345,52
578,80	1398,76
579,00	1302,51
579,19	1230,83
579,39	1318,89
579,58	1236,97
579,77	1277,93
579,97	1318,89
580,16	1271,79
580,36	1236,97
580,55	1337,32
580,75	1269,74
580,94	1245,16
581,13	1216,49
581,33	1263,60
581,52	1290,22
581,72	1298,41
581,91	1279,98
582,11	1249,26
582,30	1277,93
582,49	1202,16
582,69	1286,12
582,88	1304,56
583,08	1318,89
583,27	1322,99
583,47	1275,88
583,66	1300,46
583,85	1286,12
584,05	1341,42
584,24	1259,50
584,44	1275,88
584,63	1316,84
584,82	1339,37
585,02	1263,60
585,21	1245,16
585,41	1224,69
585,60	1261,55
585,79	1320,94
585,99	1292,27
586,18	1277,93
586,37	1308,65
586,57	1298,41
586,76	1312,75
586,96	1275,88
587,15	1255,40
587,34	1288,17
587,54	1273,84
587,73	1265,64
587,93	1224,69
588,12	1273,84
588,31	1257,45
588,51	1241,07
588,70	1306,60
588,89	1368,04
589,09	1357,80
589,28	1372,14
589,47	1302,51
589,67	1310,70
589,86	1341,42
590,06	1255,40
590,25	1296,36
590,44	1286,12
590,64	1255,40
590,83	1337,32
591,02	1259,50
591,22	1239,02
591,41	1308,65
591,60	1245,16
591,80	1310,70
591,99	1300,46
592,18	1212,40
592,38	1269,74
592,57	1355,76
592,76	1298,41
592,96	1312,75
593,15	1267,69
593,34	1325,04
593,54	1312,75
593,73	1302,51
593,92	1290,22
594,12	1255,40
594,31	1333,23
594,50	1282,03
594,70	1312,75
594,89	1292,27
595,08	1298,41
595,28	1320,94
595,47	1206,25
595,66	1286,12
595,86	1335,28
596,05	1288,17
596,24	1249,26
596,43	1222,64
596,63	1279,98
596,82	1339,37
597,01	1306,60
597,21	1247,21
597,40	1314,80
597,59	1322,99
597,79	1298,41
597,98	1366,00
598,17	1306,60
598,36	1345,52
598,56	1327,08
598,75	1351,66
598,94	1210,35
599,14	1312,75
599,33	1322,99
599,52	1351,66
599,71	1230,83
599,91	1267,69
600,10	1269,74
600,29	1255,40
600,48	1318,89
600,68	1298,41
600,87	1255,40
601,06	1312,75
601,26	1298,41
601,45	1271,79
601,64	1306,60
601,83	1290,22
602,03	1290,22
602,22	1261,55
602,41	1282,03
602,60	1282,03
602,80	1310,70
602,99	1363,95
603,18	1327,08
603,37	1306,60
603,57	1261,55
603,76	1316,84
603,95	1224,69
604,14	1318,89
604,34	1300,46
604,53	1292,27
604,72	1212,40
604,91	1282,03
605,10	1249,26
605,30	1230,83
605,49	1253,36
605,68	1267,69
605,87	1341,42
606,07	1257,45
606,26	1271,79
606,45	1294,32
606,64	1279,98
606,84	1298,41
607,03	1279,98
607,22	1298,41
607,41	1292,27
607,60	1325,04
607,80	1380,33
607,99	1314,80
608,18	1257,45
608,37	1267,69
608,56	1290,22
608,76	1370,09
608,95	1234,93
609,14	1257,45
609,33	1331,18
609,52	1234,93
609,72	1300,46
609,91	1294,32
610,10	1282,03
610,29	1271,79
610,48	1277,93
610,68	1318,89
610,87	1370,09
611,06	1230,83
611,25	1337,32
611,44	1376,24
611,63	1378,28
611,83	1259,50
612,02	1327,08
612,21	1269,74
612,40	1335,28
612,59	1222,64
612,79	1208,30
612,98	1312,75
613,17	1343,47
613,36	1314,80
613,55	1259,50
613,74	1267,69
613,93	1261,55
614,13	1259,50
614,32	1304,56
614,51	1265,64
614,70	1263,60
614,89	1312,75
615,08	1261,55
615,28	1316,84
615,47	1286,12
615,66	1273,84
615,85	1329,13
616,04	1310,70
616,23	1277,93
616,42	1261,55
616,62	1359,85
616,81	1286,12
617,00	1206,25
617,19	1345,52
617,38	1322,99
617,57	1253,36
617,76	1247,21
617,95	1339,37
618,15	1265,64
618,34	1208,30
618,53	1255,40
618,72	1241,07
618,91	1290,22
619,10	1312,75
619,29	1279,98
619,48	1247,21
619,68	1316,84
619,87	1296,36
620,06	1290,22
620,25	1245,16
620,44	1271,79
620,63	1318,89
620,82	1183,73
621,01	1261,55
621,20	1306,60
621,39	1327,08
621,59	1277,93
621,78	1282,03
621,97	1222,64
622,16	1304,56
622,35	1320,94
622,54	1282,03
622,73	1294,32
622,92	1390,57
623,11	1245,16
623,30	1257,45
623,49	1318,89
623,68	1300,46
623,88	1335,28
624,07	1320,94
624,26	1294,32
624,45	1329,13
624,64	1304,56
624,83	1198,06
625,02	1239,02
625,21	1343,47
625,40	1286,12
625,59	1347,56
625,78	1290,22
625,97	1378,28
626,16	1294,32
626,35	1335,28
626,54	1355,76
626,74	1366,00
626,93	1306,60
627,12	1290,22
627,31	1327,08
627,50	1292,27
627,69	1206,25
627,88	1251,31
628,07	1331,18
628,26	1228,78
628,45	1261,55
628,64	1259,50
628,83	1310,70
629,02	1318,89
629,21	1259,50
629,40	1294,32
629,59	1351,66
629,78	1298,41
629,97	1259,50
630,16	1294,32
630,35	1261,55
630,54	1310,70
630,73	1292,27
630,92	1312,75
631,11	1292,27
631,30	1302,51
631,49	1349,61
631,68	1447,91
631,87	1447,91
632,06	1447,91
632,25	1470,44
632,44	1462,25
632,63	1447,91
632,82	1542,12
633,01	1464,30
633,20	1415,15
633,39	1468,39
633,58	1443,82
633,77	1476,59
633,96	1490,92
634,15	1415,15
634,34	1462,25
634,53	1517,54
634,72	1427,43
634,91	1484,78
635,10	1513,45
635,29	1415,15
635,48	1439,72
635,67	1482,73
635,86	1495,02
636,05	1544,17
636,24	1458,15
636,43	1445,87
636,62	1437,67
636,81	1423,34
637,00	1425,39
637,19	1267,69
637,38	1361,90
637,57	1351,66
637,76	1292,27
637,95	1331,18
638,14	1279,98
638,33	1316,84
638,52	1255,40
638,71	1308,65
638,89	1306,60
639,08	1292,27
639,27	1298,41
639,46	1335,28
639,65	1249,26
639,84	1236,97
640,03	1318,89
640,22	1306,60
640,41	1228,78
640,60	1193,97
640,79	1298,41
640,98	1310,70
641,17	1277,93
641,36	1200,11
641,55	1245,16
641,74	1253,36
641,92	1196,01
642,11	1294,32
642,30	1230,83
642,49	1292,27
642,68	1269,74
642,87	1335,28
643,06	1284,08
643,25	1247,21
643,44	1327,08
643,63	1249,26
643,82	1388,52
644,00	1310,70
644,19	1320,94
644,38	1232,88
644,57	1275,88
644,76	1249,26
644,95	1347,56
645,14	1279,98
645,33	1343,47
645,52	1265,64
645,71	1298,41
645,89	1271,79
646,08	1224,69
646,27	1282,03
646,46	1236,97
646,65	1177,58
646,84	1302,51
647,03	1345,52
647,22	1257,45
647,40	1314,80
647,59	1216,49
647,78	1249,26
647,97	1263,60
648,16	1269,74
648,35	1306,60
648,54	1257,45
648,73	1361,90
648,91	1288,17
649,10	1218,54
649,29	1292,27
649,48	1253,36
649,67	1298,41
649,86	1245,16
650,05	1339,37
650,23	1290,22
650,42	1308,65
650,61	1251,31
650,80	1314,80
650,99	1296,36
651,18	1314,80
651,36	1257,45
651,55	1300,46
651,74	1329,13
651,93	1269,74
652,12	1296,36
652,31	1335,28
652,49	1298,41
652,68	1251,31
652,87	1232,88
653,06	1345,52
653,25	1279,98
653,44	1253,36
653,62	1263,60
653,81	1253,36
654,00	1206,25
654,19	1304,56
654,38	1249,26
654,56	1382,38
654,75	1284,08
654,94	1275,88
655,13	1279,98
655,32	1224,69
655,51	1265,64
655,69	1253,36
655,88	1239,02
656,07	1220,59
656,26	1275,88
656,45	1185,77
656,63	1292,27
656,82	1261,55
657,01	1273,84
657,20	1269,74
657,38	1320,94
657,57	1273,84
657,76	1251,31
657,95	1226,73
658,14	1255,40
658,32	1265,64
658,51	1226,73
658,70	1243,12
658,89	1290,22
659,08	1269,74
659,26	1339,37
659,45	1282,03
659,64	1259,50
659,83	1226,73
660,01	1384,43
660,20	1259,50
660,39	1257,45
660,58	1310,70
660,76	1282,03
660,95	1308,65
661,14	1253,36
661,33	1226,73
661,51	1239,02
661,70	1251,31
661,89	1306,60
662,08	1290,22
662,26	1290,22
662,45	1292,27
662,64	1320,94
662,83	1273,84
663,01	1251,31
663,20	1322,99
663,39	1273,84
663,58	1255,40
663,76	1167,34
663,95	1275,88
664,14	1329,13
664,32	1306,60
664,51	1210,35
664,70	1277,93
664,89	1292,27
665,07	1288,17
665,26	1296,36
665,45	1259,50
665,64	1308,65
665,82	1222,64
666,01	1310,70
666,20	1327,08
666,38	1226,73
666,57	1204,21
666,76	1349,61
666,95	1306,60
667,13	1257,45
667,32	1282,03
667,51	1290,22
667,69	1300,46
667,88	1320,94
668,07	1230,83
668,25	1239,02
668,44	1224,69
668,63	1284,08
668,81	1257,45
669,00	1241,07
669,19	1265,64
669,38	1232,88
669,56	1298,41
669,75	1247,21
669,94	1265,64
670,12	1259,50
670,31	1208,30
670,50	1304,56
670,68	1339,37
670,87	1306,60
671,06	1245,16
671,24	1236,97
671,43	1251,31
671,62	1196,01
671,80	1241,07
671,99	1292,27
672,18	1277,93
672,36	1228,78
672,55	1200,11
672,74	1263,60
672,92	1320,94
673,11	1224,69
673,29	1310,70
673,48	1249,26
673,67	1284,08
673,85	1222,64
674,04	1269,74
674,23	1363,95
674,41	1273,84
674,60	1261,55
674,79	1169,39
674,97	1306,60
675,16	1314,80
675,34	1241,07
675,53	1245,16
675,72	1349,61
675,90	1218,54
676,09	1279,98
676,28	1275,88
676,46	1259,50
676,65	1255,40
676,83	1224,69
677,02	1271,79
677,21	1273,84
677,39	1236,97
677,58	1267,69
677,77	1208,30
677,95	1200,11
678,14	1249,26
678,32	1290,22
678,51	1288,17
678,70	1253,36
678,88	1249,26
679,07	1269,74
679,25	1275,88
679,44	1310,70
679,63	1257,45
679,81	1230,83
680,00	1261,55
680,18	1290,22
680,37	1220,59
680,55	1339,37
680,74	1239,02
680,93	1279,98
681,11	1318,89
681,30	1290,22
681,48	1314,80
681,67	1267,69
681,85	1249,26
682,04	1286,12
682,23	1277,93
682,41	1183,73
682,60	1247,21
682,78	1320,94
682,97	1222,64
683,15	1241,07
683,34	1183,73
683,53	1245,16
683,71	1284,08
683,90	1322,99
684,08	1269,74
684,27	1269,74
684,45	1257,45
684,64	1185,77
684,82	1351,66
685,01	1271,79
685,19	1329,13
685,38	1210,35
685,57	1312,75
685,75	1277,93
685,94	1363,95
686,12	1241,07
686,31	1279,98
686,49	1312,75
686,68	1273,84
686,86	1222,64
687,05	1286,12
687,23	1228,78
687,42	1204,21
687,60	1308,65
687,79	1318,89
687,97	1257,45
688,16	1306,60
688,34	1312,75
688,53	1255,40
688,71	1189,87
688,90	1306,60
689,08	1241,07
689,27	1185,77
689,45	1271,79
689,64	1279,98
689,82	1331,18
690,01	1306,60
690,19	1292,27
690,38	1298,41
690,56	1214,45
690,75	1204,21
690,93	1298,41
691,12	1222,64
691,30	1198,06
691,49	1220,59
691,67	1322,99
691,86	1239,02
692,04	1314,80
692,23	1253,36
692,41	1259,50
692,60	1355,76
692,78	1345,52
692,97	1333,23
693,15	1189,87
693,34	1230,83
693,52	1294,32
693,71	1275,88
693,89	1247,21
694,08	1173,49
694,26	1232,88
694,44	1286,12
694,63	1269,74
694,81	1286,12
695,00	1249,26
695,18	1220,59
695,37	1322,99
695,55	1265,64
695,74	1261,55
695,92	1245,16
696,10	1204,21
696,29	1222,64
696,47	1234,93
696,66	1296,36
696,84	1298,41
697,03	1300,46
697,21	1296,36
697,40	1267,69
697,58	1257,45
697,76	1329,13
697,95	1325,04
698,13	1249,26
698,32	1298,41
698,50	1257,45
698,68	1241,07
698,87	1212,40
699,05	1247,21
699,24	1253,36
699,42	1265,64
699,61	1253,36
699,79	1249,26
699,97	1290,22
700,16	1259,50
700,34	1284,08
700,53	1234,93
700,71	1316,84
700,89	1273,84
701,08	1259,50
701,26	1265,64
701,45	1325,04
701,63	1253,36
701,81	1271,79
702,00	1228,78
702,18	1255,40
702,37	1316,84
702,55	1161,20
702,73	1279,98
702,92	1271,79
703,10	1275,88
703,28	1298,41
703,47	1265,64
703,65	1271,79
703,84	1282,03
704,02	1206,25
704,20	1374,19
704,39	1234,93
704,57	1286,12
704,75	1277,93
704,94	1329,13
705,12	1247,21
705,30	1257,45
705,49	1265,64
705,67	1286,12
705,86	1300,46
706,04	1208,30
706,22	1312,75
706,41	1261,55
706,59	1290,22
706,77	1298,41
706,96	1230,83
707,14	1255,40
707,32	1300,46
707,51	1292,27
707,69	1290,22
707,87	1337,32
708,06	1251,31
708,24	1239,02
708,42	1277,93
708,61	1271,79
708,79	1228,78
708,97	1310,70
709,16	1214,45
709,34	1310,70
709,52	1259,50
709,71	1224,69
709,89	1220,59
710,07	1273,84
710,26	1275,88
710,44	1232,88
710,62	1273,84
710,80	1279,98
710,99	1314,80
711,17	1296,36
711,35	1214,45
711,54	1277,93
711,72	1316,84
711,90	1236,97
712,09	1189,87
712,27	1284,08
712,45	1234,93
712,63	1241,07
712,82	1255,40
713,00	1284,08
713,18	1294,32
713,37	1269,74
713,55	1253,36
713,73	1337,32
713,91	1253,36
714,10	1277,93
714,28	1253,36
714,46	1325,04
714,65	1279,98
714,83	1286,12
715,01	1261,55
715,19	1263,60
715,38	1241,07
715,56	1300,46
715,74	1185,77
715,92	1304,56
716,11	1269,74
716,29	1337,32
716,47	1259,50
716,65	1239,02
716,84	1282,03
717,02	1302,51
717,20	1290,22
717,38	1279,98
717,57	1253,36
717,75	1236,97
717,93	1310,70
718,11	1208,30
718,30	1337,32
718,48	1239,02
718,66	1220,59
718,84	1245,16
719,03	1273,84
719,21	1314,80
719,39	1232,88
719,57	1234,93
719,75	1255,40
719,94	1308,65
720,12	1239,02
720,30	1310,70
720,48	1269,74
720,67	1273,84
720,85	1261,55
721,03	1243,12
721,21	1316,84
721,39	1273,84
721,58	1232,88
721,76	1337,32
721,94	1306,60
722,12	1220,59
722,30	1282,03
722,49	1282,03
722,67	1269,74
722,85	1245,16
723,03	1284,08
723,21	1349,61
723,40	1259,50
723,58	1275,88
723,76	1327,08
723,94	1224,69
724,12	1255,40
724,30	1212,40
724,49	1247,21
724,67	1290,22
724,85	1263,60
725,03	1325,04
725,21	1216,49
725,40	1245,16
725,58	1273,84
725,76	1269,74
725,94	1339,37
726,12	1257,45
726,30	1224,69
726,49	1265,64
726,67	1232,88
726,85	1257,45
727,03	1275,88
727,21	1304,56
727,39	1251,31
727,57	1181,68
727,76	1251,31
727,94	1253,36
728,12	1306,60
728,30	1208,30
728,48	1263,60
728,66	1320,94
728,84	1290,22
729,03	1241,07
729,21	1236,97
729,39	1212,40
729,57	1339,37
729,75	1294,32
729,93	1255,40
730,11	1282,03
730,30	1269,74
730,48	1275,88
730,66	1284,08
730,84	1271,79
731,02	1302,51
731,20	1247,21
731,38	1175,53
731,56	1214,45
731,74	1173,49
731,93	1279,98
732,11	1284,08
732,29	1212,40
732,47	1271,79
732,65	1288,17
732,83	1191,92
733,01	1339,37
733,19	1251,31
733,37	1259,50
733,56	1273,84
733,74	1331,18
733,92	1267,69
734,10	1302,51
734,28	1267,69
734,46	1216,49
734,64	1294,32
734,82	1316,84
735,00	1320,94
735,18	1314,80
735,36	1261,55
735,54	1284,08
735,73	1259,50
735,91	1255,40
736,09	1304,56
736,27	1304,56
736,45	1300,46
736,63	1290,22
736,81	1279,98
736,99	1275,88
737,17	1243,12
737,35	1271,79
737,53	1294,32
737,71	1337,32
737,89	1249,26
738,07	1318,89
738,25	1284,08
738,43	1239,02
738,61	1288,17
738,80	1263,60
738,98	1239,02
739,16	1220,59
739,34	1279,98
739,52	1263,60
739,70	1249,26
739,88	1306,60
740,06	1304,56
740,24	1288,17
740,42	1261,55
740,60	1189,87
740,78	1302,51
740,96	1304,56
741,14	1222,64
741,32	1206,25
741,50	1318,89
741,68	1308,65
741,86	1218,54
742,04	1243,12
742,22	1259,50
742,40	1206,25
742,58	1206,25
742,76	1206,25
742,94	1220,59
743,12	1255,40
743,30	1216,49
743,48	1277,93
743,66	1286,12
743,84	1239,02
744,02	1212,40
744,20	1193,97
744,38	1228,78
744,56	1255,40
744,74	1275,88
744,92	1300,46
745,10	1269,74
745,28	1329,13
745,46	1279,98
745,64	1234,93
745,82	1341,42
746,00	1208,30
746,18	1224,69
746,36	1331,18
746,54	1265,64
746,72	1337,32
746,90	1243,12
747,08	1220,59
747,26	1290,22
747,44	1273,84
747,62	1187,82
747,80	1232,88
747,98	1269,74
748,15	1220,59
748,33	1206,25
748,51	1275,88
748,69	1359,85
748,87	1339,37
749,05	1265,64
749,23	1239,02
749,41	1296,36
749,59	1177,58
749,77	1232,88
749,95	1265,64
750,13	1294,32
750,31	1241,07
750,49	1249,26
750,67	1294,32
750,85	1288,17
751,03	1236,97
751,20	1204,21
751,38	1234,93
751,56	1251,31
751,74	1271,79
751,92	1210,35
752,10	1263,60
752,28	1286,12
752,46	1273,84
752,64	1251,31
752,82	1247,21
753,00	1257,45
753,18	1312,75
753,35	1206,25
753,53	1269,74
753,71	1298,41
753,89	1320,94
754,07	1228,78
754,25	1247,21
754,43	1222,64
754,61	1318,89
754,79	1306,60
754,97	1265,64
755,14	1273,84
755,32	1259,50
755,50	1316,84
755,68	1257,45
755,86	1292,27
756,04	1351,66
756,22	1259,50
756,40	1288,17
756,57	1214,45
756,75	1353,71
756,93	1292,27
757,11	1263,60
757,29	1310,70
757,47	1249,26
757,65	1304,56
757,82	1261,55
758,00	1210,35
758,18	1290,22
758,36	1294,32
758,54	1298,41
758,72	1265,64
758,90	1247,21
759,07	1255,40
759,25	1275,88
759,43	1282,03
759,61	1265,64
759,79	1286,12
759,97	1261,55
760,15	1298,41
760,32	1265,64
760,50	1265,64
760,68	1341,42
760,86	1226,73
761,04	1200,11
761,22	1210,35
761,39	1343,47
761,57	1322,99
761,75	1265,64
761,93	1263,60
762,11	1284,08
762,28	1202,16
762,46	1275,88
762,64	1269,74
762,82	1206,25
763,00	1265,64
763,18	1198,06
763,35	1214,45
763,53	1306,60
763,71	1263,60
763,89	1263,60
764,07	1261,55
764,24	1273,84
764,42	1302,51
764,60	1318,89
764,78	1263,60
764,96	1376,24
765,13	1282,03
765,31	1257,45
765,49	1271,79
765,67	1191,92
765,84	1263,60
766,02	1259,50
766,20	1257,45
766,38	1282,03
766,56	1247,21
766,73	1232,88
766,91	1269,74
767,09	1196,01
767,27	1261,55
767,44	1275,88
767,62	1312,75
767,80	1251,31
767,98	1251,31
768,15	1234,93
768,33	1284,08
768,51	1282,03
768,69	1259,50
768,87	1228,78
769,04	1208,30
769,22	1347,56
769,40	1273,84
769,58	1314,80
769,75	1251,31
769,93	1300,46
770,11	1279,98
770,28	1329,13
770,46	1290,22
770,64	1263,60
770,82	1314,80
770,99	1273,84
771,17	1284,08
771,35	1230,83
771,53	1257,45
771,70	1253,36
771,88	1263,60
772,06	1239,02
772,23	1251,31
772,41	1263,60
772,59	1277,93
772,77	1261,55
772,94	1277,93
773,12	1253,36
773,30	1224,69
773,47	1269,74
773,65	1310,70
773,83	1275,88
774,01	1316,84
774,18	1204,21
774,36	1167,34
774,54	1257,45
774,71	1253,36
774,89	1290,22
775,07	1243,12
775,24	1322,99
775,42	1243,12
775,60	1181,68
775,78	1245,16
775,95	1228,78
776,13	1247,21
776,31	1288,17
776,48	1249,26
776,66	1222,64
776,84	1241,07
777,01	1263,60
777,19	1275,88
777,37	1255,40
777,54	1206,25
777,72	1306,60
777,90	1269,74
778,07	1318,89
778,25	1312,75
778,43	1298,41
778,60	1314,80
778,78	1249,26
778,96	1271,79
779,13	1220,59
779,31	1302,51
779,49	1216,49
779,66	1271,79
779,84	1273,84
780,01	1232,88
780,19	1286,12
780,37	1239,02
780,54	1255,40
780,72	1247,21
780,90	1265,64
781,07	1320,94
781,25	1269,74
781,43	1300,46
781,60	1314,80
781,78	1218,54
781,95	1282,03
782,13	1310,70
782,31	1259,50
782,48	1302,51
782,66	1241,07
782,83	1282,03
783,01	1275,88
783,19	1316,84
783,36	1263,60
783,54	1298,41
783,72	1177,58
783,89	1206,25
784,07	1292,27
784,24	1255,40
784,42	1245,16
784,60	1284,08
784,77	1312,75
784,95	1275,88
785,12	1255,40
785,30	1222,64
785,47	1282,03
785,65	1232,88
785,83	1173,49
786,00	1318,89
786,18	1239,02
786,35	1304,56
786,53	1267,69
786,71	1245,16
786,88	1171,44
787,06	1269,74
787,23	1181,68
787,41	1333,23
787,58	1273,84
787,76	1282,03
787,94	1327,08
788,11	1327,08
788,29	1241,07
788,46	1273,84
788,64	1322,99
788,81	1300,46
788,99	1249,26
789,16	1257,45
789,34	1220,59
789,52	1380,33
789,69	1247,21
789,87	1261,55
790,04	1308,65
790,22	1296,36
790,39	1282,03
790,57	1247,21
790,74	1275,88
790,92	1318,89
791,09	1239,02
791,27	1277,93
791,44	1292,27
791,62	1239,02
791,79	1302,51
791,97	1269,74
792,15	1294,32
792,32	1247,21
792,50	1306,60
792,67	1259,50
792,85	1304,56
793,02	1269,74
793,20	1325,04
793,37	1212,40
793,55	1236,97
793,72	1273,84
793,90	1261,55
794,07	1269,74
794,25	1345,52
794,42	1224,69
794,60	1234,93
794,77	1249,26
794,95	1212,40
795,12	1251,31
795,30	1230,83
795,47	1214,45
795,65	1325,04
795,82	1329,13
796,00	1239,02
796,17	1294,32
796,34	1247,21
796,52	1286,12
796,69	1333,23
796,87	1249,26
797,04	1333,23
797,22	1261,55
797,39	1380,33
797,57	1302,51
797,74	1353,71
797,92	1259,50
798,09	1296,36
798,27	1226,73
798,44	1288,17
798,62	1290,22
798,79	1304,56
798,96	1232,88
799,14	1239,02
799,31	1243,12
799,49	1222,64
799,66	1277,93
799,84	1284,08
800,01	1286,12
800,19	1259,50
800,36	1230,83
800,53	1216,49
800,71	1290,22
800,88	1269,74
801,06	1226,73
801,23	1341,42
801,41	1249,26
801,58	1327,08
801,75	1224,69
801,93	1249,26
802,10	1257,45
802,28	1247,21
802,45	1228,78
802,63	1298,41
802,80	1269,74
802,97	1273,84
803,15	1220,59
803,32	1322,99
803,50	1218,54
803,67	1236,97
803,84	1247,21
804,02	1273,84
804,19	1261,55
804,37	1284,08
804,54	1300,46
804,71	1245,16
804,89	1282,03
805,06	1241,07
805,24	1316,84
805,41	1220,59
805,58	1241,07
805,76	1337,32
805,93	1290,22
806,10	1359,85
806,28	1234,93
806,45	1232,88
806,63	1284,08
806,80	1292,27
806,97	1312,75
807,15	1300,46
807,32	1288,17
807,49	1259,50
807,67	1257,45
807,84	1220,59
808,01	1277,93
808,19	1302,51
808,36	1386,47
808,54	1257,45
808,71	1179,63
808,88	1212,40
809,06	1286,12
809,23	1273,84
809,40	1294,32
809,58	1300,46
809,75	1232,88
809,92	1302,51
810,10	1200,11
810,27	1306,60
810,44	1322,99
810,62	1279,98
810,79	1290,22
810,96	1277,93
811,14	1236,97
811,31	1232,88
811,48	1277,93
811,66	1267,69
811,83	1251,31
812,00	1284,08
812,18	1253,36
812,35	1253,36
812,52	1282,03
812,69	1230,83
812,87	1277,93
813,04	1200,11
813,21	1245,16
813,39	1243,12
813,56	1273,84
813,73	1271,79
813,91	1202,16
814,08	1333,23
814,25	1320,94
814,42	1290,22
814,60	1239,02
814,77	1239,02
814,94	1255,40
815,12	1298,41
815,29	1302,51
815,46	1314,80
815,63	1269,74
815,81	1314,80
815,98	1243,12
816,15	1277,93
816,33	1245,16
816,50	1263,60
816,67	1263,60
816,84	1265,64
817,02	1325,04
817,19	1228,78
817,36	1292,27
817,53	1316,84
817,71	1236,97
817,88	1261,55
818,05	1202,16
818,22	1236,97
818,40	1275,88
818,57	1265,64
818,74	1288,17
818,91	1241,07
819,09	1298,41
819,26	1249,26
819,43	1267,69
819,60	1296,36
819,78	1216,49
819,95	1279,98
820,12	1230,83
820,29	1322,99
820,47	1228,78
820,64	1284,08
820,81	1271,79
820,98	1261,55
821,15	1284,08
821,33	1294,32
821,50	1202,16
821,67	1193,97
821,84	1290,22
822,02	1236,97
822,19	1181,68
822,36	1300,46
822,53	1267,69
822,70	1263,60
822,88	1292,27
823,05	1292,27
823,22	1318,89
823,39	1349,61
823,56	1275,88
823,74	1185,77
823,91	1245,16
824,08	1265,64
824,25	1253,36
824,42	1265,64
824,60	1308,65
824,77	1296,36
824,94	1333,23
825,11	1331,18
825,28	1282,03
825,45	1263,60
825,63	1255,40
825,80	1177,58
825,97	1273,84
826,14	1241,07
826,31	1304,56
826,48	1263,60
826,66	1263,60
826,83	1351,66
827,00	1241,07
827,17	1312,75
827,34	1255,40
827,51	1241,07
827,69	1288,17
827,86	1277,93
828,03	1320,94
828,20	1234,93
828,37	1320,94
828,54	1271,79
828,71	1239,02
828,89	1257,45
829,06	1294,32
829,23	1210,35
829,40	1261,55
829,57	1331,18
829,74	1271,79
829,91	1253,36
830,09	1220,59
830,26	1226,73
830,43	1263,60
830,60	1261,55
830,77	1243,12
830,94	1322,99
831,11	1249,26
831,28	1284,08
831,46	1247,21
831,63	1294,32
831,80	1220,59
831,97	1259,50
832,14	1241,07
832,31	1243,12
832,48	1224,69
832,65	1224,69
832,82	1234,93
832,99	1200,11
833,17	1263,60
833,34	1255,40
833,51	1216,49
833,68	1288,17
833,85	1216,49
834,02	1257,45
834,19	1306,60
834,36	1220,59
834,53	1310,70
834,70	1187,82
834,87	1269,74
835,04	1327,08
835,22	1269,74
835,39	1224,69
835,56	1282,03
835,73	1277,93
835,90	1159,15
836,07	1316,84
836,24	1325,04
836,41	1269,74
836,58	1361,90
836,75	1234,93
836,92	1265,64
837,09	1193,97
837,26	1257,45
837,43	1290,22
837,60	1306,60
837,77	1259,50
837,94	1329,13
838,12	1292,27
838,29	1290,22
838,46	1175,53
838,63	1247,21
838,80	1251,31
838,97	1187,82
839,14	1335,28
839,31	1247,21
839,48	1269,74
839,65	1284,08
839,82	1277,93
839,99	1304,56
840,16	1214,45
840,33	1273,84
840,50	1361,90
840,67	1282,03
840,84	1327,08
841,01	1257,45
841,18	1249,26
841,35	1304,56
841,52	1257,45
841,69	1275,88
841,86	1300,46
842,03	1255,40
842,20	1208,30
842,37	1277,93
842,54	1200,11
842,71	1331,18
842,88	1222,64
843,05	1271,79
843,22	1374,19
843,39	1239,02
843,56	1253,36
843,73	1290,22
843,90	1286,12
844,07	1249,26
844,24	1257,45
844,41	1232,88
844,58	1257,45
844,75	1271,79
844,92	1257,45
845,09	1245,16
845,26	1210,35
845,43	1302,51
845,60	1271,79
845,77	1241,07
845,94	1320,94
846,10	1226,73
846,27	1214,45
846,44	1245,16
846,61	1296,36
846,78	1331,18
846,95	1282,03
847,12	1259,50
847,29	1286,12
847,46	1257,45
847,63	1277,93
847,80	1255,40
847,97	1282,03
848,14	1230,83
848,31	1183,73
848,48	1304,56
848,65	1263,60
848,82	1275,88
848,98	1259,50
849,15	1310,70
849,32	1286,12
849,49	1267,69
849,66	1292,27
849,83	1308,65
850,00	1271,79
850,17	1232,88
850,34	1255,40
850,51	1191,92
850,68	1226,73
850,85	1236,97
851,01	1261,55
851,18	1265,64
851,35	1247,21
851,52	1265,64
851,69	1318,89
851,86	1271,79
852,03	1218,54
852,20	1302,51
852,37	1267,69
852,53	1136,62
852,70	1294,32
852,87	1230,83
853,04	1228,78
853,21	1279,98
853,38	1253,36
853,55	1269,74
853,72	1304,56
853,89	1226,73
854,05	1263,60
854,22	1304,56
854,39	1251,31
854,56	1269,74
854,73	1163,25
854,90	1290,22
855,07	1282,03
855,23	1234,93
855,40	1284,08
855,57	1300,46
855,74	1261,55
855,91	1306,60
856,08	1320,94
856,25	1234,93
856,41	1300,46
856,58	1224,69
856,75	1296,36
856,92	1245,16
857,09	1290,22
857,26	1271,79
857,42	1263,60
857,59	1267,69
857,76	1218,54
857,93	1269,74
858,10	1230,83
858,27	1210,35
858,43	1224,69
858,60	1300,46
858,77	1314,80
858,94	1187,82
859,11	1247,21
859,27	1204,21
859,44	1345,52
859,61	1241,07
859,78	1273,84
859,95	1275,88
860,12	1263,60
860,28	1304,56
860,45	1288,17
860,62	1232,88
860,79	1282,03
860,95	1275,88
861,12	1259,50
861,29	1239,02
861,46	1200,11
861,63	1216,49
861,79	1279,98
861,96	1320,94
862,13	1271,79
862,30	1288,17
862,47	1286,12
862,63	1251,31
862,80	1314,80
862,97	1255,40
863,14	1286,12
863,30	1308,65
863,47	1298,41
863,64	1251,31
863,81	1306,60
863,97	1290,22
864,14	1181,68
864,31	1361,90
864,48	1230,83
864,65	1255,40
864,81	1339,37
864,98	1329,13
865,15	1230,83
865,32	1214,45
865,48	1292,27
865,65	1249,26
865,82	1318,89
865,98	1251,31
866,15	1269,74
866,32	1232,88
866,49	1265,64
866,65	1296,36
866,82	1259,50
866,99	1263,60
867,16	1322,99
867,32	1206,25
867,49	1273,84
867,66	1298,41
867,83	1226,73
867,99	1265,64
868,16	1208,30
868,33	1298,41
868,49	1318,89
868,66	1275,88
868,83	1275,88
868,99	1257,45
869,16	1312,75
869,33	1279,98
869,50	1273,84
869,66	1214,45
869,83	1312,75
870,00	1228,78
870,16	1306,60
870,33	1204,21
870,50	1196,01
870,66	1236,97
870,83	1261,55
871,00	1288,17
871,17	1204,21
871,33	1296,36
871,50	1249,26
871,67	1251,31
871,83	1249,26
872,00	1269,74
872,17	1222,64
872,33	1331,18
872,50	1327,08
872,67	1232,88
872,83	1232,88
873,00	1314,80
873,17	1239,02
873,33	1224,69
873,50	1314,80
873,67	1308,65
873,83	1222,64
874,00	1279,98
874,16	1257,45
874,33	1271,79
874,50	1261,55
874,66	1273,84
874,83	1282,03
875,00	1210,35
875,16	1304,56
875,33	1325,04
875,50	1304,56
875,66	1368,04
875,83	1347,56
875,99	1320,94
876,16	1208,30
876,33	1228,78
876,49	1230,83
876,66	1222,64
876,83	1259,50
876,99	1257,45
877,16	1306,60
877,32	1304,56
877,49	1306,60
877,66	1263,60
877,82	1300,46
877,99	1216,49
878,15	1257,45
878,32	1318,89
878,49	1241,07
878,65	1282,03
878,82	1269,74
878,98	1259,50
879,15	1193,97
879,32	1284,08
879,48	1347,56
879,65	1253,36
879,81	1218,54
879,98	1234,93
880,15	1230,83
880,31	1200,11
880,48	1216,49
880,64	1316,84
880,81	1232,88
880,97	1275,88
881,14	1267,69
881,31	1304,56
881,47	1247,21
881,64	1286,12
881,80	1226,73
881,97	1292,27
882,13	1284,08
882,30	1200,11
882,47	1282,03
882,63	1245,16
882,80	1263,60
882,96	1282,03
883,13	1290,22
883,29	1288,17
883,46	1282,03
883,62	1257,45
883,79	1273,84
883,95	1316,84
884,12	1269,74
884,29	1290,22
884,45	1224,69
884,62	1284,08
884,78	1275,88
884,95	1241,07
885,11	1331,18
885,28	1232,88
885,44	1310,70
885,61	1263,60
885,77	1298,41
885,94	1265,64
886,10	1261,55
886,27	1286,12
886,43	1249,26
886,60	1232,88
886,76	1245,16
886,93	1265,64
887,09	1253,36
887,26	1329,13
887,42	1263,60
887,59	1261,55
887,75	1263,60
887,92	1273,84
888,08	1232,88
888,25	1243,12
888,41	1273,84
888,58	1298,41
888,74	1263,60
888,91	1282,03
>>>>>End Processed Spectral Data<<<<<
