SpectraSuite Data File
++++++++++++++++++++++++++++++++++++
Date: Sun Apr 03 19:55:33 CEST 2016
User: root
Dark Spectrum Present: No
Reference Spectrum Present: No
Number of Sampled Component Spectra: 1
Spectrometers: USB4C02835
Integration Time (usec): 10000 (USB4C02835)
Spectra Averaged: 1 (USB4C02835)
Boxcar Smoothing: 0 (USB4C02835)
Correct for Electrical Dark: No (USB4C02835)
Strobe/Lamp Enabled: No (USB4C02835)
Correct for Detector Non-linearity: No (USB4C02835)
Correct for Stray Light: No (USB4C02835)
Number of Pixels in Processed Spectrum: 3648
>>>>>Begin Processed Spectral Data<<<<<
177,47	1241,07
177,69	1241,07
177,91	1241,07
178,13	1241,07
178,36	1247,21
178,58	1228,78
178,80	1296,36
179,02	1191,92
179,24	1298,41
179,46	1236,97
179,68	1327,08
179,90	1206,25
180,13	1224,69
180,35	1277,93
180,57	1247,21
180,79	1322,99
181,01	1355,76
181,23	1210,35
181,45	1282,03
181,67	1331,18
181,90	1228,78
182,12	1273,84
182,34	1265,64
182,56	1257,45
182,78	1282,03
183,00	1312,75
183,22	1191,92
183,44	1298,41
183,66	1290,22
183,89	1263,60
184,11	1263,60
184,33	1259,50
184,55	1320,94
184,77	1236,97
184,99	1275,88
185,21	1298,41
185,43	1255,40
185,65	1296,36
185,87	1230,83
186,10	1282,03
186,32	1228,78
186,54	1296,36
186,76	1189,87
186,98	1288,17
187,20	1206,25
187,42	1226,73
187,64	1263,60
187,86	1243,12
188,08	1306,60
188,30	1255,40
188,52	1232,88
188,75	1282,03
188,97	1220,59
189,19	1232,88
189,41	1314,80
189,63	1294,32
189,85	1204,21
190,07	1271,79
190,29	1275,88
190,51	1333,23
190,73	1214,45
190,95	1261,55
191,17	1220,59
191,39	1216,49
191,61	1288,17
191,84	1222,64
192,06	1282,03
192,28	1212,40
192,50	1351,66
192,72	1279,98
192,94	1265,64
193,16	1306,60
193,38	1255,40
193,60	1267,69
193,82	1249,26
194,04	1206,25
194,26	1345,52
194,48	1218,54
194,70	1232,88
194,92	1241,07
195,14	1300,46
195,36	1214,45
195,58	1312,75
195,80	1212,40
196,02	1286,12
196,24	1228,78
196,46	1279,98
196,69	1204,21
196,91	1220,59
197,13	1290,22
197,35	1265,64
197,57	1259,50
197,79	1263,60
198,01	1247,21
198,23	1314,80
198,45	1306,60
198,67	1247,21
198,89	1318,89
199,11	1253,36
199,33	1320,94
199,55	1286,12
199,77	1306,60
199,99	1241,07
200,21	1320,94
200,43	1216,49
200,65	1286,12
200,87	1236,97
201,09	1290,22
201,31	1306,60
201,53	1251,31
201,75	1261,55
201,97	1339,37
202,19	1286,12
202,41	1263,60
202,63	1304,56
202,85	1277,93
203,07	1243,12
203,29	1318,89
203,51	1314,80
203,73	1271,79
203,95	1302,51
204,17	1267,69
204,39	1294,32
204,61	1314,80
204,83	1255,40
205,05	1257,45
205,27	1261,55
205,49	1271,79
205,71	1316,84
205,93	1325,04
206,15	1224,69
206,37	1282,03
206,59	1261,55
206,81	1263,60
207,03	1243,12
207,25	1251,31
207,47	1243,12
207,69	1247,21
207,91	1257,45
208,13	1282,03
208,34	1333,23
208,56	1300,46
208,78	1241,07
209,00	1253,36
209,22	1247,21
209,44	1341,42
209,66	1337,32
209,88	1249,26
210,10	1257,45
210,32	1277,93
210,54	1198,06
210,76	1159,15
210,98	1269,74
211,20	1253,36
211,42	1259,50
211,64	1275,88
211,86	1259,50
212,08	1271,79
212,30	1296,36
212,52	1239,02
212,74	1269,74
212,96	1277,93
213,17	1312,75
213,39	1200,11
213,61	1302,51
213,83	1259,50
214,05	1312,75
214,27	1245,16
214,49	1290,22
214,71	1296,36
214,93	1292,27
215,15	1236,97
215,37	1259,50
215,59	1294,32
215,81	1288,17
216,03	1308,65
216,24	1257,45
216,46	1294,32
216,68	1255,40
216,90	1247,21
217,12	1290,22
217,34	1333,23
217,56	1226,73
217,78	1249,26
218,00	1259,50
218,22	1265,64
218,44	1314,80
218,66	1298,41
218,87	1232,88
219,09	1232,88
219,31	1267,69
219,53	1210,35
219,75	1245,16
219,97	1185,77
220,19	1245,16
220,41	1294,32
220,63	1251,31
220,85	1318,89
221,06	1296,36
221,28	1220,59
221,50	1265,64
221,72	1202,16
221,94	1241,07
222,16	1294,32
222,38	1355,76
222,60	1298,41
222,82	1298,41
223,03	1279,98
223,25	1269,74
223,47	1224,69
223,69	1351,66
223,91	1267,69
224,13	1277,93
224,35	1279,98
224,57	1253,36
224,78	1302,51
225,00	1261,55
225,22	1251,31
225,44	1265,64
225,66	1290,22
225,88	1193,97
226,10	1253,36
226,32	1241,07
226,53	1312,75
226,75	1363,95
226,97	1220,59
227,19	1337,32
227,41	1245,16
227,63	1294,32
227,85	1212,40
228,06	1298,41
228,28	1386,47
228,50	1304,56
228,72	1210,35
228,94	1204,21
229,16	1255,40
229,37	1255,40
229,59	1300,46
229,81	1239,02
230,03	1236,97
230,25	1267,69
230,47	1255,40
230,69	1253,36
230,90	1279,98
231,12	1263,60
231,34	1253,36
231,56	1259,50
231,78	1265,64
232,00	1286,12
232,21	1253,36
232,43	1265,64
232,65	1224,69
232,87	1257,45
233,09	1269,74
233,30	1196,01
233,52	1159,15
233,74	1236,97
233,96	1241,07
234,18	1302,51
234,40	1196,01
234,61	1314,80
234,83	1257,45
235,05	1228,78
235,27	1275,88
235,49	1261,55
235,70	1269,74
235,92	1341,42
236,14	1216,49
236,36	1282,03
236,58	1322,99
236,79	1308,65
237,01	1228,78
237,23	1267,69
237,45	1331,18
237,67	1349,61
237,88	1232,88
238,10	1271,79
238,32	1228,78
238,54	1271,79
238,76	1286,12
238,97	1224,69
239,19	1290,22
239,41	1306,60
239,63	1339,37
239,85	1196,01
240,06	1359,85
240,28	1306,60
240,50	1232,88
240,72	1286,12
240,93	1251,31
241,15	1282,03
241,37	1247,21
241,59	1292,27
241,81	1302,51
242,02	1249,26
242,24	1249,26
242,46	1302,51
242,68	1251,31
242,89	1288,17
243,11	1322,99
243,33	1247,21
243,55	1247,21
243,76	1298,41
243,98	1255,40
244,20	1282,03
244,42	1286,12
244,64	1222,64
244,85	1353,71
245,07	1335,28
245,29	1257,45
245,51	1245,16
245,72	1279,98
245,94	1259,50
246,16	1261,55
246,38	1255,40
246,59	1300,46
246,81	1230,83
247,03	1243,12
247,24	1247,21
247,46	1277,93
247,68	1267,69
247,90	1300,46
248,11	1279,98
248,33	1255,40
248,55	1277,93
248,77	1279,98
248,98	1265,64
249,20	1259,50
249,42	1294,32
249,64	1265,64
249,85	1306,60
250,07	1333,23
250,29	1345,52
250,50	1304,56
250,72	1273,84
250,94	1263,60
251,16	1294,32
251,37	1312,75
251,59	1159,15
251,81	1191,92
252,02	1228,78
252,24	1333,23
252,46	1253,36
252,68	1218,54
252,89	1265,64
253,11	1230,83
253,33	1251,31
253,54	1210,35
253,76	1290,22
253,98	1294,32
254,20	1277,93
254,41	1314,80
254,63	1288,17
254,85	1298,41
255,06	1294,32
255,28	1279,98
255,50	1284,08
255,71	1208,30
255,93	1329,13
256,15	1331,18
256,36	1286,12
256,58	1222,64
256,80	1290,22
257,02	1292,27
257,23	1222,64
257,45	1308,65
257,67	1296,36
257,88	1271,79
258,10	1255,40
258,32	1294,32
258,53	1300,46
258,75	1267,69
258,97	1298,41
259,18	1284,08
259,40	1257,45
259,62	1202,16
259,83	1220,59
260,05	1230,83
260,27	1277,93
260,48	1247,21
260,70	1275,88
260,92	1318,89
261,13	1253,36
261,35	1267,69
261,57	1222,64
261,78	1302,51
262,00	1189,87
262,22	1259,50
262,43	1247,21
262,65	1273,84
262,86	1257,45
263,08	1189,87
263,30	1302,51
263,51	1245,16
263,73	1292,27
263,95	1236,97
264,16	1310,70
264,38	1226,73
264,60	1228,78
264,81	1275,88
265,03	1294,32
265,25	1261,55
265,46	1300,46
265,68	1208,30
265,89	1212,40
266,11	1265,64
266,33	1200,11
266,54	1310,70
266,76	1271,79
266,98	1206,25
267,19	1218,54
267,41	1208,30
267,62	1257,45
267,84	1243,12
268,06	1208,30
268,27	1271,79
268,49	1241,07
268,70	1318,89
268,92	1277,93
269,14	1359,85
269,35	1286,12
269,57	1239,02
269,79	1265,64
270,00	1216,49
270,22	1224,69
270,43	1294,32
270,65	1257,45
270,87	1247,21
271,08	1288,17
271,30	1290,22
271,51	1239,02
271,73	1220,59
271,95	1241,07
272,16	1249,26
272,38	1214,45
272,59	1216,49
272,81	1210,35
273,02	1251,31
273,24	1353,71
273,46	1316,84
273,67	1304,56
273,89	1288,17
274,10	1263,60
274,32	1267,69
274,54	1267,69
274,75	1253,36
274,97	1273,84
275,18	1228,78
275,40	1259,50
275,61	1269,74
275,83	1210,35
276,05	1232,88
276,26	1288,17
276,48	1296,36
276,69	1251,31
276,91	1304,56
277,12	1322,99
277,34	1198,06
277,55	1191,92
277,77	1263,60
277,99	1239,02
278,20	1300,46
278,42	1271,79
278,63	1282,03
278,85	1261,55
279,06	1265,64
279,28	1257,45
279,49	1308,65
279,71	1265,64
279,93	1224,69
280,14	1275,88
280,36	1253,36
280,57	1214,45
280,79	1325,04
281,00	1304,56
281,22	1239,02
281,43	1200,11
281,65	1202,16
281,86	1249,26
282,08	1271,79
282,29	1296,36
282,51	1189,87
282,73	1322,99
282,94	1249,26
283,16	1273,84
283,37	1228,78
283,59	1292,27
283,80	1310,70
284,02	1239,02
284,23	1212,40
284,45	1171,44
284,66	1306,60
284,88	1226,73
285,09	1304,56
285,31	1234,93
285,52	1241,07
285,74	1224,69
285,95	1286,12
286,17	1263,60
286,38	1343,47
286,60	1325,04
286,81	1241,07
287,03	1288,17
287,24	1282,03
287,46	1312,75
287,67	1228,78
287,89	1232,88
288,10	1310,70
288,32	1243,12
288,53	1198,06
288,75	1247,21
288,96	1234,93
289,18	1255,40
289,39	1263,60
289,61	1271,79
289,82	1245,16
290,04	1183,73
290,25	1265,64
290,47	1345,52
290,68	1269,74
290,90	1263,60
291,11	1232,88
291,33	1277,93
291,54	1257,45
291,76	1259,50
291,97	1282,03
292,18	1284,08
292,40	1331,18
292,61	1236,97
292,83	1236,97
293,04	1200,11
293,26	1329,13
293,47	1339,37
293,69	1286,12
293,90	1255,40
294,12	1355,76
294,33	1271,79
294,55	1218,54
294,76	1271,79
294,97	1241,07
295,19	1310,70
295,40	1288,17
295,62	1239,02
295,83	1230,83
296,05	1265,64
296,26	1312,75
296,48	1255,40
296,69	1241,07
296,90	1282,03
297,12	1288,17
297,33	1290,22
297,55	1220,59
297,76	1243,12
297,98	1236,97
298,19	1265,64
298,41	1306,60
298,62	1265,64
298,83	1236,97
299,05	1310,70
299,26	1284,08
299,48	1261,55
299,69	1290,22
299,90	1267,69
300,12	1267,69
300,33	1259,50
300,55	1202,16
300,76	1296,36
300,98	1224,69
301,19	1259,50
301,40	1239,02
301,62	1218,54
301,83	1271,79
302,05	1245,16
302,26	1304,56
302,47	1290,22
302,69	1212,40
302,90	1279,98
303,12	1249,26
303,33	1218,54
303,54	1236,97
303,76	1245,16
303,97	1290,22
304,19	1322,99
304,40	1257,45
304,61	1249,26
304,83	1279,98
305,04	1325,04
305,26	1298,41
305,47	1282,03
305,68	1228,78
305,90	1249,26
306,11	1269,74
306,33	1316,84
306,54	1288,17
306,75	1298,41
306,97	1273,84
307,18	1224,69
307,39	1327,08
307,61	1366,00
307,82	1282,03
308,04	1212,40
308,25	1239,02
308,46	1279,98
308,68	1288,17
308,89	1292,27
309,10	1210,35
309,32	1298,41
309,53	1245,16
309,74	1257,45
309,96	1327,08
310,17	1257,45
310,39	1245,16
310,60	1290,22
310,81	1239,02
311,03	1249,26
311,24	1241,07
311,45	1265,64
311,67	1310,70
311,88	1241,07
312,09	1226,73
312,31	1241,07
312,52	1292,27
312,73	1224,69
312,95	1224,69
313,16	1322,99
313,37	1327,08
313,59	1273,84
313,80	1196,01
314,01	1271,79
314,23	1316,84
314,44	1222,64
314,65	1292,27
314,87	1249,26
315,08	1257,45
315,29	1265,64
315,51	1230,83
315,72	1234,93
315,93	1255,40
316,15	1320,94
316,36	1282,03
316,57	1216,49
316,79	1206,25
317,00	1181,68
317,21	1269,74
317,43	1312,75
317,64	1279,98
317,85	1267,69
318,07	1218,54
318,28	1273,84
318,49	1288,17
318,70	1284,08
318,92	1284,08
319,13	1234,93
319,34	1279,98
319,56	1206,25
319,77	1222,64
319,98	1224,69
320,20	1261,55
320,41	1279,98
320,62	1228,78
320,83	1290,22
321,05	1169,39
321,26	1245,16
321,47	1265,64
321,69	1314,80
321,90	1370,09
322,11	1247,21
322,32	1279,98
322,54	1308,65
322,75	1302,51
322,96	1202,16
323,18	1224,69
323,39	1308,65
323,60	1277,93
323,81	1232,88
324,03	1351,66
324,24	1296,36
324,45	1290,22
324,66	1282,03
324,88	1263,60
325,09	1277,93
325,30	1275,88
325,52	1335,28
325,73	1343,47
325,94	1331,18
326,15	1261,55
326,37	1239,02
326,58	1241,07
326,79	1316,84
327,00	1232,88
327,22	1279,98
327,43	1232,88
327,64	1234,93
327,85	1241,07
328,07	1322,99
328,28	1292,27
328,49	1269,74
328,70	1273,84
328,92	1306,60
329,13	1273,84
329,34	1269,74
329,55	1277,93
329,76	1249,26
329,98	1265,64
330,19	1304,56
330,40	1232,88
330,61	1228,78
330,83	1216,49
331,04	1257,45
331,25	1314,80
331,46	1357,80
331,68	1302,51
331,89	1329,13
332,10	1275,88
332,31	1351,66
332,52	1304,56
332,74	1296,36
332,95	1322,99
333,16	1329,13
333,37	1300,46
333,58	1282,03
333,80	1251,31
334,01	1282,03
334,22	1300,46
334,43	1234,93
334,64	1290,22
334,86	1202,16
335,07	1300,46
335,28	1286,12
335,49	1236,97
335,70	1271,79
335,92	1212,40
336,13	1284,08
336,34	1282,03
336,55	1187,82
336,76	1296,36
336,98	1296,36
337,19	1255,40
337,40	1245,16
337,61	1224,69
337,82	1333,23
338,04	1191,92
338,25	1290,22
338,46	1189,87
338,67	1302,51
338,88	1267,69
339,09	1214,45
339,31	1204,21
339,52	1337,32
339,73	1277,93
339,94	1277,93
340,15	1265,64
340,36	1286,12
340,58	1275,88
340,79	1222,64
341,00	1284,08
341,21	1253,36
341,42	1296,36
341,63	1253,36
341,85	1327,08
342,06	1339,37
342,27	1263,60
342,48	1302,51
342,69	1331,18
342,90	1284,08
343,12	1290,22
343,33	1277,93
343,54	1282,03
343,75	1249,26
343,96	1269,74
344,17	1255,40
344,38	1249,26
344,60	1325,04
344,81	1304,56
345,02	1298,41
345,23	1247,21
345,44	1210,35
345,65	1288,17
345,86	1304,56
346,07	1279,98
346,29	1183,73
346,50	1257,45
346,71	1255,40
346,92	1249,26
347,13	1249,26
347,34	1298,41
347,55	1275,88
347,76	1228,78
347,98	1269,74
348,19	1257,45
348,40	1241,07
348,61	1269,74
348,82	1236,97
349,03	1265,64
349,24	1232,88
349,45	1275,88
349,66	1245,16
349,88	1282,03
350,09	1259,50
350,30	1200,11
350,51	1333,23
350,72	1234,93
350,93	1251,31
351,14	1257,45
351,35	1202,16
351,56	1316,84
351,77	1279,98
351,99	1210,35
352,20	1286,12
352,41	1290,22
352,62	1253,36
352,83	1234,93
353,04	1249,26
353,25	1325,04
353,46	1269,74
353,67	1318,89
353,88	1253,36
354,09	1259,50
354,30	1269,74
354,52	1282,03
354,73	1284,08
354,94	1200,11
355,15	1361,90
355,36	1259,50
355,57	1226,73
355,78	1273,84
355,99	1320,94
356,20	1261,55
356,41	1263,60
356,62	1257,45
356,83	1306,60
357,04	1261,55
357,25	1282,03
357,46	1239,02
357,68	1212,40
357,89	1222,64
358,10	1265,64
358,31	1206,25
358,52	1312,75
358,73	1249,26
358,94	1269,74
359,15	1208,30
359,36	1222,64
359,57	1220,59
359,78	1353,71
359,99	1226,73
360,20	1304,56
360,41	1236,97
360,62	1234,93
360,83	1282,03
361,04	1290,22
361,25	1275,88
361,46	1216,49
361,67	1228,78
361,88	1302,51
362,09	1290,22
362,30	1325,04
362,51	1304,56
362,72	1282,03
362,93	1183,73
363,14	1228,78
363,35	1198,06
363,56	1296,36
363,78	1306,60
363,99	1296,36
364,20	1273,84
364,41	1288,17
364,62	1259,50
364,83	1265,64
365,04	1269,74
365,25	1316,84
365,46	1327,08
365,67	1245,16
365,88	1286,12
366,09	1263,60
366,30	1275,88
366,51	1288,17
366,72	1288,17
366,93	1277,93
367,14	1255,40
367,35	1187,82
367,56	1230,83
367,77	1267,69
367,98	1249,26
368,18	1189,87
368,39	1251,31
368,60	1212,40
368,81	1212,40
369,02	1296,36
369,23	1302,51
369,44	1222,64
369,65	1222,64
369,86	1310,70
370,07	1206,25
370,28	1236,97
370,49	1312,75
370,70	1226,73
370,91	1300,46
371,12	1286,12
371,33	1366,00
371,54	1267,69
371,75	1263,60
371,96	1345,52
372,17	1210,35
372,38	1320,94
372,59	1228,78
372,80	1226,73
373,01	1181,68
373,22	1247,21
373,43	1216,49
373,64	1296,36
373,85	1261,55
374,06	1339,37
374,26	1263,60
374,47	1279,98
374,68	1282,03
374,89	1224,69
375,10	1245,16
375,31	1286,12
375,52	1236,97
375,73	1200,11
375,94	1294,32
376,15	1228,78
376,36	1185,77
376,57	1212,40
376,78	1335,28
376,99	1247,21
377,20	1269,74
377,40	1339,37
377,61	1226,73
377,82	1290,22
378,03	1253,36
378,24	1282,03
378,45	1263,60
378,66	1247,21
378,87	1191,92
379,08	1255,40
379,29	1257,45
379,50	1255,40
379,71	1290,22
379,91	1286,12
380,12	1208,30
380,33	1288,17
380,54	1351,66
380,75	1243,12
380,96	1279,98
381,17	1275,88
381,38	1298,41
381,59	1251,31
381,80	1322,99
382,00	1298,41
382,21	1239,02
382,42	1267,69
382,63	1359,85
382,84	1290,22
383,05	1282,03
383,26	1257,45
383,47	1306,60
383,68	1325,04
383,88	1306,60
384,09	1257,45
384,30	1253,36
384,51	1302,51
384,72	1243,12
384,93	1288,17
385,14	1263,60
385,35	1284,08
385,55	1251,31
385,76	1232,88
385,97	1292,27
386,18	1290,22
386,39	1208,30
386,60	1251,31
386,81	1212,40
387,02	1210,35
387,22	1253,36
387,43	1249,26
387,64	1306,60
387,85	1320,94
388,06	1234,93
388,27	1263,60
388,48	1310,70
388,68	1241,07
388,89	1261,55
389,10	1259,50
389,31	1263,60
389,52	1286,12
389,73	1351,66
389,93	1257,45
390,14	1271,79
390,35	1286,12
390,56	1366,00
390,77	1261,55
390,98	1292,27
391,18	1269,74
391,39	1302,51
391,60	1269,74
391,81	1279,98
392,02	1257,45
392,23	1261,55
392,43	1253,36
392,64	1251,31
392,85	1265,64
393,06	1179,63
393,27	1300,46
393,47	1292,27
393,68	1214,45
393,89	1290,22
394,10	1251,31
394,31	1228,78
394,52	1263,60
394,72	1249,26
394,93	1304,56
395,14	1279,98
395,35	1183,73
395,56	1214,45
395,76	1284,08
395,97	1251,31
396,18	1253,36
396,39	1181,68
396,60	1255,40
396,80	1245,16
397,01	1271,79
397,22	1255,40
397,43	1241,07
397,64	1263,60
397,84	1241,07
398,05	1259,50
398,26	1273,84
398,47	1290,22
398,67	1282,03
398,88	1300,46
399,09	1239,02
399,30	1243,12
399,51	1198,06
399,71	1265,64
399,92	1302,51
400,13	1257,45
400,34	1282,03
400,54	1241,07
400,75	1288,17
400,96	1247,21
401,17	1230,83
401,37	1247,21
401,58	1210,35
401,79	1253,36
402,00	1288,17
402,21	1253,36
402,41	1257,45
402,62	1267,69
402,83	1288,17
403,04	1251,31
403,24	1304,56
403,45	1331,18
403,66	1269,74
403,87	1191,92
404,07	1249,26
404,28	1339,37
404,49	1220,59
404,70	1286,12
404,90	1228,78
405,11	1253,36
405,32	1275,88
405,52	1228,78
405,73	1249,26
405,94	1300,46
406,15	1202,16
406,35	1228,78
406,56	1261,55
406,77	1284,08
406,98	1249,26
407,18	1275,88
407,39	1286,12
407,60	1232,88
407,80	1306,60
408,01	1224,69
408,22	1236,97
408,43	1267,69
408,63	1296,36
408,84	1277,93
409,05	1273,84
409,25	1247,21
409,46	1230,83
409,67	1255,40
409,88	1226,73
410,08	1286,12
410,29	1302,51
410,50	1267,69
410,70	1361,90
410,91	1247,21
411,12	1269,74
411,32	1253,36
411,53	1275,88
411,74	1259,50
411,95	1304,56
412,15	1271,79
412,36	1390,57
412,57	1208,30
412,77	1298,41
412,98	1331,18
413,19	1292,27
413,39	1271,79
413,60	1251,31
413,81	1273,84
414,01	1273,84
414,22	1302,51
414,43	1263,60
414,63	1249,26
414,84	1261,55
415,05	1212,40
415,25	1239,02
415,46	1282,03
415,67	1308,65
415,87	1241,07
416,08	1331,18
416,29	1251,31
416,49	1245,16
416,70	1335,28
416,91	1288,17
417,11	1308,65
417,32	1312,75
417,53	1279,98
417,73	1292,27
417,94	1224,69
418,15	1253,36
418,35	1312,75
418,56	1277,93
418,77	1290,22
418,97	1306,60
419,18	1292,27
419,38	1277,93
419,59	1273,84
419,80	1282,03
420,00	1259,50
420,21	1259,50
420,42	1269,74
420,62	1306,60
420,83	1282,03
421,04	1288,17
421,24	1249,26
421,45	1255,40
421,65	1247,21
421,86	1312,75
422,07	1316,84
422,27	1265,64
422,48	1286,12
422,69	1366,00
422,89	1173,49
423,10	1265,64
423,30	1322,99
423,51	1187,82
423,72	1306,60
423,92	1249,26
424,13	1232,88
424,33	1265,64
424,54	1210,35
424,75	1308,65
424,95	1259,50
425,16	1359,85
425,36	1288,17
425,57	1304,56
425,78	1230,83
425,98	1314,80
426,19	1269,74
426,39	1185,77
426,60	1255,40
426,81	1282,03
427,01	1316,84
427,22	1218,54
427,42	1261,55
427,63	1322,99
427,83	1265,64
428,04	1271,79
428,25	1298,41
428,45	1284,08
428,66	1257,45
428,86	1282,03
429,07	1232,88
429,28	1335,28
429,48	1271,79
429,69	1236,97
429,89	1271,79
430,10	1269,74
430,30	1257,45
430,51	1288,17
430,71	1265,64
430,92	1265,64
431,13	1259,50
431,33	1310,70
431,54	1247,21
431,74	1228,78
431,95	1275,88
432,15	1257,45
432,36	1302,51
432,56	1273,84
432,77	1304,56
432,98	1339,37
433,18	1249,26
433,39	1304,56
433,59	1247,21
433,80	1241,07
434,00	1312,75
434,21	1216,49
434,41	1220,59
434,62	1269,74
434,82	1351,66
435,03	1267,69
435,23	1279,98
435,44	1298,41
435,64	1236,97
435,85	1241,07
436,06	1243,12
436,26	1271,79
436,47	1284,08
436,67	1273,84
436,88	1228,78
437,08	1335,28
437,29	1263,60
437,49	1279,98
437,70	1239,02
437,90	1257,45
438,11	1204,21
438,31	1304,56
438,52	1269,74
438,72	1304,56
438,93	1341,42
439,13	1230,83
439,34	1220,59
439,54	1288,17
439,75	1275,88
439,95	1230,83
440,16	1243,12
440,36	1298,41
440,57	1310,70
440,77	1208,30
440,98	1224,69
441,18	1273,84
441,39	1255,40
441,59	1230,83
441,80	1275,88
442,00	1204,21
442,21	1353,71
442,41	1279,98
442,62	1216,49
442,82	1255,40
443,02	1333,23
443,23	1296,36
443,43	1288,17
443,64	1314,80
443,84	1253,36
444,05	1308,65
444,25	1249,26
444,46	1296,36
444,66	1259,50
444,87	1249,26
445,07	1251,31
445,28	1333,23
445,48	1329,13
445,69	1220,59
445,89	1218,54
446,09	1339,37
446,30	1239,02
446,50	1267,69
446,71	1243,12
446,91	1318,89
447,12	1304,56
447,32	1316,84
447,53	1181,68
447,73	1259,50
447,93	1257,45
448,14	1314,80
448,34	1263,60
448,55	1267,69
448,75	1261,55
448,96	1331,18
449,16	1263,60
449,36	1247,21
449,57	1279,98
449,77	1327,08
449,98	1261,55
450,18	1363,95
450,39	1370,09
450,59	1290,22
450,79	1208,30
451,00	1279,98
451,20	1277,93
451,41	1279,98
451,61	1239,02
451,81	1198,06
452,02	1368,04
452,22	1249,26
452,43	1306,60
452,63	1282,03
452,84	1261,55
453,04	1239,02
453,24	1261,55
453,45	1314,80
453,65	1234,93
453,86	1226,73
454,06	1333,23
454,26	1273,84
454,47	1206,25
454,67	1302,51
454,87	1198,06
455,08	1277,93
455,28	1288,17
455,49	1245,16
455,69	1322,99
455,89	1263,60
456,10	1288,17
456,30	1284,08
456,51	1304,56
456,71	1216,49
456,91	1284,08
457,12	1302,51
457,32	1224,69
457,52	1257,45
457,73	1296,36
457,93	1228,78
458,14	1306,60
458,34	1263,60
458,54	1232,88
458,75	1241,07
458,95	1361,90
459,15	1239,02
459,36	1273,84
459,56	1206,25
459,76	1300,46
459,97	1322,99
460,17	1265,64
460,37	1263,60
460,58	1290,22
460,78	1249,26
460,99	1257,45
461,19	1239,02
461,39	1322,99
461,60	1288,17
461,80	1253,36
462,00	1306,60
462,21	1208,30
462,41	1325,04
462,61	1304,56
462,82	1255,40
463,02	1247,21
463,22	1251,31
463,43	1386,47
463,63	1257,45
463,83	1212,40
464,04	1318,89
464,24	1263,60
464,44	1236,97
464,64	1255,40
464,85	1265,64
465,05	1269,74
465,25	1294,32
465,46	1294,32
465,66	1279,98
465,86	1253,36
466,07	1292,27
466,27	1288,17
466,47	1306,60
466,68	1320,94
466,88	1302,51
467,08	1214,45
467,29	1292,27
467,49	1277,93
467,69	1271,79
467,89	1357,80
468,10	1312,75
468,30	1257,45
468,50	1288,17
468,71	1329,13
468,91	1310,70
469,11	1294,32
469,31	1200,11
469,52	1269,74
469,72	1304,56
469,92	1263,60
470,13	1331,18
470,33	1284,08
470,53	1374,19
470,73	1187,82
470,94	1286,12
471,14	1257,45
471,34	1294,32
471,54	1236,97
471,75	1271,79
471,95	1314,80
472,15	1316,84
472,36	1349,61
472,56	1196,01
472,76	1294,32
472,96	1353,71
473,17	1185,77
473,37	1294,32
473,57	1247,21
473,77	1251,31
473,98	1267,69
474,18	1282,03
474,38	1249,26
474,58	1308,65
474,79	1159,15
474,99	1370,09
475,19	1335,28
475,39	1228,78
475,60	1257,45
475,80	1292,27
476,00	1339,37
476,20	1290,22
476,41	1226,73
476,61	1290,22
476,81	1255,40
477,01	1232,88
477,21	1312,75
477,42	1290,22
477,62	1279,98
477,82	1284,08
478,02	1245,16
478,23	1263,60
478,43	1230,83
478,63	1322,99
478,83	1308,65
479,03	1345,52
479,24	1267,69
479,44	1259,50
479,64	1288,17
479,84	1259,50
480,04	1241,07
480,25	1249,26
480,45	1368,04
480,65	1279,98
480,85	1279,98
481,06	1228,78
481,26	1228,78
481,46	1310,70
481,66	1187,82
481,86	1312,75
482,06	1239,02
482,27	1247,21
482,47	1290,22
482,67	1269,74
482,87	1368,04
483,07	1296,36
483,28	1183,73
483,48	1329,13
483,68	1341,42
483,88	1183,73
484,08	1284,08
484,29	1355,76
484,49	1265,64
484,69	1302,51
484,89	1310,70
485,09	1279,98
485,29	1210,35
485,50	1292,27
485,70	1216,49
485,90	1261,55
486,10	1232,88
486,30	1333,23
486,50	1288,17
486,71	1269,74
486,91	1288,17
487,11	1255,40
487,31	1245,16
487,51	1193,97
487,71	1286,12
487,91	1206,25
488,12	1189,87
488,32	1228,78
488,52	1216,49
488,72	1267,69
488,92	1314,80
489,12	1241,07
489,32	1236,97
489,53	1284,08
489,73	1306,60
489,93	1282,03
490,13	1226,73
490,33	1236,97
490,53	1236,97
490,73	1351,66
490,94	1306,60
491,14	1304,56
491,34	1288,17
491,54	1247,21
491,74	1159,15
491,94	1279,98
492,14	1288,17
492,34	1249,26
492,54	1331,18
492,75	1277,93
492,95	1261,55
493,15	1277,93
493,35	1253,36
493,55	1212,40
493,75	1284,08
493,95	1288,17
494,15	1232,88
494,35	1259,50
494,56	1322,99
494,76	1241,07
494,96	1220,59
495,16	1257,45
495,36	1306,60
495,56	1282,03
495,76	1241,07
495,96	1273,84
496,16	1236,97
496,36	1251,31
496,56	1245,16
496,77	1255,40
496,97	1247,21
497,17	1232,88
497,37	1275,88
497,57	1355,76
497,77	1339,37
497,97	1279,98
498,17	1282,03
498,37	1263,60
498,57	1220,59
498,77	1259,50
498,97	1249,26
499,17	1318,89
499,38	1253,36
499,58	1290,22
499,78	1236,97
499,98	1277,93
500,18	1247,21
500,38	1312,75
500,58	1282,03
500,78	1243,12
500,98	1224,69
501,18	1228,78
501,38	1316,84
501,58	1216,49
501,78	1341,42
501,98	1271,79
502,18	1236,97
502,38	1189,87
502,58	1316,84
502,78	1249,26
502,98	1275,88
503,18	1239,02
503,38	1327,08
503,59	1275,88
503,79	1216,49
503,99	1294,32
504,19	1282,03
504,39	1325,04
504,59	1288,17
504,79	1368,04
504,99	1265,64
505,19	1292,27
505,39	1302,51
505,59	1210,35
505,79	1261,55
505,99	1271,79
506,19	1273,84
506,39	1322,99
506,59	1232,88
506,79	1210,35
506,99	1322,99
507,19	1335,28
507,39	1288,17
507,59	1304,56
507,79	1269,74
507,99	1245,16
508,19	1267,69
508,39	1269,74
508,59	1308,65
508,79	1275,88
508,99	1218,54
509,19	1251,31
509,39	1234,93
509,59	1261,55
509,79	1271,79
509,99	1263,60
510,19	1339,37
510,39	1322,99
510,59	1275,88
510,79	1273,84
510,99	1302,51
511,19	1230,83
511,39	1337,32
511,59	1284,08
511,79	1191,92
511,99	1247,21
512,19	1308,65
512,38	1257,45
512,58	1279,98
512,78	1298,41
512,98	1224,69
513,18	1294,32
513,38	1271,79
513,58	1255,40
513,78	1320,94
513,98	1298,41
514,18	1247,21
514,38	1294,32
514,58	1290,22
514,78	1345,52
514,98	1347,56
515,18	1331,18
515,38	1366,00
515,58	1320,94
515,78	1267,69
515,98	1273,84
516,18	1312,75
516,38	1263,60
516,57	1247,21
516,77	1333,23
516,97	1232,88
517,17	1218,54
517,37	1200,11
517,57	1232,88
517,77	1325,04
517,97	1296,36
518,17	1282,03
518,37	1296,36
518,57	1204,21
518,77	1222,64
518,97	1232,88
519,16	1312,75
519,36	1253,36
519,56	1318,89
519,76	1312,75
519,96	1263,60
520,16	1312,75
520,36	1269,74
520,56	1214,45
520,76	1337,32
520,96	1306,60
521,16	1298,41
521,35	1273,84
521,55	1265,64
521,75	1314,80
521,95	1339,37
522,15	1282,03
522,35	1224,69
522,55	1245,16
522,75	1271,79
522,95	1368,04
523,14	1251,31
523,34	1257,45
523,54	1241,07
523,74	1196,01
523,94	1325,04
524,14	1208,30
524,34	1228,78
524,54	1277,93
524,73	1339,37
524,93	1306,60
525,13	1273,84
525,33	1261,55
525,53	1282,03
525,73	1253,36
525,93	1300,46
526,13	1282,03
526,32	1282,03
526,52	1269,74
526,72	1296,36
526,92	1277,93
527,12	1249,26
527,32	1304,56
527,52	1279,98
527,71	1247,21
527,91	1333,23
528,11	1312,75
528,31	1329,13
528,51	1220,59
528,71	1255,40
528,90	1224,69
529,10	1271,79
529,30	1204,21
529,50	1271,79
529,70	1214,45
529,90	1255,40
530,09	1253,36
530,29	1222,64
530,49	1316,84
530,69	1294,32
530,89	1206,25
531,09	1298,41
531,28	1308,65
531,48	1263,60
531,68	1226,73
531,88	1249,26
532,08	1214,45
532,28	1259,50
532,47	1263,60
532,67	1236,97
532,87	1208,30
533,07	1296,36
533,27	1294,32
533,46	1236,97
533,66	1374,19
533,86	1257,45
534,06	1349,61
534,26	1255,40
534,45	1288,17
534,65	1292,27
534,85	1257,45
535,05	1259,50
535,25	1304,56
535,44	1267,69
535,64	1198,06
535,84	1236,97
536,04	1253,36
536,24	1279,98
536,43	1212,40
536,63	1269,74
536,83	1312,75
537,03	1318,89
537,22	1214,45
537,42	1282,03
537,62	1226,73
537,82	1228,78
538,02	1230,83
538,21	1284,08
538,41	1216,49
538,61	1259,50
538,81	1234,93
539,00	1314,80
539,20	1275,88
539,40	1298,41
539,60	1267,69
539,79	1239,02
539,99	1366,00
540,19	1220,59
540,39	1216,49
540,58	1200,11
540,78	1322,99
540,98	1318,89
541,18	1288,17
541,37	1357,80
541,57	1196,01
541,77	1302,51
541,97	1230,83
542,16	1183,73
542,36	1302,51
542,56	1261,55
542,76	1294,32
542,95	1302,51
543,15	1310,70
543,35	1300,46
543,54	1249,26
543,74	1279,98
543,94	1261,55
544,14	1228,78
544,33	1335,28
544,53	1271,79
544,73	1306,60
544,93	1206,25
545,12	1290,22
545,32	1294,32
545,52	1169,39
545,71	1382,38
545,91	1298,41
546,11	1224,69
546,30	1353,71
546,50	1261,55
546,70	1329,13
546,90	1314,80
547,09	1228,78
547,29	1255,40
547,49	1316,84
547,68	1337,32
547,88	1353,71
548,08	1271,79
548,27	1335,28
548,47	1302,51
548,67	1290,22
548,87	1372,14
549,06	1210,35
549,26	1263,60
549,46	1388,52
549,65	1216,49
549,85	1228,78
550,05	1361,90
550,24	1294,32
550,44	1286,12
550,64	1218,54
550,83	1331,18
551,03	1277,93
551,23	1265,64
551,42	1318,89
551,62	1345,52
551,82	1255,40
552,01	1357,80
552,21	1302,51
552,41	1304,56
552,60	1218,54
552,80	1302,51
553,00	1320,94
553,19	1220,59
553,39	1290,22
553,59	1265,64
553,78	1284,08
553,98	1298,41
554,17	1255,40
554,37	1232,88
554,57	1273,84
554,76	1273,84
554,96	1243,12
555,16	1288,17
555,35	1263,60
555,55	1312,75
555,75	1222,64
555,94	1263,60
556,14	1290,22
556,33	1296,36
556,53	1300,46
556,73	1322,99
556,92	1325,04
557,12	1339,37
557,32	1290,22
557,51	1236,97
557,71	1359,85
557,90	1351,66
558,10	1284,08
558,30	1275,88
558,49	1284,08
558,69	1277,93
558,88	1265,64
559,08	1304,56
559,28	1251,31
559,47	1275,88
559,67	1275,88
559,86	1331,18
560,06	1218,54
560,26	1304,56
560,45	1275,88
560,65	1357,80
560,84	1347,56
561,04	1275,88
561,24	1212,40
561,43	1345,52
561,63	1331,18
561,82	1343,47
562,02	1267,69
562,22	1322,99
562,41	1304,56
562,61	1327,08
562,80	1253,36
563,00	1269,74
563,19	1263,60
563,39	1273,84
563,59	1263,60
563,78	1261,55
563,98	1236,97
564,17	1261,55
564,37	1380,33
564,56	1298,41
564,76	1263,60
564,96	1236,97
565,15	1318,89
565,35	1347,56
565,54	1288,17
565,74	1259,50
565,93	1329,13
566,13	1310,70
566,32	1284,08
566,52	1327,08
566,71	1265,64
566,91	1210,35
567,11	1271,79
567,30	1212,40
567,50	1267,69
567,69	1271,79
567,89	1320,94
568,08	1263,60
568,28	1279,98
568,47	1263,60
568,67	1308,65
568,86	1343,47
569,06	1294,32
569,25	1259,50
569,45	1220,59
569,64	1273,84
569,84	1314,80
570,04	1314,80
570,23	1220,59
570,43	1320,94
570,62	1275,88
570,82	1255,40
571,01	1259,50
571,21	1290,22
571,40	1351,66
571,60	1259,50
571,79	1263,60
571,99	1232,88
572,18	1275,88
572,38	1267,69
572,57	1196,01
572,77	1222,64
572,96	1226,73
573,16	1206,25
573,35	1325,04
573,55	1329,13
573,74	1339,37
573,94	1308,65
574,13	1279,98
574,33	1257,45
574,52	1273,84
574,71	1351,66
574,91	1269,74
575,10	1306,60
575,30	1277,93
575,49	1249,26
575,69	1261,55
575,88	1298,41
576,08	1302,51
576,27	1232,88
576,47	1200,11
576,66	1271,79
576,86	1282,03
577,05	1284,08
577,25	1267,69
577,44	1294,32
577,64	1318,89
577,83	1269,74
578,02	1275,88
578,22	1322,99
578,41	1306,60
578,61	1382,38
578,80	1239,02
579,00	1263,60
579,19	1333,23
579,39	1306,60
579,58	1296,36
579,77	1243,12
579,97	1226,73
580,16	1277,93
580,36	1288,17
580,55	1251,31
580,75	1316,84
580,94	1298,41
581,13	1322,99
581,33	1292,27
581,52	1267,69
581,72	1298,41
581,91	1234,93
582,11	1294,32
582,30	1335,28
582,49	1239,02
582,69	1331,18
582,88	1294,32
583,08	1341,42
583,27	1314,80
583,47	1275,88
583,66	1253,36
583,85	1261,55
584,05	1292,27
584,24	1357,80
584,44	1300,46
584,63	1320,94
584,82	1370,09
585,02	1322,99
585,21	1226,73
585,41	1316,84
585,60	1257,45
585,79	1277,93
585,99	1314,80
586,18	1359,85
586,37	1300,46
586,57	1261,55
586,76	1302,51
586,96	1275,88
587,15	1251,31
587,34	1236,97
587,54	1341,42
587,73	1290,22
587,93	1288,17
588,12	1282,03
588,31	1279,98
588,51	1308,65
588,70	1232,88
588,89	1279,98
589,09	1263,60
589,28	1279,98
589,47	1279,98
589,67	1292,27
589,86	1318,89
590,06	1253,36
590,25	1263,60
590,44	1331,18
590,64	1273,84
590,83	1232,88
591,02	1331,18
591,22	1275,88
591,41	1306,60
591,60	1216,49
591,80	1279,98
591,99	1273,84
592,18	1279,98
592,38	1363,95
592,57	1296,36
592,76	1333,23
592,96	1284,08
593,15	1259,50
593,34	1208,30
593,54	1290,22
593,73	1288,17
593,92	1236,97
594,12	1279,98
594,31	1298,41
594,50	1320,94
594,70	1294,32
594,89	1226,73
595,08	1230,83
595,28	1300,46
595,47	1296,36
595,66	1310,70
595,86	1253,36
596,05	1333,23
596,24	1245,16
596,43	1284,08
596,63	1288,17
596,82	1331,18
597,01	1271,79
597,21	1257,45
597,40	1353,71
597,59	1288,17
597,79	1275,88
597,98	1347,56
598,17	1284,08
598,36	1282,03
598,56	1316,84
598,75	1296,36
598,94	1294,32
599,14	1271,79
599,33	1343,47
599,52	1359,85
599,71	1273,84
599,91	1292,27
600,10	1347,56
600,29	1265,64
600,48	1267,69
600,68	1279,98
600,87	1251,31
601,06	1302,51
601,26	1308,65
601,45	1265,64
601,64	1269,74
601,83	1282,03
602,03	1249,26
602,22	1273,84
602,41	1298,41
602,60	1314,80
602,80	1286,12
602,99	1275,88
603,18	1284,08
603,37	1275,88
603,57	1359,85
603,76	1261,55
603,95	1236,97
604,14	1261,55
604,34	1290,22
604,53	1267,69
604,72	1251,31
604,91	1267,69
605,10	1286,12
605,30	1296,36
605,49	1300,46
605,68	1269,74
605,87	1191,92
606,07	1296,36
606,26	1304,56
606,45	1310,70
606,64	1329,13
606,84	1343,47
607,03	1269,74
607,22	1396,71
607,41	1322,99
607,60	1308,65
607,80	1259,50
607,99	1284,08
608,18	1345,52
608,37	1316,84
608,56	1255,40
608,76	1296,36
608,95	1294,32
609,14	1216,49
609,33	1294,32
609,52	1253,36
609,72	1290,22
609,91	1267,69
610,10	1257,45
610,29	1290,22
610,48	1335,28
610,68	1279,98
610,87	1304,56
611,06	1335,28
611,25	1277,93
611,44	1320,94
611,63	1255,40
611,83	1329,13
612,02	1282,03
612,21	1314,80
612,40	1253,36
612,59	1241,07
612,79	1296,36
612,98	1261,55
613,17	1308,65
613,36	1353,71
613,55	1310,70
613,74	1331,18
613,93	1302,51
614,13	1308,65
614,32	1292,27
614,51	1357,80
614,70	1353,71
614,89	1312,75
615,08	1271,79
615,28	1312,75
615,47	1216,49
615,66	1292,27
615,85	1335,28
616,04	1247,21
616,23	1335,28
616,42	1271,79
616,62	1298,41
616,81	1327,08
617,00	1251,31
617,19	1310,70
617,38	1282,03
617,57	1329,13
617,76	1322,99
617,95	1292,27
618,15	1279,98
618,34	1335,28
618,53	1302,51
618,72	1282,03
618,91	1339,37
619,10	1257,45
619,29	1261,55
619,48	1282,03
619,68	1341,42
619,87	1273,84
620,06	1265,64
620,25	1228,78
620,44	1310,70
620,63	1288,17
620,82	1247,21
621,01	1208,30
621,20	1273,84
621,39	1282,03
621,59	1226,73
621,78	1355,76
621,97	1243,12
622,16	1386,47
622,35	1193,97
622,54	1286,12
622,73	1257,45
622,92	1259,50
623,11	1318,89
623,30	1318,89
623,49	1282,03
623,68	1302,51
623,88	1269,74
624,07	1273,84
624,26	1282,03
624,45	1261,55
624,64	1218,54
624,83	1241,07
625,02	1331,18
625,21	1312,75
625,40	1232,88
625,59	1257,45
625,78	1277,93
625,97	1249,26
626,16	1310,70
626,35	1300,46
626,54	1339,37
626,74	1341,42
626,93	1366,00
627,12	1269,74
627,31	1304,56
627,50	1271,79
627,69	1290,22
627,88	1304,56
628,07	1335,28
628,26	1279,98
628,45	1333,23
628,64	1312,75
628,83	1300,46
629,02	1286,12
629,21	1351,66
629,40	1282,03
629,59	1245,16
629,78	1339,37
629,97	1312,75
630,16	1329,13
630,35	1251,31
630,54	1333,23
630,73	1308,65
630,92	1306,60
631,11	1355,76
631,30	1288,17
631,49	1286,12
631,68	1462,25
631,87	1388,52
632,06	1427,43
632,25	1388,52
632,44	1368,04
632,63	1435,63
632,82	1472,49
633,01	1380,33
633,20	1419,24
633,39	1447,91
633,58	1443,82
633,77	1337,32
633,96	1429,48
634,15	1449,96
634,34	1460,20
634,53	1447,91
634,72	1357,80
634,91	1492,97
635,10	1392,62
635,29	1382,38
635,48	1409,00
635,67	1388,52
635,86	1425,39
636,05	1406,95
636,24	1400,81
636,43	1347,56
636,62	1423,34
636,81	1359,85
637,00	1368,04
637,19	1292,27
637,38	1337,32
637,57	1286,12
637,76	1359,85
637,95	1347,56
638,14	1292,27
638,33	1273,84
638,52	1310,70
638,71	1327,08
638,89	1292,27
639,08	1341,42
639,27	1269,74
639,46	1183,73
639,65	1306,60
639,84	1275,88
640,03	1349,61
640,22	1251,31
640,41	1355,76
640,60	1202,16
640,79	1249,26
640,98	1245,16
641,17	1308,65
641,36	1196,01
641,55	1355,76
641,74	1263,60
641,92	1396,71
642,11	1200,11
642,30	1187,82
642,49	1279,98
642,68	1329,13
642,87	1286,12
643,06	1331,18
643,25	1331,18
643,44	1312,75
643,63	1284,08
643,82	1273,84
644,00	1218,54
644,19	1277,93
644,38	1302,51
644,57	1353,71
644,76	1226,73
644,95	1329,13
645,14	1318,89
645,33	1298,41
645,52	1292,27
645,71	1251,31
645,89	1312,75
646,08	1318,89
646,27	1243,12
646,46	1306,60
646,65	1214,45
646,84	1314,80
647,03	1296,36
647,22	1255,40
647,40	1370,09
647,59	1298,41
647,78	1247,21
647,97	1339,37
648,16	1253,36
648,35	1259,50
648,54	1257,45
648,73	1286,12
648,91	1304,56
649,10	1282,03
649,29	1230,83
649,48	1314,80
649,67	1314,80
649,86	1318,89
650,05	1288,17
650,23	1322,99
650,42	1228,78
650,61	1249,26
650,80	1267,69
650,99	1222,64
651,18	1261,55
651,36	1277,93
651,55	1232,88
651,74	1208,30
651,93	1247,21
652,12	1222,64
652,31	1267,69
652,49	1333,23
652,68	1286,12
652,87	1331,18
653,06	1327,08
653,25	1257,45
653,44	1228,78
653,62	1255,40
653,81	1318,89
654,00	1306,60
654,19	1263,60
654,38	1247,21
654,56	1202,16
654,75	1294,32
654,94	1320,94
655,13	1363,95
655,32	1318,89
655,51	1298,41
655,69	1282,03
655,88	1253,36
656,07	1300,46
656,26	1310,70
656,45	1255,40
656,63	1318,89
656,82	1308,65
657,01	1255,40
657,20	1253,36
657,38	1245,16
657,57	1300,46
657,76	1300,46
657,95	1239,02
658,14	1306,60
658,32	1263,60
658,51	1226,73
658,70	1236,97
658,89	1275,88
659,08	1198,06
659,26	1318,89
659,45	1294,32
659,64	1247,21
659,83	1306,60
660,01	1273,84
660,20	1251,31
660,39	1286,12
660,58	1277,93
660,76	1279,98
660,95	1290,22
661,14	1271,79
661,33	1263,60
661,51	1249,26
661,70	1282,03
661,89	1294,32
662,08	1234,93
662,26	1267,69
662,45	1247,21
662,64	1304,56
662,83	1249,26
663,01	1269,74
663,20	1298,41
663,39	1322,99
663,58	1284,08
663,76	1259,50
663,95	1306,60
664,14	1257,45
664,32	1226,73
664,51	1273,84
664,70	1257,45
664,89	1282,03
665,07	1222,64
665,26	1329,13
665,45	1259,50
665,64	1273,84
665,82	1275,88
666,01	1234,93
666,20	1185,77
666,38	1302,51
666,57	1224,69
666,76	1325,04
666,95	1243,12
667,13	1257,45
667,32	1286,12
667,51	1241,07
667,69	1304,56
667,88	1292,27
668,07	1220,59
668,25	1273,84
668,44	1314,80
668,63	1351,66
668,81	1279,98
669,00	1241,07
669,19	1320,94
669,38	1337,32
669,56	1144,81
669,75	1294,32
669,94	1222,64
670,12	1298,41
670,31	1210,35
670,50	1277,93
670,68	1245,16
670,87	1275,88
671,06	1286,12
671,24	1327,08
671,43	1247,21
671,62	1273,84
671,80	1290,22
671,99	1302,51
672,18	1261,55
672,36	1290,22
672,55	1282,03
672,74	1284,08
672,92	1257,45
673,11	1271,79
673,29	1298,41
673,48	1263,60
673,67	1222,64
673,85	1247,21
674,04	1329,13
674,23	1335,28
674,41	1306,60
674,60	1327,08
674,79	1245,16
674,97	1279,98
675,16	1228,78
675,34	1351,66
675,53	1294,32
675,72	1290,22
675,90	1327,08
676,09	1251,31
676,28	1220,59
676,46	1232,88
676,65	1300,46
676,83	1306,60
677,02	1282,03
677,21	1271,79
677,39	1251,31
677,58	1236,97
677,77	1308,65
677,95	1310,70
678,14	1275,88
678,32	1257,45
678,51	1286,12
678,70	1261,55
678,88	1298,41
679,07	1288,17
679,25	1286,12
679,44	1306,60
679,63	1310,70
679,81	1298,41
680,00	1345,52
680,18	1224,69
680,37	1282,03
680,55	1279,98
680,74	1269,74
680,93	1300,46
681,11	1255,40
681,30	1216,49
681,48	1288,17
681,67	1236,97
681,85	1247,21
682,04	1290,22
682,23	1306,60
682,41	1271,79
682,60	1273,84
682,78	1253,36
682,97	1177,58
683,15	1300,46
683,34	1312,75
683,53	1271,79
683,71	1290,22
683,90	1222,64
684,08	1298,41
684,27	1228,78
684,45	1236,97
684,64	1265,64
684,82	1257,45
685,01	1329,13
685,19	1243,12
685,38	1241,07
685,57	1337,32
685,75	1230,83
685,94	1241,07
686,12	1320,94
686,31	1241,07
686,49	1308,65
686,68	1257,45
686,86	1298,41
687,05	1294,32
687,23	1230,83
687,42	1198,06
687,60	1257,45
687,79	1171,44
687,97	1345,52
688,16	1366,00
688,34	1290,22
688,53	1232,88
688,71	1220,59
688,90	1306,60
689,08	1296,36
689,27	1318,89
689,45	1286,12
689,64	1251,31
689,82	1177,58
690,01	1312,75
690,19	1265,64
690,38	1251,31
690,56	1331,18
690,75	1290,22
690,93	1245,16
691,12	1282,03
691,30	1296,36
691,49	1222,64
691,67	1277,93
691,86	1320,94
692,04	1292,27
692,23	1259,50
692,41	1249,26
692,60	1298,41
692,78	1341,42
692,97	1253,36
693,15	1208,30
693,34	1216,49
693,52	1265,64
693,71	1277,93
693,89	1277,93
694,08	1298,41
694,26	1245,16
694,44	1261,55
694,63	1210,35
694,81	1302,51
695,00	1273,84
695,18	1257,45
695,37	1361,90
695,55	1249,26
695,74	1265,64
695,92	1241,07
696,10	1339,37
696,29	1271,79
696,47	1320,94
696,66	1286,12
696,84	1288,17
697,03	1282,03
697,21	1224,69
697,40	1318,89
697,58	1292,27
697,76	1290,22
697,95	1310,70
698,13	1282,03
698,32	1226,73
698,50	1234,93
698,68	1298,41
698,87	1300,46
699,05	1261,55
699,24	1230,83
699,42	1290,22
699,61	1271,79
699,79	1275,88
699,97	1316,84
700,16	1261,55
700,34	1265,64
700,53	1253,36
700,71	1279,98
700,89	1247,21
701,08	1284,08
701,26	1265,64
701,45	1275,88
701,63	1269,74
701,81	1310,70
702,00	1241,07
702,18	1310,70
702,37	1234,93
702,55	1279,98
702,73	1282,03
702,92	1286,12
703,10	1208,30
703,28	1234,93
703,47	1312,75
703,65	1232,88
703,84	1304,56
704,02	1255,40
704,20	1327,08
704,39	1273,84
704,57	1239,02
704,75	1230,83
704,94	1273,84
705,12	1310,70
705,30	1269,74
705,49	1282,03
705,67	1193,97
705,86	1261,55
706,04	1300,46
706,22	1261,55
706,41	1279,98
706,59	1249,26
706,77	1316,84
706,96	1249,26
707,14	1259,50
707,32	1292,27
707,51	1310,70
707,69	1241,07
707,87	1267,69
708,06	1232,88
708,24	1331,18
708,42	1296,36
708,61	1253,36
708,79	1220,59
708,97	1296,36
709,16	1234,93
709,34	1261,55
709,52	1269,74
709,71	1265,64
709,89	1214,45
710,07	1257,45
710,26	1290,22
710,44	1249,26
710,62	1257,45
710,80	1239,02
710,99	1310,70
711,17	1275,88
711,35	1314,80
711,54	1249,26
711,72	1288,17
711,90	1265,64
712,09	1234,93
712,27	1234,93
712,45	1271,79
712,63	1282,03
712,82	1355,76
713,00	1249,26
713,18	1288,17
713,37	1261,55
713,55	1269,74
713,73	1277,93
713,91	1243,12
714,10	1325,04
714,28	1253,36
714,46	1300,46
714,65	1292,27
714,83	1327,08
715,01	1279,98
715,19	1284,08
715,38	1253,36
715,56	1257,45
715,74	1249,26
715,92	1331,18
716,11	1277,93
716,29	1306,60
716,47	1253,36
716,65	1255,40
716,84	1247,21
717,02	1267,69
717,20	1279,98
717,38	1179,63
717,57	1230,83
717,75	1257,45
717,93	1220,59
718,11	1222,64
718,30	1378,28
718,48	1257,45
718,66	1263,60
718,84	1230,83
719,03	1282,03
719,21	1273,84
719,39	1290,22
719,57	1288,17
719,75	1282,03
719,94	1308,65
720,12	1314,80
720,30	1198,06
720,48	1300,46
720,67	1273,84
720,85	1318,89
721,03	1216,49
721,21	1236,97
721,39	1314,80
721,58	1366,00
721,76	1329,13
721,94	1232,88
722,12	1310,70
722,30	1251,31
722,49	1302,51
722,67	1249,26
722,85	1302,51
723,03	1249,26
723,21	1263,60
723,40	1341,42
723,58	1290,22
723,76	1247,21
723,94	1279,98
724,12	1284,08
724,30	1200,11
724,49	1187,82
724,67	1296,36
724,85	1267,69
725,03	1265,64
725,21	1300,46
725,40	1282,03
725,58	1204,21
725,76	1304,56
725,94	1257,45
726,12	1275,88
726,30	1243,12
726,49	1267,69
726,67	1249,26
726,85	1320,94
727,03	1224,69
727,21	1206,25
727,39	1257,45
727,57	1306,60
727,76	1257,45
727,94	1189,87
728,12	1230,83
728,30	1255,40
728,48	1339,37
728,66	1218,54
728,84	1353,71
729,03	1232,88
729,21	1251,31
729,39	1212,40
729,57	1261,55
729,75	1335,28
729,93	1374,19
730,11	1257,45
730,30	1271,79
730,48	1230,83
730,66	1261,55
730,84	1271,79
731,02	1306,60
731,20	1200,11
731,38	1267,69
731,56	1185,77
731,74	1239,02
731,93	1273,84
732,11	1322,99
732,29	1245,16
732,47	1265,64
732,65	1284,08
732,83	1302,51
733,01	1308,65
733,19	1163,25
733,37	1286,12
733,56	1294,32
733,74	1245,16
733,92	1339,37
734,10	1304,56
734,28	1189,87
734,46	1314,80
734,64	1282,03
734,82	1224,69
735,00	1261,55
735,18	1247,21
735,36	1257,45
735,54	1271,79
735,73	1253,36
735,91	1243,12
736,09	1271,79
736,27	1234,93
736,45	1206,25
736,63	1279,98
736,81	1265,64
736,99	1288,17
737,17	1267,69
737,35	1288,17
737,53	1243,12
737,71	1298,41
737,89	1282,03
738,07	1253,36
738,25	1302,51
738,43	1261,55
738,61	1247,21
738,80	1265,64
738,98	1290,22
739,16	1255,40
739,34	1273,84
739,52	1224,69
739,70	1314,80
739,88	1253,36
740,06	1198,06
740,24	1241,07
740,42	1200,11
740,60	1202,16
740,78	1267,69
740,96	1275,88
741,14	1214,45
741,32	1288,17
741,50	1271,79
741,68	1239,02
741,86	1298,41
742,04	1189,87
742,22	1279,98
742,40	1232,88
742,58	1251,31
742,76	1232,88
742,94	1171,44
743,12	1228,78
743,30	1298,41
743,48	1265,64
743,66	1206,25
743,84	1218,54
744,02	1222,64
744,20	1263,60
744,38	1273,84
744,56	1236,97
744,74	1290,22
744,92	1294,32
745,10	1259,50
745,28	1312,75
745,46	1218,54
745,64	1329,13
745,82	1257,45
746,00	1241,07
746,18	1290,22
746,36	1259,50
746,54	1282,03
746,72	1259,50
746,90	1241,07
747,08	1316,84
747,26	1277,93
747,44	1245,16
747,62	1230,83
747,80	1271,79
747,98	1202,16
748,15	1263,60
748,33	1257,45
748,51	1239,02
748,69	1253,36
748,87	1314,80
749,05	1224,69
749,23	1228,78
749,41	1241,07
749,59	1236,97
749,77	1355,76
749,95	1259,50
750,13	1347,56
750,31	1284,08
750,49	1269,74
750,67	1318,89
750,85	1279,98
751,03	1118,19
751,20	1167,34
751,38	1288,17
751,56	1325,04
751,74	1189,87
751,92	1282,03
752,10	1265,64
752,28	1269,74
752,46	1261,55
752,64	1257,45
752,82	1253,36
753,00	1282,03
753,18	1255,40
753,35	1239,02
753,53	1275,88
753,71	1251,31
753,89	1320,94
754,07	1279,98
754,25	1259,50
754,43	1290,22
754,61	1263,60
754,79	1167,34
754,97	1157,10
755,14	1220,59
755,32	1247,21
755,50	1261,55
755,68	1224,69
755,86	1247,21
756,04	1263,60
756,22	1284,08
756,40	1322,99
756,57	1202,16
756,75	1204,21
756,93	1302,51
757,11	1294,32
757,29	1257,45
757,47	1263,60
757,65	1245,16
757,82	1220,59
758,00	1265,64
758,18	1304,56
758,36	1228,78
758,54	1257,45
758,72	1282,03
758,90	1337,32
759,07	1198,06
759,25	1263,60
759,43	1277,93
759,61	1271,79
759,79	1267,69
759,97	1282,03
760,15	1282,03
760,32	1290,22
760,50	1361,90
760,68	1269,74
760,86	1282,03
761,04	1298,41
761,22	1265,64
761,39	1304,56
761,57	1282,03
761,75	1312,75
761,93	1282,03
762,11	1341,42
762,28	1267,69
762,46	1306,60
762,64	1239,02
762,82	1269,74
763,00	1236,97
763,18	1239,02
763,35	1296,36
763,53	1200,11
763,71	1189,87
763,89	1230,83
764,07	1234,93
764,24	1296,36
764,42	1271,79
764,60	1241,07
764,78	1181,68
764,96	1257,45
765,13	1304,56
765,31	1249,26
765,49	1298,41
765,67	1312,75
765,84	1220,59
766,02	1193,97
766,20	1284,08
766,38	1245,16
766,56	1282,03
766,73	1253,36
766,91	1277,93
767,09	1257,45
767,27	1277,93
767,44	1284,08
767,62	1277,93
767,80	1230,83
767,98	1312,75
768,15	1261,55
768,33	1245,16
768,51	1267,69
768,69	1335,28
768,87	1290,22
769,04	1239,02
769,22	1241,07
769,40	1325,04
769,58	1265,64
769,75	1224,69
769,93	1296,36
770,11	1271,79
770,28	1263,60
770,46	1265,64
770,64	1279,98
770,82	1267,69
770,99	1257,45
771,17	1331,18
771,35	1306,60
771,53	1259,50
771,70	1265,64
771,88	1239,02
772,06	1245,16
772,23	1216,49
772,41	1292,27
772,59	1284,08
772,77	1253,36
772,94	1259,50
773,12	1239,02
773,30	1232,88
773,47	1228,78
773,65	1249,26
773,83	1286,12
774,01	1259,50
774,18	1267,69
774,36	1349,61
774,54	1325,04
774,71	1220,59
774,89	1286,12
775,07	1257,45
775,24	1312,75
775,42	1253,36
775,60	1306,60
775,78	1282,03
775,95	1220,59
776,13	1245,16
776,31	1232,88
776,48	1222,64
776,66	1234,93
776,84	1288,17
777,01	1277,93
777,19	1267,69
777,37	1294,32
777,54	1279,98
777,72	1253,36
777,90	1306,60
778,07	1267,69
778,25	1247,21
778,43	1298,41
778,60	1290,22
778,78	1312,75
778,96	1259,50
779,13	1259,50
779,31	1294,32
779,49	1279,98
779,66	1267,69
779,84	1198,06
780,01	1263,60
780,19	1282,03
780,37	1265,64
780,54	1345,52
780,72	1236,97
780,90	1265,64
781,07	1288,17
781,25	1335,28
781,43	1333,23
781,60	1181,68
781,78	1208,30
781,95	1310,70
782,13	1232,88
782,31	1224,69
782,48	1273,84
782,66	1277,93
782,83	1308,65
783,01	1308,65
783,19	1214,45
783,36	1249,26
783,54	1239,02
783,72	1263,60
783,89	1314,80
784,07	1245,16
784,24	1273,84
784,42	1273,84
784,60	1239,02
784,77	1263,60
784,95	1267,69
785,12	1282,03
785,30	1255,40
785,47	1247,21
785,65	1243,12
785,83	1249,26
786,00	1298,41
786,18	1245,16
786,35	1200,11
786,53	1290,22
786,71	1187,82
786,88	1275,88
787,06	1275,88
787,23	1220,59
787,41	1279,98
787,58	1236,97
787,76	1292,27
787,94	1253,36
788,11	1273,84
788,29	1247,21
788,46	1243,12
788,64	1245,16
788,81	1261,55
788,99	1216,49
789,16	1228,78
789,34	1286,12
789,52	1333,23
789,69	1255,40
789,87	1181,68
790,04	1232,88
790,22	1265,64
790,39	1271,79
790,57	1251,31
790,74	1331,18
790,92	1214,45
791,09	1253,36
791,27	1269,74
791,44	1251,31
791,62	1232,88
791,79	1314,80
791,97	1279,98
792,15	1282,03
792,32	1214,45
792,50	1292,27
792,67	1228,78
792,85	1241,07
793,02	1222,64
793,20	1290,22
793,37	1271,79
793,55	1279,98
793,72	1267,69
793,90	1312,75
794,07	1218,54
794,25	1329,13
794,42	1322,99
794,60	1269,74
794,77	1189,87
794,95	1249,26
795,12	1220,59
795,30	1294,32
795,47	1271,79
795,65	1245,16
795,82	1208,30
796,00	1181,68
796,17	1333,23
796,34	1294,32
796,52	1271,79
796,69	1269,74
796,87	1294,32
797,04	1273,84
797,22	1216,49
797,39	1279,98
797,57	1230,83
797,74	1277,93
797,92	1210,35
798,09	1298,41
798,27	1325,04
798,44	1189,87
798,62	1245,16
798,79	1253,36
798,96	1257,45
799,14	1284,08
799,31	1322,99
799,49	1263,60
799,66	1255,40
799,84	1212,40
800,01	1273,84
800,19	1290,22
800,36	1253,36
800,53	1251,31
800,71	1206,25
800,88	1282,03
801,06	1288,17
801,23	1275,88
801,41	1259,50
801,58	1261,55
801,75	1255,40
801,93	1288,17
802,10	1269,74
802,28	1265,64
802,45	1228,78
802,63	1288,17
802,80	1306,60
802,97	1277,93
803,15	1279,98
803,32	1241,07
803,50	1259,50
803,67	1239,02
803,84	1232,88
804,02	1253,36
804,19	1198,06
804,37	1245,16
804,54	1316,84
804,71	1273,84
804,89	1271,79
805,06	1349,61
805,24	1202,16
805,41	1239,02
805,58	1331,18
805,76	1234,93
805,93	1224,69
806,10	1275,88
806,28	1257,45
806,45	1314,80
806,63	1271,79
806,80	1259,50
806,97	1265,64
807,15	1271,79
807,32	1345,52
807,49	1226,73
807,67	1245,16
807,84	1286,12
808,01	1193,97
808,19	1282,03
808,36	1267,69
808,54	1216,49
808,71	1290,22
808,88	1208,30
809,06	1300,46
809,23	1247,21
809,40	1220,59
809,58	1277,93
809,75	1267,69
809,92	1228,78
810,10	1263,60
810,27	1196,01
810,44	1214,45
810,62	1282,03
810,79	1257,45
810,96	1251,31
811,14	1271,79
811,31	1265,64
811,48	1265,64
811,66	1306,60
811,83	1261,55
812,00	1232,88
812,18	1304,56
812,35	1251,31
812,52	1251,31
812,69	1255,40
812,87	1316,84
813,04	1249,26
813,21	1243,12
813,39	1320,94
813,56	1277,93
813,73	1243,12
813,91	1234,93
814,08	1347,56
814,25	1253,36
814,42	1327,08
814,60	1290,22
814,77	1386,47
814,94	1308,65
815,12	1228,78
815,29	1224,69
815,46	1267,69
815,63	1292,27
815,81	1320,94
815,98	1230,83
816,15	1284,08
816,33	1265,64
816,50	1273,84
816,67	1290,22
816,84	1296,36
817,02	1333,23
817,19	1302,51
817,36	1318,89
817,53	1290,22
817,71	1300,46
817,88	1353,71
818,05	1304,56
818,22	1228,78
818,40	1241,07
818,57	1333,23
818,74	1302,51
818,91	1257,45
819,09	1302,51
819,26	1298,41
819,43	1271,79
819,60	1329,13
819,78	1259,50
819,95	1275,88
820,12	1296,36
820,29	1243,12
820,47	1275,88
820,64	1269,74
820,81	1265,64
820,98	1249,26
821,15	1224,69
821,33	1329,13
821,50	1292,27
821,67	1284,08
821,84	1368,04
822,02	1261,55
822,19	1208,30
822,36	1320,94
822,53	1277,93
822,70	1228,78
822,88	1335,28
823,05	1298,41
823,22	1329,13
823,39	1230,83
823,56	1181,68
823,74	1216,49
823,91	1316,84
824,08	1306,60
824,25	1304,56
824,42	1298,41
824,60	1243,12
824,77	1263,60
824,94	1157,10
825,11	1236,97
825,28	1232,88
825,45	1232,88
825,63	1294,32
825,80	1239,02
825,97	1196,01
826,14	1245,16
826,31	1218,54
826,48	1298,41
826,66	1191,92
826,83	1259,50
827,00	1220,59
827,17	1277,93
827,34	1273,84
827,51	1296,36
827,69	1230,83
827,86	1292,27
828,03	1320,94
828,20	1214,45
828,37	1279,98
828,54	1304,56
828,71	1279,98
828,89	1279,98
829,06	1273,84
829,23	1335,28
829,40	1249,26
829,57	1212,40
829,74	1290,22
829,91	1265,64
830,09	1318,89
830,26	1241,07
830,43	1314,80
830,60	1265,64
830,77	1277,93
830,94	1255,40
831,11	1214,45
831,28	1245,16
831,46	1282,03
831,63	1253,36
831,80	1245,16
831,97	1263,60
832,14	1339,37
832,31	1247,21
832,48	1228,78
832,65	1259,50
832,82	1286,12
832,99	1277,93
833,17	1222,64
833,34	1218,54
833,51	1275,88
833,68	1271,79
833,85	1179,63
834,02	1181,68
834,19	1251,31
834,36	1286,12
834,53	1327,08
834,70	1232,88
834,87	1284,08
835,04	1216,49
835,22	1308,65
835,39	1253,36
835,56	1218,54
835,73	1243,12
835,90	1284,08
836,07	1320,94
836,24	1234,93
836,41	1286,12
836,58	1294,32
836,75	1320,94
836,92	1318,89
837,09	1236,97
837,26	1302,51
837,43	1234,93
837,60	1265,64
837,77	1282,03
837,94	1257,45
838,12	1275,88
838,29	1261,55
838,46	1249,26
838,63	1236,97
838,80	1296,36
838,97	1236,97
839,14	1363,95
839,31	1300,46
839,48	1279,98
839,65	1155,05
839,82	1271,79
839,99	1216,49
840,16	1339,37
840,33	1286,12
840,50	1320,94
840,67	1241,07
840,84	1277,93
841,01	1263,60
841,18	1279,98
841,35	1337,32
841,52	1257,45
841,69	1218,54
841,86	1290,22
842,03	1220,59
842,20	1259,50
842,37	1257,45
842,54	1318,89
842,71	1322,99
842,88	1236,97
843,05	1300,46
843,22	1243,12
843,39	1265,64
843,56	1243,12
843,73	1322,99
843,90	1288,17
844,07	1167,34
844,24	1230,83
844,41	1286,12
844,58	1282,03
844,75	1347,56
844,92	1284,08
845,09	1236,97
845,26	1226,73
845,43	1284,08
845,60	1234,93
845,77	1271,79
845,94	1234,93
846,10	1300,46
846,27	1212,40
846,44	1220,59
846,61	1294,32
846,78	1212,40
846,95	1331,18
847,12	1275,88
847,29	1181,68
847,46	1294,32
847,63	1234,93
847,80	1234,93
847,97	1318,89
848,14	1267,69
848,31	1322,99
848,48	1296,36
848,65	1286,12
848,82	1267,69
848,98	1279,98
849,15	1202,16
849,32	1259,50
849,49	1232,88
849,66	1306,60
849,83	1210,35
850,00	1286,12
850,17	1243,12
850,34	1290,22
850,51	1249,26
850,68	1331,18
850,85	1329,13
851,01	1296,36
851,18	1263,60
851,35	1255,40
851,52	1277,93
851,69	1304,56
851,86	1234,93
852,03	1286,12
852,20	1236,97
852,37	1259,50
852,53	1218,54
852,70	1286,12
852,87	1251,31
853,04	1294,32
853,21	1308,65
853,38	1255,40
853,55	1275,88
853,72	1312,75
853,89	1325,04
854,05	1282,03
854,22	1236,97
854,39	1275,88
854,56	1290,22
854,73	1261,55
854,90	1327,08
855,07	1267,69
855,23	1265,64
855,40	1288,17
855,57	1216,49
855,74	1292,27
855,91	1269,74
856,08	1226,73
856,25	1236,97
856,41	1222,64
856,58	1228,78
856,75	1251,31
856,92	1267,69
857,09	1286,12
857,26	1318,89
857,42	1284,08
857,59	1298,41
857,76	1320,94
857,93	1284,08
858,10	1232,88
858,27	1216,49
858,43	1261,55
858,60	1302,51
858,77	1243,12
858,94	1277,93
859,11	1288,17
859,27	1312,75
859,44	1339,37
859,61	1273,84
859,78	1228,78
859,95	1241,07
860,12	1314,80
860,28	1261,55
860,45	1214,45
860,62	1322,99
860,79	1273,84
860,95	1271,79
861,12	1259,50
861,29	1318,89
861,46	1267,69
861,63	1269,74
861,79	1310,70
861,96	1261,55
862,13	1259,50
862,30	1279,98
862,47	1292,27
862,63	1218,54
862,80	1279,98
862,97	1261,55
863,14	1320,94
863,30	1277,93
863,47	1234,93
863,64	1245,16
863,81	1236,97
863,97	1294,32
864,14	1282,03
864,31	1314,80
864,48	1234,93
864,65	1243,12
864,81	1286,12
864,98	1337,32
865,15	1273,84
865,32	1290,22
865,48	1263,60
865,65	1290,22
865,82	1263,60
865,98	1230,83
866,15	1298,41
866,32	1316,84
866,49	1296,36
866,65	1261,55
866,82	1257,45
866,99	1245,16
867,16	1241,07
867,32	1226,73
867,49	1306,60
867,66	1322,99
867,83	1320,94
867,99	1290,22
868,16	1257,45
868,33	1247,21
868,49	1296,36
868,66	1224,69
868,83	1290,22
868,99	1263,60
869,16	1284,08
869,33	1228,78
869,50	1282,03
869,66	1218,54
869,83	1230,83
870,00	1226,73
870,16	1263,60
870,33	1322,99
870,50	1263,60
870,66	1300,46
870,83	1294,32
871,00	1279,98
871,17	1290,22
871,33	1282,03
871,50	1230,83
871,67	1286,12
871,83	1245,16
872,00	1284,08
872,17	1322,99
872,33	1239,02
872,50	1343,47
872,67	1253,36
872,83	1282,03
873,00	1228,78
873,17	1232,88
873,33	1202,16
873,50	1298,41
873,67	1255,40
873,83	1331,18
874,00	1232,88
874,16	1239,02
874,33	1314,80
874,50	1253,36
874,66	1286,12
874,83	1282,03
875,00	1329,13
875,16	1308,65
875,33	1290,22
875,50	1275,88
875,66	1226,73
875,83	1255,40
875,99	1286,12
876,16	1257,45
876,33	1257,45
876,49	1239,02
876,66	1230,83
876,83	1265,64
876,99	1249,26
877,16	1300,46
877,32	1277,93
877,49	1226,73
877,66	1300,46
877,82	1277,93
877,99	1282,03
878,15	1265,64
878,32	1320,94
878,49	1273,84
878,65	1222,64
878,82	1232,88
878,98	1241,07
879,15	1290,22
879,32	1224,69
879,48	1253,36
879,65	1222,64
879,81	1269,74
879,98	1298,41
880,15	1279,98
880,31	1249,26
880,48	1294,32
880,64	1212,40
880,81	1216,49
880,97	1216,49
881,14	1294,32
881,31	1269,74
881,47	1253,36
881,64	1208,30
881,80	1253,36
881,97	1282,03
882,13	1275,88
882,30	1282,03
882,47	1304,56
882,63	1230,83
882,80	1273,84
882,96	1247,21
883,13	1249,26
883,29	1294,32
883,46	1290,22
883,62	1216,49
883,79	1282,03
883,95	1300,46
884,12	1267,69
884,29	1245,16
884,45	1255,40
884,62	1236,97
884,78	1265,64
884,95	1255,40
885,11	1226,73
885,28	1273,84
885,44	1259,50
885,61	1282,03
885,77	1241,07
885,94	1286,12
886,10	1302,51
886,27	1214,45
886,43	1337,32
886,60	1257,45
886,76	1167,34
886,93	1277,93
887,09	1290,22
887,26	1230,83
887,42	1298,41
887,59	1292,27
887,75	1304,56
887,92	1230,83
888,08	1282,03
888,25	1236,97
888,41	1255,40
888,58	1243,12
888,74	1269,74
888,91	1308,65
>>>>>End Processed Spectral Data<<<<<
