SpectraSuite Data File
++++++++++++++++++++++++++++++++++++
Date: Sun Apr 03 19:55:51 CEST 2016
User: root
Dark Spectrum Present: No
Reference Spectrum Present: No
Number of Sampled Component Spectra: 1
Spectrometers: USB4C02835
Integration Time (usec): 10000 (USB4C02835)
Spectra Averaged: 1 (USB4C02835)
Boxcar Smoothing: 0 (USB4C02835)
Correct for Electrical Dark: No (USB4C02835)
Strobe/Lamp Enabled: No (USB4C02835)
Correct for Detector Non-linearity: No (USB4C02835)
Correct for Stray Light: No (USB4C02835)
Number of Pixels in Processed Spectrum: 3648
>>>>>Begin Processed Spectral Data<<<<<
177,47	1198,06
177,69	1198,06
177,91	1198,06
178,13	1173,49
178,36	1198,06
178,58	1220,59
178,80	1273,84
179,02	1271,79
179,24	1253,36
179,46	1282,03
179,68	1282,03
179,90	1282,03
180,13	1200,11
180,35	1322,99
180,57	1241,07
180,79	1189,87
181,01	1273,84
181,23	1245,16
181,45	1234,93
181,67	1259,50
181,90	1288,17
182,12	1239,02
182,34	1273,84
182,56	1255,40
182,78	1318,89
183,00	1282,03
183,22	1259,50
183,44	1206,25
183,66	1267,69
183,89	1243,12
184,11	1218,54
184,33	1353,71
184,55	1228,78
184,77	1243,12
184,99	1230,83
185,21	1210,35
185,43	1290,22
185,65	1222,64
185,87	1275,88
186,10	1265,64
186,32	1261,55
186,54	1232,88
186,76	1265,64
186,98	1277,93
187,20	1284,08
187,42	1282,03
187,64	1228,78
187,86	1292,27
188,08	1273,84
188,30	1347,56
188,52	1351,66
188,75	1296,36
188,97	1286,12
189,19	1251,31
189,41	1271,79
189,63	1296,36
189,85	1335,28
190,07	1296,36
190,29	1290,22
190,51	1275,88
190,73	1290,22
190,95	1271,79
191,17	1234,93
191,39	1304,56
191,61	1267,69
191,84	1290,22
192,06	1273,84
192,28	1202,16
192,50	1226,73
192,72	1294,32
192,94	1273,84
193,16	1302,51
193,38	1259,50
193,60	1284,08
193,82	1253,36
194,04	1275,88
194,26	1245,16
194,48	1226,73
194,70	1202,16
194,92	1261,55
195,14	1212,40
195,36	1277,93
195,58	1241,07
195,80	1193,97
196,02	1247,21
196,24	1288,17
196,46	1292,27
196,69	1261,55
196,91	1290,22
197,13	1308,65
197,35	1261,55
197,57	1259,50
197,79	1251,31
198,01	1286,12
198,23	1243,12
198,45	1234,93
198,67	1288,17
198,89	1259,50
199,11	1230,83
199,33	1261,55
199,55	1245,16
199,77	1341,42
199,99	1277,93
200,21	1253,36
200,43	1191,92
200,65	1290,22
200,87	1251,31
201,09	1273,84
201,31	1214,45
201,53	1296,36
201,75	1290,22
201,97	1187,82
202,19	1282,03
202,41	1296,36
202,63	1322,99
202,85	1288,17
203,07	1257,45
203,29	1277,93
203,51	1279,98
203,73	1212,40
203,95	1239,02
204,17	1310,70
204,39	1257,45
204,61	1247,21
204,83	1277,93
205,05	1279,98
205,27	1320,94
205,49	1210,35
205,71	1259,50
205,93	1292,27
206,15	1269,74
206,37	1300,46
206,59	1273,84
206,81	1251,31
207,03	1255,40
207,25	1234,93
207,47	1230,83
207,69	1271,79
207,91	1302,51
208,13	1257,45
208,34	1376,24
208,56	1236,97
208,78	1306,60
209,00	1286,12
209,22	1306,60
209,44	1327,08
209,66	1269,74
209,88	1212,40
210,10	1308,65
210,32	1253,36
210,54	1208,30
210,76	1200,11
210,98	1259,50
211,20	1300,46
211,42	1286,12
211,64	1239,02
211,86	1296,36
212,08	1243,12
212,30	1343,47
212,52	1286,12
212,74	1284,08
212,96	1249,26
213,17	1247,21
213,39	1282,03
213,61	1314,80
213,83	1306,60
214,05	1257,45
214,27	1218,54
214,49	1296,36
214,71	1273,84
214,93	1304,56
215,15	1247,21
215,37	1249,26
215,59	1175,53
215,81	1292,27
216,03	1150,96
216,24	1247,21
216,46	1343,47
216,68	1226,73
216,90	1306,60
217,12	1263,60
217,34	1302,51
217,56	1226,73
217,78	1263,60
218,00	1267,69
218,22	1298,41
218,44	1267,69
218,66	1241,07
218,87	1296,36
219,09	1239,02
219,31	1208,30
219,53	1259,50
219,75	1228,78
219,97	1284,08
220,19	1224,69
220,41	1191,92
220,63	1253,36
220,85	1220,59
221,06	1288,17
221,28	1263,60
221,50	1259,50
221,72	1265,64
221,94	1290,22
222,16	1298,41
222,38	1282,03
222,60	1200,11
222,82	1189,87
223,03	1282,03
223,25	1236,97
223,47	1335,28
223,69	1257,45
223,91	1245,16
224,13	1249,26
224,35	1277,93
224,57	1308,65
224,78	1245,16
225,00	1210,35
225,22	1284,08
225,44	1269,74
225,66	1271,79
225,88	1314,80
226,10	1255,40
226,32	1269,74
226,53	1300,46
226,75	1312,75
226,97	1177,58
227,19	1241,07
227,41	1290,22
227,63	1245,16
227,85	1316,84
228,06	1279,98
228,28	1247,21
228,50	1318,89
228,72	1269,74
228,94	1234,93
229,16	1247,21
229,37	1269,74
229,59	1290,22
229,81	1271,79
230,03	1312,75
230,25	1282,03
230,47	1296,36
230,69	1214,45
230,90	1210,35
231,12	1236,97
231,34	1267,69
231,56	1253,36
231,78	1290,22
232,00	1241,07
232,21	1294,32
232,43	1282,03
232,65	1253,36
232,87	1212,40
233,09	1236,97
233,30	1314,80
233,52	1255,40
233,74	1290,22
233,96	1249,26
234,18	1234,93
234,40	1263,60
234,61	1279,98
234,83	1277,93
235,05	1282,03
235,27	1312,75
235,49	1253,36
235,70	1239,02
235,92	1271,79
236,14	1298,41
236,36	1279,98
236,58	1286,12
236,79	1257,45
237,01	1284,08
237,23	1341,42
237,45	1282,03
237,67	1284,08
237,88	1282,03
238,10	1288,17
238,32	1279,98
238,54	1306,60
238,76	1335,28
238,97	1245,16
239,19	1263,60
239,41	1314,80
239,63	1331,18
239,85	1239,02
240,06	1216,49
240,28	1265,64
240,50	1263,60
240,72	1263,60
240,93	1218,54
241,15	1298,41
241,37	1232,88
241,59	1325,04
241,81	1284,08
242,02	1253,36
242,24	1277,93
242,46	1296,36
242,68	1271,79
242,89	1214,45
243,11	1234,93
243,33	1255,40
243,55	1288,17
243,76	1232,88
243,98	1253,36
244,20	1243,12
244,42	1269,74
244,64	1277,93
244,85	1267,69
245,07	1202,16
245,29	1245,16
245,51	1298,41
245,72	1273,84
245,94	1206,25
246,16	1241,07
246,38	1216,49
246,59	1290,22
246,81	1257,45
247,03	1245,16
247,24	1312,75
247,46	1261,55
247,68	1273,84
247,90	1214,45
248,11	1366,00
248,33	1308,65
248,55	1245,16
248,77	1292,27
248,98	1290,22
249,20	1300,46
249,42	1304,56
249,64	1290,22
249,85	1314,80
250,07	1263,60
250,29	1316,84
250,50	1304,56
250,72	1222,64
250,94	1261,55
251,16	1288,17
251,37	1292,27
251,59	1263,60
251,81	1249,26
252,02	1232,88
252,24	1263,60
252,46	1251,31
252,68	1236,97
252,89	1222,64
253,11	1312,75
253,33	1302,51
253,54	1302,51
253,76	1255,40
253,98	1259,50
254,20	1339,37
254,41	1308,65
254,63	1277,93
254,85	1228,78
255,06	1226,73
255,28	1253,36
255,50	1372,14
255,71	1261,55
255,93	1277,93
256,15	1275,88
256,36	1243,12
256,58	1288,17
256,80	1288,17
257,02	1230,83
257,23	1222,64
257,45	1292,27
257,67	1312,75
257,88	1269,74
258,10	1355,76
258,32	1300,46
258,53	1273,84
258,75	1234,93
258,97	1298,41
259,18	1228,78
259,40	1314,80
259,62	1302,51
259,83	1269,74
260,05	1183,73
260,27	1257,45
260,48	1279,98
260,70	1224,69
260,92	1273,84
261,13	1249,26
261,35	1249,26
261,57	1206,25
261,78	1275,88
262,00	1226,73
262,22	1265,64
262,43	1232,88
262,65	1265,64
262,86	1286,12
263,08	1294,32
263,30	1312,75
263,51	1384,43
263,73	1261,55
263,95	1294,32
264,16	1282,03
264,38	1226,73
264,60	1263,60
264,81	1277,93
265,03	1284,08
265,25	1253,36
265,46	1286,12
265,68	1343,47
265,89	1273,84
266,11	1232,88
266,33	1269,74
266,54	1312,75
266,76	1239,02
266,98	1216,49
267,19	1279,98
267,41	1228,78
267,62	1320,94
267,84	1292,27
268,06	1296,36
268,27	1290,22
268,49	1267,69
268,70	1234,93
268,92	1292,27
269,14	1212,40
269,35	1216,49
269,57	1236,97
269,79	1306,60
270,00	1279,98
270,22	1255,40
270,43	1312,75
270,65	1239,02
270,87	1351,66
271,08	1322,99
271,30	1273,84
271,51	1284,08
271,73	1241,07
271,95	1282,03
272,16	1302,51
272,38	1239,02
272,59	1241,07
272,81	1271,79
273,02	1236,97
273,24	1298,41
273,46	1325,04
273,67	1261,55
273,89	1247,21
274,10	1193,97
274,32	1286,12
274,54	1320,94
274,75	1273,84
274,97	1310,70
275,18	1325,04
275,40	1279,98
275,61	1239,02
275,83	1247,21
276,05	1208,30
276,26	1261,55
276,48	1282,03
276,69	1241,07
276,91	1255,40
277,12	1275,88
277,34	1318,89
277,55	1234,93
277,77	1349,61
277,99	1302,51
278,20	1216,49
278,42	1263,60
278,63	1257,45
278,85	1251,31
279,06	1253,36
279,28	1259,50
279,49	1333,23
279,71	1239,02
279,93	1222,64
280,14	1267,69
280,36	1251,31
280,57	1282,03
280,79	1243,12
281,00	1269,74
281,22	1247,21
281,43	1232,88
281,65	1279,98
281,86	1267,69
282,08	1255,40
282,29	1282,03
282,51	1292,27
282,73	1220,59
282,94	1298,41
283,16	1284,08
283,37	1331,18
283,59	1257,45
283,80	1341,42
284,02	1191,92
284,23	1337,32
284,45	1331,18
284,66	1310,70
284,88	1239,02
285,09	1294,32
285,31	1279,98
285,52	1239,02
285,74	1261,55
285,95	1286,12
286,17	1206,25
286,38	1288,17
286,60	1257,45
286,81	1245,16
287,03	1245,16
287,24	1304,56
287,46	1288,17
287,67	1249,26
287,89	1241,07
288,10	1269,74
288,32	1333,23
288,53	1218,54
288,75	1275,88
288,96	1284,08
289,18	1177,58
289,39	1253,36
289,61	1331,18
289,82	1284,08
290,04	1263,60
290,25	1236,97
290,47	1267,69
290,68	1290,22
290,90	1275,88
291,11	1288,17
291,33	1279,98
291,54	1206,25
291,76	1206,25
291,97	1273,84
292,18	1273,84
292,40	1267,69
292,61	1265,64
292,83	1193,97
293,04	1302,51
293,26	1202,16
293,47	1222,64
293,69	1273,84
293,90	1316,84
294,12	1288,17
294,33	1282,03
294,55	1269,74
294,76	1239,02
294,97	1228,78
295,19	1271,79
295,40	1279,98
295,62	1306,60
295,83	1271,79
296,05	1290,22
296,26	1308,65
296,48	1290,22
296,69	1318,89
296,90	1314,80
297,12	1327,08
297,33	1232,88
297,55	1316,84
297,76	1292,27
297,98	1300,46
298,19	1253,36
298,41	1196,01
298,62	1294,32
298,83	1279,98
299,05	1275,88
299,26	1273,84
299,48	1320,94
299,69	1257,45
299,90	1286,12
300,12	1214,45
300,33	1269,74
300,55	1282,03
300,76	1282,03
300,98	1279,98
301,19	1288,17
301,40	1187,82
301,62	1322,99
301,83	1241,07
302,05	1312,75
302,26	1329,13
302,47	1296,36
302,69	1318,89
302,90	1271,79
303,12	1251,31
303,33	1236,97
303,54	1269,74
303,76	1310,70
303,97	1300,46
304,19	1273,84
304,40	1304,56
304,61	1265,64
304,83	1255,40
305,04	1314,80
305,26	1290,22
305,47	1304,56
305,68	1185,77
305,90	1265,64
306,11	1275,88
306,33	1290,22
306,54	1247,21
306,75	1255,40
306,97	1263,60
307,18	1306,60
307,39	1232,88
307,61	1286,12
307,82	1353,71
308,04	1257,45
308,25	1310,70
308,46	1304,56
308,68	1255,40
308,89	1331,18
309,10	1273,84
309,32	1322,99
309,53	1284,08
309,74	1292,27
309,96	1200,11
310,17	1259,50
310,39	1243,12
310,60	1263,60
310,81	1327,08
311,03	1245,16
311,24	1322,99
311,45	1273,84
311,67	1239,02
311,88	1331,18
312,09	1286,12
312,31	1320,94
312,52	1261,55
312,73	1314,80
312,95	1228,78
313,16	1302,51
313,37	1294,32
313,59	1269,74
313,80	1277,93
314,01	1279,98
314,23	1234,93
314,44	1255,40
314,65	1318,89
314,87	1255,40
315,08	1343,47
315,29	1245,16
315,51	1241,07
315,72	1212,40
315,93	1234,93
316,15	1253,36
316,36	1226,73
316,57	1251,31
316,79	1314,80
317,00	1271,79
317,21	1220,59
317,43	1310,70
317,64	1275,88
317,85	1298,41
318,07	1220,59
318,28	1271,79
318,49	1177,58
318,70	1263,60
318,92	1216,49
319,13	1286,12
319,34	1239,02
319,56	1300,46
319,77	1269,74
319,98	1296,36
320,20	1308,65
320,41	1249,26
320,62	1302,51
320,83	1212,40
321,05	1294,32
321,26	1271,79
321,47	1275,88
321,69	1349,61
321,90	1286,12
322,11	1357,80
322,32	1267,69
322,54	1259,50
322,75	1314,80
322,96	1316,84
323,18	1294,32
323,39	1292,27
323,60	1275,88
323,81	1263,60
324,03	1265,64
324,24	1236,97
324,45	1294,32
324,66	1292,27
324,88	1247,21
325,09	1206,25
325,30	1253,36
325,52	1273,84
325,73	1218,54
325,94	1294,32
326,15	1290,22
326,37	1300,46
326,58	1263,60
326,79	1179,63
327,00	1249,26
327,22	1306,60
327,43	1236,97
327,64	1253,36
327,85	1245,16
328,07	1265,64
328,28	1247,21
328,49	1253,36
328,70	1247,21
328,92	1357,80
329,13	1179,63
329,34	1298,41
329,55	1337,32
329,76	1349,61
329,98	1220,59
330,19	1277,93
330,40	1277,93
330,61	1341,42
330,83	1296,36
331,04	1185,77
331,25	1263,60
331,46	1251,31
331,68	1236,97
331,89	1290,22
332,10	1249,26
332,31	1306,60
332,52	1239,02
332,74	1255,40
332,95	1300,46
333,16	1255,40
333,37	1230,83
333,58	1296,36
333,80	1306,60
334,01	1290,22
334,22	1294,32
334,43	1312,75
334,64	1312,75
334,86	1234,93
335,07	1239,02
335,28	1331,18
335,49	1261,55
335,70	1241,07
335,92	1210,35
336,13	1331,18
336,34	1271,79
336,55	1267,69
336,76	1224,69
336,98	1216,49
337,19	1196,01
337,40	1316,84
337,61	1302,51
337,82	1230,83
338,04	1212,40
338,25	1236,97
338,46	1232,88
338,67	1239,02
338,88	1284,08
339,09	1316,84
339,31	1261,55
339,52	1282,03
339,73	1310,70
339,94	1382,38
340,15	1304,56
340,36	1290,22
340,58	1282,03
340,79	1245,16
341,00	1300,46
341,21	1218,54
341,42	1257,45
341,63	1226,73
341,85	1267,69
342,06	1304,56
342,27	1255,40
342,48	1306,60
342,69	1298,41
342,90	1282,03
343,12	1265,64
343,33	1345,52
343,54	1347,56
343,75	1261,55
343,96	1224,69
344,17	1273,84
344,38	1230,83
344,60	1271,79
344,81	1255,40
345,02	1271,79
345,23	1282,03
345,44	1304,56
345,65	1308,65
345,86	1273,84
346,07	1234,93
346,29	1204,21
346,50	1253,36
346,71	1331,18
346,92	1216,49
347,13	1288,17
347,34	1269,74
347,55	1255,40
347,76	1286,12
347,98	1220,59
348,19	1275,88
348,40	1290,22
348,61	1302,51
348,82	1261,55
349,03	1286,12
349,24	1271,79
349,45	1232,88
349,66	1251,31
349,88	1320,94
350,09	1189,87
350,30	1322,99
350,51	1298,41
350,72	1325,04
350,93	1298,41
351,14	1265,64
351,35	1253,36
351,56	1308,65
351,77	1259,50
351,99	1310,70
352,20	1296,36
352,41	1273,84
352,62	1249,26
352,83	1282,03
353,04	1298,41
353,25	1286,12
353,46	1304,56
353,67	1296,36
353,88	1257,45
354,09	1245,16
354,30	1345,52
354,52	1273,84
354,73	1236,97
354,94	1204,21
355,15	1247,21
355,36	1304,56
355,57	1288,17
355,78	1224,69
355,99	1236,97
356,20	1236,97
356,41	1255,40
356,62	1265,64
356,83	1216,49
357,04	1282,03
357,25	1228,78
357,46	1249,26
357,68	1273,84
357,89	1230,83
358,10	1257,45
358,31	1308,65
358,52	1261,55
358,73	1279,98
358,94	1298,41
359,15	1316,84
359,36	1273,84
359,57	1277,93
359,78	1308,65
359,99	1224,69
360,20	1298,41
360,41	1304,56
360,62	1310,70
360,83	1228,78
361,04	1222,64
361,25	1206,25
361,46	1241,07
361,67	1255,40
361,88	1294,32
362,09	1288,17
362,30	1249,26
362,51	1222,64
362,72	1300,46
362,93	1148,91
363,14	1351,66
363,35	1245,16
363,56	1263,60
363,78	1247,21
363,99	1363,95
364,20	1239,02
364,41	1212,40
364,62	1271,79
364,83	1386,47
365,04	1218,54
365,25	1259,50
365,46	1251,31
365,67	1243,12
365,88	1218,54
366,09	1204,21
366,30	1318,89
366,51	1271,79
366,72	1304,56
366,93	1239,02
367,14	1247,21
367,35	1279,98
367,56	1230,83
367,77	1234,93
367,98	1249,26
368,18	1357,80
368,39	1239,02
368,60	1247,21
368,81	1169,39
369,02	1292,27
369,23	1273,84
369,44	1337,32
369,65	1286,12
369,86	1261,55
370,07	1224,69
370,28	1249,26
370,49	1279,98
370,70	1173,49
370,91	1271,79
371,12	1183,73
371,33	1271,79
371,54	1261,55
371,75	1304,56
371,96	1292,27
372,17	1241,07
372,38	1284,08
372,59	1239,02
372,80	1245,16
373,01	1343,47
373,22	1288,17
373,43	1206,25
373,64	1277,93
373,85	1228,78
374,06	1286,12
374,26	1329,13
374,47	1273,84
374,68	1253,36
374,89	1253,36
375,10	1279,98
375,31	1259,50
375,52	1318,89
375,73	1298,41
375,94	1277,93
376,15	1286,12
376,36	1232,88
376,57	1206,25
376,78	1253,36
376,99	1271,79
377,20	1204,21
377,40	1275,88
377,61	1298,41
377,82	1288,17
378,03	1271,79
378,24	1204,21
378,45	1239,02
378,66	1220,59
378,87	1245,16
379,08	1298,41
379,29	1241,07
379,50	1206,25
379,71	1271,79
379,91	1200,11
380,12	1218,54
380,33	1288,17
380,54	1202,16
380,75	1325,04
380,96	1343,47
381,17	1255,40
381,38	1279,98
381,59	1265,64
381,80	1249,26
382,00	1329,13
382,21	1335,28
382,42	1208,30
382,63	1325,04
382,84	1255,40
383,05	1333,23
383,26	1249,26
383,47	1271,79
383,68	1286,12
383,88	1243,12
384,09	1259,50
384,30	1284,08
384,51	1245,16
384,72	1277,93
384,93	1327,08
385,14	1232,88
385,35	1279,98
385,55	1304,56
385,76	1296,36
385,97	1243,12
386,18	1261,55
386,39	1265,64
386,60	1243,12
386,81	1286,12
387,02	1241,07
387,22	1269,74
387,43	1290,22
387,64	1243,12
387,85	1312,75
388,06	1243,12
388,27	1212,40
388,48	1236,97
388,68	1322,99
388,89	1265,64
389,10	1282,03
389,31	1279,98
389,52	1294,32
389,73	1265,64
389,93	1325,04
390,14	1216,49
390,35	1292,27
390,56	1320,94
390,77	1202,16
390,98	1196,01
391,18	1279,98
391,39	1322,99
391,60	1208,30
391,81	1259,50
392,02	1345,52
392,23	1351,66
392,43	1277,93
392,64	1284,08
392,85	1277,93
393,06	1294,32
393,27	1271,79
393,47	1247,21
393,68	1267,69
393,89	1212,40
394,10	1263,60
394,31	1236,97
394,52	1290,22
394,72	1316,84
394,93	1236,97
395,14	1322,99
395,35	1290,22
395,56	1275,88
395,76	1279,98
395,97	1212,40
396,18	1247,21
396,39	1257,45
396,60	1277,93
396,80	1220,59
397,01	1187,82
397,22	1277,93
397,43	1320,94
397,64	1310,70
397,84	1314,80
398,05	1234,93
398,26	1329,13
398,47	1322,99
398,67	1232,88
398,88	1286,12
399,09	1263,60
399,30	1224,69
399,51	1298,41
399,71	1312,75
399,92	1292,27
400,13	1243,12
400,34	1282,03
400,54	1306,60
400,75	1247,21
400,96	1275,88
401,17	1296,36
401,37	1296,36
401,58	1241,07
401,79	1265,64
402,00	1214,45
402,21	1294,32
402,41	1234,93
402,62	1183,73
402,83	1253,36
403,04	1263,60
403,24	1294,32
403,45	1259,50
403,66	1269,74
403,87	1294,32
404,07	1263,60
404,28	1259,50
404,49	1230,83
404,70	1255,40
404,90	1310,70
405,11	1308,65
405,32	1239,02
405,52	1286,12
405,73	1370,09
405,94	1228,78
406,15	1335,28
406,35	1265,64
406,56	1232,88
406,77	1249,26
406,98	1198,06
407,18	1282,03
407,39	1259,50
407,60	1296,36
407,80	1271,79
408,01	1263,60
408,22	1220,59
408,43	1259,50
408,63	1257,45
408,84	1308,65
409,05	1294,32
409,25	1204,21
409,46	1304,56
409,67	1306,60
409,88	1265,64
410,08	1198,06
410,29	1259,50
410,50	1259,50
410,70	1300,46
410,91	1187,82
411,12	1253,36
411,32	1269,74
411,53	1228,78
411,74	1161,20
411,95	1251,31
412,15	1234,93
412,36	1284,08
412,57	1290,22
412,77	1259,50
412,98	1239,02
413,19	1306,60
413,39	1284,08
413,60	1318,89
413,81	1206,25
414,01	1279,98
414,22	1290,22
414,43	1277,93
414,63	1261,55
414,84	1267,69
415,05	1208,30
415,25	1273,84
415,46	1306,60
415,67	1308,65
415,87	1236,97
416,08	1212,40
416,29	1232,88
416,49	1263,60
416,70	1214,45
416,91	1341,42
417,11	1189,87
417,32	1316,84
417,53	1220,59
417,73	1257,45
417,94	1310,70
418,15	1286,12
418,35	1251,31
418,56	1265,64
418,77	1316,84
418,97	1208,30
419,18	1279,98
419,38	1339,37
419,59	1269,74
419,80	1257,45
420,00	1222,64
420,21	1284,08
420,42	1304,56
420,62	1325,04
420,83	1277,93
421,04	1273,84
421,24	1249,26
421,45	1218,54
421,65	1249,26
421,86	1282,03
422,07	1257,45
422,27	1282,03
422,48	1257,45
422,69	1314,80
422,89	1284,08
423,10	1316,84
423,30	1220,59
423,51	1361,90
423,72	1189,87
423,92	1304,56
424,13	1255,40
424,33	1302,51
424,54	1245,16
424,75	1294,32
424,95	1269,74
425,16	1279,98
425,36	1193,97
425,57	1312,75
425,78	1222,64
425,98	1218,54
426,19	1226,73
426,39	1267,69
426,60	1312,75
426,81	1257,45
427,01	1322,99
427,22	1261,55
427,42	1234,93
427,63	1300,46
427,83	1284,08
428,04	1282,03
428,25	1314,80
428,45	1243,12
428,66	1300,46
428,86	1247,21
429,07	1282,03
429,28	1259,50
429,48	1236,97
429,69	1314,80
429,89	1243,12
430,10	1288,17
430,30	1327,08
430,51	1353,71
430,71	1155,05
430,92	1224,69
431,13	1296,36
431,33	1271,79
431,54	1245,16
431,74	1218,54
431,95	1322,99
432,15	1222,64
432,36	1232,88
432,56	1241,07
432,77	1245,16
432,98	1308,65
433,18	1282,03
433,39	1306,60
433,59	1255,40
433,80	1273,84
434,00	1265,64
434,21	1292,27
434,41	1269,74
434,62	1298,41
434,82	1318,89
435,03	1331,18
435,23	1286,12
435,44	1236,97
435,64	1284,08
435,85	1263,60
436,06	1222,64
436,26	1259,50
436,47	1302,51
436,67	1320,94
436,88	1292,27
437,08	1296,36
437,29	1230,83
437,49	1314,80
437,70	1265,64
437,90	1263,60
438,11	1282,03
438,31	1234,93
438,52	1214,45
438,72	1304,56
438,93	1269,74
439,13	1292,27
439,34	1255,40
439,54	1273,84
439,75	1296,36
439,95	1249,26
440,16	1308,65
440,36	1290,22
440,57	1267,69
440,77	1236,97
440,98	1273,84
441,18	1333,23
441,39	1292,27
441,59	1304,56
441,80	1333,23
442,00	1320,94
442,21	1318,89
442,41	1181,68
442,62	1249,26
442,82	1277,93
443,02	1253,36
443,23	1286,12
443,43	1253,36
443,64	1306,60
443,84	1273,84
444,05	1249,26
444,25	1355,76
444,46	1257,45
444,66	1210,35
444,87	1253,36
445,07	1310,70
445,28	1329,13
445,48	1183,73
445,69	1325,04
445,89	1175,53
446,09	1232,88
446,30	1298,41
446,50	1245,16
446,71	1263,60
446,91	1314,80
447,12	1298,41
447,32	1312,75
447,53	1282,03
447,73	1288,17
447,93	1249,26
448,14	1284,08
448,34	1232,88
448,55	1279,98
448,75	1257,45
448,96	1228,78
449,16	1300,46
449,36	1247,21
449,57	1298,41
449,77	1193,97
449,98	1372,14
450,18	1290,22
450,39	1300,46
450,59	1273,84
450,79	1204,21
451,00	1265,64
451,20	1306,60
451,41	1333,23
451,61	1284,08
451,81	1259,50
452,02	1214,45
452,22	1302,51
452,43	1236,97
452,63	1294,32
452,84	1263,60
453,04	1243,12
453,24	1249,26
453,45	1341,42
453,65	1241,07
453,86	1249,26
454,06	1234,93
454,26	1259,50
454,47	1294,32
454,67	1253,36
454,87	1296,36
455,08	1290,22
455,28	1304,56
455,49	1228,78
455,69	1290,22
455,89	1312,75
456,10	1300,46
456,30	1275,88
456,51	1368,04
456,71	1310,70
456,91	1343,47
457,12	1245,16
457,32	1265,64
457,52	1302,51
457,73	1337,32
457,93	1265,64
458,14	1253,36
458,34	1214,45
458,54	1277,93
458,75	1273,84
458,95	1316,84
459,15	1347,56
459,36	1277,93
459,56	1230,83
459,76	1269,74
459,97	1196,01
460,17	1226,73
460,37	1372,14
460,58	1255,40
460,78	1208,30
460,99	1239,02
461,19	1269,74
461,39	1241,07
461,60	1275,88
461,80	1222,64
462,00	1261,55
462,21	1296,36
462,41	1271,79
462,61	1294,32
462,82	1308,65
463,02	1271,79
463,22	1214,45
463,43	1294,32
463,63	1271,79
463,83	1304,56
464,04	1198,06
464,24	1320,94
464,44	1259,50
464,64	1232,88
464,85	1288,17
465,05	1335,28
465,25	1286,12
465,46	1230,83
465,66	1296,36
465,86	1320,94
466,07	1314,80
466,27	1202,16
466,47	1263,60
466,68	1224,69
466,88	1298,41
467,08	1267,69
467,29	1243,12
467,49	1290,22
467,69	1245,16
467,89	1200,11
468,10	1202,16
468,30	1306,60
468,50	1304,56
468,71	1290,22
468,91	1277,93
469,11	1247,21
469,31	1243,12
469,52	1292,27
469,72	1359,85
469,92	1263,60
470,13	1216,49
470,33	1236,97
470,53	1236,97
470,73	1243,12
470,94	1257,45
471,14	1183,73
471,34	1263,60
471,54	1333,23
471,75	1320,94
471,95	1255,40
472,15	1230,83
472,36	1294,32
472,56	1298,41
472,76	1265,64
472,96	1247,21
473,17	1245,16
473,37	1216,49
473,57	1341,42
473,77	1310,70
473,98	1251,31
474,18	1214,45
474,38	1239,02
474,58	1243,12
474,79	1261,55
474,99	1271,79
475,19	1267,69
475,39	1286,12
475,60	1228,78
475,80	1300,46
476,00	1277,93
476,20	1296,36
476,41	1228,78
476,61	1269,74
476,81	1284,08
477,01	1247,21
477,21	1320,94
477,42	1216,49
477,62	1245,16
477,82	1228,78
478,02	1230,83
478,23	1282,03
478,43	1327,08
478,63	1247,21
478,83	1245,16
479,03	1263,60
479,24	1247,21
479,44	1361,90
479,64	1277,93
479,84	1255,40
480,04	1232,88
480,25	1257,45
480,45	1230,83
480,65	1335,28
480,85	1247,21
481,06	1298,41
481,26	1335,28
481,46	1261,55
481,66	1236,97
481,86	1343,47
482,06	1302,51
482,27	1226,73
482,47	1314,80
482,67	1247,21
482,87	1269,74
483,07	1284,08
483,28	1290,22
483,48	1312,75
483,68	1296,36
483,88	1290,22
484,08	1263,60
484,29	1279,98
484,49	1239,02
484,69	1255,40
484,89	1216,49
485,09	1265,64
485,29	1222,64
485,50	1312,75
485,70	1300,46
485,90	1304,56
486,10	1333,23
486,30	1241,07
486,50	1267,69
486,71	1284,08
486,91	1257,45
487,11	1259,50
487,31	1306,60
487,51	1224,69
487,71	1265,64
487,91	1327,08
488,12	1249,26
488,32	1310,70
488,52	1298,41
488,72	1292,27
488,92	1245,16
489,12	1294,32
489,32	1279,98
489,53	1312,75
489,73	1314,80
489,93	1314,80
490,13	1271,79
490,33	1234,93
490,53	1230,83
490,73	1277,93
490,94	1210,35
491,14	1302,51
491,34	1259,50
491,54	1314,80
491,74	1253,36
491,94	1273,84
492,14	1241,07
492,34	1218,54
492,54	1251,31
492,75	1216,49
492,95	1198,06
493,15	1259,50
493,35	1355,76
493,55	1275,88
493,75	1249,26
493,95	1222,64
494,15	1243,12
494,35	1232,88
494,56	1236,97
494,76	1308,65
494,96	1290,22
495,16	1294,32
495,36	1312,75
495,56	1165,29
495,76	1316,84
495,96	1396,71
496,16	1241,07
496,36	1288,17
496,56	1257,45
496,77	1292,27
496,97	1261,55
497,17	1282,03
497,37	1239,02
497,57	1275,88
497,77	1290,22
497,97	1228,78
498,17	1302,51
498,37	1286,12
498,57	1279,98
498,77	1298,41
498,97	1279,98
499,17	1298,41
499,38	1273,84
499,58	1304,56
499,78	1335,28
499,98	1318,89
500,18	1269,74
500,38	1308,65
500,58	1255,40
500,78	1261,55
500,98	1239,02
501,18	1255,40
501,38	1327,08
501,58	1298,41
501,78	1282,03
501,98	1294,32
502,18	1239,02
502,38	1314,80
502,58	1308,65
502,78	1286,12
502,98	1314,80
503,18	1288,17
503,38	1302,51
503,59	1251,31
503,79	1230,83
503,99	1314,80
504,19	1304,56
504,39	1216,49
504,59	1284,08
504,79	1310,70
504,99	1198,06
505,19	1296,36
505,39	1298,41
505,59	1290,22
505,79	1267,69
505,99	1265,64
506,19	1275,88
506,39	1308,65
506,59	1175,53
506,79	1288,17
506,99	1249,26
507,19	1302,51
507,39	1308,65
507,59	1239,02
507,79	1210,35
507,99	1298,41
508,19	1294,32
508,39	1292,27
508,59	1284,08
508,79	1230,83
508,99	1279,98
509,19	1288,17
509,39	1232,88
509,59	1304,56
509,79	1337,32
509,99	1247,21
510,19	1249,26
510,39	1275,88
510,59	1312,75
510,79	1294,32
510,99	1243,12
511,19	1329,13
511,39	1230,83
511,59	1267,69
511,79	1304,56
511,99	1343,47
512,19	1314,80
512,38	1279,98
512,58	1245,16
512,78	1202,16
512,98	1345,52
513,18	1185,77
513,38	1282,03
513,58	1284,08
513,78	1224,69
513,98	1271,79
514,18	1300,46
514,38	1271,79
514,58	1282,03
514,78	1277,93
514,98	1329,13
515,18	1279,98
515,38	1255,40
515,58	1247,21
515,78	1288,17
515,98	1261,55
516,18	1312,75
516,38	1259,50
516,57	1220,59
516,77	1343,47
516,97	1292,27
517,17	1249,26
517,37	1310,70
517,57	1263,60
517,77	1257,45
517,97	1306,60
518,17	1300,46
518,37	1288,17
518,57	1273,84
518,77	1273,84
518,97	1273,84
519,16	1329,13
519,36	1206,25
519,56	1277,93
519,76	1282,03
519,96	1271,79
520,16	1310,70
520,36	1284,08
520,56	1357,80
520,76	1273,84
520,96	1202,16
521,16	1257,45
521,35	1239,02
521,55	1388,52
521,75	1253,36
521,95	1322,99
522,15	1196,01
522,35	1243,12
522,55	1288,17
522,75	1228,78
522,95	1257,45
523,14	1292,27
523,34	1318,89
523,54	1310,70
523,74	1214,45
523,94	1368,04
524,14	1241,07
524,34	1251,31
524,54	1263,60
524,73	1255,40
524,93	1318,89
525,13	1222,64
525,33	1372,14
525,53	1290,22
525,73	1277,93
525,93	1290,22
526,13	1247,21
526,32	1271,79
526,52	1224,69
526,72	1300,46
526,92	1310,70
527,12	1288,17
527,32	1259,50
527,52	1331,18
527,71	1298,41
527,91	1279,98
528,11	1316,84
528,31	1341,42
528,51	1282,03
528,71	1247,21
528,90	1357,80
529,10	1325,04
529,30	1282,03
529,50	1353,71
529,70	1357,80
529,90	1269,74
530,09	1279,98
530,29	1267,69
530,49	1230,83
530,69	1239,02
530,89	1253,36
531,09	1255,40
531,28	1265,64
531,48	1296,36
531,68	1298,41
531,88	1247,21
532,08	1232,88
532,28	1286,12
532,47	1314,80
532,67	1290,22
532,87	1298,41
533,07	1273,84
533,27	1279,98
533,46	1300,46
533,66	1261,55
533,86	1331,18
534,06	1241,07
534,26	1265,64
534,45	1251,31
534,65	1306,60
534,85	1257,45
535,05	1206,25
535,25	1255,40
535,44	1271,79
535,64	1226,73
535,84	1327,08
536,04	1396,71
536,24	1349,61
536,43	1230,83
536,63	1257,45
536,83	1296,36
537,03	1265,64
537,22	1355,76
537,42	1273,84
537,62	1306,60
537,82	1249,26
538,02	1265,64
538,21	1257,45
538,41	1298,41
538,61	1298,41
538,81	1290,22
539,00	1279,98
539,20	1331,18
539,40	1298,41
539,60	1267,69
539,79	1222,64
539,99	1253,36
540,19	1308,65
540,39	1341,42
540,58	1368,04
540,78	1308,65
540,98	1273,84
541,18	1269,74
541,37	1265,64
541,57	1236,97
541,77	1271,79
541,97	1247,21
542,16	1222,64
542,36	1290,22
542,56	1290,22
542,76	1228,78
542,95	1243,12
543,15	1349,61
543,35	1308,65
543,54	1333,23
543,74	1234,93
543,94	1306,60
544,14	1378,28
544,33	1308,65
544,53	1296,36
544,73	1273,84
544,93	1273,84
545,12	1298,41
545,32	1245,16
545,52	1257,45
545,71	1253,36
545,91	1279,98
546,11	1249,26
546,30	1345,52
546,50	1306,60
546,70	1312,75
546,90	1312,75
547,09	1273,84
547,29	1318,89
547,49	1288,17
547,68	1271,79
547,88	1234,93
548,08	1255,40
548,27	1386,47
548,47	1286,12
548,67	1286,12
548,87	1279,98
549,06	1275,88
549,26	1298,41
549,46	1273,84
549,65	1210,35
549,85	1282,03
550,05	1277,93
550,24	1277,93
550,44	1259,50
550,64	1314,80
550,83	1357,80
551,03	1255,40
551,23	1277,93
551,42	1243,12
551,62	1253,36
551,82	1298,41
552,01	1263,60
552,21	1347,56
552,41	1273,84
552,60	1300,46
552,80	1296,36
553,00	1306,60
553,19	1236,97
553,39	1263,60
553,59	1218,54
553,78	1290,22
553,98	1267,69
554,17	1224,69
554,37	1245,16
554,57	1322,99
554,76	1241,07
554,96	1228,78
555,16	1333,23
555,35	1314,80
555,55	1363,95
555,75	1257,45
555,94	1282,03
556,14	1288,17
556,33	1322,99
556,53	1290,22
556,73	1263,60
556,92	1277,93
557,12	1351,66
557,32	1269,74
557,51	1282,03
557,71	1269,74
557,90	1282,03
558,10	1296,36
558,30	1257,45
558,49	1277,93
558,69	1259,50
558,88	1314,80
559,08	1308,65
559,28	1284,08
559,47	1325,04
559,67	1261,55
559,86	1292,27
560,06	1228,78
560,26	1306,60
560,45	1271,79
560,65	1239,02
560,84	1255,40
561,04	1269,74
561,24	1284,08
561,43	1310,70
561,63	1312,75
561,82	1245,16
562,02	1269,74
562,22	1271,79
562,41	1368,04
562,61	1257,45
562,80	1279,98
563,00	1265,64
563,19	1290,22
563,39	1322,99
563,59	1296,36
563,78	1302,51
563,98	1222,64
564,17	1331,18
564,37	1193,97
564,56	1353,71
564,76	1327,08
564,96	1302,51
565,15	1296,36
565,35	1288,17
565,54	1282,03
565,74	1322,99
565,93	1243,12
566,13	1353,71
566,32	1247,21
566,52	1296,36
566,71	1286,12
566,91	1253,36
567,11	1298,41
567,30	1265,64
567,50	1302,51
567,69	1327,08
567,89	1277,93
568,08	1314,80
568,28	1275,88
568,47	1298,41
568,67	1329,13
568,86	1296,36
569,06	1224,69
569,25	1296,36
569,45	1239,02
569,64	1224,69
569,84	1370,09
570,04	1232,88
570,23	1318,89
570,43	1239,02
570,62	1279,98
570,82	1325,04
571,01	1304,56
571,21	1273,84
571,40	1273,84
571,60	1294,32
571,79	1253,36
571,99	1263,60
572,18	1251,31
572,38	1271,79
572,57	1253,36
572,77	1343,47
572,96	1277,93
573,16	1249,26
573,35	1261,55
573,55	1333,23
573,74	1189,87
573,94	1247,21
574,13	1255,40
574,33	1259,50
574,52	1304,56
574,71	1251,31
574,91	1314,80
575,10	1267,69
575,30	1257,45
575,49	1277,93
575,69	1339,37
575,88	1251,31
576,08	1265,64
576,27	1290,22
576,47	1259,50
576,66	1296,36
576,86	1300,46
577,05	1288,17
577,25	1304,56
577,44	1329,13
577,64	1273,84
577,83	1261,55
578,02	1314,80
578,22	1253,36
578,41	1294,32
578,61	1312,75
578,80	1279,98
579,00	1269,74
579,19	1380,33
579,39	1277,93
579,58	1273,84
579,77	1339,37
579,97	1247,21
580,16	1320,94
580,36	1284,08
580,55	1357,80
580,75	1218,54
580,94	1236,97
581,13	1300,46
581,33	1267,69
581,52	1210,35
581,72	1269,74
581,91	1325,04
582,11	1312,75
582,30	1265,64
582,49	1308,65
582,69	1263,60
582,88	1357,80
583,08	1249,26
583,27	1271,79
583,47	1282,03
583,66	1228,78
583,85	1255,40
584,05	1294,32
584,24	1325,04
584,44	1296,36
584,63	1265,64
584,82	1374,19
585,02	1269,74
585,21	1318,89
585,41	1234,93
585,60	1257,45
585,79	1239,02
585,99	1314,80
586,18	1253,36
586,37	1216,49
586,57	1222,64
586,76	1333,23
586,96	1251,31
587,15	1198,06
587,34	1316,84
587,54	1320,94
587,73	1318,89
587,93	1304,56
588,12	1261,55
588,31	1318,89
588,51	1329,13
588,70	1247,21
588,89	1259,50
589,09	1382,38
589,28	1277,93
589,47	1288,17
589,67	1279,98
589,86	1314,80
590,06	1243,12
590,25	1271,79
590,44	1239,02
590,64	1339,37
590,83	1275,88
591,02	1314,80
591,22	1265,64
591,41	1228,78
591,60	1265,64
591,80	1232,88
591,99	1277,93
592,18	1339,37
592,38	1263,60
592,57	1316,84
592,76	1251,31
592,96	1376,24
593,15	1216,49
593,34	1331,18
593,54	1402,86
593,73	1341,42
593,92	1269,74
594,12	1259,50
594,31	1308,65
594,50	1290,22
594,70	1257,45
594,89	1277,93
595,08	1247,21
595,28	1269,74
595,47	1327,08
595,66	1322,99
595,86	1320,94
596,05	1353,71
596,24	1228,78
596,43	1239,02
596,63	1255,40
596,82	1271,79
597,01	1279,98
597,21	1271,79
597,40	1261,55
597,59	1337,32
597,79	1306,60
597,98	1304,56
598,17	1232,88
598,36	1320,94
598,56	1259,50
598,75	1304,56
598,94	1269,74
599,14	1302,51
599,33	1314,80
599,52	1286,12
599,71	1304,56
599,91	1384,43
600,10	1322,99
600,29	1308,65
600,48	1255,40
600,68	1308,65
600,87	1261,55
601,06	1316,84
601,26	1325,04
601,45	1255,40
601,64	1282,03
601,83	1279,98
602,03	1284,08
602,22	1193,97
602,41	1290,22
602,60	1320,94
602,80	1322,99
602,99	1353,71
603,18	1279,98
603,37	1251,31
603,57	1249,26
603,76	1304,56
603,95	1339,37
604,14	1226,73
604,34	1267,69
604,53	1239,02
604,72	1279,98
604,91	1300,46
605,10	1292,27
605,30	1232,88
605,49	1286,12
605,68	1218,54
605,87	1296,36
606,07	1245,16
606,26	1230,83
606,45	1296,36
606,64	1273,84
606,84	1282,03
607,03	1239,02
607,22	1265,64
607,41	1239,02
607,60	1327,08
607,80	1314,80
607,99	1218,54
608,18	1251,31
608,37	1216,49
608,56	1269,74
608,76	1277,93
608,95	1198,06
609,14	1232,88
609,33	1329,13
609,52	1245,16
609,72	1333,23
609,91	1341,42
610,10	1306,60
610,29	1310,70
610,48	1261,55
610,68	1269,74
610,87	1265,64
611,06	1265,64
611,25	1378,28
611,44	1282,03
611,63	1312,75
611,83	1370,09
612,02	1261,55
612,21	1318,89
612,40	1298,41
612,59	1249,26
612,79	1234,93
612,98	1292,27
613,17	1398,76
613,36	1329,13
613,55	1216,49
613,74	1271,79
613,93	1329,13
614,13	1308,65
614,32	1243,12
614,51	1214,45
614,70	1327,08
614,89	1279,98
615,08	1263,60
615,28	1282,03
615,47	1251,31
615,66	1273,84
615,85	1290,22
616,04	1236,97
616,23	1255,40
616,42	1241,07
616,62	1208,30
616,81	1296,36
617,00	1335,28
617,19	1253,36
617,38	1247,21
617,57	1267,69
617,76	1200,11
617,95	1304,56
618,15	1214,45
618,34	1286,12
618,53	1298,41
618,72	1343,47
618,91	1304,56
619,10	1322,99
619,29	1261,55
619,48	1355,76
619,68	1255,40
619,87	1279,98
620,06	1322,99
620,25	1282,03
620,44	1288,17
620,63	1282,03
620,82	1239,02
621,01	1310,70
621,20	1253,36
621,39	1296,36
621,59	1320,94
621,78	1259,50
621,97	1282,03
622,16	1282,03
622,35	1273,84
622,54	1249,26
622,73	1282,03
622,92	1220,59
623,11	1290,22
623,30	1290,22
623,49	1329,13
623,68	1275,88
623,88	1320,94
624,07	1314,80
624,26	1314,80
624,45	1327,08
624,64	1294,32
624,83	1302,51
625,02	1314,80
625,21	1331,18
625,40	1267,69
625,59	1347,56
625,78	1333,23
625,97	1224,69
626,16	1247,21
626,35	1308,65
626,54	1247,21
626,74	1298,41
626,93	1294,32
627,12	1322,99
627,31	1286,12
627,50	1198,06
627,69	1275,88
627,88	1368,04
628,07	1314,80
628,26	1257,45
628,45	1337,32
628,64	1363,95
628,83	1337,32
629,02	1253,36
629,21	1263,60
629,40	1288,17
629,59	1304,56
629,78	1339,37
629,97	1316,84
630,16	1314,80
630,35	1267,69
630,54	1277,93
630,73	1312,75
630,92	1325,04
631,11	1386,47
631,30	1363,95
631,49	1333,23
631,68	1611,75
631,87	2187,23
632,06	4007,87
632,25	3784,65
632,44	4892,60
632,63	6502,30
632,82	9514,86
633,01	16576,26
633,20	39011,76
633,39	53566,67
633,58	47965,48
633,77	31925,78
633,96	16598,79
634,15	7927,69
634,34	5621,67
634,53	4444,09
634,72	2936,79
634,91	2062,30
635,10	1863,65
635,29	1732,58
635,48	1796,07
635,67	1615,85
635,86	1509,35
636,05	1470,44
636,24	1382,38
636,43	1390,57
636,62	1329,13
636,81	1277,93
637,00	1288,17
637,19	1370,09
637,38	1339,37
637,57	1306,60
637,76	1320,94
637,95	1208,30
638,14	1337,32
638,33	1316,84
638,52	1300,46
638,71	1327,08
638,89	1288,17
639,08	1275,88
639,27	1366,00
639,46	1290,22
639,65	1327,08
639,84	1286,12
640,03	1282,03
640,22	1296,36
640,41	1355,76
640,60	1271,79
640,79	1277,93
640,98	1292,27
641,17	1279,98
641,36	1304,56
641,55	1247,21
641,74	1339,37
641,92	1279,98
642,11	1259,50
642,30	1312,75
642,49	1243,12
642,68	1318,89
642,87	1286,12
643,06	1331,18
643,25	1290,22
643,44	1290,22
643,63	1306,60
643,82	1333,23
644,00	1343,47
644,19	1316,84
644,38	1273,84
644,57	1304,56
644,76	1349,61
644,95	1312,75
645,14	1288,17
645,33	1366,00
645,52	1269,74
645,71	1343,47
645,89	1306,60
646,08	1279,98
646,27	1288,17
646,46	1255,40
646,65	1247,21
646,84	1241,07
647,03	1304,56
647,22	1236,97
647,40	1257,45
647,59	1247,21
647,78	1243,12
647,97	1302,51
648,16	1310,70
648,35	1255,40
648,54	1249,26
648,73	1298,41
648,91	1263,60
649,10	1271,79
649,29	1277,93
649,48	1325,04
649,67	1286,12
649,86	1263,60
650,05	1349,61
650,23	1306,60
650,42	1216,49
650,61	1277,93
650,80	1284,08
650,99	1288,17
651,18	1284,08
651,36	1247,21
651,55	1204,21
651,74	1331,18
651,93	1232,88
652,12	1249,26
652,31	1298,41
652,49	1267,69
652,68	1255,40
652,87	1277,93
653,06	1282,03
653,25	1275,88
653,44	1308,65
653,62	1361,90
653,81	1314,80
654,00	1208,30
654,19	1279,98
654,38	1249,26
654,56	1374,19
654,75	1273,84
654,94	1224,69
655,13	1327,08
655,32	1300,46
655,51	1347,56
655,69	1239,02
655,88	1241,07
656,07	1288,17
656,26	1318,89
656,45	1335,28
656,63	1288,17
656,82	1322,99
657,01	1343,47
657,20	1337,32
657,38	1271,79
657,57	1314,80
657,76	1351,66
657,95	1218,54
658,14	1251,31
658,32	1249,26
658,51	1208,30
658,70	1273,84
658,89	1271,79
659,08	1259,50
659,26	1200,11
659,45	1279,98
659,64	1325,04
659,83	1220,59
660,01	1343,47
660,20	1255,40
660,39	1310,70
660,58	1273,84
660,76	1241,07
660,95	1337,32
661,14	1353,71
661,33	1265,64
661,51	1304,56
661,70	1284,08
661,89	1282,03
662,08	1306,60
662,26	1279,98
662,45	1251,31
662,64	1257,45
662,83	1394,67
663,01	1269,74
663,20	1243,12
663,39	1357,80
663,58	1316,84
663,76	1267,69
663,95	1286,12
664,14	1290,22
664,32	1273,84
664,51	1245,16
664,70	1273,84
664,89	1249,26
665,07	1224,69
665,26	1218,54
665,45	1206,25
665,64	1269,74
665,82	1234,93
666,01	1382,38
666,20	1234,93
666,38	1327,08
666,57	1253,36
666,76	1200,11
666,95	1296,36
667,13	1294,32
667,32	1273,84
667,51	1304,56
667,69	1304,56
667,88	1275,88
668,07	1300,46
668,25	1275,88
668,44	1337,32
668,63	1247,21
668,81	1265,64
669,00	1329,13
669,19	1247,21
669,38	1208,30
669,56	1306,60
669,75	1314,80
669,94	1265,64
670,12	1273,84
670,31	1314,80
670,50	1282,03
670,68	1249,26
670,87	1263,60
671,06	1327,08
671,24	1277,93
671,43	1232,88
671,62	1259,50
671,80	1224,69
671,99	1306,60
672,18	1234,93
672,36	1259,50
672,55	1261,55
672,74	1318,89
672,92	1255,40
673,11	1273,84
673,29	1247,21
673,48	1251,31
673,67	1222,64
673,85	1292,27
674,04	1302,51
674,23	1234,93
674,41	1308,65
674,60	1257,45
674,79	1232,88
674,97	1232,88
675,16	1247,21
675,34	1267,69
675,53	1286,12
675,72	1306,60
675,90	1222,64
676,09	1286,12
676,28	1300,46
676,46	1320,94
676,65	1327,08
676,83	1261,55
677,02	1290,22
677,21	1325,04
677,39	1345,52
677,58	1247,21
677,77	1247,21
677,95	1247,21
678,14	1210,35
678,32	1251,31
678,51	1267,69
678,70	1331,18
678,88	1198,06
679,07	1255,40
679,25	1267,69
679,44	1318,89
679,63	1296,36
679,81	1257,45
680,00	1249,26
680,18	1236,97
680,37	1234,93
680,55	1232,88
680,74	1232,88
680,93	1322,99
681,11	1312,75
681,30	1298,41
681,48	1318,89
681,67	1255,40
681,85	1251,31
682,04	1239,02
682,23	1255,40
682,41	1239,02
682,60	1247,21
682,78	1232,88
682,97	1322,99
683,15	1224,69
683,34	1300,46
683,53	1275,88
683,71	1314,80
683,90	1259,50
684,08	1249,26
684,27	1298,41
684,45	1198,06
684,64	1269,74
684,82	1263,60
685,01	1257,45
685,19	1320,94
685,38	1277,93
685,57	1208,30
685,75	1302,51
685,94	1255,40
686,12	1318,89
686,31	1306,60
686,49	1247,21
686,68	1316,84
686,86	1290,22
687,05	1296,36
687,23	1191,92
687,42	1306,60
687,60	1263,60
687,79	1204,21
687,97	1292,27
688,16	1357,80
688,34	1273,84
688,53	1241,07
688,71	1245,16
688,90	1269,74
689,08	1284,08
689,27	1275,88
689,45	1279,98
689,64	1253,36
689,82	1370,09
690,01	1284,08
690,19	1245,16
690,38	1318,89
690,56	1265,64
690,75	1236,97
690,93	1314,80
691,12	1214,45
691,30	1251,31
691,49	1228,78
691,67	1290,22
691,86	1255,40
692,04	1263,60
692,23	1363,95
692,41	1312,75
692,60	1267,69
692,78	1245,16
692,97	1286,12
693,15	1339,37
693,34	1204,21
693,52	1243,12
693,71	1279,98
693,89	1259,50
694,08	1202,16
694,26	1290,22
694,44	1265,64
694,63	1226,73
694,81	1243,12
695,00	1277,93
695,18	1275,88
695,37	1331,18
695,55	1228,78
695,74	1214,45
695,92	1259,50
696,10	1232,88
696,29	1284,08
696,47	1310,70
696,66	1241,07
696,84	1249,26
697,03	1198,06
697,21	1271,79
697,40	1318,89
697,58	1259,50
697,76	1269,74
697,95	1290,22
698,13	1327,08
698,32	1275,88
698,50	1222,64
698,68	1196,01
698,87	1224,69
699,05	1253,36
699,24	1187,82
699,42	1216,49
699,61	1255,40
699,79	1257,45
699,97	1249,26
700,16	1273,84
700,34	1259,50
700,53	1288,17
700,71	1275,88
700,89	1259,50
701,08	1253,36
701,26	1304,56
701,45	1327,08
701,63	1329,13
701,81	1294,32
702,00	1269,74
702,18	1247,21
702,37	1288,17
702,55	1236,97
702,73	1302,51
702,92	1337,32
703,10	1292,27
703,28	1282,03
703,47	1273,84
703,65	1296,36
703,84	1273,84
704,02	1247,21
704,20	1333,23
704,39	1331,18
704,57	1294,32
704,75	1275,88
704,94	1275,88
705,12	1241,07
705,30	1191,92
705,49	1245,16
705,67	1275,88
705,86	1255,40
706,04	1304,56
706,22	1261,55
706,41	1259,50
706,59	1267,69
706,77	1294,32
706,96	1269,74
707,14	1304,56
707,32	1294,32
707,51	1269,74
707,69	1306,60
707,87	1265,64
708,06	1249,26
708,24	1263,60
708,42	1243,12
708,61	1294,32
708,79	1304,56
708,97	1226,73
709,16	1343,47
709,34	1247,21
709,52	1249,26
709,71	1279,98
709,89	1316,84
710,07	1216,49
710,26	1298,41
710,44	1271,79
710,62	1255,40
710,80	1296,36
710,99	1320,94
711,17	1331,18
711,35	1234,93
711,54	1214,45
711,72	1234,93
711,90	1243,12
712,09	1284,08
712,27	1388,52
712,45	1308,65
712,63	1222,64
712,82	1277,93
713,00	1286,12
713,18	1261,55
713,37	1255,40
713,55	1316,84
713,73	1239,02
713,91	1216,49
714,10	1241,07
714,28	1345,52
714,46	1212,40
714,65	1322,99
714,83	1253,36
715,01	1331,18
715,19	1267,69
715,38	1249,26
715,56	1263,60
715,74	1218,54
715,92	1253,36
716,11	1279,98
716,29	1310,70
716,47	1341,42
716,65	1249,26
716,84	1196,01
717,02	1290,22
717,20	1263,60
717,38	1265,64
717,57	1218,54
717,75	1224,69
717,93	1269,74
718,11	1241,07
718,30	1273,84
718,48	1286,12
718,66	1304,56
718,84	1284,08
719,03	1284,08
719,21	1273,84
719,39	1298,41
719,57	1314,80
719,75	1206,25
719,94	1265,64
720,12	1220,59
720,30	1279,98
720,48	1236,97
720,67	1216,49
720,85	1275,88
721,03	1239,02
721,21	1251,31
721,39	1282,03
721,58	1198,06
721,76	1361,90
721,94	1220,59
722,12	1279,98
722,30	1243,12
722,49	1232,88
722,67	1232,88
722,85	1259,50
723,03	1220,59
723,21	1288,17
723,40	1335,28
723,58	1236,97
723,76	1269,74
723,94	1257,45
724,12	1290,22
724,30	1306,60
724,49	1243,12
724,67	1296,36
724,85	1271,79
725,03	1222,64
725,21	1339,37
725,40	1284,08
725,58	1271,79
725,76	1259,50
725,94	1234,93
726,12	1228,78
726,30	1198,06
726,49	1298,41
726,67	1277,93
726,85	1331,18
727,03	1249,26
727,21	1228,78
727,39	1282,03
727,57	1247,21
727,76	1245,16
727,94	1372,14
728,12	1208,30
728,30	1282,03
728,48	1275,88
728,66	1234,93
728,84	1261,55
729,03	1210,35
729,21	1261,55
729,39	1253,36
729,57	1263,60
729,75	1298,41
729,93	1273,84
730,11	1241,07
730,30	1335,28
730,48	1325,04
730,66	1286,12
730,84	1284,08
731,02	1286,12
731,20	1279,98
731,38	1275,88
731,56	1263,60
731,74	1251,31
731,93	1206,25
732,11	1322,99
732,29	1273,84
732,47	1241,07
732,65	1222,64
732,83	1212,40
733,01	1202,16
733,19	1294,32
733,37	1253,36
733,56	1298,41
733,74	1288,17
733,92	1282,03
734,10	1259,50
734,28	1271,79
734,46	1214,45
734,64	1239,02
734,82	1196,01
735,00	1236,97
735,18	1267,69
735,36	1255,40
735,54	1271,79
735,73	1220,59
735,91	1265,64
736,09	1212,40
736,27	1304,56
736,45	1269,74
736,63	1224,69
736,81	1189,87
736,99	1286,12
737,17	1251,31
737,35	1306,60
737,53	1208,30
737,71	1302,51
737,89	1265,64
738,07	1263,60
738,25	1249,26
738,43	1337,32
738,61	1236,97
738,80	1247,21
738,98	1226,73
739,16	1290,22
739,34	1214,45
739,52	1265,64
739,70	1247,21
739,88	1286,12
740,06	1288,17
740,24	1251,31
740,42	1273,84
740,60	1226,73
740,78	1292,27
740,96	1259,50
741,14	1239,02
741,32	1327,08
741,50	1353,71
741,68	1312,75
741,86	1288,17
742,04	1296,36
742,22	1228,78
742,40	1232,88
742,58	1279,98
742,76	1361,90
742,94	1236,97
743,12	1245,16
743,30	1173,49
743,48	1282,03
743,66	1282,03
743,84	1228,78
744,02	1259,50
744,20	1320,94
744,38	1269,74
744,56	1200,11
744,74	1241,07
744,92	1316,84
745,10	1261,55
745,28	1312,75
745,46	1265,64
745,64	1329,13
745,82	1284,08
746,00	1294,32
746,18	1236,97
746,36	1239,02
746,54	1167,34
746,72	1234,93
746,90	1300,46
747,08	1265,64
747,26	1312,75
747,44	1245,16
747,62	1247,21
747,80	1216,49
747,98	1255,40
748,15	1247,21
748,33	1353,71
748,51	1249,26
748,69	1314,80
748,87	1239,02
749,05	1306,60
749,23	1273,84
749,41	1255,40
749,59	1318,89
749,77	1288,17
749,95	1198,06
750,13	1228,78
750,31	1282,03
750,49	1263,60
750,67	1247,21
750,85	1267,69
751,03	1331,18
751,20	1314,80
751,38	1286,12
751,56	1304,56
751,74	1335,28
751,92	1263,60
752,10	1228,78
752,28	1302,51
752,46	1298,41
752,64	1296,36
752,82	1216,49
753,00	1292,27
753,18	1273,84
753,35	1273,84
753,53	1236,97
753,71	1298,41
753,89	1296,36
754,07	1247,21
754,25	1222,64
754,43	1269,74
754,61	1196,01
754,79	1220,59
754,97	1214,45
755,14	1212,40
755,32	1290,22
755,50	1263,60
755,68	1234,93
755,86	1200,11
756,04	1259,50
756,22	1234,93
756,40	1296,36
756,57	1298,41
756,75	1224,69
756,93	1290,22
757,11	1234,93
757,29	1236,97
757,47	1327,08
757,65	1325,04
757,82	1265,64
758,00	1292,27
758,18	1263,60
758,36	1282,03
758,54	1257,45
758,72	1222,64
758,90	1306,60
759,07	1236,97
759,25	1284,08
759,43	1279,98
759,61	1277,93
759,79	1245,16
759,97	1271,79
760,15	1296,36
760,32	1325,04
760,50	1329,13
760,68	1282,03
760,86	1306,60
761,04	1282,03
761,22	1230,83
761,39	1234,93
761,57	1224,69
761,75	1191,92
761,93	1255,40
762,11	1243,12
762,28	1259,50
762,46	1306,60
762,64	1310,70
762,82	1300,46
763,00	1253,36
763,18	1271,79
763,35	1226,73
763,53	1218,54
763,71	1214,45
763,89	1265,64
764,07	1261,55
764,24	1218,54
764,42	1308,65
764,60	1239,02
764,78	1273,84
764,96	1220,59
765,13	1198,06
765,31	1290,22
765,49	1222,64
765,67	1290,22
765,84	1245,16
766,02	1239,02
766,20	1234,93
766,38	1243,12
766,56	1232,88
766,73	1241,07
766,91	1210,35
767,09	1234,93
767,27	1273,84
767,44	1245,16
767,62	1214,45
767,80	1318,89
767,98	1193,97
768,15	1304,56
768,33	1302,51
768,51	1232,88
768,69	1304,56
768,87	1318,89
769,04	1218,54
769,22	1298,41
769,40	1247,21
769,58	1292,27
769,75	1253,36
769,93	1327,08
770,11	1251,31
770,28	1320,94
770,46	1247,21
770,64	1290,22
770,82	1261,55
770,99	1245,16
771,17	1304,56
771,35	1351,66
771,53	1302,51
771,70	1288,17
771,88	1312,75
772,06	1226,73
772,23	1255,40
772,41	1247,21
772,59	1222,64
772,77	1290,22
772,94	1279,98
773,12	1286,12
773,30	1257,45
773,47	1220,59
773,65	1267,69
773,83	1306,60
774,01	1228,78
774,18	1282,03
774,36	1222,64
774,54	1255,40
774,71	1279,98
774,89	1206,25
775,07	1279,98
775,24	1339,37
775,42	1249,26
775,60	1234,93
775,78	1292,27
775,95	1271,79
776,13	1265,64
776,31	1228,78
776,48	1282,03
776,66	1265,64
776,84	1325,04
777,01	1279,98
777,19	1228,78
777,37	1273,84
777,54	1263,60
777,72	1269,74
777,90	1314,80
778,07	1253,36
778,25	1282,03
778,43	1312,75
778,60	1300,46
778,78	1269,74
778,96	1286,12
779,13	1222,64
779,31	1335,28
779,49	1226,73
779,66	1236,97
779,84	1257,45
780,01	1271,79
780,19	1226,73
780,37	1255,40
780,54	1236,97
780,72	1265,64
780,90	1269,74
781,07	1290,22
781,25	1236,97
781,43	1236,97
781,60	1298,41
781,78	1288,17
781,95	1320,94
782,13	1267,69
782,31	1294,32
782,48	1261,55
782,66	1292,27
782,83	1282,03
783,01	1224,69
783,19	1204,21
783,36	1273,84
783,54	1241,07
783,72	1335,28
783,89	1302,51
784,07	1228,78
784,24	1271,79
784,42	1257,45
784,60	1304,56
784,77	1325,04
784,95	1382,38
785,12	1193,97
785,30	1255,40
785,47	1259,50
785,65	1241,07
785,83	1296,36
786,00	1347,56
786,18	1189,87
786,35	1263,60
786,53	1265,64
786,71	1251,31
786,88	1265,64
787,06	1282,03
787,23	1298,41
787,41	1284,08
787,58	1216,49
787,76	1304,56
787,94	1247,21
788,11	1282,03
788,29	1267,69
788,46	1306,60
788,64	1222,64
788,81	1251,31
788,99	1263,60
789,16	1329,13
789,34	1214,45
789,52	1269,74
789,69	1271,79
789,87	1232,88
790,04	1255,40
790,22	1298,41
790,39	1185,77
790,57	1247,21
790,74	1165,29
790,92	1261,55
791,09	1290,22
791,27	1247,21
791,44	1277,93
791,62	1277,93
791,79	1239,02
791,97	1202,16
792,15	1185,77
792,32	1245,16
792,50	1296,36
792,67	1239,02
792,85	1273,84
793,02	1263,60
793,20	1296,36
793,37	1247,21
793,55	1222,64
793,72	1222,64
793,90	1263,60
794,07	1257,45
794,25	1226,73
794,42	1273,84
794,60	1208,30
794,77	1251,31
794,95	1271,79
795,12	1282,03
795,30	1206,25
795,47	1257,45
795,65	1212,40
795,82	1259,50
796,00	1292,27
796,17	1277,93
796,34	1249,26
796,52	1241,07
796,69	1249,26
796,87	1259,50
797,04	1245,16
797,22	1308,65
797,39	1255,40
797,57	1257,45
797,74	1288,17
797,92	1296,36
798,09	1196,01
798,27	1261,55
798,44	1253,36
798,62	1333,23
798,79	1267,69
798,96	1202,16
799,14	1277,93
799,31	1232,88
799,49	1277,93
799,66	1210,35
799,84	1290,22
800,01	1286,12
800,19	1230,83
800,36	1257,45
800,53	1257,45
800,71	1234,93
800,88	1259,50
801,06	1245,16
801,23	1282,03
801,41	1288,17
801,58	1271,79
801,75	1296,36
801,93	1318,89
802,10	1230,83
802,28	1179,63
802,45	1286,12
802,63	1263,60
802,80	1255,40
802,97	1247,21
803,15	1171,44
803,32	1220,59
803,50	1288,17
803,67	1292,27
803,84	1267,69
804,02	1214,45
804,19	1239,02
804,37	1189,87
804,54	1193,97
804,71	1286,12
804,89	1290,22
805,06	1279,98
805,24	1243,12
805,41	1257,45
805,58	1263,60
805,76	1275,88
805,93	1257,45
806,10	1339,37
806,28	1337,32
806,45	1230,83
806,63	1241,07
806,80	1216,49
806,97	1181,68
807,15	1279,98
807,32	1222,64
807,49	1230,83
807,67	1263,60
807,84	1253,36
808,01	1239,02
808,19	1277,93
808,36	1329,13
808,54	1234,93
808,71	1279,98
808,88	1306,60
809,06	1232,88
809,23	1249,26
809,40	1277,93
809,58	1267,69
809,75	1277,93
809,92	1329,13
810,10	1196,01
810,27	1279,98
810,44	1290,22
810,62	1265,64
810,79	1322,99
810,96	1220,59
811,14	1245,16
811,31	1277,93
811,48	1294,32
811,66	1239,02
811,83	1255,40
812,00	1228,78
812,18	1298,41
812,35	1224,69
812,52	1304,56
812,69	1253,36
812,87	1241,07
813,04	1228,78
813,21	1314,80
813,39	1277,93
813,56	1236,97
813,73	1277,93
813,91	1253,36
814,08	1257,45
814,25	1290,22
814,42	1282,03
814,60	1257,45
814,77	1263,60
814,94	1263,60
815,12	1234,93
815,29	1239,02
815,46	1251,31
815,63	1290,22
815,81	1282,03
815,98	1325,04
816,15	1255,40
816,33	1232,88
816,50	1263,60
816,67	1249,26
816,84	1331,18
817,02	1284,08
817,19	1255,40
817,36	1282,03
817,53	1286,12
817,71	1173,49
817,88	1294,32
818,05	1212,40
818,22	1290,22
818,40	1259,50
818,57	1353,71
818,74	1271,79
818,91	1279,98
819,09	1273,84
819,26	1331,18
819,43	1208,30
819,60	1245,16
819,78	1277,93
819,95	1277,93
820,12	1271,79
820,29	1214,45
820,47	1277,93
820,64	1255,40
820,81	1259,50
820,98	1263,60
821,15	1249,26
821,33	1341,42
821,50	1261,55
821,67	1284,08
821,84	1277,93
822,02	1253,36
822,19	1214,45
822,36	1300,46
822,53	1339,37
822,70	1290,22
822,88	1273,84
823,05	1312,75
823,22	1257,45
823,39	1296,36
823,56	1331,18
823,74	1275,88
823,91	1310,70
824,08	1251,31
824,25	1286,12
824,42	1255,40
824,60	1253,36
824,77	1310,70
824,94	1347,56
825,11	1216,49
825,28	1290,22
825,45	1234,93
825,63	1175,53
825,80	1298,41
825,97	1239,02
826,14	1175,53
826,31	1282,03
826,48	1232,88
826,66	1181,68
826,83	1341,42
827,00	1230,83
827,17	1296,36
827,34	1288,17
827,51	1271,79
827,69	1296,36
827,86	1312,75
828,03	1267,69
828,20	1257,45
828,37	1247,21
828,54	1282,03
828,71	1232,88
828,89	1304,56
829,06	1214,45
829,23	1267,69
829,40	1318,89
829,57	1253,36
829,74	1208,30
829,91	1265,64
830,09	1292,27
830,26	1257,45
830,43	1175,53
830,60	1279,98
830,77	1269,74
830,94	1302,51
831,11	1265,64
831,28	1247,21
831,46	1228,78
831,63	1267,69
831,80	1220,59
831,97	1267,69
832,14	1298,41
832,31	1282,03
832,48	1255,40
832,65	1269,74
832,82	1302,51
832,99	1247,21
833,17	1183,73
833,34	1304,56
833,51	1279,98
833,68	1271,79
833,85	1198,06
834,02	1247,21
834,19	1249,26
834,36	1306,60
834,53	1228,78
834,70	1216,49
834,87	1271,79
835,04	1279,98
835,22	1275,88
835,39	1243,12
835,56	1251,31
835,73	1273,84
835,90	1284,08
836,07	1277,93
836,24	1277,93
836,41	1267,69
836,58	1339,37
836,75	1286,12
836,92	1247,21
837,09	1183,73
837,26	1325,04
837,43	1200,11
837,60	1282,03
837,77	1339,37
837,94	1261,55
838,12	1302,51
838,29	1292,27
838,46	1261,55
838,63	1263,60
838,80	1226,73
838,97	1271,79
839,14	1284,08
839,31	1294,32
839,48	1230,83
839,65	1292,27
839,82	1382,38
839,99	1236,97
840,16	1261,55
840,33	1255,40
840,50	1325,04
840,67	1269,74
840,84	1257,45
841,01	1259,50
841,18	1300,46
841,35	1322,99
841,52	1216,49
841,69	1308,65
841,86	1329,13
842,03	1273,84
842,20	1312,75
842,37	1226,73
842,54	1310,70
842,71	1286,12
842,88	1273,84
843,05	1290,22
843,22	1241,07
843,39	1220,59
843,56	1189,87
843,73	1288,17
843,90	1265,64
844,07	1322,99
844,24	1282,03
844,41	1308,65
844,58	1284,08
844,75	1267,69
844,92	1279,98
845,09	1236,97
845,26	1273,84
845,43	1228,78
845,60	1257,45
845,77	1290,22
845,94	1241,07
846,10	1275,88
846,27	1216,49
846,44	1304,56
846,61	1314,80
846,78	1191,92
846,95	1273,84
847,12	1290,22
847,29	1255,40
847,46	1224,69
847,63	1241,07
847,80	1216,49
847,97	1277,93
848,14	1308,65
848,31	1212,40
848,48	1234,93
848,65	1304,56
848,82	1243,12
848,98	1294,32
849,15	1253,36
849,32	1230,83
849,49	1331,18
849,66	1239,02
849,83	1243,12
850,00	1261,55
850,17	1245,16
850,34	1304,56
850,51	1218,54
850,68	1249,26
850,85	1251,31
851,01	1302,51
851,18	1292,27
851,35	1257,45
851,52	1257,45
851,69	1300,46
851,86	1302,51
852,03	1292,27
852,20	1290,22
852,37	1284,08
852,53	1251,31
852,70	1259,50
852,87	1282,03
853,04	1226,73
853,21	1294,32
853,38	1279,98
853,55	1296,36
853,72	1255,40
853,89	1329,13
854,05	1288,17
854,22	1206,25
854,39	1284,08
854,56	1331,18
854,73	1245,16
854,90	1243,12
855,07	1253,36
855,23	1200,11
855,40	1243,12
855,57	1300,46
855,74	1261,55
855,91	1286,12
856,08	1181,68
856,25	1241,07
856,41	1290,22
856,58	1232,88
856,75	1292,27
856,92	1286,12
857,09	1292,27
857,26	1306,60
857,42	1327,08
857,59	1302,51
857,76	1296,36
857,93	1247,21
858,10	1251,31
858,27	1292,27
858,43	1245,16
858,60	1263,60
858,77	1298,41
858,94	1259,50
859,11	1232,88
859,27	1222,64
859,44	1247,21
859,61	1282,03
859,78	1337,32
859,95	1304,56
860,12	1249,26
860,28	1263,60
860,45	1290,22
860,62	1200,11
860,79	1345,52
860,95	1265,64
861,12	1204,21
861,29	1255,40
861,46	1261,55
861,63	1224,69
861,79	1210,35
861,96	1351,66
862,13	1259,50
862,30	1269,74
862,47	1357,80
862,63	1245,16
862,80	1247,21
862,97	1327,08
863,14	1259,50
863,30	1282,03
863,47	1327,08
863,64	1312,75
863,81	1290,22
863,97	1251,31
864,14	1241,07
864,31	1204,21
864,48	1271,79
864,65	1298,41
864,81	1273,84
864,98	1236,97
865,15	1322,99
865,32	1185,77
865,48	1241,07
865,65	1269,74
865,82	1308,65
865,98	1253,36
866,15	1255,40
866,32	1267,69
866,49	1228,78
866,65	1337,32
866,82	1257,45
866,99	1290,22
867,16	1282,03
867,32	1290,22
867,49	1282,03
867,66	1310,70
867,83	1206,25
867,99	1290,22
868,16	1273,84
868,33	1312,75
868,49	1255,40
868,66	1284,08
868,83	1284,08
868,99	1224,69
869,16	1275,88
869,33	1355,76
869,50	1232,88
869,66	1241,07
869,83	1312,75
870,00	1253,36
870,16	1290,22
870,33	1327,08
870,50	1314,80
870,66	1259,50
870,83	1284,08
871,00	1335,28
871,17	1200,11
871,33	1171,44
871,50	1259,50
871,67	1267,69
871,83	1214,45
872,00	1288,17
872,17	1224,69
872,33	1296,36
872,50	1222,64
872,67	1271,79
872,83	1165,29
873,00	1290,22
873,17	1271,79
873,33	1277,93
873,50	1290,22
873,67	1230,83
873,83	1206,25
874,00	1228,78
874,16	1298,41
874,33	1157,10
874,50	1181,68
874,66	1271,79
874,83	1236,97
875,00	1284,08
875,16	1261,55
875,33	1228,78
875,50	1257,45
875,66	1294,32
875,83	1247,21
875,99	1277,93
876,16	1327,08
876,33	1224,69
876,49	1306,60
876,66	1300,46
876,83	1294,32
876,99	1286,12
877,16	1269,74
877,32	1234,93
877,49	1339,37
877,66	1290,22
877,82	1331,18
877,99	1267,69
878,15	1320,94
878,32	1304,56
878,49	1208,30
878,65	1224,69
878,82	1308,65
878,98	1249,26
879,15	1284,08
879,32	1267,69
879,48	1265,64
879,65	1282,03
879,81	1312,75
879,98	1275,88
880,15	1261,55
880,31	1255,40
880,48	1347,56
880,64	1265,64
880,81	1259,50
880,97	1322,99
881,14	1286,12
881,31	1175,53
881,47	1353,71
881,64	1306,60
881,80	1298,41
881,97	1193,97
882,13	1247,21
882,30	1345,52
882,47	1314,80
882,63	1247,21
882,80	1294,32
882,96	1318,89
883,13	1284,08
883,29	1208,30
883,46	1187,82
883,62	1218,54
883,79	1271,79
883,95	1206,25
884,12	1247,21
884,29	1282,03
884,45	1232,88
884,62	1286,12
884,78	1245,16
884,95	1247,21
885,11	1247,21
885,28	1345,52
885,44	1296,36
885,61	1202,16
885,77	1220,59
885,94	1267,69
886,10	1312,75
886,27	1261,55
886,43	1290,22
886,60	1255,40
886,76	1271,79
886,93	1308,65
887,09	1222,64
887,26	1189,87
887,42	1310,70
887,59	1284,08
887,75	1333,23
887,92	1208,30
888,08	1316,84
888,25	1218,54
888,41	1267,69
888,58	1265,64
888,74	1294,32
888,91	1253,36
>>>>>End Processed Spectral Data<<<<<
