SpectraSuite Data File
++++++++++++++++++++++++++++++++++++
Date: Sun Apr 03 19:55:45 CEST 2016
User: root
Dark Spectrum Present: No
Reference Spectrum Present: No
Number of Sampled Component Spectra: 1
Spectrometers: USB4C02835
Integration Time (usec): 10000 (USB4C02835)
Spectra Averaged: 1 (USB4C02835)
Boxcar Smoothing: 0 (USB4C02835)
Correct for Electrical Dark: No (USB4C02835)
Strobe/Lamp Enabled: No (USB4C02835)
Correct for Detector Non-linearity: No (USB4C02835)
Correct for Stray Light: No (USB4C02835)
Number of Pixels in Processed Spectrum: 3648
>>>>>Begin Processed Spectral Data<<<<<
177,47	1243,12
177,69	1243,12
177,91	1243,12
178,13	1245,16
178,36	1214,45
178,58	1300,46
178,80	1255,40
179,02	1236,97
179,24	1271,79
179,46	1273,84
179,68	1325,04
179,90	1327,08
180,13	1245,16
180,35	1249,26
180,57	1265,64
180,79	1257,45
181,01	1126,38
181,23	1286,12
181,45	1232,88
181,67	1273,84
181,90	1277,93
182,12	1286,12
182,34	1279,98
182,56	1249,26
182,78	1335,28
183,00	1249,26
183,22	1310,70
183,44	1212,40
183,66	1265,64
183,89	1236,97
184,11	1314,80
184,33	1216,49
184,55	1253,36
184,77	1257,45
184,99	1277,93
185,21	1259,50
185,43	1247,21
185,65	1320,94
185,87	1290,22
186,10	1251,31
186,32	1314,80
186,54	1302,51
186,76	1325,04
186,98	1265,64
187,20	1216,49
187,42	1294,32
187,64	1253,36
187,86	1208,30
188,08	1257,45
188,30	1290,22
188,52	1243,12
188,75	1255,40
188,97	1216,49
189,19	1212,40
189,41	1247,21
189,63	1292,27
189,85	1239,02
190,07	1273,84
190,29	1263,60
190,51	1236,97
190,73	1269,74
190,95	1304,56
191,17	1241,07
191,39	1241,07
191,61	1312,75
191,84	1265,64
192,06	1214,45
192,28	1282,03
192,50	1322,99
192,72	1249,26
192,94	1249,26
193,16	1292,27
193,38	1298,41
193,60	1253,36
193,82	1296,36
194,04	1236,97
194,26	1282,03
194,48	1353,71
194,70	1249,26
194,92	1247,21
195,14	1263,60
195,36	1298,41
195,58	1273,84
195,80	1224,69
196,02	1206,25
196,24	1210,35
196,46	1286,12
196,69	1269,74
196,91	1300,46
197,13	1265,64
197,35	1273,84
197,57	1275,88
197,79	1247,21
198,01	1224,69
198,23	1269,74
198,45	1298,41
198,67	1294,32
198,89	1257,45
199,11	1241,07
199,33	1271,79
199,55	1290,22
199,77	1257,45
199,99	1267,69
200,21	1329,13
200,43	1279,98
200,65	1257,45
200,87	1306,60
201,09	1230,83
201,31	1218,54
201,53	1245,16
201,75	1292,27
201,97	1251,31
202,19	1241,07
202,41	1277,93
202,63	1206,25
202,85	1257,45
203,07	1306,60
203,29	1275,88
203,51	1277,93
203,73	1183,73
203,95	1298,41
204,17	1159,15
204,39	1271,79
204,61	1251,31
204,83	1286,12
205,05	1300,46
205,27	1298,41
205,49	1247,21
205,71	1314,80
205,93	1234,93
206,15	1273,84
206,37	1249,26
206,59	1279,98
206,81	1208,30
207,03	1335,28
207,25	1261,55
207,47	1265,64
207,69	1320,94
207,91	1325,04
208,13	1216,49
208,34	1279,98
208,56	1318,89
208,78	1290,22
209,00	1249,26
209,22	1298,41
209,44	1249,26
209,66	1222,64
209,88	1265,64
210,10	1279,98
210,32	1220,59
210,54	1341,42
210,76	1228,78
210,98	1273,84
211,20	1228,78
211,42	1284,08
211,64	1259,50
211,86	1296,36
212,08	1249,26
212,30	1302,51
212,52	1251,31
212,74	1325,04
212,96	1218,54
213,17	1198,06
213,39	1322,99
213,61	1257,45
213,83	1306,60
214,05	1247,21
214,27	1224,69
214,49	1267,69
214,71	1279,98
214,93	1261,55
215,15	1302,51
215,37	1255,40
215,59	1282,03
215,81	1222,64
216,03	1247,21
216,24	1294,32
216,46	1251,31
216,68	1294,32
216,90	1290,22
217,12	1198,06
217,34	1243,12
217,56	1228,78
217,78	1290,22
218,00	1271,79
218,22	1282,03
218,44	1312,75
218,66	1261,55
218,87	1273,84
219,09	1249,26
219,31	1263,60
219,53	1216,49
219,75	1331,18
219,97	1222,64
220,19	1282,03
220,41	1310,70
220,63	1267,69
220,85	1333,23
221,06	1249,26
221,28	1265,64
221,50	1290,22
221,72	1325,04
221,94	1279,98
222,16	1325,04
222,38	1261,55
222,60	1302,51
222,82	1267,69
223,03	1267,69
223,25	1265,64
223,47	1245,16
223,69	1243,12
223,91	1306,60
224,13	1257,45
224,35	1206,25
224,57	1275,88
224,78	1300,46
225,00	1337,32
225,22	1290,22
225,44	1257,45
225,66	1265,64
225,88	1282,03
226,10	1226,73
226,32	1288,17
226,53	1200,11
226,75	1214,45
226,97	1316,84
227,19	1202,16
227,41	1304,56
227,63	1279,98
227,85	1290,22
228,06	1267,69
228,28	1249,26
228,50	1265,64
228,72	1310,70
228,94	1253,36
229,16	1351,66
229,37	1271,79
229,59	1310,70
229,81	1241,07
230,03	1234,93
230,25	1263,60
230,47	1249,26
230,69	1269,74
230,90	1234,93
231,12	1253,36
231,34	1204,21
231,56	1200,11
231,78	1275,88
232,00	1337,32
232,21	1300,46
232,43	1304,56
232,65	1236,97
232,87	1206,25
233,09	1239,02
233,30	1253,36
233,52	1259,50
233,74	1282,03
233,96	1337,32
234,18	1265,64
234,40	1245,16
234,61	1314,80
234,83	1261,55
235,05	1257,45
235,27	1275,88
235,49	1310,70
235,70	1265,64
235,92	1230,83
236,14	1267,69
236,36	1302,51
236,58	1243,12
236,79	1312,75
237,01	1224,69
237,23	1224,69
237,45	1255,40
237,67	1263,60
237,88	1304,56
238,10	1267,69
238,32	1304,56
238,54	1236,97
238,76	1271,79
238,97	1277,93
239,19	1279,98
239,41	1271,79
239,63	1239,02
239,85	1275,88
240,06	1243,12
240,28	1282,03
240,50	1241,07
240,72	1320,94
240,93	1214,45
241,15	1263,60
241,37	1275,88
241,59	1216,49
241,81	1216,49
242,02	1302,51
242,24	1296,36
242,46	1296,36
242,68	1284,08
242,89	1314,80
243,11	1222,64
243,33	1245,16
243,55	1312,75
243,76	1204,21
243,98	1288,17
244,20	1241,07
244,42	1218,54
244,64	1296,36
244,85	1292,27
245,07	1267,69
245,29	1267,69
245,51	1279,98
245,72	1304,56
245,94	1257,45
246,16	1273,84
246,38	1314,80
246,59	1212,40
246,81	1308,65
247,03	1245,16
247,24	1157,10
247,46	1316,84
247,68	1255,40
247,90	1224,69
248,11	1320,94
248,33	1337,32
248,55	1210,35
248,77	1251,31
248,98	1204,21
249,20	1298,41
249,42	1212,40
249,64	1241,07
249,85	1241,07
250,07	1329,13
250,29	1249,26
250,50	1308,65
250,72	1187,82
250,94	1370,09
251,16	1257,45
251,37	1212,40
251,59	1292,27
251,81	1234,93
252,02	1322,99
252,24	1322,99
252,46	1226,73
252,68	1249,26
252,89	1251,31
253,11	1265,64
253,33	1296,36
253,54	1263,60
253,76	1185,77
253,98	1200,11
254,20	1253,36
254,41	1312,75
254,63	1331,18
254,85	1253,36
255,06	1230,83
255,28	1290,22
255,50	1265,64
255,71	1234,93
255,93	1228,78
256,15	1230,83
256,36	1277,93
256,58	1220,59
256,80	1247,21
257,02	1230,83
257,23	1267,69
257,45	1325,04
257,67	1312,75
257,88	1167,34
258,10	1310,70
258,32	1294,32
258,53	1257,45
258,75	1241,07
258,97	1255,40
259,18	1306,60
259,40	1251,31
259,62	1337,32
259,83	1218,54
260,05	1265,64
260,27	1329,13
260,48	1247,21
260,70	1236,97
260,92	1241,07
261,13	1255,40
261,35	1200,11
261,57	1300,46
261,78	1202,16
262,00	1304,56
262,22	1284,08
262,43	1259,50
262,65	1298,41
262,86	1245,16
263,08	1290,22
263,30	1335,28
263,51	1267,69
263,73	1167,34
263,95	1322,99
264,16	1259,50
264,38	1253,36
264,60	1314,80
264,81	1247,21
265,03	1257,45
265,25	1193,97
265,46	1290,22
265,68	1284,08
265,89	1302,51
266,11	1243,12
266,33	1214,45
266,54	1343,47
266,76	1253,36
266,98	1249,26
267,19	1247,21
267,41	1282,03
267,62	1251,31
267,84	1257,45
268,06	1257,45
268,27	1226,73
268,49	1241,07
268,70	1269,74
268,92	1304,56
269,14	1304,56
269,35	1255,40
269,57	1298,41
269,79	1222,64
270,00	1239,02
270,22	1294,32
270,43	1208,30
270,65	1263,60
270,87	1236,97
271,08	1179,63
271,30	1290,22
271,51	1232,88
271,73	1265,64
271,95	1232,88
272,16	1220,59
272,38	1204,21
272,59	1243,12
272,81	1273,84
273,02	1263,60
273,24	1245,16
273,46	1236,97
273,67	1257,45
273,89	1325,04
274,10	1290,22
274,32	1298,41
274,54	1239,02
274,75	1284,08
274,97	1261,55
275,18	1288,17
275,40	1306,60
275,61	1202,16
275,83	1302,51
276,05	1234,93
276,26	1318,89
276,48	1275,88
276,69	1243,12
276,91	1265,64
277,12	1271,79
277,34	1220,59
277,55	1282,03
277,77	1259,50
277,99	1329,13
278,20	1222,64
278,42	1230,83
278,63	1304,56
278,85	1173,49
279,06	1269,74
279,28	1257,45
279,49	1245,16
279,71	1273,84
279,93	1304,56
280,14	1257,45
280,36	1208,30
280,57	1325,04
280,79	1255,40
281,00	1226,73
281,22	1284,08
281,43	1269,74
281,65	1255,40
281,86	1310,70
282,08	1224,69
282,29	1204,21
282,51	1267,69
282,73	1288,17
282,94	1279,98
283,16	1290,22
283,37	1253,36
283,59	1249,26
283,80	1234,93
284,02	1251,31
284,23	1208,30
284,45	1257,45
284,66	1277,93
284,88	1222,64
285,09	1273,84
285,31	1265,64
285,52	1314,80
285,74	1292,27
285,95	1282,03
286,17	1249,26
286,38	1273,84
286,60	1241,07
286,81	1251,31
287,03	1216,49
287,24	1224,69
287,46	1253,36
287,67	1292,27
287,89	1228,78
288,10	1214,45
288,32	1296,36
288,53	1261,55
288,75	1308,65
288,96	1253,36
289,18	1249,26
289,39	1196,01
289,61	1288,17
289,82	1216,49
290,04	1253,36
290,25	1284,08
290,47	1247,21
290,68	1218,54
290,90	1214,45
291,11	1296,36
291,33	1284,08
291,54	1275,88
291,76	1191,92
291,97	1243,12
292,18	1253,36
292,40	1304,56
292,61	1202,16
292,83	1292,27
293,04	1247,21
293,26	1247,21
293,47	1257,45
293,69	1245,16
293,90	1298,41
294,12	1372,14
294,33	1202,16
294,55	1212,40
294,76	1198,06
294,97	1259,50
295,19	1226,73
295,40	1273,84
295,62	1298,41
295,83	1273,84
296,05	1230,83
296,26	1292,27
296,48	1314,80
296,69	1314,80
296,90	1335,28
297,12	1304,56
297,33	1335,28
297,55	1241,07
297,76	1243,12
297,98	1271,79
298,19	1306,60
298,41	1300,46
298,62	1253,36
298,83	1320,94
299,05	1247,21
299,26	1253,36
299,48	1290,22
299,69	1279,98
299,90	1202,16
300,12	1138,67
300,33	1230,83
300,55	1222,64
300,76	1265,64
300,98	1284,08
301,19	1261,55
301,40	1224,69
301,62	1261,55
301,83	1249,26
302,05	1306,60
302,26	1331,18
302,47	1208,30
302,69	1316,84
302,90	1267,69
303,12	1206,25
303,33	1214,45
303,54	1275,88
303,76	1273,84
303,97	1179,63
304,19	1263,60
304,40	1312,75
304,61	1337,32
304,83	1316,84
305,04	1259,50
305,26	1263,60
305,47	1286,12
305,68	1228,78
305,90	1204,21
306,11	1210,35
306,33	1267,69
306,54	1271,79
306,75	1226,73
306,97	1286,12
307,18	1290,22
307,39	1259,50
307,61	1216,49
307,82	1327,08
308,04	1329,13
308,25	1300,46
308,46	1290,22
308,68	1269,74
308,89	1273,84
309,10	1228,78
309,32	1245,16
309,53	1251,31
309,74	1167,34
309,96	1269,74
310,17	1261,55
310,39	1322,99
310,60	1261,55
310,81	1255,40
311,03	1257,45
311,24	1310,70
311,45	1261,55
311,67	1318,89
311,88	1210,35
312,09	1222,64
312,31	1255,40
312,52	1306,60
312,73	1220,59
312,95	1243,12
313,16	1275,88
313,37	1206,25
313,59	1220,59
313,80	1273,84
314,01	1224,69
314,23	1267,69
314,44	1292,27
314,65	1263,60
314,87	1249,26
315,08	1273,84
315,29	1279,98
315,51	1210,35
315,72	1175,53
315,93	1255,40
316,15	1361,90
316,36	1296,36
316,57	1331,18
316,79	1253,36
317,00	1294,32
317,21	1257,45
317,43	1247,21
317,64	1257,45
317,85	1306,60
318,07	1288,17
318,28	1308,65
318,49	1261,55
318,70	1245,16
318,92	1314,80
319,13	1259,50
319,34	1261,55
319,56	1255,40
319,77	1294,32
319,98	1247,21
320,20	1282,03
320,41	1294,32
320,62	1265,64
320,83	1341,42
321,05	1241,07
321,26	1277,93
321,47	1337,32
321,69	1339,37
321,90	1183,73
322,11	1167,34
322,32	1273,84
322,54	1312,75
322,75	1241,07
322,96	1273,84
323,18	1196,01
323,39	1286,12
323,60	1290,22
323,81	1263,60
324,03	1290,22
324,24	1361,90
324,45	1296,36
324,66	1236,97
324,88	1277,93
325,09	1206,25
325,30	1206,25
325,52	1331,18
325,73	1277,93
325,94	1271,79
326,15	1277,93
326,37	1277,93
326,58	1316,84
326,79	1226,73
327,00	1196,01
327,22	1345,52
327,43	1269,74
327,64	1265,64
327,85	1337,32
328,07	1241,07
328,28	1304,56
328,49	1286,12
328,70	1298,41
328,92	1290,22
329,13	1306,60
329,34	1327,08
329,55	1269,74
329,76	1290,22
329,98	1302,51
330,19	1243,12
330,40	1191,92
330,61	1220,59
330,83	1298,41
331,04	1253,36
331,25	1286,12
331,46	1267,69
331,68	1218,54
331,89	1282,03
332,10	1212,40
332,31	1212,40
332,52	1296,36
332,74	1183,73
332,95	1284,08
333,16	1206,25
333,37	1320,94
333,58	1261,55
333,80	1302,51
334,01	1175,53
334,22	1202,16
334,43	1292,27
334,64	1286,12
334,86	1230,83
335,07	1284,08
335,28	1310,70
335,49	1269,74
335,70	1269,74
335,92	1327,08
336,13	1300,46
336,34	1300,46
336,55	1294,32
336,76	1273,84
336,98	1224,69
337,19	1222,64
337,40	1236,97
337,61	1318,89
337,82	1249,26
338,04	1259,50
338,25	1245,16
338,46	1279,98
338,67	1247,21
338,88	1345,52
339,09	1247,21
339,31	1216,49
339,52	1341,42
339,73	1243,12
339,94	1267,69
340,15	1273,84
340,36	1304,56
340,58	1236,97
340,79	1279,98
341,00	1185,77
341,21	1243,12
341,42	1271,79
341,63	1232,88
341,85	1372,14
342,06	1232,88
342,27	1261,55
342,48	1267,69
342,69	1292,27
342,90	1249,26
343,12	1228,78
343,33	1292,27
343,54	1206,25
343,75	1288,17
343,96	1200,11
344,17	1300,46
344,38	1261,55
344,60	1216,49
344,81	1300,46
345,02	1329,13
345,23	1265,64
345,44	1298,41
345,65	1325,04
345,86	1327,08
346,07	1296,36
346,29	1245,16
346,50	1282,03
346,71	1279,98
346,92	1234,93
347,13	1253,36
347,34	1179,63
347,55	1247,21
347,76	1271,79
347,98	1271,79
348,19	1253,36
348,40	1273,84
348,61	1277,93
348,82	1306,60
349,03	1214,45
349,24	1273,84
349,45	1218,54
349,66	1306,60
349,88	1196,01
350,09	1241,07
350,30	1191,92
350,51	1212,40
350,72	1286,12
350,93	1255,40
351,14	1196,01
351,35	1392,62
351,56	1265,64
351,77	1214,45
351,99	1277,93
352,20	1310,70
352,41	1273,84
352,62	1251,31
352,83	1302,51
353,04	1288,17
353,25	1333,23
353,46	1275,88
353,67	1263,60
353,88	1269,74
354,09	1376,24
354,30	1322,99
354,52	1218,54
354,73	1294,32
354,94	1277,93
355,15	1216,49
355,36	1261,55
355,57	1288,17
355,78	1230,83
355,99	1263,60
356,20	1304,56
356,41	1263,60
356,62	1241,07
356,83	1181,68
357,04	1290,22
357,25	1226,73
357,46	1249,26
357,68	1327,08
357,89	1243,12
358,10	1304,56
358,31	1251,31
358,52	1292,27
358,73	1236,97
358,94	1310,70
359,15	1290,22
359,36	1216,49
359,57	1241,07
359,78	1249,26
359,99	1306,60
360,20	1218,54
360,41	1253,36
360,62	1271,79
360,83	1234,93
361,04	1261,55
361,25	1247,21
361,46	1255,40
361,67	1269,74
361,88	1275,88
362,09	1263,60
362,30	1257,45
362,51	1284,08
362,72	1267,69
362,93	1206,25
363,14	1228,78
363,35	1282,03
363,56	1261,55
363,78	1294,32
363,99	1259,50
364,20	1239,02
364,41	1322,99
364,62	1312,75
364,83	1239,02
365,04	1150,96
365,25	1277,93
365,46	1284,08
365,67	1312,75
365,88	1200,11
366,09	1183,73
366,30	1255,40
366,51	1261,55
366,72	1286,12
366,93	1337,32
367,14	1234,93
367,35	1253,36
367,56	1312,75
367,77	1277,93
367,98	1202,16
368,18	1353,71
368,39	1265,64
368,60	1230,83
368,81	1275,88
369,02	1196,01
369,23	1333,23
369,44	1220,59
369,65	1265,64
369,86	1335,28
370,07	1296,36
370,28	1288,17
370,49	1269,74
370,70	1173,49
370,91	1300,46
371,12	1249,26
371,33	1196,01
371,54	1302,51
371,75	1208,30
371,96	1265,64
372,17	1257,45
372,38	1296,36
372,59	1263,60
372,80	1288,17
373,01	1187,82
373,22	1220,59
373,43	1304,56
373,64	1314,80
373,85	1216,49
374,06	1275,88
374,26	1284,08
374,47	1282,03
374,68	1300,46
374,89	1269,74
375,10	1282,03
375,31	1282,03
375,52	1320,94
375,73	1361,90
375,94	1243,12
376,15	1286,12
376,36	1267,69
376,57	1230,83
376,78	1288,17
376,99	1257,45
377,20	1302,51
377,40	1245,16
377,61	1298,41
377,82	1286,12
378,03	1333,23
378,24	1316,84
378,45	1286,12
378,66	1269,74
378,87	1232,88
379,08	1335,28
379,29	1222,64
379,50	1327,08
379,71	1243,12
379,91	1222,64
380,12	1306,60
380,33	1269,74
380,54	1208,30
380,75	1282,03
380,96	1249,26
381,17	1284,08
381,38	1212,40
381,59	1269,74
381,80	1314,80
382,00	1273,84
382,21	1257,45
382,42	1234,93
382,63	1257,45
382,84	1255,40
383,05	1241,07
383,26	1206,25
383,47	1353,71
383,68	1265,64
383,88	1308,65
384,09	1343,47
384,30	1298,41
384,51	1251,31
384,72	1269,74
384,93	1196,01
385,14	1249,26
385,35	1288,17
385,55	1234,93
385,76	1284,08
385,97	1241,07
386,18	1265,64
386,39	1284,08
386,60	1257,45
386,81	1196,01
387,02	1232,88
387,22	1216,49
387,43	1290,22
387,64	1292,27
387,85	1249,26
388,06	1255,40
388,27	1261,55
388,48	1325,04
388,68	1337,32
388,89	1214,45
389,10	1269,74
389,31	1359,85
389,52	1277,93
389,73	1220,59
389,93	1286,12
390,14	1290,22
390,35	1290,22
390,56	1333,23
390,77	1267,69
390,98	1228,78
391,18	1265,64
391,39	1288,17
391,60	1239,02
391,81	1269,74
392,02	1243,12
392,23	1310,70
392,43	1261,55
392,64	1306,60
392,85	1251,31
393,06	1206,25
393,27	1284,08
393,47	1331,18
393,68	1306,60
393,89	1200,11
394,10	1228,78
394,31	1269,74
394,52	1282,03
394,72	1275,88
394,93	1290,22
395,14	1177,58
395,35	1261,55
395,56	1155,05
395,76	1277,93
395,97	1214,45
396,18	1171,44
396,39	1298,41
396,60	1218,54
396,80	1267,69
397,01	1298,41
397,22	1277,93
397,43	1279,98
397,64	1226,73
397,84	1279,98
398,05	1234,93
398,26	1292,27
398,47	1314,80
398,67	1234,93
398,88	1212,40
399,09	1282,03
399,30	1318,89
399,51	1257,45
399,71	1273,84
399,92	1275,88
400,13	1263,60
400,34	1243,12
400,54	1249,26
400,75	1230,83
400,96	1310,70
401,17	1273,84
401,37	1275,88
401,58	1257,45
401,79	1241,07
402,00	1339,37
402,21	1234,93
402,41	1290,22
402,62	1253,36
402,83	1269,74
403,04	1298,41
403,24	1290,22
403,45	1257,45
403,66	1271,79
403,87	1312,75
404,07	1314,80
404,28	1247,21
404,49	1249,26
404,70	1257,45
404,90	1302,51
405,11	1284,08
405,32	1232,88
405,52	1251,31
405,73	1275,88
405,94	1345,52
406,15	1218,54
406,35	1286,12
406,56	1214,45
406,77	1292,27
406,98	1196,01
407,18	1206,25
407,39	1251,31
407,60	1294,32
407,80	1210,35
408,01	1234,93
408,22	1290,22
408,43	1298,41
408,63	1263,60
408,84	1290,22
409,05	1261,55
409,25	1204,21
409,46	1277,93
409,67	1269,74
409,88	1325,04
410,08	1316,84
410,29	1292,27
410,50	1271,79
410,70	1253,36
410,91	1210,35
411,12	1241,07
411,32	1288,17
411,53	1159,15
411,74	1222,64
411,95	1335,28
412,15	1206,25
412,36	1267,69
412,57	1212,40
412,77	1322,99
412,98	1331,18
413,19	1290,22
413,39	1282,03
413,60	1366,00
413,81	1273,84
414,01	1269,74
414,22	1263,60
414,43	1298,41
414,63	1304,56
414,84	1308,65
415,05	1216,49
415,25	1253,36
415,46	1239,02
415,67	1239,02
415,87	1232,88
416,08	1282,03
416,29	1249,26
416,49	1259,50
416,70	1239,02
416,91	1284,08
417,11	1230,83
417,32	1325,04
417,53	1298,41
417,73	1298,41
417,94	1290,22
418,15	1298,41
418,35	1288,17
418,56	1216,49
418,77	1241,07
418,97	1284,08
419,18	1259,50
419,38	1224,69
419,59	1298,41
419,80	1296,36
420,00	1273,84
420,21	1286,12
420,42	1320,94
420,62	1325,04
420,83	1282,03
421,04	1214,45
421,24	1310,70
421,45	1294,32
421,65	1220,59
421,86	1286,12
422,07	1185,77
422,27	1345,52
422,48	1181,68
422,69	1253,36
422,89	1239,02
423,10	1261,55
423,30	1216,49
423,51	1196,01
423,72	1228,78
423,92	1251,31
424,13	1249,26
424,33	1263,60
424,54	1312,75
424,75	1249,26
424,95	1239,02
425,16	1314,80
425,36	1282,03
425,57	1296,36
425,78	1232,88
425,98	1296,36
426,19	1273,84
426,39	1220,59
426,60	1273,84
426,81	1251,31
427,01	1239,02
427,22	1241,07
427,42	1239,02
427,63	1292,27
427,83	1279,98
428,04	1239,02
428,25	1253,36
428,45	1232,88
428,66	1202,16
428,86	1249,26
429,07	1212,40
429,28	1253,36
429,48	1198,06
429,69	1259,50
429,89	1230,83
430,10	1265,64
430,30	1239,02
430,51	1198,06
430,71	1378,28
430,92	1277,93
431,13	1265,64
431,33	1245,16
431,54	1255,40
431,74	1282,03
431,95	1271,79
432,15	1275,88
432,36	1275,88
432,56	1200,11
432,77	1310,70
432,98	1265,64
433,18	1243,12
433,39	1253,36
433,59	1290,22
433,80	1275,88
434,00	1253,36
434,21	1241,07
434,41	1239,02
434,62	1241,07
434,82	1290,22
435,03	1206,25
435,23	1239,02
435,44	1239,02
435,64	1234,93
435,85	1267,69
436,06	1206,25
436,26	1286,12
436,47	1212,40
436,67	1329,13
436,88	1257,45
437,08	1335,28
437,29	1216,49
437,49	1191,92
437,70	1296,36
437,90	1224,69
438,11	1286,12
438,31	1277,93
438,52	1290,22
438,72	1249,26
438,93	1288,17
439,13	1257,45
439,34	1226,73
439,54	1275,88
439,75	1263,60
439,95	1200,11
440,16	1259,50
440,36	1230,83
440,57	1228,78
440,77	1259,50
440,98	1204,21
441,18	1271,79
441,39	1329,13
441,59	1335,28
441,80	1218,54
442,00	1265,64
442,21	1226,73
442,41	1290,22
442,62	1261,55
442,82	1294,32
443,02	1267,69
443,23	1249,26
443,43	1298,41
443,64	1247,21
443,84	1245,16
444,05	1286,12
444,25	1300,46
444,46	1261,55
444,66	1230,83
444,87	1282,03
445,07	1241,07
445,28	1273,84
445,48	1210,35
445,69	1187,82
445,89	1300,46
446,09	1251,31
446,30	1288,17
446,50	1288,17
446,71	1282,03
446,91	1363,95
447,12	1216,49
447,32	1263,60
447,53	1306,60
447,73	1255,40
447,93	1294,32
448,14	1228,78
448,34	1300,46
448,55	1298,41
448,75	1247,21
448,96	1282,03
449,16	1304,56
449,36	1300,46
449,57	1263,60
449,77	1255,40
449,98	1269,74
450,18	1273,84
450,39	1224,69
450,59	1279,98
450,79	1292,27
451,00	1306,60
451,20	1255,40
451,41	1273,84
451,61	1191,92
451,81	1357,80
452,02	1298,41
452,22	1275,88
452,43	1284,08
452,63	1318,89
452,84	1255,40
453,04	1296,36
453,24	1275,88
453,45	1302,51
453,65	1357,80
453,86	1314,80
454,06	1261,55
454,26	1304,56
454,47	1157,10
454,67	1265,64
454,87	1232,88
455,08	1273,84
455,28	1257,45
455,49	1212,40
455,69	1310,70
455,89	1329,13
456,10	1228,78
456,30	1220,59
456,51	1306,60
456,71	1269,74
456,91	1210,35
457,12	1277,93
457,32	1210,35
457,52	1247,21
457,73	1322,99
457,93	1292,27
458,14	1247,21
458,34	1239,02
458,54	1282,03
458,75	1243,12
458,95	1257,45
459,15	1273,84
459,36	1335,28
459,56	1226,73
459,76	1288,17
459,97	1284,08
460,17	1349,61
460,37	1282,03
460,58	1312,75
460,78	1314,80
460,99	1251,31
461,19	1288,17
461,39	1202,16
461,60	1216,49
461,80	1308,65
462,00	1277,93
462,21	1302,51
462,41	1255,40
462,61	1345,52
462,82	1239,02
463,02	1208,30
463,22	1214,45
463,43	1241,07
463,63	1202,16
463,83	1243,12
464,04	1212,40
464,24	1257,45
464,44	1267,69
464,64	1290,22
464,85	1187,82
465,05	1286,12
465,25	1263,60
465,46	1335,28
465,66	1290,22
465,86	1347,56
466,07	1239,02
466,27	1290,22
466,47	1241,07
466,68	1210,35
466,88	1302,51
467,08	1277,93
467,29	1206,25
467,49	1306,60
467,69	1232,88
467,89	1245,16
468,10	1279,98
468,30	1261,55
468,50	1355,76
468,71	1253,36
468,91	1263,60
469,11	1318,89
469,31	1241,07
469,52	1284,08
469,72	1318,89
469,92	1325,04
470,13	1288,17
470,33	1261,55
470,53	1236,97
470,73	1314,80
470,94	1322,99
471,14	1224,69
471,34	1265,64
471,54	1263,60
471,75	1290,22
471,95	1243,12
472,15	1261,55
472,36	1282,03
472,56	1275,88
472,76	1245,16
472,96	1224,69
473,17	1298,41
473,37	1243,12
473,57	1241,07
473,77	1222,64
473,98	1312,75
474,18	1259,50
474,38	1277,93
474,58	1228,78
474,79	1306,60
474,99	1247,21
475,19	1230,83
475,39	1292,27
475,60	1386,47
475,80	1290,22
476,00	1261,55
476,20	1204,21
476,41	1312,75
476,61	1349,61
476,81	1257,45
477,01	1292,27
477,21	1267,69
477,42	1304,56
477,62	1286,12
477,82	1339,37
478,02	1341,42
478,23	1294,32
478,43	1228,78
478,63	1277,93
478,83	1212,40
479,03	1263,60
479,24	1251,31
479,44	1339,37
479,64	1288,17
479,84	1236,97
480,04	1290,22
480,25	1247,21
480,45	1191,92
480,65	1232,88
480,85	1245,16
481,06	1292,27
481,26	1267,69
481,46	1292,27
481,66	1181,68
481,86	1308,65
482,06	1193,97
482,27	1230,83
482,47	1286,12
482,67	1290,22
482,87	1333,23
483,07	1263,60
483,28	1224,69
483,48	1294,32
483,68	1228,78
483,88	1251,31
484,08	1216,49
484,29	1257,45
484,49	1226,73
484,69	1247,21
484,89	1222,64
485,09	1310,70
485,29	1249,26
485,50	1239,02
485,70	1257,45
485,90	1273,84
486,10	1259,50
486,30	1253,36
486,50	1265,64
486,71	1296,36
486,91	1296,36
487,11	1189,87
487,31	1245,16
487,51	1331,18
487,71	1243,12
487,91	1267,69
488,12	1302,51
488,32	1306,60
488,52	1359,85
488,72	1241,07
488,92	1257,45
489,12	1247,21
489,32	1279,98
489,53	1306,60
489,73	1161,20
489,93	1376,24
490,13	1265,64
490,33	1257,45
490,53	1265,64
490,73	1298,41
490,94	1191,92
491,14	1290,22
491,34	1224,69
491,54	1279,98
491,74	1202,16
491,94	1331,18
492,14	1259,50
492,34	1196,01
492,54	1185,77
492,75	1247,21
492,95	1322,99
493,15	1304,56
493,35	1269,74
493,55	1239,02
493,75	1263,60
493,95	1251,31
494,15	1284,08
494,35	1331,18
494,56	1306,60
494,76	1265,64
494,96	1210,35
495,16	1243,12
495,36	1226,73
495,56	1288,17
495,76	1267,69
495,96	1261,55
496,16	1251,31
496,36	1288,17
496,56	1316,84
496,77	1282,03
496,97	1257,45
497,17	1247,21
497,37	1226,73
497,57	1306,60
497,77	1279,98
497,97	1212,40
498,17	1304,56
498,37	1239,02
498,57	1243,12
498,77	1247,21
498,97	1263,60
499,17	1234,93
499,38	1325,04
499,58	1294,32
499,78	1294,32
499,98	1191,92
500,18	1214,45
500,38	1224,69
500,58	1259,50
500,78	1282,03
500,98	1249,26
501,18	1343,47
501,38	1275,88
501,58	1269,74
501,78	1277,93
501,98	1236,97
502,18	1226,73
502,38	1202,16
502,58	1271,79
502,78	1243,12
502,98	1322,99
503,18	1337,32
503,38	1236,97
503,59	1204,21
503,79	1288,17
503,99	1341,42
504,19	1316,84
504,39	1275,88
504,59	1331,18
504,79	1224,69
504,99	1284,08
505,19	1261,55
505,39	1243,12
505,59	1288,17
505,79	1282,03
505,99	1275,88
506,19	1239,02
506,39	1275,88
506,59	1212,40
506,79	1230,83
506,99	1206,25
507,19	1273,84
507,39	1263,60
507,59	1265,64
507,79	1351,66
507,99	1251,31
508,19	1359,85
508,39	1292,27
508,59	1345,52
508,79	1259,50
508,99	1251,31
509,19	1239,02
509,39	1224,69
509,59	1275,88
509,79	1318,89
509,99	1290,22
510,19	1249,26
510,39	1257,45
510,59	1290,22
510,79	1251,31
510,99	1304,56
511,19	1257,45
511,39	1284,08
511,59	1339,37
511,79	1314,80
511,99	1300,46
512,19	1253,36
512,38	1251,31
512,58	1241,07
512,78	1304,56
512,98	1277,93
513,18	1298,41
513,38	1234,93
513,58	1169,39
513,78	1216,49
513,98	1261,55
514,18	1286,12
514,38	1327,08
514,58	1243,12
514,78	1263,60
514,98	1284,08
515,18	1282,03
515,38	1273,84
515,58	1282,03
515,78	1224,69
515,98	1282,03
516,18	1292,27
516,38	1329,13
516,57	1251,31
516,77	1267,69
516,97	1286,12
517,17	1255,40
517,37	1255,40
517,57	1249,26
517,77	1257,45
517,97	1198,06
518,17	1294,32
518,37	1259,50
518,57	1325,04
518,77	1239,02
518,97	1214,45
519,16	1216,49
519,36	1320,94
519,56	1222,64
519,76	1230,83
519,96	1335,28
520,16	1261,55
520,36	1277,93
520,56	1232,88
520,76	1273,84
520,96	1232,88
521,16	1236,97
521,35	1241,07
521,55	1320,94
521,75	1310,70
521,95	1222,64
522,15	1239,02
522,35	1347,56
522,55	1279,98
522,75	1351,66
522,95	1251,31
523,14	1286,12
523,34	1296,36
523,54	1310,70
523,74	1279,98
523,94	1265,64
524,14	1212,40
524,34	1329,13
524,54	1320,94
524,73	1296,36
524,93	1298,41
525,13	1294,32
525,33	1241,07
525,53	1298,41
525,73	1269,74
525,93	1286,12
526,13	1271,79
526,32	1300,46
526,52	1216,49
526,72	1208,30
526,92	1232,88
527,12	1163,25
527,32	1232,88
527,52	1261,55
527,71	1241,07
527,91	1275,88
528,11	1322,99
528,31	1359,85
528,51	1298,41
528,71	1275,88
528,90	1243,12
529,10	1265,64
529,30	1308,65
529,50	1277,93
529,70	1271,79
529,90	1234,93
530,09	1257,45
530,29	1279,98
530,49	1179,63
530,69	1222,64
530,89	1257,45
531,09	1288,17
531,28	1253,36
531,48	1263,60
531,68	1275,88
531,88	1271,79
532,08	1306,60
532,28	1218,54
532,47	1341,42
532,67	1322,99
532,87	1234,93
533,07	1224,69
533,27	1271,79
533,46	1277,93
533,66	1282,03
533,86	1236,97
534,06	1222,64
534,26	1337,32
534,45	1269,74
534,65	1296,36
534,85	1236,97
535,05	1302,51
535,25	1236,97
535,44	1230,83
535,64	1267,69
535,84	1226,73
536,04	1277,93
536,24	1296,36
536,43	1312,75
536,63	1265,64
536,83	1294,32
537,03	1263,60
537,22	1224,69
537,42	1337,32
537,62	1226,73
537,82	1257,45
538,02	1255,40
538,21	1249,26
538,41	1322,99
538,61	1273,84
538,81	1236,97
539,00	1320,94
539,20	1304,56
539,40	1302,51
539,60	1206,25
539,79	1318,89
539,99	1304,56
540,19	1284,08
540,39	1306,60
540,58	1378,28
540,78	1320,94
540,98	1212,40
541,18	1271,79
541,37	1259,50
541,57	1310,70
541,77	1286,12
541,97	1302,51
542,16	1239,02
542,36	1329,13
542,56	1224,69
542,76	1314,80
542,95	1296,36
543,15	1298,41
543,35	1296,36
543,54	1308,65
543,74	1316,84
543,94	1277,93
544,14	1304,56
544,33	1310,70
544,53	1345,52
544,73	1343,47
544,93	1212,40
545,12	1175,53
545,32	1302,51
545,52	1296,36
545,71	1261,55
545,91	1249,26
546,11	1185,77
546,30	1273,84
546,50	1310,70
546,70	1312,75
546,90	1284,08
547,09	1318,89
547,29	1320,94
547,49	1386,47
547,68	1247,21
547,88	1284,08
548,08	1239,02
548,27	1374,19
548,47	1288,17
548,67	1320,94
548,87	1255,40
549,06	1191,92
549,26	1249,26
549,46	1216,49
549,65	1275,88
549,85	1320,94
550,05	1245,16
550,24	1282,03
550,44	1329,13
550,64	1251,31
550,83	1234,93
551,03	1347,56
551,23	1322,99
551,42	1322,99
551,62	1277,93
551,82	1318,89
552,01	1310,70
552,21	1298,41
552,41	1290,22
552,60	1267,69
552,80	1208,30
553,00	1263,60
553,19	1255,40
553,39	1368,04
553,59	1255,40
553,78	1253,36
553,98	1204,21
554,17	1339,37
554,37	1267,69
554,57	1335,28
554,76	1269,74
554,96	1255,40
555,16	1333,23
555,35	1245,16
555,55	1310,70
555,75	1243,12
555,94	1298,41
556,14	1314,80
556,33	1275,88
556,53	1212,40
556,73	1308,65
556,92	1345,52
557,12	1318,89
557,32	1290,22
557,51	1304,56
557,71	1279,98
557,90	1312,75
558,10	1234,93
558,30	1284,08
558,49	1300,46
558,69	1304,56
558,88	1302,51
559,08	1275,88
559,28	1261,55
559,47	1292,27
559,67	1265,64
559,86	1273,84
560,06	1277,93
560,26	1249,26
560,45	1345,52
560,65	1251,31
560,84	1273,84
561,04	1265,64
561,24	1265,64
561,43	1294,32
561,63	1241,07
561,82	1286,12
562,02	1296,36
562,22	1249,26
562,41	1314,80
562,61	1294,32
562,80	1308,65
563,00	1249,26
563,19	1239,02
563,39	1308,65
563,59	1243,12
563,78	1265,64
563,98	1296,36
564,17	1261,55
564,37	1302,51
564,56	1286,12
564,76	1279,98
564,96	1183,73
565,15	1294,32
565,35	1308,65
565,54	1327,08
565,74	1312,75
565,93	1267,69
566,13	1275,88
566,32	1286,12
566,52	1275,88
566,71	1230,83
566,91	1331,18
567,11	1349,61
567,30	1320,94
567,50	1339,37
567,69	1304,56
567,89	1351,66
568,08	1255,40
568,28	1312,75
568,47	1292,27
568,67	1298,41
568,86	1275,88
569,06	1243,12
569,25	1286,12
569,45	1265,64
569,64	1255,40
569,84	1257,45
570,04	1286,12
570,23	1243,12
570,43	1271,79
570,62	1257,45
570,82	1337,32
571,01	1322,99
571,21	1322,99
571,40	1179,63
571,60	1366,00
571,79	1234,93
571,99	1241,07
572,18	1298,41
572,38	1320,94
572,57	1269,74
572,77	1273,84
572,96	1343,47
573,16	1308,65
573,35	1343,47
573,55	1298,41
573,74	1347,56
573,94	1265,64
574,13	1236,97
574,33	1370,09
574,52	1265,64
574,71	1290,22
574,91	1341,42
575,10	1251,31
575,30	1239,02
575,49	1282,03
575,69	1245,16
575,88	1232,88
576,08	1296,36
576,27	1339,37
576,47	1372,14
576,66	1298,41
576,86	1279,98
577,05	1329,13
577,25	1351,66
577,44	1335,28
577,64	1370,09
577,83	1263,60
578,02	1273,84
578,22	1282,03
578,41	1327,08
578,61	1249,26
578,80	1320,94
579,00	1302,51
579,19	1370,09
579,39	1284,08
579,58	1302,51
579,77	1257,45
579,97	1302,51
580,16	1243,12
580,36	1368,04
580,55	1316,84
580,75	1249,26
580,94	1212,40
581,13	1355,76
581,33	1325,04
581,52	1284,08
581,72	1302,51
581,91	1322,99
582,11	1288,17
582,30	1292,27
582,49	1337,32
582,69	1341,42
582,88	1290,22
583,08	1249,26
583,27	1282,03
583,47	1263,60
583,66	1292,27
583,85	1239,02
584,05	1308,65
584,24	1343,47
584,44	1322,99
584,63	1296,36
584,82	1327,08
585,02	1226,73
585,21	1404,91
585,41	1290,22
585,60	1263,60
585,79	1279,98
585,99	1271,79
586,18	1347,56
586,37	1284,08
586,57	1249,26
586,76	1265,64
586,96	1265,64
587,15	1298,41
587,34	1370,09
587,54	1257,45
587,73	1298,41
587,93	1290,22
588,12	1279,98
588,31	1261,55
588,51	1216,49
588,70	1261,55
588,89	1329,13
589,09	1316,84
589,28	1247,21
589,47	1273,84
589,67	1337,32
589,86	1290,22
590,06	1310,70
590,25	1216,49
590,44	1318,89
590,64	1261,55
590,83	1290,22
591,02	1310,70
591,22	1257,45
591,41	1249,26
591,60	1239,02
591,80	1267,69
591,99	1263,60
592,18	1304,56
592,38	1245,16
592,57	1300,46
592,76	1204,21
592,96	1327,08
593,15	1247,21
593,34	1247,21
593,54	1286,12
593,73	1228,78
593,92	1320,94
594,12	1249,26
594,31	1275,88
594,50	1314,80
594,70	1355,76
594,89	1214,45
595,08	1232,88
595,28	1249,26
595,47	1236,97
595,66	1241,07
595,86	1214,45
596,05	1282,03
596,24	1220,59
596,43	1302,51
596,63	1310,70
596,82	1202,16
597,01	1239,02
597,21	1292,27
597,40	1290,22
597,59	1265,64
597,79	1202,16
597,98	1308,65
598,17	1245,16
598,36	1257,45
598,56	1243,12
598,75	1249,26
598,94	1318,89
599,14	1257,45
599,33	1320,94
599,52	1247,21
599,71	1255,40
599,91	1286,12
600,10	1290,22
600,29	1269,74
600,48	1257,45
600,68	1343,47
600,87	1230,83
601,06	1286,12
601,26	1333,23
601,45	1320,94
601,64	1341,42
601,83	1290,22
602,03	1273,84
602,22	1273,84
602,41	1259,50
602,60	1294,32
602,80	1341,42
602,99	1257,45
603,18	1251,31
603,37	1298,41
603,57	1363,95
603,76	1265,64
603,95	1320,94
604,14	1296,36
604,34	1267,69
604,53	1292,27
604,72	1308,65
604,91	1296,36
605,10	1236,97
605,30	1198,06
605,49	1320,94
605,68	1339,37
605,87	1228,78
606,07	1263,60
606,26	1279,98
606,45	1216,49
606,64	1277,93
606,84	1255,40
607,03	1269,74
607,22	1236,97
607,41	1267,69
607,60	1314,80
607,80	1296,36
607,99	1279,98
608,18	1290,22
608,37	1284,08
608,56	1249,26
608,76	1296,36
608,95	1232,88
609,14	1263,60
609,33	1214,45
609,52	1310,70
609,72	1132,53
609,91	1345,52
610,10	1316,84
610,29	1224,69
610,48	1314,80
610,68	1277,93
610,87	1310,70
611,06	1304,56
611,25	1226,73
611,44	1263,60
611,63	1320,94
611,83	1298,41
612,02	1327,08
612,21	1234,93
612,40	1277,93
612,59	1300,46
612,79	1234,93
612,98	1230,83
613,17	1310,70
613,36	1363,95
613,55	1191,92
613,74	1222,64
613,93	1322,99
614,13	1214,45
614,32	1284,08
614,51	1339,37
614,70	1239,02
614,89	1243,12
615,08	1273,84
615,28	1226,73
615,47	1265,64
615,66	1261,55
615,85	1396,71
616,04	1255,40
616,23	1349,61
616,42	1241,07
616,62	1335,28
616,81	1277,93
617,00	1241,07
617,19	1349,61
617,38	1290,22
617,57	1302,51
617,76	1255,40
617,95	1257,45
618,15	1345,52
618,34	1275,88
618,53	1208,30
618,72	1265,64
618,91	1245,16
619,10	1198,06
619,29	1337,32
619,48	1232,88
619,68	1253,36
619,87	1243,12
620,06	1214,45
620,25	1282,03
620,44	1214,45
620,63	1212,40
620,82	1308,65
621,01	1306,60
621,20	1300,46
621,39	1247,21
621,59	1325,04
621,78	1273,84
621,97	1249,26
622,16	1294,32
622,35	1271,79
622,54	1294,32
622,73	1329,13
622,92	1232,88
623,11	1249,26
623,30	1345,52
623,49	1312,75
623,68	1230,83
623,88	1325,04
624,07	1273,84
624,26	1347,56
624,45	1320,94
624,64	1271,79
624,83	1267,69
625,02	1337,32
625,21	1327,08
625,40	1269,74
625,59	1296,36
625,78	1286,12
625,97	1349,61
626,16	1282,03
626,35	1275,88
626,54	1271,79
626,74	1314,80
626,93	1255,40
627,12	1310,70
627,31	1277,93
627,50	1306,60
627,69	1300,46
627,88	1329,13
628,07	1333,23
628,26	1277,93
628,45	1259,50
628,64	1249,26
628,83	1269,74
629,02	1298,41
629,21	1175,53
629,40	1292,27
629,59	1310,70
629,78	1294,32
629,97	1333,23
630,16	1216,49
630,35	1224,69
630,54	1378,28
630,73	1318,89
630,92	1329,13
631,11	1337,32
631,30	1249,26
631,49	1286,12
631,68	1814,50
631,87	9539,44
632,06	36408,79
632,25	65535,00
632,44	65535,00
632,63	65535,00
632,82	65535,00
633,01	65535,00
633,20	51012,85
633,39	20661,96
633,58	4132,80
633,77	4122,56
633,96	3760,07
634,15	2947,03
634,34	2207,71
634,53	2035,68
634,72	2109,41
634,91	1716,20
635,10	1740,77
635,29	1699,81
635,48	1617,90
635,67	1576,94
635,86	1576,94
636,05	1445,87
636,24	1531,88
636,43	1468,39
636,62	1427,43
636,81	1441,77
637,00	1411,05
637,19	1413,10
637,38	1345,52
637,57	1386,47
637,76	1337,32
637,95	1388,52
638,14	1304,56
638,33	1333,23
638,52	1361,90
638,71	1388,52
638,89	1339,37
639,08	1306,60
639,27	1318,89
639,46	1261,55
639,65	1263,60
639,84	1253,36
640,03	1279,98
640,22	1312,75
640,41	1290,22
640,60	1316,84
640,79	1249,26
640,98	1247,21
641,17	1298,41
641,36	1306,60
641,55	1331,18
641,74	1351,66
641,92	1300,46
642,11	1300,46
642,30	1275,88
642,49	1275,88
642,68	1249,26
642,87	1251,31
643,06	1210,35
643,25	1290,22
643,44	1273,84
643,63	1339,37
643,82	1325,04
644,00	1298,41
644,19	1290,22
644,38	1251,31
644,57	1325,04
644,76	1329,13
644,95	1296,36
645,14	1271,79
645,33	1370,09
645,52	1363,95
645,71	1282,03
645,89	1273,84
646,08	1286,12
646,27	1318,89
646,46	1290,22
646,65	1255,40
646,84	1320,94
647,03	1228,78
647,22	1284,08
647,40	1255,40
647,59	1249,26
647,78	1239,02
647,97	1208,30
648,16	1292,27
648,35	1224,69
648,54	1234,93
648,73	1181,68
648,91	1288,17
649,10	1263,60
649,29	1234,93
649,48	1306,60
649,67	1265,64
649,86	1306,60
650,05	1290,22
650,23	1300,46
650,42	1247,21
650,61	1296,36
650,80	1296,36
650,99	1208,30
651,18	1308,65
651,36	1333,23
651,55	1222,64
651,74	1228,78
651,93	1255,40
652,12	1316,84
652,31	1269,74
652,49	1298,41
652,68	1239,02
652,87	1257,45
653,06	1241,07
653,25	1232,88
653,44	1310,70
653,62	1318,89
653,81	1239,02
654,00	1243,12
654,19	1312,75
654,38	1288,17
654,56	1292,27
654,75	1298,41
654,94	1243,12
655,13	1247,21
655,32	1339,37
655,51	1329,13
655,69	1320,94
655,88	1245,16
656,07	1265,64
656,26	1290,22
656,45	1255,40
656,63	1339,37
656,82	1316,84
657,01	1253,36
657,20	1241,07
657,38	1314,80
657,57	1279,98
657,76	1302,51
657,95	1296,36
658,14	1267,69
658,32	1308,65
658,51	1224,69
658,70	1284,08
658,89	1249,26
659,08	1329,13
659,26	1249,26
659,45	1200,11
659,64	1298,41
659,83	1331,18
660,01	1279,98
660,20	1241,07
660,39	1261,55
660,58	1228,78
660,76	1286,12
660,95	1181,68
661,14	1216,49
661,33	1153,01
661,51	1267,69
661,70	1232,88
661,89	1255,40
662,08	1253,36
662,26	1304,56
662,45	1294,32
662,64	1288,17
662,83	1210,35
663,01	1310,70
663,20	1290,22
663,39	1257,45
663,58	1277,93
663,76	1210,35
663,95	1322,99
664,14	1255,40
664,32	1275,88
664,51	1298,41
664,70	1239,02
664,89	1279,98
665,07	1288,17
665,26	1253,36
665,45	1200,11
665,64	1245,16
665,82	1191,92
666,01	1300,46
666,20	1222,64
666,38	1206,25
666,57	1222,64
666,76	1277,93
666,95	1282,03
667,13	1251,31
667,32	1292,27
667,51	1261,55
667,69	1310,70
667,88	1263,60
668,07	1249,26
668,25	1222,64
668,44	1286,12
668,63	1200,11
668,81	1175,53
669,00	1300,46
669,19	1243,12
669,38	1245,16
669,56	1345,52
669,75	1239,02
669,94	1236,97
670,12	1271,79
670,31	1273,84
670,50	1347,56
670,68	1265,64
670,87	1318,89
671,06	1267,69
671,24	1279,98
671,43	1247,21
671,62	1279,98
671,80	1202,16
671,99	1212,40
672,18	1294,32
672,36	1236,97
672,55	1234,93
672,74	1325,04
672,92	1232,88
673,11	1247,21
673,29	1224,69
673,48	1314,80
673,67	1265,64
673,85	1361,90
674,04	1337,32
674,23	1290,22
674,41	1251,31
674,60	1257,45
674,79	1265,64
674,97	1300,46
675,16	1267,69
675,34	1378,28
675,53	1269,74
675,72	1284,08
675,90	1251,31
676,09	1322,99
676,28	1234,93
676,46	1206,25
676,65	1167,34
676,83	1325,04
677,02	1212,40
677,21	1236,97
677,39	1247,21
677,58	1255,40
677,77	1273,84
677,95	1236,97
678,14	1347,56
678,32	1232,88
678,51	1286,12
678,70	1277,93
678,88	1241,07
679,07	1251,31
679,25	1261,55
679,44	1232,88
679,63	1259,50
679,81	1411,05
680,00	1306,60
680,18	1222,64
680,37	1245,16
680,55	1202,16
680,74	1253,36
680,93	1259,50
681,11	1247,21
681,30	1314,80
681,48	1204,21
681,67	1261,55
681,85	1314,80
682,04	1263,60
682,23	1284,08
682,41	1279,98
682,60	1265,64
682,78	1257,45
682,97	1279,98
683,15	1271,79
683,34	1273,84
683,53	1257,45
683,71	1253,36
683,90	1316,84
684,08	1302,51
684,27	1316,84
684,45	1320,94
684,64	1306,60
684,82	1236,97
685,01	1294,32
685,19	1300,46
685,38	1265,64
685,57	1167,34
685,75	1249,26
685,94	1257,45
686,12	1236,97
686,31	1241,07
686,49	1279,98
686,68	1243,12
686,86	1226,73
687,05	1261,55
687,23	1322,99
687,42	1265,64
687,60	1257,45
687,79	1282,03
687,97	1232,88
688,16	1327,08
688,34	1269,74
688,53	1220,59
688,71	1263,60
688,90	1320,94
689,08	1304,56
689,27	1275,88
689,45	1249,26
689,64	1236,97
689,82	1343,47
690,01	1290,22
690,19	1271,79
690,38	1181,68
690,56	1247,21
690,75	1322,99
690,93	1234,93
691,12	1351,66
691,30	1273,84
691,49	1247,21
691,67	1363,95
691,86	1196,01
692,04	1273,84
692,23	1191,92
692,41	1312,75
692,60	1255,40
692,78	1282,03
692,97	1327,08
693,15	1314,80
693,34	1259,50
693,52	1208,30
693,71	1277,93
693,89	1200,11
694,08	1284,08
694,26	1282,03
694,44	1275,88
694,63	1273,84
694,81	1288,17
695,00	1257,45
695,18	1275,88
695,37	1247,21
695,55	1298,41
695,74	1206,25
695,92	1261,55
696,10	1247,21
696,29	1279,98
696,47	1261,55
696,66	1322,99
696,84	1279,98
697,03	1282,03
697,21	1267,69
697,40	1290,22
697,58	1202,16
697,76	1249,26
697,95	1265,64
698,13	1261,55
698,32	1218,54
698,50	1269,74
698,68	1243,12
698,87	1275,88
699,05	1304,56
699,24	1320,94
699,42	1251,31
699,61	1216,49
699,79	1267,69
699,97	1316,84
700,16	1294,32
700,34	1257,45
700,53	1265,64
700,71	1253,36
700,89	1302,51
701,08	1216,49
701,26	1277,93
701,45	1277,93
701,63	1253,36
701,81	1314,80
702,00	1222,64
702,18	1263,60
702,37	1265,64
702,55	1220,59
702,73	1224,69
702,92	1218,54
703,10	1239,02
703,28	1277,93
703,47	1206,25
703,65	1253,36
703,84	1263,60
704,02	1249,26
704,20	1271,79
704,39	1218,54
704,57	1249,26
704,75	1282,03
704,94	1368,04
705,12	1290,22
705,30	1331,18
705,49	1288,17
705,67	1271,79
705,86	1318,89
706,04	1245,16
706,22	1288,17
706,41	1257,45
706,59	1220,59
706,77	1314,80
706,96	1288,17
707,14	1265,64
707,32	1294,32
707,51	1306,60
707,69	1245,16
707,87	1230,83
708,06	1214,45
708,24	1214,45
708,42	1318,89
708,61	1208,30
708,79	1290,22
708,97	1243,12
709,16	1236,97
709,34	1222,64
709,52	1241,07
709,71	1181,68
709,89	1236,97
710,07	1277,93
710,26	1322,99
710,44	1312,75
710,62	1306,60
710,80	1247,21
710,99	1257,45
711,17	1247,21
711,35	1232,88
711,54	1251,31
711,72	1277,93
711,90	1228,78
712,09	1245,16
712,27	1271,79
712,45	1204,21
712,63	1275,88
712,82	1261,55
713,00	1271,79
713,18	1286,12
713,37	1239,02
713,55	1232,88
713,73	1200,11
713,91	1277,93
714,10	1267,69
714,28	1251,31
714,46	1269,74
714,65	1193,97
714,83	1277,93
715,01	1224,69
715,19	1284,08
715,38	1322,99
715,56	1296,36
715,74	1236,97
715,92	1243,12
716,11	1222,64
716,29	1243,12
716,47	1224,69
716,65	1181,68
716,84	1239,02
717,02	1222,64
717,20	1228,78
717,38	1292,27
717,57	1306,60
717,75	1269,74
717,93	1277,93
718,11	1279,98
718,30	1275,88
718,48	1275,88
718,66	1302,51
718,84	1228,78
719,03	1239,02
719,21	1273,84
719,39	1243,12
719,57	1200,11
719,75	1282,03
719,94	1245,16
720,12	1253,36
720,30	1337,32
720,48	1279,98
720,67	1265,64
720,85	1296,36
721,03	1308,65
721,21	1214,45
721,39	1327,08
721,58	1304,56
721,76	1269,74
721,94	1239,02
722,12	1218,54
722,30	1212,40
722,49	1304,56
722,67	1232,88
722,85	1282,03
723,03	1245,16
723,21	1333,23
723,40	1189,87
723,58	1308,65
723,76	1247,21
723,94	1273,84
724,12	1290,22
724,30	1296,36
724,49	1220,59
724,67	1216,49
724,85	1263,60
725,03	1220,59
725,21	1249,26
725,40	1306,60
725,58	1265,64
725,76	1298,41
725,94	1222,64
726,12	1234,93
726,30	1263,60
726,49	1329,13
726,67	1232,88
726,85	1306,60
727,03	1265,64
727,21	1337,32
727,39	1306,60
727,57	1261,55
727,76	1208,30
727,94	1339,37
728,12	1298,41
728,30	1282,03
728,48	1353,71
728,66	1329,13
728,84	1265,64
729,03	1339,37
729,21	1259,50
729,39	1261,55
729,57	1290,22
729,75	1269,74
729,93	1290,22
730,11	1253,36
730,30	1298,41
730,48	1275,88
730,66	1282,03
730,84	1306,60
731,02	1331,18
731,20	1265,64
731,38	1224,69
731,56	1306,60
731,74	1230,83
731,93	1243,12
732,11	1259,50
732,29	1214,45
732,47	1304,56
732,65	1294,32
732,83	1236,97
733,01	1155,05
733,19	1253,36
733,37	1247,21
733,56	1339,37
733,74	1230,83
733,92	1310,70
734,10	1232,88
734,28	1312,75
734,46	1312,75
734,64	1230,83
734,82	1273,84
735,00	1304,56
735,18	1277,93
735,36	1296,36
735,54	1296,36
735,73	1202,16
735,91	1230,83
736,09	1302,51
736,27	1288,17
736,45	1241,07
736,63	1232,88
736,81	1273,84
736,99	1253,36
737,17	1257,45
737,35	1308,65
737,53	1261,55
737,71	1279,98
737,89	1210,35
738,07	1298,41
738,25	1249,26
738,43	1308,65
738,61	1306,60
738,80	1226,73
738,98	1316,84
739,16	1243,12
739,34	1275,88
739,52	1257,45
739,70	1261,55
739,88	1390,57
740,06	1320,94
740,24	1298,41
740,42	1181,68
740,60	1236,97
740,78	1292,27
740,96	1273,84
741,14	1173,49
741,32	1230,83
741,50	1302,51
741,68	1306,60
741,86	1273,84
742,04	1226,73
742,22	1306,60
742,40	1296,36
742,58	1261,55
742,76	1181,68
742,94	1232,88
743,12	1290,22
743,30	1288,17
743,48	1259,50
743,66	1298,41
743,84	1302,51
744,02	1243,12
744,20	1300,46
744,38	1273,84
744,56	1286,12
744,74	1279,98
744,92	1261,55
745,10	1292,27
745,28	1232,88
745,46	1269,74
745,64	1298,41
745,82	1265,64
746,00	1255,40
746,18	1284,08
746,36	1269,74
746,54	1269,74
746,72	1259,50
746,90	1228,78
747,08	1279,98
747,26	1257,45
747,44	1302,51
747,62	1304,56
747,80	1368,04
747,98	1255,40
748,15	1247,21
748,33	1255,40
748,51	1290,22
748,69	1282,03
748,87	1255,40
749,05	1329,13
749,23	1259,50
749,41	1253,36
749,59	1325,04
749,77	1216,49
749,95	1261,55
750,13	1236,97
750,31	1263,60
750,49	1253,36
750,67	1228,78
750,85	1263,60
751,03	1239,02
751,20	1284,08
751,38	1222,64
751,56	1222,64
751,74	1279,98
751,92	1300,46
752,10	1298,41
752,28	1179,63
752,46	1304,56
752,64	1220,59
752,82	1271,79
753,00	1298,41
753,18	1284,08
753,35	1175,53
753,53	1241,07
753,71	1302,51
753,89	1232,88
754,07	1259,50
754,25	1277,93
754,43	1216,49
754,61	1261,55
754,79	1275,88
754,97	1241,07
755,14	1271,79
755,32	1263,60
755,50	1193,97
755,68	1282,03
755,86	1236,97
756,04	1296,36
756,22	1239,02
756,40	1245,16
756,57	1310,70
756,75	1273,84
756,93	1232,88
757,11	1228,78
757,29	1226,73
757,47	1249,26
757,65	1247,21
757,82	1269,74
758,00	1265,64
758,18	1257,45
758,36	1220,59
758,54	1265,64
758,72	1271,79
758,90	1288,17
759,07	1200,11
759,25	1243,12
759,43	1302,51
759,61	1247,21
759,79	1318,89
759,97	1296,36
760,15	1294,32
760,32	1269,74
760,50	1277,93
760,68	1284,08
760,86	1294,32
761,04	1265,64
761,22	1263,60
761,39	1224,69
761,57	1312,75
761,75	1257,45
761,93	1228,78
762,11	1302,51
762,28	1349,61
762,46	1282,03
762,64	1294,32
762,82	1249,26
763,00	1314,80
763,18	1271,79
763,35	1253,36
763,53	1288,17
763,71	1263,60
763,89	1226,73
764,07	1232,88
764,24	1196,01
764,42	1226,73
764,60	1257,45
764,78	1302,51
764,96	1210,35
765,13	1212,40
765,31	1204,21
765,49	1314,80
765,67	1251,31
765,84	1234,93
766,02	1267,69
766,20	1241,07
766,38	1261,55
766,56	1216,49
766,73	1327,08
766,91	1271,79
767,09	1259,50
767,27	1316,84
767,44	1224,69
767,62	1249,26
767,80	1243,12
767,98	1241,07
768,15	1329,13
768,33	1255,40
768,51	1304,56
768,69	1265,64
768,87	1304,56
769,04	1255,40
769,22	1288,17
769,40	1357,80
769,58	1337,32
769,75	1261,55
769,93	1247,21
770,11	1277,93
770,28	1253,36
770,46	1286,12
770,64	1380,33
770,82	1228,78
770,99	1275,88
771,17	1263,60
771,35	1269,74
771,53	1251,31
771,70	1275,88
771,88	1228,78
772,06	1253,36
772,23	1310,70
772,41	1343,47
772,59	1277,93
772,77	1243,12
772,94	1275,88
773,12	1245,16
773,30	1230,83
773,47	1243,12
773,65	1292,27
773,83	1343,47
774,01	1243,12
774,18	1196,01
774,36	1273,84
774,54	1249,26
774,71	1226,73
774,89	1226,73
775,07	1263,60
775,24	1212,40
775,42	1257,45
775,60	1269,74
775,78	1236,97
775,95	1230,83
776,13	1308,65
776,31	1232,88
776,48	1279,98
776,66	1279,98
776,84	1279,98
777,01	1288,17
777,19	1204,21
777,37	1292,27
777,54	1302,51
777,72	1292,27
777,90	1236,97
778,07	1200,11
778,25	1232,88
778,43	1314,80
778,60	1333,23
778,78	1232,88
778,96	1279,98
779,13	1253,36
779,31	1304,56
779,49	1279,98
779,66	1257,45
779,84	1298,41
780,01	1232,88
780,19	1292,27
780,37	1290,22
780,54	1204,21
780,72	1210,35
780,90	1263,60
781,07	1322,99
781,25	1320,94
781,43	1226,73
781,60	1273,84
781,78	1312,75
781,95	1249,26
782,13	1234,93
782,31	1282,03
782,48	1288,17
782,66	1232,88
782,83	1232,88
783,01	1220,59
783,19	1269,74
783,36	1275,88
783,54	1308,65
783,72	1224,69
783,89	1247,21
784,07	1243,12
784,24	1312,75
784,42	1298,41
784,60	1296,36
784,77	1204,21
784,95	1333,23
785,12	1255,40
785,30	1228,78
785,47	1288,17
785,65	1247,21
785,83	1320,94
786,00	1257,45
786,18	1251,31
786,35	1226,73
786,53	1273,84
786,71	1208,30
786,88	1232,88
787,06	1284,08
787,23	1200,11
787,41	1208,30
787,58	1290,22
787,76	1259,50
787,94	1312,75
788,11	1310,70
788,29	1286,12
788,46	1200,11
788,64	1312,75
788,81	1288,17
788,99	1239,02
789,16	1239,02
789,34	1228,78
789,52	1273,84
789,69	1230,83
789,87	1247,21
790,04	1261,55
790,22	1230,83
790,39	1290,22
790,57	1210,35
790,74	1318,89
790,92	1353,71
791,09	1249,26
791,27	1245,16
791,44	1257,45
791,62	1310,70
791,79	1261,55
791,97	1275,88
792,15	1249,26
792,32	1306,60
792,50	1265,64
792,67	1257,45
792,85	1271,79
793,02	1286,12
793,20	1288,17
793,37	1316,84
793,55	1271,79
793,72	1275,88
793,90	1269,74
794,07	1245,16
794,25	1261,55
794,42	1222,64
794,60	1302,51
794,77	1206,25
794,95	1239,02
795,12	1290,22
795,30	1232,88
795,47	1263,60
795,65	1216,49
795,82	1247,21
796,00	1296,36
796,17	1234,93
796,34	1271,79
796,52	1265,64
796,69	1282,03
796,87	1302,51
797,04	1314,80
797,22	1212,40
797,39	1257,45
797,57	1226,73
797,74	1255,40
797,92	1335,28
798,09	1286,12
798,27	1282,03
798,44	1193,97
798,62	1302,51
798,79	1208,30
798,96	1294,32
799,14	1226,73
799,31	1314,80
799,49	1353,71
799,66	1361,90
799,84	1255,40
800,01	1177,58
800,19	1269,74
800,36	1312,75
800,53	1245,16
800,71	1247,21
800,88	1257,45
801,06	1206,25
801,23	1292,27
801,41	1277,93
801,58	1230,83
801,75	1236,97
801,93	1347,56
802,10	1271,79
802,28	1259,50
802,45	1318,89
802,63	1236,97
802,80	1236,97
802,97	1257,45
803,15	1259,50
803,32	1193,97
803,50	1273,84
803,67	1296,36
803,84	1224,69
804,02	1288,17
804,19	1263,60
804,37	1232,88
804,54	1300,46
804,71	1290,22
804,89	1261,55
805,06	1255,40
805,24	1265,64
805,41	1279,98
805,58	1257,45
805,76	1259,50
805,93	1257,45
806,10	1286,12
806,28	1282,03
806,45	1228,78
806,63	1185,77
806,80	1187,82
806,97	1265,64
807,15	1286,12
807,32	1306,60
807,49	1282,03
807,67	1271,79
807,84	1255,40
808,01	1234,93
808,19	1261,55
808,36	1253,36
808,54	1322,99
808,71	1277,93
808,88	1255,40
809,06	1290,22
809,23	1294,32
809,40	1314,80
809,58	1177,58
809,75	1210,35
809,92	1298,41
810,10	1265,64
810,27	1298,41
810,44	1322,99
810,62	1288,17
810,79	1202,16
810,96	1275,88
811,14	1216,49
811,31	1290,22
811,48	1273,84
811,66	1286,12
811,83	1318,89
812,00	1257,45
812,18	1230,83
812,35	1312,75
812,52	1279,98
812,69	1296,36
812,87	1243,12
813,04	1282,03
813,21	1277,93
813,39	1230,83
813,56	1249,26
813,73	1282,03
813,91	1253,36
814,08	1269,74
814,25	1306,60
814,42	1236,97
814,60	1294,32
814,77	1204,21
814,94	1232,88
815,12	1355,76
815,29	1265,64
815,46	1300,46
815,63	1269,74
815,81	1279,98
815,98	1267,69
816,15	1382,38
816,33	1257,45
816,50	1247,21
816,67	1292,27
816,84	1306,60
817,02	1279,98
817,19	1312,75
817,36	1277,93
817,53	1241,07
817,71	1298,41
817,88	1298,41
818,05	1241,07
818,22	1322,99
818,40	1222,64
818,57	1200,11
818,74	1193,97
818,91	1306,60
819,09	1327,08
819,26	1175,53
819,43	1298,41
819,60	1171,44
819,78	1279,98
819,95	1279,98
820,12	1312,75
820,29	1241,07
820,47	1224,69
820,64	1245,16
820,81	1263,60
820,98	1239,02
821,15	1222,64
821,33	1234,93
821,50	1294,32
821,67	1308,65
821,84	1284,08
822,02	1249,26
822,19	1302,51
822,36	1273,84
822,53	1251,31
822,70	1298,41
822,88	1273,84
823,05	1277,93
823,22	1275,88
823,39	1249,26
823,56	1234,93
823,74	1273,84
823,91	1202,16
824,08	1269,74
824,25	1218,54
824,42	1286,12
824,60	1236,97
824,77	1253,36
824,94	1177,58
825,11	1249,26
825,28	1255,40
825,45	1271,79
825,63	1265,64
825,80	1259,50
825,97	1318,89
826,14	1337,32
826,31	1269,74
826,48	1253,36
826,66	1249,26
826,83	1243,12
827,00	1234,93
827,17	1241,07
827,34	1183,73
827,51	1222,64
827,69	1345,52
827,86	1253,36
828,03	1187,82
828,20	1228,78
828,37	1282,03
828,54	1267,69
828,71	1275,88
828,89	1249,26
829,06	1210,35
829,23	1249,26
829,40	1277,93
829,57	1224,69
829,74	1318,89
829,91	1196,01
830,09	1202,16
830,26	1261,55
830,43	1249,26
830,60	1273,84
830,77	1302,51
830,94	1296,36
831,11	1343,47
831,28	1265,64
831,46	1331,18
831,63	1282,03
831,80	1263,60
831,97	1243,12
832,14	1294,32
832,31	1277,93
832,48	1320,94
832,65	1255,40
832,82	1275,88
832,99	1312,75
833,17	1243,12
833,34	1304,56
833,51	1226,73
833,68	1234,93
833,85	1302,51
834,02	1236,97
834,19	1277,93
834,36	1325,04
834,53	1251,31
834,70	1296,36
834,87	1253,36
835,04	1286,12
835,22	1335,28
835,39	1312,75
835,56	1271,79
835,73	1296,36
835,90	1191,92
836,07	1245,16
836,24	1282,03
836,41	1187,82
836,58	1308,65
836,75	1296,36
836,92	1265,64
837,09	1288,17
837,26	1220,59
837,43	1300,46
837,60	1292,27
837,77	1282,03
837,94	1253,36
838,12	1222,64
838,29	1304,56
838,46	1234,93
838,63	1273,84
838,80	1286,12
838,97	1247,21
839,14	1239,02
839,31	1187,82
839,48	1345,52
839,65	1228,78
839,82	1306,60
839,99	1331,18
840,16	1245,16
840,33	1259,50
840,50	1261,55
840,67	1187,82
840,84	1279,98
841,01	1228,78
841,18	1236,97
841,35	1294,32
841,52	1325,04
841,69	1216,49
841,86	1175,53
842,03	1220,59
842,20	1318,89
842,37	1214,45
842,54	1204,21
842,71	1257,45
842,88	1339,37
843,05	1294,32
843,22	1218,54
843,39	1300,46
843,56	1230,83
843,73	1325,04
843,90	1273,84
844,07	1239,02
844,24	1155,05
844,41	1263,60
844,58	1374,19
844,75	1255,40
844,92	1314,80
845,09	1249,26
845,26	1306,60
845,43	1214,45
845,60	1257,45
845,77	1322,99
845,94	1273,84
846,10	1267,69
846,27	1249,26
846,44	1290,22
846,61	1257,45
846,78	1294,32
846,95	1273,84
847,12	1204,21
847,29	1214,45
847,46	1265,64
847,63	1294,32
847,80	1249,26
847,97	1314,80
848,14	1335,28
848,31	1273,84
848,48	1279,98
848,65	1282,03
848,82	1255,40
848,98	1249,26
849,15	1265,64
849,32	1298,41
849,49	1261,55
849,66	1226,73
849,83	1273,84
850,00	1267,69
850,17	1273,84
850,34	1329,13
850,51	1288,17
850,68	1230,83
850,85	1245,16
851,01	1255,40
851,18	1226,73
851,35	1245,16
851,52	1277,93
851,69	1279,98
851,86	1228,78
852,03	1216,49
852,20	1220,59
852,37	1216,49
852,53	1177,58
852,70	1312,75
852,87	1288,17
853,04	1220,59
853,21	1349,61
853,38	1300,46
853,55	1245,16
853,72	1232,88
853,89	1150,96
854,05	1318,89
854,22	1300,46
854,39	1279,98
854,56	1318,89
854,73	1290,22
854,90	1298,41
855,07	1304,56
855,23	1236,97
855,40	1261,55
855,57	1294,32
855,74	1331,18
855,91	1353,71
856,08	1255,40
856,25	1220,59
856,41	1300,46
856,58	1251,31
856,75	1345,52
856,92	1388,52
857,09	1271,79
857,26	1257,45
857,42	1263,60
857,59	1263,60
857,76	1220,59
857,93	1216,49
858,10	1261,55
858,27	1243,12
858,43	1273,84
858,60	1245,16
858,77	1241,07
858,94	1308,65
859,11	1241,07
859,27	1236,97
859,44	1247,21
859,61	1298,41
859,78	1337,32
859,95	1216,49
860,12	1189,87
860,28	1318,89
860,45	1265,64
860,62	1198,06
860,79	1320,94
860,95	1261,55
861,12	1312,75
861,29	1282,03
861,46	1259,50
861,63	1331,18
861,79	1290,22
861,96	1320,94
862,13	1265,64
862,30	1304,56
862,47	1251,31
862,63	1302,51
862,80	1308,65
862,97	1247,21
863,14	1200,11
863,30	1273,84
863,47	1251,31
863,64	1288,17
863,81	1269,74
863,97	1279,98
864,14	1292,27
864,31	1290,22
864,48	1275,88
864,65	1216,49
864,81	1304,56
864,98	1288,17
865,15	1306,60
865,32	1267,69
865,48	1222,64
865,65	1253,36
865,82	1257,45
865,98	1224,69
866,15	1249,26
866,32	1241,07
866,49	1169,39
866,65	1300,46
866,82	1261,55
866,99	1218,54
867,16	1241,07
867,32	1316,84
867,49	1220,59
867,66	1304,56
867,83	1226,73
867,99	1239,02
868,16	1273,84
868,33	1179,63
868,49	1226,73
868,66	1236,97
868,83	1218,54
868,99	1251,31
869,16	1325,04
869,33	1269,74
869,50	1292,27
869,66	1265,64
869,83	1249,26
870,00	1265,64
870,16	1312,75
870,33	1241,07
870,50	1308,65
870,66	1257,45
870,83	1329,13
871,00	1257,45
871,17	1216,49
871,33	1216,49
871,50	1259,50
871,67	1265,64
871,83	1220,59
872,00	1243,12
872,17	1255,40
872,33	1288,17
872,50	1310,70
872,67	1282,03
872,83	1249,26
873,00	1288,17
873,17	1292,27
873,33	1193,97
873,50	1263,60
873,67	1226,73
873,83	1251,31
874,00	1302,51
874,16	1273,84
874,33	1226,73
874,50	1241,07
874,66	1251,31
874,83	1236,97
875,00	1273,84
875,16	1294,32
875,33	1279,98
875,50	1236,97
875,66	1226,73
875,83	1288,17
875,99	1243,12
876,16	1333,23
876,33	1253,36
876,49	1282,03
876,66	1239,02
876,83	1210,35
876,99	1329,13
877,16	1247,21
877,32	1265,64
877,49	1275,88
877,66	1236,97
877,82	1249,26
877,99	1216,49
878,15	1253,36
878,32	1279,98
878,49	1290,22
878,65	1239,02
878,82	1271,79
878,98	1286,12
879,15	1222,64
879,32	1284,08
879,48	1316,84
879,65	1241,07
879,81	1277,93
879,98	1286,12
880,15	1269,74
880,31	1269,74
880,48	1316,84
880,64	1290,22
880,81	1273,84
880,97	1257,45
881,14	1273,84
881,31	1294,32
881,47	1249,26
881,64	1271,79
881,80	1273,84
881,97	1273,84
882,13	1279,98
882,30	1239,02
882,47	1269,74
882,63	1312,75
882,80	1247,21
882,96	1263,60
883,13	1228,78
883,29	1286,12
883,46	1296,36
883,62	1259,50
883,79	1249,26
883,95	1267,69
884,12	1263,60
884,29	1298,41
884,45	1310,70
884,62	1257,45
884,78	1224,69
884,95	1267,69
885,11	1243,12
885,28	1263,60
885,44	1304,56
885,61	1222,64
885,77	1239,02
885,94	1228,78
886,10	1269,74
886,27	1282,03
886,43	1282,03
886,60	1257,45
886,76	1214,45
886,93	1265,64
887,09	1286,12
887,26	1243,12
887,42	1286,12
887,59	1329,13
887,75	1314,80
887,92	1249,26
888,08	1259,50
888,25	1349,61
888,41	1306,60
888,58	1245,16
888,74	1329,13
888,91	1210,35
>>>>>End Processed Spectral Data<<<<<
