SpectraSuite Data File
++++++++++++++++++++++++++++++++++++
Date: Sun Apr 03 19:55:45 CEST 2016
User: root
Dark Spectrum Present: No
Reference Spectrum Present: No
Number of Sampled Component Spectra: 1
Spectrometers: USB4C02835
Integration Time (usec): 10000 (USB4C02835)
Spectra Averaged: 1 (USB4C02835)
Boxcar Smoothing: 0 (USB4C02835)
Correct for Electrical Dark: No (USB4C02835)
Strobe/Lamp Enabled: No (USB4C02835)
Correct for Detector Non-linearity: No (USB4C02835)
Correct for Stray Light: No (USB4C02835)
Number of Pixels in Processed Spectrum: 3648
>>>>>Begin Processed Spectral Data<<<<<
177,47	1300,46
177,69	1300,46
177,91	1300,46
178,13	1208,30
178,36	1267,69
178,58	1185,77
178,80	1239,02
179,02	1286,12
179,24	1271,79
179,46	1245,16
179,68	1210,35
179,90	1239,02
180,13	1296,36
180,35	1216,49
180,57	1288,17
180,79	1314,80
181,01	1234,93
181,23	1255,40
181,45	1300,46
181,67	1322,99
181,90	1265,64
182,12	1327,08
182,34	1271,79
182,56	1165,29
182,78	1306,60
183,00	1255,40
183,22	1208,30
183,44	1271,79
183,66	1316,84
183,89	1226,73
184,11	1232,88
184,33	1251,31
184,55	1269,74
184,77	1218,54
184,99	1310,70
185,21	1265,64
185,43	1222,64
185,65	1271,79
185,87	1228,78
186,10	1249,26
186,32	1216,49
186,54	1259,50
186,76	1269,74
186,98	1282,03
187,20	1220,59
187,42	1269,74
187,64	1288,17
187,86	1292,27
188,08	1288,17
188,30	1214,45
188,52	1292,27
188,75	1196,01
188,97	1232,88
189,19	1316,84
189,41	1327,08
189,63	1228,78
189,85	1288,17
190,07	1300,46
190,29	1245,16
190,51	1230,83
190,73	1245,16
190,95	1284,08
191,17	1261,55
191,39	1247,21
191,61	1325,04
191,84	1241,07
192,06	1277,93
192,28	1208,30
192,50	1251,31
192,72	1236,97
192,94	1249,26
193,16	1306,60
193,38	1249,26
193,60	1269,74
193,82	1214,45
194,04	1316,84
194,26	1273,84
194,48	1249,26
194,70	1298,41
194,92	1218,54
195,14	1265,64
195,36	1302,51
195,58	1263,60
195,80	1247,21
196,02	1265,64
196,24	1247,21
196,46	1269,74
196,69	1196,01
196,91	1273,84
197,13	1234,93
197,35	1249,26
197,57	1314,80
197,79	1261,55
198,01	1284,08
198,23	1245,16
198,45	1243,12
198,67	1228,78
198,89	1261,55
199,11	1259,50
199,33	1232,88
199,55	1294,32
199,77	1222,64
199,99	1218,54
200,21	1198,06
200,43	1257,45
200,65	1286,12
200,87	1298,41
201,09	1282,03
201,31	1304,56
201,53	1253,36
201,75	1329,13
201,97	1304,56
202,19	1245,16
202,41	1288,17
202,63	1339,37
202,85	1224,69
203,07	1243,12
203,29	1325,04
203,51	1271,79
203,73	1230,83
203,95	1249,26
204,17	1273,84
204,39	1275,88
204,61	1234,93
204,83	1290,22
205,05	1322,99
205,27	1257,45
205,49	1306,60
205,71	1249,26
205,93	1263,60
206,15	1198,06
206,37	1277,93
206,59	1290,22
206,81	1288,17
207,03	1263,60
207,25	1245,16
207,47	1333,23
207,69	1228,78
207,91	1273,84
208,13	1255,40
208,34	1322,99
208,56	1312,75
208,78	1251,31
209,00	1241,07
209,22	1296,36
209,44	1300,46
209,66	1232,88
209,88	1245,16
210,10	1275,88
210,32	1290,22
210,54	1290,22
210,76	1239,02
210,98	1251,31
211,20	1216,49
211,42	1284,08
211,64	1296,36
211,86	1257,45
212,08	1243,12
212,30	1232,88
212,52	1378,28
212,74	1269,74
212,96	1298,41
213,17	1239,02
213,39	1202,16
213,61	1271,79
213,83	1247,21
214,05	1259,50
214,27	1269,74
214,49	1282,03
214,71	1230,83
214,93	1247,21
215,15	1259,50
215,37	1234,93
215,59	1308,65
215,81	1284,08
216,03	1271,79
216,24	1236,97
216,46	1288,17
216,68	1290,22
216,90	1406,95
217,12	1296,36
217,34	1243,12
217,56	1251,31
217,78	1296,36
218,00	1300,46
218,22	1310,70
218,44	1320,94
218,66	1263,60
218,87	1267,69
219,09	1304,56
219,31	1294,32
219,53	1306,60
219,75	1316,84
219,97	1300,46
220,19	1296,36
220,41	1316,84
220,63	1359,85
220,85	1226,73
221,06	1296,36
221,28	1310,70
221,50	1322,99
221,72	1220,59
221,94	1282,03
222,16	1259,50
222,38	1312,75
222,60	1222,64
222,82	1304,56
223,03	1292,27
223,25	1275,88
223,47	1228,78
223,69	1200,11
223,91	1269,74
224,13	1251,31
224,35	1271,79
224,57	1253,36
224,78	1249,26
225,00	1271,79
225,22	1284,08
225,44	1216,49
225,66	1288,17
225,88	1314,80
226,10	1200,11
226,32	1267,69
226,53	1239,02
226,75	1306,60
226,97	1232,88
227,19	1329,13
227,41	1271,79
227,63	1327,08
227,85	1290,22
228,06	1361,90
228,28	1290,22
228,50	1282,03
228,72	1298,41
228,94	1282,03
229,16	1243,12
229,37	1265,64
229,59	1284,08
229,81	1206,25
230,03	1279,98
230,25	1277,93
230,47	1193,97
230,69	1198,06
230,90	1302,51
231,12	1226,73
231,34	1206,25
231,56	1318,89
231,78	1257,45
232,00	1212,40
232,21	1181,68
232,43	1288,17
232,65	1292,27
232,87	1271,79
233,09	1243,12
233,30	1279,98
233,52	1255,40
233,74	1288,17
233,96	1294,32
234,18	1318,89
234,40	1277,93
234,61	1290,22
234,83	1187,82
235,05	1236,97
235,27	1236,97
235,49	1366,00
235,70	1271,79
235,92	1255,40
236,14	1261,55
236,36	1275,88
236,58	1310,70
236,79	1286,12
237,01	1302,51
237,23	1263,60
237,45	1261,55
237,67	1218,54
237,88	1253,36
238,10	1263,60
238,32	1286,12
238,54	1298,41
238,76	1245,16
238,97	1273,84
239,19	1282,03
239,41	1249,26
239,63	1202,16
239,85	1249,26
240,06	1265,64
240,28	1198,06
240,50	1333,23
240,72	1249,26
240,93	1279,98
241,15	1286,12
241,37	1290,22
241,59	1357,80
241,81	1271,79
242,02	1255,40
242,24	1273,84
242,46	1294,32
242,68	1286,12
242,89	1279,98
243,11	1269,74
243,33	1286,12
243,55	1226,73
243,76	1218,54
243,98	1236,97
244,20	1290,22
244,42	1316,84
244,64	1265,64
244,85	1251,31
245,07	1241,07
245,29	1259,50
245,51	1243,12
245,72	1239,02
245,94	1273,84
246,16	1245,16
246,38	1318,89
246,59	1187,82
246,81	1298,41
247,03	1232,88
247,24	1226,73
247,46	1230,83
247,68	1200,11
247,90	1239,02
248,11	1279,98
248,33	1245,16
248,55	1232,88
248,77	1265,64
248,98	1292,27
249,20	1318,89
249,42	1275,88
249,64	1261,55
249,85	1279,98
250,07	1310,70
250,29	1232,88
250,50	1275,88
250,72	1271,79
250,94	1222,64
251,16	1296,36
251,37	1300,46
251,59	1261,55
251,81	1241,07
252,02	1263,60
252,24	1216,49
252,46	1310,70
252,68	1284,08
252,89	1241,07
253,11	1245,16
253,33	1230,83
253,54	1314,80
253,76	1320,94
253,98	1296,36
254,20	1273,84
254,41	1273,84
254,63	1279,98
254,85	1210,35
255,06	1259,50
255,28	1269,74
255,50	1204,21
255,71	1282,03
255,93	1384,43
256,15	1212,40
256,36	1230,83
256,58	1247,21
256,80	1234,93
257,02	1267,69
257,23	1271,79
257,45	1273,84
257,67	1347,56
257,88	1241,07
258,10	1282,03
258,32	1267,69
258,53	1247,21
258,75	1253,36
258,97	1286,12
259,18	1294,32
259,40	1298,41
259,62	1245,16
259,83	1271,79
260,05	1322,99
260,27	1306,60
260,48	1247,21
260,70	1277,93
260,92	1261,55
261,13	1269,74
261,35	1202,16
261,57	1263,60
261,78	1220,59
262,00	1284,08
262,22	1267,69
262,43	1322,99
262,65	1361,90
262,86	1273,84
263,08	1279,98
263,30	1261,55
263,51	1228,78
263,73	1261,55
263,95	1220,59
264,16	1316,84
264,38	1282,03
264,60	1282,03
264,81	1239,02
265,03	1226,73
265,25	1185,77
265,46	1310,70
265,68	1296,36
265,89	1251,31
266,11	1308,65
266,33	1208,30
266,54	1279,98
266,76	1279,98
266,98	1288,17
267,19	1298,41
267,41	1251,31
267,62	1288,17
267,84	1284,08
268,06	1251,31
268,27	1296,36
268,49	1327,08
268,70	1263,60
268,92	1282,03
269,14	1214,45
269,35	1294,32
269,57	1286,12
269,79	1298,41
270,00	1286,12
270,22	1241,07
270,43	1269,74
270,65	1214,45
270,87	1327,08
271,08	1275,88
271,30	1263,60
271,51	1261,55
271,73	1263,60
271,95	1255,40
272,16	1265,64
272,38	1282,03
272,59	1208,30
272,81	1308,65
273,02	1304,56
273,24	1292,27
273,46	1282,03
273,67	1273,84
273,89	1245,16
274,10	1263,60
274,32	1269,74
274,54	1320,94
274,75	1261,55
274,97	1329,13
275,18	1239,02
275,40	1327,08
275,61	1224,69
275,83	1257,45
276,05	1294,32
276,26	1322,99
276,48	1247,21
276,69	1316,84
276,91	1218,54
277,12	1329,13
277,34	1325,04
277,55	1345,52
277,77	1275,88
277,99	1216,49
278,20	1263,60
278,42	1241,07
278,63	1320,94
278,85	1282,03
279,06	1249,26
279,28	1253,36
279,49	1288,17
279,71	1279,98
279,93	1212,40
280,14	1279,98
280,36	1236,97
280,57	1296,36
280,79	1245,16
281,00	1261,55
281,22	1259,50
281,43	1261,55
281,65	1253,36
281,86	1269,74
282,08	1210,35
282,29	1216,49
282,51	1277,93
282,73	1271,79
282,94	1327,08
283,16	1275,88
283,37	1267,69
283,59	1327,08
283,80	1279,98
284,02	1279,98
284,23	1282,03
284,45	1269,74
284,66	1241,07
284,88	1232,88
285,09	1251,31
285,31	1267,69
285,52	1318,89
285,74	1296,36
285,95	1222,64
286,17	1265,64
286,38	1318,89
286,60	1265,64
286,81	1253,36
287,03	1232,88
287,24	1290,22
287,46	1202,16
287,67	1249,26
287,89	1228,78
288,10	1263,60
288,32	1196,01
288,53	1386,47
288,75	1282,03
288,96	1294,32
289,18	1298,41
289,39	1273,84
289,61	1255,40
289,82	1302,51
290,04	1300,46
290,25	1304,56
290,47	1265,64
290,68	1228,78
290,90	1322,99
291,11	1253,36
291,33	1302,51
291,54	1232,88
291,76	1239,02
291,97	1322,99
292,18	1245,16
292,40	1384,43
292,61	1337,32
292,83	1304,56
293,04	1265,64
293,26	1245,16
293,47	1327,08
293,69	1146,86
293,90	1253,36
294,12	1304,56
294,33	1275,88
294,55	1292,27
294,76	1271,79
294,97	1198,06
295,19	1282,03
295,40	1245,16
295,62	1200,11
295,83	1279,98
296,05	1271,79
296,26	1257,45
296,48	1273,84
296,69	1261,55
296,90	1318,89
297,12	1302,51
297,33	1306,60
297,55	1232,88
297,76	1257,45
297,98	1232,88
298,19	1290,22
298,41	1279,98
298,62	1226,73
298,83	1366,00
299,05	1327,08
299,26	1300,46
299,48	1261,55
299,69	1269,74
299,90	1302,51
300,12	1316,84
300,33	1279,98
300,55	1230,83
300,76	1355,76
300,98	1331,18
301,19	1279,98
301,40	1282,03
301,62	1277,93
301,83	1253,36
302,05	1284,08
302,26	1259,50
302,47	1251,31
302,69	1234,93
302,90	1296,36
303,12	1265,64
303,33	1255,40
303,54	1298,41
303,76	1275,88
303,97	1265,64
304,19	1339,37
304,40	1222,64
304,61	1298,41
304,83	1286,12
305,04	1306,60
305,26	1284,08
305,47	1265,64
305,68	1304,56
305,90	1308,65
306,11	1312,75
306,33	1247,21
306,54	1210,35
306,75	1312,75
306,97	1263,60
307,18	1269,74
307,39	1263,60
307,61	1198,06
307,82	1230,83
308,04	1239,02
308,25	1253,36
308,46	1329,13
308,68	1310,70
308,89	1239,02
309,10	1284,08
309,32	1288,17
309,53	1263,60
309,74	1239,02
309,96	1296,36
310,17	1327,08
310,39	1273,84
310,60	1232,88
310,81	1257,45
311,03	1306,60
311,24	1263,60
311,45	1304,56
311,67	1267,69
311,88	1183,73
312,09	1277,93
312,31	1269,74
312,52	1265,64
312,73	1306,60
312,95	1351,66
313,16	1255,40
313,37	1236,97
313,59	1251,31
313,80	1300,46
314,01	1212,40
314,23	1282,03
314,44	1265,64
314,65	1214,45
314,87	1347,56
315,08	1234,93
315,29	1241,07
315,51	1312,75
315,72	1212,40
315,93	1275,88
316,15	1333,23
316,36	1304,56
316,57	1310,70
316,79	1228,78
317,00	1296,36
317,21	1210,35
317,43	1241,07
317,64	1265,64
317,85	1204,21
318,07	1277,93
318,28	1296,36
318,49	1290,22
318,70	1259,50
318,92	1249,26
319,13	1193,97
319,34	1257,45
319,56	1263,60
319,77	1292,27
319,98	1198,06
320,20	1228,78
320,41	1279,98
320,62	1220,59
320,83	1263,60
321,05	1255,40
321,26	1232,88
321,47	1306,60
321,69	1310,70
321,90	1259,50
322,11	1366,00
322,32	1271,79
322,54	1236,97
322,75	1216,49
322,96	1239,02
323,18	1314,80
323,39	1273,84
323,60	1245,16
323,81	1302,51
324,03	1222,64
324,24	1318,89
324,45	1294,32
324,66	1263,60
324,88	1216,49
325,09	1298,41
325,30	1296,36
325,52	1304,56
325,73	1347,56
325,94	1300,46
326,15	1284,08
326,37	1298,41
326,58	1259,50
326,79	1314,80
327,00	1249,26
327,22	1218,54
327,43	1230,83
327,64	1157,10
327,85	1239,02
328,07	1284,08
328,28	1236,97
328,49	1310,70
328,70	1232,88
328,92	1271,79
329,13	1263,60
329,34	1300,46
329,55	1245,16
329,76	1214,45
329,98	1277,93
330,19	1312,75
330,40	1292,27
330,61	1286,12
330,83	1298,41
331,04	1239,02
331,25	1331,18
331,46	1251,31
331,68	1267,69
331,89	1361,90
332,10	1308,65
332,31	1306,60
332,52	1193,97
332,74	1230,83
332,95	1286,12
333,16	1331,18
333,37	1292,27
333,58	1304,56
333,80	1290,22
334,01	1314,80
334,22	1261,55
334,43	1277,93
334,64	1314,80
334,86	1306,60
335,07	1226,73
335,28	1236,97
335,49	1251,31
335,70	1267,69
335,92	1220,59
336,13	1284,08
336,34	1224,69
336,55	1228,78
336,76	1222,64
336,98	1298,41
337,19	1204,21
337,40	1302,51
337,61	1300,46
337,82	1288,17
338,04	1243,12
338,25	1239,02
338,46	1275,88
338,67	1359,85
338,88	1292,27
339,09	1296,36
339,31	1265,64
339,52	1271,79
339,73	1265,64
339,94	1185,77
340,15	1275,88
340,36	1269,74
340,58	1271,79
340,79	1261,55
341,00	1261,55
341,21	1339,37
341,42	1259,50
341,63	1241,07
341,85	1226,73
342,06	1310,70
342,27	1234,93
342,48	1271,79
342,69	1216,49
342,90	1310,70
343,12	1230,83
343,33	1247,21
343,54	1241,07
343,75	1275,88
343,96	1218,54
344,17	1247,21
344,38	1314,80
344,60	1224,69
344,81	1310,70
345,02	1202,16
345,23	1269,74
345,44	1234,93
345,65	1210,35
345,86	1224,69
346,07	1247,21
346,29	1277,93
346,50	1296,36
346,71	1226,73
346,92	1183,73
347,13	1282,03
347,34	1198,06
347,55	1261,55
347,76	1265,64
347,98	1230,83
348,19	1290,22
348,40	1251,31
348,61	1241,07
348,82	1318,89
349,03	1245,16
349,24	1263,60
349,45	1296,36
349,66	1269,74
349,88	1277,93
350,09	1304,56
350,30	1177,58
350,51	1214,45
350,72	1366,00
350,93	1292,27
351,14	1193,97
351,35	1255,40
351,56	1247,21
351,77	1312,75
351,99	1347,56
352,20	1363,95
352,41	1183,73
352,62	1290,22
352,83	1249,26
353,04	1263,60
353,25	1241,07
353,46	1288,17
353,67	1265,64
353,88	1239,02
354,09	1286,12
354,30	1224,69
354,52	1308,65
354,73	1228,78
354,94	1316,84
355,15	1314,80
355,36	1294,32
355,57	1304,56
355,78	1261,55
355,99	1179,63
356,20	1234,93
356,41	1284,08
356,62	1314,80
356,83	1216,49
357,04	1247,21
357,25	1249,26
357,46	1236,97
357,68	1210,35
357,89	1241,07
358,10	1275,88
358,31	1243,12
358,52	1286,12
358,73	1236,97
358,94	1275,88
359,15	1273,84
359,36	1300,46
359,57	1265,64
359,78	1304,56
359,99	1265,64
360,20	1239,02
360,41	1290,22
360,62	1282,03
360,83	1279,98
361,04	1347,56
361,25	1312,75
361,46	1263,60
361,67	1327,08
361,88	1302,51
362,09	1255,40
362,30	1255,40
362,51	1232,88
362,72	1308,65
362,93	1331,18
363,14	1216,49
363,35	1269,74
363,56	1294,32
363,78	1196,01
363,99	1380,33
364,20	1284,08
364,41	1185,77
364,62	1331,18
364,83	1300,46
365,04	1282,03
365,25	1304,56
365,46	1265,64
365,67	1191,92
365,88	1306,60
366,09	1292,27
366,30	1239,02
366,51	1296,36
366,72	1226,73
366,93	1304,56
367,14	1275,88
367,35	1314,80
367,56	1245,16
367,77	1290,22
367,98	1234,93
368,18	1257,45
368,39	1187,82
368,60	1282,03
368,81	1267,69
369,02	1279,98
369,23	1271,79
369,44	1275,88
369,65	1339,37
369,86	1329,13
370,07	1275,88
370,28	1271,79
370,49	1261,55
370,70	1314,80
370,91	1284,08
371,12	1269,74
371,33	1304,56
371,54	1331,18
371,75	1210,35
371,96	1263,60
372,17	1202,16
372,38	1312,75
372,59	1275,88
372,80	1273,84
373,01	1265,64
373,22	1236,97
373,43	1273,84
373,64	1329,13
373,85	1224,69
374,06	1245,16
374,26	1191,92
374,47	1198,06
374,68	1261,55
374,89	1284,08
375,10	1261,55
375,31	1269,74
375,52	1243,12
375,73	1273,84
375,94	1298,41
376,15	1304,56
376,36	1202,16
376,57	1271,79
376,78	1331,18
376,99	1318,89
377,20	1230,83
377,40	1290,22
377,61	1230,83
377,82	1263,60
378,03	1290,22
378,24	1302,51
378,45	1284,08
378,66	1279,98
378,87	1269,74
379,08	1269,74
379,29	1306,60
379,50	1259,50
379,71	1202,16
379,91	1253,36
380,12	1202,16
380,33	1265,64
380,54	1247,21
380,75	1316,84
380,96	1269,74
381,17	1294,32
381,38	1193,97
381,59	1279,98
381,80	1232,88
382,00	1282,03
382,21	1220,59
382,42	1218,54
382,63	1333,23
382,84	1243,12
383,05	1263,60
383,26	1277,93
383,47	1226,73
383,68	1255,40
383,88	1273,84
384,09	1273,84
384,30	1292,27
384,51	1288,17
384,72	1257,45
384,93	1251,31
385,14	1269,74
385,35	1318,89
385,55	1222,64
385,76	1288,17
385,97	1279,98
386,18	1243,12
386,39	1300,46
386,60	1239,02
386,81	1284,08
387,02	1312,75
387,22	1282,03
387,43	1220,59
387,64	1220,59
387,85	1230,83
388,06	1253,36
388,27	1241,07
388,48	1355,76
388,68	1232,88
388,89	1277,93
389,10	1263,60
389,31	1269,74
389,52	1302,51
389,73	1269,74
389,93	1300,46
390,14	1245,16
390,35	1245,16
390,56	1298,41
390,77	1251,31
390,98	1310,70
391,18	1292,27
391,39	1341,42
391,60	1265,64
391,81	1261,55
392,02	1257,45
392,23	1275,88
392,43	1277,93
392,64	1261,55
392,85	1314,80
393,06	1198,06
393,27	1314,80
393,47	1267,69
393,68	1282,03
393,89	1271,79
394,10	1261,55
394,31	1245,16
394,52	1222,64
394,72	1191,92
394,93	1277,93
395,14	1298,41
395,35	1263,60
395,56	1294,32
395,76	1294,32
395,97	1277,93
396,18	1232,88
396,39	1208,30
396,60	1298,41
396,80	1318,89
397,01	1251,31
397,22	1218,54
397,43	1294,32
397,64	1224,69
397,84	1241,07
398,05	1273,84
398,26	1241,07
398,47	1265,64
398,67	1325,04
398,88	1312,75
399,09	1279,98
399,30	1241,07
399,51	1208,30
399,71	1255,40
399,92	1255,40
400,13	1282,03
400,34	1282,03
400,54	1320,94
400,75	1306,60
400,96	1251,31
401,17	1243,12
401,37	1226,73
401,58	1271,79
401,79	1243,12
402,00	1247,21
402,21	1267,69
402,41	1265,64
402,62	1187,82
402,83	1296,36
403,04	1224,69
403,24	1300,46
403,45	1239,02
403,66	1251,31
403,87	1255,40
404,07	1294,32
404,28	1322,99
404,49	1271,79
404,70	1279,98
404,90	1222,64
405,11	1245,16
405,32	1282,03
405,52	1263,60
405,73	1239,02
405,94	1196,01
406,15	1329,13
406,35	1257,45
406,56	1234,93
406,77	1247,21
406,98	1232,88
407,18	1279,98
407,39	1249,26
407,60	1259,50
407,80	1267,69
408,01	1284,08
408,22	1279,98
408,43	1234,93
408,63	1302,51
408,84	1265,64
409,05	1216,49
409,25	1312,75
409,46	1247,21
409,67	1241,07
409,88	1196,01
410,08	1306,60
410,29	1247,21
410,50	1284,08
410,70	1294,32
410,91	1247,21
411,12	1255,40
411,32	1236,97
411,53	1253,36
411,74	1253,36
411,95	1230,83
412,15	1236,97
412,36	1236,97
412,57	1275,88
412,77	1337,32
412,98	1292,27
413,19	1273,84
413,39	1228,78
413,60	1220,59
413,81	1294,32
414,01	1275,88
414,22	1220,59
414,43	1296,36
414,63	1282,03
414,84	1275,88
415,05	1247,21
415,25	1284,08
415,46	1279,98
415,67	1202,16
415,87	1318,89
416,08	1288,17
416,29	1327,08
416,49	1273,84
416,70	1261,55
416,91	1232,88
417,11	1298,41
417,32	1294,32
417,53	1316,84
417,73	1370,09
417,94	1306,60
418,15	1230,83
418,35	1261,55
418,56	1282,03
418,77	1263,60
418,97	1179,63
419,18	1243,12
419,38	1259,50
419,59	1198,06
419,80	1312,75
420,00	1189,87
420,21	1312,75
420,42	1277,93
420,62	1257,45
420,83	1279,98
421,04	1277,93
421,24	1236,97
421,45	1298,41
421,65	1355,76
421,86	1277,93
422,07	1327,08
422,27	1370,09
422,48	1267,69
422,69	1279,98
422,89	1310,70
423,10	1298,41
423,30	1292,27
423,51	1241,07
423,72	1288,17
423,92	1251,31
424,13	1236,97
424,33	1288,17
424,54	1267,69
424,75	1228,78
424,95	1290,22
425,16	1286,12
425,36	1279,98
425,57	1243,12
425,78	1318,89
425,98	1325,04
426,19	1239,02
426,39	1263,60
426,60	1300,46
426,81	1245,16
427,01	1292,27
427,22	1265,64
427,42	1296,36
427,63	1279,98
427,83	1273,84
428,04	1267,69
428,25	1263,60
428,45	1253,36
428,66	1331,18
428,86	1310,70
429,07	1220,59
429,28	1298,41
429,48	1232,88
429,69	1243,12
429,89	1271,79
430,10	1267,69
430,30	1298,41
430,51	1255,40
430,71	1271,79
430,92	1212,40
431,13	1234,93
431,33	1232,88
431,54	1306,60
431,74	1247,21
431,95	1253,36
432,15	1230,83
432,36	1322,99
432,56	1204,21
432,77	1247,21
432,98	1245,16
433,18	1316,84
433,39	1251,31
433,59	1245,16
433,80	1300,46
434,00	1224,69
434,21	1284,08
434,41	1218,54
434,62	1290,22
434,82	1239,02
435,03	1265,64
435,23	1234,93
435,44	1271,79
435,64	1216,49
435,85	1275,88
436,06	1316,84
436,26	1386,47
436,47	1290,22
436,67	1249,26
436,88	1241,07
437,08	1284,08
437,29	1284,08
437,49	1206,25
437,70	1288,17
437,90	1232,88
438,11	1288,17
438,31	1234,93
438,52	1208,30
438,72	1282,03
438,93	1310,70
439,13	1200,11
439,34	1359,85
439,54	1284,08
439,75	1275,88
439,95	1234,93
440,16	1218,54
440,36	1273,84
440,57	1277,93
440,77	1304,56
440,98	1363,95
441,18	1269,74
441,39	1277,93
441,59	1302,51
441,80	1253,36
442,00	1290,22
442,21	1216,49
442,41	1224,69
442,62	1271,79
442,82	1335,28
443,02	1234,93
443,23	1345,52
443,43	1206,25
443,64	1253,36
443,84	1318,89
444,05	1263,60
444,25	1204,21
444,46	1353,71
444,66	1220,59
444,87	1255,40
445,07	1353,71
445,28	1239,02
445,48	1310,70
445,69	1271,79
445,89	1312,75
446,09	1271,79
446,30	1353,71
446,50	1335,28
446,71	1312,75
446,91	1363,95
447,12	1204,21
447,32	1327,08
447,53	1216,49
447,73	1243,12
447,93	1294,32
448,14	1292,27
448,34	1286,12
448,55	1298,41
448,75	1218,54
448,96	1290,22
449,16	1290,22
449,36	1269,74
449,57	1320,94
449,77	1325,04
449,98	1312,75
450,18	1298,41
450,39	1265,64
450,59	1277,93
450,79	1312,75
451,00	1224,69
451,20	1306,60
451,41	1294,32
451,61	1322,99
451,81	1249,26
452,02	1296,36
452,22	1261,55
452,43	1349,61
452,63	1316,84
452,84	1320,94
453,04	1322,99
453,24	1273,84
453,45	1261,55
453,65	1273,84
453,86	1251,31
454,06	1275,88
454,26	1292,27
454,47	1226,73
454,67	1298,41
454,87	1284,08
455,08	1257,45
455,28	1249,26
455,49	1234,93
455,69	1384,43
455,89	1243,12
456,10	1236,97
456,30	1322,99
456,51	1343,47
456,71	1329,13
456,91	1314,80
457,12	1288,17
457,32	1290,22
457,52	1366,00
457,73	1327,08
457,93	1247,21
458,14	1263,60
458,34	1255,40
458,54	1273,84
458,75	1279,98
458,95	1286,12
459,15	1249,26
459,36	1206,25
459,56	1279,98
459,76	1236,97
459,97	1206,25
460,17	1257,45
460,37	1249,26
460,58	1322,99
460,78	1216,49
460,99	1236,97
461,19	1304,56
461,39	1300,46
461,60	1218,54
461,80	1269,74
462,00	1220,59
462,21	1239,02
462,41	1259,50
462,61	1277,93
462,82	1243,12
463,02	1220,59
463,22	1292,27
463,43	1290,22
463,63	1302,51
463,83	1208,30
464,04	1351,66
464,24	1239,02
464,44	1279,98
464,64	1224,69
464,85	1275,88
465,05	1337,32
465,25	1320,94
465,46	1220,59
465,66	1261,55
465,86	1222,64
466,07	1374,19
466,27	1282,03
466,47	1275,88
466,68	1282,03
466,88	1273,84
467,08	1234,93
467,29	1241,07
467,49	1288,17
467,69	1310,70
467,89	1271,79
468,10	1204,21
468,30	1308,65
468,50	1312,75
468,71	1306,60
468,91	1265,64
469,11	1333,23
469,31	1351,66
469,52	1269,74
469,72	1257,45
469,92	1294,32
470,13	1300,46
470,33	1312,75
470,53	1259,50
470,73	1245,16
470,94	1304,56
471,14	1335,28
471,34	1290,22
471,54	1347,56
471,75	1296,36
471,95	1257,45
472,15	1230,83
472,36	1294,32
472,56	1277,93
472,76	1312,75
472,96	1257,45
473,17	1322,99
473,37	1265,64
473,57	1257,45
473,77	1312,75
473,98	1349,61
474,18	1322,99
474,38	1312,75
474,58	1269,74
474,79	1282,03
474,99	1288,17
475,19	1267,69
475,39	1241,07
475,60	1296,36
475,80	1267,69
476,00	1255,40
476,20	1318,89
476,41	1230,83
476,61	1265,64
476,81	1239,02
477,01	1241,07
477,21	1318,89
477,42	1322,99
477,62	1306,60
477,82	1253,36
478,02	1265,64
478,23	1312,75
478,43	1327,08
478,63	1241,07
478,83	1333,23
479,03	1222,64
479,24	1269,74
479,44	1284,08
479,64	1239,02
479,84	1228,78
480,04	1288,17
480,25	1302,51
480,45	1263,60
480,65	1294,32
480,85	1263,60
481,06	1302,51
481,26	1259,50
481,46	1308,65
481,66	1232,88
481,86	1316,84
482,06	1320,94
482,27	1292,27
482,47	1310,70
482,67	1298,41
482,87	1271,79
483,07	1265,64
483,28	1298,41
483,48	1318,89
483,68	1198,06
483,88	1232,88
484,08	1232,88
484,29	1267,69
484,49	1232,88
484,69	1222,64
484,89	1251,31
485,09	1271,79
485,29	1167,34
485,50	1273,84
485,70	1198,06
485,90	1279,98
486,10	1245,16
486,30	1259,50
486,50	1265,64
486,71	1290,22
486,91	1273,84
487,11	1239,02
487,31	1308,65
487,51	1345,52
487,71	1275,88
487,91	1171,44
488,12	1214,45
488,32	1347,56
488,52	1259,50
488,72	1273,84
488,92	1261,55
489,12	1271,79
489,32	1239,02
489,53	1306,60
489,73	1204,21
489,93	1290,22
490,13	1243,12
490,33	1286,12
490,53	1230,83
490,73	1292,27
490,94	1288,17
491,14	1222,64
491,34	1247,21
491,54	1220,59
491,74	1279,98
491,94	1247,21
492,14	1275,88
492,34	1314,80
492,54	1296,36
492,75	1267,69
492,95	1220,59
493,15	1284,08
493,35	1314,80
493,55	1308,65
493,75	1239,02
493,95	1245,16
494,15	1308,65
494,35	1241,07
494,56	1210,35
494,76	1282,03
494,96	1277,93
495,16	1271,79
495,36	1230,83
495,56	1251,31
495,76	1245,16
495,96	1259,50
496,16	1230,83
496,36	1357,80
496,56	1261,55
496,77	1257,45
496,97	1267,69
497,17	1312,75
497,37	1261,55
497,57	1331,18
497,77	1286,12
497,97	1241,07
498,17	1263,60
498,37	1314,80
498,57	1279,98
498,77	1277,93
498,97	1236,97
499,17	1353,71
499,38	1308,65
499,58	1228,78
499,78	1325,04
499,98	1226,73
500,18	1230,83
500,38	1224,69
500,58	1322,99
500,78	1255,40
500,98	1255,40
501,18	1253,36
501,38	1316,84
501,58	1341,42
501,78	1202,16
501,98	1275,88
502,18	1333,23
502,38	1220,59
502,58	1296,36
502,78	1259,50
502,98	1308,65
503,18	1218,54
503,38	1290,22
503,59	1267,69
503,79	1294,32
503,99	1279,98
504,19	1259,50
504,39	1259,50
504,59	1296,36
504,79	1239,02
504,99	1290,22
505,19	1232,88
505,39	1308,65
505,59	1273,84
505,79	1224,69
505,99	1296,36
506,19	1271,79
506,39	1345,52
506,59	1300,46
506,79	1239,02
506,99	1290,22
507,19	1273,84
507,39	1290,22
507,59	1257,45
507,79	1296,36
507,99	1206,25
508,19	1294,32
508,39	1249,26
508,59	1236,97
508,79	1316,84
508,99	1310,70
509,19	1279,98
509,39	1286,12
509,59	1245,16
509,79	1218,54
509,99	1359,85
510,19	1351,66
510,39	1300,46
510,59	1253,36
510,79	1310,70
510,99	1259,50
511,19	1220,59
511,39	1251,31
511,59	1296,36
511,79	1298,41
511,99	1308,65
512,19	1267,69
512,38	1294,32
512,58	1255,40
512,78	1279,98
512,98	1228,78
513,18	1273,84
513,38	1263,60
513,58	1318,89
513,78	1214,45
513,98	1208,30
514,18	1243,12
514,38	1302,51
514,58	1226,73
514,78	1325,04
514,98	1322,99
515,18	1294,32
515,38	1286,12
515,58	1259,50
515,78	1249,26
515,98	1341,42
516,18	1329,13
516,38	1331,18
516,57	1290,22
516,77	1277,93
516,97	1290,22
517,17	1232,88
517,37	1290,22
517,57	1259,50
517,77	1198,06
517,97	1314,80
518,17	1304,56
518,37	1288,17
518,57	1187,82
518,77	1255,40
518,97	1277,93
519,16	1212,40
519,36	1253,36
519,56	1284,08
519,76	1253,36
519,96	1314,80
520,16	1265,64
520,36	1214,45
520,56	1263,60
520,76	1239,02
520,96	1304,56
521,16	1261,55
521,35	1325,04
521,55	1255,40
521,75	1300,46
521,95	1230,83
522,15	1300,46
522,35	1267,69
522,55	1263,60
522,75	1292,27
522,95	1251,31
523,14	1277,93
523,34	1226,73
523,54	1290,22
523,74	1366,00
523,94	1300,46
524,14	1239,02
524,34	1271,79
524,54	1304,56
524,73	1222,64
524,93	1202,16
525,13	1320,94
525,33	1316,84
525,53	1316,84
525,73	1265,64
525,93	1214,45
526,13	1290,22
526,32	1282,03
526,52	1263,60
526,72	1282,03
526,92	1257,45
527,12	1370,09
527,32	1290,22
527,52	1222,64
527,71	1277,93
527,91	1316,84
528,11	1320,94
528,31	1376,24
528,51	1265,64
528,71	1310,70
528,90	1259,50
529,10	1239,02
529,30	1345,52
529,50	1351,66
529,70	1306,60
529,90	1355,76
530,09	1347,56
530,29	1300,46
530,49	1243,12
530,69	1208,30
530,89	1239,02
531,09	1322,99
531,28	1341,42
531,48	1273,84
531,68	1273,84
531,88	1282,03
532,08	1286,12
532,28	1261,55
532,47	1337,32
532,67	1265,64
532,87	1255,40
533,07	1261,55
533,27	1251,31
533,46	1370,09
533,66	1339,37
533,86	1265,64
534,06	1226,73
534,26	1296,36
534,45	1322,99
534,65	1208,30
534,85	1288,17
535,05	1200,11
535,25	1312,75
535,44	1304,56
535,64	1257,45
535,84	1234,93
536,04	1239,02
536,24	1335,28
536,43	1253,36
536,63	1304,56
536,83	1212,40
537,03	1308,65
537,22	1263,60
537,42	1308,65
537,62	1300,46
537,82	1273,84
538,02	1300,46
538,21	1282,03
538,41	1282,03
538,61	1310,70
538,81	1241,07
539,00	1251,31
539,20	1269,74
539,40	1357,80
539,60	1273,84
539,79	1322,99
539,99	1286,12
540,19	1269,74
540,39	1312,75
540,58	1298,41
540,78	1329,13
540,98	1325,04
541,18	1308,65
541,37	1255,40
541,57	1294,32
541,77	1269,74
541,97	1247,21
542,16	1265,64
542,36	1347,56
542,56	1331,18
542,76	1245,16
542,95	1271,79
543,15	1298,41
543,35	1370,09
543,54	1325,04
543,74	1316,84
543,94	1177,58
544,14	1269,74
544,33	1222,64
544,53	1282,03
544,73	1279,98
544,93	1286,12
545,12	1159,15
545,32	1318,89
545,52	1279,98
545,71	1267,69
545,91	1249,26
546,11	1245,16
546,30	1282,03
546,50	1232,88
546,70	1282,03
546,90	1288,17
547,09	1218,54
547,29	1269,74
547,49	1251,31
547,68	1282,03
547,88	1234,93
548,08	1277,93
548,27	1263,60
548,47	1349,61
548,67	1296,36
548,87	1257,45
549,06	1239,02
549,26	1300,46
549,46	1404,91
549,65	1263,60
549,85	1310,70
550,05	1277,93
550,24	1267,69
550,44	1296,36
550,64	1298,41
550,83	1263,60
551,03	1286,12
551,23	1271,79
551,42	1304,56
551,62	1302,51
551,82	1247,21
552,01	1325,04
552,21	1202,16
552,41	1284,08
552,60	1282,03
552,80	1273,84
553,00	1294,32
553,19	1390,57
553,39	1288,17
553,59	1333,23
553,78	1273,84
553,98	1251,31
554,17	1290,22
554,37	1331,18
554,57	1310,70
554,76	1263,60
554,96	1316,84
555,16	1288,17
555,35	1275,88
555,55	1273,84
555,75	1308,65
555,94	1296,36
556,14	1314,80
556,33	1325,04
556,53	1355,76
556,73	1288,17
556,92	1331,18
557,12	1312,75
557,32	1318,89
557,51	1351,66
557,71	1273,84
557,90	1314,80
558,10	1335,28
558,30	1290,22
558,49	1339,37
558,69	1232,88
558,88	1214,45
559,08	1374,19
559,28	1282,03
559,47	1247,21
559,67	1275,88
559,86	1279,98
560,06	1230,83
560,26	1269,74
560,45	1310,70
560,65	1314,80
560,84	1212,40
561,04	1261,55
561,24	1230,83
561,43	1302,51
561,63	1310,70
561,82	1265,64
562,02	1265,64
562,22	1314,80
562,41	1302,51
562,61	1304,56
562,80	1208,30
563,00	1298,41
563,19	1271,79
563,39	1302,51
563,59	1306,60
563,78	1314,80
563,98	1284,08
564,17	1273,84
564,37	1263,60
564,56	1300,46
564,76	1257,45
564,96	1284,08
565,15	1267,69
565,35	1218,54
565,54	1298,41
565,74	1347,56
565,93	1255,40
566,13	1349,61
566,32	1302,51
566,52	1298,41
566,71	1288,17
566,91	1345,52
567,11	1202,16
567,30	1239,02
567,50	1288,17
567,69	1288,17
567,89	1226,73
568,08	1320,94
568,28	1257,45
568,47	1269,74
568,67	1304,56
568,86	1271,79
569,06	1355,76
569,25	1318,89
569,45	1243,12
569,64	1251,31
569,84	1269,74
570,04	1380,33
570,23	1261,55
570,43	1249,26
570,62	1265,64
570,82	1282,03
571,01	1234,93
571,21	1273,84
571,40	1165,29
571,60	1310,70
571,79	1286,12
571,99	1265,64
572,18	1288,17
572,38	1206,25
572,57	1220,59
572,77	1306,60
572,96	1294,32
573,16	1245,16
573,35	1298,41
573,55	1269,74
573,74	1265,64
573,94	1277,93
574,13	1294,32
574,33	1290,22
574,52	1300,46
574,71	1282,03
574,91	1302,51
575,10	1275,88
575,30	1306,60
575,49	1210,35
575,69	1275,88
575,88	1247,21
576,08	1259,50
576,27	1216,49
576,47	1327,08
576,66	1312,75
576,86	1308,65
577,05	1366,00
577,25	1288,17
577,44	1271,79
577,64	1279,98
577,83	1259,50
578,02	1329,13
578,22	1290,22
578,41	1277,93
578,61	1279,98
578,80	1284,08
579,00	1322,99
579,19	1251,31
579,39	1335,28
579,58	1304,56
579,77	1335,28
579,97	1322,99
580,16	1357,80
580,36	1263,60
580,55	1275,88
580,75	1232,88
580,94	1337,32
581,13	1245,16
581,33	1239,02
581,52	1255,40
581,72	1290,22
581,91	1345,52
582,11	1200,11
582,30	1327,08
582,49	1322,99
582,69	1314,80
582,88	1298,41
583,08	1257,45
583,27	1249,26
583,47	1230,83
583,66	1300,46
583,85	1396,71
584,05	1226,73
584,24	1273,84
584,44	1183,73
584,63	1310,70
584,82	1335,28
585,02	1302,51
585,21	1288,17
585,41	1236,97
585,60	1218,54
585,79	1234,93
585,99	1286,12
586,18	1290,22
586,37	1284,08
586,57	1337,32
586,76	1247,21
586,96	1253,36
587,15	1308,65
587,34	1355,76
587,54	1257,45
587,73	1302,51
587,93	1263,60
588,12	1288,17
588,31	1265,64
588,51	1318,89
588,70	1335,28
588,89	1282,03
589,09	1304,56
589,28	1355,76
589,47	1253,36
589,67	1226,73
589,86	1292,27
590,06	1259,50
590,25	1314,80
590,44	1279,98
590,64	1257,45
590,83	1347,56
591,02	1245,16
591,22	1282,03
591,41	1294,32
591,60	1316,84
591,80	1310,70
591,99	1290,22
592,18	1277,93
592,38	1370,09
592,57	1337,32
592,76	1331,18
592,96	1279,98
593,15	1320,94
593,34	1261,55
593,54	1255,40
593,73	1255,40
593,92	1294,32
594,12	1284,08
594,31	1304,56
594,50	1304,56
594,70	1230,83
594,89	1286,12
595,08	1312,75
595,28	1275,88
595,47	1296,36
595,66	1288,17
595,86	1310,70
596,05	1308,65
596,24	1257,45
596,43	1257,45
596,63	1320,94
596,82	1269,74
597,01	1325,04
597,21	1310,70
597,40	1228,78
597,59	1261,55
597,79	1245,16
597,98	1277,93
598,17	1253,36
598,36	1224,69
598,56	1314,80
598,75	1275,88
598,94	1279,98
599,14	1292,27
599,33	1327,08
599,52	1259,50
599,71	1296,36
599,91	1329,13
600,10	1269,74
600,29	1306,60
600,48	1273,84
600,68	1282,03
600,87	1226,73
601,06	1292,27
601,26	1316,84
601,45	1316,84
601,64	1322,99
601,83	1239,02
602,03	1331,18
602,22	1318,89
602,41	1329,13
602,60	1308,65
602,80	1314,80
602,99	1257,45
603,18	1247,21
603,37	1271,79
603,57	1232,88
603,76	1306,60
603,95	1273,84
604,14	1273,84
604,34	1298,41
604,53	1312,75
604,72	1284,08
604,91	1239,02
605,10	1353,71
605,30	1208,30
605,49	1214,45
605,68	1171,44
605,87	1286,12
606,07	1353,71
606,26	1296,36
606,45	1257,45
606,64	1300,46
606,84	1265,64
607,03	1310,70
607,22	1296,36
607,41	1296,36
607,60	1351,66
607,80	1253,36
607,99	1241,07
608,18	1343,47
608,37	1273,84
608,56	1277,93
608,76	1214,45
608,95	1329,13
609,14	1230,83
609,33	1261,55
609,52	1296,36
609,72	1302,51
609,91	1304,56
610,10	1300,46
610,29	1220,59
610,48	1228,78
610,68	1241,07
610,87	1298,41
611,06	1232,88
611,25	1300,46
611,44	1310,70
611,63	1249,26
611,83	1327,08
612,02	1210,35
612,21	1261,55
612,40	1296,36
612,59	1216,49
612,79	1259,50
612,98	1282,03
613,17	1236,97
613,36	1234,93
613,55	1294,32
613,74	1314,80
613,93	1265,64
614,13	1226,73
614,32	1218,54
614,51	1329,13
614,70	1304,56
614,89	1288,17
615,08	1322,99
615,28	1349,61
615,47	1265,64
615,66	1277,93
615,85	1308,65
616,04	1322,99
616,23	1312,75
616,42	1222,64
616,62	1325,04
616,81	1241,07
617,00	1320,94
617,19	1236,97
617,38	1300,46
617,57	1302,51
617,76	1224,69
617,95	1333,23
618,15	1306,60
618,34	1322,99
618,53	1310,70
618,72	1234,93
618,91	1271,79
619,10	1296,36
619,29	1273,84
619,48	1277,93
619,68	1290,22
619,87	1368,04
620,06	1277,93
620,25	1286,12
620,44	1249,26
620,63	1279,98
620,82	1243,12
621,01	1325,04
621,20	1282,03
621,39	1325,04
621,59	1292,27
621,78	1312,75
621,97	1290,22
622,16	1286,12
622,35	1259,50
622,54	1234,93
622,73	1241,07
622,92	1282,03
623,11	1245,16
623,30	1298,41
623,49	1339,37
623,68	1341,42
623,88	1277,93
624,07	1304,56
624,26	1220,59
624,45	1263,60
624,64	1200,11
624,83	1312,75
625,02	1292,27
625,21	1308,65
625,40	1279,98
625,59	1325,04
625,78	1265,64
625,97	1273,84
626,16	1273,84
626,35	1341,42
626,54	1316,84
626,74	1236,97
626,93	1286,12
627,12	1288,17
627,31	1234,93
627,50	1300,46
627,69	1359,85
627,88	1292,27
628,07	1359,85
628,26	1325,04
628,45	1220,59
628,64	1322,99
628,83	1277,93
629,02	1296,36
629,21	1325,04
629,40	1288,17
629,59	1329,13
629,78	1279,98
629,97	1314,80
630,16	1271,79
630,35	1363,95
630,54	1333,23
630,73	1300,46
630,92	1294,32
631,11	1333,23
631,30	1320,94
631,49	1345,52
631,68	1433,58
631,87	2439,13
632,06	5515,18
632,25	8767,35
632,44	16303,88
632,63	27545,18
632,82	41944,45
633,01	33977,85
633,20	13784,88
633,39	6193,06
633,58	3971,01
633,77	3131,34
633,96	2731,99
634,15	2412,51
634,34	2121,70
634,53	2123,74
634,72	1980,39
634,91	1748,97
635,10	1765,35
635,29	1781,73
635,48	1716,20
635,67	1740,77
635,86	1587,18
636,05	1595,37
636,24	1511,40
636,43	1462,25
636,62	1456,11
636,81	1411,05
637,00	1460,20
637,19	1392,62
637,38	1402,86
637,57	1329,13
637,76	1402,86
637,95	1374,19
638,14	1372,14
638,33	1325,04
638,52	1284,08
638,71	1333,23
638,89	1320,94
639,08	1316,84
639,27	1292,27
639,46	1320,94
639,65	1359,85
639,84	1288,17
640,03	1259,50
640,22	1312,75
640,41	1327,08
640,60	1290,22
640,79	1249,26
640,98	1298,41
641,17	1345,52
641,36	1275,88
641,55	1314,80
641,74	1345,52
641,92	1337,32
642,11	1271,79
642,30	1257,45
642,49	1265,64
642,68	1279,98
642,87	1265,64
643,06	1304,56
643,25	1247,21
643,44	1314,80
643,63	1284,08
643,82	1306,60
644,00	1298,41
644,19	1200,11
644,38	1286,12
644,57	1263,60
644,76	1232,88
644,95	1243,12
645,14	1314,80
645,33	1290,22
645,52	1259,50
645,71	1275,88
645,89	1230,83
646,08	1288,17
646,27	1220,59
646,46	1318,89
646,65	1359,85
646,84	1339,37
647,03	1220,59
647,22	1343,47
647,40	1232,88
647,59	1359,85
647,78	1329,13
647,97	1265,64
648,16	1251,31
648,35	1206,25
648,54	1208,30
648,73	1183,73
648,91	1294,32
649,10	1273,84
649,29	1316,84
649,48	1271,79
649,67	1273,84
649,86	1198,06
650,05	1218,54
650,23	1331,18
650,42	1284,08
650,61	1226,73
650,80	1249,26
650,99	1269,74
651,18	1331,18
651,36	1294,32
651,55	1316,84
651,74	1236,97
651,93	1265,64
652,12	1314,80
652,31	1249,26
652,49	1282,03
652,68	1357,80
652,87	1206,25
653,06	1224,69
653,25	1304,56
653,44	1257,45
653,62	1236,97
653,81	1298,41
654,00	1306,60
654,19	1249,26
654,38	1290,22
654,56	1255,40
654,75	1263,60
654,94	1273,84
655,13	1304,56
655,32	1255,40
655,51	1304,56
655,69	1269,74
655,88	1208,30
656,07	1304,56
656,26	1279,98
656,45	1337,32
656,63	1226,73
656,82	1322,99
657,01	1286,12
657,20	1249,26
657,38	1331,18
657,57	1253,36
657,76	1177,58
657,95	1284,08
658,14	1239,02
658,32	1230,83
658,51	1234,93
658,70	1312,75
658,89	1224,69
659,08	1255,40
659,26	1322,99
659,45	1236,97
659,64	1290,22
659,83	1245,16
660,01	1257,45
660,20	1294,32
660,39	1202,16
660,58	1155,05
660,76	1245,16
660,95	1200,11
661,14	1318,89
661,33	1239,02
661,51	1216,49
661,70	1294,32
661,89	1265,64
662,08	1228,78
662,26	1279,98
662,45	1286,12
662,64	1288,17
662,83	1208,30
663,01	1273,84
663,20	1273,84
663,39	1284,08
663,58	1370,09
663,76	1232,88
663,95	1198,06
664,14	1247,21
664,32	1249,26
664,51	1269,74
664,70	1249,26
664,89	1325,04
665,07	1253,36
665,26	1290,22
665,45	1224,69
665,64	1220,59
665,82	1296,36
666,01	1222,64
666,20	1245,16
666,38	1273,84
666,57	1302,51
666,76	1339,37
666,95	1329,13
667,13	1208,30
667,32	1296,36
667,51	1261,55
667,69	1241,07
667,88	1255,40
668,07	1292,27
668,25	1298,41
668,44	1193,97
668,63	1277,93
668,81	1284,08
669,00	1265,64
669,19	1279,98
669,38	1245,16
669,56	1224,69
669,75	1320,94
669,94	1214,45
670,12	1282,03
670,31	1329,13
670,50	1329,13
670,68	1273,84
670,87	1335,28
671,06	1206,25
671,24	1245,16
671,43	1241,07
671,62	1271,79
671,80	1277,93
671,99	1214,45
672,18	1247,21
672,36	1320,94
672,55	1279,98
672,74	1273,84
672,92	1218,54
673,11	1304,56
673,29	1204,21
673,48	1300,46
673,67	1261,55
673,85	1314,80
674,04	1329,13
674,23	1298,41
674,41	1300,46
674,60	1239,02
674,79	1304,56
674,97	1302,51
675,16	1312,75
675,34	1286,12
675,53	1306,60
675,72	1234,93
675,90	1331,18
676,09	1263,60
676,28	1249,26
676,46	1308,65
676,65	1302,51
676,83	1282,03
677,02	1279,98
677,21	1288,17
677,39	1273,84
677,58	1277,93
677,77	1279,98
677,95	1222,64
678,14	1259,50
678,32	1279,98
678,51	1306,60
678,70	1263,60
678,88	1236,97
679,07	1306,60
679,25	1273,84
679,44	1275,88
679,63	1294,32
679,81	1232,88
680,00	1241,07
680,18	1243,12
680,37	1279,98
680,55	1304,56
680,74	1320,94
680,93	1327,08
681,11	1325,04
681,30	1269,74
681,48	1282,03
681,67	1294,32
681,85	1216,49
682,04	1286,12
682,23	1292,27
682,41	1292,27
682,60	1241,07
682,78	1239,02
682,97	1257,45
683,15	1255,40
683,34	1290,22
683,53	1177,58
683,71	1316,84
683,90	1282,03
684,08	1253,36
684,27	1333,23
684,45	1243,12
684,64	1265,64
684,82	1300,46
685,01	1304,56
685,19	1247,21
685,38	1339,37
685,57	1284,08
685,75	1347,56
685,94	1253,36
686,12	1279,98
686,31	1271,79
686,49	1355,76
686,68	1327,08
686,86	1279,98
687,05	1210,35
687,23	1282,03
687,42	1292,27
687,60	1253,36
687,79	1255,40
687,97	1275,88
688,16	1302,51
688,34	1249,26
688,53	1202,16
688,71	1241,07
688,90	1243,12
689,08	1312,75
689,27	1210,35
689,45	1322,99
689,64	1245,16
689,82	1267,69
690,01	1216,49
690,19	1220,59
690,38	1306,60
690,56	1222,64
690,75	1239,02
690,93	1157,10
691,12	1302,51
691,30	1302,51
691,49	1253,36
691,67	1298,41
691,86	1214,45
692,04	1302,51
692,23	1290,22
692,41	1241,07
692,60	1329,13
692,78	1339,37
692,97	1308,65
693,15	1220,59
693,34	1212,40
693,52	1320,94
693,71	1243,12
693,89	1322,99
694,08	1253,36
694,26	1265,64
694,44	1279,98
694,63	1193,97
694,81	1296,36
695,00	1234,93
695,18	1228,78
695,37	1327,08
695,55	1251,31
695,74	1204,21
695,92	1279,98
696,10	1257,45
696,29	1374,19
696,47	1230,83
696,66	1241,07
696,84	1239,02
697,03	1261,55
697,21	1200,11
697,40	1312,75
697,58	1273,84
697,76	1226,73
697,95	1279,98
698,13	1222,64
698,32	1253,36
698,50	1269,74
698,68	1216,49
698,87	1269,74
699,05	1292,27
699,24	1335,28
699,42	1292,27
699,61	1273,84
699,79	1239,02
699,97	1302,51
700,16	1282,03
700,34	1316,84
700,53	1279,98
700,71	1306,60
700,89	1288,17
701,08	1208,30
701,26	1261,55
701,45	1298,41
701,63	1327,08
701,81	1351,66
702,00	1306,60
702,18	1306,60
702,37	1267,69
702,55	1286,12
702,73	1255,40
702,92	1255,40
703,10	1269,74
703,28	1269,74
703,47	1292,27
703,65	1316,84
703,84	1255,40
704,02	1329,13
704,20	1214,45
704,39	1290,22
704,57	1382,38
704,75	1214,45
704,94	1275,88
705,12	1282,03
705,30	1257,45
705,49	1318,89
705,67	1306,60
705,86	1345,52
706,04	1316,84
706,22	1269,74
706,41	1318,89
706,59	1236,97
706,77	1277,93
706,96	1269,74
707,14	1302,51
707,32	1265,64
707,51	1230,83
707,69	1288,17
707,87	1243,12
708,06	1310,70
708,24	1353,71
708,42	1222,64
708,61	1230,83
708,79	1261,55
708,97	1300,46
709,16	1263,60
709,34	1265,64
709,52	1247,21
709,71	1265,64
709,89	1261,55
710,07	1241,07
710,26	1245,16
710,44	1277,93
710,62	1257,45
710,80	1298,41
710,99	1249,26
711,17	1306,60
711,35	1320,94
711,54	1208,30
711,72	1318,89
711,90	1230,83
712,09	1251,31
712,27	1265,64
712,45	1230,83
712,63	1251,31
712,82	1286,12
713,00	1271,79
713,18	1261,55
713,37	1277,93
713,55	1273,84
713,73	1204,21
713,91	1298,41
714,10	1236,97
714,28	1210,35
714,46	1249,26
714,65	1247,21
714,83	1277,93
715,01	1218,54
715,19	1239,02
715,38	1228,78
715,56	1175,53
715,74	1273,84
715,92	1335,28
716,11	1286,12
716,29	1271,79
716,47	1308,65
716,65	1269,74
716,84	1279,98
717,02	1296,36
717,20	1204,21
717,38	1224,69
717,57	1286,12
717,75	1232,88
717,93	1224,69
718,11	1253,36
718,30	1236,97
718,48	1337,32
718,66	1265,64
718,84	1249,26
719,03	1312,75
719,21	1282,03
719,39	1253,36
719,57	1255,40
719,75	1298,41
719,94	1251,31
720,12	1263,60
720,30	1269,74
720,48	1206,25
720,67	1208,30
720,85	1257,45
721,03	1302,51
721,21	1277,93
721,39	1355,76
721,58	1265,64
721,76	1290,22
721,94	1327,08
722,12	1265,64
722,30	1306,60
722,49	1255,40
722,67	1327,08
722,85	1279,98
723,03	1302,51
723,21	1230,83
723,40	1163,25
723,58	1331,18
723,76	1273,84
723,94	1286,12
724,12	1298,41
724,30	1333,23
724,49	1234,93
724,67	1275,88
724,85	1243,12
725,03	1298,41
725,21	1284,08
725,40	1310,70
725,58	1300,46
725,76	1263,60
725,94	1257,45
726,12	1236,97
726,30	1267,69
726,49	1175,53
726,67	1314,80
726,85	1245,16
727,03	1239,02
727,21	1296,36
727,39	1275,88
727,57	1265,64
727,76	1345,52
727,94	1306,60
728,12	1210,35
728,30	1251,31
728,48	1251,31
728,66	1241,07
728,84	1259,50
729,03	1363,95
729,21	1241,07
729,39	1265,64
729,57	1312,75
729,75	1232,88
729,93	1259,50
730,11	1294,32
730,30	1243,12
730,48	1255,40
730,66	1343,47
730,84	1275,88
731,02	1300,46
731,20	1232,88
731,38	1284,08
731,56	1204,21
731,74	1269,74
731,93	1314,80
732,11	1275,88
732,29	1263,60
732,47	1257,45
732,65	1306,60
732,83	1277,93
733,01	1239,02
733,19	1187,82
733,37	1298,41
733,56	1239,02
733,74	1292,27
733,92	1314,80
734,10	1230,83
734,28	1279,98
734,46	1210,35
734,64	1228,78
734,82	1273,84
735,00	1261,55
735,18	1300,46
735,36	1288,17
735,54	1284,08
735,73	1236,97
735,91	1273,84
736,09	1189,87
736,27	1282,03
736,45	1329,13
736,63	1265,64
736,81	1308,65
736,99	1263,60
737,17	1253,36
737,35	1275,88
737,53	1234,93
737,71	1273,84
737,89	1220,59
738,07	1374,19
738,25	1239,02
738,43	1222,64
738,61	1247,21
738,80	1296,36
738,98	1230,83
739,16	1286,12
739,34	1228,78
739,52	1294,32
739,70	1290,22
739,88	1306,60
740,06	1243,12
740,24	1359,85
740,42	1214,45
740,60	1232,88
740,78	1191,92
740,96	1249,26
741,14	1279,98
741,32	1249,26
741,50	1234,93
741,68	1208,30
741,86	1325,04
742,04	1304,56
742,22	1208,30
742,40	1265,64
742,58	1275,88
742,76	1263,60
742,94	1255,40
743,12	1196,01
743,30	1296,36
743,48	1312,75
743,66	1275,88
743,84	1259,50
744,02	1347,56
744,20	1279,98
744,38	1247,21
744,56	1273,84
744,74	1275,88
744,92	1214,45
745,10	1263,60
745,28	1282,03
745,46	1263,60
745,64	1282,03
745,82	1269,74
746,00	1290,22
746,18	1284,08
746,36	1255,40
746,54	1314,80
746,72	1204,21
746,90	1288,17
747,08	1275,88
747,26	1251,31
747,44	1279,98
747,62	1257,45
747,80	1273,84
747,98	1263,60
748,15	1343,47
748,33	1234,93
748,51	1298,41
748,69	1277,93
748,87	1269,74
749,05	1288,17
749,23	1288,17
749,41	1247,21
749,59	1247,21
749,77	1275,88
749,95	1255,40
750,13	1277,93
750,31	1277,93
750,49	1220,59
750,67	1288,17
750,85	1253,36
751,03	1294,32
751,20	1269,74
751,38	1277,93
751,56	1296,36
751,74	1247,21
751,92	1269,74
752,10	1259,50
752,28	1232,88
752,46	1224,69
752,64	1263,60
752,82	1249,26
753,00	1228,78
753,18	1290,22
753,35	1222,64
753,53	1310,70
753,71	1261,55
753,89	1273,84
754,07	1343,47
754,25	1296,36
754,43	1279,98
754,61	1337,32
754,79	1224,69
754,97	1228,78
755,14	1310,70
755,32	1335,28
755,50	1277,93
755,68	1277,93
755,86	1304,56
756,04	1286,12
756,22	1226,73
756,40	1265,64
756,57	1249,26
756,75	1200,11
756,93	1239,02
757,11	1296,36
757,29	1232,88
757,47	1241,07
757,65	1234,93
757,82	1316,84
758,00	1318,89
758,18	1239,02
758,36	1226,73
758,54	1228,78
758,72	1265,64
758,90	1259,50
759,07	1275,88
759,25	1261,55
759,43	1284,08
759,61	1241,07
759,79	1226,73
759,97	1243,12
760,15	1269,74
760,32	1263,60
760,50	1200,11
760,68	1230,83
760,86	1255,40
761,04	1269,74
761,22	1372,14
761,39	1296,36
761,57	1282,03
761,75	1277,93
761,93	1269,74
762,11	1253,36
762,28	1333,23
762,46	1228,78
762,64	1325,04
762,82	1368,04
763,00	1294,32
763,18	1335,28
763,35	1339,37
763,53	1228,78
763,71	1208,30
763,89	1232,88
764,07	1353,71
764,24	1265,64
764,42	1165,29
764,60	1273,84
764,78	1273,84
764,96	1265,64
765,13	1234,93
765,31	1228,78
765,49	1279,98
765,67	1314,80
765,84	1286,12
766,02	1271,79
766,20	1228,78
766,38	1214,45
766,56	1314,80
766,73	1224,69
766,91	1290,22
767,09	1298,41
767,27	1271,79
767,44	1308,65
767,62	1234,93
767,80	1236,97
767,98	1314,80
768,15	1290,22
768,33	1216,49
768,51	1228,78
768,69	1247,21
768,87	1216,49
769,04	1277,93
769,22	1277,93
769,40	1269,74
769,58	1349,61
769,75	1202,16
769,93	1343,47
770,11	1298,41
770,28	1255,40
770,46	1351,66
770,64	1314,80
770,82	1269,74
770,99	1302,51
771,17	1269,74
771,35	1255,40
771,53	1249,26
771,70	1353,71
771,88	1226,73
772,06	1259,50
772,23	1259,50
772,41	1312,75
772,59	1214,45
772,77	1247,21
772,94	1282,03
773,12	1312,75
773,30	1329,13
773,47	1263,60
773,65	1304,56
773,83	1224,69
774,01	1286,12
774,18	1263,60
774,36	1247,21
774,54	1298,41
774,71	1224,69
774,89	1269,74
775,07	1236,97
775,24	1290,22
775,42	1232,88
775,60	1271,79
775,78	1210,35
775,95	1273,84
776,13	1212,40
776,31	1232,88
776,48	1308,65
776,66	1232,88
776,84	1296,36
777,01	1251,31
777,19	1310,70
777,37	1277,93
777,54	1282,03
777,72	1296,36
777,90	1214,45
778,07	1245,16
778,25	1320,94
778,43	1294,32
778,60	1302,51
778,78	1198,06
778,96	1286,12
779,13	1224,69
779,31	1267,69
779,49	1249,26
779,66	1253,36
779,84	1316,84
780,01	1173,49
780,19	1259,50
780,37	1196,01
780,54	1271,79
780,72	1261,55
780,90	1253,36
781,07	1249,26
781,25	1243,12
781,43	1261,55
781,60	1322,99
781,78	1343,47
781,95	1232,88
782,13	1232,88
782,31	1310,70
782,48	1232,88
782,66	1288,17
782,83	1271,79
783,01	1261,55
783,19	1200,11
783,36	1261,55
783,54	1255,40
783,72	1196,01
783,89	1310,70
784,07	1214,45
784,24	1308,65
784,42	1329,13
784,60	1279,98
784,77	1312,75
784,95	1212,40
785,12	1275,88
785,30	1263,60
785,47	1314,80
785,65	1366,00
785,83	1218,54
786,00	1286,12
786,18	1193,97
786,35	1245,16
786,53	1224,69
786,71	1214,45
786,88	1300,46
787,06	1226,73
787,23	1294,32
787,41	1243,12
787,58	1251,31
787,76	1196,01
787,94	1275,88
788,11	1245,16
788,29	1298,41
788,46	1222,64
788,64	1286,12
788,81	1298,41
788,99	1314,80
789,16	1277,93
789,34	1241,07
789,52	1251,31
789,69	1310,70
789,87	1239,02
790,04	1269,74
790,22	1255,40
790,39	1286,12
790,57	1226,73
790,74	1306,60
790,92	1232,88
791,09	1140,72
791,27	1239,02
791,44	1257,45
791,62	1249,26
791,79	1241,07
791,97	1261,55
792,15	1380,33
792,32	1273,84
792,50	1228,78
792,67	1298,41
792,85	1269,74
793,02	1292,27
793,20	1284,08
793,37	1271,79
793,55	1292,27
793,72	1261,55
793,90	1329,13
794,07	1282,03
794,25	1290,22
794,42	1224,69
794,60	1243,12
794,77	1218,54
794,95	1245,16
795,12	1216,49
795,30	1216,49
795,47	1271,79
795,65	1265,64
795,82	1279,98
796,00	1247,21
796,17	1226,73
796,34	1286,12
796,52	1265,64
796,69	1263,60
796,87	1273,84
797,04	1322,99
797,22	1284,08
797,39	1220,59
797,57	1245,16
797,74	1304,56
797,92	1261,55
798,09	1294,32
798,27	1306,60
798,44	1312,75
798,62	1212,40
798,79	1298,41
798,96	1282,03
799,14	1241,07
799,31	1226,73
799,49	1241,07
799,66	1230,83
799,84	1191,92
800,01	1198,06
800,19	1298,41
800,36	1265,64
800,53	1325,04
800,71	1253,36
800,88	1273,84
801,06	1259,50
801,23	1343,47
801,41	1241,07
801,58	1306,60
801,75	1202,16
801,93	1208,30
802,10	1243,12
802,28	1228,78
802,45	1224,69
802,63	1206,25
802,80	1290,22
802,97	1234,93
803,15	1286,12
803,32	1204,21
803,50	1241,07
803,67	1218,54
803,84	1228,78
804,02	1292,27
804,19	1284,08
804,37	1282,03
804,54	1220,59
804,71	1329,13
804,89	1292,27
805,06	1294,32
805,24	1198,06
805,41	1241,07
805,58	1230,83
805,76	1247,21
805,93	1282,03
806,10	1347,56
806,28	1335,28
806,45	1257,45
806,63	1206,25
806,80	1282,03
806,97	1224,69
807,15	1273,84
807,32	1273,84
807,49	1284,08
807,67	1282,03
807,84	1290,22
808,01	1302,51
808,19	1255,40
808,36	1259,50
808,54	1298,41
808,71	1269,74
808,88	1267,69
809,06	1302,51
809,23	1263,60
809,40	1236,97
809,58	1333,23
809,75	1347,56
809,92	1249,26
810,10	1343,47
810,27	1249,26
810,44	1282,03
810,62	1273,84
810,79	1329,13
810,96	1210,35
811,14	1241,07
811,31	1230,83
811,48	1282,03
811,66	1228,78
811,83	1271,79
812,00	1243,12
812,18	1245,16
812,35	1232,88
812,52	1259,50
812,69	1263,60
812,87	1261,55
813,04	1269,74
813,21	1234,93
813,39	1257,45
813,56	1220,59
813,73	1239,02
813,91	1304,56
814,08	1312,75
814,25	1294,32
814,42	1271,79
814,60	1257,45
814,77	1239,02
814,94	1282,03
815,12	1282,03
815,29	1290,22
815,46	1224,69
815,63	1241,07
815,81	1316,84
815,98	1296,36
816,15	1189,87
816,33	1312,75
816,50	1243,12
816,67	1247,21
816,84	1282,03
817,02	1232,88
817,19	1263,60
817,36	1304,56
817,53	1249,26
817,71	1232,88
817,88	1296,36
818,05	1208,30
818,22	1292,27
818,40	1251,31
818,57	1310,70
818,74	1279,98
818,91	1325,04
819,09	1220,59
819,26	1345,52
819,43	1290,22
819,60	1200,11
819,78	1263,60
819,95	1298,41
820,12	1243,12
820,29	1279,98
820,47	1202,16
820,64	1230,83
820,81	1310,70
820,98	1224,69
821,15	1146,86
821,33	1198,06
821,50	1304,56
821,67	1236,97
821,84	1214,45
822,02	1220,59
822,19	1345,52
822,36	1236,97
822,53	1275,88
822,70	1288,17
822,88	1277,93
823,05	1239,02
823,22	1298,41
823,39	1212,40
823,56	1282,03
823,74	1275,88
823,91	1257,45
824,08	1241,07
824,25	1243,12
824,42	1292,27
824,60	1310,70
824,77	1314,80
824,94	1265,64
825,11	1329,13
825,28	1312,75
825,45	1222,64
825,63	1253,36
825,80	1302,51
825,97	1286,12
826,14	1294,32
826,31	1189,87
826,48	1288,17
826,66	1189,87
826,83	1241,07
827,00	1286,12
827,17	1349,61
827,34	1212,40
827,51	1265,64
827,69	1273,84
827,86	1271,79
828,03	1261,55
828,20	1269,74
828,37	1232,88
828,54	1267,69
828,71	1337,32
828,89	1306,60
829,06	1239,02
829,23	1286,12
829,40	1220,59
829,57	1279,98
829,74	1179,63
829,91	1253,36
830,09	1263,60
830,26	1353,71
830,43	1284,08
830,60	1269,74
830,77	1290,22
830,94	1335,28
831,11	1202,16
831,28	1298,41
831,46	1200,11
831,63	1337,32
831,80	1343,47
831,97	1239,02
832,14	1300,46
832,31	1216,49
832,48	1320,94
832,65	1290,22
832,82	1226,73
832,99	1306,60
833,17	1273,84
833,34	1267,69
833,51	1259,50
833,68	1277,93
833,85	1257,45
834,02	1261,55
834,19	1259,50
834,36	1239,02
834,53	1339,37
834,70	1247,21
834,87	1296,36
835,04	1269,74
835,22	1261,55
835,39	1286,12
835,56	1236,97
835,73	1277,93
835,90	1292,27
836,07	1263,60
836,24	1200,11
836,41	1277,93
836,58	1265,64
836,75	1269,74
836,92	1294,32
837,09	1257,45
837,26	1232,88
837,43	1372,14
837,60	1208,30
837,77	1247,21
837,94	1257,45
838,12	1222,64
838,29	1290,22
838,46	1230,83
838,63	1302,51
838,80	1296,36
838,97	1296,36
839,14	1257,45
839,31	1322,99
839,48	1183,73
839,65	1290,22
839,82	1277,93
839,99	1306,60
840,16	1239,02
840,33	1345,52
840,50	1243,12
840,67	1308,65
840,84	1302,51
841,01	1255,40
841,18	1243,12
841,35	1259,50
841,52	1286,12
841,69	1314,80
841,86	1208,30
842,03	1296,36
842,20	1277,93
842,37	1243,12
842,54	1255,40
842,71	1257,45
842,88	1230,83
843,05	1294,32
843,22	1212,40
843,39	1245,16
843,56	1175,53
843,73	1302,51
843,90	1279,98
844,07	1249,26
844,24	1253,36
844,41	1320,94
844,58	1292,27
844,75	1226,73
844,92	1220,59
845,09	1200,11
845,26	1310,70
845,43	1300,46
845,60	1279,98
845,77	1234,93
845,94	1335,28
846,10	1257,45
846,27	1241,07
846,44	1300,46
846,61	1259,50
846,78	1302,51
846,95	1183,73
847,12	1294,32
847,29	1159,15
847,46	1294,32
847,63	1251,31
847,80	1234,93
847,97	1214,45
848,14	1310,70
848,31	1269,74
848,48	1245,16
848,65	1259,50
848,82	1284,08
848,98	1243,12
849,15	1304,56
849,32	1263,60
849,49	1273,84
849,66	1308,65
849,83	1224,69
850,00	1337,32
850,17	1275,88
850,34	1259,50
850,51	1302,51
850,68	1322,99
850,85	1292,27
851,01	1271,79
851,18	1220,59
851,35	1275,88
851,52	1198,06
851,69	1306,60
851,86	1245,16
852,03	1300,46
852,20	1333,23
852,37	1300,46
852,53	1212,40
852,70	1265,64
852,87	1216,49
853,04	1339,37
853,21	1306,60
853,38	1290,22
853,55	1325,04
853,72	1263,60
853,89	1224,69
854,05	1239,02
854,22	1239,02
854,39	1230,83
854,56	1261,55
854,73	1271,79
854,90	1224,69
855,07	1329,13
855,23	1318,89
855,40	1234,93
855,57	1282,03
855,74	1331,18
855,91	1318,89
856,08	1331,18
856,25	1267,69
856,41	1282,03
856,58	1265,64
856,75	1261,55
856,92	1232,88
857,09	1265,64
857,26	1214,45
857,42	1271,79
857,59	1296,36
857,76	1284,08
857,93	1294,32
858,10	1236,97
858,27	1314,80
858,43	1277,93
858,60	1261,55
858,77	1239,02
858,94	1279,98
859,11	1261,55
859,27	1267,69
859,44	1208,30
859,61	1241,07
859,78	1302,51
859,95	1327,08
860,12	1275,88
860,28	1279,98
860,45	1290,22
860,62	1243,12
860,79	1290,22
860,95	1290,22
861,12	1212,40
861,29	1314,80
861,46	1243,12
861,63	1318,89
861,79	1261,55
861,96	1261,55
862,13	1296,36
862,30	1269,74
862,47	1288,17
862,63	1290,22
862,80	1282,03
862,97	1230,83
863,14	1245,16
863,30	1269,74
863,47	1210,35
863,64	1245,16
863,81	1284,08
863,97	1304,56
864,14	1241,07
864,31	1249,26
864,48	1251,31
864,65	1236,97
864,81	1294,32
864,98	1228,78
865,15	1220,59
865,32	1271,79
865,48	1257,45
865,65	1267,69
865,82	1298,41
865,98	1261,55
866,15	1265,64
866,32	1265,64
866,49	1241,07
866,65	1366,00
866,82	1275,88
866,99	1304,56
867,16	1204,21
867,32	1259,50
867,49	1339,37
867,66	1300,46
867,83	1200,11
867,99	1241,07
868,16	1259,50
868,33	1241,07
868,49	1275,88
868,66	1214,45
868,83	1269,74
868,99	1306,60
869,16	1247,21
869,33	1218,54
869,50	1263,60
869,66	1222,64
869,83	1339,37
870,00	1308,65
870,16	1308,65
870,33	1286,12
870,50	1290,22
870,66	1294,32
870,83	1351,66
871,00	1275,88
871,17	1224,69
871,33	1312,75
871,50	1312,75
871,67	1259,50
871,83	1277,93
872,00	1275,88
872,17	1228,78
872,33	1267,69
872,50	1277,93
872,67	1267,69
872,83	1255,40
873,00	1251,31
873,17	1308,65
873,33	1288,17
873,50	1265,64
873,67	1247,21
873,83	1288,17
874,00	1234,93
874,16	1345,52
874,33	1241,07
874,50	1226,73
874,66	1294,32
874,83	1277,93
875,00	1222,64
875,16	1275,88
875,33	1253,36
875,50	1216,49
875,66	1226,73
875,83	1290,22
875,99	1288,17
876,16	1263,60
876,33	1210,35
876,49	1335,28
876,66	1290,22
876,83	1249,26
876,99	1261,55
877,16	1216,49
877,32	1392,62
877,49	1251,31
877,66	1245,16
877,82	1185,77
877,99	1329,13
878,15	1216,49
878,32	1239,02
878,49	1310,70
878,65	1353,71
878,82	1255,40
878,98	1314,80
879,15	1259,50
879,32	1277,93
879,48	1263,60
879,65	1322,99
879,81	1251,31
879,98	1214,45
880,15	1320,94
880,31	1273,84
880,48	1255,40
880,64	1224,69
880,81	1259,50
880,97	1288,17
881,14	1253,36
881,31	1298,41
881,47	1273,84
881,64	1226,73
881,80	1232,88
881,97	1243,12
882,13	1247,21
882,30	1241,07
882,47	1206,25
882,63	1243,12
882,80	1198,06
882,96	1230,83
883,13	1277,93
883,29	1308,65
883,46	1249,26
883,62	1308,65
883,79	1228,78
883,95	1177,58
884,12	1234,93
884,29	1279,98
884,45	1144,81
884,62	1302,51
884,78	1259,50
884,95	1335,28
885,11	1294,32
885,28	1282,03
885,44	1265,64
885,61	1191,92
885,77	1322,99
885,94	1300,46
886,10	1232,88
886,27	1263,60
886,43	1279,98
886,60	1230,83
886,76	1243,12
886,93	1255,40
887,09	1202,16
887,26	1329,13
887,42	1210,35
887,59	1302,51
887,75	1251,31
887,92	1294,32
888,08	1345,52
888,25	1265,64
888,41	1320,94
888,58	1232,88
888,74	1277,93
888,91	1228,78
>>>>>End Processed Spectral Data<<<<<
