SpectraSuite Data File
++++++++++++++++++++++++++++++++++++
Date: Sun Apr 03 19:55:39 CEST 2016
User: root
Dark Spectrum Present: No
Reference Spectrum Present: No
Number of Sampled Component Spectra: 1
Spectrometers: USB4C02835
Integration Time (usec): 10000 (USB4C02835)
Spectra Averaged: 1 (USB4C02835)
Boxcar Smoothing: 0 (USB4C02835)
Correct for Electrical Dark: No (USB4C02835)
Strobe/Lamp Enabled: No (USB4C02835)
Correct for Detector Non-linearity: No (USB4C02835)
Correct for Stray Light: No (USB4C02835)
Number of Pixels in Processed Spectrum: 3648
>>>>>Begin Processed Spectral Data<<<<<
177,47	1220,59
177,69	1220,59
177,91	1220,59
178,13	1261,55
178,36	1308,65
178,58	1212,40
178,80	1267,69
179,02	1259,50
179,24	1255,40
179,46	1290,22
179,68	1306,60
179,90	1206,25
180,13	1279,98
180,35	1273,84
180,57	1267,69
180,79	1273,84
181,01	1247,21
181,23	1210,35
181,45	1257,45
181,67	1275,88
181,90	1263,60
182,12	1241,07
182,34	1290,22
182,56	1173,49
182,78	1277,93
183,00	1204,21
183,22	1243,12
183,44	1243,12
183,66	1284,08
183,89	1247,21
184,11	1234,93
184,33	1249,26
184,55	1300,46
184,77	1288,17
184,99	1288,17
185,21	1228,78
185,43	1251,31
185,65	1265,64
185,87	1261,55
186,10	1327,08
186,32	1292,27
186,54	1251,31
186,76	1239,02
186,98	1177,58
187,20	1259,50
187,42	1185,77
187,64	1251,31
187,86	1241,07
188,08	1357,80
188,30	1298,41
188,52	1294,32
188,75	1269,74
188,97	1263,60
189,19	1261,55
189,41	1265,64
189,63	1353,71
189,85	1257,45
190,07	1241,07
190,29	1224,69
190,51	1261,55
190,73	1200,11
190,95	1286,12
191,17	1333,23
191,39	1271,79
191,61	1214,45
191,84	1265,64
192,06	1234,93
192,28	1271,79
192,50	1263,60
192,72	1306,60
192,94	1320,94
193,16	1368,04
193,38	1265,64
193,60	1302,51
193,82	1228,78
194,04	1259,50
194,26	1265,64
194,48	1232,88
194,70	1247,21
194,92	1228,78
195,14	1247,21
195,36	1282,03
195,58	1257,45
195,80	1243,12
196,02	1226,73
196,24	1212,40
196,46	1349,61
196,69	1345,52
196,91	1308,65
197,13	1267,69
197,35	1290,22
197,57	1263,60
197,79	1265,64
198,01	1243,12
198,23	1257,45
198,45	1220,59
198,67	1310,70
198,89	1290,22
199,11	1247,21
199,33	1273,84
199,55	1245,16
199,77	1302,51
199,99	1279,98
200,21	1253,36
200,43	1269,74
200,65	1279,98
200,87	1255,40
201,09	1310,70
201,31	1249,26
201,53	1294,32
201,75	1191,92
201,97	1304,56
202,19	1318,89
202,41	1294,32
202,63	1234,93
202,85	1239,02
203,07	1239,02
203,29	1275,88
203,51	1316,84
203,73	1290,22
203,95	1222,64
204,17	1224,69
204,39	1288,17
204,61	1163,25
204,83	1265,64
205,05	1232,88
205,27	1265,64
205,49	1300,46
205,71	1187,82
205,93	1257,45
206,15	1255,40
206,37	1288,17
206,59	1286,12
206,81	1286,12
207,03	1265,64
207,25	1269,74
207,47	1271,79
207,69	1228,78
207,91	1277,93
208,13	1241,07
208,34	1253,36
208,56	1249,26
208,78	1302,51
209,00	1282,03
209,22	1284,08
209,44	1277,93
209,66	1300,46
209,88	1247,21
210,10	1290,22
210,32	1312,75
210,54	1228,78
210,76	1261,55
210,98	1320,94
211,20	1271,79
211,42	1265,64
211,64	1318,89
211,86	1241,07
212,08	1288,17
212,30	1232,88
212,52	1224,69
212,74	1267,69
212,96	1284,08
213,17	1241,07
213,39	1234,93
213,61	1239,02
213,83	1247,21
214,05	1333,23
214,27	1271,79
214,49	1284,08
214,71	1243,12
214,93	1331,18
215,15	1245,16
215,37	1255,40
215,59	1306,60
215,81	1308,65
216,03	1290,22
216,24	1236,97
216,46	1228,78
216,68	1257,45
216,90	1296,36
217,12	1314,80
217,34	1275,88
217,56	1292,27
217,78	1277,93
218,00	1368,04
218,22	1239,02
218,44	1302,51
218,66	1277,93
218,87	1286,12
219,09	1312,75
219,31	1331,18
219,53	1310,70
219,75	1296,36
219,97	1257,45
220,19	1232,88
220,41	1282,03
220,63	1263,60
220,85	1275,88
221,06	1308,65
221,28	1204,21
221,50	1298,41
221,72	1306,60
221,94	1261,55
222,16	1236,97
222,38	1355,76
222,60	1265,64
222,82	1277,93
223,03	1247,21
223,25	1247,21
223,47	1265,64
223,69	1288,17
223,91	1273,84
224,13	1271,79
224,35	1265,64
224,57	1257,45
224,78	1318,89
225,00	1282,03
225,22	1228,78
225,44	1228,78
225,66	1320,94
225,88	1232,88
226,10	1294,32
226,32	1286,12
226,53	1279,98
226,75	1243,12
226,97	1282,03
227,19	1288,17
227,41	1300,46
227,63	1224,69
227,85	1282,03
228,06	1288,17
228,28	1345,52
228,50	1277,93
228,72	1241,07
228,94	1306,60
229,16	1288,17
229,37	1296,36
229,59	1204,21
229,81	1288,17
230,03	1294,32
230,25	1241,07
230,47	1265,64
230,69	1322,99
230,90	1277,93
231,12	1249,26
231,34	1277,93
231,56	1210,35
231,78	1218,54
232,00	1198,06
232,21	1263,60
232,43	1298,41
232,65	1191,92
232,87	1288,17
233,09	1294,32
233,30	1325,04
233,52	1325,04
233,74	1251,31
233,96	1267,69
234,18	1279,98
234,40	1288,17
234,61	1259,50
234,83	1273,84
235,05	1247,21
235,27	1288,17
235,49	1263,60
235,70	1249,26
235,92	1286,12
236,14	1286,12
236,36	1296,36
236,58	1204,21
236,79	1271,79
237,01	1302,51
237,23	1214,45
237,45	1284,08
237,67	1290,22
237,88	1234,93
238,10	1267,69
238,32	1216,49
238,54	1249,26
238,76	1314,80
238,97	1259,50
239,19	1234,93
239,41	1255,40
239,63	1273,84
239,85	1239,02
240,06	1187,82
240,28	1271,79
240,50	1292,27
240,72	1366,00
240,93	1228,78
241,15	1226,73
241,37	1255,40
241,59	1263,60
241,81	1294,32
242,02	1302,51
242,24	1193,97
242,46	1241,07
242,68	1327,08
242,89	1263,60
243,11	1226,73
243,33	1296,36
243,55	1247,21
243,76	1222,64
243,98	1331,18
244,20	1308,65
244,42	1208,30
244,64	1282,03
244,85	1236,97
245,07	1245,16
245,29	1267,69
245,51	1245,16
245,72	1234,93
245,94	1224,69
246,16	1294,32
246,38	1253,36
246,59	1370,09
246,81	1304,56
247,03	1325,04
247,24	1339,37
247,46	1298,41
247,68	1345,52
247,90	1241,07
248,11	1230,83
248,33	1216,49
248,55	1241,07
248,77	1245,16
248,98	1312,75
249,20	1279,98
249,42	1331,18
249,64	1241,07
249,85	1296,36
250,07	1337,32
250,29	1284,08
250,50	1257,45
250,72	1183,73
250,94	1247,21
251,16	1339,37
251,37	1288,17
251,59	1308,65
251,81	1220,59
252,02	1241,07
252,24	1316,84
252,46	1296,36
252,68	1236,97
252,89	1296,36
253,11	1279,98
253,33	1267,69
253,54	1249,26
253,76	1230,83
253,98	1239,02
254,20	1273,84
254,41	1210,35
254,63	1257,45
254,85	1259,50
255,06	1269,74
255,28	1298,41
255,50	1222,64
255,71	1294,32
255,93	1253,36
256,15	1251,31
256,36	1288,17
256,58	1308,65
256,80	1232,88
257,02	1316,84
257,23	1263,60
257,45	1243,12
257,67	1263,60
257,88	1243,12
258,10	1269,74
258,32	1234,93
258,53	1249,26
258,75	1226,73
258,97	1314,80
259,18	1271,79
259,40	1286,12
259,62	1279,98
259,83	1226,73
260,05	1269,74
260,27	1245,16
260,48	1282,03
260,70	1337,32
260,92	1273,84
261,13	1208,30
261,35	1251,31
261,57	1196,01
261,78	1267,69
262,00	1286,12
262,22	1202,16
262,43	1202,16
262,65	1308,65
262,86	1290,22
263,08	1226,73
263,30	1320,94
263,51	1277,93
263,73	1232,88
263,95	1282,03
264,16	1298,41
264,38	1310,70
264,60	1273,84
264,81	1271,79
265,03	1329,13
265,25	1241,07
265,46	1263,60
265,68	1322,99
265,89	1310,70
266,11	1210,35
266,33	1277,93
266,54	1253,36
266,76	1257,45
266,98	1257,45
267,19	1282,03
267,41	1306,60
267,62	1259,50
267,84	1249,26
268,06	1308,65
268,27	1277,93
268,49	1284,08
268,70	1169,39
268,92	1222,64
269,14	1224,69
269,35	1249,26
269,57	1312,75
269,79	1257,45
270,00	1206,25
270,22	1257,45
270,43	1282,03
270,65	1251,31
270,87	1310,70
271,08	1302,51
271,30	1251,31
271,51	1277,93
271,73	1282,03
271,95	1267,69
272,16	1355,76
272,38	1206,25
272,59	1202,16
272,81	1312,75
273,02	1261,55
273,24	1290,22
273,46	1304,56
273,67	1366,00
273,89	1288,17
274,10	1286,12
274,32	1277,93
274,54	1247,21
274,75	1218,54
274,97	1292,27
275,18	1314,80
275,40	1196,01
275,61	1308,65
275,83	1273,84
276,05	1247,21
276,26	1363,95
276,48	1298,41
276,69	1214,45
276,91	1228,78
277,12	1259,50
277,34	1241,07
277,55	1306,60
277,77	1261,55
277,99	1249,26
278,20	1325,04
278,42	1298,41
278,63	1191,92
278,85	1288,17
279,06	1292,27
279,28	1308,65
279,49	1296,36
279,71	1312,75
279,93	1263,60
280,14	1329,13
280,36	1243,12
280,57	1249,26
280,79	1232,88
281,00	1296,36
281,22	1275,88
281,43	1296,36
281,65	1265,64
281,86	1204,21
282,08	1220,59
282,29	1296,36
282,51	1279,98
282,73	1239,02
282,94	1226,73
283,16	1202,16
283,37	1259,50
283,59	1253,36
283,80	1300,46
284,02	1214,45
284,23	1267,69
284,45	1294,32
284,66	1255,40
284,88	1234,93
285,09	1298,41
285,31	1277,93
285,52	1241,07
285,74	1343,47
285,95	1282,03
286,17	1314,80
286,38	1279,98
286,60	1265,64
286,81	1267,69
287,03	1298,41
287,24	1286,12
287,46	1269,74
287,67	1257,45
287,89	1337,32
288,10	1277,93
288,32	1245,16
288,53	1239,02
288,75	1230,83
288,96	1249,26
289,18	1339,37
289,39	1277,93
289,61	1296,36
289,82	1284,08
290,04	1296,36
290,25	1308,65
290,47	1269,74
290,68	1302,51
290,90	1241,07
291,11	1292,27
291,33	1220,59
291,54	1263,60
291,76	1269,74
291,97	1282,03
292,18	1318,89
292,40	1257,45
292,61	1253,36
292,83	1286,12
293,04	1339,37
293,26	1226,73
293,47	1282,03
293,69	1236,97
293,90	1263,60
294,12	1296,36
294,33	1204,21
294,55	1267,69
294,76	1261,55
294,97	1265,64
295,19	1257,45
295,40	1251,31
295,62	1282,03
295,83	1243,12
296,05	1241,07
296,26	1216,49
296,48	1243,12
296,69	1271,79
296,90	1284,08
297,12	1241,07
297,33	1204,21
297,55	1208,30
297,76	1277,93
297,98	1239,02
298,19	1282,03
298,41	1236,97
298,62	1318,89
298,83	1236,97
299,05	1314,80
299,26	1343,47
299,48	1255,40
299,69	1245,16
299,90	1249,26
300,12	1232,88
300,33	1228,78
300,55	1304,56
300,76	1282,03
300,98	1230,83
301,19	1275,88
301,40	1277,93
301,62	1269,74
301,83	1265,64
302,05	1259,50
302,26	1308,65
302,47	1249,26
302,69	1308,65
302,90	1234,93
303,12	1146,86
303,33	1378,28
303,54	1249,26
303,76	1259,50
303,97	1320,94
304,19	1255,40
304,40	1228,78
304,61	1202,16
304,83	1300,46
305,04	1249,26
305,26	1255,40
305,47	1226,73
305,68	1277,93
305,90	1310,70
306,11	1249,26
306,33	1183,73
306,54	1269,74
306,75	1298,41
306,97	1282,03
307,18	1304,56
307,39	1304,56
307,61	1331,18
307,82	1261,55
308,04	1304,56
308,25	1304,56
308,46	1282,03
308,68	1302,51
308,89	1286,12
309,10	1224,69
309,32	1288,17
309,53	1282,03
309,74	1314,80
309,96	1228,78
310,17	1306,60
310,39	1224,69
310,60	1286,12
310,81	1312,75
311,03	1222,64
311,24	1175,53
311,45	1288,17
311,67	1259,50
311,88	1230,83
312,09	1265,64
312,31	1327,08
312,52	1337,32
312,73	1282,03
312,95	1314,80
313,16	1253,36
313,37	1253,36
313,59	1318,89
313,80	1374,19
314,01	1265,64
314,23	1273,84
314,44	1284,08
314,65	1206,25
314,87	1282,03
315,08	1265,64
315,29	1259,50
315,51	1228,78
315,72	1232,88
315,93	1220,59
316,15	1253,36
316,36	1234,93
316,57	1296,36
316,79	1228,78
317,00	1212,40
317,21	1286,12
317,43	1251,31
317,64	1275,88
317,85	1257,45
318,07	1226,73
318,28	1198,06
318,49	1257,45
318,70	1320,94
318,92	1239,02
319,13	1310,70
319,34	1249,26
319,56	1261,55
319,77	1269,74
319,98	1337,32
320,20	1249,26
320,41	1241,07
320,62	1292,27
320,83	1230,83
321,05	1296,36
321,26	1322,99
321,47	1259,50
321,69	1273,84
321,90	1267,69
322,11	1218,54
322,32	1279,98
322,54	1241,07
322,75	1282,03
322,96	1273,84
323,18	1255,40
323,39	1261,55
323,60	1277,93
323,81	1302,51
324,03	1269,74
324,24	1267,69
324,45	1372,14
324,66	1279,98
324,88	1325,04
325,09	1208,30
325,30	1261,55
325,52	1208,30
325,73	1292,27
325,94	1310,70
326,15	1257,45
326,37	1288,17
326,58	1304,56
326,79	1345,52
327,00	1228,78
327,22	1216,49
327,43	1273,84
327,64	1249,26
327,85	1255,40
328,07	1314,80
328,28	1243,12
328,49	1239,02
328,70	1306,60
328,92	1279,98
329,13	1279,98
329,34	1239,02
329,55	1265,64
329,76	1216,49
329,98	1271,79
330,19	1284,08
330,40	1265,64
330,61	1267,69
330,83	1220,59
331,04	1212,40
331,25	1394,67
331,46	1273,84
331,68	1255,40
331,89	1275,88
332,10	1214,45
332,31	1273,84
332,52	1243,12
332,74	1288,17
332,95	1302,51
333,16	1275,88
333,37	1232,88
333,58	1236,97
333,80	1265,64
334,01	1275,88
334,22	1247,21
334,43	1241,07
334,64	1214,45
334,86	1265,64
335,07	1210,35
335,28	1216,49
335,49	1296,36
335,70	1259,50
335,92	1220,59
336,13	1269,74
336,34	1245,16
336,55	1208,30
336,76	1320,94
336,98	1282,03
337,19	1239,02
337,40	1210,35
337,61	1253,36
337,82	1275,88
338,04	1271,79
338,25	1292,27
338,46	1345,52
338,67	1296,36
338,88	1249,26
339,09	1241,07
339,31	1284,08
339,52	1279,98
339,73	1292,27
339,94	1277,93
340,15	1220,59
340,36	1239,02
340,58	1251,31
340,79	1193,97
341,00	1257,45
341,21	1339,37
341,42	1247,21
341,63	1288,17
341,85	1271,79
342,06	1271,79
342,27	1318,89
342,48	1269,74
342,69	1251,31
342,90	1247,21
343,12	1216,49
343,33	1259,50
343,54	1193,97
343,75	1267,69
343,96	1234,93
344,17	1271,79
344,38	1208,30
344,60	1257,45
344,81	1331,18
345,02	1302,51
345,23	1288,17
345,44	1198,06
345,65	1226,73
345,86	1263,60
346,07	1185,77
346,29	1359,85
346,50	1247,21
346,71	1282,03
346,92	1249,26
347,13	1265,64
347,34	1263,60
347,55	1216,49
347,76	1212,40
347,98	1263,60
348,19	1269,74
348,40	1236,97
348,61	1267,69
348,82	1277,93
349,03	1218,54
349,24	1298,41
349,45	1257,45
349,66	1251,31
349,88	1316,84
350,09	1253,36
350,30	1277,93
350,51	1269,74
350,72	1232,88
350,93	1314,80
351,14	1255,40
351,35	1288,17
351,56	1230,83
351,77	1292,27
351,99	1265,64
352,20	1239,02
352,41	1279,98
352,62	1243,12
352,83	1298,41
353,04	1239,02
353,25	1241,07
353,46	1290,22
353,67	1279,98
353,88	1341,42
354,09	1239,02
354,30	1277,93
354,52	1261,55
354,73	1241,07
354,94	1241,07
355,15	1241,07
355,36	1284,08
355,57	1232,88
355,78	1210,35
355,99	1230,83
356,20	1247,21
356,41	1351,66
356,62	1175,53
356,83	1228,78
357,04	1306,60
357,25	1275,88
357,46	1275,88
357,68	1290,22
357,89	1196,01
358,10	1320,94
358,31	1265,64
358,52	1218,54
358,73	1273,84
358,94	1269,74
359,15	1263,60
359,36	1249,26
359,57	1273,84
359,78	1286,12
359,99	1294,32
360,20	1189,87
360,41	1226,73
360,62	1253,36
360,83	1239,02
361,04	1196,01
361,25	1239,02
361,46	1267,69
361,67	1210,35
361,88	1339,37
362,09	1279,98
362,30	1259,50
362,51	1298,41
362,72	1292,27
362,93	1279,98
363,14	1294,32
363,35	1273,84
363,56	1279,98
363,78	1265,64
363,99	1239,02
364,20	1290,22
364,41	1265,64
364,62	1216,49
364,83	1275,88
365,04	1275,88
365,25	1245,16
365,46	1282,03
365,67	1239,02
365,88	1267,69
366,09	1335,28
366,30	1206,25
366,51	1310,70
366,72	1222,64
366,93	1208,30
367,14	1191,92
367,35	1298,41
367,56	1304,56
367,77	1204,21
367,98	1226,73
368,18	1298,41
368,39	1220,59
368,60	1222,64
368,81	1284,08
369,02	1181,68
369,23	1282,03
369,44	1298,41
369,65	1300,46
369,86	1255,40
370,07	1298,41
370,28	1216,49
370,49	1255,40
370,70	1331,18
370,91	1302,51
371,12	1257,45
371,33	1294,32
371,54	1282,03
371,75	1257,45
371,96	1193,97
372,17	1304,56
372,38	1241,07
372,59	1333,23
372,80	1269,74
373,01	1302,51
373,22	1236,97
373,43	1243,12
373,64	1218,54
373,85	1208,30
374,06	1261,55
374,26	1322,99
374,47	1290,22
374,68	1216,49
374,89	1284,08
375,10	1273,84
375,31	1239,02
375,52	1294,32
375,73	1320,94
375,94	1269,74
376,15	1286,12
376,36	1261,55
376,57	1304,56
376,78	1275,88
376,99	1339,37
377,20	1220,59
377,40	1214,45
377,61	1273,84
377,82	1282,03
378,03	1265,64
378,24	1210,35
378,45	1316,84
378,66	1349,61
378,87	1275,88
379,08	1273,84
379,29	1253,36
379,50	1298,41
379,71	1163,25
379,91	1286,12
380,12	1243,12
380,33	1339,37
380,54	1198,06
380,75	1294,32
380,96	1230,83
381,17	1269,74
381,38	1277,93
381,59	1277,93
381,80	1253,36
382,00	1322,99
382,21	1286,12
382,42	1216,49
382,63	1243,12
382,84	1273,84
383,05	1236,97
383,26	1261,55
383,47	1255,40
383,68	1304,56
383,88	1275,88
384,09	1261,55
384,30	1261,55
384,51	1290,22
384,72	1247,21
384,93	1306,60
385,14	1265,64
385,35	1251,31
385,55	1277,93
385,76	1263,60
385,97	1236,97
386,18	1288,17
386,39	1271,79
386,60	1298,41
386,81	1314,80
387,02	1208,30
387,22	1206,25
387,43	1314,80
387,64	1316,84
387,85	1310,70
388,06	1243,12
388,27	1204,21
388,48	1230,83
388,68	1302,51
388,89	1277,93
389,10	1224,69
389,31	1284,08
389,52	1269,74
389,73	1271,79
389,93	1306,60
390,14	1322,99
390,35	1245,16
390,56	1302,51
390,77	1259,50
390,98	1263,60
391,18	1224,69
391,39	1265,64
391,60	1273,84
391,81	1198,06
392,02	1271,79
392,23	1228,78
392,43	1302,51
392,64	1208,30
392,85	1230,83
393,06	1275,88
393,27	1345,52
393,47	1306,60
393,68	1320,94
393,89	1271,79
394,10	1191,92
394,31	1245,16
394,52	1282,03
394,72	1230,83
394,93	1318,89
395,14	1335,28
395,35	1284,08
395,56	1286,12
395,76	1236,97
395,97	1167,34
396,18	1204,21
396,39	1333,23
396,60	1261,55
396,80	1230,83
397,01	1329,13
397,22	1261,55
397,43	1232,88
397,64	1226,73
397,84	1263,60
398,05	1327,08
398,26	1282,03
398,47	1261,55
398,67	1191,92
398,88	1247,21
399,09	1300,46
399,30	1218,54
399,51	1302,51
399,71	1279,98
399,92	1279,98
400,13	1234,93
400,34	1273,84
400,54	1224,69
400,75	1310,70
400,96	1300,46
401,17	1232,88
401,37	1273,84
401,58	1265,64
401,79	1333,23
402,00	1310,70
402,21	1275,88
402,41	1279,98
402,62	1300,46
402,83	1273,84
403,04	1308,65
403,24	1341,42
403,45	1226,73
403,66	1253,36
403,87	1228,78
404,07	1282,03
404,28	1282,03
404,49	1302,51
404,70	1216,49
404,90	1255,40
405,11	1310,70
405,32	1302,51
405,52	1204,21
405,73	1232,88
405,94	1265,64
406,15	1247,21
406,35	1255,40
406,56	1228,78
406,77	1300,46
406,98	1245,16
407,18	1216,49
407,39	1282,03
407,60	1245,16
407,80	1247,21
408,01	1230,83
408,22	1288,17
408,43	1288,17
408,63	1236,97
408,84	1279,98
409,05	1228,78
409,25	1304,56
409,46	1251,31
409,67	1173,49
409,88	1263,60
410,08	1331,18
410,29	1216,49
410,50	1251,31
410,70	1265,64
410,91	1275,88
411,12	1282,03
411,32	1345,52
411,53	1212,40
411,74	1318,89
411,95	1277,93
412,15	1277,93
412,36	1277,93
412,57	1253,36
412,77	1298,41
412,98	1243,12
413,19	1288,17
413,39	1251,31
413,60	1265,64
413,81	1226,73
414,01	1204,21
414,22	1220,59
414,43	1318,89
414,63	1298,41
414,84	1206,25
415,05	1282,03
415,25	1236,97
415,46	1251,31
415,67	1247,21
415,87	1337,32
416,08	1165,29
416,29	1236,97
416,49	1275,88
416,70	1216,49
416,91	1198,06
417,11	1298,41
417,32	1273,84
417,53	1230,83
417,73	1279,98
417,94	1257,45
418,15	1329,13
418,35	1259,50
418,56	1236,97
418,77	1286,12
418,97	1241,07
419,18	1277,93
419,38	1232,88
419,59	1279,98
419,80	1241,07
420,00	1269,74
420,21	1306,60
420,42	1312,75
420,62	1288,17
420,83	1239,02
421,04	1325,04
421,24	1320,94
421,45	1306,60
421,65	1206,25
421,86	1228,78
422,07	1290,22
422,27	1234,93
422,48	1216,49
422,69	1230,83
422,89	1269,74
423,10	1333,23
423,30	1167,34
423,51	1312,75
423,72	1232,88
423,92	1228,78
424,13	1218,54
424,33	1253,36
424,54	1302,51
424,75	1263,60
424,95	1179,63
425,16	1257,45
425,36	1232,88
425,57	1263,60
425,78	1271,79
425,98	1322,99
426,19	1230,83
426,39	1298,41
426,60	1298,41
426,81	1224,69
427,01	1329,13
427,22	1294,32
427,42	1200,11
427,63	1279,98
427,83	1275,88
428,04	1284,08
428,25	1257,45
428,45	1337,32
428,66	1302,51
428,86	1173,49
429,07	1294,32
429,28	1361,90
429,48	1265,64
429,69	1241,07
429,89	1267,69
430,10	1269,74
430,30	1216,49
430,51	1269,74
430,71	1200,11
430,92	1376,24
431,13	1318,89
431,33	1279,98
431,54	1312,75
431,74	1275,88
431,95	1343,47
432,15	1368,04
432,36	1261,55
432,56	1191,92
432,77	1245,16
432,98	1222,64
433,18	1277,93
433,39	1329,13
433,59	1298,41
433,80	1298,41
434,00	1286,12
434,21	1277,93
434,41	1302,51
434,62	1196,01
434,82	1239,02
435,03	1228,78
435,23	1288,17
435,44	1257,45
435,64	1269,74
435,85	1273,84
436,06	1286,12
436,26	1275,88
436,47	1267,69
436,67	1316,84
436,88	1302,51
437,08	1308,65
437,29	1222,64
437,49	1277,93
437,70	1292,27
437,90	1286,12
438,11	1279,98
438,31	1247,21
438,52	1230,83
438,72	1265,64
438,93	1271,79
439,13	1255,40
439,34	1269,74
439,54	1308,65
439,75	1218,54
439,95	1286,12
440,16	1202,16
440,36	1286,12
440,57	1320,94
440,77	1282,03
440,98	1331,18
441,18	1296,36
441,39	1286,12
441,59	1220,59
441,80	1257,45
442,00	1290,22
442,21	1200,11
442,41	1316,84
442,62	1265,64
442,82	1257,45
443,02	1290,22
443,23	1286,12
443,43	1255,40
443,64	1185,77
443,84	1251,31
444,05	1320,94
444,25	1349,61
444,46	1341,42
444,66	1296,36
444,87	1279,98
445,07	1261,55
445,28	1347,56
445,48	1269,74
445,69	1251,31
445,89	1261,55
446,09	1292,27
446,30	1290,22
446,50	1204,21
446,71	1243,12
446,91	1320,94
447,12	1271,79
447,32	1325,04
447,53	1322,99
447,73	1241,07
447,93	1271,79
448,14	1273,84
448,34	1245,16
448,55	1241,07
448,75	1347,56
448,96	1265,64
449,16	1290,22
449,36	1372,14
449,57	1234,93
449,77	1216,49
449,98	1310,70
450,18	1279,98
450,39	1230,83
450,59	1263,60
450,79	1261,55
451,00	1265,64
451,20	1273,84
451,41	1226,73
451,61	1220,59
451,81	1236,97
452,02	1349,61
452,22	1251,31
452,43	1247,21
452,63	1279,98
452,84	1302,51
453,04	1255,40
453,24	1273,84
453,45	1288,17
453,65	1288,17
453,86	1294,32
454,06	1263,60
454,26	1292,27
454,47	1277,93
454,67	1228,78
454,87	1273,84
455,08	1298,41
455,28	1277,93
455,49	1267,69
455,69	1269,74
455,89	1249,26
456,10	1284,08
456,30	1247,21
456,51	1320,94
456,71	1302,51
456,91	1316,84
457,12	1284,08
457,32	1279,98
457,52	1265,64
457,73	1259,50
457,93	1308,65
458,14	1255,40
458,34	1206,25
458,54	1267,69
458,75	1298,41
458,95	1257,45
459,15	1247,21
459,36	1320,94
459,56	1187,82
459,76	1284,08
459,97	1290,22
460,17	1253,36
460,37	1263,60
460,58	1265,64
460,78	1329,13
460,99	1279,98
461,19	1308,65
461,39	1202,16
461,60	1290,22
461,80	1222,64
462,00	1251,31
462,21	1234,93
462,41	1335,28
462,61	1269,74
462,82	1255,40
463,02	1216,49
463,22	1288,17
463,43	1271,79
463,63	1257,45
463,83	1212,40
464,04	1312,75
464,24	1302,51
464,44	1304,56
464,64	1259,50
464,85	1327,08
465,05	1239,02
465,25	1370,09
465,46	1267,69
465,66	1351,66
465,86	1232,88
466,07	1200,11
466,27	1257,45
466,47	1241,07
466,68	1292,27
466,88	1263,60
467,08	1271,79
467,29	1220,59
467,49	1263,60
467,69	1243,12
467,89	1277,93
468,10	1292,27
468,30	1298,41
468,50	1312,75
468,71	1263,60
468,91	1284,08
469,11	1333,23
469,31	1200,11
469,52	1230,83
469,72	1308,65
469,92	1259,50
470,13	1314,80
470,33	1236,97
470,53	1224,69
470,73	1279,98
470,94	1259,50
471,14	1273,84
471,34	1335,28
471,54	1253,36
471,75	1298,41
471,95	1253,36
472,15	1183,73
472,36	1257,45
472,56	1206,25
472,76	1333,23
472,96	1265,64
473,17	1322,99
473,37	1245,16
473,57	1261,55
473,77	1302,51
473,98	1327,08
474,18	1257,45
474,38	1294,32
474,58	1298,41
474,79	1296,36
474,99	1339,37
475,19	1206,25
475,39	1224,69
475,60	1286,12
475,80	1275,88
476,00	1185,77
476,20	1378,28
476,41	1306,60
476,61	1275,88
476,81	1196,01
477,01	1241,07
477,21	1257,45
477,42	1329,13
477,62	1314,80
477,82	1300,46
478,02	1148,91
478,23	1236,97
478,43	1239,02
478,63	1232,88
478,83	1251,31
479,03	1290,22
479,24	1251,31
479,44	1245,16
479,64	1245,16
479,84	1277,93
480,04	1271,79
480,25	1249,26
480,45	1286,12
480,65	1193,97
480,85	1263,60
481,06	1284,08
481,26	1279,98
481,46	1267,69
481,66	1312,75
481,86	1322,99
482,06	1234,93
482,27	1257,45
482,47	1247,21
482,67	1218,54
482,87	1251,31
483,07	1273,84
483,28	1290,22
483,48	1220,59
483,68	1226,73
483,88	1185,77
484,08	1271,79
484,29	1230,83
484,49	1322,99
484,69	1306,60
484,89	1267,69
485,09	1357,80
485,29	1228,78
485,50	1232,88
485,70	1327,08
485,90	1249,26
486,10	1222,64
486,30	1263,60
486,50	1245,16
486,71	1284,08
486,91	1306,60
487,11	1325,04
487,31	1279,98
487,51	1265,64
487,71	1196,01
487,91	1331,18
488,12	1296,36
488,32	1271,79
488,52	1257,45
488,72	1230,83
488,92	1298,41
489,12	1265,64
489,32	1265,64
489,53	1241,07
489,73	1249,26
489,93	1335,28
490,13	1380,33
490,33	1249,26
490,53	1224,69
490,73	1255,40
490,94	1347,56
491,14	1249,26
491,34	1228,78
491,54	1241,07
491,74	1284,08
491,94	1279,98
492,14	1263,60
492,34	1320,94
492,54	1277,93
492,75	1306,60
492,95	1282,03
493,15	1247,21
493,35	1251,31
493,55	1255,40
493,75	1302,51
493,95	1269,74
494,15	1290,22
494,35	1308,65
494,56	1298,41
494,76	1308,65
494,96	1372,14
495,16	1271,79
495,36	1247,21
495,56	1292,27
495,76	1241,07
495,96	1239,02
496,16	1253,36
496,36	1296,36
496,56	1265,64
496,77	1273,84
496,97	1304,56
497,17	1206,25
497,37	1292,27
497,57	1372,14
497,77	1282,03
497,97	1245,16
498,17	1196,01
498,37	1318,89
498,57	1279,98
498,77	1243,12
498,97	1263,60
499,17	1296,36
499,38	1298,41
499,58	1288,17
499,78	1239,02
499,98	1335,28
500,18	1179,63
500,38	1310,70
500,58	1216,49
500,78	1216,49
500,98	1275,88
501,18	1230,83
501,38	1275,88
501,58	1314,80
501,78	1196,01
501,98	1290,22
502,18	1290,22
502,38	1337,32
502,58	1257,45
502,78	1253,36
502,98	1302,51
503,18	1284,08
503,38	1245,16
503,59	1228,78
503,79	1249,26
503,99	1249,26
504,19	1269,74
504,39	1288,17
504,59	1310,70
504,79	1269,74
504,99	1275,88
505,19	1167,34
505,39	1333,23
505,59	1267,69
505,79	1261,55
505,99	1331,18
506,19	1271,79
506,39	1296,36
506,59	1234,93
506,79	1255,40
506,99	1249,26
507,19	1300,46
507,39	1230,83
507,59	1228,78
507,79	1347,56
507,99	1243,12
508,19	1251,31
508,39	1331,18
508,59	1220,59
508,79	1257,45
508,99	1241,07
509,19	1275,88
509,39	1236,97
509,59	1310,70
509,79	1304,56
509,99	1329,13
510,19	1310,70
510,39	1310,70
510,59	1222,64
510,79	1275,88
510,99	1359,85
511,19	1325,04
511,39	1282,03
511,59	1345,52
511,79	1318,89
511,99	1224,69
512,19	1318,89
512,38	1288,17
512,58	1273,84
512,78	1292,27
512,98	1257,45
513,18	1273,84
513,38	1333,23
513,58	1261,55
513,78	1310,70
513,98	1234,93
514,18	1275,88
514,38	1230,83
514,58	1306,60
514,78	1271,79
514,98	1329,13
515,18	1335,28
515,38	1265,64
515,58	1300,46
515,78	1275,88
515,98	1245,16
516,18	1308,65
516,38	1269,74
516,57	1316,84
516,77	1239,02
516,97	1247,21
517,17	1273,84
517,37	1306,60
517,57	1308,65
517,77	1222,64
517,97	1286,12
518,17	1284,08
518,37	1253,36
518,57	1239,02
518,77	1290,22
518,97	1196,01
519,16	1316,84
519,36	1269,74
519,56	1351,66
519,76	1259,50
519,96	1200,11
520,16	1253,36
520,36	1257,45
520,56	1294,32
520,76	1279,98
520,96	1279,98
521,16	1279,98
521,35	1310,70
521,55	1236,97
521,75	1339,37
521,95	1314,80
522,15	1267,69
522,35	1322,99
522,55	1279,98
522,75	1273,84
522,95	1241,07
523,14	1325,04
523,34	1273,84
523,54	1300,46
523,74	1322,99
523,94	1273,84
524,14	1359,85
524,34	1259,50
524,54	1243,12
524,73	1312,75
524,93	1310,70
525,13	1241,07
525,33	1230,83
525,53	1322,99
525,73	1269,74
525,93	1239,02
526,13	1161,20
526,32	1345,52
526,52	1318,89
526,72	1239,02
526,92	1290,22
527,12	1302,51
527,32	1277,93
527,52	1359,85
527,71	1255,40
527,91	1310,70
528,11	1236,97
528,31	1257,45
528,51	1282,03
528,71	1312,75
528,90	1339,37
529,10	1308,65
529,30	1286,12
529,50	1271,79
529,70	1204,21
529,90	1329,13
530,09	1286,12
530,29	1310,70
530,49	1241,07
530,69	1279,98
530,89	1241,07
531,09	1320,94
531,28	1265,64
531,48	1263,60
531,68	1245,16
531,88	1312,75
532,08	1310,70
532,28	1322,99
532,47	1300,46
532,67	1271,79
532,87	1263,60
533,07	1200,11
533,27	1224,69
533,46	1216,49
533,66	1247,21
533,86	1347,56
534,06	1275,88
534,26	1234,93
534,45	1249,26
534,65	1265,64
534,85	1210,35
535,05	1282,03
535,25	1288,17
535,44	1292,27
535,64	1275,88
535,84	1245,16
536,04	1253,36
536,24	1230,83
536,43	1335,28
536,63	1224,69
536,83	1267,69
537,03	1312,75
537,22	1329,13
537,42	1253,36
537,62	1288,17
537,82	1212,40
538,02	1251,31
538,21	1329,13
538,41	1241,07
538,61	1236,97
538,81	1335,28
539,00	1322,99
539,20	1210,35
539,40	1257,45
539,60	1273,84
539,79	1290,22
539,99	1259,50
540,19	1216,49
540,39	1312,75
540,58	1290,22
540,78	1271,79
540,98	1333,23
541,18	1236,97
541,37	1314,80
541,57	1322,99
541,77	1286,12
541,97	1269,74
542,16	1202,16
542,36	1292,27
542,56	1288,17
542,76	1312,75
542,95	1304,56
543,15	1298,41
543,35	1286,12
543,54	1298,41
543,74	1239,02
543,94	1331,18
544,14	1310,70
544,33	1304,56
544,53	1322,99
544,73	1335,28
544,93	1296,36
545,12	1290,22
545,32	1286,12
545,52	1329,13
545,71	1249,26
545,91	1292,27
546,11	1249,26
546,30	1241,07
546,50	1284,08
546,70	1292,27
546,90	1320,94
547,09	1296,36
547,29	1241,07
547,49	1333,23
547,68	1306,60
547,88	1318,89
548,08	1253,36
548,27	1335,28
548,47	1284,08
548,67	1312,75
548,87	1312,75
549,06	1339,37
549,26	1300,46
549,46	1263,60
549,65	1306,60
549,85	1390,57
550,05	1288,17
550,24	1304,56
550,44	1255,40
550,64	1282,03
550,83	1204,21
551,03	1333,23
551,23	1257,45
551,42	1333,23
551,62	1306,60
551,82	1331,18
552,01	1314,80
552,21	1300,46
552,41	1265,64
552,60	1308,65
552,80	1419,24
553,00	1314,80
553,19	1236,97
553,39	1325,04
553,59	1263,60
553,78	1333,23
553,98	1228,78
554,17	1286,12
554,37	1357,80
554,57	1282,03
554,76	1298,41
554,96	1286,12
555,16	1349,61
555,35	1339,37
555,55	1345,52
555,75	1296,36
555,94	1267,69
556,14	1257,45
556,33	1337,32
556,53	1267,69
556,73	1247,21
556,92	1273,84
557,12	1222,64
557,32	1251,31
557,51	1320,94
557,71	1345,52
557,90	1277,93
558,10	1296,36
558,30	1351,66
558,49	1265,64
558,69	1322,99
558,88	1300,46
559,08	1327,08
559,28	1279,98
559,47	1259,50
559,67	1263,60
559,86	1306,60
560,06	1292,27
560,26	1271,79
560,45	1298,41
560,65	1239,02
560,84	1347,56
561,04	1202,16
561,24	1296,36
561,43	1249,26
561,63	1232,88
561,82	1269,74
562,02	1304,56
562,22	1290,22
562,41	1294,32
562,61	1275,88
562,80	1273,84
563,00	1282,03
563,19	1337,32
563,39	1298,41
563,59	1249,26
563,78	1259,50
563,98	1253,36
564,17	1204,21
564,37	1298,41
564,56	1329,13
564,76	1322,99
564,96	1325,04
565,15	1298,41
565,35	1351,66
565,54	1198,06
565,74	1327,08
565,93	1259,50
566,13	1320,94
566,32	1322,99
566,52	1322,99
566,71	1255,40
566,91	1257,45
567,11	1282,03
567,30	1253,36
567,50	1282,03
567,69	1271,79
567,89	1261,55
568,08	1251,31
568,28	1218,54
568,47	1275,88
568,67	1298,41
568,86	1271,79
569,06	1271,79
569,25	1378,28
569,45	1239,02
569,64	1282,03
569,84	1277,93
570,04	1284,08
570,23	1286,12
570,43	1345,52
570,62	1296,36
570,82	1302,51
571,01	1212,40
571,21	1245,16
571,40	1306,60
571,60	1361,90
571,79	1304,56
571,99	1247,21
572,18	1331,18
572,38	1300,46
572,57	1271,79
572,77	1310,70
572,96	1286,12
573,16	1206,25
573,35	1282,03
573,55	1331,18
573,74	1253,36
573,94	1327,08
574,13	1267,69
574,33	1302,51
574,52	1243,12
574,71	1275,88
574,91	1355,76
575,10	1261,55
575,30	1243,12
575,49	1259,50
575,69	1273,84
575,88	1247,21
576,08	1255,40
576,27	1298,41
576,47	1257,45
576,66	1255,40
576,86	1257,45
577,05	1312,75
577,25	1345,52
577,44	1251,31
577,64	1261,55
577,83	1243,12
578,02	1273,84
578,22	1320,94
578,41	1318,89
578,61	1277,93
578,80	1265,64
579,00	1325,04
579,19	1304,56
579,39	1327,08
579,58	1249,26
579,77	1382,38
579,97	1286,12
580,16	1361,90
580,36	1296,36
580,55	1263,60
580,75	1292,27
580,94	1253,36
581,13	1312,75
581,33	1304,56
581,52	1363,95
581,72	1247,21
581,91	1288,17
582,11	1341,42
582,30	1271,79
582,49	1349,61
582,69	1294,32
582,88	1271,79
583,08	1275,88
583,27	1310,70
583,47	1279,98
583,66	1312,75
583,85	1306,60
584,05	1290,22
584,24	1325,04
584,44	1325,04
584,63	1296,36
584,82	1380,33
585,02	1284,08
585,21	1335,28
585,41	1241,07
585,60	1224,69
585,79	1284,08
585,99	1304,56
586,18	1343,47
586,37	1312,75
586,57	1292,27
586,76	1259,50
586,96	1200,11
587,15	1273,84
587,34	1284,08
587,54	1314,80
587,73	1294,32
587,93	1259,50
588,12	1294,32
588,31	1320,94
588,51	1245,16
588,70	1261,55
588,89	1267,69
589,09	1298,41
589,28	1263,60
589,47	1273,84
589,67	1263,60
589,86	1284,08
590,06	1241,07
590,25	1206,25
590,44	1259,50
590,64	1353,71
590,83	1275,88
591,02	1247,21
591,22	1257,45
591,41	1267,69
591,60	1312,75
591,80	1327,08
591,99	1288,17
592,18	1220,59
592,38	1333,23
592,57	1263,60
592,76	1265,64
592,96	1298,41
593,15	1273,84
593,34	1325,04
593,54	1290,22
593,73	1257,45
593,92	1310,70
594,12	1284,08
594,31	1239,02
594,50	1290,22
594,70	1298,41
594,89	1343,47
595,08	1269,74
595,28	1306,60
595,47	1345,52
595,66	1277,93
595,86	1353,71
596,05	1249,26
596,24	1275,88
596,43	1224,69
596,63	1245,16
596,82	1290,22
597,01	1296,36
597,21	1366,00
597,40	1236,97
597,59	1331,18
597,79	1314,80
597,98	1320,94
598,17	1275,88
598,36	1329,13
598,56	1214,45
598,75	1314,80
598,94	1269,74
599,14	1275,88
599,33	1290,22
599,52	1249,26
599,71	1382,38
599,91	1255,40
600,10	1208,30
600,29	1277,93
600,48	1279,98
600,68	1249,26
600,87	1216,49
601,06	1339,37
601,26	1331,18
601,45	1263,60
601,64	1306,60
601,83	1251,31
602,03	1193,97
602,22	1304,56
602,41	1298,41
602,60	1249,26
602,80	1271,79
602,99	1269,74
603,18	1267,69
603,37	1290,22
603,57	1327,08
603,76	1257,45
603,95	1239,02
604,14	1232,88
604,34	1316,84
604,53	1251,31
604,72	1296,36
604,91	1335,28
605,10	1306,60
605,30	1296,36
605,49	1245,16
605,68	1282,03
605,87	1298,41
606,07	1251,31
606,26	1273,84
606,45	1263,60
606,64	1325,04
606,84	1290,22
607,03	1282,03
607,22	1218,54
607,41	1204,21
607,60	1257,45
607,80	1255,40
607,99	1249,26
608,18	1288,17
608,37	1282,03
608,56	1257,45
608,76	1327,08
608,95	1333,23
609,14	1388,52
609,33	1308,65
609,52	1216,49
609,72	1257,45
609,91	1312,75
610,10	1310,70
610,29	1245,16
610,48	1279,98
610,68	1253,36
610,87	1298,41
611,06	1255,40
611,25	1284,08
611,44	1263,60
611,63	1183,73
611,83	1296,36
612,02	1294,32
612,21	1263,60
612,40	1239,02
612,59	1296,36
612,79	1300,46
612,98	1331,18
613,17	1318,89
613,36	1331,18
613,55	1341,42
613,74	1335,28
613,93	1294,32
614,13	1257,45
614,32	1257,45
614,51	1220,59
614,70	1196,01
614,89	1206,25
615,08	1296,36
615,28	1306,60
615,47	1331,18
615,66	1388,52
615,85	1210,35
616,04	1310,70
616,23	1366,00
616,42	1279,98
616,62	1257,45
616,81	1224,69
617,00	1277,93
617,19	1236,97
617,38	1302,51
617,57	1259,50
617,76	1261,55
617,95	1310,70
618,15	1261,55
618,34	1304,56
618,53	1218,54
618,72	1302,51
618,91	1273,84
619,10	1318,89
619,29	1284,08
619,48	1388,52
619,68	1277,93
619,87	1349,61
620,06	1298,41
620,25	1275,88
620,44	1320,94
620,63	1243,12
620,82	1310,70
621,01	1312,75
621,20	1259,50
621,39	1296,36
621,59	1331,18
621,78	1255,40
621,97	1279,98
622,16	1361,90
622,35	1314,80
622,54	1173,49
622,73	1333,23
622,92	1269,74
623,11	1335,28
623,30	1210,35
623,49	1282,03
623,68	1310,70
623,88	1251,31
624,07	1306,60
624,26	1243,12
624,45	1314,80
624,64	1304,56
624,83	1288,17
625,02	1275,88
625,21	1290,22
625,40	1212,40
625,59	1271,79
625,78	1292,27
625,97	1339,37
626,16	1335,28
626,35	1327,08
626,54	1226,73
626,74	1282,03
626,93	1275,88
627,12	1263,60
627,31	1298,41
627,50	1308,65
627,69	1277,93
627,88	1271,79
628,07	1253,36
628,26	1343,47
628,45	1249,26
628,64	1294,32
628,83	1325,04
629,02	1325,04
629,21	1312,75
629,40	1306,60
629,59	1329,13
629,78	1314,80
629,97	1306,60
630,16	1343,47
630,35	1249,26
630,54	1228,78
630,73	1277,93
630,92	1296,36
631,11	1257,45
631,30	1333,23
631,49	1337,32
631,68	1501,16
631,87	4222,91
632,06	15271,70
632,25	28141,14
632,44	38387,13
632,63	51846,38
632,82	40834,45
633,01	15576,85
633,20	6148,00
633,39	4908,98
633,58	4036,55
633,77	2883,54
633,96	2447,32
634,15	2226,14
634,34	2170,85
634,53	1871,84
634,72	1832,93
634,91	1660,90
635,10	1712,10
635,29	1603,56
635,48	1617,90
635,67	1546,22
635,86	1538,02
636,05	1482,73
636,24	1386,47
636,43	1370,09
636,62	1363,95
636,81	1366,00
637,00	1337,32
637,19	1380,33
637,38	1378,28
637,57	1353,71
637,76	1335,28
637,95	1308,65
638,14	1384,43
638,33	1271,79
638,52	1329,13
638,71	1288,17
638,89	1302,51
639,08	1294,32
639,27	1290,22
639,46	1269,74
639,65	1292,27
639,84	1273,84
640,03	1329,13
640,22	1282,03
640,41	1298,41
640,60	1282,03
640,79	1284,08
640,98	1286,12
641,17	1333,23
641,36	1339,37
641,55	1318,89
641,74	1292,27
641,92	1302,51
642,11	1306,60
642,30	1329,13
642,49	1404,91
642,68	1282,03
642,87	1275,88
643,06	1249,26
643,25	1273,84
643,44	1339,37
643,63	1335,28
643,82	1279,98
644,00	1265,64
644,19	1255,40
644,38	1312,75
644,57	1226,73
644,76	1243,12
644,95	1296,36
645,14	1236,97
645,33	1294,32
645,52	1300,46
645,71	1271,79
645,89	1273,84
646,08	1269,74
646,27	1230,83
646,46	1247,21
646,65	1198,06
646,84	1298,41
647,03	1277,93
647,22	1257,45
647,40	1277,93
647,59	1296,36
647,78	1275,88
647,97	1318,89
648,16	1263,60
648,35	1286,12
648,54	1296,36
648,73	1236,97
648,91	1325,04
649,10	1347,56
649,29	1247,21
649,48	1296,36
649,67	1204,21
649,86	1259,50
650,05	1265,64
650,23	1269,74
650,42	1263,60
650,61	1310,70
650,80	1245,16
650,99	1263,60
651,18	1286,12
651,36	1374,19
651,55	1257,45
651,74	1312,75
651,93	1318,89
652,12	1290,22
652,31	1300,46
652,49	1265,64
652,68	1257,45
652,87	1312,75
653,06	1271,79
653,25	1279,98
653,44	1218,54
653,62	1228,78
653,81	1236,97
654,00	1271,79
654,19	1378,28
654,38	1306,60
654,56	1320,94
654,75	1298,41
654,94	1257,45
655,13	1302,51
655,32	1261,55
655,51	1265,64
655,69	1306,60
655,88	1310,70
656,07	1259,50
656,26	1277,93
656,45	1247,21
656,63	1261,55
656,82	1214,45
657,01	1271,79
657,20	1253,36
657,38	1290,22
657,57	1290,22
657,76	1220,59
657,95	1249,26
658,14	1292,27
658,32	1341,42
658,51	1198,06
658,70	1296,36
658,89	1343,47
659,08	1253,36
659,26	1304,56
659,45	1232,88
659,64	1290,22
659,83	1273,84
660,01	1304,56
660,20	1325,04
660,39	1216,49
660,58	1277,93
660,76	1288,17
660,95	1200,11
661,14	1329,13
661,33	1271,79
661,51	1298,41
661,70	1310,70
661,89	1275,88
662,08	1241,07
662,26	1345,52
662,45	1257,45
662,64	1310,70
662,83	1228,78
663,01	1275,88
663,20	1275,88
663,39	1312,75
663,58	1273,84
663,76	1202,16
663,95	1269,74
664,14	1230,83
664,32	1353,71
664,51	1347,56
664,70	1196,01
664,89	1245,16
665,07	1376,24
665,26	1353,71
665,45	1226,73
665,64	1275,88
665,82	1255,40
666,01	1353,71
666,20	1208,30
666,38	1351,66
666,57	1273,84
666,76	1290,22
666,95	1228,78
667,13	1224,69
667,32	1239,02
667,51	1353,71
667,69	1257,45
667,88	1294,32
668,07	1329,13
668,25	1267,69
668,44	1249,26
668,63	1224,69
668,81	1275,88
669,00	1316,84
669,19	1310,70
669,38	1245,16
669,56	1282,03
669,75	1337,32
669,94	1220,59
670,12	1261,55
670,31	1275,88
670,50	1304,56
670,68	1267,69
670,87	1230,83
671,06	1198,06
671,24	1322,99
671,43	1282,03
671,62	1181,68
671,80	1230,83
671,99	1263,60
672,18	1275,88
672,36	1239,02
672,55	1267,69
672,74	1214,45
672,92	1286,12
673,11	1314,80
673,29	1251,31
673,48	1249,26
673,67	1245,16
673,85	1290,22
674,04	1265,64
674,23	1230,83
674,41	1273,84
674,60	1296,36
674,79	1189,87
674,97	1296,36
675,16	1282,03
675,34	1284,08
675,53	1341,42
675,72	1265,64
675,90	1249,26
676,09	1261,55
676,28	1173,49
676,46	1306,60
676,65	1259,50
676,83	1230,83
677,02	1284,08
677,21	1325,04
677,39	1286,12
677,58	1306,60
677,77	1318,89
677,95	1253,36
678,14	1312,75
678,32	1236,97
678,51	1239,02
678,70	1269,74
678,88	1245,16
679,07	1277,93
679,25	1236,97
679,44	1263,60
679,63	1234,93
679,81	1253,36
680,00	1259,50
680,18	1290,22
680,37	1345,52
680,55	1232,88
680,74	1243,12
680,93	1257,45
681,11	1261,55
681,30	1314,80
681,48	1302,51
681,67	1253,36
681,85	1290,22
682,04	1251,31
682,23	1290,22
682,41	1220,59
682,60	1216,49
682,78	1196,01
682,97	1288,17
683,15	1220,59
683,34	1249,26
683,53	1255,40
683,71	1257,45
683,90	1259,50
684,08	1302,51
684,27	1306,60
684,45	1269,74
684,64	1218,54
684,82	1236,97
685,01	1329,13
685,19	1290,22
685,38	1282,03
685,57	1302,51
685,75	1251,31
685,94	1202,16
686,12	1282,03
686,31	1265,64
686,49	1304,56
686,68	1290,22
686,86	1290,22
687,05	1306,60
687,23	1261,55
687,42	1181,68
687,60	1263,60
687,79	1273,84
687,97	1296,36
688,16	1251,31
688,34	1271,79
688,53	1275,88
688,71	1269,74
688,90	1228,78
689,08	1253,36
689,27	1286,12
689,45	1230,83
689,64	1282,03
689,82	1302,51
690,01	1212,40
690,19	1277,93
690,38	1298,41
690,56	1247,21
690,75	1191,92
690,93	1257,45
691,12	1212,40
691,30	1357,80
691,49	1296,36
691,67	1306,60
691,86	1253,36
692,04	1257,45
692,23	1269,74
692,41	1257,45
692,60	1243,12
692,78	1273,84
692,97	1279,98
693,15	1241,07
693,34	1282,03
693,52	1288,17
693,71	1271,79
693,89	1224,69
694,08	1269,74
694,26	1277,93
694,44	1279,98
694,63	1337,32
694,81	1271,79
695,00	1325,04
695,18	1196,01
695,37	1261,55
695,55	1265,64
695,74	1249,26
695,92	1265,64
696,10	1247,21
696,29	1265,64
696,47	1222,64
696,66	1320,94
696,84	1327,08
697,03	1284,08
697,21	1294,32
697,40	1275,88
697,58	1206,25
697,76	1290,22
697,95	1243,12
698,13	1243,12
698,32	1263,60
698,50	1232,88
698,68	1417,19
698,87	1257,45
699,05	1247,21
699,24	1255,40
699,42	1241,07
699,61	1261,55
699,79	1265,64
699,97	1322,99
700,16	1437,67
700,34	1202,16
700,53	1308,65
700,71	1271,79
700,89	1185,77
701,08	1294,32
701,26	1214,45
701,45	1236,97
701,63	1208,30
701,81	1232,88
702,00	1241,07
702,18	1263,60
702,37	1228,78
702,55	1300,46
702,73	1259,50
702,92	1247,21
703,10	1265,64
703,28	1310,70
703,47	1273,84
703,65	1275,88
703,84	1214,45
704,02	1341,42
704,20	1318,89
704,39	1202,16
704,57	1282,03
704,75	1236,97
704,94	1286,12
705,12	1236,97
705,30	1222,64
705,49	1290,22
705,67	1282,03
705,86	1279,98
706,04	1329,13
706,22	1304,56
706,41	1279,98
706,59	1304,56
706,77	1200,11
706,96	1290,22
707,14	1259,50
707,32	1273,84
707,51	1222,64
707,69	1234,93
707,87	1320,94
708,06	1312,75
708,24	1308,65
708,42	1243,12
708,61	1288,17
708,79	1331,18
708,97	1239,02
709,16	1191,92
709,34	1265,64
709,52	1226,73
709,71	1259,50
709,89	1226,73
710,07	1204,21
710,26	1253,36
710,44	1259,50
710,62	1282,03
710,80	1236,97
710,99	1249,26
711,17	1255,40
711,35	1288,17
711,54	1234,93
711,72	1298,41
711,90	1245,16
712,09	1269,74
712,27	1269,74
712,45	1243,12
712,63	1228,78
712,82	1261,55
713,00	1282,03
713,18	1269,74
713,37	1282,03
713,55	1290,22
713,73	1316,84
713,91	1196,01
714,10	1271,79
714,28	1255,40
714,46	1220,59
714,65	1306,60
714,83	1259,50
715,01	1257,45
715,19	1247,21
715,38	1259,50
715,56	1255,40
715,74	1253,36
715,92	1214,45
716,11	1275,88
716,29	1294,32
716,47	1290,22
716,65	1300,46
716,84	1165,29
717,02	1257,45
717,20	1236,97
717,38	1261,55
717,57	1241,07
717,75	1239,02
717,93	1257,45
718,11	1193,97
718,30	1277,93
718,48	1267,69
718,66	1243,12
718,84	1333,23
719,03	1275,88
719,21	1253,36
719,39	1275,88
719,57	1247,21
719,75	1347,56
719,94	1290,22
720,12	1253,36
720,30	1200,11
720,48	1306,60
720,67	1347,56
720,85	1261,55
721,03	1327,08
721,21	1273,84
721,39	1234,93
721,58	1257,45
721,76	1310,70
721,94	1300,46
722,12	1282,03
722,30	1279,98
722,49	1216,49
722,67	1232,88
722,85	1259,50
723,03	1279,98
723,21	1271,79
723,40	1206,25
723,58	1265,64
723,76	1202,16
723,94	1220,59
724,12	1228,78
724,30	1230,83
724,49	1331,18
724,67	1296,36
724,85	1288,17
725,03	1202,16
725,21	1222,64
725,40	1230,83
725,58	1271,79
725,76	1265,64
725,94	1269,74
726,12	1316,84
726,30	1226,73
726,49	1282,03
726,67	1337,32
726,85	1286,12
727,03	1296,36
727,21	1279,98
727,39	1255,40
727,57	1290,22
727,76	1243,12
727,94	1290,22
728,12	1294,32
728,30	1255,40
728,48	1333,23
728,66	1337,32
728,84	1239,02
729,03	1327,08
729,21	1292,27
729,39	1222,64
729,57	1290,22
729,75	1243,12
729,93	1335,28
730,11	1261,55
730,30	1298,41
730,48	1292,27
730,66	1282,03
730,84	1200,11
731,02	1302,51
731,20	1241,07
731,38	1257,45
731,56	1189,87
731,74	1294,32
731,93	1298,41
732,11	1239,02
732,29	1267,69
732,47	1187,82
732,65	1314,80
732,83	1322,99
733,01	1308,65
733,19	1251,31
733,37	1296,36
733,56	1251,31
733,74	1236,97
733,92	1193,97
734,10	1331,18
734,28	1329,13
734,46	1302,51
734,64	1267,69
734,82	1316,84
735,00	1247,21
735,18	1339,37
735,36	1292,27
735,54	1224,69
735,73	1245,16
735,91	1267,69
736,09	1267,69
736,27	1322,99
736,45	1257,45
736,63	1236,97
736,81	1236,97
736,99	1220,59
737,17	1253,36
737,35	1296,36
737,53	1257,45
737,71	1251,31
737,89	1245,16
738,07	1306,60
738,25	1257,45
738,43	1304,56
738,61	1228,78
738,80	1216,49
738,98	1275,88
739,16	1318,89
739,34	1290,22
739,52	1191,92
739,70	1318,89
739,88	1249,26
740,06	1290,22
740,24	1290,22
740,42	1216,49
740,60	1253,36
740,78	1247,21
740,96	1206,25
741,14	1210,35
741,32	1261,55
741,50	1325,04
741,68	1320,94
741,86	1224,69
742,04	1230,83
742,22	1259,50
742,40	1140,72
742,58	1277,93
742,76	1212,40
742,94	1253,36
743,12	1226,73
743,30	1224,69
743,48	1179,63
743,66	1284,08
743,84	1370,09
744,02	1257,45
744,20	1267,69
744,38	1290,22
744,56	1216,49
744,74	1263,60
744,92	1261,55
745,10	1282,03
745,28	1302,51
745,46	1298,41
745,64	1257,45
745,82	1331,18
746,00	1263,60
746,18	1247,21
746,36	1345,52
746,54	1316,84
746,72	1187,82
746,90	1228,78
747,08	1292,27
747,26	1333,23
747,44	1218,54
747,62	1316,84
747,80	1327,08
747,98	1202,16
748,15	1304,56
748,33	1257,45
748,51	1230,83
748,69	1343,47
748,87	1216,49
749,05	1320,94
749,23	1279,98
749,41	1234,93
749,59	1306,60
749,77	1275,88
749,95	1298,41
750,13	1218,54
750,31	1269,74
750,49	1269,74
750,67	1224,69
750,85	1236,97
751,03	1243,12
751,20	1183,73
751,38	1230,83
751,56	1243,12
751,74	1181,68
751,92	1253,36
752,10	1236,97
752,28	1251,31
752,46	1257,45
752,64	1226,73
752,82	1282,03
753,00	1331,18
753,18	1279,98
753,35	1249,26
753,53	1329,13
753,71	1222,64
753,89	1228,78
754,07	1318,89
754,25	1302,51
754,43	1300,46
754,61	1308,65
754,79	1337,32
754,97	1271,79
755,14	1232,88
755,32	1247,21
755,50	1341,42
755,68	1318,89
755,86	1243,12
756,04	1259,50
756,22	1290,22
756,40	1304,56
756,57	1351,66
756,75	1189,87
756,93	1255,40
757,11	1259,50
757,29	1228,78
757,47	1302,51
757,65	1226,73
757,82	1273,84
758,00	1329,13
758,18	1296,36
758,36	1208,30
758,54	1214,45
758,72	1234,93
758,90	1282,03
759,07	1193,97
759,25	1247,21
759,43	1226,73
759,61	1255,40
759,79	1290,22
759,97	1290,22
760,15	1259,50
760,32	1359,85
760,50	1265,64
760,68	1255,40
760,86	1187,82
761,04	1304,56
761,22	1273,84
761,39	1234,93
761,57	1308,65
761,75	1341,42
761,93	1232,88
762,11	1255,40
762,28	1261,55
762,46	1296,36
762,64	1183,73
762,82	1312,75
763,00	1169,39
763,18	1304,56
763,35	1251,31
763,53	1325,04
763,71	1288,17
763,89	1271,79
764,07	1318,89
764,24	1216,49
764,42	1349,61
764,60	1200,11
764,78	1253,36
764,96	1181,68
765,13	1261,55
765,31	1232,88
765,49	1294,32
765,67	1249,26
765,84	1247,21
766,02	1220,59
766,20	1257,45
766,38	1298,41
766,56	1198,06
766,73	1263,60
766,91	1316,84
767,09	1275,88
767,27	1294,32
767,44	1175,53
767,62	1251,31
767,80	1253,36
767,98	1304,56
768,15	1269,74
768,33	1171,44
768,51	1271,79
768,69	1210,35
768,87	1308,65
769,04	1261,55
769,22	1279,98
769,40	1277,93
769,58	1296,36
769,75	1279,98
769,93	1265,64
770,11	1275,88
770,28	1236,97
770,46	1322,99
770,64	1263,60
770,82	1290,22
770,99	1202,16
771,17	1236,97
771,35	1208,30
771,53	1320,94
771,70	1257,45
771,88	1290,22
772,06	1234,93
772,23	1298,41
772,41	1198,06
772,59	1296,36
772,77	1263,60
772,94	1222,64
773,12	1257,45
773,30	1245,16
773,47	1259,50
773,65	1269,74
773,83	1193,97
774,01	1241,07
774,18	1294,32
774,36	1198,06
774,54	1241,07
774,71	1216,49
774,89	1265,64
775,07	1294,32
775,24	1222,64
775,42	1386,47
775,60	1193,97
775,78	1306,60
775,95	1249,26
776,13	1191,92
776,31	1292,27
776,48	1282,03
776,66	1200,11
776,84	1282,03
777,01	1255,40
777,19	1275,88
777,37	1226,73
777,54	1226,73
777,72	1275,88
777,90	1255,40
778,07	1286,12
778,25	1232,88
778,43	1273,84
778,60	1320,94
778,78	1214,45
778,96	1232,88
779,13	1247,21
779,31	1189,87
779,49	1255,40
779,66	1200,11
779,84	1267,69
780,01	1310,70
780,19	1257,45
780,37	1253,36
780,54	1288,17
780,72	1296,36
780,90	1277,93
781,07	1271,79
781,25	1349,61
781,43	1318,89
781,60	1298,41
781,78	1259,50
781,95	1259,50
782,13	1277,93
782,31	1208,30
782,48	1277,93
782,66	1255,40
782,83	1316,84
783,01	1214,45
783,19	1241,07
783,36	1290,22
783,54	1314,80
783,72	1288,17
783,89	1249,26
784,07	1294,32
784,24	1284,08
784,42	1253,36
784,60	1271,79
784,77	1249,26
784,95	1282,03
785,12	1236,97
785,30	1265,64
785,47	1335,28
785,65	1279,98
785,83	1222,64
786,00	1282,03
786,18	1279,98
786,35	1279,98
786,53	1216,49
786,71	1300,46
786,88	1282,03
787,06	1255,40
787,23	1218,54
787,41	1210,35
787,58	1228,78
787,76	1298,41
787,94	1288,17
788,11	1275,88
788,29	1255,40
788,46	1318,89
788,64	1277,93
788,81	1310,70
788,99	1267,69
789,16	1277,93
789,34	1224,69
789,52	1265,64
789,69	1302,51
789,87	1222,64
790,04	1220,59
790,22	1331,18
790,39	1329,13
790,57	1208,30
790,74	1288,17
790,92	1234,93
791,09	1183,73
791,27	1259,50
791,44	1298,41
791,62	1206,25
791,79	1259,50
791,97	1310,70
792,15	1325,04
792,32	1236,97
792,50	1343,47
792,67	1275,88
792,85	1306,60
793,02	1255,40
793,20	1273,84
793,37	1269,74
793,55	1302,51
793,72	1275,88
793,90	1306,60
794,07	1290,22
794,25	1230,83
794,42	1236,97
794,60	1253,36
794,77	1255,40
794,95	1273,84
795,12	1275,88
795,30	1243,12
795,47	1228,78
795,65	1255,40
795,82	1245,16
796,00	1226,73
796,17	1214,45
796,34	1218,54
796,52	1191,92
796,69	1204,21
796,87	1337,32
797,04	1253,36
797,22	1271,79
797,39	1314,80
797,57	1275,88
797,74	1255,40
797,92	1247,21
798,09	1263,60
798,27	1222,64
798,44	1241,07
798,62	1183,73
798,79	1298,41
798,96	1239,02
799,14	1249,26
799,31	1253,36
799,49	1302,51
799,66	1243,12
799,84	1314,80
800,01	1290,22
800,19	1257,45
800,36	1220,59
800,53	1318,89
800,71	1216,49
800,88	1265,64
801,06	1306,60
801,23	1232,88
801,41	1306,60
801,58	1239,02
801,75	1279,98
801,93	1300,46
802,10	1279,98
802,28	1236,97
802,45	1198,06
802,63	1329,13
802,80	1257,45
802,97	1218,54
803,15	1335,28
803,32	1247,21
803,50	1288,17
803,67	1288,17
803,84	1277,93
804,02	1187,82
804,19	1290,22
804,37	1279,98
804,54	1298,41
804,71	1296,36
804,89	1275,88
805,06	1247,21
805,24	1212,40
805,41	1290,22
805,58	1181,68
805,76	1288,17
805,93	1288,17
806,10	1247,21
806,28	1302,51
806,45	1228,78
806,63	1232,88
806,80	1279,98
806,97	1263,60
807,15	1296,36
807,32	1273,84
807,49	1322,99
807,67	1261,55
807,84	1202,16
808,01	1243,12
808,19	1298,41
808,36	1302,51
808,54	1161,20
808,71	1290,22
808,88	1288,17
809,06	1232,88
809,23	1234,93
809,40	1292,27
809,58	1263,60
809,75	1247,21
809,92	1327,08
810,10	1261,55
810,27	1353,71
810,44	1241,07
810,62	1284,08
810,79	1187,82
810,96	1234,93
811,14	1234,93
811,31	1263,60
811,48	1253,36
811,66	1288,17
811,83	1302,51
812,00	1263,60
812,18	1335,28
812,35	1232,88
812,52	1239,02
812,69	1187,82
812,87	1208,30
813,04	1222,64
813,21	1292,27
813,39	1271,79
813,56	1257,45
813,73	1259,50
813,91	1316,84
814,08	1263,60
814,25	1294,32
814,42	1257,45
814,60	1322,99
814,77	1286,12
814,94	1290,22
815,12	1277,93
815,29	1273,84
815,46	1300,46
815,63	1265,64
815,81	1316,84
815,98	1290,22
816,15	1265,64
816,33	1271,79
816,50	1277,93
816,67	1302,51
816,84	1288,17
817,02	1247,21
817,19	1288,17
817,36	1368,04
817,53	1302,51
817,71	1298,41
817,88	1322,99
818,05	1265,64
818,22	1300,46
818,40	1320,94
818,57	1228,78
818,74	1239,02
818,91	1247,21
819,09	1255,40
819,26	1284,08
819,43	1263,60
819,60	1306,60
819,78	1210,35
819,95	1292,27
820,12	1310,70
820,29	1288,17
820,47	1226,73
820,64	1306,60
820,81	1304,56
820,98	1230,83
821,15	1269,74
821,33	1214,45
821,50	1263,60
821,67	1288,17
821,84	1257,45
822,02	1232,88
822,19	1267,69
822,36	1243,12
822,53	1220,59
822,70	1259,50
822,88	1259,50
823,05	1249,26
823,22	1208,30
823,39	1261,55
823,56	1275,88
823,74	1275,88
823,91	1259,50
824,08	1302,51
824,25	1243,12
824,42	1232,88
824,60	1245,16
824,77	1245,16
824,94	1259,50
825,11	1226,73
825,28	1232,88
825,45	1304,56
825,63	1255,40
825,80	1189,87
825,97	1265,64
826,14	1312,75
826,31	1282,03
826,48	1224,69
826,66	1267,69
826,83	1257,45
827,00	1316,84
827,17	1284,08
827,34	1236,97
827,51	1175,53
827,69	1247,21
827,86	1279,98
828,03	1220,59
828,20	1259,50
828,37	1255,40
828,54	1224,69
828,71	1257,45
828,89	1314,80
829,06	1277,93
829,23	1224,69
829,40	1247,21
829,57	1267,69
829,74	1208,30
829,91	1290,22
830,09	1312,75
830,26	1265,64
830,43	1228,78
830,60	1245,16
830,77	1304,56
830,94	1294,32
831,11	1253,36
831,28	1296,36
831,46	1273,84
831,63	1271,79
831,80	1298,41
831,97	1279,98
832,14	1224,69
832,31	1234,93
832,48	1153,01
832,65	1236,97
832,82	1273,84
832,99	1286,12
833,17	1226,73
833,34	1333,23
833,51	1259,50
833,68	1267,69
833,85	1288,17
834,02	1239,02
834,19	1245,16
834,36	1247,21
834,53	1290,22
834,70	1245,16
834,87	1226,73
835,04	1181,68
835,22	1249,26
835,39	1185,77
835,56	1216,49
835,73	1298,41
835,90	1263,60
836,07	1251,31
836,24	1212,40
836,41	1259,50
836,58	1298,41
836,75	1284,08
836,92	1277,93
837,09	1363,95
837,26	1214,45
837,43	1292,27
837,60	1290,22
837,77	1226,73
837,94	1249,26
838,12	1288,17
838,29	1308,65
838,46	1255,40
838,63	1282,03
838,80	1298,41
838,97	1275,88
839,14	1265,64
839,31	1298,41
839,48	1320,94
839,65	1261,55
839,82	1308,65
839,99	1236,97
840,16	1308,65
840,33	1282,03
840,50	1288,17
840,67	1191,92
840,84	1304,56
841,01	1253,36
841,18	1253,36
841,35	1290,22
841,52	1253,36
841,69	1222,64
841,86	1212,40
842,03	1165,29
842,20	1263,60
842,37	1228,78
842,54	1253,36
842,71	1306,60
842,88	1263,60
843,05	1345,52
843,22	1251,31
843,39	1212,40
843,56	1241,07
843,73	1216,49
843,90	1243,12
844,07	1202,16
844,24	1351,66
844,41	1247,21
844,58	1300,46
844,75	1226,73
844,92	1286,12
845,09	1267,69
845,26	1247,21
845,43	1269,74
845,60	1232,88
845,77	1200,11
845,94	1314,80
846,10	1265,64
846,27	1298,41
846,44	1261,55
846,61	1208,30
846,78	1308,65
846,95	1279,98
847,12	1273,84
847,29	1253,36
847,46	1277,93
847,63	1284,08
847,80	1282,03
847,97	1249,26
848,14	1204,21
848,31	1351,66
848,48	1279,98
848,65	1314,80
848,82	1251,31
848,98	1337,32
849,15	1265,64
849,32	1245,16
849,49	1263,60
849,66	1296,36
849,83	1251,31
850,00	1261,55
850,17	1228,78
850,34	1380,33
850,51	1228,78
850,68	1269,74
850,85	1288,17
851,01	1265,64
851,18	1255,40
851,35	1296,36
851,52	1239,02
851,69	1220,59
851,86	1265,64
852,03	1257,45
852,20	1277,93
852,37	1263,60
852,53	1306,60
852,70	1171,44
852,87	1288,17
853,04	1288,17
853,21	1263,60
853,38	1300,46
853,55	1286,12
853,72	1275,88
853,89	1279,98
854,05	1259,50
854,22	1320,94
854,39	1157,10
854,56	1304,56
854,73	1230,83
854,90	1179,63
855,07	1286,12
855,23	1282,03
855,40	1247,21
855,57	1255,40
855,74	1257,45
855,91	1249,26
856,08	1255,40
856,25	1206,25
856,41	1198,06
856,58	1241,07
856,75	1304,56
856,92	1249,26
857,09	1282,03
857,26	1263,60
857,42	1284,08
857,59	1290,22
857,76	1239,02
857,93	1251,31
858,10	1271,79
858,27	1249,26
858,43	1277,93
858,60	1204,21
858,77	1347,56
858,94	1247,21
859,11	1249,26
859,27	1316,84
859,44	1269,74
859,61	1251,31
859,78	1298,41
859,95	1292,27
860,12	1232,88
860,28	1212,40
860,45	1259,50
860,62	1228,78
860,79	1378,28
860,95	1306,60
861,12	1187,82
861,29	1349,61
861,46	1288,17
861,63	1322,99
861,79	1259,50
861,96	1220,59
862,13	1320,94
862,30	1222,64
862,47	1267,69
862,63	1284,08
862,80	1327,08
862,97	1308,65
863,14	1298,41
863,30	1251,31
863,47	1245,16
863,64	1216,49
863,81	1314,80
863,97	1210,35
864,14	1261,55
864,31	1263,60
864,48	1265,64
864,65	1257,45
864,81	1347,56
864,98	1232,88
865,15	1273,84
865,32	1294,32
865,48	1247,21
865,65	1310,70
865,82	1253,36
865,98	1265,64
866,15	1220,59
866,32	1251,31
866,49	1216,49
866,65	1263,60
866,82	1282,03
866,99	1220,59
867,16	1353,71
867,32	1222,64
867,49	1222,64
867,66	1224,69
867,83	1290,22
867,99	1306,60
868,16	1183,73
868,33	1230,83
868,49	1232,88
868,66	1261,55
868,83	1337,32
868,99	1308,65
869,16	1298,41
869,33	1255,40
869,50	1290,22
869,66	1310,70
869,83	1251,31
870,00	1200,11
870,16	1275,88
870,33	1257,45
870,50	1294,32
870,66	1232,88
870,83	1322,99
871,00	1253,36
871,17	1245,16
871,33	1277,93
871,50	1271,79
871,67	1253,36
871,83	1263,60
872,00	1273,84
872,17	1275,88
872,33	1265,64
872,50	1292,27
872,67	1288,17
872,83	1279,98
873,00	1226,73
873,17	1279,98
873,33	1253,36
873,50	1320,94
873,67	1277,93
873,83	1312,75
874,00	1318,89
874,16	1191,92
874,33	1271,79
874,50	1239,02
874,66	1218,54
874,83	1296,36
875,00	1288,17
875,16	1361,90
875,33	1306,60
875,50	1249,26
875,66	1257,45
875,83	1230,83
875,99	1271,79
876,16	1341,42
876,33	1271,79
876,49	1232,88
876,66	1269,74
876,83	1263,60
876,99	1292,27
877,16	1298,41
877,32	1277,93
877,49	1239,02
877,66	1273,84
877,82	1259,50
877,99	1277,93
878,15	1263,60
878,32	1296,36
878,49	1267,69
878,65	1222,64
878,82	1271,79
878,98	1294,32
879,15	1282,03
879,32	1253,36
879,48	1345,52
879,65	1220,59
879,81	1202,16
879,98	1222,64
880,15	1320,94
880,31	1310,70
880,48	1212,40
880,64	1259,50
880,81	1347,56
880,97	1204,21
881,14	1363,95
881,31	1226,73
881,47	1234,93
881,64	1222,64
881,80	1265,64
881,97	1263,60
882,13	1404,91
882,30	1325,04
882,47	1239,02
882,63	1273,84
882,80	1275,88
882,96	1265,64
883,13	1259,50
883,29	1290,22
883,46	1318,89
883,62	1259,50
883,79	1273,84
883,95	1247,21
884,12	1245,16
884,29	1331,18
884,45	1259,50
884,62	1253,36
884,78	1302,51
884,95	1292,27
885,11	1284,08
885,28	1259,50
885,44	1214,45
885,61	1269,74
885,77	1316,84
885,94	1255,40
886,10	1294,32
886,27	1279,98
886,43	1298,41
886,60	1263,60
886,76	1263,60
886,93	1286,12
887,09	1255,40
887,26	1208,30
887,42	1263,60
887,59	1245,16
887,75	1314,80
887,92	1226,73
888,08	1298,41
888,25	1271,79
888,41	1277,93
888,58	1212,40
888,74	1290,22
888,91	1296,36
>>>>>End Processed Spectral Data<<<<<
