SpectraSuite Data File
++++++++++++++++++++++++++++++++++++
Date: Sun Apr 03 19:55:53 CEST 2016
User: root
Dark Spectrum Present: No
Reference Spectrum Present: No
Number of Sampled Component Spectra: 1
Spectrometers: USB4C02835
Integration Time (usec): 10000 (USB4C02835)
Spectra Averaged: 1 (USB4C02835)
Boxcar Smoothing: 0 (USB4C02835)
Correct for Electrical Dark: No (USB4C02835)
Strobe/Lamp Enabled: No (USB4C02835)
Correct for Detector Non-linearity: No (USB4C02835)
Correct for Stray Light: No (USB4C02835)
Number of Pixels in Processed Spectrum: 3648
>>>>>Begin Processed Spectral Data<<<<<
177,47	1255,40
177,69	1255,40
177,91	1255,40
178,13	1253,36
178,36	1308,65
178,58	1290,22
178,80	1282,03
179,02	1282,03
179,24	1224,69
179,46	1247,21
179,68	1290,22
179,90	1191,92
180,13	1288,17
180,35	1327,08
180,57	1271,79
180,79	1294,32
181,01	1265,64
181,23	1275,88
181,45	1261,55
181,67	1210,35
181,90	1320,94
182,12	1224,69
182,34	1296,36
182,56	1327,08
182,78	1239,02
183,00	1263,60
183,22	1312,75
183,44	1245,16
183,66	1312,75
183,89	1179,63
184,11	1251,31
184,33	1200,11
184,55	1253,36
184,77	1236,97
184,99	1271,79
185,21	1288,17
185,43	1265,64
185,65	1257,45
185,87	1267,69
186,10	1265,64
186,32	1257,45
186,54	1296,36
186,76	1204,21
186,98	1296,36
187,20	1243,12
187,42	1267,69
187,64	1249,26
187,86	1239,02
188,08	1325,04
188,30	1255,40
188,52	1265,64
188,75	1212,40
188,97	1236,97
189,19	1345,52
189,41	1286,12
189,63	1224,69
189,85	1249,26
190,07	1304,56
190,29	1263,60
190,51	1249,26
190,73	1247,21
190,95	1329,13
191,17	1282,03
191,39	1243,12
191,61	1279,98
191,84	1228,78
192,06	1191,92
192,28	1263,60
192,50	1300,46
192,72	1292,27
192,94	1282,03
193,16	1325,04
193,38	1224,69
193,60	1212,40
193,82	1277,93
194,04	1220,59
194,26	1298,41
194,48	1226,73
194,70	1263,60
194,92	1202,16
195,14	1255,40
195,36	1253,36
195,58	1282,03
195,80	1216,49
196,02	1329,13
196,24	1220,59
196,46	1269,74
196,69	1271,79
196,91	1267,69
197,13	1220,59
197,35	1314,80
197,57	1279,98
197,79	1277,93
198,01	1249,26
198,23	1327,08
198,45	1263,60
198,67	1310,70
198,89	1306,60
199,11	1355,76
199,33	1269,74
199,55	1349,61
199,77	1259,50
199,99	1333,23
200,21	1243,12
200,43	1312,75
200,65	1314,80
200,87	1275,88
201,09	1198,06
201,31	1257,45
201,53	1167,34
201,75	1327,08
201,97	1253,36
202,19	1245,16
202,41	1288,17
202,63	1284,08
202,85	1286,12
203,07	1261,55
203,29	1327,08
203,51	1234,93
203,73	1220,59
203,95	1255,40
204,17	1300,46
204,39	1214,45
204,61	1202,16
204,83	1181,68
205,05	1312,75
205,27	1241,07
205,49	1255,40
205,71	1290,22
205,93	1232,88
206,15	1292,27
206,37	1253,36
206,59	1245,16
206,81	1224,69
207,03	1290,22
207,25	1296,36
207,47	1273,84
207,69	1267,69
207,91	1261,55
208,13	1290,22
208,34	1265,64
208,56	1261,55
208,78	1306,60
209,00	1236,97
209,22	1294,32
209,44	1261,55
209,66	1261,55
209,88	1333,23
210,10	1306,60
210,32	1331,18
210,54	1241,07
210,76	1271,79
210,98	1271,79
211,20	1243,12
211,42	1298,41
211,64	1257,45
211,86	1294,32
212,08	1343,47
212,30	1226,73
212,52	1228,78
212,74	1298,41
212,96	1243,12
213,17	1294,32
213,39	1249,26
213,61	1261,55
213,83	1327,08
214,05	1183,73
214,27	1236,97
214,49	1200,11
214,71	1294,32
214,93	1269,74
215,15	1359,85
215,37	1269,74
215,59	1261,55
215,81	1345,52
216,03	1298,41
216,24	1275,88
216,46	1251,31
216,68	1288,17
216,90	1251,31
217,12	1267,69
217,34	1230,83
217,56	1234,93
217,78	1288,17
218,00	1273,84
218,22	1224,69
218,44	1320,94
218,66	1277,93
218,87	1353,71
219,09	1249,26
219,31	1257,45
219,53	1257,45
219,75	1275,88
219,97	1290,22
220,19	1241,07
220,41	1239,02
220,63	1230,83
220,85	1271,79
221,06	1169,39
221,28	1261,55
221,50	1273,84
221,72	1288,17
221,94	1193,97
222,16	1286,12
222,38	1333,23
222,60	1284,08
222,82	1333,23
223,03	1269,74
223,25	1329,13
223,47	1257,45
223,69	1325,04
223,91	1239,02
224,13	1306,60
224,35	1181,68
224,57	1265,64
224,78	1247,21
225,00	1234,93
225,22	1263,60
225,44	1261,55
225,66	1306,60
225,88	1304,56
226,10	1234,93
226,32	1273,84
226,53	1198,06
226,75	1257,45
226,97	1218,54
227,19	1271,79
227,41	1181,68
227,63	1249,26
227,85	1265,64
228,06	1236,97
228,28	1314,80
228,50	1310,70
228,72	1255,40
228,94	1290,22
229,16	1267,69
229,37	1265,64
229,59	1271,79
229,81	1263,60
230,03	1298,41
230,25	1263,60
230,47	1290,22
230,69	1279,98
230,90	1259,50
231,12	1314,80
231,34	1314,80
231,56	1212,40
231,78	1298,41
232,00	1263,60
232,21	1271,79
232,43	1279,98
232,65	1273,84
232,87	1263,60
233,09	1144,81
233,30	1302,51
233,52	1239,02
233,74	1173,49
233,96	1316,84
234,18	1224,69
234,40	1243,12
234,61	1239,02
234,83	1275,88
235,05	1261,55
235,27	1220,59
235,49	1286,12
235,70	1230,83
235,92	1193,97
236,14	1212,40
236,36	1318,89
236,58	1200,11
236,79	1271,79
237,01	1243,12
237,23	1241,07
237,45	1253,36
237,67	1243,12
237,88	1275,88
238,10	1224,69
238,32	1267,69
238,54	1243,12
238,76	1255,40
238,97	1259,50
239,19	1345,52
239,41	1208,30
239,63	1257,45
239,85	1314,80
240,06	1253,36
240,28	1271,79
240,50	1296,36
240,72	1263,60
240,93	1335,28
241,15	1239,02
241,37	1257,45
241,59	1347,56
241,81	1259,50
242,02	1279,98
242,24	1263,60
242,46	1282,03
242,68	1247,21
242,89	1282,03
243,11	1286,12
243,33	1267,69
243,55	1304,56
243,76	1267,69
243,98	1236,97
244,20	1279,98
244,42	1267,69
244,64	1271,79
244,85	1261,55
245,07	1241,07
245,29	1267,69
245,51	1179,63
245,72	1200,11
245,94	1316,84
246,16	1308,65
246,38	1306,60
246,59	1263,60
246,81	1247,21
247,03	1234,93
247,24	1255,40
247,46	1310,70
247,68	1253,36
247,90	1259,50
248,11	1292,27
248,33	1251,31
248,55	1316,84
248,77	1282,03
248,98	1320,94
249,20	1273,84
249,42	1286,12
249,64	1279,98
249,85	1284,08
250,07	1259,50
250,29	1249,26
250,50	1304,56
250,72	1294,32
250,94	1243,12
251,16	1331,18
251,37	1265,64
251,59	1345,52
251,81	1267,69
252,02	1347,56
252,24	1251,31
252,46	1243,12
252,68	1277,93
252,89	1253,36
253,11	1222,64
253,33	1257,45
253,54	1322,99
253,76	1271,79
253,98	1277,93
254,20	1255,40
254,41	1249,26
254,63	1216,49
254,85	1249,26
255,06	1279,98
255,28	1228,78
255,50	1226,73
255,71	1320,94
255,93	1251,31
256,15	1290,22
256,36	1253,36
256,58	1277,93
256,80	1257,45
257,02	1316,84
257,23	1259,50
257,45	1265,64
257,67	1200,11
257,88	1329,13
258,10	1273,84
258,32	1257,45
258,53	1224,69
258,75	1253,36
258,97	1255,40
259,18	1341,42
259,40	1236,97
259,62	1214,45
259,83	1273,84
260,05	1218,54
260,27	1279,98
260,48	1306,60
260,70	1265,64
260,92	1277,93
261,13	1261,55
261,35	1263,60
261,57	1294,32
261,78	1333,23
262,00	1273,84
262,22	1255,40
262,43	1286,12
262,65	1284,08
262,86	1279,98
263,08	1234,93
263,30	1327,08
263,51	1275,88
263,73	1245,16
263,95	1212,40
264,16	1241,07
264,38	1271,79
264,60	1271,79
264,81	1239,02
265,03	1282,03
265,25	1345,52
265,46	1249,26
265,68	1267,69
265,89	1290,22
266,11	1210,35
266,33	1353,71
266,54	1306,60
266,76	1212,40
266,98	1204,21
267,19	1341,42
267,41	1265,64
267,62	1241,07
267,84	1306,60
268,06	1288,17
268,27	1269,74
268,49	1257,45
268,70	1290,22
268,92	1224,69
269,14	1294,32
269,35	1271,79
269,57	1308,65
269,79	1265,64
270,00	1261,55
270,22	1288,17
270,43	1267,69
270,65	1333,23
270,87	1255,40
271,08	1257,45
271,30	1296,36
271,51	1114,10
271,73	1212,40
271,95	1288,17
272,16	1359,85
272,38	1290,22
272,59	1175,53
272,81	1222,64
273,02	1253,36
273,24	1255,40
273,46	1279,98
273,67	1212,40
273,89	1230,83
274,10	1306,60
274,32	1306,60
274,54	1320,94
274,75	1239,02
274,97	1282,03
275,18	1236,97
275,40	1247,21
275,61	1290,22
275,83	1247,21
276,05	1306,60
276,26	1300,46
276,48	1216,49
276,69	1208,30
276,91	1247,21
277,12	1222,64
277,34	1273,84
277,55	1302,51
277,77	1277,93
277,99	1271,79
278,20	1230,83
278,42	1275,88
278,63	1300,46
278,85	1298,41
279,06	1245,16
279,28	1279,98
279,49	1239,02
279,71	1228,78
279,93	1183,73
280,14	1265,64
280,36	1318,89
280,57	1239,02
280,79	1249,26
281,00	1322,99
281,22	1226,73
281,43	1279,98
281,65	1265,64
281,86	1249,26
282,08	1202,16
282,29	1304,56
282,51	1286,12
282,73	1265,64
282,94	1251,31
283,16	1259,50
283,37	1286,12
283,59	1308,65
283,80	1304,56
284,02	1253,36
284,23	1310,70
284,45	1261,55
284,66	1337,32
284,88	1302,51
285,09	1198,06
285,31	1269,74
285,52	1296,36
285,74	1327,08
285,95	1222,64
286,17	1257,45
286,38	1239,02
286,60	1322,99
286,81	1335,28
287,03	1294,32
287,24	1304,56
287,46	1282,03
287,67	1277,93
287,89	1257,45
288,10	1329,13
288,32	1273,84
288,53	1253,36
288,75	1228,78
288,96	1282,03
289,18	1269,74
289,39	1228,78
289,61	1300,46
289,82	1386,47
290,04	1232,88
290,25	1236,97
290,47	1241,07
290,68	1265,64
290,90	1302,51
291,11	1300,46
291,33	1314,80
291,54	1273,84
291,76	1302,51
291,97	1181,68
292,18	1265,64
292,40	1277,93
292,61	1220,59
292,83	1312,75
293,04	1314,80
293,26	1189,87
293,47	1245,16
293,69	1179,63
293,90	1257,45
294,12	1329,13
294,33	1325,04
294,55	1327,08
294,76	1306,60
294,97	1202,16
295,19	1187,82
295,40	1196,01
295,62	1226,73
295,83	1185,77
296,05	1234,93
296,26	1245,16
296,48	1314,80
296,69	1290,22
296,90	1288,17
297,12	1271,79
297,33	1294,32
297,55	1335,28
297,76	1234,93
297,98	1236,97
298,19	1257,45
298,41	1279,98
298,62	1263,60
298,83	1226,73
299,05	1286,12
299,26	1214,45
299,48	1226,73
299,69	1253,36
299,90	1277,93
300,12	1193,97
300,33	1302,51
300,55	1269,74
300,76	1316,84
300,98	1312,75
301,19	1290,22
301,40	1196,01
301,62	1320,94
301,83	1279,98
302,05	1277,93
302,26	1232,88
302,47	1269,74
302,69	1384,43
302,90	1234,93
303,12	1220,59
303,33	1286,12
303,54	1286,12
303,76	1222,64
303,97	1230,83
304,19	1273,84
304,40	1282,03
304,61	1216,49
304,83	1306,60
305,04	1378,28
305,26	1271,79
305,47	1322,99
305,68	1257,45
305,90	1318,89
306,11	1345,52
306,33	1204,21
306,54	1265,64
306,75	1271,79
306,97	1284,08
307,18	1253,36
307,39	1255,40
307,61	1329,13
307,82	1261,55
308,04	1300,46
308,25	1302,51
308,46	1269,74
308,68	1222,64
308,89	1275,88
309,10	1179,63
309,32	1247,21
309,53	1284,08
309,74	1273,84
309,96	1261,55
310,17	1273,84
310,39	1206,25
310,60	1304,56
310,81	1185,77
311,03	1277,93
311,24	1257,45
311,45	1355,76
311,67	1257,45
311,88	1228,78
312,09	1269,74
312,31	1204,21
312,52	1304,56
312,73	1308,65
312,95	1200,11
313,16	1300,46
313,37	1261,55
313,59	1300,46
313,80	1232,88
314,01	1333,23
314,23	1275,88
314,44	1349,61
314,65	1257,45
314,87	1269,74
315,08	1206,25
315,29	1312,75
315,51	1261,55
315,72	1239,02
315,93	1288,17
316,15	1247,21
316,36	1255,40
316,57	1310,70
316,79	1366,00
317,00	1310,70
317,21	1239,02
317,43	1245,16
317,64	1210,35
317,85	1300,46
318,07	1253,36
318,28	1218,54
318,49	1271,79
318,70	1290,22
318,92	1239,02
319,13	1306,60
319,34	1269,74
319,56	1273,84
319,77	1224,69
319,98	1308,65
320,20	1241,07
320,41	1261,55
320,62	1232,88
320,83	1292,27
321,05	1296,36
321,26	1249,26
321,47	1247,21
321,69	1310,70
321,90	1241,07
322,11	1288,17
322,32	1298,41
322,54	1325,04
322,75	1277,93
322,96	1257,45
323,18	1288,17
323,39	1261,55
323,60	1304,56
323,81	1392,62
324,03	1261,55
324,24	1339,37
324,45	1271,79
324,66	1249,26
324,88	1243,12
325,09	1263,60
325,30	1218,54
325,52	1306,60
325,73	1261,55
325,94	1333,23
326,15	1259,50
326,37	1236,97
326,58	1357,80
326,79	1304,56
327,00	1228,78
327,22	1279,98
327,43	1198,06
327,64	1288,17
327,85	1234,93
328,07	1290,22
328,28	1259,50
328,49	1206,25
328,70	1273,84
328,92	1314,80
329,13	1249,26
329,34	1271,79
329,55	1236,97
329,76	1271,79
329,98	1282,03
330,19	1251,31
330,40	1265,64
330,61	1357,80
330,83	1245,16
331,04	1273,84
331,25	1243,12
331,46	1226,73
331,68	1232,88
331,89	1325,04
332,10	1304,56
332,31	1216,49
332,52	1236,97
332,74	1232,88
332,95	1241,07
333,16	1333,23
333,37	1308,65
333,58	1325,04
333,80	1265,64
334,01	1288,17
334,22	1284,08
334,43	1202,16
334,64	1212,40
334,86	1335,28
335,07	1212,40
335,28	1245,16
335,49	1241,07
335,70	1265,64
335,92	1273,84
336,13	1255,40
336,34	1236,97
336,55	1282,03
336,76	1236,97
336,98	1257,45
337,19	1243,12
337,40	1318,89
337,61	1261,55
337,82	1204,21
338,04	1308,65
338,25	1271,79
338,46	1290,22
338,67	1292,27
338,88	1245,16
339,09	1263,60
339,31	1286,12
339,52	1257,45
339,73	1226,73
339,94	1222,64
340,15	1284,08
340,36	1306,60
340,58	1347,56
340,79	1279,98
341,00	1275,88
341,21	1255,40
341,42	1337,32
341,63	1380,33
341,85	1232,88
342,06	1267,69
342,27	1263,60
342,48	1318,89
342,69	1269,74
342,90	1234,93
343,12	1298,41
343,33	1243,12
343,54	1267,69
343,75	1304,56
343,96	1216,49
344,17	1255,40
344,38	1290,22
344,60	1200,11
344,81	1247,21
345,02	1247,21
345,23	1318,89
345,44	1368,04
345,65	1316,84
345,86	1222,64
346,07	1232,88
346,29	1347,56
346,50	1261,55
346,71	1294,32
346,92	1304,56
347,13	1331,18
347,34	1212,40
347,55	1269,74
347,76	1247,21
347,98	1210,35
348,19	1316,84
348,40	1292,27
348,61	1282,03
348,82	1314,80
349,03	1232,88
349,24	1269,74
349,45	1298,41
349,66	1271,79
349,88	1322,99
350,09	1255,40
350,30	1296,36
350,51	1222,64
350,72	1218,54
350,93	1191,92
351,14	1204,21
351,35	1282,03
351,56	1302,51
351,77	1320,94
351,99	1226,73
352,20	1255,40
352,41	1263,60
352,62	1245,16
352,83	1275,88
353,04	1271,79
353,25	1273,84
353,46	1245,16
353,67	1300,46
353,88	1241,07
354,09	1279,98
354,30	1222,64
354,52	1245,16
354,73	1275,88
354,94	1257,45
355,15	1300,46
355,36	1267,69
355,57	1249,26
355,78	1329,13
355,99	1316,84
356,20	1288,17
356,41	1310,70
356,62	1255,40
356,83	1370,09
357,04	1218,54
357,25	1234,93
357,46	1304,56
357,68	1185,77
357,89	1275,88
358,10	1282,03
358,31	1275,88
358,52	1251,31
358,73	1288,17
358,94	1279,98
359,15	1226,73
359,36	1318,89
359,57	1292,27
359,78	1232,88
359,99	1257,45
360,20	1292,27
360,41	1249,26
360,62	1165,29
360,83	1239,02
361,04	1304,56
361,25	1353,71
361,46	1296,36
361,67	1300,46
361,88	1253,36
362,09	1206,25
362,30	1279,98
362,51	1249,26
362,72	1247,21
362,93	1218,54
363,14	1185,77
363,35	1284,08
363,56	1247,21
363,78	1243,12
363,99	1220,59
364,20	1187,82
364,41	1329,13
364,62	1320,94
364,83	1243,12
365,04	1243,12
365,25	1236,97
365,46	1298,41
365,67	1279,98
365,88	1279,98
366,09	1353,71
366,30	1251,31
366,51	1306,60
366,72	1159,15
366,93	1249,26
367,14	1300,46
367,35	1226,73
367,56	1290,22
367,77	1253,36
367,98	1273,84
368,18	1224,69
368,39	1253,36
368,60	1247,21
368,81	1210,35
369,02	1241,07
369,23	1206,25
369,44	1232,88
369,65	1275,88
369,86	1220,59
370,07	1263,60
370,28	1282,03
370,49	1265,64
370,70	1327,08
370,91	1273,84
371,12	1277,93
371,33	1275,88
371,54	1243,12
371,75	1269,74
371,96	1335,28
372,17	1277,93
372,38	1198,06
372,59	1275,88
372,80	1279,98
373,01	1279,98
373,22	1265,64
373,43	1263,60
373,64	1302,51
373,85	1230,83
374,06	1241,07
374,26	1277,93
374,47	1241,07
374,68	1294,32
374,89	1204,21
375,10	1228,78
375,31	1339,37
375,52	1265,64
375,73	1294,32
375,94	1341,42
376,15	1282,03
376,36	1249,26
376,57	1214,45
376,78	1290,22
376,99	1196,01
377,20	1304,56
377,40	1269,74
377,61	1236,97
377,82	1267,69
378,03	1318,89
378,24	1329,13
378,45	1255,40
378,66	1292,27
378,87	1245,16
379,08	1265,64
379,29	1163,25
379,50	1355,76
379,71	1275,88
379,91	1308,65
380,12	1306,60
380,33	1308,65
380,54	1327,08
380,75	1245,16
380,96	1253,36
381,17	1265,64
381,38	1236,97
381,59	1255,40
381,80	1249,26
382,00	1234,93
382,21	1310,70
382,42	1216,49
382,63	1298,41
382,84	1267,69
383,05	1331,18
383,26	1257,45
383,47	1279,98
383,68	1290,22
383,88	1308,65
384,09	1224,69
384,30	1267,69
384,51	1261,55
384,72	1290,22
384,93	1320,94
385,14	1249,26
385,35	1255,40
385,55	1226,73
385,76	1302,51
385,97	1277,93
386,18	1239,02
386,39	1294,32
386,60	1241,07
386,81	1236,97
387,02	1329,13
387,22	1148,91
387,43	1327,08
387,64	1253,36
387,85	1269,74
388,06	1241,07
388,27	1247,21
388,48	1206,25
388,68	1302,51
388,89	1292,27
389,10	1263,60
389,31	1165,29
389,52	1271,79
389,73	1286,12
389,93	1216,49
390,14	1294,32
390,35	1259,50
390,56	1249,26
390,77	1263,60
390,98	1275,88
391,18	1267,69
391,39	1343,47
391,60	1263,60
391,81	1269,74
392,02	1292,27
392,23	1273,84
392,43	1271,79
392,64	1216,49
392,85	1318,89
393,06	1320,94
393,27	1251,31
393,47	1322,99
393,68	1259,50
393,89	1335,28
394,10	1218,54
394,31	1284,08
394,52	1292,27
394,72	1277,93
394,93	1259,50
395,14	1245,16
395,35	1200,11
395,56	1230,83
395,76	1370,09
395,97	1214,45
396,18	1228,78
396,39	1316,84
396,60	1288,17
396,80	1228,78
397,01	1296,36
397,22	1255,40
397,43	1306,60
397,64	1304,56
397,84	1298,41
398,05	1284,08
398,26	1273,84
398,47	1347,56
398,67	1222,64
398,88	1331,18
399,09	1300,46
399,30	1288,17
399,51	1329,13
399,71	1290,22
399,92	1302,51
400,13	1341,42
400,34	1269,74
400,54	1269,74
400,75	1261,55
400,96	1298,41
401,17	1288,17
401,37	1308,65
401,58	1320,94
401,79	1271,79
402,00	1267,69
402,21	1206,25
402,41	1312,75
402,62	1220,59
402,83	1286,12
403,04	1273,84
403,24	1316,84
403,45	1232,88
403,66	1259,50
403,87	1247,21
404,07	1236,97
404,28	1288,17
404,49	1255,40
404,70	1298,41
404,90	1239,02
405,11	1245,16
405,32	1255,40
405,52	1222,64
405,73	1282,03
405,94	1357,80
406,15	1290,22
406,35	1279,98
406,56	1296,36
406,77	1261,55
406,98	1290,22
407,18	1236,97
407,39	1236,97
407,60	1134,57
407,80	1253,36
408,01	1298,41
408,22	1245,16
408,43	1208,30
408,63	1286,12
408,84	1337,32
409,05	1282,03
409,25	1230,83
409,46	1230,83
409,67	1230,83
409,88	1257,45
410,08	1249,26
410,29	1271,79
410,50	1288,17
410,70	1226,73
410,91	1275,88
411,12	1261,55
411,32	1263,60
411,53	1310,70
411,74	1245,16
411,95	1245,16
412,15	1234,93
412,36	1185,77
412,57	1208,30
412,77	1228,78
412,98	1261,55
413,19	1259,50
413,39	1286,12
413,60	1222,64
413,81	1251,31
414,01	1247,21
414,22	1261,55
414,43	1267,69
414,63	1279,98
414,84	1222,64
415,05	1292,27
415,25	1239,02
415,46	1275,88
415,67	1322,99
415,87	1290,22
416,08	1222,64
416,29	1251,31
416,49	1279,98
416,70	1271,79
416,91	1216,49
417,11	1259,50
417,32	1261,55
417,53	1273,84
417,73	1206,25
417,94	1232,88
418,15	1234,93
418,35	1302,51
418,56	1343,47
418,77	1269,74
418,97	1239,02
419,18	1275,88
419,38	1273,84
419,59	1232,88
419,80	1288,17
420,00	1314,80
420,21	1271,79
420,42	1210,35
420,62	1288,17
420,83	1378,28
421,04	1214,45
421,24	1294,32
421,45	1181,68
421,65	1241,07
421,86	1249,26
422,07	1267,69
422,27	1247,21
422,48	1206,25
422,69	1257,45
422,89	1198,06
423,10	1288,17
423,30	1275,88
423,51	1232,88
423,72	1259,50
423,92	1320,94
424,13	1232,88
424,33	1275,88
424,54	1222,64
424,75	1206,25
424,95	1286,12
425,16	1292,27
425,36	1245,16
425,57	1208,30
425,78	1230,83
425,98	1327,08
426,19	1253,36
426,39	1261,55
426,60	1314,80
426,81	1255,40
427,01	1210,35
427,22	1230,83
427,42	1269,74
427,63	1288,17
427,83	1265,64
428,04	1325,04
428,25	1249,26
428,45	1314,80
428,66	1191,92
428,86	1296,36
429,07	1288,17
429,28	1300,46
429,48	1288,17
429,69	1249,26
429,89	1226,73
430,10	1292,27
430,30	1335,28
430,51	1232,88
430,71	1241,07
430,92	1345,52
431,13	1202,16
431,33	1329,13
431,54	1228,78
431,74	1220,59
431,95	1275,88
432,15	1212,40
432,36	1236,97
432,56	1267,69
432,77	1265,64
432,98	1304,56
433,18	1296,36
433,39	1247,21
433,59	1218,54
433,80	1345,52
434,00	1304,56
434,21	1288,17
434,41	1261,55
434,62	1296,36
434,82	1218,54
435,03	1220,59
435,23	1224,69
435,44	1239,02
435,64	1257,45
435,85	1255,40
436,06	1234,93
436,26	1277,93
436,47	1245,16
436,67	1284,08
436,88	1222,64
437,08	1263,60
437,29	1292,27
437,49	1183,73
437,70	1288,17
437,90	1275,88
438,11	1251,31
438,31	1284,08
438,52	1214,45
438,72	1226,73
438,93	1228,78
439,13	1292,27
439,34	1312,75
439,54	1292,27
439,75	1288,17
439,95	1308,65
440,16	1224,69
440,36	1212,40
440,57	1204,21
440,77	1243,12
440,98	1331,18
441,18	1345,52
441,39	1253,36
441,59	1247,21
441,80	1302,51
442,00	1236,97
442,21	1241,07
442,41	1302,51
442,62	1279,98
442,82	1282,03
443,02	1306,60
443,23	1275,88
443,43	1263,60
443,64	1304,56
443,84	1202,16
444,05	1200,11
444,25	1239,02
444,46	1228,78
444,66	1286,12
444,87	1331,18
445,07	1275,88
445,28	1228,78
445,48	1165,29
445,69	1234,93
445,89	1294,32
446,09	1271,79
446,30	1234,93
446,50	1314,80
446,71	1204,21
446,91	1265,64
447,12	1325,04
447,32	1292,27
447,53	1271,79
447,73	1353,71
447,93	1335,28
448,14	1277,93
448,34	1251,31
448,55	1230,83
448,75	1265,64
448,96	1277,93
449,16	1294,32
449,36	1257,45
449,57	1247,21
449,77	1271,79
449,98	1263,60
450,18	1298,41
450,39	1234,93
450,59	1322,99
450,79	1267,69
451,00	1245,16
451,20	1279,98
451,41	1271,79
451,61	1306,60
451,81	1265,64
452,02	1249,26
452,22	1298,41
452,43	1316,84
452,63	1282,03
452,84	1263,60
453,04	1263,60
453,24	1263,60
453,45	1306,60
453,65	1204,21
453,86	1269,74
454,06	1294,32
454,26	1220,59
454,47	1265,64
454,67	1253,36
454,87	1245,16
455,08	1327,08
455,28	1290,22
455,49	1249,26
455,69	1261,55
455,89	1196,01
456,10	1310,70
456,30	1300,46
456,51	1300,46
456,71	1267,69
456,91	1241,07
457,12	1228,78
457,32	1236,97
457,52	1259,50
457,73	1279,98
457,93	1228,78
458,14	1191,92
458,34	1255,40
458,54	1193,97
458,75	1257,45
458,95	1220,59
459,15	1273,84
459,36	1228,78
459,56	1294,32
459,76	1198,06
459,97	1306,60
460,17	1279,98
460,37	1310,70
460,58	1263,60
460,78	1316,84
460,99	1284,08
461,19	1257,45
461,39	1261,55
461,60	1337,32
461,80	1288,17
462,00	1226,73
462,21	1271,79
462,41	1308,65
462,61	1185,77
462,82	1245,16
463,02	1310,70
463,22	1288,17
463,43	1282,03
463,63	1284,08
463,83	1187,82
464,04	1234,93
464,24	1228,78
464,44	1277,93
464,64	1232,88
464,85	1339,37
465,05	1269,74
465,25	1322,99
465,46	1300,46
465,66	1275,88
465,86	1247,21
466,07	1253,36
466,27	1294,32
466,47	1316,84
466,68	1241,07
466,88	1247,21
467,08	1277,93
467,29	1255,40
467,49	1302,51
467,69	1239,02
467,89	1241,07
468,10	1232,88
468,30	1245,16
468,50	1247,21
468,71	1318,89
468,91	1331,18
469,11	1286,12
469,31	1245,16
469,52	1298,41
469,72	1290,22
469,92	1249,26
470,13	1302,51
470,33	1298,41
470,53	1337,32
470,73	1275,88
470,94	1267,69
471,14	1200,11
471,34	1245,16
471,54	1212,40
471,75	1273,84
471,95	1249,26
472,15	1286,12
472,36	1277,93
472,56	1245,16
472,76	1239,02
472,96	1257,45
473,17	1290,22
473,37	1277,93
473,57	1245,16
473,77	1273,84
473,98	1261,55
474,18	1210,35
474,38	1275,88
474,58	1261,55
474,79	1230,83
474,99	1249,26
475,19	1230,83
475,39	1345,52
475,60	1236,97
475,80	1247,21
476,00	1304,56
476,20	1243,12
476,41	1267,69
476,61	1232,88
476,81	1292,27
477,01	1298,41
477,21	1282,03
477,42	1249,26
477,62	1292,27
477,82	1224,69
478,02	1249,26
478,23	1269,74
478,43	1261,55
478,63	1261,55
478,83	1253,36
479,03	1288,17
479,24	1263,60
479,44	1232,88
479,64	1320,94
479,84	1226,73
480,04	1298,41
480,25	1284,08
480,45	1316,84
480,65	1314,80
480,85	1255,40
481,06	1290,22
481,26	1224,69
481,46	1230,83
481,66	1376,24
481,86	1261,55
482,06	1279,98
482,27	1306,60
482,47	1294,32
482,67	1279,98
482,87	1249,26
483,07	1310,70
483,28	1234,93
483,48	1230,83
483,68	1251,31
483,88	1279,98
484,08	1196,01
484,29	1243,12
484,49	1257,45
484,69	1310,70
484,89	1232,88
485,09	1273,84
485,29	1306,60
485,50	1249,26
485,70	1288,17
485,90	1208,30
486,10	1232,88
486,30	1271,79
486,50	1308,65
486,71	1304,56
486,91	1312,75
487,11	1312,75
487,31	1210,35
487,51	1265,64
487,71	1353,71
487,91	1243,12
488,12	1212,40
488,32	1255,40
488,52	1253,36
488,72	1275,88
488,92	1290,22
489,12	1261,55
489,32	1290,22
489,53	1224,69
489,73	1288,17
489,93	1253,36
490,13	1320,94
490,33	1148,91
490,53	1247,21
490,73	1216,49
490,94	1292,27
491,14	1300,46
491,34	1345,52
491,54	1241,07
491,74	1216,49
491,94	1275,88
492,14	1257,45
492,34	1294,32
492,54	1257,45
492,75	1214,45
492,95	1232,88
493,15	1265,64
493,35	1325,04
493,55	1298,41
493,75	1202,16
493,95	1320,94
494,15	1304,56
494,35	1253,36
494,56	1239,02
494,76	1269,74
494,96	1277,93
495,16	1228,78
495,36	1290,22
495,56	1325,04
495,76	1279,98
495,96	1288,17
496,16	1331,18
496,36	1216,49
496,56	1251,31
496,77	1277,93
496,97	1296,36
497,17	1308,65
497,37	1243,12
497,57	1396,71
497,77	1183,73
497,97	1212,40
498,17	1269,74
498,37	1191,92
498,57	1214,45
498,77	1331,18
498,97	1265,64
499,17	1263,60
499,38	1259,50
499,58	1322,99
499,78	1372,14
499,98	1312,75
500,18	1279,98
500,38	1265,64
500,58	1329,13
500,78	1257,45
500,98	1310,70
501,18	1296,36
501,38	1271,79
501,58	1273,84
501,78	1286,12
501,98	1325,04
502,18	1261,55
502,38	1318,89
502,58	1275,88
502,78	1273,84
502,98	1249,26
503,18	1226,73
503,38	1249,26
503,59	1214,45
503,79	1257,45
503,99	1298,41
504,19	1308,65
504,39	1284,08
504,59	1294,32
504,79	1339,37
504,99	1181,68
505,19	1298,41
505,39	1298,41
505,59	1292,27
505,79	1253,36
505,99	1273,84
506,19	1267,69
506,39	1331,18
506,59	1325,04
506,79	1222,64
506,99	1210,35
507,19	1210,35
507,39	1263,60
507,59	1214,45
507,79	1343,47
507,99	1333,23
508,19	1296,36
508,39	1316,84
508,59	1265,64
508,79	1312,75
508,99	1306,60
509,19	1296,36
509,39	1335,28
509,59	1239,02
509,79	1230,83
509,99	1302,51
510,19	1282,03
510,39	1191,92
510,59	1296,36
510,79	1302,51
510,99	1279,98
511,19	1212,40
511,39	1316,84
511,59	1224,69
511,79	1228,78
511,99	1239,02
512,19	1253,36
512,38	1216,49
512,58	1259,50
512,78	1312,75
512,98	1284,08
513,18	1306,60
513,38	1296,36
513,58	1232,88
513,78	1212,40
513,98	1269,74
514,18	1277,93
514,38	1206,25
514,58	1312,75
514,78	1282,03
514,98	1251,31
515,18	1267,69
515,38	1263,60
515,58	1345,52
515,78	1230,83
515,98	1228,78
516,18	1255,40
516,38	1234,93
516,57	1273,84
516,77	1292,27
516,97	1245,16
517,17	1277,93
517,37	1271,79
517,57	1286,12
517,77	1239,02
517,97	1277,93
518,17	1312,75
518,37	1306,60
518,57	1226,73
518,77	1275,88
518,97	1204,21
519,16	1318,89
519,36	1316,84
519,56	1335,28
519,76	1220,59
519,96	1308,65
520,16	1312,75
520,36	1239,02
520,56	1267,69
520,76	1230,83
520,96	1279,98
521,16	1290,22
521,35	1241,07
521,55	1322,99
521,75	1243,12
521,95	1318,89
522,15	1314,80
522,35	1257,45
522,55	1261,55
522,75	1298,41
522,95	1298,41
523,14	1249,26
523,34	1279,98
523,54	1290,22
523,74	1312,75
523,94	1310,70
524,14	1196,01
524,34	1320,94
524,54	1300,46
524,73	1277,93
524,93	1284,08
525,13	1331,18
525,33	1308,65
525,53	1279,98
525,73	1282,03
525,93	1337,32
526,13	1265,64
526,32	1265,64
526,52	1269,74
526,72	1277,93
526,92	1224,69
527,12	1288,17
527,32	1288,17
527,52	1337,32
527,71	1247,21
527,91	1241,07
528,11	1318,89
528,31	1286,12
528,51	1302,51
528,71	1292,27
528,90	1259,50
529,10	1249,26
529,30	1210,35
529,50	1372,14
529,70	1273,84
529,90	1261,55
530,09	1251,31
530,29	1312,75
530,49	1263,60
530,69	1284,08
530,89	1243,12
531,09	1331,18
531,28	1308,65
531,48	1308,65
531,68	1273,84
531,88	1325,04
532,08	1228,78
532,28	1288,17
532,47	1261,55
532,67	1259,50
532,87	1337,32
533,07	1290,22
533,27	1327,08
533,46	1271,79
533,66	1267,69
533,86	1247,21
534,06	1282,03
534,26	1327,08
534,45	1282,03
534,65	1243,12
534,85	1269,74
535,05	1284,08
535,25	1294,32
535,44	1378,28
535,64	1259,50
535,84	1257,45
536,04	1294,32
536,24	1343,47
536,43	1257,45
536,63	1249,26
536,83	1263,60
537,03	1298,41
537,22	1228,78
537,42	1247,21
537,62	1353,71
537,82	1245,16
538,02	1308,65
538,21	1251,31
538,41	1363,95
538,61	1255,40
538,81	1245,16
539,00	1327,08
539,20	1220,59
539,40	1206,25
539,60	1236,97
539,79	1345,52
539,99	1308,65
540,19	1251,31
540,39	1241,07
540,58	1304,56
540,78	1243,12
540,98	1224,69
541,18	1253,36
541,37	1314,80
541,57	1357,80
541,77	1263,60
541,97	1234,93
542,16	1290,22
542,36	1282,03
542,56	1296,36
542,76	1226,73
542,95	1222,64
543,15	1269,74
543,35	1247,21
543,54	1214,45
543,74	1277,93
543,94	1292,27
544,14	1286,12
544,33	1300,46
544,53	1249,26
544,73	1267,69
544,93	1286,12
545,12	1261,55
545,32	1275,88
545,52	1300,46
545,71	1279,98
545,91	1261,55
546,11	1267,69
546,30	1329,13
546,50	1286,12
546,70	1218,54
546,90	1239,02
547,09	1230,83
547,29	1259,50
547,49	1226,73
547,68	1308,65
547,88	1304,56
548,08	1357,80
548,27	1257,45
548,47	1284,08
548,67	1224,69
548,87	1339,37
549,06	1333,23
549,26	1263,60
549,46	1226,73
549,65	1267,69
549,85	1337,32
550,05	1366,00
550,24	1277,93
550,44	1290,22
550,64	1314,80
550,83	1327,08
551,03	1312,75
551,23	1284,08
551,42	1308,65
551,62	1230,83
551,82	1247,21
552,01	1353,71
552,21	1325,04
552,41	1302,51
552,60	1228,78
552,80	1312,75
553,00	1298,41
553,19	1302,51
553,39	1228,78
553,59	1298,41
553,78	1327,08
553,98	1304,56
554,17	1286,12
554,37	1327,08
554,57	1216,49
554,76	1343,47
554,96	1288,17
555,16	1294,32
555,35	1247,21
555,55	1239,02
555,75	1251,31
555,94	1273,84
556,14	1300,46
556,33	1308,65
556,53	1292,27
556,73	1255,40
556,92	1302,51
557,12	1363,95
557,32	1322,99
557,51	1316,84
557,71	1286,12
557,90	1271,79
558,10	1322,99
558,30	1191,92
558,49	1288,17
558,69	1236,97
558,88	1243,12
559,08	1247,21
559,28	1251,31
559,47	1263,60
559,67	1298,41
559,86	1368,04
560,06	1357,80
560,26	1214,45
560,45	1265,64
560,65	1304,56
560,84	1296,36
561,04	1261,55
561,24	1267,69
561,43	1312,75
561,63	1372,14
561,82	1296,36
562,02	1290,22
562,22	1296,36
562,41	1271,79
562,61	1314,80
562,80	1228,78
563,00	1284,08
563,19	1265,64
563,39	1279,98
563,59	1333,23
563,78	1216,49
563,98	1327,08
564,17	1216,49
564,37	1310,70
564,56	1282,03
564,76	1245,16
564,96	1308,65
565,15	1308,65
565,35	1249,26
565,54	1243,12
565,74	1230,83
565,93	1329,13
566,13	1329,13
566,32	1298,41
566,52	1241,07
566,71	1279,98
566,91	1298,41
567,11	1269,74
567,30	1226,73
567,50	1304,56
567,69	1284,08
567,89	1286,12
568,08	1247,21
568,28	1312,75
568,47	1308,65
568,67	1273,84
568,86	1339,37
569,06	1335,28
569,25	1271,79
569,45	1316,84
569,64	1222,64
569,84	1292,27
570,04	1265,64
570,23	1298,41
570,43	1286,12
570,62	1325,04
570,82	1302,51
571,01	1304,56
571,21	1316,84
571,40	1273,84
571,60	1271,79
571,79	1292,27
571,99	1251,31
572,18	1292,27
572,38	1312,75
572,57	1282,03
572,77	1333,23
572,96	1300,46
573,16	1320,94
573,35	1265,64
573,55	1327,08
573,74	1253,36
573,94	1288,17
574,13	1335,28
574,33	1282,03
574,52	1284,08
574,71	1269,74
574,91	1198,06
575,10	1329,13
575,30	1253,36
575,49	1308,65
575,69	1288,17
575,88	1298,41
576,08	1204,21
576,27	1302,51
576,47	1245,16
576,66	1335,28
576,86	1263,60
577,05	1181,68
577,25	1220,59
577,44	1384,43
577,64	1210,35
577,83	1351,66
578,02	1351,66
578,22	1306,60
578,41	1286,12
578,61	1222,64
578,80	1251,31
579,00	1290,22
579,19	1335,28
579,39	1384,43
579,58	1298,41
579,77	1292,27
579,97	1284,08
580,16	1282,03
580,36	1314,80
580,55	1302,51
580,75	1220,59
580,94	1388,52
581,13	1247,21
581,33	1292,27
581,52	1296,36
581,72	1277,93
581,91	1208,30
582,11	1298,41
582,30	1265,64
582,49	1226,73
582,69	1331,18
582,88	1284,08
583,08	1343,47
583,27	1306,60
583,47	1261,55
583,66	1271,79
583,85	1308,65
584,05	1298,41
584,24	1265,64
584,44	1368,04
584,63	1320,94
584,82	1253,36
585,02	1304,56
585,21	1241,07
585,41	1230,83
585,60	1304,56
585,79	1300,46
585,99	1355,76
586,18	1294,32
586,37	1339,37
586,57	1290,22
586,76	1255,40
586,96	1271,79
587,15	1228,78
587,34	1300,46
587,54	1271,79
587,73	1271,79
587,93	1320,94
588,12	1284,08
588,31	1267,69
588,51	1204,21
588,70	1216,49
588,89	1210,35
589,09	1341,42
589,28	1308,65
589,47	1329,13
589,67	1290,22
589,86	1304,56
590,06	1343,47
590,25	1286,12
590,44	1294,32
590,64	1279,98
590,83	1247,21
591,02	1255,40
591,22	1290,22
591,41	1288,17
591,60	1261,55
591,80	1304,56
591,99	1310,70
592,18	1259,50
592,38	1322,99
592,57	1204,21
592,76	1296,36
592,96	1347,56
593,15	1218,54
593,34	1269,74
593,54	1327,08
593,73	1263,60
593,92	1277,93
594,12	1306,60
594,31	1296,36
594,50	1380,33
594,70	1261,55
594,89	1253,36
595,08	1322,99
595,28	1273,84
595,47	1300,46
595,66	1292,27
595,86	1284,08
596,05	1325,04
596,24	1224,69
596,43	1347,56
596,63	1333,23
596,82	1298,41
597,01	1337,32
597,21	1296,36
597,40	1212,40
597,59	1282,03
597,79	1245,16
597,98	1284,08
598,17	1263,60
598,36	1359,85
598,56	1277,93
598,75	1290,22
598,94	1349,61
599,14	1251,31
599,33	1267,69
599,52	1368,04
599,71	1310,70
599,91	1261,55
600,10	1275,88
600,29	1245,16
600,48	1277,93
600,68	1325,04
600,87	1282,03
601,06	1257,45
601,26	1269,74
601,45	1277,93
601,64	1292,27
601,83	1261,55
602,03	1316,84
602,22	1339,37
602,41	1292,27
602,60	1241,07
602,80	1261,55
602,99	1279,98
603,18	1282,03
603,37	1304,56
603,57	1314,80
603,76	1290,22
603,95	1273,84
604,14	1265,64
604,34	1267,69
604,53	1277,93
604,72	1294,32
604,91	1236,97
605,10	1236,97
605,30	1263,60
605,49	1271,79
605,68	1306,60
605,87	1273,84
606,07	1335,28
606,26	1296,36
606,45	1279,98
606,64	1226,73
606,84	1282,03
607,03	1286,12
607,22	1279,98
607,41	1300,46
607,60	1318,89
607,80	1243,12
607,99	1304,56
608,18	1314,80
608,37	1304,56
608,56	1286,12
608,76	1282,03
608,95	1302,51
609,14	1224,69
609,33	1284,08
609,52	1255,40
609,72	1335,28
609,91	1269,74
610,10	1239,02
610,29	1234,93
610,48	1251,31
610,68	1265,64
610,87	1312,75
611,06	1261,55
611,25	1333,23
611,44	1347,56
611,63	1234,93
611,83	1294,32
612,02	1290,22
612,21	1290,22
612,40	1327,08
612,59	1314,80
612,79	1226,73
612,98	1251,31
613,17	1279,98
613,36	1302,51
613,55	1263,60
613,74	1288,17
613,93	1245,16
614,13	1279,98
614,32	1273,84
614,51	1368,04
614,70	1243,12
614,89	1314,80
615,08	1310,70
615,28	1347,56
615,47	1282,03
615,66	1296,36
615,85	1265,64
616,04	1239,02
616,23	1290,22
616,42	1273,84
616,62	1366,00
616,81	1312,75
617,00	1288,17
617,19	1310,70
617,38	1222,64
617,57	1290,22
617,76	1304,56
617,95	1296,36
618,15	1312,75
618,34	1247,21
618,53	1296,36
618,72	1304,56
618,91	1308,65
619,10	1259,50
619,29	1275,88
619,48	1292,27
619,68	1329,13
619,87	1245,16
620,06	1300,46
620,25	1357,80
620,44	1241,07
620,63	1259,50
620,82	1263,60
621,01	1286,12
621,20	1257,45
621,39	1290,22
621,59	1226,73
621,78	1363,95
621,97	1257,45
622,16	1325,04
622,35	1265,64
622,54	1306,60
622,73	1316,84
622,92	1286,12
623,11	1314,80
623,30	1282,03
623,49	1312,75
623,68	1273,84
623,88	1296,36
624,07	1341,42
624,26	1253,36
624,45	1277,93
624,64	1322,99
624,83	1282,03
625,02	1284,08
625,21	1308,65
625,40	1359,85
625,59	1302,51
625,78	1282,03
625,97	1316,84
626,16	1261,55
626,35	1292,27
626,54	1329,13
626,74	1251,31
626,93	1245,16
627,12	1322,99
627,31	1282,03
627,50	1300,46
627,69	1277,93
627,88	1288,17
628,07	1312,75
628,26	1210,35
628,45	1384,43
628,64	1345,52
628,83	1345,52
629,02	1298,41
629,21	1284,08
629,40	1275,88
629,59	1302,51
629,78	1275,88
629,97	1275,88
630,16	1343,47
630,35	1308,65
630,54	1318,89
630,73	1339,37
630,92	1228,78
631,11	1361,90
631,30	1298,41
631,49	1390,57
631,68	1675,24
631,87	2220,00
632,06	4544,44
632,25	8126,34
632,44	7403,41
632,63	5705,64
632,82	3909,57
633,01	2480,09
633,20	2174,94
633,39	1830,88
633,58	1804,26
633,77	1748,97
633,96	1783,78
634,15	1693,67
634,34	1650,66
634,53	1515,50
634,72	1525,74
634,91	1519,59
635,10	1449,96
635,29	1398,76
635,48	1386,47
635,67	1505,26
635,86	1400,81
636,05	1411,05
636,24	1355,76
636,43	1452,01
636,62	1355,76
636,81	1363,95
637,00	1374,19
637,19	1384,43
637,38	1427,43
637,57	1392,62
637,76	1269,74
637,95	1415,15
638,14	1294,32
638,33	1314,80
638,52	1298,41
638,71	1388,52
638,89	1304,56
639,08	1198,06
639,27	1310,70
639,46	1296,36
639,65	1310,70
639,84	1386,47
640,03	1265,64
640,22	1337,32
640,41	1312,75
640,60	1253,36
640,79	1200,11
640,98	1265,64
641,17	1300,46
641,36	1224,69
641,55	1302,51
641,74	1263,60
641,92	1312,75
642,11	1226,73
642,30	1339,37
642,49	1253,36
642,68	1292,27
642,87	1306,60
643,06	1241,07
643,25	1249,26
643,44	1286,12
643,63	1269,74
643,82	1243,12
644,00	1322,99
644,19	1322,99
644,38	1277,93
644,57	1236,97
644,76	1198,06
644,95	1271,79
645,14	1230,83
645,33	1251,31
645,52	1228,78
645,71	1271,79
645,89	1296,36
646,08	1261,55
646,27	1302,51
646,46	1249,26
646,65	1253,36
646,84	1316,84
647,03	1255,40
647,22	1224,69
647,40	1249,26
647,59	1277,93
647,78	1249,26
647,97	1300,46
648,16	1273,84
648,35	1249,26
648,54	1251,31
648,73	1306,60
648,91	1157,10
649,10	1222,64
649,29	1355,76
649,48	1241,07
649,67	1282,03
649,86	1267,69
650,05	1282,03
650,23	1286,12
650,42	1343,47
650,61	1259,50
650,80	1261,55
650,99	1267,69
651,18	1271,79
651,36	1351,66
651,55	1306,60
651,74	1298,41
651,93	1210,35
652,12	1259,50
652,31	1247,21
652,49	1312,75
652,68	1312,75
652,87	1325,04
653,06	1214,45
653,25	1220,59
653,44	1253,36
653,62	1345,52
653,81	1236,97
654,00	1290,22
654,19	1269,74
654,38	1247,21
654,56	1275,88
654,75	1214,45
654,94	1239,02
655,13	1284,08
655,32	1226,73
655,51	1265,64
655,69	1284,08
655,88	1370,09
656,07	1380,33
656,26	1271,79
656,45	1257,45
656,63	1333,23
656,82	1239,02
657,01	1241,07
657,20	1232,88
657,38	1279,98
657,57	1265,64
657,76	1335,28
657,95	1331,18
658,14	1236,97
658,32	1241,07
658,51	1265,64
658,70	1308,65
658,89	1265,64
659,08	1288,17
659,26	1241,07
659,45	1224,69
659,64	1210,35
659,83	1261,55
660,01	1318,89
660,20	1202,16
660,39	1400,81
660,58	1279,98
660,76	1257,45
660,95	1378,28
661,14	1286,12
661,33	1296,36
661,51	1228,78
661,70	1232,88
661,89	1298,41
662,08	1269,74
662,26	1236,97
662,45	1279,98
662,64	1333,23
662,83	1310,70
663,01	1204,21
663,20	1339,37
663,39	1226,73
663,58	1218,54
663,76	1183,73
663,95	1286,12
664,14	1224,69
664,32	1302,51
664,51	1247,21
664,70	1312,75
664,89	1234,93
665,07	1220,59
665,26	1282,03
665,45	1341,42
665,64	1230,83
665,82	1290,22
666,01	1249,26
666,20	1175,53
666,38	1296,36
666,57	1259,50
666,76	1267,69
666,95	1236,97
667,13	1234,93
667,32	1327,08
667,51	1263,60
667,69	1327,08
667,88	1216,49
668,07	1212,40
668,25	1279,98
668,44	1314,80
668,63	1314,80
668,81	1273,84
669,00	1267,69
669,19	1255,40
669,38	1298,41
669,56	1288,17
669,75	1249,26
669,94	1241,07
670,12	1259,50
670,31	1200,11
670,50	1292,27
670,68	1253,36
670,87	1329,13
671,06	1277,93
671,24	1257,45
671,43	1279,98
671,62	1310,70
671,80	1273,84
671,99	1218,54
672,18	1208,30
672,36	1275,88
672,55	1320,94
672,74	1267,69
672,92	1265,64
673,11	1296,36
673,29	1318,89
673,48	1339,37
673,67	1204,21
673,85	1298,41
674,04	1261,55
674,23	1224,69
674,41	1228,78
674,60	1249,26
674,79	1263,60
674,97	1294,32
675,16	1306,60
675,34	1292,27
675,53	1304,56
675,72	1236,97
675,90	1286,12
676,09	1279,98
676,28	1341,42
676,46	1269,74
676,65	1261,55
676,83	1304,56
677,02	1232,88
677,21	1220,59
677,39	1359,85
677,58	1228,78
677,77	1269,74
677,95	1265,64
678,14	1236,97
678,32	1314,80
678,51	1206,25
678,70	1341,42
678,88	1310,70
679,07	1292,27
679,25	1255,40
679,44	1329,13
679,63	1241,07
679,81	1257,45
680,00	1236,97
680,18	1271,79
680,37	1290,22
680,55	1216,49
680,74	1232,88
680,93	1265,64
681,11	1259,50
681,30	1259,50
681,48	1212,40
681,67	1261,55
681,85	1290,22
682,04	1320,94
682,23	1247,21
682,41	1249,26
682,60	1261,55
682,78	1232,88
682,97	1267,69
683,15	1220,59
683,34	1288,17
683,53	1306,60
683,71	1218,54
683,90	1316,84
684,08	1218,54
684,27	1288,17
684,45	1294,32
684,64	1239,02
684,82	1312,75
685,01	1253,36
685,19	1251,31
685,38	1290,22
685,57	1228,78
685,75	1222,64
685,94	1220,59
686,12	1368,04
686,31	1228,78
686,49	1329,13
686,68	1187,82
686,86	1329,13
687,05	1271,79
687,23	1265,64
687,42	1296,36
687,60	1263,60
687,79	1265,64
687,97	1245,16
688,16	1271,79
688,34	1294,32
688,53	1183,73
688,71	1253,36
688,90	1243,12
689,08	1228,78
689,27	1245,16
689,45	1296,36
689,64	1292,27
689,82	1273,84
690,01	1216,49
690,19	1265,64
690,38	1191,92
690,56	1257,45
690,75	1210,35
690,93	1282,03
691,12	1257,45
691,30	1351,66
691,49	1247,21
691,67	1220,59
691,86	1230,83
692,04	1271,79
692,23	1286,12
692,41	1288,17
692,60	1236,97
692,78	1232,88
692,97	1249,26
693,15	1247,21
693,34	1279,98
693,52	1279,98
693,71	1245,16
693,89	1261,55
694,08	1314,80
694,26	1216,49
694,44	1302,51
694,63	1251,31
694,81	1228,78
695,00	1265,64
695,18	1318,89
695,37	1273,84
695,55	1220,59
695,74	1249,26
695,92	1251,31
696,10	1286,12
696,29	1333,23
696,47	1263,60
696,66	1286,12
696,84	1314,80
697,03	1259,50
697,21	1310,70
697,40	1294,32
697,58	1374,19
697,76	1208,30
697,95	1275,88
698,13	1273,84
698,32	1284,08
698,50	1273,84
698,68	1308,65
698,87	1310,70
699,05	1275,88
699,24	1308,65
699,42	1193,97
699,61	1241,07
699,79	1208,30
699,97	1247,21
700,16	1234,93
700,34	1224,69
700,53	1273,84
700,71	1339,37
700,89	1251,31
701,08	1261,55
701,26	1294,32
701,45	1282,03
701,63	1259,50
701,81	1288,17
702,00	1304,56
702,18	1325,04
702,37	1325,04
702,55	1245,16
702,73	1249,26
702,92	1142,77
703,10	1230,83
703,28	1298,41
703,47	1216,49
703,65	1255,40
703,84	1296,36
704,02	1146,86
704,20	1232,88
704,39	1130,48
704,57	1312,75
704,75	1265,64
704,94	1314,80
705,12	1204,21
705,30	1157,10
705,49	1306,60
705,67	1296,36
705,86	1251,31
706,04	1200,11
706,22	1300,46
706,41	1267,69
706,59	1261,55
706,77	1304,56
706,96	1234,93
707,14	1232,88
707,32	1224,69
707,51	1261,55
707,69	1191,92
707,87	1267,69
708,06	1259,50
708,24	1271,79
708,42	1198,06
708,61	1263,60
708,79	1286,12
708,97	1222,64
709,16	1269,74
709,34	1230,83
709,52	1306,60
709,71	1257,45
709,89	1327,08
710,07	1218,54
710,26	1261,55
710,44	1308,65
710,62	1204,21
710,80	1245,16
710,99	1263,60
711,17	1314,80
711,35	1316,84
711,54	1253,36
711,72	1273,84
711,90	1259,50
712,09	1187,82
712,27	1263,60
712,45	1314,80
712,63	1245,16
712,82	1257,45
713,00	1249,26
713,18	1339,37
713,37	1279,98
713,55	1298,41
713,73	1292,27
713,91	1298,41
714,10	1314,80
714,28	1150,96
714,46	1310,70
714,65	1239,02
714,83	1267,69
715,01	1279,98
715,19	1296,36
715,38	1163,25
715,56	1181,68
715,74	1329,13
715,92	1216,49
716,11	1322,99
716,29	1245,16
716,47	1277,93
716,65	1294,32
716,84	1247,21
717,02	1234,93
717,20	1241,07
717,38	1316,84
717,57	1275,88
717,75	1226,73
717,93	1218,54
718,11	1298,41
718,30	1257,45
718,48	1234,93
718,66	1349,61
718,84	1193,97
719,03	1282,03
719,21	1292,27
719,39	1241,07
719,57	1271,79
719,75	1325,04
719,94	1327,08
720,12	1239,02
720,30	1241,07
720,48	1241,07
720,67	1263,60
720,85	1241,07
721,03	1222,64
721,21	1253,36
721,39	1271,79
721,58	1210,35
721,76	1269,74
721,94	1243,12
722,12	1208,30
722,30	1312,75
722,49	1212,40
722,67	1269,74
722,85	1261,55
723,03	1234,93
723,21	1222,64
723,40	1249,26
723,58	1214,45
723,76	1267,69
723,94	1230,83
724,12	1312,75
724,30	1327,08
724,49	1196,01
724,67	1265,64
724,85	1179,63
725,03	1302,51
725,21	1300,46
725,40	1261,55
725,58	1241,07
725,76	1273,84
725,94	1282,03
726,12	1257,45
726,30	1312,75
726,49	1341,42
726,67	1296,36
726,85	1157,10
727,03	1273,84
727,21	1279,98
727,39	1198,06
727,57	1200,11
727,76	1298,41
727,94	1263,60
728,12	1298,41
728,30	1216,49
728,48	1202,16
728,66	1271,79
728,84	1329,13
729,03	1261,55
729,21	1232,88
729,39	1284,08
729,57	1247,21
729,75	1241,07
729,93	1312,75
730,11	1271,79
730,30	1296,36
730,48	1255,40
730,66	1249,26
730,84	1259,50
731,02	1269,74
731,20	1214,45
731,38	1212,40
731,56	1282,03
731,74	1288,17
731,93	1302,51
732,11	1181,68
732,29	1243,12
732,47	1275,88
732,65	1318,89
732,83	1284,08
733,01	1220,59
733,19	1261,55
733,37	1214,45
733,56	1247,21
733,74	1261,55
733,92	1306,60
734,10	1226,73
734,28	1257,45
734,46	1290,22
734,64	1275,88
734,82	1222,64
735,00	1241,07
735,18	1279,98
735,36	1251,31
735,54	1263,60
735,73	1253,36
735,91	1214,45
736,09	1269,74
736,27	1196,01
736,45	1298,41
736,63	1312,75
736,81	1230,83
736,99	1230,83
737,17	1206,25
737,35	1325,04
737,53	1265,64
737,71	1292,27
737,89	1353,71
738,07	1183,73
738,25	1234,93
738,43	1322,99
738,61	1177,58
738,80	1300,46
738,98	1263,60
739,16	1214,45
739,34	1290,22
739,52	1277,93
739,70	1263,60
739,88	1275,88
740,06	1314,80
740,24	1253,36
740,42	1253,36
740,60	1269,74
740,78	1320,94
740,96	1269,74
741,14	1306,60
741,32	1216,49
741,50	1292,27
741,68	1294,32
741,86	1275,88
742,04	1259,50
742,22	1318,89
742,40	1257,45
742,58	1214,45
742,76	1269,74
742,94	1294,32
743,12	1269,74
743,30	1290,22
743,48	1255,40
743,66	1232,88
743,84	1290,22
744,02	1286,12
744,20	1247,21
744,38	1230,83
744,56	1243,12
744,74	1306,60
744,92	1312,75
745,10	1249,26
745,28	1282,03
745,46	1292,27
745,64	1271,79
745,82	1294,32
746,00	1329,13
746,18	1245,16
746,36	1222,64
746,54	1212,40
746,72	1241,07
746,90	1241,07
747,08	1374,19
747,26	1290,22
747,44	1247,21
747,62	1230,83
747,80	1296,36
747,98	1200,11
748,15	1292,27
748,33	1339,37
748,51	1294,32
748,69	1236,97
748,87	1198,06
749,05	1314,80
749,23	1290,22
749,41	1249,26
749,59	1310,70
749,77	1206,25
749,95	1331,18
750,13	1222,64
750,31	1288,17
750,49	1300,46
750,67	1243,12
750,85	1304,56
751,03	1322,99
751,20	1312,75
751,38	1290,22
751,56	1277,93
751,74	1255,40
751,92	1206,25
752,10	1245,16
752,28	1224,69
752,46	1335,28
752,64	1279,98
752,82	1230,83
753,00	1312,75
753,18	1214,45
753,35	1216,49
753,53	1316,84
753,71	1265,64
753,89	1239,02
754,07	1327,08
754,25	1249,26
754,43	1263,60
754,61	1245,16
754,79	1251,31
754,97	1259,50
755,14	1322,99
755,32	1234,93
755,50	1292,27
755,68	1273,84
755,86	1243,12
756,04	1183,73
756,22	1228,78
756,40	1259,50
756,57	1263,60
756,75	1204,21
756,93	1273,84
757,11	1306,60
757,29	1249,26
757,47	1202,16
757,65	1286,12
757,82	1230,83
758,00	1255,40
758,18	1220,59
758,36	1249,26
758,54	1267,69
758,72	1218,54
758,90	1249,26
759,07	1222,64
759,25	1234,93
759,43	1271,79
759,61	1267,69
759,79	1310,70
759,97	1216,49
760,15	1253,36
760,32	1269,74
760,50	1224,69
760,68	1279,98
760,86	1271,79
761,04	1189,87
761,22	1322,99
761,39	1247,21
761,57	1316,84
761,75	1210,35
761,93	1243,12
762,11	1351,66
762,28	1271,79
762,46	1265,64
762,64	1255,40
762,82	1239,02
763,00	1306,60
763,18	1320,94
763,35	1230,83
763,53	1282,03
763,71	1208,30
763,89	1241,07
764,07	1222,64
764,24	1241,07
764,42	1263,60
764,60	1296,36
764,78	1273,84
764,96	1296,36
765,13	1265,64
765,31	1273,84
765,49	1255,40
765,67	1314,80
765,84	1284,08
766,02	1222,64
766,20	1204,21
766,38	1288,17
766,56	1316,84
766,73	1259,50
766,91	1302,51
767,09	1273,84
767,27	1216,49
767,44	1325,04
767,62	1181,68
767,80	1298,41
767,98	1318,89
768,15	1294,32
768,33	1353,71
768,51	1300,46
768,69	1243,12
768,87	1200,11
769,04	1320,94
769,22	1271,79
769,40	1282,03
769,58	1335,28
769,75	1282,03
769,93	1273,84
770,11	1222,64
770,28	1247,21
770,46	1249,26
770,64	1236,97
770,82	1296,36
770,99	1269,74
771,17	1277,93
771,35	1191,92
771,53	1279,98
771,70	1273,84
771,88	1343,47
772,06	1179,63
772,23	1251,31
772,41	1320,94
772,59	1286,12
772,77	1208,30
772,94	1226,73
773,12	1279,98
773,30	1179,63
773,47	1189,87
773,65	1253,36
773,83	1339,37
774,01	1269,74
774,18	1234,93
774,36	1275,88
774,54	1259,50
774,71	1220,59
774,89	1322,99
775,07	1277,93
775,24	1239,02
775,42	1282,03
775,60	1273,84
775,78	1243,12
775,95	1261,55
776,13	1288,17
776,31	1232,88
776,48	1271,79
776,66	1261,55
776,84	1263,60
777,01	1284,08
777,19	1296,36
777,37	1210,35
777,54	1296,36
777,72	1255,40
777,90	1253,36
778,07	1253,36
778,25	1302,51
778,43	1286,12
778,60	1269,74
778,78	1286,12
778,96	1210,35
779,13	1226,73
779,31	1267,69
779,49	1181,68
779,66	1263,60
779,84	1255,40
780,01	1325,04
780,19	1296,36
780,37	1228,78
780,54	1277,93
780,72	1279,98
780,90	1230,83
781,07	1282,03
781,25	1273,84
781,43	1245,16
781,60	1230,83
781,78	1265,64
781,95	1255,40
782,13	1185,77
782,31	1183,73
782,48	1232,88
782,66	1298,41
782,83	1253,36
783,01	1204,21
783,19	1308,65
783,36	1189,87
783,54	1279,98
783,72	1288,17
783,89	1282,03
784,07	1349,61
784,24	1269,74
784,42	1228,78
784,60	1261,55
784,77	1314,80
784,95	1216,49
785,12	1241,07
785,30	1232,88
785,47	1247,21
785,65	1220,59
785,83	1275,88
786,00	1245,16
786,18	1279,98
786,35	1236,97
786,53	1222,64
786,71	1292,27
786,88	1220,59
787,06	1292,27
787,23	1267,69
787,41	1277,93
787,58	1286,12
787,76	1239,02
787,94	1259,50
788,11	1292,27
788,29	1216,49
788,46	1214,45
788,64	1228,78
788,81	1265,64
788,99	1265,64
789,16	1349,61
789,34	1261,55
789,52	1273,84
789,69	1286,12
789,87	1247,21
790,04	1314,80
790,22	1185,77
790,39	1204,21
790,57	1267,69
790,74	1236,97
790,92	1247,21
791,09	1282,03
791,27	1239,02
791,44	1257,45
791,62	1218,54
791,79	1304,56
791,97	1251,31
792,15	1304,56
792,32	1257,45
792,50	1263,60
792,67	1216,49
792,85	1302,51
793,02	1325,04
793,20	1271,79
793,37	1191,92
793,55	1320,94
793,72	1337,32
793,90	1253,36
794,07	1181,68
794,25	1273,84
794,42	1308,65
794,60	1304,56
794,77	1257,45
794,95	1302,51
795,12	1236,97
795,30	1277,93
795,47	1236,97
795,65	1261,55
795,82	1234,93
796,00	1269,74
796,17	1263,60
796,34	1296,36
796,52	1312,75
796,69	1257,45
796,87	1261,55
797,04	1241,07
797,22	1257,45
797,39	1304,56
797,57	1267,69
797,74	1191,92
797,92	1249,26
798,09	1267,69
798,27	1261,55
798,44	1335,28
798,62	1292,27
798,79	1226,73
798,96	1218,54
799,14	1282,03
799,31	1306,60
799,49	1224,69
799,66	1204,21
799,84	1290,22
800,01	1243,12
800,19	1286,12
800,36	1292,27
800,53	1236,97
800,71	1269,74
800,88	1232,88
801,06	1261,55
801,23	1335,28
801,41	1259,50
801,58	1286,12
801,75	1288,17
801,93	1279,98
802,10	1253,36
802,28	1259,50
802,45	1187,82
802,63	1253,36
802,80	1236,97
802,97	1210,35
803,15	1220,59
803,32	1300,46
803,50	1267,69
803,67	1325,04
803,84	1241,07
804,02	1308,65
804,19	1339,37
804,37	1249,26
804,54	1304,56
804,71	1236,97
804,89	1271,79
805,06	1187,82
805,24	1257,45
805,41	1290,22
805,58	1290,22
805,76	1224,69
805,93	1224,69
806,10	1267,69
806,28	1292,27
806,45	1294,32
806,63	1286,12
806,80	1208,30
806,97	1341,42
807,15	1261,55
807,32	1284,08
807,49	1247,21
807,67	1249,26
807,84	1284,08
808,01	1257,45
808,19	1310,70
808,36	1347,56
808,54	1214,45
808,71	1204,21
808,88	1273,84
809,06	1312,75
809,23	1275,88
809,40	1282,03
809,58	1224,69
809,75	1232,88
809,92	1320,94
810,10	1290,22
810,27	1308,65
810,44	1304,56
810,62	1314,80
810,79	1259,50
810,96	1269,74
811,14	1279,98
811,31	1269,74
811,48	1325,04
811,66	1279,98
811,83	1261,55
812,00	1265,64
812,18	1249,26
812,35	1234,93
812,52	1290,22
812,69	1312,75
812,87	1290,22
813,04	1251,31
813,21	1198,06
813,39	1249,26
813,56	1300,46
813,73	1255,40
813,91	1302,51
814,08	1322,99
814,25	1333,23
814,42	1226,73
814,60	1249,26
814,77	1308,65
814,94	1271,79
815,12	1198,06
815,29	1294,32
815,46	1306,60
815,63	1325,04
815,81	1351,66
815,98	1282,03
816,15	1304,56
816,33	1273,84
816,50	1267,69
816,67	1288,17
816,84	1331,18
817,02	1196,01
817,19	1239,02
817,36	1320,94
817,53	1273,84
817,71	1275,88
817,88	1267,69
818,05	1265,64
818,22	1271,79
818,40	1308,65
818,57	1304,56
818,74	1290,22
818,91	1243,12
819,09	1277,93
819,26	1232,88
819,43	1353,71
819,60	1294,32
819,78	1322,99
819,95	1214,45
820,12	1294,32
820,29	1310,70
820,47	1232,88
820,64	1193,97
820,81	1345,52
820,98	1269,74
821,15	1282,03
821,33	1269,74
821,50	1204,21
821,67	1255,40
821,84	1267,69
822,02	1257,45
822,19	1236,97
822,36	1255,40
822,53	1261,55
822,70	1245,16
822,88	1236,97
823,05	1259,50
823,22	1232,88
823,39	1294,32
823,56	1290,22
823,74	1273,84
823,91	1271,79
824,08	1298,41
824,25	1226,73
824,42	1257,45
824,60	1294,32
824,77	1329,13
824,94	1263,60
825,11	1284,08
825,28	1228,78
825,45	1257,45
825,63	1282,03
825,80	1228,78
825,97	1232,88
826,14	1279,98
826,31	1259,50
826,48	1282,03
826,66	1241,07
826,83	1290,22
827,00	1279,98
827,17	1200,11
827,34	1210,35
827,51	1232,88
827,69	1236,97
827,86	1267,69
828,03	1239,02
828,20	1277,93
828,37	1269,74
828,54	1300,46
828,71	1208,30
828,89	1239,02
829,06	1292,27
829,23	1230,83
829,40	1241,07
829,57	1255,40
829,74	1232,88
829,91	1318,89
830,09	1267,69
830,26	1273,84
830,43	1282,03
830,60	1253,36
830,77	1294,32
830,94	1245,16
831,11	1183,73
831,28	1243,12
831,46	1304,56
831,63	1279,98
831,80	1286,12
831,97	1308,65
832,14	1222,64
832,31	1249,26
832,48	1312,75
832,65	1320,94
832,82	1183,73
832,99	1198,06
833,17	1218,54
833,34	1279,98
833,51	1314,80
833,68	1290,22
833,85	1234,93
834,02	1228,78
834,19	1220,59
834,36	1275,88
834,53	1261,55
834,70	1273,84
834,87	1271,79
835,04	1294,32
835,22	1279,98
835,39	1296,36
835,56	1322,99
835,73	1275,88
835,90	1327,08
836,07	1273,84
836,24	1183,73
836,41	1212,40
836,58	1318,89
836,75	1255,40
836,92	1290,22
837,09	1245,16
837,26	1267,69
837,43	1239,02
837,60	1236,97
837,77	1298,41
837,94	1288,17
838,12	1232,88
838,29	1232,88
838,46	1198,06
838,63	1282,03
838,80	1327,08
838,97	1300,46
839,14	1265,64
839,31	1232,88
839,48	1232,88
839,65	1290,22
839,82	1331,18
839,99	1265,64
840,16	1273,84
840,33	1212,40
840,50	1269,74
840,67	1175,53
840,84	1185,77
841,01	1296,36
841,18	1329,13
841,35	1191,92
841,52	1282,03
841,69	1263,60
841,86	1257,45
842,03	1226,73
842,20	1263,60
842,37	1325,04
842,54	1290,22
842,71	1339,37
842,88	1224,69
843,05	1243,12
843,22	1271,79
843,39	1279,98
843,56	1230,83
843,73	1234,93
843,90	1257,45
844,07	1208,30
844,24	1257,45
844,41	1265,64
844,58	1388,52
844,75	1261,55
844,92	1265,64
845,09	1269,74
845,26	1351,66
845,43	1308,65
845,60	1249,26
845,77	1267,69
845,94	1298,41
846,10	1230,83
846,27	1314,80
846,44	1255,40
846,61	1249,26
846,78	1331,18
846,95	1269,74
847,12	1255,40
847,29	1249,26
847,46	1243,12
847,63	1290,22
847,80	1220,59
847,97	1282,03
848,14	1290,22
848,31	1327,08
848,48	1261,55
848,65	1228,78
848,82	1277,93
848,98	1294,32
849,15	1271,79
849,32	1243,12
849,49	1300,46
849,66	1286,12
849,83	1316,84
850,00	1245,16
850,17	1247,21
850,34	1275,88
850,51	1222,64
850,68	1296,36
850,85	1261,55
851,01	1300,46
851,18	1275,88
851,35	1282,03
851,52	1269,74
851,69	1308,65
851,86	1269,74
852,03	1216,49
852,20	1312,75
852,37	1298,41
852,53	1265,64
852,70	1290,22
852,87	1218,54
853,04	1300,46
853,21	1318,89
853,38	1226,73
853,55	1265,64
853,72	1296,36
853,89	1255,40
854,05	1279,98
854,22	1288,17
854,39	1312,75
854,56	1335,28
854,73	1226,73
854,90	1298,41
855,07	1325,04
855,23	1216,49
855,40	1316,84
855,57	1265,64
855,74	1216,49
855,91	1263,60
856,08	1232,88
856,25	1335,28
856,41	1239,02
856,58	1259,50
856,75	1232,88
856,92	1277,93
857,09	1292,27
857,26	1206,25
857,42	1247,21
857,59	1267,69
857,76	1191,92
857,93	1245,16
858,10	1298,41
858,27	1253,36
858,43	1318,89
858,60	1230,83
858,77	1269,74
858,94	1308,65
859,11	1290,22
859,27	1206,25
859,44	1331,18
859,61	1308,65
859,78	1279,98
859,95	1282,03
860,12	1306,60
860,28	1243,12
860,45	1273,84
860,62	1216,49
860,79	1286,12
860,95	1265,64
861,12	1183,73
861,29	1255,40
861,46	1271,79
861,63	1208,30
861,79	1298,41
861,96	1282,03
862,13	1316,84
862,30	1253,36
862,47	1267,69
862,63	1208,30
862,80	1273,84
862,97	1312,75
863,14	1347,56
863,30	1259,50
863,47	1288,17
863,64	1316,84
863,81	1247,21
863,97	1263,60
864,14	1255,40
864,31	1241,07
864,48	1257,45
864,65	1300,46
864,81	1286,12
864,98	1259,50
865,15	1286,12
865,32	1277,93
865,48	1257,45
865,65	1345,52
865,82	1257,45
865,98	1314,80
866,15	1271,79
866,32	1294,32
866,49	1300,46
866,65	1292,27
866,82	1249,26
866,99	1279,98
867,16	1368,04
867,32	1236,97
867,49	1290,22
867,66	1216,49
867,83	1310,70
867,99	1232,88
868,16	1306,60
868,33	1292,27
868,49	1306,60
868,66	1269,74
868,83	1228,78
868,99	1329,13
869,16	1263,60
869,33	1290,22
869,50	1275,88
869,66	1247,21
869,83	1241,07
870,00	1253,36
870,16	1304,56
870,33	1155,05
870,50	1306,60
870,66	1202,16
870,83	1304,56
871,00	1271,79
871,17	1316,84
871,33	1239,02
871,50	1304,56
871,67	1261,55
871,83	1134,57
872,00	1267,69
872,17	1216,49
872,33	1257,45
872,50	1249,26
872,67	1200,11
872,83	1279,98
873,00	1261,55
873,17	1304,56
873,33	1222,64
873,50	1306,60
873,67	1206,25
873,83	1298,41
874,00	1269,74
874,16	1189,87
874,33	1312,75
874,50	1206,25
874,66	1282,03
874,83	1230,83
875,00	1286,12
875,16	1306,60
875,33	1261,55
875,50	1298,41
875,66	1232,88
875,83	1302,51
875,99	1265,64
876,16	1286,12
876,33	1261,55
876,49	1282,03
876,66	1241,07
876,83	1286,12
876,99	1359,85
877,16	1253,36
877,32	1296,36
877,49	1290,22
877,66	1339,37
877,82	1296,36
877,99	1290,22
878,15	1241,07
878,32	1249,26
878,49	1288,17
878,65	1204,21
878,82	1277,93
878,98	1265,64
879,15	1294,32
879,32	1247,21
879,48	1277,93
879,65	1236,97
879,81	1257,45
879,98	1251,31
880,15	1294,32
880,31	1269,74
880,48	1294,32
880,64	1265,64
880,81	1236,97
880,97	1230,83
881,14	1230,83
881,31	1222,64
881,47	1261,55
881,64	1193,97
881,80	1239,02
881,97	1236,97
882,13	1337,32
882,30	1300,46
882,47	1292,27
882,63	1228,78
882,80	1314,80
882,96	1325,04
883,13	1249,26
883,29	1292,27
883,46	1247,21
883,62	1329,13
883,79	1273,84
883,95	1322,99
884,12	1265,64
884,29	1290,22
884,45	1275,88
884,62	1308,65
884,78	1282,03
884,95	1288,17
885,11	1253,36
885,28	1333,23
885,44	1325,04
885,61	1236,97
885,77	1290,22
885,94	1269,74
886,10	1236,97
886,27	1247,21
886,43	1247,21
886,60	1310,70
886,76	1275,88
886,93	1257,45
887,09	1312,75
887,26	1216,49
887,42	1320,94
887,59	1230,83
887,75	1273,84
887,92	1296,36
888,08	1196,01
888,25	1243,12
888,41	1282,03
888,58	1286,12
888,74	1331,18
888,91	1245,16
>>>>>End Processed Spectral Data<<<<<
