SpectraSuite Data File
++++++++++++++++++++++++++++++++++++
Date: Sun Apr 03 19:55:39 CEST 2016
User: root
Dark Spectrum Present: No
Reference Spectrum Present: No
Number of Sampled Component Spectra: 1
Spectrometers: USB4C02835
Integration Time (usec): 10000 (USB4C02835)
Spectra Averaged: 1 (USB4C02835)
Boxcar Smoothing: 0 (USB4C02835)
Correct for Electrical Dark: No (USB4C02835)
Strobe/Lamp Enabled: No (USB4C02835)
Correct for Detector Non-linearity: No (USB4C02835)
Correct for Stray Light: No (USB4C02835)
Number of Pixels in Processed Spectrum: 3648
>>>>>Begin Processed Spectral Data<<<<<
177,47	1253,36
177,69	1253,36
177,91	1253,36
178,13	1222,64
178,36	1249,26
178,58	1257,45
178,80	1320,94
179,02	1327,08
179,24	1306,60
179,46	1320,94
179,68	1273,84
179,90	1239,02
180,13	1302,51
180,35	1267,69
180,57	1271,79
180,79	1232,88
181,01	1241,07
181,23	1337,32
181,45	1269,74
181,67	1226,73
181,90	1265,64
182,12	1275,88
182,34	1220,59
182,56	1302,51
182,78	1253,36
183,00	1257,45
183,22	1253,36
183,44	1267,69
183,66	1273,84
183,89	1196,01
184,11	1273,84
184,33	1243,12
184,55	1224,69
184,77	1294,32
184,99	1337,32
185,21	1282,03
185,43	1331,18
185,65	1263,60
185,87	1300,46
186,10	1257,45
186,32	1300,46
186,54	1245,16
186,76	1292,27
186,98	1296,36
187,20	1247,21
187,42	1279,98
187,64	1257,45
187,86	1232,88
188,08	1218,54
188,30	1333,23
188,52	1269,74
188,75	1247,21
188,97	1243,12
189,19	1265,64
189,41	1325,04
189,63	1294,32
189,85	1222,64
190,07	1282,03
190,29	1232,88
190,51	1322,99
190,73	1320,94
190,95	1269,74
191,17	1224,69
191,39	1236,97
191,61	1314,80
191,84	1249,26
192,06	1366,00
192,28	1275,88
192,50	1255,40
192,72	1214,45
192,94	1298,41
193,16	1251,31
193,38	1296,36
193,60	1282,03
193,82	1251,31
194,04	1310,70
194,26	1275,88
194,48	1210,35
194,70	1306,60
194,92	1208,30
195,14	1243,12
195,36	1288,17
195,58	1243,12
195,80	1275,88
196,02	1273,84
196,24	1300,46
196,46	1245,16
196,69	1322,99
196,91	1279,98
197,13	1232,88
197,35	1208,30
197,57	1314,80
197,79	1316,84
198,01	1286,12
198,23	1236,97
198,45	1308,65
198,67	1241,07
198,89	1271,79
199,11	1308,65
199,33	1232,88
199,55	1234,93
199,77	1263,60
199,99	1249,26
200,21	1304,56
200,43	1234,93
200,65	1290,22
200,87	1249,26
201,09	1245,16
201,31	1261,55
201,53	1245,16
201,75	1306,60
201,97	1259,50
202,19	1300,46
202,41	1302,51
202,63	1234,93
202,85	1230,83
203,07	1212,40
203,29	1286,12
203,51	1271,79
203,73	1331,18
203,95	1339,37
204,17	1279,98
204,39	1214,45
204,61	1259,50
204,83	1257,45
205,05	1261,55
205,27	1318,89
205,49	1247,21
205,71	1314,80
205,93	1218,54
206,15	1265,64
206,37	1210,35
206,59	1222,64
206,81	1210,35
207,03	1314,80
207,25	1339,37
207,47	1218,54
207,69	1253,36
207,91	1222,64
208,13	1282,03
208,34	1302,51
208,56	1232,88
208,78	1314,80
209,00	1179,63
209,22	1304,56
209,44	1296,36
209,66	1277,93
209,88	1216,49
210,10	1263,60
210,32	1288,17
210,54	1212,40
210,76	1277,93
210,98	1251,31
211,20	1228,78
211,42	1261,55
211,64	1331,18
211,86	1257,45
212,08	1249,26
212,30	1241,07
212,52	1216,49
212,74	1259,50
212,96	1230,83
213,17	1306,60
213,39	1314,80
213,61	1316,84
213,83	1251,31
214,05	1327,08
214,27	1185,77
214,49	1265,64
214,71	1296,36
214,93	1226,73
215,15	1290,22
215,37	1267,69
215,59	1193,97
215,81	1267,69
216,03	1298,41
216,24	1296,36
216,46	1234,93
216,68	1306,60
216,90	1267,69
217,12	1200,11
217,34	1239,02
217,56	1294,32
217,78	1210,35
218,00	1261,55
218,22	1255,40
218,44	1282,03
218,66	1308,65
218,87	1304,56
219,09	1345,52
219,31	1230,83
219,53	1255,40
219,75	1294,32
219,97	1257,45
220,19	1204,21
220,41	1163,25
220,63	1308,65
220,85	1318,89
221,06	1261,55
221,28	1288,17
221,50	1279,98
221,72	1243,12
221,94	1279,98
222,16	1241,07
222,38	1241,07
222,60	1302,51
222,82	1314,80
223,03	1247,21
223,25	1259,50
223,47	1265,64
223,69	1296,36
223,91	1179,63
224,13	1224,69
224,35	1236,97
224,57	1288,17
224,78	1181,68
225,00	1290,22
225,22	1322,99
225,44	1236,97
225,66	1282,03
225,88	1304,56
226,10	1327,08
226,32	1320,94
226,53	1271,79
226,75	1265,64
226,97	1353,71
227,19	1234,93
227,41	1234,93
227,63	1275,88
227,85	1249,26
228,06	1318,89
228,28	1226,73
228,50	1300,46
228,72	1269,74
228,94	1193,97
229,16	1247,21
229,37	1267,69
229,59	1273,84
229,81	1282,03
230,03	1259,50
230,25	1308,65
230,47	1226,73
230,69	1251,31
230,90	1263,60
231,12	1257,45
231,34	1275,88
231,56	1232,88
231,78	1316,84
232,00	1304,56
232,21	1320,94
232,43	1310,70
232,65	1222,64
232,87	1318,89
233,09	1228,78
233,30	1185,77
233,52	1290,22
233,74	1345,52
233,96	1257,45
234,18	1245,16
234,40	1241,07
234,61	1232,88
234,83	1288,17
235,05	1241,07
235,27	1224,69
235,49	1304,56
235,70	1294,32
235,92	1306,60
236,14	1329,13
236,36	1208,30
236,58	1273,84
236,79	1265,64
237,01	1259,50
237,23	1239,02
237,45	1253,36
237,67	1249,26
237,88	1286,12
238,10	1322,99
238,32	1275,88
238,54	1193,97
238,76	1265,64
238,97	1363,95
239,19	1294,32
239,41	1314,80
239,63	1271,79
239,85	1234,93
240,06	1341,42
240,28	1261,55
240,50	1216,49
240,72	1298,41
240,93	1300,46
241,15	1306,60
241,37	1316,84
241,59	1306,60
241,81	1269,74
242,02	1279,98
242,24	1296,36
242,46	1232,88
242,68	1269,74
242,89	1314,80
243,11	1196,01
243,33	1261,55
243,55	1265,64
243,76	1273,84
243,98	1292,27
244,20	1308,65
244,42	1179,63
244,64	1271,79
244,85	1267,69
245,07	1236,97
245,29	1298,41
245,51	1236,97
245,72	1320,94
245,94	1232,88
246,16	1284,08
246,38	1275,88
246,59	1243,12
246,81	1228,78
247,03	1343,47
247,24	1273,84
247,46	1279,98
247,68	1224,69
247,90	1253,36
248,11	1269,74
248,33	1193,97
248,55	1253,36
248,77	1318,89
248,98	1269,74
249,20	1292,27
249,42	1222,64
249,64	1212,40
249,85	1296,36
250,07	1265,64
250,29	1271,79
250,50	1232,88
250,72	1255,40
250,94	1288,17
251,16	1327,08
251,37	1220,59
251,59	1312,75
251,81	1222,64
252,02	1236,97
252,24	1322,99
252,46	1239,02
252,68	1204,21
252,89	1370,09
253,11	1255,40
253,33	1312,75
253,54	1208,30
253,76	1316,84
253,98	1191,92
254,20	1304,56
254,41	1236,97
254,63	1273,84
254,85	1226,73
255,06	1341,42
255,28	1290,22
255,50	1261,55
255,71	1275,88
255,93	1230,83
256,15	1257,45
256,36	1257,45
256,58	1271,79
256,80	1314,80
257,02	1296,36
257,23	1290,22
257,45	1191,92
257,67	1247,21
257,88	1236,97
258,10	1320,94
258,32	1341,42
258,53	1249,26
258,75	1277,93
258,97	1228,78
259,18	1239,02
259,40	1241,07
259,62	1247,21
259,83	1257,45
260,05	1253,36
260,27	1271,79
260,48	1290,22
260,70	1282,03
260,92	1239,02
261,13	1249,26
261,35	1288,17
261,57	1204,21
261,78	1310,70
262,00	1333,23
262,22	1271,79
262,43	1234,93
262,65	1265,64
262,86	1249,26
263,08	1271,79
263,30	1255,40
263,51	1294,32
263,73	1214,45
263,95	1294,32
264,16	1294,32
264,38	1269,74
264,60	1267,69
264,81	1282,03
265,03	1263,60
265,25	1282,03
265,46	1230,83
265,68	1241,07
265,89	1241,07
266,11	1257,45
266,33	1239,02
266,54	1263,60
266,76	1261,55
266,98	1335,28
267,19	1232,88
267,41	1292,27
267,62	1382,38
267,84	1265,64
268,06	1239,02
268,27	1214,45
268,49	1347,56
268,70	1222,64
268,92	1314,80
269,14	1269,74
269,35	1230,83
269,57	1335,28
269,79	1275,88
270,00	1232,88
270,22	1253,36
270,43	1265,64
270,65	1234,93
270,87	1204,21
271,08	1341,42
271,30	1236,97
271,51	1275,88
271,73	1267,69
271,95	1263,60
272,16	1234,93
272,38	1249,26
272,59	1253,36
272,81	1294,32
273,02	1251,31
273,24	1222,64
273,46	1224,69
273,67	1263,60
273,89	1214,45
274,10	1232,88
274,32	1222,64
274,54	1286,12
274,75	1263,60
274,97	1216,49
275,18	1294,32
275,40	1300,46
275,61	1243,12
275,83	1310,70
276,05	1312,75
276,26	1257,45
276,48	1271,79
276,69	1312,75
276,91	1234,93
277,12	1286,12
277,34	1249,26
277,55	1208,30
277,77	1222,64
277,99	1196,01
278,20	1249,26
278,42	1255,40
278,63	1269,74
278,85	1282,03
279,06	1210,35
279,28	1247,21
279,49	1284,08
279,71	1282,03
279,93	1239,02
280,14	1327,08
280,36	1341,42
280,57	1282,03
280,79	1265,64
281,00	1292,27
281,22	1200,11
281,43	1279,98
281,65	1247,21
281,86	1253,36
282,08	1243,12
282,29	1198,06
282,51	1181,68
282,73	1318,89
282,94	1236,97
283,16	1361,90
283,37	1230,83
283,59	1232,88
283,80	1263,60
284,02	1255,40
284,23	1273,84
284,45	1216,49
284,66	1292,27
284,88	1265,64
285,09	1279,98
285,31	1228,78
285,52	1249,26
285,74	1214,45
285,95	1304,56
286,17	1288,17
286,38	1249,26
286,60	1232,88
286,81	1245,16
287,03	1263,60
287,24	1294,32
287,46	1273,84
287,67	1370,09
287,89	1302,51
288,10	1259,50
288,32	1206,25
288,53	1271,79
288,75	1316,84
288,96	1208,30
289,18	1292,27
289,39	1267,69
289,61	1220,59
289,82	1216,49
290,04	1335,28
290,25	1247,21
290,47	1294,32
290,68	1265,64
290,90	1331,18
291,11	1306,60
291,33	1216,49
291,54	1230,83
291,76	1261,55
291,97	1288,17
292,18	1261,55
292,40	1277,93
292,61	1267,69
292,83	1222,64
293,04	1241,07
293,26	1339,37
293,47	1277,93
293,69	1253,36
293,90	1273,84
294,12	1191,92
294,33	1228,78
294,55	1284,08
294,76	1320,94
294,97	1271,79
295,19	1265,64
295,40	1263,60
295,62	1316,84
295,83	1253,36
296,05	1304,56
296,26	1292,27
296,48	1265,64
296,69	1249,26
296,90	1228,78
297,12	1282,03
297,33	1232,88
297,55	1300,46
297,76	1286,12
297,98	1335,28
298,19	1255,40
298,41	1216,49
298,62	1294,32
298,83	1255,40
299,05	1208,30
299,26	1241,07
299,48	1239,02
299,69	1335,28
299,90	1325,04
300,12	1288,17
300,33	1269,74
300,55	1306,60
300,76	1296,36
300,98	1265,64
301,19	1290,22
301,40	1247,21
301,62	1269,74
301,83	1292,27
302,05	1302,51
302,26	1273,84
302,47	1251,31
302,69	1300,46
302,90	1263,60
303,12	1228,78
303,33	1279,98
303,54	1275,88
303,76	1236,97
303,97	1255,40
304,19	1251,31
304,40	1284,08
304,61	1288,17
304,83	1282,03
305,04	1298,41
305,26	1302,51
305,47	1239,02
305,68	1263,60
305,90	1265,64
306,11	1269,74
306,33	1267,69
306,54	1259,50
306,75	1282,03
306,97	1179,63
307,18	1251,31
307,39	1222,64
307,61	1273,84
307,82	1247,21
308,04	1200,11
308,25	1247,21
308,46	1239,02
308,68	1239,02
308,89	1241,07
309,10	1282,03
309,32	1245,16
309,53	1294,32
309,74	1239,02
309,96	1230,83
310,17	1320,94
310,39	1296,36
310,60	1212,40
310,81	1259,50
311,03	1243,12
311,24	1241,07
311,45	1257,45
311,67	1239,02
311,88	1273,84
312,09	1275,88
312,31	1333,23
312,52	1263,60
312,73	1224,69
312,95	1290,22
313,16	1349,61
313,37	1343,47
313,59	1198,06
313,80	1173,49
314,01	1271,79
314,23	1247,21
314,44	1302,51
314,65	1275,88
314,87	1251,31
315,08	1271,79
315,29	1255,40
315,51	1228,78
315,72	1273,84
315,93	1253,36
316,15	1267,69
316,36	1269,74
316,57	1304,56
316,79	1300,46
317,00	1245,16
317,21	1282,03
317,43	1312,75
317,64	1273,84
317,85	1300,46
318,07	1298,41
318,28	1232,88
318,49	1318,89
318,70	1239,02
318,92	1191,92
319,13	1296,36
319,34	1198,06
319,56	1277,93
319,77	1251,31
319,98	1290,22
320,20	1355,76
320,41	1271,79
320,62	1277,93
320,83	1241,07
321,05	1257,45
321,26	1325,04
321,47	1271,79
321,69	1267,69
321,90	1288,17
322,11	1306,60
322,32	1257,45
322,54	1255,40
322,75	1214,45
322,96	1224,69
323,18	1257,45
323,39	1284,08
323,60	1239,02
323,81	1347,56
324,03	1277,93
324,24	1249,26
324,45	1247,21
324,66	1239,02
324,88	1316,84
325,09	1249,26
325,30	1279,98
325,52	1298,41
325,73	1255,40
325,94	1263,60
326,15	1302,51
326,37	1261,55
326,58	1243,12
326,79	1318,89
327,00	1275,88
327,22	1296,36
327,43	1302,51
327,64	1310,70
327,85	1214,45
328,07	1284,08
328,28	1249,26
328,49	1257,45
328,70	1202,16
328,92	1300,46
329,13	1226,73
329,34	1279,98
329,55	1265,64
329,76	1189,87
329,98	1282,03
330,19	1294,32
330,40	1306,60
330,61	1286,12
330,83	1249,26
331,04	1300,46
331,25	1241,07
331,46	1212,40
331,68	1263,60
331,89	1275,88
332,10	1216,49
332,31	1286,12
332,52	1273,84
332,74	1318,89
332,95	1298,41
333,16	1298,41
333,37	1253,36
333,58	1259,50
333,80	1251,31
334,01	1249,26
334,22	1304,56
334,43	1380,33
334,64	1318,89
334,86	1128,43
335,07	1290,22
335,28	1312,75
335,49	1218,54
335,70	1216,49
335,92	1267,69
336,13	1286,12
336,34	1259,50
336,55	1253,36
336,76	1265,64
336,98	1232,88
337,19	1234,93
337,40	1339,37
337,61	1245,16
337,82	1318,89
338,04	1286,12
338,25	1345,52
338,46	1253,36
338,67	1220,59
338,88	1275,88
339,09	1296,36
339,31	1230,83
339,52	1232,88
339,73	1312,75
339,94	1230,83
340,15	1255,40
340,36	1257,45
340,58	1230,83
340,79	1265,64
341,00	1267,69
341,21	1265,64
341,42	1257,45
341,63	1355,76
341,85	1327,08
342,06	1247,21
342,27	1298,41
342,48	1239,02
342,69	1236,97
342,90	1251,31
343,12	1230,83
343,33	1359,85
343,54	1308,65
343,75	1292,27
343,96	1308,65
344,17	1243,12
344,38	1218,54
344,60	1247,21
344,81	1296,36
345,02	1316,84
345,23	1269,74
345,44	1222,64
345,65	1312,75
345,86	1236,97
346,07	1216,49
346,29	1273,84
346,50	1249,26
346,71	1206,25
346,92	1204,21
347,13	1245,16
347,34	1181,68
347,55	1279,98
347,76	1277,93
347,98	1216,49
348,19	1316,84
348,40	1271,79
348,61	1269,74
348,82	1255,40
349,03	1302,51
349,24	1312,75
349,45	1277,93
349,66	1224,69
349,88	1269,74
350,09	1290,22
350,30	1331,18
350,51	1183,73
350,72	1236,97
350,93	1327,08
351,14	1271,79
351,35	1275,88
351,56	1255,40
351,77	1282,03
351,99	1255,40
352,20	1322,99
352,41	1185,77
352,62	1304,56
352,83	1243,12
353,04	1284,08
353,25	1218,54
353,46	1263,60
353,67	1322,99
353,88	1200,11
354,09	1222,64
354,30	1273,84
354,52	1294,32
354,73	1249,26
354,94	1286,12
355,15	1347,56
355,36	1251,31
355,57	1255,40
355,78	1226,73
355,99	1314,80
356,20	1224,69
356,41	1273,84
356,62	1245,16
356,83	1292,27
357,04	1300,46
357,25	1312,75
357,46	1247,21
357,68	1239,02
357,89	1286,12
358,10	1234,93
358,31	1335,28
358,52	1302,51
358,73	1212,40
358,94	1298,41
359,15	1181,68
359,36	1251,31
359,57	1306,60
359,78	1259,50
359,99	1241,07
360,20	1277,93
360,41	1245,16
360,62	1243,12
360,83	1339,37
361,04	1284,08
361,25	1150,96
361,46	1300,46
361,67	1310,70
361,88	1259,50
362,09	1257,45
362,30	1290,22
362,51	1366,00
362,72	1300,46
362,93	1247,21
363,14	1294,32
363,35	1275,88
363,56	1228,78
363,78	1249,26
363,99	1265,64
364,20	1298,41
364,41	1284,08
364,62	1294,32
364,83	1345,52
365,04	1239,02
365,25	1222,64
365,46	1286,12
365,67	1269,74
365,88	1331,18
366,09	1259,50
366,30	1218,54
366,51	1245,16
366,72	1257,45
366,93	1337,32
367,14	1208,30
367,35	1261,55
367,56	1236,97
367,77	1275,88
367,98	1292,27
368,18	1222,64
368,39	1257,45
368,60	1249,26
368,81	1279,98
369,02	1294,32
369,23	1251,31
369,44	1230,83
369,65	1249,26
369,86	1241,07
370,07	1277,93
370,28	1292,27
370,49	1277,93
370,70	1263,60
370,91	1314,80
371,12	1202,16
371,33	1298,41
371,54	1255,40
371,75	1177,58
371,96	1288,17
372,17	1224,69
372,38	1257,45
372,59	1271,79
372,80	1335,28
373,01	1185,77
373,22	1234,93
373,43	1236,97
373,64	1228,78
373,85	1261,55
374,06	1290,22
374,26	1249,26
374,47	1296,36
374,68	1247,21
374,89	1327,08
375,10	1230,83
375,31	1253,36
375,52	1255,40
375,73	1306,60
375,94	1259,50
376,15	1314,80
376,36	1224,69
376,57	1202,16
376,78	1288,17
376,99	1322,99
377,20	1245,16
377,40	1232,88
377,61	1290,22
377,82	1325,04
378,03	1241,07
378,24	1286,12
378,45	1257,45
378,66	1282,03
378,87	1290,22
379,08	1320,94
379,29	1251,31
379,50	1175,53
379,71	1298,41
379,91	1263,60
380,12	1249,26
380,33	1316,84
380,54	1288,17
380,75	1243,12
380,96	1198,06
381,17	1249,26
381,38	1308,65
381,59	1267,69
381,80	1294,32
382,00	1318,89
382,21	1245,16
382,42	1249,26
382,63	1261,55
382,84	1265,64
383,05	1329,13
383,26	1271,79
383,47	1257,45
383,68	1314,80
383,88	1206,25
384,09	1296,36
384,30	1296,36
384,51	1284,08
384,72	1226,73
384,93	1359,85
385,14	1333,23
385,35	1249,26
385,55	1275,88
385,76	1239,02
385,97	1187,82
386,18	1230,83
386,39	1251,31
386,60	1312,75
386,81	1216,49
387,02	1265,64
387,22	1314,80
387,43	1271,79
387,64	1298,41
387,85	1243,12
388,06	1318,89
388,27	1224,69
388,48	1191,92
388,68	1255,40
388,89	1243,12
389,10	1236,97
389,31	1249,26
389,52	1249,26
389,73	1341,42
389,93	1241,07
390,14	1265,64
390,35	1224,69
390,56	1271,79
390,77	1224,69
390,98	1345,52
391,18	1249,26
391,39	1279,98
391,60	1286,12
391,81	1302,51
392,02	1210,35
392,23	1185,77
392,43	1347,56
392,64	1208,30
392,85	1239,02
393,06	1202,16
393,27	1259,50
393,47	1189,87
393,68	1300,46
393,89	1230,83
394,10	1341,42
394,31	1277,93
394,52	1292,27
394,72	1363,95
394,93	1263,60
395,14	1230,83
395,35	1214,45
395,56	1316,84
395,76	1230,83
395,97	1275,88
396,18	1189,87
396,39	1255,40
396,60	1210,35
396,80	1302,51
397,01	1257,45
397,22	1273,84
397,43	1269,74
397,64	1257,45
397,84	1312,75
398,05	1329,13
398,26	1318,89
398,47	1210,35
398,67	1298,41
398,88	1265,64
399,09	1290,22
399,30	1251,31
399,51	1206,25
399,71	1302,51
399,92	1306,60
400,13	1249,26
400,34	1292,27
400,54	1202,16
400,75	1234,93
400,96	1261,55
401,17	1249,26
401,37	1253,36
401,58	1259,50
401,79	1218,54
402,00	1347,56
402,21	1216,49
402,41	1271,79
402,62	1296,36
402,83	1265,64
403,04	1318,89
403,24	1224,69
403,45	1378,28
403,66	1245,16
403,87	1236,97
404,07	1210,35
404,28	1306,60
404,49	1279,98
404,70	1273,84
404,90	1243,12
405,11	1226,73
405,32	1261,55
405,52	1234,93
405,73	1259,50
405,94	1247,21
406,15	1335,28
406,35	1269,74
406,56	1226,73
406,77	1341,42
406,98	1312,75
407,18	1239,02
407,39	1292,27
407,60	1329,13
407,80	1302,51
408,01	1277,93
408,22	1320,94
408,43	1189,87
408,63	1279,98
408,84	1320,94
409,05	1202,16
409,25	1271,79
409,46	1234,93
409,67	1300,46
409,88	1288,17
410,08	1308,65
410,29	1218,54
410,50	1312,75
410,70	1277,93
410,91	1179,63
411,12	1282,03
411,32	1222,64
411,53	1234,93
411,74	1290,22
411,95	1310,70
412,15	1216,49
412,36	1265,64
412,57	1224,69
412,77	1261,55
412,98	1181,68
413,19	1257,45
413,39	1288,17
413,60	1288,17
413,81	1296,36
414,01	1255,40
414,22	1265,64
414,43	1245,16
414,63	1286,12
414,84	1277,93
415,05	1259,50
415,25	1273,84
415,46	1259,50
415,67	1282,03
415,87	1224,69
416,08	1271,79
416,29	1247,21
416,49	1243,12
416,70	1206,25
416,91	1236,97
417,11	1251,31
417,32	1257,45
417,53	1191,92
417,73	1271,79
417,94	1271,79
418,15	1288,17
418,35	1275,88
418,56	1230,83
418,77	1263,60
418,97	1189,87
419,18	1343,47
419,38	1220,59
419,59	1277,93
419,80	1331,18
420,00	1226,73
420,21	1282,03
420,42	1300,46
420,62	1271,79
420,83	1243,12
421,04	1239,02
421,24	1245,16
421,45	1271,79
421,65	1212,40
421,86	1288,17
422,07	1269,74
422,27	1189,87
422,48	1257,45
422,69	1259,50
422,89	1273,84
423,10	1226,73
423,30	1236,97
423,51	1290,22
423,72	1257,45
423,92	1294,32
424,13	1249,26
424,33	1277,93
424,54	1200,11
424,75	1273,84
424,95	1210,35
425,16	1325,04
425,36	1327,08
425,57	1312,75
425,78	1224,69
425,98	1286,12
426,19	1255,40
426,39	1236,97
426,60	1239,02
426,81	1273,84
427,01	1286,12
427,22	1239,02
427,42	1343,47
427,63	1282,03
427,83	1269,74
428,04	1331,18
428,25	1273,84
428,45	1265,64
428,66	1318,89
428,86	1273,84
429,07	1212,40
429,28	1279,98
429,48	1228,78
429,69	1275,88
429,89	1241,07
430,10	1273,84
430,30	1255,40
430,51	1261,55
430,71	1290,22
430,92	1308,65
431,13	1341,42
431,33	1230,83
431,54	1265,64
431,74	1310,70
431,95	1277,93
432,15	1284,08
432,36	1349,61
432,56	1271,79
432,77	1310,70
432,98	1284,08
433,18	1339,37
433,39	1282,03
433,59	1228,78
433,80	1320,94
434,00	1286,12
434,21	1259,50
434,41	1312,75
434,62	1351,66
434,82	1236,97
435,03	1290,22
435,23	1314,80
435,44	1282,03
435,64	1304,56
435,85	1202,16
436,06	1228,78
436,26	1288,17
436,47	1241,07
436,67	1224,69
436,88	1224,69
437,08	1304,56
437,29	1267,69
437,49	1183,73
437,70	1236,97
437,90	1222,64
438,11	1304,56
438,31	1261,55
438,52	1202,16
438,72	1290,22
438,93	1282,03
439,13	1245,16
439,34	1261,55
439,54	1271,79
439,75	1277,93
439,95	1255,40
440,16	1296,36
440,36	1331,18
440,57	1286,12
440,77	1277,93
440,98	1216,49
441,18	1267,69
441,39	1206,25
441,59	1155,05
441,80	1316,84
442,00	1265,64
442,21	1279,98
442,41	1275,88
442,62	1249,26
442,82	1302,51
443,02	1271,79
443,23	1320,94
443,43	1288,17
443,64	1257,45
443,84	1247,21
444,05	1327,08
444,25	1249,26
444,46	1333,23
444,66	1279,98
444,87	1234,93
445,07	1253,36
445,28	1267,69
445,48	1271,79
445,69	1265,64
445,89	1290,22
446,09	1236,97
446,30	1345,52
446,50	1257,45
446,71	1204,21
446,91	1224,69
447,12	1226,73
447,32	1247,21
447,53	1259,50
447,73	1249,26
447,93	1255,40
448,14	1312,75
448,34	1279,98
448,55	1296,36
448,75	1290,22
448,96	1304,56
449,16	1322,99
449,36	1306,60
449,57	1224,69
449,77	1359,85
449,98	1298,41
450,18	1243,12
450,39	1255,40
450,59	1273,84
450,79	1296,36
451,00	1243,12
451,20	1302,51
451,41	1357,80
451,61	1249,26
451,81	1271,79
452,02	1187,82
452,22	1337,32
452,43	1179,63
452,63	1277,93
452,84	1337,32
453,04	1341,42
453,24	1290,22
453,45	1234,93
453,65	1279,98
453,86	1282,03
454,06	1339,37
454,26	1282,03
454,47	1255,40
454,67	1314,80
454,87	1322,99
455,08	1290,22
455,28	1267,69
455,49	1245,16
455,69	1282,03
455,89	1257,45
456,10	1290,22
456,30	1239,02
456,51	1249,26
456,71	1277,93
456,91	1261,55
457,12	1300,46
457,32	1351,66
457,52	1275,88
457,73	1298,41
457,93	1292,27
458,14	1226,73
458,34	1271,79
458,54	1247,21
458,75	1296,36
458,95	1318,89
459,15	1279,98
459,36	1368,04
459,56	1189,87
459,76	1320,94
459,97	1290,22
460,17	1290,22
460,37	1277,93
460,58	1292,27
460,78	1292,27
460,99	1230,83
461,19	1253,36
461,39	1284,08
461,60	1306,60
461,80	1302,51
462,00	1345,52
462,21	1234,93
462,41	1363,95
462,61	1255,40
462,82	1288,17
463,02	1284,08
463,22	1288,17
463,43	1255,40
463,63	1337,32
463,83	1306,60
464,04	1300,46
464,24	1198,06
464,44	1228,78
464,64	1269,74
464,85	1314,80
465,05	1228,78
465,25	1290,22
465,46	1318,89
465,66	1249,26
465,86	1220,59
466,07	1259,50
466,27	1294,32
466,47	1300,46
466,68	1316,84
466,88	1282,03
467,08	1337,32
467,29	1296,36
467,49	1243,12
467,69	1298,41
467,89	1245,16
468,10	1290,22
468,30	1282,03
468,50	1277,93
468,71	1304,56
468,91	1312,75
469,11	1300,46
469,31	1224,69
469,52	1296,36
469,72	1318,89
469,92	1312,75
470,13	1279,98
470,33	1273,84
470,53	1284,08
470,73	1329,13
470,94	1318,89
471,14	1257,45
471,34	1216,49
471,54	1296,36
471,75	1228,78
471,95	1257,45
472,15	1320,94
472,36	1314,80
472,56	1304,56
472,76	1271,79
472,96	1314,80
473,17	1296,36
473,37	1288,17
473,57	1314,80
473,77	1255,40
473,98	1249,26
474,18	1269,74
474,38	1345,52
474,58	1298,41
474,79	1304,56
474,99	1333,23
475,19	1318,89
475,39	1339,37
475,60	1275,88
475,80	1333,23
476,00	1249,26
476,20	1222,64
476,41	1265,64
476,61	1269,74
476,81	1269,74
477,01	1212,40
477,21	1316,84
477,42	1253,36
477,62	1239,02
477,82	1304,56
478,02	1300,46
478,23	1288,17
478,43	1267,69
478,63	1259,50
478,83	1292,27
479,03	1222,64
479,24	1325,04
479,44	1224,69
479,64	1322,99
479,84	1279,98
480,04	1220,59
480,25	1241,07
480,45	1290,22
480,65	1275,88
480,85	1265,64
481,06	1148,91
481,26	1222,64
481,46	1185,77
481,66	1267,69
481,86	1322,99
482,06	1247,21
482,27	1247,21
482,47	1267,69
482,67	1290,22
482,87	1298,41
483,07	1314,80
483,28	1222,64
483,48	1265,64
483,68	1247,21
483,88	1265,64
484,08	1187,82
484,29	1286,12
484,49	1263,60
484,69	1292,27
484,89	1239,02
485,09	1239,02
485,29	1247,21
485,50	1312,75
485,70	1263,60
485,90	1277,93
486,10	1329,13
486,30	1212,40
486,50	1271,79
486,71	1284,08
486,91	1267,69
487,11	1261,55
487,31	1255,40
487,51	1288,17
487,71	1273,84
487,91	1247,21
488,12	1218,54
488,32	1318,89
488,52	1259,50
488,72	1273,84
488,92	1310,70
489,12	1263,60
489,32	1318,89
489,53	1331,18
489,73	1234,93
489,93	1226,73
490,13	1279,98
490,33	1191,92
490,53	1196,01
490,73	1179,63
490,94	1265,64
491,14	1353,71
491,34	1273,84
491,54	1234,93
491,74	1261,55
491,94	1271,79
492,14	1259,50
492,34	1269,74
492,54	1345,52
492,75	1269,74
492,95	1292,27
493,15	1247,21
493,35	1212,40
493,55	1257,45
493,75	1296,36
493,95	1263,60
494,15	1310,70
494,35	1339,37
494,56	1175,53
494,76	1292,27
494,96	1265,64
495,16	1261,55
495,36	1296,36
495,56	1294,32
495,76	1212,40
495,96	1277,93
496,16	1337,32
496,36	1224,69
496,56	1220,59
496,77	1284,08
496,97	1318,89
497,17	1239,02
497,37	1288,17
497,57	1271,79
497,77	1271,79
497,97	1310,70
498,17	1288,17
498,37	1181,68
498,57	1255,40
498,77	1284,08
498,97	1239,02
499,17	1322,99
499,38	1353,71
499,58	1322,99
499,78	1269,74
499,98	1245,16
500,18	1236,97
500,38	1292,27
500,58	1322,99
500,78	1314,80
500,98	1282,03
501,18	1245,16
501,38	1296,36
501,58	1284,08
501,78	1247,21
501,98	1282,03
502,18	1222,64
502,38	1345,52
502,58	1228,78
502,78	1251,31
502,98	1298,41
503,18	1339,37
503,38	1255,40
503,59	1226,73
503,79	1300,46
503,99	1216,49
504,19	1294,32
504,39	1318,89
504,59	1288,17
504,79	1236,97
504,99	1273,84
505,19	1300,46
505,39	1232,88
505,59	1206,25
505,79	1265,64
505,99	1282,03
506,19	1277,93
506,39	1308,65
506,59	1249,26
506,79	1239,02
506,99	1253,36
507,19	1273,84
507,39	1308,65
507,59	1236,97
507,79	1247,21
507,99	1327,08
508,19	1277,93
508,39	1288,17
508,59	1265,64
508,79	1265,64
508,99	1239,02
509,19	1339,37
509,39	1337,32
509,59	1273,84
509,79	1284,08
509,99	1224,69
510,19	1286,12
510,39	1148,91
510,59	1220,59
510,79	1263,60
510,99	1314,80
511,19	1292,27
511,39	1263,60
511,59	1261,55
511,79	1265,64
511,99	1359,85
512,19	1300,46
512,38	1286,12
512,58	1255,40
512,78	1318,89
512,98	1335,28
513,18	1349,61
513,38	1339,37
513,58	1214,45
513,78	1259,50
513,98	1273,84
514,18	1255,40
514,38	1286,12
514,58	1376,24
514,78	1249,26
514,98	1267,69
515,18	1255,40
515,38	1259,50
515,58	1222,64
515,78	1322,99
515,98	1318,89
516,18	1296,36
516,38	1298,41
516,57	1206,25
516,77	1216,49
516,97	1335,28
517,17	1304,56
517,37	1279,98
517,57	1290,22
517,77	1331,18
517,97	1265,64
518,17	1220,59
518,37	1404,91
518,57	1284,08
518,77	1288,17
518,97	1261,55
519,16	1361,90
519,36	1296,36
519,56	1355,76
519,76	1224,69
519,96	1271,79
520,16	1273,84
520,36	1222,64
520,56	1304,56
520,76	1269,74
520,96	1296,36
521,16	1247,21
521,35	1269,74
521,55	1308,65
521,75	1261,55
521,95	1265,64
522,15	1243,12
522,35	1308,65
522,55	1304,56
522,75	1292,27
522,95	1284,08
523,14	1282,03
523,34	1333,23
523,54	1296,36
523,74	1234,93
523,94	1316,84
524,14	1333,23
524,34	1275,88
524,54	1308,65
524,73	1314,80
524,93	1191,92
525,13	1275,88
525,33	1261,55
525,53	1288,17
525,73	1288,17
525,93	1269,74
526,13	1329,13
526,32	1282,03
526,52	1279,98
526,72	1275,88
526,92	1255,40
527,12	1259,50
527,32	1261,55
527,52	1359,85
527,71	1204,21
527,91	1265,64
528,11	1275,88
528,31	1290,22
528,51	1214,45
528,71	1236,97
528,90	1259,50
529,10	1230,83
529,30	1288,17
529,50	1269,74
529,70	1275,88
529,90	1310,70
530,09	1337,32
530,29	1294,32
530,49	1175,53
530,69	1310,70
530,89	1251,31
531,09	1288,17
531,28	1249,26
531,48	1279,98
531,68	1294,32
531,88	1265,64
532,08	1277,93
532,28	1331,18
532,47	1357,80
532,67	1327,08
532,87	1273,84
533,07	1279,98
533,27	1286,12
533,46	1269,74
533,66	1275,88
533,86	1284,08
534,06	1239,02
534,26	1288,17
534,45	1345,52
534,65	1318,89
534,85	1202,16
535,05	1310,70
535,25	1322,99
535,44	1267,69
535,64	1304,56
535,84	1255,40
536,04	1249,26
536,24	1269,74
536,43	1271,79
536,63	1255,40
536,83	1355,76
537,03	1306,60
537,22	1239,02
537,42	1263,60
537,62	1314,80
537,82	1380,33
538,02	1316,84
538,21	1257,45
538,41	1333,23
538,61	1282,03
538,81	1322,99
539,00	1296,36
539,20	1279,98
539,40	1273,84
539,60	1271,79
539,79	1325,04
539,99	1322,99
540,19	1316,84
540,39	1306,60
540,58	1327,08
540,78	1193,97
540,98	1320,94
541,18	1288,17
541,37	1257,45
541,57	1306,60
541,77	1241,07
541,97	1257,45
542,16	1304,56
542,36	1277,93
542,56	1355,76
542,76	1304,56
542,95	1310,70
543,15	1247,21
543,35	1306,60
543,54	1306,60
543,74	1327,08
543,94	1257,45
544,14	1290,22
544,33	1318,89
544,53	1249,26
544,73	1339,37
544,93	1374,19
545,12	1257,45
545,32	1304,56
545,52	1275,88
545,71	1284,08
545,91	1292,27
546,11	1331,18
546,30	1239,02
546,50	1271,79
546,70	1308,65
546,90	1275,88
547,09	1255,40
547,29	1263,60
547,49	1271,79
547,68	1337,32
547,88	1271,79
548,08	1286,12
548,27	1349,61
548,47	1265,64
548,67	1345,52
548,87	1290,22
549,06	1333,23
549,26	1271,79
549,46	1296,36
549,65	1239,02
549,85	1337,32
550,05	1306,60
550,24	1314,80
550,44	1277,93
550,64	1259,50
550,83	1265,64
551,03	1265,64
551,23	1275,88
551,42	1267,69
551,62	1277,93
551,82	1288,17
552,01	1331,18
552,21	1316,84
552,41	1275,88
552,60	1234,93
552,80	1249,26
553,00	1249,26
553,19	1265,64
553,39	1279,98
553,59	1269,74
553,78	1226,73
553,98	1230,83
554,17	1312,75
554,37	1271,79
554,57	1218,54
554,76	1292,27
554,96	1290,22
555,16	1208,30
555,35	1247,21
555,55	1204,21
555,75	1245,16
555,94	1286,12
556,14	1282,03
556,33	1308,65
556,53	1243,12
556,73	1337,32
556,92	1339,37
557,12	1279,98
557,32	1275,88
557,51	1320,94
557,71	1337,32
557,90	1261,55
558,10	1251,31
558,30	1290,22
558,49	1341,42
558,69	1204,21
558,88	1220,59
559,08	1279,98
559,28	1337,32
559,47	1255,40
559,67	1288,17
559,86	1267,69
560,06	1271,79
560,26	1296,36
560,45	1224,69
560,65	1345,52
560,84	1349,61
561,04	1234,93
561,24	1257,45
561,43	1388,52
561,63	1335,28
561,82	1300,46
562,02	1239,02
562,22	1312,75
562,41	1333,23
562,61	1302,51
562,80	1261,55
563,00	1298,41
563,19	1259,50
563,39	1341,42
563,59	1357,80
563,78	1304,56
563,98	1277,93
564,17	1294,32
564,37	1335,28
564,56	1208,30
564,76	1206,25
564,96	1282,03
565,15	1255,40
565,35	1224,69
565,54	1267,69
565,74	1191,92
565,93	1269,74
566,13	1322,99
566,32	1185,77
566,52	1294,32
566,71	1236,97
566,91	1269,74
567,11	1294,32
567,30	1247,21
567,50	1273,84
567,69	1279,98
567,89	1275,88
568,08	1290,22
568,28	1308,65
568,47	1306,60
568,67	1361,90
568,86	1353,71
569,06	1286,12
569,25	1277,93
569,45	1322,99
569,64	1277,93
569,84	1261,55
570,04	1333,23
570,23	1239,02
570,43	1259,50
570,62	1269,74
570,82	1271,79
571,01	1216,49
571,21	1316,84
571,40	1345,52
571,60	1290,22
571,79	1265,64
571,99	1318,89
572,18	1204,21
572,38	1253,36
572,57	1314,80
572,77	1234,93
572,96	1320,94
573,16	1259,50
573,35	1241,07
573,55	1288,17
573,74	1277,93
573,94	1286,12
574,13	1210,35
574,33	1181,68
574,52	1320,94
574,71	1333,23
574,91	1251,31
575,10	1245,16
575,30	1273,84
575,49	1329,13
575,69	1390,57
575,88	1329,13
576,08	1288,17
576,27	1318,89
576,47	1302,51
576,66	1314,80
576,86	1355,76
577,05	1294,32
577,25	1351,66
577,44	1335,28
577,64	1300,46
577,83	1288,17
578,02	1200,11
578,22	1345,52
578,41	1327,08
578,61	1249,26
578,80	1277,93
579,00	1322,99
579,19	1267,69
579,39	1308,65
579,58	1279,98
579,77	1310,70
579,97	1294,32
580,16	1284,08
580,36	1327,08
580,55	1329,13
580,75	1296,36
580,94	1374,19
581,13	1251,31
581,33	1241,07
581,52	1290,22
581,72	1351,66
581,91	1279,98
582,11	1331,18
582,30	1308,65
582,49	1298,41
582,69	1284,08
582,88	1290,22
583,08	1253,36
583,27	1337,32
583,47	1302,51
583,66	1255,40
583,85	1255,40
584,05	1241,07
584,24	1314,80
584,44	1294,32
584,63	1255,40
584,82	1298,41
585,02	1271,79
585,21	1279,98
585,41	1263,60
585,60	1368,04
585,79	1251,31
585,99	1327,08
586,18	1232,88
586,37	1259,50
586,57	1282,03
586,76	1261,55
586,96	1296,36
587,15	1314,80
587,34	1245,16
587,54	1255,40
587,73	1286,12
587,93	1245,16
588,12	1245,16
588,31	1251,31
588,51	1335,28
588,70	1216,49
588,89	1357,80
589,09	1275,88
589,28	1325,04
589,47	1361,90
589,67	1269,74
589,86	1282,03
590,06	1228,78
590,25	1265,64
590,44	1286,12
590,64	1275,88
590,83	1263,60
591,02	1265,64
591,22	1304,56
591,41	1267,69
591,60	1204,21
591,80	1300,46
591,99	1331,18
592,18	1247,21
592,38	1267,69
592,57	1263,60
592,76	1251,31
592,96	1228,78
593,15	1271,79
593,34	1312,75
593,54	1290,22
593,73	1374,19
593,92	1230,83
594,12	1236,97
594,31	1325,04
594,50	1306,60
594,70	1335,28
594,89	1353,71
595,08	1275,88
595,28	1318,89
595,47	1337,32
595,66	1255,40
595,86	1349,61
596,05	1253,36
596,24	1263,60
596,43	1298,41
596,63	1316,84
596,82	1298,41
597,01	1284,08
597,21	1253,36
597,40	1232,88
597,59	1282,03
597,79	1314,80
597,98	1286,12
598,17	1222,64
598,36	1275,88
598,56	1261,55
598,75	1265,64
598,94	1306,60
599,14	1304,56
599,33	1312,75
599,52	1318,89
599,71	1267,69
599,91	1322,99
600,10	1370,09
600,29	1284,08
600,48	1267,69
600,68	1228,78
600,87	1302,51
601,06	1308,65
601,26	1282,03
601,45	1298,41
601,64	1337,32
601,83	1257,45
602,03	1343,47
602,22	1279,98
602,41	1277,93
602,60	1243,12
602,80	1290,22
602,99	1236,97
603,18	1282,03
603,37	1308,65
603,57	1296,36
603,76	1322,99
603,95	1298,41
604,14	1316,84
604,34	1275,88
604,53	1255,40
604,72	1310,70
604,91	1196,01
605,10	1277,93
605,30	1255,40
605,49	1294,32
605,68	1294,32
605,87	1269,74
606,07	1294,32
606,26	1282,03
606,45	1214,45
606,64	1312,75
606,84	1302,51
607,03	1339,37
607,22	1255,40
607,41	1228,78
607,60	1286,12
607,80	1294,32
607,99	1314,80
608,18	1271,79
608,37	1282,03
608,56	1310,70
608,76	1378,28
608,95	1259,50
609,14	1314,80
609,33	1282,03
609,52	1298,41
609,72	1236,97
609,91	1263,60
610,10	1226,73
610,29	1275,88
610,48	1241,07
610,68	1243,12
610,87	1277,93
611,06	1271,79
611,25	1282,03
611,44	1282,03
611,63	1247,21
611,83	1277,93
612,02	1316,84
612,21	1312,75
612,40	1269,74
612,59	1239,02
612,79	1275,88
612,98	1255,40
613,17	1275,88
613,36	1290,22
613,55	1331,18
613,74	1320,94
613,93	1284,08
614,13	1239,02
614,32	1284,08
614,51	1269,74
614,70	1343,47
614,89	1255,40
615,08	1300,46
615,28	1253,36
615,47	1241,07
615,66	1275,88
615,85	1277,93
616,04	1273,84
616,23	1300,46
616,42	1327,08
616,62	1220,59
616,81	1269,74
617,00	1290,22
617,19	1263,60
617,38	1279,98
617,57	1296,36
617,76	1298,41
617,95	1351,66
618,15	1263,60
618,34	1282,03
618,53	1320,94
618,72	1296,36
618,91	1316,84
619,10	1269,74
619,29	1226,73
619,48	1245,16
619,68	1318,89
619,87	1343,47
620,06	1322,99
620,25	1265,64
620,44	1200,11
620,63	1263,60
620,82	1243,12
621,01	1241,07
621,20	1359,85
621,39	1288,17
621,59	1290,22
621,78	1255,40
621,97	1263,60
622,16	1316,84
622,35	1255,40
622,54	1374,19
622,73	1269,74
622,92	1247,21
623,11	1308,65
623,30	1331,18
623,49	1177,58
623,68	1327,08
623,88	1273,84
624,07	1273,84
624,26	1282,03
624,45	1312,75
624,64	1236,97
624,83	1282,03
625,02	1363,95
625,21	1308,65
625,40	1325,04
625,59	1298,41
625,78	1292,27
625,97	1310,70
626,16	1300,46
626,35	1265,64
626,54	1376,24
626,74	1316,84
626,93	1241,07
627,12	1314,80
627,31	1251,31
627,50	1320,94
627,69	1226,73
627,88	1320,94
628,07	1286,12
628,26	1335,28
628,45	1286,12
628,64	1316,84
628,83	1312,75
629,02	1261,55
629,21	1261,55
629,40	1282,03
629,59	1239,02
629,78	1263,60
629,97	1322,99
630,16	1392,62
630,35	1275,88
630,54	1294,32
630,73	1318,89
630,92	1290,22
631,11	1322,99
631,30	1265,64
631,49	1306,60
631,68	1398,76
631,87	1345,52
632,06	1554,41
632,25	1449,96
632,44	1495,02
632,63	1507,30
632,82	1796,07
633,01	2672,60
633,20	1841,12
633,39	1906,66
633,58	2080,74
633,77	2115,55
633,96	1855,46
634,15	1785,83
634,34	1906,66
634,53	1859,56
634,72	1800,16
634,91	1726,44
635,10	1624,04
635,29	1531,88
635,48	1482,73
635,67	1460,20
635,86	1454,06
636,05	1361,90
636,24	1433,58
636,43	1359,85
636,62	1421,29
636,81	1351,66
637,00	1331,18
637,19	1322,99
637,38	1351,66
637,57	1351,66
637,76	1361,90
637,95	1345,52
638,14	1316,84
638,33	1318,89
638,52	1302,51
638,71	1263,60
638,89	1255,40
639,08	1310,70
639,27	1212,40
639,46	1267,69
639,65	1275,88
639,84	1269,74
640,03	1282,03
640,22	1245,16
640,41	1255,40
640,60	1275,88
640,79	1257,45
640,98	1331,18
641,17	1355,76
641,36	1259,50
641,55	1288,17
641,74	1288,17
641,92	1296,36
642,11	1318,89
642,30	1304,56
642,49	1290,22
642,68	1288,17
642,87	1284,08
643,06	1296,36
643,25	1275,88
643,44	1241,07
643,63	1255,40
643,82	1314,80
644,00	1251,31
644,19	1314,80
644,38	1253,36
644,57	1288,17
644,76	1261,55
644,95	1345,52
645,14	1286,12
645,33	1318,89
645,52	1351,66
645,71	1263,60
645,89	1275,88
646,08	1282,03
646,27	1247,21
646,46	1345,52
646,65	1284,08
646,84	1249,26
647,03	1216,49
647,22	1249,26
647,40	1310,70
647,59	1239,02
647,78	1253,36
647,97	1249,26
648,16	1341,42
648,35	1232,88
648,54	1245,16
648,73	1275,88
648,91	1273,84
649,10	1312,75
649,29	1263,60
649,48	1353,71
649,67	1302,51
649,86	1314,80
650,05	1200,11
650,23	1222,64
650,42	1286,12
650,61	1230,83
650,80	1304,56
650,99	1239,02
651,18	1306,60
651,36	1322,99
651,55	1296,36
651,74	1257,45
651,93	1251,31
652,12	1245,16
652,31	1245,16
652,49	1298,41
652,68	1257,45
652,87	1243,12
653,06	1308,65
653,25	1316,84
653,44	1337,32
653,62	1335,28
653,81	1257,45
654,00	1273,84
654,19	1279,98
654,38	1294,32
654,56	1322,99
654,75	1214,45
654,94	1335,28
655,13	1304,56
655,32	1259,50
655,51	1310,70
655,69	1247,21
655,88	1288,17
656,07	1245,16
656,26	1314,80
656,45	1234,93
656,63	1232,88
656,82	1288,17
657,01	1273,84
657,20	1243,12
657,38	1392,62
657,57	1265,64
657,76	1279,98
657,95	1247,21
658,14	1214,45
658,32	1298,41
658,51	1251,31
658,70	1251,31
658,89	1232,88
659,08	1298,41
659,26	1257,45
659,45	1284,08
659,64	1286,12
659,83	1269,74
660,01	1312,75
660,20	1204,21
660,39	1239,02
660,58	1243,12
660,76	1253,36
660,95	1294,32
661,14	1282,03
661,33	1294,32
661,51	1220,59
661,70	1300,46
661,89	1206,25
662,08	1232,88
662,26	1294,32
662,45	1286,12
662,64	1290,22
662,83	1290,22
663,01	1286,12
663,20	1234,93
663,39	1300,46
663,58	1271,79
663,76	1245,16
663,95	1331,18
664,14	1273,84
664,32	1261,55
664,51	1257,45
664,70	1279,98
664,89	1220,59
665,07	1220,59
665,26	1171,44
665,45	1310,70
665,64	1245,16
665,82	1290,22
666,01	1282,03
666,20	1210,35
666,38	1224,69
666,57	1284,08
666,76	1247,21
666,95	1265,64
667,13	1294,32
667,32	1275,88
667,51	1261,55
667,69	1357,80
667,88	1322,99
668,07	1275,88
668,25	1327,08
668,44	1322,99
668,63	1304,56
668,81	1175,53
669,00	1304,56
669,19	1243,12
669,38	1310,70
669,56	1294,32
669,75	1245,16
669,94	1292,27
670,12	1261,55
670,31	1232,88
670,50	1294,32
670,68	1253,36
670,87	1318,89
671,06	1288,17
671,24	1333,23
671,43	1320,94
671,62	1366,00
671,80	1216,49
671,99	1277,93
672,18	1257,45
672,36	1251,31
672,55	1251,31
672,74	1368,04
672,92	1257,45
673,11	1200,11
673,29	1218,54
673,48	1296,36
673,67	1296,36
673,85	1230,83
674,04	1296,36
674,23	1310,70
674,41	1214,45
674,60	1247,21
674,79	1239,02
674,97	1245,16
675,16	1241,07
675,34	1275,88
675,53	1322,99
675,72	1263,60
675,90	1255,40
676,09	1253,36
676,28	1341,42
676,46	1263,60
676,65	1210,35
676,83	1314,80
677,02	1316,84
677,21	1222,64
677,39	1312,75
677,58	1236,97
677,77	1279,98
677,95	1271,79
678,14	1243,12
678,32	1259,50
678,51	1337,32
678,70	1312,75
678,88	1241,07
679,07	1341,42
679,25	1214,45
679,44	1263,60
679,63	1282,03
679,81	1273,84
680,00	1277,93
680,18	1302,51
680,37	1214,45
680,55	1259,50
680,74	1273,84
680,93	1327,08
681,11	1232,88
681,30	1232,88
681,48	1286,12
681,67	1210,35
681,85	1341,42
682,04	1294,32
682,23	1232,88
682,41	1216,49
682,60	1196,01
682,78	1308,65
682,97	1216,49
683,15	1314,80
683,34	1204,21
683,53	1261,55
683,71	1275,88
683,90	1296,36
684,08	1183,73
684,27	1290,22
684,45	1259,50
684,64	1361,90
684,82	1265,64
685,01	1216,49
685,19	1351,66
685,38	1288,17
685,57	1255,40
685,75	1232,88
685,94	1312,75
686,12	1255,40
686,31	1261,55
686,49	1339,37
686,68	1294,32
686,86	1275,88
687,05	1292,27
687,23	1325,04
687,42	1191,92
687,60	1339,37
687,79	1284,08
687,97	1318,89
688,16	1236,97
688,34	1220,59
688,53	1249,26
688,71	1249,26
688,90	1345,52
689,08	1245,16
689,27	1257,45
689,45	1279,98
689,64	1366,00
689,82	1222,64
690,01	1288,17
690,19	1200,11
690,38	1208,30
690,56	1273,84
690,75	1239,02
690,93	1253,36
691,12	1273,84
691,30	1263,60
691,49	1261,55
691,67	1279,98
691,86	1282,03
692,04	1263,60
692,23	1265,64
692,41	1273,84
692,60	1298,41
692,78	1273,84
692,97	1251,31
693,15	1265,64
693,34	1245,16
693,52	1277,93
693,71	1228,78
693,89	1302,51
694,08	1263,60
694,26	1275,88
694,44	1277,93
694,63	1218,54
694,81	1325,04
695,00	1216,49
695,18	1265,64
695,37	1339,37
695,55	1282,03
695,74	1224,69
695,92	1253,36
696,10	1282,03
696,29	1290,22
696,47	1255,40
696,66	1298,41
696,84	1308,65
697,03	1247,21
697,21	1216,49
697,40	1290,22
697,58	1226,73
697,76	1226,73
697,95	1208,30
698,13	1318,89
698,32	1255,40
698,50	1308,65
698,68	1251,31
698,87	1267,69
699,05	1302,51
699,24	1269,74
699,42	1300,46
699,61	1273,84
699,79	1288,17
699,97	1325,04
700,16	1284,08
700,34	1290,22
700,53	1306,60
700,71	1253,36
700,89	1296,36
701,08	1275,88
701,26	1279,98
701,45	1255,40
701,63	1271,79
701,81	1302,51
702,00	1345,52
702,18	1314,80
702,37	1296,36
702,55	1236,97
702,73	1259,50
702,92	1196,01
703,10	1245,16
703,28	1216,49
703,47	1216,49
703,65	1271,79
703,84	1257,45
704,02	1282,03
704,20	1290,22
704,39	1279,98
704,57	1253,36
704,75	1282,03
704,94	1325,04
705,12	1249,26
705,30	1265,64
705,49	1312,75
705,67	1288,17
705,86	1361,90
706,04	1316,84
706,22	1236,97
706,41	1288,17
706,59	1310,70
706,77	1314,80
706,96	1216,49
707,14	1300,46
707,32	1263,60
707,51	1247,21
707,69	1249,26
707,87	1277,93
708,06	1230,83
708,24	1279,98
708,42	1322,99
708,61	1282,03
708,79	1249,26
708,97	1208,30
709,16	1279,98
709,34	1245,16
709,52	1249,26
709,71	1337,32
709,89	1279,98
710,07	1271,79
710,26	1290,22
710,44	1230,83
710,62	1243,12
710,80	1261,55
710,99	1220,59
711,17	1232,88
711,35	1249,26
711,54	1243,12
711,72	1259,50
711,90	1232,88
712,09	1206,25
712,27	1284,08
712,45	1300,46
712,63	1257,45
712,82	1265,64
713,00	1273,84
713,18	1193,97
713,37	1300,46
713,55	1282,03
713,73	1314,80
713,91	1269,74
714,10	1220,59
714,28	1265,64
714,46	1306,60
714,65	1290,22
714,83	1234,93
715,01	1257,45
715,19	1253,36
715,38	1314,80
715,56	1294,32
715,74	1298,41
715,92	1306,60
716,11	1296,36
716,29	1239,02
716,47	1224,69
716,65	1249,26
716,84	1247,21
717,02	1296,36
717,20	1210,35
717,38	1245,16
717,57	1304,56
717,75	1349,61
717,93	1177,58
718,11	1196,01
718,30	1265,64
718,48	1251,31
718,66	1341,42
718,84	1247,21
719,03	1284,08
719,21	1251,31
719,39	1265,64
719,57	1273,84
719,75	1294,32
719,94	1282,03
720,12	1241,07
720,30	1181,68
720,48	1349,61
720,67	1239,02
720,85	1282,03
721,03	1298,41
721,21	1294,32
721,39	1263,60
721,58	1302,51
721,76	1345,52
721,94	1282,03
722,12	1286,12
722,30	1269,74
722,49	1241,07
722,67	1288,17
722,85	1253,36
723,03	1300,46
723,21	1318,89
723,40	1273,84
723,58	1261,55
723,76	1269,74
723,94	1251,31
724,12	1343,47
724,30	1263,60
724,49	1228,78
724,67	1253,36
724,85	1263,60
725,03	1296,36
725,21	1263,60
725,40	1325,04
725,58	1232,88
725,76	1212,40
725,94	1351,66
726,12	1288,17
726,30	1259,50
726,49	1314,80
726,67	1177,58
726,85	1249,26
727,03	1277,93
727,21	1306,60
727,39	1257,45
727,57	1255,40
727,76	1210,35
727,94	1206,25
728,12	1228,78
728,30	1277,93
728,48	1322,99
728,66	1247,21
728,84	1304,56
729,03	1189,87
729,21	1261,55
729,39	1216,49
729,57	1234,93
729,75	1228,78
729,93	1282,03
730,11	1261,55
730,30	1177,58
730,48	1361,90
730,66	1279,98
730,84	1302,51
731,02	1261,55
731,20	1335,28
731,38	1288,17
731,56	1228,78
731,74	1245,16
731,93	1222,64
732,11	1306,60
732,29	1249,26
732,47	1243,12
732,65	1247,21
732,83	1234,93
733,01	1277,93
733,19	1271,79
733,37	1294,32
733,56	1247,21
733,74	1243,12
733,92	1275,88
734,10	1198,06
734,28	1222,64
734,46	1316,84
734,64	1245,16
734,82	1259,50
735,00	1228,78
735,18	1306,60
735,36	1243,12
735,54	1318,89
735,73	1243,12
735,91	1234,93
736,09	1236,97
736,27	1230,83
736,45	1279,98
736,63	1275,88
736,81	1312,75
736,99	1288,17
737,17	1224,69
737,35	1214,45
737,53	1247,21
737,71	1306,60
737,89	1214,45
738,07	1243,12
738,25	1245,16
738,43	1247,21
738,61	1234,93
738,80	1296,36
738,98	1232,88
739,16	1247,21
739,34	1310,70
739,52	1224,69
739,70	1257,45
739,88	1263,60
740,06	1212,40
740,24	1267,69
740,42	1275,88
740,60	1284,08
740,78	1228,78
740,96	1382,38
741,14	1204,21
741,32	1271,79
741,50	1294,32
741,68	1284,08
741,86	1243,12
742,04	1265,64
742,22	1275,88
742,40	1191,92
742,58	1239,02
742,76	1247,21
742,94	1204,21
743,12	1259,50
743,30	1275,88
743,48	1284,08
743,66	1263,60
743,84	1290,22
744,02	1261,55
744,20	1388,52
744,38	1259,50
744,56	1296,36
744,74	1286,12
744,92	1298,41
745,10	1271,79
745,28	1236,97
745,46	1275,88
745,64	1255,40
745,82	1179,63
746,00	1282,03
746,18	1234,93
746,36	1279,98
746,54	1386,47
746,72	1308,65
746,90	1327,08
747,08	1234,93
747,26	1261,55
747,44	1222,64
747,62	1282,03
747,80	1341,42
747,98	1232,88
748,15	1361,90
748,33	1279,98
748,51	1320,94
748,69	1284,08
748,87	1224,69
749,05	1265,64
749,23	1290,22
749,41	1290,22
749,59	1282,03
749,77	1249,26
749,95	1267,69
750,13	1230,83
750,31	1253,36
750,49	1253,36
750,67	1228,78
750,85	1239,02
751,03	1239,02
751,20	1298,41
751,38	1239,02
751,56	1245,16
751,74	1378,28
751,92	1273,84
752,10	1271,79
752,28	1284,08
752,46	1232,88
752,64	1234,93
752,82	1316,84
753,00	1212,40
753,18	1216,49
753,35	1239,02
753,53	1271,79
753,71	1263,60
753,89	1269,74
754,07	1224,69
754,25	1316,84
754,43	1294,32
754,61	1308,65
754,79	1251,31
754,97	1316,84
755,14	1292,27
755,32	1208,30
755,50	1204,21
755,68	1249,26
755,86	1269,74
756,04	1290,22
756,22	1290,22
756,40	1341,42
756,57	1277,93
756,75	1241,07
756,93	1279,98
757,11	1318,89
757,29	1212,40
757,47	1282,03
757,65	1247,21
757,82	1327,08
758,00	1179,63
758,18	1300,46
758,36	1214,45
758,54	1249,26
758,72	1259,50
758,90	1230,83
759,07	1306,60
759,25	1265,64
759,43	1245,16
759,61	1206,25
759,79	1312,75
759,97	1234,93
760,15	1243,12
760,32	1241,07
760,50	1257,45
760,68	1282,03
760,86	1312,75
761,04	1320,94
761,22	1204,21
761,39	1273,84
761,57	1394,67
761,75	1239,02
761,93	1329,13
762,11	1243,12
762,28	1255,40
762,46	1325,04
762,64	1286,12
762,82	1271,79
763,00	1212,40
763,18	1232,88
763,35	1236,97
763,53	1257,45
763,71	1259,50
763,89	1228,78
764,07	1267,69
764,24	1282,03
764,42	1245,16
764,60	1230,83
764,78	1163,25
764,96	1257,45
765,13	1226,73
765,31	1206,25
765,49	1294,32
765,67	1273,84
765,84	1279,98
766,02	1282,03
766,20	1236,97
766,38	1224,69
766,56	1294,32
766,73	1259,50
766,91	1327,08
767,09	1265,64
767,27	1261,55
767,44	1228,78
767,62	1187,82
767,80	1218,54
767,98	1220,59
768,15	1273,84
768,33	1271,79
768,51	1318,89
768,69	1322,99
768,87	1241,07
769,04	1232,88
769,22	1376,24
769,40	1228,78
769,58	1179,63
769,75	1253,36
769,93	1222,64
770,11	1308,65
770,28	1318,89
770,46	1224,69
770,64	1265,64
770,82	1261,55
770,99	1257,45
771,17	1218,54
771,35	1216,49
771,53	1265,64
771,70	1206,25
771,88	1204,21
772,06	1314,80
772,23	1275,88
772,41	1251,31
772,59	1234,93
772,77	1222,64
772,94	1261,55
773,12	1335,28
773,30	1243,12
773,47	1245,16
773,65	1271,79
773,83	1255,40
774,01	1198,06
774,18	1273,84
774,36	1243,12
774,54	1247,21
774,71	1314,80
774,89	1230,83
775,07	1265,64
775,24	1273,84
775,42	1277,93
775,60	1298,41
775,78	1286,12
775,95	1212,40
776,13	1247,21
776,31	1230,83
776,48	1210,35
776,66	1290,22
776,84	1312,75
777,01	1269,74
777,19	1308,65
777,37	1187,82
777,54	1216,49
777,72	1259,50
777,90	1318,89
778,07	1273,84
778,25	1284,08
778,43	1269,74
778,60	1279,98
778,78	1316,84
778,96	1269,74
779,13	1267,69
779,31	1224,69
779,49	1329,13
779,66	1306,60
779,84	1216,49
780,01	1288,17
780,19	1284,08
780,37	1261,55
780,54	1267,69
780,72	1290,22
780,90	1306,60
781,07	1304,56
781,25	1306,60
781,43	1230,83
781,60	1243,12
781,78	1288,17
781,95	1277,93
782,13	1202,16
782,31	1286,12
782,48	1277,93
782,66	1288,17
782,83	1236,97
783,01	1232,88
783,19	1296,36
783,36	1331,18
783,54	1230,83
783,72	1236,97
783,89	1282,03
784,07	1255,40
784,24	1216,49
784,42	1267,69
784,60	1232,88
784,77	1255,40
784,95	1257,45
785,12	1253,36
785,30	1288,17
785,47	1247,21
785,65	1277,93
785,83	1169,39
786,00	1232,88
786,18	1288,17
786,35	1277,93
786,53	1245,16
786,71	1290,22
786,88	1230,83
787,06	1257,45
787,23	1245,16
787,41	1236,97
787,58	1267,69
787,76	1310,70
787,94	1257,45
788,11	1230,83
788,29	1239,02
788,46	1320,94
788,64	1245,16
788,81	1228,78
788,99	1218,54
789,16	1220,59
789,34	1183,73
789,52	1224,69
789,69	1320,94
789,87	1198,06
790,04	1284,08
790,22	1302,51
790,39	1292,27
790,57	1290,22
790,74	1181,68
790,92	1212,40
791,09	1198,06
791,27	1314,80
791,44	1208,30
791,62	1271,79
791,79	1290,22
791,97	1273,84
792,15	1302,51
792,32	1263,60
792,50	1155,05
792,67	1292,27
792,85	1228,78
793,02	1380,33
793,20	1275,88
793,37	1310,70
793,55	1277,93
793,72	1277,93
793,90	1255,40
794,07	1230,83
794,25	1275,88
794,42	1212,40
794,60	1255,40
794,77	1259,50
794,95	1155,05
795,12	1265,64
795,30	1208,30
795,47	1277,93
795,65	1265,64
795,82	1265,64
796,00	1216,49
796,17	1277,93
796,34	1148,91
796,52	1322,99
796,69	1232,88
796,87	1300,46
797,04	1232,88
797,22	1257,45
797,39	1228,78
797,57	1292,27
797,74	1245,16
797,92	1267,69
798,09	1251,31
798,27	1347,56
798,44	1286,12
798,62	1220,59
798,79	1320,94
798,96	1282,03
799,14	1245,16
799,31	1275,88
799,49	1220,59
799,66	1193,97
799,84	1290,22
800,01	1339,37
800,19	1165,29
800,36	1275,88
800,53	1245,16
800,71	1234,93
800,88	1312,75
801,06	1282,03
801,23	1247,21
801,41	1249,26
801,58	1273,84
801,75	1224,69
801,93	1277,93
802,10	1316,84
802,28	1353,71
802,45	1271,79
802,63	1191,92
802,80	1294,32
802,97	1265,64
803,15	1298,41
803,32	1347,56
803,50	1239,02
803,67	1265,64
803,84	1212,40
804,02	1265,64
804,19	1212,40
804,37	1226,73
804,54	1277,93
804,71	1306,60
804,89	1275,88
805,06	1230,83
805,24	1284,08
805,41	1255,40
805,58	1179,63
805,76	1271,79
805,93	1273,84
806,10	1247,21
806,28	1220,59
806,45	1167,34
806,63	1325,04
806,80	1290,22
806,97	1228,78
807,15	1275,88
807,32	1294,32
807,49	1251,31
807,67	1224,69
807,84	1263,60
808,01	1282,03
808,19	1298,41
808,36	1208,30
808,54	1232,88
808,71	1239,02
808,88	1306,60
809,06	1277,93
809,23	1312,75
809,40	1275,88
809,58	1239,02
809,75	1265,64
809,92	1286,12
810,10	1288,17
810,27	1236,97
810,44	1220,59
810,62	1212,40
810,79	1284,08
810,96	1257,45
811,14	1284,08
811,31	1294,32
811,48	1265,64
811,66	1302,51
811,83	1253,36
812,00	1304,56
812,18	1327,08
812,35	1296,36
812,52	1239,02
812,69	1292,27
812,87	1196,01
813,04	1255,40
813,21	1286,12
813,39	1290,22
813,56	1173,49
813,73	1333,23
813,91	1228,78
814,08	1263,60
814,25	1234,93
814,42	1361,90
814,60	1327,08
814,77	1255,40
814,94	1263,60
815,12	1210,35
815,29	1251,31
815,46	1271,79
815,63	1304,56
815,81	1308,65
815,98	1210,35
816,15	1230,83
816,33	1279,98
816,50	1296,36
816,67	1294,32
816,84	1257,45
817,02	1277,93
817,19	1208,30
817,36	1193,97
817,53	1239,02
817,71	1261,55
817,88	1265,64
818,05	1208,30
818,22	1269,74
818,40	1259,50
818,57	1218,54
818,74	1269,74
818,91	1241,07
819,09	1282,03
819,26	1310,70
819,43	1239,02
819,60	1265,64
819,78	1271,79
819,95	1359,85
820,12	1318,89
820,29	1245,16
820,47	1261,55
820,64	1202,16
820,81	1236,97
820,98	1284,08
821,15	1257,45
821,33	1279,98
821,50	1322,99
821,67	1249,26
821,84	1308,65
822,02	1267,69
822,19	1275,88
822,36	1273,84
822,53	1253,36
822,70	1177,58
822,88	1206,25
823,05	1234,93
823,22	1310,70
823,39	1286,12
823,56	1251,31
823,74	1288,17
823,91	1288,17
824,08	1308,65
824,25	1302,51
824,42	1271,79
824,60	1230,83
824,77	1292,27
824,94	1267,69
825,11	1249,26
825,28	1298,41
825,45	1286,12
825,63	1279,98
825,80	1279,98
825,97	1191,92
826,14	1298,41
826,31	1273,84
826,48	1273,84
826,66	1212,40
826,83	1228,78
827,00	1241,07
827,17	1316,84
827,34	1265,64
827,51	1273,84
827,69	1239,02
827,86	1361,90
828,03	1314,80
828,20	1247,21
828,37	1208,30
828,54	1288,17
828,71	1343,47
828,89	1312,75
829,06	1298,41
829,23	1304,56
829,40	1236,97
829,57	1288,17
829,74	1216,49
829,91	1263,60
830,09	1251,31
830,26	1300,46
830,43	1282,03
830,60	1251,31
830,77	1273,84
830,94	1349,61
831,11	1314,80
831,28	1198,06
831,46	1249,26
831,63	1271,79
831,80	1349,61
831,97	1290,22
832,14	1298,41
832,31	1333,23
832,48	1306,60
832,65	1294,32
832,82	1208,30
832,99	1236,97
833,17	1230,83
833,34	1279,98
833,51	1222,64
833,68	1234,93
833,85	1318,89
834,02	1255,40
834,19	1185,77
834,36	1265,64
834,53	1265,64
834,70	1269,74
834,87	1275,88
835,04	1165,29
835,22	1314,80
835,39	1386,47
835,56	1273,84
835,73	1247,21
835,90	1224,69
836,07	1288,17
836,24	1308,65
836,41	1271,79
836,58	1275,88
836,75	1239,02
836,92	1210,35
837,09	1318,89
837,26	1243,12
837,43	1302,51
837,60	1247,21
837,77	1249,26
837,94	1282,03
838,12	1255,40
838,29	1269,74
838,46	1232,88
838,63	1263,60
838,80	1228,78
838,97	1290,22
839,14	1310,70
839,31	1282,03
839,48	1189,87
839,65	1218,54
839,82	1296,36
839,99	1337,32
840,16	1159,15
840,33	1245,16
840,50	1288,17
840,67	1251,31
840,84	1265,64
841,01	1245,16
841,18	1230,83
841,35	1245,16
841,52	1224,69
841,69	1329,13
841,86	1343,47
842,03	1308,65
842,20	1265,64
842,37	1243,12
842,54	1193,97
842,71	1306,60
842,88	1198,06
843,05	1329,13
843,22	1296,36
843,39	1302,51
843,56	1267,69
843,73	1341,42
843,90	1218,54
844,07	1224,69
844,24	1286,12
844,41	1292,27
844,58	1257,45
844,75	1232,88
844,92	1279,98
845,09	1284,08
845,26	1275,88
845,43	1261,55
845,60	1271,79
845,77	1273,84
845,94	1273,84
846,10	1292,27
846,27	1212,40
846,44	1249,26
846,61	1224,69
846,78	1220,59
846,95	1247,21
847,12	1267,69
847,29	1259,50
847,46	1247,21
847,63	1306,60
847,80	1210,35
847,97	1279,98
848,14	1214,45
848,31	1294,32
848,48	1300,46
848,65	1298,41
848,82	1298,41
848,98	1288,17
849,15	1273,84
849,32	1302,51
849,49	1177,58
849,66	1271,79
849,83	1212,40
850,00	1249,26
850,17	1322,99
850,34	1277,93
850,51	1222,64
850,68	1222,64
850,85	1288,17
851,01	1288,17
851,18	1279,98
851,35	1349,61
851,52	1282,03
851,69	1277,93
851,86	1273,84
852,03	1277,93
852,20	1339,37
852,37	1273,84
852,53	1282,03
852,70	1239,02
852,87	1251,31
853,04	1257,45
853,21	1181,68
853,38	1357,80
853,55	1249,26
853,72	1361,90
853,89	1282,03
854,05	1247,21
854,22	1306,60
854,39	1198,06
854,56	1329,13
854,73	1275,88
854,90	1273,84
855,07	1273,84
855,23	1259,50
855,40	1210,35
855,57	1130,48
855,74	1249,26
855,91	1218,54
856,08	1296,36
856,25	1191,92
856,41	1294,32
856,58	1249,26
856,75	1273,84
856,92	1241,07
857,09	1282,03
857,26	1294,32
857,42	1239,02
857,59	1208,30
857,76	1349,61
857,93	1277,93
858,10	1253,36
858,27	1241,07
858,43	1230,83
858,60	1253,36
858,77	1279,98
858,94	1251,31
859,11	1282,03
859,27	1337,32
859,44	1230,83
859,61	1220,59
859,78	1294,32
859,95	1249,26
860,12	1288,17
860,28	1226,73
860,45	1222,64
860,62	1286,12
860,79	1279,98
860,95	1257,45
861,12	1220,59
861,29	1241,07
861,46	1206,25
861,63	1251,31
861,79	1247,21
861,96	1282,03
862,13	1210,35
862,30	1255,40
862,47	1210,35
862,63	1249,26
862,80	1304,56
862,97	1271,79
863,14	1282,03
863,30	1253,36
863,47	1253,36
863,64	1216,49
863,81	1271,79
863,97	1288,17
864,14	1255,40
864,31	1384,43
864,48	1265,64
864,65	1208,30
864,81	1290,22
864,98	1216,49
865,15	1273,84
865,32	1298,41
865,48	1296,36
865,65	1265,64
865,82	1312,75
865,98	1198,06
866,15	1253,36
866,32	1228,78
866,49	1282,03
866,65	1202,16
866,82	1245,16
866,99	1308,65
867,16	1255,40
867,32	1146,86
867,49	1300,46
867,66	1290,22
867,83	1337,32
867,99	1220,59
868,16	1198,06
868,33	1212,40
868,49	1290,22
868,66	1306,60
868,83	1253,36
868,99	1279,98
869,16	1282,03
869,33	1298,41
869,50	1263,60
869,66	1271,79
869,83	1210,35
870,00	1271,79
870,16	1247,21
870,33	1314,80
870,50	1257,45
870,66	1236,97
870,83	1261,55
871,00	1216,49
871,17	1247,21
871,33	1210,35
871,50	1261,55
871,67	1232,88
871,83	1384,43
872,00	1308,65
872,17	1265,64
872,33	1282,03
872,50	1247,21
872,67	1294,32
872,83	1257,45
873,00	1216,49
873,17	1322,99
873,33	1325,04
873,50	1271,79
873,67	1220,59
873,83	1183,73
874,00	1265,64
874,16	1282,03
874,33	1269,74
874,50	1267,69
874,66	1300,46
874,83	1333,23
875,00	1243,12
875,16	1204,21
875,33	1245,16
875,50	1247,21
875,66	1196,01
875,83	1284,08
875,99	1306,60
876,16	1251,31
876,33	1142,77
876,49	1163,25
876,66	1320,94
876,83	1253,36
876,99	1245,16
877,16	1273,84
877,32	1273,84
877,49	1341,42
877,66	1329,13
877,82	1290,22
877,99	1222,64
878,15	1296,36
878,32	1302,51
878,49	1159,15
878,65	1316,84
878,82	1279,98
878,98	1241,07
879,15	1312,75
879,32	1298,41
879,48	1232,88
879,65	1275,88
879,81	1232,88
879,98	1351,66
880,15	1320,94
880,31	1239,02
880,48	1265,64
880,64	1239,02
880,81	1271,79
880,97	1265,64
881,14	1374,19
881,31	1241,07
881,47	1261,55
881,64	1245,16
881,80	1306,60
881,97	1286,12
882,13	1306,60
882,30	1329,13
882,47	1335,28
882,63	1292,27
882,80	1245,16
882,96	1257,45
883,13	1267,69
883,29	1257,45
883,46	1247,21
883,62	1310,70
883,79	1232,88
883,95	1277,93
884,12	1298,41
884,29	1306,60
884,45	1224,69
884,62	1222,64
884,78	1263,60
884,95	1216,49
885,11	1241,07
885,28	1243,12
885,44	1308,65
885,61	1304,56
885,77	1187,82
885,94	1310,70
886,10	1271,79
886,27	1318,89
886,43	1275,88
886,60	1245,16
886,76	1298,41
886,93	1304,56
887,09	1304,56
887,26	1292,27
887,42	1298,41
887,59	1271,79
887,75	1241,07
887,92	1230,83
888,08	1263,60
888,25	1322,99
888,41	1288,17
888,58	1329,13
888,74	1210,35
888,91	1234,93
>>>>>End Processed Spectral Data<<<<<
