SpectraSuite Data File
++++++++++++++++++++++++++++++++++++
Date: Sun Apr 03 19:55:15 CEST 2016
User: root
Dark Spectrum Present: No
Reference Spectrum Present: No
Number of Sampled Component Spectra: 1
Spectrometers: USB4C02835
Integration Time (usec): 10000 (USB4C02835)
Spectra Averaged: 1 (USB4C02835)
Boxcar Smoothing: 0 (USB4C02835)
Correct for Electrical Dark: No (USB4C02835)
Strobe/Lamp Enabled: No (USB4C02835)
Correct for Detector Non-linearity: No (USB4C02835)
Correct for Stray Light: No (USB4C02835)
Number of Pixels in Processed Spectrum: 3648
>>>>>Begin Processed Spectral Data<<<<<
177,47	1265,64
177,69	1265,64
177,91	1265,64
178,13	1273,84
178,36	1286,12
178,58	1239,02
178,80	1220,59
179,02	1220,59
179,24	1257,45
179,46	1234,93
179,68	1265,64
179,90	1302,51
180,13	1177,58
180,35	1296,36
180,57	1251,31
180,79	1200,11
181,01	1228,78
181,23	1245,16
181,45	1232,88
181,67	1267,69
181,90	1273,84
182,12	1320,94
182,34	1255,40
182,56	1196,01
182,78	1167,34
183,00	1216,49
183,22	1251,31
183,44	1245,16
183,66	1249,26
183,89	1304,56
184,11	1265,64
184,33	1263,60
184,55	1290,22
184,77	1267,69
184,99	1273,84
185,21	1228,78
185,43	1224,69
185,65	1251,31
185,87	1236,97
186,10	1306,60
186,32	1339,37
186,54	1257,45
186,76	1255,40
186,98	1236,97
187,20	1259,50
187,42	1198,06
187,64	1228,78
187,86	1300,46
188,08	1259,50
188,30	1286,12
188,52	1232,88
188,75	1218,54
188,97	1265,64
189,19	1318,89
189,41	1296,36
189,63	1275,88
189,85	1282,03
190,07	1288,17
190,29	1259,50
190,51	1298,41
190,73	1273,84
190,95	1247,21
191,17	1234,93
191,39	1241,07
191,61	1257,45
191,84	1335,28
192,06	1310,70
192,28	1306,60
192,50	1325,04
192,72	1241,07
192,94	1308,65
193,16	1290,22
193,38	1282,03
193,60	1245,16
193,82	1337,32
194,04	1251,31
194,26	1206,25
194,48	1277,93
194,70	1208,30
194,92	1232,88
195,14	1300,46
195,36	1251,31
195,58	1316,84
195,80	1243,12
196,02	1265,64
196,24	1300,46
196,46	1310,70
196,69	1187,82
196,91	1277,93
197,13	1249,26
197,35	1236,97
197,57	1259,50
197,79	1318,89
198,01	1234,93
198,23	1249,26
198,45	1200,11
198,67	1241,07
198,89	1206,25
199,11	1275,88
199,33	1220,59
199,55	1247,21
199,77	1279,98
199,99	1298,41
200,21	1208,30
200,43	1222,64
200,65	1230,83
200,87	1216,49
201,09	1314,80
201,31	1277,93
201,53	1286,12
201,75	1298,41
201,97	1363,95
202,19	1261,55
202,41	1239,02
202,63	1341,42
202,85	1312,75
203,07	1316,84
203,29	1300,46
203,51	1267,69
203,73	1263,60
203,95	1329,13
204,17	1228,78
204,39	1282,03
204,61	1296,36
204,83	1275,88
205,05	1267,69
205,27	1314,80
205,49	1232,88
205,71	1263,60
205,93	1265,64
206,15	1249,26
206,37	1241,07
206,59	1249,26
206,81	1265,64
207,03	1298,41
207,25	1255,40
207,47	1288,17
207,69	1288,17
207,91	1247,21
208,13	1318,89
208,34	1277,93
208,56	1247,21
208,78	1265,64
209,00	1222,64
209,22	1220,59
209,44	1277,93
209,66	1228,78
209,88	1318,89
210,10	1290,22
210,32	1275,88
210,54	1232,88
210,76	1288,17
210,98	1296,36
211,20	1279,98
211,42	1312,75
211,64	1277,93
211,86	1294,32
212,08	1226,73
212,30	1279,98
212,52	1304,56
212,74	1306,60
212,96	1239,02
213,17	1300,46
213,39	1253,36
213,61	1222,64
213,83	1282,03
214,05	1273,84
214,27	1257,45
214,49	1249,26
214,71	1335,28
214,93	1347,56
215,15	1294,32
215,37	1269,74
215,59	1239,02
215,81	1325,04
216,03	1226,73
216,24	1241,07
216,46	1263,60
216,68	1261,55
216,90	1159,15
217,12	1218,54
217,34	1282,03
217,56	1286,12
217,78	1245,16
218,00	1286,12
218,22	1298,41
218,44	1249,26
218,66	1306,60
218,87	1271,79
219,09	1290,22
219,31	1249,26
219,53	1308,65
219,75	1273,84
219,97	1279,98
220,19	1204,21
220,41	1228,78
220,63	1269,74
220,85	1218,54
221,06	1228,78
221,28	1247,21
221,50	1282,03
221,72	1249,26
221,94	1257,45
222,16	1351,66
222,38	1273,84
222,60	1263,60
222,82	1372,14
223,03	1282,03
223,25	1277,93
223,47	1298,41
223,69	1282,03
223,91	1284,08
224,13	1300,46
224,35	1306,60
224,57	1224,69
224,78	1214,45
225,00	1273,84
225,22	1239,02
225,44	1390,57
225,66	1243,12
225,88	1187,82
226,10	1255,40
226,32	1236,97
226,53	1189,87
226,75	1277,93
226,97	1239,02
227,19	1372,14
227,41	1243,12
227,63	1322,99
227,85	1277,93
228,06	1288,17
228,28	1220,59
228,50	1320,94
228,72	1279,98
228,94	1259,50
229,16	1214,45
229,37	1259,50
229,59	1239,02
229,81	1345,52
230,03	1265,64
230,25	1216,49
230,47	1243,12
230,69	1224,69
230,90	1239,02
231,12	1247,21
231,34	1269,74
231,56	1251,31
231,78	1222,64
232,00	1286,12
232,21	1275,88
232,43	1314,80
232,65	1234,93
232,87	1290,22
233,09	1228,78
233,30	1292,27
233,52	1284,08
233,74	1245,16
233,96	1279,98
234,18	1212,40
234,40	1279,98
234,61	1232,88
234,83	1255,40
235,05	1271,79
235,27	1261,55
235,49	1349,61
235,70	1220,59
235,92	1265,64
236,14	1253,36
236,36	1284,08
236,58	1230,83
236,79	1257,45
237,01	1267,69
237,23	1255,40
237,45	1288,17
237,67	1288,17
237,88	1189,87
238,10	1210,35
238,32	1232,88
238,54	1306,60
238,76	1222,64
238,97	1363,95
239,19	1226,73
239,41	1273,84
239,63	1216,49
239,85	1222,64
240,06	1263,60
240,28	1290,22
240,50	1275,88
240,72	1284,08
240,93	1349,61
241,15	1282,03
241,37	1220,59
241,59	1249,26
241,81	1273,84
242,02	1130,48
242,24	1325,04
242,46	1204,21
242,68	1265,64
242,89	1271,79
243,11	1220,59
243,33	1249,26
243,55	1245,16
243,76	1306,60
243,98	1259,50
244,20	1263,60
244,42	1263,60
244,64	1302,51
244,85	1271,79
245,07	1267,69
245,29	1273,84
245,51	1255,40
245,72	1277,93
245,94	1269,74
246,16	1282,03
246,38	1316,84
246,59	1187,82
246,81	1222,64
247,03	1191,92
247,24	1216,49
247,46	1316,84
247,68	1310,70
247,90	1279,98
248,11	1308,65
248,33	1351,66
248,55	1241,07
248,77	1261,55
248,98	1208,30
249,20	1228,78
249,42	1290,22
249,64	1259,50
249,85	1216,49
250,07	1222,64
250,29	1284,08
250,50	1271,79
250,72	1273,84
250,94	1292,27
251,16	1308,65
251,37	1282,03
251,59	1288,17
251,81	1214,45
252,02	1298,41
252,24	1300,46
252,46	1265,64
252,68	1249,26
252,89	1245,16
253,11	1263,60
253,33	1300,46
253,54	1171,44
253,76	1220,59
253,98	1304,56
254,20	1282,03
254,41	1243,12
254,63	1271,79
254,85	1335,28
255,06	1296,36
255,28	1259,50
255,50	1228,78
255,71	1216,49
255,93	1239,02
256,15	1257,45
256,36	1304,56
256,58	1224,69
256,80	1304,56
257,02	1306,60
257,23	1273,84
257,45	1208,30
257,67	1349,61
257,88	1173,49
258,10	1255,40
258,32	1304,56
258,53	1271,79
258,75	1159,15
258,97	1306,60
259,18	1282,03
259,40	1148,91
259,62	1234,93
259,83	1212,40
260,05	1288,17
260,27	1232,88
260,48	1304,56
260,70	1275,88
260,92	1189,87
261,13	1261,55
261,35	1253,36
261,57	1314,80
261,78	1228,78
262,00	1265,64
262,22	1282,03
262,43	1337,32
262,65	1193,97
262,86	1282,03
263,08	1243,12
263,30	1282,03
263,51	1249,26
263,73	1271,79
263,95	1290,22
264,16	1230,83
264,38	1277,93
264,60	1302,51
264,81	1288,17
265,03	1257,45
265,25	1284,08
265,46	1216,49
265,68	1257,45
265,89	1257,45
266,11	1232,88
266,33	1306,60
266,54	1282,03
266,76	1335,28
266,98	1243,12
267,19	1363,95
267,41	1288,17
267,62	1275,88
267,84	1228,78
268,06	1337,32
268,27	1236,97
268,49	1239,02
268,70	1259,50
268,92	1243,12
269,14	1173,49
269,35	1222,64
269,57	1222,64
269,79	1310,70
270,00	1290,22
270,22	1282,03
270,43	1247,21
270,65	1308,65
270,87	1310,70
271,08	1277,93
271,30	1247,21
271,51	1329,13
271,73	1245,16
271,95	1366,00
272,16	1224,69
272,38	1265,64
272,59	1279,98
272,81	1267,69
273,02	1290,22
273,24	1282,03
273,46	1228,78
273,67	1271,79
273,89	1290,22
274,10	1275,88
274,32	1239,02
274,54	1245,16
274,75	1267,69
274,97	1269,74
275,18	1273,84
275,40	1247,21
275,61	1247,21
275,83	1294,32
276,05	1294,32
276,26	1306,60
276,48	1253,36
276,69	1222,64
276,91	1251,31
277,12	1265,64
277,34	1214,45
277,55	1198,06
277,77	1216,49
277,99	1269,74
278,20	1239,02
278,42	1343,47
278,63	1296,36
278,85	1286,12
279,06	1269,74
279,28	1243,12
279,49	1275,88
279,71	1312,75
279,93	1288,17
280,14	1279,98
280,36	1257,45
280,57	1243,12
280,79	1273,84
281,00	1232,88
281,22	1210,35
281,43	1277,93
281,65	1257,45
281,86	1153,01
282,08	1359,85
282,29	1279,98
282,51	1241,07
282,73	1261,55
282,94	1220,59
283,16	1300,46
283,37	1284,08
283,59	1259,50
283,80	1253,36
284,02	1257,45
284,23	1261,55
284,45	1249,26
284,66	1216,49
284,88	1261,55
285,09	1279,98
285,31	1257,45
285,52	1255,40
285,74	1253,36
285,95	1279,98
286,17	1210,35
286,38	1261,55
286,60	1294,32
286,81	1212,40
287,03	1279,98
287,24	1243,12
287,46	1277,93
287,67	1298,41
287,89	1286,12
288,10	1265,64
288,32	1255,40
288,53	1310,70
288,75	1296,36
288,96	1234,93
289,18	1327,08
289,39	1239,02
289,61	1298,41
289,82	1267,69
290,04	1220,59
290,25	1224,69
290,47	1222,64
290,68	1300,46
290,90	1312,75
291,11	1265,64
291,33	1173,49
291,54	1263,60
291,76	1167,34
291,97	1259,50
292,18	1273,84
292,40	1284,08
292,61	1286,12
292,83	1320,94
293,04	1234,93
293,26	1286,12
293,47	1314,80
293,69	1277,93
293,90	1267,69
294,12	1216,49
294,33	1239,02
294,55	1239,02
294,76	1345,52
294,97	1222,64
295,19	1279,98
295,40	1239,02
295,62	1314,80
295,83	1267,69
296,05	1179,63
296,26	1271,79
296,48	1292,27
296,69	1269,74
296,90	1320,94
297,12	1218,54
297,33	1314,80
297,55	1241,07
297,76	1263,60
297,98	1206,25
298,19	1271,79
298,41	1257,45
298,62	1288,17
298,83	1322,99
299,05	1253,36
299,26	1220,59
299,48	1247,21
299,69	1306,60
299,90	1247,21
300,12	1267,69
300,33	1226,73
300,55	1267,69
300,76	1357,80
300,98	1236,97
301,19	1322,99
301,40	1257,45
301,62	1259,50
301,83	1271,79
302,05	1245,16
302,26	1253,36
302,47	1312,75
302,69	1304,56
302,90	1286,12
303,12	1220,59
303,33	1304,56
303,54	1380,33
303,76	1273,84
303,97	1275,88
304,19	1212,40
304,40	1257,45
304,61	1325,04
304,83	1275,88
305,04	1294,32
305,26	1239,02
305,47	1212,40
305,68	1255,40
305,90	1296,36
306,11	1314,80
306,33	1275,88
306,54	1302,51
306,75	1290,22
306,97	1269,74
307,18	1300,46
307,39	1212,40
307,61	1269,74
307,82	1265,64
308,04	1308,65
308,25	1279,98
308,46	1208,30
308,68	1286,12
308,89	1366,00
309,10	1261,55
309,32	1202,16
309,53	1294,32
309,74	1290,22
309,96	1232,88
310,17	1259,50
310,39	1216,49
310,60	1282,03
310,81	1322,99
311,03	1179,63
311,24	1263,60
311,45	1255,40
311,67	1288,17
311,88	1239,02
312,09	1265,64
312,31	1288,17
312,52	1275,88
312,73	1269,74
312,95	1271,79
313,16	1140,72
313,37	1279,98
313,59	1265,64
313,80	1294,32
314,01	1325,04
314,23	1216,49
314,44	1269,74
314,65	1312,75
314,87	1251,31
315,08	1210,35
315,29	1329,13
315,51	1265,64
315,72	1232,88
315,93	1275,88
316,15	1314,80
316,36	1286,12
316,57	1273,84
316,79	1220,59
317,00	1318,89
317,21	1331,18
317,43	1251,31
317,64	1224,69
317,85	1191,92
318,07	1339,37
318,28	1308,65
318,49	1214,45
318,70	1294,32
318,92	1218,54
319,13	1222,64
319,34	1335,28
319,56	1337,32
319,77	1277,93
319,98	1304,56
320,20	1263,60
320,41	1304,56
320,62	1331,18
320,83	1255,40
321,05	1261,55
321,26	1275,88
321,47	1239,02
321,69	1232,88
321,90	1210,35
322,11	1230,83
322,32	1228,78
322,54	1171,44
322,75	1269,74
322,96	1277,93
323,18	1335,28
323,39	1343,47
323,60	1253,36
323,81	1306,60
324,03	1271,79
324,24	1214,45
324,45	1290,22
324,66	1312,75
324,88	1253,36
325,09	1366,00
325,30	1249,26
325,52	1259,50
325,73	1257,45
325,94	1279,98
326,15	1261,55
326,37	1296,36
326,58	1302,51
326,79	1277,93
327,00	1230,83
327,22	1269,74
327,43	1230,83
327,64	1298,41
327,85	1189,87
328,07	1239,02
328,28	1253,36
328,49	1144,81
328,70	1267,69
328,92	1329,13
329,13	1263,60
329,34	1292,27
329,55	1257,45
329,76	1290,22
329,98	1255,40
330,19	1327,08
330,40	1302,51
330,61	1282,03
330,83	1318,89
331,04	1286,12
331,25	1208,30
331,46	1279,98
331,68	1273,84
331,89	1220,59
332,10	1228,78
332,31	1282,03
332,52	1183,73
332,74	1316,84
332,95	1259,50
333,16	1290,22
333,37	1306,60
333,58	1333,23
333,80	1265,64
334,01	1271,79
334,22	1232,88
334,43	1232,88
334,64	1271,79
334,86	1269,74
335,07	1316,84
335,28	1318,89
335,49	1290,22
335,70	1284,08
335,92	1255,40
336,13	1290,22
336,34	1259,50
336,55	1210,35
336,76	1284,08
336,98	1279,98
337,19	1296,36
337,40	1220,59
337,61	1325,04
337,82	1230,83
338,04	1269,74
338,25	1314,80
338,46	1271,79
338,67	1349,61
338,88	1216,49
339,09	1294,32
339,31	1275,88
339,52	1226,73
339,73	1222,64
339,94	1263,60
340,15	1296,36
340,36	1322,99
340,58	1271,79
340,79	1257,45
341,00	1271,79
341,21	1232,88
341,42	1257,45
341,63	1173,49
341,85	1234,93
342,06	1222,64
342,27	1249,26
342,48	1331,18
342,69	1241,07
342,90	1275,88
343,12	1337,32
343,33	1290,22
343,54	1214,45
343,75	1306,60
343,96	1343,47
344,17	1302,51
344,38	1271,79
344,60	1265,64
344,81	1208,30
345,02	1247,21
345,23	1165,29
345,44	1253,36
345,65	1263,60
345,86	1298,41
346,07	1253,36
346,29	1282,03
346,50	1267,69
346,71	1196,01
346,92	1249,26
347,13	1308,65
347,34	1228,78
347,55	1224,69
347,76	1245,16
347,98	1245,16
348,19	1277,93
348,40	1271,79
348,61	1193,97
348,82	1273,84
349,03	1249,26
349,24	1269,74
349,45	1216,49
349,66	1232,88
349,88	1271,79
350,09	1359,85
350,30	1304,56
350,51	1310,70
350,72	1218,54
350,93	1310,70
351,14	1253,36
351,35	1236,97
351,56	1275,88
351,77	1286,12
351,99	1290,22
352,20	1275,88
352,41	1314,80
352,62	1269,74
352,83	1218,54
353,04	1294,32
353,25	1300,46
353,46	1306,60
353,67	1298,41
353,88	1347,56
354,09	1273,84
354,30	1302,51
354,52	1212,40
354,73	1228,78
354,94	1247,21
355,15	1232,88
355,36	1282,03
355,57	1320,94
355,78	1312,75
355,99	1273,84
356,20	1294,32
356,41	1322,99
356,62	1308,65
356,83	1302,51
357,04	1308,65
357,25	1247,21
357,46	1251,31
357,68	1284,08
357,89	1234,93
358,10	1241,07
358,31	1284,08
358,52	1284,08
358,73	1282,03
358,94	1267,69
359,15	1234,93
359,36	1263,60
359,57	1275,88
359,78	1357,80
359,99	1263,60
360,20	1271,79
360,41	1198,06
360,62	1279,98
360,83	1275,88
361,04	1263,60
361,25	1310,70
361,46	1296,36
361,67	1222,64
361,88	1273,84
362,09	1255,40
362,30	1259,50
362,51	1177,58
362,72	1273,84
362,93	1310,70
363,14	1224,69
363,35	1253,36
363,56	1333,23
363,78	1224,69
363,99	1314,80
364,20	1269,74
364,41	1345,52
364,62	1294,32
364,83	1228,78
365,04	1216,49
365,25	1282,03
365,46	1269,74
365,67	1257,45
365,88	1204,21
366,09	1206,25
366,30	1335,28
366,51	1257,45
366,72	1286,12
366,93	1269,74
367,14	1304,56
367,35	1232,88
367,56	1226,73
367,77	1279,98
367,98	1296,36
368,18	1333,23
368,39	1290,22
368,60	1220,59
368,81	1282,03
369,02	1236,97
369,23	1308,65
369,44	1273,84
369,65	1294,32
369,86	1277,93
370,07	1329,13
370,28	1175,53
370,49	1282,03
370,70	1255,40
370,91	1255,40
371,12	1263,60
371,33	1253,36
371,54	1312,75
371,75	1300,46
371,96	1294,32
372,17	1314,80
372,38	1241,07
372,59	1296,36
372,80	1314,80
373,01	1191,92
373,22	1288,17
373,43	1277,93
373,64	1247,21
373,85	1257,45
374,06	1333,23
374,26	1314,80
374,47	1249,26
374,68	1286,12
374,89	1204,21
375,10	1296,36
375,31	1257,45
375,52	1271,79
375,73	1279,98
375,94	1265,64
376,15	1318,89
376,36	1261,55
376,57	1269,74
376,78	1279,98
376,99	1267,69
377,20	1222,64
377,40	1261,55
377,61	1259,50
377,82	1296,36
378,03	1310,70
378,24	1245,16
378,45	1218,54
378,66	1228,78
378,87	1269,74
379,08	1277,93
379,29	1282,03
379,50	1241,07
379,71	1298,41
379,91	1263,60
380,12	1265,64
380,33	1224,69
380,54	1279,98
380,75	1300,46
380,96	1306,60
381,17	1198,06
381,38	1177,58
381,59	1314,80
381,80	1284,08
382,00	1232,88
382,21	1204,21
382,42	1282,03
382,63	1290,22
382,84	1306,60
383,05	1239,02
383,26	1279,98
383,47	1259,50
383,68	1316,84
383,88	1273,84
384,09	1200,11
384,30	1265,64
384,51	1327,08
384,72	1271,79
384,93	1275,88
385,14	1263,60
385,35	1265,64
385,55	1241,07
385,76	1261,55
385,97	1200,11
386,18	1273,84
386,39	1265,64
386,60	1290,22
386,81	1245,16
387,02	1239,02
387,22	1212,40
387,43	1259,50
387,64	1206,25
387,85	1320,94
388,06	1339,37
388,27	1269,74
388,48	1234,93
388,68	1308,65
388,89	1337,32
389,10	1191,92
389,31	1230,83
389,52	1275,88
389,73	1288,17
389,93	1245,16
390,14	1300,46
390,35	1236,97
390,56	1288,17
390,77	1212,40
390,98	1224,69
391,18	1267,69
391,39	1290,22
391,60	1318,89
391,81	1222,64
392,02	1259,50
392,23	1306,60
392,43	1370,09
392,64	1282,03
392,85	1288,17
393,06	1263,60
393,27	1230,83
393,47	1302,51
393,68	1322,99
393,89	1275,88
394,10	1271,79
394,31	1204,21
394,52	1327,08
394,72	1245,16
394,93	1228,78
395,14	1312,75
395,35	1269,74
395,56	1298,41
395,76	1269,74
395,97	1193,97
396,18	1318,89
396,39	1208,30
396,60	1286,12
396,80	1269,74
397,01	1234,93
397,22	1347,56
397,43	1243,12
397,64	1226,73
397,84	1257,45
398,05	1200,11
398,26	1234,93
398,47	1224,69
398,67	1271,79
398,88	1200,11
399,09	1269,74
399,30	1277,93
399,51	1249,26
399,71	1230,83
399,92	1253,36
400,13	1333,23
400,34	1253,36
400,54	1228,78
400,75	1271,79
400,96	1290,22
401,17	1177,58
401,37	1245,16
401,58	1277,93
401,79	1312,75
402,00	1253,36
402,21	1249,26
402,41	1308,65
402,62	1218,54
402,83	1253,36
403,04	1239,02
403,24	1316,84
403,45	1228,78
403,66	1282,03
403,87	1282,03
404,07	1239,02
404,28	1296,36
404,49	1290,22
404,70	1335,28
404,90	1251,31
405,11	1251,31
405,32	1216,49
405,52	1230,83
405,73	1261,55
405,94	1267,69
406,15	1249,26
406,35	1290,22
406,56	1251,31
406,77	1277,93
406,98	1249,26
407,18	1359,85
407,39	1241,07
407,60	1257,45
407,80	1257,45
408,01	1263,60
408,22	1306,60
408,43	1308,65
408,63	1298,41
408,84	1312,75
409,05	1224,69
409,25	1200,11
409,46	1329,13
409,67	1245,16
409,88	1310,70
410,08	1271,79
410,29	1282,03
410,50	1292,27
410,70	1265,64
410,91	1261,55
411,12	1263,60
411,32	1232,88
411,53	1220,59
411,74	1216,49
411,95	1331,18
412,15	1234,93
412,36	1275,88
412,57	1267,69
412,77	1310,70
412,98	1247,21
413,19	1322,99
413,39	1232,88
413,60	1265,64
413,81	1228,78
414,01	1263,60
414,22	1247,21
414,43	1310,70
414,63	1224,69
414,84	1320,94
415,05	1273,84
415,25	1273,84
415,46	1277,93
415,67	1314,80
415,87	1288,17
416,08	1253,36
416,29	1322,99
416,49	1271,79
416,70	1292,27
416,91	1314,80
417,11	1198,06
417,32	1282,03
417,53	1251,31
417,73	1230,83
417,94	1222,64
418,15	1257,45
418,35	1329,13
418,56	1322,99
418,77	1265,64
418,97	1279,98
419,18	1243,12
419,38	1288,17
419,59	1302,51
419,80	1247,21
420,00	1230,83
420,21	1261,55
420,42	1255,40
420,62	1249,26
420,83	1241,07
421,04	1255,40
421,24	1259,50
421,45	1296,36
421,65	1200,11
421,86	1265,64
422,07	1243,12
422,27	1214,45
422,48	1275,88
422,69	1228,78
422,89	1316,84
423,10	1232,88
423,30	1212,40
423,51	1284,08
423,72	1294,32
423,92	1275,88
424,13	1284,08
424,33	1255,40
424,54	1220,59
424,75	1224,69
424,95	1253,36
425,16	1253,36
425,36	1239,02
425,57	1275,88
425,78	1243,12
425,98	1288,17
426,19	1204,21
426,39	1255,40
426,60	1310,70
426,81	1243,12
427,01	1314,80
427,22	1304,56
427,42	1288,17
427,63	1306,60
427,83	1341,42
428,04	1298,41
428,25	1255,40
428,45	1275,88
428,66	1288,17
428,86	1306,60
429,07	1220,59
429,28	1216,49
429,48	1239,02
429,69	1273,84
429,89	1261,55
430,10	1253,36
430,30	1230,83
430,51	1284,08
430,71	1253,36
430,92	1245,16
431,13	1316,84
431,33	1232,88
431,54	1222,64
431,74	1245,16
431,95	1298,41
432,15	1259,50
432,36	1236,97
432,56	1236,97
432,77	1208,30
432,98	1234,93
433,18	1206,25
433,39	1257,45
433,59	1249,26
433,80	1273,84
434,00	1271,79
434,21	1347,56
434,41	1306,60
434,62	1339,37
434,82	1292,27
435,03	1249,26
435,23	1251,31
435,44	1210,35
435,64	1230,83
435,85	1327,08
436,06	1314,80
436,26	1230,83
436,47	1286,12
436,67	1243,12
436,88	1273,84
437,08	1206,25
437,29	1320,94
437,49	1343,47
437,70	1236,97
437,90	1322,99
438,11	1236,97
438,31	1316,84
438,52	1314,80
438,72	1228,78
438,93	1200,11
439,13	1236,97
439,34	1232,88
439,54	1247,21
439,75	1314,80
439,95	1259,50
440,16	1286,12
440,36	1335,28
440,57	1325,04
440,77	1230,83
440,98	1243,12
441,18	1241,07
441,39	1206,25
441,59	1230,83
441,80	1245,16
442,00	1253,36
442,21	1288,17
442,41	1222,64
442,62	1224,69
442,82	1361,90
443,02	1298,41
443,23	1234,93
443,43	1263,60
443,64	1245,16
443,84	1288,17
444,05	1259,50
444,25	1218,54
444,46	1277,93
444,66	1261,55
444,87	1320,94
445,07	1275,88
445,28	1284,08
445,48	1245,16
445,69	1261,55
445,89	1267,69
446,09	1257,45
446,30	1271,79
446,50	1259,50
446,71	1286,12
446,91	1300,46
447,12	1294,32
447,32	1296,36
447,53	1302,51
447,73	1404,91
447,93	1282,03
448,14	1300,46
448,34	1314,80
448,55	1345,52
448,75	1279,98
448,96	1314,80
449,16	1263,60
449,36	1279,98
449,57	1298,41
449,77	1282,03
449,98	1294,32
450,18	1282,03
450,39	1241,07
450,59	1320,94
450,79	1284,08
451,00	1279,98
451,20	1277,93
451,41	1341,42
451,61	1288,17
451,81	1257,45
452,02	1304,56
452,22	1210,35
452,43	1236,97
452,63	1277,93
452,84	1241,07
453,04	1247,21
453,24	1312,75
453,45	1265,64
453,65	1290,22
453,86	1271,79
454,06	1300,46
454,26	1273,84
454,47	1273,84
454,67	1359,85
454,87	1273,84
455,08	1275,88
455,28	1331,18
455,49	1374,19
455,69	1249,26
455,89	1241,07
456,10	1265,64
456,30	1277,93
456,51	1261,55
456,71	1267,69
456,91	1261,55
457,12	1302,51
457,32	1294,32
457,52	1290,22
457,73	1282,03
457,93	1308,65
458,14	1267,69
458,34	1277,93
458,54	1290,22
458,75	1230,83
458,95	1269,74
459,15	1322,99
459,36	1271,79
459,56	1304,56
459,76	1310,70
459,97	1210,35
460,17	1314,80
460,37	1347,56
460,58	1282,03
460,78	1308,65
460,99	1247,21
461,19	1255,40
461,39	1249,26
461,60	1263,60
461,80	1263,60
462,00	1269,74
462,21	1245,16
462,41	1300,46
462,61	1230,83
462,82	1296,36
463,02	1241,07
463,22	1277,93
463,43	1265,64
463,63	1271,79
463,83	1370,09
464,04	1220,59
464,24	1271,79
464,44	1249,26
464,64	1249,26
464,85	1273,84
465,05	1255,40
465,25	1312,75
465,46	1259,50
465,66	1273,84
465,86	1314,80
466,07	1312,75
466,27	1265,64
466,47	1202,16
466,68	1202,16
466,88	1282,03
467,08	1374,19
467,29	1232,88
467,49	1288,17
467,69	1290,22
467,89	1210,35
468,10	1253,36
468,30	1302,51
468,50	1327,08
468,71	1318,89
468,91	1314,80
469,11	1294,32
469,31	1322,99
469,52	1259,50
469,72	1302,51
469,92	1284,08
470,13	1253,36
470,33	1320,94
470,53	1230,83
470,73	1216,49
470,94	1228,78
471,14	1294,32
471,34	1222,64
471,54	1255,40
471,75	1296,36
471,95	1269,74
472,15	1234,93
472,36	1241,07
472,56	1263,60
472,76	1296,36
472,96	1304,56
473,17	1255,40
473,37	1222,64
473,57	1277,93
473,77	1282,03
473,98	1296,36
474,18	1296,36
474,38	1224,69
474,58	1236,97
474,79	1277,93
474,99	1263,60
475,19	1284,08
475,39	1275,88
475,60	1259,50
475,80	1288,17
476,00	1267,69
476,20	1175,53
476,41	1320,94
476,61	1298,41
476,81	1271,79
477,01	1212,40
477,21	1259,50
477,42	1230,83
477,62	1296,36
477,82	1300,46
478,02	1273,84
478,23	1230,83
478,43	1275,88
478,63	1325,04
478,83	1216,49
479,03	1241,07
479,24	1247,21
479,44	1279,98
479,64	1296,36
479,84	1275,88
480,04	1284,08
480,25	1325,04
480,45	1277,93
480,65	1228,78
480,85	1257,45
481,06	1261,55
481,26	1320,94
481,46	1208,30
481,66	1314,80
481,86	1228,78
482,06	1224,69
482,27	1265,64
482,47	1243,12
482,67	1232,88
482,87	1232,88
483,07	1296,36
483,28	1277,93
483,48	1247,21
483,68	1271,79
483,88	1273,84
484,08	1202,16
484,29	1304,56
484,49	1234,93
484,69	1204,21
484,89	1271,79
485,09	1271,79
485,29	1230,83
485,50	1181,68
485,70	1282,03
485,90	1245,16
486,10	1294,32
486,30	1267,69
486,50	1286,12
486,71	1239,02
486,91	1290,22
487,11	1253,36
487,31	1269,74
487,51	1282,03
487,71	1314,80
487,91	1372,14
488,12	1228,78
488,32	1290,22
488,52	1245,16
488,72	1322,99
488,92	1292,27
489,12	1310,70
489,32	1331,18
489,53	1320,94
489,73	1236,97
489,93	1245,16
490,13	1202,16
490,33	1263,60
490,53	1228,78
490,73	1308,65
490,94	1294,32
491,14	1296,36
491,34	1247,21
491,54	1193,97
491,74	1282,03
491,94	1277,93
492,14	1257,45
492,34	1249,26
492,54	1267,69
492,75	1265,64
492,95	1298,41
493,15	1243,12
493,35	1273,84
493,55	1255,40
493,75	1271,79
493,95	1241,07
494,15	1298,41
494,35	1312,75
494,56	1300,46
494,76	1339,37
494,96	1226,73
495,16	1290,22
495,36	1277,93
495,56	1290,22
495,76	1198,06
495,96	1335,28
496,16	1265,64
496,36	1322,99
496,56	1226,73
496,77	1304,56
496,97	1228,78
497,17	1226,73
497,37	1255,40
497,57	1216,49
497,77	1300,46
497,97	1232,88
498,17	1222,64
498,37	1282,03
498,57	1263,60
498,77	1279,98
498,97	1253,36
499,17	1232,88
499,38	1308,65
499,58	1308,65
499,78	1277,93
499,98	1355,76
500,18	1241,07
500,38	1304,56
500,58	1298,41
500,78	1267,69
500,98	1284,08
501,18	1298,41
501,38	1247,21
501,58	1239,02
501,78	1279,98
501,98	1339,37
502,18	1239,02
502,38	1304,56
502,58	1251,31
502,78	1259,50
502,98	1251,31
503,18	1269,74
503,38	1277,93
503,59	1279,98
503,79	1271,79
503,99	1306,60
504,19	1275,88
504,39	1294,32
504,59	1292,27
504,79	1265,64
504,99	1245,16
505,19	1308,65
505,39	1271,79
505,59	1271,79
505,79	1282,03
505,99	1294,32
506,19	1239,02
506,39	1308,65
506,59	1306,60
506,79	1275,88
506,99	1273,84
507,19	1298,41
507,39	1257,45
507,59	1290,22
507,79	1284,08
507,99	1273,84
508,19	1269,74
508,39	1292,27
508,59	1269,74
508,79	1357,80
508,99	1298,41
509,19	1282,03
509,39	1290,22
509,59	1290,22
509,79	1273,84
509,99	1294,32
510,19	1343,47
510,39	1327,08
510,59	1298,41
510,79	1277,93
510,99	1269,74
511,19	1282,03
511,39	1191,92
511,59	1308,65
511,79	1292,27
511,99	1265,64
512,19	1298,41
512,38	1255,40
512,58	1290,22
512,78	1343,47
512,98	1259,50
513,18	1363,95
513,38	1322,99
513,58	1343,47
513,78	1282,03
513,98	1312,75
514,18	1329,13
514,38	1261,55
514,58	1333,23
514,78	1296,36
514,98	1327,08
515,18	1304,56
515,38	1284,08
515,58	1181,68
515,78	1234,93
515,98	1318,89
516,18	1269,74
516,38	1363,95
516,57	1234,93
516,77	1306,60
516,97	1310,70
517,17	1339,37
517,37	1253,36
517,57	1204,21
517,77	1257,45
517,97	1269,74
518,17	1255,40
518,37	1298,41
518,57	1302,51
518,77	1243,12
518,97	1322,99
519,16	1257,45
519,36	1275,88
519,56	1263,60
519,76	1263,60
519,96	1329,13
520,16	1282,03
520,36	1286,12
520,56	1251,31
520,76	1302,51
520,96	1236,97
521,16	1265,64
521,35	1302,51
521,55	1241,07
521,75	1222,64
521,95	1302,51
522,15	1320,94
522,35	1298,41
522,55	1316,84
522,75	1234,93
522,95	1249,26
523,14	1279,98
523,34	1327,08
523,54	1314,80
523,74	1329,13
523,94	1298,41
524,14	1296,36
524,34	1355,76
524,54	1300,46
524,73	1200,11
524,93	1204,21
525,13	1279,98
525,33	1243,12
525,53	1263,60
525,73	1255,40
525,93	1257,45
526,13	1257,45
526,32	1282,03
526,52	1296,36
526,72	1259,50
526,92	1282,03
527,12	1286,12
527,32	1298,41
527,52	1247,21
527,71	1304,56
527,91	1357,80
528,11	1230,83
528,31	1292,27
528,51	1347,56
528,71	1212,40
528,90	1282,03
529,10	1296,36
529,30	1284,08
529,50	1312,75
529,70	1220,59
529,90	1282,03
530,09	1310,70
530,29	1288,17
530,49	1302,51
530,69	1294,32
530,89	1312,75
531,09	1255,40
531,28	1277,93
531,48	1312,75
531,68	1255,40
531,88	1269,74
532,08	1212,40
532,28	1288,17
532,47	1263,60
532,67	1265,64
532,87	1339,37
533,07	1245,16
533,27	1286,12
533,46	1222,64
533,66	1302,51
533,86	1189,87
534,06	1271,79
534,26	1288,17
534,45	1265,64
534,65	1314,80
534,85	1357,80
535,05	1279,98
535,25	1290,22
535,44	1216,49
535,64	1269,74
535,84	1318,89
536,04	1236,97
536,24	1314,80
536,43	1189,87
536,63	1312,75
536,83	1261,55
537,03	1331,18
537,22	1349,61
537,42	1310,70
537,62	1212,40
537,82	1273,84
538,02	1249,26
538,21	1339,37
538,41	1316,84
538,61	1314,80
538,81	1234,93
539,00	1331,18
539,20	1286,12
539,40	1363,95
539,60	1249,26
539,79	1253,36
539,99	1230,83
540,19	1247,21
540,39	1302,51
540,58	1267,69
540,78	1269,74
540,98	1331,18
541,18	1339,37
541,37	1265,64
541,57	1357,80
541,77	1243,12
541,97	1310,70
542,16	1310,70
542,36	1308,65
542,56	1302,51
542,76	1216,49
542,95	1294,32
543,15	1353,71
543,35	1259,50
543,54	1228,78
543,74	1282,03
543,94	1318,89
544,14	1251,31
544,33	1320,94
544,53	1265,64
544,73	1290,22
544,93	1247,21
545,12	1271,79
545,32	1288,17
545,52	1234,93
545,71	1241,07
545,91	1228,78
546,11	1304,56
546,30	1314,80
546,50	1200,11
546,70	1302,51
546,90	1382,38
547,09	1271,79
547,29	1259,50
547,49	1308,65
547,68	1306,60
547,88	1316,84
548,08	1316,84
548,27	1279,98
548,47	1284,08
548,67	1271,79
548,87	1335,28
549,06	1298,41
549,26	1294,32
549,46	1290,22
549,65	1265,64
549,85	1230,83
550,05	1226,73
550,24	1239,02
550,44	1241,07
550,64	1257,45
550,83	1314,80
551,03	1224,69
551,23	1271,79
551,42	1310,70
551,62	1273,84
551,82	1236,97
552,01	1255,40
552,21	1288,17
552,41	1329,13
552,60	1267,69
552,80	1302,51
553,00	1337,32
553,19	1331,18
553,39	1204,21
553,59	1273,84
553,78	1224,69
553,98	1286,12
554,17	1269,74
554,37	1234,93
554,57	1220,59
554,76	1284,08
554,96	1247,21
555,16	1257,45
555,35	1318,89
555,55	1363,95
555,75	1265,64
555,94	1300,46
556,14	1269,74
556,33	1294,32
556,53	1265,64
556,73	1320,94
556,92	1249,26
557,12	1300,46
557,32	1275,88
557,51	1255,40
557,71	1230,83
557,90	1279,98
558,10	1253,36
558,30	1298,41
558,49	1273,84
558,69	1288,17
558,88	1202,16
559,08	1306,60
559,28	1312,75
559,47	1234,93
559,67	1374,19
559,86	1263,60
560,06	1290,22
560,26	1308,65
560,45	1378,28
560,65	1310,70
560,84	1341,42
561,04	1267,69
561,24	1269,74
561,43	1275,88
561,63	1261,55
561,82	1359,85
562,02	1228,78
562,22	1312,75
562,41	1236,97
562,61	1228,78
562,80	1322,99
563,00	1279,98
563,19	1296,36
563,39	1306,60
563,59	1335,28
563,78	1249,26
563,98	1245,16
564,17	1347,56
564,37	1284,08
564,56	1251,31
564,76	1243,12
564,96	1329,13
565,15	1294,32
565,35	1236,97
565,54	1277,93
565,74	1300,46
565,93	1290,22
566,13	1236,97
566,32	1267,69
566,52	1282,03
566,71	1284,08
566,91	1314,80
567,11	1265,64
567,30	1247,21
567,50	1214,45
567,69	1333,23
567,89	1220,59
568,08	1259,50
568,28	1230,83
568,47	1271,79
568,67	1269,74
568,86	1243,12
569,06	1308,65
569,25	1296,36
569,45	1271,79
569,64	1265,64
569,84	1284,08
570,04	1314,80
570,23	1212,40
570,43	1236,97
570,62	1257,45
570,82	1296,36
571,01	1314,80
571,21	1320,94
571,40	1220,59
571,60	1239,02
571,79	1245,16
571,99	1259,50
572,18	1308,65
572,38	1310,70
572,57	1267,69
572,77	1294,32
572,96	1267,69
573,16	1275,88
573,35	1232,88
573,55	1265,64
573,74	1236,97
573,94	1271,79
574,13	1284,08
574,33	1277,93
574,52	1255,40
574,71	1282,03
574,91	1357,80
575,10	1288,17
575,30	1255,40
575,49	1292,27
575,69	1320,94
575,88	1314,80
576,08	1341,42
576,27	1273,84
576,47	1292,27
576,66	1335,28
576,86	1239,02
577,05	1308,65
577,25	1294,32
577,44	1335,28
577,64	1349,61
577,83	1257,45
578,02	1271,79
578,22	1226,73
578,41	1275,88
578,61	1312,75
578,80	1253,36
579,00	1341,42
579,19	1335,28
579,39	1308,65
579,58	1245,16
579,77	1316,84
579,97	1300,46
580,16	1271,79
580,36	1325,04
580,55	1331,18
580,75	1306,60
580,94	1255,40
581,13	1325,04
581,33	1269,74
581,52	1312,75
581,72	1331,18
581,91	1257,45
582,11	1312,75
582,30	1290,22
582,49	1261,55
582,69	1269,74
582,88	1314,80
583,08	1310,70
583,27	1284,08
583,47	1327,08
583,66	1269,74
583,85	1218,54
584,05	1279,98
584,24	1220,59
584,44	1298,41
584,63	1325,04
584,82	1257,45
585,02	1277,93
585,21	1232,88
585,41	1167,34
585,60	1304,56
585,79	1288,17
585,99	1263,60
586,18	1243,12
586,37	1234,93
586,57	1288,17
586,76	1269,74
586,96	1220,59
587,15	1284,08
587,34	1259,50
587,54	1308,65
587,73	1263,60
587,93	1286,12
588,12	1251,31
588,31	1193,97
588,51	1251,31
588,70	1292,27
588,89	1273,84
589,09	1222,64
589,28	1224,69
589,47	1290,22
589,67	1245,16
589,86	1302,51
590,06	1253,36
590,25	1349,61
590,44	1224,69
590,64	1343,47
590,83	1265,64
591,02	1228,78
591,22	1298,41
591,41	1292,27
591,60	1273,84
591,80	1241,07
591,99	1216,49
592,18	1363,95
592,38	1269,74
592,57	1314,80
592,76	1247,21
592,96	1372,14
593,15	1298,41
593,34	1230,83
593,54	1300,46
593,73	1216,49
593,92	1249,26
594,12	1216,49
594,31	1294,32
594,50	1345,52
594,70	1302,51
594,89	1214,45
595,08	1204,21
595,28	1298,41
595,47	1308,65
595,66	1191,92
595,86	1380,33
596,05	1316,84
596,24	1261,55
596,43	1329,13
596,63	1226,73
596,82	1273,84
597,01	1230,83
597,21	1286,12
597,40	1224,69
597,59	1279,98
597,79	1314,80
597,98	1337,32
598,17	1251,31
598,36	1294,32
598,56	1343,47
598,75	1277,93
598,94	1312,75
599,14	1277,93
599,33	1312,75
599,52	1277,93
599,71	1189,87
599,91	1300,46
600,10	1277,93
600,29	1253,36
600,48	1204,21
600,68	1318,89
600,87	1341,42
601,06	1284,08
601,26	1290,22
601,45	1292,27
601,64	1230,83
601,83	1302,51
602,03	1304,56
602,22	1341,42
602,41	1271,79
602,60	1265,64
602,80	1253,36
602,99	1204,21
603,18	1220,59
603,37	1271,79
603,57	1310,70
603,76	1239,02
603,95	1294,32
604,14	1333,23
604,34	1259,50
604,53	1249,26
604,72	1310,70
604,91	1269,74
605,10	1333,23
605,30	1202,16
605,49	1247,21
605,68	1228,78
605,87	1357,80
606,07	1296,36
606,26	1228,78
606,45	1300,46
606,64	1259,50
606,84	1345,52
607,03	1298,41
607,22	1226,73
607,41	1333,23
607,60	1325,04
607,80	1325,04
607,99	1327,08
608,18	1263,60
608,37	1220,59
608,56	1243,12
608,76	1222,64
608,95	1273,84
609,14	1296,36
609,33	1353,71
609,52	1286,12
609,72	1300,46
609,91	1325,04
610,10	1253,36
610,29	1351,66
610,48	1294,32
610,68	1302,51
610,87	1302,51
611,06	1314,80
611,25	1245,16
611,44	1331,18
611,63	1329,13
611,83	1325,04
612,02	1277,93
612,21	1290,22
612,40	1310,70
612,59	1277,93
612,79	1298,41
612,98	1261,55
613,17	1286,12
613,36	1284,08
613,55	1277,93
613,74	1294,32
613,93	1265,64
614,13	1247,21
614,32	1282,03
614,51	1288,17
614,70	1277,93
614,89	1288,17
615,08	1298,41
615,28	1312,75
615,47	1331,18
615,66	1290,22
615,85	1247,21
616,04	1302,51
616,23	1290,22
616,42	1185,77
616,62	1322,99
616,81	1347,56
617,00	1277,93
617,19	1286,12
617,38	1337,32
617,57	1300,46
617,76	1318,89
617,95	1331,18
618,15	1226,73
618,34	1312,75
618,53	1327,08
618,72	1261,55
618,91	1269,74
619,10	1316,84
619,29	1261,55
619,48	1267,69
619,68	1363,95
619,87	1314,80
620,06	1292,27
620,25	1349,61
620,44	1314,80
620,63	1314,80
620,82	1265,64
621,01	1275,88
621,20	1265,64
621,39	1247,21
621,59	1263,60
621,78	1339,37
621,97	1300,46
622,16	1316,84
622,35	1241,07
622,54	1253,36
622,73	1245,16
622,92	1282,03
623,11	1202,16
623,30	1259,50
623,49	1339,37
623,68	1300,46
623,88	1239,02
624,07	1239,02
624,26	1263,60
624,45	1263,60
624,64	1341,42
624,83	1306,60
625,02	1318,89
625,21	1300,46
625,40	1341,42
625,59	1255,40
625,78	1224,69
625,97	1337,32
626,16	1331,18
626,35	1284,08
626,54	1333,23
626,74	1282,03
626,93	1296,36
627,12	1284,08
627,31	1222,64
627,50	1269,74
627,69	1277,93
627,88	1322,99
628,07	1302,51
628,26	1271,79
628,45	1273,84
628,64	1302,51
628,83	1265,64
629,02	1226,73
629,21	1316,84
629,40	1363,95
629,59	1363,95
629,78	1286,12
629,97	1310,70
630,16	1259,50
630,35	1343,47
630,54	1239,02
630,73	1327,08
630,92	1290,22
631,11	1282,03
631,30	1290,22
631,49	1304,56
631,68	1378,28
631,87	1427,43
632,06	1533,93
632,25	1460,20
632,44	1495,02
632,63	1507,30
632,82	1728,49
633,01	1986,53
633,20	1742,82
633,39	1779,68
633,58	1810,40
633,77	1800,16
633,96	1654,76
634,15	1660,90
634,34	1697,77
634,53	1753,06
634,72	1728,49
634,91	1589,22
635,10	1597,42
635,29	1517,54
635,48	1513,45
635,67	1349,61
635,86	1431,53
636,05	1437,67
636,24	1361,90
636,43	1343,47
636,62	1347,56
636,81	1318,89
637,00	1304,56
637,19	1320,94
637,38	1331,18
637,57	1314,80
637,76	1279,98
637,95	1316,84
638,14	1314,80
638,33	1288,17
638,52	1357,80
638,71	1247,21
638,89	1308,65
639,08	1288,17
639,27	1251,31
639,46	1232,88
639,65	1316,84
639,84	1273,84
640,03	1345,52
640,22	1247,21
640,41	1282,03
640,60	1239,02
640,79	1222,64
640,98	1294,32
641,17	1312,75
641,36	1257,45
641,55	1282,03
641,74	1271,79
641,92	1306,60
642,11	1245,16
642,30	1306,60
642,49	1259,50
642,68	1325,04
642,87	1259,50
643,06	1302,51
643,25	1304,56
643,44	1357,80
643,63	1353,71
643,82	1314,80
644,00	1284,08
644,19	1294,32
644,38	1294,32
644,57	1249,26
644,76	1214,45
644,95	1290,22
645,14	1351,66
645,33	1337,32
645,52	1355,76
645,71	1290,22
645,89	1249,26
646,08	1241,07
646,27	1320,94
646,46	1257,45
646,65	1267,69
646,84	1322,99
647,03	1236,97
647,22	1224,69
647,40	1275,88
647,59	1345,52
647,78	1300,46
647,97	1230,83
648,16	1320,94
648,35	1284,08
648,54	1275,88
648,73	1208,30
648,91	1296,36
649,10	1292,27
649,29	1312,75
649,48	1279,98
649,67	1255,40
649,86	1277,93
650,05	1279,98
650,23	1224,69
650,42	1273,84
650,61	1241,07
650,80	1300,46
650,99	1243,12
651,18	1271,79
651,36	1232,88
651,55	1298,41
651,74	1247,21
651,93	1263,60
652,12	1331,18
652,31	1318,89
652,49	1355,76
652,68	1316,84
652,87	1290,22
653,06	1314,80
653,25	1224,69
653,44	1325,04
653,62	1253,36
653,81	1339,37
654,00	1312,75
654,19	1255,40
654,38	1304,56
654,56	1320,94
654,75	1230,83
654,94	1312,75
655,13	1327,08
655,32	1200,11
655,51	1325,04
655,69	1329,13
655,88	1263,60
656,07	1187,82
656,26	1243,12
656,45	1228,78
656,63	1218,54
656,82	1224,69
657,01	1187,82
657,20	1302,51
657,38	1302,51
657,57	1267,69
657,76	1290,22
657,95	1275,88
658,14	1249,26
658,32	1224,69
658,51	1222,64
658,70	1277,93
658,89	1208,30
659,08	1263,60
659,26	1277,93
659,45	1218,54
659,64	1249,26
659,83	1318,89
660,01	1296,36
660,20	1220,59
660,39	1312,75
660,58	1253,36
660,76	1271,79
660,95	1286,12
661,14	1306,60
661,33	1310,70
661,51	1337,32
661,70	1277,93
661,89	1292,27
662,08	1269,74
662,26	1310,70
662,45	1286,12
662,64	1347,56
662,83	1243,12
663,01	1288,17
663,20	1290,22
663,39	1253,36
663,58	1265,64
663,76	1265,64
663,95	1273,84
664,14	1304,56
664,32	1292,27
664,51	1206,25
664,70	1259,50
664,89	1232,88
665,07	1267,69
665,26	1355,76
665,45	1308,65
665,64	1306,60
665,82	1261,55
666,01	1300,46
666,20	1265,64
666,38	1296,36
666,57	1243,12
666,76	1310,70
666,95	1290,22
667,13	1277,93
667,32	1306,60
667,51	1290,22
667,69	1282,03
667,88	1241,07
668,07	1273,84
668,25	1341,42
668,44	1271,79
668,63	1245,16
668,81	1247,21
669,00	1294,32
669,19	1257,45
669,38	1282,03
669,56	1296,36
669,75	1288,17
669,94	1216,49
670,12	1261,55
670,31	1347,56
670,50	1347,56
670,68	1310,70
670,87	1335,28
671,06	1277,93
671,24	1282,03
671,43	1288,17
671,62	1273,84
671,80	1292,27
671,99	1245,16
672,18	1257,45
672,36	1232,88
672,55	1333,23
672,74	1322,99
672,92	1265,64
673,11	1298,41
673,29	1249,26
673,48	1257,45
673,67	1339,37
673,85	1298,41
674,04	1308,65
674,23	1279,98
674,41	1200,11
674,60	1322,99
674,79	1286,12
674,97	1282,03
675,16	1245,16
675,34	1294,32
675,53	1196,01
675,72	1292,27
675,90	1261,55
676,09	1218,54
676,28	1318,89
676,46	1236,97
676,65	1220,59
676,83	1204,21
677,02	1329,13
677,21	1288,17
677,39	1257,45
677,58	1236,97
677,77	1302,51
677,95	1355,76
678,14	1263,60
678,32	1282,03
678,51	1269,74
678,70	1304,56
678,88	1269,74
679,07	1257,45
679,25	1232,88
679,44	1286,12
679,63	1275,88
679,81	1273,84
680,00	1259,50
680,18	1230,83
680,37	1214,45
680,55	1296,36
680,74	1329,13
680,93	1288,17
681,11	1310,70
681,30	1277,93
681,48	1320,94
681,67	1288,17
681,85	1228,78
682,04	1304,56
682,23	1249,26
682,41	1286,12
682,60	1316,84
682,78	1306,60
682,97	1261,55
683,15	1335,28
683,34	1290,22
683,53	1308,65
683,71	1265,64
683,90	1341,42
684,08	1302,51
684,27	1265,64
684,45	1253,36
684,64	1249,26
684,82	1267,69
685,01	1249,26
685,19	1294,32
685,38	1314,80
685,57	1282,03
685,75	1236,97
685,94	1300,46
686,12	1261,55
686,31	1232,88
686,49	1243,12
686,68	1267,69
686,86	1251,31
687,05	1273,84
687,23	1294,32
687,42	1271,79
687,60	1255,40
687,79	1302,51
687,97	1282,03
688,16	1275,88
688,34	1261,55
688,53	1290,22
688,71	1320,94
688,90	1245,16
689,08	1333,23
689,27	1294,32
689,45	1216,49
689,64	1314,80
689,82	1329,13
690,01	1357,80
690,19	1310,70
690,38	1314,80
690,56	1304,56
690,75	1179,63
690,93	1288,17
691,12	1232,88
691,30	1247,21
691,49	1271,79
691,67	1212,40
691,86	1318,89
692,04	1273,84
692,23	1234,93
692,41	1290,22
692,60	1298,41
692,78	1275,88
692,97	1277,93
693,15	1290,22
693,34	1275,88
693,52	1275,88
693,71	1284,08
693,89	1288,17
694,08	1239,02
694,26	1310,70
694,44	1251,31
694,63	1284,08
694,81	1294,32
695,00	1327,08
695,18	1329,13
695,37	1251,31
695,55	1304,56
695,74	1269,74
695,92	1294,32
696,10	1230,83
696,29	1304,56
696,47	1286,12
696,66	1247,21
696,84	1261,55
697,03	1208,30
697,21	1255,40
697,40	1347,56
697,58	1337,32
697,76	1232,88
697,95	1243,12
698,13	1269,74
698,32	1347,56
698,50	1310,70
698,68	1214,45
698,87	1245,16
699,05	1282,03
699,24	1284,08
699,42	1210,35
699,61	1232,88
699,79	1310,70
699,97	1259,50
700,16	1269,74
700,34	1228,78
700,53	1288,17
700,71	1232,88
700,89	1269,74
701,08	1298,41
701,26	1261,55
701,45	1286,12
701,63	1247,21
701,81	1236,97
702,00	1286,12
702,18	1271,79
702,37	1273,84
702,55	1189,87
702,73	1214,45
702,92	1251,31
703,10	1239,02
703,28	1271,79
703,47	1329,13
703,65	1363,95
703,84	1279,98
704,02	1255,40
704,20	1300,46
704,39	1181,68
704,57	1232,88
704,75	1228,78
704,94	1275,88
705,12	1245,16
705,30	1288,17
705,49	1200,11
705,67	1218,54
705,86	1255,40
706,04	1288,17
706,22	1191,92
706,41	1263,60
706,59	1222,64
706,77	1181,68
706,96	1310,70
707,14	1300,46
707,32	1208,30
707,51	1253,36
707,69	1273,84
707,87	1257,45
708,06	1265,64
708,24	1239,02
708,42	1230,83
708,61	1220,59
708,79	1271,79
708,97	1275,88
709,16	1279,98
709,34	1226,73
709,52	1222,64
709,71	1296,36
709,89	1249,26
710,07	1243,12
710,26	1234,93
710,44	1279,98
710,62	1218,54
710,80	1271,79
710,99	1312,75
711,17	1239,02
711,35	1236,97
711,54	1187,82
711,72	1343,47
711,90	1249,26
712,09	1200,11
712,27	1245,16
712,45	1220,59
712,63	1279,98
712,82	1275,88
713,00	1255,40
713,18	1269,74
713,37	1271,79
713,55	1284,08
713,73	1284,08
713,91	1337,32
714,10	1312,75
714,28	1255,40
714,46	1245,16
714,65	1273,84
714,83	1288,17
715,01	1251,31
715,19	1282,03
715,38	1263,60
715,56	1273,84
715,74	1277,93
715,92	1298,41
716,11	1202,16
716,29	1288,17
716,47	1208,30
716,65	1271,79
716,84	1331,18
717,02	1249,26
717,20	1316,84
717,38	1257,45
717,57	1267,69
717,75	1249,26
717,93	1273,84
718,11	1234,93
718,30	1288,17
718,48	1304,56
718,66	1257,45
718,84	1226,73
719,03	1300,46
719,21	1236,97
719,39	1298,41
719,57	1230,83
719,75	1210,35
719,94	1275,88
720,12	1255,40
720,30	1228,78
720,48	1306,60
720,67	1298,41
720,85	1308,65
721,03	1241,07
721,21	1335,28
721,39	1216,49
721,58	1290,22
721,76	1226,73
721,94	1284,08
722,12	1247,21
722,30	1255,40
722,49	1249,26
722,67	1232,88
722,85	1236,97
723,03	1316,84
723,21	1308,65
723,40	1310,70
723,58	1239,02
723,76	1261,55
723,94	1296,36
724,12	1284,08
724,30	1228,78
724,49	1277,93
724,67	1236,97
724,85	1214,45
725,03	1236,97
725,21	1329,13
725,40	1279,98
725,58	1320,94
725,76	1228,78
725,94	1241,07
726,12	1228,78
726,30	1306,60
726,49	1265,64
726,67	1275,88
726,85	1284,08
727,03	1259,50
727,21	1249,26
727,39	1224,69
727,57	1253,36
727,76	1208,30
727,94	1206,25
728,12	1245,16
728,30	1210,35
728,48	1296,36
728,66	1200,11
728,84	1230,83
729,03	1214,45
729,21	1222,64
729,39	1314,80
729,57	1243,12
729,75	1304,56
729,93	1310,70
730,11	1282,03
730,30	1290,22
730,48	1224,69
730,66	1341,42
730,84	1339,37
731,02	1277,93
731,20	1288,17
731,38	1267,69
731,56	1286,12
731,74	1257,45
731,93	1314,80
732,11	1239,02
732,29	1269,74
732,47	1306,60
732,65	1202,16
732,83	1314,80
733,01	1230,83
733,19	1284,08
733,37	1282,03
733,56	1298,41
733,74	1259,50
733,92	1318,89
734,10	1359,85
734,28	1241,07
734,46	1279,98
734,64	1263,60
734,82	1284,08
735,00	1308,65
735,18	1292,27
735,36	1288,17
735,54	1300,46
735,73	1251,31
735,91	1204,21
736,09	1234,93
736,27	1208,30
736,45	1181,68
736,63	1224,69
736,81	1249,26
736,99	1322,99
737,17	1286,12
737,35	1282,03
737,53	1267,69
737,71	1224,69
737,89	1234,93
738,07	1239,02
738,25	1263,60
738,43	1259,50
738,61	1236,97
738,80	1290,22
738,98	1284,08
739,16	1271,79
739,34	1224,69
739,52	1253,36
739,70	1290,22
739,88	1200,11
740,06	1271,79
740,24	1275,88
740,42	1308,65
740,60	1220,59
740,78	1263,60
740,96	1316,84
741,14	1179,63
741,32	1239,02
741,50	1288,17
741,68	1218,54
741,86	1308,65
742,04	1298,41
742,22	1257,45
742,40	1234,93
742,58	1279,98
742,76	1308,65
742,94	1247,21
743,12	1224,69
743,30	1261,55
743,48	1269,74
743,66	1241,07
743,84	1243,12
744,02	1226,73
744,20	1292,27
744,38	1306,60
744,56	1232,88
744,74	1302,51
744,92	1196,01
745,10	1318,89
745,28	1236,97
745,46	1245,16
745,64	1259,50
745,82	1284,08
746,00	1343,47
746,18	1284,08
746,36	1275,88
746,54	1245,16
746,72	1212,40
746,90	1261,55
747,08	1325,04
747,26	1277,93
747,44	1241,07
747,62	1296,36
747,80	1230,83
747,98	1343,47
748,15	1263,60
748,33	1263,60
748,51	1316,84
748,69	1236,97
748,87	1269,74
749,05	1304,56
749,23	1208,30
749,41	1296,36
749,59	1241,07
749,77	1327,08
749,95	1228,78
750,13	1241,07
750,31	1216,49
750,49	1325,04
750,67	1314,80
750,85	1218,54
751,03	1249,26
751,20	1247,21
751,38	1230,83
751,56	1290,22
751,74	1294,32
751,92	1204,21
752,10	1290,22
752,28	1312,75
752,46	1298,41
752,64	1298,41
752,82	1253,36
753,00	1296,36
753,18	1296,36
753,35	1267,69
753,53	1310,70
753,71	1302,51
753,89	1261,55
754,07	1284,08
754,25	1232,88
754,43	1286,12
754,61	1224,69
754,79	1247,21
754,97	1245,16
755,14	1243,12
755,32	1253,36
755,50	1349,61
755,68	1187,82
755,86	1279,98
756,04	1224,69
756,22	1288,17
756,40	1206,25
756,57	1314,80
756,75	1312,75
756,93	1271,79
757,11	1294,32
757,29	1263,60
757,47	1273,84
757,65	1279,98
757,82	1220,59
758,00	1279,98
758,18	1286,12
758,36	1239,02
758,54	1298,41
758,72	1236,97
758,90	1325,04
759,07	1273,84
759,25	1282,03
759,43	1318,89
759,61	1320,94
759,79	1282,03
759,97	1198,06
760,15	1214,45
760,32	1296,36
760,50	1177,58
760,68	1288,17
760,86	1253,36
761,04	1265,64
761,22	1204,21
761,39	1337,32
761,57	1288,17
761,75	1325,04
761,93	1294,32
762,11	1210,35
762,28	1243,12
762,46	1329,13
762,64	1232,88
762,82	1196,01
763,00	1218,54
763,18	1253,36
763,35	1173,49
763,53	1269,74
763,71	1265,64
763,89	1230,83
764,07	1308,65
764,24	1337,32
764,42	1247,21
764,60	1284,08
764,78	1316,84
764,96	1331,18
765,13	1378,28
765,31	1318,89
765,49	1314,80
765,67	1263,60
765,84	1316,84
766,02	1306,60
766,20	1251,31
766,38	1261,55
766,56	1208,30
766,73	1363,95
766,91	1288,17
767,09	1318,89
767,27	1226,73
767,44	1312,75
767,62	1249,26
767,80	1218,54
767,98	1239,02
768,15	1257,45
768,33	1251,31
768,51	1236,97
768,69	1255,40
768,87	1294,32
769,04	1339,37
769,22	1300,46
769,40	1214,45
769,58	1279,98
769,75	1204,21
769,93	1279,98
770,11	1265,64
770,28	1249,26
770,46	1300,46
770,64	1298,41
770,82	1292,27
770,99	1294,32
771,17	1304,56
771,35	1292,27
771,53	1241,07
771,70	1249,26
771,88	1263,60
772,06	1249,26
772,23	1253,36
772,41	1271,79
772,59	1181,68
772,77	1267,69
772,94	1239,02
773,12	1243,12
773,30	1261,55
773,47	1284,08
773,65	1239,02
773,83	1279,98
774,01	1261,55
774,18	1263,60
774,36	1269,74
774,54	1343,47
774,71	1234,93
774,89	1265,64
775,07	1228,78
775,24	1232,88
775,42	1331,18
775,60	1259,50
775,78	1228,78
775,95	1284,08
776,13	1181,68
776,31	1296,36
776,48	1206,25
776,66	1327,08
776,84	1298,41
777,01	1320,94
777,19	1275,88
777,37	1263,60
777,54	1232,88
777,72	1251,31
777,90	1247,21
778,07	1265,64
778,25	1269,74
778,43	1251,31
778,60	1277,93
778,78	1286,12
778,96	1214,45
779,13	1226,73
779,31	1226,73
779,49	1185,77
779,66	1318,89
779,84	1302,51
780,01	1273,84
780,19	1279,98
780,37	1271,79
780,54	1245,16
780,72	1261,55
780,90	1224,69
781,07	1236,97
781,25	1273,84
781,43	1187,82
781,60	1269,74
781,78	1204,21
781,95	1251,31
782,13	1261,55
782,31	1226,73
782,48	1271,79
782,66	1271,79
782,83	1230,83
783,01	1304,56
783,19	1261,55
783,36	1279,98
783,54	1232,88
783,72	1271,79
783,89	1212,40
784,07	1351,66
784,24	1322,99
784,42	1310,70
784,60	1273,84
784,77	1193,97
784,95	1265,64
785,12	1245,16
785,30	1306,60
785,47	1243,12
785,65	1236,97
785,83	1286,12
786,00	1212,40
786,18	1220,59
786,35	1335,28
786,53	1265,64
786,71	1316,84
786,88	1275,88
787,06	1253,36
787,23	1345,52
787,41	1257,45
787,58	1292,27
787,76	1255,40
787,94	1228,78
788,11	1204,21
788,29	1273,84
788,46	1286,12
788,64	1255,40
788,81	1224,69
788,99	1267,69
789,16	1329,13
789,34	1265,64
789,52	1239,02
789,69	1357,80
789,87	1239,02
790,04	1261,55
790,22	1271,79
790,39	1308,65
790,57	1306,60
790,74	1191,92
790,92	1247,21
791,09	1306,60
791,27	1306,60
791,44	1257,45
791,62	1236,97
791,79	1218,54
791,97	1212,40
792,15	1292,27
792,32	1286,12
792,50	1234,93
792,67	1257,45
792,85	1261,55
793,02	1282,03
793,20	1273,84
793,37	1314,80
793,55	1263,60
793,72	1249,26
793,90	1296,36
794,07	1308,65
794,25	1236,97
794,42	1230,83
794,60	1257,45
794,77	1259,50
794,95	1251,31
795,12	1257,45
795,30	1263,60
795,47	1355,76
795,65	1339,37
795,82	1335,28
796,00	1288,17
796,17	1245,16
796,34	1243,12
796,52	1241,07
796,69	1239,02
796,87	1267,69
797,04	1263,60
797,22	1198,06
797,39	1298,41
797,57	1239,02
797,74	1230,83
797,92	1294,32
798,09	1271,79
798,27	1273,84
798,44	1273,84
798,62	1292,27
798,79	1302,51
798,96	1329,13
799,14	1257,45
799,31	1292,27
799,49	1312,75
799,66	1275,88
799,84	1198,06
800,01	1228,78
800,19	1269,74
800,36	1239,02
800,53	1273,84
800,71	1265,64
800,88	1196,01
801,06	1284,08
801,23	1220,59
801,41	1288,17
801,58	1257,45
801,75	1204,21
801,93	1359,85
802,10	1300,46
802,28	1329,13
802,45	1296,36
802,63	1300,46
802,80	1202,16
802,97	1267,69
803,15	1263,60
803,32	1269,74
803,50	1259,50
803,67	1265,64
803,84	1322,99
804,02	1234,93
804,19	1261,55
804,37	1271,79
804,54	1279,98
804,71	1284,08
804,89	1282,03
805,06	1292,27
805,24	1286,12
805,41	1286,12
805,58	1298,41
805,76	1329,13
805,93	1255,40
806,10	1290,22
806,28	1255,40
806,45	1298,41
806,63	1257,45
806,80	1206,25
806,97	1273,84
807,15	1282,03
807,32	1236,97
807,49	1273,84
807,67	1265,64
807,84	1273,84
808,01	1183,73
808,19	1241,07
808,36	1343,47
808,54	1257,45
808,71	1261,55
808,88	1212,40
809,06	1239,02
809,23	1224,69
809,40	1304,56
809,58	1228,78
809,75	1312,75
809,92	1253,36
810,10	1245,16
810,27	1331,18
810,44	1251,31
810,62	1314,80
810,79	1290,22
810,96	1296,36
811,14	1296,36
811,31	1298,41
811,48	1290,22
811,66	1265,64
811,83	1273,84
812,00	1290,22
812,18	1294,32
812,35	1312,75
812,52	1290,22
812,69	1273,84
812,87	1286,12
813,04	1198,06
813,21	1241,07
813,39	1271,79
813,56	1304,56
813,73	1236,97
813,91	1253,36
814,08	1284,08
814,25	1189,87
814,42	1314,80
814,60	1230,83
814,77	1261,55
814,94	1296,36
815,12	1263,60
815,29	1247,21
815,46	1183,73
815,63	1241,07
815,81	1320,94
815,98	1300,46
816,15	1265,64
816,33	1279,98
816,50	1300,46
816,67	1267,69
816,84	1327,08
817,02	1265,64
817,19	1222,64
817,36	1277,93
817,53	1261,55
817,71	1234,93
817,88	1275,88
818,05	1243,12
818,22	1257,45
818,40	1316,84
818,57	1273,84
818,74	1259,50
818,91	1286,12
819,09	1187,82
819,26	1300,46
819,43	1171,44
819,60	1355,76
819,78	1263,60
819,95	1314,80
820,12	1275,88
820,29	1282,03
820,47	1308,65
820,64	1247,21
820,81	1284,08
820,98	1378,28
821,15	1300,46
821,33	1247,21
821,50	1218,54
821,67	1236,97
821,84	1255,40
822,02	1269,74
822,19	1249,26
822,36	1253,36
822,53	1331,18
822,70	1193,97
822,88	1179,63
823,05	1345,52
823,22	1318,89
823,39	1296,36
823,56	1234,93
823,74	1247,21
823,91	1249,26
824,08	1277,93
824,25	1306,60
824,42	1228,78
824,60	1265,64
824,77	1279,98
824,94	1253,36
825,11	1228,78
825,28	1255,40
825,45	1329,13
825,63	1204,21
825,80	1218,54
825,97	1273,84
826,14	1216,49
826,31	1220,59
826,48	1277,93
826,66	1216,49
826,83	1245,16
827,00	1347,56
827,17	1228,78
827,34	1271,79
827,51	1282,03
827,69	1259,50
827,86	1265,64
828,03	1253,36
828,20	1212,40
828,37	1245,16
828,54	1222,64
828,71	1232,88
828,89	1241,07
829,06	1290,22
829,23	1320,94
829,40	1263,60
829,57	1304,56
829,74	1163,25
829,91	1267,69
830,09	1259,50
830,26	1357,80
830,43	1282,03
830,60	1255,40
830,77	1302,51
830,94	1300,46
831,11	1230,83
831,28	1232,88
831,46	1230,83
831,63	1191,92
831,80	1347,56
831,97	1304,56
832,14	1239,02
832,31	1277,93
832,48	1269,74
832,65	1308,65
832,82	1228,78
832,99	1290,22
833,17	1288,17
833,34	1206,25
833,51	1284,08
833,68	1310,70
833,85	1290,22
834,02	1298,41
834,19	1308,65
834,36	1200,11
834,53	1177,58
834,70	1222,64
834,87	1355,76
835,04	1282,03
835,22	1290,22
835,39	1306,60
835,56	1318,89
835,73	1314,80
835,90	1333,23
836,07	1241,07
836,24	1298,41
836,41	1282,03
836,58	1306,60
836,75	1308,65
836,92	1234,93
837,09	1189,87
837,26	1261,55
837,43	1267,69
837,60	1273,84
837,77	1320,94
837,94	1261,55
838,12	1304,56
838,29	1267,69
838,46	1208,30
838,63	1241,07
838,80	1267,69
838,97	1239,02
839,14	1327,08
839,31	1314,80
839,48	1306,60
839,65	1267,69
839,82	1298,41
839,99	1322,99
840,16	1325,04
840,33	1279,98
840,50	1261,55
840,67	1282,03
840,84	1271,79
841,01	1273,84
841,18	1196,01
841,35	1335,28
841,52	1243,12
841,69	1214,45
841,86	1288,17
842,03	1257,45
842,20	1220,59
842,37	1294,32
842,54	1316,84
842,71	1269,74
842,88	1294,32
843,05	1341,42
843,22	1230,83
843,39	1298,41
843,56	1302,51
843,73	1261,55
843,90	1288,17
844,07	1255,40
844,24	1212,40
844,41	1284,08
844,58	1277,93
844,75	1277,93
844,92	1257,45
845,09	1230,83
845,26	1255,40
845,43	1269,74
845,60	1247,21
845,77	1275,88
845,94	1265,64
846,10	1222,64
846,27	1273,84
846,44	1255,40
846,61	1189,87
846,78	1300,46
846,95	1222,64
847,12	1204,21
847,29	1234,93
847,46	1306,60
847,63	1296,36
847,80	1226,73
847,97	1216,49
848,14	1247,21
848,31	1265,64
848,48	1222,64
848,65	1261,55
848,82	1271,79
848,98	1277,93
849,15	1302,51
849,32	1288,17
849,49	1273,84
849,66	1300,46
849,83	1214,45
850,00	1273,84
850,17	1167,34
850,34	1265,64
850,51	1288,17
850,68	1292,27
850,85	1216,49
851,01	1288,17
851,18	1236,97
851,35	1228,78
851,52	1245,16
851,69	1216,49
851,86	1284,08
852,03	1279,98
852,20	1288,17
852,37	1230,83
852,53	1312,75
852,70	1267,69
852,87	1239,02
853,04	1304,56
853,21	1273,84
853,38	1314,80
853,55	1325,04
853,72	1288,17
853,89	1263,60
854,05	1284,08
854,22	1265,64
854,39	1300,46
854,56	1228,78
854,73	1263,60
854,90	1159,15
855,07	1222,64
855,23	1224,69
855,40	1234,93
855,57	1249,26
855,74	1200,11
855,91	1255,40
856,08	1226,73
856,25	1232,88
856,41	1277,93
856,58	1247,21
856,75	1271,79
856,92	1261,55
857,09	1320,94
857,26	1224,69
857,42	1191,92
857,59	1300,46
857,76	1251,31
857,93	1224,69
858,10	1183,73
858,27	1306,60
858,43	1267,69
858,60	1226,73
858,77	1269,74
858,94	1232,88
859,11	1279,98
859,27	1322,99
859,44	1222,64
859,61	1300,46
859,78	1290,22
859,95	1288,17
860,12	1257,45
860,28	1212,40
860,45	1343,47
860,62	1312,75
860,79	1294,32
860,95	1251,31
861,12	1265,64
861,29	1226,73
861,46	1200,11
861,63	1255,40
861,79	1325,04
861,96	1320,94
862,13	1282,03
862,30	1275,88
862,47	1288,17
862,63	1241,07
862,80	1216,49
862,97	1200,11
863,14	1191,92
863,30	1265,64
863,47	1265,64
863,64	1212,40
863,81	1279,98
863,97	1247,21
864,14	1228,78
864,31	1259,50
864,48	1265,64
864,65	1204,21
864,81	1341,42
864,98	1316,84
865,15	1304,56
865,32	1351,66
865,48	1265,64
865,65	1251,31
865,82	1296,36
865,98	1218,54
866,15	1259,50
866,32	1308,65
866,49	1300,46
866,65	1255,40
866,82	1380,33
866,99	1302,51
867,16	1294,32
867,32	1267,69
867,49	1304,56
867,66	1257,45
867,83	1210,35
867,99	1232,88
868,16	1353,71
868,33	1255,40
868,49	1404,91
868,66	1257,45
868,83	1286,12
868,99	1269,74
869,16	1232,88
869,33	1265,64
869,50	1308,65
869,66	1275,88
869,83	1249,26
870,00	1255,40
870,16	1292,27
870,33	1259,50
870,50	1310,70
870,66	1320,94
870,83	1312,75
871,00	1294,32
871,17	1282,03
871,33	1312,75
871,50	1265,64
871,67	1304,56
871,83	1298,41
872,00	1322,99
872,17	1273,84
872,33	1224,69
872,50	1230,83
872,67	1236,97
872,83	1279,98
873,00	1267,69
873,17	1226,73
873,33	1228,78
873,50	1271,79
873,67	1208,30
873,83	1263,60
874,00	1277,93
874,16	1210,35
874,33	1290,22
874,50	1251,31
874,66	1245,16
874,83	1339,37
875,00	1275,88
875,16	1253,36
875,33	1300,46
875,50	1236,97
875,66	1234,93
875,83	1265,64
875,99	1343,47
876,16	1257,45
876,33	1290,22
876,49	1277,93
876,66	1245,16
876,83	1277,93
876,99	1245,16
877,16	1255,40
877,32	1241,07
877,49	1247,21
877,66	1257,45
877,82	1279,98
877,99	1318,89
878,15	1273,84
878,32	1259,50
878,49	1282,03
878,65	1230,83
878,82	1206,25
878,98	1257,45
879,15	1206,25
879,32	1228,78
879,48	1257,45
879,65	1241,07
879,81	1257,45
879,98	1179,63
880,15	1212,40
880,31	1282,03
880,48	1275,88
880,64	1234,93
880,81	1302,51
880,97	1241,07
881,14	1282,03
881,31	1185,77
881,47	1267,69
881,64	1206,25
881,80	1271,79
881,97	1271,79
882,13	1275,88
882,30	1304,56
882,47	1236,97
882,63	1247,21
882,80	1282,03
882,96	1284,08
883,13	1273,84
883,29	1214,45
883,46	1292,27
883,62	1259,50
883,79	1245,16
883,95	1312,75
884,12	1331,18
884,29	1331,18
884,45	1261,55
884,62	1277,93
884,78	1236,97
884,95	1288,17
885,11	1243,12
885,28	1306,60
885,44	1257,45
885,61	1318,89
885,77	1275,88
885,94	1271,79
886,10	1249,26
886,27	1298,41
886,43	1335,28
886,60	1247,21
886,76	1314,80
886,93	1224,69
887,09	1261,55
887,26	1277,93
887,42	1269,74
887,59	1267,69
887,75	1347,56
887,92	1228,78
888,08	1249,26
888,25	1228,78
888,41	1249,26
888,58	1253,36
888,74	1282,03
888,91	1312,75
>>>>>End Processed Spectral Data<<<<<
