SpectraSuite Data File
++++++++++++++++++++++++++++++++++++
Date: Sun Apr 03 19:55:14 CEST 2016
User: root
Dark Spectrum Present: No
Reference Spectrum Present: No
Number of Sampled Component Spectra: 1
Spectrometers: USB4C02835
Integration Time (usec): 10000 (USB4C02835)
Spectra Averaged: 1 (USB4C02835)
Boxcar Smoothing: 0 (USB4C02835)
Correct for Electrical Dark: No (USB4C02835)
Strobe/Lamp Enabled: No (USB4C02835)
Correct for Detector Non-linearity: No (USB4C02835)
Correct for Stray Light: No (USB4C02835)
Number of Pixels in Processed Spectrum: 3648
>>>>>Begin Processed Spectral Data<<<<<
177,47	1288,17
177,69	1288,17
177,91	1288,17
178,13	1232,88
178,36	1273,84
178,58	1251,31
178,80	1267,69
179,02	1298,41
179,24	1306,60
179,46	1228,78
179,68	1314,80
179,90	1265,64
180,13	1267,69
180,35	1271,79
180,57	1241,07
180,79	1288,17
181,01	1284,08
181,23	1308,65
181,45	1308,65
181,67	1306,60
181,90	1318,89
182,12	1259,50
182,34	1302,51
182,56	1265,64
182,78	1265,64
183,00	1282,03
183,22	1169,39
183,44	1226,73
183,66	1282,03
183,89	1300,46
184,11	1222,64
184,33	1322,99
184,55	1243,12
184,77	1320,94
184,99	1279,98
185,21	1284,08
185,43	1175,53
185,65	1245,16
185,87	1241,07
186,10	1255,40
186,32	1245,16
186,54	1337,32
186,76	1310,70
186,98	1288,17
187,20	1296,36
187,42	1261,55
187,64	1263,60
187,86	1249,26
188,08	1239,02
188,30	1243,12
188,52	1271,79
188,75	1245,16
188,97	1193,97
189,19	1220,59
189,41	1267,69
189,63	1214,45
189,85	1259,50
190,07	1228,78
190,29	1288,17
190,51	1234,93
190,73	1290,22
190,95	1279,98
191,17	1204,21
191,39	1282,03
191,61	1198,06
191,84	1271,79
192,06	1318,89
192,28	1277,93
192,50	1312,75
192,72	1183,73
192,94	1249,26
193,16	1257,45
193,38	1296,36
193,60	1271,79
193,82	1290,22
194,04	1200,11
194,26	1279,98
194,48	1249,26
194,70	1232,88
194,92	1298,41
195,14	1273,84
195,36	1198,06
195,58	1179,63
195,80	1267,69
196,02	1241,07
196,24	1189,87
196,46	1292,27
196,69	1304,56
196,91	1183,73
197,13	1206,25
197,35	1271,79
197,57	1298,41
197,79	1269,74
198,01	1230,83
198,23	1363,95
198,45	1214,45
198,67	1236,97
198,89	1249,26
199,11	1230,83
199,33	1370,09
199,55	1251,31
199,77	1239,02
199,99	1247,21
200,21	1198,06
200,43	1290,22
200,65	1275,88
200,87	1249,26
201,09	1290,22
201,31	1271,79
201,53	1247,21
201,75	1257,45
201,97	1245,16
202,19	1284,08
202,41	1296,36
202,63	1218,54
202,85	1210,35
203,07	1269,74
203,29	1271,79
203,51	1335,28
203,73	1284,08
203,95	1308,65
204,17	1232,88
204,39	1271,79
204,61	1343,47
204,83	1265,64
205,05	1290,22
205,27	1224,69
205,49	1302,51
205,71	1261,55
205,93	1265,64
206,15	1288,17
206,37	1320,94
206,59	1288,17
206,81	1257,45
207,03	1212,40
207,25	1212,40
207,47	1329,13
207,69	1343,47
207,91	1241,07
208,13	1263,60
208,34	1296,36
208,56	1292,27
208,78	1318,89
209,00	1269,74
209,22	1282,03
209,44	1241,07
209,66	1269,74
209,88	1255,40
210,10	1290,22
210,32	1249,26
210,54	1288,17
210,76	1224,69
210,98	1316,84
211,20	1288,17
211,42	1269,74
211,64	1224,69
211,86	1222,64
212,08	1232,88
212,30	1263,60
212,52	1212,40
212,74	1267,69
212,96	1234,93
213,17	1224,69
213,39	1310,70
213,61	1187,82
213,83	1261,55
214,05	1308,65
214,27	1273,84
214,49	1290,22
214,71	1220,59
214,93	1308,65
215,15	1267,69
215,37	1251,31
215,59	1322,99
215,81	1257,45
216,03	1290,22
216,24	1288,17
216,46	1253,36
216,68	1271,79
216,90	1310,70
217,12	1257,45
217,34	1202,16
217,56	1247,21
217,78	1193,97
218,00	1341,42
218,22	1245,16
218,44	1322,99
218,66	1286,12
218,87	1310,70
219,09	1282,03
219,31	1304,56
219,53	1226,73
219,75	1261,55
219,97	1232,88
220,19	1251,31
220,41	1261,55
220,63	1275,88
220,85	1304,56
221,06	1273,84
221,28	1265,64
221,50	1265,64
221,72	1361,90
221,94	1329,13
222,16	1175,53
222,38	1298,41
222,60	1312,75
222,82	1259,50
223,03	1181,68
223,25	1265,64
223,47	1249,26
223,69	1294,32
223,91	1282,03
224,13	1255,40
224,35	1271,79
224,57	1282,03
224,78	1253,36
225,00	1210,35
225,22	1216,49
225,44	1316,84
225,66	1310,70
225,88	1247,21
226,10	1302,51
226,32	1380,33
226,53	1314,80
226,75	1230,83
226,97	1234,93
227,19	1345,52
227,41	1290,22
227,63	1331,18
227,85	1298,41
228,06	1269,74
228,28	1247,21
228,50	1236,97
228,72	1265,64
228,94	1282,03
229,16	1298,41
229,37	1255,40
229,59	1286,12
229,81	1304,56
230,03	1249,26
230,25	1290,22
230,47	1224,69
230,69	1294,32
230,90	1247,21
231,12	1279,98
231,34	1370,09
231,56	1286,12
231,78	1359,85
232,00	1259,50
232,21	1286,12
232,43	1269,74
232,65	1306,60
232,87	1271,79
233,09	1275,88
233,30	1255,40
233,52	1290,22
233,74	1267,69
233,96	1249,26
234,18	1273,84
234,40	1261,55
234,61	1271,79
234,83	1257,45
235,05	1296,36
235,27	1284,08
235,49	1284,08
235,70	1259,50
235,92	1263,60
236,14	1163,25
236,36	1279,98
236,58	1296,36
236,79	1325,04
237,01	1308,65
237,23	1277,93
237,45	1236,97
237,67	1308,65
237,88	1296,36
238,10	1249,26
238,32	1298,41
238,54	1302,51
238,76	1247,21
238,97	1226,73
239,19	1282,03
239,41	1302,51
239,63	1296,36
239,85	1214,45
240,06	1228,78
240,28	1253,36
240,50	1232,88
240,72	1236,97
240,93	1249,26
241,15	1269,74
241,37	1216,49
241,59	1257,45
241,81	1183,73
242,02	1259,50
242,24	1286,12
242,46	1312,75
242,68	1282,03
242,89	1257,45
243,11	1183,73
243,33	1327,08
243,55	1249,26
243,76	1269,74
243,98	1255,40
244,20	1253,36
244,42	1290,22
244,64	1279,98
244,85	1265,64
245,07	1292,27
245,29	1273,84
245,51	1308,65
245,72	1294,32
245,94	1339,37
246,16	1249,26
246,38	1322,99
246,59	1294,32
246,81	1265,64
247,03	1214,45
247,24	1218,54
247,46	1245,16
247,68	1306,60
247,90	1288,17
248,11	1257,45
248,33	1220,59
248,55	1230,83
248,77	1222,64
248,98	1286,12
249,20	1251,31
249,42	1247,21
249,64	1306,60
249,85	1302,51
250,07	1292,27
250,29	1312,75
250,50	1275,88
250,72	1290,22
250,94	1239,02
251,16	1282,03
251,37	1232,88
251,59	1300,46
251,81	1322,99
252,02	1245,16
252,24	1292,27
252,46	1304,56
252,68	1263,60
252,89	1257,45
253,11	1187,82
253,33	1286,12
253,54	1234,93
253,76	1312,75
253,98	1222,64
254,20	1261,55
254,41	1306,60
254,63	1247,21
254,85	1251,31
255,06	1245,16
255,28	1236,97
255,50	1265,64
255,71	1232,88
255,93	1251,31
256,15	1273,84
256,36	1255,40
256,58	1277,93
256,80	1333,23
257,02	1320,94
257,23	1259,50
257,45	1316,84
257,67	1232,88
257,88	1216,49
258,10	1243,12
258,32	1259,50
258,53	1259,50
258,75	1204,21
258,97	1310,70
259,18	1222,64
259,40	1320,94
259,62	1265,64
259,83	1327,08
260,05	1206,25
260,27	1257,45
260,48	1177,58
260,70	1282,03
260,92	1232,88
261,13	1220,59
261,35	1318,89
261,57	1267,69
261,78	1273,84
262,00	1302,51
262,22	1282,03
262,43	1320,94
262,65	1263,60
262,86	1290,22
263,08	1257,45
263,30	1243,12
263,51	1302,51
263,73	1298,41
263,95	1275,88
264,16	1275,88
264,38	1247,21
264,60	1292,27
264,81	1314,80
265,03	1304,56
265,25	1300,46
265,46	1318,89
265,68	1269,74
265,89	1292,27
266,11	1325,04
266,33	1298,41
266,54	1310,70
266,76	1273,84
266,98	1234,93
267,19	1257,45
267,41	1265,64
267,62	1292,27
267,84	1290,22
268,06	1300,46
268,27	1277,93
268,49	1302,51
268,70	1296,36
268,92	1310,70
269,14	1302,51
269,35	1261,55
269,57	1279,98
269,79	1282,03
270,00	1253,36
270,22	1331,18
270,43	1296,36
270,65	1245,16
270,87	1282,03
271,08	1230,83
271,30	1259,50
271,51	1222,64
271,73	1271,79
271,95	1290,22
272,16	1224,69
272,38	1271,79
272,59	1296,36
272,81	1261,55
273,02	1261,55
273,24	1253,36
273,46	1279,98
273,67	1279,98
273,89	1271,79
274,10	1226,73
274,32	1245,16
274,54	1279,98
274,75	1263,60
274,97	1236,97
275,18	1300,46
275,40	1312,75
275,61	1236,97
275,83	1294,32
276,05	1245,16
276,26	1298,41
276,48	1249,26
276,69	1292,27
276,91	1247,21
277,12	1329,13
277,34	1239,02
277,55	1282,03
277,77	1253,36
277,99	1300,46
278,20	1267,69
278,42	1265,64
278,63	1230,83
278,85	1282,03
279,06	1306,60
279,28	1277,93
279,49	1230,83
279,71	1245,16
279,93	1251,31
280,14	1200,11
280,36	1234,93
280,57	1275,88
280,79	1257,45
281,00	1300,46
281,22	1282,03
281,43	1236,97
281,65	1284,08
281,86	1296,36
282,08	1230,83
282,29	1333,23
282,51	1230,83
282,73	1273,84
282,94	1191,92
283,16	1236,97
283,37	1241,07
283,59	1200,11
283,80	1218,54
284,02	1247,21
284,23	1304,56
284,45	1339,37
284,66	1263,60
284,88	1282,03
285,09	1275,88
285,31	1296,36
285,52	1288,17
285,74	1286,12
285,95	1320,94
286,17	1304,56
286,38	1245,16
286,60	1247,21
286,81	1196,01
287,03	1243,12
287,24	1148,91
287,46	1257,45
287,67	1214,45
287,89	1241,07
288,10	1298,41
288,32	1222,64
288,53	1284,08
288,75	1302,51
288,96	1269,74
289,18	1290,22
289,39	1275,88
289,61	1251,31
289,82	1247,21
290,04	1310,70
290,25	1193,97
290,47	1263,60
290,68	1300,46
290,90	1275,88
291,11	1208,30
291,33	1222,64
291,54	1247,21
291,76	1292,27
291,97	1292,27
292,18	1271,79
292,40	1265,64
292,61	1325,04
292,83	1257,45
293,04	1255,40
293,26	1277,93
293,47	1253,36
293,69	1267,69
293,90	1306,60
294,12	1265,64
294,33	1271,79
294,55	1275,88
294,76	1224,69
294,97	1279,98
295,19	1314,80
295,40	1333,23
295,62	1263,60
295,83	1277,93
296,05	1282,03
296,26	1261,55
296,48	1208,30
296,69	1234,93
296,90	1236,97
297,12	1218,54
297,33	1271,79
297,55	1294,32
297,76	1261,55
297,98	1273,84
298,19	1275,88
298,41	1230,83
298,62	1273,84
298,83	1331,18
299,05	1325,04
299,26	1259,50
299,48	1232,88
299,69	1255,40
299,90	1253,36
300,12	1251,31
300,33	1191,92
300,55	1312,75
300,76	1273,84
300,98	1316,84
301,19	1228,78
301,40	1234,93
301,62	1267,69
301,83	1216,49
302,05	1218,54
302,26	1265,64
302,47	1214,45
302,69	1261,55
302,90	1253,36
303,12	1284,08
303,33	1249,26
303,54	1275,88
303,76	1218,54
303,97	1245,16
304,19	1236,97
304,40	1368,04
304,61	1298,41
304,83	1212,40
305,04	1249,26
305,26	1337,32
305,47	1142,77
305,68	1267,69
305,90	1234,93
306,11	1234,93
306,33	1224,69
306,54	1239,02
306,75	1222,64
306,97	1224,69
307,18	1273,84
307,39	1316,84
307,61	1218,54
307,82	1261,55
308,04	1337,32
308,25	1273,84
308,46	1288,17
308,68	1298,41
308,89	1261,55
309,10	1253,36
309,32	1294,32
309,53	1226,73
309,74	1163,25
309,96	1239,02
310,17	1345,52
310,39	1286,12
310,60	1335,28
310,81	1290,22
311,03	1286,12
311,24	1257,45
311,45	1257,45
311,67	1341,42
311,88	1249,26
312,09	1271,79
312,31	1228,78
312,52	1234,93
312,73	1259,50
312,95	1269,74
313,16	1220,59
313,37	1302,51
313,59	1222,64
313,80	1306,60
314,01	1175,53
314,23	1331,18
314,44	1261,55
314,65	1314,80
314,87	1239,02
315,08	1253,36
315,29	1357,80
315,51	1234,93
315,72	1329,13
315,93	1239,02
316,15	1372,14
316,36	1279,98
316,57	1282,03
316,79	1288,17
317,00	1269,74
317,21	1308,65
317,43	1273,84
317,64	1269,74
317,85	1239,02
318,07	1212,40
318,28	1331,18
318,49	1325,04
318,70	1265,64
318,92	1277,93
319,13	1267,69
319,34	1239,02
319,56	1249,26
319,77	1196,01
319,98	1263,60
320,20	1271,79
320,41	1241,07
320,62	1296,36
320,83	1298,41
321,05	1241,07
321,26	1316,84
321,47	1273,84
321,69	1249,26
321,90	1204,21
322,11	1308,65
322,32	1234,93
322,54	1230,83
322,75	1226,73
322,96	1241,07
323,18	1269,74
323,39	1210,35
323,60	1341,42
323,81	1257,45
324,03	1224,69
324,24	1277,93
324,45	1282,03
324,66	1249,26
324,88	1216,49
325,09	1265,64
325,30	1210,35
325,52	1232,88
325,73	1284,08
325,94	1345,52
326,15	1243,12
326,37	1269,74
326,58	1267,69
326,79	1255,40
327,00	1210,35
327,22	1275,88
327,43	1265,64
327,64	1286,12
327,85	1282,03
328,07	1306,60
328,28	1265,64
328,49	1288,17
328,70	1261,55
328,92	1232,88
329,13	1251,31
329,34	1351,66
329,55	1282,03
329,76	1286,12
329,98	1271,79
330,19	1282,03
330,40	1288,17
330,61	1224,69
330,83	1249,26
331,04	1322,99
331,25	1306,60
331,46	1282,03
331,68	1273,84
331,89	1230,83
332,10	1216,49
332,31	1239,02
332,52	1298,41
332,74	1380,33
332,95	1300,46
333,16	1282,03
333,37	1290,22
333,58	1312,75
333,80	1214,45
334,01	1265,64
334,22	1302,51
334,43	1294,32
334,64	1288,17
334,86	1288,17
335,07	1277,93
335,28	1249,26
335,49	1279,98
335,70	1208,30
335,92	1249,26
336,13	1269,74
336,34	1302,51
336,55	1239,02
336,76	1243,12
336,98	1286,12
337,19	1275,88
337,40	1261,55
337,61	1298,41
337,82	1234,93
338,04	1241,07
338,25	1259,50
338,46	1249,26
338,67	1308,65
338,88	1255,40
339,09	1253,36
339,31	1257,45
339,52	1282,03
339,73	1292,27
339,94	1296,36
340,15	1263,60
340,36	1263,60
340,58	1288,17
340,79	1302,51
341,00	1288,17
341,21	1310,70
341,42	1277,93
341,63	1261,55
341,85	1271,79
342,06	1269,74
342,27	1183,73
342,48	1269,74
342,69	1236,97
342,90	1191,92
343,12	1286,12
343,33	1230,83
343,54	1230,83
343,75	1312,75
343,96	1202,16
344,17	1247,21
344,38	1314,80
344,60	1249,26
344,81	1224,69
345,02	1325,04
345,23	1277,93
345,44	1316,84
345,65	1288,17
345,86	1220,59
346,07	1171,44
346,29	1298,41
346,50	1282,03
346,71	1243,12
346,92	1304,56
347,13	1216,49
347,34	1202,16
347,55	1271,79
347,76	1204,21
347,98	1271,79
348,19	1290,22
348,40	1236,97
348,61	1290,22
348,82	1300,46
349,03	1243,12
349,24	1284,08
349,45	1292,27
349,66	1292,27
349,88	1261,55
350,09	1236,97
350,30	1232,88
350,51	1298,41
350,72	1218,54
350,93	1245,16
351,14	1267,69
351,35	1312,75
351,56	1255,40
351,77	1290,22
351,99	1230,83
352,20	1312,75
352,41	1314,80
352,62	1239,02
352,83	1314,80
353,04	1292,27
353,25	1327,08
353,46	1243,12
353,67	1277,93
353,88	1335,28
354,09	1226,73
354,30	1224,69
354,52	1271,79
354,73	1284,08
354,94	1155,05
355,15	1263,60
355,36	1265,64
355,57	1304,56
355,78	1349,61
355,99	1253,36
356,20	1302,51
356,41	1230,83
356,62	1251,31
356,83	1308,65
357,04	1306,60
357,25	1282,03
357,46	1191,92
357,68	1232,88
357,89	1226,73
358,10	1314,80
358,31	1245,16
358,52	1214,45
358,73	1241,07
358,94	1288,17
359,15	1224,69
359,36	1265,64
359,57	1245,16
359,78	1224,69
359,99	1206,25
360,20	1216,49
360,41	1255,40
360,62	1202,16
360,83	1261,55
361,04	1234,93
361,25	1257,45
361,46	1355,76
361,67	1228,78
361,88	1316,84
362,09	1175,53
362,30	1288,17
362,51	1234,93
362,72	1230,83
362,93	1232,88
363,14	1314,80
363,35	1292,27
363,56	1204,21
363,78	1267,69
363,99	1286,12
364,20	1247,21
364,41	1267,69
364,62	1320,94
364,83	1243,12
365,04	1234,93
365,25	1279,98
365,46	1304,56
365,67	1249,26
365,88	1304,56
366,09	1232,88
366,30	1331,18
366,51	1388,52
366,72	1269,74
366,93	1296,36
367,14	1228,78
367,35	1273,84
367,56	1259,50
367,77	1322,99
367,98	1314,80
368,18	1300,46
368,39	1193,97
368,60	1282,03
368,81	1286,12
369,02	1361,90
369,23	1273,84
369,44	1263,60
369,65	1415,15
369,86	1296,36
370,07	1335,28
370,28	1185,77
370,49	1304,56
370,70	1265,64
370,91	1284,08
371,12	1265,64
371,33	1267,69
371,54	1236,97
371,75	1247,21
371,96	1245,16
372,17	1282,03
372,38	1310,70
372,59	1277,93
372,80	1288,17
373,01	1220,59
373,22	1257,45
373,43	1239,02
373,64	1267,69
373,85	1296,36
374,06	1271,79
374,26	1286,12
374,47	1288,17
374,68	1261,55
374,89	1261,55
375,10	1241,07
375,31	1173,49
375,52	1282,03
375,73	1322,99
375,94	1251,31
376,15	1327,08
376,36	1290,22
376,57	1269,74
376,78	1241,07
376,99	1198,06
377,20	1220,59
377,40	1234,93
377,61	1234,93
377,82	1245,16
378,03	1304,56
378,24	1249,26
378,45	1282,03
378,66	1325,04
378,87	1239,02
379,08	1294,32
379,29	1320,94
379,50	1290,22
379,71	1290,22
379,91	1298,41
380,12	1206,25
380,33	1265,64
380,54	1257,45
380,75	1261,55
380,96	1185,77
381,17	1220,59
381,38	1279,98
381,59	1279,98
381,80	1308,65
382,00	1279,98
382,21	1325,04
382,42	1322,99
382,63	1257,45
382,84	1261,55
383,05	1275,88
383,26	1288,17
383,47	1269,74
383,68	1196,01
383,88	1255,40
384,09	1165,29
384,30	1337,32
384,51	1265,64
384,72	1282,03
384,93	1247,21
385,14	1282,03
385,35	1241,07
385,55	1271,79
385,76	1284,08
385,97	1294,32
386,18	1294,32
386,39	1243,12
386,60	1353,71
386,81	1292,27
387,02	1333,23
387,22	1273,84
387,43	1224,69
387,64	1259,50
387,85	1290,22
388,06	1220,59
388,27	1282,03
388,48	1255,40
388,68	1273,84
388,89	1300,46
389,10	1279,98
389,31	1316,84
389,52	1288,17
389,73	1277,93
389,93	1341,42
390,14	1302,51
390,35	1241,07
390,56	1312,75
390,77	1304,56
390,98	1245,16
391,18	1331,18
391,39	1234,93
391,60	1259,50
391,81	1277,93
392,02	1259,50
392,23	1296,36
392,43	1320,94
392,64	1345,52
392,85	1279,98
393,06	1263,60
393,27	1230,83
393,47	1247,21
393,68	1292,27
393,89	1370,09
394,10	1282,03
394,31	1310,70
394,52	1320,94
394,72	1222,64
394,93	1230,83
395,14	1267,69
395,35	1292,27
395,56	1222,64
395,76	1253,36
395,97	1349,61
396,18	1308,65
396,39	1189,87
396,60	1253,36
396,80	1265,64
397,01	1273,84
397,22	1329,13
397,43	1257,45
397,64	1253,36
397,84	1290,22
398,05	1288,17
398,26	1290,22
398,47	1220,59
398,67	1245,16
398,88	1253,36
399,09	1265,64
399,30	1224,69
399,51	1345,52
399,71	1288,17
399,92	1263,60
400,13	1249,26
400,34	1247,21
400,54	1163,25
400,75	1304,56
400,96	1312,75
401,17	1253,36
401,37	1296,36
401,58	1355,76
401,79	1302,51
402,00	1251,31
402,21	1234,93
402,41	1288,17
402,62	1220,59
402,83	1257,45
403,04	1282,03
403,24	1314,80
403,45	1265,64
403,66	1304,56
403,87	1343,47
404,07	1294,32
404,28	1282,03
404,49	1275,88
404,70	1263,60
404,90	1282,03
405,11	1298,41
405,32	1216,49
405,52	1279,98
405,73	1282,03
405,94	1241,07
406,15	1265,64
406,35	1282,03
406,56	1310,70
406,77	1308,65
406,98	1271,79
407,18	1234,93
407,39	1279,98
407,60	1204,21
407,80	1300,46
408,01	1257,45
408,22	1310,70
408,43	1241,07
408,63	1347,56
408,84	1245,16
409,05	1308,65
409,25	1220,59
409,46	1236,97
409,67	1228,78
409,88	1304,56
410,08	1253,36
410,29	1357,80
410,50	1239,02
410,70	1302,51
410,91	1241,07
411,12	1243,12
411,32	1230,83
411,53	1247,21
411,74	1306,60
411,95	1241,07
412,15	1239,02
412,36	1239,02
412,57	1273,84
412,77	1265,64
412,98	1259,50
413,19	1236,97
413,39	1333,23
413,60	1290,22
413,81	1251,31
414,01	1232,88
414,22	1296,36
414,43	1288,17
414,63	1337,32
414,84	1263,60
415,05	1247,21
415,25	1232,88
415,46	1265,64
415,67	1282,03
415,87	1224,69
416,08	1300,46
416,29	1263,60
416,49	1198,06
416,70	1277,93
416,91	1255,40
417,11	1265,64
417,32	1241,07
417,53	1204,21
417,73	1327,08
417,94	1234,93
418,15	1271,79
418,35	1290,22
418,56	1232,88
418,77	1222,64
418,97	1306,60
419,18	1228,78
419,38	1189,87
419,59	1318,89
419,80	1214,45
420,00	1263,60
420,21	1314,80
420,42	1263,60
420,62	1282,03
420,83	1300,46
421,04	1251,31
421,24	1245,16
421,45	1314,80
421,65	1200,11
421,86	1318,89
422,07	1241,07
422,27	1261,55
422,48	1220,59
422,69	1247,21
422,89	1165,29
423,10	1224,69
423,30	1304,56
423,51	1247,21
423,72	1222,64
423,92	1226,73
424,13	1208,30
424,33	1288,17
424,54	1286,12
424,75	1306,60
424,95	1208,30
425,16	1265,64
425,36	1232,88
425,57	1236,97
425,78	1175,53
425,98	1304,56
426,19	1232,88
426,39	1288,17
426,60	1380,33
426,81	1306,60
427,01	1263,60
427,22	1216,49
427,42	1245,16
427,63	1257,45
427,83	1282,03
428,04	1302,51
428,25	1259,50
428,45	1296,36
428,66	1263,60
428,86	1259,50
429,07	1304,56
429,28	1308,65
429,48	1259,50
429,69	1282,03
429,89	1300,46
430,10	1290,22
430,30	1288,17
430,51	1198,06
430,71	1214,45
430,92	1314,80
431,13	1265,64
431,33	1282,03
431,54	1175,53
431,74	1277,93
431,95	1222,64
432,15	1232,88
432,36	1251,31
432,56	1308,65
432,77	1204,21
432,98	1251,31
433,18	1265,64
433,39	1271,79
433,59	1306,60
433,80	1271,79
434,00	1290,22
434,21	1241,07
434,41	1277,93
434,62	1214,45
434,82	1288,17
435,03	1294,32
435,23	1243,12
435,44	1222,64
435,64	1257,45
435,85	1298,41
436,06	1329,13
436,26	1257,45
436,47	1290,22
436,67	1243,12
436,88	1312,75
437,08	1189,87
437,29	1255,40
437,49	1241,07
437,70	1298,41
437,90	1372,14
438,11	1294,32
438,31	1245,16
438,52	1269,74
438,72	1265,64
438,93	1288,17
439,13	1177,58
439,34	1298,41
439,54	1347,56
439,75	1265,64
439,95	1265,64
440,16	1284,08
440,36	1185,77
440,57	1218,54
440,77	1320,94
440,98	1183,73
441,18	1245,16
441,39	1314,80
441,59	1249,26
441,80	1253,36
442,00	1263,60
442,21	1290,22
442,41	1236,97
442,62	1302,51
442,82	1290,22
443,02	1275,88
443,23	1290,22
443,43	1257,45
443,64	1277,93
443,84	1196,01
444,05	1304,56
444,25	1267,69
444,46	1249,26
444,66	1243,12
444,87	1214,45
445,07	1308,65
445,28	1220,59
445,48	1343,47
445,69	1230,83
445,89	1273,84
446,09	1288,17
446,30	1279,98
446,50	1294,32
446,71	1310,70
446,91	1331,18
447,12	1279,98
447,32	1347,56
447,53	1308,65
447,73	1228,78
447,93	1241,07
448,14	1296,36
448,34	1269,74
448,55	1306,60
448,75	1302,51
448,96	1290,22
449,16	1255,40
449,36	1247,21
449,57	1265,64
449,77	1265,64
449,98	1284,08
450,18	1298,41
450,39	1226,73
450,59	1306,60
450,79	1216,49
451,00	1243,12
451,20	1265,64
451,41	1339,37
451,61	1222,64
451,81	1302,51
452,02	1273,84
452,22	1226,73
452,43	1239,02
452,63	1245,16
452,84	1273,84
453,04	1232,88
453,24	1247,21
453,45	1275,88
453,65	1267,69
453,86	1247,21
454,06	1253,36
454,26	1234,93
454,47	1316,84
454,67	1257,45
454,87	1333,23
455,08	1271,79
455,28	1288,17
455,49	1296,36
455,69	1259,50
455,89	1279,98
456,10	1267,69
456,30	1251,31
456,51	1347,56
456,71	1318,89
456,91	1279,98
457,12	1261,55
457,32	1308,65
457,52	1253,36
457,73	1257,45
457,93	1333,23
458,14	1257,45
458,34	1196,01
458,54	1343,47
458,75	1298,41
458,95	1196,01
459,15	1290,22
459,36	1294,32
459,56	1308,65
459,76	1241,07
459,97	1232,88
460,17	1286,12
460,37	1288,17
460,58	1265,64
460,78	1273,84
460,99	1241,07
461,19	1253,36
461,39	1253,36
461,60	1290,22
461,80	1265,64
462,00	1306,60
462,21	1257,45
462,41	1316,84
462,61	1249,26
462,82	1290,22
463,02	1271,79
463,22	1306,60
463,43	1331,18
463,63	1269,74
463,83	1230,83
464,04	1279,98
464,24	1271,79
464,44	1273,84
464,64	1228,78
464,85	1277,93
465,05	1257,45
465,25	1241,07
465,46	1210,35
465,66	1282,03
465,86	1288,17
466,07	1288,17
466,27	1267,69
466,47	1269,74
466,68	1277,93
466,88	1296,36
467,08	1300,46
467,29	1173,49
467,49	1220,59
467,69	1337,32
467,89	1290,22
468,10	1232,88
468,30	1327,08
468,50	1331,18
468,71	1204,21
468,91	1255,40
469,11	1298,41
469,31	1249,26
469,52	1224,69
469,72	1318,89
469,92	1290,22
470,13	1374,19
470,33	1304,56
470,53	1273,84
470,73	1284,08
470,94	1247,21
471,14	1314,80
471,34	1294,32
471,54	1277,93
471,75	1212,40
471,95	1296,36
472,15	1357,80
472,36	1230,83
472,56	1312,75
472,76	1275,88
472,96	1312,75
473,17	1230,83
473,37	1236,97
473,57	1316,84
473,77	1230,83
473,98	1214,45
474,18	1228,78
474,38	1282,03
474,58	1300,46
474,79	1189,87
474,99	1288,17
475,19	1351,66
475,39	1263,60
475,60	1368,04
475,80	1279,98
476,00	1200,11
476,20	1241,07
476,41	1236,97
476,61	1271,79
476,81	1316,84
477,01	1325,04
477,21	1282,03
477,42	1265,64
477,62	1218,54
477,82	1351,66
478,02	1204,21
478,23	1288,17
478,43	1265,64
478,63	1224,69
478,83	1257,45
479,03	1230,83
479,24	1288,17
479,44	1290,22
479,64	1322,99
479,84	1243,12
480,04	1251,31
480,25	1255,40
480,45	1185,77
480,65	1228,78
480,85	1288,17
481,06	1257,45
481,26	1273,84
481,46	1271,79
481,66	1245,16
481,86	1308,65
482,06	1314,80
482,27	1241,07
482,47	1265,64
482,67	1306,60
482,87	1267,69
483,07	1292,27
483,28	1275,88
483,48	1263,60
483,68	1267,69
483,88	1245,16
484,08	1234,93
484,29	1271,79
484,49	1269,74
484,69	1269,74
484,89	1286,12
485,09	1263,60
485,29	1257,45
485,50	1279,98
485,70	1271,79
485,90	1294,32
486,10	1271,79
486,30	1314,80
486,50	1253,36
486,71	1310,70
486,91	1271,79
487,11	1286,12
487,31	1337,32
487,51	1310,70
487,71	1222,64
487,91	1241,07
488,12	1320,94
488,32	1228,78
488,52	1333,23
488,72	1257,45
488,92	1318,89
489,12	1279,98
489,32	1218,54
489,53	1179,63
489,73	1261,55
489,93	1239,02
490,13	1204,21
490,33	1302,51
490,53	1267,69
490,73	1294,32
490,94	1204,21
491,14	1339,37
491,34	1253,36
491,54	1253,36
491,74	1279,98
491,94	1275,88
492,14	1312,75
492,34	1277,93
492,54	1269,74
492,75	1294,32
492,95	1257,45
493,15	1306,60
493,35	1331,18
493,55	1296,36
493,75	1294,32
493,95	1320,94
494,15	1265,64
494,35	1357,80
494,56	1261,55
494,76	1263,60
494,96	1282,03
495,16	1294,32
495,36	1292,27
495,56	1296,36
495,76	1322,99
495,96	1290,22
496,16	1282,03
496,36	1226,73
496,56	1239,02
496,77	1218,54
496,97	1294,32
497,17	1363,95
497,37	1275,88
497,57	1343,47
497,77	1314,80
497,97	1306,60
498,17	1286,12
498,37	1271,79
498,57	1273,84
498,77	1292,27
498,97	1275,88
499,17	1255,40
499,38	1263,60
499,58	1265,64
499,78	1296,36
499,98	1271,79
500,18	1337,32
500,38	1198,06
500,58	1214,45
500,78	1282,03
500,98	1269,74
501,18	1265,64
501,38	1234,93
501,58	1261,55
501,78	1265,64
501,98	1308,65
502,18	1241,07
502,38	1236,97
502,58	1159,15
502,78	1220,59
502,98	1261,55
503,18	1255,40
503,38	1232,88
503,59	1277,93
503,79	1257,45
503,99	1261,55
504,19	1261,55
504,39	1298,41
504,59	1282,03
504,79	1269,74
504,99	1294,32
505,19	1314,80
505,39	1294,32
505,59	1267,69
505,79	1286,12
505,99	1224,69
506,19	1279,98
506,39	1288,17
506,59	1300,46
506,79	1273,84
506,99	1294,32
507,19	1255,40
507,39	1306,60
507,59	1200,11
507,79	1318,89
507,99	1222,64
508,19	1226,73
508,39	1282,03
508,59	1259,50
508,79	1257,45
508,99	1314,80
509,19	1329,13
509,39	1302,51
509,59	1243,12
509,79	1306,60
509,99	1232,88
510,19	1294,32
510,39	1249,26
510,59	1275,88
510,79	1290,22
510,99	1282,03
511,19	1335,28
511,39	1310,70
511,59	1306,60
511,79	1286,12
511,99	1247,21
512,19	1302,51
512,38	1245,16
512,58	1282,03
512,78	1347,56
512,98	1308,65
513,18	1232,88
513,38	1232,88
513,58	1349,61
513,78	1284,08
513,98	1327,08
514,18	1257,45
514,38	1329,13
514,58	1241,07
514,78	1306,60
514,98	1347,56
515,18	1271,79
515,38	1271,79
515,58	1269,74
515,78	1294,32
515,98	1290,22
516,18	1267,69
516,38	1239,02
516,57	1296,36
516,77	1241,07
516,97	1312,75
517,17	1292,27
517,37	1224,69
517,57	1327,08
517,77	1257,45
517,97	1228,78
518,17	1273,84
518,37	1320,94
518,57	1306,60
518,77	1275,88
518,97	1218,54
519,16	1243,12
519,36	1251,31
519,56	1294,32
519,76	1185,77
519,96	1273,84
520,16	1263,60
520,36	1337,32
520,56	1349,61
520,76	1284,08
520,96	1220,59
521,16	1333,23
521,35	1277,93
521,55	1314,80
521,75	1320,94
521,95	1314,80
522,15	1275,88
522,35	1253,36
522,55	1273,84
522,75	1308,65
522,95	1304,56
523,14	1302,51
523,34	1300,46
523,54	1271,79
523,74	1175,53
523,94	1302,51
524,14	1265,64
524,34	1271,79
524,54	1220,59
524,73	1341,42
524,93	1277,93
525,13	1290,22
525,33	1249,26
525,53	1279,98
525,73	1290,22
525,93	1343,47
526,13	1304,56
526,32	1286,12
526,52	1275,88
526,72	1302,51
526,92	1259,50
527,12	1273,84
527,32	1339,37
527,52	1282,03
527,71	1327,08
527,91	1273,84
528,11	1267,69
528,31	1232,88
528,51	1294,32
528,71	1230,83
528,90	1298,41
529,10	1292,27
529,30	1275,88
529,50	1261,55
529,70	1302,51
529,90	1345,52
530,09	1286,12
530,29	1320,94
530,49	1243,12
530,69	1298,41
530,89	1220,59
531,09	1306,60
531,28	1261,55
531,48	1308,65
531,68	1273,84
531,88	1251,31
532,08	1247,21
532,28	1263,60
532,47	1251,31
532,67	1335,28
532,87	1271,79
533,07	1322,99
533,27	1265,64
533,46	1325,04
533,66	1239,02
533,86	1259,50
534,06	1251,31
534,26	1279,98
534,45	1265,64
534,65	1292,27
534,85	1339,37
535,05	1296,36
535,25	1253,36
535,44	1392,62
535,64	1273,84
535,84	1290,22
536,04	1251,31
536,24	1236,97
536,43	1259,50
536,63	1234,93
536,83	1331,18
537,03	1214,45
537,22	1212,40
537,42	1294,32
537,62	1302,51
537,82	1288,17
538,02	1294,32
538,21	1325,04
538,41	1263,60
538,61	1290,22
538,81	1220,59
539,00	1286,12
539,20	1269,74
539,40	1273,84
539,60	1253,36
539,79	1292,27
539,99	1243,12
540,19	1234,93
540,39	1308,65
540,58	1236,97
540,78	1333,23
540,98	1329,13
541,18	1206,25
541,37	1282,03
541,57	1318,89
541,77	1212,40
541,97	1288,17
542,16	1228,78
542,36	1269,74
542,56	1279,98
542,76	1312,75
542,95	1361,90
543,15	1273,84
543,35	1222,64
543,54	1277,93
543,74	1230,83
543,94	1255,40
544,14	1265,64
544,33	1339,37
544,53	1282,03
544,73	1306,60
544,93	1243,12
545,12	1349,61
545,32	1222,64
545,52	1290,22
545,71	1296,36
545,91	1279,98
546,11	1306,60
546,30	1275,88
546,50	1216,49
546,70	1251,31
546,90	1279,98
547,09	1296,36
547,29	1302,51
547,49	1318,89
547,68	1277,93
547,88	1245,16
548,08	1347,56
548,27	1320,94
548,47	1247,21
548,67	1249,26
548,87	1267,69
549,06	1243,12
549,26	1314,80
549,46	1284,08
549,65	1355,76
549,85	1255,40
550,05	1359,85
550,24	1253,36
550,44	1302,51
550,64	1298,41
550,83	1277,93
551,03	1271,79
551,23	1208,30
551,42	1261,55
551,62	1275,88
551,82	1261,55
552,01	1216,49
552,21	1255,40
552,41	1345,52
552,60	1347,56
552,80	1335,28
553,00	1312,75
553,19	1269,74
553,39	1273,84
553,59	1296,36
553,78	1261,55
553,98	1234,93
554,17	1306,60
554,37	1298,41
554,57	1228,78
554,76	1273,84
554,96	1341,42
555,16	1253,36
555,35	1286,12
555,55	1288,17
555,75	1243,12
555,94	1314,80
556,14	1206,25
556,33	1241,07
556,53	1222,64
556,73	1232,88
556,92	1220,59
557,12	1282,03
557,32	1316,84
557,51	1376,24
557,71	1284,08
557,90	1245,16
558,10	1298,41
558,30	1325,04
558,49	1253,36
558,69	1304,56
558,88	1374,19
559,08	1300,46
559,28	1284,08
559,47	1271,79
559,67	1286,12
559,86	1357,80
560,06	1228,78
560,26	1245,16
560,45	1261,55
560,65	1232,88
560,84	1208,30
561,04	1288,17
561,24	1259,50
561,43	1314,80
561,63	1202,16
561,82	1296,36
562,02	1263,60
562,22	1302,51
562,41	1271,79
562,61	1302,51
562,80	1284,08
563,00	1265,64
563,19	1279,98
563,39	1300,46
563,59	1339,37
563,78	1294,32
563,98	1189,87
564,17	1271,79
564,37	1247,21
564,56	1259,50
564,76	1298,41
564,96	1279,98
565,15	1320,94
565,35	1343,47
565,54	1316,84
565,74	1308,65
565,93	1322,99
566,13	1298,41
566,32	1284,08
566,52	1271,79
566,71	1247,21
566,91	1222,64
567,11	1273,84
567,30	1374,19
567,50	1325,04
567,69	1230,83
567,89	1296,36
568,08	1343,47
568,28	1267,69
568,47	1290,22
568,67	1257,45
568,86	1290,22
569,06	1236,97
569,25	1282,03
569,45	1261,55
569,64	1314,80
569,84	1277,93
570,04	1284,08
570,23	1253,36
570,43	1337,32
570,62	1302,51
570,82	1296,36
571,01	1314,80
571,21	1267,69
571,40	1228,78
571,60	1288,17
571,79	1277,93
571,99	1329,13
572,18	1343,47
572,38	1370,09
572,57	1370,09
572,77	1357,80
572,96	1288,17
573,16	1288,17
573,35	1286,12
573,55	1212,40
573,74	1306,60
573,94	1243,12
574,13	1269,74
574,33	1335,28
574,52	1239,02
574,71	1294,32
574,91	1255,40
575,10	1222,64
575,30	1257,45
575,49	1234,93
575,69	1288,17
575,88	1337,32
576,08	1294,32
576,27	1390,57
576,47	1275,88
576,66	1267,69
576,86	1216,49
577,05	1267,69
577,25	1257,45
577,44	1265,64
577,64	1249,26
577,83	1314,80
578,02	1269,74
578,22	1257,45
578,41	1304,56
578,61	1327,08
578,80	1329,13
579,00	1212,40
579,19	1327,08
579,39	1306,60
579,58	1253,36
579,77	1304,56
579,97	1374,19
580,16	1335,28
580,36	1275,88
580,55	1390,57
580,75	1294,32
580,94	1286,12
581,13	1230,83
581,33	1325,04
581,52	1245,16
581,72	1265,64
581,91	1312,75
582,11	1265,64
582,30	1277,93
582,49	1292,27
582,69	1302,51
582,88	1263,60
583,08	1277,93
583,27	1218,54
583,47	1341,42
583,66	1267,69
583,85	1347,56
584,05	1271,79
584,24	1296,36
584,44	1241,07
584,63	1306,60
584,82	1320,94
585,02	1261,55
585,21	1310,70
585,41	1302,51
585,60	1294,32
585,79	1304,56
585,99	1310,70
586,18	1263,60
586,37	1296,36
586,57	1273,84
586,76	1327,08
586,96	1308,65
587,15	1267,69
587,34	1318,89
587,54	1304,56
587,73	1222,64
587,93	1372,14
588,12	1214,45
588,31	1259,50
588,51	1284,08
588,70	1224,69
588,89	1306,60
589,09	1279,98
589,28	1310,70
589,47	1284,08
589,67	1294,32
589,86	1269,74
590,06	1306,60
590,25	1232,88
590,44	1261,55
590,64	1275,88
590,83	1275,88
591,02	1255,40
591,22	1271,79
591,41	1320,94
591,60	1361,90
591,80	1271,79
591,99	1339,37
592,18	1247,21
592,38	1341,42
592,57	1329,13
592,76	1292,27
592,96	1322,99
593,15	1253,36
593,34	1277,93
593,54	1271,79
593,73	1347,56
593,92	1282,03
594,12	1296,36
594,31	1249,26
594,50	1263,60
594,70	1255,40
594,89	1310,70
595,08	1288,17
595,28	1273,84
595,47	1282,03
595,66	1253,36
595,86	1257,45
596,05	1208,30
596,24	1318,89
596,43	1216,49
596,63	1277,93
596,82	1279,98
597,01	1296,36
597,21	1279,98
597,40	1239,02
597,59	1298,41
597,79	1284,08
597,98	1275,88
598,17	1269,74
598,36	1286,12
598,56	1261,55
598,75	1275,88
598,94	1279,98
599,14	1306,60
599,33	1243,12
599,52	1277,93
599,71	1263,60
599,91	1290,22
600,10	1296,36
600,29	1353,71
600,48	1351,66
600,68	1296,36
600,87	1261,55
601,06	1296,36
601,26	1329,13
601,45	1335,28
601,64	1218,54
601,83	1322,99
602,03	1230,83
602,22	1388,52
602,41	1296,36
602,60	1279,98
602,80	1253,36
602,99	1316,84
603,18	1234,93
603,37	1286,12
603,57	1286,12
603,76	1296,36
603,95	1230,83
604,14	1306,60
604,34	1288,17
604,53	1247,21
604,72	1290,22
604,91	1310,70
605,10	1302,51
605,30	1327,08
605,49	1284,08
605,68	1314,80
605,87	1288,17
606,07	1284,08
606,26	1251,31
606,45	1245,16
606,64	1286,12
606,84	1275,88
607,03	1292,27
607,22	1345,52
607,41	1327,08
607,60	1294,32
607,80	1275,88
607,99	1314,80
608,18	1325,04
608,37	1304,56
608,56	1290,22
608,76	1253,36
608,95	1165,29
609,14	1314,80
609,33	1286,12
609,52	1279,98
609,72	1322,99
609,91	1277,93
610,10	1253,36
610,29	1331,18
610,48	1357,80
610,68	1288,17
610,87	1171,44
611,06	1286,12
611,25	1273,84
611,44	1255,40
611,63	1333,23
611,83	1316,84
612,02	1304,56
612,21	1239,02
612,40	1298,41
612,59	1314,80
612,79	1191,92
612,98	1337,32
613,17	1261,55
613,36	1239,02
613,55	1306,60
613,74	1243,12
613,93	1312,75
614,13	1251,31
614,32	1296,36
614,51	1343,47
614,70	1290,22
614,89	1247,21
615,08	1273,84
615,28	1355,76
615,47	1245,16
615,66	1275,88
615,85	1290,22
616,04	1245,16
616,23	1261,55
616,42	1232,88
616,62	1314,80
616,81	1249,26
617,00	1271,79
617,19	1296,36
617,38	1263,60
617,57	1279,98
617,76	1230,83
617,95	1239,02
618,15	1228,78
618,34	1302,51
618,53	1245,16
618,72	1251,31
618,91	1257,45
619,10	1271,79
619,29	1288,17
619,48	1322,99
619,68	1269,74
619,87	1308,65
620,06	1286,12
620,25	1259,50
620,44	1267,69
620,63	1257,45
620,82	1284,08
621,01	1249,26
621,20	1243,12
621,39	1243,12
621,59	1312,75
621,78	1282,03
621,97	1247,21
622,16	1322,99
622,35	1331,18
622,54	1263,60
622,73	1306,60
622,92	1257,45
623,11	1337,32
623,30	1243,12
623,49	1253,36
623,68	1267,69
623,88	1279,98
624,07	1224,69
624,26	1279,98
624,45	1288,17
624,64	1277,93
624,83	1300,46
625,02	1318,89
625,21	1294,32
625,40	1267,69
625,59	1249,26
625,78	1298,41
625,97	1331,18
626,16	1255,40
626,35	1284,08
626,54	1292,27
626,74	1349,61
626,93	1333,23
627,12	1249,26
627,31	1290,22
627,50	1306,60
627,69	1333,23
627,88	1214,45
628,07	1341,42
628,26	1325,04
628,45	1316,84
628,64	1265,64
628,83	1257,45
629,02	1241,07
629,21	1310,70
629,40	1318,89
629,59	1269,74
629,78	1288,17
629,97	1296,36
630,16	1290,22
630,35	1314,80
630,54	1316,84
630,73	1339,37
630,92	1304,56
631,11	1376,24
631,30	1363,95
631,49	1363,95
631,68	1609,70
631,87	1912,80
632,06	2600,92
632,25	2246,62
632,44	2439,13
632,63	2836,44
632,82	3643,34
633,01	5449,64
633,20	7880,58
633,39	6092,71
633,58	6012,84
633,77	8308,61
633,96	18351,85
634,15	32284,18
634,34	35560,93
634,53	28907,08
634,72	19797,71
634,91	13514,55
635,10	8855,42
635,29	5746,60
635,48	3698,63
635,67	2559,96
635,86	1961,95
636,05	1746,92
636,24	1562,60
636,43	1441,77
636,62	1411,05
636,81	1417,19
637,00	1404,91
637,19	1314,80
637,38	1398,76
637,57	1271,79
637,76	1359,85
637,95	1359,85
638,14	1304,56
638,33	1306,60
638,52	1353,71
638,71	1325,04
638,89	1230,83
639,08	1376,24
639,27	1314,80
639,46	1247,21
639,65	1312,75
639,84	1253,36
640,03	1316,84
640,22	1300,46
640,41	1261,55
640,60	1261,55
640,79	1232,88
640,98	1331,18
641,17	1288,17
641,36	1335,28
641,55	1374,19
641,74	1298,41
641,92	1265,64
642,11	1255,40
642,30	1320,94
642,49	1249,26
642,68	1232,88
642,87	1306,60
643,06	1296,36
643,25	1292,27
643,44	1265,64
643,63	1296,36
643,82	1247,21
644,00	1275,88
644,19	1286,12
644,38	1298,41
644,57	1247,21
644,76	1290,22
644,95	1228,78
645,14	1214,45
645,33	1329,13
645,52	1284,08
645,71	1351,66
645,89	1273,84
646,08	1279,98
646,27	1337,32
646,46	1193,97
646,65	1214,45
646,84	1279,98
647,03	1279,98
647,22	1290,22
647,40	1363,95
647,59	1312,75
647,78	1329,13
647,97	1265,64
648,16	1277,93
648,35	1361,90
648,54	1327,08
648,73	1243,12
648,91	1286,12
649,10	1286,12
649,29	1304,56
649,48	1181,68
649,67	1273,84
649,86	1255,40
650,05	1325,04
650,23	1226,73
650,42	1259,50
650,61	1239,02
650,80	1259,50
650,99	1284,08
651,18	1241,07
651,36	1306,60
651,55	1267,69
651,74	1310,70
651,93	1228,78
652,12	1239,02
652,31	1196,01
652,49	1243,12
652,68	1247,21
652,87	1300,46
653,06	1288,17
653,25	1359,85
653,44	1265,64
653,62	1224,69
653,81	1261,55
654,00	1320,94
654,19	1232,88
654,38	1314,80
654,56	1355,76
654,75	1302,51
654,94	1265,64
655,13	1290,22
655,32	1253,36
655,51	1304,56
655,69	1312,75
655,88	1251,31
656,07	1267,69
656,26	1322,99
656,45	1279,98
656,63	1282,03
656,82	1298,41
657,01	1249,26
657,20	1259,50
657,38	1193,97
657,57	1275,88
657,76	1251,31
657,95	1216,49
658,14	1355,76
658,32	1269,74
658,51	1290,22
658,70	1269,74
658,89	1257,45
659,08	1247,21
659,26	1277,93
659,45	1333,23
659,64	1249,26
659,83	1363,95
660,01	1302,51
660,20	1329,13
660,39	1302,51
660,58	1232,88
660,76	1271,79
660,95	1265,64
661,14	1198,06
661,33	1249,26
661,51	1249,26
661,70	1312,75
661,89	1236,97
662,08	1253,36
662,26	1325,04
662,45	1300,46
662,64	1243,12
662,83	1216,49
663,01	1232,88
663,20	1263,60
663,39	1257,45
663,58	1253,36
663,76	1329,13
663,95	1290,22
664,14	1230,83
664,32	1245,16
664,51	1282,03
664,70	1343,47
664,89	1306,60
665,07	1284,08
665,26	1273,84
665,45	1286,12
665,64	1208,30
665,82	1277,93
666,01	1241,07
666,20	1273,84
666,38	1327,08
666,57	1179,63
666,76	1337,32
666,95	1247,21
667,13	1308,65
667,32	1249,26
667,51	1222,64
667,69	1232,88
667,88	1288,17
668,07	1263,60
668,25	1241,07
668,44	1212,40
668,63	1302,51
668,81	1245,16
669,00	1271,79
669,19	1267,69
669,38	1263,60
669,56	1290,22
669,75	1253,36
669,94	1296,36
670,12	1327,08
670,31	1228,78
670,50	1232,88
670,68	1296,36
670,87	1273,84
671,06	1239,02
671,24	1298,41
671,43	1327,08
671,62	1245,16
671,80	1232,88
671,99	1267,69
672,18	1267,69
672,36	1292,27
672,55	1251,31
672,74	1232,88
672,92	1265,64
673,11	1275,88
673,29	1198,06
673,48	1337,32
673,67	1253,36
673,85	1249,26
674,04	1261,55
674,23	1257,45
674,41	1267,69
674,60	1265,64
674,79	1181,68
674,97	1296,36
675,16	1288,17
675,34	1296,36
675,53	1302,51
675,72	1269,74
675,90	1228,78
676,09	1292,27
676,28	1337,32
676,46	1245,16
676,65	1234,93
676,83	1179,63
677,02	1243,12
677,21	1257,45
677,39	1253,36
677,58	1269,74
677,77	1316,84
677,95	1302,51
678,14	1273,84
678,32	1314,80
678,51	1216,49
678,70	1275,88
678,88	1318,89
679,07	1273,84
679,25	1277,93
679,44	1212,40
679,63	1288,17
679,81	1241,07
680,00	1273,84
680,18	1259,50
680,37	1249,26
680,55	1226,73
680,74	1279,98
680,93	1255,40
681,11	1212,40
681,30	1288,17
681,48	1249,26
681,67	1204,21
681,85	1298,41
682,04	1224,69
682,23	1273,84
682,41	1279,98
682,60	1214,45
682,78	1277,93
682,97	1259,50
683,15	1290,22
683,34	1271,79
683,53	1261,55
683,71	1300,46
683,90	1345,52
684,08	1255,40
684,27	1288,17
684,45	1327,08
684,64	1273,84
684,82	1374,19
685,01	1310,70
685,19	1290,22
685,38	1282,03
685,57	1310,70
685,75	1232,88
685,94	1288,17
686,12	1318,89
686,31	1224,69
686,49	1271,79
686,68	1189,87
686,86	1292,27
687,05	1222,64
687,23	1275,88
687,42	1249,26
687,60	1234,93
687,79	1263,60
687,97	1292,27
688,16	1257,45
688,34	1374,19
688,53	1322,99
688,71	1386,47
688,90	1296,36
689,08	1296,36
689,27	1312,75
689,45	1302,51
689,64	1251,31
689,82	1302,51
690,01	1265,64
690,19	1226,73
690,38	1261,55
690,56	1279,98
690,75	1302,51
690,93	1251,31
691,12	1318,89
691,30	1308,65
691,49	1230,83
691,67	1234,93
691,86	1236,97
692,04	1290,22
692,23	1228,78
692,41	1230,83
692,60	1288,17
692,78	1304,56
692,97	1273,84
693,15	1304,56
693,34	1386,47
693,52	1253,36
693,71	1277,93
693,89	1265,64
694,08	1288,17
694,26	1290,22
694,44	1277,93
694,63	1265,64
694,81	1298,41
695,00	1273,84
695,18	1210,35
695,37	1310,70
695,55	1185,77
695,74	1294,32
695,92	1245,16
696,10	1220,59
696,29	1187,82
696,47	1279,98
696,66	1265,64
696,84	1292,27
697,03	1271,79
697,21	1241,07
697,40	1329,13
697,58	1193,97
697,76	1327,08
697,95	1208,30
698,13	1212,40
698,32	1222,64
698,50	1345,52
698,68	1273,84
698,87	1284,08
699,05	1320,94
699,24	1249,26
699,42	1208,30
699,61	1302,51
699,79	1251,31
699,97	1212,40
700,16	1249,26
700,34	1216,49
700,53	1249,26
700,71	1275,88
700,89	1345,52
701,08	1220,59
701,26	1232,88
701,45	1341,42
701,63	1292,27
701,81	1271,79
702,00	1261,55
702,18	1265,64
702,37	1306,60
702,55	1296,36
702,73	1279,98
702,92	1243,12
703,10	1277,93
703,28	1269,74
703,47	1318,89
703,65	1267,69
703,84	1230,83
704,02	1243,12
704,20	1333,23
704,39	1290,22
704,57	1247,21
704,75	1259,50
704,94	1267,69
705,12	1282,03
705,30	1275,88
705,49	1251,31
705,67	1259,50
705,86	1198,06
706,04	1257,45
706,22	1204,21
706,41	1214,45
706,59	1310,70
706,77	1198,06
706,96	1273,84
707,14	1271,79
707,32	1271,79
707,51	1288,17
707,69	1241,07
707,87	1269,74
708,06	1259,50
708,24	1337,32
708,42	1243,12
708,61	1222,64
708,79	1204,21
708,97	1294,32
709,16	1232,88
709,34	1310,70
709,52	1239,02
709,71	1204,21
709,89	1226,73
710,07	1269,74
710,26	1271,79
710,44	1347,56
710,62	1257,45
710,80	1277,93
710,99	1259,50
711,17	1325,04
711,35	1277,93
711,54	1322,99
711,72	1269,74
711,90	1304,56
712,09	1222,64
712,27	1275,88
712,45	1218,54
712,63	1304,56
712,82	1269,74
713,00	1269,74
713,18	1241,07
713,37	1249,26
713,55	1284,08
713,73	1300,46
713,91	1257,45
714,10	1222,64
714,28	1292,27
714,46	1286,12
714,65	1341,42
714,83	1265,64
715,01	1169,39
715,19	1292,27
715,38	1265,64
715,56	1261,55
715,74	1286,12
715,92	1318,89
716,11	1333,23
716,29	1216,49
716,47	1232,88
716,65	1232,88
716,84	1214,45
717,02	1249,26
717,20	1181,68
717,38	1265,64
717,57	1247,21
717,75	1310,70
717,93	1251,31
718,11	1208,30
718,30	1273,84
718,48	1261,55
718,66	1304,56
718,84	1255,40
719,03	1294,32
719,21	1290,22
719,39	1335,28
719,57	1267,69
719,75	1296,36
719,94	1282,03
720,12	1265,64
720,30	1255,40
720,48	1236,97
720,67	1222,64
720,85	1243,12
721,03	1212,40
721,21	1286,12
721,39	1269,74
721,58	1261,55
721,76	1206,25
721,94	1236,97
722,12	1277,93
722,30	1234,93
722,49	1230,83
722,67	1282,03
722,85	1296,36
723,03	1251,31
723,21	1312,75
723,40	1273,84
723,58	1239,02
723,76	1245,16
723,94	1290,22
724,12	1261,55
724,30	1253,36
724,49	1290,22
724,67	1275,88
724,85	1343,47
725,03	1277,93
725,21	1298,41
725,40	1320,94
725,58	1300,46
725,76	1243,12
725,94	1232,88
726,12	1257,45
726,30	1243,12
726,49	1261,55
726,67	1249,26
726,85	1255,40
727,03	1322,99
727,21	1245,16
727,39	1232,88
727,57	1259,50
727,76	1220,59
727,94	1363,95
728,12	1226,73
728,30	1263,60
728,48	1218,54
728,66	1247,21
728,84	1327,08
729,03	1265,64
729,21	1320,94
729,39	1249,26
729,57	1249,26
729,75	1316,84
729,93	1257,45
730,11	1337,32
730,30	1294,32
730,48	1265,64
730,66	1202,16
730,84	1277,93
731,02	1290,22
731,20	1286,12
731,38	1298,41
731,56	1294,32
731,74	1218,54
731,93	1257,45
732,11	1302,51
732,29	1251,31
732,47	1296,36
732,65	1306,60
732,83	1298,41
733,01	1322,99
733,19	1253,36
733,37	1263,60
733,56	1290,22
733,74	1226,73
733,92	1263,60
734,10	1253,36
734,28	1282,03
734,46	1216,49
734,64	1277,93
734,82	1230,83
735,00	1269,74
735,18	1345,52
735,36	1239,02
735,54	1304,56
735,73	1214,45
735,91	1239,02
736,09	1292,27
736,27	1294,32
736,45	1245,16
736,63	1226,73
736,81	1224,69
736,99	1292,27
737,17	1232,88
737,35	1234,93
737,53	1243,12
737,71	1218,54
737,89	1312,75
738,07	1241,07
738,25	1232,88
738,43	1290,22
738,61	1255,40
738,80	1275,88
738,98	1288,17
739,16	1304,56
739,34	1249,26
739,52	1189,87
739,70	1243,12
739,88	1290,22
740,06	1329,13
740,24	1318,89
740,42	1306,60
740,60	1345,52
740,78	1300,46
740,96	1193,97
741,14	1271,79
741,32	1243,12
741,50	1298,41
741,68	1288,17
741,86	1306,60
742,04	1208,30
742,22	1247,21
742,40	1253,36
742,58	1206,25
742,76	1232,88
742,94	1255,40
743,12	1306,60
743,30	1185,77
743,48	1267,69
743,66	1239,02
743,84	1253,36
744,02	1239,02
744,20	1288,17
744,38	1273,84
744,56	1286,12
744,74	1310,70
744,92	1265,64
745,10	1228,78
745,28	1273,84
745,46	1228,78
745,64	1255,40
745,82	1263,60
746,00	1341,42
746,18	1208,30
746,36	1228,78
746,54	1279,98
746,72	1261,55
746,90	1218,54
747,08	1228,78
747,26	1255,40
747,44	1175,53
747,62	1220,59
747,80	1308,65
747,98	1247,21
748,15	1275,88
748,33	1187,82
748,51	1193,97
748,69	1220,59
748,87	1239,02
749,05	1216,49
749,23	1263,60
749,41	1282,03
749,59	1306,60
749,77	1265,64
749,95	1236,97
750,13	1261,55
750,31	1279,98
750,49	1277,93
750,67	1191,92
750,85	1265,64
751,03	1183,73
751,20	1234,93
751,38	1269,74
751,56	1179,63
751,74	1261,55
751,92	1331,18
752,10	1269,74
752,28	1243,12
752,46	1339,37
752,64	1251,31
752,82	1249,26
753,00	1259,50
753,18	1347,56
753,35	1257,45
753,53	1296,36
753,71	1257,45
753,89	1282,03
754,07	1304,56
754,25	1230,83
754,43	1267,69
754,61	1243,12
754,79	1263,60
754,97	1249,26
755,14	1267,69
755,32	1263,60
755,50	1228,78
755,68	1257,45
755,86	1290,22
756,04	1282,03
756,22	1247,21
756,40	1181,68
756,57	1208,30
756,75	1275,88
756,93	1269,74
757,11	1304,56
757,29	1302,51
757,47	1226,73
757,65	1263,60
757,82	1255,40
758,00	1218,54
758,18	1206,25
758,36	1273,84
758,54	1314,80
758,72	1257,45
758,90	1286,12
759,07	1243,12
759,25	1247,21
759,43	1257,45
759,61	1259,50
759,79	1234,93
759,97	1183,73
760,15	1204,21
760,32	1265,64
760,50	1224,69
760,68	1282,03
760,86	1267,69
761,04	1239,02
761,22	1277,93
761,39	1353,71
761,57	1265,64
761,75	1271,79
761,93	1267,69
762,11	1290,22
762,28	1226,73
762,46	1286,12
762,64	1279,98
762,82	1204,21
763,00	1288,17
763,18	1296,36
763,35	1265,64
763,53	1261,55
763,71	1286,12
763,89	1302,51
764,07	1273,84
764,24	1218,54
764,42	1314,80
764,60	1232,88
764,78	1273,84
764,96	1253,36
765,13	1277,93
765,31	1304,56
765,49	1279,98
765,67	1214,45
765,84	1224,69
766,02	1308,65
766,20	1322,99
766,38	1263,60
766,56	1355,76
766,73	1335,28
766,91	1290,22
767,09	1224,69
767,27	1234,93
767,44	1308,65
767,62	1284,08
767,80	1277,93
767,98	1193,97
768,15	1232,88
768,33	1255,40
768,51	1286,12
768,69	1261,55
768,87	1226,73
769,04	1239,02
769,22	1339,37
769,40	1191,92
769,58	1261,55
769,75	1294,32
769,93	1284,08
770,11	1226,73
770,28	1329,13
770,46	1243,12
770,64	1273,84
770,82	1236,97
770,99	1294,32
771,17	1286,12
771,35	1249,26
771,53	1271,79
771,70	1222,64
771,88	1288,17
772,06	1265,64
772,23	1239,02
772,41	1257,45
772,59	1298,41
772,77	1339,37
772,94	1273,84
773,12	1226,73
773,30	1263,60
773,47	1306,60
773,65	1269,74
773,83	1302,51
774,01	1294,32
774,18	1193,97
774,36	1316,84
774,54	1292,27
774,71	1206,25
774,89	1239,02
775,07	1286,12
775,24	1200,11
775,42	1269,74
775,60	1236,97
775,78	1298,41
775,95	1304,56
776,13	1277,93
776,31	1329,13
776,48	1284,08
776,66	1255,40
776,84	1282,03
777,01	1236,97
777,19	1269,74
777,37	1292,27
777,54	1273,84
777,72	1304,56
777,90	1277,93
778,07	1247,21
778,25	1286,12
778,43	1220,59
778,60	1234,93
778,78	1316,84
778,96	1241,07
779,13	1349,61
779,31	1212,40
779,49	1318,89
779,66	1214,45
779,84	1251,31
780,01	1306,60
780,19	1228,78
780,37	1214,45
780,54	1236,97
780,72	1234,93
780,90	1282,03
781,07	1275,88
781,25	1200,11
781,43	1339,37
781,60	1255,40
781,78	1290,22
781,95	1312,75
782,13	1284,08
782,31	1224,69
782,48	1196,01
782,66	1206,25
782,83	1298,41
783,01	1259,50
783,19	1290,22
783,36	1257,45
783,54	1277,93
783,72	1320,94
783,89	1316,84
784,07	1206,25
784,24	1210,35
784,42	1228,78
784,60	1275,88
784,77	1222,64
784,95	1243,12
785,12	1183,73
785,30	1298,41
785,47	1351,66
785,65	1263,60
785,83	1259,50
786,00	1314,80
786,18	1259,50
786,35	1257,45
786,53	1234,93
786,71	1257,45
786,88	1208,30
787,06	1208,30
787,23	1306,60
787,41	1249,26
787,58	1259,50
787,76	1273,84
787,94	1341,42
788,11	1302,51
788,29	1290,22
788,46	1341,42
788,64	1222,64
788,81	1241,07
788,99	1271,79
789,16	1216,49
789,34	1181,68
789,52	1275,88
789,69	1204,21
789,87	1249,26
790,04	1339,37
790,22	1339,37
790,39	1249,26
790,57	1247,21
790,74	1294,32
790,92	1216,49
791,09	1212,40
791,27	1236,97
791,44	1239,02
791,62	1275,88
791,79	1279,98
791,97	1253,36
792,15	1296,36
792,32	1202,16
792,50	1173,49
792,67	1259,50
792,85	1263,60
793,02	1300,46
793,20	1210,35
793,37	1275,88
793,55	1241,07
793,72	1243,12
793,90	1220,59
794,07	1226,73
794,25	1296,36
794,42	1224,69
794,60	1284,08
794,77	1183,73
794,95	1269,74
795,12	1255,40
795,30	1265,64
795,47	1269,74
795,65	1322,99
795,82	1284,08
796,00	1306,60
796,17	1255,40
796,34	1253,36
796,52	1288,17
796,69	1212,40
796,87	1204,21
797,04	1322,99
797,22	1191,92
797,39	1198,06
797,57	1275,88
797,74	1306,60
797,92	1318,89
798,09	1253,36
798,27	1261,55
798,44	1204,21
798,62	1181,68
798,79	1288,17
798,96	1284,08
799,14	1265,64
799,31	1208,30
799,49	1302,51
799,66	1259,50
799,84	1282,03
800,01	1218,54
800,19	1279,98
800,36	1341,42
800,53	1208,30
800,71	1279,98
800,88	1298,41
801,06	1269,74
801,23	1294,32
801,41	1320,94
801,58	1302,51
801,75	1282,03
801,93	1200,11
802,10	1232,88
802,28	1263,60
802,45	1265,64
802,63	1247,21
802,80	1314,80
802,97	1253,36
803,15	1247,21
803,32	1232,88
803,50	1298,41
803,67	1220,59
803,84	1212,40
804,02	1322,99
804,19	1204,21
804,37	1267,69
804,54	1187,82
804,71	1304,56
804,89	1226,73
805,06	1257,45
805,24	1259,50
805,41	1167,34
805,58	1247,21
805,76	1269,74
805,93	1241,07
806,10	1261,55
806,28	1277,93
806,45	1206,25
806,63	1351,66
806,80	1294,32
806,97	1202,16
807,15	1277,93
807,32	1275,88
807,49	1255,40
807,67	1236,97
807,84	1298,41
808,01	1226,73
808,19	1327,08
808,36	1230,83
808,54	1273,84
808,71	1263,60
808,88	1279,98
809,06	1208,30
809,23	1318,89
809,40	1226,73
809,58	1245,16
809,75	1308,65
809,92	1241,07
810,10	1292,27
810,27	1290,22
810,44	1224,69
810,62	1263,60
810,79	1267,69
810,96	1296,36
811,14	1265,64
811,31	1241,07
811,48	1269,74
811,66	1290,22
811,83	1228,78
812,00	1208,30
812,18	1239,02
812,35	1294,32
812,52	1292,27
812,69	1273,84
812,87	1220,59
813,04	1155,05
813,21	1288,17
813,39	1196,01
813,56	1241,07
813,73	1249,26
813,91	1202,16
814,08	1312,75
814,25	1261,55
814,42	1286,12
814,60	1251,31
814,77	1263,60
814,94	1241,07
815,12	1263,60
815,29	1294,32
815,46	1325,04
815,63	1253,36
815,81	1290,22
815,98	1265,64
816,15	1255,40
816,33	1230,83
816,50	1265,64
816,67	1279,98
816,84	1271,79
817,02	1249,26
817,19	1333,23
817,36	1239,02
817,53	1255,40
817,71	1282,03
817,88	1302,51
818,05	1318,89
818,22	1239,02
818,40	1269,74
818,57	1279,98
818,74	1296,36
818,91	1247,21
819,09	1279,98
819,26	1288,17
819,43	1288,17
819,60	1255,40
819,78	1282,03
819,95	1312,75
820,12	1261,55
820,29	1259,50
820,47	1249,26
820,64	1290,22
820,81	1273,84
820,98	1288,17
821,15	1284,08
821,33	1368,04
821,50	1261,55
821,67	1290,22
821,84	1261,55
822,02	1206,25
822,19	1282,03
822,36	1247,21
822,53	1286,12
822,70	1304,56
822,88	1253,36
823,05	1288,17
823,22	1296,36
823,39	1249,26
823,56	1239,02
823,74	1218,54
823,91	1288,17
824,08	1230,83
824,25	1298,41
824,42	1286,12
824,60	1251,31
824,77	1265,64
824,94	1153,01
825,11	1341,42
825,28	1228,78
825,45	1300,46
825,63	1206,25
825,80	1220,59
825,97	1302,51
826,14	1210,35
826,31	1247,21
826,48	1220,59
826,66	1253,36
826,83	1351,66
827,00	1253,36
827,17	1214,45
827,34	1251,31
827,51	1320,94
827,69	1277,93
827,86	1230,83
828,03	1269,74
828,20	1198,06
828,37	1292,27
828,54	1308,65
828,71	1271,79
828,89	1234,93
829,06	1251,31
829,23	1243,12
829,40	1183,73
829,57	1284,08
829,74	1200,11
829,91	1306,60
830,09	1236,97
830,26	1335,28
830,43	1210,35
830,60	1279,98
830,77	1284,08
830,94	1257,45
831,11	1253,36
831,28	1253,36
831,46	1263,60
831,63	1243,12
831,80	1286,12
831,97	1241,07
832,14	1320,94
832,31	1298,41
832,48	1196,01
832,65	1298,41
832,82	1208,30
832,99	1269,74
833,17	1257,45
833,34	1320,94
833,51	1236,97
833,68	1304,56
833,85	1282,03
834,02	1222,64
834,19	1355,76
834,36	1245,16
834,53	1253,36
834,70	1247,21
834,87	1261,55
835,04	1306,60
835,22	1314,80
835,39	1296,36
835,56	1232,88
835,73	1245,16
835,90	1312,75
836,07	1222,64
836,24	1282,03
836,41	1286,12
836,58	1251,31
836,75	1273,84
836,92	1304,56
837,09	1286,12
837,26	1284,08
837,43	1232,88
837,60	1331,18
837,77	1265,64
837,94	1300,46
838,12	1259,50
838,29	1284,08
838,46	1224,69
838,63	1200,11
838,80	1282,03
838,97	1261,55
839,14	1257,45
839,31	1275,88
839,48	1239,02
839,65	1286,12
839,82	1282,03
839,99	1267,69
840,16	1279,98
840,33	1257,45
840,50	1241,07
840,67	1284,08
840,84	1236,97
841,01	1212,40
841,18	1243,12
841,35	1300,46
841,52	1267,69
841,69	1265,64
841,86	1247,21
842,03	1230,83
842,20	1290,22
842,37	1249,26
842,54	1259,50
842,71	1290,22
842,88	1236,97
843,05	1210,35
843,22	1282,03
843,39	1282,03
843,56	1157,10
843,73	1206,25
843,90	1322,99
844,07	1294,32
844,24	1249,26
844,41	1224,69
844,58	1239,02
844,75	1269,74
844,92	1298,41
845,09	1290,22
845,26	1298,41
845,43	1261,55
845,60	1193,97
845,77	1222,64
845,94	1308,65
846,10	1247,21
846,27	1226,73
846,44	1286,12
846,61	1292,27
846,78	1239,02
846,95	1335,28
847,12	1294,32
847,29	1255,40
847,46	1261,55
847,63	1304,56
847,80	1282,03
847,97	1245,16
848,14	1318,89
848,31	1249,26
848,48	1251,31
848,65	1302,51
848,82	1220,59
848,98	1298,41
849,15	1253,36
849,32	1220,59
849,49	1259,50
849,66	1259,50
849,83	1275,88
850,00	1282,03
850,17	1239,02
850,34	1263,60
850,51	1279,98
850,68	1249,26
850,85	1249,26
851,01	1306,60
851,18	1255,40
851,35	1296,36
851,52	1263,60
851,69	1228,78
851,86	1236,97
852,03	1300,46
852,20	1279,98
852,37	1302,51
852,53	1216,49
852,70	1239,02
852,87	1216,49
853,04	1253,36
853,21	1294,32
853,38	1259,50
853,55	1251,31
853,72	1230,83
853,89	1269,74
854,05	1239,02
854,22	1331,18
854,39	1232,88
854,56	1241,07
854,73	1288,17
854,90	1243,12
855,07	1306,60
855,23	1288,17
855,40	1273,84
855,57	1206,25
855,74	1265,64
855,91	1304,56
856,08	1263,60
856,25	1284,08
856,41	1300,46
856,58	1232,88
856,75	1277,93
856,92	1255,40
857,09	1314,80
857,26	1239,02
857,42	1333,23
857,59	1345,52
857,76	1218,54
857,93	1249,26
858,10	1310,70
858,27	1257,45
858,43	1320,94
858,60	1298,41
858,77	1298,41
858,94	1222,64
859,11	1265,64
859,27	1261,55
859,44	1331,18
859,61	1165,29
859,78	1298,41
859,95	1267,69
860,12	1306,60
860,28	1271,79
860,45	1347,56
860,62	1329,13
860,79	1292,27
860,95	1290,22
861,12	1251,31
861,29	1257,45
861,46	1253,36
861,63	1308,65
861,79	1230,83
861,96	1284,08
862,13	1259,50
862,30	1308,65
862,47	1267,69
862,63	1290,22
862,80	1292,27
862,97	1282,03
863,14	1247,21
863,30	1310,70
863,47	1208,30
863,64	1263,60
863,81	1312,75
863,97	1298,41
864,14	1275,88
864,31	1259,50
864,48	1331,18
864,65	1257,45
864,81	1263,60
864,98	1220,59
865,15	1306,60
865,32	1271,79
865,48	1310,70
865,65	1312,75
865,82	1253,36
865,98	1298,41
866,15	1239,02
866,32	1214,45
866,49	1230,83
866,65	1210,35
866,82	1230,83
866,99	1234,93
867,16	1271,79
867,32	1282,03
867,49	1304,56
867,66	1288,17
867,83	1310,70
867,99	1253,36
868,16	1236,97
868,33	1273,84
868,49	1249,26
868,66	1257,45
868,83	1239,02
868,99	1261,55
869,16	1247,21
869,33	1196,01
869,50	1249,26
869,66	1292,27
869,83	1236,97
870,00	1212,40
870,16	1271,79
870,33	1288,17
870,50	1290,22
870,66	1251,31
870,83	1226,73
871,00	1277,93
871,17	1351,66
871,33	1290,22
871,50	1314,80
871,67	1239,02
871,83	1249,26
872,00	1282,03
872,17	1277,93
872,33	1279,98
872,50	1234,93
872,67	1292,27
872,83	1273,84
873,00	1382,38
873,17	1308,65
873,33	1277,93
873,50	1261,55
873,67	1232,88
873,83	1263,60
874,00	1275,88
874,16	1333,23
874,33	1257,45
874,50	1331,18
874,66	1249,26
874,83	1275,88
875,00	1275,88
875,16	1337,32
875,33	1216,49
875,50	1277,93
875,66	1261,55
875,83	1224,69
875,99	1284,08
876,16	1306,60
876,33	1257,45
876,49	1292,27
876,66	1185,77
876,83	1277,93
876,99	1216,49
877,16	1204,21
877,32	1284,08
877,49	1275,88
877,66	1269,74
877,82	1302,51
877,99	1200,11
878,15	1275,88
878,32	1269,74
878,49	1296,36
878,65	1296,36
878,82	1273,84
878,98	1263,60
879,15	1341,42
879,32	1241,07
879,48	1282,03
879,65	1183,73
879,81	1257,45
879,98	1277,93
880,15	1284,08
880,31	1257,45
880,48	1249,26
880,64	1314,80
880,81	1234,93
880,97	1181,68
881,14	1261,55
881,31	1318,89
881,47	1257,45
881,64	1286,12
881,80	1251,31
881,97	1308,65
882,13	1296,36
882,30	1204,21
882,47	1343,47
882,63	1220,59
882,80	1304,56
882,96	1296,36
883,13	1226,73
883,29	1308,65
883,46	1257,45
883,62	1226,73
883,79	1304,56
883,95	1263,60
884,12	1290,22
884,29	1310,70
884,45	1247,21
884,62	1286,12
884,78	1226,73
884,95	1253,36
885,11	1277,93
885,28	1275,88
885,44	1245,16
885,61	1314,80
885,77	1341,42
885,94	1232,88
886,10	1251,31
886,27	1191,92
886,43	1294,32
886,60	1282,03
886,76	1257,45
886,93	1245,16
887,09	1345,52
887,26	1314,80
887,42	1226,73
887,59	1214,45
887,75	1341,42
887,92	1304,56
888,08	1327,08
888,25	1296,36
888,41	1226,73
888,58	1279,98
888,74	1304,56
888,91	1177,58
>>>>>End Processed Spectral Data<<<<<
