SpectraSuite Data File
++++++++++++++++++++++++++++++++++++
Date: Sun Apr 03 19:55:32 CEST 2016
User: root
Dark Spectrum Present: No
Reference Spectrum Present: No
Number of Sampled Component Spectra: 1
Spectrometers: USB4C02835
Integration Time (usec): 10000 (USB4C02835)
Spectra Averaged: 1 (USB4C02835)
Boxcar Smoothing: 0 (USB4C02835)
Correct for Electrical Dark: No (USB4C02835)
Strobe/Lamp Enabled: No (USB4C02835)
Correct for Detector Non-linearity: No (USB4C02835)
Correct for Stray Light: No (USB4C02835)
Number of Pixels in Processed Spectrum: 3648
>>>>>Begin Processed Spectral Data<<<<<
177,47	1253,36
177,69	1253,36
177,91	1253,36
178,13	1263,60
178,36	1314,80
178,58	1255,40
178,80	1253,36
179,02	1228,78
179,24	1292,27
179,46	1245,16
179,68	1212,40
179,90	1257,45
180,13	1282,03
180,35	1308,65
180,57	1288,17
180,79	1290,22
181,01	1282,03
181,23	1226,73
181,45	1226,73
181,67	1325,04
181,90	1234,93
182,12	1339,37
182,34	1275,88
182,56	1200,11
182,78	1191,92
183,00	1247,21
183,22	1263,60
183,44	1261,55
183,66	1265,64
183,89	1267,69
184,11	1322,99
184,33	1175,53
184,55	1222,64
184,77	1220,59
184,99	1218,54
185,21	1245,16
185,43	1277,93
185,65	1306,60
185,87	1263,60
186,10	1271,79
186,32	1216,49
186,54	1292,27
186,76	1261,55
186,98	1245,16
187,20	1279,98
187,42	1226,73
187,64	1298,41
187,86	1236,97
188,08	1277,93
188,30	1279,98
188,52	1253,36
188,75	1245,16
188,97	1292,27
189,19	1222,64
189,41	1263,60
189,63	1206,25
189,85	1243,12
190,07	1167,34
190,29	1234,93
190,51	1230,83
190,73	1245,16
190,95	1257,45
191,17	1300,46
191,39	1210,35
191,61	1236,97
191,84	1284,08
192,06	1355,76
192,28	1265,64
192,50	1300,46
192,72	1279,98
192,94	1275,88
193,16	1275,88
193,38	1265,64
193,60	1257,45
193,82	1314,80
194,04	1257,45
194,26	1157,10
194,48	1255,40
194,70	1306,60
194,92	1339,37
195,14	1228,78
195,36	1292,27
195,58	1286,12
195,80	1232,88
196,02	1325,04
196,24	1322,99
196,46	1353,71
196,69	1220,59
196,91	1310,70
197,13	1327,08
197,35	1216,49
197,57	1294,32
197,79	1249,26
198,01	1284,08
198,23	1202,16
198,45	1179,63
198,67	1212,40
198,89	1261,55
199,11	1329,13
199,33	1261,55
199,55	1314,80
199,77	1255,40
199,99	1196,01
200,21	1206,25
200,43	1279,98
200,65	1335,28
200,87	1302,51
201,09	1148,91
201,31	1265,64
201,53	1257,45
201,75	1310,70
201,97	1241,07
202,19	1304,56
202,41	1286,12
202,63	1249,26
202,85	1216,49
203,07	1294,32
203,29	1255,40
203,51	1298,41
203,73	1216,49
203,95	1224,69
204,17	1292,27
204,39	1302,51
204,61	1298,41
204,83	1212,40
205,05	1271,79
205,27	1243,12
205,49	1275,88
205,71	1251,31
205,93	1257,45
206,15	1261,55
206,37	1206,25
206,59	1306,60
206,81	1179,63
207,03	1273,84
207,25	1257,45
207,47	1218,54
207,69	1277,93
207,91	1284,08
208,13	1224,69
208,34	1224,69
208,56	1214,45
208,78	1243,12
209,00	1245,16
209,22	1282,03
209,44	1290,22
209,66	1196,01
209,88	1181,68
210,10	1249,26
210,32	1302,51
210,54	1298,41
210,76	1222,64
210,98	1294,32
211,20	1214,45
211,42	1263,60
211,64	1341,42
211,86	1279,98
212,08	1316,84
212,30	1200,11
212,52	1241,07
212,74	1226,73
212,96	1347,56
213,17	1282,03
213,39	1300,46
213,61	1263,60
213,83	1271,79
214,05	1249,26
214,27	1181,68
214,49	1271,79
214,71	1322,99
214,93	1271,79
215,15	1214,45
215,37	1325,04
215,59	1259,50
215,81	1292,27
216,03	1277,93
216,24	1263,60
216,46	1220,59
216,68	1212,40
216,90	1251,31
217,12	1314,80
217,34	1259,50
217,56	1234,93
217,78	1331,18
218,00	1273,84
218,22	1210,35
218,44	1265,64
218,66	1298,41
218,87	1224,69
219,09	1327,08
219,31	1267,69
219,53	1288,17
219,75	1216,49
219,97	1216,49
220,19	1193,97
220,41	1169,39
220,63	1245,16
220,85	1253,36
221,06	1343,47
221,28	1271,79
221,50	1320,94
221,72	1277,93
221,94	1302,51
222,16	1189,87
222,38	1290,22
222,60	1267,69
222,82	1253,36
223,03	1257,45
223,25	1290,22
223,47	1243,12
223,69	1216,49
223,91	1222,64
224,13	1286,12
224,35	1265,64
224,57	1224,69
224,78	1257,45
225,00	1275,88
225,22	1216,49
225,44	1234,93
225,66	1271,79
225,88	1267,69
226,10	1200,11
226,32	1269,74
226,53	1230,83
226,75	1300,46
226,97	1314,80
227,19	1318,89
227,41	1273,84
227,63	1292,27
227,85	1263,60
228,06	1286,12
228,28	1298,41
228,50	1290,22
228,72	1142,77
228,94	1228,78
229,16	1241,07
229,37	1247,21
229,59	1290,22
229,81	1251,31
230,03	1294,32
230,25	1257,45
230,47	1259,50
230,69	1308,65
230,90	1265,64
231,12	1279,98
231,34	1228,78
231,56	1259,50
231,78	1316,84
232,00	1249,26
232,21	1232,88
232,43	1279,98
232,65	1255,40
232,87	1277,93
233,09	1267,69
233,30	1273,84
233,52	1267,69
233,74	1214,45
233,96	1298,41
234,18	1193,97
234,40	1288,17
234,61	1265,64
234,83	1288,17
235,05	1267,69
235,27	1308,65
235,49	1273,84
235,70	1249,26
235,92	1265,64
236,14	1267,69
236,36	1271,79
236,58	1294,32
236,79	1286,12
237,01	1318,89
237,23	1292,27
237,45	1275,88
237,67	1339,37
237,88	1234,93
238,10	1269,74
238,32	1273,84
238,54	1271,79
238,76	1212,40
238,97	1212,40
239,19	1320,94
239,41	1284,08
239,63	1253,36
239,85	1269,74
240,06	1282,03
240,28	1335,28
240,50	1331,18
240,72	1263,60
240,93	1267,69
241,15	1222,64
241,37	1259,50
241,59	1302,51
241,81	1257,45
242,02	1294,32
242,24	1300,46
242,46	1263,60
242,68	1230,83
242,89	1247,21
243,11	1230,83
243,33	1230,83
243,55	1216,49
243,76	1298,41
243,98	1263,60
244,20	1239,02
244,42	1341,42
244,64	1251,31
244,85	1232,88
245,07	1230,83
245,29	1290,22
245,51	1314,80
245,72	1265,64
245,94	1271,79
246,16	1288,17
246,38	1236,97
246,59	1288,17
246,81	1191,92
247,03	1257,45
247,24	1290,22
247,46	1220,59
247,68	1327,08
247,90	1257,45
248,11	1288,17
248,33	1251,31
248,55	1228,78
248,77	1310,70
248,98	1284,08
249,20	1243,12
249,42	1236,97
249,64	1302,51
249,85	1279,98
250,07	1263,60
250,29	1286,12
250,50	1314,80
250,72	1241,07
250,94	1316,84
251,16	1216,49
251,37	1388,52
251,59	1351,66
251,81	1193,97
252,02	1259,50
252,24	1277,93
252,46	1308,65
252,68	1306,60
252,89	1273,84
253,11	1253,36
253,33	1322,99
253,54	1331,18
253,76	1290,22
253,98	1193,97
254,20	1288,17
254,41	1333,23
254,63	1271,79
254,85	1255,40
255,06	1193,97
255,28	1269,74
255,50	1290,22
255,71	1275,88
255,93	1214,45
256,15	1253,36
256,36	1314,80
256,58	1191,92
256,80	1290,22
257,02	1327,08
257,23	1314,80
257,45	1265,64
257,67	1249,26
257,88	1304,56
258,10	1271,79
258,32	1294,32
258,53	1253,36
258,75	1286,12
258,97	1300,46
259,18	1210,35
259,40	1343,47
259,62	1218,54
259,83	1261,55
260,05	1288,17
260,27	1304,56
260,48	1257,45
260,70	1239,02
260,92	1220,59
261,13	1294,32
261,35	1257,45
261,57	1228,78
261,78	1218,54
262,00	1241,07
262,22	1290,22
262,43	1263,60
262,65	1271,79
262,86	1251,31
263,08	1294,32
263,30	1322,99
263,51	1314,80
263,73	1302,51
263,95	1302,51
264,16	1314,80
264,38	1294,32
264,60	1304,56
264,81	1284,08
265,03	1261,55
265,25	1253,36
265,46	1193,97
265,68	1259,50
265,89	1335,28
266,11	1249,26
266,33	1257,45
266,54	1255,40
266,76	1294,32
266,98	1241,07
267,19	1286,12
267,41	1273,84
267,62	1255,40
267,84	1249,26
268,06	1230,83
268,27	1216,49
268,49	1206,25
268,70	1224,69
268,92	1294,32
269,14	1261,55
269,35	1177,58
269,57	1269,74
269,79	1294,32
270,00	1331,18
270,22	1253,36
270,43	1288,17
270,65	1290,22
270,87	1230,83
271,08	1261,55
271,30	1267,69
271,51	1304,56
271,73	1210,35
271,95	1296,36
272,16	1183,73
272,38	1284,08
272,59	1269,74
272,81	1265,64
273,02	1282,03
273,24	1288,17
273,46	1232,88
273,67	1165,29
273,89	1296,36
274,10	1337,32
274,32	1298,41
274,54	1320,94
274,75	1265,64
274,97	1239,02
275,18	1269,74
275,40	1255,40
275,61	1316,84
275,83	1290,22
276,05	1277,93
276,26	1247,21
276,48	1294,32
276,69	1286,12
276,91	1153,01
277,12	1175,53
277,34	1300,46
277,55	1277,93
277,77	1232,88
277,99	1316,84
278,20	1241,07
278,42	1249,26
278,63	1230,83
278,85	1296,36
279,06	1236,97
279,28	1316,84
279,49	1265,64
279,71	1312,75
279,93	1220,59
280,14	1185,77
280,36	1273,84
280,57	1314,80
280,79	1273,84
281,00	1302,51
281,22	1277,93
281,43	1198,06
281,65	1234,93
281,86	1267,69
282,08	1284,08
282,29	1230,83
282,51	1335,28
282,73	1318,89
282,94	1232,88
283,16	1212,40
283,37	1261,55
283,59	1292,27
283,80	1226,73
284,02	1290,22
284,23	1193,97
284,45	1245,16
284,66	1271,79
284,88	1279,98
285,09	1234,93
285,31	1286,12
285,52	1189,87
285,74	1265,64
285,95	1269,74
286,17	1269,74
286,38	1257,45
286,60	1269,74
286,81	1261,55
287,03	1255,40
287,24	1251,31
287,46	1318,89
287,67	1300,46
287,89	1279,98
288,10	1310,70
288,32	1302,51
288,53	1282,03
288,75	1298,41
288,96	1241,07
289,18	1269,74
289,39	1320,94
289,61	1320,94
289,82	1294,32
290,04	1247,21
290,25	1249,26
290,47	1304,56
290,68	1239,02
290,90	1294,32
291,11	1298,41
291,33	1259,50
291,54	1329,13
291,76	1290,22
291,97	1220,59
292,18	1279,98
292,40	1308,65
292,61	1279,98
292,83	1200,11
293,04	1306,60
293,26	1189,87
293,47	1308,65
293,69	1275,88
293,90	1232,88
294,12	1269,74
294,33	1316,84
294,55	1236,97
294,76	1236,97
294,97	1255,40
295,19	1255,40
295,40	1296,36
295,62	1339,37
295,83	1220,59
296,05	1331,18
296,26	1269,74
296,48	1247,21
296,69	1298,41
296,90	1284,08
297,12	1232,88
297,33	1226,73
297,55	1210,35
297,76	1273,84
297,98	1212,40
298,19	1236,97
298,41	1267,69
298,62	1271,79
298,83	1236,97
299,05	1249,26
299,26	1327,08
299,48	1290,22
299,69	1226,73
299,90	1302,51
300,12	1216,49
300,33	1230,83
300,55	1253,36
300,76	1279,98
300,98	1224,69
301,19	1277,93
301,40	1269,74
301,62	1259,50
301,83	1275,88
302,05	1312,75
302,26	1257,45
302,47	1216,49
302,69	1298,41
302,90	1239,02
303,12	1259,50
303,33	1384,43
303,54	1290,22
303,76	1236,97
303,97	1284,08
304,19	1286,12
304,40	1298,41
304,61	1271,79
304,83	1279,98
305,04	1220,59
305,26	1198,06
305,47	1308,65
305,68	1236,97
305,90	1222,64
306,11	1312,75
306,33	1284,08
306,54	1306,60
306,75	1355,76
306,97	1286,12
307,18	1204,21
307,39	1249,26
307,61	1269,74
307,82	1232,88
308,04	1251,31
308,25	1259,50
308,46	1329,13
308,68	1230,83
308,89	1339,37
309,10	1265,64
309,32	1277,93
309,53	1265,64
309,74	1228,78
309,96	1239,02
310,17	1331,18
310,39	1320,94
310,60	1275,88
310,81	1245,16
311,03	1282,03
311,24	1279,98
311,45	1255,40
311,67	1273,84
311,88	1228,78
312,09	1204,21
312,31	1236,97
312,52	1300,46
312,73	1181,68
312,95	1322,99
313,16	1247,21
313,37	1279,98
313,59	1341,42
313,80	1265,64
314,01	1202,16
314,23	1273,84
314,44	1288,17
314,65	1230,83
314,87	1253,36
315,08	1202,16
315,29	1247,21
315,51	1218,54
315,72	1249,26
315,93	1239,02
316,15	1224,69
316,36	1214,45
316,57	1339,37
316,79	1316,84
317,00	1226,73
317,21	1241,07
317,43	1263,60
317,64	1296,36
317,85	1224,69
318,07	1220,59
318,28	1337,32
318,49	1341,42
318,70	1302,51
318,92	1339,37
319,13	1286,12
319,34	1322,99
319,56	1279,98
319,77	1298,41
319,98	1277,93
320,20	1236,97
320,41	1288,17
320,62	1308,65
320,83	1206,25
321,05	1282,03
321,26	1271,79
321,47	1177,58
321,69	1282,03
321,90	1146,86
322,11	1284,08
322,32	1284,08
322,54	1255,40
322,75	1214,45
322,96	1349,61
323,18	1277,93
323,39	1232,88
323,60	1206,25
323,81	1259,50
324,03	1273,84
324,24	1304,56
324,45	1302,51
324,66	1230,83
324,88	1279,98
325,09	1306,60
325,30	1279,98
325,52	1226,73
325,73	1290,22
325,94	1286,12
326,15	1267,69
326,37	1259,50
326,58	1312,75
326,79	1282,03
327,00	1243,12
327,22	1314,80
327,43	1320,94
327,64	1286,12
327,85	1308,65
328,07	1259,50
328,28	1206,25
328,49	1263,60
328,70	1269,74
328,92	1273,84
329,13	1253,36
329,34	1316,84
329,55	1294,32
329,76	1329,13
329,98	1306,60
330,19	1316,84
330,40	1228,78
330,61	1210,35
330,83	1308,65
331,04	1253,36
331,25	1290,22
331,46	1277,93
331,68	1251,31
331,89	1222,64
332,10	1286,12
332,31	1243,12
332,52	1308,65
332,74	1230,83
332,95	1257,45
333,16	1279,98
333,37	1230,83
333,58	1347,56
333,80	1216,49
334,01	1253,36
334,22	1337,32
334,43	1253,36
334,64	1267,69
334,86	1298,41
335,07	1267,69
335,28	1257,45
335,49	1271,79
335,70	1206,25
335,92	1251,31
336,13	1271,79
336,34	1198,06
336,55	1353,71
336,76	1320,94
336,98	1292,27
337,19	1200,11
337,40	1269,74
337,61	1300,46
337,82	1286,12
338,04	1191,92
338,25	1239,02
338,46	1292,27
338,67	1208,30
338,88	1232,88
339,09	1232,88
339,31	1300,46
339,52	1249,26
339,73	1239,02
339,94	1310,70
340,15	1216,49
340,36	1265,64
340,58	1228,78
340,79	1239,02
341,00	1245,16
341,21	1239,02
341,42	1257,45
341,63	1247,21
341,85	1267,69
342,06	1263,60
342,27	1230,83
342,48	1339,37
342,69	1300,46
342,90	1224,69
343,12	1173,49
343,33	1277,93
343,54	1261,55
343,75	1296,36
343,96	1269,74
344,17	1210,35
344,38	1261,55
344,60	1228,78
344,81	1263,60
345,02	1288,17
345,23	1247,21
345,44	1273,84
345,65	1208,30
345,86	1234,93
346,07	1261,55
346,29	1271,79
346,50	1202,16
346,71	1306,60
346,92	1273,84
347,13	1290,22
347,34	1204,21
347,55	1294,32
347,76	1218,54
347,98	1224,69
348,19	1329,13
348,40	1234,93
348,61	1263,60
348,82	1374,19
349,03	1290,22
349,24	1228,78
349,45	1218,54
349,66	1234,93
349,88	1224,69
350,09	1333,23
350,30	1218,54
350,51	1241,07
350,72	1302,51
350,93	1232,88
351,14	1224,69
351,35	1320,94
351,56	1277,93
351,77	1245,16
351,99	1204,21
352,20	1236,97
352,41	1239,02
352,62	1279,98
352,83	1282,03
353,04	1239,02
353,25	1257,45
353,46	1304,56
353,67	1265,64
353,88	1236,97
354,09	1318,89
354,30	1314,80
354,52	1275,88
354,73	1253,36
354,94	1318,89
355,15	1253,36
355,36	1296,36
355,57	1265,64
355,78	1214,45
355,99	1296,36
356,20	1224,69
356,41	1249,26
356,62	1269,74
356,83	1306,60
357,04	1198,06
357,25	1216,49
357,46	1300,46
357,68	1243,12
357,89	1234,93
358,10	1296,36
358,31	1224,69
358,52	1253,36
358,73	1298,41
358,94	1263,60
359,15	1247,21
359,36	1255,40
359,57	1206,25
359,78	1257,45
359,99	1316,84
360,20	1236,97
360,41	1210,35
360,62	1247,21
360,83	1302,51
361,04	1325,04
361,25	1249,26
361,46	1378,28
361,67	1259,50
361,88	1243,12
362,09	1261,55
362,30	1261,55
362,51	1275,88
362,72	1241,07
362,93	1187,82
363,14	1298,41
363,35	1269,74
363,56	1241,07
363,78	1304,56
363,99	1279,98
364,20	1249,26
364,41	1249,26
364,62	1308,65
364,83	1306,60
365,04	1314,80
365,25	1224,69
365,46	1271,79
365,67	1271,79
365,88	1296,36
366,09	1275,88
366,30	1300,46
366,51	1259,50
366,72	1251,31
366,93	1259,50
367,14	1265,64
367,35	1271,79
367,56	1304,56
367,77	1243,12
367,98	1173,49
368,18	1314,80
368,39	1220,59
368,60	1292,27
368,81	1232,88
369,02	1275,88
369,23	1228,78
369,44	1269,74
369,65	1236,97
369,86	1310,70
370,07	1191,92
370,28	1298,41
370,49	1232,88
370,70	1273,84
370,91	1275,88
371,12	1288,17
371,33	1253,36
371,54	1265,64
371,75	1177,58
371,96	1198,06
372,17	1327,08
372,38	1298,41
372,59	1218,54
372,80	1263,60
373,01	1243,12
373,22	1241,07
373,43	1245,16
373,64	1255,40
373,85	1267,69
374,06	1265,64
374,26	1282,03
374,47	1302,51
374,68	1255,40
374,89	1282,03
375,10	1310,70
375,31	1247,21
375,52	1263,60
375,73	1243,12
375,94	1263,60
376,15	1245,16
376,36	1247,21
376,57	1245,16
376,78	1255,40
376,99	1241,07
377,20	1243,12
377,40	1263,60
377,61	1279,98
377,82	1269,74
378,03	1263,60
378,24	1241,07
378,45	1298,41
378,66	1306,60
378,87	1310,70
379,08	1247,21
379,29	1239,02
379,50	1253,36
379,71	1218,54
379,91	1241,07
380,12	1255,40
380,33	1251,31
380,54	1224,69
380,75	1245,16
380,96	1288,17
381,17	1234,93
381,38	1282,03
381,59	1284,08
381,80	1300,46
382,00	1239,02
382,21	1263,60
382,42	1275,88
382,63	1243,12
382,84	1257,45
383,05	1189,87
383,26	1306,60
383,47	1224,69
383,68	1277,93
383,88	1329,13
384,09	1335,28
384,30	1275,88
384,51	1273,84
384,72	1275,88
384,93	1304,56
385,14	1249,26
385,35	1271,79
385,55	1247,21
385,76	1150,96
385,97	1277,93
386,18	1228,78
386,39	1234,93
386,60	1196,01
386,81	1265,64
387,02	1253,36
387,22	1257,45
387,43	1318,89
387,64	1304,56
387,85	1218,54
388,06	1282,03
388,27	1261,55
388,48	1370,09
388,68	1218,54
388,89	1325,04
389,10	1312,75
389,31	1300,46
389,52	1282,03
389,73	1247,21
389,93	1292,27
390,14	1265,64
390,35	1310,70
390,56	1277,93
390,77	1333,23
390,98	1269,74
391,18	1306,60
391,39	1251,31
391,60	1249,26
391,81	1253,36
392,02	1269,74
392,23	1292,27
392,43	1183,73
392,64	1296,36
392,85	1216,49
393,06	1222,64
393,27	1239,02
393,47	1196,01
393,68	1312,75
393,89	1249,26
394,10	1249,26
394,31	1212,40
394,52	1349,61
394,72	1228,78
394,93	1296,36
395,14	1255,40
395,35	1224,69
395,56	1226,73
395,76	1335,28
395,97	1288,17
396,18	1267,69
396,39	1335,28
396,60	1298,41
396,80	1279,98
397,01	1269,74
397,22	1249,26
397,43	1294,32
397,64	1255,40
397,84	1263,60
398,05	1279,98
398,26	1279,98
398,47	1267,69
398,67	1228,78
398,88	1210,35
399,09	1304,56
399,30	1249,26
399,51	1282,03
399,71	1220,59
399,92	1349,61
400,13	1241,07
400,34	1335,28
400,54	1259,50
400,75	1279,98
400,96	1216,49
401,17	1261,55
401,37	1298,41
401,58	1232,88
401,79	1191,92
402,00	1239,02
402,21	1241,07
402,41	1261,55
402,62	1331,18
402,83	1255,40
403,04	1239,02
403,24	1241,07
403,45	1251,31
403,66	1261,55
403,87	1275,88
404,07	1177,58
404,28	1198,06
404,49	1312,75
404,70	1200,11
404,90	1286,12
405,11	1257,45
405,32	1298,41
405,52	1232,88
405,73	1277,93
405,94	1327,08
406,15	1214,45
406,35	1241,07
406,56	1206,25
406,77	1187,82
406,98	1335,28
407,18	1253,36
407,39	1279,98
407,60	1320,94
407,80	1275,88
408,01	1327,08
408,22	1241,07
408,43	1232,88
408,63	1210,35
408,84	1261,55
409,05	1288,17
409,25	1325,04
409,46	1214,45
409,67	1267,69
409,88	1304,56
410,08	1312,75
410,29	1208,30
410,50	1331,18
410,70	1249,26
410,91	1316,84
411,12	1230,83
411,32	1273,84
411,53	1290,22
411,74	1241,07
411,95	1271,79
412,15	1148,91
412,36	1247,21
412,57	1247,21
412,77	1247,21
412,98	1247,21
413,19	1230,83
413,39	1320,94
413,60	1208,30
413,81	1298,41
414,01	1269,74
414,22	1279,98
414,43	1265,64
414,63	1277,93
414,84	1255,40
415,05	1282,03
415,25	1331,18
415,46	1249,26
415,67	1234,93
415,87	1255,40
416,08	1294,32
416,29	1204,21
416,49	1306,60
416,70	1173,49
416,91	1312,75
417,11	1226,73
417,32	1335,28
417,53	1208,30
417,73	1271,79
417,94	1261,55
418,15	1279,98
418,35	1269,74
418,56	1263,60
418,77	1275,88
418,97	1333,23
419,18	1331,18
419,38	1277,93
419,59	1243,12
419,80	1208,30
420,00	1259,50
420,21	1247,21
420,42	1259,50
420,62	1230,83
420,83	1286,12
421,04	1296,36
421,24	1308,65
421,45	1304,56
421,65	1255,40
421,86	1255,40
422,07	1232,88
422,27	1241,07
422,48	1277,93
422,69	1325,04
422,89	1310,70
423,10	1200,11
423,30	1263,60
423,51	1239,02
423,72	1251,31
423,92	1273,84
424,13	1296,36
424,33	1263,60
424,54	1253,36
424,75	1216,49
424,95	1298,41
425,16	1316,84
425,36	1271,79
425,57	1337,32
425,78	1255,40
425,98	1296,36
426,19	1277,93
426,39	1224,69
426,60	1308,65
426,81	1234,93
427,01	1239,02
427,22	1296,36
427,42	1265,64
427,63	1300,46
427,83	1279,98
428,04	1200,11
428,25	1273,84
428,45	1275,88
428,66	1277,93
428,86	1232,88
429,07	1357,80
429,28	1245,16
429,48	1279,98
429,69	1282,03
429,89	1320,94
430,10	1263,60
430,30	1306,60
430,51	1345,52
430,71	1226,73
430,92	1198,06
431,13	1228,78
431,33	1212,40
431,54	1259,50
431,74	1224,69
431,95	1331,18
432,15	1228,78
432,36	1288,17
432,56	1292,27
432,77	1347,56
432,98	1304,56
433,18	1284,08
433,39	1232,88
433,59	1329,13
433,80	1308,65
434,00	1241,07
434,21	1361,90
434,41	1267,69
434,62	1279,98
434,82	1310,70
435,03	1298,41
435,23	1257,45
435,44	1284,08
435,64	1245,16
435,85	1290,22
436,06	1277,93
436,26	1216,49
436,47	1259,50
436,67	1271,79
436,88	1282,03
437,08	1284,08
437,29	1271,79
437,49	1320,94
437,70	1247,21
437,90	1320,94
438,11	1255,40
438,31	1257,45
438,52	1294,32
438,72	1347,56
438,93	1314,80
439,13	1275,88
439,34	1204,21
439,54	1316,84
439,75	1284,08
439,95	1226,73
440,16	1212,40
440,36	1298,41
440,57	1259,50
440,77	1298,41
440,98	1302,51
441,18	1310,70
441,39	1325,04
441,59	1304,56
441,80	1230,83
442,00	1284,08
442,21	1247,21
442,41	1177,58
442,62	1241,07
442,82	1232,88
443,02	1241,07
443,23	1318,89
443,43	1318,89
443,64	1216,49
443,84	1286,12
444,05	1331,18
444,25	1236,97
444,46	1275,88
444,66	1308,65
444,87	1308,65
445,07	1327,08
445,28	1282,03
445,48	1239,02
445,69	1198,06
445,89	1247,21
446,09	1214,45
446,30	1277,93
446,50	1220,59
446,71	1241,07
446,91	1351,66
447,12	1294,32
447,32	1263,60
447,53	1294,32
447,73	1322,99
447,93	1306,60
448,14	1232,88
448,34	1290,22
448,55	1228,78
448,75	1204,21
448,96	1265,64
449,16	1322,99
449,36	1298,41
449,57	1345,52
449,77	1308,65
449,98	1306,60
450,18	1331,18
450,39	1304,56
450,59	1310,70
450,79	1234,93
451,00	1288,17
451,20	1255,40
451,41	1253,36
451,61	1241,07
451,81	1298,41
452,02	1251,31
452,22	1257,45
452,43	1277,93
452,63	1298,41
452,84	1304,56
453,04	1288,17
453,24	1275,88
453,45	1247,21
453,65	1222,64
453,86	1261,55
454,06	1322,99
454,26	1331,18
454,47	1241,07
454,67	1331,18
454,87	1265,64
455,08	1257,45
455,28	1277,93
455,49	1232,88
455,69	1286,12
455,89	1306,60
456,10	1271,79
456,30	1304,56
456,51	1304,56
456,71	1290,22
456,91	1322,99
457,12	1277,93
457,32	1243,12
457,52	1155,05
457,73	1263,60
457,93	1245,16
458,14	1275,88
458,34	1222,64
458,54	1261,55
458,75	1312,75
458,95	1308,65
459,15	1310,70
459,36	1255,40
459,56	1230,83
459,76	1241,07
459,97	1257,45
460,17	1290,22
460,37	1259,50
460,58	1273,84
460,78	1300,46
460,99	1300,46
461,19	1161,20
461,39	1220,59
461,60	1275,88
461,80	1318,89
462,00	1310,70
462,21	1300,46
462,41	1273,84
462,61	1298,41
462,82	1216,49
463,02	1298,41
463,22	1271,79
463,43	1341,42
463,63	1271,79
463,83	1316,84
464,04	1279,98
464,24	1298,41
464,44	1181,68
464,64	1296,36
464,85	1261,55
465,05	1275,88
465,25	1255,40
465,46	1241,07
465,66	1241,07
465,86	1329,13
466,07	1263,60
466,27	1331,18
466,47	1251,31
466,68	1230,83
466,88	1277,93
467,08	1306,60
467,29	1271,79
467,49	1263,60
467,69	1279,98
467,89	1273,84
468,10	1232,88
468,30	1263,60
468,50	1241,07
468,71	1241,07
468,91	1196,01
469,11	1228,78
469,31	1249,26
469,52	1300,46
469,72	1341,42
469,92	1310,70
470,13	1253,36
470,33	1298,41
470,53	1189,87
470,73	1257,45
470,94	1345,52
471,14	1304,56
471,34	1294,32
471,54	1226,73
471,75	1236,97
471,95	1351,66
472,15	1318,89
472,36	1273,84
472,56	1300,46
472,76	1286,12
472,96	1249,26
473,17	1345,52
473,37	1335,28
473,57	1251,31
473,77	1269,74
473,98	1298,41
474,18	1222,64
474,38	1288,17
474,58	1282,03
474,79	1245,16
474,99	1341,42
475,19	1247,21
475,39	1255,40
475,60	1290,22
475,80	1249,26
476,00	1243,12
476,20	1251,31
476,41	1282,03
476,61	1253,36
476,81	1245,16
477,01	1318,89
477,21	1294,32
477,42	1351,66
477,62	1306,60
477,82	1255,40
478,02	1298,41
478,23	1224,69
478,43	1292,27
478,63	1249,26
478,83	1261,55
479,03	1198,06
479,24	1247,21
479,44	1216,49
479,64	1302,51
479,84	1222,64
480,04	1308,65
480,25	1253,36
480,45	1265,64
480,65	1273,84
480,85	1316,84
481,06	1300,46
481,26	1216,49
481,46	1368,04
481,66	1253,36
481,86	1271,79
482,06	1245,16
482,27	1222,64
482,47	1261,55
482,67	1308,65
482,87	1275,88
483,07	1236,97
483,28	1339,37
483,48	1353,71
483,68	1251,31
483,88	1279,98
484,08	1292,27
484,29	1292,27
484,49	1279,98
484,69	1239,02
484,89	1288,17
485,09	1257,45
485,29	1236,97
485,50	1265,64
485,70	1314,80
485,90	1273,84
486,10	1243,12
486,30	1255,40
486,50	1269,74
486,71	1232,88
486,91	1312,75
487,11	1251,31
487,31	1269,74
487,51	1322,99
487,71	1247,21
487,91	1310,70
488,12	1230,83
488,32	1314,80
488,52	1243,12
488,72	1257,45
488,92	1298,41
489,12	1273,84
489,32	1302,51
489,53	1273,84
489,73	1251,31
489,93	1322,99
490,13	1255,40
490,33	1208,30
490,53	1318,89
490,73	1269,74
490,94	1292,27
491,14	1314,80
491,34	1267,69
491,54	1224,69
491,74	1226,73
491,94	1308,65
492,14	1298,41
492,34	1249,26
492,54	1302,51
492,75	1241,07
492,95	1273,84
493,15	1306,60
493,35	1245,16
493,55	1257,45
493,75	1175,53
493,95	1265,64
494,15	1212,40
494,35	1249,26
494,56	1220,59
494,76	1302,51
494,96	1300,46
495,16	1318,89
495,36	1294,32
495,56	1230,83
495,76	1226,73
495,96	1249,26
496,16	1171,44
496,36	1239,02
496,56	1296,36
496,77	1183,73
496,97	1306,60
497,17	1300,46
497,37	1204,21
497,57	1320,94
497,77	1331,18
497,97	1312,75
498,17	1265,64
498,37	1216,49
498,57	1339,37
498,77	1265,64
498,97	1232,88
499,17	1216,49
499,38	1228,78
499,58	1251,31
499,78	1253,36
499,98	1304,56
500,18	1251,31
500,38	1343,47
500,58	1236,97
500,78	1267,69
500,98	1232,88
501,18	1292,27
501,38	1318,89
501,58	1263,60
501,78	1318,89
501,98	1282,03
502,18	1245,16
502,38	1292,27
502,58	1265,64
502,78	1230,83
502,98	1263,60
503,18	1206,25
503,38	1226,73
503,59	1298,41
503,79	1284,08
503,99	1327,08
504,19	1232,88
504,39	1298,41
504,59	1294,32
504,79	1329,13
504,99	1271,79
505,19	1216,49
505,39	1243,12
505,59	1265,64
505,79	1282,03
505,99	1253,36
506,19	1308,65
506,39	1239,02
506,59	1249,26
506,79	1187,82
506,99	1310,70
507,19	1253,36
507,39	1275,88
507,59	1312,75
507,79	1331,18
507,99	1290,22
508,19	1196,01
508,39	1253,36
508,59	1261,55
508,79	1298,41
508,99	1247,21
509,19	1236,97
509,39	1286,12
509,59	1331,18
509,79	1236,97
509,99	1333,23
510,19	1275,88
510,39	1271,79
510,59	1288,17
510,79	1230,83
510,99	1241,07
511,19	1310,70
511,39	1322,99
511,59	1200,11
511,79	1263,60
511,99	1304,56
512,19	1308,65
512,38	1314,80
512,58	1300,46
512,78	1366,00
512,98	1320,94
513,18	1288,17
513,38	1288,17
513,58	1394,67
513,78	1304,56
513,98	1314,80
514,18	1320,94
514,38	1335,28
514,58	1345,52
514,78	1279,98
514,98	1257,45
515,18	1282,03
515,38	1282,03
515,58	1310,70
515,78	1157,10
515,98	1239,02
516,18	1224,69
516,38	1296,36
516,57	1294,32
516,77	1253,36
516,97	1216,49
517,17	1288,17
517,37	1271,79
517,57	1275,88
517,77	1288,17
517,97	1343,47
518,17	1269,74
518,37	1259,50
518,57	1253,36
518,77	1290,22
518,97	1198,06
519,16	1290,22
519,36	1261,55
519,56	1232,88
519,76	1282,03
519,96	1232,88
520,16	1345,52
520,36	1243,12
520,56	1318,89
520,76	1204,21
520,96	1220,59
521,16	1318,89
521,35	1290,22
521,55	1286,12
521,75	1271,79
521,95	1279,98
522,15	1275,88
522,35	1271,79
522,55	1306,60
522,75	1310,70
522,95	1232,88
523,14	1273,84
523,34	1257,45
523,54	1327,08
523,74	1298,41
523,94	1339,37
524,14	1222,64
524,34	1292,27
524,54	1304,56
524,73	1261,55
524,93	1220,59
525,13	1320,94
525,33	1263,60
525,53	1257,45
525,73	1322,99
525,93	1251,31
526,13	1247,21
526,32	1271,79
526,52	1284,08
526,72	1273,84
526,92	1302,51
527,12	1292,27
527,32	1267,69
527,52	1247,21
527,71	1179,63
527,91	1218,54
528,11	1257,45
528,31	1279,98
528,51	1277,93
528,71	1304,56
528,90	1318,89
529,10	1267,69
529,30	1241,07
529,50	1212,40
529,70	1308,65
529,90	1308,65
530,09	1267,69
530,29	1230,83
530,49	1320,94
530,69	1312,75
530,89	1288,17
531,09	1314,80
531,28	1322,99
531,48	1214,45
531,68	1284,08
531,88	1236,97
532,08	1267,69
532,28	1247,21
532,47	1314,80
532,67	1322,99
532,87	1200,11
533,07	1273,84
533,27	1271,79
533,46	1179,63
533,66	1302,51
533,86	1286,12
534,06	1210,35
534,26	1296,36
534,45	1294,32
534,65	1214,45
534,85	1333,23
535,05	1273,84
535,25	1265,64
535,44	1259,50
535,64	1298,41
535,84	1318,89
536,04	1327,08
536,24	1259,50
536,43	1282,03
536,63	1308,65
536,83	1273,84
537,03	1251,31
537,22	1310,70
537,42	1251,31
537,62	1247,21
537,82	1245,16
538,02	1327,08
538,21	1261,55
538,41	1327,08
538,61	1298,41
538,81	1212,40
539,00	1212,40
539,20	1253,36
539,40	1329,13
539,60	1308,65
539,79	1296,36
539,99	1253,36
540,19	1290,22
540,39	1255,40
540,58	1320,94
540,78	1288,17
540,98	1306,60
541,18	1298,41
541,37	1257,45
541,57	1265,64
541,77	1306,60
541,97	1337,32
542,16	1232,88
542,36	1298,41
542,56	1279,98
542,76	1339,37
542,95	1331,18
543,15	1191,92
543,35	1282,03
543,54	1279,98
543,74	1275,88
543,94	1325,04
544,14	1255,40
544,33	1275,88
544,53	1239,02
544,73	1267,69
544,93	1277,93
545,12	1267,69
545,32	1337,32
545,52	1247,21
545,71	1304,56
545,91	1236,97
546,11	1257,45
546,30	1302,51
546,50	1314,80
546,70	1236,97
546,90	1320,94
547,09	1310,70
547,29	1286,12
547,49	1230,83
547,68	1300,46
547,88	1337,32
548,08	1327,08
548,27	1300,46
548,47	1286,12
548,67	1224,69
548,87	1271,79
549,06	1284,08
549,26	1259,50
549,46	1261,55
549,65	1263,60
549,85	1241,07
550,05	1320,94
550,24	1302,51
550,44	1312,75
550,64	1290,22
550,83	1292,27
551,03	1304,56
551,23	1347,56
551,42	1212,40
551,62	1236,97
551,82	1294,32
552,01	1353,71
552,21	1312,75
552,41	1310,70
552,60	1265,64
552,80	1239,02
553,00	1249,26
553,19	1298,41
553,39	1286,12
553,59	1374,19
553,78	1271,79
553,98	1320,94
554,17	1308,65
554,37	1339,37
554,57	1273,84
554,76	1284,08
554,96	1316,84
555,16	1263,60
555,35	1304,56
555,55	1212,40
555,75	1312,75
555,94	1292,27
556,14	1294,32
556,33	1302,51
556,53	1251,31
556,73	1226,73
556,92	1349,61
557,12	1275,88
557,32	1310,70
557,51	1296,36
557,71	1265,64
557,90	1335,28
558,10	1222,64
558,30	1273,84
558,49	1286,12
558,69	1363,95
558,88	1202,16
559,08	1271,79
559,28	1218,54
559,47	1343,47
559,67	1312,75
559,86	1286,12
560,06	1357,80
560,26	1294,32
560,45	1259,50
560,65	1357,80
560,84	1284,08
561,04	1298,41
561,24	1296,36
561,43	1226,73
561,63	1261,55
561,82	1386,47
562,02	1292,27
562,22	1310,70
562,41	1265,64
562,61	1292,27
562,80	1226,73
563,00	1292,27
563,19	1286,12
563,39	1279,98
563,59	1269,74
563,78	1345,52
563,98	1314,80
564,17	1279,98
564,37	1224,69
564,56	1355,76
564,76	1306,60
564,96	1273,84
565,15	1304,56
565,35	1300,46
565,54	1284,08
565,74	1251,31
565,93	1306,60
566,13	1288,17
566,32	1251,31
566,52	1271,79
566,71	1300,46
566,91	1378,28
567,11	1273,84
567,30	1243,12
567,50	1296,36
567,69	1310,70
567,89	1288,17
568,08	1343,47
568,28	1271,79
568,47	1208,30
568,67	1275,88
568,86	1220,59
569,06	1269,74
569,25	1257,45
569,45	1261,55
569,64	1294,32
569,84	1329,13
570,04	1263,60
570,23	1245,16
570,43	1234,93
570,62	1257,45
570,82	1269,74
571,01	1253,36
571,21	1345,52
571,40	1261,55
571,60	1279,98
571,79	1310,70
571,99	1327,08
572,18	1257,45
572,38	1243,12
572,57	1361,90
572,77	1308,65
572,96	1216,49
573,16	1275,88
573,35	1257,45
573,55	1339,37
573,74	1247,21
573,94	1318,89
574,13	1282,03
574,33	1257,45
574,52	1220,59
574,71	1273,84
574,91	1277,93
575,10	1243,12
575,30	1206,25
575,49	1320,94
575,69	1294,32
575,88	1318,89
576,08	1312,75
576,27	1308,65
576,47	1327,08
576,66	1333,23
576,86	1327,08
577,05	1253,36
577,25	1302,51
577,44	1296,36
577,64	1263,60
577,83	1273,84
578,02	1267,69
578,22	1292,27
578,41	1265,64
578,61	1269,74
578,80	1234,93
579,00	1232,88
579,19	1298,41
579,39	1296,36
579,58	1294,32
579,77	1292,27
579,97	1298,41
580,16	1294,32
580,36	1284,08
580,55	1327,08
580,75	1204,21
580,94	1320,94
581,13	1333,23
581,33	1312,75
581,52	1320,94
581,72	1343,47
581,91	1273,84
582,11	1210,35
582,30	1331,18
582,49	1312,75
582,69	1241,07
582,88	1279,98
583,08	1290,22
583,27	1363,95
583,47	1261,55
583,66	1257,45
583,85	1314,80
584,05	1298,41
584,24	1269,74
584,44	1282,03
584,63	1292,27
584,82	1234,93
585,02	1288,17
585,21	1325,04
585,41	1226,73
585,60	1216,49
585,79	1302,51
585,99	1273,84
586,18	1279,98
586,37	1292,27
586,57	1310,70
586,76	1257,45
586,96	1300,46
587,15	1296,36
587,34	1251,31
587,54	1232,88
587,73	1343,47
587,93	1282,03
588,12	1343,47
588,31	1349,61
588,51	1294,32
588,70	1292,27
588,89	1236,97
589,09	1331,18
589,28	1298,41
589,47	1310,70
589,67	1273,84
589,86	1282,03
590,06	1314,80
590,25	1284,08
590,44	1290,22
590,64	1333,23
590,83	1267,69
591,02	1282,03
591,22	1255,40
591,41	1294,32
591,60	1279,98
591,80	1282,03
591,99	1267,69
592,18	1236,97
592,38	1279,98
592,57	1372,14
592,76	1257,45
592,96	1306,60
593,15	1361,90
593,34	1265,64
593,54	1241,07
593,73	1282,03
593,92	1312,75
594,12	1304,56
594,31	1310,70
594,50	1257,45
594,70	1310,70
594,89	1286,12
595,08	1282,03
595,28	1282,03
595,47	1337,32
595,66	1288,17
595,86	1284,08
596,05	1310,70
596,24	1294,32
596,43	1296,36
596,63	1257,45
596,82	1273,84
597,01	1226,73
597,21	1300,46
597,40	1318,89
597,59	1282,03
597,79	1259,50
597,98	1228,78
598,17	1302,51
598,36	1335,28
598,56	1282,03
598,75	1241,07
598,94	1370,09
599,14	1361,90
599,33	1183,73
599,52	1259,50
599,71	1314,80
599,91	1290,22
600,10	1265,64
600,29	1275,88
600,48	1245,16
600,68	1263,60
600,87	1286,12
601,06	1316,84
601,26	1322,99
601,45	1325,04
601,64	1296,36
601,83	1226,73
602,03	1312,75
602,22	1286,12
602,41	1277,93
602,60	1363,95
602,80	1327,08
602,99	1325,04
603,18	1306,60
603,37	1284,08
603,57	1290,22
603,76	1347,56
603,95	1318,89
604,14	1253,36
604,34	1269,74
604,53	1337,32
604,72	1329,13
604,91	1337,32
605,10	1275,88
605,30	1318,89
605,49	1251,31
605,68	1234,93
605,87	1236,97
606,07	1286,12
606,26	1232,88
606,45	1253,36
606,64	1282,03
606,84	1267,69
607,03	1302,51
607,22	1372,14
607,41	1273,84
607,60	1263,60
607,80	1355,76
607,99	1345,52
608,18	1277,93
608,37	1284,08
608,56	1288,17
608,76	1282,03
608,95	1312,75
609,14	1273,84
609,33	1363,95
609,52	1255,40
609,72	1288,17
609,91	1253,36
610,10	1296,36
610,29	1320,94
610,48	1302,51
610,68	1265,64
610,87	1279,98
611,06	1343,47
611,25	1247,21
611,44	1282,03
611,63	1257,45
611,83	1347,56
612,02	1255,40
612,21	1241,07
612,40	1345,52
612,59	1261,55
612,79	1212,40
612,98	1316,84
613,17	1296,36
613,36	1271,79
613,55	1261,55
613,74	1263,60
613,93	1275,88
614,13	1310,70
614,32	1249,26
614,51	1331,18
614,70	1239,02
614,89	1306,60
615,08	1304,56
615,28	1302,51
615,47	1234,93
615,66	1335,28
615,85	1259,50
616,04	1349,61
616,23	1236,97
616,42	1314,80
616,62	1247,21
616,81	1314,80
617,00	1300,46
617,19	1290,22
617,38	1263,60
617,57	1257,45
617,76	1329,13
617,95	1284,08
618,15	1239,02
618,34	1294,32
618,53	1314,80
618,72	1310,70
618,91	1294,32
619,10	1224,69
619,29	1255,40
619,48	1327,08
619,68	1263,60
619,87	1294,32
620,06	1339,37
620,25	1247,21
620,44	1312,75
620,63	1304,56
620,82	1234,93
621,01	1304,56
621,20	1241,07
621,39	1359,85
621,59	1306,60
621,78	1310,70
621,97	1241,07
622,16	1308,65
622,35	1259,50
622,54	1347,56
622,73	1296,36
622,92	1322,99
623,11	1286,12
623,30	1320,94
623,49	1292,27
623,68	1267,69
623,88	1312,75
624,07	1261,55
624,26	1333,23
624,45	1306,60
624,64	1322,99
624,83	1243,12
625,02	1292,27
625,21	1282,03
625,40	1292,27
625,59	1312,75
625,78	1257,45
625,97	1267,69
626,16	1245,16
626,35	1384,43
626,54	1277,93
626,74	1255,40
626,93	1206,25
627,12	1265,64
627,31	1320,94
627,50	1331,18
627,69	1284,08
627,88	1302,51
628,07	1273,84
628,26	1249,26
628,45	1298,41
628,64	1329,13
628,83	1228,78
629,02	1331,18
629,21	1279,98
629,40	1320,94
629,59	1265,64
629,78	1345,52
629,97	1288,17
630,16	1277,93
630,35	1298,41
630,54	1245,16
630,73	1302,51
630,92	1355,76
631,11	1247,21
631,30	1294,32
631,49	1275,88
631,68	1349,61
631,87	1437,67
632,06	1449,96
632,25	1382,38
632,44	1396,71
632,63	1447,91
632,82	1406,95
633,01	1458,15
633,20	1472,49
633,39	1437,67
633,58	1431,53
633,77	1478,63
633,96	1486,83
634,15	1435,63
634,34	1624,04
634,53	1837,03
634,72	1675,24
634,91	1447,91
635,10	1456,11
635,29	1671,14
635,48	1732,58
635,67	1869,80
635,86	1785,83
636,05	1603,56
636,24	1613,80
636,43	1544,17
636,62	1505,26
636,81	1411,05
637,00	1411,05
637,19	1245,16
637,38	1394,67
637,57	1304,56
637,76	1353,71
637,95	1372,14
638,14	1396,71
638,33	1304,56
638,52	1279,98
638,71	1296,36
638,89	1298,41
639,08	1368,04
639,27	1239,02
639,46	1257,45
639,65	1337,32
639,84	1181,68
640,03	1269,74
640,22	1247,21
640,41	1290,22
640,60	1265,64
640,79	1308,65
640,98	1257,45
641,17	1282,03
641,36	1298,41
641,55	1277,93
641,74	1259,50
641,92	1249,26
642,11	1249,26
642,30	1222,64
642,49	1320,94
642,68	1318,89
642,87	1292,27
643,06	1279,98
643,25	1200,11
643,44	1243,12
643,63	1286,12
643,82	1318,89
644,00	1271,79
644,19	1212,40
644,38	1337,32
644,57	1286,12
644,76	1273,84
644,95	1304,56
645,14	1318,89
645,33	1251,31
645,52	1316,84
645,71	1304,56
645,89	1228,78
646,08	1216,49
646,27	1310,70
646,46	1282,03
646,65	1292,27
646,84	1292,27
647,03	1298,41
647,22	1249,26
647,40	1277,93
647,59	1347,56
647,78	1263,60
647,97	1277,93
648,16	1298,41
648,35	1368,04
648,54	1273,84
648,73	1259,50
648,91	1290,22
649,10	1302,51
649,29	1232,88
649,48	1273,84
649,67	1277,93
649,86	1257,45
650,05	1333,23
650,23	1232,88
650,42	1253,36
650,61	1279,98
650,80	1265,64
650,99	1261,55
651,18	1318,89
651,36	1261,55
651,55	1277,93
651,74	1320,94
651,93	1257,45
652,12	1284,08
652,31	1288,17
652,49	1271,79
652,68	1310,70
652,87	1306,60
653,06	1361,90
653,25	1255,40
653,44	1284,08
653,62	1282,03
653,81	1302,51
654,00	1298,41
654,19	1218,54
654,38	1290,22
654,56	1312,75
654,75	1239,02
654,94	1245,16
655,13	1279,98
655,32	1255,40
655,51	1288,17
655,69	1267,69
655,88	1239,02
656,07	1245,16
656,26	1257,45
656,45	1177,58
656,63	1273,84
656,82	1298,41
657,01	1284,08
657,20	1277,93
657,38	1243,12
657,57	1277,93
657,76	1226,73
657,95	1279,98
658,14	1255,40
658,32	1290,22
658,51	1290,22
658,70	1279,98
658,89	1251,31
659,08	1271,79
659,26	1331,18
659,45	1247,21
659,64	1214,45
659,83	1304,56
660,01	1220,59
660,20	1298,41
660,39	1245,16
660,58	1208,30
660,76	1314,80
660,95	1208,30
661,14	1173,49
661,33	1286,12
661,51	1294,32
661,70	1341,42
661,89	1273,84
662,08	1337,32
662,26	1286,12
662,45	1167,34
662,64	1282,03
662,83	1267,69
663,01	1294,32
663,20	1247,21
663,39	1249,26
663,58	1251,31
663,76	1271,79
663,95	1230,83
664,14	1277,93
664,32	1232,88
664,51	1298,41
664,70	1294,32
664,89	1318,89
665,07	1265,64
665,26	1222,64
665,45	1226,73
665,64	1343,47
665,82	1282,03
666,01	1296,36
666,20	1224,69
666,38	1271,79
666,57	1300,46
666,76	1271,79
666,95	1310,70
667,13	1257,45
667,32	1236,97
667,51	1279,98
667,69	1286,12
667,88	1236,97
668,07	1255,40
668,25	1277,93
668,44	1261,55
668,63	1208,30
668,81	1310,70
669,00	1279,98
669,19	1298,41
669,38	1271,79
669,56	1210,35
669,75	1208,30
669,94	1232,88
670,12	1298,41
670,31	1320,94
670,50	1220,59
670,68	1282,03
670,87	1236,97
671,06	1269,74
671,24	1271,79
671,43	1275,88
671,62	1322,99
671,80	1294,32
671,99	1216,49
672,18	1265,64
672,36	1273,84
672,55	1245,16
672,74	1327,08
672,92	1236,97
673,11	1239,02
673,29	1335,28
673,48	1322,99
673,67	1232,88
673,85	1265,64
674,04	1347,56
674,23	1275,88
674,41	1306,60
674,60	1310,70
674,79	1261,55
674,97	1255,40
675,16	1282,03
675,34	1263,60
675,53	1337,32
675,72	1265,64
675,90	1286,12
676,09	1298,41
676,28	1325,04
676,46	1236,97
676,65	1239,02
676,83	1322,99
677,02	1273,84
677,21	1269,74
677,39	1253,36
677,58	1259,50
677,77	1279,98
677,95	1239,02
678,14	1249,26
678,32	1296,36
678,51	1290,22
678,70	1255,40
678,88	1314,80
679,07	1267,69
679,25	1310,70
679,44	1339,37
679,63	1279,98
679,81	1306,60
680,00	1253,36
680,18	1253,36
680,37	1298,41
680,55	1275,88
680,74	1273,84
680,93	1288,17
681,11	1298,41
681,30	1271,79
681,48	1275,88
681,67	1239,02
681,85	1249,26
682,04	1304,56
682,23	1200,11
682,41	1300,46
682,60	1290,22
682,78	1265,64
682,97	1245,16
683,15	1236,97
683,34	1189,87
683,53	1351,66
683,71	1275,88
683,90	1378,28
684,08	1308,65
684,27	1249,26
684,45	1265,64
684,64	1337,32
684,82	1247,21
685,01	1200,11
685,19	1282,03
685,38	1277,93
685,57	1198,06
685,75	1214,45
685,94	1226,73
686,12	1275,88
686,31	1325,04
686,49	1312,75
686,68	1241,07
686,86	1251,31
687,05	1310,70
687,23	1243,12
687,42	1257,45
687,60	1304,56
687,79	1312,75
687,97	1232,88
688,16	1325,04
688,34	1249,26
688,53	1200,11
688,71	1269,74
688,90	1273,84
689,08	1222,64
689,27	1279,98
689,45	1259,50
689,64	1265,64
689,82	1230,83
690,01	1243,12
690,19	1261,55
690,38	1257,45
690,56	1343,47
690,75	1255,40
690,93	1304,56
691,12	1261,55
691,30	1306,60
691,49	1298,41
691,67	1241,07
691,86	1361,90
692,04	1263,60
692,23	1277,93
692,41	1277,93
692,60	1241,07
692,78	1241,07
692,97	1286,12
693,15	1271,79
693,34	1298,41
693,52	1286,12
693,71	1298,41
693,89	1265,64
694,08	1224,69
694,26	1306,60
694,44	1267,69
694,63	1318,89
694,81	1329,13
695,00	1271,79
695,18	1263,60
695,37	1273,84
695,55	1322,99
695,74	1310,70
695,92	1333,23
696,10	1255,40
696,29	1279,98
696,47	1259,50
696,66	1183,73
696,84	1275,88
697,03	1304,56
697,21	1255,40
697,40	1286,12
697,58	1279,98
697,76	1286,12
697,95	1284,08
698,13	1271,79
698,32	1202,16
698,50	1257,45
698,68	1259,50
698,87	1304,56
699,05	1325,04
699,24	1286,12
699,42	1247,21
699,61	1282,03
699,79	1284,08
699,97	1298,41
700,16	1245,16
700,34	1304,56
700,53	1273,84
700,71	1288,17
700,89	1312,75
701,08	1236,97
701,26	1261,55
701,45	1275,88
701,63	1290,22
701,81	1286,12
702,00	1343,47
702,18	1224,69
702,37	1255,40
702,55	1329,13
702,73	1255,40
702,92	1220,59
703,10	1255,40
703,28	1198,06
703,47	1269,74
703,65	1329,13
703,84	1316,84
704,02	1294,32
704,20	1282,03
704,39	1292,27
704,57	1302,51
704,75	1288,17
704,94	1282,03
705,12	1234,93
705,30	1290,22
705,49	1314,80
705,67	1298,41
705,86	1304,56
706,04	1259,50
706,22	1226,73
706,41	1288,17
706,59	1255,40
706,77	1228,78
706,96	1222,64
707,14	1263,60
707,32	1288,17
707,51	1222,64
707,69	1234,93
707,87	1214,45
708,06	1273,84
708,24	1312,75
708,42	1273,84
708,61	1261,55
708,79	1245,16
708,97	1239,02
709,16	1294,32
709,34	1263,60
709,52	1312,75
709,71	1292,27
709,89	1185,77
710,07	1310,70
710,26	1216,49
710,44	1200,11
710,62	1288,17
710,80	1239,02
710,99	1232,88
711,17	1320,94
711,35	1312,75
711,54	1286,12
711,72	1247,21
711,90	1202,16
712,09	1208,30
712,27	1282,03
712,45	1308,65
712,63	1277,93
712,82	1230,83
713,00	1257,45
713,18	1204,21
713,37	1318,89
713,55	1222,64
713,73	1255,40
713,91	1265,64
714,10	1185,77
714,28	1316,84
714,46	1312,75
714,65	1282,03
714,83	1200,11
715,01	1314,80
715,19	1249,26
715,38	1265,64
715,56	1241,07
715,74	1236,97
715,92	1257,45
716,11	1228,78
716,29	1230,83
716,47	1282,03
716,65	1241,07
716,84	1243,12
717,02	1251,31
717,20	1265,64
717,38	1290,22
717,57	1247,21
717,75	1284,08
717,93	1257,45
718,11	1318,89
718,30	1282,03
718,48	1247,21
718,66	1316,84
718,84	1239,02
719,03	1269,74
719,21	1191,92
719,39	1308,65
719,57	1267,69
719,75	1259,50
719,94	1214,45
720,12	1314,80
720,30	1265,64
720,48	1282,03
720,67	1218,54
720,85	1296,36
721,03	1312,75
721,21	1261,55
721,39	1245,16
721,58	1239,02
721,76	1355,76
721,94	1249,26
722,12	1282,03
722,30	1236,97
722,49	1220,59
722,67	1253,36
722,85	1279,98
723,03	1290,22
723,21	1183,73
723,40	1333,23
723,58	1251,31
723,76	1200,11
723,94	1191,92
724,12	1279,98
724,30	1267,69
724,49	1245,16
724,67	1284,08
724,85	1271,79
725,03	1218,54
725,21	1298,41
725,40	1271,79
725,58	1298,41
725,76	1269,74
725,94	1325,04
726,12	1259,50
726,30	1273,84
726,49	1247,21
726,67	1243,12
726,85	1290,22
727,03	1204,21
727,21	1322,99
727,39	1271,79
727,57	1325,04
727,76	1255,40
727,94	1247,21
728,12	1325,04
728,30	1271,79
728,48	1277,93
728,66	1267,69
728,84	1322,99
729,03	1236,97
729,21	1275,88
729,39	1296,36
729,57	1232,88
729,75	1243,12
729,93	1327,08
730,11	1251,31
730,30	1310,70
730,48	1310,70
730,66	1236,97
730,84	1370,09
731,02	1306,60
731,20	1228,78
731,38	1275,88
731,56	1294,32
731,74	1282,03
731,93	1230,83
732,11	1341,42
732,29	1288,17
732,47	1257,45
732,65	1353,71
732,83	1302,51
733,01	1259,50
733,19	1294,32
733,37	1210,35
733,56	1277,93
733,74	1282,03
733,92	1372,14
734,10	1279,98
734,28	1290,22
734,46	1208,30
734,64	1239,02
734,82	1290,22
735,00	1257,45
735,18	1257,45
735,36	1243,12
735,54	1277,93
735,73	1253,36
735,91	1230,83
736,09	1261,55
736,27	1306,60
736,45	1208,30
736,63	1245,16
736,81	1236,97
736,99	1349,61
737,17	1267,69
737,35	1298,41
737,53	1263,60
737,71	1236,97
737,89	1267,69
738,07	1277,93
738,25	1329,13
738,43	1314,80
738,61	1286,12
738,80	1255,40
738,98	1308,65
739,16	1288,17
739,34	1265,64
739,52	1279,98
739,70	1318,89
739,88	1333,23
740,06	1300,46
740,24	1202,16
740,42	1269,74
740,60	1296,36
740,78	1292,27
740,96	1261,55
741,14	1239,02
741,32	1257,45
741,50	1222,64
741,68	1279,98
741,86	1320,94
742,04	1292,27
742,22	1245,16
742,40	1257,45
742,58	1261,55
742,76	1310,70
742,94	1343,47
743,12	1247,21
743,30	1239,02
743,48	1310,70
743,66	1290,22
743,84	1288,17
744,02	1228,78
744,20	1284,08
744,38	1204,21
744,56	1316,84
744,74	1275,88
744,92	1292,27
745,10	1314,80
745,28	1296,36
745,46	1288,17
745,64	1316,84
745,82	1273,84
746,00	1296,36
746,18	1267,69
746,36	1267,69
746,54	1212,40
746,72	1269,74
746,90	1275,88
747,08	1259,50
747,26	1251,31
747,44	1259,50
747,62	1310,70
747,80	1198,06
747,98	1255,40
748,15	1273,84
748,33	1302,51
748,51	1210,35
748,69	1249,26
748,87	1271,79
749,05	1267,69
749,23	1310,70
749,41	1318,89
749,59	1181,68
749,77	1232,88
749,95	1304,56
750,13	1200,11
750,31	1259,50
750,49	1187,82
750,67	1269,74
750,85	1279,98
751,03	1312,75
751,20	1241,07
751,38	1251,31
751,56	1308,65
751,74	1155,05
751,92	1251,31
752,10	1247,21
752,28	1298,41
752,46	1206,25
752,64	1261,55
752,82	1261,55
753,00	1263,60
753,18	1279,98
753,35	1282,03
753,53	1259,50
753,71	1298,41
753,89	1263,60
754,07	1253,36
754,25	1236,97
754,43	1232,88
754,61	1251,31
754,79	1232,88
754,97	1261,55
755,14	1282,03
755,32	1286,12
755,50	1345,52
755,68	1210,35
755,86	1310,70
756,04	1216,49
756,22	1286,12
756,40	1269,74
756,57	1355,76
756,75	1290,22
756,93	1286,12
757,11	1267,69
757,29	1288,17
757,47	1249,26
757,65	1378,28
757,82	1226,73
758,00	1265,64
758,18	1306,60
758,36	1335,28
758,54	1273,84
758,72	1220,59
758,90	1259,50
759,07	1228,78
759,25	1249,26
759,43	1257,45
759,61	1234,93
759,79	1329,13
759,97	1294,32
760,15	1245,16
760,32	1247,21
760,50	1271,79
760,68	1271,79
760,86	1300,46
761,04	1277,93
761,22	1241,07
761,39	1263,60
761,57	1282,03
761,75	1226,73
761,93	1306,60
762,11	1298,41
762,28	1232,88
762,46	1247,21
762,64	1249,26
762,82	1267,69
763,00	1200,11
763,18	1298,41
763,35	1265,64
763,53	1232,88
763,71	1269,74
763,89	1286,12
764,07	1282,03
764,24	1275,88
764,42	1259,50
764,60	1265,64
764,78	1294,32
764,96	1316,84
765,13	1265,64
765,31	1200,11
765,49	1269,74
765,67	1261,55
765,84	1212,40
766,02	1255,40
766,20	1267,69
766,38	1265,64
766,56	1241,07
766,73	1325,04
766,91	1265,64
767,09	1259,50
767,27	1224,69
767,44	1370,09
767,62	1308,65
767,80	1234,93
767,98	1179,63
768,15	1279,98
768,33	1236,97
768,51	1189,87
768,69	1273,84
768,87	1204,21
769,04	1273,84
769,22	1320,94
769,40	1245,16
769,58	1261,55
769,75	1282,03
769,93	1296,36
770,11	1269,74
770,28	1196,01
770,46	1273,84
770,64	1329,13
770,82	1296,36
770,99	1320,94
771,17	1245,16
771,35	1310,70
771,53	1243,12
771,70	1300,46
771,88	1347,56
772,06	1275,88
772,23	1275,88
772,41	1245,16
772,59	1261,55
772,77	1269,74
772,94	1226,73
773,12	1243,12
773,30	1261,55
773,47	1286,12
773,65	1251,31
773,83	1318,89
774,01	1286,12
774,18	1292,27
774,36	1241,07
774,54	1273,84
774,71	1234,93
774,89	1277,93
775,07	1173,49
775,24	1314,80
775,42	1310,70
775,60	1286,12
775,78	1282,03
775,95	1277,93
776,13	1257,45
776,31	1312,75
776,48	1230,83
776,66	1269,74
776,84	1275,88
777,01	1212,40
777,19	1304,56
777,37	1314,80
777,54	1243,12
777,72	1314,80
777,90	1253,36
778,07	1286,12
778,25	1269,74
778,43	1206,25
778,60	1279,98
778,78	1269,74
778,96	1218,54
779,13	1372,14
779,31	1232,88
779,49	1312,75
779,66	1255,40
779,84	1273,84
780,01	1331,18
780,19	1302,51
780,37	1298,41
780,54	1292,27
780,72	1187,82
780,90	1265,64
781,07	1245,16
781,25	1273,84
781,43	1253,36
781,60	1224,69
781,78	1306,60
781,95	1214,45
782,13	1206,25
782,31	1282,03
782,48	1296,36
782,66	1275,88
782,83	1308,65
783,01	1226,73
783,19	1265,64
783,36	1279,98
783,54	1226,73
783,72	1249,26
783,89	1210,35
784,07	1284,08
784,24	1357,80
784,42	1253,36
784,60	1257,45
784,77	1277,93
784,95	1245,16
785,12	1273,84
785,30	1366,00
785,47	1218,54
785,65	1259,50
785,83	1292,27
786,00	1224,69
786,18	1198,06
786,35	1292,27
786,53	1218,54
786,71	1279,98
786,88	1218,54
787,06	1320,94
787,23	1275,88
787,41	1214,45
787,58	1290,22
787,76	1261,55
787,94	1257,45
788,11	1249,26
788,29	1222,64
788,46	1320,94
788,64	1255,40
788,81	1216,49
788,99	1263,60
789,16	1218,54
789,34	1265,64
789,52	1241,07
789,69	1284,08
789,87	1222,64
790,04	1277,93
790,22	1234,93
790,39	1290,22
790,57	1286,12
790,74	1257,45
790,92	1277,93
791,09	1247,21
791,27	1265,64
791,44	1208,30
791,62	1271,79
791,79	1279,98
791,97	1257,45
792,15	1273,84
792,32	1228,78
792,50	1267,69
792,67	1335,28
792,85	1208,30
793,02	1279,98
793,20	1312,75
793,37	1234,93
793,55	1298,41
793,72	1337,32
793,90	1320,94
794,07	1187,82
794,25	1232,88
794,42	1224,69
794,60	1236,97
794,77	1251,31
794,95	1263,60
795,12	1214,45
795,30	1245,16
795,47	1245,16
795,65	1257,45
795,82	1255,40
796,00	1224,69
796,17	1329,13
796,34	1310,70
796,52	1325,04
796,69	1310,70
796,87	1224,69
797,04	1269,74
797,22	1255,40
797,39	1318,89
797,57	1306,60
797,74	1206,25
797,92	1261,55
798,09	1243,12
798,27	1261,55
798,44	1230,83
798,62	1232,88
798,79	1337,32
798,96	1310,70
799,14	1239,02
799,31	1277,93
799,49	1298,41
799,66	1232,88
799,84	1220,59
800,01	1341,42
800,19	1202,16
800,36	1251,31
800,53	1224,69
800,71	1239,02
800,88	1335,28
801,06	1239,02
801,23	1310,70
801,41	1224,69
801,58	1265,64
801,75	1284,08
801,93	1341,42
802,10	1279,98
802,28	1243,12
802,45	1286,12
802,63	1284,08
802,80	1292,27
802,97	1265,64
803,15	1312,75
803,32	1259,50
803,50	1249,26
803,67	1222,64
803,84	1355,76
804,02	1236,97
804,19	1349,61
804,37	1292,27
804,54	1163,25
804,71	1234,93
804,89	1251,31
805,06	1259,50
805,24	1236,97
805,41	1226,73
805,58	1183,73
805,76	1279,98
805,93	1259,50
806,10	1282,03
806,28	1232,88
806,45	1275,88
806,63	1337,32
806,80	1273,84
806,97	1372,14
807,15	1290,22
807,32	1224,69
807,49	1273,84
807,67	1249,26
807,84	1224,69
808,01	1294,32
808,19	1255,40
808,36	1294,32
808,54	1249,26
808,71	1210,35
808,88	1288,17
809,06	1294,32
809,23	1259,50
809,40	1236,97
809,58	1286,12
809,75	1320,94
809,92	1249,26
810,10	1292,27
810,27	1300,46
810,44	1273,84
810,62	1310,70
810,79	1263,60
810,96	1251,31
811,14	1241,07
811,31	1284,08
811,48	1286,12
811,66	1255,40
811,83	1300,46
812,00	1218,54
812,18	1234,93
812,35	1292,27
812,52	1267,69
812,69	1284,08
812,87	1255,40
813,04	1259,50
813,21	1241,07
813,39	1322,99
813,56	1253,36
813,73	1204,21
813,91	1257,45
814,08	1294,32
814,25	1339,37
814,42	1226,73
814,60	1251,31
814,77	1216,49
814,94	1257,45
815,12	1251,31
815,29	1277,93
815,46	1239,02
815,63	1245,16
815,81	1318,89
815,98	1290,22
816,15	1308,65
816,33	1298,41
816,50	1275,88
816,67	1177,58
816,84	1228,78
817,02	1241,07
817,19	1251,31
817,36	1247,21
817,53	1247,21
817,71	1279,98
817,88	1263,60
818,05	1253,36
818,22	1325,04
818,40	1335,28
818,57	1306,60
818,74	1284,08
818,91	1288,17
819,09	1316,84
819,26	1257,45
819,43	1265,64
819,60	1251,31
819,78	1257,45
819,95	1294,32
820,12	1236,97
820,29	1279,98
820,47	1226,73
820,64	1314,80
820,81	1265,64
820,98	1277,93
821,15	1273,84
821,33	1314,80
821,50	1216,49
821,67	1300,46
821,84	1269,74
822,02	1282,03
822,19	1263,60
822,36	1322,99
822,53	1273,84
822,70	1286,12
822,88	1239,02
823,05	1267,69
823,22	1290,22
823,39	1259,50
823,56	1279,98
823,74	1222,64
823,91	1198,06
824,08	1230,83
824,25	1239,02
824,42	1284,08
824,60	1206,25
824,77	1271,79
824,94	1259,50
825,11	1265,64
825,28	1251,31
825,45	1255,40
825,63	1251,31
825,80	1232,88
825,97	1241,07
826,14	1257,45
826,31	1253,36
826,48	1368,04
826,66	1241,07
826,83	1335,28
827,00	1294,32
827,17	1245,16
827,34	1265,64
827,51	1257,45
827,69	1243,12
827,86	1282,03
828,03	1191,92
828,20	1306,60
828,37	1253,36
828,54	1273,84
828,71	1249,26
828,89	1288,17
829,06	1257,45
829,23	1314,80
829,40	1290,22
829,57	1292,27
829,74	1331,18
829,91	1239,02
830,09	1286,12
830,26	1259,50
830,43	1302,51
830,60	1294,32
830,77	1265,64
830,94	1269,74
831,11	1257,45
831,28	1275,88
831,46	1220,59
831,63	1327,08
831,80	1200,11
831,97	1292,27
832,14	1322,99
832,31	1263,60
832,48	1286,12
832,65	1247,21
832,82	1279,98
832,99	1298,41
833,17	1232,88
833,34	1302,51
833,51	1308,65
833,68	1308,65
833,85	1230,83
834,02	1216,49
834,19	1282,03
834,36	1232,88
834,53	1269,74
834,70	1222,64
834,87	1273,84
835,04	1257,45
835,22	1273,84
835,39	1224,69
835,56	1228,78
835,73	1267,69
835,90	1253,36
836,07	1171,44
836,24	1245,16
836,41	1314,80
836,58	1243,12
836,75	1308,65
836,92	1267,69
837,09	1359,85
837,26	1222,64
837,43	1273,84
837,60	1275,88
837,77	1253,36
837,94	1259,50
838,12	1304,56
838,29	1316,84
838,46	1155,05
838,63	1314,80
838,80	1322,99
838,97	1245,16
839,14	1284,08
839,31	1222,64
839,48	1267,69
839,65	1265,64
839,82	1224,69
839,99	1222,64
840,16	1312,75
840,33	1329,13
840,50	1290,22
840,67	1218,54
840,84	1277,93
841,01	1294,32
841,18	1257,45
841,35	1318,89
841,52	1224,69
841,69	1320,94
841,86	1265,64
842,03	1347,56
842,20	1251,31
842,37	1269,74
842,54	1304,56
842,71	1269,74
842,88	1251,31
843,05	1322,99
843,22	1265,64
843,39	1290,22
843,56	1279,98
843,73	1327,08
843,90	1290,22
844,07	1257,45
844,24	1267,69
844,41	1282,03
844,58	1247,21
844,75	1253,36
844,92	1284,08
845,09	1208,30
845,26	1347,56
845,43	1243,12
845,60	1296,36
845,77	1290,22
845,94	1251,31
846,10	1296,36
846,27	1245,16
846,44	1259,50
846,61	1265,64
846,78	1239,02
846,95	1257,45
847,12	1114,10
847,29	1308,65
847,46	1325,04
847,63	1310,70
847,80	1243,12
847,97	1296,36
848,14	1269,74
848,31	1228,78
848,48	1253,36
848,65	1277,93
848,82	1277,93
848,98	1302,51
849,15	1267,69
849,32	1310,70
849,49	1265,64
849,66	1253,36
849,83	1296,36
850,00	1302,51
850,17	1224,69
850,34	1273,84
850,51	1247,21
850,68	1251,31
850,85	1257,45
851,01	1243,12
851,18	1228,78
851,35	1277,93
851,52	1216,49
851,69	1247,21
851,86	1255,40
852,03	1255,40
852,20	1241,07
852,37	1351,66
852,53	1206,25
852,70	1296,36
852,87	1282,03
853,04	1214,45
853,21	1261,55
853,38	1265,64
853,55	1251,31
853,72	1314,80
853,89	1232,88
854,05	1269,74
854,22	1220,59
854,39	1372,14
854,56	1318,89
854,73	1249,26
854,90	1308,65
855,07	1279,98
855,23	1216,49
855,40	1300,46
855,57	1296,36
855,74	1277,93
855,91	1253,36
856,08	1288,17
856,25	1210,35
856,41	1216,49
856,58	1241,07
856,75	1273,84
856,92	1191,92
857,09	1265,64
857,26	1316,84
857,42	1220,59
857,59	1257,45
857,76	1232,88
857,93	1279,98
858,10	1263,60
858,27	1239,02
858,43	1306,60
858,60	1277,93
858,77	1249,26
858,94	1200,11
859,11	1214,45
859,27	1265,64
859,44	1232,88
859,61	1298,41
859,78	1239,02
859,95	1253,36
860,12	1255,40
860,28	1273,84
860,45	1273,84
860,62	1316,84
860,79	1191,92
860,95	1273,84
861,12	1226,73
861,29	1325,04
861,46	1294,32
861,63	1220,59
861,79	1359,85
861,96	1257,45
862,13	1331,18
862,30	1372,14
862,47	1230,83
862,63	1327,08
862,80	1259,50
862,97	1284,08
863,14	1220,59
863,30	1331,18
863,47	1243,12
863,64	1234,93
863,81	1222,64
863,97	1228,78
864,14	1290,22
864,31	1314,80
864,48	1253,36
864,65	1302,51
864,81	1314,80
864,98	1228,78
865,15	1290,22
865,32	1277,93
865,48	1222,64
865,65	1294,32
865,82	1314,80
865,98	1269,74
866,15	1255,40
866,32	1265,64
866,49	1247,21
866,65	1355,76
866,82	1153,01
866,99	1243,12
867,16	1245,16
867,32	1288,17
867,49	1259,50
867,66	1275,88
867,83	1288,17
867,99	1277,93
868,16	1228,78
868,33	1222,64
868,49	1257,45
868,66	1185,77
868,83	1310,70
868,99	1292,27
869,16	1243,12
869,33	1273,84
869,50	1245,16
869,66	1282,03
869,83	1325,04
870,00	1189,87
870,16	1206,25
870,33	1253,36
870,50	1275,88
870,66	1286,12
870,83	1275,88
871,00	1331,18
871,17	1271,79
871,33	1261,55
871,50	1288,17
871,67	1239,02
871,83	1243,12
872,00	1269,74
872,17	1279,98
872,33	1265,64
872,50	1173,49
872,67	1277,93
872,83	1282,03
873,00	1290,22
873,17	1249,26
873,33	1273,84
873,50	1142,77
873,67	1273,84
873,83	1249,26
874,00	1327,08
874,16	1271,79
874,33	1290,22
874,50	1286,12
874,66	1218,54
874,83	1294,32
875,00	1304,56
875,16	1206,25
875,33	1251,31
875,50	1245,16
875,66	1263,60
875,83	1222,64
875,99	1308,65
876,16	1204,21
876,33	1241,07
876,49	1320,94
876,66	1277,93
876,83	1214,45
876,99	1304,56
877,16	1292,27
877,32	1206,25
877,49	1288,17
877,66	1267,69
877,82	1189,87
877,99	1286,12
878,15	1286,12
878,32	1267,69
878,49	1253,36
878,65	1296,36
878,82	1239,02
878,98	1267,69
879,15	1234,93
879,32	1247,21
879,48	1325,04
879,65	1247,21
879,81	1261,55
879,98	1273,84
880,15	1339,37
880,31	1361,90
880,48	1249,26
880,64	1261,55
880,81	1271,79
880,97	1269,74
881,14	1284,08
881,31	1300,46
881,47	1288,17
881,64	1286,12
881,80	1292,27
881,97	1232,88
882,13	1226,73
882,30	1277,93
882,47	1251,31
882,63	1230,83
882,80	1320,94
882,96	1335,28
883,13	1255,40
883,29	1263,60
883,46	1269,74
883,62	1275,88
883,79	1243,12
883,95	1286,12
884,12	1286,12
884,29	1253,36
884,45	1296,36
884,62	1277,93
884,78	1271,79
884,95	1290,22
885,11	1236,97
885,28	1206,25
885,44	1243,12
885,61	1243,12
885,77	1314,80
885,94	1273,84
886,10	1316,84
886,27	1253,36
886,43	1286,12
886,60	1247,21
886,76	1298,41
886,93	1187,82
887,09	1316,84
887,26	1265,64
887,42	1261,55
887,59	1302,51
887,75	1271,79
887,92	1255,40
888,08	1298,41
888,25	1269,74
888,41	1208,30
888,58	1247,21
888,74	1224,69
888,91	1302,51
>>>>>End Processed Spectral Data<<<<<
