SpectraSuite Data File
++++++++++++++++++++++++++++++++++++
Date: Sun Apr 03 19:55:27 CEST 2016
User: root
Dark Spectrum Present: No
Reference Spectrum Present: No
Number of Sampled Component Spectra: 1
Spectrometers: USB4C02835
Integration Time (usec): 10000 (USB4C02835)
Spectra Averaged: 1 (USB4C02835)
Boxcar Smoothing: 0 (USB4C02835)
Correct for Electrical Dark: No (USB4C02835)
Strobe/Lamp Enabled: No (USB4C02835)
Correct for Detector Non-linearity: No (USB4C02835)
Correct for Stray Light: No (USB4C02835)
Number of Pixels in Processed Spectrum: 3648
>>>>>Begin Processed Spectral Data<<<<<
177,47	1212,40
177,69	1212,40
177,91	1212,40
178,13	1298,41
178,36	1284,08
178,58	1144,81
178,80	1329,13
179,02	1222,64
179,24	1286,12
179,46	1265,64
179,68	1267,69
179,90	1239,02
180,13	1277,93
180,35	1243,12
180,57	1322,99
180,79	1318,89
181,01	1228,78
181,23	1333,23
181,45	1210,35
181,67	1249,26
181,90	1224,69
182,12	1208,30
182,34	1249,26
182,56	1241,07
182,78	1308,65
183,00	1273,84
183,22	1255,40
183,44	1302,51
183,66	1284,08
183,89	1253,36
184,11	1300,46
184,33	1275,88
184,55	1306,60
184,77	1259,50
184,99	1234,93
185,21	1265,64
185,43	1310,70
185,65	1261,55
185,87	1218,54
186,10	1300,46
186,32	1355,76
186,54	1216,49
186,76	1298,41
186,98	1316,84
187,20	1286,12
187,42	1206,25
187,64	1314,80
187,86	1286,12
188,08	1236,97
188,30	1275,88
188,52	1249,26
188,75	1312,75
188,97	1310,70
189,19	1271,79
189,41	1282,03
189,63	1265,64
189,85	1265,64
190,07	1314,80
190,29	1337,32
190,51	1316,84
190,73	1290,22
190,95	1263,60
191,17	1273,84
191,39	1253,36
191,61	1267,69
191,84	1333,23
192,06	1284,08
192,28	1257,45
192,50	1284,08
192,72	1290,22
192,94	1265,64
193,16	1220,59
193,38	1247,21
193,60	1243,12
193,82	1322,99
194,04	1304,56
194,26	1339,37
194,48	1271,79
194,70	1200,11
194,92	1284,08
195,14	1265,64
195,36	1304,56
195,58	1230,83
195,80	1239,02
196,02	1273,84
196,24	1259,50
196,46	1275,88
196,69	1302,51
196,91	1290,22
197,13	1282,03
197,35	1263,60
197,57	1286,12
197,79	1265,64
198,01	1286,12
198,23	1202,16
198,45	1284,08
198,67	1286,12
198,89	1300,46
199,11	1245,16
199,33	1251,31
199,55	1312,75
199,77	1228,78
199,99	1234,93
200,21	1306,60
200,43	1308,65
200,65	1277,93
200,87	1259,50
201,09	1275,88
201,31	1259,50
201,53	1214,45
201,75	1255,40
201,97	1263,60
202,19	1298,41
202,41	1279,98
202,63	1284,08
202,85	1335,28
203,07	1290,22
203,29	1300,46
203,51	1234,93
203,73	1187,82
203,95	1286,12
204,17	1232,88
204,39	1206,25
204,61	1204,21
204,83	1206,25
205,05	1226,73
205,27	1253,36
205,49	1273,84
205,71	1279,98
205,93	1220,59
206,15	1273,84
206,37	1236,97
206,59	1296,36
206,81	1279,98
207,03	1241,07
207,25	1253,36
207,47	1249,26
207,69	1275,88
207,91	1296,36
208,13	1202,16
208,34	1286,12
208,56	1220,59
208,78	1261,55
209,00	1245,16
209,22	1247,21
209,44	1183,73
209,66	1267,69
209,88	1267,69
210,10	1353,71
210,32	1279,98
210,54	1320,94
210,76	1286,12
210,98	1279,98
211,20	1269,74
211,42	1304,56
211,64	1284,08
211,86	1263,60
212,08	1241,07
212,30	1286,12
212,52	1247,21
212,74	1290,22
212,96	1251,31
213,17	1253,36
213,39	1304,56
213,61	1308,65
213,83	1279,98
214,05	1218,54
214,27	1290,22
214,49	1232,88
214,71	1306,60
214,93	1236,97
215,15	1271,79
215,37	1306,60
215,59	1232,88
215,81	1239,02
216,03	1224,69
216,24	1198,06
216,46	1296,36
216,68	1345,52
216,90	1257,45
217,12	1228,78
217,34	1300,46
217,56	1345,52
217,78	1349,61
218,00	1200,11
218,22	1335,28
218,44	1300,46
218,66	1290,22
218,87	1294,32
219,09	1208,30
219,31	1249,26
219,53	1339,37
219,75	1249,26
219,97	1282,03
220,19	1234,93
220,41	1290,22
220,63	1253,36
220,85	1232,88
221,06	1269,74
221,28	1234,93
221,50	1275,88
221,72	1236,97
221,94	1288,17
222,16	1226,73
222,38	1279,98
222,60	1224,69
222,82	1304,56
223,03	1265,64
223,25	1302,51
223,47	1251,31
223,69	1234,93
223,91	1257,45
224,13	1310,70
224,35	1271,79
224,57	1333,23
224,78	1265,64
225,00	1236,97
225,22	1236,97
225,44	1265,64
225,66	1304,56
225,88	1355,76
226,10	1220,59
226,32	1329,13
226,53	1286,12
226,75	1249,26
226,97	1230,83
227,19	1263,60
227,41	1261,55
227,63	1265,64
227,85	1288,17
228,06	1296,36
228,28	1286,12
228,50	1271,79
228,72	1251,31
228,94	1271,79
229,16	1300,46
229,37	1284,08
229,59	1265,64
229,81	1257,45
230,03	1257,45
230,25	1316,84
230,47	1249,26
230,69	1232,88
230,90	1251,31
231,12	1216,49
231,34	1239,02
231,56	1288,17
231,78	1239,02
232,00	1310,70
232,21	1245,16
232,43	1333,23
232,65	1267,69
232,87	1269,74
233,09	1447,91
233,30	1337,32
233,52	1247,21
233,74	1239,02
233,96	1189,87
234,18	1286,12
234,40	1228,78
234,61	1327,08
234,83	1247,21
235,05	1124,33
235,27	1306,60
235,49	1300,46
235,70	1277,93
235,92	1275,88
236,14	1288,17
236,36	1314,80
236,58	1277,93
236,79	1318,89
237,01	1304,56
237,23	1220,59
237,45	1306,60
237,67	1263,60
237,88	1253,36
238,10	1247,21
238,32	1222,64
238,54	1224,69
238,76	1230,83
238,97	1296,36
239,19	1216,49
239,41	1261,55
239,63	1239,02
239,85	1255,40
240,06	1232,88
240,28	1241,07
240,50	1304,56
240,72	1245,16
240,93	1269,74
241,15	1298,41
241,37	1177,58
241,59	1239,02
241,81	1241,07
242,02	1241,07
242,24	1263,60
242,46	1259,50
242,68	1314,80
242,89	1241,07
243,11	1206,25
243,33	1234,93
243,55	1296,36
243,76	1263,60
243,98	1290,22
244,20	1234,93
244,42	1251,31
244,64	1247,21
244,85	1249,26
245,07	1269,74
245,29	1249,26
245,51	1294,32
245,72	1298,41
245,94	1259,50
246,16	1284,08
246,38	1290,22
246,59	1247,21
246,81	1277,93
247,03	1286,12
247,24	1216,49
247,46	1279,98
247,68	1247,21
247,90	1261,55
248,11	1288,17
248,33	1306,60
248,55	1282,03
248,77	1228,78
248,98	1322,99
249,20	1193,97
249,42	1284,08
249,64	1273,84
249,85	1282,03
250,07	1296,36
250,29	1282,03
250,50	1214,45
250,72	1284,08
250,94	1277,93
251,16	1163,25
251,37	1236,97
251,59	1247,21
251,81	1259,50
252,02	1282,03
252,24	1241,07
252,46	1263,60
252,68	1269,74
252,89	1247,21
253,11	1243,12
253,33	1308,65
253,54	1251,31
253,76	1329,13
253,98	1279,98
254,20	1241,07
254,41	1292,27
254,63	1298,41
254,85	1228,78
255,06	1257,45
255,28	1273,84
255,50	1302,51
255,71	1374,19
255,93	1263,60
256,15	1331,18
256,36	1294,32
256,58	1255,40
256,80	1275,88
257,02	1230,83
257,23	1241,07
257,45	1239,02
257,67	1263,60
257,88	1253,36
258,10	1327,08
258,32	1273,84
258,53	1232,88
258,75	1208,30
258,97	1286,12
259,18	1257,45
259,40	1277,93
259,62	1245,16
259,83	1249,26
260,05	1239,02
260,27	1308,65
260,48	1230,83
260,70	1312,75
260,92	1269,74
261,13	1259,50
261,35	1249,26
261,57	1183,73
261,78	1245,16
262,00	1269,74
262,22	1230,83
262,43	1253,36
262,65	1277,93
262,86	1320,94
263,08	1288,17
263,30	1259,50
263,51	1310,70
263,73	1310,70
263,95	1222,64
264,16	1234,93
264,38	1298,41
264,60	1294,32
264,81	1290,22
265,03	1232,88
265,25	1245,16
265,46	1284,08
265,68	1282,03
265,89	1302,51
266,11	1290,22
266,33	1298,41
266,54	1247,21
266,76	1314,80
266,98	1271,79
267,19	1320,94
267,41	1226,73
267,62	1257,45
267,84	1243,12
268,06	1226,73
268,27	1224,69
268,49	1329,13
268,70	1255,40
268,92	1322,99
269,14	1220,59
269,35	1296,36
269,57	1271,79
269,79	1269,74
270,00	1269,74
270,22	1230,83
270,43	1247,21
270,65	1286,12
270,87	1249,26
271,08	1277,93
271,30	1245,16
271,51	1318,89
271,73	1282,03
271,95	1267,69
272,16	1298,41
272,38	1318,89
272,59	1257,45
272,81	1304,56
273,02	1255,40
273,24	1318,89
273,46	1243,12
273,67	1343,47
273,89	1249,26
274,10	1288,17
274,32	1275,88
274,54	1288,17
274,75	1269,74
274,97	1224,69
275,18	1320,94
275,40	1322,99
275,61	1284,08
275,83	1263,60
276,05	1236,97
276,26	1241,07
276,48	1265,64
276,69	1271,79
276,91	1275,88
277,12	1253,36
277,34	1202,16
277,55	1232,88
277,77	1226,73
277,99	1267,69
278,20	1304,56
278,42	1241,07
278,63	1292,27
278,85	1300,46
279,06	1232,88
279,28	1155,05
279,49	1292,27
279,71	1312,75
279,93	1249,26
280,14	1263,60
280,36	1202,16
280,57	1322,99
280,79	1253,36
281,00	1296,36
281,22	1275,88
281,43	1306,60
281,65	1294,32
281,86	1288,17
282,08	1374,19
282,29	1277,93
282,51	1191,92
282,73	1279,98
282,94	1236,97
283,16	1314,80
283,37	1300,46
283,59	1279,98
283,80	1253,36
284,02	1239,02
284,23	1193,97
284,45	1329,13
284,66	1265,64
284,88	1294,32
285,09	1318,89
285,31	1267,69
285,52	1247,21
285,74	1335,28
285,95	1236,97
286,17	1300,46
286,38	1286,12
286,60	1279,98
286,81	1269,74
287,03	1353,71
287,24	1245,16
287,46	1286,12
287,67	1230,83
287,89	1243,12
288,10	1273,84
288,32	1318,89
288,53	1218,54
288,75	1302,51
288,96	1263,60
289,18	1296,36
289,39	1241,07
289,61	1206,25
289,82	1294,32
290,04	1273,84
290,25	1220,59
290,47	1339,37
290,68	1234,93
290,90	1310,70
291,11	1251,31
291,33	1236,97
291,54	1222,64
291,76	1308,65
291,97	1329,13
292,18	1306,60
292,40	1286,12
292,61	1259,50
292,83	1378,28
293,04	1226,73
293,26	1245,16
293,47	1191,92
293,69	1341,42
293,90	1327,08
294,12	1298,41
294,33	1263,60
294,55	1284,08
294,76	1267,69
294,97	1300,46
295,19	1296,36
295,40	1204,21
295,62	1263,60
295,83	1265,64
296,05	1286,12
296,26	1312,75
296,48	1312,75
296,69	1273,84
296,90	1306,60
297,12	1243,12
297,33	1329,13
297,55	1353,71
297,76	1236,97
297,98	1224,69
298,19	1271,79
298,41	1253,36
298,62	1304,56
298,83	1222,64
299,05	1284,08
299,26	1331,18
299,48	1308,65
299,69	1318,89
299,90	1232,88
300,12	1226,73
300,33	1310,70
300,55	1222,64
300,76	1284,08
300,98	1243,12
301,19	1361,90
301,40	1251,31
301,62	1271,79
301,83	1239,02
302,05	1310,70
302,26	1249,26
302,47	1286,12
302,69	1304,56
302,90	1284,08
303,12	1241,07
303,33	1306,60
303,54	1294,32
303,76	1273,84
303,97	1290,22
304,19	1271,79
304,40	1329,13
304,61	1306,60
304,83	1249,26
305,04	1304,56
305,26	1294,32
305,47	1263,60
305,68	1312,75
305,90	1251,31
306,11	1277,93
306,33	1337,32
306,54	1259,50
306,75	1249,26
306,97	1273,84
307,18	1220,59
307,39	1247,21
307,61	1339,37
307,82	1228,78
308,04	1277,93
308,25	1224,69
308,46	1273,84
308,68	1296,36
308,89	1333,23
309,10	1277,93
309,32	1247,21
309,53	1239,02
309,74	1316,84
309,96	1234,93
310,17	1257,45
310,39	1292,27
310,60	1284,08
310,81	1259,50
311,03	1257,45
311,24	1271,79
311,45	1210,35
311,67	1243,12
311,88	1275,88
312,09	1257,45
312,31	1292,27
312,52	1310,70
312,73	1282,03
312,95	1210,35
313,16	1228,78
313,37	1249,26
313,59	1273,84
313,80	1271,79
314,01	1228,78
314,23	1218,54
314,44	1308,65
314,65	1288,17
314,87	1255,40
315,08	1265,64
315,29	1239,02
315,51	1200,11
315,72	1222,64
315,93	1189,87
316,15	1286,12
316,36	1249,26
316,57	1259,50
316,79	1247,21
317,00	1318,89
317,21	1372,14
317,43	1312,75
317,64	1249,26
317,85	1275,88
318,07	1267,69
318,28	1234,93
318,49	1247,21
318,70	1230,83
318,92	1245,16
319,13	1263,60
319,34	1241,07
319,56	1288,17
319,77	1198,06
319,98	1245,16
320,20	1208,30
320,41	1253,36
320,62	1269,74
320,83	1257,45
321,05	1370,09
321,26	1236,97
321,47	1284,08
321,69	1308,65
321,90	1251,31
322,11	1290,22
322,32	1234,93
322,54	1232,88
322,75	1247,21
322,96	1224,69
323,18	1267,69
323,39	1245,16
323,60	1351,66
323,81	1275,88
324,03	1329,13
324,24	1222,64
324,45	1263,60
324,66	1265,64
324,88	1300,46
325,09	1277,93
325,30	1298,41
325,52	1202,16
325,73	1292,27
325,94	1318,89
326,15	1292,27
326,37	1224,69
326,58	1316,84
326,79	1241,07
327,00	1284,08
327,22	1284,08
327,43	1312,75
327,64	1279,98
327,85	1247,21
328,07	1241,07
328,28	1325,04
328,49	1249,26
328,70	1255,40
328,92	1322,99
329,13	1265,64
329,34	1275,88
329,55	1298,41
329,76	1253,36
329,98	1269,74
330,19	1290,22
330,40	1265,64
330,61	1212,40
330,83	1261,55
331,04	1232,88
331,25	1298,41
331,46	1312,75
331,68	1294,32
331,89	1296,36
332,10	1198,06
332,31	1261,55
332,52	1236,97
332,74	1277,93
332,95	1290,22
333,16	1253,36
333,37	1249,26
333,58	1333,23
333,80	1216,49
334,01	1261,55
334,22	1232,88
334,43	1296,36
334,64	1282,03
334,86	1290,22
335,07	1259,50
335,28	1245,16
335,49	1345,52
335,70	1331,18
335,92	1277,93
336,13	1286,12
336,34	1331,18
336,55	1298,41
336,76	1284,08
336,98	1296,36
337,19	1228,78
337,40	1282,03
337,61	1302,51
337,82	1230,83
338,04	1245,16
338,25	1220,59
338,46	1257,45
338,67	1232,88
338,88	1282,03
339,09	1306,60
339,31	1282,03
339,52	1294,32
339,73	1275,88
339,94	1273,84
340,15	1290,22
340,36	1275,88
340,58	1298,41
340,79	1292,27
341,00	1259,50
341,21	1265,64
341,42	1253,36
341,63	1241,07
341,85	1306,60
342,06	1339,37
342,27	1216,49
342,48	1279,98
342,69	1228,78
342,90	1243,12
343,12	1286,12
343,33	1241,07
343,54	1245,16
343,75	1275,88
343,96	1331,18
344,17	1198,06
344,38	1210,35
344,60	1259,50
344,81	1310,70
345,02	1314,80
345,23	1290,22
345,44	1277,93
345,65	1265,64
345,86	1314,80
346,07	1282,03
346,29	1200,11
346,50	1316,84
346,71	1273,84
346,92	1249,26
347,13	1226,73
347,34	1263,60
347,55	1331,18
347,76	1304,56
347,98	1208,30
348,19	1279,98
348,40	1300,46
348,61	1277,93
348,82	1200,11
349,03	1255,40
349,24	1224,69
349,45	1279,98
349,66	1275,88
349,88	1363,95
350,09	1224,69
350,30	1249,26
350,51	1241,07
350,72	1228,78
350,93	1263,60
351,14	1273,84
351,35	1288,17
351,56	1275,88
351,77	1322,99
351,99	1273,84
352,20	1359,85
352,41	1290,22
352,62	1196,01
352,83	1351,66
353,04	1249,26
353,25	1275,88
353,46	1282,03
353,67	1265,64
353,88	1275,88
354,09	1331,18
354,30	1318,89
354,52	1210,35
354,73	1275,88
354,94	1255,40
355,15	1259,50
355,36	1222,64
355,57	1308,65
355,78	1279,98
355,99	1308,65
356,20	1249,26
356,41	1241,07
356,62	1243,12
356,83	1284,08
357,04	1230,83
357,25	1327,08
357,46	1275,88
357,68	1290,22
357,89	1224,69
358,10	1175,53
358,31	1290,22
358,52	1247,21
358,73	1269,74
358,94	1249,26
359,15	1277,93
359,36	1222,64
359,57	1282,03
359,78	1273,84
359,99	1343,47
360,20	1259,50
360,41	1277,93
360,62	1306,60
360,83	1271,79
361,04	1269,74
361,25	1261,55
361,46	1294,32
361,67	1228,78
361,88	1292,27
362,09	1249,26
362,30	1333,23
362,51	1296,36
362,72	1279,98
362,93	1216,49
363,14	1234,93
363,35	1263,60
363,56	1359,85
363,78	1261,55
363,99	1277,93
364,20	1183,73
364,41	1292,27
364,62	1357,80
364,83	1253,36
365,04	1169,39
365,25	1306,60
365,46	1271,79
365,67	1333,23
365,88	1208,30
366,09	1327,08
366,30	1226,73
366,51	1251,31
366,72	1282,03
366,93	1267,69
367,14	1243,12
367,35	1347,56
367,56	1241,07
367,77	1357,80
367,98	1361,90
368,18	1249,26
368,39	1308,65
368,60	1292,27
368,81	1304,56
369,02	1318,89
369,23	1273,84
369,44	1335,28
369,65	1296,36
369,86	1353,71
370,07	1284,08
370,28	1265,64
370,49	1279,98
370,70	1253,36
370,91	1310,70
371,12	1232,88
371,33	1253,36
371,54	1171,44
371,75	1206,25
371,96	1206,25
372,17	1284,08
372,38	1226,73
372,59	1204,21
372,80	1259,50
373,01	1298,41
373,22	1259,50
373,43	1257,45
373,64	1239,02
373,85	1279,98
374,06	1290,22
374,26	1310,70
374,47	1290,22
374,68	1265,64
374,89	1234,93
375,10	1304,56
375,31	1331,18
375,52	1169,39
375,73	1249,26
375,94	1269,74
376,15	1255,40
376,36	1294,32
376,57	1214,45
376,78	1271,79
376,99	1214,45
377,20	1226,73
377,40	1296,36
377,61	1216,49
377,82	1189,87
378,03	1290,22
378,24	1230,83
378,45	1241,07
378,66	1267,69
378,87	1245,16
379,08	1228,78
379,29	1329,13
379,50	1263,60
379,71	1243,12
379,91	1271,79
380,12	1236,97
380,33	1279,98
380,54	1298,41
380,75	1210,35
380,96	1308,65
381,17	1243,12
381,38	1245,16
381,59	1257,45
381,80	1325,04
382,00	1339,37
382,21	1214,45
382,42	1306,60
382,63	1271,79
382,84	1290,22
383,05	1251,31
383,26	1271,79
383,47	1208,30
383,68	1277,93
383,88	1247,21
384,09	1247,21
384,30	1306,60
384,51	1273,84
384,72	1277,93
384,93	1277,93
385,14	1200,11
385,35	1294,32
385,55	1253,36
385,76	1265,64
385,97	1298,41
386,18	1273,84
386,39	1306,60
386,60	1271,79
386,81	1251,31
387,02	1282,03
387,22	1296,36
387,43	1212,40
387,64	1216,49
387,85	1290,22
388,06	1288,17
388,27	1273,84
388,48	1261,55
388,68	1249,26
388,89	1265,64
389,10	1302,51
389,31	1259,50
389,52	1302,51
389,73	1253,36
389,93	1282,03
390,14	1282,03
390,35	1257,45
390,56	1255,40
390,77	1331,18
390,98	1230,83
391,18	1318,89
391,39	1294,32
391,60	1294,32
391,81	1277,93
392,02	1216,49
392,23	1183,73
392,43	1259,50
392,64	1290,22
392,85	1245,16
393,06	1189,87
393,27	1322,99
393,47	1263,60
393,68	1306,60
393,89	1218,54
394,10	1257,45
394,31	1208,30
394,52	1325,04
394,72	1241,07
394,93	1331,18
395,14	1322,99
395,35	1249,26
395,56	1257,45
395,76	1234,93
395,97	1269,74
396,18	1187,82
396,39	1222,64
396,60	1314,80
396,80	1210,35
397,01	1245,16
397,22	1245,16
397,43	1277,93
397,64	1253,36
397,84	1314,80
398,05	1349,61
398,26	1251,31
398,47	1224,69
398,67	1177,58
398,88	1314,80
399,09	1304,56
399,30	1261,55
399,51	1230,83
399,71	1273,84
399,92	1241,07
400,13	1327,08
400,34	1282,03
400,54	1310,70
400,75	1206,25
400,96	1308,65
401,17	1284,08
401,37	1298,41
401,58	1261,55
401,79	1261,55
402,00	1271,79
402,21	1263,60
402,41	1265,64
402,62	1267,69
402,83	1282,03
403,04	1290,22
403,24	1271,79
403,45	1206,25
403,66	1333,23
403,87	1310,70
404,07	1335,28
404,28	1286,12
404,49	1224,69
404,70	1263,60
404,90	1196,01
405,11	1292,27
405,32	1277,93
405,52	1308,65
405,73	1236,97
405,94	1292,27
406,15	1198,06
406,35	1255,40
406,56	1296,36
406,77	1331,18
406,98	1314,80
407,18	1269,74
407,39	1290,22
407,60	1234,93
407,80	1290,22
408,01	1263,60
408,22	1282,03
408,43	1253,36
408,63	1204,21
408,84	1259,50
409,05	1320,94
409,25	1294,32
409,46	1255,40
409,67	1284,08
409,88	1286,12
410,08	1265,64
410,29	1243,12
410,50	1255,40
410,70	1265,64
410,91	1271,79
411,12	1320,94
411,32	1290,22
411,53	1310,70
411,74	1267,69
411,95	1279,98
412,15	1327,08
412,36	1261,55
412,57	1247,21
412,77	1284,08
412,98	1245,16
413,19	1322,99
413,39	1310,70
413,60	1273,84
413,81	1341,42
414,01	1247,21
414,22	1318,89
414,43	1277,93
414,63	1245,16
414,84	1265,64
415,05	1271,79
415,25	1265,64
415,46	1306,60
415,67	1255,40
415,87	1259,50
416,08	1339,37
416,29	1208,30
416,49	1304,56
416,70	1257,45
416,91	1349,61
417,11	1333,23
417,32	1296,36
417,53	1230,83
417,73	1296,36
417,94	1220,59
418,15	1286,12
418,35	1292,27
418,56	1253,36
418,77	1300,46
418,97	1251,31
419,18	1329,13
419,38	1230,83
419,59	1239,02
419,80	1282,03
420,00	1245,16
420,21	1255,40
420,42	1212,40
420,62	1290,22
420,83	1279,98
421,04	1245,16
421,24	1277,93
421,45	1400,81
421,65	1181,68
421,86	1284,08
422,07	1269,74
422,27	1275,88
422,48	1255,40
422,69	1257,45
422,89	1273,84
423,10	1312,75
423,30	1269,74
423,51	1298,41
423,72	1232,88
423,92	1181,68
424,13	1249,26
424,33	1230,83
424,54	1247,21
424,75	1204,21
424,95	1236,97
425,16	1241,07
425,36	1275,88
425,57	1267,69
425,78	1271,79
425,98	1288,17
426,19	1196,01
426,39	1284,08
426,60	1232,88
426,81	1312,75
427,01	1257,45
427,22	1277,93
427,42	1222,64
427,63	1247,21
427,83	1302,51
428,04	1159,15
428,25	1312,75
428,45	1275,88
428,66	1255,40
428,86	1314,80
429,07	1241,07
429,28	1241,07
429,48	1196,01
429,69	1333,23
429,89	1320,94
430,10	1292,27
430,30	1279,98
430,51	1325,04
430,71	1257,45
430,92	1212,40
431,13	1277,93
431,33	1267,69
431,54	1286,12
431,74	1273,84
431,95	1316,84
432,15	1251,31
432,36	1263,60
432,56	1300,46
432,77	1298,41
432,98	1312,75
433,18	1284,08
433,39	1284,08
433,59	1236,97
433,80	1253,36
434,00	1257,45
434,21	1314,80
434,41	1320,94
434,62	1263,60
434,82	1265,64
435,03	1257,45
435,23	1337,32
435,44	1208,30
435,64	1298,41
435,85	1261,55
436,06	1173,49
436,26	1259,50
436,47	1224,69
436,67	1318,89
436,88	1259,50
437,08	1294,32
437,29	1167,34
437,49	1312,75
437,70	1243,12
437,90	1310,70
438,11	1302,51
438,31	1302,51
438,52	1206,25
438,72	1290,22
438,93	1282,03
439,13	1265,64
439,34	1173,49
439,54	1249,26
439,75	1271,79
439,95	1273,84
440,16	1220,59
440,36	1273,84
440,57	1265,64
440,77	1265,64
440,98	1263,60
441,18	1294,32
441,39	1218,54
441,59	1218,54
441,80	1234,93
442,00	1329,13
442,21	1269,74
442,41	1175,53
442,62	1302,51
442,82	1312,75
443,02	1271,79
443,23	1286,12
443,43	1304,56
443,64	1288,17
443,84	1286,12
444,05	1333,23
444,25	1245,16
444,46	1290,22
444,66	1320,94
444,87	1277,93
445,07	1292,27
445,28	1249,26
445,48	1257,45
445,69	1290,22
445,89	1306,60
446,09	1249,26
446,30	1318,89
446,50	1230,83
446,71	1255,40
446,91	1322,99
447,12	1275,88
447,32	1345,52
447,53	1214,45
447,73	1228,78
447,93	1263,60
448,14	1273,84
448,34	1286,12
448,55	1241,07
448,75	1335,28
448,96	1366,00
449,16	1322,99
449,36	1327,08
449,57	1265,64
449,77	1224,69
449,98	1245,16
450,18	1273,84
450,39	1277,93
450,59	1265,64
450,79	1202,16
451,00	1271,79
451,20	1265,64
451,41	1273,84
451,61	1210,35
451,81	1320,94
452,02	1318,89
452,22	1314,80
452,43	1191,92
452,63	1265,64
452,84	1294,32
453,04	1288,17
453,24	1257,45
453,45	1294,32
453,65	1273,84
453,86	1279,98
454,06	1261,55
454,26	1275,88
454,47	1239,02
454,67	1273,84
454,87	1249,26
455,08	1200,11
455,28	1294,32
455,49	1351,66
455,69	1214,45
455,89	1241,07
456,10	1279,98
456,30	1253,36
456,51	1279,98
456,71	1288,17
456,91	1292,27
457,12	1298,41
457,32	1316,84
457,52	1292,27
457,73	1269,74
457,93	1271,79
458,14	1243,12
458,34	1226,73
458,54	1327,08
458,75	1214,45
458,95	1333,23
459,15	1273,84
459,36	1322,99
459,56	1341,42
459,76	1351,66
459,97	1228,78
460,17	1279,98
460,37	1325,04
460,58	1247,21
460,78	1304,56
460,99	1245,16
461,19	1247,21
461,39	1216,49
461,60	1290,22
461,80	1288,17
462,00	1269,74
462,21	1288,17
462,41	1232,88
462,61	1271,79
462,82	1288,17
463,02	1191,92
463,22	1306,60
463,43	1277,93
463,63	1286,12
463,83	1298,41
464,04	1308,65
464,24	1271,79
464,44	1279,98
464,64	1255,40
464,85	1290,22
465,05	1306,60
465,25	1257,45
465,46	1245,16
465,66	1265,64
465,86	1220,59
466,07	1302,51
466,27	1198,06
466,47	1198,06
466,68	1310,70
466,88	1296,36
467,08	1275,88
467,29	1296,36
467,49	1298,41
467,69	1320,94
467,89	1257,45
468,10	1208,30
468,30	1245,16
468,50	1255,40
468,71	1241,07
468,91	1282,03
469,11	1216,49
469,31	1294,32
469,52	1243,12
469,72	1296,36
469,92	1245,16
470,13	1251,31
470,33	1253,36
470,53	1292,27
470,73	1208,30
470,94	1271,79
471,14	1318,89
471,34	1296,36
471,54	1277,93
471,75	1347,56
471,95	1263,60
472,15	1298,41
472,36	1304,56
472,56	1243,12
472,76	1273,84
472,96	1196,01
473,17	1224,69
473,37	1275,88
473,57	1261,55
473,77	1222,64
473,98	1302,51
474,18	1282,03
474,38	1282,03
474,58	1286,12
474,79	1249,26
474,99	1271,79
475,19	1290,22
475,39	1329,13
475,60	1277,93
475,80	1310,70
476,00	1265,64
476,20	1212,40
476,41	1286,12
476,61	1279,98
476,81	1300,46
477,01	1290,22
477,21	1251,31
477,42	1224,69
477,62	1312,75
477,82	1304,56
478,02	1331,18
478,23	1290,22
478,43	1351,66
478,63	1261,55
478,83	1257,45
479,03	1216,49
479,24	1249,26
479,44	1214,45
479,64	1288,17
479,84	1327,08
480,04	1290,22
480,25	1269,74
480,45	1296,36
480,65	1279,98
480,85	1290,22
481,06	1157,10
481,26	1202,16
481,46	1331,18
481,66	1316,84
481,86	1265,64
482,06	1290,22
482,27	1277,93
482,47	1294,32
482,67	1300,46
482,87	1304,56
483,07	1296,36
483,28	1226,73
483,48	1318,89
483,68	1345,52
483,88	1339,37
484,08	1234,93
484,29	1333,23
484,49	1306,60
484,69	1265,64
484,89	1210,35
485,09	1320,94
485,29	1286,12
485,50	1314,80
485,70	1232,88
485,90	1363,95
486,10	1292,27
486,30	1349,61
486,50	1204,21
486,71	1343,47
486,91	1329,13
487,11	1228,78
487,31	1286,12
487,51	1185,77
487,71	1247,21
487,91	1241,07
488,12	1271,79
488,32	1290,22
488,52	1251,31
488,72	1255,40
488,92	1308,65
489,12	1353,71
489,32	1183,73
489,53	1286,12
489,73	1226,73
489,93	1302,51
490,13	1286,12
490,33	1239,02
490,53	1327,08
490,73	1269,74
490,94	1284,08
491,14	1284,08
491,34	1236,97
491,54	1243,12
491,74	1279,98
491,94	1331,18
492,14	1232,88
492,34	1298,41
492,54	1325,04
492,75	1329,13
492,95	1261,55
493,15	1261,55
493,35	1275,88
493,55	1263,60
493,75	1333,23
493,95	1343,47
494,15	1331,18
494,35	1290,22
494,56	1331,18
494,76	1277,93
494,96	1220,59
495,16	1327,08
495,36	1251,31
495,56	1263,60
495,76	1282,03
495,96	1277,93
496,16	1255,40
496,36	1271,79
496,56	1255,40
496,77	1300,46
496,97	1261,55
497,17	1290,22
497,37	1290,22
497,57	1249,26
497,77	1232,88
497,97	1247,21
498,17	1269,74
498,37	1267,69
498,57	1253,36
498,77	1267,69
498,97	1257,45
499,17	1296,36
499,38	1216,49
499,58	1245,16
499,78	1269,74
499,98	1288,17
500,18	1222,64
500,38	1241,07
500,58	1243,12
500,78	1290,22
500,98	1222,64
501,18	1269,74
501,38	1337,32
501,58	1329,13
501,78	1316,84
501,98	1269,74
502,18	1241,07
502,38	1306,60
502,58	1259,50
502,78	1359,85
502,98	1239,02
503,18	1294,32
503,38	1198,06
503,59	1282,03
503,79	1271,79
503,99	1275,88
504,19	1271,79
504,39	1341,42
504,59	1302,51
504,79	1269,74
504,99	1290,22
505,19	1245,16
505,39	1325,04
505,59	1224,69
505,79	1234,93
505,99	1282,03
506,19	1245,16
506,39	1288,17
506,59	1308,65
506,79	1300,46
506,99	1243,12
507,19	1257,45
507,39	1271,79
507,59	1212,40
507,79	1273,84
507,99	1267,69
508,19	1251,31
508,39	1290,22
508,59	1259,50
508,79	1286,12
508,99	1253,36
509,19	1347,56
509,39	1210,35
509,59	1282,03
509,79	1341,42
509,99	1294,32
510,19	1296,36
510,39	1312,75
510,59	1265,64
510,79	1286,12
510,99	1300,46
511,19	1259,50
511,39	1312,75
511,59	1243,12
511,79	1269,74
511,99	1265,64
512,19	1241,07
512,38	1353,71
512,58	1245,16
512,78	1312,75
512,98	1361,90
513,18	1329,13
513,38	1333,23
513,58	1300,46
513,78	1232,88
513,98	1286,12
514,18	1263,60
514,38	1273,84
514,58	1251,31
514,78	1259,50
514,98	1257,45
515,18	1214,45
515,38	1304,56
515,58	1329,13
515,78	1304,56
515,98	1347,56
516,18	1220,59
516,38	1353,71
516,57	1191,92
516,77	1273,84
516,97	1261,55
517,17	1282,03
517,37	1279,98
517,57	1306,60
517,77	1275,88
517,97	1286,12
518,17	1294,32
518,37	1279,98
518,57	1300,46
518,77	1224,69
518,97	1318,89
519,16	1214,45
519,36	1300,46
519,56	1298,41
519,76	1290,22
519,96	1312,75
520,16	1343,47
520,36	1310,70
520,56	1261,55
520,76	1296,36
520,96	1284,08
521,16	1222,64
521,35	1277,93
521,55	1255,40
521,75	1284,08
521,95	1273,84
522,15	1320,94
522,35	1241,07
522,55	1230,83
522,75	1306,60
522,95	1298,41
523,14	1267,69
523,34	1259,50
523,54	1282,03
523,74	1329,13
523,94	1286,12
524,14	1212,40
524,34	1261,55
524,54	1232,88
524,73	1292,27
524,93	1349,61
525,13	1275,88
525,33	1279,98
525,53	1277,93
525,73	1267,69
525,93	1314,80
526,13	1277,93
526,32	1284,08
526,52	1282,03
526,72	1216,49
526,92	1275,88
527,12	1320,94
527,32	1296,36
527,52	1335,28
527,71	1245,16
527,91	1363,95
528,11	1224,69
528,31	1218,54
528,51	1261,55
528,71	1185,77
528,90	1273,84
529,10	1261,55
529,30	1341,42
529,50	1279,98
529,70	1359,85
529,90	1282,03
530,09	1259,50
530,29	1282,03
530,49	1343,47
530,69	1298,41
530,89	1275,88
531,09	1232,88
531,28	1230,83
531,48	1286,12
531,68	1329,13
531,88	1282,03
532,08	1247,21
532,28	1372,14
532,47	1245,16
532,67	1282,03
532,87	1306,60
533,07	1247,21
533,27	1284,08
533,46	1220,59
533,66	1304,56
533,86	1220,59
534,06	1292,27
534,26	1284,08
534,45	1298,41
534,65	1292,27
534,85	1300,46
535,05	1322,99
535,25	1351,66
535,44	1255,40
535,64	1271,79
535,84	1284,08
536,04	1370,09
536,24	1241,07
536,43	1245,16
536,63	1294,32
536,83	1279,98
537,03	1284,08
537,22	1273,84
537,42	1298,41
537,62	1275,88
537,82	1345,52
538,02	1271,79
538,21	1284,08
538,41	1232,88
538,61	1269,74
538,81	1329,13
539,00	1316,84
539,20	1322,99
539,40	1204,21
539,60	1361,90
539,79	1253,36
539,99	1259,50
540,19	1239,02
540,39	1243,12
540,58	1294,32
540,78	1372,14
540,98	1314,80
541,18	1247,21
541,37	1322,99
541,57	1212,40
541,77	1255,40
541,97	1251,31
542,16	1243,12
542,36	1320,94
542,56	1243,12
542,76	1314,80
542,95	1335,28
543,15	1296,36
543,35	1320,94
543,54	1247,21
543,74	1320,94
543,94	1214,45
544,14	1288,17
544,33	1343,47
544,53	1329,13
544,73	1300,46
544,93	1345,52
545,12	1267,69
545,32	1257,45
545,52	1298,41
545,71	1312,75
545,91	1290,22
546,11	1312,75
546,30	1271,79
546,50	1316,84
546,70	1267,69
546,90	1212,40
547,09	1288,17
547,29	1290,22
547,49	1239,02
547,68	1288,17
547,88	1279,98
548,08	1331,18
548,27	1243,12
548,47	1294,32
548,67	1216,49
548,87	1216,49
549,06	1355,76
549,26	1306,60
549,46	1261,55
549,65	1290,22
549,85	1265,64
550,05	1267,69
550,24	1290,22
550,44	1267,69
550,64	1243,12
550,83	1316,84
551,03	1341,42
551,23	1308,65
551,42	1327,08
551,62	1273,84
551,82	1298,41
552,01	1230,83
552,21	1247,21
552,41	1261,55
552,60	1300,46
552,80	1265,64
553,00	1322,99
553,19	1286,12
553,39	1249,26
553,59	1187,82
553,78	1279,98
553,98	1249,26
554,17	1257,45
554,37	1226,73
554,57	1228,78
554,76	1267,69
554,96	1339,37
555,16	1247,21
555,35	1329,13
555,55	1318,89
555,75	1288,17
555,94	1257,45
556,14	1232,88
556,33	1296,36
556,53	1245,16
556,73	1251,31
556,92	1329,13
557,12	1265,64
557,32	1271,79
557,51	1175,53
557,71	1325,04
557,90	1304,56
558,10	1341,42
558,30	1239,02
558,49	1251,31
558,69	1263,60
558,88	1251,31
559,08	1331,18
559,28	1263,60
559,47	1290,22
559,67	1294,32
559,86	1310,70
560,06	1302,51
560,26	1310,70
560,45	1294,32
560,65	1288,17
560,84	1302,51
561,04	1312,75
561,24	1310,70
561,43	1290,22
561,63	1255,40
561,82	1245,16
562,02	1279,98
562,22	1304,56
562,41	1230,83
562,61	1294,32
562,80	1292,27
563,00	1386,47
563,19	1269,74
563,39	1325,04
563,59	1228,78
563,78	1298,41
563,98	1234,93
564,17	1343,47
564,37	1243,12
564,56	1257,45
564,76	1320,94
564,96	1247,21
565,15	1265,64
565,35	1267,69
565,54	1302,51
565,74	1275,88
565,93	1187,82
566,13	1357,80
566,32	1322,99
566,52	1247,21
566,71	1273,84
566,91	1286,12
567,11	1292,27
567,30	1191,92
567,50	1345,52
567,69	1335,28
567,89	1316,84
568,08	1257,45
568,28	1318,89
568,47	1261,55
568,67	1251,31
568,86	1282,03
569,06	1312,75
569,25	1187,82
569,45	1275,88
569,64	1277,93
569,84	1255,40
570,04	1261,55
570,23	1273,84
570,43	1298,41
570,62	1282,03
570,82	1279,98
571,01	1234,93
571,21	1148,91
571,40	1298,41
571,60	1290,22
571,79	1308,65
571,99	1251,31
572,18	1191,92
572,38	1384,43
572,57	1288,17
572,77	1294,32
572,96	1302,51
573,16	1314,80
573,35	1263,60
573,55	1318,89
573,74	1337,32
573,94	1282,03
574,13	1239,02
574,33	1298,41
574,52	1263,60
574,71	1310,70
574,91	1349,61
575,10	1335,28
575,30	1300,46
575,49	1271,79
575,69	1292,27
575,88	1302,51
576,08	1222,64
576,27	1288,17
576,47	1306,60
576,66	1294,32
576,86	1316,84
577,05	1288,17
577,25	1243,12
577,44	1218,54
577,64	1273,84
577,83	1220,59
578,02	1308,65
578,22	1245,16
578,41	1271,79
578,61	1312,75
578,80	1218,54
579,00	1249,26
579,19	1239,02
579,39	1314,80
579,58	1294,32
579,77	1306,60
579,97	1288,17
580,16	1310,70
580,36	1226,73
580,55	1284,08
580,75	1355,76
580,94	1294,32
581,13	1265,64
581,33	1265,64
581,52	1224,69
581,72	1232,88
581,91	1249,26
582,11	1284,08
582,30	1304,56
582,49	1275,88
582,69	1226,73
582,88	1204,21
583,08	1261,55
583,27	1290,22
583,47	1327,08
583,66	1322,99
583,85	1349,61
584,05	1230,83
584,24	1269,74
584,44	1269,74
584,63	1222,64
584,82	1337,32
585,02	1310,70
585,21	1296,36
585,41	1263,60
585,60	1271,79
585,79	1357,80
585,99	1316,84
586,18	1277,93
586,37	1259,50
586,57	1247,21
586,76	1277,93
586,96	1333,23
587,15	1290,22
587,34	1314,80
587,54	1263,60
587,73	1196,01
587,93	1224,69
588,12	1292,27
588,31	1234,93
588,51	1279,98
588,70	1253,36
588,89	1236,97
589,09	1228,78
589,28	1298,41
589,47	1212,40
589,67	1232,88
589,86	1331,18
590,06	1294,32
590,25	1292,27
590,44	1224,69
590,64	1314,80
590,83	1302,51
591,02	1263,60
591,22	1273,84
591,41	1257,45
591,60	1255,40
591,80	1374,19
591,99	1232,88
592,18	1312,75
592,38	1214,45
592,57	1265,64
592,76	1224,69
592,96	1306,60
593,15	1226,73
593,34	1232,88
593,54	1232,88
593,73	1284,08
593,92	1271,79
594,12	1339,37
594,31	1304,56
594,50	1282,03
594,70	1331,18
594,89	1294,32
595,08	1202,16
595,28	1306,60
595,47	1288,17
595,66	1265,64
595,86	1173,49
596,05	1273,84
596,24	1331,18
596,43	1288,17
596,63	1312,75
596,82	1368,04
597,01	1271,79
597,21	1267,69
597,40	1236,97
597,59	1251,31
597,79	1314,80
597,98	1304,56
598,17	1343,47
598,36	1337,32
598,56	1296,36
598,75	1279,98
598,94	1370,09
599,14	1236,97
599,33	1294,32
599,52	1292,27
599,71	1247,21
599,91	1363,95
600,10	1302,51
600,29	1196,01
600,48	1304,56
600,68	1290,22
600,87	1284,08
601,06	1298,41
601,26	1306,60
601,45	1255,40
601,64	1298,41
601,83	1318,89
602,03	1292,27
602,22	1310,70
602,41	1269,74
602,60	1351,66
602,80	1316,84
602,99	1302,51
603,18	1230,83
603,37	1226,73
603,57	1261,55
603,76	1269,74
603,95	1273,84
604,14	1255,40
604,34	1257,45
604,53	1222,64
604,72	1302,51
604,91	1329,13
605,10	1243,12
605,30	1253,36
605,49	1337,32
605,68	1249,26
605,87	1257,45
606,07	1239,02
606,26	1265,64
606,45	1275,88
606,64	1249,26
606,84	1306,60
607,03	1292,27
607,22	1277,93
607,41	1304,56
607,60	1277,93
607,80	1273,84
607,99	1218,54
608,18	1290,22
608,37	1288,17
608,56	1232,88
608,76	1288,17
608,95	1286,12
609,14	1275,88
609,33	1335,28
609,52	1255,40
609,72	1337,32
609,91	1263,60
610,10	1325,04
610,29	1312,75
610,48	1277,93
610,68	1275,88
610,87	1331,18
611,06	1327,08
611,25	1275,88
611,44	1335,28
611,63	1294,32
611,83	1316,84
612,02	1284,08
612,21	1304,56
612,40	1327,08
612,59	1273,84
612,79	1275,88
612,98	1339,37
613,17	1284,08
613,36	1265,64
613,55	1331,18
613,74	1251,31
613,93	1204,21
614,13	1259,50
614,32	1277,93
614,51	1282,03
614,70	1271,79
614,89	1316,84
615,08	1230,83
615,28	1363,95
615,47	1243,12
615,66	1300,46
615,85	1304,56
616,04	1370,09
616,23	1329,13
616,42	1304,56
616,62	1247,21
616,81	1241,07
617,00	1243,12
617,19	1263,60
617,38	1218,54
617,57	1288,17
617,76	1331,18
617,95	1247,21
618,15	1298,41
618,34	1265,64
618,53	1343,47
618,72	1318,89
618,91	1214,45
619,10	1331,18
619,29	1290,22
619,48	1302,51
619,68	1277,93
619,87	1316,84
620,06	1236,97
620,25	1243,12
620,44	1296,36
620,63	1322,99
620,82	1263,60
621,01	1265,64
621,20	1300,46
621,39	1300,46
621,59	1279,98
621,78	1265,64
621,97	1273,84
622,16	1298,41
622,35	1325,04
622,54	1298,41
622,73	1304,56
622,92	1290,22
623,11	1343,47
623,30	1318,89
623,49	1228,78
623,68	1310,70
623,88	1249,26
624,07	1296,36
624,26	1284,08
624,45	1325,04
624,64	1273,84
624,83	1304,56
625,02	1329,13
625,21	1263,60
625,40	1329,13
625,59	1347,56
625,78	1322,99
625,97	1275,88
626,16	1286,12
626,35	1335,28
626,54	1331,18
626,74	1320,94
626,93	1265,64
627,12	1329,13
627,31	1292,27
627,50	1263,60
627,69	1284,08
627,88	1282,03
628,07	1339,37
628,26	1279,98
628,45	1292,27
628,64	1300,46
628,83	1228,78
629,02	1202,16
629,21	1306,60
629,40	1249,26
629,59	1312,75
629,78	1261,55
629,97	1325,04
630,16	1279,98
630,35	1312,75
630,54	1314,80
630,73	1306,60
630,92	1325,04
631,11	1322,99
631,30	1376,24
631,49	1308,65
631,68	1345,52
631,87	1585,13
632,06	2009,06
632,25	1570,79
632,44	1703,91
632,63	2189,28
632,82	2648,02
633,01	4167,62
633,20	4483,00
633,39	4231,10
633,58	2566,10
633,77	2492,38
633,96	4177,86
634,15	5762,98
634,34	5689,26
634,53	4288,45
634,72	3100,62
634,91	2267,10
635,10	1798,12
635,29	1669,09
635,48	1634,28
635,67	1607,66
635,86	1523,69
636,05	1486,83
636,24	1363,95
636,43	1370,09
636,62	1325,04
636,81	1421,29
637,00	1404,91
637,19	1376,24
637,38	1384,43
637,57	1355,76
637,76	1386,47
637,95	1241,07
638,14	1372,14
638,33	1314,80
638,52	1290,22
638,71	1265,64
638,89	1302,51
639,08	1286,12
639,27	1361,90
639,46	1294,32
639,65	1232,88
639,84	1349,61
640,03	1239,02
640,22	1298,41
640,41	1253,36
640,60	1273,84
640,79	1411,05
640,98	1304,56
641,17	1284,08
641,36	1255,40
641,55	1282,03
641,74	1286,12
641,92	1284,08
642,11	1279,98
642,30	1253,36
642,49	1234,93
642,68	1286,12
642,87	1310,70
643,06	1249,26
643,25	1259,50
643,44	1288,17
643,63	1292,27
643,82	1271,79
644,00	1204,21
644,19	1263,60
644,38	1298,41
644,57	1335,28
644,76	1249,26
644,95	1310,70
645,14	1253,36
645,33	1284,08
645,52	1232,88
645,71	1306,60
645,89	1337,32
646,08	1241,07
646,27	1341,42
646,46	1269,74
646,65	1236,97
646,84	1245,16
647,03	1331,18
647,22	1241,07
647,40	1261,55
647,59	1214,45
647,78	1210,35
647,97	1226,73
648,16	1241,07
648,35	1286,12
648,54	1314,80
648,73	1273,84
648,91	1220,59
649,10	1286,12
649,29	1294,32
649,48	1290,22
649,67	1312,75
649,86	1292,27
650,05	1265,64
650,23	1325,04
650,42	1333,23
650,61	1255,40
650,80	1210,35
650,99	1345,52
651,18	1191,92
651,36	1222,64
651,55	1232,88
651,74	1282,03
651,93	1265,64
652,12	1273,84
652,31	1257,45
652,49	1302,51
652,68	1279,98
652,87	1239,02
653,06	1269,74
653,25	1296,36
653,44	1290,22
653,62	1292,27
653,81	1302,51
654,00	1275,88
654,19	1232,88
654,38	1300,46
654,56	1247,21
654,75	1234,93
654,94	1249,26
655,13	1226,73
655,32	1222,64
655,51	1273,84
655,69	1261,55
655,88	1320,94
656,07	1284,08
656,26	1230,83
656,45	1343,47
656,63	1298,41
656,82	1296,36
657,01	1265,64
657,20	1253,36
657,38	1306,60
657,57	1224,69
657,76	1234,93
657,95	1310,70
658,14	1259,50
658,32	1261,55
658,51	1200,11
658,70	1273,84
658,89	1292,27
659,08	1327,08
659,26	1304,56
659,45	1331,18
659,64	1277,93
659,83	1298,41
660,01	1318,89
660,20	1327,08
660,39	1273,84
660,58	1298,41
660,76	1273,84
660,95	1255,40
661,14	1361,90
661,33	1247,21
661,51	1269,74
661,70	1177,58
661,89	1261,55
662,08	1261,55
662,26	1259,50
662,45	1220,59
662,64	1388,52
662,83	1339,37
663,01	1249,26
663,20	1247,21
663,39	1251,31
663,58	1312,75
663,76	1222,64
663,95	1257,45
664,14	1271,79
664,32	1239,02
664,51	1290,22
664,70	1282,03
664,89	1343,47
665,07	1284,08
665,26	1261,55
665,45	1304,56
665,64	1230,83
665,82	1304,56
666,01	1226,73
666,20	1273,84
666,38	1265,64
666,57	1253,36
666,76	1304,56
666,95	1302,51
667,13	1243,12
667,32	1261,55
667,51	1206,25
667,69	1243,12
667,88	1206,25
668,07	1322,99
668,25	1247,21
668,44	1292,27
668,63	1298,41
668,81	1300,46
669,00	1279,98
669,19	1224,69
669,38	1320,94
669,56	1308,65
669,75	1228,78
669,94	1255,40
670,12	1273,84
670,31	1282,03
670,50	1218,54
670,68	1253,36
670,87	1279,98
671,06	1290,22
671,24	1230,83
671,43	1239,02
671,62	1267,69
671,80	1284,08
671,99	1275,88
672,18	1214,45
672,36	1286,12
672,55	1259,50
672,74	1308,65
672,92	1335,28
673,11	1300,46
673,29	1310,70
673,48	1304,56
673,67	1259,50
673,85	1218,54
674,04	1290,22
674,23	1157,10
674,41	1284,08
674,60	1347,56
674,79	1249,26
674,97	1239,02
675,16	1296,36
675,34	1228,78
675,53	1232,88
675,72	1247,21
675,90	1247,21
676,09	1261,55
676,28	1241,07
676,46	1273,84
676,65	1335,28
676,83	1296,36
677,02	1282,03
677,21	1226,73
677,39	1267,69
677,58	1241,07
677,77	1275,88
677,95	1286,12
678,14	1296,36
678,32	1251,31
678,51	1247,21
678,70	1286,12
678,88	1259,50
679,07	1329,13
679,25	1308,65
679,44	1279,98
679,63	1257,45
679,81	1288,17
680,00	1196,01
680,18	1251,31
680,37	1314,80
680,55	1286,12
680,74	1257,45
680,93	1249,26
681,11	1261,55
681,30	1247,21
681,48	1284,08
681,67	1306,60
681,85	1277,93
682,04	1351,66
682,23	1204,21
682,41	1243,12
682,60	1193,97
682,78	1302,51
682,97	1232,88
683,15	1241,07
683,34	1263,60
683,53	1302,51
683,71	1230,83
683,90	1363,95
684,08	1320,94
684,27	1261,55
684,45	1273,84
684,64	1306,60
684,82	1247,21
685,01	1292,27
685,19	1269,74
685,38	1298,41
685,57	1322,99
685,75	1251,31
685,94	1259,50
686,12	1232,88
686,31	1282,03
686,49	1286,12
686,68	1265,64
686,86	1232,88
687,05	1267,69
687,23	1216,49
687,42	1318,89
687,60	1239,02
687,79	1230,83
687,97	1232,88
688,16	1286,12
688,34	1249,26
688,53	1249,26
688,71	1255,40
688,90	1292,27
689,08	1257,45
689,27	1269,74
689,45	1359,85
689,64	1220,59
689,82	1181,68
690,01	1286,12
690,19	1329,13
690,38	1282,03
690,56	1273,84
690,75	1241,07
690,93	1255,40
691,12	1249,26
691,30	1277,93
691,49	1261,55
691,67	1210,35
691,86	1171,44
692,04	1316,84
692,23	1337,32
692,41	1273,84
692,60	1286,12
692,78	1286,12
692,97	1318,89
693,15	1378,28
693,34	1253,36
693,52	1296,36
693,71	1212,40
693,89	1290,22
694,08	1230,83
694,26	1269,74
694,44	1243,12
694,63	1271,79
694,81	1273,84
695,00	1273,84
695,18	1292,27
695,37	1290,22
695,55	1241,07
695,74	1181,68
695,92	1204,21
696,10	1267,69
696,29	1279,98
696,47	1255,40
696,66	1263,60
696,84	1275,88
697,03	1267,69
697,21	1335,28
697,40	1355,76
697,58	1216,49
697,76	1224,69
697,95	1300,46
698,13	1306,60
698,32	1202,16
698,50	1361,90
698,68	1265,64
698,87	1277,93
699,05	1290,22
699,24	1257,45
699,42	1284,08
699,61	1320,94
699,79	1251,31
699,97	1255,40
700,16	1245,16
700,34	1284,08
700,53	1296,36
700,71	1298,41
700,89	1302,51
701,08	1316,84
701,26	1304,56
701,45	1320,94
701,63	1286,12
701,81	1222,64
702,00	1251,31
702,18	1325,04
702,37	1226,73
702,55	1259,50
702,73	1249,26
702,92	1187,82
703,10	1263,60
703,28	1296,36
703,47	1239,02
703,65	1208,30
703,84	1257,45
704,02	1196,01
704,20	1249,26
704,39	1292,27
704,57	1234,93
704,75	1339,37
704,94	1249,26
705,12	1284,08
705,30	1290,22
705,49	1245,16
705,67	1310,70
705,86	1243,12
706,04	1261,55
706,22	1187,82
706,41	1253,36
706,59	1241,07
706,77	1320,94
706,96	1292,27
707,14	1308,65
707,32	1277,93
707,51	1230,83
707,69	1277,93
707,87	1265,64
708,06	1253,36
708,24	1273,84
708,42	1212,40
708,61	1263,60
708,79	1230,83
708,97	1198,06
709,16	1239,02
709,34	1265,64
709,52	1236,97
709,71	1275,88
709,89	1288,17
710,07	1220,59
710,26	1267,69
710,44	1245,16
710,62	1245,16
710,80	1257,45
710,99	1247,21
711,17	1265,64
711,35	1222,64
711,54	1232,88
711,72	1234,93
711,90	1202,16
712,09	1253,36
712,27	1220,59
712,45	1245,16
712,63	1255,40
712,82	1296,36
713,00	1228,78
713,18	1279,98
713,37	1351,66
713,55	1273,84
713,73	1163,25
713,91	1269,74
714,10	1273,84
714,28	1173,49
714,46	1306,60
714,65	1308,65
714,83	1208,30
715,01	1239,02
715,19	1214,45
715,38	1261,55
715,56	1300,46
715,74	1273,84
715,92	1306,60
716,11	1232,88
716,29	1314,80
716,47	1279,98
716,65	1245,16
716,84	1290,22
717,02	1290,22
717,20	1206,25
717,38	1232,88
717,57	1308,65
717,75	1343,47
717,93	1251,31
718,11	1359,85
718,30	1318,89
718,48	1296,36
718,66	1282,03
718,84	1216,49
719,03	1255,40
719,21	1185,77
719,39	1335,28
719,57	1322,99
719,75	1306,60
719,94	1322,99
720,12	1282,03
720,30	1261,55
720,48	1255,40
720,67	1255,40
720,85	1277,93
721,03	1257,45
721,21	1236,97
721,39	1341,42
721,58	1251,31
721,76	1308,65
721,94	1228,78
722,12	1302,51
722,30	1236,97
722,49	1308,65
722,67	1232,88
722,85	1236,97
723,03	1265,64
723,21	1241,07
723,40	1322,99
723,58	1259,50
723,76	1269,74
723,94	1294,32
724,12	1228,78
724,30	1253,36
724,49	1228,78
724,67	1224,69
724,85	1224,69
725,03	1294,32
725,21	1198,06
725,40	1216,49
725,58	1228,78
725,76	1292,27
725,94	1288,17
726,12	1279,98
726,30	1255,40
726,49	1314,80
726,67	1320,94
726,85	1312,75
727,03	1265,64
727,21	1257,45
727,39	1243,12
727,57	1269,74
727,76	1300,46
727,94	1222,64
728,12	1314,80
728,30	1251,31
728,48	1230,83
728,66	1175,53
728,84	1261,55
729,03	1193,97
729,21	1271,79
729,39	1253,36
729,57	1279,98
729,75	1286,12
729,93	1234,93
730,11	1220,59
730,30	1249,26
730,48	1345,52
730,66	1253,36
730,84	1279,98
731,02	1308,65
731,20	1236,97
731,38	1230,83
731,56	1263,60
731,74	1263,60
731,93	1267,69
732,11	1177,58
732,29	1331,18
732,47	1284,08
732,65	1318,89
732,83	1208,30
733,01	1279,98
733,19	1257,45
733,37	1245,16
733,56	1308,65
733,74	1327,08
733,92	1236,97
734,10	1251,31
734,28	1222,64
734,46	1236,97
734,64	1212,40
734,82	1200,11
735,00	1224,69
735,18	1259,50
735,36	1165,29
735,54	1357,80
735,73	1245,16
735,91	1296,36
736,09	1224,69
736,27	1232,88
736,45	1220,59
736,63	1263,60
736,81	1241,07
736,99	1257,45
737,17	1304,56
737,35	1290,22
737,53	1247,21
737,71	1302,51
737,89	1241,07
738,07	1257,45
738,25	1325,04
738,43	1312,75
738,61	1296,36
738,80	1239,02
738,98	1267,69
739,16	1191,92
739,34	1236,97
739,52	1208,30
739,70	1257,45
739,88	1337,32
740,06	1222,64
740,24	1261,55
740,42	1259,50
740,60	1282,03
740,78	1251,31
740,96	1282,03
741,14	1288,17
741,32	1290,22
741,50	1208,30
741,68	1241,07
741,86	1355,76
742,04	1304,56
742,22	1243,12
742,40	1263,60
742,58	1249,26
742,76	1335,28
742,94	1196,01
743,12	1214,45
743,30	1292,27
743,48	1234,93
743,66	1271,79
743,84	1271,79
744,02	1279,98
744,20	1271,79
744,38	1267,69
744,56	1300,46
744,74	1243,12
744,92	1271,79
745,10	1265,64
745,28	1267,69
745,46	1292,27
745,64	1279,98
745,82	1277,93
746,00	1239,02
746,18	1218,54
746,36	1277,93
746,54	1298,41
746,72	1302,51
746,90	1232,88
747,08	1216,49
747,26	1247,21
747,44	1378,28
747,62	1347,56
747,80	1212,40
747,98	1206,25
748,15	1243,12
748,33	1273,84
748,51	1282,03
748,69	1349,61
748,87	1255,40
749,05	1220,59
749,23	1310,70
749,41	1290,22
749,59	1279,98
749,77	1234,93
749,95	1279,98
750,13	1284,08
750,31	1331,18
750,49	1331,18
750,67	1247,21
750,85	1208,30
751,03	1286,12
751,20	1277,93
751,38	1214,45
751,56	1257,45
751,74	1304,56
751,92	1282,03
752,10	1263,60
752,28	1290,22
752,46	1220,59
752,64	1257,45
752,82	1329,13
753,00	1255,40
753,18	1302,51
753,35	1249,26
753,53	1257,45
753,71	1253,36
753,89	1249,26
754,07	1243,12
754,25	1320,94
754,43	1245,16
754,61	1214,45
754,79	1318,89
754,97	1265,64
755,14	1294,32
755,32	1341,42
755,50	1255,40
755,68	1316,84
755,86	1253,36
756,04	1263,60
756,22	1230,83
756,40	1282,03
756,57	1282,03
756,75	1304,56
756,93	1247,21
757,11	1361,90
757,29	1232,88
757,47	1325,04
757,65	1288,17
757,82	1247,21
758,00	1239,02
758,18	1298,41
758,36	1273,84
758,54	1349,61
758,72	1191,92
758,90	1228,78
759,07	1261,55
759,25	1218,54
759,43	1259,50
759,61	1228,78
759,79	1282,03
759,97	1241,07
760,15	1345,52
760,32	1259,50
760,50	1208,30
760,68	1263,60
760,86	1314,80
761,04	1232,88
761,22	1255,40
761,39	1269,74
761,57	1257,45
761,75	1253,36
761,93	1234,93
762,11	1306,60
762,28	1284,08
762,46	1290,22
762,64	1226,73
762,82	1300,46
763,00	1245,16
763,18	1312,75
763,35	1230,83
763,53	1316,84
763,71	1236,97
763,89	1204,21
764,07	1226,73
764,24	1325,04
764,42	1216,49
764,60	1249,26
764,78	1269,74
764,96	1249,26
765,13	1259,50
765,31	1286,12
765,49	1316,84
765,67	1198,06
765,84	1247,21
766,02	1304,56
766,20	1253,36
766,38	1302,51
766,56	1314,80
766,73	1290,22
766,91	1331,18
767,09	1265,64
767,27	1249,26
767,44	1337,32
767,62	1206,25
767,80	1228,78
767,98	1249,26
768,15	1296,36
768,33	1177,58
768,51	1241,07
768,69	1284,08
768,87	1275,88
769,04	1269,74
769,22	1298,41
769,40	1222,64
769,58	1275,88
769,75	1236,97
769,93	1273,84
770,11	1243,12
770,28	1232,88
770,46	1316,84
770,64	1333,23
770,82	1279,98
770,99	1290,22
771,17	1271,79
771,35	1292,27
771,53	1255,40
771,70	1257,45
771,88	1306,60
772,06	1257,45
772,23	1271,79
772,41	1257,45
772,59	1310,70
772,77	1271,79
772,94	1198,06
773,12	1230,83
773,30	1228,78
773,47	1212,40
773,65	1214,45
773,83	1269,74
774,01	1208,30
774,18	1253,36
774,36	1267,69
774,54	1282,03
774,71	1298,41
774,89	1275,88
775,07	1312,75
775,24	1341,42
775,42	1296,36
775,60	1277,93
775,78	1177,58
775,95	1220,59
776,13	1290,22
776,31	1292,27
776,48	1200,11
776,66	1255,40
776,84	1228,78
777,01	1245,16
777,19	1267,69
777,37	1228,78
777,54	1241,07
777,72	1279,98
777,90	1226,73
778,07	1265,64
778,25	1316,84
778,43	1337,32
778,60	1290,22
778,78	1279,98
778,96	1226,73
779,13	1265,64
779,31	1275,88
779,49	1347,56
779,66	1183,73
779,84	1239,02
780,01	1228,78
780,19	1175,53
780,37	1339,37
780,54	1216,49
780,72	1300,46
780,90	1279,98
781,07	1290,22
781,25	1257,45
781,43	1290,22
781,60	1212,40
781,78	1263,60
781,95	1298,41
782,13	1216,49
782,31	1222,64
782,48	1325,04
782,66	1263,60
782,83	1265,64
783,01	1292,27
783,19	1267,69
783,36	1253,36
783,54	1245,16
783,72	1288,17
783,89	1298,41
784,07	1271,79
784,24	1263,60
784,42	1245,16
784,60	1245,16
784,77	1284,08
784,95	1226,73
785,12	1279,98
785,30	1236,97
785,47	1247,21
785,65	1318,89
785,83	1314,80
786,00	1247,21
786,18	1325,04
786,35	1230,83
786,53	1224,69
786,71	1263,60
786,88	1220,59
787,06	1273,84
787,23	1339,37
787,41	1239,02
787,58	1294,32
787,76	1263,60
787,94	1304,56
788,11	1265,64
788,29	1290,22
788,46	1236,97
788,64	1335,28
788,81	1320,94
788,99	1222,64
789,16	1175,53
789,34	1239,02
789,52	1322,99
789,69	1261,55
789,87	1222,64
790,04	1232,88
790,22	1294,32
790,39	1263,60
790,57	1282,03
790,74	1257,45
790,92	1259,50
791,09	1269,74
791,27	1290,22
791,44	1249,26
791,62	1247,21
791,79	1232,88
791,97	1292,27
792,15	1290,22
792,32	1316,84
792,50	1239,02
792,67	1224,69
792,85	1296,36
793,02	1284,08
793,20	1288,17
793,37	1234,93
793,55	1294,32
793,72	1173,49
793,90	1257,45
794,07	1191,92
794,25	1312,75
794,42	1325,04
794,60	1296,36
794,77	1325,04
794,95	1230,83
795,12	1298,41
795,30	1232,88
795,47	1331,18
795,65	1265,64
795,82	1320,94
796,00	1300,46
796,17	1265,64
796,34	1331,18
796,52	1245,16
796,69	1306,60
796,87	1277,93
797,04	1245,16
797,22	1320,94
797,39	1273,84
797,57	1271,79
797,74	1232,88
797,92	1210,35
798,09	1304,56
798,27	1302,51
798,44	1312,75
798,62	1286,12
798,79	1316,84
798,96	1251,31
799,14	1329,13
799,31	1239,02
799,49	1325,04
799,66	1267,69
799,84	1294,32
800,01	1304,56
800,19	1214,45
800,36	1259,50
800,53	1271,79
800,71	1204,21
800,88	1263,60
801,06	1245,16
801,23	1253,36
801,41	1247,21
801,58	1210,35
801,75	1259,50
801,93	1306,60
802,10	1187,82
802,28	1308,65
802,45	1255,40
802,63	1320,94
802,80	1290,22
802,97	1269,74
803,15	1232,88
803,32	1282,03
803,50	1212,40
803,67	1273,84
803,84	1228,78
804,02	1273,84
804,19	1232,88
804,37	1249,26
804,54	1251,31
804,71	1241,07
804,89	1273,84
805,06	1290,22
805,24	1251,31
805,41	1288,17
805,58	1249,26
805,76	1191,92
805,93	1218,54
806,10	1247,21
806,28	1261,55
806,45	1288,17
806,63	1290,22
806,80	1296,36
806,97	1269,74
807,15	1263,60
807,32	1245,16
807,49	1216,49
807,67	1257,45
807,84	1220,59
808,01	1234,93
808,19	1241,07
808,36	1251,31
808,54	1290,22
808,71	1239,02
808,88	1251,31
809,06	1257,45
809,23	1265,64
809,40	1247,21
809,58	1331,18
809,75	1271,79
809,92	1316,84
810,10	1251,31
810,27	1181,68
810,44	1290,22
810,62	1355,76
810,79	1304,56
810,96	1318,89
811,14	1257,45
811,31	1171,44
811,48	1269,74
811,66	1171,44
811,83	1337,32
812,00	1212,40
812,18	1234,93
812,35	1304,56
812,52	1245,16
812,69	1224,69
812,87	1394,67
813,04	1255,40
813,21	1261,55
813,39	1208,30
813,56	1318,89
813,73	1228,78
813,91	1343,47
814,08	1267,69
814,25	1249,26
814,42	1230,83
814,60	1128,43
814,77	1273,84
814,94	1284,08
815,12	1304,56
815,29	1310,70
815,46	1298,41
815,63	1265,64
815,81	1273,84
815,98	1294,32
816,15	1247,21
816,33	1329,13
816,50	1298,41
816,67	1218,54
816,84	1322,99
817,02	1275,88
817,19	1282,03
817,36	1275,88
817,53	1224,69
817,71	1279,98
817,88	1347,56
818,05	1241,07
818,22	1241,07
818,40	1292,27
818,57	1294,32
818,74	1232,88
818,91	1259,50
819,09	1257,45
819,26	1271,79
819,43	1216,49
819,60	1239,02
819,78	1261,55
819,95	1282,03
820,12	1236,97
820,29	1282,03
820,47	1224,69
820,64	1261,55
820,81	1306,60
820,98	1206,25
821,15	1241,07
821,33	1247,21
821,50	1325,04
821,67	1290,22
821,84	1234,93
822,02	1263,60
822,19	1243,12
822,36	1261,55
822,53	1251,31
822,70	1306,60
822,88	1329,13
823,05	1314,80
823,22	1322,99
823,39	1247,21
823,56	1251,31
823,74	1232,88
823,91	1249,26
824,08	1298,41
824,25	1298,41
824,42	1247,21
824,60	1212,40
824,77	1261,55
824,94	1298,41
825,11	1259,50
825,28	1277,93
825,45	1277,93
825,63	1157,10
825,80	1316,84
825,97	1347,56
826,14	1267,69
826,31	1243,12
826,48	1304,56
826,66	1304,56
826,83	1300,46
827,00	1273,84
827,17	1273,84
827,34	1234,93
827,51	1271,79
827,69	1200,11
827,86	1322,99
828,03	1226,73
828,20	1282,03
828,37	1337,32
828,54	1282,03
828,71	1263,60
828,89	1239,02
829,06	1212,40
829,23	1302,51
829,40	1290,22
829,57	1249,26
829,74	1249,26
829,91	1333,23
830,09	1306,60
830,26	1279,98
830,43	1290,22
830,60	1253,36
830,77	1298,41
830,94	1210,35
831,11	1300,46
831,28	1249,26
831,46	1239,02
831,63	1247,21
831,80	1230,83
831,97	1286,12
832,14	1208,30
832,31	1374,19
832,48	1310,70
832,65	1296,36
832,82	1198,06
832,99	1279,98
833,17	1263,60
833,34	1267,69
833,51	1243,12
833,68	1345,52
833,85	1275,88
834,02	1239,02
834,19	1228,78
834,36	1308,65
834,53	1234,93
834,70	1263,60
834,87	1290,22
835,04	1284,08
835,22	1277,93
835,39	1239,02
835,56	1288,17
835,73	1310,70
835,90	1275,88
836,07	1226,73
836,24	1222,64
836,41	1269,74
836,58	1269,74
836,75	1234,93
836,92	1298,41
837,09	1282,03
837,26	1288,17
837,43	1224,69
837,60	1249,26
837,77	1284,08
837,94	1220,59
838,12	1257,45
838,29	1269,74
838,46	1345,52
838,63	1198,06
838,80	1316,84
838,97	1255,40
839,14	1247,21
839,31	1298,41
839,48	1179,63
839,65	1292,27
839,82	1239,02
839,99	1191,92
840,16	1298,41
840,33	1208,30
840,50	1302,51
840,67	1292,27
840,84	1263,60
841,01	1236,97
841,18	1288,17
841,35	1247,21
841,52	1306,60
841,69	1214,45
841,86	1230,83
842,03	1236,97
842,20	1290,22
842,37	1271,79
842,54	1255,40
842,71	1251,31
842,88	1290,22
843,05	1308,65
843,22	1224,69
843,39	1273,84
843,56	1318,89
843,73	1271,79
843,90	1279,98
844,07	1243,12
844,24	1251,31
844,41	1216,49
844,58	1226,73
844,75	1214,45
844,92	1220,59
845,09	1259,50
845,26	1196,01
845,43	1247,21
845,60	1298,41
845,77	1322,99
845,94	1294,32
846,10	1212,40
846,27	1220,59
846,44	1279,98
846,61	1300,46
846,78	1267,69
846,95	1214,45
847,12	1196,01
847,29	1341,42
847,46	1279,98
847,63	1314,80
847,80	1253,36
847,97	1284,08
848,14	1185,77
848,31	1228,78
848,48	1208,30
848,65	1191,92
848,82	1320,94
848,98	1259,50
849,15	1230,83
849,32	1251,31
849,49	1290,22
849,66	1265,64
849,83	1214,45
850,00	1265,64
850,17	1245,16
850,34	1251,31
850,51	1261,55
850,68	1224,69
850,85	1325,04
851,01	1265,64
851,18	1308,65
851,35	1257,45
851,52	1275,88
851,69	1220,59
851,86	1232,88
852,03	1222,64
852,20	1191,92
852,37	1228,78
852,53	1269,74
852,70	1279,98
852,87	1265,64
853,04	1288,17
853,21	1271,79
853,38	1318,89
853,55	1169,39
853,72	1300,46
853,89	1208,30
854,05	1294,32
854,22	1306,60
854,39	1265,64
854,56	1296,36
854,73	1284,08
854,90	1251,31
855,07	1210,35
855,23	1263,60
855,40	1202,16
855,57	1230,83
855,74	1241,07
855,91	1236,97
856,08	1318,89
856,25	1306,60
856,41	1245,16
856,58	1271,79
856,75	1275,88
856,92	1249,26
857,09	1329,13
857,26	1245,16
857,42	1339,37
857,59	1245,16
857,76	1253,36
857,93	1255,40
858,10	1269,74
858,27	1282,03
858,43	1222,64
858,60	1277,93
858,77	1322,99
858,94	1310,70
859,11	1210,35
859,27	1239,02
859,44	1275,88
859,61	1271,79
859,78	1222,64
859,95	1298,41
860,12	1290,22
860,28	1212,40
860,45	1286,12
860,62	1318,89
860,79	1310,70
860,95	1298,41
861,12	1234,93
861,29	1253,36
861,46	1296,36
861,63	1261,55
861,79	1304,56
861,96	1316,84
862,13	1257,45
862,30	1243,12
862,47	1230,83
862,63	1204,21
862,80	1234,93
862,97	1261,55
863,14	1261,55
863,30	1263,60
863,47	1271,79
863,64	1271,79
863,81	1279,98
863,97	1255,40
864,14	1304,56
864,31	1322,99
864,48	1290,22
864,65	1269,74
864,81	1288,17
864,98	1239,02
865,15	1234,93
865,32	1257,45
865,48	1318,89
865,65	1230,83
865,82	1245,16
865,98	1243,12
866,15	1300,46
866,32	1265,64
866,49	1157,10
866,65	1312,75
866,82	1253,36
866,99	1345,52
867,16	1290,22
867,32	1255,40
867,49	1325,04
867,66	1261,55
867,83	1347,56
867,99	1259,50
868,16	1261,55
868,33	1298,41
868,49	1232,88
868,66	1290,22
868,83	1322,99
868,99	1234,93
869,16	1273,84
869,33	1257,45
869,50	1279,98
869,66	1279,98
869,83	1263,60
870,00	1284,08
870,16	1302,51
870,33	1214,45
870,50	1325,04
870,66	1269,74
870,83	1247,21
871,00	1253,36
871,17	1265,64
871,33	1230,83
871,50	1241,07
871,67	1273,84
871,83	1269,74
872,00	1273,84
872,17	1288,17
872,33	1267,69
872,50	1298,41
872,67	1220,59
872,83	1261,55
873,00	1296,36
873,17	1294,32
873,33	1265,64
873,50	1216,49
873,67	1331,18
873,83	1196,01
874,00	1327,08
874,16	1251,31
874,33	1318,89
874,50	1310,70
874,66	1255,40
874,83	1284,08
875,00	1251,31
875,16	1288,17
875,33	1220,59
875,50	1224,69
875,66	1202,16
875,83	1318,89
875,99	1253,36
876,16	1224,69
876,33	1220,59
876,49	1288,17
876,66	1226,73
876,83	1282,03
876,99	1277,93
877,16	1279,98
877,32	1277,93
877,49	1261,55
877,66	1243,12
877,82	1337,32
877,99	1259,50
878,15	1292,27
878,32	1275,88
878,49	1341,42
878,65	1255,40
878,82	1261,55
878,98	1261,55
879,15	1294,32
879,32	1290,22
879,48	1284,08
879,65	1312,75
879,81	1187,82
879,98	1282,03
880,15	1263,60
880,31	1284,08
880,48	1200,11
880,64	1243,12
880,81	1339,37
880,97	1341,42
881,14	1263,60
881,31	1304,56
881,47	1271,79
881,64	1273,84
881,80	1286,12
881,97	1243,12
882,13	1300,46
882,30	1243,12
882,47	1263,60
882,63	1275,88
882,80	1228,78
882,96	1206,25
883,13	1247,21
883,29	1261,55
883,46	1341,42
883,62	1304,56
883,79	1263,60
883,95	1249,26
884,12	1208,30
884,29	1263,60
884,45	1239,02
884,62	1251,31
884,78	1257,45
884,95	1298,41
885,11	1210,35
885,28	1224,69
885,44	1183,73
885,61	1345,52
885,77	1284,08
885,94	1306,60
886,10	1259,50
886,27	1308,65
886,43	1267,69
886,60	1275,88
886,76	1226,73
886,93	1294,32
887,09	1302,51
887,26	1257,45
887,42	1193,97
887,59	1220,59
887,75	1267,69
887,92	1284,08
888,08	1263,60
888,25	1224,69
888,41	1292,27
888,58	1263,60
888,74	1265,64
888,91	1273,84
>>>>>End Processed Spectral Data<<<<<
