SpectraSuite Data File
++++++++++++++++++++++++++++++++++++
Date: Sun Apr 03 19:55:28 CEST 2016
User: root
Dark Spectrum Present: No
Reference Spectrum Present: No
Number of Sampled Component Spectra: 1
Spectrometers: USB4C02835
Integration Time (usec): 10000 (USB4C02835)
Spectra Averaged: 1 (USB4C02835)
Boxcar Smoothing: 0 (USB4C02835)
Correct for Electrical Dark: No (USB4C02835)
Strobe/Lamp Enabled: No (USB4C02835)
Correct for Detector Non-linearity: No (USB4C02835)
Correct for Stray Light: No (USB4C02835)
Number of Pixels in Processed Spectrum: 3648
>>>>>Begin Processed Spectral Data<<<<<
177,47	1253,36
177,69	1253,36
177,91	1253,36
178,13	1279,98
178,36	1265,64
178,58	1222,64
178,80	1290,22
179,02	1267,69
179,24	1320,94
179,46	1288,17
179,68	1296,36
179,90	1247,21
180,13	1257,45
180,35	1200,11
180,57	1263,60
180,79	1165,29
181,01	1210,35
181,23	1271,79
181,45	1271,79
181,67	1304,56
181,90	1308,65
182,12	1212,40
182,34	1267,69
182,56	1167,34
182,78	1230,83
183,00	1243,12
183,22	1304,56
183,44	1265,64
183,66	1257,45
183,89	1220,59
184,11	1308,65
184,33	1220,59
184,55	1271,79
184,77	1224,69
184,99	1236,97
185,21	1271,79
185,43	1300,46
185,65	1259,50
185,87	1253,36
186,10	1232,88
186,32	1241,07
186,54	1241,07
186,76	1212,40
186,98	1269,74
187,20	1312,75
187,42	1267,69
187,64	1251,31
187,86	1331,18
188,08	1273,84
188,30	1267,69
188,52	1253,36
188,75	1247,21
188,97	1308,65
189,19	1290,22
189,41	1282,03
189,63	1265,64
189,85	1222,64
190,07	1296,36
190,29	1150,96
190,51	1224,69
190,73	1239,02
190,95	1288,17
191,17	1247,21
191,39	1284,08
191,61	1183,73
191,84	1314,80
192,06	1245,16
192,28	1259,50
192,50	1320,94
192,72	1296,36
192,94	1290,22
193,16	1275,88
193,38	1273,84
193,60	1236,97
193,82	1259,50
194,04	1243,12
194,26	1228,78
194,48	1212,40
194,70	1241,07
194,92	1220,59
195,14	1318,89
195,36	1251,31
195,58	1345,52
195,80	1318,89
196,02	1284,08
196,24	1251,31
196,46	1322,99
196,69	1251,31
196,91	1294,32
197,13	1243,12
197,35	1282,03
197,57	1222,64
197,79	1292,27
198,01	1251,31
198,23	1243,12
198,45	1257,45
198,67	1218,54
198,89	1310,70
199,11	1273,84
199,33	1214,45
199,55	1275,88
199,77	1320,94
199,99	1243,12
200,21	1273,84
200,43	1226,73
200,65	1255,40
200,87	1241,07
201,09	1275,88
201,31	1204,21
201,53	1245,16
201,75	1239,02
201,97	1228,78
202,19	1298,41
202,41	1327,08
202,63	1292,27
202,85	1222,64
203,07	1245,16
203,29	1251,31
203,51	1308,65
203,73	1206,25
203,95	1269,74
204,17	1327,08
204,39	1232,88
204,61	1288,17
204,83	1282,03
205,05	1306,60
205,27	1204,21
205,49	1247,21
205,71	1234,93
205,93	1269,74
206,15	1331,18
206,37	1353,71
206,59	1275,88
206,81	1187,82
207,03	1236,97
207,25	1236,97
207,47	1327,08
207,69	1241,07
207,91	1286,12
208,13	1306,60
208,34	1228,78
208,56	1208,30
208,78	1277,93
209,00	1292,27
209,22	1316,84
209,44	1335,28
209,66	1175,53
209,88	1267,69
210,10	1282,03
210,32	1220,59
210,54	1318,89
210,76	1208,30
210,98	1245,16
211,20	1245,16
211,42	1322,99
211,64	1329,13
211,86	1263,60
212,08	1277,93
212,30	1271,79
212,52	1267,69
212,74	1298,41
212,96	1196,01
213,17	1228,78
213,39	1314,80
213,61	1339,37
213,83	1251,31
214,05	1228,78
214,27	1263,60
214,49	1298,41
214,71	1267,69
214,93	1216,49
215,15	1302,51
215,37	1310,70
215,59	1261,55
215,81	1277,93
216,03	1228,78
216,24	1259,50
216,46	1249,26
216,68	1290,22
216,90	1177,58
217,12	1282,03
217,34	1232,88
217,56	1294,32
217,78	1277,93
218,00	1265,64
218,22	1273,84
218,44	1316,84
218,66	1232,88
218,87	1304,56
219,09	1232,88
219,31	1294,32
219,53	1279,98
219,75	1261,55
219,97	1261,55
220,19	1234,93
220,41	1243,12
220,63	1294,32
220,85	1265,64
221,06	1202,16
221,28	1142,77
221,50	1290,22
221,72	1331,18
221,94	1290,22
222,16	1245,16
222,38	1249,26
222,60	1271,79
222,82	1236,97
223,03	1247,21
223,25	1257,45
223,47	1230,83
223,69	1292,27
223,91	1222,64
224,13	1269,74
224,35	1202,16
224,57	1228,78
224,78	1253,36
225,00	1302,51
225,22	1320,94
225,44	1329,13
225,66	1228,78
225,88	1271,79
226,10	1224,69
226,32	1200,11
226,53	1304,56
226,75	1271,79
226,97	1224,69
227,19	1236,97
227,41	1255,40
227,63	1232,88
227,85	1263,60
228,06	1247,21
228,28	1286,12
228,50	1271,79
228,72	1347,56
228,94	1247,21
229,16	1279,98
229,37	1243,12
229,59	1298,41
229,81	1296,36
230,03	1269,74
230,25	1212,40
230,47	1312,75
230,69	1232,88
230,90	1216,49
231,12	1243,12
231,34	1271,79
231,56	1308,65
231,78	1335,28
232,00	1308,65
232,21	1198,06
232,43	1312,75
232,65	1290,22
232,87	1286,12
233,09	1230,83
233,30	1206,25
233,52	1255,40
233,74	1265,64
233,96	1261,55
234,18	1277,93
234,40	1306,60
234,61	1259,50
234,83	1255,40
235,05	1255,40
235,27	1282,03
235,49	1282,03
235,70	1181,68
235,92	1310,70
236,14	1327,08
236,36	1275,88
236,58	1251,31
236,79	1282,03
237,01	1208,30
237,23	1261,55
237,45	1171,44
237,67	1298,41
237,88	1257,45
238,10	1290,22
238,32	1251,31
238,54	1263,60
238,76	1253,36
238,97	1333,23
239,19	1269,74
239,41	1208,30
239,63	1302,51
239,85	1257,45
240,06	1259,50
240,28	1279,98
240,50	1286,12
240,72	1236,97
240,93	1236,97
241,15	1310,70
241,37	1302,51
241,59	1296,36
241,81	1222,64
242,02	1218,54
242,24	1177,58
242,46	1279,98
242,68	1261,55
242,89	1290,22
243,11	1236,97
243,33	1261,55
243,55	1337,32
243,76	1271,79
243,98	1224,69
244,20	1318,89
244,42	1282,03
244,64	1267,69
244,85	1304,56
245,07	1251,31
245,29	1302,51
245,51	1220,59
245,72	1265,64
245,94	1286,12
246,16	1288,17
246,38	1296,36
246,59	1296,36
246,81	1228,78
247,03	1331,18
247,24	1304,56
247,46	1322,99
247,68	1292,27
247,90	1261,55
248,11	1314,80
248,33	1271,79
248,55	1175,53
248,77	1282,03
248,98	1304,56
249,20	1261,55
249,42	1284,08
249,64	1298,41
249,85	1249,26
250,07	1206,25
250,29	1245,16
250,50	1247,21
250,72	1257,45
250,94	1232,88
251,16	1296,36
251,37	1255,40
251,59	1347,56
251,81	1302,51
252,02	1220,59
252,24	1337,32
252,46	1265,64
252,68	1257,45
252,89	1302,51
253,11	1249,26
253,33	1232,88
253,54	1284,08
253,76	1331,18
253,98	1304,56
254,20	1263,60
254,41	1277,93
254,63	1325,04
254,85	1259,50
255,06	1261,55
255,28	1337,32
255,50	1198,06
255,71	1333,23
255,93	1273,84
256,15	1234,93
256,36	1253,36
256,58	1314,80
256,80	1245,16
257,02	1284,08
257,23	1265,64
257,45	1277,93
257,67	1286,12
257,88	1232,88
258,10	1245,16
258,32	1329,13
258,53	1282,03
258,75	1292,27
258,97	1349,61
259,18	1253,36
259,40	1263,60
259,62	1275,88
259,83	1298,41
260,05	1259,50
260,27	1300,46
260,48	1257,45
260,70	1345,52
260,92	1261,55
261,13	1335,28
261,35	1269,74
261,57	1212,40
261,78	1220,59
262,00	1269,74
262,22	1249,26
262,43	1253,36
262,65	1312,75
262,86	1376,24
263,08	1257,45
263,30	1282,03
263,51	1232,88
263,73	1226,73
263,95	1282,03
264,16	1290,22
264,38	1255,40
264,60	1230,83
264,81	1269,74
265,03	1239,02
265,25	1325,04
265,46	1288,17
265,68	1261,55
265,89	1228,78
266,11	1251,31
266,33	1249,26
266,54	1279,98
266,76	1232,88
266,98	1236,97
267,19	1290,22
267,41	1263,60
267,62	1269,74
267,84	1308,65
268,06	1314,80
268,27	1310,70
268,49	1175,53
268,70	1322,99
268,92	1230,83
269,14	1263,60
269,35	1243,12
269,57	1226,73
269,79	1241,07
270,00	1282,03
270,22	1243,12
270,43	1263,60
270,65	1331,18
270,87	1236,97
271,08	1314,80
271,30	1214,45
271,51	1288,17
271,73	1216,49
271,95	1279,98
272,16	1263,60
272,38	1271,79
272,59	1214,45
272,81	1327,08
273,02	1288,17
273,24	1320,94
273,46	1232,88
273,67	1265,64
273,89	1255,40
274,10	1337,32
274,32	1261,55
274,54	1245,16
274,75	1187,82
274,97	1359,85
275,18	1249,26
275,40	1265,64
275,61	1265,64
275,83	1300,46
276,05	1271,79
276,26	1171,44
276,48	1302,51
276,69	1302,51
276,91	1245,16
277,12	1228,78
277,34	1220,59
277,55	1296,36
277,77	1259,50
277,99	1189,87
278,20	1298,41
278,42	1261,55
278,63	1267,69
278,85	1292,27
279,06	1275,88
279,28	1308,65
279,49	1165,29
279,71	1249,26
279,93	1282,03
280,14	1214,45
280,36	1257,45
280,57	1263,60
280,79	1296,36
281,00	1236,97
281,22	1253,36
281,43	1292,27
281,65	1302,51
281,86	1284,08
282,08	1265,64
282,29	1273,84
282,51	1347,56
282,73	1310,70
282,94	1269,74
283,16	1263,60
283,37	1320,94
283,59	1265,64
283,80	1253,36
284,02	1257,45
284,23	1263,60
284,45	1224,69
284,66	1284,08
284,88	1308,65
285,09	1232,88
285,31	1329,13
285,52	1337,32
285,74	1304,56
285,95	1284,08
286,17	1286,12
286,38	1249,26
286,60	1312,75
286,81	1208,30
287,03	1241,07
287,24	1284,08
287,46	1327,08
287,67	1251,31
287,89	1249,26
288,10	1265,64
288,32	1290,22
288,53	1275,88
288,75	1288,17
288,96	1257,45
289,18	1243,12
289,39	1279,98
289,61	1294,32
289,82	1279,98
290,04	1296,36
290,25	1302,51
290,47	1216,49
290,68	1277,93
290,90	1327,08
291,11	1243,12
291,33	1247,21
291,54	1228,78
291,76	1263,60
291,97	1312,75
292,18	1261,55
292,40	1306,60
292,61	1150,96
292,83	1300,46
293,04	1286,12
293,26	1271,79
293,47	1261,55
293,69	1251,31
293,90	1187,82
294,12	1271,79
294,33	1286,12
294,55	1202,16
294,76	1253,36
294,97	1273,84
295,19	1247,21
295,40	1306,60
295,62	1337,32
295,83	1265,64
296,05	1271,79
296,26	1269,74
296,48	1298,41
296,69	1279,98
296,90	1292,27
297,12	1220,59
297,33	1331,18
297,55	1269,74
297,76	1314,80
297,98	1239,02
298,19	1224,69
298,41	1222,64
298,62	1232,88
298,83	1271,79
299,05	1249,26
299,26	1187,82
299,48	1273,84
299,69	1255,40
299,90	1226,73
300,12	1284,08
300,33	1241,07
300,55	1318,89
300,76	1284,08
300,98	1263,60
301,19	1257,45
301,40	1275,88
301,62	1206,25
301,83	1290,22
302,05	1187,82
302,26	1290,22
302,47	1292,27
302,69	1214,45
302,90	1308,65
303,12	1247,21
303,33	1271,79
303,54	1286,12
303,76	1308,65
303,97	1296,36
304,19	1212,40
304,40	1236,97
304,61	1261,55
304,83	1198,06
305,04	1269,74
305,26	1196,01
305,47	1234,93
305,68	1259,50
305,90	1241,07
306,11	1288,17
306,33	1310,70
306,54	1239,02
306,75	1263,60
306,97	1212,40
307,18	1314,80
307,39	1253,36
307,61	1298,41
307,82	1269,74
308,04	1193,97
308,25	1224,69
308,46	1269,74
308,68	1265,64
308,89	1259,50
309,10	1277,93
309,32	1292,27
309,53	1245,16
309,74	1236,97
309,96	1277,93
310,17	1300,46
310,39	1265,64
310,60	1347,56
310,81	1245,16
311,03	1230,83
311,24	1292,27
311,45	1314,80
311,67	1255,40
311,88	1312,75
312,09	1228,78
312,31	1196,01
312,52	1210,35
312,73	1290,22
312,95	1290,22
313,16	1337,32
313,37	1249,26
313,59	1267,69
313,80	1308,65
314,01	1196,01
314,23	1343,47
314,44	1224,69
314,65	1308,65
314,87	1304,56
315,08	1243,12
315,29	1284,08
315,51	1224,69
315,72	1275,88
315,93	1271,79
316,15	1265,64
316,36	1282,03
316,57	1288,17
316,79	1296,36
317,00	1277,93
317,21	1331,18
317,43	1220,59
317,64	1318,89
317,85	1232,88
318,07	1253,36
318,28	1249,26
318,49	1259,50
318,70	1306,60
318,92	1251,31
319,13	1269,74
319,34	1296,36
319,56	1325,04
319,77	1263,60
319,98	1316,84
320,20	1302,51
320,41	1232,88
320,62	1269,74
320,83	1294,32
321,05	1284,08
321,26	1277,93
321,47	1218,54
321,69	1290,22
321,90	1325,04
322,11	1265,64
322,32	1288,17
322,54	1335,28
322,75	1253,36
322,96	1230,83
323,18	1204,21
323,39	1325,04
323,60	1282,03
323,81	1206,25
324,03	1159,15
324,24	1341,42
324,45	1236,97
324,66	1282,03
324,88	1247,21
325,09	1245,16
325,30	1263,60
325,52	1322,99
325,73	1355,76
325,94	1251,31
326,15	1222,64
326,37	1155,05
326,58	1359,85
326,79	1314,80
327,00	1247,21
327,22	1263,60
327,43	1339,37
327,64	1208,30
327,85	1226,73
328,07	1302,51
328,28	1318,89
328,49	1230,83
328,70	1251,31
328,92	1325,04
329,13	1212,40
329,34	1232,88
329,55	1243,12
329,76	1345,52
329,98	1286,12
330,19	1288,17
330,40	1261,55
330,61	1232,88
330,83	1273,84
331,04	1298,41
331,25	1345,52
331,46	1251,31
331,68	1220,59
331,89	1277,93
332,10	1255,40
332,31	1255,40
332,52	1376,24
332,74	1302,51
332,95	1253,36
333,16	1247,21
333,37	1249,26
333,58	1284,08
333,80	1249,26
334,01	1300,46
334,22	1263,60
334,43	1253,36
334,64	1218,54
334,86	1288,17
335,07	1206,25
335,28	1261,55
335,49	1308,65
335,70	1253,36
335,92	1232,88
336,13	1269,74
336,34	1259,50
336,55	1259,50
336,76	1132,53
336,98	1220,59
337,19	1288,17
337,40	1236,97
337,61	1226,73
337,82	1277,93
338,04	1247,21
338,25	1271,79
338,46	1251,31
338,67	1224,69
338,88	1396,71
339,09	1249,26
339,31	1271,79
339,52	1212,40
339,73	1277,93
339,94	1320,94
340,15	1239,02
340,36	1308,65
340,58	1257,45
340,79	1232,88
341,00	1310,70
341,21	1312,75
341,42	1257,45
341,63	1296,36
341,85	1247,21
342,06	1290,22
342,27	1261,55
342,48	1265,64
342,69	1245,16
342,90	1302,51
343,12	1273,84
343,33	1236,97
343,54	1314,80
343,75	1327,08
343,96	1210,35
344,17	1222,64
344,38	1255,40
344,60	1282,03
344,81	1306,60
345,02	1300,46
345,23	1306,60
345,44	1320,94
345,65	1310,70
345,86	1296,36
346,07	1249,26
346,29	1220,59
346,50	1232,88
346,71	1226,73
346,92	1241,07
347,13	1288,17
347,34	1251,31
347,55	1239,02
347,76	1173,49
347,98	1282,03
348,19	1230,83
348,40	1259,50
348,61	1214,45
348,82	1247,21
349,03	1288,17
349,24	1183,73
349,45	1279,98
349,66	1241,07
349,88	1265,64
350,09	1241,07
350,30	1277,93
350,51	1230,83
350,72	1374,19
350,93	1234,93
351,14	1245,16
351,35	1304,56
351,56	1239,02
351,77	1249,26
351,99	1220,59
352,20	1249,26
352,41	1273,84
352,62	1222,64
352,83	1249,26
353,04	1269,74
353,25	1275,88
353,46	1247,21
353,67	1284,08
353,88	1218,54
354,09	1228,78
354,30	1292,27
354,52	1277,93
354,73	1247,21
354,94	1308,65
355,15	1253,36
355,36	1286,12
355,57	1312,75
355,78	1239,02
355,99	1239,02
356,20	1222,64
356,41	1245,16
356,62	1234,93
356,83	1269,74
357,04	1255,40
357,25	1212,40
357,46	1191,92
357,68	1279,98
357,89	1241,07
358,10	1236,97
358,31	1331,18
358,52	1304,56
358,73	1302,51
358,94	1296,36
359,15	1282,03
359,36	1290,22
359,57	1234,93
359,78	1327,08
359,99	1232,88
360,20	1294,32
360,41	1284,08
360,62	1224,69
360,83	1322,99
361,04	1282,03
361,25	1253,36
361,46	1243,12
361,67	1275,88
361,88	1275,88
362,09	1255,40
362,30	1327,08
362,51	1261,55
362,72	1208,30
362,93	1247,21
363,14	1271,79
363,35	1284,08
363,56	1247,21
363,78	1314,80
363,99	1255,40
364,20	1279,98
364,41	1247,21
364,62	1327,08
364,83	1265,64
365,04	1255,40
365,25	1206,25
365,46	1241,07
365,67	1245,16
365,88	1294,32
366,09	1193,97
366,30	1269,74
366,51	1257,45
366,72	1239,02
366,93	1218,54
367,14	1247,21
367,35	1259,50
367,56	1308,65
367,77	1245,16
367,98	1261,55
368,18	1241,07
368,39	1191,92
368,60	1249,26
368,81	1294,32
369,02	1296,36
369,23	1265,64
369,44	1345,52
369,65	1239,02
369,86	1325,04
370,07	1234,93
370,28	1294,32
370,49	1214,45
370,70	1259,50
370,91	1218,54
371,12	1247,21
371,33	1257,45
371,54	1294,32
371,75	1296,36
371,96	1206,25
372,17	1214,45
372,38	1253,36
372,59	1222,64
372,80	1243,12
373,01	1318,89
373,22	1380,33
373,43	1265,64
373,64	1173,49
373,85	1249,26
374,06	1230,83
374,26	1300,46
374,47	1273,84
374,68	1282,03
374,89	1335,28
375,10	1245,16
375,31	1257,45
375,52	1335,28
375,73	1286,12
375,94	1220,59
376,15	1273,84
376,36	1212,40
376,57	1296,36
376,78	1271,79
376,99	1263,60
377,20	1226,73
377,40	1290,22
377,61	1249,26
377,82	1277,93
378,03	1212,40
378,24	1294,32
378,45	1322,99
378,66	1253,36
378,87	1226,73
379,08	1245,16
379,29	1259,50
379,50	1275,88
379,71	1243,12
379,91	1236,97
380,12	1206,25
380,33	1294,32
380,54	1341,42
380,75	1265,64
380,96	1243,12
381,17	1251,31
381,38	1298,41
381,59	1198,06
381,80	1312,75
382,00	1337,32
382,21	1296,36
382,42	1306,60
382,63	1290,22
382,84	1245,16
383,05	1292,27
383,26	1290,22
383,47	1273,84
383,68	1292,27
383,88	1275,88
384,09	1273,84
384,30	1275,88
384,51	1257,45
384,72	1236,97
384,93	1304,56
385,14	1347,56
385,35	1273,84
385,55	1265,64
385,76	1265,64
385,97	1282,03
386,18	1259,50
386,39	1241,07
386,60	1265,64
386,81	1263,60
387,02	1245,16
387,22	1228,78
387,43	1247,21
387,64	1286,12
387,85	1277,93
388,06	1284,08
388,27	1277,93
388,48	1198,06
388,68	1263,60
388,89	1288,17
389,10	1218,54
389,31	1267,69
389,52	1253,36
389,73	1257,45
389,93	1214,45
390,14	1232,88
390,35	1228,78
390,56	1316,84
390,77	1263,60
390,98	1212,40
391,18	1273,84
391,39	1236,97
391,60	1241,07
391,81	1298,41
392,02	1271,79
392,23	1265,64
392,43	1290,22
392,64	1253,36
392,85	1302,51
393,06	1282,03
393,27	1279,98
393,47	1255,40
393,68	1247,21
393,89	1271,79
394,10	1247,21
394,31	1224,69
394,52	1351,66
394,72	1236,97
394,93	1236,97
395,14	1239,02
395,35	1157,10
395,56	1331,18
395,76	1259,50
395,97	1230,83
396,18	1239,02
396,39	1247,21
396,60	1273,84
396,80	1214,45
397,01	1265,64
397,22	1329,13
397,43	1320,94
397,64	1234,93
397,84	1312,75
398,05	1273,84
398,26	1245,16
398,47	1265,64
398,67	1300,46
398,88	1300,46
399,09	1302,51
399,30	1183,73
399,51	1277,93
399,71	1236,97
399,92	1241,07
400,13	1271,79
400,34	1273,84
400,54	1232,88
400,75	1282,03
400,96	1232,88
401,17	1257,45
401,37	1263,60
401,58	1241,07
401,79	1193,97
402,00	1212,40
402,21	1271,79
402,41	1290,22
402,62	1220,59
402,83	1239,02
403,04	1247,21
403,24	1279,98
403,45	1261,55
403,66	1277,93
403,87	1241,07
404,07	1214,45
404,28	1241,07
404,49	1230,83
404,70	1210,35
404,90	1314,80
405,11	1245,16
405,32	1224,69
405,52	1232,88
405,73	1320,94
405,94	1202,16
406,15	1275,88
406,35	1306,60
406,56	1296,36
406,77	1249,26
406,98	1261,55
407,18	1335,28
407,39	1236,97
407,60	1327,08
407,80	1214,45
408,01	1220,59
408,22	1312,75
408,43	1181,68
408,63	1314,80
408,84	1228,78
409,05	1230,83
409,25	1282,03
409,46	1277,93
409,67	1267,69
409,88	1214,45
410,08	1263,60
410,29	1249,26
410,50	1308,65
410,70	1214,45
410,91	1310,70
411,12	1325,04
411,32	1265,64
411,53	1279,98
411,74	1236,97
411,95	1286,12
412,15	1228,78
412,36	1294,32
412,57	1267,69
412,77	1306,60
412,98	1296,36
413,19	1269,74
413,39	1267,69
413,60	1218,54
413,81	1320,94
414,01	1306,60
414,22	1284,08
414,43	1275,88
414,63	1249,26
414,84	1247,21
415,05	1222,64
415,25	1296,36
415,46	1253,36
415,67	1286,12
415,87	1351,66
416,08	1341,42
416,29	1224,69
416,49	1245,16
416,70	1269,74
416,91	1224,69
417,11	1286,12
417,32	1290,22
417,53	1286,12
417,73	1302,51
417,94	1271,79
418,15	1249,26
418,35	1310,70
418,56	1198,06
418,77	1290,22
418,97	1241,07
419,18	1249,26
419,38	1376,24
419,59	1253,36
419,80	1304,56
420,00	1247,21
420,21	1263,60
420,42	1179,63
420,62	1159,15
420,83	1216,49
421,04	1226,73
421,24	1224,69
421,45	1218,54
421,65	1267,69
421,86	1275,88
422,07	1243,12
422,27	1216,49
422,48	1296,36
422,69	1273,84
422,89	1222,64
423,10	1363,95
423,30	1232,88
423,51	1290,22
423,72	1265,64
423,92	1269,74
424,13	1279,98
424,33	1243,12
424,54	1337,32
424,75	1361,90
424,95	1200,11
425,16	1374,19
425,36	1259,50
425,57	1294,32
425,78	1298,41
425,98	1255,40
426,19	1290,22
426,39	1288,17
426,60	1263,60
426,81	1329,13
427,01	1322,99
427,22	1277,93
427,42	1288,17
427,63	1247,21
427,83	1222,64
428,04	1247,21
428,25	1253,36
428,45	1294,32
428,66	1290,22
428,86	1261,55
429,07	1302,51
429,28	1279,98
429,48	1236,97
429,69	1357,80
429,89	1267,69
430,10	1267,69
430,30	1306,60
430,51	1226,73
430,71	1325,04
430,92	1243,12
431,13	1261,55
431,33	1239,02
431,54	1329,13
431,74	1273,84
431,95	1241,07
432,15	1243,12
432,36	1210,35
432,56	1322,99
432,77	1279,98
432,98	1345,52
433,18	1261,55
433,39	1314,80
433,59	1216,49
433,80	1232,88
434,00	1224,69
434,21	1232,88
434,41	1255,40
434,62	1273,84
434,82	1263,60
435,03	1259,50
435,23	1282,03
435,44	1232,88
435,64	1241,07
435,85	1259,50
436,06	1288,17
436,26	1331,18
436,47	1189,87
436,67	1259,50
436,88	1232,88
437,08	1261,55
437,29	1232,88
437,49	1191,92
437,70	1261,55
437,90	1290,22
438,11	1236,97
438,31	1257,45
438,52	1290,22
438,72	1247,21
438,93	1253,36
439,13	1290,22
439,34	1273,84
439,54	1312,75
439,75	1253,36
439,95	1173,49
440,16	1273,84
440,36	1234,93
440,57	1191,92
440,77	1286,12
440,98	1226,73
441,18	1331,18
441,39	1277,93
441,59	1245,16
441,80	1269,74
442,00	1265,64
442,21	1263,60
442,41	1253,36
442,62	1263,60
442,82	1296,36
443,02	1251,31
443,23	1355,76
443,43	1230,83
443,64	1273,84
443,84	1263,60
444,05	1314,80
444,25	1271,79
444,46	1267,69
444,66	1286,12
444,87	1316,84
445,07	1249,26
445,28	1275,88
445,48	1318,89
445,69	1253,36
445,89	1286,12
446,09	1245,16
446,30	1286,12
446,50	1232,88
446,71	1257,45
446,91	1265,64
447,12	1232,88
447,32	1273,84
447,53	1298,41
447,73	1202,16
447,93	1296,36
448,14	1298,41
448,34	1249,26
448,55	1310,70
448,75	1255,40
448,96	1251,31
449,16	1259,50
449,36	1279,98
449,57	1198,06
449,77	1259,50
449,98	1277,93
450,18	1263,60
450,39	1351,66
450,59	1339,37
450,79	1255,40
451,00	1255,40
451,20	1230,83
451,41	1312,75
451,61	1230,83
451,81	1277,93
452,02	1259,50
452,22	1290,22
452,43	1302,51
452,63	1277,93
452,84	1320,94
453,04	1329,13
453,24	1265,64
453,45	1236,97
453,65	1210,35
453,86	1298,41
454,06	1271,79
454,26	1220,59
454,47	1226,73
454,67	1322,99
454,87	1302,51
455,08	1273,84
455,28	1306,60
455,49	1255,40
455,69	1271,79
455,89	1259,50
456,10	1292,27
456,30	1331,18
456,51	1286,12
456,71	1331,18
456,91	1339,37
457,12	1271,79
457,32	1296,36
457,52	1273,84
457,73	1310,70
457,93	1329,13
458,14	1241,07
458,34	1314,80
458,54	1366,00
458,75	1269,74
458,95	1351,66
459,15	1271,79
459,36	1322,99
459,56	1273,84
459,76	1222,64
459,97	1269,74
460,17	1234,93
460,37	1279,98
460,58	1222,64
460,78	1298,41
460,99	1310,70
461,19	1269,74
461,39	1277,93
461,60	1267,69
461,80	1257,45
462,00	1265,64
462,21	1257,45
462,41	1273,84
462,61	1335,28
462,82	1314,80
463,02	1329,13
463,22	1257,45
463,43	1255,40
463,63	1288,17
463,83	1243,12
464,04	1249,26
464,24	1267,69
464,44	1316,84
464,64	1292,27
464,85	1284,08
465,05	1306,60
465,25	1206,25
465,46	1243,12
465,66	1245,16
465,86	1380,33
466,07	1253,36
466,27	1282,03
466,47	1265,64
466,68	1257,45
466,88	1296,36
467,08	1224,69
467,29	1282,03
467,49	1294,32
467,69	1298,41
467,89	1279,98
468,10	1198,06
468,30	1253,36
468,50	1294,32
468,71	1247,21
468,91	1306,60
469,11	1298,41
469,31	1257,45
469,52	1255,40
469,72	1292,27
469,92	1284,08
470,13	1329,13
470,33	1257,45
470,53	1310,70
470,73	1290,22
470,94	1222,64
471,14	1247,21
471,34	1253,36
471,54	1429,48
471,75	1312,75
471,95	1284,08
472,15	1259,50
472,36	1325,04
472,56	1286,12
472,76	1284,08
472,96	1341,42
473,17	1271,79
473,37	1288,17
473,57	1277,93
473,77	1329,13
473,98	1232,88
474,18	1257,45
474,38	1290,22
474,58	1271,79
474,79	1312,75
474,99	1253,36
475,19	1224,69
475,39	1255,40
475,60	1318,89
475,80	1304,56
476,00	1277,93
476,20	1318,89
476,41	1282,03
476,61	1220,59
476,81	1282,03
477,01	1296,36
477,21	1302,51
477,42	1314,80
477,62	1253,36
477,82	1304,56
478,02	1282,03
478,23	1327,08
478,43	1232,88
478,63	1239,02
478,83	1286,12
479,03	1269,74
479,24	1191,92
479,44	1257,45
479,64	1286,12
479,84	1306,60
480,04	1312,75
480,25	1306,60
480,45	1308,65
480,65	1271,79
480,85	1224,69
481,06	1259,50
481,26	1300,46
481,46	1275,88
481,66	1214,45
481,86	1245,16
482,06	1224,69
482,27	1298,41
482,47	1269,74
482,67	1302,51
482,87	1230,83
483,07	1275,88
483,28	1226,73
483,48	1200,11
483,68	1257,45
483,88	1288,17
484,08	1302,51
484,29	1253,36
484,49	1337,32
484,69	1247,21
484,89	1236,97
485,09	1265,64
485,29	1296,36
485,50	1290,22
485,70	1314,80
485,90	1353,71
486,10	1269,74
486,30	1308,65
486,50	1257,45
486,71	1169,39
486,91	1277,93
487,11	1304,56
487,31	1273,84
487,51	1224,69
487,71	1286,12
487,91	1341,42
488,12	1222,64
488,32	1257,45
488,52	1257,45
488,72	1347,56
488,92	1318,89
489,12	1241,07
489,32	1277,93
489,53	1286,12
489,73	1290,22
489,93	1327,08
490,13	1261,55
490,33	1294,32
490,53	1206,25
490,73	1298,41
490,94	1284,08
491,14	1243,12
491,34	1286,12
491,54	1202,16
491,74	1236,97
491,94	1339,37
492,14	1275,88
492,34	1304,56
492,54	1325,04
492,75	1294,32
492,95	1286,12
493,15	1257,45
493,35	1290,22
493,55	1294,32
493,75	1269,74
493,95	1243,12
494,15	1349,61
494,35	1300,46
494,56	1310,70
494,76	1292,27
494,96	1339,37
495,16	1245,16
495,36	1189,87
495,56	1296,36
495,76	1294,32
495,96	1222,64
496,16	1308,65
496,36	1314,80
496,56	1241,07
496,77	1290,22
496,97	1275,88
497,17	1304,56
497,37	1239,02
497,57	1200,11
497,77	1234,93
497,97	1302,51
498,17	1269,74
498,37	1208,30
498,57	1234,93
498,77	1294,32
498,97	1255,40
499,17	1230,83
499,38	1263,60
499,58	1200,11
499,78	1282,03
499,98	1279,98
500,18	1273,84
500,38	1241,07
500,58	1318,89
500,78	1200,11
500,98	1198,06
501,18	1267,69
501,38	1230,83
501,58	1220,59
501,78	1261,55
501,98	1232,88
502,18	1279,98
502,38	1298,41
502,58	1275,88
502,78	1304,56
502,98	1226,73
503,18	1294,32
503,38	1279,98
503,59	1247,21
503,79	1255,40
503,99	1273,84
504,19	1298,41
504,39	1306,60
504,59	1327,08
504,79	1363,95
504,99	1273,84
505,19	1282,03
505,39	1310,70
505,59	1239,02
505,79	1290,22
505,99	1322,99
506,19	1245,16
506,39	1212,40
506,59	1277,93
506,79	1257,45
506,99	1279,98
507,19	1224,69
507,39	1320,94
507,59	1312,75
507,79	1312,75
507,99	1292,27
508,19	1267,69
508,39	1298,41
508,59	1279,98
508,79	1355,76
508,99	1345,52
509,19	1292,27
509,39	1314,80
509,59	1322,99
509,79	1347,56
509,99	1257,45
510,19	1269,74
510,39	1198,06
510,59	1288,17
510,79	1187,82
510,99	1294,32
511,19	1298,41
511,39	1286,12
511,59	1261,55
511,79	1267,69
511,99	1265,64
512,19	1286,12
512,38	1310,70
512,58	1339,37
512,78	1257,45
512,98	1271,79
513,18	1261,55
513,38	1282,03
513,58	1263,60
513,78	1290,22
513,98	1302,51
514,18	1288,17
514,38	1253,36
514,58	1288,17
514,78	1290,22
514,98	1234,93
515,18	1370,09
515,38	1308,65
515,58	1333,23
515,78	1275,88
515,98	1345,52
516,18	1236,97
516,38	1296,36
516,57	1247,21
516,77	1251,31
516,97	1273,84
517,17	1318,89
517,37	1220,59
517,57	1245,16
517,77	1251,31
517,97	1259,50
518,17	1271,79
518,37	1333,23
518,57	1298,41
518,77	1288,17
518,97	1234,93
519,16	1339,37
519,36	1241,07
519,56	1230,83
519,76	1275,88
519,96	1255,40
520,16	1335,28
520,36	1288,17
520,56	1325,04
520,76	1261,55
520,96	1282,03
521,16	1298,41
521,35	1306,60
521,55	1327,08
521,75	1333,23
521,95	1273,84
522,15	1263,60
522,35	1314,80
522,55	1314,80
522,75	1282,03
522,95	1288,17
523,14	1304,56
523,34	1251,31
523,54	1310,70
523,74	1286,12
523,94	1306,60
524,14	1282,03
524,34	1271,79
524,54	1343,47
524,73	1361,90
524,93	1284,08
525,13	1210,35
525,33	1257,45
525,53	1347,56
525,73	1341,42
525,93	1277,93
526,13	1259,50
526,32	1298,41
526,52	1265,64
526,72	1298,41
526,92	1286,12
527,12	1316,84
527,32	1298,41
527,52	1282,03
527,71	1255,40
527,91	1288,17
528,11	1247,21
528,31	1251,31
528,51	1269,74
528,71	1251,31
528,90	1296,36
529,10	1284,08
529,30	1210,35
529,50	1245,16
529,70	1320,94
529,90	1372,14
530,09	1302,51
530,29	1300,46
530,49	1273,84
530,69	1286,12
530,89	1368,04
531,09	1247,21
531,28	1335,28
531,48	1294,32
531,68	1298,41
531,88	1253,36
532,08	1267,69
532,28	1277,93
532,47	1318,89
532,67	1304,56
532,87	1243,12
533,07	1271,79
533,27	1343,47
533,46	1220,59
533,66	1208,30
533,86	1253,36
534,06	1312,75
534,26	1282,03
534,45	1314,80
534,65	1300,46
534,85	1288,17
535,05	1284,08
535,25	1269,74
535,44	1320,94
535,64	1322,99
535,84	1214,45
536,04	1226,73
536,24	1306,60
536,43	1236,97
536,63	1300,46
536,83	1310,70
537,03	1288,17
537,22	1239,02
537,42	1284,08
537,62	1263,60
537,82	1337,32
538,02	1288,17
538,21	1320,94
538,41	1273,84
538,61	1327,08
538,81	1327,08
539,00	1288,17
539,20	1245,16
539,40	1269,74
539,60	1302,51
539,79	1320,94
539,99	1204,21
540,19	1337,32
540,39	1271,79
540,58	1314,80
540,78	1300,46
540,98	1314,80
541,18	1236,97
541,37	1224,69
541,57	1302,51
541,77	1257,45
541,97	1316,84
542,16	1216,49
542,36	1257,45
542,56	1318,89
542,76	1292,27
542,95	1314,80
543,15	1277,93
543,35	1282,03
543,54	1269,74
543,74	1193,97
543,94	1265,64
544,14	1304,56
544,33	1218,54
544,53	1247,21
544,73	1269,74
544,93	1335,28
545,12	1265,64
545,32	1263,60
545,52	1288,17
545,71	1290,22
545,91	1253,36
546,11	1320,94
546,30	1300,46
546,50	1273,84
546,70	1249,26
546,90	1261,55
547,09	1275,88
547,29	1216,49
547,49	1298,41
547,68	1208,30
547,88	1284,08
548,08	1214,45
548,27	1236,97
548,47	1257,45
548,67	1241,07
548,87	1265,64
549,06	1232,88
549,26	1298,41
549,46	1277,93
549,65	1296,36
549,85	1282,03
550,05	1306,60
550,24	1312,75
550,44	1322,99
550,64	1220,59
550,83	1257,45
551,03	1255,40
551,23	1331,18
551,42	1284,08
551,62	1298,41
551,82	1279,98
552,01	1298,41
552,21	1290,22
552,41	1224,69
552,60	1302,51
552,80	1296,36
553,00	1255,40
553,19	1259,50
553,39	1329,13
553,59	1243,12
553,78	1183,73
553,98	1339,37
554,17	1331,18
554,37	1368,04
554,57	1314,80
554,76	1216,49
554,96	1306,60
555,16	1411,05
555,35	1261,55
555,55	1257,45
555,75	1208,30
555,94	1308,65
556,14	1230,83
556,33	1208,30
556,53	1290,22
556,73	1345,52
556,92	1310,70
557,12	1312,75
557,32	1232,88
557,51	1335,28
557,71	1282,03
557,90	1271,79
558,10	1212,40
558,30	1322,99
558,49	1298,41
558,69	1267,69
558,88	1247,21
559,08	1255,40
559,28	1263,60
559,47	1232,88
559,67	1308,65
559,86	1236,97
560,06	1300,46
560,26	1286,12
560,45	1269,74
560,65	1320,94
560,84	1232,88
561,04	1333,23
561,24	1263,60
561,43	1273,84
561,63	1251,31
561,82	1245,16
562,02	1267,69
562,22	1335,28
562,41	1259,50
562,61	1271,79
562,80	1318,89
563,00	1271,79
563,19	1306,60
563,39	1294,32
563,59	1271,79
563,78	1296,36
563,98	1259,50
564,17	1263,60
564,37	1302,51
564,56	1275,88
564,76	1316,84
564,96	1265,64
565,15	1306,60
565,35	1279,98
565,54	1271,79
565,74	1296,36
565,93	1243,12
566,13	1284,08
566,32	1294,32
566,52	1241,07
566,71	1325,04
566,91	1298,41
567,11	1302,51
567,30	1363,95
567,50	1210,35
567,69	1263,60
567,89	1310,70
568,08	1253,36
568,28	1253,36
568,47	1331,18
568,67	1304,56
568,86	1265,64
569,06	1259,50
569,25	1265,64
569,45	1290,22
569,64	1232,88
569,84	1234,93
570,04	1288,17
570,23	1239,02
570,43	1290,22
570,62	1290,22
570,82	1232,88
571,01	1318,89
571,21	1329,13
571,40	1224,69
571,60	1261,55
571,79	1320,94
571,99	1245,16
572,18	1257,45
572,38	1353,71
572,57	1282,03
572,77	1249,26
572,96	1288,17
573,16	1312,75
573,35	1310,70
573,55	1279,98
573,74	1232,88
573,94	1236,97
574,13	1282,03
574,33	1269,74
574,52	1345,52
574,71	1312,75
574,91	1273,84
575,10	1292,27
575,30	1224,69
575,49	1261,55
575,69	1320,94
575,88	1263,60
576,08	1196,01
576,27	1273,84
576,47	1302,51
576,66	1245,16
576,86	1300,46
577,05	1261,55
577,25	1347,56
577,44	1302,51
577,64	1298,41
577,83	1230,83
578,02	1421,29
578,22	1296,36
578,41	1294,32
578,61	1290,22
578,80	1290,22
579,00	1257,45
579,19	1312,75
579,39	1341,42
579,58	1290,22
579,77	1329,13
579,97	1288,17
580,16	1249,26
580,36	1306,60
580,55	1286,12
580,75	1306,60
580,94	1275,88
581,13	1243,12
581,33	1298,41
581,52	1279,98
581,72	1382,38
581,91	1265,64
582,11	1259,50
582,30	1255,40
582,49	1269,74
582,69	1232,88
582,88	1255,40
583,08	1298,41
583,27	1288,17
583,47	1234,93
583,66	1298,41
583,85	1261,55
584,05	1314,80
584,24	1265,64
584,44	1271,79
584,63	1251,31
584,82	1259,50
585,02	1316,84
585,21	1271,79
585,41	1273,84
585,60	1298,41
585,79	1277,93
585,99	1308,65
586,18	1261,55
586,37	1286,12
586,57	1316,84
586,76	1325,04
586,96	1249,26
587,15	1312,75
587,34	1347,56
587,54	1282,03
587,73	1335,28
587,93	1304,56
588,12	1331,18
588,31	1249,26
588,51	1271,79
588,70	1292,27
588,89	1251,31
589,09	1243,12
589,28	1241,07
589,47	1282,03
589,67	1298,41
589,86	1279,98
590,06	1263,60
590,25	1255,40
590,44	1314,80
590,64	1275,88
590,83	1263,60
591,02	1243,12
591,22	1298,41
591,41	1286,12
591,60	1222,64
591,80	1339,37
591,99	1216,49
592,18	1282,03
592,38	1294,32
592,57	1259,50
592,76	1257,45
592,96	1337,32
593,15	1247,21
593,34	1298,41
593,54	1306,60
593,73	1224,69
593,92	1325,04
594,12	1318,89
594,31	1253,36
594,50	1255,40
594,70	1226,73
594,89	1277,93
595,08	1220,59
595,28	1300,46
595,47	1230,83
595,66	1343,47
595,86	1257,45
596,05	1327,08
596,24	1294,32
596,43	1263,60
596,63	1267,69
596,82	1318,89
597,01	1310,70
597,21	1345,52
597,40	1271,79
597,59	1296,36
597,79	1290,22
597,98	1269,74
598,17	1253,36
598,36	1275,88
598,56	1255,40
598,75	1314,80
598,94	1239,02
599,14	1304,56
599,33	1255,40
599,52	1368,04
599,71	1329,13
599,91	1263,60
600,10	1288,17
600,29	1267,69
600,48	1216,49
600,68	1351,66
600,87	1282,03
601,06	1318,89
601,26	1308,65
601,45	1320,94
601,64	1300,46
601,83	1288,17
602,03	1286,12
602,22	1267,69
602,41	1275,88
602,60	1273,84
602,80	1273,84
602,99	1251,31
603,18	1259,50
603,37	1320,94
603,57	1286,12
603,76	1296,36
603,95	1273,84
604,14	1298,41
604,34	1339,37
604,53	1214,45
604,72	1210,35
604,91	1286,12
605,10	1277,93
605,30	1282,03
605,49	1290,22
605,68	1288,17
605,87	1243,12
606,07	1290,22
606,26	1298,41
606,45	1290,22
606,64	1279,98
606,84	1273,84
607,03	1298,41
607,22	1275,88
607,41	1216,49
607,60	1259,50
607,80	1341,42
607,99	1290,22
608,18	1224,69
608,37	1286,12
608,56	1267,69
608,76	1306,60
608,95	1232,88
609,14	1339,37
609,33	1341,42
609,52	1337,32
609,72	1279,98
609,91	1253,36
610,10	1304,56
610,29	1325,04
610,48	1288,17
610,68	1249,26
610,87	1316,84
611,06	1279,98
611,25	1273,84
611,44	1314,80
611,63	1316,84
611,83	1308,65
612,02	1310,70
612,21	1331,18
612,40	1282,03
612,59	1308,65
612,79	1241,07
612,98	1277,93
613,17	1380,33
613,36	1212,40
613,55	1304,56
613,74	1271,79
613,93	1265,64
614,13	1345,52
614,32	1296,36
614,51	1310,70
614,70	1366,00
614,89	1279,98
615,08	1290,22
615,28	1308,65
615,47	1327,08
615,66	1282,03
615,85	1327,08
616,04	1243,12
616,23	1214,45
616,42	1236,97
616,62	1296,36
616,81	1277,93
617,00	1249,26
617,19	1290,22
617,38	1265,64
617,57	1245,16
617,76	1341,42
617,95	1249,26
618,15	1224,69
618,34	1245,16
618,53	1282,03
618,72	1333,23
618,91	1279,98
619,10	1320,94
619,29	1265,64
619,48	1329,13
619,68	1275,88
619,87	1247,21
620,06	1243,12
620,25	1288,17
620,44	1222,64
620,63	1273,84
620,82	1216,49
621,01	1320,94
621,20	1341,42
621,39	1292,27
621,59	1243,12
621,78	1279,98
621,97	1177,58
622,16	1310,70
622,35	1298,41
622,54	1247,21
622,73	1271,79
622,92	1335,28
623,11	1333,23
623,30	1298,41
623,49	1314,80
623,68	1306,60
623,88	1329,13
624,07	1302,51
624,26	1357,80
624,45	1325,04
624,64	1247,21
624,83	1337,32
625,02	1253,36
625,21	1353,71
625,40	1286,12
625,59	1279,98
625,78	1325,04
625,97	1271,79
626,16	1275,88
626,35	1249,26
626,54	1347,56
626,74	1322,99
626,93	1335,28
627,12	1304,56
627,31	1234,93
627,50	1277,93
627,69	1320,94
627,88	1337,32
628,07	1329,13
628,26	1228,78
628,45	1320,94
628,64	1273,84
628,83	1284,08
629,02	1282,03
629,21	1277,93
629,40	1368,04
629,59	1347,56
629,78	1286,12
629,97	1386,47
630,16	1273,84
630,35	1277,93
630,54	1314,80
630,73	1310,70
630,92	1277,93
631,11	1322,99
631,30	1239,02
631,49	1329,13
631,68	1357,80
631,87	1519,59
632,06	1847,27
632,25	1568,74
632,44	1640,42
632,63	1908,71
632,82	2093,02
633,01	2283,49
633,20	2498,52
633,39	2521,05
633,58	2174,94
633,77	2013,15
633,96	2242,53
634,15	2787,29
634,34	2887,64
634,53	2641,88
634,72	2263,01
634,91	1855,46
635,10	1705,96
635,29	1636,33
635,48	1552,36
635,67	1507,30
635,86	1480,68
636,05	1419,24
636,24	1368,04
636,43	1396,71
636,62	1372,14
636,81	1294,32
637,00	1261,55
637,19	1312,75
637,38	1331,18
637,57	1316,84
637,76	1363,95
637,95	1355,76
638,14	1273,84
638,33	1286,12
638,52	1296,36
638,71	1351,66
638,89	1275,88
639,08	1306,60
639,27	1265,64
639,46	1214,45
639,65	1279,98
639,84	1234,93
640,03	1345,52
640,22	1236,97
640,41	1298,41
640,60	1232,88
640,79	1302,51
640,98	1347,56
641,17	1316,84
641,36	1329,13
641,55	1282,03
641,74	1339,37
641,92	1273,84
642,11	1259,50
642,30	1351,66
642,49	1277,93
642,68	1263,60
642,87	1226,73
643,06	1273,84
643,25	1259,50
643,44	1165,29
643,63	1355,76
643,82	1245,16
644,00	1322,99
644,19	1306,60
644,38	1189,87
644,57	1290,22
644,76	1230,83
644,95	1271,79
645,14	1275,88
645,33	1314,80
645,52	1286,12
645,71	1263,60
645,89	1271,79
646,08	1210,35
646,27	1286,12
646,46	1327,08
646,65	1318,89
646,84	1314,80
647,03	1316,84
647,22	1249,26
647,40	1247,21
647,59	1310,70
647,78	1310,70
647,97	1302,51
648,16	1279,98
648,35	1263,60
648,54	1277,93
648,73	1265,64
648,91	1247,21
649,10	1236,97
649,29	1224,69
649,48	1241,07
649,67	1222,64
649,86	1282,03
650,05	1265,64
650,23	1273,84
650,42	1300,46
650,61	1267,69
650,80	1269,74
650,99	1302,51
651,18	1298,41
651,36	1277,93
651,55	1277,93
651,74	1249,26
651,93	1325,04
652,12	1267,69
652,31	1193,97
652,49	1286,12
652,68	1212,40
652,87	1298,41
653,06	1241,07
653,25	1279,98
653,44	1255,40
653,62	1224,69
653,81	1247,21
654,00	1247,21
654,19	1277,93
654,38	1241,07
654,56	1261,55
654,75	1253,36
654,94	1296,36
655,13	1271,79
655,32	1241,07
655,51	1236,97
655,69	1318,89
655,88	1226,73
656,07	1239,02
656,26	1290,22
656,45	1224,69
656,63	1243,12
656,82	1333,23
657,01	1284,08
657,20	1228,78
657,38	1298,41
657,57	1308,65
657,76	1273,84
657,95	1259,50
658,14	1259,50
658,32	1243,12
658,51	1275,88
658,70	1224,69
658,89	1261,55
659,08	1286,12
659,26	1208,30
659,45	1312,75
659,64	1247,21
659,83	1296,36
660,01	1343,47
660,20	1243,12
660,39	1210,35
660,58	1302,51
660,76	1200,11
660,95	1288,17
661,14	1322,99
661,33	1239,02
661,51	1265,64
661,70	1327,08
661,89	1300,46
662,08	1374,19
662,26	1314,80
662,45	1292,27
662,64	1236,97
662,83	1292,27
663,01	1269,74
663,20	1314,80
663,39	1273,84
663,58	1216,49
663,76	1282,03
663,95	1298,41
664,14	1261,55
664,32	1234,93
664,51	1306,60
664,70	1247,21
664,89	1339,37
665,07	1261,55
665,26	1259,50
665,45	1265,64
665,64	1296,36
665,82	1234,93
666,01	1335,28
666,20	1269,74
666,38	1290,22
666,57	1300,46
666,76	1322,99
666,95	1296,36
667,13	1239,02
667,32	1214,45
667,51	1273,84
667,69	1259,50
667,88	1245,16
668,07	1345,52
668,25	1269,74
668,44	1236,97
668,63	1257,45
668,81	1265,64
669,00	1261,55
669,19	1310,70
669,38	1277,93
669,56	1245,16
669,75	1239,02
669,94	1290,22
670,12	1310,70
670,31	1277,93
670,50	1230,83
670,68	1239,02
670,87	1259,50
671,06	1263,60
671,24	1333,23
671,43	1202,16
671,62	1351,66
671,80	1353,71
671,99	1261,55
672,18	1234,93
672,36	1298,41
672,55	1337,32
672,74	1290,22
672,92	1298,41
673,11	1249,26
673,29	1275,88
673,48	1279,98
673,67	1308,65
673,85	1329,13
674,04	1269,74
674,23	1275,88
674,41	1329,13
674,60	1257,45
674,79	1241,07
674,97	1286,12
675,16	1200,11
675,34	1236,97
675,53	1267,69
675,72	1230,83
675,90	1239,02
676,09	1271,79
676,28	1216,49
676,46	1325,04
676,65	1325,04
676,83	1282,03
677,02	1208,30
677,21	1271,79
677,39	1282,03
677,58	1253,36
677,77	1355,76
677,95	1222,64
678,14	1251,31
678,32	1261,55
678,51	1243,12
678,70	1306,60
678,88	1306,60
679,07	1320,94
679,25	1234,93
679,44	1251,31
679,63	1341,42
679,81	1292,27
680,00	1196,01
680,18	1275,88
680,37	1239,02
680,55	1232,88
680,74	1388,52
680,93	1241,07
681,11	1239,02
681,30	1259,50
681,48	1288,17
681,67	1333,23
681,85	1343,47
682,04	1183,73
682,23	1286,12
682,41	1296,36
682,60	1251,31
682,78	1267,69
682,97	1255,40
683,15	1247,21
683,34	1239,02
683,53	1271,79
683,71	1292,27
683,90	1357,80
684,08	1279,98
684,27	1343,47
684,45	1277,93
684,64	1198,06
684,82	1290,22
685,01	1259,50
685,19	1294,32
685,38	1179,63
685,57	1222,64
685,75	1345,52
685,94	1251,31
686,12	1286,12
686,31	1300,46
686,49	1214,45
686,68	1187,82
686,86	1251,31
687,05	1245,16
687,23	1277,93
687,42	1236,97
687,60	1251,31
687,79	1196,01
687,97	1292,27
688,16	1290,22
688,34	1273,84
688,53	1247,21
688,71	1236,97
688,90	1249,26
689,08	1267,69
689,27	1279,98
689,45	1275,88
689,64	1247,21
689,82	1275,88
690,01	1310,70
690,19	1282,03
690,38	1236,97
690,56	1273,84
690,75	1322,99
690,93	1251,31
691,12	1310,70
691,30	1245,16
691,49	1320,94
691,67	1265,64
691,86	1259,50
692,04	1243,12
692,23	1263,60
692,41	1200,11
692,60	1310,70
692,78	1265,64
692,97	1220,59
693,15	1214,45
693,34	1314,80
693,52	1193,97
693,71	1155,05
693,89	1296,36
694,08	1308,65
694,26	1216,49
694,44	1187,82
694,63	1339,37
694,81	1277,93
695,00	1247,21
695,18	1286,12
695,37	1277,93
695,55	1243,12
695,74	1363,95
695,92	1275,88
696,10	1247,21
696,29	1220,59
696,47	1273,84
696,66	1212,40
696,84	1230,83
697,03	1284,08
697,21	1222,64
697,40	1259,50
697,58	1271,79
697,76	1284,08
697,95	1241,07
698,13	1269,74
698,32	1290,22
698,50	1271,79
698,68	1277,93
698,87	1232,88
699,05	1275,88
699,24	1376,24
699,42	1333,23
699,61	1273,84
699,79	1251,31
699,97	1230,83
700,16	1191,92
700,34	1300,46
700,53	1312,75
700,71	1284,08
700,89	1275,88
701,08	1275,88
701,26	1259,50
701,45	1306,60
701,63	1230,83
701,81	1243,12
702,00	1306,60
702,18	1294,32
702,37	1282,03
702,55	1259,50
702,73	1271,79
702,92	1290,22
703,10	1294,32
703,28	1322,99
703,47	1286,12
703,65	1286,12
703,84	1239,02
704,02	1177,58
704,20	1198,06
704,39	1294,32
704,57	1304,56
704,75	1273,84
704,94	1253,36
705,12	1267,69
705,30	1275,88
705,49	1224,69
705,67	1257,45
705,86	1302,51
706,04	1292,27
706,22	1320,94
706,41	1220,59
706,59	1282,03
706,77	1173,49
706,96	1247,21
707,14	1253,36
707,32	1239,02
707,51	1300,46
707,69	1279,98
707,87	1343,47
708,06	1279,98
708,24	1286,12
708,42	1257,45
708,61	1316,84
708,79	1234,93
708,97	1214,45
709,16	1249,26
709,34	1269,74
709,52	1320,94
709,71	1331,18
709,89	1239,02
710,07	1284,08
710,26	1271,79
710,44	1263,60
710,62	1255,40
710,80	1282,03
710,99	1265,64
711,17	1257,45
711,35	1224,69
711,54	1265,64
711,72	1241,07
711,90	1271,79
712,09	1294,32
712,27	1288,17
712,45	1306,60
712,63	1286,12
712,82	1316,84
713,00	1267,69
713,18	1247,21
713,37	1222,64
713,55	1306,60
713,73	1239,02
713,91	1241,07
714,10	1282,03
714,28	1282,03
714,46	1304,56
714,65	1314,80
714,83	1216,49
715,01	1216,49
715,19	1312,75
715,38	1325,04
715,56	1265,64
715,74	1271,79
715,92	1271,79
716,11	1310,70
716,29	1198,06
716,47	1279,98
716,65	1316,84
716,84	1236,97
717,02	1296,36
717,20	1265,64
717,38	1206,25
717,57	1269,74
717,75	1210,35
717,93	1290,22
718,11	1263,60
718,30	1349,61
718,48	1251,31
718,66	1208,30
718,84	1257,45
719,03	1251,31
719,21	1284,08
719,39	1333,23
719,57	1288,17
719,75	1230,83
719,94	1282,03
720,12	1261,55
720,30	1255,40
720,48	1224,69
720,67	1300,46
720,85	1273,84
721,03	1249,26
721,21	1275,88
721,39	1366,00
721,58	1263,60
721,76	1296,36
721,94	1271,79
722,12	1370,09
722,30	1277,93
722,49	1267,69
722,67	1306,60
722,85	1282,03
723,03	1298,41
723,21	1322,99
723,40	1214,45
723,58	1284,08
723,76	1284,08
723,94	1236,97
724,12	1251,31
724,30	1243,12
724,49	1290,22
724,67	1232,88
724,85	1228,78
725,03	1247,21
725,21	1335,28
725,40	1300,46
725,58	1337,32
725,76	1208,30
725,94	1271,79
726,12	1282,03
726,30	1241,07
726,49	1196,01
726,67	1204,21
726,85	1214,45
727,03	1206,25
727,21	1337,32
727,39	1202,16
727,57	1247,21
727,76	1275,88
727,94	1316,84
728,12	1253,36
728,30	1214,45
728,48	1251,31
728,66	1279,98
728,84	1304,56
729,03	1294,32
729,21	1259,50
729,39	1239,02
729,57	1222,64
729,75	1288,17
729,93	1239,02
730,11	1261,55
730,30	1310,70
730,48	1277,93
730,66	1249,26
730,84	1318,89
731,02	1282,03
731,20	1239,02
731,38	1259,50
731,56	1255,40
731,74	1275,88
731,93	1222,64
732,11	1271,79
732,29	1234,93
732,47	1394,67
732,65	1302,51
732,83	1255,40
733,01	1277,93
733,19	1284,08
733,37	1183,73
733,56	1253,36
733,74	1316,84
733,92	1292,27
734,10	1302,51
734,28	1325,04
734,46	1202,16
734,64	1343,47
734,82	1257,45
735,00	1320,94
735,18	1277,93
735,36	1259,50
735,54	1331,18
735,73	1284,08
735,91	1257,45
736,09	1304,56
736,27	1294,32
736,45	1222,64
736,63	1290,22
736,81	1206,25
736,99	1265,64
737,17	1177,58
737,35	1327,08
737,53	1239,02
737,71	1331,18
737,89	1243,12
738,07	1302,51
738,25	1288,17
738,43	1241,07
738,61	1277,93
738,80	1265,64
738,98	1282,03
739,16	1175,53
739,34	1286,12
739,52	1241,07
739,70	1300,46
739,88	1251,31
740,06	1243,12
740,24	1316,84
740,42	1275,88
740,60	1294,32
740,78	1265,64
740,96	1234,93
741,14	1290,22
741,32	1253,36
741,50	1212,40
741,68	1214,45
741,86	1284,08
742,04	1298,41
742,22	1245,16
742,40	1347,56
742,58	1302,51
742,76	1273,84
742,94	1210,35
743,12	1273,84
743,30	1200,11
743,48	1263,60
743,66	1296,36
743,84	1353,71
744,02	1247,21
744,20	1265,64
744,38	1222,64
744,56	1206,25
744,74	1312,75
744,92	1253,36
745,10	1253,36
745,28	1269,74
745,46	1255,40
745,64	1253,36
745,82	1191,92
746,00	1212,40
746,18	1210,35
746,36	1247,21
746,54	1234,93
746,72	1273,84
746,90	1284,08
747,08	1306,60
747,26	1234,93
747,44	1279,98
747,62	1273,84
747,80	1294,32
747,98	1292,27
748,15	1241,07
748,33	1228,78
748,51	1210,35
748,69	1290,22
748,87	1243,12
749,05	1177,58
749,23	1271,79
749,41	1245,16
749,59	1282,03
749,77	1269,74
749,95	1263,60
750,13	1327,08
750,31	1277,93
750,49	1347,56
750,67	1363,95
750,85	1167,34
751,03	1290,22
751,20	1183,73
751,38	1329,13
751,56	1288,17
751,74	1302,51
751,92	1257,45
752,10	1282,03
752,28	1271,79
752,46	1249,26
752,64	1298,41
752,82	1224,69
753,00	1335,28
753,18	1228,78
753,35	1306,60
753,53	1245,16
753,71	1296,36
753,89	1220,59
754,07	1322,99
754,25	1230,83
754,43	1288,17
754,61	1286,12
754,79	1243,12
754,97	1273,84
755,14	1275,88
755,32	1261,55
755,50	1255,40
755,68	1261,55
755,86	1267,69
756,04	1263,60
756,22	1255,40
756,40	1331,18
756,57	1226,73
756,75	1296,36
756,93	1290,22
757,11	1249,26
757,29	1261,55
757,47	1363,95
757,65	1265,64
757,82	1310,70
758,00	1214,45
758,18	1296,36
758,36	1273,84
758,54	1241,07
758,72	1302,51
758,90	1318,89
759,07	1230,83
759,25	1247,21
759,43	1284,08
759,61	1304,56
759,79	1296,36
759,97	1288,17
760,15	1232,88
760,32	1185,77
760,50	1286,12
760,68	1322,99
760,86	1318,89
761,04	1349,61
761,22	1320,94
761,39	1322,99
761,57	1167,34
761,75	1292,27
761,93	1187,82
762,11	1275,88
762,28	1216,49
762,46	1214,45
762,64	1279,98
762,82	1255,40
763,00	1255,40
763,18	1288,17
763,35	1314,80
763,53	1286,12
763,71	1267,69
763,89	1259,50
764,07	1241,07
764,24	1277,93
764,42	1316,84
764,60	1245,16
764,78	1269,74
764,96	1247,21
765,13	1341,42
765,31	1204,21
765,49	1290,22
765,67	1304,56
765,84	1341,42
766,02	1316,84
766,20	1267,69
766,38	1253,36
766,56	1320,94
766,73	1347,56
766,91	1308,65
767,09	1196,01
767,27	1277,93
767,44	1314,80
767,62	1259,50
767,80	1300,46
767,98	1212,40
768,15	1269,74
768,33	1241,07
768,51	1314,80
768,69	1249,26
768,87	1257,45
769,04	1204,21
769,22	1277,93
769,40	1253,36
769,58	1292,27
769,75	1269,74
769,93	1296,36
770,11	1282,03
770,28	1206,25
770,46	1304,56
770,64	1275,88
770,82	1171,44
770,99	1306,60
771,17	1267,69
771,35	1179,63
771,53	1296,36
771,70	1275,88
771,88	1282,03
772,06	1241,07
772,23	1220,59
772,41	1277,93
772,59	1294,32
772,77	1241,07
772,94	1273,84
773,12	1277,93
773,30	1159,15
773,47	1294,32
773,65	1214,45
773,83	1265,64
774,01	1320,94
774,18	1212,40
774,36	1253,36
774,54	1279,98
774,71	1150,96
774,89	1329,13
775,07	1193,97
775,24	1263,60
775,42	1288,17
775,60	1198,06
775,78	1308,65
775,95	1325,04
776,13	1286,12
776,31	1193,97
776,48	1282,03
776,66	1275,88
776,84	1265,64
777,01	1292,27
777,19	1275,88
777,37	1290,22
777,54	1300,46
777,72	1286,12
777,90	1247,21
778,07	1282,03
778,25	1257,45
778,43	1269,74
778,60	1206,25
778,78	1290,22
778,96	1339,37
779,13	1230,83
779,31	1318,89
779,49	1290,22
779,66	1241,07
779,84	1296,36
780,01	1267,69
780,19	1271,79
780,37	1322,99
780,54	1253,36
780,72	1290,22
780,90	1282,03
781,07	1284,08
781,25	1243,12
781,43	1265,64
781,60	1288,17
781,78	1243,12
781,95	1298,41
782,13	1310,70
782,31	1259,50
782,48	1239,02
782,66	1249,26
782,83	1255,40
783,01	1230,83
783,19	1322,99
783,36	1290,22
783,54	1232,88
783,72	1296,36
783,89	1251,31
784,07	1249,26
784,24	1310,70
784,42	1265,64
784,60	1261,55
784,77	1226,73
784,95	1230,83
785,12	1249,26
785,30	1228,78
785,47	1232,88
785,65	1202,16
785,83	1263,60
786,00	1282,03
786,18	1234,93
786,35	1277,93
786,53	1282,03
786,71	1275,88
786,88	1290,22
787,06	1208,30
787,23	1251,31
787,41	1300,46
787,58	1296,36
787,76	1298,41
787,94	1261,55
788,11	1273,84
788,29	1263,60
788,46	1298,41
788,64	1257,45
788,81	1226,73
788,99	1257,45
789,16	1257,45
789,34	1206,25
789,52	1353,71
789,69	1232,88
789,87	1284,08
790,04	1296,36
790,22	1243,12
790,39	1212,40
790,57	1247,21
790,74	1249,26
790,92	1259,50
791,09	1239,02
791,27	1253,36
791,44	1322,99
791,62	1302,51
791,79	1247,21
791,97	1265,64
792,15	1320,94
792,32	1191,92
792,50	1300,46
792,67	1210,35
792,85	1253,36
793,02	1204,21
793,20	1296,36
793,37	1298,41
793,55	1290,22
793,72	1392,62
793,90	1300,46
794,07	1294,32
794,25	1212,40
794,42	1247,21
794,60	1253,36
794,77	1296,36
794,95	1247,21
795,12	1210,35
795,30	1230,83
795,47	1159,15
795,65	1282,03
795,82	1247,21
796,00	1273,84
796,17	1331,18
796,34	1282,03
796,52	1216,49
796,69	1277,93
796,87	1198,06
797,04	1210,35
797,22	1327,08
797,39	1243,12
797,57	1216,49
797,74	1236,97
797,92	1318,89
798,09	1255,40
798,27	1337,32
798,44	1331,18
798,62	1273,84
798,79	1228,78
798,96	1212,40
799,14	1327,08
799,31	1214,45
799,49	1290,22
799,66	1228,78
799,84	1296,36
800,01	1286,12
800,19	1329,13
800,36	1239,02
800,53	1253,36
800,71	1273,84
800,88	1210,35
801,06	1245,16
801,23	1234,93
801,41	1232,88
801,58	1253,36
801,75	1243,12
801,93	1288,17
802,10	1320,94
802,28	1196,01
802,45	1169,39
802,63	1277,93
802,80	1282,03
802,97	1257,45
803,15	1275,88
803,32	1302,51
803,50	1290,22
803,67	1271,79
803,84	1314,80
804,02	1267,69
804,19	1271,79
804,37	1243,12
804,54	1282,03
804,71	1247,21
804,89	1218,54
805,06	1239,02
805,24	1236,97
805,41	1208,30
805,58	1249,26
805,76	1257,45
805,93	1267,69
806,10	1243,12
806,28	1241,07
806,45	1249,26
806,63	1286,12
806,80	1310,70
806,97	1249,26
807,15	1353,71
807,32	1298,41
807,49	1212,40
807,67	1275,88
807,84	1290,22
808,01	1245,16
808,19	1296,36
808,36	1245,16
808,54	1351,66
808,71	1202,16
808,88	1247,21
809,06	1271,79
809,23	1257,45
809,40	1245,16
809,58	1232,88
809,75	1269,74
809,92	1282,03
810,10	1245,16
810,27	1341,42
810,44	1189,87
810,62	1271,79
810,79	1261,55
810,96	1255,40
811,14	1306,60
811,31	1239,02
811,48	1333,23
811,66	1304,56
811,83	1361,90
812,00	1255,40
812,18	1282,03
812,35	1224,69
812,52	1292,27
812,69	1355,76
812,87	1236,97
813,04	1230,83
813,21	1216,49
813,39	1275,88
813,56	1318,89
813,73	1282,03
813,91	1265,64
814,08	1228,78
814,25	1279,98
814,42	1329,13
814,60	1249,26
814,77	1282,03
814,94	1304,56
815,12	1282,03
815,29	1374,19
815,46	1282,03
815,63	1249,26
815,81	1322,99
815,98	1265,64
816,15	1259,50
816,33	1257,45
816,50	1282,03
816,67	1228,78
816,84	1228,78
817,02	1292,27
817,19	1255,40
817,36	1265,64
817,53	1298,41
817,71	1220,59
817,88	1236,97
818,05	1298,41
818,22	1279,98
818,40	1234,93
818,57	1286,12
818,74	1253,36
818,91	1310,70
819,09	1288,17
819,26	1325,04
819,43	1220,59
819,60	1269,74
819,78	1310,70
819,95	1290,22
820,12	1236,97
820,29	1251,31
820,47	1286,12
820,64	1339,37
820,81	1257,45
820,98	1277,93
821,15	1269,74
821,33	1241,07
821,50	1245,16
821,67	1322,99
821,84	1218,54
822,02	1300,46
822,19	1247,21
822,36	1271,79
822,53	1290,22
822,70	1284,08
822,88	1273,84
823,05	1298,41
823,22	1153,01
823,39	1277,93
823,56	1249,26
823,74	1353,71
823,91	1255,40
824,08	1306,60
824,25	1300,46
824,42	1290,22
824,60	1257,45
824,77	1253,36
824,94	1257,45
825,11	1320,94
825,28	1263,60
825,45	1253,36
825,63	1294,32
825,80	1232,88
825,97	1251,31
826,14	1322,99
826,31	1161,20
826,48	1200,11
826,66	1210,35
826,83	1216,49
827,00	1212,40
827,17	1265,64
827,34	1251,31
827,51	1259,50
827,69	1300,46
827,86	1241,07
828,03	1220,59
828,20	1234,93
828,37	1228,78
828,54	1216,49
828,71	1271,79
828,89	1273,84
829,06	1200,11
829,23	1263,60
829,40	1265,64
829,57	1206,25
829,74	1288,17
829,91	1306,60
830,09	1212,40
830,26	1279,98
830,43	1212,40
830,60	1263,60
830,77	1259,50
830,94	1374,19
831,11	1320,94
831,28	1222,64
831,46	1185,77
831,63	1286,12
831,80	1230,83
831,97	1282,03
832,14	1304,56
832,31	1300,46
832,48	1306,60
832,65	1271,79
832,82	1320,94
832,99	1241,07
833,17	1228,78
833,34	1249,26
833,51	1208,30
833,68	1318,89
833,85	1251,31
834,02	1290,22
834,19	1236,97
834,36	1255,40
834,53	1228,78
834,70	1255,40
834,87	1230,83
835,04	1288,17
835,22	1210,35
835,39	1251,31
835,56	1277,93
835,73	1218,54
835,90	1263,60
836,07	1265,64
836,24	1306,60
836,41	1273,84
836,58	1353,71
836,75	1288,17
836,92	1335,28
837,09	1206,25
837,26	1302,51
837,43	1224,69
837,60	1314,80
837,77	1304,56
837,94	1335,28
838,12	1267,69
838,29	1279,98
838,46	1222,64
838,63	1333,23
838,80	1232,88
838,97	1226,73
839,14	1341,42
839,31	1187,82
839,48	1241,07
839,65	1243,12
839,82	1249,26
839,99	1224,69
840,16	1265,64
840,33	1267,69
840,50	1316,84
840,67	1263,60
840,84	1279,98
841,01	1333,23
841,18	1290,22
841,35	1259,50
841,52	1347,56
841,69	1277,93
841,86	1279,98
842,03	1298,41
842,20	1282,03
842,37	1277,93
842,54	1257,45
842,71	1193,97
842,88	1288,17
843,05	1253,36
843,22	1271,79
843,39	1296,36
843,56	1257,45
843,73	1226,73
843,90	1241,07
844,07	1247,21
844,24	1230,83
844,41	1247,21
844,58	1243,12
844,75	1216,49
844,92	1214,45
845,09	1273,84
845,26	1210,35
845,43	1261,55
845,60	1290,22
845,77	1204,21
845,94	1347,56
846,10	1316,84
846,27	1288,17
846,44	1300,46
846,61	1318,89
846,78	1294,32
846,95	1296,36
847,12	1175,53
847,29	1259,50
847,46	1339,37
847,63	1202,16
847,80	1214,45
847,97	1290,22
848,14	1198,06
848,31	1271,79
848,48	1241,07
848,65	1228,78
848,82	1232,88
848,98	1275,88
849,15	1265,64
849,32	1247,21
849,49	1236,97
849,66	1284,08
849,83	1277,93
850,00	1269,74
850,17	1251,31
850,34	1249,26
850,51	1257,45
850,68	1265,64
850,85	1290,22
851,01	1277,93
851,18	1243,12
851,35	1255,40
851,52	1310,70
851,69	1275,88
851,86	1275,88
852,03	1247,21
852,20	1275,88
852,37	1314,80
852,53	1224,69
852,70	1212,40
852,87	1150,96
853,04	1284,08
853,21	1263,60
853,38	1314,80
853,55	1230,83
853,72	1273,84
853,89	1263,60
854,05	1171,44
854,22	1310,70
854,39	1343,47
854,56	1277,93
854,73	1257,45
854,90	1290,22
855,07	1232,88
855,23	1298,41
855,40	1294,32
855,57	1214,45
855,74	1372,14
855,91	1271,79
856,08	1331,18
856,25	1249,26
856,41	1232,88
856,58	1245,16
856,75	1337,32
856,92	1255,40
857,09	1273,84
857,26	1241,07
857,42	1249,26
857,59	1279,98
857,76	1243,12
857,93	1300,46
858,10	1265,64
858,27	1351,66
858,43	1196,01
858,60	1286,12
858,77	1269,74
858,94	1224,69
859,11	1239,02
859,27	1300,46
859,44	1269,74
859,61	1255,40
859,78	1290,22
859,95	1253,36
860,12	1314,80
860,28	1253,36
860,45	1286,12
860,62	1253,36
860,79	1306,60
860,95	1228,78
861,12	1284,08
861,29	1282,03
861,46	1261,55
861,63	1269,74
861,79	1245,16
861,96	1255,40
862,13	1271,79
862,30	1273,84
862,47	1247,21
862,63	1236,97
862,80	1290,22
862,97	1300,46
863,14	1261,55
863,30	1241,07
863,47	1251,31
863,64	1308,65
863,81	1273,84
863,97	1218,54
864,14	1290,22
864,31	1230,83
864,48	1284,08
864,65	1331,18
864,81	1312,75
864,98	1322,99
865,15	1271,79
865,32	1279,98
865,48	1200,11
865,65	1269,74
865,82	1292,27
865,98	1259,50
866,15	1282,03
866,32	1261,55
866,49	1232,88
866,65	1320,94
866,82	1314,80
866,99	1212,40
867,16	1255,40
867,32	1298,41
867,49	1325,04
867,66	1259,50
867,83	1298,41
867,99	1304,56
868,16	1310,70
868,33	1230,83
868,49	1333,23
868,66	1310,70
868,83	1288,17
868,99	1290,22
869,16	1234,93
869,33	1228,78
869,50	1196,01
869,66	1261,55
869,83	1265,64
870,00	1277,93
870,16	1239,02
870,33	1306,60
870,50	1236,97
870,66	1275,88
870,83	1331,18
871,00	1275,88
871,17	1290,22
871,33	1236,97
871,50	1249,26
871,67	1316,84
871,83	1204,21
872,00	1259,50
872,17	1279,98
872,33	1294,32
872,50	1292,27
872,67	1296,36
872,83	1247,21
873,00	1316,84
873,17	1271,79
873,33	1239,02
873,50	1263,60
873,67	1271,79
873,83	1243,12
874,00	1251,31
874,16	1286,12
874,33	1282,03
874,50	1216,49
874,66	1206,25
874,83	1259,50
875,00	1232,88
875,16	1185,77
875,33	1306,60
875,50	1253,36
875,66	1306,60
875,83	1257,45
875,99	1222,64
876,16	1294,32
876,33	1210,35
876,49	1216,49
876,66	1224,69
876,83	1322,99
876,99	1265,64
877,16	1306,60
877,32	1271,79
877,49	1247,21
877,66	1234,93
877,82	1232,88
877,99	1308,65
878,15	1277,93
878,32	1245,16
878,49	1230,83
878,65	1288,17
878,82	1273,84
878,98	1286,12
879,15	1218,54
879,32	1261,55
879,48	1277,93
879,65	1198,06
879,81	1171,44
879,98	1204,21
880,15	1249,26
880,31	1273,84
880,48	1189,87
880,64	1304,56
880,81	1300,46
880,97	1282,03
881,14	1236,97
881,31	1255,40
881,47	1267,69
881,64	1234,93
881,80	1247,21
881,97	1304,56
882,13	1337,32
882,30	1206,25
882,47	1310,70
882,63	1249,26
882,80	1241,07
882,96	1249,26
883,13	1226,73
883,29	1310,70
883,46	1200,11
883,62	1259,50
883,79	1308,65
883,95	1261,55
884,12	1249,26
884,29	1153,01
884,45	1251,31
884,62	1232,88
884,78	1196,01
884,95	1290,22
885,11	1296,36
885,28	1265,64
885,44	1273,84
885,61	1239,02
885,77	1236,97
885,94	1247,21
886,10	1253,36
886,27	1228,78
886,43	1310,70
886,60	1253,36
886,76	1224,69
886,93	1255,40
887,09	1261,55
887,26	1212,40
887,42	1259,50
887,59	1200,11
887,75	1247,21
887,92	1249,26
888,08	1265,64
888,25	1265,64
888,41	1200,11
888,58	1259,50
888,74	1322,99
888,91	1210,35
>>>>>End Processed Spectral Data<<<<<
