SpectraSuite Data File
++++++++++++++++++++++++++++++++++++
Date: Sun Apr 03 19:55:51 CEST 2016
User: root
Dark Spectrum Present: No
Reference Spectrum Present: No
Number of Sampled Component Spectra: 1
Spectrometers: USB4C02835
Integration Time (usec): 10000 (USB4C02835)
Spectra Averaged: 1 (USB4C02835)
Boxcar Smoothing: 0 (USB4C02835)
Correct for Electrical Dark: No (USB4C02835)
Strobe/Lamp Enabled: No (USB4C02835)
Correct for Detector Non-linearity: No (USB4C02835)
Correct for Stray Light: No (USB4C02835)
Number of Pixels in Processed Spectrum: 3648
>>>>>Begin Processed Spectral Data<<<<<
177,47	1290,22
177,69	1290,22
177,91	1290,22
178,13	1236,97
178,36	1224,69
178,58	1290,22
178,80	1253,36
179,02	1210,35
179,24	1298,41
179,46	1189,87
179,68	1302,51
179,90	1265,64
180,13	1236,97
180,35	1288,17
180,57	1292,27
180,79	1243,12
181,01	1282,03
181,23	1337,32
181,45	1261,55
181,67	1220,59
181,90	1306,60
182,12	1277,93
182,34	1257,45
182,56	1290,22
182,78	1308,65
183,00	1308,65
183,22	1255,40
183,44	1208,30
183,66	1314,80
183,89	1343,47
184,11	1222,64
184,33	1292,27
184,55	1286,12
184,77	1220,59
184,99	1263,60
185,21	1269,74
185,43	1251,31
185,65	1355,76
185,87	1218,54
186,10	1292,27
186,32	1304,56
186,54	1277,93
186,76	1236,97
186,98	1273,84
187,20	1298,41
187,42	1314,80
187,64	1310,70
187,86	1310,70
188,08	1228,78
188,30	1249,26
188,52	1320,94
188,75	1292,27
188,97	1282,03
189,19	1304,56
189,41	1253,36
189,63	1265,64
189,85	1204,21
190,07	1257,45
190,29	1273,84
190,51	1290,22
190,73	1259,50
190,95	1251,31
191,17	1284,08
191,39	1329,13
191,61	1243,12
191,84	1284,08
192,06	1282,03
192,28	1279,98
192,50	1279,98
192,72	1249,26
192,94	1318,89
193,16	1343,47
193,38	1191,92
193,60	1259,50
193,82	1277,93
194,04	1247,21
194,26	1306,60
194,48	1220,59
194,70	1261,55
194,92	1257,45
195,14	1288,17
195,36	1212,40
195,58	1239,02
195,80	1269,74
196,02	1282,03
196,24	1218,54
196,46	1306,60
196,69	1265,64
196,91	1275,88
197,13	1294,32
197,35	1196,01
197,57	1247,21
197,79	1245,16
198,01	1273,84
198,23	1210,35
198,45	1253,36
198,67	1273,84
198,89	1257,45
199,11	1288,17
199,33	1331,18
199,55	1267,69
199,77	1253,36
199,99	1322,99
200,21	1306,60
200,43	1282,03
200,65	1267,69
200,87	1294,32
201,09	1263,60
201,31	1290,22
201,53	1331,18
201,75	1282,03
201,97	1247,21
202,19	1251,31
202,41	1232,88
202,63	1216,49
202,85	1318,89
203,07	1275,88
203,29	1216,49
203,51	1294,32
203,73	1261,55
203,95	1349,61
204,17	1263,60
204,39	1253,36
204,61	1298,41
204,83	1230,83
205,05	1212,40
205,27	1232,88
205,49	1206,25
205,71	1310,70
205,93	1271,79
206,15	1345,52
206,37	1271,79
206,59	1255,40
206,81	1175,53
207,03	1216,49
207,25	1288,17
207,47	1247,21
207,69	1304,56
207,91	1320,94
208,13	1200,11
208,34	1292,27
208,56	1265,64
208,78	1316,84
209,00	1249,26
209,22	1304,56
209,44	1294,32
209,66	1275,88
209,88	1318,89
210,10	1228,78
210,32	1220,59
210,54	1214,45
210,76	1261,55
210,98	1290,22
211,20	1253,36
211,42	1259,50
211,64	1329,13
211,86	1259,50
212,08	1241,07
212,30	1378,28
212,52	1275,88
212,74	1288,17
212,96	1245,16
213,17	1232,88
213,39	1265,64
213,61	1249,26
213,83	1273,84
214,05	1243,12
214,27	1232,88
214,49	1243,12
214,71	1271,79
214,93	1288,17
215,15	1267,69
215,37	1296,36
215,59	1265,64
215,81	1339,37
216,03	1214,45
216,24	1286,12
216,46	1290,22
216,68	1290,22
216,90	1312,75
217,12	1273,84
217,34	1279,98
217,56	1230,83
217,78	1298,41
218,00	1212,40
218,22	1216,49
218,44	1204,21
218,66	1241,07
218,87	1294,32
219,09	1224,69
219,31	1255,40
219,53	1230,83
219,75	1279,98
219,97	1251,31
220,19	1241,07
220,41	1222,64
220,63	1347,56
220,85	1286,12
221,06	1243,12
221,28	1337,32
221,50	1286,12
221,72	1318,89
221,94	1304,56
222,16	1253,36
222,38	1290,22
222,60	1245,16
222,82	1257,45
223,03	1253,36
223,25	1251,31
223,47	1284,08
223,69	1282,03
223,91	1243,12
224,13	1314,80
224,35	1241,07
224,57	1298,41
224,78	1304,56
225,00	1200,11
225,22	1282,03
225,44	1222,64
225,66	1312,75
225,88	1306,60
226,10	1318,89
226,32	1261,55
226,53	1236,97
226,75	1298,41
226,97	1265,64
227,19	1239,02
227,41	1341,42
227,63	1282,03
227,85	1284,08
228,06	1290,22
228,28	1292,27
228,50	1222,64
228,72	1273,84
228,94	1265,64
229,16	1265,64
229,37	1234,93
229,59	1288,17
229,81	1255,40
230,03	1298,41
230,25	1304,56
230,47	1306,60
230,69	1273,84
230,90	1220,59
231,12	1294,32
231,34	1312,75
231,56	1259,50
231,78	1226,73
232,00	1325,04
232,21	1284,08
232,43	1232,88
232,65	1284,08
232,87	1241,07
233,09	1298,41
233,30	1314,80
233,52	1267,69
233,74	1198,06
233,96	1232,88
234,18	1208,30
234,40	1245,16
234,61	1269,74
234,83	1294,32
235,05	1282,03
235,27	1288,17
235,49	1239,02
235,70	1236,97
235,92	1298,41
236,14	1269,74
236,36	1288,17
236,58	1298,41
236,79	1337,32
237,01	1294,32
237,23	1232,88
237,45	1325,04
237,67	1249,26
237,88	1306,60
238,10	1255,40
238,32	1222,64
238,54	1243,12
238,76	1232,88
238,97	1341,42
239,19	1267,69
239,41	1255,40
239,63	1249,26
239,85	1306,60
240,06	1239,02
240,28	1294,32
240,50	1290,22
240,72	1298,41
240,93	1333,23
241,15	1263,60
241,37	1230,83
241,59	1263,60
241,81	1212,40
242,02	1296,36
242,24	1208,30
242,46	1271,79
242,68	1251,31
242,89	1249,26
243,11	1318,89
243,33	1355,76
243,55	1335,28
243,76	1316,84
243,98	1284,08
244,20	1196,01
244,42	1331,18
244,64	1296,36
244,85	1302,51
245,07	1277,93
245,29	1247,21
245,51	1249,26
245,72	1304,56
245,94	1259,50
246,16	1173,49
246,38	1288,17
246,59	1226,73
246,81	1312,75
247,03	1279,98
247,24	1288,17
247,46	1212,40
247,68	1318,89
247,90	1251,31
248,11	1329,13
248,33	1320,94
248,55	1220,59
248,77	1298,41
248,98	1265,64
249,20	1267,69
249,42	1320,94
249,64	1316,84
249,85	1245,16
250,07	1277,93
250,29	1216,49
250,50	1257,45
250,72	1208,30
250,94	1210,35
251,16	1253,36
251,37	1247,21
251,59	1251,31
251,81	1286,12
252,02	1267,69
252,24	1171,44
252,46	1320,94
252,68	1333,23
252,89	1290,22
253,11	1316,84
253,33	1300,46
253,54	1198,06
253,76	1302,51
253,98	1179,63
254,20	1370,09
254,41	1224,69
254,63	1212,40
254,85	1210,35
255,06	1366,00
255,28	1241,07
255,50	1249,26
255,71	1294,32
255,93	1245,16
256,15	1286,12
256,36	1279,98
256,58	1224,69
256,80	1282,03
257,02	1200,11
257,23	1253,36
257,45	1314,80
257,67	1335,28
257,88	1339,37
258,10	1298,41
258,32	1251,31
258,53	1304,56
258,75	1232,88
258,97	1228,78
259,18	1259,50
259,40	1241,07
259,62	1341,42
259,83	1288,17
260,05	1271,79
260,27	1363,95
260,48	1277,93
260,70	1241,07
260,92	1290,22
261,13	1320,94
261,35	1206,25
261,57	1279,98
261,78	1288,17
262,00	1208,30
262,22	1236,97
262,43	1300,46
262,65	1284,08
262,86	1290,22
263,08	1251,31
263,30	1245,16
263,51	1302,51
263,73	1279,98
263,95	1228,78
264,16	1294,32
264,38	1247,21
264,60	1304,56
264,81	1261,55
265,03	1261,55
265,25	1284,08
265,46	1308,65
265,68	1290,22
265,89	1316,84
266,11	1286,12
266,33	1320,94
266,54	1247,21
266,76	1214,45
266,98	1314,80
267,19	1318,89
267,41	1329,13
267,62	1212,40
267,84	1279,98
268,06	1257,45
268,27	1400,81
268,49	1331,18
268,70	1318,89
268,92	1290,22
269,14	1245,16
269,35	1208,30
269,57	1292,27
269,79	1294,32
270,00	1208,30
270,22	1241,07
270,43	1261,55
270,65	1255,40
270,87	1232,88
271,08	1271,79
271,30	1226,73
271,51	1249,26
271,73	1316,84
271,95	1288,17
272,16	1239,02
272,38	1322,99
272,59	1279,98
272,81	1296,36
273,02	1253,36
273,24	1218,54
273,46	1353,71
273,67	1239,02
273,89	1298,41
274,10	1300,46
274,32	1298,41
274,54	1232,88
274,75	1318,89
274,97	1284,08
275,18	1210,35
275,40	1296,36
275,61	1275,88
275,83	1212,40
276,05	1236,97
276,26	1204,21
276,48	1251,31
276,69	1363,95
276,91	1245,16
277,12	1284,08
277,34	1212,40
277,55	1279,98
277,77	1292,27
277,99	1261,55
278,20	1214,45
278,42	1220,59
278,63	1257,45
278,85	1234,93
279,06	1247,21
279,28	1224,69
279,49	1302,51
279,71	1306,60
279,93	1265,64
280,14	1265,64
280,36	1257,45
280,57	1282,03
280,79	1239,02
281,00	1298,41
281,22	1222,64
281,43	1288,17
281,65	1253,36
281,86	1253,36
282,08	1243,12
282,29	1269,74
282,51	1218,54
282,73	1239,02
282,94	1232,88
283,16	1202,16
283,37	1259,50
283,59	1296,36
283,80	1282,03
284,02	1261,55
284,23	1273,84
284,45	1226,73
284,66	1267,69
284,88	1296,36
285,09	1277,93
285,31	1222,64
285,52	1222,64
285,74	1275,88
285,95	1353,71
286,17	1189,87
286,38	1269,74
286,60	1284,08
286,81	1204,21
287,03	1232,88
287,24	1200,11
287,46	1247,21
287,67	1171,44
287,89	1230,83
288,10	1243,12
288,32	1257,45
288,53	1234,93
288,75	1273,84
288,96	1290,22
289,18	1265,64
289,39	1249,26
289,61	1230,83
289,82	1294,32
290,04	1224,69
290,25	1277,93
290,47	1232,88
290,68	1263,60
290,90	1284,08
291,11	1218,54
291,33	1251,31
291,54	1265,64
291,76	1331,18
291,97	1298,41
292,18	1224,69
292,40	1198,06
292,61	1230,83
292,83	1218,54
293,04	1306,60
293,26	1318,89
293,47	1212,40
293,69	1288,17
293,90	1363,95
294,12	1286,12
294,33	1185,77
294,55	1191,92
294,76	1282,03
294,97	1306,60
295,19	1269,74
295,40	1255,40
295,62	1318,89
295,83	1253,36
296,05	1310,70
296,26	1251,31
296,48	1279,98
296,69	1232,88
296,90	1265,64
297,12	1265,64
297,33	1241,07
297,55	1355,76
297,76	1261,55
297,98	1333,23
298,19	1191,92
298,41	1265,64
298,62	1245,16
298,83	1337,32
299,05	1218,54
299,26	1243,12
299,48	1247,21
299,69	1333,23
299,90	1265,64
300,12	1232,88
300,33	1210,35
300,55	1249,26
300,76	1220,59
300,98	1210,35
301,19	1308,65
301,40	1298,41
301,62	1312,75
301,83	1349,61
302,05	1353,71
302,26	1245,16
302,47	1232,88
302,69	1230,83
302,90	1320,94
303,12	1224,69
303,33	1265,64
303,54	1249,26
303,76	1216,49
303,97	1269,74
304,19	1279,98
304,40	1204,21
304,61	1277,93
304,83	1275,88
305,04	1282,03
305,26	1206,25
305,47	1239,02
305,68	1282,03
305,90	1304,56
306,11	1249,26
306,33	1277,93
306,54	1204,21
306,75	1255,40
306,97	1296,36
307,18	1202,16
307,39	1239,02
307,61	1306,60
307,82	1249,26
308,04	1279,98
308,25	1253,36
308,46	1232,88
308,68	1366,00
308,89	1300,46
309,10	1259,50
309,32	1271,79
309,53	1257,45
309,74	1241,07
309,96	1269,74
310,17	1286,12
310,39	1271,79
310,60	1306,60
310,81	1292,27
311,03	1294,32
311,24	1257,45
311,45	1308,65
311,67	1255,40
311,88	1316,84
312,09	1224,69
312,31	1314,80
312,52	1236,97
312,73	1267,69
312,95	1165,29
313,16	1232,88
313,37	1329,13
313,59	1202,16
313,80	1220,59
314,01	1296,36
314,23	1290,22
314,44	1304,56
314,65	1241,07
314,87	1234,93
315,08	1294,32
315,29	1245,16
315,51	1271,79
315,72	1304,56
315,93	1232,88
316,15	1310,70
316,36	1222,64
316,57	1298,41
316,79	1265,64
317,00	1255,40
317,21	1298,41
317,43	1236,97
317,64	1210,35
317,85	1271,79
318,07	1296,36
318,28	1247,21
318,49	1257,45
318,70	1261,55
318,92	1228,78
319,13	1304,56
319,34	1267,69
319,56	1245,16
319,77	1236,97
319,98	1245,16
320,20	1282,03
320,41	1339,37
320,62	1267,69
320,83	1273,84
321,05	1302,51
321,26	1304,56
321,47	1222,64
321,69	1294,32
321,90	1294,32
322,11	1282,03
322,32	1267,69
322,54	1337,32
322,75	1189,87
322,96	1263,60
323,18	1279,98
323,39	1277,93
323,60	1275,88
323,81	1302,51
324,03	1275,88
324,24	1271,79
324,45	1288,17
324,66	1290,22
324,88	1218,54
325,09	1249,26
325,30	1249,26
325,52	1290,22
325,73	1208,30
325,94	1265,64
326,15	1208,30
326,37	1279,98
326,58	1298,41
326,79	1294,32
327,00	1282,03
327,22	1304,56
327,43	1261,55
327,64	1298,41
327,85	1253,36
328,07	1271,79
328,28	1298,41
328,49	1378,28
328,70	1232,88
328,92	1308,65
329,13	1236,97
329,34	1292,27
329,55	1245,16
329,76	1232,88
329,98	1269,74
330,19	1253,36
330,40	1279,98
330,61	1308,65
330,83	1337,32
331,04	1247,21
331,25	1314,80
331,46	1175,53
331,68	1251,31
331,89	1265,64
332,10	1355,76
332,31	1271,79
332,52	1234,93
332,74	1331,18
332,95	1290,22
333,16	1255,40
333,37	1300,46
333,58	1216,49
333,80	1255,40
334,01	1263,60
334,22	1183,73
334,43	1228,78
334,64	1243,12
334,86	1241,07
335,07	1343,47
335,28	1255,40
335,49	1200,11
335,70	1284,08
335,92	1304,56
336,13	1208,30
336,34	1327,08
336,55	1273,84
336,76	1290,22
336,98	1312,75
337,19	1265,64
337,40	1222,64
337,61	1269,74
337,82	1269,74
338,04	1196,01
338,25	1245,16
338,46	1249,26
338,67	1331,18
338,88	1271,79
339,09	1320,94
339,31	1226,73
339,52	1294,32
339,73	1294,32
339,94	1322,99
340,15	1218,54
340,36	1282,03
340,58	1247,21
340,79	1261,55
341,00	1255,40
341,21	1265,64
341,42	1308,65
341,63	1277,93
341,85	1312,75
342,06	1329,13
342,27	1337,32
342,48	1271,79
342,69	1284,08
342,90	1349,61
343,12	1245,16
343,33	1279,98
343,54	1232,88
343,75	1351,66
343,96	1275,88
344,17	1282,03
344,38	1257,45
344,60	1204,21
344,81	1232,88
345,02	1255,40
345,23	1255,40
345,44	1249,26
345,65	1257,45
345,86	1269,74
346,07	1249,26
346,29	1257,45
346,50	1247,21
346,71	1265,64
346,92	1222,64
347,13	1239,02
347,34	1222,64
347,55	1284,08
347,76	1251,31
347,98	1245,16
348,19	1329,13
348,40	1279,98
348,61	1234,93
348,82	1228,78
349,03	1234,93
349,24	1214,45
349,45	1282,03
349,66	1251,31
349,88	1253,36
350,09	1277,93
350,30	1275,88
350,51	1310,70
350,72	1273,84
350,93	1230,83
351,14	1239,02
351,35	1241,07
351,56	1175,53
351,77	1292,27
351,99	1271,79
352,20	1224,69
352,41	1341,42
352,62	1230,83
352,83	1279,98
353,04	1288,17
353,25	1273,84
353,46	1308,65
353,67	1314,80
353,88	1288,17
354,09	1345,52
354,30	1337,32
354,52	1290,22
354,73	1230,83
354,94	1181,68
355,15	1236,97
355,36	1236,97
355,57	1327,08
355,78	1288,17
355,99	1257,45
356,20	1300,46
356,41	1249,26
356,62	1300,46
356,83	1306,60
357,04	1259,50
357,25	1277,93
357,46	1310,70
357,68	1347,56
357,89	1288,17
358,10	1263,60
358,31	1265,64
358,52	1284,08
358,73	1294,32
358,94	1259,50
359,15	1265,64
359,36	1187,82
359,57	1351,66
359,78	1292,27
359,99	1277,93
360,20	1208,30
360,41	1247,21
360,62	1288,17
360,83	1228,78
361,04	1212,40
361,25	1196,01
361,46	1292,27
361,67	1300,46
361,88	1247,21
362,09	1310,70
362,30	1259,50
362,51	1249,26
362,72	1253,36
362,93	1269,74
363,14	1253,36
363,35	1273,84
363,56	1300,46
363,78	1329,13
363,99	1277,93
364,20	1255,40
364,41	1320,94
364,62	1337,32
364,83	1255,40
365,04	1243,12
365,25	1251,31
365,46	1259,50
365,67	1269,74
365,88	1294,32
366,09	1198,06
366,30	1253,36
366,51	1257,45
366,72	1202,16
366,93	1273,84
367,14	1232,88
367,35	1341,42
367,56	1210,35
367,77	1273,84
367,98	1298,41
368,18	1298,41
368,39	1155,05
368,60	1243,12
368,81	1216,49
369,02	1243,12
369,23	1220,59
369,44	1312,75
369,65	1236,97
369,86	1261,55
370,07	1251,31
370,28	1265,64
370,49	1208,30
370,70	1200,11
370,91	1296,36
371,12	1284,08
371,33	1312,75
371,54	1372,14
371,75	1300,46
371,96	1277,93
372,17	1298,41
372,38	1263,60
372,59	1318,89
372,80	1282,03
373,01	1210,35
373,22	1257,45
373,43	1232,88
373,64	1257,45
373,85	1208,30
374,06	1265,64
374,26	1181,68
374,47	1224,69
374,68	1257,45
374,89	1206,25
375,10	1249,26
375,31	1269,74
375,52	1296,36
375,73	1339,37
375,94	1327,08
376,15	1296,36
376,36	1236,97
376,57	1243,12
376,78	1271,79
376,99	1294,32
377,20	1259,50
377,40	1294,32
377,61	1269,74
377,82	1306,60
378,03	1275,88
378,24	1304,56
378,45	1288,17
378,66	1277,93
378,87	1224,69
379,08	1226,73
379,29	1247,21
379,50	1247,21
379,71	1232,88
379,91	1265,64
380,12	1263,60
380,33	1312,75
380,54	1220,59
380,75	1331,18
380,96	1331,18
381,17	1263,60
381,38	1236,97
381,59	1314,80
381,80	1279,98
382,00	1245,16
382,21	1239,02
382,42	1241,07
382,63	1302,51
382,84	1282,03
383,05	1232,88
383,26	1204,21
383,47	1243,12
383,68	1286,12
383,88	1277,93
384,09	1378,28
384,30	1310,70
384,51	1222,64
384,72	1312,75
384,93	1333,23
385,14	1224,69
385,35	1263,60
385,55	1286,12
385,76	1232,88
385,97	1286,12
386,18	1259,50
386,39	1247,21
386,60	1228,78
386,81	1249,26
387,02	1335,28
387,22	1339,37
387,43	1310,70
387,64	1261,55
387,85	1228,78
388,06	1263,60
388,27	1265,64
388,48	1300,46
388,68	1251,31
388,89	1275,88
389,10	1224,69
389,31	1239,02
389,52	1243,12
389,73	1245,16
389,93	1282,03
390,14	1230,83
390,35	1210,35
390,56	1310,70
390,77	1263,60
390,98	1325,04
391,18	1296,36
391,39	1337,32
391,60	1329,13
391,81	1314,80
392,02	1294,32
392,23	1271,79
392,43	1224,69
392,64	1277,93
392,85	1302,51
393,06	1290,22
393,27	1294,32
393,47	1267,69
393,68	1236,97
393,89	1232,88
394,10	1318,89
394,31	1288,17
394,52	1247,21
394,72	1292,27
394,93	1325,04
395,14	1263,60
395,35	1282,03
395,56	1208,30
395,76	1310,70
395,97	1243,12
396,18	1232,88
396,39	1206,25
396,60	1241,07
396,80	1304,56
397,01	1282,03
397,22	1249,26
397,43	1290,22
397,64	1253,36
397,84	1298,41
398,05	1239,02
398,26	1271,79
398,47	1265,64
398,67	1275,88
398,88	1247,21
399,09	1318,89
399,30	1269,74
399,51	1312,75
399,71	1206,25
399,92	1239,02
400,13	1277,93
400,34	1226,73
400,54	1296,36
400,75	1241,07
400,96	1230,83
401,17	1277,93
401,37	1290,22
401,58	1282,03
401,79	1193,97
402,00	1257,45
402,21	1265,64
402,41	1255,40
402,62	1175,53
402,83	1267,69
403,04	1265,64
403,24	1279,98
403,45	1220,59
403,66	1284,08
403,87	1226,73
404,07	1257,45
404,28	1241,07
404,49	1296,36
404,70	1269,74
404,90	1284,08
405,11	1290,22
405,32	1294,32
405,52	1284,08
405,73	1284,08
405,94	1325,04
406,15	1279,98
406,35	1284,08
406,56	1273,84
406,77	1255,40
406,98	1228,78
407,18	1304,56
407,39	1218,54
407,60	1230,83
407,80	1245,16
408,01	1329,13
408,22	1249,26
408,43	1306,60
408,63	1316,84
408,84	1304,56
409,05	1232,88
409,25	1214,45
409,46	1255,40
409,67	1200,11
409,88	1273,84
410,08	1290,22
410,29	1243,12
410,50	1249,26
410,70	1271,79
410,91	1187,82
411,12	1265,64
411,32	1284,08
411,53	1241,07
411,74	1298,41
411,95	1255,40
412,15	1296,36
412,36	1290,22
412,57	1234,93
412,77	1286,12
412,98	1279,98
413,19	1245,16
413,39	1171,44
413,60	1251,31
413,81	1230,83
414,01	1331,18
414,22	1294,32
414,43	1216,49
414,63	1247,21
414,84	1249,26
415,05	1312,75
415,25	1247,21
415,46	1265,64
415,67	1249,26
415,87	1302,51
416,08	1232,88
416,29	1257,45
416,49	1271,79
416,70	1275,88
416,91	1267,69
417,11	1288,17
417,32	1239,02
417,53	1310,70
417,73	1234,93
417,94	1341,42
418,15	1284,08
418,35	1224,69
418,56	1341,42
418,77	1363,95
418,97	1312,75
419,18	1292,27
419,38	1271,79
419,59	1200,11
419,80	1273,84
420,00	1230,83
420,21	1294,32
420,42	1290,22
420,62	1224,69
420,83	1208,30
421,04	1257,45
421,24	1286,12
421,45	1306,60
421,65	1202,16
421,86	1241,07
422,07	1273,84
422,27	1296,36
422,48	1327,08
422,69	1292,27
422,89	1282,03
423,10	1228,78
423,30	1236,97
423,51	1345,52
423,72	1294,32
423,92	1345,52
424,13	1257,45
424,33	1273,84
424,54	1200,11
424,75	1259,50
424,95	1275,88
425,16	1335,28
425,36	1267,69
425,57	1236,97
425,78	1286,12
425,98	1271,79
426,19	1273,84
426,39	1273,84
426,60	1153,01
426,81	1294,32
427,01	1275,88
427,22	1183,73
427,42	1210,35
427,63	1372,14
427,83	1269,74
428,04	1343,47
428,25	1204,21
428,45	1302,51
428,66	1269,74
428,86	1222,64
429,07	1236,97
429,28	1224,69
429,48	1208,30
429,69	1239,02
429,89	1277,93
430,10	1259,50
430,30	1318,89
430,51	1271,79
430,71	1249,26
430,92	1216,49
431,13	1226,73
431,33	1232,88
431,54	1222,64
431,74	1214,45
431,95	1228,78
432,15	1259,50
432,36	1187,82
432,56	1279,98
432,77	1222,64
432,98	1300,46
433,18	1279,98
433,39	1245,16
433,59	1343,47
433,80	1366,00
434,00	1245,16
434,21	1322,99
434,41	1232,88
434,62	1230,83
434,82	1187,82
435,03	1329,13
435,23	1247,21
435,44	1222,64
435,64	1220,59
435,85	1308,65
436,06	1241,07
436,26	1255,40
436,47	1288,17
436,67	1261,55
436,88	1247,21
437,08	1253,36
437,29	1236,97
437,49	1286,12
437,70	1294,32
437,90	1339,37
438,11	1279,98
438,31	1261,55
438,52	1251,31
438,72	1271,79
438,93	1253,36
439,13	1247,21
439,34	1279,98
439,54	1286,12
439,75	1298,41
439,95	1273,84
440,16	1171,44
440,36	1286,12
440,57	1290,22
440,77	1271,79
440,98	1343,47
441,18	1304,56
441,39	1304,56
441,59	1222,64
441,80	1255,40
442,00	1269,74
442,21	1339,37
442,41	1263,60
442,62	1241,07
442,82	1275,88
443,02	1232,88
443,23	1322,99
443,43	1222,64
443,64	1282,03
443,84	1220,59
444,05	1282,03
444,25	1271,79
444,46	1251,31
444,66	1300,46
444,87	1298,41
445,07	1251,31
445,28	1218,54
445,48	1273,84
445,69	1329,13
445,89	1279,98
446,09	1251,31
446,30	1329,13
446,50	1232,88
446,71	1253,36
446,91	1251,31
447,12	1355,76
447,32	1245,16
447,53	1318,89
447,73	1261,55
447,93	1239,02
448,14	1312,75
448,34	1296,36
448,55	1306,60
448,75	1275,88
448,96	1325,04
449,16	1288,17
449,36	1282,03
449,57	1269,74
449,77	1187,82
449,98	1282,03
450,18	1249,26
450,39	1298,41
450,59	1363,95
450,79	1273,84
451,00	1239,02
451,20	1286,12
451,41	1216,49
451,61	1243,12
451,81	1306,60
452,02	1284,08
452,22	1314,80
452,43	1337,32
452,63	1318,89
452,84	1269,74
453,04	1310,70
453,24	1331,18
453,45	1294,32
453,65	1294,32
453,86	1239,02
454,06	1288,17
454,26	1230,83
454,47	1222,64
454,67	1210,35
454,87	1253,36
455,08	1286,12
455,28	1228,78
455,49	1249,26
455,69	1271,79
455,89	1189,87
456,10	1271,79
456,30	1277,93
456,51	1241,07
456,71	1239,02
456,91	1282,03
457,12	1261,55
457,32	1265,64
457,52	1288,17
457,73	1318,89
457,93	1284,08
458,14	1277,93
458,34	1267,69
458,54	1220,59
458,75	1304,56
458,95	1314,80
459,15	1337,32
459,36	1263,60
459,56	1236,97
459,76	1267,69
459,97	1241,07
460,17	1310,70
460,37	1296,36
460,58	1214,45
460,78	1290,22
460,99	1273,84
461,19	1245,16
461,39	1265,64
461,60	1310,70
461,80	1232,88
462,00	1325,04
462,21	1273,84
462,41	1265,64
462,61	1265,64
462,82	1267,69
463,02	1400,81
463,22	1241,07
463,43	1177,58
463,63	1320,94
463,83	1183,73
464,04	1290,22
464,24	1294,32
464,44	1361,90
464,64	1255,40
464,85	1202,16
465,05	1327,08
465,25	1294,32
465,46	1271,79
465,66	1253,36
465,86	1327,08
466,07	1284,08
466,27	1263,60
466,47	1335,28
466,68	1298,41
466,88	1335,28
467,08	1318,89
467,29	1265,64
467,49	1277,93
467,69	1318,89
467,89	1269,74
468,10	1273,84
468,30	1351,66
468,50	1243,12
468,71	1257,45
468,91	1230,83
469,11	1290,22
469,31	1275,88
469,52	1251,31
469,72	1253,36
469,92	1249,26
470,13	1259,50
470,33	1322,99
470,53	1277,93
470,73	1271,79
470,94	1329,13
471,14	1255,40
471,34	1286,12
471,54	1179,63
471,75	1282,03
471,95	1255,40
472,15	1273,84
472,36	1284,08
472,56	1232,88
472,76	1277,93
472,96	1269,74
473,17	1232,88
473,37	1230,83
473,57	1259,50
473,77	1376,24
473,98	1222,64
474,18	1290,22
474,38	1282,03
474,58	1261,55
474,79	1306,60
474,99	1273,84
475,19	1257,45
475,39	1249,26
475,60	1288,17
475,80	1273,84
476,00	1282,03
476,20	1290,22
476,41	1308,65
476,61	1241,07
476,81	1277,93
477,01	1284,08
477,21	1230,83
477,42	1294,32
477,62	1243,12
477,82	1183,73
478,02	1212,40
478,23	1284,08
478,43	1263,60
478,63	1218,54
478,83	1282,03
479,03	1245,16
479,24	1206,25
479,44	1304,56
479,64	1269,74
479,84	1249,26
480,04	1339,37
480,25	1226,73
480,45	1282,03
480,65	1261,55
480,85	1249,26
481,06	1251,31
481,26	1304,56
481,46	1245,16
481,66	1228,78
481,86	1286,12
482,06	1282,03
482,27	1243,12
482,47	1261,55
482,67	1296,36
482,87	1218,54
483,07	1357,80
483,28	1169,39
483,48	1249,26
483,68	1308,65
483,88	1329,13
484,08	1277,93
484,29	1333,23
484,49	1259,50
484,69	1216,49
484,89	1239,02
485,09	1316,84
485,29	1290,22
485,50	1267,69
485,70	1236,97
485,90	1308,65
486,10	1294,32
486,30	1279,98
486,50	1220,59
486,71	1267,69
486,91	1310,70
487,11	1216,49
487,31	1243,12
487,51	1380,33
487,71	1320,94
487,91	1247,21
488,12	1257,45
488,32	1232,88
488,52	1294,32
488,72	1230,83
488,92	1329,13
489,12	1251,31
489,32	1294,32
489,53	1232,88
489,73	1288,17
489,93	1312,75
490,13	1259,50
490,33	1206,25
490,53	1220,59
490,73	1298,41
490,94	1286,12
491,14	1298,41
491,34	1345,52
491,54	1249,26
491,74	1253,36
491,94	1288,17
492,14	1351,66
492,34	1304,56
492,54	1243,12
492,75	1277,93
492,95	1284,08
493,15	1173,49
493,35	1269,74
493,55	1339,37
493,75	1159,15
493,95	1286,12
494,15	1269,74
494,35	1228,78
494,56	1255,40
494,76	1292,27
494,96	1261,55
495,16	1284,08
495,36	1300,46
495,56	1298,41
495,76	1255,40
495,96	1275,88
496,16	1249,26
496,36	1267,69
496,56	1267,69
496,77	1298,41
496,97	1302,51
497,17	1294,32
497,37	1277,93
497,57	1259,50
497,77	1318,89
497,97	1228,78
498,17	1329,13
498,37	1191,92
498,57	1333,23
498,77	1249,26
498,97	1214,45
499,17	1292,27
499,38	1226,73
499,58	1265,64
499,78	1339,37
499,98	1232,88
500,18	1239,02
500,38	1300,46
500,58	1302,51
500,78	1374,19
500,98	1306,60
501,18	1251,31
501,38	1251,31
501,58	1339,37
501,78	1339,37
501,98	1251,31
502,18	1257,45
502,38	1206,25
502,58	1261,55
502,78	1282,03
502,98	1296,36
503,18	1241,07
503,38	1261,55
503,59	1251,31
503,79	1277,93
503,99	1298,41
504,19	1282,03
504,39	1288,17
504,59	1304,56
504,79	1261,55
504,99	1245,16
505,19	1220,59
505,39	1279,98
505,59	1255,40
505,79	1339,37
505,99	1286,12
506,19	1304,56
506,39	1196,01
506,59	1216,49
506,79	1257,45
506,99	1310,70
507,19	1241,07
507,39	1228,78
507,59	1282,03
507,79	1296,36
507,99	1288,17
508,19	1277,93
508,39	1300,46
508,59	1329,13
508,79	1288,17
508,99	1290,22
509,19	1290,22
509,39	1290,22
509,59	1263,60
509,79	1296,36
509,99	1216,49
510,19	1351,66
510,39	1251,31
510,59	1294,32
510,79	1228,78
510,99	1347,56
511,19	1302,51
511,39	1212,40
511,59	1255,40
511,79	1292,27
511,99	1279,98
512,19	1279,98
512,38	1345,52
512,58	1232,88
512,78	1288,17
512,98	1300,46
513,18	1302,51
513,38	1284,08
513,58	1298,41
513,78	1296,36
513,98	1220,59
514,18	1265,64
514,38	1259,50
514,58	1286,12
514,78	1357,80
514,98	1179,63
515,18	1277,93
515,38	1308,65
515,58	1355,76
515,78	1308,65
515,98	1232,88
516,18	1267,69
516,38	1318,89
516,57	1343,47
516,77	1292,27
516,97	1267,69
517,17	1226,73
517,37	1249,26
517,57	1247,21
517,77	1265,64
517,97	1230,83
518,17	1290,22
518,37	1284,08
518,57	1277,93
518,77	1261,55
518,97	1302,51
519,16	1232,88
519,36	1200,11
519,56	1322,99
519,76	1327,08
519,96	1290,22
520,16	1257,45
520,36	1275,88
520,56	1251,31
520,76	1327,08
520,96	1290,22
521,16	1208,30
521,35	1294,32
521,55	1316,84
521,75	1353,71
521,95	1310,70
522,15	1277,93
522,35	1312,75
522,55	1257,45
522,75	1206,25
522,95	1322,99
523,14	1261,55
523,34	1234,93
523,54	1282,03
523,74	1300,46
523,94	1255,40
524,14	1302,51
524,34	1290,22
524,54	1218,54
524,73	1302,51
524,93	1279,98
525,13	1273,84
525,33	1286,12
525,53	1269,74
525,73	1282,03
525,93	1310,70
526,13	1335,28
526,32	1339,37
526,52	1251,31
526,72	1304,56
526,92	1243,12
527,12	1267,69
527,32	1327,08
527,52	1335,28
527,71	1320,94
527,91	1234,93
528,11	1282,03
528,31	1306,60
528,51	1243,12
528,71	1279,98
528,90	1316,84
529,10	1316,84
529,30	1243,12
529,50	1255,40
529,70	1232,88
529,90	1288,17
530,09	1241,07
530,29	1261,55
530,49	1255,40
530,69	1298,41
530,89	1236,97
531,09	1277,93
531,28	1189,87
531,48	1265,64
531,68	1212,40
531,88	1214,45
532,08	1257,45
532,28	1282,03
532,47	1292,27
532,67	1249,26
532,87	1306,60
533,07	1284,08
533,27	1335,28
533,46	1261,55
533,66	1224,69
533,86	1308,65
534,06	1277,93
534,26	1302,51
534,45	1345,52
534,65	1294,32
534,85	1288,17
535,05	1282,03
535,25	1277,93
535,44	1216,49
535,64	1267,69
535,84	1300,46
536,04	1267,69
536,24	1306,60
536,43	1165,29
536,63	1269,74
536,83	1255,40
537,03	1214,45
537,22	1275,88
537,42	1275,88
537,62	1294,32
537,82	1265,64
538,02	1282,03
538,21	1294,32
538,41	1312,75
538,61	1325,04
538,81	1241,07
539,00	1296,36
539,20	1302,51
539,40	1347,56
539,60	1220,59
539,79	1275,88
539,99	1361,90
540,19	1230,83
540,39	1249,26
540,58	1279,98
540,78	1253,36
540,98	1298,41
541,18	1304,56
541,37	1294,32
541,57	1271,79
541,77	1322,99
541,97	1265,64
542,16	1234,93
542,36	1261,55
542,56	1284,08
542,76	1259,50
542,95	1286,12
543,15	1359,85
543,35	1224,69
543,54	1294,32
543,74	1226,73
543,94	1253,36
544,14	1306,60
544,33	1273,84
544,53	1271,79
544,73	1300,46
544,93	1249,26
545,12	1259,50
545,32	1271,79
545,52	1224,69
545,71	1296,36
545,91	1239,02
546,11	1296,36
546,30	1282,03
546,50	1222,64
546,70	1230,83
546,90	1343,47
547,09	1286,12
547,29	1296,36
547,49	1345,52
547,68	1243,12
547,88	1277,93
548,08	1286,12
548,27	1308,65
548,47	1277,93
548,67	1243,12
548,87	1320,94
549,06	1265,64
549,26	1343,47
549,46	1312,75
549,65	1245,16
549,85	1308,65
550,05	1279,98
550,24	1257,45
550,44	1345,52
550,64	1302,51
550,83	1243,12
551,03	1271,79
551,23	1300,46
551,42	1363,95
551,62	1243,12
551,82	1226,73
552,01	1224,69
552,21	1257,45
552,41	1294,32
552,60	1286,12
552,80	1322,99
553,00	1251,31
553,19	1236,97
553,39	1284,08
553,59	1306,60
553,78	1329,13
553,98	1333,23
554,17	1312,75
554,37	1284,08
554,57	1218,54
554,76	1245,16
554,96	1302,51
555,16	1335,28
555,35	1234,93
555,55	1267,69
555,75	1249,26
555,94	1273,84
556,14	1226,73
556,33	1279,98
556,53	1220,59
556,73	1304,56
556,92	1269,74
557,12	1279,98
557,32	1292,27
557,51	1234,93
557,71	1251,31
557,90	1308,65
558,10	1290,22
558,30	1271,79
558,49	1378,28
558,69	1347,56
558,88	1312,75
559,08	1310,70
559,28	1243,12
559,47	1345,52
559,67	1327,08
559,86	1263,60
560,06	1265,64
560,26	1302,51
560,45	1296,36
560,65	1275,88
560,84	1296,36
561,04	1298,41
561,24	1288,17
561,43	1265,64
561,63	1277,93
561,82	1282,03
562,02	1232,88
562,22	1259,50
562,41	1243,12
562,61	1261,55
562,80	1228,78
563,00	1232,88
563,19	1337,32
563,39	1167,34
563,59	1316,84
563,78	1271,79
563,98	1314,80
564,17	1320,94
564,37	1271,79
564,56	1286,12
564,76	1265,64
564,96	1249,26
565,15	1333,23
565,35	1306,60
565,54	1327,08
565,74	1290,22
565,93	1308,65
566,13	1265,64
566,32	1341,42
566,52	1251,31
566,71	1249,26
566,91	1255,40
567,11	1222,64
567,30	1255,40
567,50	1322,99
567,69	1243,12
567,89	1302,51
568,08	1294,32
568,28	1284,08
568,47	1271,79
568,67	1224,69
568,86	1267,69
569,06	1290,22
569,25	1265,64
569,45	1253,36
569,64	1271,79
569,84	1243,12
570,04	1251,31
570,23	1255,40
570,43	1282,03
570,62	1263,60
570,82	1306,60
571,01	1228,78
571,21	1294,32
571,40	1286,12
571,60	1267,69
571,79	1271,79
571,99	1349,61
572,18	1257,45
572,38	1251,31
572,57	1261,55
572,77	1271,79
572,96	1329,13
573,16	1282,03
573,35	1345,52
573,55	1255,40
573,74	1273,84
573,94	1228,78
574,13	1294,32
574,33	1259,50
574,52	1265,64
574,71	1294,32
574,91	1343,47
575,10	1312,75
575,30	1267,69
575,49	1271,79
575,69	1257,45
575,88	1306,60
576,08	1282,03
576,27	1366,00
576,47	1345,52
576,66	1269,74
576,86	1376,24
577,05	1267,69
577,25	1286,12
577,44	1290,22
577,64	1339,37
577,83	1271,79
578,02	1212,40
578,22	1339,37
578,41	1318,89
578,61	1279,98
578,80	1265,64
579,00	1310,70
579,19	1257,45
579,39	1251,31
579,58	1245,16
579,77	1292,27
579,97	1320,94
580,16	1304,56
580,36	1243,12
580,55	1343,47
580,75	1290,22
580,94	1286,12
581,13	1284,08
581,33	1312,75
581,52	1318,89
581,72	1337,32
581,91	1191,92
582,11	1286,12
582,30	1343,47
582,49	1314,80
582,69	1290,22
582,88	1341,42
583,08	1304,56
583,27	1277,93
583,47	1236,97
583,66	1259,50
583,85	1253,36
584,05	1249,26
584,24	1261,55
584,44	1267,69
584,63	1247,21
584,82	1286,12
585,02	1269,74
585,21	1228,78
585,41	1284,08
585,60	1286,12
585,79	1269,74
585,99	1312,75
586,18	1288,17
586,37	1320,94
586,57	1284,08
586,76	1353,71
586,96	1247,21
587,15	1302,51
587,34	1298,41
587,54	1263,60
587,73	1245,16
587,93	1308,65
588,12	1249,26
588,31	1318,89
588,51	1245,16
588,70	1265,64
588,89	1251,31
589,09	1294,32
589,28	1310,70
589,47	1210,35
589,67	1271,79
589,86	1259,50
590,06	1290,22
590,25	1187,82
590,44	1310,70
590,64	1249,26
590,83	1257,45
591,02	1269,74
591,22	1273,84
591,41	1339,37
591,60	1282,03
591,80	1267,69
591,99	1247,21
592,18	1251,31
592,38	1279,98
592,57	1288,17
592,76	1275,88
592,96	1279,98
593,15	1265,64
593,34	1300,46
593,54	1261,55
593,73	1284,08
593,92	1275,88
594,12	1345,52
594,31	1320,94
594,50	1247,21
594,70	1275,88
594,89	1300,46
595,08	1343,47
595,28	1290,22
595,47	1284,08
595,66	1241,07
595,86	1345,52
596,05	1261,55
596,24	1155,05
596,43	1304,56
596,63	1279,98
596,82	1222,64
597,01	1196,01
597,21	1349,61
597,40	1271,79
597,59	1318,89
597,79	1247,21
597,98	1312,75
598,17	1316,84
598,36	1245,16
598,56	1251,31
598,75	1320,94
598,94	1275,88
599,14	1261,55
599,33	1286,12
599,52	1277,93
599,71	1241,07
599,91	1306,60
600,10	1263,60
600,29	1325,04
600,48	1325,04
600,68	1372,14
600,87	1282,03
601,06	1204,21
601,26	1224,69
601,45	1220,59
601,64	1265,64
601,83	1253,36
602,03	1325,04
602,22	1277,93
602,41	1271,79
602,60	1273,84
602,80	1263,60
602,99	1304,56
603,18	1253,36
603,37	1210,35
603,57	1312,75
603,76	1286,12
603,95	1308,65
604,14	1249,26
604,34	1296,36
604,53	1288,17
604,72	1255,40
604,91	1284,08
605,10	1263,60
605,30	1288,17
605,49	1243,12
605,68	1273,84
605,87	1290,22
606,07	1325,04
606,26	1245,16
606,45	1236,97
606,64	1253,36
606,84	1261,55
607,03	1249,26
607,22	1279,98
607,41	1259,50
607,60	1316,84
607,80	1286,12
607,99	1249,26
608,18	1265,64
608,37	1247,21
608,56	1271,79
608,76	1325,04
608,95	1282,03
609,14	1298,41
609,33	1286,12
609,52	1249,26
609,72	1312,75
609,91	1304,56
610,10	1300,46
610,29	1261,55
610,48	1284,08
610,68	1279,98
610,87	1333,23
611,06	1228,78
611,25	1312,75
611,44	1292,27
611,63	1269,74
611,83	1273,84
612,02	1259,50
612,21	1304,56
612,40	1325,04
612,59	1292,27
612,79	1230,83
612,98	1265,64
613,17	1249,26
613,36	1343,47
613,55	1277,93
613,74	1296,36
613,93	1329,13
614,13	1374,19
614,32	1277,93
614,51	1335,28
614,70	1241,07
614,89	1290,22
615,08	1277,93
615,28	1376,24
615,47	1302,51
615,66	1279,98
615,85	1316,84
616,04	1306,60
616,23	1279,98
616,42	1271,79
616,62	1320,94
616,81	1206,25
617,00	1267,69
617,19	1372,14
617,38	1366,00
617,57	1269,74
617,76	1290,22
617,95	1304,56
618,15	1320,94
618,34	1243,12
618,53	1263,60
618,72	1353,71
618,91	1230,83
619,10	1347,56
619,29	1355,76
619,48	1253,36
619,68	1279,98
619,87	1247,21
620,06	1277,93
620,25	1300,46
620,44	1255,40
620,63	1292,27
620,82	1181,68
621,01	1318,89
621,20	1355,76
621,39	1243,12
621,59	1282,03
621,78	1349,61
621,97	1200,11
622,16	1322,99
622,35	1284,08
622,54	1269,74
622,73	1279,98
622,92	1310,70
623,11	1308,65
623,30	1273,84
623,49	1257,45
623,68	1279,98
623,88	1243,12
624,07	1263,60
624,26	1292,27
624,45	1357,80
624,64	1271,79
624,83	1284,08
625,02	1292,27
625,21	1259,50
625,40	1257,45
625,59	1286,12
625,78	1230,83
625,97	1333,23
626,16	1279,98
626,35	1370,09
626,54	1304,56
626,74	1353,71
626,93	1314,80
627,12	1290,22
627,31	1312,75
627,50	1380,33
627,69	1249,26
627,88	1304,56
628,07	1306,60
628,26	1304,56
628,45	1249,26
628,64	1290,22
628,83	1257,45
629,02	1212,40
629,21	1316,84
629,40	1312,75
629,59	1269,74
629,78	1343,47
629,97	1374,19
630,16	1298,41
630,35	1329,13
630,54	1347,56
630,73	1306,60
630,92	1322,99
631,11	1308,65
631,30	1288,17
631,49	1382,38
631,68	1787,88
631,87	2709,46
632,06	6750,10
632,25	9031,54
632,44	17241,85
632,63	25249,41
632,82	45245,77
633,01	65535,00
633,20	46456,12
633,39	21462,71
633,58	8398,72
633,77	5164,98
633,96	4894,65
634,15	3792,84
634,34	2236,38
634,53	1877,99
634,72	1863,65
634,91	1662,95
635,10	1566,70
635,29	1544,17
635,48	1593,32
635,67	1529,83
635,86	1396,71
636,05	1439,72
636,24	1372,14
636,43	1366,00
636,62	1320,94
636,81	1368,04
637,00	1335,28
637,19	1259,50
637,38	1279,98
637,57	1241,07
637,76	1374,19
637,95	1337,32
638,14	1320,94
638,33	1290,22
638,52	1306,60
638,71	1257,45
638,89	1308,65
639,08	1245,16
639,27	1296,36
639,46	1296,36
639,65	1300,46
639,84	1263,60
640,03	1320,94
640,22	1304,56
640,41	1368,04
640,60	1269,74
640,79	1296,36
640,98	1259,50
641,17	1284,08
641,36	1204,21
641,55	1302,51
641,74	1320,94
641,92	1329,13
642,11	1335,28
642,30	1284,08
642,49	1290,22
642,68	1318,89
642,87	1216,49
643,06	1277,93
643,25	1243,12
643,44	1277,93
643,63	1290,22
643,82	1214,45
644,00	1314,80
644,19	1294,32
644,38	1212,40
644,57	1275,88
644,76	1290,22
644,95	1329,13
645,14	1386,47
645,33	1361,90
645,52	1269,74
645,71	1353,71
645,89	1245,16
646,08	1236,97
646,27	1308,65
646,46	1304,56
646,65	1320,94
646,84	1296,36
647,03	1380,33
647,22	1214,45
647,40	1255,40
647,59	1204,21
647,78	1263,60
647,97	1253,36
648,16	1263,60
648,35	1308,65
648,54	1322,99
648,73	1236,97
648,91	1253,36
649,10	1243,12
649,29	1259,50
649,48	1331,18
649,67	1265,64
649,86	1275,88
650,05	1368,04
650,23	1290,22
650,42	1249,26
650,61	1191,92
650,80	1282,03
650,99	1300,46
651,18	1216,49
651,36	1331,18
651,55	1142,77
651,74	1345,52
651,93	1279,98
652,12	1208,30
652,31	1265,64
652,49	1253,36
652,68	1247,21
652,87	1290,22
653,06	1226,73
653,25	1325,04
653,44	1267,69
653,62	1253,36
653,81	1187,82
654,00	1230,83
654,19	1304,56
654,38	1241,07
654,56	1298,41
654,75	1241,07
654,94	1320,94
655,13	1294,32
655,32	1261,55
655,51	1294,32
655,69	1339,37
655,88	1247,21
656,07	1173,49
656,26	1286,12
656,45	1269,74
656,63	1343,47
656,82	1273,84
657,01	1314,80
657,20	1298,41
657,38	1296,36
657,57	1298,41
657,76	1292,27
657,95	1251,31
658,14	1318,89
658,32	1249,26
658,51	1216,49
658,70	1302,51
658,89	1325,04
659,08	1212,40
659,26	1298,41
659,45	1286,12
659,64	1277,93
659,83	1331,18
660,01	1196,01
660,20	1306,60
660,39	1275,88
660,58	1202,16
660,76	1212,40
660,95	1249,26
661,14	1259,50
661,33	1271,79
661,51	1263,60
661,70	1249,26
661,89	1255,40
662,08	1292,27
662,26	1269,74
662,45	1271,79
662,64	1288,17
662,83	1282,03
663,01	1226,73
663,20	1232,88
663,39	1271,79
663,58	1271,79
663,76	1310,70
663,95	1196,01
664,14	1208,30
664,32	1269,74
664,51	1279,98
664,70	1253,36
664,89	1255,40
665,07	1296,36
665,26	1314,80
665,45	1216,49
665,64	1243,12
665,82	1263,60
666,01	1351,66
666,20	1247,21
666,38	1282,03
666,57	1298,41
666,76	1282,03
666,95	1269,74
667,13	1298,41
667,32	1333,23
667,51	1308,65
667,69	1234,93
667,88	1255,40
668,07	1273,84
668,25	1241,07
668,44	1212,40
668,63	1277,93
668,81	1292,27
669,00	1322,99
669,19	1206,25
669,38	1335,28
669,56	1376,24
669,75	1222,64
669,94	1265,64
670,12	1214,45
670,31	1224,69
670,50	1239,02
670,68	1294,32
670,87	1216,49
671,06	1257,45
671,24	1271,79
671,43	1284,08
671,62	1247,21
671,80	1318,89
671,99	1232,88
672,18	1284,08
672,36	1314,80
672,55	1265,64
672,74	1198,06
672,92	1277,93
673,11	1257,45
673,29	1243,12
673,48	1222,64
673,67	1396,71
673,85	1318,89
674,04	1255,40
674,23	1279,98
674,41	1370,09
674,60	1282,03
674,79	1279,98
674,97	1337,32
675,16	1296,36
675,34	1243,12
675,53	1218,54
675,72	1239,02
675,90	1263,60
676,09	1253,36
676,28	1163,25
676,46	1339,37
676,65	1302,51
676,83	1304,56
677,02	1275,88
677,21	1300,46
677,39	1236,97
677,58	1269,74
677,77	1290,22
677,95	1251,31
678,14	1304,56
678,32	1196,01
678,51	1288,17
678,70	1261,55
678,88	1292,27
679,07	1325,04
679,25	1206,25
679,44	1310,70
679,63	1239,02
679,81	1271,79
680,00	1304,56
680,18	1271,79
680,37	1312,75
680,55	1245,16
680,74	1290,22
680,93	1232,88
681,11	1228,78
681,30	1241,07
681,48	1232,88
681,67	1310,70
681,85	1286,12
682,04	1236,97
682,23	1275,88
682,41	1243,12
682,60	1337,32
682,78	1306,60
682,97	1230,83
683,15	1226,73
683,34	1267,69
683,53	1267,69
683,71	1361,90
683,90	1249,26
684,08	1277,93
684,27	1245,16
684,45	1320,94
684,64	1277,93
684,82	1198,06
685,01	1320,94
685,19	1288,17
685,38	1325,04
685,57	1247,21
685,75	1310,70
685,94	1261,55
686,12	1214,45
686,31	1232,88
686,49	1310,70
686,68	1247,21
686,86	1320,94
687,05	1198,06
687,23	1249,26
687,42	1249,26
687,60	1329,13
687,79	1257,45
687,97	1214,45
688,16	1263,60
688,34	1249,26
688,53	1298,41
688,71	1230,83
688,90	1218,54
689,08	1228,78
689,27	1241,07
689,45	1257,45
689,64	1243,12
689,82	1304,56
690,01	1259,50
690,19	1300,46
690,38	1208,30
690,56	1325,04
690,75	1312,75
690,93	1255,40
691,12	1290,22
691,30	1228,78
691,49	1279,98
691,67	1292,27
691,86	1257,45
692,04	1251,31
692,23	1355,76
692,41	1292,27
692,60	1236,97
692,78	1288,17
692,97	1282,03
693,15	1208,30
693,34	1355,76
693,52	1337,32
693,71	1247,21
693,89	1234,93
694,08	1210,35
694,26	1279,98
694,44	1269,74
694,63	1275,88
694,81	1300,46
695,00	1279,98
695,18	1196,01
695,37	1294,32
695,55	1284,08
695,74	1275,88
695,92	1247,21
696,10	1279,98
696,29	1247,21
696,47	1275,88
696,66	1290,22
696,84	1320,94
697,03	1255,40
697,21	1269,74
697,40	1331,18
697,58	1226,73
697,76	1198,06
697,95	1241,07
698,13	1271,79
698,32	1282,03
698,50	1259,50
698,68	1255,40
698,87	1294,32
699,05	1368,04
699,24	1220,59
699,42	1249,26
699,61	1243,12
699,79	1212,40
699,97	1290,22
700,16	1282,03
700,34	1290,22
700,53	1253,36
700,71	1288,17
700,89	1306,60
701,08	1284,08
701,26	1232,88
701,45	1269,74
701,63	1230,83
701,81	1212,40
702,00	1202,16
702,18	1259,50
702,37	1316,84
702,55	1251,31
702,73	1257,45
702,92	1374,19
703,10	1306,60
703,28	1259,50
703,47	1253,36
703,65	1337,32
703,84	1241,07
704,02	1263,60
704,20	1273,84
704,39	1269,74
704,57	1288,17
704,75	1234,93
704,94	1245,16
705,12	1189,87
705,30	1236,97
705,49	1177,58
705,67	1279,98
705,86	1236,97
706,04	1243,12
706,22	1243,12
706,41	1286,12
706,59	1224,69
706,77	1239,02
706,96	1277,93
707,14	1308,65
707,32	1359,85
707,51	1314,80
707,69	1259,50
707,87	1298,41
708,06	1257,45
708,24	1286,12
708,42	1226,73
708,61	1206,25
708,79	1212,40
708,97	1298,41
709,16	1271,79
709,34	1282,03
709,52	1304,56
709,71	1257,45
709,89	1269,74
710,07	1269,74
710,26	1306,60
710,44	1218,54
710,62	1318,89
710,80	1249,26
710,99	1273,84
711,17	1269,74
711,35	1271,79
711,54	1282,03
711,72	1302,51
711,90	1271,79
712,09	1255,40
712,27	1347,56
712,45	1271,79
712,63	1314,80
712,82	1288,17
713,00	1294,32
713,18	1269,74
713,37	1290,22
713,55	1286,12
713,73	1290,22
713,91	1171,44
714,10	1208,30
714,28	1216,49
714,46	1290,22
714,65	1273,84
714,83	1279,98
715,01	1198,06
715,19	1220,59
715,38	1189,87
715,56	1263,60
715,74	1247,21
715,92	1253,36
716,11	1282,03
716,29	1216,49
716,47	1322,99
716,65	1282,03
716,84	1290,22
717,02	1322,99
717,20	1230,83
717,38	1304,56
717,57	1253,36
717,75	1255,40
717,93	1245,16
718,11	1259,50
718,30	1236,97
718,48	1267,69
718,66	1200,11
718,84	1234,93
719,03	1296,36
719,21	1302,51
719,39	1345,52
719,57	1355,76
719,75	1216,49
719,94	1271,79
720,12	1337,32
720,30	1208,30
720,48	1339,37
720,67	1288,17
720,85	1239,02
721,03	1271,79
721,21	1236,97
721,39	1265,64
721,58	1265,64
721,76	1216,49
721,94	1263,60
722,12	1191,92
722,30	1320,94
722,49	1298,41
722,67	1265,64
722,85	1261,55
723,03	1263,60
723,21	1228,78
723,40	1294,32
723,58	1341,42
723,76	1212,40
723,94	1249,26
724,12	1189,87
724,30	1294,32
724,49	1273,84
724,67	1257,45
724,85	1261,55
725,03	1337,32
725,21	1224,69
725,40	1333,23
725,58	1322,99
725,76	1298,41
725,94	1247,21
726,12	1230,83
726,30	1265,64
726,49	1312,75
726,67	1259,50
726,85	1273,84
727,03	1333,23
727,21	1355,76
727,39	1220,59
727,57	1320,94
727,76	1273,84
727,94	1239,02
728,12	1294,32
728,30	1214,45
728,48	1251,31
728,66	1335,28
728,84	1265,64
729,03	1259,50
729,21	1288,17
729,39	1282,03
729,57	1290,22
729,75	1277,93
729,93	1277,93
730,11	1259,50
730,30	1249,26
730,48	1298,41
730,66	1257,45
730,84	1247,21
731,02	1196,01
731,20	1255,40
731,38	1277,93
731,56	1241,07
731,74	1273,84
731,93	1255,40
732,11	1257,45
732,29	1288,17
732,47	1304,56
732,65	1257,45
732,83	1279,98
733,01	1253,36
733,19	1294,32
733,37	1232,88
733,56	1304,56
733,74	1259,50
733,92	1245,16
734,10	1273,84
734,28	1224,69
734,46	1228,78
734,64	1243,12
734,82	1228,78
735,00	1288,17
735,18	1191,92
735,36	1261,55
735,54	1286,12
735,73	1218,54
735,91	1298,41
736,09	1243,12
736,27	1345,52
736,45	1286,12
736,63	1247,21
736,81	1271,79
736,99	1292,27
737,17	1236,97
737,35	1290,22
737,53	1259,50
737,71	1259,50
737,89	1282,03
738,07	1212,40
738,25	1290,22
738,43	1232,88
738,61	1226,73
738,80	1241,07
738,98	1241,07
739,16	1294,32
739,34	1308,65
739,52	1282,03
739,70	1308,65
739,88	1318,89
740,06	1202,16
740,24	1277,93
740,42	1279,98
740,60	1261,55
740,78	1273,84
740,96	1390,57
741,14	1251,31
741,32	1236,97
741,50	1290,22
741,68	1251,31
741,86	1316,84
742,04	1265,64
742,22	1175,53
742,40	1306,60
742,58	1322,99
742,76	1243,12
742,94	1232,88
743,12	1294,32
743,30	1253,36
743,48	1255,40
743,66	1304,56
743,84	1331,18
744,02	1337,32
744,20	1277,93
744,38	1294,32
744,56	1226,73
744,74	1314,80
744,92	1320,94
745,10	1322,99
745,28	1306,60
745,46	1269,74
745,64	1220,59
745,82	1224,69
746,00	1247,21
746,18	1245,16
746,36	1300,46
746,54	1253,36
746,72	1288,17
746,90	1294,32
747,08	1204,21
747,26	1255,40
747,44	1234,93
747,62	1226,73
747,80	1251,31
747,98	1316,84
748,15	1236,97
748,33	1261,55
748,51	1226,73
748,69	1247,21
748,87	1298,41
749,05	1288,17
749,23	1306,60
749,41	1247,21
749,59	1329,13
749,77	1304,56
749,95	1335,28
750,13	1224,69
750,31	1243,12
750,49	1224,69
750,67	1255,40
750,85	1253,36
751,03	1220,59
751,20	1193,97
751,38	1265,64
751,56	1243,12
751,74	1234,93
751,92	1308,65
752,10	1232,88
752,28	1226,73
752,46	1345,52
752,64	1255,40
752,82	1312,75
753,00	1218,54
753,18	1214,45
753,35	1271,79
753,53	1259,50
753,71	1210,35
753,89	1304,56
754,07	1247,21
754,25	1288,17
754,43	1282,03
754,61	1265,64
754,79	1273,84
754,97	1255,40
755,14	1288,17
755,32	1232,88
755,50	1296,36
755,68	1249,26
755,86	1314,80
756,04	1239,02
756,22	1292,27
756,40	1279,98
756,57	1236,97
756,75	1269,74
756,93	1265,64
757,11	1296,36
757,29	1196,01
757,47	1329,13
757,65	1310,70
757,82	1243,12
758,00	1234,93
758,18	1234,93
758,36	1255,40
758,54	1292,27
758,72	1228,78
758,90	1265,64
759,07	1304,56
759,25	1261,55
759,43	1284,08
759,61	1234,93
759,79	1282,03
759,97	1296,36
760,15	1257,45
760,32	1310,70
760,50	1191,92
760,68	1224,69
760,86	1306,60
761,04	1261,55
761,22	1234,93
761,39	1353,71
761,57	1216,49
761,75	1282,03
761,93	1220,59
762,11	1290,22
762,28	1314,80
762,46	1282,03
762,64	1232,88
762,82	1232,88
763,00	1177,58
763,18	1282,03
763,35	1327,08
763,53	1294,32
763,71	1153,01
763,89	1316,84
764,07	1298,41
764,24	1273,84
764,42	1318,89
764,60	1288,17
764,78	1261,55
764,96	1247,21
765,13	1214,45
765,31	1198,06
765,49	1202,16
765,67	1157,10
765,84	1224,69
766,02	1304,56
766,20	1222,64
766,38	1322,99
766,56	1261,55
766,73	1294,32
766,91	1275,88
767,09	1255,40
767,27	1263,60
767,44	1232,88
767,62	1298,41
767,80	1300,46
767,98	1265,64
768,15	1320,94
768,33	1284,08
768,51	1243,12
768,69	1253,36
768,87	1296,36
769,04	1275,88
769,22	1245,16
769,40	1308,65
769,58	1224,69
769,75	1286,12
769,93	1282,03
770,11	1255,40
770,28	1314,80
770,46	1232,88
770,64	1265,64
770,82	1236,97
770,99	1290,22
771,17	1312,75
771,35	1257,45
771,53	1300,46
771,70	1273,84
771,88	1292,27
772,06	1318,89
772,23	1230,83
772,41	1298,41
772,59	1243,12
772,77	1263,60
772,94	1216,49
773,12	1216,49
773,30	1273,84
773,47	1273,84
773,65	1253,36
773,83	1277,93
774,01	1241,07
774,18	1290,22
774,36	1318,89
774,54	1296,36
774,71	1304,56
774,89	1249,26
775,07	1255,40
775,24	1327,08
775,42	1335,28
775,60	1239,02
775,78	1284,08
775,95	1253,36
776,13	1218,54
776,31	1187,82
776,48	1275,88
776,66	1271,79
776,84	1288,17
777,01	1269,74
777,19	1261,55
777,37	1241,07
777,54	1241,07
777,72	1290,22
777,90	1183,73
778,07	1284,08
778,25	1257,45
778,43	1208,30
778,60	1230,83
778,78	1298,41
778,96	1288,17
779,13	1196,01
779,31	1214,45
779,49	1257,45
779,66	1298,41
779,84	1269,74
780,01	1234,93
780,19	1269,74
780,37	1298,41
780,54	1224,69
780,72	1204,21
780,90	1263,60
781,07	1343,47
781,25	1226,73
781,43	1222,64
781,60	1296,36
781,78	1267,69
781,95	1273,84
782,13	1275,88
782,31	1273,84
782,48	1241,07
782,66	1298,41
782,83	1298,41
783,01	1230,83
783,19	1273,84
783,36	1290,22
783,54	1222,64
783,72	1288,17
783,89	1275,88
784,07	1243,12
784,24	1230,83
784,42	1271,79
784,60	1298,41
784,77	1290,22
784,95	1247,21
785,12	1292,27
785,30	1230,83
785,47	1304,56
785,65	1243,12
785,83	1325,04
786,00	1284,08
786,18	1230,83
786,35	1179,63
786,53	1204,21
786,71	1183,73
786,88	1230,83
787,06	1312,75
787,23	1304,56
787,41	1226,73
787,58	1288,17
787,76	1341,42
787,94	1257,45
788,11	1239,02
788,29	1220,59
788,46	1308,65
788,64	1236,97
788,81	1222,64
788,99	1247,21
789,16	1279,98
789,34	1251,31
789,52	1243,12
789,69	1239,02
789,87	1300,46
790,04	1275,88
790,22	1234,93
790,39	1267,69
790,57	1253,36
790,74	1249,26
790,92	1310,70
791,09	1232,88
791,27	1269,74
791,44	1273,84
791,62	1234,93
791,79	1204,21
791,97	1288,17
792,15	1263,60
792,32	1341,42
792,50	1325,04
792,67	1245,16
792,85	1277,93
793,02	1255,40
793,20	1288,17
793,37	1261,55
793,55	1236,97
793,72	1226,73
793,90	1216,49
794,07	1175,53
794,25	1216,49
794,42	1269,74
794,60	1277,93
794,77	1226,73
794,95	1308,65
795,12	1224,69
795,30	1331,18
795,47	1228,78
795,65	1241,07
795,82	1279,98
796,00	1316,84
796,17	1257,45
796,34	1347,56
796,52	1290,22
796,69	1294,32
796,87	1202,16
797,04	1239,02
797,22	1267,69
797,39	1296,36
797,57	1222,64
797,74	1210,35
797,92	1193,97
798,09	1288,17
798,27	1255,40
798,44	1230,83
798,62	1224,69
798,79	1204,21
798,96	1322,99
799,14	1263,60
799,31	1202,16
799,49	1273,84
799,66	1279,98
799,84	1226,73
800,01	1251,31
800,19	1306,60
800,36	1249,26
800,53	1304,56
800,71	1214,45
800,88	1245,16
801,06	1339,37
801,23	1312,75
801,41	1269,74
801,58	1316,84
801,75	1259,50
801,93	1331,18
802,10	1255,40
802,28	1255,40
802,45	1314,80
802,63	1214,45
802,80	1257,45
802,97	1275,88
803,15	1239,02
803,32	1273,84
803,50	1189,87
803,67	1290,22
803,84	1341,42
804,02	1230,83
804,19	1310,70
804,37	1257,45
804,54	1239,02
804,71	1269,74
804,89	1282,03
805,06	1265,64
805,24	1259,50
805,41	1269,74
805,58	1286,12
805,76	1298,41
805,93	1302,51
806,10	1306,60
806,28	1259,50
806,45	1273,84
806,63	1269,74
806,80	1306,60
806,97	1236,97
807,15	1249,26
807,32	1204,21
807,49	1230,83
807,67	1341,42
807,84	1222,64
808,01	1304,56
808,19	1275,88
808,36	1245,16
808,54	1296,36
808,71	1234,93
808,88	1347,56
809,06	1288,17
809,23	1296,36
809,40	1263,60
809,58	1183,73
809,75	1230,83
809,92	1255,40
810,10	1232,88
810,27	1273,84
810,44	1284,08
810,62	1304,56
810,79	1322,99
810,96	1308,65
811,14	1286,12
811,31	1216,49
811,48	1296,36
811,66	1271,79
811,83	1304,56
812,00	1265,64
812,18	1284,08
812,35	1292,27
812,52	1308,65
812,69	1292,27
812,87	1257,45
813,04	1198,06
813,21	1269,74
813,39	1290,22
813,56	1265,64
813,73	1220,59
813,91	1335,28
814,08	1288,17
814,25	1269,74
814,42	1249,26
814,60	1263,60
814,77	1230,83
814,94	1187,82
815,12	1306,60
815,29	1294,32
815,46	1282,03
815,63	1255,40
815,81	1282,03
815,98	1273,84
816,15	1302,51
816,33	1267,69
816,50	1218,54
816,67	1228,78
816,84	1206,25
817,02	1279,98
817,19	1245,16
817,36	1343,47
817,53	1329,13
817,71	1294,32
817,88	1296,36
818,05	1265,64
818,22	1249,26
818,40	1273,84
818,57	1286,12
818,74	1298,41
818,91	1191,92
819,09	1269,74
819,26	1255,40
819,43	1273,84
819,60	1292,27
819,78	1282,03
819,95	1263,60
820,12	1288,17
820,29	1296,36
820,47	1290,22
820,64	1284,08
820,81	1241,07
820,98	1253,36
821,15	1261,55
821,33	1298,41
821,50	1337,32
821,67	1314,80
821,84	1265,64
822,02	1277,93
822,19	1249,26
822,36	1263,60
822,53	1245,16
822,70	1261,55
822,88	1300,46
823,05	1193,97
823,22	1329,13
823,39	1200,11
823,56	1269,74
823,74	1245,16
823,91	1257,45
824,08	1296,36
824,25	1212,40
824,42	1337,32
824,60	1279,98
824,77	1228,78
824,94	1208,30
825,11	1222,64
825,28	1282,03
825,45	1370,09
825,63	1277,93
825,80	1290,22
825,97	1257,45
826,14	1284,08
826,31	1226,73
826,48	1331,18
826,66	1216,49
826,83	1239,02
827,00	1224,69
827,17	1253,36
827,34	1286,12
827,51	1341,42
827,69	1325,04
827,86	1236,97
828,03	1245,16
828,20	1288,17
828,37	1204,21
828,54	1304,56
828,71	1277,93
828,89	1363,95
829,06	1224,69
829,23	1259,50
829,40	1234,93
829,57	1359,85
829,74	1286,12
829,91	1245,16
830,09	1181,68
830,26	1325,04
830,43	1294,32
830,60	1271,79
830,77	1294,32
830,94	1224,69
831,11	1259,50
831,28	1249,26
831,46	1271,79
831,63	1294,32
831,80	1204,21
831,97	1273,84
832,14	1310,70
832,31	1275,88
832,48	1294,32
832,65	1257,45
832,82	1282,03
832,99	1267,69
833,17	1271,79
833,34	1200,11
833,51	1263,60
833,68	1247,21
833,85	1286,12
834,02	1214,45
834,19	1331,18
834,36	1253,36
834,53	1261,55
834,70	1310,70
834,87	1314,80
835,04	1306,60
835,22	1269,74
835,39	1288,17
835,56	1249,26
835,73	1273,84
835,90	1279,98
836,07	1277,93
836,24	1220,59
836,41	1271,79
836,58	1298,41
836,75	1251,31
836,92	1214,45
837,09	1273,84
837,26	1275,88
837,43	1273,84
837,60	1218,54
837,77	1273,84
837,94	1165,29
838,12	1288,17
838,29	1284,08
838,46	1261,55
838,63	1234,93
838,80	1259,50
838,97	1310,70
839,14	1232,88
839,31	1247,21
839,48	1245,16
839,65	1269,74
839,82	1234,93
839,99	1271,79
840,16	1253,36
840,33	1220,59
840,50	1222,64
840,67	1230,83
840,84	1290,22
841,01	1243,12
841,18	1257,45
841,35	1218,54
841,52	1292,27
841,69	1345,52
841,86	1226,73
842,03	1286,12
842,20	1232,88
842,37	1216,49
842,54	1290,22
842,71	1171,44
842,88	1306,60
843,05	1300,46
843,22	1296,36
843,39	1251,31
843,56	1200,11
843,73	1310,70
843,90	1288,17
844,07	1314,80
844,24	1298,41
844,41	1314,80
844,58	1261,55
844,75	1298,41
844,92	1279,98
845,09	1288,17
845,26	1241,07
845,43	1271,79
845,60	1269,74
845,77	1302,51
845,94	1296,36
846,10	1234,93
846,27	1224,69
846,44	1236,97
846,61	1288,17
846,78	1306,60
846,95	1263,60
847,12	1269,74
847,29	1234,93
847,46	1290,22
847,63	1265,64
847,80	1259,50
847,97	1298,41
848,14	1259,50
848,31	1271,79
848,48	1208,30
848,65	1282,03
848,82	1212,40
848,98	1218,54
849,15	1239,02
849,32	1249,26
849,49	1261,55
849,66	1284,08
849,83	1316,84
850,00	1341,42
850,17	1308,65
850,34	1286,12
850,51	1265,64
850,68	1239,02
850,85	1310,70
851,01	1265,64
851,18	1226,73
851,35	1269,74
851,52	1224,69
851,69	1357,80
851,86	1322,99
852,03	1218,54
852,20	1261,55
852,37	1263,60
852,53	1206,25
852,70	1222,64
852,87	1202,16
853,04	1181,68
853,21	1216,49
853,38	1343,47
853,55	1261,55
853,72	1263,60
853,89	1245,16
854,05	1308,65
854,22	1226,73
854,39	1228,78
854,56	1255,40
854,73	1247,21
854,90	1228,78
855,07	1316,84
855,23	1187,82
855,40	1251,31
855,57	1230,83
855,74	1271,79
855,91	1304,56
856,08	1298,41
856,25	1241,07
856,41	1261,55
856,58	1316,84
856,75	1253,36
856,92	1306,60
857,09	1265,64
857,26	1263,60
857,42	1189,87
857,59	1310,70
857,76	1241,07
857,93	1286,12
858,10	1265,64
858,27	1271,79
858,43	1251,31
858,60	1282,03
858,77	1277,93
858,94	1218,54
859,11	1279,98
859,27	1279,98
859,44	1269,74
859,61	1232,88
859,78	1275,88
859,95	1277,93
860,12	1292,27
860,28	1282,03
860,45	1302,51
860,62	1228,78
860,79	1318,89
860,95	1239,02
861,12	1269,74
861,29	1218,54
861,46	1189,87
861,63	1234,93
861,79	1214,45
861,96	1212,40
862,13	1249,26
862,30	1312,75
862,47	1314,80
862,63	1298,41
862,80	1269,74
862,97	1275,88
863,14	1251,31
863,30	1241,07
863,47	1310,70
863,64	1288,17
863,81	1290,22
863,97	1239,02
864,14	1286,12
864,31	1241,07
864,48	1243,12
864,65	1228,78
864,81	1251,31
864,98	1333,23
865,15	1220,59
865,32	1304,56
865,48	1279,98
865,65	1234,93
865,82	1247,21
865,98	1234,93
866,15	1218,54
866,32	1284,08
866,49	1355,76
866,65	1263,60
866,82	1378,28
866,99	1245,16
867,16	1243,12
867,32	1310,70
867,49	1271,79
867,66	1243,12
867,83	1282,03
867,99	1263,60
868,16	1288,17
868,33	1275,88
868,49	1222,64
868,66	1236,97
868,83	1257,45
868,99	1191,92
869,16	1206,25
869,33	1269,74
869,50	1247,21
869,66	1271,79
869,83	1306,60
870,00	1327,08
870,16	1275,88
870,33	1202,16
870,50	1296,36
870,66	1304,56
870,83	1316,84
871,00	1255,40
871,17	1277,93
871,33	1226,73
871,50	1239,02
871,67	1193,97
871,83	1284,08
872,00	1239,02
872,17	1247,21
872,33	1241,07
872,50	1226,73
872,67	1271,79
872,83	1310,70
873,00	1304,56
873,17	1259,50
873,33	1216,49
873,50	1292,27
873,67	1226,73
873,83	1269,74
874,00	1286,12
874,16	1339,37
874,33	1294,32
874,50	1255,40
874,66	1253,36
874,83	1263,60
875,00	1341,42
875,16	1275,88
875,33	1277,93
875,50	1220,59
875,66	1286,12
875,83	1216,49
875,99	1241,07
876,16	1363,95
876,33	1249,26
876,49	1298,41
876,66	1290,22
876,83	1312,75
876,99	1267,69
877,16	1234,93
877,32	1257,45
877,49	1284,08
877,66	1349,61
877,82	1247,21
877,99	1271,79
878,15	1327,08
878,32	1286,12
878,49	1271,79
878,65	1261,55
878,82	1294,32
878,98	1331,18
879,15	1243,12
879,32	1265,64
879,48	1300,46
879,65	1271,79
879,81	1298,41
879,98	1271,79
880,15	1257,45
880,31	1210,35
880,48	1304,56
880,64	1255,40
880,81	1265,64
880,97	1343,47
881,14	1292,27
881,31	1255,40
881,47	1241,07
881,64	1267,69
881,80	1290,22
881,97	1232,88
882,13	1288,17
882,30	1292,27
882,47	1257,45
882,63	1228,78
882,80	1157,10
882,96	1329,13
883,13	1302,51
883,29	1185,77
883,46	1282,03
883,62	1257,45
883,79	1273,84
883,95	1226,73
884,12	1259,50
884,29	1308,65
884,45	1275,88
884,62	1257,45
884,78	1202,16
884,95	1224,69
885,11	1308,65
885,28	1288,17
885,44	1243,12
885,61	1224,69
885,77	1230,83
885,94	1245,16
886,10	1263,60
886,27	1286,12
886,43	1306,60
886,60	1239,02
886,76	1243,12
886,93	1329,13
887,09	1302,51
887,26	1245,16
887,42	1288,17
887,59	1275,88
887,75	1265,64
887,92	1263,60
888,08	1259,50
888,25	1265,64
888,41	1241,07
888,58	1243,12
888,74	1257,45
888,91	1216,49
>>>>>End Processed Spectral Data<<<<<
