SpectraSuite Data File
++++++++++++++++++++++++++++++++++++
Date: Sun Apr 03 19:55:34 CEST 2016
User: root
Dark Spectrum Present: No
Reference Spectrum Present: No
Number of Sampled Component Spectra: 1
Spectrometers: USB4C02835
Integration Time (usec): 10000 (USB4C02835)
Spectra Averaged: 1 (USB4C02835)
Boxcar Smoothing: 0 (USB4C02835)
Correct for Electrical Dark: No (USB4C02835)
Strobe/Lamp Enabled: No (USB4C02835)
Correct for Detector Non-linearity: No (USB4C02835)
Correct for Stray Light: No (USB4C02835)
Number of Pixels in Processed Spectrum: 3648
>>>>>Begin Processed Spectral Data<<<<<
177,47	1310,70
177,69	1310,70
177,91	1310,70
178,13	1251,31
178,36	1183,73
178,58	1253,36
178,80	1310,70
179,02	1249,26
179,24	1325,04
179,46	1263,60
179,68	1245,16
179,90	1257,45
180,13	1298,41
180,35	1269,74
180,57	1249,26
180,79	1241,07
181,01	1255,40
181,23	1322,99
181,45	1243,12
181,67	1273,84
181,90	1259,50
182,12	1273,84
182,34	1343,47
182,56	1232,88
182,78	1249,26
183,00	1327,08
183,22	1290,22
183,44	1239,02
183,66	1347,56
183,89	1204,21
184,11	1273,84
184,33	1249,26
184,55	1257,45
184,77	1294,32
184,99	1290,22
185,21	1282,03
185,43	1222,64
185,65	1273,84
185,87	1282,03
186,10	1261,55
186,32	1314,80
186,54	1224,69
186,76	1253,36
186,98	1251,31
187,20	1277,93
187,42	1308,65
187,64	1269,74
187,86	1286,12
188,08	1306,60
188,30	1204,21
188,52	1312,75
188,75	1228,78
188,97	1273,84
189,19	1302,51
189,41	1327,08
189,63	1226,73
189,85	1255,40
190,07	1273,84
190,29	1153,01
190,51	1243,12
190,73	1314,80
190,95	1224,69
191,17	1181,68
191,39	1214,45
191,61	1310,70
191,84	1208,30
192,06	1343,47
192,28	1206,25
192,50	1288,17
192,72	1173,49
192,94	1308,65
193,16	1314,80
193,38	1275,88
193,60	1226,73
193,82	1249,26
194,04	1257,45
194,26	1273,84
194,48	1290,22
194,70	1284,08
194,92	1255,40
195,14	1345,52
195,36	1269,74
195,58	1290,22
195,80	1282,03
196,02	1277,93
196,24	1282,03
196,46	1286,12
196,69	1181,68
196,91	1273,84
197,13	1245,16
197,35	1261,55
197,57	1230,83
197,79	1228,78
198,01	1290,22
198,23	1288,17
198,45	1273,84
198,67	1320,94
198,89	1265,64
199,11	1294,32
199,33	1234,93
199,55	1288,17
199,77	1308,65
199,99	1267,69
200,21	1284,08
200,43	1234,93
200,65	1167,34
200,87	1290,22
201,09	1230,83
201,31	1241,07
201,53	1257,45
201,75	1253,36
201,97	1247,21
202,19	1327,08
202,41	1269,74
202,63	1290,22
202,85	1304,56
203,07	1241,07
203,29	1318,89
203,51	1282,03
203,73	1228,78
203,95	1282,03
204,17	1318,89
204,39	1200,11
204,61	1212,40
204,83	1232,88
205,05	1275,88
205,27	1232,88
205,49	1263,60
205,71	1339,37
205,93	1347,56
206,15	1282,03
206,37	1249,26
206,59	1306,60
206,81	1216,49
207,03	1206,25
207,25	1206,25
207,47	1325,04
207,69	1271,79
207,91	1210,35
208,13	1265,64
208,34	1335,28
208,56	1171,44
208,78	1263,60
209,00	1224,69
209,22	1288,17
209,44	1298,41
209,66	1269,74
209,88	1273,84
210,10	1243,12
210,32	1245,16
210,54	1337,32
210,76	1284,08
210,98	1300,46
211,20	1247,21
211,42	1306,60
211,64	1249,26
211,86	1239,02
212,08	1286,12
212,30	1228,78
212,52	1275,88
212,74	1226,73
212,96	1277,93
213,17	1298,41
213,39	1261,55
213,61	1193,97
213,83	1320,94
214,05	1249,26
214,27	1245,16
214,49	1275,88
214,71	1288,17
214,93	1243,12
215,15	1257,45
215,37	1296,36
215,59	1204,21
215,81	1255,40
216,03	1269,74
216,24	1308,65
216,46	1228,78
216,68	1290,22
216,90	1236,97
217,12	1226,73
217,34	1253,36
217,56	1236,97
217,78	1265,64
218,00	1257,45
218,22	1335,28
218,44	1290,22
218,66	1236,97
218,87	1327,08
219,09	1284,08
219,31	1200,11
219,53	1267,69
219,75	1177,58
219,97	1306,60
220,19	1265,64
220,41	1232,88
220,63	1234,93
220,85	1339,37
221,06	1292,27
221,28	1351,66
221,50	1298,41
221,72	1249,26
221,94	1265,64
222,16	1255,40
222,38	1269,74
222,60	1292,27
222,82	1298,41
223,03	1265,64
223,25	1228,78
223,47	1273,84
223,69	1320,94
223,91	1279,98
224,13	1257,45
224,35	1286,12
224,57	1337,32
224,78	1236,97
225,00	1298,41
225,22	1314,80
225,44	1294,32
225,66	1300,46
225,88	1320,94
226,10	1320,94
226,32	1314,80
226,53	1263,60
226,75	1171,44
226,97	1269,74
227,19	1261,55
227,41	1263,60
227,63	1253,36
227,85	1306,60
228,06	1284,08
228,28	1275,88
228,50	1331,18
228,72	1257,45
228,94	1236,97
229,16	1265,64
229,37	1259,50
229,59	1222,64
229,81	1187,82
230,03	1261,55
230,25	1257,45
230,47	1312,75
230,69	1322,99
230,90	1230,83
231,12	1245,16
231,34	1296,36
231,56	1263,60
231,78	1222,64
232,00	1331,18
232,21	1284,08
232,43	1206,25
232,65	1370,09
232,87	1253,36
233,09	1255,40
233,30	1302,51
233,52	1329,13
233,74	1236,97
233,96	1308,65
234,18	1269,74
234,40	1306,60
234,61	1249,26
234,83	1216,49
235,05	1236,97
235,27	1224,69
235,49	1282,03
235,70	1277,93
235,92	1271,79
236,14	1232,88
236,36	1245,16
236,58	1232,88
236,79	1257,45
237,01	1222,64
237,23	1243,12
237,45	1239,02
237,67	1224,69
237,88	1247,21
238,10	1296,36
238,32	1181,68
238,54	1226,73
238,76	1222,64
238,97	1249,26
239,19	1232,88
239,41	1294,32
239,63	1263,60
239,85	1236,97
240,06	1243,12
240,28	1239,02
240,50	1249,26
240,72	1261,55
240,93	1294,32
241,15	1249,26
241,37	1282,03
241,59	1232,88
241,81	1288,17
242,02	1279,98
242,24	1222,64
242,46	1271,79
242,68	1257,45
242,89	1191,92
243,11	1249,26
243,33	1304,56
243,55	1214,45
243,76	1292,27
243,98	1243,12
244,20	1236,97
244,42	1273,84
244,64	1296,36
244,85	1271,79
245,07	1216,49
245,29	1335,28
245,51	1279,98
245,72	1265,64
245,94	1318,89
246,16	1216,49
246,38	1277,93
246,59	1210,35
246,81	1255,40
247,03	1218,54
247,24	1232,88
247,46	1210,35
247,68	1290,22
247,90	1216,49
248,11	1177,58
248,33	1259,50
248,55	1269,74
248,77	1249,26
248,98	1253,36
249,20	1222,64
249,42	1306,60
249,64	1279,98
249,85	1267,69
250,07	1306,60
250,29	1247,21
250,50	1243,12
250,72	1284,08
250,94	1214,45
251,16	1269,74
251,37	1282,03
251,59	1265,64
251,81	1290,22
252,02	1310,70
252,24	1302,51
252,46	1265,64
252,68	1275,88
252,89	1259,50
253,11	1243,12
253,33	1234,93
253,54	1333,23
253,76	1286,12
253,98	1320,94
254,20	1267,69
254,41	1271,79
254,63	1271,79
254,85	1271,79
255,06	1263,60
255,28	1273,84
255,50	1288,17
255,71	1263,60
255,93	1247,21
256,15	1245,16
256,36	1282,03
256,58	1312,75
256,80	1298,41
257,02	1267,69
257,23	1331,18
257,45	1249,26
257,67	1239,02
257,88	1302,51
258,10	1251,31
258,32	1347,56
258,53	1200,11
258,75	1300,46
258,97	1294,32
259,18	1265,64
259,40	1241,07
259,62	1273,84
259,83	1265,64
260,05	1243,12
260,27	1329,13
260,48	1290,22
260,70	1304,56
260,92	1255,40
261,13	1255,40
261,35	1292,27
261,57	1269,74
261,78	1230,83
262,00	1294,32
262,22	1226,73
262,43	1296,36
262,65	1257,45
262,86	1288,17
263,08	1288,17
263,30	1187,82
263,51	1193,97
263,73	1226,73
263,95	1271,79
264,16	1273,84
264,38	1208,30
264,60	1314,80
264,81	1191,92
265,03	1296,36
265,25	1206,25
265,46	1304,56
265,68	1347,56
265,89	1304,56
266,11	1251,31
266,33	1318,89
266,54	1302,51
266,76	1333,23
266,98	1261,55
267,19	1363,95
267,41	1312,75
267,62	1236,97
267,84	1275,88
268,06	1257,45
268,27	1298,41
268,49	1316,84
268,70	1257,45
268,92	1292,27
269,14	1286,12
269,35	1251,31
269,57	1282,03
269,79	1249,26
270,00	1236,97
270,22	1257,45
270,43	1282,03
270,65	1267,69
270,87	1243,12
271,08	1310,70
271,30	1290,22
271,51	1245,16
271,73	1269,74
271,95	1325,04
272,16	1245,16
272,38	1263,60
272,59	1218,54
272,81	1378,28
273,02	1302,51
273,24	1304,56
273,46	1241,07
273,67	1306,60
273,89	1200,11
274,10	1255,40
274,32	1236,97
274,54	1239,02
274,75	1226,73
274,97	1255,40
275,18	1337,32
275,40	1191,92
275,61	1284,08
275,83	1247,21
276,05	1232,88
276,26	1333,23
276,48	1294,32
276,69	1284,08
276,91	1234,93
277,12	1183,73
277,34	1298,41
277,55	1312,75
277,77	1275,88
277,99	1259,50
278,20	1204,21
278,42	1216,49
278,63	1230,83
278,85	1153,01
279,06	1222,64
279,28	1304,56
279,49	1224,69
279,71	1251,31
279,93	1337,32
280,14	1302,51
280,36	1310,70
280,57	1312,75
280,79	1249,26
281,00	1228,78
281,22	1210,35
281,43	1253,36
281,65	1267,69
281,86	1288,17
282,08	1253,36
282,29	1259,50
282,51	1220,59
282,73	1230,83
282,94	1247,21
283,16	1316,84
283,37	1279,98
283,59	1292,27
283,80	1275,88
284,02	1204,21
284,23	1275,88
284,45	1230,83
284,66	1226,73
284,88	1257,45
285,09	1253,36
285,31	1288,17
285,52	1228,78
285,74	1353,71
285,95	1265,64
286,17	1333,23
286,38	1265,64
286,60	1296,36
286,81	1298,41
287,03	1282,03
287,24	1298,41
287,46	1259,50
287,67	1239,02
287,89	1200,11
288,10	1282,03
288,32	1251,31
288,53	1269,74
288,75	1218,54
288,96	1318,89
289,18	1269,74
289,39	1271,79
289,61	1294,32
289,82	1300,46
290,04	1306,60
290,25	1204,21
290,47	1292,27
290,68	1269,74
290,90	1208,30
291,11	1286,12
291,33	1310,70
291,54	1222,64
291,76	1212,40
291,97	1255,40
292,18	1206,25
292,40	1226,73
292,61	1220,59
292,83	1232,88
293,04	1320,94
293,26	1255,40
293,47	1288,17
293,69	1318,89
293,90	1249,26
294,12	1239,02
294,33	1230,83
294,55	1318,89
294,76	1294,32
294,97	1298,41
295,19	1249,26
295,40	1236,97
295,62	1243,12
295,83	1306,60
296,05	1257,45
296,26	1263,60
296,48	1255,40
296,69	1236,97
296,90	1277,93
297,12	1261,55
297,33	1279,98
297,55	1269,74
297,76	1308,65
297,98	1271,79
298,19	1292,27
298,41	1224,69
298,62	1327,08
298,83	1261,55
299,05	1284,08
299,26	1294,32
299,48	1259,50
299,69	1294,32
299,90	1271,79
300,12	1284,08
300,33	1265,64
300,55	1208,30
300,76	1220,59
300,98	1290,22
301,19	1239,02
301,40	1277,93
301,62	1361,90
301,83	1302,51
302,05	1263,60
302,26	1265,64
302,47	1206,25
302,69	1245,16
302,90	1206,25
303,12	1279,98
303,33	1265,64
303,54	1265,64
303,76	1236,97
303,97	1239,02
304,19	1306,60
304,40	1265,64
304,61	1318,89
304,83	1265,64
305,04	1290,22
305,26	1267,69
305,47	1277,93
305,68	1243,12
305,90	1288,17
306,11	1247,21
306,33	1267,69
306,54	1288,17
306,75	1310,70
306,97	1239,02
307,18	1322,99
307,39	1314,80
307,61	1255,40
307,82	1259,50
308,04	1271,79
308,25	1214,45
308,46	1263,60
308,68	1189,87
308,89	1282,03
309,10	1230,83
309,32	1218,54
309,53	1320,94
309,74	1296,36
309,96	1263,60
310,17	1249,26
310,39	1282,03
310,60	1267,69
310,81	1255,40
311,03	1335,28
311,24	1255,40
311,45	1282,03
311,67	1255,40
311,88	1273,84
312,09	1261,55
312,31	1257,45
312,52	1245,16
312,73	1241,07
312,95	1196,01
313,16	1298,41
313,37	1259,50
313,59	1202,16
313,80	1208,30
314,01	1265,64
314,23	1232,88
314,44	1247,21
314,65	1226,73
314,87	1282,03
315,08	1206,25
315,29	1314,80
315,51	1204,21
315,72	1253,36
315,93	1251,31
316,15	1228,78
316,36	1351,66
316,57	1320,94
316,79	1224,69
317,00	1304,56
317,21	1214,45
317,43	1239,02
317,64	1298,41
317,85	1247,21
318,07	1271,79
318,28	1247,21
318,49	1271,79
318,70	1265,64
318,92	1275,88
319,13	1275,88
319,34	1245,16
319,56	1251,31
319,77	1241,07
319,98	1243,12
320,20	1255,40
320,41	1277,93
320,62	1255,40
320,83	1245,16
321,05	1239,02
321,26	1253,36
321,47	1290,22
321,69	1277,93
321,90	1249,26
322,11	1265,64
322,32	1218,54
322,54	1265,64
322,75	1265,64
322,96	1241,07
323,18	1212,40
323,39	1331,18
323,60	1165,29
323,81	1318,89
324,03	1290,22
324,24	1216,49
324,45	1171,44
324,66	1226,73
324,88	1220,59
325,09	1310,70
325,30	1308,65
325,52	1273,84
325,73	1214,45
325,94	1288,17
326,15	1228,78
326,37	1314,80
326,58	1284,08
326,79	1243,12
327,00	1241,07
327,22	1286,12
327,43	1200,11
327,64	1284,08
327,85	1245,16
328,07	1273,84
328,28	1286,12
328,49	1243,12
328,70	1236,97
328,92	1296,36
329,13	1171,44
329,34	1322,99
329,55	1253,36
329,76	1261,55
329,98	1343,47
330,19	1249,26
330,40	1282,03
330,61	1282,03
330,83	1257,45
331,04	1241,07
331,25	1318,89
331,46	1243,12
331,68	1239,02
331,89	1284,08
332,10	1198,06
332,31	1329,13
332,52	1290,22
332,74	1261,55
332,95	1241,07
333,16	1335,28
333,37	1259,50
333,58	1224,69
333,80	1261,55
334,01	1226,73
334,22	1294,32
334,43	1269,74
334,64	1261,55
334,86	1298,41
335,07	1261,55
335,28	1226,73
335,49	1302,51
335,70	1318,89
335,92	1314,80
336,13	1284,08
336,34	1302,51
336,55	1284,08
336,76	1318,89
336,98	1269,74
337,19	1210,35
337,40	1249,26
337,61	1259,50
337,82	1343,47
338,04	1304,56
338,25	1243,12
338,46	1271,79
338,67	1251,31
338,88	1286,12
339,09	1255,40
339,31	1298,41
339,52	1298,41
339,73	1284,08
339,94	1220,59
340,15	1245,16
340,36	1339,37
340,58	1314,80
340,79	1230,83
341,00	1314,80
341,21	1322,99
341,42	1261,55
341,63	1249,26
341,85	1273,84
342,06	1259,50
342,27	1273,84
342,48	1259,50
342,69	1208,30
342,90	1249,26
343,12	1275,88
343,33	1236,97
343,54	1277,93
343,75	1275,88
343,96	1265,64
344,17	1275,88
344,38	1308,65
344,60	1275,88
344,81	1279,98
345,02	1304,56
345,23	1251,31
345,44	1251,31
345,65	1249,26
345,86	1353,71
346,07	1181,68
346,29	1271,79
346,50	1265,64
346,71	1241,07
346,92	1320,94
347,13	1265,64
347,34	1228,78
347,55	1310,70
347,76	1249,26
347,98	1245,16
348,19	1265,64
348,40	1316,84
348,61	1296,36
348,82	1327,08
349,03	1286,12
349,24	1253,36
349,45	1228,78
349,66	1222,64
349,88	1267,69
350,09	1316,84
350,30	1177,58
350,51	1329,13
350,72	1234,93
350,93	1314,80
351,14	1234,93
351,35	1271,79
351,56	1300,46
351,77	1214,45
351,99	1247,21
352,20	1349,61
352,41	1355,76
352,62	1251,31
352,83	1259,50
353,04	1210,35
353,25	1267,69
353,46	1296,36
353,67	1267,69
353,88	1226,73
354,09	1200,11
354,30	1277,93
354,52	1255,40
354,73	1179,63
354,94	1284,08
355,15	1236,97
355,36	1296,36
355,57	1247,21
355,78	1316,84
355,99	1247,21
356,20	1222,64
356,41	1269,74
356,62	1286,12
356,83	1275,88
357,04	1224,69
357,25	1214,45
357,46	1310,70
357,68	1241,07
357,89	1279,98
358,10	1306,60
358,31	1247,21
358,52	1265,64
358,73	1298,41
358,94	1314,80
359,15	1253,36
359,36	1308,65
359,57	1206,25
359,78	1249,26
359,99	1325,04
360,20	1275,88
360,41	1251,31
360,62	1347,56
360,83	1288,17
361,04	1245,16
361,25	1263,60
361,46	1288,17
361,67	1298,41
361,88	1220,59
362,09	1277,93
362,30	1290,22
362,51	1314,80
362,72	1226,73
362,93	1271,79
363,14	1226,73
363,35	1259,50
363,56	1329,13
363,78	1349,61
363,99	1312,75
364,20	1286,12
364,41	1273,84
364,62	1265,64
364,83	1265,64
365,04	1261,55
365,25	1308,65
365,46	1308,65
365,67	1177,58
365,88	1206,25
366,09	1320,94
366,30	1236,97
366,51	1249,26
366,72	1310,70
366,93	1288,17
367,14	1183,73
367,35	1261,55
367,56	1259,50
367,77	1206,25
367,98	1167,34
368,18	1292,27
368,39	1284,08
368,60	1263,60
368,81	1298,41
369,02	1327,08
369,23	1279,98
369,44	1220,59
369,65	1312,75
369,86	1243,12
370,07	1296,36
370,28	1265,64
370,49	1208,30
370,70	1265,64
370,91	1245,16
371,12	1208,30
371,33	1306,60
371,54	1249,26
371,75	1196,01
371,96	1232,88
372,17	1265,64
372,38	1232,88
372,59	1300,46
372,80	1257,45
373,01	1273,84
373,22	1265,64
373,43	1318,89
373,64	1271,79
373,85	1179,63
374,06	1241,07
374,26	1290,22
374,47	1228,78
374,68	1290,22
374,89	1243,12
375,10	1306,60
375,31	1277,93
375,52	1253,36
375,73	1247,21
375,94	1257,45
376,15	1282,03
376,36	1304,56
376,57	1200,11
376,78	1306,60
376,99	1216,49
377,20	1275,88
377,40	1288,17
377,61	1273,84
377,82	1269,74
378,03	1228,78
378,24	1298,41
378,45	1257,45
378,66	1339,37
378,87	1251,31
379,08	1263,60
379,29	1282,03
379,50	1302,51
379,71	1236,97
379,91	1230,83
380,12	1263,60
380,33	1298,41
380,54	1204,21
380,75	1218,54
380,96	1253,36
381,17	1267,69
381,38	1296,36
381,59	1239,02
381,80	1255,40
382,00	1300,46
382,21	1288,17
382,42	1290,22
382,63	1239,02
382,84	1249,26
383,05	1230,83
383,26	1275,88
383,47	1259,50
383,68	1277,93
383,88	1236,97
384,09	1302,51
384,30	1349,61
384,51	1273,84
384,72	1247,21
384,93	1249,26
385,14	1277,93
385,35	1304,56
385,55	1273,84
385,76	1273,84
385,97	1263,60
386,18	1243,12
386,39	1273,84
386,60	1343,47
386,81	1318,89
387,02	1296,36
387,22	1265,64
387,43	1329,13
387,64	1304,56
387,85	1292,27
388,06	1196,01
388,27	1236,97
388,48	1222,64
388,68	1302,51
388,89	1294,32
389,10	1288,17
389,31	1222,64
389,52	1337,32
389,73	1255,40
389,93	1247,21
390,14	1241,07
390,35	1218,54
390,56	1208,30
390,77	1247,21
390,98	1253,36
391,18	1255,40
391,39	1261,55
391,60	1318,89
391,81	1243,12
392,02	1243,12
392,23	1269,74
392,43	1318,89
392,64	1249,26
392,85	1234,93
393,06	1251,31
393,27	1284,08
393,47	1228,78
393,68	1206,25
393,89	1318,89
394,10	1282,03
394,31	1255,40
394,52	1208,30
394,72	1226,73
394,93	1304,56
395,14	1282,03
395,35	1279,98
395,56	1296,36
395,76	1322,99
395,97	1189,87
396,18	1239,02
396,39	1302,51
396,60	1290,22
396,80	1259,50
397,01	1290,22
397,22	1271,79
397,43	1320,94
397,64	1257,45
397,84	1306,60
398,05	1337,32
398,26	1259,50
398,47	1230,83
398,67	1257,45
398,88	1230,83
399,09	1263,60
399,30	1279,98
399,51	1255,40
399,71	1241,07
399,92	1243,12
400,13	1257,45
400,34	1271,79
400,54	1255,40
400,75	1312,75
400,96	1310,70
401,17	1208,30
401,37	1230,83
401,58	1234,93
401,79	1263,60
402,00	1337,32
402,21	1286,12
402,41	1318,89
402,62	1318,89
402,83	1193,97
403,04	1216,49
403,24	1288,17
403,45	1282,03
403,66	1232,88
403,87	1202,16
404,07	1212,40
404,28	1312,75
404,49	1239,02
404,70	1290,22
404,90	1167,34
405,11	1288,17
405,32	1335,28
405,52	1298,41
405,73	1263,60
405,94	1314,80
406,15	1304,56
406,35	1304,56
406,56	1286,12
406,77	1335,28
406,98	1222,64
407,18	1286,12
407,39	1353,71
407,60	1277,93
407,80	1271,79
408,01	1333,23
408,22	1316,84
408,43	1312,75
408,63	1273,84
408,84	1245,16
409,05	1249,26
409,25	1271,79
409,46	1325,04
409,67	1228,78
409,88	1253,36
410,08	1277,93
410,29	1228,78
410,50	1265,64
410,70	1239,02
410,91	1226,73
411,12	1239,02
411,32	1263,60
411,53	1284,08
411,74	1253,36
411,95	1288,17
412,15	1327,08
412,36	1241,07
412,57	1329,13
412,77	1302,51
412,98	1251,31
413,19	1253,36
413,39	1279,98
413,60	1277,93
413,81	1239,02
414,01	1239,02
414,22	1249,26
414,43	1306,60
414,63	1277,93
414,84	1255,40
415,05	1279,98
415,25	1230,83
415,46	1312,75
415,67	1282,03
415,87	1296,36
416,08	1304,56
416,29	1277,93
416,49	1232,88
416,70	1290,22
416,91	1298,41
417,11	1257,45
417,32	1308,65
417,53	1265,64
417,73	1259,50
417,94	1255,40
418,15	1298,41
418,35	1249,26
418,56	1279,98
418,77	1239,02
418,97	1366,00
419,18	1314,80
419,38	1247,21
419,59	1286,12
419,80	1212,40
420,00	1216,49
420,21	1269,74
420,42	1189,87
420,62	1218,54
420,83	1234,93
421,04	1275,88
421,24	1241,07
421,45	1273,84
421,65	1304,56
421,86	1284,08
422,07	1273,84
422,27	1298,41
422,48	1331,18
422,69	1265,64
422,89	1220,59
423,10	1282,03
423,30	1259,50
423,51	1273,84
423,72	1216,49
423,92	1306,60
424,13	1259,50
424,33	1277,93
424,54	1300,46
424,75	1359,85
424,95	1267,69
425,16	1253,36
425,36	1224,69
425,57	1275,88
425,78	1224,69
425,98	1196,01
426,19	1261,55
426,39	1208,30
426,60	1226,73
426,81	1214,45
427,01	1218,54
427,22	1277,93
427,42	1251,31
427,63	1306,60
427,83	1290,22
428,04	1312,75
428,25	1187,82
428,45	1273,84
428,66	1232,88
428,86	1239,02
429,07	1243,12
429,28	1239,02
429,48	1267,69
429,69	1282,03
429,89	1241,07
430,10	1345,52
430,30	1216,49
430,51	1320,94
430,71	1302,51
430,92	1257,45
431,13	1261,55
431,33	1179,63
431,54	1257,45
431,74	1263,60
431,95	1255,40
432,15	1247,21
432,36	1294,32
432,56	1198,06
432,77	1269,74
432,98	1294,32
433,18	1236,97
433,39	1271,79
433,59	1249,26
433,80	1341,42
434,00	1366,00
434,21	1255,40
434,41	1241,07
434,62	1294,32
434,82	1267,69
435,03	1245,16
435,23	1304,56
435,44	1239,02
435,64	1251,31
435,85	1286,12
436,06	1290,22
436,26	1302,51
436,47	1312,75
436,67	1325,04
436,88	1198,06
437,08	1226,73
437,29	1288,17
437,49	1267,69
437,70	1296,36
437,90	1306,60
438,11	1300,46
438,31	1249,26
438,52	1224,69
438,72	1327,08
438,93	1241,07
439,13	1239,02
439,34	1302,51
439,54	1288,17
439,75	1273,84
439,95	1300,46
440,16	1271,79
440,36	1218,54
440,57	1187,82
440,77	1325,04
440,98	1214,45
441,18	1257,45
441,39	1279,98
441,59	1282,03
441,80	1261,55
442,00	1282,03
442,21	1296,36
442,41	1304,56
442,62	1232,88
442,82	1263,60
443,02	1310,70
443,23	1263,60
443,43	1312,75
443,64	1259,50
443,84	1234,93
444,05	1208,30
444,25	1298,41
444,46	1282,03
444,66	1335,28
444,87	1298,41
445,07	1325,04
445,28	1279,98
445,48	1236,97
445,69	1257,45
445,89	1263,60
446,09	1220,59
446,30	1245,16
446,50	1263,60
446,71	1290,22
446,91	1265,64
447,12	1243,12
447,32	1243,12
447,53	1239,02
447,73	1290,22
447,93	1327,08
448,14	1320,94
448,34	1298,41
448,55	1239,02
448,75	1298,41
448,96	1236,97
449,16	1228,78
449,36	1333,23
449,57	1294,32
449,77	1325,04
449,98	1241,07
450,18	1224,69
450,39	1331,18
450,59	1216,49
450,79	1298,41
451,00	1232,88
451,20	1314,80
451,41	1271,79
451,61	1273,84
451,81	1308,65
452,02	1306,60
452,22	1314,80
452,43	1357,80
452,63	1247,21
452,84	1292,27
453,04	1202,16
453,24	1298,41
453,45	1290,22
453,65	1259,50
453,86	1279,98
454,06	1292,27
454,26	1273,84
454,47	1277,93
454,67	1234,93
454,87	1286,12
455,08	1265,64
455,28	1322,99
455,49	1230,83
455,69	1308,65
455,89	1294,32
456,10	1286,12
456,30	1290,22
456,51	1341,42
456,71	1304,56
456,91	1320,94
457,12	1245,16
457,32	1312,75
457,52	1265,64
457,73	1290,22
457,93	1284,08
458,14	1351,66
458,34	1296,36
458,54	1263,60
458,75	1247,21
458,95	1257,45
459,15	1302,51
459,36	1349,61
459,56	1261,55
459,76	1286,12
459,97	1359,85
460,17	1257,45
460,37	1236,97
460,58	1271,79
460,78	1271,79
460,99	1288,17
461,19	1292,27
461,39	1255,40
461,60	1259,50
461,80	1269,74
462,00	1306,60
462,21	1279,98
462,41	1245,16
462,61	1226,73
462,82	1257,45
463,02	1304,56
463,22	1241,07
463,43	1249,26
463,63	1224,69
463,83	1261,55
464,04	1327,08
464,24	1230,83
464,44	1249,26
464,64	1284,08
464,85	1343,47
465,05	1288,17
465,25	1263,60
465,46	1267,69
465,66	1265,64
465,86	1271,79
466,07	1257,45
466,27	1236,97
466,47	1288,17
466,68	1214,45
466,88	1314,80
467,08	1236,97
467,29	1279,98
467,49	1282,03
467,69	1322,99
467,89	1245,16
468,10	1247,21
468,30	1290,22
468,50	1310,70
468,71	1351,66
468,91	1269,74
469,11	1273,84
469,31	1304,56
469,52	1251,31
469,72	1282,03
469,92	1296,36
470,13	1292,27
470,33	1333,23
470,53	1308,65
470,73	1224,69
470,94	1329,13
471,14	1263,60
471,34	1284,08
471,54	1314,80
471,75	1310,70
471,95	1212,40
472,15	1251,31
472,36	1310,70
472,56	1263,60
472,76	1251,31
472,96	1271,79
473,17	1222,64
473,37	1245,16
473,57	1263,60
473,77	1189,87
473,98	1275,88
474,18	1277,93
474,38	1298,41
474,58	1310,70
474,79	1263,60
474,99	1290,22
475,19	1241,07
475,39	1273,84
475,60	1298,41
475,80	1265,64
476,00	1243,12
476,20	1292,27
476,41	1300,46
476,61	1290,22
476,81	1277,93
477,01	1196,01
477,21	1345,52
477,42	1247,21
477,62	1210,35
477,82	1310,70
478,02	1298,41
478,23	1286,12
478,43	1271,79
478,63	1282,03
478,83	1275,88
479,03	1284,08
479,24	1206,25
479,44	1279,98
479,64	1222,64
479,84	1275,88
480,04	1277,93
480,25	1320,94
480,45	1177,58
480,65	1357,80
480,85	1345,52
481,06	1269,74
481,26	1187,82
481,46	1257,45
481,66	1263,60
481,86	1239,02
482,06	1292,27
482,27	1191,92
482,47	1253,36
482,67	1269,74
482,87	1206,25
483,07	1279,98
483,28	1265,64
483,48	1279,98
483,68	1265,64
483,88	1294,32
484,08	1282,03
484,29	1263,60
484,49	1243,12
484,69	1366,00
484,89	1263,60
485,09	1263,60
485,29	1318,89
485,50	1290,22
485,70	1224,69
485,90	1361,90
486,10	1290,22
486,30	1290,22
486,50	1220,59
486,71	1224,69
486,91	1265,64
487,11	1316,84
487,31	1302,51
487,51	1247,21
487,71	1292,27
487,91	1277,93
488,12	1228,78
488,32	1331,18
488,52	1216,49
488,72	1306,60
488,92	1191,92
489,12	1304,56
489,32	1312,75
489,53	1247,21
489,73	1228,78
489,93	1265,64
490,13	1216,49
490,33	1259,50
490,53	1265,64
490,73	1325,04
490,94	1273,84
491,14	1279,98
491,34	1267,69
491,54	1353,71
491,74	1273,84
491,94	1282,03
492,14	1284,08
492,34	1220,59
492,54	1232,88
492,75	1294,32
492,95	1286,12
493,15	1241,07
493,35	1243,12
493,55	1228,78
493,75	1239,02
493,95	1316,84
494,15	1269,74
494,35	1304,56
494,56	1282,03
494,76	1265,64
494,96	1224,69
495,16	1230,83
495,36	1271,79
495,56	1333,23
495,76	1269,74
495,96	1249,26
496,16	1298,41
496,36	1320,94
496,56	1292,27
496,77	1333,23
496,97	1236,97
497,17	1353,71
497,37	1263,60
497,57	1230,83
497,77	1327,08
497,97	1228,78
498,17	1257,45
498,37	1200,11
498,57	1265,64
498,77	1288,17
498,97	1314,80
499,17	1253,36
499,38	1296,36
499,58	1269,74
499,78	1220,59
499,98	1275,88
500,18	1232,88
500,38	1298,41
500,58	1294,32
500,78	1251,31
500,98	1312,75
501,18	1263,60
501,38	1300,46
501,58	1224,69
501,78	1306,60
501,98	1308,65
502,18	1320,94
502,38	1243,12
502,58	1193,97
502,78	1308,65
502,98	1306,60
503,18	1337,32
503,38	1273,84
503,59	1245,16
503,79	1298,41
503,99	1193,97
504,19	1277,93
504,39	1257,45
504,59	1275,88
504,79	1277,93
504,99	1314,80
505,19	1263,60
505,39	1259,50
505,59	1306,60
505,79	1341,42
505,99	1322,99
506,19	1196,01
506,39	1314,80
506,59	1294,32
506,79	1255,40
506,99	1292,27
507,19	1263,60
507,39	1183,73
507,59	1273,84
507,79	1232,88
507,99	1257,45
508,19	1228,78
508,39	1329,13
508,59	1224,69
508,79	1230,83
508,99	1212,40
509,19	1298,41
509,39	1294,32
509,59	1257,45
509,79	1292,27
509,99	1273,84
510,19	1253,36
510,39	1339,37
510,59	1357,80
510,79	1265,64
510,99	1341,42
511,19	1341,42
511,39	1255,40
511,59	1214,45
511,79	1318,89
511,99	1300,46
512,19	1294,32
512,38	1341,42
512,58	1298,41
512,78	1357,80
512,98	1183,73
513,18	1304,56
513,38	1265,64
513,58	1294,32
513,78	1259,50
513,98	1247,21
514,18	1284,08
514,38	1294,32
514,58	1265,64
514,78	1128,43
514,98	1273,84
515,18	1329,13
515,38	1269,74
515,58	1290,22
515,78	1271,79
515,98	1271,79
516,18	1288,17
516,38	1296,36
516,57	1214,45
516,77	1345,52
516,97	1312,75
517,17	1314,80
517,37	1253,36
517,57	1263,60
517,77	1185,77
517,97	1222,64
518,17	1310,70
518,37	1308,65
518,57	1306,60
518,77	1331,18
518,97	1292,27
519,16	1292,27
519,36	1271,79
519,56	1234,93
519,76	1245,16
519,96	1329,13
520,16	1253,36
520,36	1282,03
520,56	1353,71
520,76	1331,18
520,96	1273,84
521,16	1236,97
521,35	1306,60
521,55	1265,64
521,75	1279,98
521,95	1232,88
522,15	1226,73
522,35	1282,03
522,55	1204,21
522,75	1341,42
522,95	1277,93
523,14	1204,21
523,34	1318,89
523,54	1236,97
523,74	1296,36
523,94	1208,30
524,14	1314,80
524,34	1255,40
524,54	1251,31
524,73	1222,64
524,93	1269,74
525,13	1318,89
525,33	1251,31
525,53	1349,61
525,73	1271,79
525,93	1333,23
526,13	1275,88
526,32	1204,21
526,52	1241,07
526,72	1275,88
526,92	1251,31
527,12	1275,88
527,32	1273,84
527,52	1322,99
527,71	1300,46
527,91	1208,30
528,11	1306,60
528,31	1226,73
528,51	1181,68
528,71	1249,26
528,90	1265,64
529,10	1220,59
529,30	1298,41
529,50	1230,83
529,70	1263,60
529,90	1251,31
530,09	1198,06
530,29	1263,60
530,49	1269,74
530,69	1288,17
530,89	1359,85
531,09	1251,31
531,28	1273,84
531,48	1312,75
531,68	1277,93
531,88	1308,65
532,08	1267,69
532,28	1327,08
532,47	1251,31
532,67	1241,07
532,87	1322,99
533,07	1325,04
533,27	1335,28
533,46	1306,60
533,66	1333,23
533,86	1302,51
534,06	1294,32
534,26	1271,79
534,45	1224,69
534,65	1269,74
534,85	1296,36
535,05	1366,00
535,25	1273,84
535,44	1259,50
535,64	1208,30
535,84	1329,13
536,04	1308,65
536,24	1273,84
536,43	1214,45
536,63	1300,46
536,83	1335,28
537,03	1327,08
537,22	1263,60
537,42	1310,70
537,62	1314,80
537,82	1261,55
538,02	1331,18
538,21	1359,85
538,41	1175,53
538,61	1222,64
538,81	1288,17
539,00	1300,46
539,20	1312,75
539,40	1298,41
539,60	1290,22
539,79	1243,12
539,99	1312,75
540,19	1216,49
540,39	1329,13
540,58	1361,90
540,78	1353,71
540,98	1361,90
541,18	1294,32
541,37	1292,27
541,57	1214,45
541,77	1333,23
541,97	1304,56
542,16	1263,60
542,36	1232,88
542,56	1222,64
542,76	1247,21
542,95	1290,22
543,15	1261,55
543,35	1284,08
543,54	1267,69
543,74	1228,78
543,94	1279,98
544,14	1288,17
544,33	1320,94
544,53	1273,84
544,73	1191,92
544,93	1239,02
545,12	1316,84
545,32	1322,99
545,52	1261,55
545,71	1290,22
545,91	1226,73
546,11	1294,32
546,30	1273,84
546,50	1239,02
546,70	1298,41
546,90	1288,17
547,09	1273,84
547,29	1265,64
547,49	1296,36
547,68	1279,98
547,88	1288,17
548,08	1349,61
548,27	1267,69
548,47	1292,27
548,67	1302,51
548,87	1333,23
549,06	1224,69
549,26	1312,75
549,46	1351,66
549,65	1296,36
549,85	1380,33
550,05	1339,37
550,24	1253,36
550,44	1253,36
550,64	1284,08
550,83	1224,69
551,03	1288,17
551,23	1245,16
551,42	1286,12
551,62	1331,18
551,82	1239,02
552,01	1245,16
552,21	1249,26
552,41	1288,17
552,60	1216,49
552,80	1325,04
553,00	1292,27
553,19	1208,30
553,39	1275,88
553,59	1230,83
553,78	1316,84
553,98	1263,60
554,17	1249,26
554,37	1341,42
554,57	1292,27
554,76	1339,37
554,96	1269,74
555,16	1296,36
555,35	1294,32
555,55	1282,03
555,75	1251,31
555,94	1275,88
556,14	1269,74
556,33	1257,45
556,53	1331,18
556,73	1286,12
556,92	1314,80
557,12	1282,03
557,32	1288,17
557,51	1236,97
557,71	1259,50
557,90	1175,53
558,10	1267,69
558,30	1308,65
558,49	1282,03
558,69	1345,52
558,88	1236,97
559,08	1265,64
559,28	1284,08
559,47	1214,45
559,67	1277,93
559,86	1333,23
560,06	1146,86
560,26	1349,61
560,45	1294,32
560,65	1286,12
560,84	1230,83
561,04	1298,41
561,24	1345,52
561,43	1273,84
561,63	1314,80
561,82	1316,84
562,02	1251,31
562,22	1275,88
562,41	1269,74
562,61	1284,08
562,80	1302,51
563,00	1232,88
563,19	1273,84
563,39	1308,65
563,59	1296,36
563,78	1300,46
563,98	1257,45
564,17	1331,18
564,37	1306,60
564,56	1316,84
564,76	1257,45
564,96	1251,31
565,15	1337,32
565,35	1298,41
565,54	1284,08
565,74	1347,56
565,93	1220,59
566,13	1245,16
566,32	1218,54
566,52	1314,80
566,71	1251,31
566,91	1320,94
567,11	1337,32
567,30	1271,79
567,50	1331,18
567,69	1329,13
567,89	1298,41
568,08	1314,80
568,28	1277,93
568,47	1306,60
568,67	1351,66
568,86	1257,45
569,06	1257,45
569,25	1259,50
569,45	1269,74
569,64	1224,69
569,84	1304,56
570,04	1269,74
570,23	1212,40
570,43	1306,60
570,62	1257,45
570,82	1222,64
571,01	1275,88
571,21	1290,22
571,40	1236,97
571,60	1288,17
571,79	1249,26
571,99	1286,12
572,18	1282,03
572,38	1298,41
572,57	1284,08
572,77	1345,52
572,96	1157,10
573,16	1347,56
573,35	1300,46
573,55	1279,98
573,74	1249,26
573,94	1232,88
574,13	1314,80
574,33	1275,88
574,52	1314,80
574,71	1294,32
574,91	1245,16
575,10	1269,74
575,30	1204,21
575,49	1288,17
575,69	1312,75
575,88	1329,13
576,08	1263,60
576,27	1327,08
576,47	1353,71
576,66	1275,88
576,86	1232,88
577,05	1247,21
577,25	1286,12
577,44	1220,59
577,64	1314,80
577,83	1263,60
578,02	1308,65
578,22	1302,51
578,41	1232,88
578,61	1267,69
578,80	1320,94
579,00	1286,12
579,19	1353,71
579,39	1253,36
579,58	1345,52
579,77	1269,74
579,97	1296,36
580,16	1245,16
580,36	1320,94
580,55	1300,46
580,75	1296,36
580,94	1292,27
581,13	1282,03
581,33	1275,88
581,52	1273,84
581,72	1273,84
581,91	1298,41
582,11	1265,64
582,30	1308,65
582,49	1239,02
582,69	1267,69
582,88	1265,64
583,08	1316,84
583,27	1312,75
583,47	1271,79
583,66	1279,98
583,85	1251,31
584,05	1259,50
584,24	1351,66
584,44	1265,64
584,63	1261,55
584,82	1273,84
585,02	1271,79
585,21	1290,22
585,41	1257,45
585,60	1294,32
585,79	1208,30
585,99	1253,36
586,18	1265,64
586,37	1331,18
586,57	1296,36
586,76	1288,17
586,96	1296,36
587,15	1241,07
587,34	1239,02
587,54	1327,08
587,73	1302,51
587,93	1314,80
588,12	1243,12
588,31	1269,74
588,51	1232,88
588,70	1210,35
588,89	1310,70
589,09	1298,41
589,28	1271,79
589,47	1316,84
589,67	1271,79
589,86	1304,56
590,06	1310,70
590,25	1261,55
590,44	1286,12
590,64	1261,55
590,83	1294,32
591,02	1228,78
591,22	1327,08
591,41	1234,93
591,60	1294,32
591,80	1372,14
591,99	1269,74
592,18	1308,65
592,38	1251,31
592,57	1286,12
592,76	1265,64
592,96	1290,22
593,15	1370,09
593,34	1294,32
593,54	1257,45
593,73	1187,82
593,92	1341,42
594,12	1277,93
594,31	1245,16
594,50	1271,79
594,70	1322,99
594,89	1277,93
595,08	1269,74
595,28	1292,27
595,47	1253,36
595,66	1302,51
595,86	1308,65
596,05	1314,80
596,24	1339,37
596,43	1273,84
596,63	1314,80
596,82	1271,79
597,01	1335,28
597,21	1302,51
597,40	1296,36
597,59	1337,32
597,79	1232,88
597,98	1316,84
598,17	1279,98
598,36	1196,01
598,56	1308,65
598,75	1269,74
598,94	1277,93
599,14	1304,56
599,33	1355,76
599,52	1277,93
599,71	1288,17
599,91	1353,71
600,10	1329,13
600,29	1224,69
600,48	1257,45
600,68	1261,55
600,87	1300,46
601,06	1279,98
601,26	1304,56
601,45	1298,41
601,64	1298,41
601,83	1273,84
602,03	1294,32
602,22	1263,60
602,41	1275,88
602,60	1325,04
602,80	1267,69
602,99	1327,08
603,18	1302,51
603,37	1271,79
603,57	1236,97
603,76	1263,60
603,95	1265,64
604,14	1335,28
604,34	1368,04
604,53	1251,31
604,72	1214,45
604,91	1279,98
605,10	1273,84
605,30	1247,21
605,49	1286,12
605,68	1353,71
605,87	1300,46
606,07	1282,03
606,26	1331,18
606,45	1314,80
606,64	1259,50
606,84	1286,12
607,03	1282,03
607,22	1302,51
607,41	1212,40
607,60	1253,36
607,80	1290,22
607,99	1269,74
608,18	1343,47
608,37	1306,60
608,56	1259,50
608,76	1298,41
608,95	1267,69
609,14	1300,46
609,33	1329,13
609,52	1304,56
609,72	1296,36
609,91	1222,64
610,10	1294,32
610,29	1298,41
610,48	1282,03
610,68	1253,36
610,87	1300,46
611,06	1273,84
611,25	1249,26
611,44	1290,22
611,63	1318,89
611,83	1288,17
612,02	1253,36
612,21	1243,12
612,40	1263,60
612,59	1306,60
612,79	1273,84
612,98	1255,40
613,17	1318,89
613,36	1345,52
613,55	1347,56
613,74	1271,79
613,93	1208,30
614,13	1312,75
614,32	1312,75
614,51	1282,03
614,70	1282,03
614,89	1263,60
615,08	1320,94
615,28	1273,84
615,47	1239,02
615,66	1271,79
615,85	1296,36
616,04	1292,27
616,23	1372,14
616,42	1322,99
616,62	1357,80
616,81	1249,26
617,00	1345,52
617,19	1222,64
617,38	1275,88
617,57	1343,47
617,76	1308,65
617,95	1374,19
618,15	1288,17
618,34	1296,36
618,53	1312,75
618,72	1300,46
618,91	1322,99
619,10	1341,42
619,29	1181,68
619,48	1267,69
619,68	1314,80
619,87	1257,45
620,06	1294,32
620,25	1349,61
620,44	1331,18
620,63	1232,88
620,82	1316,84
621,01	1286,12
621,20	1249,26
621,39	1253,36
621,59	1304,56
621,78	1306,60
621,97	1333,23
622,16	1200,11
622,35	1353,71
622,54	1263,60
622,73	1294,32
622,92	1273,84
623,11	1273,84
623,30	1236,97
623,49	1306,60
623,68	1245,16
623,88	1267,69
624,07	1275,88
624,26	1257,45
624,45	1306,60
624,64	1327,08
624,83	1245,16
625,02	1363,95
625,21	1329,13
625,40	1298,41
625,59	1310,70
625,78	1318,89
625,97	1245,16
626,16	1259,50
626,35	1249,26
626,54	1273,84
626,74	1294,32
626,93	1249,26
627,12	1296,36
627,31	1232,88
627,50	1241,07
627,69	1253,36
627,88	1247,21
628,07	1306,60
628,26	1304,56
628,45	1269,74
628,64	1290,22
628,83	1292,27
629,02	1298,41
629,21	1263,60
629,40	1271,79
629,59	1339,37
629,78	1271,79
629,97	1239,02
630,16	1208,30
630,35	1259,50
630,54	1302,51
630,73	1310,70
630,92	1300,46
631,11	1257,45
631,30	1312,75
631,49	1355,76
631,68	1370,09
631,87	1482,73
632,06	1665,00
632,25	1470,44
632,44	1535,98
632,63	1593,32
632,82	1941,47
633,01	2488,28
633,20	1941,47
633,39	2029,54
633,58	2086,88
633,77	2099,17
633,96	1939,43
634,15	1902,56
634,34	2013,15
634,53	1998,82
634,72	1951,71
634,91	1787,88
635,10	1574,89
635,29	1624,04
635,48	1495,02
635,67	1464,30
635,86	1468,39
636,05	1409,00
636,24	1447,91
636,43	1415,15
636,62	1310,70
636,81	1230,83
637,00	1406,95
637,19	1267,69
637,38	1366,00
637,57	1294,32
637,76	1277,93
637,95	1304,56
638,14	1294,32
638,33	1353,71
638,52	1265,64
638,71	1308,65
638,89	1345,52
639,08	1251,31
639,27	1273,84
639,46	1318,89
639,65	1302,51
639,84	1232,88
640,03	1294,32
640,22	1165,29
640,41	1193,97
640,60	1316,84
640,79	1333,23
640,98	1327,08
641,17	1239,02
641,36	1314,80
641,55	1261,55
641,74	1331,18
641,92	1251,31
642,11	1343,47
642,30	1302,51
642,49	1236,97
642,68	1239,02
642,87	1275,88
643,06	1239,02
643,25	1216,49
643,44	1296,36
643,63	1300,46
643,82	1292,27
644,00	1279,98
644,19	1273,84
644,38	1359,85
644,57	1286,12
644,76	1308,65
644,95	1271,79
645,14	1247,21
645,33	1279,98
645,52	1228,78
645,71	1363,95
645,89	1257,45
646,08	1306,60
646,27	1298,41
646,46	1331,18
646,65	1234,93
646,84	1251,31
647,03	1282,03
647,22	1255,40
647,40	1257,45
647,59	1265,64
647,78	1247,21
647,97	1202,16
648,16	1241,07
648,35	1279,98
648,54	1288,17
648,73	1275,88
648,91	1241,07
649,10	1183,73
649,29	1304,56
649,48	1214,45
649,67	1249,26
649,86	1304,56
650,05	1220,59
650,23	1251,31
650,42	1255,40
650,61	1255,40
650,80	1302,51
650,99	1314,80
651,18	1255,40
651,36	1286,12
651,55	1249,26
651,74	1290,22
651,93	1366,00
652,12	1249,26
652,31	1282,03
652,49	1265,64
652,68	1304,56
652,87	1269,74
653,06	1359,85
653,25	1292,27
653,44	1253,36
653,62	1286,12
653,81	1310,70
654,00	1292,27
654,19	1269,74
654,38	1275,88
654,56	1220,59
654,75	1327,08
654,94	1296,36
655,13	1290,22
655,32	1298,41
655,51	1341,42
655,69	1333,23
655,88	1284,08
656,07	1304,56
656,26	1288,17
656,45	1322,99
656,63	1228,78
656,82	1290,22
657,01	1265,64
657,20	1243,12
657,38	1275,88
657,57	1245,16
657,76	1243,12
657,95	1312,75
658,14	1232,88
658,32	1259,50
658,51	1279,98
658,70	1241,07
658,89	1239,02
659,08	1316,84
659,26	1296,36
659,45	1206,25
659,64	1279,98
659,83	1257,45
660,01	1212,40
660,20	1255,40
660,39	1261,55
660,58	1318,89
660,76	1279,98
660,95	1255,40
661,14	1279,98
661,33	1290,22
661,51	1230,83
661,70	1322,99
661,89	1306,60
662,08	1224,69
662,26	1284,08
662,45	1279,98
662,64	1263,60
662,83	1308,65
663,01	1284,08
663,20	1290,22
663,39	1273,84
663,58	1284,08
663,76	1243,12
663,95	1204,21
664,14	1298,41
664,32	1310,70
664,51	1263,60
664,70	1296,36
664,89	1257,45
665,07	1273,84
665,26	1329,13
665,45	1140,72
665,64	1208,30
665,82	1257,45
666,01	1363,95
666,20	1239,02
666,38	1259,50
666,57	1318,89
666,76	1255,40
666,95	1269,74
667,13	1298,41
667,32	1298,41
667,51	1290,22
667,69	1304,56
667,88	1320,94
668,07	1290,22
668,25	1335,28
668,44	1239,02
668,63	1282,03
668,81	1245,16
669,00	1212,40
669,19	1284,08
669,38	1286,12
669,56	1306,60
669,75	1314,80
669,94	1253,36
670,12	1320,94
670,31	1255,40
670,50	1318,89
670,68	1212,40
670,87	1247,21
671,06	1277,93
671,24	1279,98
671,43	1275,88
671,62	1234,93
671,80	1257,45
671,99	1224,69
672,18	1300,46
672,36	1220,59
672,55	1216,49
672,74	1310,70
672,92	1325,04
673,11	1257,45
673,29	1288,17
673,48	1236,97
673,67	1273,84
673,85	1296,36
674,04	1296,36
674,23	1271,79
674,41	1294,32
674,60	1265,64
674,79	1265,64
674,97	1275,88
675,16	1304,56
675,34	1263,60
675,53	1243,12
675,72	1277,93
675,90	1245,16
676,09	1259,50
676,28	1279,98
676,46	1310,70
676,65	1236,97
676,83	1310,70
677,02	1249,26
677,21	1351,66
677,39	1288,17
677,58	1234,93
677,77	1271,79
677,95	1269,74
678,14	1294,32
678,32	1222,64
678,51	1261,55
678,70	1269,74
678,88	1257,45
679,07	1204,21
679,25	1273,84
679,44	1208,30
679,63	1259,50
679,81	1275,88
680,00	1277,93
680,18	1279,98
680,37	1286,12
680,55	1271,79
680,74	1284,08
680,93	1316,84
681,11	1284,08
681,30	1275,88
681,48	1275,88
681,67	1386,47
681,85	1257,45
682,04	1275,88
682,23	1243,12
682,41	1294,32
682,60	1236,97
682,78	1265,64
682,97	1220,59
683,15	1320,94
683,34	1228,78
683,53	1239,02
683,71	1245,16
683,90	1282,03
684,08	1193,97
684,27	1273,84
684,45	1251,31
684,64	1259,50
684,82	1232,88
685,01	1249,26
685,19	1349,61
685,38	1232,88
685,57	1282,03
685,75	1279,98
685,94	1236,97
686,12	1257,45
686,31	1261,55
686,49	1255,40
686,68	1261,55
686,86	1279,98
687,05	1308,65
687,23	1251,31
687,42	1267,69
687,60	1204,21
687,79	1212,40
687,97	1247,21
688,16	1279,98
688,34	1343,47
688,53	1255,40
688,71	1322,99
688,90	1273,84
689,08	1314,80
689,27	1245,16
689,45	1310,70
689,64	1296,36
689,82	1339,37
690,01	1294,32
690,19	1247,21
690,38	1294,32
690,56	1187,82
690,75	1247,21
690,93	1165,29
691,12	1302,51
691,30	1279,98
691,49	1255,40
691,67	1423,34
691,86	1212,40
692,04	1230,83
692,23	1255,40
692,41	1261,55
692,60	1312,75
692,78	1298,41
692,97	1269,74
693,15	1243,12
693,34	1318,89
693,52	1294,32
693,71	1271,79
693,89	1294,32
694,08	1331,18
694,26	1249,26
694,44	1253,36
694,63	1216,49
694,81	1259,50
695,00	1296,36
695,18	1306,60
695,37	1275,88
695,55	1325,04
695,74	1333,23
695,92	1265,64
696,10	1308,65
696,29	1189,87
696,47	1318,89
696,66	1282,03
696,84	1245,16
697,03	1175,53
697,21	1312,75
697,40	1279,98
697,58	1329,13
697,76	1200,11
697,95	1259,50
698,13	1212,40
698,32	1255,40
698,50	1265,64
698,68	1288,17
698,87	1261,55
699,05	1257,45
699,24	1290,22
699,42	1257,45
699,61	1310,70
699,79	1232,88
699,97	1214,45
700,16	1331,18
700,34	1273,84
700,53	1239,02
700,71	1298,41
700,89	1249,26
701,08	1228,78
701,26	1261,55
701,45	1261,55
701,63	1345,52
701,81	1292,27
702,00	1230,83
702,18	1275,88
702,37	1247,21
702,55	1277,93
702,73	1273,84
702,92	1208,30
703,10	1239,02
703,28	1277,93
703,47	1279,98
703,65	1249,26
703,84	1222,64
704,02	1249,26
704,20	1263,60
704,39	1265,64
704,57	1226,73
704,75	1206,25
704,94	1294,32
705,12	1296,36
705,30	1290,22
705,49	1286,12
705,67	1273,84
705,86	1185,77
706,04	1191,92
706,22	1200,11
706,41	1275,88
706,59	1253,36
706,77	1234,93
706,96	1298,41
707,14	1304,56
707,32	1208,30
707,51	1286,12
707,69	1298,41
707,87	1312,75
708,06	1245,16
708,24	1243,12
708,42	1316,84
708,61	1232,88
708,79	1275,88
708,97	1214,45
709,16	1302,51
709,34	1316,84
709,52	1249,26
709,71	1253,36
709,89	1247,21
710,07	1198,06
710,26	1288,17
710,44	1320,94
710,62	1327,08
710,80	1189,87
710,99	1263,60
711,17	1286,12
711,35	1193,97
711,54	1265,64
711,72	1191,92
711,90	1296,36
712,09	1312,75
712,27	1251,31
712,45	1312,75
712,63	1267,69
712,82	1345,52
713,00	1294,32
713,18	1247,21
713,37	1335,28
713,55	1208,30
713,73	1236,97
713,91	1277,93
714,10	1284,08
714,28	1255,40
714,46	1245,16
714,65	1185,77
714,83	1353,71
715,01	1249,26
715,19	1234,93
715,38	1230,83
715,56	1253,36
715,74	1247,21
715,92	1259,50
716,11	1247,21
716,29	1241,07
716,47	1337,32
716,65	1249,26
716,84	1202,16
717,02	1239,02
717,20	1241,07
717,38	1265,64
717,57	1353,71
717,75	1296,36
717,93	1269,74
718,11	1275,88
718,30	1216,49
718,48	1279,98
718,66	1320,94
718,84	1212,40
719,03	1329,13
719,21	1204,21
719,39	1263,60
719,57	1337,32
719,75	1325,04
719,94	1261,55
720,12	1234,93
720,30	1239,02
720,48	1212,40
720,67	1251,31
720,85	1234,93
721,03	1279,98
721,21	1275,88
721,39	1347,56
721,58	1265,64
721,76	1288,17
721,94	1228,78
722,12	1249,26
722,30	1247,21
722,49	1265,64
722,67	1267,69
722,85	1320,94
723,03	1288,17
723,21	1273,84
723,40	1310,70
723,58	1189,87
723,76	1259,50
723,94	1208,30
724,12	1241,07
724,30	1222,64
724,49	1255,40
724,67	1247,21
724,85	1265,64
725,03	1335,28
725,21	1251,31
725,40	1243,12
725,58	1236,97
725,76	1253,36
725,94	1337,32
726,12	1279,98
726,30	1275,88
726,49	1290,22
726,67	1249,26
726,85	1243,12
727,03	1198,06
727,21	1308,65
727,39	1261,55
727,57	1329,13
727,76	1259,50
727,94	1316,84
728,12	1267,69
728,30	1228,78
728,48	1298,41
728,66	1259,50
728,84	1245,16
729,03	1245,16
729,21	1275,88
729,39	1288,17
729,57	1247,21
729,75	1271,79
729,93	1212,40
730,11	1286,12
730,30	1259,50
730,48	1282,03
730,66	1300,46
730,84	1294,32
731,02	1247,21
731,20	1322,99
731,38	1239,02
731,56	1310,70
731,74	1286,12
731,93	1277,93
732,11	1181,68
732,29	1257,45
732,47	1239,02
732,65	1241,07
732,83	1196,01
733,01	1302,51
733,19	1234,93
733,37	1322,99
733,56	1277,93
733,74	1265,64
733,92	1251,31
734,10	1257,45
734,28	1224,69
734,46	1282,03
734,64	1255,40
734,82	1355,76
735,00	1267,69
735,18	1234,93
735,36	1265,64
735,54	1288,17
735,73	1261,55
735,91	1282,03
736,09	1290,22
736,27	1306,60
736,45	1232,88
736,63	1255,40
736,81	1183,73
736,99	1269,74
737,17	1277,93
737,35	1271,79
737,53	1351,66
737,71	1247,21
737,89	1247,21
738,07	1271,79
738,25	1271,79
738,43	1247,21
738,61	1269,74
738,80	1366,00
738,98	1257,45
739,16	1279,98
739,34	1232,88
739,52	1290,22
739,70	1275,88
739,88	1271,79
740,06	1255,40
740,24	1206,25
740,42	1267,69
740,60	1286,12
740,78	1279,98
740,96	1302,51
741,14	1249,26
741,32	1275,88
741,50	1306,60
741,68	1181,68
741,86	1200,11
742,04	1304,56
742,22	1239,02
742,40	1220,59
742,58	1294,32
742,76	1263,60
742,94	1279,98
743,12	1265,64
743,30	1243,12
743,48	1212,40
743,66	1265,64
743,84	1282,03
744,02	1294,32
744,20	1214,45
744,38	1261,55
744,56	1247,21
744,74	1255,40
744,92	1247,21
745,10	1216,49
745,28	1310,70
745,46	1288,17
745,64	1325,04
745,82	1279,98
746,00	1282,03
746,18	1306,60
746,36	1261,55
746,54	1206,25
746,72	1331,18
746,90	1329,13
747,08	1216,49
747,26	1282,03
747,44	1255,40
747,62	1241,07
747,80	1288,17
747,98	1308,65
748,15	1263,60
748,33	1267,69
748,51	1306,60
748,69	1239,02
748,87	1241,07
749,05	1314,80
749,23	1314,80
749,41	1267,69
749,59	1222,64
749,77	1263,60
749,95	1241,07
750,13	1228,78
750,31	1226,73
750,49	1181,68
750,67	1372,14
750,85	1267,69
751,03	1245,16
751,20	1339,37
751,38	1296,36
751,56	1300,46
751,74	1357,80
751,92	1308,65
752,10	1234,93
752,28	1300,46
752,46	1271,79
752,64	1261,55
752,82	1329,13
753,00	1241,07
753,18	1255,40
753,35	1247,21
753,53	1310,70
753,71	1216,49
753,89	1273,84
754,07	1282,03
754,25	1284,08
754,43	1361,90
754,61	1216,49
754,79	1290,22
754,97	1296,36
755,14	1241,07
755,32	1239,02
755,50	1228,78
755,68	1339,37
755,86	1214,45
756,04	1239,02
756,22	1320,94
756,40	1290,22
756,57	1279,98
756,75	1308,65
756,93	1253,36
757,11	1243,12
757,29	1220,59
757,47	1185,77
757,65	1241,07
757,82	1245,16
758,00	1239,02
758,18	1282,03
758,36	1212,40
758,54	1263,60
758,72	1279,98
758,90	1349,61
759,07	1316,84
759,25	1253,36
759,43	1187,82
759,61	1292,27
759,79	1247,21
759,97	1335,28
760,15	1259,50
760,32	1275,88
760,50	1271,79
760,68	1263,60
760,86	1189,87
761,04	1230,83
761,22	1290,22
761,39	1314,80
761,57	1214,45
761,75	1239,02
761,93	1255,40
762,11	1230,83
762,28	1257,45
762,46	1273,84
762,64	1224,69
762,82	1282,03
763,00	1261,55
763,18	1230,83
763,35	1279,98
763,53	1298,41
763,71	1251,31
763,89	1314,80
764,07	1218,54
764,24	1279,98
764,42	1247,21
764,60	1296,36
764,78	1269,74
764,96	1318,89
765,13	1200,11
765,31	1294,32
765,49	1191,92
765,67	1282,03
765,84	1234,93
766,02	1277,93
766,20	1202,16
766,38	1341,42
766,56	1261,55
766,73	1298,41
766,91	1236,97
767,09	1220,59
767,27	1259,50
767,44	1234,93
767,62	1261,55
767,80	1288,17
767,98	1269,74
768,15	1300,46
768,33	1230,83
768,51	1273,84
768,69	1216,49
768,87	1335,28
769,04	1279,98
769,22	1304,56
769,40	1273,84
769,58	1269,74
769,75	1210,35
769,93	1222,64
770,11	1204,21
770,28	1269,74
770,46	1292,27
770,64	1210,35
770,82	1232,88
770,99	1273,84
771,17	1236,97
771,35	1253,36
771,53	1271,79
771,70	1331,18
771,88	1296,36
772,06	1241,07
772,23	1312,75
772,41	1241,07
772,59	1296,36
772,77	1273,84
772,94	1251,31
773,12	1183,73
773,30	1284,08
773,47	1298,41
773,65	1282,03
773,83	1286,12
774,01	1288,17
774,18	1245,16
774,36	1214,45
774,54	1304,56
774,71	1247,21
774,89	1279,98
775,07	1267,69
775,24	1273,84
775,42	1335,28
775,60	1325,04
775,78	1183,73
775,95	1294,32
776,13	1288,17
776,31	1236,97
776,48	1292,27
776,66	1316,84
776,84	1241,07
777,01	1239,02
777,19	1230,83
777,37	1339,37
777,54	1241,07
777,72	1263,60
777,90	1267,69
778,07	1265,64
778,25	1351,66
778,43	1234,93
778,60	1302,51
778,78	1267,69
778,96	1245,16
779,13	1236,97
779,31	1249,26
779,49	1232,88
779,66	1286,12
779,84	1284,08
780,01	1218,54
780,19	1212,40
780,37	1236,97
780,54	1296,36
780,72	1249,26
780,90	1306,60
781,07	1267,69
781,25	1292,27
781,43	1320,94
781,60	1284,08
781,78	1230,83
781,95	1220,59
782,13	1267,69
782,31	1218,54
782,48	1222,64
782,66	1249,26
782,83	1275,88
783,01	1214,45
783,19	1191,92
783,36	1286,12
783,54	1329,13
783,72	1302,51
783,89	1271,79
784,07	1300,46
784,24	1288,17
784,42	1310,70
784,60	1304,56
784,77	1304,56
784,95	1273,84
785,12	1320,94
785,30	1333,23
785,47	1253,36
785,65	1329,13
785,83	1271,79
786,00	1273,84
786,18	1306,60
786,35	1261,55
786,53	1347,56
786,71	1249,26
786,88	1302,51
787,06	1191,92
787,23	1243,12
787,41	1239,02
787,58	1259,50
787,76	1263,60
787,94	1302,51
788,11	1222,64
788,29	1234,93
788,46	1232,88
788,64	1271,79
788,81	1288,17
788,99	1239,02
789,16	1251,31
789,34	1267,69
789,52	1302,51
789,69	1259,50
789,87	1320,94
790,04	1298,41
790,22	1277,93
790,39	1331,18
790,57	1300,46
790,74	1241,07
790,92	1312,75
791,09	1298,41
791,27	1253,36
791,44	1351,66
791,62	1279,98
791,79	1294,32
791,97	1271,79
792,15	1284,08
792,32	1257,45
792,50	1312,75
792,67	1273,84
792,85	1263,60
793,02	1277,93
793,20	1224,69
793,37	1263,60
793,55	1236,97
793,72	1253,36
793,90	1312,75
794,07	1345,52
794,25	1263,60
794,42	1292,27
794,60	1322,99
794,77	1236,97
794,95	1239,02
795,12	1312,75
795,30	1339,37
795,47	1282,03
795,65	1322,99
795,82	1312,75
796,00	1267,69
796,17	1273,84
796,34	1267,69
796,52	1275,88
796,69	1267,69
796,87	1167,34
797,04	1279,98
797,22	1224,69
797,39	1318,89
797,57	1230,83
797,74	1310,70
797,92	1245,16
798,09	1335,28
798,27	1226,73
798,44	1288,17
798,62	1239,02
798,79	1218,54
798,96	1239,02
799,14	1224,69
799,31	1308,65
799,49	1286,12
799,66	1347,56
799,84	1214,45
800,01	1265,64
800,19	1337,32
800,36	1251,31
800,53	1261,55
800,71	1230,83
800,88	1261,55
801,06	1253,36
801,23	1265,64
801,41	1222,64
801,58	1216,49
801,75	1196,01
801,93	1277,93
802,10	1261,55
802,28	1279,98
802,45	1249,26
802,63	1286,12
802,80	1335,28
802,97	1308,65
803,15	1300,46
803,32	1255,40
803,50	1312,75
803,67	1241,07
803,84	1261,55
804,02	1288,17
804,19	1304,56
804,37	1239,02
804,54	1279,98
804,71	1222,64
804,89	1341,42
805,06	1247,21
805,24	1228,78
805,41	1259,50
805,58	1251,31
805,76	1290,22
805,93	1243,12
806,10	1222,64
806,28	1282,03
806,45	1226,73
806,63	1243,12
806,80	1300,46
806,97	1261,55
807,15	1245,16
807,32	1247,21
807,49	1304,56
807,67	1275,88
807,84	1202,16
808,01	1269,74
808,19	1271,79
808,36	1234,93
808,54	1339,37
808,71	1263,60
808,88	1279,98
809,06	1253,36
809,23	1316,84
809,40	1169,39
809,58	1282,03
809,75	1257,45
809,92	1322,99
810,10	1257,45
810,27	1236,97
810,44	1241,07
810,62	1294,32
810,79	1234,93
810,96	1251,31
811,14	1228,78
811,31	1298,41
811,48	1226,73
811,66	1298,41
811,83	1271,79
812,00	1239,02
812,18	1335,28
812,35	1327,08
812,52	1249,26
812,69	1275,88
812,87	1294,32
813,04	1224,69
813,21	1269,74
813,39	1249,26
813,56	1249,26
813,73	1269,74
813,91	1263,60
814,08	1277,93
814,25	1279,98
814,42	1234,93
814,60	1316,84
814,77	1331,18
814,94	1259,50
815,12	1193,97
815,29	1243,12
815,46	1269,74
815,63	1255,40
815,81	1282,03
815,98	1230,83
816,15	1331,18
816,33	1302,51
816,50	1249,26
816,67	1222,64
816,84	1288,17
817,02	1312,75
817,19	1333,23
817,36	1304,56
817,53	1290,22
817,71	1224,69
817,88	1347,56
818,05	1222,64
818,22	1263,60
818,40	1308,65
818,57	1236,97
818,74	1267,69
818,91	1275,88
819,09	1222,64
819,26	1216,49
819,43	1249,26
819,60	1275,88
819,78	1214,45
819,95	1222,64
820,12	1296,36
820,29	1275,88
820,47	1261,55
820,64	1228,78
820,81	1275,88
820,98	1206,25
821,15	1249,26
821,33	1282,03
821,50	1331,18
821,67	1222,64
821,84	1241,07
822,02	1230,83
822,19	1251,31
822,36	1212,40
822,53	1224,69
822,70	1230,83
822,88	1300,46
823,05	1273,84
823,22	1314,80
823,39	1247,21
823,56	1339,37
823,74	1320,94
823,91	1302,51
824,08	1245,16
824,25	1247,21
824,42	1236,97
824,60	1243,12
824,77	1359,85
824,94	1345,52
825,11	1286,12
825,28	1290,22
825,45	1263,60
825,63	1286,12
825,80	1247,21
825,97	1216,49
826,14	1337,32
826,31	1306,60
826,48	1208,30
826,66	1236,97
826,83	1265,64
827,00	1294,32
827,17	1263,60
827,34	1282,03
827,51	1251,31
827,69	1245,16
827,86	1275,88
828,03	1302,51
828,20	1337,32
828,37	1185,77
828,54	1273,84
828,71	1269,74
828,89	1241,07
829,06	1239,02
829,23	1267,69
829,40	1322,99
829,57	1255,40
829,74	1220,59
829,91	1273,84
830,09	1247,21
830,26	1243,12
830,43	1251,31
830,60	1318,89
830,77	1232,88
830,94	1193,97
831,11	1271,79
831,28	1310,70
831,46	1261,55
831,63	1267,69
831,80	1298,41
831,97	1329,13
832,14	1259,50
832,31	1261,55
832,48	1200,11
832,65	1314,80
832,82	1284,08
832,99	1255,40
833,17	1273,84
833,34	1224,69
833,51	1247,21
833,68	1302,51
833,85	1243,12
834,02	1279,98
834,19	1263,60
834,36	1220,59
834,53	1249,26
834,70	1286,12
834,87	1290,22
835,04	1267,69
835,22	1247,21
835,39	1253,36
835,56	1236,97
835,73	1224,69
835,90	1269,74
836,07	1247,21
836,24	1177,58
836,41	1286,12
836,58	1300,46
836,75	1294,32
836,92	1263,60
837,09	1249,26
837,26	1218,54
837,43	1267,69
837,60	1312,75
837,77	1269,74
837,94	1261,55
838,12	1214,45
838,29	1290,22
838,46	1226,73
838,63	1245,16
838,80	1277,93
838,97	1296,36
839,14	1241,07
839,31	1261,55
839,48	1351,66
839,65	1275,88
839,82	1290,22
839,99	1234,93
840,16	1267,69
840,33	1251,31
840,50	1245,16
840,67	1345,52
840,84	1327,08
841,01	1320,94
841,18	1271,79
841,35	1265,64
841,52	1236,97
841,69	1298,41
841,86	1214,45
842,03	1214,45
842,20	1259,50
842,37	1292,27
842,54	1322,99
842,71	1335,28
842,88	1232,88
843,05	1222,64
843,22	1236,97
843,39	1275,88
843,56	1234,93
843,73	1183,73
843,90	1220,59
844,07	1239,02
844,24	1269,74
844,41	1267,69
844,58	1304,56
844,75	1273,84
844,92	1249,26
845,09	1282,03
845,26	1255,40
845,43	1251,31
845,60	1253,36
845,77	1193,97
845,94	1232,88
846,10	1263,60
846,27	1292,27
846,44	1191,92
846,61	1259,50
846,78	1327,08
846,95	1241,07
847,12	1236,97
847,29	1216,49
847,46	1318,89
847,63	1259,50
847,80	1318,89
847,97	1331,18
848,14	1241,07
848,31	1191,92
848,48	1230,83
848,65	1279,98
848,82	1290,22
848,98	1271,79
849,15	1273,84
849,32	1279,98
849,49	1257,45
849,66	1302,51
849,83	1263,60
850,00	1257,45
850,17	1290,22
850,34	1275,88
850,51	1249,26
850,68	1224,69
850,85	1329,13
851,01	1255,40
851,18	1322,99
851,35	1277,93
851,52	1279,98
851,69	1277,93
851,86	1265,64
852,03	1232,88
852,20	1241,07
852,37	1259,50
852,53	1257,45
852,70	1200,11
852,87	1257,45
853,04	1265,64
853,21	1214,45
853,38	1239,02
853,55	1228,78
853,72	1279,98
853,89	1279,98
854,05	1300,46
854,22	1271,79
854,39	1253,36
854,56	1224,69
854,73	1241,07
854,90	1232,88
855,07	1230,83
855,23	1296,36
855,40	1288,17
855,57	1279,98
855,74	1306,60
855,91	1290,22
856,08	1224,69
856,25	1226,73
856,41	1277,93
856,58	1306,60
856,75	1353,71
856,92	1279,98
857,09	1202,16
857,26	1220,59
857,42	1351,66
857,59	1253,36
857,76	1277,93
857,93	1302,51
858,10	1282,03
858,27	1304,56
858,43	1216,49
858,60	1216,49
858,77	1261,55
858,94	1216,49
859,11	1263,60
859,27	1224,69
859,44	1241,07
859,61	1277,93
859,78	1335,28
859,95	1214,45
860,12	1218,54
860,28	1273,84
860,45	1255,40
860,62	1261,55
860,79	1247,21
860,95	1318,89
861,12	1220,59
861,29	1191,92
861,46	1329,13
861,63	1220,59
861,79	1247,21
861,96	1312,75
862,13	1261,55
862,30	1279,98
862,47	1271,79
862,63	1261,55
862,80	1224,69
862,97	1196,01
863,14	1275,88
863,30	1314,80
863,47	1296,36
863,64	1255,40
863,81	1304,56
863,97	1277,93
864,14	1361,90
864,31	1300,46
864,48	1265,64
864,65	1193,97
864,81	1282,03
864,98	1316,84
865,15	1261,55
865,32	1257,45
865,48	1327,08
865,65	1312,75
865,82	1282,03
865,98	1212,40
866,15	1226,73
866,32	1224,69
866,49	1232,88
866,65	1286,12
866,82	1265,64
866,99	1310,70
867,16	1273,84
867,32	1296,36
867,49	1290,22
867,66	1208,30
867,83	1255,40
867,99	1232,88
868,16	1288,17
868,33	1177,58
868,49	1265,64
868,66	1239,02
868,83	1251,31
868,99	1286,12
869,16	1226,73
869,33	1239,02
869,50	1259,50
869,66	1322,99
869,83	1279,98
870,00	1261,55
870,16	1271,79
870,33	1355,76
870,50	1296,36
870,66	1333,23
870,83	1239,02
871,00	1316,84
871,17	1337,32
871,33	1286,12
871,50	1320,94
871,67	1331,18
871,83	1308,65
872,00	1290,22
872,17	1314,80
872,33	1296,36
872,50	1345,52
872,67	1294,32
872,83	1267,69
873,00	1302,51
873,17	1273,84
873,33	1204,21
873,50	1368,04
873,67	1206,25
873,83	1241,07
874,00	1292,27
874,16	1200,11
874,33	1279,98
874,50	1234,93
874,66	1261,55
874,83	1183,73
875,00	1265,64
875,16	1292,27
875,33	1341,42
875,50	1288,17
875,66	1232,88
875,83	1282,03
875,99	1304,56
876,16	1241,07
876,33	1241,07
876,49	1273,84
876,66	1239,02
876,83	1286,12
876,99	1247,21
877,16	1259,50
877,32	1232,88
877,49	1208,30
877,66	1257,45
877,82	1212,40
877,99	1234,93
878,15	1306,60
878,32	1271,79
878,49	1304,56
878,65	1284,08
878,82	1245,16
878,98	1298,41
879,15	1255,40
879,32	1355,76
879,48	1308,65
879,65	1277,93
879,81	1269,74
879,98	1232,88
880,15	1230,83
880,31	1296,36
880,48	1267,69
880,64	1267,69
880,81	1277,93
880,97	1312,75
881,14	1218,54
881,31	1241,07
881,47	1259,50
881,64	1316,84
881,80	1234,93
881,97	1265,64
882,13	1173,49
882,30	1298,41
882,47	1216,49
882,63	1310,70
882,80	1196,01
882,96	1220,59
883,13	1232,88
883,29	1302,51
883,46	1261,55
883,62	1318,89
883,79	1210,35
883,95	1263,60
884,12	1306,60
884,29	1247,21
884,45	1284,08
884,62	1269,74
884,78	1302,51
884,95	1267,69
885,11	1298,41
885,28	1271,79
885,44	1271,79
885,61	1269,74
885,77	1304,56
885,94	1308,65
886,10	1273,84
886,27	1232,88
886,43	1286,12
886,60	1234,93
886,76	1310,70
886,93	1216,49
887,09	1196,01
887,26	1228,78
887,42	1288,17
887,59	1271,79
887,75	1245,16
887,92	1296,36
888,08	1239,02
888,25	1290,22
888,41	1277,93
888,58	1300,46
888,74	1261,55
888,91	1196,01
>>>>>End Processed Spectral Data<<<<<
