SpectraSuite Data File
++++++++++++++++++++++++++++++++++++
Date: Tue May 03 11:23:58 CEST 2016
User: root
Dark Spectrum Present: No
Reference Spectrum Present: No
Number of Sampled Component Spectra: 1
Spectrometers: USB4C02835
Integration Time (usec): 100000 (USB4C02835)
Spectra Averaged: 1 (USB4C02835)
Boxcar Smoothing: 0 (USB4C02835)
Correct for Electrical Dark: No (USB4C02835)
Strobe/Lamp Enabled: No (USB4C02835)
Correct for Detector Non-linearity: No (USB4C02835)
Correct for Stray Light: No (USB4C02835)
Number of Pixels in Processed Spectrum: 3648
>>>>>Begin Processed Spectral Data<<<<<
177.47	1267.69
177.69	1267.69
177.91	1267.69
178.13	1257.45
178.36	1273.84
178.58	1320.94
178.80	1368.04
179.02	1253.36
179.24	1386.47
179.46	1411.05
179.68	1413.10
179.90	1359.85
180.13	1337.32
180.35	1298.41
180.57	1384.43
180.79	1392.62
181.01	1378.28
181.23	1474.54
181.45	1411.05
181.67	1396.71
181.90	1404.91
182.12	1349.61
182.34	1392.62
182.56	1335.28
182.78	1421.29
183.00	1396.71
183.22	1431.53
183.44	1335.28
183.66	1376.24
183.89	1396.71
184.11	1404.91
184.33	1378.28
184.55	1380.33
184.77	1415.15
184.99	1351.66
185.21	1325.04
185.43	1501.16
185.65	1277.93
185.87	1345.52
186.10	1482.73
186.32	1425.39
186.54	1474.54
186.76	1429.48
186.98	1388.52
187.20	1400.81
187.42	1392.62
187.64	1388.52
187.86	1310.70
188.08	1419.24
188.30	1308.65
188.52	1374.19
188.75	1345.52
188.97	1359.85
189.19	1288.17
189.41	1419.24
189.63	1386.47
189.85	1376.24
190.07	1345.52
190.29	1263.60
190.51	1306.60
190.73	1259.50
190.95	1370.09
191.17	1343.47
191.39	1359.85
191.61	1406.95
191.84	1396.71
192.06	1396.71
192.28	1288.17
192.50	1394.67
192.72	1402.86
192.94	1277.93
193.16	1402.86
193.38	1366.00
193.60	1382.38
193.82	1351.66
194.04	1419.24
194.26	1386.47
194.48	1310.70
194.70	1353.71
194.92	1368.04
195.14	1306.60
195.36	1423.34
195.58	1415.15
195.80	1361.90
196.02	1400.81
196.24	1359.85
196.46	1351.66
196.69	1284.08
196.91	1441.77
197.13	1417.19
197.35	1329.13
197.57	1376.24
197.79	1357.80
198.01	1325.04
198.23	1376.24
198.45	1353.71
198.67	1273.84
198.89	1390.57
199.11	1339.37
199.33	1335.28
199.55	1333.23
199.77	1404.91
199.99	1413.10
200.21	1390.57
200.43	1452.01
200.65	1282.03
200.87	1343.47
201.09	1374.19
201.31	1286.12
201.53	1421.29
201.75	1390.57
201.97	1392.62
202.19	1306.60
202.41	1374.19
202.63	1439.72
202.85	1368.04
203.07	1312.75
203.29	1411.05
203.51	1386.47
203.73	1357.80
203.95	1337.32
204.17	1406.95
204.39	1460.20
204.61	1372.14
204.83	1353.71
205.05	1382.38
205.27	1417.19
205.49	1398.76
205.71	1378.28
205.93	1337.32
206.15	1359.85
206.37	1421.29
206.59	1353.71
206.81	1304.56
207.03	1277.93
207.25	1359.85
207.47	1359.85
207.69	1372.14
207.91	1433.58
208.13	1468.39
208.34	1316.84
208.56	1476.59
208.78	1398.76
209.00	1406.95
209.22	1433.58
209.44	1347.56
209.66	1343.47
209.88	1415.15
210.10	1419.24
210.32	1363.95
210.54	1462.25
210.76	1378.28
210.98	1318.89
211.20	1261.55
211.42	1413.10
211.64	1425.39
211.86	1411.05
212.08	1376.24
212.30	1386.47
212.52	1400.81
212.74	1464.30
212.96	1425.39
213.17	1351.66
213.39	1378.28
213.61	1409.00
213.83	1456.11
214.05	1452.01
214.27	1339.37
214.49	1302.51
214.71	1368.04
214.93	1476.59
215.15	1394.67
215.37	1304.56
215.59	1370.09
215.81	1409.00
216.03	1400.81
216.24	1363.95
216.46	1417.19
216.68	1361.90
216.90	1370.09
217.12	1384.43
217.34	1380.33
217.56	1390.57
217.78	1437.67
218.00	1370.09
218.22	1421.29
218.44	1355.76
218.66	1380.33
218.87	1443.82
219.09	1419.24
219.31	1390.57
219.53	1372.14
219.75	1366.00
219.97	1378.28
220.19	1439.72
220.41	1306.60
220.63	1409.00
220.85	1345.52
221.06	1306.60
221.28	1337.32
221.50	1310.70
221.72	1382.38
221.94	1355.76
222.16	1400.81
222.38	1320.94
222.60	1425.39
222.82	1355.76
223.03	1413.10
223.25	1357.80
223.47	1413.10
223.69	1421.29
223.91	1423.34
224.13	1376.24
224.35	1417.19
224.57	1421.29
224.78	1331.18
225.00	1390.57
225.22	1357.80
225.44	1441.77
225.66	1382.38
225.88	1398.76
226.10	1370.09
226.32	1343.47
226.53	1361.90
226.75	1345.52
226.97	1413.10
227.19	1351.66
227.41	1376.24
227.63	1329.13
227.85	1329.13
228.06	1419.24
228.28	1402.86
228.50	1415.15
228.72	1306.60
228.94	1388.52
229.16	1302.51
229.37	1384.43
229.59	1341.42
229.81	1431.53
230.03	1366.00
230.25	1376.24
230.47	1361.90
230.69	1396.71
230.90	1382.38
231.12	1331.18
231.34	1325.04
231.56	1419.24
231.78	1277.93
232.00	1382.38
232.21	1398.76
232.43	1341.42
232.65	1458.15
232.87	1368.04
233.09	1261.55
233.30	1370.09
233.52	1339.37
233.74	1417.19
233.96	1282.03
234.18	1486.83
234.40	1384.43
234.61	1445.87
234.83	1335.28
235.05	1318.89
235.27	1392.62
235.49	1376.24
235.70	1425.39
235.92	1415.15
236.14	1413.10
236.36	1468.39
236.58	1359.85
236.79	1437.67
237.01	1355.76
237.23	1325.04
237.45	1447.91
237.67	1355.76
237.88	1372.14
238.10	1456.11
238.32	1322.99
238.54	1310.70
238.76	1353.71
238.97	1337.32
239.19	1425.39
239.41	1386.47
239.63	1378.28
239.85	1421.29
240.06	1339.37
240.28	1394.67
240.50	1392.62
240.72	1247.21
240.93	1368.04
241.15	1388.52
241.37	1294.32
241.59	1427.43
241.81	1374.19
242.02	1300.46
242.24	1411.05
242.46	1370.09
242.68	1355.76
242.89	1361.90
243.11	1419.24
243.33	1382.38
243.55	1353.71
243.76	1435.63
243.98	1347.56
244.20	1366.00
244.42	1329.13
244.64	1441.77
244.85	1236.97
245.07	1363.95
245.29	1437.67
245.51	1376.24
245.72	1366.00
245.94	1378.28
246.16	1431.53
246.38	1404.91
246.59	1355.76
246.81	1333.23
247.03	1449.96
247.24	1331.18
247.46	1286.12
247.68	1376.24
247.90	1384.43
248.11	1292.27
248.33	1351.66
248.55	1322.99
248.77	1331.18
248.98	1437.67
249.20	1435.63
249.42	1359.85
249.64	1421.29
249.85	1335.28
250.07	1386.47
250.29	1388.52
250.50	1449.96
250.72	1284.08
250.94	1452.01
251.16	1505.26
251.37	1468.39
251.59	1388.52
251.81	1392.62
252.02	1437.67
252.24	1306.60
252.46	1458.15
252.68	1423.34
252.89	1329.13
253.11	1372.14
253.33	1478.63
253.54	1433.58
253.76	1363.95
253.98	1333.23
254.20	1302.51
254.41	1282.03
254.63	1339.37
254.85	1327.08
255.06	1329.13
255.28	1327.08
255.50	1327.08
255.71	1298.41
255.93	1384.43
256.15	1417.19
256.36	1427.43
256.58	1417.19
256.80	1380.33
257.02	1386.47
257.23	1374.19
257.45	1359.85
257.67	1337.32
257.88	1347.56
258.10	1394.67
258.32	1409.00
258.53	1286.12
258.75	1349.61
258.97	1374.19
259.18	1357.80
259.40	1386.47
259.62	1413.10
259.83	1386.47
260.05	1361.90
260.27	1460.20
260.48	1406.95
260.70	1361.90
260.92	1361.90
261.13	1322.99
261.35	1427.43
261.57	1382.38
261.78	1308.65
262.00	1372.14
262.22	1468.39
262.43	1406.95
262.65	1341.42
262.86	1427.43
263.08	1468.39
263.30	1415.15
263.51	1355.76
263.73	1378.28
263.95	1423.34
264.16	1325.04
264.38	1296.36
264.60	1419.24
264.81	1361.90
265.03	1386.47
265.25	1456.11
265.46	1363.95
265.68	1357.80
265.89	1409.00
266.11	1337.32
266.33	1374.19
266.54	1415.15
266.76	1351.66
266.98	1374.19
267.19	1404.91
267.41	1462.25
267.62	1398.76
267.84	1402.86
268.06	1427.43
268.27	1351.66
268.49	1468.39
268.70	1402.86
268.92	1409.00
269.14	1347.56
269.35	1347.56
269.57	1351.66
269.79	1314.80
270.00	1355.76
270.22	1406.95
270.43	1331.18
270.65	1320.94
270.87	1394.67
271.08	1419.24
271.30	1388.52
271.51	1294.32
271.73	1409.00
271.95	1345.52
272.16	1294.32
272.38	1351.66
272.59	1341.42
272.81	1370.09
273.02	1370.09
273.24	1372.14
273.46	1331.18
273.67	1320.94
273.89	1339.37
274.10	1366.00
274.32	1456.11
274.54	1435.63
274.75	1349.61
274.97	1390.57
275.18	1370.09
275.40	1411.05
275.61	1402.86
275.83	1378.28
276.05	1331.18
276.26	1363.95
276.48	1482.73
276.69	1327.08
276.91	1329.13
277.12	1456.11
277.34	1462.25
277.55	1390.57
277.77	1284.08
277.99	1404.91
278.20	1294.32
278.42	1388.52
278.63	1292.27
278.85	1443.82
279.06	1329.13
279.28	1386.47
279.49	1361.90
279.71	1376.24
279.93	1378.28
280.14	1419.24
280.36	1366.00
280.57	1447.91
280.79	1333.23
281.00	1361.90
281.22	1325.04
281.43	1353.71
281.65	1271.79
281.86	1398.76
282.08	1404.91
282.29	1433.58
282.51	1331.18
282.73	1421.29
282.94	1335.28
283.16	1345.52
283.37	1404.91
283.59	1423.34
283.80	1382.38
284.02	1394.67
284.23	1386.47
284.45	1345.52
284.66	1277.93
284.88	1304.56
285.09	1411.05
285.31	1398.76
285.52	1335.28
285.74	1320.94
285.95	1425.39
286.17	1409.00
286.38	1437.67
286.60	1372.14
286.81	1351.66
287.03	1318.89
287.24	1439.72
287.46	1347.56
287.67	1390.57
287.89	1439.72
288.10	1388.52
288.32	1345.52
288.53	1443.82
288.75	1382.38
288.96	1370.09
289.18	1357.80
289.39	1388.52
289.61	1468.39
289.82	1394.67
290.04	1476.59
290.25	1298.41
290.47	1288.17
290.68	1388.52
290.90	1353.71
291.11	1310.70
291.33	1363.95
291.54	1320.94
291.76	1306.60
291.97	1349.61
292.18	1429.48
292.40	1392.62
292.61	1417.19
292.83	1396.71
293.04	1388.52
293.26	1351.66
293.47	1345.52
293.69	1347.56
293.90	1366.00
294.12	1363.95
294.33	1425.39
294.55	1339.37
294.76	1458.15
294.97	1445.87
295.19	1445.87
295.40	1419.24
295.62	1351.66
295.83	1390.57
296.05	1347.56
296.26	1384.43
296.48	1284.08
296.69	1304.56
296.90	1347.56
297.12	1353.71
297.33	1439.72
297.55	1331.18
297.76	1351.66
297.98	1329.13
298.19	1345.52
298.41	1368.04
298.62	1429.48
298.83	1468.39
299.05	1417.19
299.26	1425.39
299.48	1341.42
299.69	1390.57
299.90	1378.28
300.12	1318.89
300.33	1390.57
300.55	1423.34
300.76	1370.09
300.98	1312.75
301.19	1374.19
301.40	1306.60
301.62	1341.42
301.83	1331.18
302.05	1363.95
302.26	1388.52
302.47	1345.52
302.69	1298.41
302.90	1390.57
303.12	1363.95
303.33	1372.14
303.54	1406.95
303.76	1368.04
303.97	1384.43
304.19	1474.54
304.40	1337.32
304.61	1343.47
304.83	1474.54
305.04	1374.19
305.26	1392.62
305.47	1370.09
305.68	1363.95
305.90	1378.28
306.11	1384.43
306.33	1370.09
306.54	1359.85
306.75	1357.80
306.97	1396.71
307.18	1359.85
307.39	1386.47
307.61	1441.77
307.82	1337.32
308.04	1312.75
308.25	1359.85
308.46	1355.76
308.68	1341.42
308.89	1355.76
309.10	1425.39
309.32	1372.14
309.53	1402.86
309.74	1398.76
309.96	1294.32
310.17	1370.09
310.39	1355.76
310.60	1331.18
310.81	1318.89
311.03	1335.28
311.24	1372.14
311.45	1361.90
311.67	1425.39
311.88	1357.80
312.09	1290.22
312.31	1331.18
312.52	1327.08
312.73	1402.86
312.95	1382.38
313.16	1288.17
313.37	1423.34
313.59	1351.66
313.80	1388.52
314.01	1417.19
314.23	1343.47
314.44	1359.85
314.65	1325.04
314.87	1351.66
315.08	1423.34
315.29	1343.47
315.51	1269.74
315.72	1282.03
315.93	1443.82
316.15	1255.40
316.36	1312.75
316.57	1370.09
316.79	1339.37
317.00	1400.81
317.21	1322.99
317.43	1378.28
317.64	1411.05
317.85	1396.71
318.07	1470.44
318.28	1544.17
318.49	1517.54
318.70	1650.66
318.92	1538.02
319.13	1572.84
319.34	1540.07
319.56	1503.21
319.77	1460.20
319.98	1478.63
320.20	1429.48
320.41	1429.48
320.62	1495.02
320.83	1343.47
321.05	1476.59
321.26	1382.38
321.47	1341.42
321.69	1351.66
321.90	1380.33
322.11	1372.14
322.32	1411.05
322.54	1345.52
322.75	1355.76
322.96	1468.39
323.18	1314.80
323.39	1267.69
323.60	1353.71
323.81	1495.02
324.03	1368.04
324.24	1400.81
324.45	1378.28
324.66	1402.86
324.88	1363.95
325.09	1415.15
325.30	1378.28
325.52	1363.95
325.73	1376.24
325.94	1331.18
326.15	1245.16
326.37	1368.04
326.58	1366.00
326.79	1378.28
327.00	1320.94
327.22	1431.53
327.43	1331.18
327.64	1298.41
327.85	1386.47
328.07	1341.42
328.28	1482.73
328.49	1380.33
328.70	1353.71
328.92	1386.47
329.13	1374.19
329.34	1429.48
329.55	1509.35
329.76	1396.71
329.98	1325.04
330.19	1419.24
330.40	1339.37
330.61	1437.67
330.83	1366.00
331.04	1322.99
331.25	1331.18
331.46	1304.56
331.68	1284.08
331.89	1378.28
332.10	1349.61
332.31	1320.94
332.52	1359.85
332.74	1318.89
332.95	1310.70
333.16	1398.76
333.37	1372.14
333.58	1251.31
333.80	1390.57
334.01	1302.51
334.22	1361.90
334.43	1273.84
334.64	1308.65
334.86	1314.80
335.07	1310.70
335.28	1419.24
335.49	1351.66
335.70	1351.66
335.92	1376.24
336.13	1425.39
336.34	1376.24
336.55	1312.75
336.76	1316.84
336.98	1308.65
337.19	1363.95
337.40	1388.52
337.61	1409.00
337.82	1380.33
338.04	1409.00
338.25	1271.79
338.46	1343.47
338.67	1329.13
338.88	1372.14
339.09	1236.97
339.31	1331.18
339.52	1347.56
339.73	1310.70
339.94	1359.85
340.15	1368.04
340.36	1374.19
340.58	1404.91
340.79	1370.09
341.00	1372.14
341.21	1388.52
341.42	1392.62
341.63	1374.19
341.85	1351.66
342.06	1333.23
342.27	1282.03
342.48	1372.14
342.69	1294.32
342.90	1454.06
343.12	1447.91
343.33	1429.48
343.54	1310.70
343.75	1429.48
343.96	1464.30
344.17	1370.09
344.38	1359.85
344.60	1386.47
344.81	1294.32
345.02	1363.95
345.23	1435.63
345.44	1454.06
345.65	1413.10
345.86	1388.52
346.07	1384.43
346.29	1380.33
346.50	1404.91
346.71	1402.86
346.92	1355.76
347.13	1437.67
347.34	1351.66
347.55	1331.18
347.76	1314.80
347.98	1300.46
348.19	1331.18
348.40	1470.44
348.61	1415.15
348.82	1402.86
349.03	1392.62
349.24	1275.88
349.45	1351.66
349.66	1372.14
349.88	1341.42
350.09	1423.34
350.30	1400.81
350.51	1490.92
350.72	1415.15
350.93	1402.86
351.14	1390.57
351.35	1486.83
351.56	1378.28
351.77	1318.89
351.99	1372.14
352.20	1409.00
352.41	1341.42
352.62	1337.32
352.83	1329.13
353.04	1382.38
353.25	1327.08
353.46	1386.47
353.67	1394.67
353.88	1339.37
354.09	1359.85
354.30	1386.47
354.52	1423.34
354.73	1400.81
354.94	1366.00
355.15	1329.13
355.36	1456.11
355.57	1419.24
355.78	1404.91
355.99	1331.18
356.20	1325.04
356.41	1402.86
356.62	1329.13
356.83	1345.52
357.04	1386.47
357.25	1306.60
357.46	1380.33
357.68	1314.80
357.89	1234.93
358.10	1355.76
358.31	1478.63
358.52	1288.17
358.73	1392.62
358.94	1296.36
359.15	1310.70
359.36	1339.37
359.57	1388.52
359.78	1361.90
359.99	1415.15
360.20	1339.37
360.41	1337.32
360.62	1402.86
360.83	1392.62
361.04	1419.24
361.25	1370.09
361.46	1447.91
361.67	1380.33
361.88	1456.11
362.09	1396.71
362.30	1415.15
362.51	1372.14
362.72	1384.43
362.93	1372.14
363.14	1331.18
363.35	1435.63
363.56	1363.95
363.78	1388.52
363.99	1376.24
364.20	1329.13
364.41	1419.24
364.62	1363.95
364.83	1466.35
365.04	1435.63
365.25	1435.63
365.46	1460.20
365.67	1374.19
365.88	1327.08
366.09	1380.33
366.30	1370.09
366.51	1363.95
366.72	1279.98
366.93	1390.57
367.14	1429.48
367.35	1402.86
367.56	1386.47
367.77	1425.39
367.98	1353.71
368.18	1376.24
368.39	1396.71
368.60	1298.41
368.81	1368.04
369.02	1343.47
369.23	1366.00
369.44	1275.88
369.65	1298.41
369.86	1325.04
370.07	1341.42
370.28	1376.24
370.49	1437.67
370.70	1363.95
370.91	1316.84
371.12	1361.90
371.33	1386.47
371.54	1288.17
371.75	1490.92
371.96	1345.52
372.17	1363.95
372.38	1353.71
372.59	1386.47
372.80	1312.75
373.01	1406.95
373.22	1396.71
373.43	1374.19
373.64	1423.34
373.85	1339.37
374.06	1384.43
374.26	1386.47
374.47	1378.28
374.68	1439.72
374.89	1322.99
375.10	1392.62
375.31	1409.00
375.52	1372.14
375.73	1327.08
375.94	1431.53
376.15	1376.24
376.36	1318.89
376.57	1331.18
376.78	1388.52
376.99	1370.09
377.20	1421.29
377.40	1273.84
377.61	1411.05
377.82	1345.52
378.03	1425.39
378.24	1427.43
378.45	1355.76
378.66	1478.63
378.87	1329.13
379.08	1279.98
379.29	1374.19
379.50	1417.19
379.71	1363.95
379.91	1396.71
380.12	1359.85
380.33	1402.86
380.54	1347.56
380.75	1423.34
380.96	1388.52
381.17	1480.68
381.38	1423.34
381.59	1439.72
381.80	1447.91
382.00	1443.82
382.21	1503.21
382.42	1452.01
382.63	1478.63
382.84	1511.40
383.05	1454.06
383.26	1427.43
383.47	1378.28
383.68	1439.72
383.88	1378.28
384.09	1439.72
384.30	1437.67
384.51	1425.39
384.72	1355.76
384.93	1302.51
385.14	1398.76
385.35	1402.86
385.55	1300.46
385.76	1366.00
385.97	1310.70
386.18	1411.05
386.39	1368.04
386.60	1335.28
386.81	1437.67
387.02	1357.80
387.22	1353.71
387.43	1558.50
387.64	1595.37
387.85	2301.92
388.06	5705.64
388.27	9541.49
388.48	11509.58
388.68	13317.94
388.89	13272.89
389.10	10600.29
389.31	9095.03
389.52	8388.48
389.73	7286.67
389.93	6975.38
390.14	6496.16
390.35	6090.66
390.56	5398.45
390.77	4720.57
390.98	3614.66
391.18	2826.20
391.39	2176.99
391.60	1724.39
391.81	1583.08
392.02	1449.96
392.23	1492.97
392.43	1437.67
392.64	1388.52
392.85	1435.63
393.06	1417.19
393.27	1368.04
393.47	1351.66
393.68	1361.90
393.89	1402.86
394.10	1425.39
394.31	1392.62
394.52	1357.80
394.72	1355.76
394.93	1396.71
395.14	1290.22
395.35	1427.43
395.56	1456.11
395.76	1499.11
395.97	1619.94
396.18	1570.79
396.39	1523.69
396.60	1658.85
396.80	1628.14
397.01	1492.97
397.22	1499.11
397.43	1550.31
397.64	1427.43
397.84	1499.11
398.05	1486.83
398.26	1517.54
398.47	1509.35
398.67	1452.01
398.88	1357.80
399.09	1343.47
399.30	1372.14
399.51	1488.87
399.71	1374.19
399.92	1335.28
400.13	1376.24
400.34	1341.42
400.54	1384.43
400.75	1429.48
400.96	1390.57
401.17	1503.21
401.37	1378.28
401.58	1413.10
401.79	1597.42
402.00	1654.76
402.21	1765.35
402.41	1826.79
402.62	1837.03
402.83	1763.30
403.04	1677.29
403.24	1685.48
403.45	1581.03
403.66	1660.90
403.87	1652.71
404.07	1585.13
404.28	1632.23
404.49	1486.83
404.70	1482.73
404.90	1452.01
405.11	1366.00
405.32	1452.01
405.52	1384.43
405.73	1353.71
405.94	1306.60
406.15	1394.67
406.35	1378.28
406.56	1392.62
406.77	1396.71
406.98	1370.09
407.18	1290.22
407.39	1439.72
407.60	1353.71
407.80	1398.76
408.01	1314.80
408.22	1372.14
408.43	1308.65
408.63	1316.84
408.84	1394.67
409.05	1353.71
409.25	1386.47
409.46	1359.85
409.67	1380.33
409.88	1316.84
410.08	1284.08
410.29	1355.76
410.50	1472.49
410.70	1417.19
410.91	1349.61
411.12	1378.28
411.32	1314.80
411.53	1423.34
411.74	1464.30
411.95	1497.07
412.15	1449.96
412.36	1456.11
412.57	1495.02
412.77	1366.00
412.98	1390.57
413.19	1366.00
413.39	1413.10
413.60	1388.52
413.81	1464.30
414.01	1390.57
414.22	1421.29
414.43	1384.43
414.63	1372.14
414.84	1417.19
415.05	1425.39
415.25	1349.61
415.46	1361.90
415.67	1241.07
415.87	1406.95
416.08	1400.81
416.29	1339.37
416.49	1427.43
416.70	1341.42
416.91	1384.43
417.11	1445.87
417.32	1454.06
417.53	1304.56
417.73	1327.08
417.94	1325.04
418.15	1349.61
418.35	1464.30
418.56	1320.94
418.77	1429.48
418.97	1447.91
419.18	1406.95
419.38	1368.04
419.59	1331.18
419.80	1454.06
420.00	1388.52
420.21	1368.04
420.42	1394.67
420.62	1359.85
420.83	1314.80
421.04	1331.18
421.24	1232.88
421.45	1345.52
421.65	1447.91
421.86	1368.04
422.07	1341.42
422.27	1372.14
422.48	1419.24
422.69	1411.05
422.89	1394.67
423.10	1441.77
423.30	1329.13
423.51	1439.72
423.72	1392.62
423.92	1417.19
424.13	1335.28
424.33	1384.43
424.54	1390.57
424.75	1341.42
424.95	1439.72
425.16	1484.78
425.36	1343.47
425.57	1402.86
425.78	1419.24
425.98	1331.18
426.19	1349.61
426.39	1380.33
426.60	1372.14
426.81	1398.76
427.01	1318.89
427.22	1331.18
427.42	1337.32
427.63	1406.95
427.83	1347.56
428.04	1423.34
428.25	1396.71
428.45	1409.00
428.66	1433.58
428.86	1409.00
429.07	1380.33
429.28	1427.43
429.48	1329.13
429.69	1314.80
429.89	1413.10
430.10	1314.80
430.30	1427.43
430.51	1439.72
430.71	1372.14
430.92	1370.09
431.13	1306.60
431.33	1384.43
431.54	1357.80
431.74	1452.01
431.95	1421.29
432.15	1343.47
432.36	1318.89
432.56	1384.43
432.77	1419.24
432.98	1456.11
433.18	1361.90
433.39	1398.76
433.59	1294.32
433.80	1423.34
434.00	1406.95
434.21	1413.10
434.41	1333.23
434.62	1413.10
434.82	1327.08
435.03	1306.60
435.23	1300.46
435.44	1279.98
435.64	1308.65
435.85	1433.58
436.06	1427.43
436.26	1353.71
436.47	1374.19
436.67	1312.75
436.88	1325.04
437.08	1378.28
437.29	1423.34
437.49	1443.82
437.70	1404.91
437.90	1366.00
438.11	1515.50
438.31	1560.55
438.52	1540.07
438.72	1535.98
438.93	1521.64
439.13	1470.44
439.34	1519.59
439.54	1476.59
439.75	1456.11
439.95	1449.96
440.16	1380.33
440.36	1361.90
440.57	1406.95
440.77	1466.35
440.98	1386.47
441.18	1380.33
441.39	1269.74
441.59	1402.86
441.80	1413.10
442.00	1427.43
442.21	1482.73
442.41	1363.95
442.62	1345.52
442.82	1331.18
443.02	1347.56
443.23	1368.04
443.43	1337.32
443.64	1411.05
443.84	1331.18
444.05	1398.76
444.25	1355.76
444.46	1316.84
444.66	1427.43
444.87	1462.25
445.07	1327.08
445.28	1339.37
445.48	1445.87
445.69	1445.87
445.89	1433.58
446.09	1515.50
446.30	2240.48
446.50	3723.21
446.71	4646.84
446.91	5242.80
447.12	5695.40
447.32	4982.71
447.53	4157.38
447.73	3856.33
447.93	3491.79
448.14	3149.78
448.34	3153.87
448.55	2781.14
448.75	2770.90
448.96	2637.78
449.16	2525.15
449.36	2193.37
449.57	1966.05
449.77	1689.57
449.98	1517.54
450.18	1583.08
450.39	1454.06
450.59	1388.52
450.79	1370.09
451.00	1284.08
451.20	1406.95
451.41	1378.28
451.61	1423.34
451.81	1378.28
452.02	1417.19
452.22	1415.15
452.43	1341.42
452.63	1320.94
452.84	1368.04
453.04	1361.90
453.24	1337.32
453.45	1290.22
453.65	1386.47
453.86	1384.43
454.06	1304.56
454.26	1413.10
454.47	1314.80
454.67	1400.81
454.87	1363.95
455.08	1370.09
455.28	1478.63
455.49	1372.14
455.69	1384.43
455.89	1472.49
456.10	1482.73
456.30	1325.04
456.51	1460.20
456.71	1355.76
456.91	1386.47
457.12	1353.71
457.32	1429.48
457.52	1314.80
457.73	1380.33
457.93	1429.48
458.14	1341.42
458.34	1345.52
458.54	1359.85
458.75	1325.04
458.95	1392.62
459.15	1335.28
459.36	1347.56
459.56	1282.03
459.76	1515.50
459.97	1353.71
460.17	1443.82
460.37	1458.15
460.58	1353.71
460.78	1400.81
460.99	1421.29
461.19	1421.29
461.39	1331.18
461.60	1351.66
461.80	1423.34
462.00	1353.71
462.21	1361.90
462.41	1370.09
462.61	1333.23
462.82	1320.94
463.02	1363.95
463.22	1349.61
463.43	1378.28
463.63	1439.72
463.83	1419.24
464.04	1396.71
464.24	1368.04
464.44	1390.57
464.64	1417.19
464.85	1439.72
465.05	1374.19
465.25	1425.39
465.46	1337.32
465.66	1363.95
465.86	1378.28
466.07	1425.39
466.27	1419.24
466.47	1302.51
466.68	1308.65
466.88	1454.06
467.08	1394.67
467.29	1396.71
467.49	1458.15
467.69	1347.56
467.89	1372.14
468.10	1298.41
468.30	1327.08
468.50	1413.10
468.71	1382.38
468.91	1333.23
469.11	1511.40
469.31	1374.19
469.52	1329.13
469.72	1495.02
469.92	1519.59
470.13	1355.76
470.33	1499.11
470.53	1724.39
470.73	2058.21
470.94	2246.62
471.14	2402.27
471.34	2463.71
471.54	2199.52
471.75	2052.06
471.95	1920.99
472.15	1757.16
472.36	1837.03
472.56	1761.25
472.76	1708.01
472.96	1767.40
473.17	1673.19
473.37	1611.75
473.57	1523.69
473.77	1480.68
473.98	1552.36
474.18	1468.39
474.38	1492.97
474.58	1318.89
474.79	1392.62
474.99	1388.52
475.19	1429.48
475.39	1306.60
475.60	1406.95
475.80	1421.29
476.00	1402.86
476.20	1382.38
476.41	1320.94
476.61	1468.39
476.81	1452.01
477.01	1370.09
477.21	1421.29
477.42	1538.02
477.62	1359.85
477.82	1437.67
478.02	1312.75
478.23	1378.28
478.43	1335.28
478.63	1398.76
478.83	1429.48
479.03	1335.28
479.24	1384.43
479.44	1447.91
479.64	1243.12
479.84	1331.18
480.04	1378.28
480.25	1419.24
480.45	1372.14
480.65	1429.48
480.85	1396.71
481.06	1277.93
481.26	1392.62
481.46	1386.47
481.66	1421.29
481.86	1337.32
482.06	1368.04
482.27	1388.52
482.47	1384.43
482.67	1419.24
482.87	1333.23
483.07	1458.15
483.28	1361.90
483.48	1339.37
483.68	1355.76
483.88	1322.99
484.08	1308.65
484.29	1306.60
484.49	1396.71
484.69	1325.04
484.89	1388.52
485.09	1411.05
485.29	1435.63
485.50	1376.24
485.70	1378.28
485.90	1357.80
486.10	1386.47
486.30	1363.95
486.50	1439.72
486.71	1341.42
486.91	1433.58
487.11	1368.04
487.31	1380.33
487.51	1437.67
487.71	1337.32
487.91	1363.95
488.12	1351.66
488.32	1318.89
488.52	1347.56
488.72	1302.51
488.92	1361.90
489.12	1368.04
489.32	1386.47
489.53	1345.52
489.73	1347.56
489.93	1466.35
490.13	1390.57
490.33	1380.33
490.53	1374.19
490.73	1443.82
490.94	1339.37
491.14	1415.15
491.34	1660.90
491.54	2086.88
491.74	2727.89
491.94	2994.13
492.14	3164.11
492.34	2934.74
492.54	2564.06
492.75	2301.92
492.95	2252.77
493.15	2095.07
493.35	2113.50
493.55	1959.91
493.75	1853.41
493.95	1943.52
494.15	1734.63
494.35	1820.64
494.56	1611.75
494.76	1554.41
494.96	1468.39
495.16	1466.35
495.36	1363.95
495.56	1413.10
495.76	1363.95
495.96	1312.75
496.16	1325.04
496.36	1368.04
496.56	1394.67
496.77	1413.10
496.97	1394.67
497.17	1445.87
497.37	1294.32
497.57	1370.09
497.77	1339.37
497.97	1368.04
498.17	1372.14
498.37	1347.56
498.57	1435.63
498.77	1378.28
498.97	1449.96
499.17	1431.53
499.38	1425.39
499.58	1423.34
499.78	1454.06
499.98	1421.29
500.18	1409.00
500.38	1366.00
500.58	1714.15
500.78	3018.71
500.98	5599.15
501.18	6961.05
501.38	8126.34
501.58	8454.02
501.78	7409.55
501.98	5836.71
502.18	5248.94
502.38	4677.56
502.58	4155.33
502.78	3706.82
502.98	3557.32
503.18	3575.75
503.38	3293.13
503.59	2981.84
503.79	2881.49
503.99	2643.93
504.19	2287.58
504.39	2129.89
504.59	2158.56
504.79	1923.04
504.99	1771.49
505.19	1626.09
505.39	1535.98
505.59	1630.18
505.79	1581.03
505.99	1505.26
506.19	1515.50
506.39	1505.26
506.59	1439.72
506.79	1458.15
506.99	1531.88
507.19	1409.00
507.39	1490.92
507.59	1361.90
507.79	1462.25
507.99	1241.07
508.19	1333.23
508.39	1382.38
508.59	1384.43
508.79	1413.10
508.99	1398.76
509.19	1351.66
509.39	1468.39
509.59	1351.66
509.79	1339.37
509.99	1366.00
510.19	1409.00
510.39	1378.28
510.59	1392.62
510.79	1404.91
510.99	1337.32
511.19	1378.28
511.39	1464.30
511.59	1456.11
511.79	1484.78
511.99	1431.53
512.19	1419.24
512.38	1433.58
512.58	1406.95
512.78	1357.80
512.98	1437.67
513.18	1507.30
513.38	1390.57
513.58	1366.00
513.78	1429.48
513.98	1322.99
514.18	1329.13
514.38	1343.47
514.58	1458.15
514.78	1290.22
514.98	1378.28
515.18	1413.10
515.38	1404.91
515.58	1413.10
515.78	1335.28
515.98	1392.62
516.18	1433.58
516.38	1341.42
516.57	1388.52
516.77	1372.14
516.97	1316.84
517.17	1361.90
517.37	1345.52
517.57	1456.11
517.77	1380.33
517.97	1337.32
518.17	1366.00
518.37	1396.71
518.57	1331.18
518.77	1374.19
518.97	1366.00
519.16	1322.99
519.36	1447.91
519.56	1361.90
519.76	1370.09
519.96	1423.34
520.16	1423.34
520.36	1322.99
520.56	1460.20
520.76	1411.05
520.96	1396.71
521.16	1445.87
521.35	1400.81
521.55	1423.34
521.75	1368.04
521.95	1376.24
522.15	1370.09
522.35	1331.18
522.55	1380.33
522.75	1380.33
522.95	1312.75
523.14	1353.71
523.34	1359.85
523.54	1413.10
523.74	1413.10
523.94	1392.62
524.14	1282.03
524.34	1419.24
524.54	1435.63
524.73	1398.76
524.93	1406.95
525.13	1341.42
525.33	1329.13
525.53	1394.67
525.73	1452.01
525.93	1339.37
526.13	1411.05
526.32	1386.47
526.52	1409.00
526.72	1409.00
526.92	1462.25
527.12	1255.40
527.32	1265.64
527.52	1390.57
527.71	1392.62
527.91	1406.95
528.11	1396.71
528.31	1372.14
528.51	1361.90
528.71	1376.24
528.90	1396.71
529.10	1423.34
529.30	1423.34
529.50	1282.03
529.70	1380.33
529.90	1312.75
530.09	1523.69
530.29	1423.34
530.49	1325.04
530.69	1394.67
530.89	1347.56
531.09	1437.67
531.28	1357.80
531.48	1402.86
531.68	1327.08
531.88	1343.47
532.08	1398.76
532.28	1361.90
532.47	1411.05
532.67	1396.71
532.87	1384.43
533.07	1337.32
533.27	1413.10
533.46	1380.33
533.66	1357.80
533.86	1413.10
534.06	1411.05
534.26	1402.86
534.45	1363.95
534.65	1464.30
534.85	1394.67
535.05	1400.81
535.25	1366.00
535.44	1335.28
535.64	1566.70
535.84	1353.71
536.04	1322.99
536.24	1349.61
536.43	1327.08
536.63	1423.34
536.83	1261.55
537.03	1429.48
537.22	1279.98
537.42	1320.94
537.62	1454.06
537.82	1404.91
538.02	1523.69
538.21	1400.81
538.41	1499.11
538.61	1437.67
538.81	1376.24
539.00	1482.73
539.20	1384.43
539.40	1423.34
539.60	1384.43
539.79	1409.00
539.99	1386.47
540.19	1345.52
540.39	1351.66
540.58	1363.95
540.78	1370.09
540.98	1382.38
541.18	1333.23
541.37	1363.95
541.57	1325.04
541.77	1400.81
541.97	1314.80
542.16	1314.80
542.36	1279.98
542.56	1458.15
542.76	1476.59
542.95	1472.49
543.15	1417.19
543.35	1449.96
543.54	1351.66
543.74	1288.17
543.94	1409.00
544.14	1337.32
544.33	1363.95
544.53	1318.89
544.73	1347.56
544.93	1335.28
545.12	1359.85
545.32	1333.23
545.52	1275.88
545.71	1351.66
545.91	1368.04
546.11	1390.57
546.30	1343.47
546.50	1378.28
546.70	1396.71
546.90	1394.67
547.09	1320.94
547.29	1396.71
547.49	1406.95
547.68	1314.80
547.88	1339.37
548.08	1329.13
548.27	1624.04
548.47	1396.71
548.67	1349.61
548.87	1406.95
549.06	1396.71
549.26	1484.78
549.46	1368.04
549.65	1333.23
549.85	1464.30
550.05	1431.53
550.24	1265.64
550.44	1435.63
550.64	1353.71
550.83	1353.71
551.03	1456.11
551.23	1458.15
551.42	1423.34
551.62	1392.62
551.82	1339.37
552.01	1345.52
552.21	1392.62
552.41	1372.14
552.60	1439.72
552.80	1441.77
553.00	1374.19
553.19	1327.08
553.39	1366.00
553.59	1331.18
553.78	1443.82
553.98	1378.28
554.17	1359.85
554.37	1400.81
554.57	1351.66
554.76	1341.42
554.96	1400.81
555.16	1361.90
555.35	1370.09
555.55	1353.71
555.75	1372.14
555.94	1447.91
556.14	1331.18
556.33	1425.39
556.53	1359.85
556.73	1394.67
556.92	1390.57
557.12	1415.15
557.32	1454.06
557.51	1390.57
557.71	1411.05
557.90	1392.62
558.10	1411.05
558.30	1335.28
558.49	1404.91
558.69	1310.70
558.88	1355.76
559.08	1404.91
559.28	1306.60
559.47	1447.91
559.67	1427.43
559.86	1368.04
560.06	1386.47
560.26	1370.09
560.45	1415.15
560.65	1400.81
560.84	1435.63
561.04	1357.80
561.24	1302.51
561.43	1370.09
561.63	1423.34
561.82	1394.67
562.02	1429.48
562.22	1349.61
562.41	1419.24
562.61	1394.67
562.80	1394.67
563.00	1433.58
563.19	1400.81
563.39	1423.34
563.59	1398.76
563.78	1363.95
563.98	1329.13
564.17	1329.13
564.37	1316.84
564.56	1372.14
564.76	1337.32
564.96	1429.48
565.15	1378.28
565.35	1406.95
565.54	1427.43
565.74	1435.63
565.93	1427.43
566.13	1449.96
566.32	1402.86
566.52	1456.11
566.71	1394.67
566.91	1460.20
567.11	1331.18
567.30	1312.75
567.50	1402.86
567.69	1415.15
567.89	1384.43
568.08	1363.95
568.28	1402.86
568.47	1392.62
568.67	1337.32
568.86	1394.67
569.06	1347.56
569.25	1388.52
569.45	1290.22
569.64	1288.17
569.84	1361.90
570.04	1396.71
570.23	1374.19
570.43	1384.43
570.62	1441.77
570.82	1413.10
571.01	1333.23
571.21	1400.81
571.40	1314.80
571.60	1419.24
571.79	1368.04
571.99	1466.35
572.18	1380.33
572.38	1464.30
572.57	1378.28
572.77	1374.19
572.96	1507.30
573.16	1376.24
573.35	1390.57
573.55	1433.58
573.74	1363.95
573.94	1312.75
574.13	1464.30
574.33	1470.44
574.52	1470.44
574.71	1445.87
574.91	1402.86
575.10	1390.57
575.30	1456.11
575.49	1402.86
575.69	1374.19
575.88	1355.76
576.08	1421.29
576.27	1478.63
576.47	1492.97
576.66	1478.63
576.86	1519.59
577.05	1470.44
577.25	1421.29
577.44	1460.20
577.64	1404.91
577.83	1386.47
578.02	1431.53
578.22	1505.26
578.41	1458.15
578.61	1402.86
578.80	1331.18
579.00	1370.09
579.19	1421.29
579.39	1466.35
579.58	1431.53
579.77	1386.47
579.97	1505.26
580.16	1490.92
580.36	1454.06
580.55	1558.50
580.75	1435.63
580.94	1441.77
581.13	1509.35
581.33	1515.50
581.52	1400.81
581.72	1535.98
581.91	1542.12
582.11	1482.73
582.30	1527.78
582.49	1449.96
582.69	1454.06
582.88	1431.53
583.08	1488.87
583.27	1456.11
583.47	1419.24
583.66	1398.76
583.85	1429.48
584.05	1376.24
584.24	1482.73
584.44	1462.25
584.63	1484.78
584.82	1562.60
585.02	1589.22
585.21	1548.26
585.41	1509.35
585.60	1630.18
585.79	1658.85
585.99	1638.38
586.18	1691.62
586.37	1828.84
586.57	2717.65
586.76	8087.43
586.96	24110.74
587.15	40965.52
587.34	52040.93
587.54	59645.04
587.73	59477.11
587.93	44574.04
588.12	32744.97
588.31	26545.77
588.51	22724.26
588.70	19818.19
588.89	18153.20
589.09	16963.33
589.28	15652.63
589.47	14264.10
589.67	12572.48
589.86	10706.78
590.06	8710.01
590.25	6680.47
590.44	4997.04
590.64	3776.45
590.83	2895.83
591.02	2322.40
591.22	1884.13
591.41	1798.12
591.60	1595.37
591.80	1572.84
591.99	1435.63
592.18	1525.74
592.38	1497.07
592.57	1388.52
592.76	1460.20
592.96	1497.07
593.15	1503.21
593.34	1425.39
593.54	1400.81
593.73	1468.39
593.92	1431.53
594.12	1480.68
594.31	1550.31
594.50	1439.72
594.70	1458.15
594.89	1529.83
595.08	1402.86
595.28	1435.63
595.47	1495.02
595.66	1431.53
595.86	1380.33
596.05	1376.24
596.24	1368.04
596.43	1482.73
596.63	1472.49
596.82	1548.26
597.01	1474.54
597.21	1445.87
597.40	1509.35
597.59	1402.86
597.79	1368.04
597.98	1402.86
598.17	1470.44
598.36	1396.71
598.56	1374.19
598.75	1392.62
598.94	1388.52
599.14	1402.86
599.33	1343.47
599.52	1511.40
599.71	1372.14
599.91	1347.56
600.10	1417.19
600.29	1345.52
600.48	1372.14
600.68	1400.81
600.87	1337.32
601.06	1386.47
601.26	1447.91
601.45	1441.77
601.64	1488.87
601.83	1368.04
602.03	1454.06
602.22	1372.14
602.41	1447.91
602.60	1544.17
602.80	1368.04
602.99	1419.24
603.18	1349.61
603.37	1517.54
603.57	1417.19
603.76	1361.90
603.95	1343.47
604.14	1335.28
604.34	1359.85
604.53	1343.47
604.72	1359.85
604.91	1411.05
605.10	1433.58
605.30	1308.65
605.49	1423.34
605.68	1390.57
605.87	1404.91
606.07	1380.33
606.26	1398.76
606.45	1425.39
606.64	1345.52
606.84	1435.63
607.03	1400.81
607.22	1521.64
607.41	1441.77
607.60	1435.63
607.80	1431.53
607.99	1331.18
608.18	1378.28
608.37	1345.52
608.56	1347.56
608.76	1406.95
608.95	1452.01
609.14	1458.15
609.33	1513.45
609.52	1560.55
609.72	1546.22
609.91	1503.21
610.10	1363.95
610.29	1419.24
610.48	1376.24
610.68	1417.19
610.87	1411.05
611.06	1429.48
611.25	1376.24
611.44	1458.15
611.63	1273.84
611.83	1472.49
612.02	1409.00
612.21	1454.06
612.40	1273.84
612.59	1320.94
612.79	1327.08
612.98	1437.67
613.17	1404.91
613.36	1413.10
613.55	1458.15
613.74	1425.39
613.93	1650.66
614.13	1648.61
614.32	1642.47
614.51	1583.08
614.70	1468.39
614.89	1464.30
615.08	1507.30
615.28	1626.09
615.47	1402.86
615.66	1390.57
615.85	1423.34
616.04	1523.69
616.23	1521.64
616.42	1435.63
616.62	1535.98
616.81	1482.73
617.00	1357.80
617.19	1527.78
617.38	1304.56
617.57	1449.96
617.76	1495.02
617.95	1388.52
618.15	1435.63
618.34	1525.74
618.53	1380.33
618.72	1474.54
618.91	1333.23
619.10	1404.91
619.29	1394.67
619.48	1449.96
619.68	1320.94
619.87	1372.14
620.06	1320.94
620.25	1413.10
620.44	1327.08
620.63	1433.58
620.82	1333.23
621.01	1347.56
621.20	1404.91
621.39	1361.90
621.59	1431.53
621.78	1376.24
621.97	1429.48
622.16	1376.24
622.35	1384.43
622.54	1439.72
622.73	1413.10
622.92	1329.13
623.11	1392.62
623.30	1402.86
623.49	1447.91
623.68	1363.95
623.88	1437.67
624.07	1341.42
624.26	1339.37
624.45	1409.00
624.64	1349.61
624.83	1314.80
625.02	1316.84
625.21	1374.19
625.40	1372.14
625.59	1499.11
625.78	1392.62
625.97	1443.82
626.16	1490.92
626.35	1511.40
626.54	1468.39
626.74	1558.50
626.93	1507.30
627.12	1402.86
627.31	1460.20
627.50	1404.91
627.69	1357.80
627.88	1357.80
628.07	1404.91
628.26	1388.52
628.45	1333.23
628.64	1384.43
628.83	1386.47
629.02	1370.09
629.21	1472.49
629.40	1353.71
629.59	1404.91
629.78	1417.19
629.97	1421.29
630.16	1388.52
630.35	1347.56
630.54	1378.28
630.73	1282.03
630.92	1406.95
631.11	1388.52
631.30	1417.19
631.49	1421.29
631.68	1415.15
631.87	1425.39
632.06	1345.52
632.25	1482.73
632.44	1306.60
632.63	1355.76
632.82	1482.73
633.01	1456.11
633.20	1462.25
633.39	1505.26
633.58	1497.07
633.77	1474.54
633.96	1490.92
634.15	1439.72
634.34	1474.54
634.53	1472.49
634.72	1435.63
634.91	1339.37
635.10	1443.82
635.29	1470.44
635.48	1421.29
635.67	1427.43
635.86	1384.43
636.05	1378.28
636.24	1441.77
636.43	1421.29
636.62	1351.66
636.81	1308.65
637.00	1357.80
637.19	1335.28
637.38	1398.76
637.57	1351.66
637.76	1386.47
637.95	1488.87
638.14	1441.77
638.33	1560.55
638.52	1480.68
638.71	1429.48
638.89	1343.47
639.08	1480.68
639.27	1353.71
639.46	1478.63
639.65	1738.73
639.84	1880.04
640.03	2013.15
640.22	2056.16
640.41	2090.98
640.60	1892.32
640.79	1800.16
640.98	1689.57
641.17	1617.90
641.36	1480.68
641.55	1556.46
641.74	1535.98
641.92	1443.82
642.11	1531.88
642.30	1519.59
642.49	1449.96
642.68	1466.35
642.87	1427.43
643.06	1490.92
643.25	1343.47
643.44	1259.50
643.63	1251.31
643.82	1429.48
644.00	1271.79
644.19	1372.14
644.38	1288.17
644.57	1404.91
644.76	1409.00
644.95	1386.47
645.14	1482.73
645.33	1378.28
645.52	1427.43
645.71	1234.93
645.89	1316.84
646.08	1394.67
646.27	1390.57
646.46	1443.82
646.65	1378.28
646.84	1357.80
647.03	1302.51
647.22	1476.59
647.40	1337.32
647.59	1312.75
647.78	1372.14
647.97	1341.42
648.16	1318.89
648.35	1425.39
648.54	1343.47
648.73	1298.41
648.91	1382.38
649.10	1333.23
649.29	1351.66
649.48	1355.76
649.67	1441.77
649.86	1394.67
650.05	1415.15
650.23	1501.16
650.42	1456.11
650.61	1517.54
650.80	1644.52
650.99	1601.51
651.18	1572.84
651.36	1492.97
651.55	1347.56
651.74	1472.49
651.93	1435.63
652.12	1445.87
652.31	1454.06
652.49	1415.15
652.68	1353.71
652.87	1488.87
653.06	1409.00
653.25	1525.74
653.44	1439.72
653.62	1427.43
653.81	1404.91
654.00	1376.24
654.19	1421.29
654.38	1540.07
654.56	1497.07
654.75	1345.52
654.94	1406.95
655.13	1304.56
655.32	1349.61
655.51	1429.48
655.69	1302.51
655.88	1353.71
656.07	1243.12
656.26	1394.67
656.45	1325.04
656.63	1441.77
656.82	1435.63
657.01	1409.00
657.20	1290.22
657.38	1413.10
657.57	1355.76
657.76	1243.12
657.95	1366.00
658.14	1441.77
658.32	1415.15
658.51	1396.71
658.70	1316.84
658.89	1363.95
659.08	1349.61
659.26	1423.34
659.45	1370.09
659.64	1497.07
659.83	1509.35
660.01	1546.22
660.20	1435.63
660.39	1464.30
660.58	1363.95
660.76	1435.63
660.95	1325.04
661.14	1388.52
661.33	1347.56
661.51	1384.43
661.70	1374.19
661.89	1380.33
662.08	1345.52
662.26	1329.13
662.45	1404.91
662.64	1443.82
662.83	1458.15
663.01	1386.47
663.20	1245.16
663.39	1409.00
663.58	1376.24
663.76	1320.94
663.95	1439.72
664.14	1347.56
664.32	1267.69
664.51	1331.18
664.70	1359.85
664.89	1370.09
665.07	1329.13
665.26	1359.85
665.45	1363.95
665.64	1327.08
665.82	1435.63
666.01	1366.00
666.20	1427.43
666.38	1445.87
666.57	1413.10
666.76	1515.50
666.95	2007.01
667.13	4263.87
667.32	11511.63
667.51	17903.34
667.69	21622.45
667.88	24714.89
668.07	24397.45
668.25	19035.87
668.44	13766.45
668.63	11175.77
668.81	9312.11
669.00	8112.00
669.19	7444.37
669.38	6932.37
669.56	6125.47
669.75	5369.77
669.94	4923.32
670.12	4245.44
670.31	3518.41
670.50	2891.73
670.68	2420.70
670.87	2058.21
671.06	1779.68
671.24	1644.52
671.43	1540.07
671.62	1560.55
671.80	1482.73
671.99	1492.97
672.18	1421.29
672.36	1452.01
672.55	1388.52
672.74	1378.28
672.92	1302.51
673.11	1411.05
673.29	1396.71
673.48	1447.91
673.67	1347.56
673.85	1443.82
674.04	1300.46
674.23	1347.56
674.41	1501.16
674.60	1380.33
674.79	1329.13
674.97	1435.63
675.16	1398.76
675.34	1376.24
675.53	1366.00
675.72	1398.76
675.90	1437.67
676.09	1325.04
676.28	1366.00
676.46	1366.00
676.65	1388.52
676.83	1464.30
677.02	1378.28
677.21	1372.14
677.39	1421.29
677.58	1372.14
677.77	1378.28
677.95	1386.47
678.14	1318.89
678.32	1372.14
678.51	1349.61
678.70	1476.59
678.88	1286.12
679.07	1366.00
679.25	1390.57
679.44	1341.42
679.63	1349.61
679.81	1378.28
680.00	1447.91
680.18	1349.61
680.37	1308.65
680.55	1404.91
680.74	1222.64
680.93	1302.51
681.11	1388.52
681.30	1398.76
681.48	1435.63
681.67	1339.37
681.85	1425.39
682.04	1277.93
682.23	1341.42
682.41	1347.56
682.60	1366.00
682.78	1441.77
682.97	1333.23
683.15	1345.52
683.34	1382.38
683.53	1363.95
683.71	1372.14
683.90	1413.10
684.08	1445.87
684.27	1372.14
684.45	1404.91
684.64	1411.05
684.82	1345.52
685.01	1359.85
685.19	1386.47
685.38	1458.15
685.57	1468.39
685.75	1337.32
685.94	1374.19
686.12	1359.85
686.31	1327.08
686.49	1363.95
686.68	1300.46
686.86	1404.91
687.05	1284.08
687.23	1372.14
687.42	1376.24
687.60	1359.85
687.79	1374.19
687.97	1376.24
688.16	1423.34
688.34	1363.95
688.53	1368.04
688.71	1386.47
688.90	1464.30
689.08	1298.41
689.27	1351.66
689.45	1331.18
689.64	1394.67
689.82	1378.28
690.01	1361.90
690.19	1411.05
690.38	1361.90
690.56	1380.33
690.75	1265.64
690.93	1247.21
691.12	1310.70
691.30	1378.28
691.49	1357.80
691.67	1353.71
691.86	1503.21
692.04	1357.80
692.23	1275.88
692.41	1447.91
692.60	1538.02
692.78	1507.30
692.97	1384.43
693.15	1413.10
693.34	1513.45
693.52	1470.44
693.71	1363.95
693.89	1372.14
694.08	1380.33
694.26	1327.08
694.44	1419.24
694.63	1413.10
694.81	1429.48
695.00	1335.28
695.18	1423.34
695.37	1390.57
695.55	1431.53
695.74	1415.15
695.92	1314.80
696.10	1435.63
696.29	1314.80
696.47	1359.85
696.66	1298.41
696.84	1366.00
697.03	1419.24
697.21	1452.01
697.40	1679.33
697.58	1370.09
697.76	1402.86
697.95	1314.80
698.13	1388.52
698.32	1363.95
698.50	1380.33
698.68	1413.10
698.87	1429.48
699.05	1368.04
699.24	1347.56
699.42	1363.95
699.61	1386.47
699.79	1345.52
699.97	1386.47
700.16	1251.31
700.34	1327.08
700.53	1349.61
700.71	1513.45
700.89	1402.86
701.08	1374.19
701.26	1345.52
701.45	1605.61
701.63	1398.76
701.81	1406.95
702.00	1390.57
702.18	1400.81
702.37	1370.09
702.55	1382.38
702.73	1468.39
702.92	1462.25
703.10	1656.81
703.28	1697.77
703.47	1603.56
703.65	1687.53
703.84	1535.98
704.02	1531.88
704.20	1525.74
704.39	1427.43
704.57	1468.39
704.75	1552.36
704.94	1497.07
705.12	1458.15
705.30	1515.50
705.49	1517.54
705.67	1822.69
705.86	3581.90
706.04	8957.82
706.22	16068.36
706.41	19478.23
706.59	22050.48
706.77	23727.77
706.96	19990.22
707.14	13877.04
707.32	11308.88
707.51	9467.76
707.69	8097.67
707.87	7487.37
708.06	6731.67
708.24	5863.33
708.42	4964.28
708.61	3991.49
708.79	2963.41
708.97	2445.27
709.16	2025.44
709.34	1789.92
709.52	1597.42
709.71	1507.30
709.89	1474.54
710.07	1443.82
710.26	1402.86
710.44	1372.14
710.62	1490.92
710.80	1337.32
710.99	1466.35
711.17	1511.40
711.35	1318.89
711.54	1314.80
711.72	1437.67
711.90	1421.29
712.09	1427.43
712.27	1376.24
712.45	1462.25
712.63	1394.67
712.82	1409.00
713.00	1302.51
713.18	1415.15
713.37	1406.95
713.55	1437.67
713.73	1341.42
713.91	1499.11
714.10	1435.63
714.28	1427.43
714.46	1320.94
714.65	1372.14
714.83	1382.38
715.01	1286.12
715.19	1384.43
715.38	1380.33
715.56	1417.19
715.74	1314.80
715.92	1372.14
716.11	1386.47
716.29	1318.89
716.47	1386.47
716.65	1413.10
716.84	1296.36
717.02	1425.39
717.20	1322.99
717.38	1355.76
717.57	1417.19
717.75	1347.56
717.93	1468.39
718.11	1343.47
718.30	1372.14
718.48	1427.43
718.66	1449.96
718.84	1406.95
719.03	1345.52
719.21	1349.61
719.39	1423.34
719.57	1411.05
719.75	1392.62
719.94	1378.28
720.12	1349.61
720.30	1380.33
720.48	1357.80
720.67	1294.32
720.85	1316.84
721.03	1339.37
721.21	1339.37
721.39	1390.57
721.58	1331.18
721.76	1429.48
721.94	1394.67
722.12	1380.33
722.30	1388.52
722.49	1333.23
722.67	1359.85
722.85	1322.99
723.03	1214.45
723.21	1343.47
723.40	1355.76
723.58	1495.02
723.76	1413.10
723.94	1384.43
724.12	1359.85
724.30	1439.72
724.49	1406.95
724.67	1488.87
724.85	1431.53
725.03	1411.05
725.21	1406.95
725.40	1478.63
725.58	1404.91
725.76	1435.63
725.94	1341.42
726.12	1415.15
726.30	1355.76
726.49	1339.37
726.67	1386.47
726.85	1314.80
727.03	1343.47
727.21	1439.72
727.39	1517.54
727.57	2160.61
727.76	3297.23
727.94	4462.52
728.12	4941.75
728.30	5195.70
728.48	5056.43
728.66	4196.29
728.84	3432.40
729.03	3018.71
729.21	2910.16
729.39	2602.97
729.57	2334.68
729.75	1992.67
729.93	1851.36
730.11	1671.14
730.30	1533.93
730.48	1419.24
730.66	1462.25
730.84	1437.67
731.02	1400.81
731.20	1275.88
731.38	1388.52
731.56	1417.19
731.74	1396.71
731.93	1363.95
732.11	1302.51
732.29	1298.41
732.47	1406.95
732.65	1355.76
732.83	1411.05
733.01	1370.09
733.19	1298.41
733.37	1378.28
733.56	1361.90
733.74	1294.32
733.92	1396.71
734.10	1339.37
734.28	1378.28
734.46	1306.60
734.64	1296.36
734.82	1347.56
735.00	1366.00
735.18	1396.71
735.36	1357.80
735.54	1339.37
735.73	1400.81
735.91	1386.47
736.09	1366.00
736.27	1394.67
736.45	1433.58
736.63	1353.71
736.81	1390.57
736.99	1406.95
737.17	1462.25
737.35	1335.28
737.53	1449.96
737.71	1331.18
737.89	1404.91
738.07	1343.47
738.25	1312.75
738.43	1282.03
738.61	1282.03
738.80	1282.03
738.98	1314.80
739.16	1320.94
739.34	1347.56
739.52	1388.52
739.70	1421.29
739.88	1400.81
740.06	1437.67
740.24	1335.28
740.42	1425.39
740.60	1322.99
740.78	1388.52
740.96	1345.52
741.14	1380.33
741.32	1423.34
741.50	1335.28
741.68	1456.11
741.86	1488.87
742.04	1423.34
742.22	1351.66
742.40	1320.94
742.58	1351.66
742.76	1335.28
742.94	1402.86
743.12	1312.75
743.30	1370.09
743.48	1292.27
743.66	1282.03
743.84	1355.76
744.02	1335.28
744.20	1421.29
744.38	1339.37
744.56	1404.91
744.74	1409.00
744.92	1409.00
745.10	1435.63
745.28	1339.37
745.46	1474.54
745.64	1363.95
745.82	1431.53
746.00	1419.24
746.18	1345.52
746.36	1275.88
746.54	1390.57
746.72	1443.82
746.90	1322.99
747.08	1384.43
747.26	1370.09
747.44	1331.18
747.62	1433.58
747.80	1368.04
747.98	1419.24
748.15	1345.52
748.33	1478.63
748.51	1419.24
748.69	1404.91
748.87	1359.85
749.05	1390.57
749.23	1388.52
749.41	1398.76
749.59	1351.66
749.77	1349.61
749.95	1322.99
750.13	1300.46
750.31	1396.71
750.49	1331.18
750.67	1359.85
750.85	1421.29
751.03	1402.86
751.20	1419.24
751.38	1341.42
751.56	1329.13
751.74	1316.84
751.92	1380.33
752.10	1259.50
752.28	1452.01
752.46	1335.28
752.64	1318.89
752.82	1341.42
753.00	1447.91
753.18	1388.52
753.35	1357.80
753.53	1368.04
753.71	1341.42
753.89	1423.34
754.07	1437.67
754.25	1396.71
754.43	1366.00
754.61	1347.56
754.79	1331.18
754.97	1394.67
755.14	1406.95
755.32	1314.80
755.50	1392.62
755.68	1394.67
755.86	1353.71
756.04	1265.64
756.22	1331.18
756.40	1394.67
756.57	1431.53
756.75	1329.13
756.93	1415.15
757.11	1406.95
757.29	1282.03
757.47	1355.76
757.65	1394.67
757.82	1329.13
758.00	1341.42
758.18	1396.71
758.36	1318.89
758.54	1454.06
758.72	1384.43
758.90	1349.61
759.07	1402.86
759.25	1300.46
759.43	1345.52
759.61	1298.41
759.79	1673.19
759.97	1409.00
760.15	1454.06
760.32	1286.12
760.50	1382.38
760.68	1437.67
760.86	1339.37
761.04	1322.99
761.22	1343.47
761.39	1376.24
761.57	1363.95
761.75	1359.85
761.93	1327.08
762.11	1318.89
762.28	1392.62
762.46	1382.38
762.64	1427.43
762.82	1269.74
763.00	1366.00
763.18	1417.19
763.35	1329.13
763.53	1413.10
763.71	1388.52
763.89	1331.18
764.07	1347.56
764.24	1482.73
764.42	1341.42
764.60	1355.76
764.78	1443.82
764.96	1372.14
765.13	1419.24
765.31	1349.61
765.49	1419.24
765.67	1314.80
765.84	1359.85
766.02	1331.18
766.20	1337.32
766.38	1413.10
766.56	1378.28
766.73	1337.32
766.91	1394.67
767.09	1390.57
767.27	1339.37
767.44	1320.94
767.62	1376.24
767.80	1318.89
767.98	1339.37
768.15	1394.67
768.33	1394.67
768.51	1413.10
768.69	1437.67
768.87	1400.81
769.04	1411.05
769.22	1435.63
769.40	1423.34
769.58	1464.30
769.75	1341.42
769.93	1374.19
770.11	1339.37
770.28	1331.18
770.46	1404.91
770.64	1335.28
770.82	1331.18
770.99	1359.85
771.17	1386.47
771.35	1398.76
771.53	1374.19
771.70	1429.48
771.88	1402.86
772.06	1402.86
772.23	1400.81
772.41	1404.91
772.59	1419.24
772.77	1318.89
772.94	1333.23
773.12	1345.52
773.30	1421.29
773.47	1374.19
773.65	1359.85
773.83	1411.05
774.01	1419.24
774.18	1298.41
774.36	1277.93
774.54	1380.33
774.71	1361.90
774.89	1316.84
775.07	1355.76
775.24	1388.52
775.42	1331.18
775.60	1413.10
775.78	1341.42
775.95	1308.65
776.13	1380.33
776.31	1318.89
776.48	1415.15
776.66	1406.95
776.84	1437.67
777.01	1331.18
777.19	1298.41
777.37	1351.66
777.54	1468.39
777.72	1376.24
777.90	1376.24
778.07	1310.70
778.25	1390.57
778.43	1376.24
778.60	1376.24
778.78	1396.71
778.96	1404.91
779.13	1353.71
779.31	1368.04
779.49	1300.46
779.66	1384.43
779.84	1286.12
780.01	1392.62
780.19	1349.61
780.37	1423.34
780.54	1378.28
780.72	1294.32
780.90	1316.84
781.07	1296.36
781.25	1288.17
781.43	1366.00
781.60	1325.04
781.78	1341.42
781.95	1345.52
782.13	1341.42
782.31	1404.91
782.48	1335.28
782.66	1353.71
782.83	1398.76
783.01	1363.95
783.19	1388.52
783.36	1327.08
783.54	1359.85
783.72	1390.57
783.89	1345.52
784.07	1388.52
784.24	1427.43
784.42	1402.86
784.60	1363.95
784.77	1349.61
784.95	1277.93
785.12	1304.56
785.30	1312.75
785.47	1343.47
785.65	1267.69
785.83	1325.04
786.00	1378.28
786.18	1341.42
786.35	1392.62
786.53	1388.52
786.71	1409.00
786.88	1325.04
787.06	1351.66
787.23	1306.60
787.41	1353.71
787.58	1304.56
787.76	1374.19
787.94	1400.81
788.11	1329.13
788.29	1404.91
788.46	1298.41
788.64	1245.16
788.81	1357.80
788.99	1314.80
789.16	1353.71
789.34	1363.95
789.52	1376.24
789.69	1306.60
789.87	1320.94
790.04	1302.51
790.22	1380.33
790.39	1384.43
790.57	1312.75
790.74	1361.90
790.92	1304.56
791.09	1277.93
791.27	1288.17
791.44	1445.87
791.62	1374.19
791.79	1370.09
791.97	1349.61
792.15	1431.53
792.32	1382.38
792.50	1421.29
792.67	1378.28
792.85	1445.87
793.02	1316.84
793.20	1310.70
793.37	1349.61
793.55	1357.80
793.72	1378.28
793.90	1443.82
794.07	1423.34
794.25	1331.18
794.42	1355.76
794.60	1300.46
794.77	1398.76
794.95	1368.04
795.12	1449.96
795.30	1353.71
795.47	1298.41
795.65	1540.07
795.82	1318.89
796.00	1349.61
796.17	1449.96
796.34	1372.14
796.52	1374.19
796.69	1427.43
796.87	1449.96
797.04	1386.47
797.22	1363.95
797.39	1355.76
797.57	1345.52
797.74	1429.48
797.92	1406.95
798.09	1372.14
798.27	1333.23
798.44	1421.29
798.62	1390.57
798.79	1392.62
798.96	1351.66
799.14	1339.37
799.31	1443.82
799.49	1396.71
799.66	1343.47
799.84	1335.28
800.01	1322.99
800.19	1351.66
800.36	1257.45
800.53	1357.80
800.71	1341.42
800.88	1443.82
801.06	1357.80
801.23	1310.70
801.41	1331.18
801.58	1325.04
801.75	1302.51
801.93	1279.98
802.10	1253.36
802.28	1376.24
802.45	1361.90
802.63	1413.10
802.80	1402.86
802.97	1357.80
803.15	1386.47
803.32	1398.76
803.50	1337.32
803.67	1341.42
803.84	1341.42
804.02	1353.71
804.19	1355.76
804.37	1288.17
804.54	1361.90
804.71	1357.80
804.89	1335.28
805.06	1378.28
805.24	1370.09
805.41	1327.08
805.58	1355.76
805.76	1386.47
805.93	1419.24
806.10	1390.57
806.28	1413.10
806.45	1347.56
806.63	1318.89
806.80	1355.76
806.97	1349.61
807.15	1398.76
807.32	1392.62
807.49	1325.04
807.67	1357.80
807.84	1398.76
808.01	1261.55
808.19	1445.87
808.36	1372.14
808.54	1329.13
808.71	1376.24
808.88	1417.19
809.06	1392.62
809.23	1347.56
809.40	1308.65
809.58	1454.06
809.75	1318.89
809.92	1343.47
810.10	1417.19
810.27	1359.85
810.44	1347.56
810.62	1349.61
810.79	1386.47
810.96	1421.29
811.14	1300.46
811.31	1325.04
811.48	1423.34
811.66	1404.91
811.83	1370.09
812.00	1427.43
812.18	1337.32
812.35	1538.02
812.52	1261.55
812.69	1359.85
812.87	1357.80
813.04	1279.98
813.21	1394.67
813.39	1314.80
813.56	1372.14
813.73	1294.32
813.91	1243.12
814.08	1355.76
814.25	1443.82
814.42	1339.37
814.60	1400.81
814.77	1363.95
814.94	1386.47
815.12	1429.48
815.29	1368.04
815.46	1318.89
815.63	1310.70
815.81	1394.67
815.98	1269.74
816.15	1372.14
816.33	1439.72
816.50	1421.29
816.67	1249.26
816.84	1396.71
817.02	1320.94
817.19	1359.85
817.36	1427.43
817.53	1363.95
817.71	1327.08
817.88	1437.67
818.05	1333.23
818.22	1443.82
818.40	1458.15
818.57	1337.32
818.74	1413.10
818.91	1310.70
819.09	1415.15
819.26	1355.76
819.43	1335.28
819.60	1378.28
819.78	1462.25
819.95	1347.56
820.12	1380.33
820.29	1521.64
820.47	1431.53
820.64	1327.08
820.81	1296.36
820.98	1355.76
821.15	1279.98
821.33	1437.67
821.50	1380.33
821.67	1386.47
821.84	1333.23
822.02	1390.57
822.19	1417.19
822.36	1462.25
822.53	1376.24
822.70	1351.66
822.88	1376.24
823.05	1435.63
823.22	1406.95
823.39	1341.42
823.56	1351.66
823.74	1370.09
823.91	1288.17
824.08	1378.28
824.25	1325.04
824.42	1435.63
824.60	1288.17
824.77	1386.47
824.94	1345.52
825.11	1388.52
825.28	1261.55
825.45	1318.89
825.63	1382.38
825.80	1372.14
825.97	1368.04
826.14	1288.17
826.31	1308.65
826.48	1429.48
826.66	1312.75
826.83	1308.65
827.00	1343.47
827.17	1310.70
827.34	1318.89
827.51	1288.17
827.69	1419.24
827.86	1388.52
828.03	1396.71
828.20	1368.04
828.37	1294.32
828.54	1386.47
828.71	1333.23
828.89	1429.48
829.06	1302.51
829.23	1435.63
829.40	1380.33
829.57	1265.64
829.74	1316.84
829.91	1392.62
830.09	1402.86
830.26	1398.76
830.43	1468.39
830.60	1413.10
830.77	1454.06
830.94	1431.53
831.11	1417.19
831.28	1398.76
831.46	1374.19
831.63	1421.29
831.80	1359.85
831.97	1337.32
832.14	1275.88
832.31	1380.33
832.48	1355.76
832.65	1329.13
832.82	1312.75
832.99	1349.61
833.17	1296.36
833.34	1413.10
833.51	1312.75
833.68	1279.98
833.85	1419.24
834.02	1351.66
834.19	1368.04
834.36	1341.42
834.53	1402.86
834.70	1339.37
834.87	1439.72
835.04	1232.88
835.22	1333.23
835.39	1343.47
835.56	1384.43
835.73	1308.65
835.90	1417.19
836.07	1370.09
836.24	1388.52
836.41	1312.75
836.58	1329.13
836.75	1421.29
836.92	1345.52
837.09	1392.62
837.26	1335.28
837.43	1425.39
837.60	1382.38
837.77	1339.37
837.94	1376.24
838.12	1429.48
838.29	1392.62
838.46	1249.26
838.63	1384.43
838.80	1423.34
838.97	1361.90
839.14	1378.28
839.31	1300.46
839.48	1349.61
839.65	1351.66
839.82	1392.62
839.99	1355.76
840.16	1372.14
840.33	1335.28
840.50	1384.43
840.67	1386.47
840.84	1257.45
841.01	1355.76
841.18	1339.37
841.35	1241.07
841.52	1427.43
841.69	1411.05
841.86	1384.43
842.03	1384.43
842.20	1388.52
842.37	1310.70
842.54	1353.71
842.71	1261.55
842.88	1310.70
843.05	1398.76
843.22	1402.86
843.39	1359.85
843.56	1409.00
843.73	1458.15
843.90	1460.20
844.07	1409.00
844.24	1382.38
844.41	1417.19
844.58	1398.76
844.75	1347.56
844.92	1368.04
845.09	1400.81
845.26	1353.71
845.43	1322.99
845.60	1384.43
845.77	1382.38
845.94	1310.70
846.10	1419.24
846.27	1345.52
846.44	1357.80
846.61	1341.42
846.78	1355.76
846.95	1386.47
847.12	1388.52
847.29	1306.60
847.46	1298.41
847.63	1386.47
847.80	1361.90
847.97	1361.90
848.14	1460.20
848.31	1322.99
848.48	1355.76
848.65	1378.28
848.82	1320.94
848.98	1402.86
849.15	1439.72
849.32	1409.00
849.49	1386.47
849.66	1357.80
849.83	1361.90
850.00	1359.85
850.17	1441.77
850.34	1456.11
850.51	1374.19
850.68	1351.66
850.85	1419.24
851.01	1398.76
851.18	1398.76
851.35	1370.09
851.52	1380.33
851.69	1394.67
851.86	1224.69
852.03	1343.47
852.20	1349.61
852.37	1286.12
852.53	1275.88
852.70	1277.93
852.87	1392.62
853.04	1337.32
853.21	1368.04
853.38	1419.24
853.55	1415.15
853.72	1495.02
853.89	1331.18
854.05	1345.52
854.22	1374.19
854.39	1343.47
854.56	1411.05
854.73	1476.59
854.90	1288.17
855.07	1359.85
855.23	1271.79
855.40	1335.28
855.57	1396.71
855.74	1320.94
855.91	1501.16
856.08	1327.08
856.25	1282.03
856.41	1361.90
856.58	1310.70
856.75	1366.00
856.92	1300.46
857.09	1339.37
857.26	1372.14
857.42	1337.32
857.59	1386.47
857.76	1400.81
857.93	1318.89
858.10	1447.91
858.27	1312.75
858.43	1372.14
858.60	1335.28
858.77	1251.31
858.94	1282.03
859.11	1398.76
859.27	1380.33
859.44	1316.84
859.61	1388.52
859.78	1355.76
859.95	1345.52
860.12	1325.04
860.28	1423.34
860.45	1474.54
860.62	1380.33
860.79	1411.05
860.95	1368.04
861.12	1374.19
861.29	1318.89
861.46	1290.22
861.63	1417.19
861.79	1314.80
861.96	1404.91
862.13	1388.52
862.30	1372.14
862.47	1327.08
862.63	1363.95
862.80	1378.28
862.97	1443.82
863.14	1361.90
863.30	1363.95
863.47	1318.89
863.64	1355.76
863.81	1359.85
863.97	1363.95
864.14	1427.43
864.31	1327.08
864.48	1363.95
864.65	1363.95
864.81	1327.08
864.98	1363.95
865.15	1335.28
865.32	1458.15
865.48	1406.95
865.65	1341.42
865.82	1396.71
865.98	1404.91
866.15	1454.06
866.32	1400.81
866.49	1370.09
866.65	1372.14
866.82	1357.80
866.99	1363.95
867.16	1368.04
867.32	1273.84
867.49	1398.76
867.66	1308.65
867.83	1314.80
867.99	1331.18
868.16	1337.32
868.33	1345.52
868.49	1361.90
868.66	1300.46
868.83	1462.25
868.99	1331.18
869.16	1388.52
869.33	1331.18
869.50	1413.10
869.66	1331.18
869.83	1392.62
870.00	1273.84
870.16	1452.01
870.33	1322.99
870.50	1460.20
870.66	1382.38
870.83	1492.97
871.00	1421.29
871.17	1445.87
871.33	1409.00
871.50	1312.75
871.67	1363.95
871.83	1353.71
872.00	1409.00
872.17	1378.28
872.33	1433.58
872.50	1382.38
872.67	1380.33
872.83	1304.56
873.00	1378.28
873.17	1327.08
873.33	1437.67
873.50	1388.52
873.67	1304.56
873.83	1329.13
874.00	1370.09
874.16	1466.35
874.33	1359.85
874.50	1304.56
874.66	1392.62
874.83	1372.14
875.00	1386.47
875.16	1400.81
875.33	1427.43
875.50	1333.23
875.66	1382.38
875.83	1343.47
875.99	1427.43
876.16	1411.05
876.33	1363.95
876.49	1314.80
876.66	1372.14
876.83	1327.08
876.99	1271.79
877.16	1409.00
877.32	1361.90
877.49	1355.76
877.66	1351.66
877.82	1378.28
877.99	1343.47
878.15	1402.86
878.32	1331.18
878.49	1388.52
878.65	1347.56
878.82	1392.62
878.98	1284.08
879.15	1388.52
879.32	1394.67
879.48	1349.61
879.65	1312.75
879.81	1388.52
879.98	1325.04
880.15	1355.76
880.31	1345.52
880.48	1366.00
880.64	1449.96
880.81	1343.47
880.97	1433.58
881.14	1396.71
881.31	1337.32
881.47	1525.74
881.64	1386.47
881.80	1286.12
881.97	1306.60
882.13	1435.63
882.30	1310.70
882.47	1322.99
882.63	1398.76
882.80	1349.61
882.96	1322.99
883.13	1325.04
883.29	1396.71
883.46	1304.56
883.62	1400.81
883.79	1368.04
883.95	1335.28
884.12	1370.09
884.29	1384.43
884.45	1427.43
884.62	1392.62
884.78	1325.04
884.95	1333.23
885.11	1298.41
885.28	1339.37
885.44	1429.48
885.61	1411.05
885.77	1445.87
885.94	1488.87
886.10	1292.27
886.27	1366.00
886.43	1390.57
886.60	1388.52
886.76	1355.76
886.93	1343.47
887.09	1316.84
887.26	1322.99
887.42	1363.95
887.59	1445.87
887.75	1449.96
887.92	1398.76
888.08	1468.39
888.25	1425.39
888.41	1347.56
888.58	1337.32
888.74	1370.09
888.91	1413.10
>>>>>End Processed Spectral Data<<<<<
