SpectraSuite Data File
++++++++++++++++++++++++++++++++++++
Date: Tue May 03 11:24:55 CEST 2016
User: root
Dark Spectrum Present: No
Reference Spectrum Present: No
Number of Sampled Component Spectra: 1
Spectrometers: USB4C02835
Integration Time (usec): 100000 (USB4C02835)
Spectra Averaged: 1 (USB4C02835)
Boxcar Smoothing: 0 (USB4C02835)
Correct for Electrical Dark: No (USB4C02835)
Strobe/Lamp Enabled: No (USB4C02835)
Correct for Detector Non-linearity: No (USB4C02835)
Correct for Stray Light: No (USB4C02835)
Number of Pixels in Processed Spectrum: 3648
>>>>>Begin Processed Spectral Data<<<<<
177.47	1279.98
177.69	1279.98
177.91	1279.98
178.13	1191.92
178.36	1249.26
178.58	1370.09
178.80	1347.56
179.02	1325.04
179.24	1355.76
179.46	1386.47
179.68	1431.53
179.90	1329.13
180.13	1333.23
180.35	1400.81
180.57	1331.18
180.79	1300.46
181.01	1396.71
181.23	1435.63
181.45	1411.05
181.67	1347.56
181.90	1341.42
182.12	1429.48
182.34	1331.18
182.56	1388.52
182.78	1392.62
183.00	1351.66
183.22	1372.14
183.44	1316.84
183.66	1466.35
183.89	1417.19
184.11	1394.67
184.33	1355.76
184.55	1423.34
184.77	1390.57
184.99	1339.37
185.21	1357.80
185.43	1454.06
185.65	1439.72
185.87	1411.05
186.10	1411.05
186.32	1484.78
186.54	1368.04
186.76	1406.95
186.98	1341.42
187.20	1312.75
187.42	1327.08
187.64	1355.76
187.86	1411.05
188.08	1447.91
188.30	1339.37
188.52	1312.75
188.75	1406.95
188.97	1329.13
189.19	1353.71
189.41	1284.08
189.63	1398.76
189.85	1368.04
190.07	1339.37
190.29	1306.60
190.51	1368.04
190.73	1363.95
190.95	1460.20
191.17	1314.80
191.39	1312.75
191.61	1361.90
191.84	1386.47
192.06	1413.10
192.28	1316.84
192.50	1429.48
192.72	1372.14
192.94	1345.52
193.16	1372.14
193.38	1363.95
193.60	1292.27
193.82	1443.82
194.04	1406.95
194.26	1413.10
194.48	1325.04
194.70	1351.66
194.92	1349.61
195.14	1404.91
195.36	1361.90
195.58	1355.76
195.80	1341.42
196.02	1341.42
196.24	1419.24
196.46	1339.37
196.69	1406.95
196.91	1482.73
197.13	1421.29
197.35	1394.67
197.57	1370.09
197.79	1419.24
198.01	1382.38
198.23	1402.86
198.45	1392.62
198.67	1290.22
198.89	1349.61
199.11	1351.66
199.33	1402.86
199.55	1357.80
199.77	1435.63
199.99	1386.47
200.21	1411.05
200.43	1290.22
200.65	1298.41
200.87	1329.13
201.09	1384.43
201.31	1284.08
201.53	1347.56
201.75	1355.76
201.97	1343.47
202.19	1335.28
202.41	1458.15
202.63	1429.48
202.85	1421.29
203.07	1384.43
203.29	1347.56
203.51	1366.00
203.73	1314.80
203.95	1482.73
204.17	1402.86
204.39	1306.60
204.61	1390.57
204.83	1314.80
205.05	1456.11
205.27	1398.76
205.49	1454.06
205.71	1355.76
205.93	1335.28
206.15	1386.47
206.37	1376.24
206.59	1431.53
206.81	1269.74
207.03	1294.32
207.25	1341.42
207.47	1361.90
207.69	1327.08
207.91	1368.04
208.13	1413.10
208.34	1310.70
208.56	1333.23
208.78	1445.87
209.00	1284.08
209.22	1402.86
209.44	1386.47
209.66	1275.88
209.88	1423.34
210.10	1382.38
210.32	1277.93
210.54	1413.10
210.76	1388.52
210.98	1380.33
211.20	1345.52
211.42	1394.67
211.64	1409.00
211.86	1431.53
212.08	1406.95
212.30	1406.95
212.52	1366.00
212.74	1325.04
212.96	1368.04
213.17	1382.38
213.39	1382.38
213.61	1488.87
213.83	1458.15
214.05	1288.17
214.27	1396.71
214.49	1339.37
214.71	1282.03
214.93	1361.90
215.15	1400.81
215.37	1392.62
215.59	1282.03
215.81	1333.23
216.03	1433.58
216.24	1288.17
216.46	1382.38
216.68	1392.62
216.90	1325.04
217.12	1384.43
217.34	1396.71
217.56	1392.62
217.78	1370.09
218.00	1325.04
218.22	1400.81
218.44	1390.57
218.66	1351.66
218.87	1452.01
219.09	1398.76
219.31	1478.63
219.53	1335.28
219.75	1402.86
219.97	1337.32
220.19	1355.76
220.41	1345.52
220.63	1495.02
220.85	1361.90
221.06	1331.18
221.28	1343.47
221.50	1298.41
221.72	1366.00
221.94	1396.71
222.16	1413.10
222.38	1394.67
222.60	1417.19
222.82	1396.71
223.03	1388.52
223.25	1386.47
223.47	1359.85
223.69	1347.56
223.91	1452.01
224.13	1357.80
224.35	1357.80
224.57	1402.86
224.78	1374.19
225.00	1372.14
225.22	1370.09
225.44	1351.66
225.66	1355.76
225.88	1331.18
226.10	1425.39
226.32	1400.81
226.53	1415.15
226.75	1382.38
226.97	1347.56
227.19	1353.71
227.41	1275.88
227.63	1357.80
227.85	1339.37
228.06	1431.53
228.28	1337.32
228.50	1366.00
228.72	1247.21
228.94	1372.14
229.16	1257.45
229.37	1388.52
229.59	1277.93
229.81	1386.47
230.03	1400.81
230.25	1329.13
230.47	1327.08
230.69	1331.18
230.90	1388.52
231.12	1265.64
231.34	1400.81
231.56	1374.19
231.78	1300.46
232.00	1382.38
232.21	1347.56
232.43	1339.37
232.65	1351.66
232.87	1327.08
233.09	1312.75
233.30	1372.14
233.52	1368.04
233.74	1343.47
233.96	1366.00
234.18	1345.52
234.40	1349.61
234.61	1413.10
234.83	1370.09
235.05	1339.37
235.27	1454.06
235.49	1404.91
235.70	1382.38
235.92	1490.92
236.14	1304.56
236.36	1427.43
236.58	1404.91
236.79	1347.56
237.01	1370.09
237.23	1398.76
237.45	1484.78
237.67	1361.90
237.88	1380.33
238.10	1341.42
238.32	1318.89
238.54	1443.82
238.76	1423.34
238.97	1355.76
239.19	1382.38
239.41	1394.67
239.63	1357.80
239.85	1302.51
240.06	1437.67
240.28	1421.29
240.50	1409.00
240.72	1449.96
240.93	1370.09
241.15	1427.43
241.37	1409.00
241.59	1409.00
241.81	1308.65
242.02	1331.18
242.24	1429.48
242.46	1351.66
242.68	1310.70
242.89	1384.43
243.11	1257.45
243.33	1425.39
243.55	1396.71
243.76	1421.29
243.98	1372.14
244.20	1374.19
244.42	1425.39
244.64	1372.14
244.85	1308.65
245.07	1347.56
245.29	1347.56
245.51	1384.43
245.72	1312.75
245.94	1396.71
246.16	1308.65
246.38	1386.47
246.59	1345.52
246.81	1359.85
247.03	1337.32
247.24	1341.42
247.46	1304.56
247.68	1343.47
247.90	1409.00
248.11	1372.14
248.33	1314.80
248.55	1409.00
248.77	1310.70
248.98	1382.38
249.20	1449.96
249.42	1380.33
249.64	1376.24
249.85	1312.75
250.07	1302.51
250.29	1429.48
250.50	1449.96
250.72	1368.04
250.94	1363.95
251.16	1425.39
251.37	1456.11
251.59	1366.00
251.81	1417.19
252.02	1433.58
252.24	1351.66
252.46	1394.67
252.68	1333.23
252.89	1409.00
253.11	1304.56
253.33	1398.76
253.54	1445.87
253.76	1402.86
253.98	1359.85
254.20	1343.47
254.41	1370.09
254.63	1288.17
254.85	1294.32
255.06	1400.81
255.28	1314.80
255.50	1343.47
255.71	1353.71
255.93	1394.67
256.15	1386.47
256.36	1431.53
256.58	1308.65
256.80	1445.87
257.02	1271.79
257.23	1380.33
257.45	1318.89
257.67	1427.43
257.88	1265.64
258.10	1437.67
258.32	1353.71
258.53	1402.86
258.75	1413.10
258.97	1329.13
259.18	1396.71
259.40	1380.33
259.62	1376.24
259.83	1347.56
260.05	1355.76
260.27	1525.74
260.48	1392.62
260.70	1265.64
260.92	1366.00
261.13	1302.51
261.35	1361.90
261.57	1347.56
261.78	1308.65
262.00	1363.95
262.22	1382.38
262.43	1394.67
262.65	1466.35
262.86	1392.62
263.08	1429.48
263.30	1345.52
263.51	1277.93
263.73	1347.56
263.95	1388.52
264.16	1349.61
264.38	1351.66
264.60	1392.62
264.81	1429.48
265.03	1363.95
265.25	1372.14
265.46	1396.71
265.68	1372.14
265.89	1347.56
266.11	1271.79
266.33	1398.76
266.54	1421.29
266.76	1347.56
266.98	1347.56
267.19	1427.43
267.41	1404.91
267.62	1329.13
267.84	1288.17
268.06	1366.00
268.27	1361.90
268.49	1370.09
268.70	1363.95
268.92	1435.63
269.14	1318.89
269.35	1304.56
269.57	1322.99
269.79	1452.01
270.00	1417.19
270.22	1415.15
270.43	1376.24
270.65	1320.94
270.87	1339.37
271.08	1337.32
271.30	1392.62
271.51	1378.28
271.73	1363.95
271.95	1331.18
272.16	1382.38
272.38	1359.85
272.59	1325.04
272.81	1413.10
273.02	1390.57
273.24	1392.62
273.46	1435.63
273.67	1355.76
273.89	1325.04
274.10	1394.67
274.32	1480.68
274.54	1351.66
274.75	1390.57
274.97	1411.05
275.18	1396.71
275.40	1413.10
275.61	1380.33
275.83	1413.10
276.05	1357.80
276.26	1298.41
276.48	1355.76
276.69	1343.47
276.91	1396.71
277.12	1470.44
277.34	1325.04
277.55	1404.91
277.77	1380.33
277.99	1345.52
278.20	1372.14
278.42	1345.52
278.63	1318.89
278.85	1325.04
279.06	1302.51
279.28	1366.00
279.49	1409.00
279.71	1409.00
279.93	1357.80
280.14	1331.18
280.36	1341.42
280.57	1337.32
280.79	1325.04
281.00	1314.80
281.22	1417.19
281.43	1394.67
281.65	1310.70
281.86	1306.60
282.08	1335.28
282.29	1439.72
282.51	1355.76
282.73	1316.84
282.94	1310.70
283.16	1388.52
283.37	1478.63
283.59	1363.95
283.80	1404.91
284.02	1394.67
284.23	1372.14
284.45	1368.04
284.66	1361.90
284.88	1347.56
285.09	1355.76
285.31	1366.00
285.52	1419.24
285.74	1353.71
285.95	1341.42
286.17	1380.33
286.38	1335.28
286.60	1402.86
286.81	1329.13
287.03	1331.18
287.24	1314.80
287.46	1337.32
287.67	1359.85
287.89	1402.86
288.10	1417.19
288.32	1402.86
288.53	1431.53
288.75	1392.62
288.96	1425.39
289.18	1310.70
289.39	1374.19
289.61	1425.39
289.82	1517.54
290.04	1413.10
290.25	1335.28
290.47	1384.43
290.68	1333.23
290.90	1447.91
291.11	1286.12
291.33	1357.80
291.54	1357.80
291.76	1366.00
291.97	1384.43
292.18	1382.38
292.40	1353.71
292.61	1314.80
292.83	1441.77
293.04	1329.13
293.26	1372.14
293.47	1355.76
293.69	1386.47
293.90	1392.62
294.12	1456.11
294.33	1312.75
294.55	1366.00
294.76	1341.42
294.97	1464.30
295.19	1394.67
295.40	1290.22
295.62	1372.14
295.83	1419.24
296.05	1302.51
296.26	1400.81
296.48	1312.75
296.69	1355.76
296.90	1331.18
297.12	1374.19
297.33	1406.95
297.55	1351.66
297.76	1380.33
297.98	1390.57
298.19	1390.57
298.41	1374.19
298.62	1247.21
298.83	1464.30
299.05	1400.81
299.26	1376.24
299.48	1376.24
299.69	1507.30
299.90	1320.94
300.12	1333.23
300.33	1415.15
300.55	1398.76
300.76	1486.83
300.98	1308.65
301.19	1376.24
301.40	1421.29
301.62	1378.28
301.83	1292.27
302.05	1380.33
302.26	1320.94
302.47	1468.39
302.69	1347.56
302.90	1333.23
303.12	1253.36
303.33	1499.11
303.54	1458.15
303.76	1357.80
303.97	1372.14
304.19	1443.82
304.40	1400.81
304.61	1349.61
304.83	1445.87
305.04	1306.60
305.26	1345.52
305.47	1409.00
305.68	1409.00
305.90	1322.99
306.11	1404.91
306.33	1218.54
306.54	1347.56
306.75	1400.81
306.97	1343.47
307.18	1341.42
307.39	1320.94
307.61	1402.86
307.82	1304.56
308.04	1413.10
308.25	1310.70
308.46	1335.28
308.68	1333.23
308.89	1384.43
309.10	1439.72
309.32	1404.91
309.53	1314.80
309.74	1359.85
309.96	1337.32
310.17	1363.95
310.39	1374.19
310.60	1370.09
310.81	1361.90
311.03	1284.08
311.24	1411.05
311.45	1396.71
311.67	1419.24
311.88	1353.71
312.09	1388.52
312.31	1322.99
312.52	1337.32
312.73	1341.42
312.95	1347.56
313.16	1357.80
313.37	1368.04
313.59	1380.33
313.80	1417.19
314.01	1366.00
314.23	1376.24
314.44	1314.80
314.65	1341.42
314.87	1353.71
315.08	1288.17
315.29	1308.65
315.51	1314.80
315.72	1329.13
315.93	1347.56
316.15	1413.10
316.36	1306.60
316.57	1361.90
316.79	1359.85
317.00	1361.90
317.21	1378.28
317.43	1421.29
317.64	1374.19
317.85	1394.67
318.07	1507.30
318.28	1558.50
318.49	1660.90
318.70	1665.00
318.92	1550.31
319.13	1488.87
319.34	1492.97
319.56	1531.88
319.77	1447.91
319.98	1462.25
320.20	1519.59
320.41	1421.29
320.62	1396.71
320.83	1368.04
321.05	1482.73
321.26	1394.67
321.47	1394.67
321.69	1404.91
321.90	1359.85
322.11	1292.27
322.32	1282.03
322.54	1404.91
322.75	1335.28
322.96	1464.30
323.18	1316.84
323.39	1341.42
323.60	1363.95
323.81	1437.67
324.03	1325.04
324.24	1388.52
324.45	1361.90
324.66	1318.89
324.88	1366.00
325.09	1441.77
325.30	1359.85
325.52	1425.39
325.73	1392.62
325.94	1357.80
326.15	1329.13
326.37	1306.60
326.58	1353.71
326.79	1394.67
327.00	1308.65
327.22	1386.47
327.43	1392.62
327.64	1312.75
327.85	1452.01
328.07	1392.62
328.28	1388.52
328.49	1368.04
328.70	1386.47
328.92	1503.21
329.13	1382.38
329.34	1359.85
329.55	1417.19
329.76	1388.52
329.98	1388.52
330.19	1417.19
330.40	1415.15
330.61	1388.52
330.83	1370.09
331.04	1384.43
331.25	1400.81
331.46	1310.70
331.68	1396.71
331.89	1427.43
332.10	1392.62
332.31	1318.89
332.52	1372.14
332.74	1404.91
332.95	1343.47
333.16	1351.66
333.37	1456.11
333.58	1370.09
333.80	1406.95
334.01	1292.27
334.22	1308.65
334.43	1361.90
334.64	1347.56
334.86	1382.38
335.07	1402.86
335.28	1454.06
335.49	1335.28
335.70	1355.76
335.92	1402.86
336.13	1443.82
336.34	1404.91
336.55	1345.52
336.76	1380.33
336.98	1206.25
337.19	1318.89
337.40	1380.33
337.61	1468.39
337.82	1304.56
338.04	1384.43
338.25	1290.22
338.46	1333.23
338.67	1435.63
338.88	1329.13
339.09	1331.18
339.31	1355.76
339.52	1331.18
339.73	1318.89
339.94	1355.76
340.15	1417.19
340.36	1327.08
340.58	1382.38
340.79	1298.41
341.00	1402.86
341.21	1302.51
341.42	1484.78
341.63	1339.37
341.85	1363.95
342.06	1390.57
342.27	1294.32
342.48	1357.80
342.69	1347.56
342.90	1380.33
343.12	1335.28
343.33	1322.99
343.54	1388.52
343.75	1339.37
343.96	1337.32
344.17	1322.99
344.38	1306.60
344.60	1355.76
344.81	1359.85
345.02	1286.12
345.23	1413.10
345.44	1441.77
345.65	1439.72
345.86	1355.76
346.07	1341.42
346.29	1349.61
346.50	1409.00
346.71	1370.09
346.92	1380.33
347.13	1439.72
347.34	1304.56
347.55	1384.43
347.76	1355.76
347.98	1378.28
348.19	1355.76
348.40	1390.57
348.61	1361.90
348.82	1384.43
349.03	1355.76
349.24	1339.37
349.45	1388.52
349.66	1261.55
349.88	1347.56
350.09	1335.28
350.30	1386.47
350.51	1423.34
350.72	1394.67
350.93	1404.91
351.14	1425.39
351.35	1431.53
351.56	1376.24
351.77	1351.66
351.99	1335.28
352.20	1437.67
352.41	1388.52
352.62	1316.84
352.83	1363.95
353.04	1441.77
353.25	1331.18
353.46	1390.57
353.67	1406.95
353.88	1318.89
354.09	1404.91
354.30	1394.67
354.52	1437.67
354.73	1310.70
354.94	1349.61
355.15	1384.43
355.36	1488.87
355.57	1351.66
355.78	1357.80
355.99	1318.89
356.20	1372.14
356.41	1411.05
356.62	1413.10
356.83	1347.56
357.04	1439.72
357.25	1347.56
357.46	1394.67
357.68	1366.00
357.89	1261.55
358.10	1349.61
358.31	1347.56
358.52	1341.42
358.73	1316.84
358.94	1269.74
359.15	1394.67
359.36	1439.72
359.57	1366.00
359.78	1378.28
359.99	1421.29
360.20	1380.33
360.41	1398.76
360.62	1474.54
360.83	1370.09
361.04	1341.42
361.25	1322.99
361.46	1429.48
361.67	1441.77
361.88	1361.90
362.09	1363.95
362.30	1312.75
362.51	1386.47
362.72	1339.37
362.93	1431.53
363.14	1411.05
363.35	1476.59
363.56	1361.90
363.78	1361.90
363.99	1443.82
364.20	1327.08
364.41	1353.71
364.62	1413.10
364.83	1384.43
365.04	1308.65
365.25	1341.42
365.46	1427.43
365.67	1345.52
365.88	1374.19
366.09	1409.00
366.30	1390.57
366.51	1372.14
366.72	1294.32
366.93	1335.28
367.14	1335.28
367.35	1445.87
367.56	1374.19
367.77	1452.01
367.98	1343.47
368.18	1355.76
368.39	1361.90
368.60	1372.14
368.81	1427.43
369.02	1300.46
369.23	1394.67
369.44	1353.71
369.65	1325.04
369.86	1357.80
370.07	1421.29
370.28	1396.71
370.49	1368.04
370.70	1429.48
370.91	1329.13
371.12	1308.65
371.33	1423.34
371.54	1341.42
371.75	1423.34
371.96	1380.33
372.17	1400.81
372.38	1339.37
372.59	1398.76
372.80	1351.66
373.01	1351.66
373.22	1404.91
373.43	1419.24
373.64	1357.80
373.85	1413.10
374.06	1415.15
374.26	1486.83
374.47	1406.95
374.68	1372.14
374.89	1341.42
375.10	1368.04
375.31	1390.57
375.52	1423.34
375.73	1333.23
375.94	1398.76
376.15	1447.91
376.36	1351.66
376.57	1347.56
376.78	1353.71
376.99	1378.28
377.20	1441.77
377.40	1417.19
377.61	1413.10
377.82	1320.94
378.03	1429.48
378.24	1406.95
378.45	1386.47
378.66	1411.05
378.87	1339.37
379.08	1337.32
379.29	1322.99
379.50	1449.96
379.71	1298.41
379.91	1347.56
380.12	1392.62
380.33	1357.80
380.54	1384.43
380.75	1359.85
380.96	1376.24
381.17	1404.91
381.38	1443.82
381.59	1492.97
381.80	1402.86
382.00	1476.59
382.21	1431.53
382.42	1484.78
382.63	1466.35
382.84	1392.62
383.05	1404.91
383.26	1478.63
383.47	1423.34
383.68	1421.29
383.88	1419.24
384.09	1384.43
384.30	1454.06
384.51	1417.19
384.72	1355.76
384.93	1361.90
385.14	1419.24
385.35	1327.08
385.55	1386.47
385.76	1402.86
385.97	1388.52
386.18	1318.89
386.39	1366.00
386.60	1322.99
386.81	1406.95
387.02	1374.19
387.22	1327.08
387.43	1527.78
387.64	1560.55
387.85	2273.25
388.06	5676.97
388.27	9275.25
388.48	11681.61
388.68	13023.03
388.89	13231.93
389.10	10622.81
389.31	9195.38
389.52	8404.86
389.73	7559.05
389.93	6832.02
390.14	6582.17
390.35	6125.47
390.56	5500.84
390.77	4577.21
390.98	3616.71
391.18	2805.72
391.39	2121.70
391.60	1763.30
391.81	1519.59
392.02	1431.53
392.23	1466.35
392.43	1429.48
392.64	1433.58
392.85	1404.91
393.06	1435.63
393.27	1378.28
393.47	1347.56
393.68	1423.34
393.89	1310.70
394.10	1417.19
394.31	1388.52
394.52	1427.43
394.72	1353.71
394.93	1419.24
395.14	1394.67
395.35	1376.24
395.56	1376.24
395.76	1585.13
395.97	1570.79
396.18	1570.79
396.39	1578.98
396.60	1679.33
396.80	1556.46
397.01	1556.46
397.22	1454.06
397.43	1556.46
397.64	1484.78
397.84	1480.68
398.05	1503.21
398.26	1449.96
398.47	1513.45
398.67	1480.68
398.88	1386.47
399.09	1382.38
399.30	1368.04
399.51	1429.48
399.71	1349.61
399.92	1359.85
400.13	1351.66
400.34	1378.28
400.54	1429.48
400.75	1458.15
400.96	1419.24
401.17	1333.23
401.37	1390.57
401.58	1388.52
401.79	1458.15
402.00	1757.16
402.21	1855.46
402.41	1892.32
402.62	1808.36
402.83	1705.96
403.04	1665.00
403.24	1638.38
403.45	1515.50
403.66	1619.94
403.87	1552.36
404.07	1572.84
404.28	1638.38
404.49	1576.94
404.70	1472.49
404.90	1454.06
405.11	1404.91
405.32	1398.76
405.52	1363.95
405.73	1337.32
405.94	1343.47
406.15	1378.28
406.35	1452.01
406.56	1384.43
406.77	1433.58
406.98	1347.56
407.18	1335.28
407.39	1470.44
407.60	1388.52
407.80	1363.95
408.01	1366.00
408.22	1435.63
408.43	1325.04
408.63	1423.34
408.84	1425.39
409.05	1423.34
409.25	1421.29
409.46	1296.36
409.67	1409.00
409.88	1372.14
410.08	1464.30
410.29	1421.29
410.50	1347.56
410.70	1427.43
410.91	1400.81
411.12	1374.19
411.32	1460.20
411.53	1374.19
411.74	1570.79
411.95	1445.87
412.15	1409.00
412.36	1421.29
412.57	1372.14
412.77	1470.44
412.98	1400.81
413.19	1392.62
413.39	1368.04
413.60	1419.24
413.81	1421.29
414.01	1372.14
414.22	1396.71
414.43	1449.96
414.63	1380.33
414.84	1409.00
415.05	1439.72
415.25	1347.56
415.46	1384.43
415.67	1370.09
415.87	1402.86
416.08	1382.38
416.29	1366.00
416.49	1462.25
416.70	1386.47
416.91	1425.39
417.11	1333.23
417.32	1409.00
417.53	1402.86
417.73	1409.00
417.94	1322.99
418.15	1431.53
418.35	1406.95
418.56	1349.61
418.77	1439.72
418.97	1404.91
419.18	1413.10
419.38	1265.64
419.59	1351.66
419.80	1392.62
420.00	1370.09
420.21	1392.62
420.42	1421.29
420.62	1374.19
420.83	1359.85
421.04	1406.95
421.24	1361.90
421.45	1366.00
421.65	1343.47
421.86	1347.56
422.07	1394.67
422.27	1337.32
422.48	1363.95
422.69	1327.08
422.89	1413.10
423.10	1316.84
423.30	1302.51
423.51	1421.29
423.72	1370.09
423.92	1400.81
424.13	1380.33
424.33	1384.43
424.54	1398.76
424.75	1327.08
424.95	1415.15
425.16	1320.94
425.36	1329.13
425.57	1384.43
425.78	1370.09
425.98	1404.91
426.19	1349.61
426.39	1394.67
426.60	1411.05
426.81	1413.10
427.01	1294.32
427.22	1306.60
427.42	1363.95
427.63	1372.14
427.83	1441.77
428.04	1464.30
428.25	1402.86
428.45	1484.78
428.66	1376.24
428.86	1318.89
429.07	1335.28
429.28	1394.67
429.48	1345.52
429.69	1417.19
429.89	1421.29
430.10	1296.36
430.30	1437.67
430.51	1394.67
430.71	1335.28
430.92	1345.52
431.13	1282.03
431.33	1452.01
431.54	1398.76
431.74	1413.10
431.95	1437.67
432.15	1382.38
432.36	1314.80
432.56	1427.43
432.77	1382.38
432.98	1433.58
433.18	1443.82
433.39	1415.15
433.59	1314.80
433.80	1388.52
434.00	1443.82
434.21	1234.93
434.41	1327.08
434.62	1544.17
434.82	1296.36
435.03	1372.14
435.23	1380.33
435.44	1298.41
435.64	1361.90
435.85	1368.04
436.06	1392.62
436.26	1333.23
436.47	1411.05
436.67	1318.89
436.88	1327.08
437.08	1339.37
437.29	1437.67
437.49	1337.32
437.70	1421.29
437.90	1388.52
438.11	1480.68
438.31	1452.01
438.52	1656.81
438.72	1619.94
438.93	1576.94
439.13	1499.11
439.34	1519.59
439.54	1462.25
439.75	1464.30
439.95	1392.62
440.16	1388.52
440.36	1480.68
440.57	1447.91
440.77	1376.24
440.98	1409.00
441.18	1406.95
441.39	1372.14
441.59	1322.99
441.80	1402.86
442.00	1429.48
442.21	1449.96
442.41	1368.04
442.62	1419.24
442.82	1361.90
443.02	1331.18
443.23	1392.62
443.43	1421.29
443.64	1423.34
443.84	1341.42
444.05	1456.11
444.25	1419.24
444.46	1386.47
444.66	1343.47
444.87	1427.43
445.07	1376.24
445.28	1433.58
445.48	1392.62
445.69	1361.90
445.89	1470.44
446.09	1593.32
446.30	2369.50
446.50	3723.21
446.71	4691.90
446.91	5236.66
447.12	5621.67
447.32	5128.11
447.53	4145.09
447.73	3846.09
447.93	3456.97
448.14	3223.50
448.34	3033.04
448.55	2818.00
448.75	2740.18
448.96	2627.54
449.16	2422.75
449.36	2211.81
449.57	1908.71
449.77	1662.95
449.98	1562.60
450.18	1535.98
450.39	1470.44
450.59	1441.77
450.79	1392.62
451.00	1329.13
451.20	1437.67
451.41	1378.28
451.61	1415.15
451.81	1353.71
452.02	1327.08
452.22	1411.05
452.43	1359.85
452.63	1394.67
452.84	1370.09
453.04	1345.52
453.24	1378.28
453.45	1372.14
453.65	1349.61
453.86	1361.90
454.06	1390.57
454.26	1394.67
454.47	1363.95
454.67	1308.65
454.87	1392.62
455.08	1282.03
455.28	1404.91
455.49	1329.13
455.69	1294.32
455.89	1499.11
456.10	1423.34
456.30	1378.28
456.51	1386.47
456.71	1339.37
456.91	1370.09
457.12	1372.14
457.32	1398.76
457.52	1376.24
457.73	1400.81
457.93	1341.42
458.14	1388.52
458.34	1327.08
458.54	1327.08
458.75	1333.23
458.95	1370.09
459.15	1394.67
459.36	1386.47
459.56	1345.52
459.76	1503.21
459.97	1415.15
460.17	1343.47
460.37	1327.08
460.58	1269.74
460.78	1429.48
460.99	1361.90
461.19	1318.89
461.39	1363.95
461.60	1394.67
461.80	1409.00
462.00	1366.00
462.21	1374.19
462.41	1347.56
462.61	1331.18
462.82	1345.52
463.02	1452.01
463.22	1343.47
463.43	1380.33
463.63	1411.05
463.83	1443.82
464.04	1425.39
464.24	1388.52
464.44	1374.19
464.64	1390.57
464.85	1327.08
465.05	1441.77
465.25	1351.66
465.46	1421.29
465.66	1437.67
465.86	1380.33
466.07	1406.95
466.27	1322.99
466.47	1282.03
466.68	1325.04
466.88	1376.24
467.08	1363.95
467.29	1357.80
467.49	1443.82
467.69	1431.53
467.89	1452.01
468.10	1376.24
468.30	1351.66
468.50	1452.01
468.71	1417.19
468.91	1271.79
469.11	1421.29
469.31	1325.04
469.52	1325.04
469.72	1443.82
469.92	1435.63
470.13	1419.24
470.33	1462.25
470.53	1701.86
470.73	2035.68
470.94	2273.25
471.14	2389.98
471.34	2404.32
471.54	2154.46
471.75	2043.87
471.95	1908.71
472.15	1814.50
472.36	1720.29
472.56	1820.64
472.76	1712.10
472.96	1703.91
473.17	1724.39
473.37	1695.72
473.57	1607.66
473.77	1568.74
473.98	1449.96
474.18	1351.66
474.38	1538.02
474.58	1406.95
474.79	1353.71
474.99	1413.10
475.19	1384.43
475.39	1296.36
475.60	1413.10
475.80	1353.71
476.00	1322.99
476.20	1304.56
476.41	1335.28
476.61	1441.77
476.81	1445.87
477.01	1372.14
477.21	1425.39
477.42	1402.86
477.62	1298.41
477.82	1464.30
478.02	1353.71
478.23	1388.52
478.43	1361.90
478.63	1322.99
478.83	1392.62
479.03	1355.76
479.24	1404.91
479.44	1402.86
479.64	1273.84
479.84	1247.21
480.04	1292.27
480.25	1400.81
480.45	1331.18
480.65	1320.94
480.85	1384.43
481.06	1423.34
481.26	1462.25
481.46	1357.80
481.66	1423.34
481.86	1361.90
482.06	1370.09
482.27	1329.13
482.47	1394.67
482.67	1357.80
482.87	1329.13
483.07	1392.62
483.28	1316.84
483.48	1306.60
483.68	1398.76
483.88	1294.32
484.08	1322.99
484.29	1404.91
484.49	1261.55
484.69	1337.32
484.89	1447.91
485.09	1419.24
485.29	1441.77
485.50	1343.47
485.70	1427.43
485.90	1429.48
486.10	1439.72
486.30	1345.52
486.50	1406.95
486.71	1384.43
486.91	1314.80
487.11	1384.43
487.31	1337.32
487.51	1355.76
487.71	1366.00
487.91	1343.47
488.12	1382.38
488.32	1318.89
488.52	1339.37
488.72	1341.42
488.92	1357.80
489.12	1433.58
489.32	1370.09
489.53	1437.67
489.73	1390.57
489.93	1476.59
490.13	1316.84
490.33	1421.29
490.53	1384.43
490.73	1460.20
490.94	1380.33
491.14	1425.39
491.34	1716.20
491.54	2236.38
491.74	2652.12
491.94	2940.88
492.14	3069.91
492.34	2897.88
492.54	2602.97
492.75	2273.25
492.95	2299.87
493.15	2090.98
493.35	1974.24
493.55	2025.44
493.75	1890.28
493.95	1900.52
494.15	1814.50
494.35	1689.57
494.56	1613.80
494.76	1511.40
494.96	1474.54
495.16	1478.63
495.36	1394.67
495.56	1374.19
495.76	1437.67
495.96	1427.43
496.16	1271.79
496.36	1421.29
496.56	1423.34
496.77	1423.34
496.97	1394.67
497.17	1421.29
497.37	1363.95
497.57	1396.71
497.77	1347.56
497.97	1310.70
498.17	1322.99
498.37	1355.76
498.57	1441.77
498.77	1402.86
498.97	1413.10
499.17	1472.49
499.38	1417.19
499.58	1376.24
499.78	1439.72
499.98	1363.95
500.18	1366.00
500.38	1468.39
500.58	1755.11
500.78	2951.12
500.98	5570.48
501.18	6956.95
501.38	8281.99
501.58	8552.32
501.78	7559.05
501.98	5736.36
502.18	5066.67
502.38	4616.12
502.58	4106.18
502.78	3749.83
502.98	3698.63
503.18	3499.98
503.38	3293.13
503.59	2901.97
503.79	2858.96
503.99	2533.34
504.19	2406.36
504.39	2191.33
504.59	2045.92
504.79	1933.28
504.99	1775.59
505.19	1683.43
505.39	1587.18
505.59	1535.98
505.79	1509.35
505.99	1533.93
506.19	1515.50
506.39	1593.32
506.59	1417.19
506.79	1558.50
506.99	1419.24
507.19	1466.35
507.39	1413.10
507.59	1400.81
507.79	1396.71
507.99	1337.32
508.19	1427.43
508.39	1372.14
508.59	1413.10
508.79	1413.10
508.99	1376.24
509.19	1402.86
509.39	1433.58
509.59	1290.22
509.79	1388.52
509.99	1429.48
510.19	1394.67
510.39	1347.56
510.59	1486.83
510.79	1304.56
510.99	1386.47
511.19	1366.00
511.39	1419.24
511.59	1421.29
511.79	1417.19
511.99	1372.14
512.19	1402.86
512.38	1406.95
512.58	1337.32
512.78	1370.09
512.98	1404.91
513.18	1374.19
513.38	1265.64
513.58	1402.86
513.78	1361.90
513.98	1411.05
514.18	1394.67
514.38	1398.76
514.58	1333.23
514.78	1415.15
514.98	1429.48
515.18	1388.52
515.38	1341.42
515.58	1388.52
515.78	1431.53
515.98	1345.52
516.18	1388.52
516.38	1464.30
516.57	1327.08
516.77	1409.00
516.97	1421.29
517.17	1343.47
517.37	1306.60
517.57	1384.43
517.77	1333.23
517.97	1277.93
518.17	1368.04
518.37	1314.80
518.57	1308.65
518.77	1349.61
518.97	1341.42
519.16	1427.43
519.36	1433.58
519.56	1314.80
519.76	1388.52
519.96	1370.09
520.16	1492.97
520.36	1335.28
520.56	1462.25
520.76	1388.52
520.96	1417.19
521.16	1329.13
521.35	1454.06
521.55	1363.95
521.75	1374.19
521.95	1335.28
522.15	1404.91
522.35	1366.00
522.55	1366.00
522.75	1359.85
522.95	1400.81
523.14	1355.76
523.34	1341.42
523.54	1390.57
523.74	1384.43
523.94	1366.00
524.14	1322.99
524.34	1417.19
524.54	1464.30
524.73	1361.90
524.93	1409.00
525.13	1406.95
525.33	1376.24
525.53	1521.64
525.73	1361.90
525.93	1357.80
526.13	1345.52
526.32	1376.24
526.52	1443.82
526.72	1361.90
526.92	1359.85
527.12	1327.08
527.32	1306.60
527.52	1404.91
527.71	1411.05
527.91	1382.38
528.11	1363.95
528.31	1337.32
528.51	1331.18
528.71	1329.13
528.90	1298.41
529.10	1406.95
529.30	1411.05
529.50	1345.52
529.70	1390.57
529.90	1341.42
530.09	1417.19
530.29	1302.51
530.49	1312.75
530.69	1484.78
530.89	1378.28
531.09	1339.37
531.28	1368.04
531.48	1411.05
531.68	1458.15
531.88	1300.46
532.08	1378.28
532.28	1370.09
532.47	1406.95
532.67	1425.39
532.87	1411.05
533.07	1327.08
533.27	1443.82
533.46	1437.67
533.66	1421.29
533.86	1361.90
534.06	1376.24
534.26	1417.19
534.45	1398.76
534.65	1454.06
534.85	1359.85
535.05	1400.81
535.25	1386.47
535.44	1345.52
535.64	1392.62
535.84	1331.18
536.04	1388.52
536.24	1345.52
536.43	1351.66
536.63	1357.80
536.83	1286.12
537.03	1331.18
537.22	1304.56
537.42	1363.95
537.62	1380.33
537.82	1368.04
538.02	1368.04
538.21	1439.72
538.41	1484.78
538.61	1398.76
538.81	1325.04
539.00	1427.43
539.20	1359.85
539.40	1462.25
539.60	1372.14
539.79	1316.84
539.99	1478.63
540.19	1359.85
540.39	1325.04
540.58	1384.43
540.78	1449.96
540.98	1501.16
541.18	1394.67
541.37	1437.67
541.57	1380.33
541.77	1409.00
541.97	1312.75
542.16	1320.94
542.36	1288.17
542.56	1322.99
542.76	1501.16
542.95	1472.49
543.15	1345.52
543.35	1378.28
543.54	1388.52
543.74	1355.76
543.94	1363.95
544.14	1353.71
544.33	1390.57
544.53	1376.24
544.73	1474.54
544.93	1390.57
545.12	1368.04
545.32	1368.04
545.52	1384.43
545.71	1402.86
545.91	1322.99
546.11	1353.71
546.30	1370.09
546.50	1306.60
546.70	1382.38
546.90	1370.09
547.09	1282.03
547.29	1429.48
547.49	1429.48
547.68	1335.28
547.88	1296.36
548.08	1406.95
548.27	1652.71
548.47	1380.33
548.67	1378.28
548.87	1425.39
549.06	1343.47
549.26	1443.82
549.46	1427.43
549.65	1443.82
549.85	1376.24
550.05	1331.18
550.24	1308.65
550.44	1419.24
550.64	1419.24
550.83	1437.67
551.03	1497.07
551.23	1345.52
551.42	1396.71
551.62	1404.91
551.82	1417.19
552.01	1349.61
552.21	1421.29
552.41	1282.03
552.60	1445.87
552.80	1390.57
553.00	1429.48
553.19	1390.57
553.39	1427.43
553.59	1368.04
553.78	1359.85
553.98	1388.52
554.17	1374.19
554.37	1398.76
554.57	1456.11
554.76	1241.07
554.96	1329.13
555.16	1374.19
555.35	1355.76
555.55	1400.81
555.75	1441.77
555.94	1355.76
556.14	1363.95
556.33	1437.67
556.53	1394.67
556.73	1378.28
556.92	1417.19
557.12	1458.15
557.32	1409.00
557.51	1441.77
557.71	1384.43
557.90	1386.47
558.10	1445.87
558.30	1320.94
558.49	1347.56
558.69	1347.56
558.88	1447.91
559.08	1366.00
559.28	1374.19
559.47	1331.18
559.67	1357.80
559.86	1433.58
560.06	1413.10
560.26	1318.89
560.45	1452.01
560.65	1380.33
560.84	1378.28
561.04	1386.47
561.24	1423.34
561.43	1325.04
561.63	1402.86
561.82	1333.23
562.02	1396.71
562.22	1370.09
562.41	1380.33
562.61	1411.05
562.80	1269.74
563.00	1441.77
563.19	1423.34
563.39	1423.34
563.59	1388.52
563.78	1333.23
563.98	1341.42
564.17	1294.32
564.37	1308.65
564.56	1361.90
564.76	1310.70
564.96	1404.91
565.15	1314.80
565.35	1474.54
565.54	1347.56
565.74	1449.96
565.93	1359.85
566.13	1380.33
566.32	1449.96
566.52	1433.58
566.71	1378.28
566.91	1415.15
567.11	1415.15
567.30	1255.40
567.50	1376.24
567.69	1347.56
567.89	1366.00
568.08	1417.19
568.28	1396.71
568.47	1386.47
568.67	1366.00
568.86	1374.19
569.06	1417.19
569.25	1396.71
569.45	1359.85
569.64	1353.71
569.84	1388.52
570.04	1402.86
570.23	1378.28
570.43	1341.42
570.62	1390.57
570.82	1452.01
571.01	1329.13
571.21	1402.86
571.40	1361.90
571.60	1509.35
571.79	1398.76
571.99	1402.86
572.18	1394.67
572.38	1456.11
572.57	1382.38
572.77	1429.48
572.96	1443.82
573.16	1331.18
573.35	1288.17
573.55	1429.48
573.74	1411.05
573.94	1400.81
574.13	1386.47
574.33	1435.63
574.52	1409.00
574.71	1415.15
574.91	1392.62
575.10	1386.47
575.30	1363.95
575.49	1413.10
575.69	1370.09
575.88	1437.67
576.08	1458.15
576.27	1458.15
576.47	1501.16
576.66	1519.59
576.86	1468.39
577.05	1421.29
577.25	1492.97
577.44	1568.74
577.64	1470.44
577.83	1413.10
578.02	1415.15
578.22	1495.02
578.41	1460.20
578.61	1396.71
578.80	1415.15
579.00	1314.80
579.19	1464.30
579.39	1542.12
579.58	1519.59
579.77	1476.59
579.97	1452.01
580.16	1417.19
580.36	1525.74
580.55	1515.50
580.75	1470.44
580.94	1421.29
581.13	1433.58
581.33	1501.16
581.52	1449.96
581.72	1400.81
581.91	1505.26
582.11	1433.58
582.30	1390.57
582.49	1415.15
582.69	1546.22
582.88	1464.30
583.08	1431.53
583.27	1497.07
583.47	1421.29
583.66	1421.29
583.85	1396.71
584.05	1423.34
584.24	1449.96
584.44	1497.07
584.63	1425.39
584.82	1540.07
585.02	1542.12
585.21	1611.75
585.41	1630.18
585.60	1640.42
585.79	1648.61
585.99	1642.47
586.18	1564.65
586.37	1961.95
586.57	2686.94
586.76	7804.81
586.96	24014.48
587.15	40840.59
587.34	52129.00
587.54	59659.38
587.73	59266.17
587.93	44639.57
588.12	33113.61
588.31	26541.68
588.51	22640.29
588.70	20100.81
588.89	18206.44
589.09	17164.03
589.28	15984.40
589.47	14196.52
589.67	12691.26
589.86	10538.85
590.06	8660.86
590.25	6588.32
590.44	4925.36
590.64	3749.83
590.83	2822.10
591.02	2373.60
591.22	1937.38
591.41	1726.44
591.60	1585.13
591.80	1660.90
591.99	1472.49
592.18	1511.40
592.38	1460.20
592.57	1468.39
592.76	1394.67
592.96	1415.15
593.15	1431.53
593.34	1445.87
593.54	1361.90
593.73	1474.54
593.92	1390.57
594.12	1474.54
594.31	1456.11
594.50	1519.59
594.70	1492.97
594.89	1585.13
595.08	1337.32
595.28	1454.06
595.47	1538.02
595.66	1449.96
595.86	1452.01
596.05	1411.05
596.24	1429.48
596.43	1527.78
596.63	1431.53
596.82	1443.82
597.01	1474.54
597.21	1419.24
597.40	1421.29
597.59	1433.58
597.79	1470.44
597.98	1445.87
598.17	1462.25
598.36	1404.91
598.56	1331.18
598.75	1329.13
598.94	1368.04
599.14	1406.95
599.33	1345.52
599.52	1456.11
599.71	1388.52
599.91	1441.77
600.10	1316.84
600.29	1363.95
600.48	1392.62
600.68	1390.57
600.87	1372.14
601.06	1413.10
601.26	1409.00
601.45	1374.19
601.64	1314.80
601.83	1447.91
602.03	1370.09
602.22	1302.51
602.41	1466.35
602.60	1558.50
602.80	1411.05
602.99	1445.87
603.18	1427.43
603.37	1382.38
603.57	1392.62
603.76	1540.07
603.95	1329.13
604.14	1394.67
604.34	1425.39
604.53	1378.28
604.72	1480.68
604.91	1404.91
605.10	1366.00
605.30	1380.33
605.49	1449.96
605.68	1478.63
605.87	1366.00
606.07	1370.09
606.26	1380.33
606.45	1423.34
606.64	1306.60
606.84	1402.86
607.03	1380.33
607.22	1452.01
607.41	1445.87
607.60	1341.42
607.80	1400.81
607.99	1429.48
608.18	1419.24
608.37	1368.04
608.56	1361.90
608.76	1419.24
608.95	1476.59
609.14	1423.34
609.33	1519.59
609.52	1499.11
609.72	1458.15
609.91	1470.44
610.10	1474.54
610.29	1507.30
610.48	1449.96
610.68	1468.39
610.87	1374.19
611.06	1437.67
611.25	1390.57
611.44	1521.64
611.63	1396.71
611.83	1398.76
612.02	1368.04
612.21	1413.10
612.40	1333.23
612.59	1325.04
612.79	1341.42
612.98	1361.90
613.17	1355.76
613.36	1382.38
613.55	1472.49
613.74	1433.58
613.93	1566.70
614.13	1642.47
614.32	1640.42
614.51	1603.56
614.70	1486.83
614.89	1482.73
615.08	1531.88
615.28	1640.42
615.47	1370.09
615.66	1456.11
615.85	1515.50
616.04	1544.17
616.23	1523.69
616.42	1435.63
616.62	1488.87
616.81	1439.72
617.00	1452.01
617.19	1333.23
617.38	1452.01
617.57	1411.05
617.76	1421.29
617.95	1415.15
618.15	1447.91
618.34	1353.71
618.53	1318.89
618.72	1460.20
618.91	1449.96
619.10	1488.87
619.29	1302.51
619.48	1257.45
619.68	1382.38
619.87	1331.18
620.06	1320.94
620.25	1314.80
620.44	1327.08
620.63	1425.39
620.82	1368.04
621.01	1425.39
621.20	1400.81
621.39	1388.52
621.59	1433.58
621.78	1476.59
621.97	1411.05
622.16	1449.96
622.35	1394.67
622.54	1419.24
622.73	1443.82
622.92	1269.74
623.11	1400.81
623.30	1345.52
623.49	1423.34
623.68	1347.56
623.88	1359.85
624.07	1363.95
624.26	1335.28
624.45	1441.77
624.64	1415.15
624.83	1357.80
625.02	1396.71
625.21	1331.18
625.40	1333.23
625.59	1476.59
625.78	1349.61
625.97	1374.19
626.16	1462.25
626.35	1501.16
626.54	1431.53
626.74	1525.74
626.93	1417.19
627.12	1361.90
627.31	1529.83
627.50	1488.87
627.69	1447.91
627.88	1329.13
628.07	1302.51
628.26	1363.95
628.45	1402.86
628.64	1433.58
628.83	1439.72
629.02	1355.76
629.21	1361.90
629.40	1366.00
629.59	1363.95
629.78	1429.48
629.97	1421.29
630.16	1425.39
630.35	1355.76
630.54	1331.18
630.73	1378.28
630.92	1415.15
631.11	1409.00
631.30	1400.81
631.49	1421.29
631.68	1449.96
631.87	1366.00
632.06	1314.80
632.25	1513.45
632.44	1357.80
632.63	1474.54
632.82	1406.95
633.01	1415.15
633.20	1456.11
633.39	1523.69
633.58	1476.59
633.77	1621.99
633.96	1456.11
634.15	1507.30
634.34	1402.86
634.53	1368.04
634.72	1339.37
634.91	1357.80
635.10	1468.39
635.29	1454.06
635.48	1386.47
635.67	1376.24
635.86	1284.08
636.05	1435.63
636.24	1384.43
636.43	1421.29
636.62	1335.28
636.81	1322.99
637.00	1374.19
637.19	1458.15
637.38	1351.66
637.57	1347.56
637.76	1378.28
637.95	1460.20
638.14	1466.35
638.33	1521.64
638.52	1486.83
638.71	1452.01
638.89	1437.67
639.08	1470.44
639.27	1482.73
639.46	1468.39
639.65	1679.33
639.84	1892.32
640.03	1992.67
640.22	2004.96
640.41	2220.00
640.60	1824.74
640.79	1736.68
640.98	1638.38
641.17	1607.66
641.36	1548.26
641.55	1519.59
641.74	1562.60
641.92	1538.02
642.11	1458.15
642.30	1519.59
642.49	1427.43
642.68	1439.72
642.87	1406.95
643.06	1415.15
643.25	1325.04
643.44	1435.63
643.63	1466.35
643.82	1331.18
644.00	1366.00
644.19	1374.19
644.38	1306.60
644.57	1386.47
644.76	1347.56
644.95	1325.04
645.14	1458.15
645.33	1372.14
645.52	1374.19
645.71	1337.32
645.89	1277.93
646.08	1435.63
646.27	1427.43
646.46	1445.87
646.65	1390.57
646.84	1368.04
647.03	1351.66
647.22	1441.77
647.40	1341.42
647.59	1325.04
647.78	1308.65
647.97	1345.52
648.16	1433.58
648.35	1470.44
648.54	1431.53
648.73	1298.41
648.91	1382.38
649.10	1378.28
649.29	1396.71
649.48	1406.95
649.67	1480.68
649.86	1345.52
650.05	1427.43
650.23	1527.78
650.42	1597.42
650.61	1568.74
650.80	1605.61
650.99	1662.95
651.18	1519.59
651.36	1609.70
651.55	1427.43
651.74	1431.53
651.93	1447.91
652.12	1452.01
652.31	1454.06
652.49	1396.71
652.68	1329.13
652.87	1464.30
653.06	1425.39
653.25	1519.59
653.44	1523.69
653.62	1531.88
653.81	1398.76
654.00	1376.24
654.19	1427.43
654.38	1521.64
654.56	1429.48
654.75	1335.28
654.94	1378.28
655.13	1404.91
655.32	1359.85
655.51	1347.56
655.69	1449.96
655.88	1449.96
656.07	1363.95
656.26	1413.10
656.45	1304.56
656.63	1372.14
656.82	1388.52
657.01	1486.83
657.20	1351.66
657.38	1402.86
657.57	1361.90
657.76	1288.17
657.95	1394.67
658.14	1378.28
658.32	1359.85
658.51	1409.00
658.70	1366.00
658.89	1347.56
659.08	1347.56
659.26	1515.50
659.45	1441.77
659.64	1396.71
659.83	1370.09
660.01	1564.65
660.20	1478.63
660.39	1411.05
660.58	1372.14
660.76	1427.43
660.95	1388.52
661.14	1320.94
661.33	1329.13
661.51	1351.66
661.70	1374.19
661.89	1411.05
662.08	1388.52
662.26	1327.08
662.45	1286.12
662.64	1456.11
662.83	1366.00
663.01	1359.85
663.20	1357.80
663.39	1382.38
663.58	1349.61
663.76	1380.33
663.95	1368.04
664.14	1347.56
664.32	1374.19
664.51	1374.19
664.70	1298.41
664.89	1353.71
665.07	1286.12
665.26	1413.10
665.45	1322.99
665.64	1503.21
665.82	1296.36
666.01	1454.06
666.20	1484.78
666.38	1462.25
666.57	1501.16
666.76	1550.31
666.95	2031.58
667.13	4423.61
667.32	11312.98
667.51	17798.90
667.69	21614.26
667.88	24800.90
668.07	24489.61
668.25	18956.00
668.44	13799.21
668.63	11079.51
668.81	9242.48
669.00	7974.79
669.19	7507.85
669.38	6805.40
669.56	6209.44
669.75	5541.80
669.94	4870.07
670.12	4155.33
670.31	3551.18
670.50	2920.40
670.68	2576.34
670.87	2107.36
671.06	1945.57
671.24	1697.77
671.43	1632.23
671.62	1574.89
671.80	1525.74
671.99	1466.35
672.18	1488.87
672.36	1517.54
672.55	1370.09
672.74	1464.30
672.92	1384.43
673.11	1480.68
673.29	1390.57
673.48	1527.78
673.67	1409.00
673.85	1480.68
674.04	1366.00
674.23	1329.13
674.41	1478.63
674.60	1343.47
674.79	1316.84
674.97	1396.71
675.16	1402.86
675.34	1417.19
675.53	1378.28
675.72	1396.71
675.90	1386.47
676.09	1388.52
676.28	1386.47
676.46	1335.28
676.65	1411.05
676.83	1329.13
677.02	1376.24
677.21	1380.33
677.39	1404.91
677.58	1298.41
677.77	1292.27
677.95	1388.52
678.14	1429.48
678.32	1337.32
678.51	1343.47
678.70	1468.39
678.88	1331.18
679.07	1386.47
679.25	1376.24
679.44	1368.04
679.63	1314.80
679.81	1380.33
680.00	1386.47
680.18	1429.48
680.37	1413.10
680.55	1396.71
680.74	1298.41
680.93	1388.52
681.11	1320.94
681.30	1392.62
681.48	1376.24
681.67	1388.52
681.85	1355.76
682.04	1329.13
682.23	1390.57
682.41	1454.06
682.60	1378.28
682.78	1423.34
682.97	1282.03
683.15	1400.81
683.34	1421.29
683.53	1427.43
683.71	1273.84
683.90	1415.15
684.08	1458.15
684.27	1353.71
684.45	1349.61
684.64	1390.57
684.82	1296.36
685.01	1486.83
685.19	1398.76
685.38	1417.19
685.57	1366.00
685.75	1345.52
685.94	1351.66
686.12	1327.08
686.31	1333.23
686.49	1468.39
686.68	1322.99
686.86	1366.00
687.05	1320.94
687.23	1447.91
687.42	1353.71
687.60	1306.60
687.79	1402.86
687.97	1480.68
688.16	1447.91
688.34	1433.58
688.53	1310.70
688.71	1404.91
688.90	1378.28
689.08	1382.38
689.27	1331.18
689.45	1372.14
689.64	1431.53
689.82	1314.80
690.01	1433.58
690.19	1361.90
690.38	1294.32
690.56	1380.33
690.75	1351.66
690.93	1327.08
691.12	1355.76
691.30	1349.61
691.49	1368.04
691.67	1376.24
691.86	1400.81
692.04	1325.04
692.23	1384.43
692.41	1404.91
692.60	1388.52
692.78	1468.39
692.97	1462.25
693.15	1443.82
693.34	1507.30
693.52	1437.67
693.71	1374.19
693.89	1390.57
694.08	1406.95
694.26	1480.68
694.44	1447.91
694.63	1468.39
694.81	1308.65
695.00	1306.60
695.18	1406.95
695.37	1464.30
695.55	1386.47
695.74	1372.14
695.92	1296.36
696.10	1411.05
696.29	1359.85
696.47	1347.56
696.66	1318.89
696.84	1378.28
697.03	1458.15
697.21	1413.10
697.40	1773.54
697.58	1384.43
697.76	1308.65
697.95	1357.80
698.13	1337.32
698.32	1343.47
698.50	1404.91
698.68	1433.58
698.87	1400.81
699.05	1454.06
699.24	1406.95
699.42	1335.28
699.61	1382.38
699.79	1497.07
699.97	1404.91
700.16	1417.19
700.34	1394.67
700.53	1402.86
700.71	1409.00
700.89	1380.33
701.08	1380.33
701.26	1386.47
701.45	1654.76
701.63	1390.57
701.81	1452.01
702.00	1339.37
702.18	1423.34
702.37	1351.66
702.55	1384.43
702.73	1505.26
702.92	1521.64
703.10	1628.14
703.28	1607.66
703.47	1609.70
703.65	1638.38
703.84	1619.94
704.02	1492.97
704.20	1546.22
704.39	1439.72
704.57	1470.44
704.75	1472.49
704.94	1535.98
705.12	1458.15
705.30	1429.48
705.49	1540.07
705.67	1732.58
705.86	3456.97
706.04	9039.73
706.22	16258.82
706.41	19357.40
706.59	22560.42
706.77	23613.08
706.96	19789.52
707.14	13844.27
707.32	11272.02
707.51	9273.20
707.69	8310.66
707.87	7298.96
708.06	6664.09
708.24	6137.76
708.42	5011.38
708.61	4106.18
708.79	3045.33
708.97	2437.08
709.16	1996.77
709.34	1730.53
709.52	1599.46
709.71	1521.64
709.89	1458.15
710.07	1429.48
710.26	1363.95
710.44	1382.38
710.62	1486.83
710.80	1376.24
710.99	1429.48
711.17	1478.63
711.35	1388.52
711.54	1329.13
711.72	1511.40
711.90	1380.33
712.09	1400.81
712.27	1413.10
712.45	1441.77
712.63	1312.75
712.82	1417.19
713.00	1390.57
713.18	1409.00
713.37	1351.66
713.55	1347.56
713.73	1462.25
713.91	1388.52
714.10	1394.67
714.28	1329.13
714.46	1497.07
714.65	1329.13
714.83	1382.38
715.01	1335.28
715.19	1347.56
715.38	1335.28
715.56	1261.55
715.74	1322.99
715.92	1392.62
716.11	1411.05
716.29	1282.03
716.47	1406.95
716.65	1443.82
716.84	1300.46
717.02	1368.04
717.20	1349.61
717.38	1376.24
717.57	1388.52
717.75	1382.38
717.93	1320.94
718.11	1366.00
718.30	1296.36
718.48	1464.30
718.66	1433.58
718.84	1341.42
719.03	1435.63
719.21	1392.62
719.39	1427.43
719.57	1386.47
719.75	1392.62
719.94	1353.71
720.12	1392.62
720.30	1337.32
720.48	1460.20
720.67	1396.71
720.85	1331.18
721.03	1345.52
721.21	1331.18
721.39	1400.81
721.58	1351.66
721.76	1253.36
721.94	1390.57
722.12	1341.42
722.30	1447.91
722.49	1353.71
722.67	1316.84
722.85	1363.95
723.03	1343.47
723.21	1363.95
723.40	1406.95
723.58	1437.67
723.76	1423.34
723.94	1380.33
724.12	1355.76
724.30	1476.59
724.49	1462.25
724.67	1501.16
724.85	1517.54
725.03	1400.81
725.21	1423.34
725.40	1396.71
725.58	1343.47
725.76	1497.07
725.94	1398.76
726.12	1331.18
726.30	1429.48
726.49	1368.04
726.67	1372.14
726.85	1394.67
727.03	1366.00
727.21	1456.11
727.39	1529.83
727.57	2025.44
727.76	3467.21
727.94	4388.80
728.12	4865.97
728.30	5248.94
728.48	5207.98
728.66	4202.43
728.84	3411.92
729.03	3129.30
729.21	2754.52
729.39	2592.73
729.57	2244.57
729.75	2009.06
729.93	1814.50
730.11	1587.18
730.30	1505.26
730.48	1495.02
730.66	1454.06
730.84	1329.13
731.02	1335.28
731.20	1304.56
731.38	1374.19
731.56	1368.04
731.74	1337.32
731.93	1374.19
732.11	1372.14
732.29	1376.24
732.47	1341.42
732.65	1353.71
732.83	1394.67
733.01	1443.82
733.19	1261.55
733.37	1423.34
733.56	1353.71
733.74	1404.91
733.92	1464.30
734.10	1339.37
734.28	1322.99
734.46	1370.09
734.64	1347.56
734.82	1441.77
735.00	1331.18
735.18	1359.85
735.36	1337.32
735.54	1443.82
735.73	1378.28
735.91	1359.85
736.09	1411.05
736.27	1370.09
736.45	1353.71
736.63	1392.62
736.81	1331.18
736.99	1437.67
737.17	1409.00
737.35	1380.33
737.53	1394.67
737.71	1374.19
737.89	1425.39
738.07	1368.04
738.25	1333.23
738.43	1302.51
738.61	1394.67
738.80	1304.56
738.98	1245.16
739.16	1304.56
739.34	1273.84
739.52	1460.20
739.70	1359.85
739.88	1404.91
740.06	1400.81
740.24	1366.00
740.42	1390.57
740.60	1406.95
740.78	1392.62
740.96	1325.04
741.14	1253.36
741.32	1343.47
741.50	1355.76
741.68	1458.15
741.86	1406.95
742.04	1267.69
742.22	1333.23
742.40	1425.39
742.58	1419.24
742.76	1318.89
742.94	1423.34
743.12	1353.71
743.30	1439.72
743.48	1351.66
743.66	1312.75
743.84	1390.57
744.02	1384.43
744.20	1353.71
744.38	1277.93
744.56	1355.76
744.74	1406.95
744.92	1347.56
745.10	1433.58
745.28	1452.01
745.46	1445.87
745.64	1355.76
745.82	1349.61
746.00	1372.14
746.18	1368.04
746.36	1361.90
746.54	1386.47
746.72	1351.66
746.90	1357.80
747.08	1398.76
747.26	1349.61
747.44	1456.11
747.62	1363.95
747.80	1372.14
747.98	1314.80
748.15	1439.72
748.33	1492.97
748.51	1396.71
748.69	1460.20
748.87	1376.24
749.05	1322.99
749.23	1382.38
749.41	1363.95
749.59	1390.57
749.77	1337.32
749.95	1349.61
750.13	1327.08
750.31	1400.81
750.49	1282.03
750.67	1396.71
750.85	1433.58
751.03	1388.52
751.20	1368.04
751.38	1355.76
751.56	1339.37
751.74	1370.09
751.92	1366.00
752.10	1376.24
752.28	1402.86
752.46	1282.03
752.64	1355.76
752.82	1331.18
753.00	1525.74
753.18	1415.15
753.35	1384.43
753.53	1366.00
753.71	1308.65
753.89	1433.58
754.07	1366.00
754.25	1415.15
754.43	1421.29
754.61	1384.43
754.79	1378.28
754.97	1370.09
755.14	1429.48
755.32	1417.19
755.50	1347.56
755.68	1380.33
755.86	1337.32
756.04	1406.95
756.22	1322.99
756.40	1380.33
756.57	1415.15
756.75	1310.70
756.93	1419.24
757.11	1355.76
757.29	1400.81
757.47	1396.71
757.65	1314.80
757.82	1228.78
758.00	1359.85
758.18	1314.80
758.36	1320.94
758.54	1370.09
758.72	1413.10
758.90	1435.63
759.07	1394.67
759.25	1370.09
759.43	1460.20
759.61	1384.43
759.79	1730.53
759.97	1372.14
760.15	1257.45
760.32	1355.76
760.50	1380.33
760.68	1396.71
760.86	1312.75
761.04	1394.67
761.22	1437.67
761.39	1314.80
761.57	1406.95
761.75	1404.91
761.93	1421.29
762.11	1308.65
762.28	1390.57
762.46	1351.66
762.64	1335.28
762.82	1378.28
763.00	1390.57
763.18	1409.00
763.35	1261.55
763.53	1394.67
763.71	1300.46
763.89	1347.56
764.07	1355.76
764.24	1370.09
764.42	1404.91
764.60	1320.94
764.78	1339.37
764.96	1415.15
765.13	1425.39
765.31	1437.67
765.49	1413.10
765.67	1312.75
765.84	1351.66
766.02	1343.47
766.20	1228.78
766.38	1343.47
766.56	1355.76
766.73	1462.25
766.91	1398.76
767.09	1386.47
767.27	1439.72
767.44	1322.99
767.62	1447.91
767.80	1355.76
767.98	1308.65
768.15	1322.99
768.33	1419.24
768.51	1351.66
768.69	1372.14
768.87	1388.52
769.04	1413.10
769.22	1464.30
769.40	1396.71
769.58	1433.58
769.75	1359.85
769.93	1355.76
770.11	1368.04
770.28	1333.23
770.46	1439.72
770.64	1409.00
770.82	1333.23
770.99	1351.66
771.17	1337.32
771.35	1378.28
771.53	1386.47
771.70	1372.14
771.88	1388.52
772.06	1314.80
772.23	1368.04
772.41	1370.09
772.59	1355.76
772.77	1292.27
772.94	1429.48
773.12	1345.52
773.30	1376.24
773.47	1378.28
773.65	1316.84
773.83	1466.35
774.01	1386.47
774.18	1384.43
774.36	1366.00
774.54	1318.89
774.71	1335.28
774.89	1376.24
775.07	1363.95
775.24	1423.34
775.42	1320.94
775.60	1427.43
775.78	1308.65
775.95	1267.69
776.13	1322.99
776.31	1220.59
776.48	1368.04
776.66	1279.98
776.84	1320.94
777.01	1333.23
777.19	1376.24
777.37	1363.95
777.54	1378.28
777.72	1470.44
777.90	1290.22
778.07	1396.71
778.25	1419.24
778.43	1378.28
778.60	1312.75
778.78	1419.24
778.96	1415.15
779.13	1263.60
779.31	1341.42
779.49	1402.86
779.66	1304.56
779.84	1435.63
780.01	1331.18
780.19	1380.33
780.37	1386.47
780.54	1370.09
780.72	1376.24
780.90	1306.60
781.07	1308.65
781.25	1339.37
781.43	1406.95
781.60	1454.06
781.78	1423.34
781.95	1376.24
782.13	1316.84
782.31	1388.52
782.48	1265.64
782.66	1363.95
782.83	1447.91
783.01	1339.37
783.19	1327.08
783.36	1351.66
783.54	1314.80
783.72	1413.10
783.89	1322.99
784.07	1378.28
784.24	1372.14
784.42	1390.57
784.60	1382.38
784.77	1402.86
784.95	1396.71
785.12	1390.57
785.30	1384.43
785.47	1327.08
785.65	1355.76
785.83	1322.99
786.00	1376.24
786.18	1429.48
786.35	1368.04
786.53	1396.71
786.71	1361.90
786.88	1368.04
787.06	1300.46
787.23	1363.95
787.41	1320.94
787.58	1333.23
787.76	1322.99
787.94	1454.06
788.11	1359.85
788.29	1349.61
788.46	1236.97
788.64	1310.70
788.81	1349.61
788.99	1398.76
789.16	1310.70
789.34	1353.71
789.52	1304.56
789.69	1423.34
789.87	1290.22
790.04	1339.37
790.22	1394.67
790.39	1421.29
790.57	1239.02
790.74	1325.04
790.92	1390.57
791.09	1341.42
791.27	1411.05
791.44	1470.44
791.62	1333.23
791.79	1294.32
791.97	1372.14
792.15	1460.20
792.32	1312.75
792.50	1404.91
792.67	1361.90
792.85	1320.94
793.02	1325.04
793.20	1357.80
793.37	1384.43
793.55	1404.91
793.72	1302.51
793.90	1359.85
794.07	1339.37
794.25	1353.71
794.42	1343.47
794.60	1390.57
794.77	1376.24
794.95	1329.13
795.12	1425.39
795.30	1351.66
795.47	1361.90
795.65	1447.91
795.82	1413.10
796.00	1347.56
796.17	1390.57
796.34	1306.60
796.52	1396.71
796.69	1351.66
796.87	1378.28
797.04	1417.19
797.22	1392.62
797.39	1322.99
797.57	1415.15
797.74	1357.80
797.92	1370.09
798.09	1366.00
798.27	1476.59
798.44	1378.28
798.62	1366.00
798.79	1423.34
798.96	1429.48
799.14	1382.38
799.31	1390.57
799.49	1327.08
799.66	1372.14
799.84	1318.89
800.01	1308.65
800.19	1347.56
800.36	1310.70
800.53	1388.52
800.71	1380.33
800.88	1445.87
801.06	1460.20
801.23	1392.62
801.41	1433.58
801.58	1372.14
801.75	1359.85
801.93	1402.86
802.10	1390.57
802.28	1396.71
802.45	1331.18
802.63	1361.90
802.80	1476.59
802.97	1363.95
803.15	1429.48
803.32	1398.76
803.50	1382.38
803.67	1322.99
803.84	1263.60
804.02	1413.10
804.19	1275.88
804.37	1376.24
804.54	1273.84
804.71	1390.57
804.89	1376.24
805.06	1349.61
805.24	1372.14
805.41	1347.56
805.58	1247.21
805.76	1392.62
805.93	1386.47
806.10	1409.00
806.28	1361.90
806.45	1431.53
806.63	1308.65
806.80	1351.66
806.97	1431.53
807.15	1357.80
807.32	1298.41
807.49	1361.90
807.67	1357.80
807.84	1460.20
808.01	1329.13
808.19	1499.11
808.36	1425.39
808.54	1441.77
808.71	1351.66
808.88	1312.75
809.06	1409.00
809.23	1445.87
809.40	1347.56
809.58	1396.71
809.75	1372.14
809.92	1370.09
810.10	1443.82
810.27	1349.61
810.44	1372.14
810.62	1398.76
810.79	1275.88
810.96	1378.28
811.14	1378.28
811.31	1318.89
811.48	1406.95
811.66	1275.88
811.83	1409.00
812.00	1404.91
812.18	1302.51
812.35	1441.77
812.52	1386.47
812.69	1378.28
812.87	1368.04
813.04	1390.57
813.21	1372.14
813.39	1400.81
813.56	1347.56
813.73	1423.34
813.91	1349.61
814.08	1400.81
814.25	1341.42
814.42	1359.85
814.60	1345.52
814.77	1343.47
814.94	1409.00
815.12	1355.76
815.29	1433.58
815.46	1390.57
815.63	1322.99
815.81	1390.57
815.98	1322.99
816.15	1341.42
816.33	1372.14
816.50	1349.61
816.67	1343.47
816.84	1353.71
817.02	1390.57
817.19	1386.47
817.36	1376.24
817.53	1396.71
817.71	1396.71
817.88	1374.19
818.05	1392.62
818.22	1290.22
818.40	1486.83
818.57	1327.08
818.74	1388.52
818.91	1306.60
819.09	1310.70
819.26	1411.05
819.43	1318.89
819.60	1302.51
819.78	1382.38
819.95	1349.61
820.12	1386.47
820.29	1384.43
820.47	1460.20
820.64	1306.60
820.81	1351.66
820.98	1296.36
821.15	1359.85
821.33	1423.34
821.50	1357.80
821.67	1460.20
821.84	1361.90
822.02	1343.47
822.19	1331.18
822.36	1370.09
822.53	1325.04
822.70	1400.81
822.88	1282.03
823.05	1443.82
823.22	1339.37
823.39	1363.95
823.56	1363.95
823.74	1433.58
823.91	1374.19
824.08	1341.42
824.25	1380.33
824.42	1394.67
824.60	1368.04
824.77	1380.33
824.94	1302.51
825.11	1476.59
825.28	1290.22
825.45	1327.08
825.63	1454.06
825.80	1339.37
825.97	1363.95
826.14	1417.19
826.31	1296.36
826.48	1318.89
826.66	1347.56
826.83	1355.76
827.00	1345.52
827.17	1286.12
827.34	1441.77
827.51	1347.56
827.69	1361.90
827.86	1284.08
828.03	1288.17
828.20	1310.70
828.37	1337.32
828.54	1411.05
828.71	1374.19
828.89	1396.71
829.06	1349.61
829.23	1417.19
829.40	1355.76
829.57	1363.95
829.74	1339.37
829.91	1376.24
830.09	1357.80
830.26	1337.32
830.43	1421.29
830.60	1392.62
830.77	1363.95
830.94	1398.76
831.11	1439.72
831.28	1355.76
831.46	1447.91
831.63	1298.41
831.80	1400.81
831.97	1339.37
832.14	1329.13
832.31	1398.76
832.48	1378.28
832.65	1396.71
832.82	1312.75
832.99	1320.94
833.17	1300.46
833.34	1411.05
833.51	1298.41
833.68	1296.36
833.85	1378.28
834.02	1316.84
834.19	1298.41
834.36	1341.42
834.53	1353.71
834.70	1400.81
834.87	1454.06
835.04	1359.85
835.22	1351.66
835.39	1322.99
835.56	1398.76
835.73	1353.71
835.90	1396.71
836.07	1347.56
836.24	1384.43
836.41	1249.26
836.58	1372.14
836.75	1343.47
836.92	1339.37
837.09	1380.33
837.26	1372.14
837.43	1396.71
837.60	1335.28
837.77	1423.34
837.94	1384.43
838.12	1386.47
838.29	1353.71
838.46	1337.32
838.63	1322.99
838.80	1337.32
838.97	1439.72
839.14	1429.48
839.31	1427.43
839.48	1452.01
839.65	1417.19
839.82	1437.67
839.99	1439.72
840.16	1357.80
840.33	1368.04
840.50	1376.24
840.67	1310.70
840.84	1232.88
841.01	1370.09
841.18	1376.24
841.35	1300.46
841.52	1333.23
841.69	1382.38
841.86	1390.57
842.03	1363.95
842.20	1433.58
842.37	1361.90
842.54	1411.05
842.71	1392.62
842.88	1378.28
843.05	1417.19
843.22	1378.28
843.39	1325.04
843.56	1388.52
843.73	1331.18
843.90	1341.42
844.07	1343.47
844.24	1386.47
844.41	1318.89
844.58	1347.56
844.75	1390.57
844.92	1349.61
845.09	1368.04
845.26	1345.52
845.43	1400.81
845.60	1370.09
845.77	1359.85
845.94	1400.81
846.10	1370.09
846.27	1325.04
846.44	1368.04
846.61	1339.37
846.78	1396.71
846.95	1396.71
847.12	1302.51
847.29	1363.95
847.46	1363.95
847.63	1404.91
847.80	1374.19
847.97	1279.98
848.14	1411.05
848.31	1361.90
848.48	1316.84
848.65	1421.29
848.82	1329.13
848.98	1411.05
849.15	1400.81
849.32	1339.37
849.49	1435.63
849.66	1357.80
849.83	1443.82
850.00	1286.12
850.17	1404.91
850.34	1318.89
850.51	1402.86
850.68	1327.08
850.85	1437.67
851.01	1396.71
851.18	1404.91
851.35	1353.71
851.52	1380.33
851.69	1370.09
851.86	1322.99
852.03	1433.58
852.20	1441.77
852.37	1396.71
852.53	1353.71
852.70	1347.56
852.87	1277.93
853.04	1366.00
853.21	1335.28
853.38	1339.37
853.55	1441.77
853.72	1378.28
853.89	1384.43
854.05	1308.65
854.22	1382.38
854.39	1392.62
854.56	1341.42
854.73	1445.87
854.90	1322.99
855.07	1351.66
855.23	1355.76
855.40	1404.91
855.57	1386.47
855.74	1255.40
855.91	1517.54
856.08	1406.95
856.25	1316.84
856.41	1314.80
856.58	1341.42
856.75	1355.76
856.92	1271.79
857.09	1376.24
857.26	1384.43
857.42	1370.09
857.59	1382.38
857.76	1265.64
857.93	1400.81
858.10	1370.09
858.27	1335.28
858.43	1366.00
858.60	1404.91
858.77	1318.89
858.94	1376.24
859.11	1398.76
859.27	1347.56
859.44	1378.28
859.61	1427.43
859.78	1404.91
859.95	1296.36
860.12	1345.52
860.28	1411.05
860.45	1458.15
860.62	1359.85
860.79	1380.33
860.95	1384.43
861.12	1388.52
861.29	1388.52
861.46	1349.61
861.63	1386.47
861.79	1325.04
861.96	1433.58
862.13	1406.95
862.30	1425.39
862.47	1349.61
862.63	1380.33
862.80	1361.90
862.97	1466.35
863.14	1384.43
863.30	1425.39
863.47	1296.36
863.64	1409.00
863.81	1423.34
863.97	1392.62
864.14	1212.40
864.31	1351.66
864.48	1355.76
864.65	1341.42
864.81	1380.33
864.98	1331.18
865.15	1413.10
865.32	1406.95
865.48	1445.87
865.65	1480.68
865.82	1392.62
865.98	1417.19
866.15	1417.19
866.32	1277.93
866.49	1386.47
866.65	1390.57
866.82	1335.28
866.99	1288.17
867.16	1294.32
867.32	1329.13
867.49	1359.85
867.66	1304.56
867.83	1327.08
867.99	1277.93
868.16	1361.90
868.33	1351.66
868.49	1378.28
868.66	1433.58
868.83	1382.38
868.99	1327.08
869.16	1357.80
869.33	1439.72
869.50	1363.95
869.66	1370.09
869.83	1363.95
870.00	1298.41
870.16	1370.09
870.33	1343.47
870.50	1415.15
870.66	1392.62
870.83	1441.77
871.00	1374.19
871.17	1396.71
871.33	1351.66
871.50	1286.12
871.67	1347.56
871.83	1329.13
872.00	1378.28
872.17	1394.67
872.33	1423.34
872.50	1394.67
872.67	1273.84
872.83	1314.80
873.00	1355.76
873.17	1312.75
873.33	1343.47
873.50	1372.14
873.67	1384.43
873.83	1382.38
874.00	1368.04
874.16	1390.57
874.33	1419.24
874.50	1378.28
874.66	1351.66
874.83	1372.14
875.00	1427.43
875.16	1357.80
875.33	1384.43
875.50	1329.13
875.66	1347.56
875.83	1445.87
875.99	1384.43
876.16	1429.48
876.33	1314.80
876.49	1370.09
876.66	1433.58
876.83	1392.62
876.99	1236.97
877.16	1357.80
877.32	1331.18
877.49	1347.56
877.66	1372.14
877.82	1449.96
877.99	1417.19
878.15	1322.99
878.32	1404.91
878.49	1370.09
878.65	1376.24
878.82	1435.63
878.98	1343.47
879.15	1404.91
879.32	1437.67
879.48	1400.81
879.65	1398.76
879.81	1425.39
879.98	1355.76
880.15	1366.00
880.31	1417.19
880.48	1325.04
880.64	1380.33
880.81	1435.63
880.97	1376.24
881.14	1413.10
881.31	1355.76
881.47	1472.49
881.64	1361.90
881.80	1304.56
881.97	1429.48
882.13	1386.47
882.30	1351.66
882.47	1386.47
882.63	1345.52
882.80	1384.43
882.96	1390.57
883.13	1419.24
883.29	1357.80
883.46	1378.28
883.62	1452.01
883.79	1349.61
883.95	1376.24
884.12	1372.14
884.29	1409.00
884.45	1402.86
884.62	1263.60
884.78	1427.43
884.95	1376.24
885.11	1335.28
885.28	1370.09
885.44	1380.33
885.61	1388.52
885.77	1419.24
885.94	1386.47
886.10	1409.00
886.27	1425.39
886.43	1390.57
886.60	1431.53
886.76	1275.88
886.93	1320.94
887.09	1363.95
887.26	1271.79
887.42	1411.05
887.59	1341.42
887.75	1439.72
887.92	1390.57
888.08	1306.60
888.25	1474.54
888.41	1329.13
888.58	1359.85
888.74	1249.26
888.91	1337.32
>>>>>End Processed Spectral Data<<<<<
