SpectraSuite Data File
++++++++++++++++++++++++++++++++++++
Date: Sun Apr 03 19:55:43 CEST 2016
User: root
Dark Spectrum Present: No
Reference Spectrum Present: No
Number of Sampled Component Spectra: 1
Spectrometers: USB4C02835
Integration Time (usec): 10000 (USB4C02835)
Spectra Averaged: 1 (USB4C02835)
Boxcar Smoothing: 0 (USB4C02835)
Correct for Electrical Dark: No (USB4C02835)
Strobe/Lamp Enabled: No (USB4C02835)
Correct for Detector Non-linearity: No (USB4C02835)
Correct for Stray Light: No (USB4C02835)
Number of Pixels in Processed Spectrum: 3648
>>>>>Begin Processed Spectral Data<<<<<
177.47	1206.25
177.69	1206.25
177.91	1206.25
178.13	1148.91
178.36	1232.88
178.58	1243.12
178.80	1290.22
179.02	1251.31
179.24	1239.02
179.46	1316.84
179.68	1273.84
179.90	1263.60
180.13	1228.78
180.35	1271.79
180.57	1294.32
180.79	1318.89
181.01	1255.40
181.23	1302.51
181.45	1361.90
181.67	1306.60
181.90	1239.02
182.12	1257.45
182.34	1253.36
182.56	1263.60
182.78	1277.93
183.00	1200.11
183.22	1341.42
183.44	1325.04
183.66	1271.79
183.89	1183.73
184.11	1316.84
184.33	1183.73
184.55	1214.45
184.77	1239.02
184.99	1263.60
185.21	1249.26
185.43	1236.97
185.65	1288.17
185.87	1243.12
186.10	1257.45
186.32	1296.36
186.54	1247.21
186.76	1214.45
186.98	1269.74
187.20	1230.83
187.42	1290.22
187.64	1269.74
187.86	1314.80
188.08	1310.70
188.30	1249.26
188.52	1279.98
188.75	1263.60
188.97	1239.02
189.19	1308.65
189.41	1306.60
189.63	1249.26
189.85	1298.41
190.07	1349.61
190.29	1282.03
190.51	1269.74
190.73	1337.32
190.95	1298.41
191.17	1304.56
191.39	1261.55
191.61	1308.65
191.84	1241.07
192.06	1314.80
192.28	1206.25
192.50	1241.07
192.72	1292.27
192.94	1347.56
193.16	1269.74
193.38	1247.21
193.60	1275.88
193.82	1271.79
194.04	1279.98
194.26	1259.50
194.48	1228.78
194.70	1306.60
194.92	1255.40
195.14	1290.22
195.36	1214.45
195.58	1279.98
195.80	1228.78
196.02	1230.83
196.24	1191.92
196.46	1257.45
196.69	1255.40
196.91	1292.27
197.13	1273.84
197.35	1282.03
197.57	1251.31
197.79	1286.12
198.01	1263.60
198.23	1230.83
198.45	1216.49
198.67	1325.04
198.89	1308.65
199.11	1288.17
199.33	1189.87
199.55	1320.94
199.77	1249.26
199.99	1257.45
200.21	1257.45
200.43	1286.12
200.65	1263.60
200.87	1259.50
201.09	1273.84
201.31	1253.36
201.53	1273.84
201.75	1265.64
201.97	1232.88
202.19	1261.55
202.41	1183.73
202.63	1269.74
202.85	1279.98
203.07	1273.84
203.29	1302.51
203.51	1296.36
203.73	1214.45
203.95	1368.04
204.17	1261.55
204.39	1298.41
204.61	1300.46
204.83	1259.50
205.05	1312.75
205.27	1331.18
205.49	1259.50
205.71	1175.53
205.93	1236.97
206.15	1263.60
206.37	1308.65
206.59	1243.12
206.81	1275.88
207.03	1298.41
207.25	1265.64
207.47	1253.36
207.69	1243.12
207.91	1286.12
208.13	1306.60
208.34	1183.73
208.56	1286.12
208.78	1286.12
209.00	1288.17
209.22	1312.75
209.44	1294.32
209.66	1288.17
209.88	1269.74
210.10	1214.45
210.32	1271.79
210.54	1273.84
210.76	1257.45
210.98	1267.69
211.20	1224.69
211.42	1265.64
211.64	1286.12
211.86	1320.94
212.08	1277.93
212.30	1263.60
212.52	1228.78
212.74	1255.40
212.96	1179.63
213.17	1286.12
213.39	1310.70
213.61	1298.41
213.83	1275.88
214.05	1304.56
214.27	1226.73
214.49	1273.84
214.71	1251.31
214.93	1337.32
215.15	1284.08
215.37	1310.70
215.59	1265.64
215.81	1257.45
216.03	1277.93
216.24	1310.70
216.46	1296.36
216.68	1288.17
216.90	1261.55
217.12	1329.13
217.34	1257.45
217.56	1241.07
217.78	1271.79
218.00	1279.98
218.22	1210.35
218.44	1267.69
218.66	1263.60
218.87	1292.27
219.09	1255.40
219.31	1245.16
219.53	1167.34
219.75	1210.35
219.97	1290.22
220.19	1294.32
220.41	1269.74
220.63	1273.84
220.85	1249.26
221.06	1288.17
221.28	1310.70
221.50	1228.78
221.72	1355.76
221.94	1269.74
222.16	1277.93
222.38	1193.97
222.60	1290.22
222.82	1255.40
223.03	1273.84
223.25	1271.79
223.47	1257.45
223.69	1304.56
223.91	1296.36
224.13	1253.36
224.35	1290.22
224.57	1265.64
224.78	1288.17
225.00	1302.51
225.22	1169.39
225.44	1249.26
225.66	1228.78
225.88	1206.25
226.10	1337.32
226.32	1210.35
226.53	1284.08
226.75	1277.93
226.97	1310.70
227.19	1318.89
227.41	1288.17
227.63	1171.44
227.85	1222.64
228.06	1275.88
228.28	1251.31
228.50	1267.69
228.72	1212.40
228.94	1206.25
229.16	1253.36
229.37	1247.21
229.59	1292.27
229.81	1282.03
230.03	1224.69
230.25	1220.59
230.47	1314.80
230.69	1331.18
230.90	1234.93
231.12	1284.08
231.34	1300.46
231.56	1222.64
231.78	1275.88
232.00	1204.21
232.21	1368.04
232.43	1181.68
232.65	1318.89
232.87	1327.08
233.09	1232.88
233.30	1269.74
233.52	1249.26
233.74	1245.16
233.96	1329.13
234.18	1214.45
234.40	1208.30
234.61	1259.50
234.83	1218.54
235.05	1286.12
235.27	1198.06
235.49	1320.94
235.70	1267.69
235.92	1277.93
236.14	1243.12
236.36	1202.16
236.58	1310.70
236.79	1234.93
237.01	1337.32
237.23	1294.32
237.45	1306.60
237.67	1255.40
237.88	1284.08
238.10	1296.36
238.32	1136.62
238.54	1286.12
238.76	1261.55
238.97	1279.98
239.19	1327.08
239.41	1257.45
239.63	1196.01
239.85	1288.17
240.06	1282.03
240.28	1257.45
240.50	1243.12
240.72	1296.36
240.93	1243.12
241.15	1187.82
241.37	1271.79
241.59	1290.22
241.81	1304.56
242.02	1288.17
242.24	1259.50
242.46	1210.35
242.68	1245.16
242.89	1275.88
243.11	1210.35
243.33	1361.90
243.55	1214.45
243.76	1296.36
243.98	1292.27
244.20	1271.79
244.42	1261.55
244.64	1230.83
244.85	1275.88
245.07	1277.93
245.29	1292.27
245.51	1300.46
245.72	1265.64
245.94	1259.50
246.16	1257.45
246.38	1247.21
246.59	1275.88
246.81	1249.26
247.03	1277.93
247.24	1241.07
247.46	1249.26
247.68	1322.99
247.90	1146.86
248.11	1329.13
248.33	1320.94
248.55	1271.79
248.77	1277.93
248.98	1222.64
249.20	1253.36
249.42	1257.45
249.64	1282.03
249.85	1275.88
250.07	1234.93
250.29	1339.37
250.50	1198.06
250.72	1277.93
250.94	1292.27
251.16	1286.12
251.37	1277.93
251.59	1314.80
251.81	1265.64
252.02	1265.64
252.24	1298.41
252.46	1314.80
252.68	1236.97
252.89	1196.01
253.11	1288.17
253.33	1273.84
253.54	1294.32
253.76	1259.50
253.98	1271.79
254.20	1273.84
254.41	1183.73
254.63	1232.88
254.85	1249.26
255.06	1220.59
255.28	1353.71
255.50	1273.84
255.71	1243.12
255.93	1230.83
256.15	1290.22
256.36	1329.13
256.58	1228.78
256.80	1273.84
257.02	1302.51
257.23	1245.16
257.45	1298.41
257.67	1271.79
257.88	1222.64
258.10	1306.60
258.32	1329.13
258.53	1273.84
258.75	1314.80
258.97	1232.88
259.18	1216.49
259.40	1243.12
259.62	1245.16
259.83	1359.85
260.05	1306.60
260.27	1318.89
260.48	1249.26
260.70	1304.56
260.92	1239.02
261.13	1261.55
261.35	1267.69
261.57	1228.78
261.78	1247.21
262.00	1286.12
262.22	1265.64
262.43	1210.35
262.65	1191.92
262.86	1296.36
263.08	1277.93
263.30	1277.93
263.51	1181.68
263.73	1224.69
263.95	1226.73
264.16	1261.55
264.38	1267.69
264.60	1318.89
264.81	1228.78
265.03	1255.40
265.25	1179.63
265.46	1247.21
265.68	1253.36
265.89	1249.26
266.11	1210.35
266.33	1271.79
266.54	1247.21
266.76	1222.64
266.98	1335.28
267.19	1282.03
267.41	1343.47
267.62	1296.36
267.84	1228.78
268.06	1279.98
268.27	1265.64
268.49	1210.35
268.70	1271.79
268.92	1296.36
269.14	1282.03
269.35	1271.79
269.57	1236.97
269.79	1259.50
270.00	1279.98
270.22	1275.88
270.43	1257.45
270.65	1212.40
270.87	1271.79
271.08	1312.75
271.30	1286.12
271.51	1222.64
271.73	1282.03
271.95	1263.60
272.16	1222.64
272.38	1232.88
272.59	1189.87
272.81	1277.93
273.02	1241.07
273.24	1298.41
273.46	1239.02
273.67	1253.36
273.89	1318.89
274.10	1259.50
274.32	1279.98
274.54	1284.08
274.75	1257.45
274.97	1267.69
275.18	1232.88
275.40	1298.41
275.61	1232.88
275.83	1312.75
276.05	1302.51
276.26	1345.52
276.48	1290.22
276.69	1310.70
276.91	1290.22
277.12	1314.80
277.34	1286.12
277.55	1259.50
277.77	1368.04
277.99	1257.45
278.20	1245.16
278.42	1288.17
278.63	1228.78
278.85	1265.64
279.06	1259.50
279.28	1243.12
279.49	1314.80
279.71	1277.93
279.93	1249.26
280.14	1322.99
280.36	1300.46
280.57	1298.41
280.79	1206.25
281.00	1261.55
281.22	1202.16
281.43	1314.80
281.65	1200.11
281.86	1249.26
282.08	1234.93
282.29	1376.24
282.51	1253.36
282.73	1253.36
282.94	1263.60
283.16	1239.02
283.37	1263.60
283.59	1232.88
283.80	1279.98
284.02	1239.02
284.23	1226.73
284.45	1298.41
284.66	1261.55
284.88	1275.88
285.09	1353.71
285.31	1257.45
285.52	1288.17
285.74	1273.84
285.95	1304.56
286.17	1261.55
286.38	1236.97
286.60	1325.04
286.81	1241.07
287.03	1257.45
287.24	1236.97
287.46	1226.73
287.67	1249.26
287.89	1314.80
288.10	1220.59
288.32	1292.27
288.53	1253.36
288.75	1284.08
288.96	1279.98
289.18	1255.40
289.39	1200.11
289.61	1310.70
289.82	1284.08
290.04	1271.79
290.25	1277.93
290.47	1294.32
290.68	1273.84
290.90	1234.93
291.11	1284.08
291.33	1298.41
291.54	1296.36
291.76	1191.92
291.97	1322.99
292.18	1208.30
292.40	1288.17
292.61	1290.22
292.83	1222.64
293.04	1236.97
293.26	1265.64
293.47	1245.16
293.69	1249.26
293.90	1263.60
294.12	1284.08
294.33	1226.73
294.55	1239.02
294.76	1267.69
294.97	1296.36
295.19	1314.80
295.40	1282.03
295.62	1263.60
295.83	1257.45
296.05	1318.89
296.26	1279.98
296.48	1312.75
296.69	1220.59
296.90	1306.60
297.12	1302.51
297.33	1329.13
297.55	1249.26
297.76	1298.41
297.98	1314.80
298.19	1271.79
298.41	1208.30
298.62	1228.78
298.83	1273.84
299.05	1269.74
299.26	1226.73
299.48	1206.25
299.69	1236.97
299.90	1228.78
300.12	1300.46
300.33	1212.40
300.55	1222.64
300.76	1263.60
300.98	1300.46
301.19	1308.65
301.40	1185.77
301.62	1239.02
301.83	1290.22
302.05	1290.22
302.26	1245.16
302.47	1292.27
302.69	1212.40
302.90	1273.84
303.12	1277.93
303.33	1267.69
303.54	1241.07
303.76	1267.69
303.97	1279.98
304.19	1271.79
304.40	1255.40
304.61	1216.49
304.83	1357.80
305.04	1247.21
305.26	1269.74
305.47	1302.51
305.68	1316.84
305.90	1230.83
306.11	1267.69
306.33	1277.93
306.54	1286.12
306.75	1245.16
306.97	1312.75
307.18	1214.45
307.39	1265.64
307.61	1273.84
307.82	1298.41
308.04	1234.93
308.25	1282.03
308.46	1245.16
308.68	1261.55
308.89	1214.45
309.10	1265.64
309.32	1314.80
309.53	1308.65
309.74	1294.32
309.96	1275.88
310.17	1310.70
310.39	1271.79
310.60	1220.59
310.81	1216.49
311.03	1222.64
311.24	1216.49
311.45	1265.64
311.67	1320.94
311.88	1286.12
312.09	1271.79
312.31	1189.87
312.52	1339.37
312.73	1224.69
312.95	1257.45
313.16	1273.84
313.37	1241.07
313.59	1288.17
313.80	1294.32
314.01	1290.22
314.23	1275.88
314.44	1296.36
314.65	1265.64
314.87	1273.84
315.08	1236.97
315.29	1320.94
315.51	1202.16
315.72	1304.56
315.93	1312.75
316.15	1263.60
316.36	1337.32
316.57	1300.46
316.79	1204.21
317.00	1284.08
317.21	1370.09
317.43	1243.12
317.64	1228.78
317.85	1191.92
318.07	1245.16
318.28	1214.45
318.49	1212.40
318.70	1245.16
318.92	1202.16
319.13	1286.12
319.34	1343.47
319.56	1206.25
319.77	1249.26
319.98	1306.60
320.20	1298.41
320.41	1310.70
320.62	1257.45
320.83	1208.30
321.05	1208.30
321.26	1290.22
321.47	1302.51
321.69	1245.16
321.90	1239.02
322.11	1214.45
322.32	1247.21
322.54	1230.83
322.75	1306.60
322.96	1259.50
323.18	1282.03
323.39	1302.51
323.60	1265.64
323.81	1288.17
324.03	1271.79
324.24	1247.21
324.45	1331.18
324.66	1226.73
324.88	1273.84
325.09	1216.49
325.30	1296.36
325.52	1259.50
325.73	1269.74
325.94	1294.32
326.15	1171.44
326.37	1253.36
326.58	1290.22
326.79	1234.93
327.00	1239.02
327.22	1292.27
327.43	1226.73
327.64	1271.79
327.85	1220.59
328.07	1183.73
328.28	1265.64
328.49	1290.22
328.70	1277.93
328.92	1212.40
329.13	1273.84
329.34	1253.36
329.55	1294.32
329.76	1257.45
329.98	1249.26
330.19	1306.60
330.40	1312.75
330.61	1230.83
330.83	1265.64
331.04	1224.69
331.25	1214.45
331.46	1271.79
331.68	1312.75
331.89	1245.16
332.10	1308.65
332.31	1230.83
332.52	1294.32
332.74	1257.45
332.95	1296.36
333.16	1284.08
333.37	1257.45
333.58	1241.07
333.80	1214.45
334.01	1265.64
334.22	1255.40
334.43	1296.36
334.64	1288.17
334.86	1298.41
335.07	1208.30
335.28	1230.83
335.49	1251.31
335.70	1282.03
335.92	1288.17
336.13	1304.56
336.34	1286.12
336.55	1320.94
336.76	1277.93
336.98	1269.74
337.19	1345.52
337.40	1263.60
337.61	1265.64
337.82	1290.22
338.04	1263.60
338.25	1265.64
338.46	1308.65
338.67	1189.87
338.88	1277.93
339.09	1273.84
339.31	1306.60
339.52	1265.64
339.73	1257.45
339.94	1325.04
340.15	1216.49
340.36	1265.64
340.58	1329.13
340.79	1226.73
341.00	1302.51
341.21	1294.32
341.42	1273.84
341.63	1286.12
341.85	1245.16
342.06	1284.08
342.27	1327.08
342.48	1298.41
342.69	1279.98
342.90	1271.79
343.12	1255.40
343.33	1253.36
343.54	1187.82
343.75	1298.41
343.96	1265.64
344.17	1290.22
344.38	1245.16
344.60	1265.64
344.81	1269.74
345.02	1148.91
345.23	1273.84
345.44	1232.88
345.65	1271.79
345.86	1232.88
346.07	1277.93
346.29	1273.84
346.50	1273.84
346.71	1236.97
346.92	1261.55
347.13	1290.22
347.34	1202.16
347.55	1241.07
347.76	1243.12
347.98	1251.31
348.19	1210.35
348.40	1296.36
348.61	1255.40
348.82	1228.78
349.03	1275.88
349.24	1222.64
349.45	1292.27
349.66	1263.60
349.88	1275.88
350.09	1298.41
350.30	1275.88
350.51	1298.41
350.72	1261.55
350.93	1214.45
351.14	1234.93
351.35	1255.40
351.56	1259.50
351.77	1282.03
351.99	1279.98
352.20	1218.54
352.41	1222.64
352.62	1187.82
352.83	1261.55
353.04	1292.27
353.25	1243.12
353.46	1224.69
353.67	1325.04
353.88	1273.84
354.09	1335.28
354.30	1232.88
354.52	1228.78
354.73	1339.37
354.94	1251.31
355.15	1265.64
355.36	1220.59
355.57	1247.21
355.78	1153.01
355.99	1261.55
356.20	1230.83
356.41	1333.23
356.62	1304.56
356.83	1290.22
357.04	1296.36
357.25	1273.84
357.46	1267.69
357.68	1214.45
357.89	1251.31
358.10	1282.03
358.31	1271.79
358.52	1282.03
358.73	1310.70
358.94	1300.46
359.15	1214.45
359.36	1245.16
359.57	1294.32
359.78	1271.79
359.99	1318.89
360.20	1292.27
360.41	1241.07
360.62	1306.60
360.83	1243.12
361.04	1208.30
361.25	1282.03
361.46	1259.50
361.67	1269.74
361.88	1241.07
362.09	1273.84
362.30	1294.32
362.51	1236.97
362.72	1255.40
362.93	1263.60
363.14	1273.84
363.35	1273.84
363.56	1255.40
363.78	1228.78
363.99	1273.84
364.20	1253.36
364.41	1273.84
364.62	1271.79
364.83	1228.78
365.04	1265.64
365.25	1308.65
365.46	1279.98
365.67	1355.76
365.88	1234.93
366.09	1214.45
366.30	1286.12
366.51	1214.45
366.72	1271.79
366.93	1263.60
367.14	1277.93
367.35	1290.22
367.56	1288.17
367.77	1284.08
367.98	1265.64
368.18	1257.45
368.39	1310.70
368.60	1273.84
368.81	1288.17
369.02	1288.17
369.23	1273.84
369.44	1216.49
369.65	1331.18
369.86	1263.60
370.07	1239.02
370.28	1222.64
370.49	1271.79
370.70	1312.75
370.91	1228.78
371.12	1257.45
371.33	1257.45
371.54	1263.60
371.75	1243.12
371.96	1257.45
372.17	1218.54
372.38	1275.88
372.59	1286.12
372.80	1206.25
373.01	1191.92
373.22	1284.08
373.43	1267.69
373.64	1253.36
373.85	1263.60
374.06	1282.03
374.26	1236.97
374.47	1271.79
374.68	1263.60
374.89	1263.60
375.10	1273.84
375.31	1267.69
375.52	1265.64
375.73	1204.21
375.94	1239.02
376.15	1298.41
376.36	1327.08
376.57	1279.98
376.78	1253.36
376.99	1218.54
377.20	1220.59
377.40	1300.46
377.61	1306.60
377.82	1257.45
378.03	1335.28
378.24	1312.75
378.45	1312.75
378.66	1245.16
378.87	1331.18
379.08	1322.99
379.29	1286.12
379.50	1341.42
379.71	1275.88
379.91	1310.70
380.12	1263.60
380.33	1318.89
380.54	1245.16
380.75	1206.25
380.96	1310.70
381.17	1292.27
381.38	1245.16
381.59	1208.30
381.80	1230.83
382.00	1353.71
382.21	1226.73
382.42	1261.55
382.63	1243.12
382.84	1234.93
383.05	1224.69
383.26	1269.74
383.47	1251.31
383.68	1376.24
383.88	1325.04
384.09	1200.11
384.30	1271.79
384.51	1267.69
384.72	1243.12
384.93	1247.21
385.14	1294.32
385.35	1210.35
385.55	1300.46
385.76	1273.84
385.97	1265.64
386.18	1255.40
386.39	1243.12
386.60	1265.64
386.81	1306.60
387.02	1230.83
387.22	1245.16
387.43	1265.64
387.64	1273.84
387.85	1325.04
388.06	1288.17
388.27	1300.46
388.48	1296.36
388.68	1294.32
388.89	1251.31
389.10	1304.56
389.31	1294.32
389.52	1214.45
389.73	1257.45
389.93	1249.26
390.14	1251.31
390.35	1259.50
390.56	1220.59
390.77	1314.80
390.98	1251.31
391.18	1236.97
391.39	1257.45
391.60	1243.12
391.81	1273.84
392.02	1273.84
392.23	1322.99
392.43	1269.74
392.64	1273.84
392.85	1294.32
393.06	1284.08
393.27	1255.40
393.47	1275.88
393.68	1271.79
393.89	1247.21
394.10	1290.22
394.31	1275.88
394.52	1296.36
394.72	1310.70
394.93	1304.56
395.14	1261.55
395.35	1282.03
395.56	1187.82
395.76	1255.40
395.97	1214.45
396.18	1224.69
396.39	1298.41
396.60	1304.56
396.80	1267.69
397.01	1368.04
397.22	1241.07
397.43	1355.76
397.64	1210.35
397.84	1318.89
398.05	1284.08
398.26	1247.21
398.47	1263.60
398.67	1273.84
398.88	1316.84
399.09	1241.07
399.30	1222.64
399.51	1279.98
399.71	1286.12
399.92	1193.97
400.13	1232.88
400.34	1228.78
400.54	1263.60
400.75	1226.73
400.96	1261.55
401.17	1206.25
401.37	1279.98
401.58	1253.36
401.79	1284.08
402.00	1284.08
402.21	1255.40
402.41	1218.54
402.62	1282.03
402.83	1189.87
403.04	1245.16
403.24	1349.61
403.45	1247.21
403.66	1282.03
403.87	1245.16
404.07	1263.60
404.28	1302.51
404.49	1232.88
404.70	1286.12
404.90	1282.03
405.11	1267.69
405.32	1290.22
405.52	1224.69
405.73	1298.41
405.94	1294.32
406.15	1230.83
406.35	1234.93
406.56	1253.36
406.77	1308.65
406.98	1277.93
407.18	1212.40
407.39	1271.79
407.60	1355.76
407.80	1310.70
408.01	1331.18
408.22	1210.35
408.43	1312.75
408.63	1241.07
408.84	1286.12
409.05	1302.51
409.25	1247.21
409.46	1322.99
409.67	1275.88
409.88	1351.66
410.08	1239.02
410.29	1263.60
410.50	1222.64
410.70	1275.88
410.91	1337.32
411.12	1288.17
411.32	1269.74
411.53	1271.79
411.74	1290.22
411.95	1255.40
412.15	1282.03
412.36	1290.22
412.57	1263.60
412.77	1249.26
412.98	1251.31
413.19	1259.50
413.39	1279.98
413.60	1214.45
413.81	1341.42
414.01	1200.11
414.22	1282.03
414.43	1267.69
414.63	1204.21
414.84	1275.88
415.05	1216.49
415.25	1251.31
415.46	1320.94
415.67	1259.50
415.87	1241.07
416.08	1263.60
416.29	1288.17
416.49	1322.99
416.70	1206.25
416.91	1230.83
417.11	1200.11
417.32	1224.69
417.53	1288.17
417.73	1245.16
417.94	1310.70
418.15	1228.78
418.35	1239.02
418.56	1265.64
418.77	1214.45
418.97	1222.64
419.18	1251.31
419.38	1249.26
419.59	1298.41
419.80	1314.80
420.00	1263.60
420.21	1247.21
420.42	1294.32
420.62	1312.75
420.83	1282.03
421.04	1232.88
421.24	1251.31
421.45	1241.07
421.65	1249.26
421.86	1304.56
422.07	1263.60
422.27	1298.41
422.48	1275.88
422.69	1288.17
422.89	1193.97
423.10	1265.64
423.30	1300.46
423.51	1288.17
423.72	1245.16
423.92	1273.84
424.13	1259.50
424.33	1292.27
424.54	1298.41
424.75	1279.98
424.95	1269.74
425.16	1314.80
425.36	1341.42
425.57	1241.07
425.78	1267.69
425.98	1306.60
426.19	1253.36
426.39	1175.53
426.60	1298.41
426.81	1329.13
427.01	1245.16
427.22	1279.98
427.42	1308.65
427.63	1204.21
427.83	1257.45
428.04	1259.50
428.25	1310.70
428.45	1208.30
428.66	1267.69
428.86	1269.74
429.07	1224.69
429.28	1257.45
429.48	1288.17
429.69	1275.88
429.89	1175.53
430.10	1357.80
430.30	1257.45
430.51	1245.16
430.71	1230.83
430.92	1208.30
431.13	1282.03
431.33	1290.22
431.54	1251.31
431.74	1288.17
431.95	1302.51
432.15	1220.59
432.36	1333.23
432.56	1279.98
432.77	1306.60
432.98	1171.44
433.18	1282.03
433.39	1366.00
433.59	1232.88
433.80	1275.88
434.00	1292.27
434.21	1392.62
434.41	1171.44
434.62	1261.55
434.82	1222.64
435.03	1241.07
435.23	1204.21
435.44	1232.88
435.64	1245.16
435.85	1273.84
436.06	1183.73
436.26	1208.30
436.47	1253.36
436.67	1253.36
436.88	1290.22
437.08	1265.64
437.29	1290.22
437.49	1273.84
437.70	1193.97
437.90	1247.21
438.11	1284.08
438.31	1282.03
438.52	1277.93
438.72	1239.02
438.93	1255.40
439.13	1306.60
439.34	1261.55
439.54	1279.98
439.75	1249.26
439.95	1316.84
440.16	1243.12
440.36	1265.64
440.57	1322.99
440.77	1177.58
440.98	1275.88
441.18	1243.12
441.39	1273.84
441.59	1359.85
441.80	1249.26
442.00	1228.78
442.21	1318.89
442.41	1257.45
442.62	1312.75
442.82	1296.36
443.02	1208.30
443.23	1286.12
443.43	1226.73
443.64	1325.04
443.84	1167.34
444.05	1269.74
444.25	1267.69
444.46	1232.88
444.66	1267.69
444.87	1288.17
445.07	1257.45
445.28	1222.64
445.48	1245.16
445.69	1189.87
445.89	1322.99
446.09	1314.80
446.30	1232.88
446.50	1277.93
446.71	1234.93
446.91	1282.03
447.12	1290.22
447.32	1230.83
447.53	1320.94
447.73	1306.60
447.93	1224.69
448.14	1351.66
448.34	1267.69
448.55	1306.60
448.75	1251.31
448.96	1249.26
449.16	1271.79
449.36	1331.18
449.57	1249.26
449.77	1300.46
449.98	1263.60
450.18	1298.41
450.39	1363.95
450.59	1265.64
450.79	1253.36
451.00	1257.45
451.20	1277.93
451.41	1249.26
451.61	1255.40
451.81	1249.26
452.02	1232.88
452.22	1353.71
452.43	1267.69
452.63	1339.37
452.84	1316.84
453.04	1337.32
453.24	1304.56
453.45	1316.84
453.65	1302.51
453.86	1247.21
454.06	1310.70
454.26	1198.06
454.47	1306.60
454.67	1300.46
454.87	1286.12
455.08	1296.36
455.28	1339.37
455.49	1204.21
455.69	1304.56
455.89	1339.37
456.10	1267.69
456.30	1343.47
456.51	1247.21
456.71	1282.03
456.91	1267.69
457.12	1286.12
457.32	1376.24
457.52	1298.41
457.73	1304.56
457.93	1257.45
458.14	1302.51
458.34	1316.84
458.54	1269.74
458.75	1329.13
458.95	1273.84
459.15	1277.93
459.36	1279.98
459.56	1216.49
459.76	1304.56
459.97	1284.08
460.17	1279.98
460.37	1214.45
460.58	1220.59
460.78	1322.99
460.99	1343.47
461.19	1312.75
461.39	1269.74
461.60	1175.53
461.80	1347.56
462.00	1296.36
462.21	1257.45
462.41	1226.73
462.61	1247.21
462.82	1308.65
463.02	1302.51
463.22	1234.93
463.43	1359.85
463.63	1320.94
463.83	1286.12
464.04	1224.69
464.24	1249.26
464.44	1265.64
464.64	1286.12
464.85	1294.32
465.05	1331.18
465.25	1224.69
465.46	1239.02
465.66	1239.02
465.86	1312.75
466.07	1327.08
466.27	1249.26
466.47	1232.88
466.68	1208.30
466.88	1249.26
467.08	1257.45
467.29	1267.69
467.49	1249.26
467.69	1308.65
467.89	1257.45
468.10	1224.69
468.30	1232.88
468.50	1271.79
468.71	1361.90
468.91	1263.60
469.11	1247.21
469.31	1222.64
469.52	1322.99
469.72	1331.18
469.92	1318.89
470.13	1243.12
470.33	1232.88
470.53	1282.03
470.73	1216.49
470.94	1234.93
471.14	1243.12
471.34	1320.94
471.54	1271.79
471.75	1320.94
471.95	1179.63
472.15	1320.94
472.36	1279.98
472.56	1286.12
472.76	1185.77
472.96	1318.89
473.17	1306.60
473.37	1249.26
473.57	1247.21
473.77	1251.31
473.98	1241.07
474.18	1247.21
474.38	1275.88
474.58	1388.52
474.79	1267.69
474.99	1292.27
475.19	1298.41
475.39	1271.79
475.60	1310.70
475.80	1275.88
476.00	1339.37
476.20	1249.26
476.41	1259.50
476.61	1294.32
476.81	1255.40
477.01	1261.55
477.21	1294.32
477.42	1279.98
477.62	1241.07
477.82	1361.90
478.02	1243.12
478.23	1239.02
478.43	1347.56
478.63	1302.51
478.83	1198.06
479.03	1263.60
479.24	1282.03
479.44	1368.04
479.64	1304.56
479.84	1204.21
480.04	1294.32
480.25	1247.21
480.45	1296.36
480.65	1241.07
480.85	1243.12
481.06	1290.22
481.26	1224.69
481.46	1267.69
481.66	1286.12
481.86	1232.88
482.06	1253.36
482.27	1273.84
482.47	1312.75
482.67	1322.99
482.87	1191.92
483.07	1232.88
483.28	1296.36
483.48	1271.79
483.68	1226.73
483.88	1265.64
484.08	1204.21
484.29	1304.56
484.49	1302.51
484.69	1236.97
484.89	1316.84
485.09	1294.32
485.29	1302.51
485.50	1239.02
485.70	1222.64
485.90	1230.83
486.10	1265.64
486.30	1337.32
486.50	1277.93
486.71	1310.70
486.91	1314.80
487.11	1345.52
487.31	1261.55
487.51	1257.45
487.71	1331.18
487.91	1310.70
488.12	1279.98
488.32	1284.08
488.52	1302.51
488.72	1288.17
488.92	1308.65
489.12	1273.84
489.32	1265.64
489.53	1261.55
489.73	1261.55
489.93	1345.52
490.13	1284.08
490.33	1245.16
490.53	1193.97
490.73	1273.84
490.94	1273.84
491.14	1302.51
491.34	1251.31
491.54	1327.08
491.74	1214.45
491.94	1310.70
492.14	1300.46
492.34	1232.88
492.54	1277.93
492.75	1230.83
492.95	1282.03
493.15	1316.84
493.35	1284.08
493.55	1247.21
493.75	1312.75
493.95	1277.93
494.15	1351.66
494.35	1253.36
494.56	1224.69
494.76	1193.97
494.96	1329.13
495.16	1284.08
495.36	1277.93
495.56	1271.79
495.76	1261.55
495.96	1255.40
496.16	1277.93
496.36	1286.12
496.56	1251.31
496.77	1271.79
496.97	1208.30
497.17	1257.45
497.37	1277.93
497.57	1239.02
497.77	1245.16
497.97	1257.45
498.17	1298.41
498.37	1279.98
498.57	1273.84
498.77	1251.31
498.97	1333.23
499.17	1290.22
499.38	1265.64
499.58	1279.98
499.78	1277.93
499.98	1286.12
500.18	1265.64
500.38	1298.41
500.58	1241.07
500.78	1306.60
500.98	1275.88
501.18	1230.83
501.38	1320.94
501.58	1302.51
501.78	1271.79
501.98	1271.79
502.18	1284.08
502.38	1247.21
502.58	1292.27
502.78	1282.03
502.98	1263.60
503.18	1249.26
503.38	1267.69
503.59	1271.79
503.79	1345.52
503.99	1239.02
504.19	1255.40
504.39	1277.93
504.59	1228.78
504.79	1302.51
504.99	1286.12
505.19	1308.65
505.39	1232.88
505.59	1261.55
505.79	1257.45
505.99	1267.69
506.19	1214.45
506.39	1261.55
506.59	1284.08
506.79	1245.16
506.99	1302.51
507.19	1261.55
507.39	1239.02
507.59	1298.41
507.79	1294.32
507.99	1275.88
508.19	1288.17
508.39	1216.49
508.59	1298.41
508.79	1232.88
508.99	1290.22
509.19	1255.40
509.39	1322.99
509.59	1296.36
509.79	1247.21
509.99	1292.27
510.19	1282.03
510.39	1249.26
510.59	1206.25
510.79	1245.16
510.99	1245.16
511.19	1306.60
511.39	1282.03
511.59	1241.07
511.79	1304.56
511.99	1314.80
512.19	1318.89
512.38	1251.31
512.58	1263.60
512.78	1277.93
512.98	1259.50
513.18	1245.16
513.38	1296.36
513.58	1329.13
513.78	1343.47
513.98	1308.65
514.18	1302.51
514.38	1259.50
514.58	1261.55
514.78	1345.52
514.98	1251.31
515.18	1247.21
515.38	1255.40
515.58	1314.80
515.78	1236.97
515.98	1236.97
516.18	1247.21
516.38	1306.60
516.57	1253.36
516.77	1263.60
516.97	1259.50
517.17	1396.71
517.37	1230.83
517.57	1232.88
517.77	1368.04
517.97	1275.88
518.17	1345.52
518.37	1261.55
518.57	1322.99
518.77	1300.46
518.97	1220.59
519.16	1302.51
519.36	1206.25
519.56	1273.84
519.76	1290.22
519.96	1277.93
520.16	1239.02
520.36	1320.94
520.56	1320.94
520.76	1263.60
520.96	1271.79
521.16	1273.84
521.35	1347.56
521.55	1325.04
521.75	1337.32
521.95	1249.26
522.15	1228.78
522.35	1288.17
522.55	1255.40
522.75	1294.32
522.95	1265.64
523.14	1247.21
523.34	1279.98
523.54	1228.78
523.74	1347.56
523.94	1279.98
524.14	1325.04
524.34	1200.11
524.54	1251.31
524.73	1224.69
524.93	1269.74
525.13	1290.22
525.33	1277.93
525.53	1243.12
525.73	1286.12
525.93	1314.80
526.13	1269.74
526.32	1282.03
526.52	1232.88
526.72	1257.45
526.92	1292.27
527.12	1241.07
527.32	1290.22
527.52	1290.22
527.71	1261.55
527.91	1279.98
528.11	1298.41
528.31	1304.56
528.51	1288.17
528.71	1222.64
528.90	1222.64
529.10	1316.84
529.30	1366.00
529.50	1245.16
529.70	1325.04
529.90	1298.41
530.09	1292.27
530.29	1275.88
530.49	1339.37
530.69	1316.84
530.89	1279.98
531.09	1251.31
531.28	1241.07
531.48	1249.26
531.68	1312.75
531.88	1232.88
532.08	1241.07
532.28	1249.26
532.47	1253.36
532.67	1263.60
532.87	1298.41
533.07	1273.84
533.27	1189.87
533.46	1249.26
533.66	1245.16
533.86	1224.69
534.06	1308.65
534.26	1306.60
534.45	1241.07
534.65	1150.96
534.85	1253.36
535.05	1245.16
535.25	1236.97
535.44	1282.03
535.64	1253.36
535.84	1320.94
536.04	1312.75
536.24	1312.75
536.43	1312.75
536.63	1239.02
536.83	1286.12
537.03	1234.93
537.22	1255.40
537.42	1337.32
537.62	1345.52
537.82	1282.03
538.02	1327.08
538.21	1234.93
538.41	1230.83
538.61	1286.12
538.81	1198.06
539.00	1329.13
539.20	1253.36
539.40	1290.22
539.60	1245.16
539.79	1279.98
539.99	1228.78
540.19	1314.80
540.39	1341.42
540.58	1279.98
540.78	1286.12
540.98	1218.54
541.18	1290.22
541.37	1294.32
541.57	1294.32
541.77	1249.26
541.97	1277.93
542.16	1325.04
542.36	1257.45
542.56	1222.64
542.76	1316.84
542.95	1271.79
543.15	1327.08
543.35	1294.32
543.54	1298.41
543.74	1370.09
543.94	1290.22
544.14	1331.18
544.33	1304.56
544.53	1290.22
544.73	1267.69
544.93	1241.07
545.12	1255.40
545.32	1257.45
545.52	1282.03
545.71	1243.12
545.91	1318.89
546.11	1298.41
546.30	1271.79
546.50	1273.84
546.70	1279.98
546.90	1251.31
547.09	1253.36
547.29	1294.32
547.49	1286.12
547.68	1320.94
547.88	1288.17
548.08	1257.45
548.27	1284.08
548.47	1271.79
548.67	1241.07
548.87	1296.36
549.06	1316.84
549.26	1277.93
549.46	1282.03
549.65	1245.16
549.85	1314.80
550.05	1282.03
550.24	1306.60
550.44	1218.54
550.64	1322.99
550.83	1257.45
551.03	1277.93
551.23	1306.60
551.42	1271.79
551.62	1312.75
551.82	1288.17
552.01	1275.88
552.21	1300.46
552.41	1249.26
552.60	1222.64
552.80	1312.75
553.00	1279.98
553.19	1320.94
553.39	1234.93
553.59	1267.69
553.78	1236.97
553.98	1302.51
554.17	1308.65
554.37	1277.93
554.57	1279.98
554.76	1236.97
554.96	1253.36
555.16	1294.32
555.35	1271.79
555.55	1273.84
555.75	1273.84
555.94	1288.17
556.14	1230.83
556.33	1265.64
556.53	1257.45
556.73	1318.89
556.92	1292.27
557.12	1253.36
557.32	1284.08
557.51	1222.64
557.71	1249.26
557.90	1279.98
558.10	1241.07
558.30	1331.18
558.49	1325.04
558.69	1200.11
558.88	1310.70
559.08	1339.37
559.28	1296.36
559.47	1368.04
559.67	1253.36
559.86	1249.26
560.06	1212.40
560.26	1292.27
560.45	1304.56
560.65	1294.32
560.84	1290.22
561.04	1261.55
561.24	1236.97
561.43	1232.88
561.63	1314.80
561.82	1282.03
562.02	1279.98
562.22	1259.50
562.41	1265.64
562.61	1320.94
562.80	1304.56
563.00	1363.95
563.19	1349.61
563.39	1271.79
563.59	1251.31
563.78	1294.32
563.98	1294.32
564.17	1320.94
564.37	1302.51
564.56	1292.27
564.76	1239.02
564.96	1314.80
565.15	1173.49
565.35	1304.56
565.54	1345.52
565.74	1316.84
565.93	1288.17
566.13	1247.21
566.32	1298.41
566.52	1257.45
566.71	1224.69
566.91	1306.60
567.11	1304.56
567.30	1261.55
567.50	1269.74
567.69	1214.45
567.89	1257.45
568.08	1208.30
568.28	1298.41
568.47	1304.56
568.67	1259.50
568.86	1241.07
569.06	1245.16
569.25	1320.94
569.45	1187.82
569.64	1273.84
569.84	1257.45
570.04	1212.40
570.23	1316.84
570.43	1216.49
570.62	1282.03
570.82	1234.93
571.01	1220.59
571.21	1265.64
571.40	1265.64
571.60	1279.98
571.79	1277.93
571.99	1271.79
572.18	1337.32
572.38	1286.12
572.57	1368.04
572.77	1206.25
572.96	1310.70
573.16	1257.45
573.35	1234.93
573.55	1236.97
573.74	1304.56
573.94	1251.31
574.13	1169.39
574.33	1304.56
574.52	1249.26
574.71	1277.93
574.91	1241.07
575.10	1286.12
575.30	1236.97
575.49	1320.94
575.69	1312.75
575.88	1257.45
576.08	1282.03
576.27	1322.99
576.47	1251.31
576.66	1271.79
576.86	1265.64
577.05	1286.12
577.25	1257.45
577.44	1316.84
577.64	1234.93
577.83	1257.45
578.02	1318.89
578.22	1228.78
578.41	1230.83
578.61	1232.88
578.80	1261.55
579.00	1310.70
579.19	1290.22
579.39	1247.21
579.58	1300.46
579.77	1263.60
579.97	1345.52
580.16	1277.93
580.36	1161.20
580.55	1314.80
580.75	1269.74
580.94	1200.11
581.13	1255.40
581.33	1253.36
581.52	1241.07
581.72	1361.90
581.91	1304.56
582.11	1286.12
582.30	1273.84
582.49	1304.56
582.69	1327.08
582.88	1261.55
583.08	1191.92
583.27	1302.51
583.47	1331.18
583.66	1277.93
583.85	1243.12
584.05	1298.41
584.24	1230.83
584.44	1306.60
584.63	1331.18
584.82	1355.76
585.02	1308.65
585.21	1312.75
585.41	1245.16
585.60	1275.88
585.79	1329.13
585.99	1263.60
586.18	1241.07
586.37	1255.40
586.57	1173.49
586.76	1273.84
586.96	1206.25
587.15	1279.98
587.34	1298.41
587.54	1273.84
587.73	1267.69
587.93	1251.31
588.12	1236.97
588.31	1312.75
588.51	1261.55
588.70	1337.32
588.89	1288.17
589.09	1269.74
589.28	1245.16
589.47	1296.36
589.67	1216.49
589.86	1339.37
590.06	1236.97
590.25	1210.35
590.44	1310.70
590.64	1296.36
590.83	1247.21
591.02	1284.08
591.22	1212.40
591.41	1282.03
591.60	1265.64
591.80	1271.79
591.99	1247.21
592.18	1304.56
592.38	1245.16
592.57	1331.18
592.76	1253.36
592.96	1271.79
593.15	1247.21
593.34	1251.31
593.54	1325.04
593.73	1251.31
593.92	1300.46
594.12	1288.17
594.31	1265.64
594.50	1327.08
594.70	1300.46
594.89	1329.13
595.08	1304.56
595.28	1337.32
595.47	1294.32
595.66	1269.74
595.86	1271.79
596.05	1255.40
596.24	1277.93
596.43	1312.75
596.63	1282.03
596.82	1290.22
597.01	1275.88
597.21	1343.47
597.40	1279.98
597.59	1302.51
597.79	1306.60
597.98	1290.22
598.17	1294.32
598.36	1355.76
598.56	1312.75
598.75	1288.17
598.94	1224.69
599.14	1310.70
599.33	1298.41
599.52	1273.84
599.71	1279.98
599.91	1310.70
600.10	1269.74
600.29	1286.12
600.48	1300.46
600.68	1320.94
600.87	1204.21
601.06	1294.32
601.26	1245.16
601.45	1236.97
601.64	1265.64
601.83	1339.37
602.03	1277.93
602.22	1314.80
602.41	1300.46
602.60	1218.54
602.80	1269.74
602.99	1312.75
603.18	1279.98
603.37	1312.75
603.57	1247.21
603.76	1241.07
603.95	1374.19
604.14	1310.70
604.34	1314.80
604.53	1306.60
604.72	1378.28
604.91	1306.60
605.10	1290.22
605.30	1253.36
605.49	1279.98
605.68	1271.79
605.87	1247.21
606.07	1361.90
606.26	1271.79
606.45	1378.28
606.64	1327.08
606.84	1236.97
607.03	1322.99
607.22	1212.40
607.41	1314.80
607.60	1277.93
607.80	1347.56
607.99	1189.87
608.18	1320.94
608.37	1292.27
608.56	1302.51
608.76	1183.73
608.95	1279.98
609.14	1251.31
609.33	1359.85
609.52	1308.65
609.72	1286.12
609.91	1277.93
610.10	1271.79
610.29	1236.97
610.48	1271.79
610.68	1253.36
610.87	1308.65
611.06	1298.41
611.25	1259.50
611.44	1298.41
611.63	1273.84
611.83	1282.03
612.02	1271.79
612.21	1251.31
612.40	1288.17
612.59	1239.02
612.79	1312.75
612.98	1257.45
613.17	1251.31
613.36	1294.32
613.55	1306.60
613.74	1316.84
613.93	1259.50
614.13	1290.22
614.32	1282.03
614.51	1271.79
614.70	1267.69
614.89	1243.12
615.08	1314.80
615.28	1322.99
615.47	1298.41
615.66	1241.07
615.85	1288.17
616.04	1322.99
616.23	1251.31
616.42	1308.65
616.62	1265.64
616.81	1265.64
617.00	1257.45
617.19	1292.27
617.38	1275.88
617.57	1320.94
617.76	1273.84
617.95	1279.98
618.15	1290.22
618.34	1361.90
618.53	1232.88
618.72	1310.70
618.91	1220.59
619.10	1320.94
619.29	1277.93
619.48	1300.46
619.68	1300.46
619.87	1241.07
620.06	1298.41
620.25	1349.61
620.44	1318.89
620.63	1257.45
620.82	1312.75
621.01	1290.22
621.20	1294.32
621.39	1165.29
621.59	1286.12
621.78	1263.60
621.97	1284.08
622.16	1269.74
622.35	1374.19
622.54	1224.69
622.73	1306.60
622.92	1292.27
623.11	1286.12
623.30	1341.42
623.49	1288.17
623.68	1294.32
623.88	1320.94
624.07	1325.04
624.26	1263.60
624.45	1333.23
624.64	1241.07
624.83	1294.32
625.02	1269.74
625.21	1318.89
625.40	1296.36
625.59	1298.41
625.78	1318.89
625.97	1292.27
626.16	1349.61
626.35	1273.84
626.54	1296.36
626.74	1347.56
626.93	1320.94
627.12	1314.80
627.31	1261.55
627.50	1304.56
627.69	1292.27
627.88	1308.65
628.07	1337.32
628.26	1351.66
628.45	1275.88
628.64	1322.99
628.83	1347.56
629.02	1347.56
629.21	1308.65
629.40	1343.47
629.59	1357.80
629.78	1290.22
629.97	1277.93
630.16	1298.41
630.35	1269.74
630.54	1331.18
630.73	1271.79
630.92	1308.65
631.11	1349.61
631.30	1406.95
631.49	1400.81
631.68	1525.74
631.87	1974.24
632.06	2713.56
632.25	2195.42
632.44	2344.92
632.63	2205.66
632.82	2076.64
633.01	2777.05
633.20	3002.32
633.39	2990.03
633.58	2979.79
633.77	4347.84
633.96	4698.04
634.15	4751.29
634.34	6041.51
634.53	13121.34
634.72	27893.33
634.91	41352.58
635.10	45073.74
635.29	38499.76
635.48	28757.58
635.67	19928.78
635.86	12808.00
636.05	7896.97
636.24	4544.44
636.43	2736.09
636.62	1824.74
636.81	1495.02
637.00	1462.25
637.19	1366.00
637.38	1368.04
637.57	1409.00
637.76	1322.99
637.95	1327.08
638.14	1353.71
638.33	1368.04
638.52	1257.45
638.71	1333.23
638.89	1304.56
639.08	1320.94
639.27	1314.80
639.46	1304.56
639.65	1322.99
639.84	1347.56
640.03	1372.14
640.22	1310.70
640.41	1290.22
640.60	1294.32
640.79	1292.27
640.98	1304.56
641.17	1329.13
641.36	1357.80
641.55	1279.98
641.74	1257.45
641.92	1361.90
642.11	1226.73
642.30	1263.60
642.49	1257.45
642.68	1296.36
642.87	1286.12
643.06	1284.08
643.25	1269.74
643.44	1337.32
643.63	1220.59
643.82	1255.40
644.00	1269.74
644.19	1267.69
644.38	1189.87
644.57	1271.79
644.76	1282.03
644.95	1279.98
645.14	1286.12
645.33	1298.41
645.52	1290.22
645.71	1265.64
645.89	1316.84
646.08	1341.42
646.27	1329.13
646.46	1322.99
646.65	1282.03
646.84	1322.99
647.03	1312.75
647.22	1175.53
647.40	1261.55
647.59	1298.41
647.78	1265.64
647.97	1361.90
648.16	1206.25
648.35	1271.79
648.54	1265.64
648.73	1331.18
648.91	1255.40
649.10	1294.32
649.29	1279.98
649.48	1306.60
649.67	1290.22
649.86	1322.99
650.05	1277.93
650.23	1337.32
650.42	1302.51
650.61	1345.52
650.80	1220.59
650.99	1286.12
651.18	1296.36
651.36	1277.93
651.55	1241.07
651.74	1249.26
651.93	1331.18
652.12	1204.21
652.31	1296.36
652.49	1357.80
652.68	1298.41
652.87	1259.50
653.06	1263.60
653.25	1259.50
653.44	1290.22
653.62	1298.41
653.81	1243.12
654.00	1185.77
654.19	1261.55
654.38	1296.36
654.56	1216.49
654.75	1271.79
654.94	1335.28
655.13	1294.32
655.32	1271.79
655.51	1304.56
655.69	1249.26
655.88	1286.12
656.07	1249.26
656.26	1273.84
656.45	1230.83
656.63	1214.45
656.82	1298.41
657.01	1269.74
657.20	1247.21
657.38	1284.08
657.57	1257.45
657.76	1282.03
657.95	1288.17
658.14	1269.74
658.32	1273.84
658.51	1271.79
658.70	1236.97
658.89	1279.98
659.08	1298.41
659.26	1259.50
659.45	1370.09
659.64	1275.88
659.83	1263.60
660.01	1288.17
660.20	1216.49
660.39	1331.18
660.58	1251.31
660.76	1253.36
660.95	1200.11
661.14	1239.02
661.33	1277.93
661.51	1220.59
661.70	1243.12
661.89	1216.49
662.08	1167.34
662.26	1273.84
662.45	1366.00
662.64	1265.64
662.83	1294.32
663.01	1249.26
663.20	1300.46
663.39	1288.17
663.58	1366.00
663.76	1230.83
663.95	1288.17
664.14	1273.84
664.32	1290.22
664.51	1263.60
664.70	1257.45
664.89	1208.30
665.07	1339.37
665.26	1316.84
665.45	1255.40
665.64	1304.56
665.82	1241.07
666.01	1265.64
666.20	1316.84
666.38	1296.36
666.57	1214.45
666.76	1333.23
666.95	1310.70
667.13	1257.45
667.32	1300.46
667.51	1302.51
667.69	1249.26
667.88	1277.93
668.07	1247.21
668.25	1279.98
668.44	1271.79
668.63	1257.45
668.81	1306.60
669.00	1304.56
669.19	1228.78
669.38	1302.51
669.56	1243.12
669.75	1316.84
669.94	1243.12
670.12	1275.88
670.31	1253.36
670.50	1208.30
670.68	1234.93
670.87	1286.12
671.06	1224.69
671.24	1261.55
671.43	1263.60
671.62	1308.65
671.80	1218.54
671.99	1345.52
672.18	1308.65
672.36	1273.84
672.55	1204.21
672.74	1292.27
672.92	1232.88
673.11	1298.41
673.29	1312.75
673.48	1327.08
673.67	1286.12
673.85	1249.26
674.04	1257.45
674.23	1243.12
674.41	1222.64
674.60	1257.45
674.79	1267.69
674.97	1241.07
675.16	1269.74
675.34	1333.23
675.53	1257.45
675.72	1282.03
675.90	1288.17
676.09	1208.30
676.28	1339.37
676.46	1239.02
676.65	1322.99
676.83	1263.60
677.02	1257.45
677.21	1191.92
677.39	1265.64
677.58	1349.61
677.77	1316.84
677.95	1298.41
678.14	1222.64
678.32	1329.13
678.51	1263.60
678.70	1327.08
678.88	1257.45
679.07	1243.12
679.25	1296.36
679.44	1269.74
679.63	1290.22
679.81	1353.71
680.00	1271.79
680.18	1273.84
680.37	1228.78
680.55	1249.26
680.74	1282.03
680.93	1251.31
681.11	1273.84
681.30	1216.49
681.48	1312.75
681.67	1247.21
681.85	1294.32
682.04	1279.98
682.23	1257.45
682.41	1253.36
682.60	1263.60
682.78	1320.94
682.97	1183.73
683.15	1259.50
683.34	1200.11
683.53	1273.84
683.71	1230.83
683.90	1193.97
684.08	1210.35
684.27	1224.69
684.45	1310.70
684.64	1325.04
684.82	1259.50
685.01	1343.47
685.19	1294.32
685.38	1339.37
685.57	1249.26
685.75	1243.12
685.94	1220.59
686.12	1282.03
686.31	1314.80
686.49	1265.64
686.68	1277.93
686.86	1175.53
687.05	1296.36
687.23	1265.64
687.42	1279.98
687.60	1259.50
687.79	1245.16
687.97	1288.17
688.16	1257.45
688.34	1308.65
688.53	1253.36
688.71	1224.69
688.90	1343.47
689.08	1261.55
689.27	1243.12
689.45	1241.07
689.64	1239.02
689.82	1277.93
690.01	1318.89
690.19	1261.55
690.38	1267.69
690.56	1304.56
690.75	1245.16
690.93	1263.60
691.12	1269.74
691.30	1296.36
691.49	1263.60
691.67	1263.60
691.86	1306.60
692.04	1261.55
692.23	1298.41
692.41	1255.40
692.60	1284.08
692.78	1288.17
692.97	1300.46
693.15	1265.64
693.34	1236.97
693.52	1300.46
693.71	1284.08
693.89	1284.08
694.08	1241.07
694.26	1251.31
694.44	1292.27
694.63	1175.53
694.81	1308.65
695.00	1234.93
695.18	1202.16
695.37	1282.03
695.55	1230.83
695.74	1226.73
695.92	1284.08
696.10	1249.26
696.29	1249.26
696.47	1265.64
696.66	1292.27
696.84	1275.88
697.03	1279.98
697.21	1263.60
697.40	1267.69
697.58	1218.54
697.76	1247.21
697.95	1329.13
698.13	1234.93
698.32	1284.08
698.50	1245.16
698.68	1292.27
698.87	1368.04
699.05	1304.56
699.24	1265.64
699.42	1325.04
699.61	1298.41
699.79	1292.27
699.97	1181.68
700.16	1312.75
700.34	1236.97
700.53	1216.49
700.71	1273.84
700.89	1236.97
701.08	1243.12
701.26	1253.36
701.45	1306.60
701.63	1241.07
701.81	1312.75
702.00	1316.84
702.18	1298.41
702.37	1269.74
702.55	1265.64
702.73	1273.84
702.92	1277.93
703.10	1216.49
703.28	1202.16
703.47	1224.69
703.65	1259.50
703.84	1263.60
704.02	1236.97
704.20	1253.36
704.39	1214.45
704.57	1275.88
704.75	1271.79
704.94	1292.27
705.12	1327.08
705.30	1282.03
705.49	1263.60
705.67	1312.75
705.86	1222.64
706.04	1204.21
706.22	1271.79
706.41	1208.30
706.59	1275.88
706.77	1239.02
706.96	1322.99
707.14	1177.58
707.32	1243.12
707.51	1263.60
707.69	1220.59
707.87	1243.12
708.06	1273.84
708.24	1284.08
708.42	1269.74
708.61	1294.32
708.79	1335.28
708.97	1359.85
709.16	1249.26
709.34	1325.04
709.52	1218.54
709.71	1263.60
709.89	1290.22
710.07	1259.50
710.26	1224.69
710.44	1249.26
710.62	1312.75
710.80	1253.36
710.99	1228.78
711.17	1243.12
711.35	1220.59
711.54	1243.12
711.72	1247.21
711.90	1275.88
712.09	1279.98
712.27	1257.45
712.45	1269.74
712.63	1247.21
712.82	1271.79
713.00	1245.16
713.18	1251.31
713.37	1329.13
713.55	1357.80
713.73	1273.84
713.91	1257.45
714.10	1286.12
714.28	1277.93
714.46	1284.08
714.65	1310.70
714.83	1300.46
715.01	1284.08
715.19	1249.26
715.38	1312.75
715.56	1294.32
715.74	1306.60
715.92	1275.88
716.11	1269.74
716.29	1200.11
716.47	1271.79
716.65	1212.40
716.84	1196.01
717.02	1329.13
717.20	1273.84
717.38	1273.84
717.57	1234.93
717.75	1308.65
717.93	1249.26
718.11	1218.54
718.30	1198.06
718.48	1212.40
718.66	1241.07
718.84	1247.21
719.03	1241.07
719.21	1241.07
719.39	1302.51
719.57	1220.59
719.75	1284.08
719.94	1275.88
720.12	1245.16
720.30	1329.13
720.48	1306.60
720.67	1249.26
720.85	1294.32
721.03	1282.03
721.21	1220.59
721.39	1304.56
721.58	1234.93
721.76	1267.69
721.94	1222.64
722.12	1232.88
722.30	1245.16
722.49	1277.93
722.67	1288.17
722.85	1322.99
723.03	1257.45
723.21	1206.25
723.40	1284.08
723.58	1255.40
723.76	1249.26
723.94	1318.89
724.12	1298.41
724.30	1302.51
724.49	1265.64
724.67	1249.26
724.85	1322.99
725.03	1239.02
725.21	1224.69
725.40	1265.64
725.58	1234.93
725.76	1320.94
725.94	1306.60
726.12	1239.02
726.30	1249.26
726.49	1279.98
726.67	1288.17
726.85	1318.89
727.03	1253.36
727.21	1363.95
727.39	1284.08
727.57	1277.93
727.76	1290.22
727.94	1251.31
728.12	1228.78
728.30	1284.08
728.48	1318.89
728.66	1331.18
728.84	1284.08
729.03	1245.16
729.21	1239.02
729.39	1279.98
729.57	1257.45
729.75	1271.79
729.93	1245.16
730.11	1296.36
730.30	1314.80
730.48	1212.40
730.66	1239.02
730.84	1335.28
731.02	1275.88
731.20	1308.65
731.38	1271.79
731.56	1259.50
731.74	1234.93
731.93	1271.79
732.11	1263.60
732.29	1239.02
732.47	1222.64
732.65	1261.55
732.83	1292.27
733.01	1310.70
733.19	1239.02
733.37	1214.45
733.56	1236.97
733.74	1255.40
733.92	1271.79
734.10	1239.02
734.28	1224.69
734.46	1214.45
734.64	1226.73
734.82	1230.83
735.00	1316.84
735.18	1263.60
735.36	1255.40
735.54	1212.40
735.73	1273.84
735.91	1308.65
736.09	1282.03
736.27	1208.30
736.45	1273.84
736.63	1261.55
736.81	1292.27
736.99	1232.88
737.17	1245.16
737.35	1329.13
737.53	1265.64
737.71	1210.35
737.89	1265.64
738.07	1212.40
738.25	1214.45
738.43	1306.60
738.61	1261.55
738.80	1261.55
738.98	1259.50
739.16	1271.79
739.34	1296.36
739.52	1216.49
739.70	1255.40
739.88	1275.88
740.06	1290.22
740.24	1304.56
740.42	1247.21
740.60	1273.84
740.78	1306.60
740.96	1325.04
741.14	1271.79
741.32	1257.45
741.50	1253.36
741.68	1290.22
741.86	1284.08
742.04	1245.16
742.22	1294.32
742.40	1257.45
742.58	1300.46
742.76	1216.49
742.94	1282.03
743.12	1234.93
743.30	1265.64
743.48	1298.41
743.66	1282.03
743.84	1284.08
744.02	1255.40
744.20	1259.50
744.38	1255.40
744.56	1259.50
744.74	1290.22
744.92	1267.69
745.10	1245.16
745.28	1257.45
745.46	1300.46
745.64	1255.40
745.82	1314.80
746.00	1243.12
746.18	1232.88
746.36	1183.73
746.54	1169.39
746.72	1204.21
746.90	1257.45
747.08	1282.03
747.26	1251.31
747.44	1259.50
747.62	1234.93
747.80	1314.80
747.98	1247.21
748.15	1210.35
748.33	1257.45
748.51	1263.60
748.69	1273.84
748.87	1263.60
749.05	1339.37
749.23	1302.51
749.41	1245.16
749.59	1216.49
749.77	1271.79
749.95	1290.22
750.13	1302.51
750.31	1304.56
750.49	1239.02
750.67	1249.26
750.85	1279.98
751.03	1288.17
751.20	1243.12
751.38	1320.94
751.56	1200.11
751.74	1288.17
751.92	1200.11
752.10	1296.36
752.28	1216.49
752.46	1331.18
752.64	1310.70
752.82	1294.32
753.00	1273.84
753.18	1249.26
753.35	1212.40
753.53	1202.16
753.71	1292.27
753.89	1230.83
754.07	1261.55
754.25	1294.32
754.43	1210.35
754.61	1236.97
754.79	1302.51
754.97	1224.69
755.14	1275.88
755.32	1228.78
755.50	1224.69
755.68	1366.00
755.86	1322.99
756.04	1228.78
756.22	1284.08
756.40	1216.49
756.57	1306.60
756.75	1253.36
756.93	1202.16
757.11	1220.59
757.29	1292.27
757.47	1245.16
757.65	1279.98
757.82	1239.02
758.00	1230.83
758.18	1277.93
758.36	1245.16
758.54	1247.21
758.72	1189.87
758.90	1202.16
759.07	1316.84
759.25	1294.32
759.43	1257.45
759.61	1304.56
759.79	1314.80
759.97	1316.84
760.15	1230.83
760.32	1257.45
760.50	1220.59
760.68	1290.22
760.86	1302.51
761.04	1247.21
761.22	1255.40
761.39	1208.30
761.57	1198.06
761.75	1310.70
761.93	1316.84
762.11	1241.07
762.28	1200.11
762.46	1249.26
762.64	1255.40
762.82	1216.49
763.00	1265.64
763.18	1318.89
763.35	1251.31
763.53	1308.65
763.71	1212.40
763.89	1236.97
764.07	1249.26
764.24	1181.68
764.42	1257.45
764.60	1282.03
764.78	1284.08
764.96	1271.79
765.13	1286.12
765.31	1241.07
765.49	1255.40
765.67	1279.98
765.84	1294.32
766.02	1339.37
766.20	1277.93
766.38	1290.22
766.56	1267.69
766.73	1259.50
766.91	1230.83
767.09	1284.08
767.27	1261.55
767.44	1251.31
767.62	1216.49
767.80	1286.12
767.98	1208.30
768.15	1267.69
768.33	1282.03
768.51	1271.79
768.69	1349.61
768.87	1249.26
769.04	1236.97
769.22	1255.40
769.40	1277.93
769.58	1255.40
769.75	1216.49
769.93	1339.37
770.11	1222.64
770.28	1247.21
770.46	1224.69
770.64	1292.27
770.82	1249.26
770.99	1243.12
771.17	1257.45
771.35	1304.56
771.53	1251.31
771.70	1261.55
771.88	1236.97
772.06	1265.64
772.23	1265.64
772.41	1239.02
772.59	1159.15
772.77	1183.73
772.94	1284.08
773.12	1325.04
773.30	1218.54
773.47	1210.35
773.65	1245.16
773.83	1243.12
774.01	1343.47
774.18	1275.88
774.36	1273.84
774.54	1277.93
774.71	1282.03
774.89	1306.60
775.07	1275.88
775.24	1292.27
775.42	1322.99
775.60	1273.84
775.78	1185.77
775.95	1288.17
776.13	1236.97
776.31	1228.78
776.48	1191.92
776.66	1286.12
776.84	1304.56
777.01	1273.84
777.19	1202.16
777.37	1265.64
777.54	1275.88
777.72	1273.84
777.90	1261.55
778.07	1257.45
778.25	1279.98
778.43	1255.40
778.60	1279.98
778.78	1243.12
778.96	1261.55
779.13	1259.50
779.31	1302.51
779.49	1183.73
779.66	1302.51
779.84	1314.80
780.01	1294.32
780.19	1226.73
780.37	1298.41
780.54	1277.93
780.72	1243.12
780.90	1214.45
781.07	1269.74
781.25	1251.31
781.43	1284.08
781.60	1388.52
781.78	1296.36
781.95	1290.22
782.13	1193.97
782.31	1329.13
782.48	1245.16
782.66	1327.08
782.83	1341.42
783.01	1249.26
783.19	1300.46
783.36	1271.79
783.54	1302.51
783.72	1277.93
783.89	1290.22
784.07	1265.64
784.24	1265.64
784.42	1288.17
784.60	1286.12
784.77	1255.40
784.95	1286.12
785.12	1355.76
785.30	1263.60
785.47	1298.41
785.65	1282.03
785.83	1202.16
786.00	1218.54
786.18	1322.99
786.35	1214.45
786.53	1234.93
786.71	1232.88
786.88	1325.04
787.06	1277.93
787.23	1322.99
787.41	1320.94
787.58	1273.84
787.76	1261.55
787.94	1339.37
788.11	1273.84
788.29	1259.50
788.46	1236.97
788.64	1239.02
788.81	1302.51
788.99	1282.03
789.16	1251.31
789.34	1290.22
789.52	1263.60
789.69	1279.98
789.87	1243.12
790.04	1290.22
790.22	1304.56
790.39	1298.41
790.57	1243.12
790.74	1255.40
790.92	1241.07
791.09	1279.98
791.27	1273.84
791.44	1271.79
791.62	1263.60
791.79	1255.40
791.97	1232.88
792.15	1271.79
792.32	1251.31
792.50	1245.16
792.67	1318.89
792.85	1243.12
793.02	1232.88
793.20	1247.21
793.37	1312.75
793.55	1234.93
793.72	1247.21
793.90	1214.45
794.07	1273.84
794.25	1265.64
794.42	1236.97
794.60	1232.88
794.77	1243.12
794.95	1310.70
795.12	1302.51
795.30	1230.83
795.47	1257.45
795.65	1302.51
795.82	1196.01
796.00	1265.64
796.17	1292.27
796.34	1247.21
796.52	1249.26
796.69	1300.46
796.87	1275.88
797.04	1294.32
797.22	1286.12
797.39	1249.26
797.57	1402.86
797.74	1357.80
797.92	1255.40
798.09	1228.78
798.27	1273.84
798.44	1316.84
798.62	1241.07
798.79	1298.41
798.96	1253.36
799.14	1261.55
799.31	1298.41
799.49	1204.21
799.66	1310.70
799.84	1282.03
800.01	1329.13
800.19	1249.26
800.36	1171.44
800.53	1318.89
800.71	1241.07
800.88	1316.84
801.06	1286.12
801.23	1224.69
801.41	1347.56
801.58	1249.26
801.75	1175.53
801.93	1292.27
802.10	1296.36
802.28	1269.74
802.45	1335.28
802.63	1236.97
802.80	1269.74
802.97	1312.75
803.15	1255.40
803.32	1257.45
803.50	1275.88
803.67	1275.88
803.84	1216.49
804.02	1300.46
804.19	1239.02
804.37	1255.40
804.54	1263.60
804.71	1212.40
804.89	1232.88
805.06	1288.17
805.24	1253.36
805.41	1273.84
805.58	1202.16
805.76	1271.79
805.93	1228.78
806.10	1284.08
806.28	1294.32
806.45	1210.35
806.63	1214.45
806.80	1286.12
806.97	1298.41
807.15	1300.46
807.32	1241.07
807.49	1226.73
807.67	1257.45
807.84	1290.22
808.01	1198.06
808.19	1269.74
808.36	1306.60
808.54	1329.13
808.71	1210.35
808.88	1265.64
809.06	1306.60
809.23	1308.65
809.40	1245.16
809.58	1208.30
809.75	1269.74
809.92	1290.22
810.10	1318.89
810.27	1271.79
810.44	1318.89
810.62	1312.75
810.79	1193.97
810.96	1271.79
811.14	1245.16
811.31	1241.07
811.48	1320.94
811.66	1331.18
811.83	1282.03
812.00	1308.65
812.18	1208.30
812.35	1269.74
812.52	1290.22
812.69	1241.07
812.87	1257.45
813.04	1159.15
813.21	1284.08
813.39	1236.97
813.56	1228.78
813.73	1263.60
813.91	1224.69
814.08	1261.55
814.25	1259.50
814.42	1277.93
814.60	1286.12
814.77	1277.93
814.94	1273.84
815.12	1253.36
815.29	1206.25
815.46	1300.46
815.63	1320.94
815.81	1243.12
815.98	1236.97
816.15	1279.98
816.33	1206.25
816.50	1265.64
816.67	1230.83
816.84	1288.17
817.02	1257.45
817.19	1241.07
817.36	1200.11
817.53	1282.03
817.71	1222.64
817.88	1243.12
818.05	1263.60
818.22	1282.03
818.40	1234.93
818.57	1318.89
818.74	1302.51
818.91	1306.60
819.09	1314.80
819.26	1277.93
819.43	1230.83
819.60	1206.25
819.78	1257.45
819.95	1320.94
820.12	1249.26
820.29	1265.64
820.47	1251.31
820.64	1255.40
820.81	1312.75
820.98	1279.98
821.15	1243.12
821.33	1284.08
821.50	1290.22
821.67	1327.08
821.84	1216.49
822.02	1263.60
822.19	1298.41
822.36	1257.45
822.53	1298.41
822.70	1230.83
822.88	1251.31
823.05	1329.13
823.22	1282.03
823.39	1247.21
823.56	1322.99
823.74	1253.36
823.91	1212.40
824.08	1253.36
824.25	1265.64
824.42	1318.89
824.60	1218.54
824.77	1253.36
824.94	1175.53
825.11	1222.64
825.28	1265.64
825.45	1271.79
825.63	1253.36
825.80	1304.56
825.97	1269.74
826.14	1296.36
826.31	1224.69
826.48	1226.73
826.66	1257.45
826.83	1304.56
827.00	1273.84
827.17	1251.31
827.34	1296.36
827.51	1253.36
827.69	1210.35
827.86	1282.03
828.03	1282.03
828.20	1259.50
828.37	1251.31
828.54	1267.69
828.71	1253.36
828.89	1345.52
829.06	1257.45
829.23	1298.41
829.40	1312.75
829.57	1355.76
829.74	1304.56
829.91	1320.94
830.09	1183.73
830.26	1277.93
830.43	1249.26
830.60	1279.98
830.77	1245.16
830.94	1304.56
831.11	1312.75
831.28	1296.36
831.46	1245.16
831.63	1259.50
831.80	1259.50
831.97	1273.84
832.14	1318.89
832.31	1214.45
832.48	1239.02
832.65	1292.27
832.82	1290.22
832.99	1308.65
833.17	1261.55
833.34	1232.88
833.51	1239.02
833.68	1314.80
833.85	1361.90
834.02	1232.88
834.19	1236.97
834.36	1249.26
834.53	1216.49
834.70	1265.64
834.87	1234.93
835.04	1267.69
835.22	1222.64
835.39	1232.88
835.56	1300.46
835.73	1241.07
835.90	1269.74
836.07	1271.79
836.24	1234.93
836.41	1226.73
836.58	1216.49
836.75	1286.12
836.92	1322.99
837.09	1288.17
837.26	1247.21
837.43	1355.76
837.60	1282.03
837.77	1308.65
837.94	1312.75
838.12	1279.98
838.29	1236.97
838.46	1302.51
838.63	1232.88
838.80	1243.12
838.97	1245.16
839.14	1282.03
839.31	1226.73
839.48	1290.22
839.65	1290.22
839.82	1247.21
839.99	1255.40
840.16	1294.32
840.33	1261.55
840.50	1275.88
840.67	1302.51
840.84	1257.45
841.01	1294.32
841.18	1241.07
841.35	1210.35
841.52	1253.36
841.69	1269.74
841.86	1279.98
842.03	1257.45
842.20	1249.26
842.37	1208.30
842.54	1208.30
842.71	1267.69
842.88	1320.94
843.05	1173.49
843.22	1279.98
843.39	1267.69
843.56	1257.45
843.73	1261.55
843.90	1316.84
844.07	1312.75
844.24	1273.84
844.41	1312.75
844.58	1230.83
844.75	1249.26
844.92	1335.28
845.09	1275.88
845.26	1249.26
845.43	1216.49
845.60	1249.26
845.77	1275.88
845.94	1261.55
846.10	1261.55
846.27	1241.07
846.44	1257.45
846.61	1275.88
846.78	1355.76
846.95	1284.08
847.12	1249.26
847.29	1208.30
847.46	1253.36
847.63	1251.31
847.80	1273.84
847.97	1282.03
848.14	1230.83
848.31	1273.84
848.48	1239.02
848.65	1220.59
848.82	1335.28
848.98	1284.08
849.15	1208.30
849.32	1290.22
849.49	1198.06
849.66	1265.64
849.83	1331.18
850.00	1265.64
850.17	1296.36
850.34	1198.06
850.51	1239.02
850.68	1306.60
850.85	1245.16
851.01	1312.75
851.18	1261.55
851.35	1296.36
851.52	1279.98
851.69	1259.50
851.86	1292.27
852.03	1245.16
852.20	1234.93
852.37	1212.40
852.53	1290.22
852.70	1282.03
852.87	1275.88
853.04	1308.65
853.21	1277.93
853.38	1249.26
853.55	1290.22
853.72	1218.54
853.89	1288.17
854.05	1300.46
854.22	1263.60
854.39	1308.65
854.56	1226.73
854.73	1269.74
854.90	1257.45
855.07	1259.50
855.23	1255.40
855.40	1271.79
855.57	1200.11
855.74	1216.49
855.91	1253.36
856.08	1345.52
856.25	1214.45
856.41	1230.83
856.58	1259.50
856.75	1222.64
856.92	1255.40
857.09	1214.45
857.26	1279.98
857.42	1339.37
857.59	1245.16
857.76	1206.25
857.93	1314.80
858.10	1286.12
858.27	1269.74
858.43	1271.79
858.60	1255.40
858.77	1257.45
858.94	1331.18
859.11	1292.27
859.27	1290.22
859.44	1335.28
859.61	1259.50
859.78	1282.03
859.95	1245.16
860.12	1228.78
860.28	1306.60
860.45	1243.12
860.62	1228.78
860.79	1296.36
860.95	1167.34
861.12	1325.04
861.29	1265.64
861.46	1259.50
861.63	1255.40
861.79	1208.30
861.96	1234.93
862.13	1308.65
862.30	1220.59
862.47	1224.69
862.63	1277.93
862.80	1292.27
862.97	1300.46
863.14	1322.99
863.30	1341.42
863.47	1224.69
863.64	1269.74
863.81	1228.78
863.97	1271.79
864.14	1255.40
864.31	1232.88
864.48	1327.08
864.65	1286.12
864.81	1255.40
864.98	1279.98
865.15	1333.23
865.32	1298.41
865.48	1191.92
865.65	1234.93
865.82	1265.64
865.98	1298.41
866.15	1220.59
866.32	1279.98
866.49	1282.03
866.65	1322.99
866.82	1277.93
866.99	1247.21
867.16	1310.70
867.32	1239.02
867.49	1208.30
867.66	1245.16
867.83	1277.93
867.99	1148.91
868.16	1296.36
868.33	1286.12
868.49	1251.31
868.66	1290.22
868.83	1271.79
868.99	1228.78
869.16	1304.56
869.33	1337.32
869.50	1224.69
869.66	1273.84
869.83	1263.60
870.00	1214.45
870.16	1208.30
870.33	1232.88
870.50	1265.64
870.66	1282.03
870.83	1255.40
871.00	1263.60
871.17	1222.64
871.33	1236.97
871.50	1247.21
871.67	1304.56
871.83	1216.49
872.00	1239.02
872.17	1253.36
872.33	1322.99
872.50	1312.75
872.67	1214.45
872.83	1259.50
873.00	1210.35
873.17	1212.40
873.33	1382.38
873.50	1300.46
873.67	1306.60
873.83	1216.49
874.00	1150.96
874.16	1232.88
874.33	1339.37
874.50	1234.93
874.66	1257.45
874.83	1239.02
875.00	1245.16
875.16	1318.89
875.33	1337.32
875.50	1216.49
875.66	1263.60
875.83	1286.12
875.99	1202.16
876.16	1232.88
876.33	1277.93
876.49	1196.01
876.66	1253.36
876.83	1300.46
876.99	1304.56
877.16	1296.36
877.32	1208.30
877.49	1204.21
877.66	1204.21
877.82	1316.84
877.99	1288.17
878.15	1222.64
878.32	1292.27
878.49	1288.17
878.65	1286.12
878.82	1320.94
878.98	1236.97
879.15	1288.17
879.32	1271.79
879.48	1282.03
879.65	1253.36
879.81	1277.93
879.98	1312.75
880.15	1277.93
880.31	1257.45
880.48	1241.07
880.64	1257.45
880.81	1335.28
880.97	1263.60
881.14	1253.36
881.31	1249.26
881.47	1286.12
881.64	1349.61
881.80	1247.21
881.97	1277.93
882.13	1251.31
882.30	1304.56
882.47	1304.56
882.63	1243.12
882.80	1284.08
882.96	1181.68
883.13	1316.84
883.29	1296.36
883.46	1300.46
883.62	1232.88
883.79	1273.84
883.95	1226.73
884.12	1286.12
884.29	1196.01
884.45	1257.45
884.62	1236.97
884.78	1226.73
884.95	1312.75
885.11	1314.80
885.28	1218.54
885.44	1273.84
885.61	1257.45
885.77	1288.17
885.94	1288.17
886.10	1196.01
886.27	1296.36
886.43	1273.84
886.60	1333.23
886.76	1316.84
886.93	1241.07
887.09	1306.60
887.26	1251.31
887.42	1216.49
887.59	1253.36
887.75	1212.40
887.92	1312.75
888.08	1286.12
888.25	1298.41
888.41	1255.40
888.58	1296.36
888.74	1214.45
888.91	1226.73
>>>>>End Processed Spectral Data<<<<<
