SpectraSuite Data File
++++++++++++++++++++++++++++++++++++
Date: Sun Apr 03 19:55:49 CEST 2016
User: root
Dark Spectrum Present: No
Reference Spectrum Present: No
Number of Sampled Component Spectra: 1
Spectrometers: USB4C02835
Integration Time (usec): 10000 (USB4C02835)
Spectra Averaged: 1 (USB4C02835)
Boxcar Smoothing: 0 (USB4C02835)
Correct for Electrical Dark: No (USB4C02835)
Strobe/Lamp Enabled: No (USB4C02835)
Correct for Detector Non-linearity: No (USB4C02835)
Correct for Stray Light: No (USB4C02835)
Number of Pixels in Processed Spectrum: 3648
>>>>>Begin Processed Spectral Data<<<<<
177.47	1245.16
177.69	1245.16
177.91	1245.16
178.13	1284.08
178.36	1261.55
178.58	1290.22
178.80	1267.69
179.02	1263.60
179.24	1335.28
179.46	1253.36
179.68	1247.21
179.90	1210.35
180.13	1239.02
180.35	1314.80
180.57	1249.26
180.79	1294.32
181.01	1249.26
181.23	1226.73
181.45	1318.89
181.67	1253.36
181.90	1288.17
182.12	1282.03
182.34	1251.31
182.56	1265.64
182.78	1327.08
183.00	1251.31
183.22	1282.03
183.44	1282.03
183.66	1308.65
183.89	1224.69
184.11	1282.03
184.33	1241.07
184.55	1239.02
184.77	1230.83
184.99	1265.64
185.21	1284.08
185.43	1241.07
185.65	1269.74
185.87	1208.30
186.10	1224.69
186.32	1337.32
186.54	1255.40
186.76	1255.40
186.98	1316.84
187.20	1306.60
187.42	1243.12
187.64	1230.83
187.86	1259.50
188.08	1296.36
188.30	1263.60
188.52	1218.54
188.75	1286.12
188.97	1298.41
189.19	1193.97
189.41	1245.16
189.63	1261.55
189.85	1200.11
190.07	1212.40
190.29	1257.45
190.51	1265.64
190.73	1275.88
190.95	1308.65
191.17	1253.36
191.39	1253.36
191.61	1269.74
191.84	1255.40
192.06	1314.80
192.28	1214.45
192.50	1239.02
192.72	1241.07
192.94	1265.64
193.16	1316.84
193.38	1230.83
193.60	1263.60
193.82	1304.56
194.04	1222.64
194.26	1296.36
194.48	1206.25
194.70	1224.69
194.92	1306.60
195.14	1257.45
195.36	1290.22
195.58	1263.60
195.80	1257.45
196.02	1300.46
196.24	1314.80
196.46	1288.17
196.69	1261.55
196.91	1282.03
197.13	1290.22
197.35	1214.45
197.57	1294.32
197.79	1288.17
198.01	1308.65
198.23	1251.31
198.45	1247.21
198.67	1339.37
198.89	1265.64
199.11	1288.17
199.33	1255.40
199.55	1247.21
199.77	1302.51
199.99	1339.37
200.21	1331.18
200.43	1308.65
200.65	1259.50
200.87	1183.73
201.09	1265.64
201.31	1177.58
201.53	1255.40
201.75	1200.11
201.97	1249.26
202.19	1282.03
202.41	1228.78
202.63	1277.93
202.85	1269.74
203.07	1216.49
203.29	1269.74
203.51	1300.46
203.73	1261.55
203.95	1325.04
204.17	1302.51
204.39	1228.78
204.61	1277.93
204.83	1290.22
205.05	1263.60
205.27	1327.08
205.49	1234.93
205.71	1249.26
205.93	1277.93
206.15	1265.64
206.37	1320.94
206.59	1222.64
206.81	1261.55
207.03	1263.60
207.25	1300.46
207.47	1214.45
207.69	1247.21
207.91	1322.99
208.13	1282.03
208.34	1290.22
208.56	1343.47
208.78	1314.80
209.00	1257.45
209.22	1253.36
209.44	1193.97
209.66	1243.12
209.88	1189.87
210.10	1249.26
210.32	1232.88
210.54	1241.07
210.76	1261.55
210.98	1239.02
211.20	1275.88
211.42	1292.27
211.64	1257.45
211.86	1286.12
212.08	1224.69
212.30	1255.40
212.52	1277.93
212.74	1273.84
212.96	1257.45
213.17	1241.07
213.39	1310.70
213.61	1253.36
213.83	1218.54
214.05	1218.54
214.27	1302.51
214.49	1204.21
214.71	1271.79
214.93	1279.98
215.15	1261.55
215.37	1183.73
215.59	1296.36
215.81	1257.45
216.03	1382.38
216.24	1282.03
216.46	1310.70
216.68	1327.08
216.90	1279.98
217.12	1224.69
217.34	1282.03
217.56	1263.60
217.78	1275.88
218.00	1193.97
218.22	1306.60
218.44	1198.06
218.66	1284.08
218.87	1296.36
219.09	1331.18
219.31	1230.83
219.53	1288.17
219.75	1345.52
219.97	1320.94
220.19	1216.49
220.41	1275.88
220.63	1300.46
220.85	1185.77
221.06	1288.17
221.28	1263.60
221.50	1298.41
221.72	1261.55
221.94	1320.94
222.16	1265.64
222.38	1239.02
222.60	1230.83
222.82	1275.88
223.03	1282.03
223.25	1257.45
223.47	1306.60
223.69	1253.36
223.91	1257.45
224.13	1267.69
224.35	1296.36
224.57	1310.70
224.78	1255.40
225.00	1243.12
225.22	1322.99
225.44	1245.16
225.66	1298.41
225.88	1279.98
226.10	1298.41
226.32	1263.60
226.53	1271.79
226.75	1206.25
226.97	1327.08
227.19	1273.84
227.41	1273.84
227.63	1310.70
227.85	1232.88
228.06	1306.60
228.28	1257.45
228.50	1306.60
228.72	1257.45
228.94	1224.69
229.16	1275.88
229.37	1239.02
229.59	1253.36
229.81	1271.79
230.03	1255.40
230.25	1302.51
230.47	1277.93
230.69	1243.12
230.90	1288.17
231.12	1189.87
231.34	1243.12
231.56	1290.22
231.78	1220.59
232.00	1230.83
232.21	1241.07
232.43	1259.50
232.65	1277.93
232.87	1222.64
233.09	1265.64
233.30	1216.49
233.52	1257.45
233.74	1263.60
233.96	1273.84
234.18	1310.70
234.40	1253.36
234.61	1286.12
234.83	1261.55
235.05	1271.79
235.27	1265.64
235.49	1292.27
235.70	1337.32
235.92	1312.75
236.14	1275.88
236.36	1273.84
236.58	1232.88
236.79	1345.52
237.01	1275.88
237.23	1228.78
237.45	1277.93
237.67	1273.84
237.88	1288.17
238.10	1275.88
238.32	1263.60
238.54	1282.03
238.76	1198.06
238.97	1290.22
239.19	1259.50
239.41	1308.65
239.63	1286.12
239.85	1251.31
240.06	1282.03
240.28	1263.60
240.50	1288.17
240.72	1214.45
240.93	1249.26
241.15	1296.36
241.37	1275.88
241.59	1261.55
241.81	1230.83
242.02	1380.33
242.24	1257.45
242.46	1300.46
242.68	1222.64
242.89	1290.22
243.11	1306.60
243.33	1343.47
243.55	1261.55
243.76	1273.84
243.98	1322.99
244.20	1261.55
244.42	1206.25
244.64	1243.12
244.85	1290.22
245.07	1239.02
245.29	1251.31
245.51	1255.40
245.72	1245.16
245.94	1273.84
246.16	1245.16
246.38	1265.64
246.59	1173.49
246.81	1275.88
247.03	1302.51
247.24	1279.98
247.46	1234.93
247.68	1320.94
247.90	1234.93
248.11	1290.22
248.33	1267.69
248.55	1271.79
248.77	1236.97
248.98	1277.93
249.20	1275.88
249.42	1220.59
249.64	1261.55
249.85	1228.78
250.07	1245.16
250.29	1314.80
250.50	1159.15
250.72	1245.16
250.94	1308.65
251.16	1298.41
251.37	1239.02
251.59	1245.16
251.81	1206.25
252.02	1198.06
252.24	1302.51
252.46	1279.98
252.68	1234.93
252.89	1259.50
253.11	1230.83
253.33	1255.40
253.54	1275.88
253.76	1200.11
253.98	1312.75
254.20	1296.36
254.41	1269.74
254.63	1239.02
254.85	1271.79
255.06	1181.68
255.28	1265.64
255.50	1300.46
255.71	1310.70
255.93	1341.42
256.15	1310.70
256.36	1271.79
256.58	1335.28
256.80	1277.93
257.02	1296.36
257.23	1275.88
257.45	1277.93
257.67	1306.60
257.88	1183.73
258.10	1271.79
258.32	1298.41
258.53	1277.93
258.75	1275.88
258.97	1232.88
259.18	1273.84
259.40	1265.64
259.62	1271.79
259.83	1298.41
260.05	1271.79
260.27	1308.65
260.48	1249.26
260.70	1189.87
260.92	1279.98
261.13	1306.60
261.35	1312.75
261.57	1269.74
261.78	1304.56
262.00	1257.45
262.22	1253.36
262.43	1255.40
262.65	1265.64
262.86	1259.50
263.08	1255.40
263.30	1300.46
263.51	1230.83
263.73	1220.59
263.95	1316.84
264.16	1257.45
264.38	1322.99
264.60	1351.66
264.81	1259.50
265.03	1245.16
265.25	1232.88
265.46	1216.49
265.68	1234.93
265.89	1288.17
266.11	1271.79
266.33	1218.54
266.54	1243.12
266.76	1216.49
266.98	1286.12
267.19	1329.13
267.41	1261.55
267.62	1222.64
267.84	1314.80
268.06	1351.66
268.27	1228.78
268.49	1296.36
268.70	1337.32
268.92	1325.04
269.14	1228.78
269.35	1241.07
269.57	1263.60
269.79	1210.35
270.00	1275.88
270.22	1257.45
270.43	1245.16
270.65	1271.79
270.87	1222.64
271.08	1241.07
271.30	1202.16
271.51	1269.74
271.73	1327.08
271.95	1290.22
272.16	1222.64
272.38	1282.03
272.59	1183.73
272.81	1282.03
273.02	1189.87
273.24	1282.03
273.46	1236.97
273.67	1230.83
273.89	1212.40
274.10	1226.73
274.32	1265.64
274.54	1288.17
274.75	1279.98
274.97	1345.52
275.18	1247.21
275.40	1286.12
275.61	1345.52
275.83	1183.73
276.05	1282.03
276.26	1286.12
276.48	1310.70
276.69	1196.01
276.91	1271.79
277.12	1228.78
277.34	1298.41
277.55	1263.60
277.77	1261.55
277.99	1314.80
278.20	1230.83
278.42	1306.60
278.63	1255.40
278.85	1292.27
279.06	1275.88
279.28	1257.45
279.49	1253.36
279.71	1290.22
279.93	1206.25
280.14	1304.56
280.36	1335.28
280.57	1282.03
280.79	1241.07
281.00	1230.83
281.22	1296.36
281.43	1239.02
281.65	1204.21
281.86	1304.56
282.08	1265.64
282.29	1236.97
282.51	1261.55
282.73	1312.75
282.94	1261.55
283.16	1275.88
283.37	1347.56
283.59	1294.32
283.80	1282.03
284.02	1234.93
284.23	1196.01
284.45	1261.55
284.66	1284.08
284.88	1265.64
285.09	1251.31
285.31	1243.12
285.52	1286.12
285.74	1304.56
285.95	1316.84
286.17	1320.94
286.38	1347.56
286.60	1298.41
286.81	1191.92
287.03	1275.88
287.24	1224.69
287.46	1284.08
287.67	1204.21
287.89	1263.60
288.10	1288.17
288.32	1288.17
288.53	1253.36
288.75	1212.40
288.96	1292.27
289.18	1224.69
289.39	1243.12
289.61	1298.41
289.82	1286.12
290.04	1374.19
290.25	1241.07
290.47	1241.07
290.68	1273.84
290.90	1269.74
291.11	1269.74
291.33	1300.46
291.54	1228.78
291.76	1208.30
291.97	1271.79
292.18	1284.08
292.40	1257.45
292.61	1216.49
292.83	1363.95
293.04	1269.74
293.26	1259.50
293.47	1302.51
293.69	1265.64
293.90	1273.84
294.12	1253.36
294.33	1282.03
294.55	1312.75
294.76	1232.88
294.97	1267.69
295.19	1302.51
295.40	1263.60
295.62	1284.08
295.83	1320.94
296.05	1257.45
296.26	1232.88
296.48	1249.26
296.69	1292.27
296.90	1269.74
297.12	1337.32
297.33	1251.31
297.55	1286.12
297.76	1243.12
297.98	1288.17
298.19	1247.21
298.41	1333.23
298.62	1257.45
298.83	1320.94
299.05	1245.16
299.26	1259.50
299.48	1296.36
299.69	1310.70
299.90	1284.08
300.12	1218.54
300.33	1292.27
300.55	1224.69
300.76	1253.36
300.98	1232.88
301.19	1282.03
301.40	1296.36
301.62	1214.45
301.83	1253.36
302.05	1312.75
302.26	1265.64
302.47	1335.28
302.69	1204.21
302.90	1284.08
303.12	1265.64
303.33	1288.17
303.54	1220.59
303.76	1243.12
303.97	1275.88
304.19	1110.00
304.40	1222.64
304.61	1265.64
304.83	1308.65
305.04	1327.08
305.26	1232.88
305.47	1286.12
305.68	1265.64
305.90	1243.12
306.11	1224.69
306.33	1255.40
306.54	1302.51
306.75	1294.32
306.97	1286.12
307.18	1247.21
307.39	1284.08
307.61	1234.93
307.82	1302.51
308.04	1196.01
308.25	1300.46
308.46	1314.80
308.68	1261.55
308.89	1222.64
309.10	1241.07
309.32	1175.53
309.53	1273.84
309.74	1243.12
309.96	1310.70
310.17	1335.28
310.39	1263.60
310.60	1241.07
310.81	1296.36
311.03	1232.88
311.24	1282.03
311.45	1263.60
311.67	1327.08
311.88	1314.80
312.09	1263.60
312.31	1318.89
312.52	1210.35
312.73	1263.60
312.95	1269.74
313.16	1312.75
313.37	1331.18
313.59	1261.55
313.80	1263.60
314.01	1261.55
314.23	1261.55
314.44	1269.74
314.65	1243.12
314.87	1206.25
315.08	1265.64
315.29	1355.76
315.51	1232.88
315.72	1226.73
315.93	1232.88
316.15	1253.36
316.36	1255.40
316.57	1200.11
316.79	1290.22
317.00	1257.45
317.21	1155.05
317.43	1202.16
317.64	1239.02
317.85	1322.99
318.07	1253.36
318.28	1288.17
318.49	1245.16
318.70	1286.12
318.92	1351.66
319.13	1273.84
319.34	1286.12
319.56	1198.06
319.77	1275.88
319.98	1292.27
320.20	1277.93
320.41	1282.03
320.62	1320.94
320.83	1243.12
321.05	1273.84
321.26	1259.50
321.47	1251.31
321.69	1273.84
321.90	1302.51
322.11	1232.88
322.32	1228.78
322.54	1263.60
322.75	1290.22
322.96	1322.99
323.18	1265.64
323.39	1300.46
323.60	1193.97
323.81	1288.17
324.03	1243.12
324.24	1155.05
324.45	1249.26
324.66	1320.94
324.88	1290.22
325.09	1261.55
325.30	1253.36
325.52	1216.49
325.73	1265.64
325.94	1277.93
326.15	1265.64
326.37	1322.99
326.58	1282.03
326.79	1296.36
327.00	1316.84
327.22	1220.59
327.43	1308.65
327.64	1265.64
327.85	1259.50
328.07	1222.64
328.28	1288.17
328.49	1318.89
328.70	1300.46
328.92	1224.69
329.13	1308.65
329.34	1204.21
329.55	1259.50
329.76	1304.56
329.98	1198.06
330.19	1282.03
330.40	1216.49
330.61	1277.93
330.83	1218.54
331.04	1230.83
331.25	1279.98
331.46	1284.08
331.68	1232.88
331.89	1271.79
332.10	1210.35
332.31	1306.60
332.52	1257.45
332.74	1234.93
332.95	1308.65
333.16	1292.27
333.37	1284.08
333.58	1304.56
333.80	1275.88
334.01	1193.97
334.22	1239.02
334.43	1267.69
334.64	1271.79
334.86	1312.75
335.07	1222.64
335.28	1306.60
335.49	1243.12
335.70	1249.26
335.92	1275.88
336.13	1263.60
336.34	1249.26
336.55	1359.85
336.76	1337.32
336.98	1294.32
337.19	1232.88
337.40	1269.74
337.61	1288.17
337.82	1245.16
338.04	1312.75
338.25	1322.99
338.46	1300.46
338.67	1255.40
338.88	1269.74
339.09	1273.84
339.31	1216.49
339.52	1306.60
339.73	1216.49
339.94	1286.12
340.15	1282.03
340.36	1191.92
340.58	1286.12
340.79	1251.31
341.00	1273.84
341.21	1288.17
341.42	1314.80
341.63	1271.79
341.85	1300.46
342.06	1300.46
342.27	1337.32
342.48	1316.84
342.69	1277.93
342.90	1245.16
343.12	1218.54
343.33	1335.28
343.54	1265.64
343.75	1308.65
343.96	1243.12
344.17	1224.69
344.38	1271.79
344.60	1259.50
344.81	1310.70
345.02	1269.74
345.23	1234.93
345.44	1220.59
345.65	1226.73
345.86	1265.64
346.07	1320.94
346.29	1249.26
346.50	1376.24
346.71	1302.51
346.92	1304.56
347.13	1265.64
347.34	1290.22
347.55	1255.40
347.76	1300.46
347.98	1269.74
348.19	1218.54
348.40	1320.94
348.61	1306.60
348.82	1206.25
349.03	1267.69
349.24	1282.03
349.45	1241.07
349.66	1302.51
349.88	1202.16
350.09	1218.54
350.30	1314.80
350.51	1265.64
350.72	1316.84
350.93	1224.69
351.14	1275.88
351.35	1263.60
351.56	1282.03
351.77	1312.75
351.99	1241.07
352.20	1296.36
352.41	1312.75
352.62	1208.30
352.83	1302.51
353.04	1226.73
353.25	1261.55
353.46	1216.49
353.67	1275.88
353.88	1292.27
354.09	1243.12
354.30	1247.21
354.52	1294.32
354.73	1296.36
354.94	1208.30
355.15	1239.02
355.36	1286.12
355.57	1318.89
355.78	1284.08
355.99	1222.64
356.20	1314.80
356.41	1343.47
356.62	1288.17
356.83	1253.36
357.04	1208.30
357.25	1314.80
357.46	1298.41
357.68	1249.26
357.89	1241.07
358.10	1306.60
358.31	1271.79
358.52	1296.36
358.73	1296.36
358.94	1241.07
359.15	1259.50
359.36	1306.60
359.57	1279.98
359.78	1255.40
359.99	1241.07
360.20	1325.04
360.41	1310.70
360.62	1306.60
360.83	1241.07
361.04	1298.41
361.25	1296.36
361.46	1236.97
361.67	1210.35
361.88	1230.83
362.09	1339.37
362.30	1257.45
362.51	1232.88
362.72	1257.45
362.93	1343.47
363.14	1232.88
363.35	1253.36
363.56	1249.26
363.78	1255.40
363.99	1241.07
364.20	1294.32
364.41	1273.84
364.62	1265.64
364.83	1292.27
365.04	1298.41
365.25	1265.64
365.46	1247.21
365.67	1230.83
365.88	1316.84
366.09	1337.32
366.30	1236.97
366.51	1243.12
366.72	1241.07
366.93	1230.83
367.14	1273.84
367.35	1282.03
367.56	1249.26
367.77	1306.60
367.98	1234.93
368.18	1206.25
368.39	1251.31
368.60	1337.32
368.81	1249.26
369.02	1282.03
369.23	1228.78
369.44	1247.21
369.65	1339.37
369.86	1304.56
370.07	1286.12
370.28	1206.25
370.49	1331.18
370.70	1277.93
370.91	1288.17
371.12	1277.93
371.33	1306.60
371.54	1355.76
371.75	1179.63
371.96	1327.08
372.17	1267.69
372.38	1306.60
372.59	1269.74
372.80	1273.84
373.01	1253.36
373.22	1273.84
373.43	1277.93
373.64	1228.78
373.85	1267.69
374.06	1228.78
374.26	1171.44
374.47	1255.40
374.68	1302.51
374.89	1302.51
375.10	1259.50
375.31	1263.60
375.52	1222.64
375.73	1251.31
375.94	1277.93
376.15	1241.07
376.36	1232.88
376.57	1255.40
376.78	1261.55
376.99	1247.21
377.20	1245.16
377.40	1183.73
377.61	1269.74
377.82	1220.59
378.03	1282.03
378.24	1302.51
378.45	1308.65
378.66	1329.13
378.87	1214.45
379.08	1259.50
379.29	1243.12
379.50	1267.69
379.71	1212.40
379.91	1279.98
380.12	1226.73
380.33	1247.21
380.54	1230.83
380.75	1241.07
380.96	1284.08
381.17	1255.40
381.38	1245.16
381.59	1257.45
381.80	1273.84
382.00	1224.69
382.21	1331.18
382.42	1320.94
382.63	1249.26
382.84	1292.27
383.05	1232.88
383.26	1282.03
383.47	1279.98
383.68	1282.03
383.88	1269.74
384.09	1200.11
384.30	1200.11
384.51	1230.83
384.72	1259.50
384.93	1249.26
385.14	1228.78
385.35	1292.27
385.55	1294.32
385.76	1298.41
385.97	1206.25
386.18	1263.60
386.39	1261.55
386.60	1259.50
386.81	1206.25
387.02	1269.74
387.22	1329.13
387.43	1345.52
387.64	1286.12
387.85	1224.69
388.06	1286.12
388.27	1257.45
388.48	1322.99
388.68	1310.70
388.89	1222.64
389.10	1271.79
389.31	1265.64
389.52	1316.84
389.73	1255.40
389.93	1267.69
390.14	1206.25
390.35	1273.84
390.56	1296.36
390.77	1185.77
390.98	1279.98
391.18	1247.21
391.39	1282.03
391.60	1232.88
391.81	1218.54
392.02	1243.12
392.23	1247.21
392.43	1304.56
392.64	1290.22
392.85	1370.09
393.06	1267.69
393.27	1302.51
393.47	1353.71
393.68	1239.02
393.89	1314.80
394.10	1220.59
394.31	1320.94
394.52	1298.41
394.72	1177.58
394.93	1265.64
395.14	1267.69
395.35	1193.97
395.56	1337.32
395.76	1173.49
395.97	1218.54
396.18	1263.60
396.39	1314.80
396.60	1243.12
396.80	1255.40
397.01	1302.51
397.22	1241.07
397.43	1290.22
397.64	1302.51
397.84	1218.54
398.05	1202.16
398.26	1327.08
398.47	1275.88
398.67	1296.36
398.88	1251.31
399.09	1275.88
399.30	1234.93
399.51	1300.46
399.71	1249.26
399.92	1279.98
400.13	1302.51
400.34	1228.78
400.54	1306.60
400.75	1269.74
400.96	1169.39
401.17	1275.88
401.37	1239.02
401.58	1288.17
401.79	1302.51
402.00	1277.93
402.21	1308.65
402.41	1284.08
402.62	1302.51
402.83	1249.26
403.04	1288.17
403.24	1343.47
403.45	1257.45
403.66	1247.21
403.87	1304.56
404.07	1273.84
404.28	1343.47
404.49	1261.55
404.70	1259.50
404.90	1368.04
405.11	1304.56
405.32	1261.55
405.52	1269.74
405.73	1245.16
405.94	1241.07
406.15	1236.97
406.35	1279.98
406.56	1271.79
406.77	1234.93
406.98	1339.37
407.18	1310.70
407.39	1265.64
407.60	1333.23
407.80	1314.80
408.01	1279.98
408.22	1269.74
408.43	1296.36
408.63	1239.02
408.84	1292.27
409.05	1279.98
409.25	1239.02
409.46	1279.98
409.67	1269.74
409.88	1241.07
410.08	1230.83
410.29	1259.50
410.50	1337.32
410.70	1210.35
410.91	1204.21
411.12	1345.52
411.32	1204.21
411.53	1265.64
411.74	1339.37
411.95	1265.64
412.15	1247.21
412.36	1255.40
412.57	1241.07
412.77	1294.32
412.98	1245.16
413.19	1261.55
413.39	1263.60
413.60	1300.46
413.81	1327.08
414.01	1320.94
414.22	1249.26
414.43	1314.80
414.63	1245.16
414.84	1275.88
415.05	1224.69
415.25	1259.50
415.46	1296.36
415.67	1277.93
415.87	1236.97
416.08	1312.75
416.29	1277.93
416.49	1259.50
416.70	1153.01
416.91	1253.36
417.11	1241.07
417.32	1275.88
417.53	1277.93
417.73	1271.79
417.94	1298.41
418.15	1259.50
418.35	1263.60
418.56	1312.75
418.77	1267.69
418.97	1269.74
419.18	1273.84
419.38	1284.08
419.59	1253.36
419.80	1314.80
420.00	1271.79
420.21	1247.21
420.42	1247.21
420.62	1243.12
420.83	1261.55
421.04	1282.03
421.24	1316.84
421.45	1294.32
421.65	1288.17
421.86	1306.60
422.07	1300.46
422.27	1159.15
422.48	1241.07
422.69	1257.45
422.89	1234.93
423.10	1265.64
423.30	1200.11
423.51	1314.80
423.72	1208.30
423.92	1288.17
424.13	1333.23
424.33	1222.64
424.54	1245.16
424.75	1228.78
424.95	1245.16
425.16	1339.37
425.36	1253.36
425.57	1273.84
425.78	1202.16
425.98	1292.27
426.19	1187.82
426.39	1296.36
426.60	1247.21
426.81	1257.45
427.01	1302.51
427.22	1316.84
427.42	1294.32
427.63	1275.88
427.83	1296.36
428.04	1208.30
428.25	1282.03
428.45	1239.02
428.66	1261.55
428.86	1294.32
429.07	1310.70
429.28	1255.40
429.48	1191.92
429.69	1230.83
429.89	1351.66
430.10	1249.26
430.30	1241.07
430.51	1245.16
430.71	1294.32
430.92	1331.18
431.13	1300.46
431.33	1269.74
431.54	1275.88
431.74	1273.84
431.95	1327.08
432.15	1308.65
432.36	1275.88
432.56	1343.47
432.77	1247.21
432.98	1269.74
433.18	1314.80
433.39	1273.84
433.59	1253.36
433.80	1288.17
434.00	1261.55
434.21	1335.28
434.41	1312.75
434.62	1214.45
434.82	1253.36
435.03	1263.60
435.23	1273.84
435.44	1279.98
435.64	1322.99
435.85	1251.31
436.06	1253.36
436.26	1361.90
436.47	1269.74
436.67	1273.84
436.88	1275.88
437.08	1288.17
437.29	1247.21
437.49	1222.64
437.70	1300.46
437.90	1214.45
438.11	1253.36
438.31	1355.76
438.52	1308.65
438.72	1292.27
438.93	1255.40
439.13	1247.21
439.34	1243.12
439.54	1259.50
439.75	1228.78
439.95	1273.84
440.16	1204.21
440.36	1290.22
440.57	1232.88
440.77	1310.70
440.98	1269.74
441.18	1251.31
441.39	1284.08
441.59	1247.21
441.80	1329.13
442.00	1214.45
442.21	1255.40
442.41	1318.89
442.62	1290.22
442.82	1279.98
443.02	1308.65
443.23	1320.94
443.43	1239.02
443.64	1296.36
443.84	1286.12
444.05	1236.97
444.25	1263.60
444.46	1275.88
444.66	1267.69
444.87	1310.70
445.07	1282.03
445.28	1347.56
445.48	1173.49
445.69	1316.84
445.89	1265.64
446.09	1265.64
446.30	1222.64
446.50	1269.74
446.71	1232.88
446.91	1279.98
447.12	1275.88
447.32	1267.69
447.53	1308.65
447.73	1245.16
447.93	1302.51
448.14	1314.80
448.34	1247.21
448.55	1284.08
448.75	1265.64
448.96	1279.98
449.16	1218.54
449.36	1343.47
449.57	1296.36
449.77	1241.07
449.98	1259.50
450.18	1251.31
450.39	1314.80
450.59	1282.03
450.79	1275.88
451.00	1296.36
451.20	1277.93
451.41	1249.26
451.61	1290.22
451.81	1304.56
452.02	1298.41
452.22	1271.79
452.43	1376.24
452.63	1275.88
452.84	1296.36
453.04	1286.12
453.24	1251.31
453.45	1316.84
453.65	1228.78
453.86	1300.46
454.06	1251.31
454.26	1312.75
454.47	1314.80
454.67	1279.98
454.87	1241.07
455.08	1312.75
455.28	1316.84
455.49	1312.75
455.69	1300.46
455.89	1337.32
456.10	1300.46
456.30	1259.50
456.51	1279.98
456.71	1304.56
456.91	1296.36
457.12	1282.03
457.32	1263.60
457.52	1259.50
457.73	1316.84
457.93	1312.75
458.14	1351.66
458.34	1269.74
458.54	1298.41
458.75	1320.94
458.95	1294.32
459.15	1218.54
459.36	1277.93
459.56	1296.36
459.76	1249.26
459.97	1312.75
460.17	1288.17
460.37	1279.98
460.58	1228.78
460.78	1353.71
460.99	1288.17
461.19	1269.74
461.39	1304.56
461.60	1322.99
461.80	1302.51
462.00	1277.93
462.21	1255.40
462.41	1267.69
462.61	1320.94
462.82	1232.88
463.02	1314.80
463.22	1329.13
463.43	1290.22
463.63	1322.99
463.83	1318.89
464.04	1298.41
464.24	1363.95
464.44	1310.70
464.64	1269.74
464.85	1331.18
465.05	1273.84
465.25	1304.56
465.46	1249.26
465.66	1327.08
465.86	1312.75
466.07	1290.22
466.27	1257.45
466.47	1251.31
466.68	1306.60
466.88	1318.89
467.08	1269.74
467.29	1298.41
467.49	1261.55
467.69	1275.88
467.89	1271.79
468.10	1302.51
468.30	1294.32
468.50	1302.51
468.71	1290.22
468.91	1271.79
469.11	1243.12
469.31	1298.41
469.52	1224.69
469.72	1341.42
469.92	1286.12
470.13	1286.12
470.33	1257.45
470.53	1232.88
470.73	1232.88
470.94	1298.41
471.14	1239.02
471.34	1290.22
471.54	1220.59
471.75	1318.89
471.95	1271.79
472.15	1304.56
472.36	1298.41
472.56	1294.32
472.76	1312.75
472.96	1288.17
473.17	1255.40
473.37	1343.47
473.57	1245.16
473.77	1234.93
473.98	1288.17
474.18	1312.75
474.38	1263.60
474.58	1298.41
474.79	1241.07
474.99	1347.56
475.19	1343.47
475.39	1343.47
475.60	1224.69
475.80	1275.88
476.00	1302.51
476.20	1249.26
476.41	1239.02
476.61	1279.98
476.81	1232.88
477.01	1247.21
477.21	1357.80
477.42	1296.36
477.62	1288.17
477.82	1269.74
478.02	1243.12
478.23	1239.02
478.43	1214.45
478.63	1255.40
478.83	1161.20
479.03	1298.41
479.24	1275.88
479.44	1255.40
479.64	1296.36
479.84	1173.49
480.04	1290.22
480.25	1216.49
480.45	1322.99
480.65	1320.94
480.85	1263.60
481.06	1261.55
481.26	1253.36
481.46	1312.75
481.66	1374.19
481.86	1282.03
482.06	1224.69
482.27	1304.56
482.47	1208.30
482.67	1290.22
482.87	1210.35
483.07	1249.26
483.28	1279.98
483.48	1230.83
483.68	1269.74
483.88	1247.21
484.08	1302.51
484.29	1234.93
484.49	1239.02
484.69	1312.75
484.89	1282.03
485.09	1337.32
485.29	1273.84
485.50	1267.69
485.70	1325.04
485.90	1224.69
486.10	1277.93
486.30	1288.17
486.50	1284.08
486.71	1292.27
486.91	1298.41
487.11	1290.22
487.31	1187.82
487.51	1277.93
487.71	1329.13
487.91	1232.88
488.12	1265.64
488.32	1292.27
488.52	1284.08
488.72	1290.22
488.92	1279.98
489.12	1314.80
489.32	1308.65
489.53	1353.71
489.73	1288.17
489.93	1286.12
490.13	1220.59
490.33	1312.75
490.53	1243.12
490.73	1265.64
490.94	1267.69
491.14	1222.64
491.34	1267.69
491.54	1310.70
491.74	1257.45
491.94	1220.59
492.14	1251.31
492.34	1298.41
492.54	1245.16
492.75	1292.27
492.95	1286.12
493.15	1294.32
493.35	1312.75
493.55	1249.26
493.75	1282.03
493.95	1243.12
494.15	1363.95
494.35	1269.74
494.56	1310.70
494.76	1249.26
494.96	1267.69
495.16	1288.17
495.36	1249.26
495.56	1286.12
495.76	1267.69
495.96	1314.80
496.16	1306.60
496.36	1284.08
496.56	1306.60
496.77	1265.64
496.97	1183.73
497.17	1273.84
497.37	1259.50
497.57	1236.97
497.77	1284.08
497.97	1265.64
498.17	1327.08
498.37	1288.17
498.57	1241.07
498.77	1292.27
498.97	1214.45
499.17	1243.12
499.38	1236.97
499.58	1218.54
499.78	1265.64
499.98	1277.93
500.18	1265.64
500.38	1316.84
500.58	1239.02
500.78	1339.37
500.98	1259.50
501.18	1320.94
501.38	1234.93
501.58	1226.73
501.78	1290.22
501.98	1288.17
502.18	1202.16
502.38	1327.08
502.58	1259.50
502.78	1267.69
502.98	1269.74
503.18	1273.84
503.38	1232.88
503.59	1288.17
503.79	1269.74
503.99	1253.36
504.19	1228.78
504.39	1236.97
504.59	1341.42
504.79	1314.80
504.99	1288.17
505.19	1230.83
505.39	1322.99
505.59	1175.53
505.79	1306.60
505.99	1288.17
506.19	1271.79
506.39	1259.50
506.59	1327.08
506.79	1333.23
506.99	1286.12
507.19	1228.78
507.39	1284.08
507.59	1292.27
507.79	1286.12
507.99	1200.11
508.19	1271.79
508.39	1255.40
508.59	1247.21
508.79	1230.83
508.99	1251.31
509.19	1269.74
509.39	1288.17
509.59	1331.18
509.79	1294.32
509.99	1249.26
510.19	1234.93
510.39	1314.80
510.59	1335.28
510.79	1290.22
510.99	1226.73
511.19	1251.31
511.39	1355.76
511.59	1279.98
511.79	1214.45
511.99	1304.56
512.19	1343.47
512.38	1298.41
512.58	1253.36
512.78	1284.08
512.98	1290.22
513.18	1263.60
513.38	1304.56
513.58	1306.60
513.78	1366.00
513.98	1331.18
514.18	1269.74
514.38	1296.36
514.58	1253.36
514.78	1253.36
514.98	1298.41
515.18	1275.88
515.38	1261.55
515.58	1343.47
515.78	1267.69
515.98	1292.27
516.18	1290.22
516.38	1255.40
516.57	1337.32
516.77	1298.41
516.97	1312.75
517.17	1239.02
517.37	1347.56
517.57	1249.26
517.77	1296.36
517.97	1214.45
518.17	1341.42
518.37	1345.52
518.57	1245.16
518.77	1282.03
518.97	1196.01
519.16	1230.83
519.36	1284.08
519.56	1251.31
519.76	1296.36
519.96	1310.70
520.16	1331.18
520.36	1306.60
520.56	1290.22
520.76	1351.66
520.96	1294.32
521.16	1183.73
521.35	1345.52
521.55	1288.17
521.75	1325.04
521.95	1288.17
522.15	1253.36
522.35	1286.12
522.55	1224.69
522.75	1363.95
522.95	1273.84
523.14	1333.23
523.34	1284.08
523.54	1316.84
523.74	1204.21
523.94	1298.41
524.14	1296.36
524.34	1181.68
524.54	1279.98
524.73	1277.93
524.93	1308.65
525.13	1232.88
525.33	1277.93
525.53	1290.22
525.73	1230.83
525.93	1361.90
526.13	1277.93
526.32	1265.64
526.52	1247.21
526.72	1294.32
526.92	1245.16
527.12	1273.84
527.32	1341.42
527.52	1302.51
527.71	1247.21
527.91	1337.32
528.11	1267.69
528.31	1265.64
528.51	1288.17
528.71	1236.97
528.90	1265.64
529.10	1208.30
529.30	1220.59
529.50	1347.56
529.70	1259.50
529.90	1294.32
530.09	1263.60
530.29	1247.21
530.49	1277.93
530.69	1228.78
530.89	1298.41
531.09	1247.21
531.28	1247.21
531.48	1314.80
531.68	1271.79
531.88	1294.32
532.08	1228.78
532.28	1230.83
532.47	1259.50
532.67	1329.13
532.87	1279.98
533.07	1298.41
533.27	1247.21
533.46	1320.94
533.66	1189.87
533.86	1304.56
534.06	1286.12
534.26	1257.45
534.45	1185.77
534.65	1273.84
534.85	1273.84
535.05	1325.04
535.25	1259.50
535.44	1310.70
535.64	1224.69
535.84	1245.16
536.04	1286.12
536.24	1294.32
536.43	1275.88
536.63	1292.27
536.83	1247.21
537.03	1251.31
537.22	1247.21
537.42	1302.51
537.62	1286.12
537.82	1294.32
538.02	1290.22
538.21	1267.69
538.41	1273.84
538.61	1214.45
538.81	1257.45
539.00	1339.37
539.20	1251.31
539.40	1247.21
539.60	1228.78
539.79	1292.27
539.99	1310.70
540.19	1329.13
540.39	1275.88
540.58	1343.47
540.78	1265.64
540.98	1306.60
541.18	1288.17
541.37	1351.66
541.57	1284.08
541.77	1265.64
541.97	1269.74
542.16	1282.03
542.36	1224.69
542.56	1292.27
542.76	1302.51
542.95	1247.21
543.15	1284.08
543.35	1263.60
543.54	1251.31
543.74	1269.74
543.94	1255.40
544.14	1345.52
544.33	1267.69
544.53	1308.65
544.73	1267.69
544.93	1316.84
545.12	1294.32
545.32	1294.32
545.52	1286.12
545.71	1259.50
545.91	1257.45
546.11	1298.41
546.30	1220.59
546.50	1320.94
546.70	1265.64
546.90	1222.64
547.09	1331.18
547.29	1253.36
547.49	1202.16
547.68	1255.40
547.88	1257.45
548.08	1296.36
548.27	1320.94
548.47	1282.03
548.67	1267.69
548.87	1282.03
549.06	1294.32
549.26	1292.27
549.46	1208.30
549.65	1296.36
549.85	1277.93
550.05	1243.12
550.24	1308.65
550.44	1218.54
550.64	1171.44
550.83	1335.28
551.03	1232.88
551.23	1363.95
551.42	1314.80
551.62	1206.25
551.82	1265.64
552.01	1230.83
552.21	1282.03
552.41	1255.40
552.60	1214.45
552.80	1263.60
553.00	1269.74
553.19	1277.93
553.39	1261.55
553.59	1294.32
553.78	1327.08
553.98	1261.55
554.17	1300.46
554.37	1312.75
554.57	1296.36
554.76	1304.56
554.96	1269.74
555.16	1279.98
555.35	1271.79
555.55	1314.80
555.75	1314.80
555.94	1265.64
556.14	1277.93
556.33	1306.60
556.53	1298.41
556.73	1286.12
556.92	1304.56
557.12	1241.07
557.32	1325.04
557.51	1234.93
557.71	1234.93
557.90	1298.41
558.10	1247.21
558.30	1343.47
558.49	1265.64
558.69	1345.52
558.88	1329.13
559.08	1269.74
559.28	1296.36
559.47	1243.12
559.67	1294.32
559.86	1374.19
560.06	1368.04
560.26	1359.85
560.45	1304.56
560.65	1320.94
560.84	1247.21
561.04	1245.16
561.24	1220.59
561.43	1294.32
561.63	1193.97
561.82	1318.89
562.02	1361.90
562.22	1271.79
562.41	1261.55
562.61	1302.51
562.80	1257.45
563.00	1329.13
563.19	1325.04
563.39	1284.08
563.59	1253.36
563.78	1298.41
563.98	1290.22
564.17	1163.25
564.37	1261.55
564.56	1255.40
564.76	1232.88
564.96	1282.03
565.15	1282.03
565.35	1372.14
565.54	1288.17
565.74	1286.12
565.93	1310.70
566.13	1232.88
566.32	1308.65
566.52	1243.12
566.71	1222.64
566.91	1288.17
567.11	1333.23
567.30	1312.75
567.50	1239.02
567.69	1355.76
567.89	1253.36
568.08	1202.16
568.28	1275.88
568.47	1282.03
568.67	1298.41
568.86	1202.16
569.06	1263.60
569.25	1288.17
569.45	1251.31
569.64	1359.85
569.84	1269.74
570.04	1320.94
570.23	1253.36
570.43	1218.54
570.62	1212.40
570.82	1279.98
571.01	1263.60
571.21	1335.28
571.40	1310.70
571.60	1300.46
571.79	1310.70
571.99	1277.93
572.18	1284.08
572.38	1265.64
572.57	1318.89
572.77	1261.55
572.96	1271.79
573.16	1306.60
573.35	1314.80
573.55	1279.98
573.74	1316.84
573.94	1282.03
574.13	1273.84
574.33	1355.76
574.52	1226.73
574.71	1300.46
574.91	1312.75
575.10	1273.84
575.30	1282.03
575.49	1257.45
575.69	1220.59
575.88	1267.69
576.08	1306.60
576.27	1226.73
576.47	1366.00
576.66	1304.56
576.86	1257.45
577.05	1298.41
577.25	1331.18
577.44	1331.18
577.64	1255.40
577.83	1251.31
578.02	1304.56
578.22	1263.60
578.41	1226.73
578.61	1292.27
578.80	1333.23
579.00	1275.88
579.19	1265.64
579.39	1314.80
579.58	1286.12
579.77	1312.75
579.97	1282.03
580.16	1337.32
580.36	1277.93
580.55	1267.69
580.75	1230.83
580.94	1218.54
581.13	1224.69
581.33	1273.84
581.52	1275.88
581.72	1325.04
581.91	1296.36
582.11	1380.33
582.30	1304.56
582.49	1290.22
582.69	1273.84
582.88	1290.22
583.08	1257.45
583.27	1265.64
583.47	1245.16
583.66	1312.75
583.85	1302.51
584.05	1243.12
584.24	1290.22
584.44	1269.74
584.63	1253.36
584.82	1279.98
585.02	1288.17
585.21	1249.26
585.41	1282.03
585.60	1318.89
585.79	1277.93
585.99	1271.79
586.18	1245.16
586.37	1355.76
586.57	1353.71
586.76	1273.84
586.96	1300.46
587.15	1267.69
587.34	1271.79
587.54	1247.21
587.73	1286.12
587.93	1259.50
588.12	1290.22
588.31	1179.63
588.51	1316.84
588.70	1224.69
588.89	1247.21
589.09	1314.80
589.28	1208.30
589.47	1298.41
589.67	1298.41
589.86	1286.12
590.06	1298.41
590.25	1277.93
590.44	1269.74
590.64	1273.84
590.83	1355.76
591.02	1255.40
591.22	1339.37
591.41	1269.74
591.60	1273.84
591.80	1236.97
591.99	1251.31
592.18	1310.70
592.38	1273.84
592.57	1263.60
592.76	1355.76
592.96	1183.73
593.15	1327.08
593.34	1216.49
593.54	1249.26
593.73	1234.93
593.92	1279.98
594.12	1318.89
594.31	1304.56
594.50	1312.75
594.70	1218.54
594.89	1292.27
595.08	1288.17
595.28	1259.50
595.47	1282.03
595.66	1314.80
595.86	1273.84
596.05	1353.71
596.24	1226.73
596.43	1253.36
596.63	1347.56
596.82	1267.69
597.01	1275.88
597.21	1271.79
597.40	1239.02
597.59	1288.17
597.79	1241.07
597.98	1454.06
598.17	1290.22
598.36	1282.03
598.56	1294.32
598.75	1339.37
598.94	1312.75
599.14	1368.04
599.33	1306.60
599.52	1320.94
599.71	1306.60
599.91	1347.56
600.10	1353.71
600.29	1253.36
600.48	1345.52
600.68	1249.26
600.87	1288.17
601.06	1241.07
601.26	1243.12
601.45	1282.03
601.64	1243.12
601.83	1306.60
602.03	1322.99
602.22	1269.74
602.41	1374.19
602.60	1288.17
602.80	1296.36
602.99	1308.65
603.18	1216.49
603.37	1282.03
603.57	1277.93
603.76	1232.88
603.95	1286.12
604.14	1290.22
604.34	1294.32
604.53	1271.79
604.72	1370.09
604.91	1277.93
605.10	1259.50
605.30	1286.12
605.49	1243.12
605.68	1263.60
605.87	1337.32
606.07	1351.66
606.26	1347.56
606.45	1277.93
606.64	1273.84
606.84	1310.70
607.03	1277.93
607.22	1306.60
607.41	1294.32
607.60	1265.64
607.80	1394.67
607.99	1296.36
608.18	1241.07
608.37	1271.79
608.56	1284.08
608.76	1294.32
608.95	1300.46
609.14	1277.93
609.33	1312.75
609.52	1253.36
609.72	1298.41
609.91	1310.70
610.10	1329.13
610.29	1380.33
610.48	1286.12
610.68	1310.70
610.87	1353.71
611.06	1331.18
611.25	1312.75
611.44	1355.76
611.63	1308.65
611.83	1310.70
612.02	1296.36
612.21	1341.42
612.40	1290.22
612.59	1251.31
612.79	1253.36
612.98	1247.21
613.17	1247.21
613.36	1277.93
613.55	1243.12
613.74	1232.88
613.93	1259.50
614.13	1271.79
614.32	1249.26
614.51	1308.65
614.70	1210.35
614.89	1255.40
615.08	1220.59
615.28	1343.47
615.47	1273.84
615.66	1247.21
615.85	1267.69
616.04	1306.60
616.23	1298.41
616.42	1318.89
616.62	1284.08
616.81	1273.84
617.00	1259.50
617.19	1312.75
617.38	1300.46
617.57	1304.56
617.76	1212.40
617.95	1243.12
618.15	1312.75
618.34	1290.22
618.53	1282.03
618.72	1210.35
618.91	1292.27
619.10	1296.36
619.29	1253.36
619.48	1304.56
619.68	1253.36
619.87	1368.04
620.06	1257.45
620.25	1259.50
620.44	1306.60
620.63	1247.21
620.82	1296.36
621.01	1220.59
621.20	1249.26
621.39	1241.07
621.59	1263.60
621.78	1345.52
621.97	1298.41
622.16	1320.94
622.35	1239.02
622.54	1273.84
622.73	1292.27
622.92	1255.40
623.11	1257.45
623.30	1302.51
623.49	1236.97
623.68	1200.11
623.88	1296.36
624.07	1220.59
624.26	1255.40
624.45	1243.12
624.64	1200.11
624.83	1318.89
625.02	1290.22
625.21	1247.21
625.40	1302.51
625.59	1363.95
625.78	1314.80
625.97	1286.12
626.16	1325.04
626.35	1380.33
626.54	1288.17
626.74	1292.27
626.93	1335.28
627.12	1298.41
627.31	1290.22
627.50	1318.89
627.69	1269.74
627.88	1269.74
628.07	1261.55
628.26	1234.93
628.45	1257.45
628.64	1341.42
628.83	1322.99
629.02	1253.36
629.21	1251.31
629.40	1263.60
629.59	1310.70
629.78	1304.56
629.97	1339.37
630.16	1318.89
630.35	1343.47
630.54	1314.80
630.73	1288.17
630.92	1284.08
631.11	1308.65
631.30	1312.75
631.49	1269.74
631.68	1277.93
631.87	1417.19
632.06	1427.43
632.25	1347.56
632.44	1529.83
632.63	1449.96
632.82	1458.15
633.01	1390.57
633.20	1361.90
633.39	1476.59
633.58	1433.58
633.77	1492.97
633.96	1521.64
634.15	1548.26
634.34	2060.26
634.53	2279.39
634.72	1855.46
634.91	1484.78
635.10	1830.88
635.29	2461.66
635.48	2877.40
635.67	2717.65
635.86	2394.08
636.05	2080.74
636.24	1896.42
636.43	1654.76
636.62	1431.53
636.81	1425.39
637.00	1452.01
637.19	1318.89
637.38	1357.80
637.57	1359.85
637.76	1355.76
637.95	1382.38
638.14	1329.13
638.33	1288.17
638.52	1245.16
638.71	1236.97
638.89	1253.36
639.08	1308.65
639.27	1296.36
639.46	1282.03
639.65	1263.60
639.84	1296.36
640.03	1329.13
640.22	1304.56
640.41	1255.40
640.60	1374.19
640.79	1312.75
640.98	1351.66
641.17	1200.11
641.36	1257.45
641.55	1316.84
641.74	1329.13
641.92	1249.26
642.11	1279.98
642.30	1279.98
642.49	1284.08
642.68	1241.07
642.87	1304.56
643.06	1277.93
643.25	1316.84
643.44	1271.79
643.63	1265.64
643.82	1247.21
644.00	1220.59
644.19	1230.83
644.38	1277.93
644.57	1329.13
644.76	1277.93
644.95	1269.74
645.14	1325.04
645.33	1267.69
645.52	1312.75
645.71	1277.93
645.89	1282.03
646.08	1208.30
646.27	1263.60
646.46	1245.16
646.65	1322.99
646.84	1251.31
647.03	1271.79
647.22	1275.88
647.40	1243.12
647.59	1269.74
647.78	1279.98
647.97	1224.69
648.16	1279.98
648.35	1294.32
648.54	1243.12
648.73	1296.36
648.91	1296.36
649.10	1314.80
649.29	1273.84
649.48	1265.64
649.67	1247.21
649.86	1357.80
650.05	1337.32
650.23	1353.71
650.42	1269.74
650.61	1290.22
650.80	1236.97
650.99	1310.70
651.18	1245.16
651.36	1288.17
651.55	1253.36
651.74	1351.66
651.93	1361.90
652.12	1189.87
652.31	1230.83
652.49	1286.12
652.68	1181.68
652.87	1273.84
653.06	1273.84
653.25	1239.02
653.44	1314.80
653.62	1267.69
653.81	1329.13
654.00	1249.26
654.19	1226.73
654.38	1337.32
654.56	1322.99
654.75	1329.13
654.94	1355.76
655.13	1255.40
655.32	1312.75
655.51	1331.18
655.69	1286.12
655.88	1218.54
656.07	1306.60
656.26	1273.84
656.45	1265.64
656.63	1214.45
656.82	1294.32
657.01	1286.12
657.20	1249.26
657.38	1267.69
657.57	1187.82
657.76	1253.36
657.95	1253.36
658.14	1347.56
658.32	1282.03
658.51	1243.12
658.70	1253.36
658.89	1312.75
659.08	1247.21
659.26	1267.69
659.45	1294.32
659.64	1282.03
659.83	1341.42
660.01	1253.36
660.20	1241.07
660.39	1200.11
660.58	1294.32
660.76	1261.55
660.95	1236.97
661.14	1253.36
661.33	1257.45
661.51	1304.56
661.70	1302.51
661.89	1257.45
662.08	1230.83
662.26	1224.69
662.45	1286.12
662.64	1236.97
662.83	1275.88
663.01	1251.31
663.20	1306.60
663.39	1255.40
663.58	1282.03
663.76	1277.93
663.95	1298.41
664.14	1284.08
664.32	1236.97
664.51	1271.79
664.70	1261.55
664.89	1263.60
665.07	1290.22
665.26	1273.84
665.45	1200.11
665.64	1300.46
665.82	1224.69
666.01	1310.70
666.20	1277.93
666.38	1288.17
666.57	1300.46
666.76	1310.70
666.95	1265.64
667.13	1284.08
667.32	1316.84
667.51	1226.73
667.69	1263.60
667.88	1236.97
668.07	1265.64
668.25	1249.26
668.44	1282.03
668.63	1214.45
668.81	1302.51
669.00	1220.59
669.19	1310.70
669.38	1282.03
669.56	1327.08
669.75	1331.18
669.94	1284.08
670.12	1335.28
670.31	1282.03
670.50	1271.79
670.68	1267.69
670.87	1316.84
671.06	1187.82
671.24	1372.14
671.43	1277.93
671.62	1257.45
671.80	1255.40
671.99	1322.99
672.18	1294.32
672.36	1314.80
672.55	1304.56
672.74	1290.22
672.92	1290.22
673.11	1294.32
673.29	1226.73
673.48	1241.07
673.67	1327.08
673.85	1322.99
674.04	1212.40
674.23	1327.08
674.41	1302.51
674.60	1310.70
674.79	1306.60
674.97	1251.31
675.16	1312.75
675.34	1337.32
675.53	1257.45
675.72	1296.36
675.90	1263.60
676.09	1255.40
676.28	1255.40
676.46	1300.46
676.65	1239.02
676.83	1263.60
677.02	1259.50
677.21	1249.26
677.39	1261.55
677.58	1273.84
677.77	1263.60
677.95	1331.18
678.14	1232.88
678.32	1337.32
678.51	1288.17
678.70	1302.51
678.88	1234.93
679.07	1279.98
679.25	1304.56
679.44	1355.76
679.63	1243.12
679.81	1333.23
680.00	1247.21
680.18	1239.02
680.37	1308.65
680.55	1300.46
680.74	1294.32
680.93	1290.22
681.11	1286.12
681.30	1251.31
681.48	1292.27
681.67	1316.84
681.85	1302.51
682.04	1304.56
682.23	1296.36
682.41	1339.37
682.60	1241.07
682.78	1282.03
682.97	1251.31
683.15	1251.31
683.34	1267.69
683.53	1298.41
683.71	1232.88
683.90	1259.50
684.08	1320.94
684.27	1241.07
684.45	1331.18
684.64	1322.99
684.82	1277.93
685.01	1298.41
685.19	1298.41
685.38	1218.54
685.57	1255.40
685.75	1279.98
685.94	1255.40
686.12	1327.08
686.31	1153.01
686.49	1214.45
686.68	1222.64
686.86	1284.08
687.05	1331.18
687.23	1378.28
687.42	1282.03
687.60	1320.94
687.79	1232.88
687.97	1277.93
688.16	1279.98
688.34	1269.74
688.53	1263.60
688.71	1314.80
688.90	1245.16
689.08	1253.36
689.27	1259.50
689.45	1273.84
689.64	1224.69
689.82	1335.28
690.01	1271.79
690.19	1282.03
690.38	1224.69
690.56	1239.02
690.75	1279.98
690.93	1308.65
691.12	1269.74
691.30	1163.25
691.49	1296.36
691.67	1275.88
691.86	1306.60
692.04	1253.36
692.23	1245.16
692.41	1273.84
692.60	1253.36
692.78	1288.17
692.97	1234.93
693.15	1226.73
693.34	1267.69
693.52	1335.28
693.71	1298.41
693.89	1294.32
694.08	1247.21
694.26	1300.46
694.44	1300.46
694.63	1296.36
694.81	1251.31
695.00	1251.31
695.18	1279.98
695.37	1322.99
695.55	1314.80
695.74	1345.52
695.92	1208.30
696.10	1320.94
696.29	1265.64
696.47	1318.89
696.66	1282.03
696.84	1249.26
697.03	1251.31
697.21	1271.79
697.40	1318.89
697.58	1255.40
697.76	1222.64
697.95	1241.07
698.13	1282.03
698.32	1230.83
698.50	1224.69
698.68	1286.12
698.87	1314.80
699.05	1165.29
699.24	1273.84
699.42	1351.66
699.61	1243.12
699.79	1327.08
699.97	1255.40
700.16	1245.16
700.34	1224.69
700.53	1216.49
700.71	1343.47
700.89	1273.84
701.08	1257.45
701.26	1290.22
701.45	1245.16
701.63	1273.84
701.81	1273.84
702.00	1253.36
702.18	1308.65
702.37	1312.75
702.55	1261.55
702.73	1228.78
702.92	1204.21
703.10	1298.41
703.28	1267.69
703.47	1210.35
703.65	1247.21
703.84	1310.70
704.02	1310.70
704.20	1265.64
704.39	1232.88
704.57	1251.31
704.75	1347.56
704.94	1269.74
705.12	1265.64
705.30	1282.03
705.49	1349.61
705.67	1310.70
705.86	1327.08
706.04	1236.97
706.22	1179.63
706.41	1214.45
706.59	1255.40
706.77	1226.73
706.96	1292.27
707.14	1361.90
707.32	1288.17
707.51	1273.84
707.69	1349.61
707.87	1279.98
708.06	1222.64
708.24	1337.32
708.42	1335.28
708.61	1300.46
708.79	1267.69
708.97	1271.79
709.16	1196.01
709.34	1251.31
709.52	1261.55
709.71	1290.22
709.89	1279.98
710.07	1271.79
710.26	1265.64
710.44	1355.76
710.62	1267.69
710.80	1290.22
710.99	1253.36
711.17	1226.73
711.35	1304.56
711.54	1273.84
711.72	1304.56
711.90	1325.04
712.09	1286.12
712.27	1251.31
712.45	1234.93
712.63	1216.49
712.82	1230.83
713.00	1288.17
713.18	1230.83
713.37	1228.78
713.55	1279.98
713.73	1292.27
713.91	1222.64
714.10	1261.55
714.28	1234.93
714.46	1312.75
714.65	1302.51
714.83	1298.41
715.01	1310.70
715.19	1273.84
715.38	1196.01
715.56	1363.95
715.74	1261.55
715.92	1284.08
716.11	1226.73
716.29	1312.75
716.47	1253.36
716.65	1230.83
716.84	1263.60
717.02	1320.94
717.20	1239.02
717.38	1269.74
717.57	1181.68
717.75	1257.45
717.93	1187.82
718.11	1318.89
718.30	1206.25
718.48	1232.88
718.66	1310.70
718.84	1253.36
719.03	1374.19
719.21	1290.22
719.39	1214.45
719.57	1284.08
719.75	1247.21
719.94	1339.37
720.12	1181.68
720.30	1263.60
720.48	1290.22
720.67	1236.97
720.85	1218.54
721.03	1208.30
721.21	1296.36
721.39	1249.26
721.58	1318.89
721.76	1230.83
721.94	1271.79
722.12	1241.07
722.30	1282.03
722.49	1294.32
722.67	1331.18
722.85	1169.39
723.03	1236.97
723.21	1308.65
723.40	1243.12
723.58	1314.80
723.76	1282.03
723.94	1206.25
724.12	1253.36
724.30	1230.83
724.49	1259.50
724.67	1273.84
724.85	1257.45
725.03	1202.16
725.21	1296.36
725.40	1288.17
725.58	1169.39
725.76	1249.26
725.94	1263.60
726.12	1304.56
726.30	1300.46
726.49	1253.36
726.67	1179.63
726.85	1222.64
727.03	1253.36
727.21	1306.60
727.39	1271.79
727.57	1245.16
727.76	1269.74
727.94	1232.88
728.12	1363.95
728.30	1306.60
728.48	1249.26
728.66	1273.84
728.84	1277.93
729.03	1306.60
729.21	1196.01
729.39	1279.98
729.57	1298.41
729.75	1249.26
729.93	1245.16
730.11	1220.59
730.30	1253.36
730.48	1253.36
730.66	1286.12
730.84	1210.35
731.02	1259.50
731.20	1230.83
731.38	1310.70
731.56	1241.07
731.74	1286.12
731.93	1208.30
732.11	1269.74
732.29	1222.64
732.47	1300.46
732.65	1292.27
732.83	1308.65
733.01	1183.73
733.19	1261.55
733.37	1288.17
733.56	1337.32
733.74	1306.60
733.92	1333.23
734.10	1286.12
734.28	1314.80
734.46	1294.32
734.64	1310.70
734.82	1257.45
735.00	1216.49
735.18	1216.49
735.36	1214.45
735.54	1308.65
735.73	1259.50
735.91	1271.79
736.09	1288.17
736.27	1226.73
736.45	1353.71
736.63	1232.88
736.81	1243.12
736.99	1300.46
737.17	1191.92
737.35	1265.64
737.53	1259.50
737.71	1208.30
737.89	1226.73
738.07	1220.59
738.25	1384.43
738.43	1234.93
738.61	1241.07
738.80	1271.79
738.98	1279.98
739.16	1257.45
739.34	1251.31
739.52	1357.80
739.70	1234.93
739.88	1208.30
740.06	1267.69
740.24	1243.12
740.42	1236.97
740.60	1294.32
740.78	1265.64
740.96	1243.12
741.14	1255.40
741.32	1302.51
741.50	1230.83
741.68	1329.13
741.86	1269.74
742.04	1290.22
742.22	1214.45
742.40	1218.54
742.58	1368.04
742.76	1247.21
742.94	1257.45
743.12	1320.94
743.30	1257.45
743.48	1263.60
743.66	1222.64
743.84	1284.08
744.02	1218.54
744.20	1294.32
744.38	1263.60
744.56	1247.21
744.74	1290.22
744.92	1239.02
745.10	1286.12
745.28	1214.45
745.46	1275.88
745.64	1255.40
745.82	1298.41
746.00	1232.88
746.18	1232.88
746.36	1234.93
746.54	1294.32
746.72	1288.17
746.90	1251.31
747.08	1245.16
747.26	1322.99
747.44	1251.31
747.62	1261.55
747.80	1275.88
747.98	1236.97
748.15	1249.26
748.33	1263.60
748.51	1296.36
748.69	1251.31
748.87	1329.13
749.05	1218.54
749.23	1275.88
749.41	1314.80
749.59	1241.07
749.77	1277.93
749.95	1286.12
750.13	1308.65
750.31	1329.13
750.49	1304.56
750.67	1273.84
750.85	1273.84
751.03	1208.30
751.20	1187.82
751.38	1232.88
751.56	1335.28
751.74	1257.45
751.92	1304.56
752.10	1279.98
752.28	1191.92
752.46	1304.56
752.64	1282.03
752.82	1298.41
753.00	1275.88
753.18	1361.90
753.35	1265.64
753.53	1232.88
753.71	1286.12
753.89	1273.84
754.07	1292.27
754.25	1239.02
754.43	1222.64
754.61	1220.59
754.79	1279.98
754.97	1314.80
755.14	1245.16
755.32	1224.69
755.50	1173.49
755.68	1206.25
755.86	1300.46
756.04	1312.75
756.22	1253.36
756.40	1282.03
756.57	1288.17
756.75	1277.93
756.93	1269.74
757.11	1312.75
757.29	1249.26
757.47	1290.22
757.65	1257.45
757.82	1263.60
758.00	1251.31
758.18	1224.69
758.36	1273.84
758.54	1282.03
758.72	1249.26
758.90	1249.26
759.07	1253.36
759.25	1290.22
759.43	1327.08
759.61	1296.36
759.79	1320.94
759.97	1263.60
760.15	1263.60
760.32	1282.03
760.50	1257.45
760.68	1308.65
760.86	1253.36
761.04	1322.99
761.22	1230.83
761.39	1239.02
761.57	1218.54
761.75	1191.92
761.93	1234.93
762.11	1306.60
762.28	1243.12
762.46	1230.83
762.64	1216.49
762.82	1263.60
763.00	1318.89
763.18	1284.08
763.35	1236.97
763.53	1241.07
763.71	1318.89
763.89	1241.07
764.07	1304.56
764.24	1296.36
764.42	1245.16
764.60	1210.35
764.78	1337.32
764.96	1232.88
765.13	1259.50
765.31	1347.56
765.49	1245.16
765.67	1304.56
765.84	1224.69
766.02	1282.03
766.20	1196.01
766.38	1265.64
766.56	1183.73
766.73	1359.85
766.91	1253.36
767.09	1302.51
767.27	1273.84
767.44	1253.36
767.62	1294.32
767.80	1216.49
767.98	1241.07
768.15	1284.08
768.33	1241.07
768.51	1191.92
768.69	1236.97
768.87	1253.36
769.04	1267.69
769.22	1210.35
769.40	1275.88
769.58	1216.49
769.75	1302.51
769.93	1277.93
770.11	1302.51
770.28	1275.88
770.46	1261.55
770.64	1255.40
770.82	1273.84
770.99	1286.12
771.17	1275.88
771.35	1183.73
771.53	1255.40
771.70	1271.79
771.88	1341.42
772.06	1271.79
772.23	1236.97
772.41	1220.59
772.59	1263.60
772.77	1341.42
772.94	1261.55
773.12	1234.93
773.30	1308.65
773.47	1239.02
773.65	1249.26
773.83	1290.22
774.01	1316.84
774.18	1230.83
774.36	1288.17
774.54	1234.93
774.71	1206.25
774.89	1263.60
775.07	1318.89
775.24	1253.36
775.42	1271.79
775.60	1282.03
775.78	1263.60
775.95	1284.08
776.13	1228.78
776.31	1267.69
776.48	1269.74
776.66	1271.79
776.84	1241.07
777.01	1259.50
777.19	1249.26
777.37	1304.56
777.54	1239.02
777.72	1269.74
777.90	1255.40
778.07	1228.78
778.25	1308.65
778.43	1216.49
778.60	1284.08
778.78	1300.46
778.96	1198.06
779.13	1259.50
779.31	1261.55
779.49	1232.88
779.66	1251.31
779.84	1294.32
780.01	1335.28
780.19	1234.93
780.37	1261.55
780.54	1230.83
780.72	1306.60
780.90	1275.88
781.07	1261.55
781.25	1275.88
781.43	1275.88
781.60	1312.75
781.78	1239.02
781.95	1212.40
782.13	1257.45
782.31	1253.36
782.48	1263.60
782.66	1187.82
782.83	1296.36
783.01	1271.79
783.19	1251.31
783.36	1288.17
783.54	1294.32
783.72	1210.35
783.89	1290.22
784.07	1265.64
784.24	1288.17
784.42	1284.08
784.60	1261.55
784.77	1222.64
784.95	1273.84
785.12	1241.07
785.30	1294.32
785.47	1230.83
785.65	1286.12
785.83	1306.60
786.00	1230.83
786.18	1335.28
786.35	1220.59
786.53	1300.46
786.71	1245.16
786.88	1302.51
787.06	1253.36
787.23	1292.27
787.41	1347.56
787.58	1275.88
787.76	1306.60
787.94	1298.41
788.11	1214.45
788.29	1277.93
788.46	1320.94
788.64	1296.36
788.81	1286.12
788.99	1218.54
789.16	1269.74
789.34	1320.94
789.52	1249.26
789.69	1263.60
789.87	1208.30
790.04	1267.69
790.22	1243.12
790.39	1298.41
790.57	1296.36
790.74	1247.21
790.92	1271.79
791.09	1212.40
791.27	1247.21
791.44	1282.03
791.62	1251.31
791.79	1288.17
791.97	1241.07
792.15	1302.51
792.32	1212.40
792.50	1322.99
792.67	1300.46
792.85	1302.51
793.02	1245.16
793.20	1243.12
793.37	1292.27
793.55	1279.98
793.72	1288.17
793.90	1310.70
794.07	1206.25
794.25	1245.16
794.42	1322.99
794.60	1290.22
794.77	1255.40
794.95	1308.65
795.12	1267.69
795.30	1241.07
795.47	1214.45
795.65	1277.93
795.82	1290.22
796.00	1232.88
796.17	1294.32
796.34	1232.88
796.52	1263.60
796.69	1275.88
796.87	1241.07
797.04	1259.50
797.22	1243.12
797.39	1296.36
797.57	1218.54
797.74	1267.69
797.92	1224.69
798.09	1232.88
798.27	1316.84
798.44	1286.12
798.62	1208.30
798.79	1222.64
798.96	1247.21
799.14	1247.21
799.31	1279.98
799.49	1304.56
799.66	1300.46
799.84	1230.83
800.01	1306.60
800.19	1337.32
800.36	1316.84
800.53	1230.83
800.71	1302.51
800.88	1261.55
801.06	1302.51
801.23	1296.36
801.41	1198.06
801.58	1265.64
801.75	1239.02
801.93	1288.17
802.10	1288.17
802.28	1310.70
802.45	1204.21
802.63	1329.13
802.80	1183.73
802.97	1300.46
803.15	1282.03
803.32	1232.88
803.50	1245.16
803.67	1251.31
803.84	1183.73
804.02	1310.70
804.19	1251.31
804.37	1202.16
804.54	1243.12
804.71	1243.12
804.89	1267.69
805.06	1265.64
805.24	1271.79
805.41	1185.77
805.58	1286.12
805.76	1339.37
805.93	1234.93
806.10	1200.11
806.28	1333.23
806.45	1249.26
806.63	1273.84
806.80	1263.60
806.97	1269.74
807.15	1226.73
807.32	1304.56
807.49	1314.80
807.67	1241.07
807.84	1257.45
808.01	1249.26
808.19	1265.64
808.36	1279.98
808.54	1310.70
808.71	1320.94
808.88	1228.78
809.06	1261.55
809.23	1230.83
809.40	1310.70
809.58	1306.60
809.75	1300.46
809.92	1331.18
810.10	1196.01
810.27	1273.84
810.44	1300.46
810.62	1249.26
810.79	1259.50
810.96	1241.07
811.14	1279.98
811.31	1310.70
811.48	1255.40
811.66	1277.93
811.83	1253.36
812.00	1275.88
812.18	1288.17
812.35	1284.08
812.52	1292.27
812.69	1275.88
812.87	1265.64
813.04	1290.22
813.21	1314.80
813.39	1327.08
813.56	1236.97
813.73	1249.26
813.91	1294.32
814.08	1232.88
814.25	1261.55
814.42	1253.36
814.60	1277.93
814.77	1265.64
814.94	1224.69
815.12	1265.64
815.29	1296.36
815.46	1255.40
815.63	1286.12
815.81	1331.18
815.98	1212.40
816.15	1320.94
816.33	1232.88
816.50	1279.98
816.67	1173.49
816.84	1267.69
817.02	1253.36
817.19	1218.54
817.36	1255.40
817.53	1290.22
817.71	1298.41
817.88	1286.12
818.05	1271.79
818.22	1257.45
818.40	1234.93
818.57	1353.71
818.74	1228.78
818.91	1189.87
819.09	1312.75
819.26	1261.55
819.43	1249.26
819.60	1322.99
819.78	1300.46
819.95	1325.04
820.12	1236.97
820.29	1275.88
820.47	1308.65
820.64	1318.89
820.81	1325.04
820.98	1322.99
821.15	1220.59
821.33	1306.60
821.50	1189.87
821.67	1284.08
821.84	1210.35
822.02	1302.51
822.19	1290.22
822.36	1257.45
822.53	1294.32
822.70	1179.63
822.88	1230.83
823.05	1218.54
823.22	1284.08
823.39	1343.47
823.56	1329.13
823.74	1298.41
823.91	1212.40
824.08	1265.64
824.25	1314.80
824.42	1316.84
824.60	1296.36
824.77	1263.60
824.94	1302.51
825.11	1347.56
825.28	1273.84
825.45	1306.60
825.63	1310.70
825.80	1318.89
825.97	1210.35
826.14	1261.55
826.31	1259.50
826.48	1257.45
826.66	1253.36
826.83	1273.84
827.00	1247.21
827.17	1347.56
827.34	1273.84
827.51	1306.60
827.69	1273.84
827.86	1273.84
828.03	1306.60
828.20	1222.64
828.37	1312.75
828.54	1239.02
828.71	1257.45
828.89	1236.97
829.06	1269.74
829.23	1228.78
829.40	1286.12
829.57	1216.49
829.74	1271.79
829.91	1230.83
830.09	1269.74
830.26	1265.64
830.43	1245.16
830.60	1374.19
830.77	1279.98
830.94	1271.79
831.11	1189.87
831.28	1304.56
831.46	1220.59
831.63	1308.65
831.80	1239.02
831.97	1286.12
832.14	1337.32
832.31	1183.73
832.48	1318.89
832.65	1302.51
832.82	1345.52
832.99	1273.84
833.17	1257.45
833.34	1339.37
833.51	1198.06
833.68	1298.41
833.85	1273.84
834.02	1204.21
834.19	1269.74
834.36	1290.22
834.53	1224.69
834.70	1347.56
834.87	1322.99
835.04	1335.28
835.22	1284.08
835.39	1267.69
835.56	1286.12
835.73	1320.94
835.90	1267.69
836.07	1245.16
836.24	1236.97
836.41	1273.84
836.58	1282.03
836.75	1279.98
836.92	1282.03
837.09	1325.04
837.26	1314.80
837.43	1320.94
837.60	1273.84
837.77	1306.60
837.94	1282.03
838.12	1306.60
838.29	1271.79
838.46	1271.79
838.63	1294.32
838.80	1277.93
838.97	1236.97
839.14	1277.93
839.31	1247.21
839.48	1271.79
839.65	1277.93
839.82	1245.16
839.99	1257.45
840.16	1245.16
840.33	1337.32
840.50	1355.76
840.67	1198.06
840.84	1228.78
841.01	1277.93
841.18	1232.88
841.35	1259.50
841.52	1310.70
841.69	1286.12
841.86	1251.31
842.03	1271.79
842.20	1296.36
842.37	1228.78
842.54	1230.83
842.71	1286.12
842.88	1298.41
843.05	1292.27
843.22	1251.31
843.39	1224.69
843.56	1251.31
843.73	1255.40
843.90	1245.16
844.07	1257.45
844.24	1327.08
844.41	1271.79
844.58	1226.73
844.75	1329.13
844.92	1259.50
845.09	1273.84
845.26	1275.88
845.43	1265.64
845.60	1343.47
845.77	1296.36
845.94	1290.22
846.10	1284.08
846.27	1325.04
846.44	1337.32
846.61	1232.88
846.78	1331.18
846.95	1243.12
847.12	1259.50
847.29	1236.97
847.46	1275.88
847.63	1269.74
847.80	1226.73
847.97	1200.11
848.14	1288.17
848.31	1247.21
848.48	1290.22
848.65	1312.75
848.82	1275.88
848.98	1286.12
849.15	1304.56
849.32	1212.40
849.49	1314.80
849.66	1236.97
849.83	1363.95
850.00	1296.36
850.17	1327.08
850.34	1234.93
850.51	1222.64
850.68	1353.71
850.85	1286.12
851.01	1236.97
851.18	1267.69
851.35	1339.37
851.52	1284.08
851.69	1341.42
851.86	1267.69
852.03	1210.35
852.20	1253.36
852.37	1232.88
852.53	1196.01
852.70	1282.03
852.87	1181.68
853.04	1339.37
853.21	1226.73
853.38	1255.40
853.55	1187.82
853.72	1204.21
853.89	1271.79
854.05	1325.04
854.22	1230.83
854.39	1300.46
854.56	1300.46
854.73	1208.30
854.90	1269.74
855.07	1265.64
855.23	1245.16
855.40	1318.89
855.57	1302.51
855.74	1322.99
855.91	1269.74
856.08	1277.93
856.25	1290.22
856.41	1271.79
856.58	1282.03
856.75	1290.22
856.92	1265.64
857.09	1257.45
857.26	1282.03
857.42	1232.88
857.59	1288.17
857.76	1310.70
857.93	1263.60
858.10	1218.54
858.27	1267.69
858.43	1277.93
858.60	1286.12
858.77	1331.18
858.94	1249.26
859.11	1312.75
859.27	1224.69
859.44	1255.40
859.61	1265.64
859.78	1282.03
859.95	1267.69
860.12	1230.83
860.28	1349.61
860.45	1384.43
860.62	1220.59
860.79	1243.12
860.95	1208.30
861.12	1284.08
861.29	1300.46
861.46	1253.36
861.63	1236.97
861.79	1322.99
861.96	1318.89
862.13	1259.50
862.30	1275.88
862.47	1230.83
862.63	1343.47
862.80	1273.84
862.97	1230.83
863.14	1284.08
863.30	1282.03
863.47	1304.56
863.64	1322.99
863.81	1214.45
863.97	1277.93
864.14	1214.45
864.31	1259.50
864.48	1292.27
864.65	1288.17
864.81	1232.88
864.98	1259.50
865.15	1310.70
865.32	1282.03
865.48	1259.50
865.65	1243.12
865.82	1296.36
865.98	1249.26
866.15	1249.26
866.32	1314.80
866.49	1312.75
866.65	1245.16
866.82	1222.64
866.99	1230.83
867.16	1279.98
867.32	1273.84
867.49	1314.80
867.66	1279.98
867.83	1253.36
867.99	1300.46
868.16	1333.23
868.33	1224.69
868.49	1314.80
868.66	1253.36
868.83	1259.50
868.99	1224.69
869.16	1261.55
869.33	1239.02
869.50	1349.61
869.66	1275.88
869.83	1308.65
870.00	1228.78
870.16	1253.36
870.33	1232.88
870.50	1230.83
870.66	1304.56
870.83	1263.60
871.00	1236.97
871.17	1294.32
871.33	1325.04
871.50	1251.31
871.67	1267.69
871.83	1337.32
872.00	1282.03
872.17	1249.26
872.33	1222.64
872.50	1193.97
872.67	1279.98
872.83	1298.41
873.00	1173.49
873.17	1302.51
873.33	1216.49
873.50	1241.07
873.67	1279.98
873.83	1236.97
874.00	1286.12
874.16	1259.50
874.33	1232.88
874.50	1210.35
874.66	1247.21
874.83	1304.56
875.00	1292.27
875.16	1288.17
875.33	1220.59
875.50	1296.36
875.66	1247.21
875.83	1318.89
875.99	1253.36
876.16	1241.07
876.33	1288.17
876.49	1232.88
876.66	1263.60
876.83	1259.50
876.99	1331.18
877.16	1316.84
877.32	1253.36
877.49	1208.30
877.66	1214.45
877.82	1335.28
877.99	1255.40
878.15	1312.75
878.32	1294.32
878.49	1282.03
878.65	1355.76
878.82	1286.12
878.98	1257.45
879.15	1234.93
879.32	1314.80
879.48	1286.12
879.65	1234.93
879.81	1273.84
879.98	1251.31
880.15	1218.54
880.31	1228.78
880.48	1320.94
880.64	1355.76
880.81	1267.69
880.97	1228.78
881.14	1265.64
881.31	1275.88
881.47	1312.75
881.64	1241.07
881.80	1255.40
881.97	1267.69
882.13	1228.78
882.30	1261.55
882.47	1257.45
882.63	1304.56
882.80	1228.78
882.96	1249.26
883.13	1288.17
883.29	1247.21
883.46	1282.03
883.62	1308.65
883.79	1290.22
883.95	1310.70
884.12	1296.36
884.29	1232.88
884.45	1222.64
884.62	1259.50
884.78	1261.55
884.95	1298.41
885.11	1245.16
885.28	1253.36
885.44	1265.64
885.61	1298.41
885.77	1269.74
885.94	1306.60
886.10	1294.32
886.27	1220.59
886.43	1296.36
886.60	1247.21
886.76	1255.40
886.93	1298.41
887.09	1316.84
887.26	1243.12
887.42	1259.50
887.59	1296.36
887.75	1316.84
887.92	1296.36
888.08	1239.02
888.25	1316.84
888.41	1298.41
888.58	1206.25
888.74	1310.70
888.91	1341.42
>>>>>End Processed Spectral Data<<<<<
