SpectraSuite Data File
++++++++++++++++++++++++++++++++++++
Date: Sun Apr 03 19:55:43 CEST 2016
User: root
Dark Spectrum Present: No
Reference Spectrum Present: No
Number of Sampled Component Spectra: 1
Spectrometers: USB4C02835
Integration Time (usec): 10000 (USB4C02835)
Spectra Averaged: 1 (USB4C02835)
Boxcar Smoothing: 0 (USB4C02835)
Correct for Electrical Dark: No (USB4C02835)
Strobe/Lamp Enabled: No (USB4C02835)
Correct for Detector Non-linearity: No (USB4C02835)
Correct for Stray Light: No (USB4C02835)
Number of Pixels in Processed Spectrum: 3648
>>>>>Begin Processed Spectral Data<<<<<
177.47	1298.41
177.69	1298.41
177.91	1298.41
178.13	1257.45
178.36	1208.30
178.58	1290.22
178.80	1288.17
179.02	1239.02
179.24	1298.41
179.46	1228.78
179.68	1296.36
179.90	1331.18
180.13	1257.45
180.35	1310.70
180.57	1200.11
180.79	1234.93
181.01	1261.55
181.23	1257.45
181.45	1298.41
181.67	1271.79
181.90	1267.69
182.12	1249.26
182.34	1218.54
182.56	1269.74
182.78	1234.93
183.00	1286.12
183.22	1249.26
183.44	1325.04
183.66	1306.60
183.89	1269.74
184.11	1286.12
184.33	1333.23
184.55	1230.83
184.77	1361.90
184.99	1306.60
185.21	1263.60
185.43	1259.50
185.65	1312.75
185.87	1179.63
186.10	1267.69
186.32	1318.89
186.54	1271.79
186.76	1296.36
186.98	1247.21
187.20	1228.78
187.42	1245.16
187.64	1249.26
187.86	1263.60
188.08	1222.64
188.30	1220.59
188.52	1294.32
188.75	1263.60
188.97	1204.21
189.19	1298.41
189.41	1296.36
189.63	1302.51
189.85	1314.80
190.07	1310.70
190.29	1247.21
190.51	1245.16
190.73	1314.80
190.95	1325.04
191.17	1257.45
191.39	1286.12
191.61	1302.51
191.84	1216.49
192.06	1320.94
192.28	1296.36
192.50	1271.79
192.72	1255.40
192.94	1193.97
193.16	1230.83
193.38	1345.52
193.60	1265.64
193.82	1298.41
194.04	1300.46
194.26	1298.41
194.48	1204.21
194.70	1277.93
194.92	1290.22
195.14	1261.55
195.36	1204.21
195.58	1314.80
195.80	1255.40
196.02	1243.12
196.24	1275.88
196.46	1296.36
196.69	1208.30
196.91	1269.74
197.13	1247.21
197.35	1198.06
197.57	1306.60
197.79	1286.12
198.01	1275.88
198.23	1279.98
198.45	1273.84
198.67	1359.85
198.89	1222.64
199.11	1337.32
199.33	1265.64
199.55	1210.35
199.77	1236.97
199.99	1263.60
200.21	1306.60
200.43	1255.40
200.65	1292.27
200.87	1271.79
201.09	1304.56
201.31	1263.60
201.53	1257.45
201.75	1220.59
201.97	1249.26
202.19	1255.40
202.41	1298.41
202.63	1255.40
202.85	1279.98
203.07	1312.75
203.29	1173.49
203.51	1261.55
203.73	1265.64
203.95	1384.43
204.17	1290.22
204.39	1288.17
204.61	1286.12
204.83	1273.84
205.05	1282.03
205.27	1181.68
205.49	1236.97
205.71	1294.32
205.93	1232.88
206.15	1220.59
206.37	1265.64
206.59	1322.99
206.81	1228.78
207.03	1222.64
207.25	1320.94
207.47	1286.12
207.69	1179.63
207.91	1257.45
208.13	1210.35
208.34	1279.98
208.56	1216.49
208.78	1232.88
209.00	1296.36
209.22	1255.40
209.44	1269.74
209.66	1253.36
209.88	1232.88
210.10	1267.69
210.32	1257.45
210.54	1191.92
210.76	1310.70
210.98	1222.64
211.20	1310.70
211.42	1245.16
211.64	1236.97
211.86	1251.31
212.08	1275.88
212.30	1312.75
212.52	1241.07
212.74	1288.17
212.96	1267.69
213.17	1247.21
213.39	1318.89
213.61	1265.64
213.83	1243.12
214.05	1296.36
214.27	1265.64
214.49	1232.88
214.71	1308.65
214.93	1345.52
215.15	1277.93
215.37	1271.79
215.59	1243.12
215.81	1247.21
216.03	1259.50
216.24	1241.07
216.46	1226.73
216.68	1286.12
216.90	1275.88
217.12	1296.36
217.34	1167.34
217.56	1300.46
217.78	1257.45
218.00	1241.07
218.22	1335.28
218.44	1271.79
218.66	1212.40
218.87	1300.46
219.09	1196.01
219.31	1269.74
219.53	1196.01
219.75	1298.41
219.97	1253.36
220.19	1292.27
220.41	1220.59
220.63	1300.46
220.85	1286.12
221.06	1257.45
221.28	1224.69
221.50	1335.28
221.72	1269.74
221.94	1275.88
222.16	1245.16
222.38	1308.65
222.60	1290.22
222.82	1279.98
223.03	1290.22
223.25	1277.93
223.47	1265.64
223.69	1304.56
223.91	1279.98
224.13	1282.03
224.35	1263.60
224.57	1265.64
224.78	1226.73
225.00	1239.02
225.22	1300.46
225.44	1288.17
225.66	1275.88
225.88	1261.55
226.10	1214.45
226.32	1249.26
226.53	1271.79
226.75	1296.36
226.97	1290.22
227.19	1243.12
227.41	1331.18
227.63	1251.31
227.85	1177.58
228.06	1232.88
228.28	1261.55
228.50	1222.64
228.72	1288.17
228.94	1312.75
229.16	1247.21
229.37	1261.55
229.59	1290.22
229.81	1239.02
230.03	1214.45
230.25	1361.90
230.47	1275.88
230.69	1193.97
230.90	1290.22
231.12	1251.31
231.34	1300.46
231.56	1239.02
231.78	1216.49
232.00	1316.84
232.21	1247.21
232.43	1290.22
232.65	1255.40
232.87	1255.40
233.09	1247.21
233.30	1265.64
233.52	1226.73
233.74	1306.60
233.96	1288.17
234.18	1189.87
234.40	1210.35
234.61	1206.25
234.83	1275.88
235.05	1216.49
235.27	1249.26
235.49	1263.60
235.70	1282.03
235.92	1343.47
236.14	1226.73
236.36	1257.45
236.58	1255.40
236.79	1255.40
237.01	1251.31
237.23	1286.12
237.45	1230.83
237.67	1312.75
237.88	1224.69
238.10	1220.59
238.32	1290.22
238.54	1263.60
238.76	1298.41
238.97	1298.41
239.19	1236.97
239.41	1224.69
239.63	1279.98
239.85	1204.21
240.06	1296.36
240.28	1288.17
240.50	1251.31
240.72	1251.31
240.93	1228.78
241.15	1294.32
241.37	1220.59
241.59	1284.08
241.81	1284.08
242.02	1255.40
242.24	1200.11
242.46	1275.88
242.68	1206.25
242.89	1279.98
243.11	1261.55
243.33	1302.51
243.55	1286.12
243.76	1239.02
243.98	1241.07
244.20	1296.36
244.42	1241.07
244.64	1251.31
244.85	1273.84
245.07	1269.74
245.29	1218.54
245.51	1290.22
245.72	1282.03
245.94	1255.40
246.16	1320.94
246.38	1267.69
246.59	1292.27
246.81	1196.01
247.03	1255.40
247.24	1239.02
247.46	1304.56
247.68	1271.79
247.90	1257.45
248.11	1304.56
248.33	1249.26
248.55	1298.41
248.77	1216.49
248.98	1241.07
249.20	1251.31
249.42	1339.37
249.64	1279.98
249.85	1216.49
250.07	1179.63
250.29	1298.41
250.50	1308.65
250.72	1198.06
250.94	1255.40
251.16	1296.36
251.37	1271.79
251.59	1253.36
251.81	1275.88
252.02	1214.45
252.24	1275.88
252.46	1318.89
252.68	1310.70
252.89	1273.84
253.11	1282.03
253.33	1277.93
253.54	1208.30
253.76	1282.03
253.98	1310.70
254.20	1296.36
254.41	1218.54
254.63	1265.64
254.85	1306.60
255.06	1253.36
255.28	1312.75
255.50	1241.07
255.71	1224.69
255.93	1269.74
256.15	1310.70
256.36	1241.07
256.58	1335.28
256.80	1236.97
257.02	1185.77
257.23	1310.70
257.45	1277.93
257.67	1261.55
257.88	1241.07
258.10	1282.03
258.32	1279.98
258.53	1261.55
258.75	1282.03
258.97	1345.52
259.18	1335.28
259.40	1286.12
259.62	1294.32
259.83	1282.03
260.05	1234.93
260.27	1300.46
260.48	1277.93
260.70	1292.27
260.92	1243.12
261.13	1253.36
261.35	1214.45
261.57	1286.12
261.78	1294.32
262.00	1263.60
262.22	1269.74
262.43	1271.79
262.65	1271.79
262.86	1312.75
263.08	1210.35
263.30	1191.92
263.51	1247.21
263.73	1306.60
263.95	1333.23
264.16	1267.69
264.38	1257.45
264.60	1286.12
264.81	1286.12
265.03	1300.46
265.25	1277.93
265.46	1210.35
265.68	1279.98
265.89	1304.56
266.11	1241.07
266.33	1277.93
266.54	1306.60
266.76	1302.51
266.98	1290.22
267.19	1288.17
267.41	1249.26
267.62	1275.88
267.84	1241.07
268.06	1294.32
268.27	1193.97
268.49	1247.21
268.70	1249.26
268.92	1257.45
269.14	1257.45
269.35	1267.69
269.57	1202.16
269.79	1279.98
270.00	1261.55
270.22	1232.88
270.43	1353.71
270.65	1251.31
270.87	1271.79
271.08	1243.12
271.30	1282.03
271.51	1265.64
271.73	1249.26
271.95	1261.55
272.16	1273.84
272.38	1298.41
272.59	1255.40
272.81	1269.74
273.02	1224.69
273.24	1294.32
273.46	1220.59
273.67	1359.85
273.89	1140.72
274.10	1263.60
274.32	1249.26
274.54	1253.36
274.75	1284.08
274.97	1241.07
275.18	1230.83
275.40	1286.12
275.61	1257.45
275.83	1351.66
276.05	1304.56
276.26	1308.65
276.48	1292.27
276.69	1318.89
276.91	1269.74
277.12	1236.97
277.34	1312.75
277.55	1337.32
277.77	1306.60
277.99	1284.08
278.20	1234.93
278.42	1206.25
278.63	1310.70
278.85	1302.51
279.06	1269.74
279.28	1210.35
279.49	1245.16
279.71	1239.02
279.93	1245.16
280.14	1271.79
280.36	1243.12
280.57	1247.21
280.79	1179.63
281.00	1263.60
281.22	1228.78
281.43	1253.36
281.65	1273.84
281.86	1292.27
282.08	1198.06
282.29	1251.31
282.51	1243.12
282.73	1265.64
282.94	1239.02
283.16	1224.69
283.37	1263.60
283.59	1271.79
283.80	1261.55
284.02	1265.64
284.23	1265.64
284.45	1214.45
284.66	1292.27
284.88	1273.84
285.09	1290.22
285.31	1286.12
285.52	1208.30
285.74	1243.12
285.95	1265.64
286.17	1316.84
286.38	1298.41
286.60	1275.88
286.81	1171.44
287.03	1316.84
287.24	1310.70
287.46	1312.75
287.67	1257.45
287.89	1304.56
288.10	1277.93
288.32	1267.69
288.53	1288.17
288.75	1265.64
288.96	1294.32
289.18	1294.32
289.39	1271.79
289.61	1314.80
289.82	1298.41
290.04	1310.70
290.25	1286.12
290.47	1263.60
290.68	1320.94
290.90	1208.30
291.11	1241.07
291.33	1288.17
291.54	1325.04
291.76	1214.45
291.97	1226.73
292.18	1306.60
292.40	1333.23
292.61	1298.41
292.83	1271.79
293.04	1277.93
293.26	1218.54
293.47	1239.02
293.69	1216.49
293.90	1257.45
294.12	1294.32
294.33	1247.21
294.55	1267.69
294.76	1300.46
294.97	1316.84
295.19	1191.92
295.40	1329.13
295.62	1257.45
295.83	1294.32
296.05	1232.88
296.26	1284.08
296.48	1216.49
296.69	1220.59
296.90	1269.74
297.12	1296.36
297.33	1269.74
297.55	1216.49
297.76	1202.16
297.98	1271.79
298.19	1298.41
298.41	1337.32
298.62	1228.78
298.83	1318.89
299.05	1275.88
299.26	1261.55
299.48	1271.79
299.69	1251.31
299.90	1251.31
300.12	1257.45
300.33	1277.93
300.55	1230.83
300.76	1267.69
300.98	1230.83
301.19	1277.93
301.40	1277.93
301.62	1296.36
301.83	1335.28
302.05	1292.27
302.26	1230.83
302.47	1263.60
302.69	1300.46
302.90	1320.94
303.12	1234.93
303.33	1290.22
303.54	1245.16
303.76	1351.66
303.97	1204.21
304.19	1331.18
304.40	1331.18
304.61	1189.87
304.83	1288.17
305.04	1282.03
305.26	1202.16
305.47	1255.40
305.68	1243.12
305.90	1290.22
306.11	1333.23
306.33	1353.71
306.54	1255.40
306.75	1265.64
306.97	1288.17
307.18	1290.22
307.39	1253.36
307.61	1292.27
307.82	1312.75
308.04	1282.03
308.25	1220.59
308.46	1247.21
308.68	1198.06
308.89	1263.60
309.10	1245.16
309.32	1275.88
309.53	1241.07
309.74	1345.52
309.96	1261.55
310.17	1222.64
310.39	1282.03
310.60	1298.41
310.81	1220.59
311.03	1261.55
311.24	1208.30
311.45	1296.36
311.67	1247.21
311.88	1288.17
312.09	1212.40
312.31	1282.03
312.52	1245.16
312.73	1290.22
312.95	1239.02
313.16	1259.50
313.37	1253.36
313.59	1298.41
313.80	1255.40
314.01	1290.22
314.23	1292.27
314.44	1314.80
314.65	1271.79
314.87	1290.22
315.08	1253.36
315.29	1296.36
315.51	1302.51
315.72	1267.69
315.93	1251.31
316.15	1243.12
316.36	1259.50
316.57	1286.12
316.79	1265.64
317.00	1267.69
317.21	1282.03
317.43	1196.01
317.64	1302.51
317.85	1279.98
318.07	1247.21
318.28	1249.26
318.49	1265.64
318.70	1232.88
318.92	1279.98
319.13	1255.40
319.34	1286.12
319.56	1255.40
319.77	1202.16
319.98	1241.07
320.20	1267.69
320.41	1241.07
320.62	1255.40
320.83	1220.59
321.05	1214.45
321.26	1257.45
321.47	1251.31
321.69	1292.27
321.90	1298.41
322.11	1263.60
322.32	1265.64
322.54	1271.79
322.75	1236.97
322.96	1239.02
323.18	1193.97
323.39	1290.22
323.60	1230.83
323.81	1294.32
324.03	1234.93
324.24	1284.08
324.45	1310.70
324.66	1265.64
324.88	1271.79
325.09	1312.75
325.30	1173.49
325.52	1290.22
325.73	1191.92
325.94	1224.69
326.15	1300.46
326.37	1259.50
326.58	1230.83
326.79	1335.28
327.00	1275.88
327.22	1273.84
327.43	1329.13
327.64	1277.93
327.85	1247.21
328.07	1251.31
328.28	1341.42
328.49	1247.21
328.70	1265.64
328.92	1271.79
329.13	1277.93
329.34	1341.42
329.55	1288.17
329.76	1310.70
329.98	1290.22
330.19	1290.22
330.40	1263.60
330.61	1267.69
330.83	1271.79
331.04	1243.12
331.25	1282.03
331.46	1304.56
331.68	1265.64
331.89	1206.25
332.10	1265.64
332.31	1267.69
332.52	1308.65
332.74	1255.40
332.95	1273.84
333.16	1302.51
333.37	1241.07
333.58	1288.17
333.80	1239.02
334.01	1333.23
334.22	1288.17
334.43	1247.21
334.64	1261.55
334.86	1282.03
335.07	1228.78
335.28	1273.84
335.49	1228.78
335.70	1306.60
335.92	1304.56
336.13	1316.84
336.34	1296.36
336.55	1282.03
336.76	1245.16
336.98	1282.03
337.19	1273.84
337.40	1191.92
337.61	1208.30
337.82	1257.45
338.04	1275.88
338.25	1208.30
338.46	1269.74
338.67	1212.40
338.88	1243.12
339.09	1222.64
339.31	1239.02
339.52	1304.56
339.73	1210.35
339.94	1286.12
340.15	1288.17
340.36	1306.60
340.58	1288.17
340.79	1257.45
341.00	1310.70
341.21	1322.99
341.42	1263.60
341.63	1255.40
341.85	1296.36
342.06	1236.97
342.27	1284.08
342.48	1298.41
342.69	1300.46
342.90	1220.59
343.12	1259.50
343.33	1255.40
343.54	1230.83
343.75	1333.23
343.96	1191.92
344.17	1226.73
344.38	1257.45
344.60	1222.64
344.81	1275.88
345.02	1241.07
345.23	1302.51
345.44	1310.70
345.65	1220.59
345.86	1255.40
346.07	1253.36
346.29	1214.45
346.50	1298.41
346.71	1185.77
346.92	1286.12
347.13	1234.93
347.34	1224.69
347.55	1208.30
347.76	1232.88
347.98	1277.93
348.19	1337.32
348.40	1294.32
348.61	1214.45
348.82	1265.64
349.03	1247.21
349.24	1329.13
349.45	1251.31
349.66	1208.30
349.88	1290.22
350.09	1300.46
350.30	1286.12
350.51	1359.85
350.72	1243.12
350.93	1271.79
351.14	1277.93
351.35	1282.03
351.56	1314.80
351.77	1312.75
351.99	1245.16
352.20	1249.26
352.41	1189.87
352.62	1314.80
352.83	1253.36
353.04	1284.08
353.25	1265.64
353.46	1200.11
353.67	1341.42
353.88	1249.26
354.09	1255.40
354.30	1279.98
354.52	1306.60
354.73	1304.56
354.94	1257.45
355.15	1265.64
355.36	1359.85
355.57	1345.52
355.78	1216.49
355.99	1265.64
356.20	1292.27
356.41	1288.17
356.62	1294.32
356.83	1279.98
357.04	1241.07
357.25	1275.88
357.46	1292.27
357.68	1284.08
357.89	1314.80
358.10	1343.47
358.31	1232.88
358.52	1142.77
358.73	1234.93
358.94	1222.64
359.15	1263.60
359.36	1259.50
359.57	1269.74
359.78	1294.32
359.99	1269.74
360.20	1347.56
360.41	1196.01
360.62	1294.32
360.83	1251.31
361.04	1230.83
361.25	1257.45
361.46	1228.78
361.67	1208.30
361.88	1302.51
362.09	1329.13
362.30	1310.70
362.51	1249.26
362.72	1232.88
362.93	1253.36
363.14	1273.84
363.35	1353.71
363.56	1214.45
363.78	1255.40
363.99	1234.93
364.20	1187.82
364.41	1236.97
364.62	1216.49
364.83	1337.32
365.04	1210.35
365.25	1245.16
365.46	1212.40
365.67	1181.68
365.88	1308.65
366.09	1277.93
366.30	1247.21
366.51	1322.99
366.72	1292.27
366.93	1300.46
367.14	1218.54
367.35	1226.73
367.56	1290.22
367.77	1298.41
367.98	1318.89
368.18	1308.65
368.39	1316.84
368.60	1245.16
368.81	1286.12
369.02	1267.69
369.23	1243.12
369.44	1230.83
369.65	1222.64
369.86	1249.26
370.07	1255.40
370.28	1306.60
370.49	1257.45
370.70	1220.59
370.91	1245.16
371.12	1257.45
371.33	1259.50
371.54	1202.16
371.75	1290.22
371.96	1325.04
372.17	1230.83
372.38	1310.70
372.59	1265.64
372.80	1310.70
373.01	1200.11
373.22	1329.13
373.43	1185.77
373.64	1189.87
373.85	1232.88
374.06	1222.64
374.26	1271.79
374.47	1284.08
374.68	1265.64
374.89	1265.64
375.10	1271.79
375.31	1288.17
375.52	1304.56
375.73	1232.88
375.94	1212.40
376.15	1210.35
376.36	1232.88
376.57	1304.56
376.78	1226.73
376.99	1286.12
377.20	1251.31
377.40	1327.08
377.61	1308.65
377.82	1243.12
378.03	1343.47
378.24	1337.32
378.45	1265.64
378.66	1255.40
378.87	1232.88
379.08	1245.16
379.29	1234.93
379.50	1273.84
379.71	1265.64
379.91	1304.56
380.12	1255.40
380.33	1265.64
380.54	1302.51
380.75	1200.11
380.96	1228.78
381.17	1257.45
381.38	1294.32
381.59	1316.84
381.80	1312.75
382.00	1374.19
382.21	1251.31
382.42	1271.79
382.63	1251.31
382.84	1253.36
383.05	1298.41
383.26	1310.70
383.47	1282.03
383.68	1279.98
383.88	1284.08
384.09	1382.38
384.30	1261.55
384.51	1302.51
384.72	1216.49
384.93	1282.03
385.14	1290.22
385.35	1284.08
385.55	1282.03
385.76	1245.16
385.97	1239.02
386.18	1259.50
386.39	1275.88
386.60	1320.94
386.81	1290.22
387.02	1191.92
387.22	1273.84
387.43	1265.64
387.64	1230.83
387.85	1253.36
388.06	1298.41
388.27	1265.64
388.48	1247.21
388.68	1279.98
388.89	1243.12
389.10	1316.84
389.31	1318.89
389.52	1234.93
389.73	1255.40
389.93	1251.31
390.14	1304.56
390.35	1257.45
390.56	1196.01
390.77	1271.79
390.98	1255.40
391.18	1191.92
391.39	1314.80
391.60	1306.60
391.81	1249.26
392.02	1271.79
392.23	1265.64
392.43	1220.59
392.64	1273.84
392.85	1265.64
393.06	1245.16
393.27	1226.73
393.47	1208.30
393.68	1230.83
393.89	1345.52
394.10	1312.75
394.31	1232.88
394.52	1232.88
394.72	1181.68
394.93	1312.75
395.14	1288.17
395.35	1224.69
395.56	1249.26
395.76	1300.46
395.97	1310.70
396.18	1263.60
396.39	1245.16
396.60	1286.12
396.80	1230.83
397.01	1329.13
397.22	1277.93
397.43	1224.69
397.64	1290.22
397.84	1232.88
398.05	1247.21
398.26	1322.99
398.47	1234.93
398.67	1257.45
398.88	1286.12
399.09	1292.27
399.30	1269.74
399.51	1343.47
399.71	1296.36
399.92	1279.98
400.13	1269.74
400.34	1314.80
400.54	1249.26
400.75	1304.56
400.96	1337.32
401.17	1222.64
401.37	1300.46
401.58	1224.69
401.79	1236.97
402.00	1267.69
402.21	1232.88
402.41	1288.17
402.62	1198.06
402.83	1275.88
403.04	1314.80
403.24	1353.71
403.45	1236.97
403.66	1255.40
403.87	1226.73
404.07	1245.16
404.28	1216.49
404.49	1304.56
404.70	1261.55
404.90	1273.84
405.11	1185.77
405.32	1320.94
405.52	1273.84
405.73	1269.74
405.94	1277.93
406.15	1257.45
406.35	1261.55
406.56	1314.80
406.77	1236.97
406.98	1243.12
407.18	1292.27
407.39	1314.80
407.60	1191.92
407.80	1206.25
408.01	1269.74
408.22	1216.49
408.43	1267.69
408.63	1241.07
408.84	1243.12
409.05	1292.27
409.25	1279.98
409.46	1273.84
409.67	1269.74
409.88	1261.55
410.08	1249.26
410.29	1249.26
410.50	1277.93
410.70	1267.69
410.91	1271.79
411.12	1282.03
411.32	1222.64
411.53	1308.65
411.74	1191.92
411.95	1304.56
412.15	1232.88
412.36	1325.04
412.57	1269.74
412.77	1286.12
412.98	1273.84
413.19	1296.36
413.39	1230.83
413.60	1273.84
413.81	1282.03
414.01	1318.89
414.22	1220.59
414.43	1335.28
414.63	1269.74
414.84	1214.45
415.05	1316.84
415.25	1302.51
415.46	1316.84
415.67	1327.08
415.87	1300.46
416.08	1316.84
416.29	1288.17
416.49	1275.88
416.70	1259.50
416.91	1218.54
417.11	1236.97
417.32	1327.08
417.53	1208.30
417.73	1247.21
417.94	1308.65
418.15	1316.84
418.35	1355.76
418.56	1224.69
418.77	1318.89
418.97	1271.79
419.18	1273.84
419.38	1218.54
419.59	1269.74
419.80	1294.32
420.00	1226.73
420.21	1337.32
420.42	1298.41
420.62	1265.64
420.83	1318.89
421.04	1312.75
421.24	1316.84
421.45	1232.88
421.65	1247.21
421.86	1312.75
422.07	1253.36
422.27	1218.54
422.48	1306.60
422.69	1255.40
422.89	1279.98
423.10	1232.88
423.30	1355.76
423.51	1224.69
423.72	1218.54
423.92	1241.07
424.13	1273.84
424.33	1296.36
424.54	1251.31
424.75	1249.26
424.95	1216.49
425.16	1329.13
425.36	1259.50
425.57	1296.36
425.78	1286.12
425.98	1310.70
426.19	1239.02
426.39	1290.22
426.60	1294.32
426.81	1329.13
427.01	1310.70
427.22	1247.21
427.42	1322.99
427.63	1337.32
427.83	1322.99
428.04	1306.60
428.25	1249.26
428.45	1298.41
428.66	1286.12
428.86	1259.50
429.07	1212.40
429.28	1308.65
429.48	1277.93
429.69	1292.27
429.89	1251.31
430.10	1261.55
430.30	1322.99
430.51	1288.17
430.71	1306.60
430.92	1279.98
431.13	1306.60
431.33	1206.25
431.54	1286.12
431.74	1302.51
431.95	1214.45
432.15	1259.50
432.36	1282.03
432.56	1243.12
432.77	1277.93
432.98	1349.61
433.18	1347.56
433.39	1302.51
433.59	1241.07
433.80	1265.64
434.00	1249.26
434.21	1279.98
434.41	1298.41
434.62	1230.83
434.82	1282.03
435.03	1269.74
435.23	1257.45
435.44	1247.21
435.64	1296.36
435.85	1361.90
436.06	1279.98
436.26	1351.66
436.47	1247.21
436.67	1298.41
436.88	1232.88
437.08	1275.88
437.29	1292.27
437.49	1308.65
437.70	1290.22
437.90	1214.45
438.11	1241.07
438.31	1282.03
438.52	1267.69
438.72	1298.41
438.93	1257.45
439.13	1325.04
439.34	1259.50
439.54	1218.54
439.75	1218.54
439.95	1236.97
440.16	1239.02
440.36	1292.27
440.57	1257.45
440.77	1239.02
440.98	1241.07
441.18	1290.22
441.39	1277.93
441.59	1282.03
441.80	1265.64
442.00	1257.45
442.21	1310.70
442.41	1314.80
442.62	1253.36
442.82	1232.88
443.02	1245.16
443.23	1259.50
443.43	1308.65
443.64	1251.31
443.84	1214.45
444.05	1232.88
444.25	1320.94
444.46	1304.56
444.66	1292.27
444.87	1255.40
445.07	1275.88
445.28	1296.36
445.48	1193.97
445.69	1222.64
445.89	1269.74
446.09	1200.11
446.30	1320.94
446.50	1329.13
446.71	1255.40
446.91	1249.26
447.12	1251.31
447.32	1320.94
447.53	1253.36
447.73	1316.84
447.93	1357.80
448.14	1390.57
448.34	1265.64
448.55	1282.03
448.75	1273.84
448.96	1247.21
449.16	1294.32
449.36	1253.36
449.57	1269.74
449.77	1267.69
449.98	1312.75
450.18	1253.36
450.39	1243.12
450.59	1316.84
450.79	1277.93
451.00	1284.08
451.20	1322.99
451.41	1314.80
451.61	1239.02
451.81	1345.52
452.02	1355.76
452.22	1216.49
452.43	1269.74
452.63	1290.22
452.84	1316.84
453.04	1267.69
453.24	1300.46
453.45	1226.73
453.65	1214.45
453.86	1245.16
454.06	1263.60
454.26	1314.80
454.47	1296.36
454.67	1261.55
454.87	1390.57
455.08	1290.22
455.28	1327.08
455.49	1310.70
455.69	1279.98
455.89	1345.52
456.10	1230.83
456.30	1273.84
456.51	1222.64
456.71	1279.98
456.91	1214.45
457.12	1329.13
457.32	1284.08
457.52	1335.28
457.73	1333.23
457.93	1257.45
458.14	1296.36
458.34	1302.51
458.54	1277.93
458.75	1253.36
458.95	1298.41
459.15	1314.80
459.36	1314.80
459.56	1288.17
459.76	1282.03
459.97	1298.41
460.17	1337.32
460.37	1335.28
460.58	1316.84
460.78	1322.99
460.99	1277.93
461.19	1228.78
461.39	1277.93
461.60	1259.50
461.80	1318.89
462.00	1279.98
462.21	1216.49
462.41	1320.94
462.61	1329.13
462.82	1224.69
463.02	1226.73
463.22	1300.46
463.43	1327.08
463.63	1304.56
463.83	1370.09
464.04	1230.83
464.24	1300.46
464.44	1267.69
464.64	1216.49
464.85	1296.36
465.05	1296.36
465.25	1263.60
465.46	1253.36
465.66	1257.45
465.86	1175.53
466.07	1316.84
466.27	1253.36
466.47	1269.74
466.68	1259.50
466.88	1304.56
467.08	1294.32
467.29	1335.28
467.49	1257.45
467.69	1271.79
467.89	1279.98
468.10	1265.64
468.30	1275.88
468.50	1306.60
468.71	1288.17
468.91	1269.74
469.11	1198.06
469.31	1239.02
469.52	1245.16
469.72	1279.98
469.92	1286.12
470.13	1232.88
470.33	1275.88
470.53	1265.64
470.73	1325.04
470.94	1288.17
471.14	1204.21
471.34	1294.32
471.54	1316.84
471.75	1273.84
471.95	1300.46
472.15	1337.32
472.36	1265.64
472.56	1279.98
472.76	1345.52
472.96	1298.41
473.17	1265.64
473.37	1282.03
473.57	1337.32
473.77	1259.50
473.98	1187.82
474.18	1210.35
474.38	1335.28
474.58	1345.52
474.79	1265.64
474.99	1292.27
475.19	1236.97
475.39	1279.98
475.60	1275.88
475.80	1249.26
476.00	1253.36
476.20	1343.47
476.41	1224.69
476.61	1234.93
476.81	1257.45
477.01	1279.98
477.21	1265.64
477.42	1361.90
477.62	1222.64
477.82	1286.12
478.02	1306.60
478.23	1308.65
478.43	1208.30
478.63	1243.12
478.83	1347.56
479.03	1255.40
479.24	1300.46
479.44	1279.98
479.64	1167.34
479.84	1331.18
480.04	1273.84
480.25	1298.41
480.45	1249.26
480.65	1279.98
480.85	1220.59
481.06	1196.01
481.26	1255.40
481.46	1247.21
481.66	1282.03
481.86	1275.88
482.06	1304.56
482.27	1304.56
482.47	1198.06
482.67	1320.94
482.87	1247.21
483.07	1265.64
483.28	1263.60
483.48	1275.88
483.68	1286.12
483.88	1298.41
484.08	1251.31
484.29	1308.65
484.49	1216.49
484.69	1251.31
484.89	1261.55
485.09	1284.08
485.29	1200.11
485.50	1208.30
485.70	1267.69
485.90	1347.56
486.10	1271.79
486.30	1331.18
486.50	1218.54
486.71	1282.03
486.91	1206.25
487.11	1322.99
487.31	1275.88
487.51	1312.75
487.71	1200.11
487.91	1236.97
488.12	1247.21
488.32	1204.21
488.52	1232.88
488.72	1269.74
488.92	1243.12
489.12	1261.55
489.32	1286.12
489.53	1325.04
489.73	1304.56
489.93	1265.64
490.13	1249.26
490.33	1329.13
490.53	1220.59
490.73	1255.40
490.94	1316.84
491.14	1304.56
491.34	1241.07
491.54	1255.40
491.74	1228.78
491.94	1329.13
492.14	1333.23
492.34	1261.55
492.54	1269.74
492.75	1273.84
492.95	1210.35
493.15	1318.89
493.35	1277.93
493.55	1286.12
493.75	1239.02
493.95	1288.17
494.15	1222.64
494.35	1228.78
494.56	1304.56
494.76	1376.24
494.96	1253.36
495.16	1288.17
495.36	1277.93
495.56	1298.41
495.76	1224.69
495.96	1275.88
496.16	1210.35
496.36	1275.88
496.56	1253.36
496.77	1224.69
496.97	1282.03
497.17	1200.11
497.37	1337.32
497.57	1273.84
497.77	1267.69
497.97	1271.79
498.17	1249.26
498.37	1316.84
498.57	1368.04
498.77	1308.65
498.97	1267.69
499.17	1282.03
499.38	1234.93
499.58	1253.36
499.78	1277.93
499.98	1294.32
500.18	1259.50
500.38	1325.04
500.58	1308.65
500.78	1255.40
500.98	1239.02
501.18	1363.95
501.38	1255.40
501.58	1290.22
501.78	1277.93
501.98	1279.98
502.18	1271.79
502.38	1343.47
502.58	1232.88
502.78	1273.84
502.98	1249.26
503.18	1292.27
503.38	1322.99
503.59	1245.16
503.79	1282.03
503.99	1304.56
504.19	1322.99
504.39	1249.26
504.59	1261.55
504.79	1222.64
504.99	1277.93
505.19	1290.22
505.39	1253.36
505.59	1288.17
505.79	1300.46
505.99	1279.98
506.19	1271.79
506.39	1241.07
506.59	1265.64
506.79	1271.79
506.99	1241.07
507.19	1288.17
507.39	1275.88
507.59	1304.56
507.79	1193.97
507.99	1341.42
508.19	1263.60
508.39	1277.93
508.59	1279.98
508.79	1257.45
508.99	1222.64
509.19	1269.74
509.39	1298.41
509.59	1298.41
509.79	1255.40
509.99	1335.28
510.19	1302.51
510.39	1363.95
510.59	1341.42
510.79	1306.60
510.99	1300.46
511.19	1263.60
511.39	1267.69
511.59	1306.60
511.79	1286.12
511.99	1269.74
512.19	1263.60
512.38	1290.22
512.58	1271.79
512.78	1249.26
512.98	1306.60
513.18	1290.22
513.38	1284.08
513.58	1300.46
513.78	1279.98
513.98	1302.51
514.18	1320.94
514.38	1292.27
514.58	1318.89
514.78	1247.21
514.98	1228.78
515.18	1302.51
515.38	1271.79
515.58	1333.23
515.78	1318.89
515.98	1267.69
516.18	1318.89
516.38	1265.64
516.57	1271.79
516.77	1312.75
516.97	1343.47
517.17	1267.69
517.37	1187.82
517.57	1249.26
517.77	1269.74
517.97	1286.12
518.17	1224.69
518.37	1308.65
518.57	1314.80
518.77	1261.55
518.97	1263.60
519.16	1212.40
519.36	1286.12
519.56	1288.17
519.76	1236.97
519.96	1279.98
520.16	1175.53
520.36	1318.89
520.56	1320.94
520.76	1263.60
520.96	1196.01
521.16	1337.32
521.35	1245.16
521.55	1251.31
521.75	1257.45
521.95	1300.46
522.15	1384.43
522.35	1253.36
522.55	1226.73
522.75	1294.32
522.95	1349.61
523.14	1277.93
523.34	1279.98
523.54	1198.06
523.74	1249.26
523.94	1206.25
524.14	1224.69
524.34	1255.40
524.54	1286.12
524.73	1255.40
524.93	1245.16
525.13	1337.32
525.33	1282.03
525.53	1316.84
525.73	1259.50
525.93	1228.78
526.13	1312.75
526.32	1314.80
526.52	1327.08
526.72	1337.32
526.92	1234.93
527.12	1247.21
527.32	1320.94
527.52	1267.69
527.71	1277.93
527.91	1327.08
528.11	1290.22
528.31	1279.98
528.51	1329.13
528.71	1343.47
528.90	1296.36
529.10	1302.51
529.30	1277.93
529.50	1279.98
529.70	1290.22
529.90	1282.03
530.09	1304.56
530.29	1314.80
530.49	1181.68
530.69	1267.69
530.89	1261.55
531.09	1275.88
531.28	1267.69
531.48	1239.02
531.68	1296.36
531.88	1290.22
532.08	1294.32
532.28	1279.98
532.47	1236.97
532.67	1220.59
532.87	1320.94
533.07	1208.30
533.27	1310.70
533.46	1304.56
533.66	1265.64
533.86	1265.64
534.06	1269.74
534.26	1230.83
534.45	1339.37
534.65	1314.80
534.85	1236.97
535.05	1263.60
535.25	1353.71
535.44	1292.27
535.64	1259.50
535.84	1314.80
536.04	1296.36
536.24	1304.56
536.43	1222.64
536.63	1279.98
536.83	1249.26
537.03	1325.04
537.22	1296.36
537.42	1290.22
537.62	1284.08
537.82	1261.55
538.02	1300.46
538.21	1290.22
538.41	1183.73
538.61	1255.40
538.81	1339.37
539.00	1202.16
539.20	1261.55
539.40	1361.90
539.60	1267.69
539.79	1320.94
539.99	1290.22
540.19	1304.56
540.39	1265.64
540.58	1320.94
540.78	1282.03
540.98	1288.17
541.18	1218.54
541.37	1316.84
541.57	1214.45
541.77	1277.93
541.97	1245.16
542.16	1292.27
542.36	1322.99
542.56	1290.22
542.76	1316.84
542.95	1296.36
543.15	1273.84
543.35	1236.97
543.54	1251.31
543.74	1355.76
543.94	1222.64
544.14	1265.64
544.33	1298.41
544.53	1304.56
544.73	1318.89
544.93	1261.55
545.12	1189.87
545.32	1327.08
545.52	1290.22
545.71	1279.98
545.91	1243.12
546.11	1251.31
546.30	1286.12
546.50	1322.99
546.70	1300.46
546.90	1263.60
547.09	1290.22
547.29	1306.60
547.49	1351.66
547.68	1310.70
547.88	1243.12
548.08	1277.93
548.27	1325.04
548.47	1306.60
548.67	1288.17
548.87	1196.01
549.06	1337.32
549.26	1337.32
549.46	1275.88
549.65	1212.40
549.85	1257.45
550.05	1259.50
550.24	1251.31
550.44	1288.17
550.64	1273.84
550.83	1257.45
551.03	1343.47
551.23	1296.36
551.42	1239.02
551.62	1249.26
551.82	1251.31
552.01	1273.84
552.21	1234.93
552.41	1286.12
552.60	1284.08
552.80	1249.26
553.00	1310.70
553.19	1273.84
553.39	1271.79
553.59	1302.51
553.78	1359.85
553.98	1257.45
554.17	1271.79
554.37	1282.03
554.57	1329.13
554.76	1239.02
554.96	1306.60
555.16	1234.93
555.35	1310.70
555.55	1310.70
555.75	1284.08
555.94	1261.55
556.14	1290.22
556.33	1253.36
556.53	1269.74
556.73	1265.64
556.92	1269.74
557.12	1296.36
557.32	1298.41
557.51	1288.17
557.71	1325.04
557.90	1312.75
558.10	1337.32
558.30	1269.74
558.49	1271.79
558.69	1216.49
558.88	1292.27
559.08	1255.40
559.28	1306.60
559.47	1327.08
559.67	1230.83
559.86	1228.78
560.06	1320.94
560.26	1310.70
560.45	1290.22
560.65	1224.69
560.84	1261.55
561.04	1282.03
561.24	1271.79
561.43	1255.40
561.63	1275.88
561.82	1247.21
562.02	1288.17
562.22	1214.45
562.41	1290.22
562.61	1322.99
562.80	1306.60
563.00	1259.50
563.19	1327.08
563.39	1351.66
563.59	1249.26
563.78	1363.95
563.98	1282.03
564.17	1288.17
564.37	1312.75
564.56	1239.02
564.76	1245.16
564.96	1245.16
565.15	1292.27
565.35	1230.83
565.54	1275.88
565.74	1234.93
565.93	1261.55
566.13	1304.56
566.32	1249.26
566.52	1312.75
566.71	1226.73
566.91	1247.21
567.11	1341.42
567.30	1251.31
567.50	1284.08
567.69	1339.37
567.89	1341.42
568.08	1331.18
568.28	1257.45
568.47	1263.60
568.67	1302.51
568.86	1253.36
569.06	1265.64
569.25	1339.37
569.45	1304.56
569.64	1196.01
569.84	1314.80
570.04	1273.84
570.23	1251.31
570.43	1294.32
570.62	1296.36
570.82	1288.17
571.01	1288.17
571.21	1214.45
571.40	1271.79
571.60	1302.51
571.79	1290.22
571.99	1294.32
572.18	1204.21
572.38	1308.65
572.57	1171.44
572.77	1312.75
572.96	1292.27
573.16	1308.65
573.35	1277.93
573.55	1253.36
573.74	1243.12
573.94	1320.94
574.13	1257.45
574.33	1314.80
574.52	1269.74
574.71	1361.90
574.91	1282.03
575.10	1286.12
575.30	1212.40
575.49	1290.22
575.69	1343.47
575.88	1284.08
576.08	1294.32
576.27	1347.56
576.47	1322.99
576.66	1216.49
576.86	1253.36
577.05	1361.90
577.25	1290.22
577.44	1306.60
577.64	1236.97
577.83	1355.76
578.02	1290.22
578.22	1282.03
578.41	1318.89
578.61	1284.08
578.80	1261.55
579.00	1175.53
579.19	1257.45
579.39	1232.88
579.58	1259.50
579.77	1196.01
579.97	1310.70
580.16	1282.03
580.36	1282.03
580.55	1318.89
580.75	1327.08
580.94	1255.40
581.13	1189.87
581.33	1310.70
581.52	1255.40
581.72	1273.84
581.91	1271.79
582.11	1247.21
582.30	1322.99
582.49	1239.02
582.69	1290.22
582.88	1263.60
583.08	1318.89
583.27	1290.22
583.47	1292.27
583.66	1261.55
583.85	1333.23
584.05	1241.07
584.24	1316.84
584.44	1304.56
584.63	1279.98
584.82	1267.69
585.02	1339.37
585.21	1304.56
585.41	1288.17
585.60	1236.97
585.79	1279.98
585.99	1226.73
586.18	1288.17
586.37	1265.64
586.57	1193.97
586.76	1277.93
586.96	1277.93
587.15	1425.39
587.34	1277.93
587.54	1320.94
587.73	1228.78
587.93	1251.31
588.12	1327.08
588.31	1282.03
588.51	1363.95
588.70	1306.60
588.89	1339.37
589.09	1337.32
589.28	1296.36
589.47	1322.99
589.67	1282.03
589.86	1312.75
590.06	1253.36
590.25	1245.16
590.44	1265.64
590.64	1286.12
590.83	1214.45
591.02	1333.23
591.22	1294.32
591.41	1273.84
591.60	1310.70
591.80	1263.60
591.99	1265.64
592.18	1271.79
592.38	1347.56
592.57	1247.21
592.76	1302.51
592.96	1226.73
593.15	1378.28
593.34	1339.37
593.54	1284.08
593.73	1263.60
593.92	1318.89
594.12	1275.88
594.31	1259.50
594.50	1247.21
594.70	1333.23
594.89	1277.93
595.08	1241.07
595.28	1208.30
595.47	1337.32
595.66	1294.32
595.86	1255.40
596.05	1273.84
596.24	1302.51
596.43	1347.56
596.63	1288.17
596.82	1310.70
597.01	1343.47
597.21	1372.14
597.40	1259.50
597.59	1198.06
597.79	1247.21
597.98	1265.64
598.17	1228.78
598.36	1259.50
598.56	1314.80
598.75	1263.60
598.94	1265.64
599.14	1302.51
599.33	1331.18
599.52	1327.08
599.71	1263.60
599.91	1275.88
600.10	1167.34
600.29	1245.16
600.48	1298.41
600.68	1269.74
600.87	1310.70
601.06	1279.98
601.26	1333.23
601.45	1343.47
601.64	1302.51
601.83	1333.23
602.03	1290.22
602.22	1294.32
602.41	1308.65
602.60	1263.60
602.80	1320.94
602.99	1234.93
603.18	1290.22
603.37	1298.41
603.57	1341.42
603.76	1257.45
603.95	1249.26
604.14	1288.17
604.34	1269.74
604.53	1361.90
604.72	1191.92
604.91	1327.08
605.10	1298.41
605.30	1267.69
605.49	1263.60
605.68	1294.32
605.87	1230.83
606.07	1325.04
606.26	1265.64
606.45	1271.79
606.64	1202.16
606.84	1320.94
607.03	1292.27
607.22	1273.84
607.41	1335.28
607.60	1308.65
607.80	1165.29
607.99	1265.64
608.18	1226.73
608.37	1253.36
608.56	1191.92
608.76	1288.17
608.95	1239.02
609.14	1322.99
609.33	1261.55
609.52	1216.49
609.72	1249.26
609.91	1314.80
610.10	1335.28
610.29	1372.14
610.48	1239.02
610.68	1232.88
610.87	1222.64
611.06	1261.55
611.25	1216.49
611.44	1255.40
611.63	1245.16
611.83	1249.26
612.02	1292.27
612.21	1306.60
612.40	1290.22
612.59	1247.21
612.79	1292.27
612.98	1259.50
613.17	1279.98
613.36	1294.32
613.55	1296.36
613.74	1261.55
613.93	1265.64
614.13	1245.16
614.32	1251.31
614.51	1273.84
614.70	1249.26
614.89	1255.40
615.08	1290.22
615.28	1300.46
615.47	1290.22
615.66	1306.60
615.85	1265.64
616.04	1296.36
616.23	1286.12
616.42	1363.95
616.62	1241.07
616.81	1296.36
617.00	1304.56
617.19	1247.21
617.38	1306.60
617.57	1271.79
617.76	1234.93
617.95	1230.83
618.15	1263.60
618.34	1339.37
618.53	1253.36
618.72	1304.56
618.91	1318.89
619.10	1312.75
619.29	1230.83
619.48	1329.13
619.68	1208.30
619.87	1339.37
620.06	1239.02
620.25	1275.88
620.44	1294.32
620.63	1265.64
620.82	1271.79
621.01	1239.02
621.20	1351.66
621.39	1271.79
621.59	1204.21
621.78	1322.99
621.97	1257.45
622.16	1241.07
622.35	1288.17
622.54	1288.17
622.73	1308.65
622.92	1247.21
623.11	1232.88
623.30	1265.64
623.49	1230.83
623.68	1275.88
623.88	1247.21
624.07	1363.95
624.26	1298.41
624.45	1263.60
624.64	1308.65
624.83	1241.07
625.02	1296.36
625.21	1255.40
625.40	1275.88
625.59	1263.60
625.78	1341.42
625.97	1275.88
626.16	1259.50
626.35	1257.45
626.54	1347.56
626.74	1308.65
626.93	1282.03
627.12	1372.14
627.31	1277.93
627.50	1339.37
627.69	1234.93
627.88	1335.28
628.07	1355.76
628.26	1300.46
628.45	1337.32
628.64	1378.28
628.83	1312.75
629.02	1310.70
629.21	1265.64
629.40	1294.32
629.59	1243.12
629.78	1259.50
629.97	1349.61
630.16	1316.84
630.35	1284.08
630.54	1355.76
630.73	1314.80
630.92	1331.18
631.11	1341.42
631.30	1316.84
631.49	1331.18
631.68	1785.83
631.87	5734.31
632.06	21986.99
632.25	46845.24
632.44	40488.34
632.63	31735.32
632.82	24356.49
633.01	7296.91
633.20	3418.06
633.39	3164.11
633.58	2572.25
633.77	1978.34
633.96	1781.73
634.15	1796.07
634.34	1800.16
634.53	1615.85
634.72	1585.13
634.91	1529.83
635.10	1515.50
635.29	1513.45
635.48	1527.78
635.67	1452.01
635.86	1466.35
636.05	1449.96
636.24	1376.24
636.43	1396.71
636.62	1388.52
636.81	1269.74
637.00	1314.80
637.19	1288.17
637.38	1320.94
637.57	1388.52
637.76	1249.26
637.95	1279.98
638.14	1200.11
638.33	1310.70
638.52	1339.37
638.71	1255.40
638.89	1288.17
639.08	1267.69
639.27	1245.16
639.46	1265.64
639.65	1269.74
639.84	1380.33
640.03	1257.45
640.22	1325.04
640.41	1337.32
640.60	1284.08
640.79	1310.70
640.98	1290.22
641.17	1341.42
641.36	1310.70
641.55	1308.65
641.74	1234.93
641.92	1282.03
642.11	1275.88
642.30	1302.51
642.49	1204.21
642.68	1290.22
642.87	1294.32
643.06	1306.60
643.25	1265.64
643.44	1337.32
643.63	1292.27
643.82	1322.99
644.00	1279.98
644.19	1228.78
644.38	1202.16
644.57	1236.97
644.76	1271.79
644.95	1232.88
645.14	1206.25
645.33	1294.32
645.52	1202.16
645.71	1275.88
645.89	1220.59
646.08	1255.40
646.27	1265.64
646.46	1345.52
646.65	1312.75
646.84	1255.40
647.03	1261.55
647.22	1282.03
647.40	1296.36
647.59	1269.74
647.78	1333.23
647.97	1288.17
648.16	1284.08
648.35	1282.03
648.54	1228.78
648.73	1279.98
648.91	1271.79
649.10	1214.45
649.29	1255.40
649.48	1314.80
649.67	1294.32
649.86	1251.31
650.05	1312.75
650.23	1306.60
650.42	1298.41
650.61	1224.69
650.80	1249.26
650.99	1327.08
651.18	1214.45
651.36	1228.78
651.55	1288.17
651.74	1314.80
651.93	1286.12
652.12	1282.03
652.31	1200.11
652.49	1290.22
652.68	1234.93
652.87	1294.32
653.06	1314.80
653.25	1220.59
653.44	1236.97
653.62	1273.84
653.81	1239.02
654.00	1339.37
654.19	1271.79
654.38	1269.74
654.56	1257.45
654.75	1288.17
654.94	1253.36
655.13	1300.46
655.32	1218.54
655.51	1275.88
655.69	1310.70
655.88	1255.40
656.07	1265.64
656.26	1318.89
656.45	1171.44
656.63	1253.36
656.82	1282.03
657.01	1273.84
657.20	1269.74
657.38	1273.84
657.57	1249.26
657.76	1267.69
657.95	1314.80
658.14	1230.83
658.32	1294.32
658.51	1265.64
658.70	1175.53
658.89	1300.46
659.08	1241.07
659.26	1290.22
659.45	1265.64
659.64	1290.22
659.83	1275.88
660.01	1275.88
660.20	1290.22
660.39	1361.90
660.58	1302.51
660.76	1316.84
660.95	1318.89
661.14	1226.73
661.33	1208.30
661.51	1273.84
661.70	1265.64
661.89	1292.27
662.08	1331.18
662.26	1224.69
662.45	1257.45
662.64	1230.83
662.83	1247.21
663.01	1279.98
663.20	1263.60
663.39	1282.03
663.58	1286.12
663.76	1208.30
663.95	1265.64
664.14	1273.84
664.32	1310.70
664.51	1267.69
664.70	1286.12
664.89	1341.42
665.07	1257.45
665.26	1271.79
665.45	1214.45
665.64	1284.08
665.82	1269.74
666.01	1224.69
666.20	1173.49
666.38	1277.93
666.57	1241.07
666.76	1286.12
666.95	1185.77
667.13	1234.93
667.32	1187.82
667.51	1251.31
667.69	1345.52
667.88	1261.55
668.07	1247.21
668.25	1249.26
668.44	1261.55
668.63	1249.26
668.81	1249.26
669.00	1224.69
669.19	1202.16
669.38	1263.60
669.56	1277.93
669.75	1300.46
669.94	1218.54
670.12	1222.64
670.31	1222.64
670.50	1271.79
670.68	1245.16
670.87	1243.12
671.06	1255.40
671.24	1271.79
671.43	1236.97
671.62	1302.51
671.80	1275.88
671.99	1275.88
672.18	1261.55
672.36	1263.60
672.55	1277.93
672.74	1257.45
672.92	1239.02
673.11	1253.36
673.29	1243.12
673.48	1257.45
673.67	1284.08
673.85	1267.69
674.04	1322.99
674.23	1312.75
674.41	1224.69
674.60	1265.64
674.79	1200.11
674.97	1298.41
675.16	1353.71
675.34	1243.12
675.53	1224.69
675.72	1222.64
675.90	1267.69
676.09	1277.93
676.28	1306.60
676.46	1271.79
676.65	1286.12
676.83	1257.45
677.02	1282.03
677.21	1247.21
677.39	1359.85
677.58	1302.51
677.77	1308.65
677.95	1279.98
678.14	1277.93
678.32	1243.12
678.51	1284.08
678.70	1279.98
678.88	1257.45
679.07	1261.55
679.25	1253.36
679.44	1300.46
679.63	1253.36
679.81	1234.93
680.00	1304.56
680.18	1230.83
680.37	1298.41
680.55	1271.79
680.74	1279.98
680.93	1331.18
681.11	1304.56
681.30	1275.88
681.48	1257.45
681.67	1269.74
681.85	1241.07
682.04	1226.73
682.23	1296.36
682.41	1282.03
682.60	1263.60
682.78	1296.36
682.97	1347.56
683.15	1275.88
683.34	1343.47
683.53	1241.07
683.71	1308.65
683.90	1294.32
684.08	1245.16
684.27	1273.84
684.45	1224.69
684.64	1331.18
684.82	1290.22
685.01	1228.78
685.19	1269.74
685.38	1234.93
685.57	1390.57
685.75	1241.07
685.94	1282.03
686.12	1226.73
686.31	1308.65
686.49	1247.21
686.68	1259.50
686.86	1251.31
687.05	1298.41
687.23	1251.31
687.42	1282.03
687.60	1251.31
687.79	1247.21
687.97	1273.84
688.16	1288.17
688.34	1245.16
688.53	1300.46
688.71	1300.46
688.90	1322.99
689.08	1271.79
689.27	1253.36
689.45	1228.78
689.64	1261.55
689.82	1335.28
690.01	1343.47
690.19	1251.31
690.38	1277.93
690.56	1339.37
690.75	1306.60
690.93	1208.30
691.12	1228.78
691.30	1224.69
691.49	1284.08
691.67	1273.84
691.86	1257.45
692.04	1308.65
692.23	1243.12
692.41	1198.06
692.60	1310.70
692.78	1366.00
692.97	1298.41
693.15	1222.64
693.34	1273.84
693.52	1257.45
693.71	1302.51
693.89	1271.79
694.08	1179.63
694.26	1247.21
694.44	1271.79
694.63	1183.73
694.81	1290.22
695.00	1282.03
695.18	1224.69
695.37	1239.02
695.55	1230.83
695.74	1253.36
695.92	1228.78
696.10	1243.12
696.29	1265.64
696.47	1296.36
696.66	1331.18
696.84	1298.41
697.03	1325.04
697.21	1210.35
697.40	1273.84
697.58	1292.27
697.76	1275.88
697.95	1259.50
698.13	1292.27
698.32	1279.98
698.50	1269.74
698.68	1239.02
698.87	1347.56
699.05	1273.84
699.24	1228.78
699.42	1212.40
699.61	1263.60
699.79	1249.26
699.97	1198.06
700.16	1318.89
700.34	1282.03
700.53	1222.64
700.71	1363.95
700.89	1216.49
701.08	1251.31
701.26	1335.28
701.45	1327.08
701.63	1335.28
701.81	1306.60
702.00	1286.12
702.18	1380.33
702.37	1243.12
702.55	1196.01
702.73	1320.94
702.92	1286.12
703.10	1257.45
703.28	1277.93
703.47	1302.51
703.65	1247.21
703.84	1279.98
704.02	1222.64
704.20	1222.64
704.39	1216.49
704.57	1288.17
704.75	1247.21
704.94	1282.03
705.12	1257.45
705.30	1310.70
705.49	1251.31
705.67	1304.56
705.86	1298.41
706.04	1275.88
706.22	1265.64
706.41	1331.18
706.59	1222.64
706.77	1288.17
706.96	1239.02
707.14	1206.25
707.32	1253.36
707.51	1294.32
707.69	1216.49
707.87	1282.03
708.06	1273.84
708.24	1255.40
708.42	1273.84
708.61	1236.97
708.79	1234.93
708.97	1253.36
709.16	1318.89
709.34	1228.78
709.52	1300.46
709.71	1226.73
709.89	1322.99
710.07	1271.79
710.26	1193.97
710.44	1269.74
710.62	1306.60
710.80	1263.60
710.99	1224.69
711.17	1273.84
711.35	1261.55
711.54	1290.22
711.72	1263.60
711.90	1271.79
712.09	1308.65
712.27	1296.36
712.45	1265.64
712.63	1304.56
712.82	1331.18
713.00	1263.60
713.18	1236.97
713.37	1288.17
713.55	1267.69
713.73	1298.41
713.91	1277.93
714.10	1302.51
714.28	1286.12
714.46	1234.93
714.65	1314.80
714.83	1316.84
715.01	1304.56
715.19	1183.73
715.38	1257.45
715.56	1306.60
715.74	1282.03
715.92	1310.70
716.11	1284.08
716.29	1232.88
716.47	1249.26
716.65	1265.64
716.84	1245.16
717.02	1265.64
717.20	1257.45
717.38	1363.95
717.57	1249.26
717.75	1224.69
717.93	1218.54
718.11	1263.60
718.30	1273.84
718.48	1320.94
718.66	1296.36
718.84	1249.26
719.03	1136.62
719.21	1300.46
719.39	1279.98
719.57	1273.84
719.75	1263.60
719.94	1306.60
720.12	1236.97
720.30	1230.83
720.48	1239.02
720.67	1245.16
720.85	1271.79
721.03	1191.92
721.21	1300.46
721.39	1279.98
721.58	1329.13
721.76	1236.97
721.94	1261.55
722.12	1279.98
722.30	1269.74
722.49	1265.64
722.67	1185.77
722.85	1245.16
723.03	1214.45
723.21	1277.93
723.40	1200.11
723.58	1245.16
723.76	1259.50
723.94	1241.07
724.12	1259.50
724.30	1314.80
724.49	1222.64
724.67	1314.80
724.85	1290.22
725.03	1343.47
725.21	1245.16
725.40	1284.08
725.58	1187.82
725.76	1318.89
725.94	1322.99
726.12	1234.93
726.30	1288.17
726.49	1322.99
726.67	1263.60
726.85	1294.32
727.03	1243.12
727.21	1288.17
727.39	1263.60
727.57	1243.12
727.76	1273.84
727.94	1294.32
728.12	1189.87
728.30	1271.79
728.48	1343.47
728.66	1230.83
728.84	1302.51
729.03	1243.12
729.21	1265.64
729.39	1277.93
729.57	1304.56
729.75	1247.21
729.93	1335.28
730.11	1267.69
730.30	1314.80
730.48	1212.40
730.66	1333.23
730.84	1243.12
731.02	1239.02
731.20	1220.59
731.38	1239.02
731.56	1187.82
731.74	1255.40
731.93	1263.60
732.11	1236.97
732.29	1284.08
732.47	1261.55
732.65	1306.60
732.83	1222.64
733.01	1232.88
733.19	1234.93
733.37	1327.08
733.56	1189.87
733.74	1269.74
733.92	1329.13
734.10	1312.75
734.28	1304.56
734.46	1277.93
734.64	1259.50
734.82	1306.60
735.00	1255.40
735.18	1241.07
735.36	1282.03
735.54	1300.46
735.73	1320.94
735.91	1312.75
736.09	1265.64
736.27	1322.99
736.45	1253.36
736.63	1286.12
736.81	1284.08
736.99	1218.54
737.17	1253.36
737.35	1306.60
737.53	1265.64
737.71	1277.93
737.89	1185.77
738.07	1249.26
738.25	1306.60
738.43	1212.40
738.61	1208.30
738.80	1222.64
738.98	1257.45
739.16	1282.03
739.34	1282.03
739.52	1294.32
739.70	1331.18
739.88	1255.40
740.06	1253.36
740.24	1230.83
740.42	1279.98
740.60	1273.84
740.78	1296.36
740.96	1269.74
741.14	1259.50
741.32	1316.84
741.50	1212.40
741.68	1253.36
741.86	1212.40
742.04	1275.88
742.22	1239.02
742.40	1286.12
742.58	1345.52
742.76	1257.45
742.94	1271.79
743.12	1222.64
743.30	1275.88
743.48	1298.41
743.66	1220.59
743.84	1257.45
744.02	1298.41
744.20	1234.93
744.38	1290.22
744.56	1247.21
744.74	1286.12
744.92	1320.94
745.10	1218.54
745.28	1230.83
745.46	1247.21
745.64	1191.92
745.82	1239.02
746.00	1302.51
746.18	1267.69
746.36	1277.93
746.54	1286.12
746.72	1304.56
746.90	1400.81
747.08	1298.41
747.26	1290.22
747.44	1265.64
747.62	1251.31
747.80	1294.32
747.98	1247.21
748.15	1331.18
748.33	1294.32
748.51	1224.69
748.69	1253.36
748.87	1312.75
749.05	1193.97
749.23	1277.93
749.41	1331.18
749.59	1267.69
749.77	1232.88
749.95	1273.84
750.13	1224.69
750.31	1312.75
750.49	1296.36
750.67	1288.17
750.85	1308.65
751.03	1279.98
751.20	1226.73
751.38	1273.84
751.56	1257.45
751.74	1265.64
751.92	1251.31
752.10	1282.03
752.28	1163.25
752.46	1228.78
752.64	1187.82
752.82	1269.74
753.00	1265.64
753.18	1361.90
753.35	1273.84
753.53	1265.64
753.71	1236.97
753.89	1294.32
754.07	1265.64
754.25	1251.31
754.43	1222.64
754.61	1298.41
754.79	1347.56
754.97	1247.21
755.14	1236.97
755.32	1327.08
755.50	1261.55
755.68	1304.56
755.86	1241.07
756.04	1288.17
756.22	1265.64
756.40	1372.14
756.57	1226.73
756.75	1234.93
756.93	1239.02
757.11	1226.73
757.29	1284.08
757.47	1286.12
757.65	1200.11
757.82	1175.53
758.00	1275.88
758.18	1290.22
758.36	1269.74
758.54	1271.79
758.72	1308.65
758.90	1222.64
759.07	1282.03
759.25	1271.79
759.43	1226.73
759.61	1279.98
759.79	1384.43
759.97	1239.02
760.15	1279.98
760.32	1232.88
760.50	1257.45
760.68	1286.12
760.86	1228.78
761.04	1288.17
761.22	1251.31
761.39	1288.17
761.57	1185.77
761.75	1277.93
761.93	1320.94
762.11	1241.07
762.28	1236.97
762.46	1271.79
762.64	1304.56
762.82	1286.12
763.00	1171.44
763.18	1249.26
763.35	1228.78
763.53	1363.95
763.71	1253.36
763.89	1259.50
764.07	1304.56
764.24	1230.83
764.42	1265.64
764.60	1345.52
764.78	1302.51
764.96	1191.92
765.13	1230.83
765.31	1265.64
765.49	1247.21
765.67	1247.21
765.84	1273.84
766.02	1249.26
766.20	1322.99
766.38	1257.45
766.56	1234.93
766.73	1261.55
766.91	1265.64
767.09	1253.36
767.27	1232.88
767.44	1241.07
767.62	1277.93
767.80	1298.41
767.98	1288.17
768.15	1294.32
768.33	1210.35
768.51	1284.08
768.69	1337.32
768.87	1286.12
769.04	1220.59
769.22	1298.41
769.40	1271.79
769.58	1288.17
769.75	1243.12
769.93	1279.98
770.11	1226.73
770.28	1241.07
770.46	1253.36
770.64	1302.51
770.82	1249.26
770.99	1261.55
771.17	1214.45
771.35	1306.60
771.53	1294.32
771.70	1337.32
771.88	1171.44
772.06	1312.75
772.23	1312.75
772.41	1249.26
772.59	1290.22
772.77	1171.44
772.94	1277.93
773.12	1282.03
773.30	1273.84
773.47	1296.36
773.65	1290.22
773.83	1202.16
774.01	1261.55
774.18	1286.12
774.36	1253.36
774.54	1265.64
774.71	1249.26
774.89	1263.60
775.07	1230.83
775.24	1218.54
775.42	1343.47
775.60	1329.13
775.78	1255.40
775.95	1273.84
776.13	1296.36
776.31	1261.55
776.48	1232.88
776.66	1263.60
776.84	1316.84
777.01	1314.80
777.19	1200.11
777.37	1253.36
777.54	1302.51
777.72	1263.60
777.90	1286.12
778.07	1255.40
778.25	1261.55
778.43	1286.12
778.60	1183.73
778.78	1290.22
778.96	1255.40
779.13	1302.51
779.31	1271.79
779.49	1273.84
779.66	1257.45
779.84	1327.08
780.01	1247.21
780.19	1236.97
780.37	1294.32
780.54	1294.32
780.72	1236.97
780.90	1247.21
781.07	1290.22
781.25	1267.69
781.43	1286.12
781.60	1239.02
781.78	1265.64
781.95	1257.45
782.13	1271.79
782.31	1185.77
782.48	1167.34
782.66	1214.45
782.83	1294.32
783.01	1322.99
783.19	1275.88
783.36	1290.22
783.54	1251.31
783.72	1275.88
783.89	1271.79
784.07	1329.13
784.24	1255.40
784.42	1325.04
784.60	1265.64
784.77	1263.60
784.95	1236.97
785.12	1161.20
785.30	1314.80
785.47	1325.04
785.65	1290.22
785.83	1251.31
786.00	1275.88
786.18	1294.32
786.35	1271.79
786.53	1300.46
786.71	1269.74
786.88	1286.12
787.06	1234.93
787.23	1298.41
787.41	1263.60
787.58	1212.40
787.76	1271.79
787.94	1282.03
788.11	1243.12
788.29	1273.84
788.46	1284.08
788.64	1214.45
788.81	1183.73
788.99	1187.82
789.16	1292.27
789.34	1341.42
789.52	1269.74
789.69	1277.93
789.87	1241.07
790.04	1284.08
790.22	1224.69
790.39	1220.59
790.57	1314.80
790.74	1210.35
790.92	1288.17
791.09	1257.45
791.27	1208.30
791.44	1308.65
791.62	1316.84
791.79	1284.08
791.97	1236.97
792.15	1327.08
792.32	1222.64
792.50	1243.12
792.67	1191.92
792.85	1267.69
793.02	1251.31
793.20	1239.02
793.37	1259.50
793.55	1259.50
793.72	1271.79
793.90	1257.45
794.07	1236.97
794.25	1267.69
794.42	1304.56
794.60	1267.69
794.77	1208.30
794.95	1271.79
795.12	1292.27
795.30	1290.22
795.47	1255.40
795.65	1284.08
795.82	1271.79
796.00	1286.12
796.17	1232.88
796.34	1247.21
796.52	1247.21
796.69	1288.17
796.87	1241.07
797.04	1320.94
797.22	1290.22
797.39	1232.88
797.57	1224.69
797.74	1322.99
797.92	1265.64
798.09	1279.98
798.27	1288.17
798.44	1271.79
798.62	1232.88
798.79	1232.88
798.96	1247.21
799.14	1214.45
799.31	1282.03
799.49	1273.84
799.66	1259.50
799.84	1308.65
800.01	1290.22
800.19	1282.03
800.36	1247.21
800.53	1296.36
800.71	1236.97
800.88	1296.36
801.06	1273.84
801.23	1318.89
801.41	1290.22
801.58	1241.07
801.75	1212.40
801.93	1277.93
802.10	1310.70
802.28	1247.21
802.45	1273.84
802.63	1296.36
802.80	1288.17
802.97	1232.88
803.15	1234.93
803.32	1304.56
803.50	1302.51
803.67	1339.37
803.84	1193.97
804.02	1296.36
804.19	1312.75
804.37	1191.92
804.54	1245.16
804.71	1304.56
804.89	1318.89
805.06	1222.64
805.24	1228.78
805.41	1183.73
805.58	1206.25
805.76	1331.18
805.93	1226.73
806.10	1322.99
806.28	1251.31
806.45	1228.78
806.63	1308.65
806.80	1245.16
806.97	1277.93
807.15	1218.54
807.32	1368.04
807.49	1271.79
807.67	1298.41
807.84	1257.45
808.01	1255.40
808.19	1247.21
808.36	1253.36
808.54	1249.26
808.71	1206.25
808.88	1245.16
809.06	1327.08
809.23	1273.84
809.40	1208.30
809.58	1236.97
809.75	1241.07
809.92	1232.88
810.10	1308.65
810.27	1300.46
810.44	1277.93
810.62	1316.84
810.79	1193.97
810.96	1304.56
811.14	1306.60
811.31	1191.92
811.48	1161.20
811.66	1353.71
811.83	1249.26
812.00	1241.07
812.18	1298.41
812.35	1292.27
812.52	1277.93
812.69	1290.22
812.87	1236.97
813.04	1265.64
813.21	1318.89
813.39	1320.94
813.56	1232.88
813.73	1247.21
813.91	1290.22
814.08	1249.26
814.25	1224.69
814.42	1257.45
814.60	1286.12
814.77	1300.46
814.94	1314.80
815.12	1310.70
815.29	1265.64
815.46	1239.02
815.63	1314.80
815.81	1284.08
815.98	1292.27
816.15	1230.83
816.33	1265.64
816.50	1257.45
816.67	1234.93
816.84	1343.47
817.02	1243.12
817.19	1302.51
817.36	1331.18
817.53	1286.12
817.71	1290.22
817.88	1159.15
818.05	1249.26
818.22	1230.83
818.40	1269.74
818.57	1279.98
818.74	1320.94
818.91	1239.02
819.09	1302.51
819.26	1279.98
819.43	1267.69
819.60	1279.98
819.78	1306.60
819.95	1298.41
820.12	1210.35
820.29	1300.46
820.47	1255.40
820.64	1267.69
820.81	1228.78
820.98	1251.31
821.15	1253.36
821.33	1300.46
821.50	1302.51
821.67	1286.12
821.84	1273.84
822.02	1212.40
822.19	1341.42
822.36	1282.03
822.53	1200.11
822.70	1265.64
822.88	1279.98
823.05	1214.45
823.22	1298.41
823.39	1331.18
823.56	1191.92
823.74	1320.94
823.91	1206.25
824.08	1185.77
824.25	1312.75
824.42	1241.07
824.60	1325.04
824.77	1302.51
824.94	1222.64
825.11	1251.31
825.28	1226.73
825.45	1290.22
825.63	1310.70
825.80	1239.02
825.97	1275.88
826.14	1302.51
826.31	1261.55
826.48	1294.32
826.66	1234.93
826.83	1282.03
827.00	1325.04
827.17	1175.53
827.34	1286.12
827.51	1222.64
827.69	1243.12
827.86	1267.69
828.03	1275.88
828.20	1193.97
828.37	1243.12
828.54	1245.16
828.71	1337.32
828.89	1277.93
829.06	1318.89
829.23	1232.88
829.40	1236.97
829.57	1253.36
829.74	1267.69
829.91	1241.07
830.09	1206.25
830.26	1243.12
830.43	1245.16
830.60	1255.40
830.77	1333.23
830.94	1216.49
831.11	1236.97
831.28	1290.22
831.46	1284.08
831.63	1306.60
831.80	1243.12
831.97	1304.56
832.14	1273.84
832.31	1273.84
832.48	1239.02
832.65	1243.12
832.82	1296.36
832.99	1296.36
833.17	1216.49
833.34	1261.55
833.51	1241.07
833.68	1253.36
833.85	1234.93
834.02	1282.03
834.19	1220.59
834.36	1249.26
834.53	1236.97
834.70	1282.03
834.87	1282.03
835.04	1292.27
835.22	1267.69
835.39	1298.41
835.56	1333.23
835.73	1343.47
835.90	1241.07
836.07	1361.90
836.24	1247.21
836.41	1234.93
836.58	1279.98
836.75	1279.98
836.92	1224.69
837.09	1251.31
837.26	1279.98
837.43	1308.65
837.60	1257.45
837.77	1265.64
837.94	1279.98
838.12	1292.27
838.29	1224.69
838.46	1284.08
838.63	1290.22
838.80	1339.37
838.97	1294.32
839.14	1234.93
839.31	1271.79
839.48	1232.88
839.65	1284.08
839.82	1236.97
839.99	1271.79
840.16	1255.40
840.33	1275.88
840.50	1279.98
840.67	1169.39
840.84	1294.32
841.01	1273.84
841.18	1255.40
841.35	1263.60
841.52	1263.60
841.69	1216.49
841.86	1339.37
842.03	1286.12
842.20	1286.12
842.37	1249.26
842.54	1298.41
842.71	1279.98
842.88	1239.02
843.05	1181.68
843.22	1314.80
843.39	1247.21
843.56	1257.45
843.73	1263.60
843.90	1200.11
844.07	1265.64
844.24	1222.64
844.41	1232.88
844.58	1296.36
844.75	1298.41
844.92	1298.41
845.09	1288.17
845.26	1265.64
845.43	1216.49
845.60	1249.26
845.77	1224.69
845.94	1226.73
846.10	1300.46
846.27	1325.04
846.44	1228.78
846.61	1267.69
846.78	1286.12
846.95	1290.22
847.12	1269.74
847.29	1247.21
847.46	1265.64
847.63	1183.73
847.80	1279.98
847.97	1261.55
848.14	1277.93
848.31	1308.65
848.48	1220.59
848.65	1212.40
848.82	1243.12
848.98	1306.60
849.15	1212.40
849.32	1236.97
849.49	1230.83
849.66	1263.60
849.83	1267.69
850.00	1269.74
850.17	1296.36
850.34	1329.13
850.51	1267.69
850.68	1222.64
850.85	1273.84
851.01	1304.56
851.18	1224.69
851.35	1314.80
851.52	1282.03
851.69	1331.18
851.86	1169.39
852.03	1212.40
852.20	1230.83
852.37	1271.79
852.53	1241.07
852.70	1290.22
852.87	1236.97
853.04	1259.50
853.21	1273.84
853.38	1273.84
853.55	1271.79
853.72	1298.41
853.89	1253.36
854.05	1265.64
854.22	1300.46
854.39	1306.60
854.56	1177.58
854.73	1273.84
854.90	1265.64
855.07	1269.74
855.23	1196.01
855.40	1263.60
855.57	1265.64
855.74	1300.46
855.91	1282.03
856.08	1218.54
856.25	1243.12
856.41	1312.75
856.58	1304.56
856.75	1282.03
856.92	1267.69
857.09	1288.17
857.26	1314.80
857.42	1308.65
857.59	1325.04
857.76	1288.17
857.93	1234.93
858.10	1271.79
858.27	1304.56
858.43	1298.41
858.60	1245.16
858.77	1275.88
858.94	1208.30
859.11	1269.74
859.27	1259.50
859.44	1239.02
859.61	1302.51
859.78	1298.41
859.95	1232.88
860.12	1249.26
860.28	1218.54
860.45	1261.55
860.62	1232.88
860.79	1302.51
860.95	1263.60
861.12	1282.03
861.29	1175.53
861.46	1255.40
861.63	1255.40
861.79	1228.78
861.96	1257.45
862.13	1290.22
862.30	1282.03
862.47	1302.51
862.63	1234.93
862.80	1261.55
862.97	1265.64
863.14	1286.12
863.30	1269.74
863.47	1310.70
863.64	1275.88
863.81	1226.73
863.97	1355.76
864.14	1249.26
864.31	1239.02
864.48	1218.54
864.65	1341.42
864.81	1286.12
864.98	1261.55
865.15	1255.40
865.32	1257.45
865.48	1306.60
865.65	1296.36
865.82	1234.93
865.98	1259.50
866.15	1308.65
866.32	1292.27
866.49	1277.93
866.65	1294.32
866.82	1279.98
866.99	1247.21
867.16	1282.03
867.32	1286.12
867.49	1273.84
867.66	1261.55
867.83	1282.03
867.99	1253.36
868.16	1247.21
868.33	1212.40
868.49	1343.47
868.66	1322.99
868.83	1212.40
868.99	1222.64
869.16	1255.40
869.33	1228.78
869.50	1265.64
869.66	1257.45
869.83	1245.16
870.00	1259.50
870.16	1273.84
870.33	1357.80
870.50	1247.21
870.66	1314.80
870.83	1249.26
871.00	1284.08
871.17	1275.88
871.33	1327.08
871.50	1263.60
871.67	1320.94
871.83	1212.40
872.00	1234.93
872.17	1265.64
872.33	1214.45
872.50	1333.23
872.67	1282.03
872.83	1282.03
873.00	1208.30
873.17	1288.17
873.33	1310.70
873.50	1247.21
873.67	1241.07
873.83	1249.26
874.00	1302.51
874.16	1294.32
874.33	1232.88
874.50	1327.08
874.66	1288.17
874.83	1290.22
875.00	1327.08
875.16	1277.93
875.33	1241.07
875.50	1249.26
875.66	1294.32
875.83	1271.79
875.99	1327.08
876.16	1282.03
876.33	1279.98
876.49	1312.75
876.66	1236.97
876.83	1284.08
876.99	1269.74
877.16	1249.26
877.32	1325.04
877.49	1249.26
877.66	1228.78
877.82	1341.42
877.99	1241.07
878.15	1253.36
878.32	1255.40
878.49	1251.31
878.65	1271.79
878.82	1320.94
878.98	1234.93
879.15	1286.12
879.32	1294.32
879.48	1239.02
879.65	1234.93
879.81	1322.99
879.98	1273.84
880.15	1261.55
880.31	1206.25
880.48	1224.69
880.64	1257.45
880.81	1320.94
880.97	1267.69
881.14	1206.25
881.31	1341.42
881.47	1284.08
881.64	1306.60
881.80	1263.60
881.97	1247.21
882.13	1253.36
882.30	1298.41
882.47	1275.88
882.63	1251.31
882.80	1249.26
882.96	1300.46
883.13	1275.88
883.29	1241.07
883.46	1318.89
883.62	1257.45
883.79	1259.50
883.95	1290.22
884.12	1265.64
884.29	1216.49
884.45	1277.93
884.62	1218.54
884.78	1339.37
884.95	1210.35
885.11	1232.88
885.28	1284.08
885.44	1230.83
885.61	1251.31
885.77	1183.73
885.94	1310.70
886.10	1288.17
886.27	1261.55
886.43	1341.42
886.60	1290.22
886.76	1263.60
886.93	1275.88
887.09	1243.12
887.26	1241.07
887.42	1218.54
887.59	1318.89
887.75	1282.03
887.92	1302.51
888.08	1251.31
888.25	1243.12
888.41	1320.94
888.58	1226.73
888.74	1269.74
888.91	1279.98
>>>>>End Processed Spectral Data<<<<<
