SpectraSuite Data File
++++++++++++++++++++++++++++++++++++
Date: Sun Apr 03 19:55:14 CEST 2016
User: root
Dark Spectrum Present: No
Reference Spectrum Present: No
Number of Sampled Component Spectra: 1
Spectrometers: USB4C02835
Integration Time (usec): 10000 (USB4C02835)
Spectra Averaged: 1 (USB4C02835)
Boxcar Smoothing: 0 (USB4C02835)
Correct for Electrical Dark: No (USB4C02835)
Strobe/Lamp Enabled: No (USB4C02835)
Correct for Detector Non-linearity: No (USB4C02835)
Correct for Stray Light: No (USB4C02835)
Number of Pixels in Processed Spectrum: 3648
>>>>>Begin Processed Spectral Data<<<<<
177.47	1279.98
177.69	1279.98
177.91	1279.98
178.13	1216.49
178.36	1206.25
178.58	1257.45
178.80	1255.40
179.02	1273.84
179.24	1236.97
179.46	1257.45
179.68	1277.93
179.90	1222.64
180.13	1255.40
180.35	1282.03
180.57	1331.18
180.79	1263.60
181.01	1216.49
181.23	1216.49
181.45	1298.41
181.67	1271.79
181.90	1279.98
182.12	1191.92
182.34	1249.26
182.56	1257.45
182.78	1228.78
183.00	1230.83
183.22	1255.40
183.44	1257.45
183.66	1288.17
183.89	1257.45
184.11	1243.12
184.33	1253.36
184.55	1279.98
184.77	1253.36
184.99	1286.12
185.21	1304.56
185.43	1263.60
185.65	1269.74
185.87	1290.22
186.10	1277.93
186.32	1284.08
186.54	1304.56
186.76	1177.58
186.98	1259.50
187.20	1224.69
187.42	1296.36
187.64	1394.67
187.86	1241.07
188.08	1214.45
188.30	1261.55
188.52	1310.70
188.75	1271.79
188.97	1275.88
189.19	1191.92
189.41	1314.80
189.63	1265.64
189.85	1341.42
190.07	1249.26
190.29	1185.77
190.51	1298.41
190.73	1230.83
190.95	1314.80
191.17	1316.84
191.39	1261.55
191.61	1271.79
191.84	1247.21
192.06	1259.50
192.28	1304.56
192.50	1304.56
192.72	1279.98
192.94	1251.31
193.16	1230.83
193.38	1216.49
193.60	1271.79
193.82	1220.59
194.04	1261.55
194.26	1261.55
194.48	1241.07
194.70	1271.79
194.92	1257.45
195.14	1208.30
195.36	1267.69
195.58	1286.12
195.80	1230.83
196.02	1255.40
196.24	1214.45
196.46	1263.60
196.69	1273.84
196.91	1267.69
197.13	1331.18
197.35	1204.21
197.57	1312.75
197.79	1300.46
198.01	1187.82
198.23	1230.83
198.45	1253.36
198.67	1177.58
198.89	1284.08
199.11	1224.69
199.33	1208.30
199.55	1271.79
199.77	1230.83
199.99	1308.65
200.21	1269.74
200.43	1210.35
200.65	1286.12
200.87	1282.03
201.09	1212.40
201.31	1361.90
201.53	1279.98
201.75	1257.45
201.97	1177.58
202.19	1316.84
202.41	1257.45
202.63	1277.93
202.85	1267.69
203.07	1261.55
203.29	1273.84
203.51	1275.88
203.73	1230.83
203.95	1300.46
204.17	1290.22
204.39	1314.80
204.61	1265.64
204.83	1239.02
205.05	1275.88
205.27	1314.80
205.49	1257.45
205.71	1259.50
205.93	1335.28
206.15	1286.12
206.37	1216.49
206.59	1263.60
206.81	1251.31
207.03	1300.46
207.25	1243.12
207.47	1267.69
207.69	1241.07
207.91	1249.26
208.13	1234.93
208.34	1261.55
208.56	1355.76
208.78	1279.98
209.00	1277.93
209.22	1296.36
209.44	1273.84
209.66	1216.49
209.88	1251.31
210.10	1232.88
210.32	1277.93
210.54	1304.56
210.76	1251.31
210.98	1181.68
211.20	1243.12
211.42	1239.02
211.64	1220.59
211.86	1304.56
212.08	1263.60
212.30	1286.12
212.52	1245.16
212.74	1277.93
212.96	1333.23
213.17	1210.35
213.39	1267.69
213.61	1322.99
213.83	1202.16
214.05	1333.23
214.27	1304.56
214.49	1269.74
214.71	1257.45
214.93	1288.17
215.15	1255.40
215.37	1257.45
215.59	1288.17
215.81	1263.60
216.03	1300.46
216.24	1187.82
216.46	1255.40
216.68	1300.46
216.90	1298.41
217.12	1304.56
217.34	1269.74
217.56	1265.64
217.78	1282.03
218.00	1294.32
218.22	1179.63
218.44	1206.25
218.66	1255.40
218.87	1208.30
219.09	1269.74
219.31	1284.08
219.53	1347.56
219.75	1327.08
219.97	1257.45
220.19	1214.45
220.41	1196.01
220.63	1236.97
220.85	1206.25
221.06	1263.60
221.28	1275.88
221.50	1261.55
221.72	1247.21
221.94	1279.98
222.16	1298.41
222.38	1216.49
222.60	1288.17
222.82	1286.12
223.03	1300.46
223.25	1273.84
223.47	1247.21
223.69	1249.26
223.91	1255.40
224.13	1282.03
224.35	1286.12
224.57	1331.18
224.78	1267.69
225.00	1165.29
225.22	1243.12
225.44	1273.84
225.66	1234.93
225.88	1292.27
226.10	1204.21
226.32	1277.93
226.53	1308.65
226.75	1284.08
226.97	1253.36
227.19	1304.56
227.41	1265.64
227.63	1279.98
227.85	1282.03
228.06	1265.64
228.28	1187.82
228.50	1257.45
228.72	1314.80
228.94	1249.26
229.16	1316.84
229.37	1247.21
229.59	1335.28
229.81	1241.07
230.03	1259.50
230.25	1220.59
230.47	1191.92
230.69	1247.21
230.90	1236.97
231.12	1282.03
231.34	1275.88
231.56	1288.17
231.78	1304.56
232.00	1245.16
232.21	1224.69
232.43	1255.40
232.65	1257.45
232.87	1239.02
233.09	1247.21
233.30	1306.60
233.52	1282.03
233.74	1249.26
233.96	1230.83
234.18	1327.08
234.40	1234.93
234.61	1275.88
234.83	1294.32
235.05	1236.97
235.27	1206.25
235.49	1292.27
235.70	1355.76
235.92	1310.70
236.14	1155.05
236.36	1282.03
236.58	1265.64
236.79	1290.22
237.01	1241.07
237.23	1232.88
237.45	1253.36
237.67	1304.56
237.88	1296.36
238.10	1259.50
238.32	1298.41
238.54	1314.80
238.76	1200.11
238.97	1279.98
239.19	1282.03
239.41	1290.22
239.63	1259.50
239.85	1318.89
240.06	1245.16
240.28	1253.36
240.50	1193.97
240.72	1277.93
240.93	1241.07
241.15	1247.21
241.37	1263.60
241.59	1320.94
241.81	1322.99
242.02	1257.45
242.24	1347.56
242.46	1236.97
242.68	1275.88
242.89	1279.98
243.11	1312.75
243.33	1228.78
243.55	1277.93
243.76	1300.46
243.98	1298.41
244.20	1191.92
244.42	1243.12
244.64	1216.49
244.85	1269.74
245.07	1269.74
245.29	1243.12
245.51	1304.56
245.72	1261.55
245.94	1273.84
246.16	1284.08
246.38	1232.88
246.59	1239.02
246.81	1226.73
247.03	1279.98
247.24	1335.28
247.46	1261.55
247.68	1279.98
247.90	1210.35
248.11	1257.45
248.33	1224.69
248.55	1339.37
248.77	1253.36
248.98	1245.16
249.20	1361.90
249.42	1255.40
249.64	1247.21
249.85	1310.70
250.07	1230.83
250.29	1320.94
250.50	1236.97
250.72	1263.60
250.94	1257.45
251.16	1288.17
251.37	1284.08
251.59	1189.87
251.81	1234.93
252.02	1302.51
252.24	1279.98
252.46	1216.49
252.68	1271.79
252.89	1224.69
253.11	1210.35
253.33	1284.08
253.54	1284.08
253.76	1282.03
253.98	1269.74
254.20	1263.60
254.41	1273.84
254.63	1384.43
254.85	1255.40
255.06	1333.23
255.28	1206.25
255.50	1286.12
255.71	1251.31
255.93	1273.84
256.15	1339.37
256.36	1169.39
256.58	1304.56
256.80	1279.98
257.02	1259.50
257.23	1249.26
257.45	1286.12
257.67	1236.97
257.88	1204.21
258.10	1286.12
258.32	1273.84
258.53	1318.89
258.75	1284.08
258.97	1269.74
259.18	1314.80
259.40	1234.93
259.62	1239.02
259.83	1261.55
260.05	1273.84
260.27	1355.76
260.48	1261.55
260.70	1286.12
260.92	1263.60
261.13	1304.56
261.35	1292.27
261.57	1214.45
261.78	1269.74
262.00	1222.64
262.22	1302.51
262.43	1253.36
262.65	1271.79
262.86	1255.40
263.08	1220.59
263.30	1226.73
263.51	1216.49
263.73	1257.45
263.95	1306.60
264.16	1271.79
264.38	1239.02
264.60	1298.41
264.81	1267.69
265.03	1261.55
265.25	1271.79
265.46	1277.93
265.68	1269.74
265.89	1304.56
266.11	1249.26
266.33	1284.08
266.54	1288.17
266.76	1269.74
266.98	1282.03
267.19	1253.36
267.41	1327.08
267.62	1304.56
267.84	1200.11
268.06	1296.36
268.27	1251.31
268.49	1228.78
268.70	1175.53
268.92	1335.28
269.14	1296.36
269.35	1206.25
269.57	1216.49
269.79	1304.56
270.00	1306.60
270.22	1302.51
270.43	1277.93
270.65	1275.88
270.87	1239.02
271.08	1290.22
271.30	1257.45
271.51	1259.50
271.73	1331.18
271.95	1296.36
272.16	1302.51
272.38	1286.12
272.59	1290.22
272.81	1300.46
273.02	1249.26
273.24	1214.45
273.46	1263.60
273.67	1245.16
273.89	1265.64
274.10	1253.36
274.32	1292.27
274.54	1300.46
274.75	1208.30
274.97	1214.45
275.18	1296.36
275.40	1236.97
275.61	1224.69
275.83	1277.93
276.05	1204.21
276.26	1243.12
276.48	1320.94
276.69	1245.16
276.91	1236.97
277.12	1335.28
277.34	1335.28
277.55	1185.77
277.77	1290.22
277.99	1304.56
278.20	1277.93
278.42	1290.22
278.63	1322.99
278.85	1331.18
279.06	1284.08
279.28	1304.56
279.49	1290.22
279.71	1234.93
279.93	1275.88
280.14	1273.84
280.36	1282.03
280.57	1263.60
280.79	1300.46
281.00	1277.93
281.22	1267.69
281.43	1294.32
281.65	1320.94
281.86	1200.11
282.08	1300.46
282.29	1310.70
282.51	1259.50
282.73	1251.31
282.94	1249.26
283.16	1173.49
283.37	1247.21
283.59	1241.07
283.80	1216.49
284.02	1288.17
284.23	1236.97
284.45	1249.26
284.66	1306.60
284.88	1361.90
285.09	1363.95
285.31	1208.30
285.52	1175.53
285.74	1288.17
285.95	1265.64
286.17	1241.07
286.38	1191.92
286.60	1312.75
286.81	1181.68
287.03	1243.12
287.24	1249.26
287.46	1271.79
287.67	1236.97
287.89	1267.69
288.10	1204.21
288.32	1282.03
288.53	1243.12
288.75	1241.07
288.96	1294.32
289.18	1228.78
289.39	1267.69
289.61	1253.36
289.82	1310.70
290.04	1179.63
290.25	1312.75
290.47	1249.26
290.68	1316.84
290.90	1210.35
291.11	1185.77
291.33	1157.10
291.54	1275.88
291.76	1296.36
291.97	1200.11
292.18	1212.40
292.40	1267.69
292.61	1353.71
292.83	1292.27
293.04	1296.36
293.26	1275.88
293.47	1216.49
293.69	1269.74
293.90	1249.26
294.12	1273.84
294.33	1247.21
294.55	1269.74
294.76	1220.59
294.97	1224.69
295.19	1292.27
295.40	1228.78
295.62	1296.36
295.83	1269.74
296.05	1239.02
296.26	1261.55
296.48	1228.78
296.69	1255.40
296.90	1239.02
297.12	1298.41
297.33	1310.70
297.55	1189.87
297.76	1329.13
297.98	1279.98
298.19	1296.36
298.41	1288.17
298.62	1241.07
298.83	1232.88
299.05	1181.68
299.26	1273.84
299.48	1277.93
299.69	1271.79
299.90	1247.21
300.12	1232.88
300.33	1282.03
300.55	1267.69
300.76	1335.28
300.98	1300.46
301.19	1255.40
301.40	1327.08
301.62	1318.89
301.83	1294.32
302.05	1232.88
302.26	1265.64
302.47	1314.80
302.69	1239.02
302.90	1337.32
303.12	1304.56
303.33	1234.93
303.54	1282.03
303.76	1214.45
303.97	1298.41
304.19	1253.36
304.40	1343.47
304.61	1175.53
304.83	1232.88
305.04	1275.88
305.26	1282.03
305.47	1292.27
305.68	1239.02
305.90	1275.88
306.11	1310.70
306.33	1222.64
306.54	1349.61
306.75	1236.97
306.97	1253.36
307.18	1230.83
307.39	1243.12
307.61	1263.60
307.82	1286.12
308.04	1224.69
308.25	1224.69
308.46	1343.47
308.68	1312.75
308.89	1290.22
309.10	1343.47
309.32	1228.78
309.53	1341.42
309.74	1257.45
309.96	1275.88
310.17	1261.55
310.39	1269.74
310.60	1273.84
310.81	1226.73
311.03	1255.40
311.24	1255.40
311.45	1279.98
311.67	1261.55
311.88	1263.60
312.09	1239.02
312.31	1269.74
312.52	1282.03
312.73	1335.28
312.95	1210.35
313.16	1220.59
313.37	1269.74
313.59	1150.96
313.80	1241.07
314.01	1216.49
314.23	1220.59
314.44	1234.93
314.65	1253.36
314.87	1193.97
315.08	1282.03
315.29	1282.03
315.51	1261.55
315.72	1329.13
315.93	1341.42
316.15	1335.28
316.36	1290.22
316.57	1296.36
316.79	1261.55
317.00	1224.69
317.21	1292.27
317.43	1214.45
317.64	1193.97
317.85	1224.69
318.07	1247.21
318.28	1337.32
318.49	1202.16
318.70	1282.03
318.92	1253.36
319.13	1247.21
319.34	1259.50
319.56	1279.98
319.77	1316.84
319.98	1236.97
320.20	1269.74
320.41	1282.03
320.62	1282.03
320.83	1296.36
321.05	1263.60
321.26	1222.64
321.47	1241.07
321.69	1273.84
321.90	1325.04
322.11	1179.63
322.32	1316.84
322.54	1327.08
322.75	1312.75
322.96	1257.45
323.18	1241.07
323.39	1292.27
323.60	1247.21
323.81	1241.07
324.03	1220.59
324.24	1247.21
324.45	1243.12
324.66	1261.55
324.88	1275.88
325.09	1286.12
325.30	1273.84
325.52	1247.21
325.73	1265.64
325.94	1318.89
326.15	1327.08
326.37	1288.17
326.58	1198.06
326.79	1343.47
327.00	1214.45
327.22	1273.84
327.43	1247.21
327.64	1320.94
327.85	1277.93
328.07	1273.84
328.28	1255.40
328.49	1288.17
328.70	1257.45
328.92	1310.70
329.13	1228.78
329.34	1261.55
329.55	1273.84
329.76	1263.60
329.98	1363.95
330.19	1288.17
330.40	1333.23
330.61	1316.84
330.83	1187.82
331.04	1325.04
331.25	1247.21
331.46	1265.64
331.68	1232.88
331.89	1271.79
332.10	1218.54
332.31	1318.89
332.52	1236.97
332.74	1290.22
332.95	1302.51
333.16	1220.59
333.37	1286.12
333.58	1255.40
333.80	1271.79
334.01	1239.02
334.22	1261.55
334.43	1216.49
334.64	1296.36
334.86	1230.83
335.07	1257.45
335.28	1316.84
335.49	1259.50
335.70	1226.73
335.92	1308.65
336.13	1308.65
336.34	1294.32
336.55	1261.55
336.76	1232.88
336.98	1263.60
337.19	1191.92
337.40	1292.27
337.61	1259.50
337.82	1245.16
338.04	1279.98
338.25	1265.64
338.46	1314.80
338.67	1333.23
338.88	1177.58
339.09	1286.12
339.31	1206.25
339.52	1249.26
339.73	1232.88
339.94	1279.98
340.15	1277.93
340.36	1265.64
340.58	1216.49
340.79	1306.60
341.00	1271.79
341.21	1265.64
341.42	1284.08
341.63	1259.50
341.85	1265.64
342.06	1333.23
342.27	1314.80
342.48	1204.21
342.69	1290.22
342.90	1294.32
343.12	1296.36
343.33	1241.07
343.54	1206.25
343.75	1325.04
343.96	1241.07
344.17	1232.88
344.38	1239.02
344.60	1181.68
344.81	1251.31
345.02	1239.02
345.23	1265.64
345.44	1232.88
345.65	1222.64
345.86	1333.23
346.07	1251.31
346.29	1263.60
346.50	1284.08
346.71	1185.77
346.92	1306.60
347.13	1273.84
347.34	1288.17
347.55	1243.12
347.76	1257.45
347.98	1261.55
348.19	1306.60
348.40	1247.21
348.61	1273.84
348.82	1271.79
349.03	1261.55
349.24	1226.73
349.45	1277.93
349.66	1224.69
349.88	1226.73
350.09	1245.16
350.30	1263.60
350.51	1265.64
350.72	1284.08
350.93	1255.40
351.14	1320.94
351.35	1341.42
351.56	1255.40
351.77	1212.40
351.99	1271.79
352.20	1249.26
352.41	1294.32
352.62	1335.28
352.83	1314.80
353.04	1255.40
353.25	1249.26
353.46	1355.76
353.67	1263.60
353.88	1212.40
354.09	1251.31
354.30	1316.84
354.52	1232.88
354.73	1216.49
354.94	1251.31
355.15	1216.49
355.36	1243.12
355.57	1359.85
355.78	1261.55
355.99	1249.26
356.20	1255.40
356.41	1249.26
356.62	1322.99
356.83	1271.79
357.04	1204.21
357.25	1304.56
357.46	1220.59
357.68	1253.36
357.89	1255.40
358.10	1230.83
358.31	1249.26
358.52	1306.60
358.73	1267.69
358.94	1214.45
359.15	1224.69
359.36	1284.08
359.57	1220.59
359.78	1228.78
359.99	1306.60
360.20	1271.79
360.41	1226.73
360.62	1279.98
360.83	1271.79
361.04	1288.17
361.25	1265.64
361.46	1255.40
361.67	1296.36
361.88	1279.98
362.09	1228.78
362.30	1271.79
362.51	1249.26
362.72	1257.45
362.93	1220.59
363.14	1239.02
363.35	1247.21
363.56	1265.64
363.78	1232.88
363.99	1286.12
364.20	1243.12
364.41	1277.93
364.62	1218.54
364.83	1298.41
365.04	1347.56
365.25	1282.03
365.46	1249.26
365.67	1277.93
365.88	1286.12
366.09	1208.30
366.30	1275.88
366.51	1269.74
366.72	1273.84
366.93	1380.33
367.14	1288.17
367.35	1314.80
367.56	1236.97
367.77	1247.21
367.98	1234.93
368.18	1245.16
368.39	1214.45
368.60	1204.21
368.81	1220.59
369.02	1312.75
369.23	1277.93
369.44	1286.12
369.65	1284.08
369.86	1314.80
370.07	1298.41
370.28	1198.06
370.49	1290.22
370.70	1224.69
370.91	1282.03
371.12	1259.50
371.33	1308.65
371.54	1310.70
371.75	1265.64
371.96	1335.28
372.17	1245.16
372.38	1300.46
372.59	1261.55
372.80	1232.88
373.01	1284.08
373.22	1230.83
373.43	1275.88
373.64	1239.02
373.85	1294.32
374.06	1212.40
374.26	1286.12
374.47	1263.60
374.68	1236.97
374.89	1322.99
375.10	1263.60
375.31	1241.07
375.52	1234.93
375.73	1224.69
375.94	1241.07
376.15	1284.08
376.36	1290.22
376.57	1325.04
376.78	1345.52
376.99	1304.56
377.20	1204.21
377.40	1288.17
377.61	1275.88
377.82	1279.98
378.03	1300.46
378.24	1275.88
378.45	1327.08
378.66	1308.65
378.87	1232.88
379.08	1177.58
379.29	1224.69
379.50	1290.22
379.71	1208.30
379.91	1239.02
380.12	1261.55
380.33	1327.08
380.54	1290.22
380.75	1216.49
380.96	1300.46
381.17	1327.08
381.38	1255.40
381.59	1341.42
381.80	1306.60
382.00	1267.69
382.21	1288.17
382.42	1245.16
382.63	1351.66
382.84	1269.74
383.05	1253.36
383.26	1247.21
383.47	1273.84
383.68	1298.41
383.88	1320.94
384.09	1288.17
384.30	1230.83
384.51	1222.64
384.72	1353.71
384.93	1245.16
385.14	1316.84
385.35	1214.45
385.55	1327.08
385.76	1273.84
385.97	1267.69
386.18	1249.26
386.39	1308.65
386.60	1243.12
386.81	1261.55
387.02	1173.49
387.22	1228.78
387.43	1241.07
387.64	1294.32
387.85	1265.64
388.06	1224.69
388.27	1196.01
388.48	1302.51
388.68	1300.46
388.89	1300.46
389.10	1169.39
389.31	1214.45
389.52	1306.60
389.73	1306.60
389.93	1255.40
390.14	1243.12
390.35	1255.40
390.56	1253.36
390.77	1286.12
390.98	1236.97
391.18	1232.88
391.39	1232.88
391.60	1290.22
391.81	1267.69
392.02	1296.36
392.23	1290.22
392.43	1222.64
392.64	1286.12
392.85	1267.69
393.06	1306.60
393.27	1322.99
393.47	1263.60
393.68	1273.84
393.89	1300.46
394.10	1304.56
394.31	1286.12
394.52	1204.21
394.72	1277.93
394.93	1251.31
395.14	1269.74
395.35	1282.03
395.56	1314.80
395.76	1331.18
395.97	1359.85
396.18	1228.78
396.39	1220.59
396.60	1349.61
396.80	1265.64
397.01	1357.80
397.22	1271.79
397.43	1261.55
397.64	1286.12
397.84	1306.60
398.05	1292.27
398.26	1314.80
398.47	1265.64
398.67	1232.88
398.88	1320.94
399.09	1253.36
399.30	1249.26
399.51	1247.21
399.71	1302.51
399.92	1261.55
400.13	1236.97
400.34	1339.37
400.54	1249.26
400.75	1294.32
400.96	1312.75
401.17	1312.75
401.37	1230.83
401.58	1286.12
401.79	1310.70
402.00	1259.50
402.21	1251.31
402.41	1251.31
402.62	1210.35
402.83	1155.05
403.04	1267.69
403.24	1241.07
403.45	1296.36
403.66	1228.78
403.87	1253.36
404.07	1232.88
404.28	1249.26
404.49	1249.26
404.70	1224.69
404.90	1265.64
405.11	1275.88
405.32	1208.30
405.52	1241.07
405.73	1294.32
405.94	1282.03
406.15	1222.64
406.35	1302.51
406.56	1302.51
406.77	1269.74
406.98	1263.60
407.18	1263.60
407.39	1265.64
407.60	1294.32
407.80	1308.65
408.01	1271.79
408.22	1284.08
408.43	1220.59
408.63	1296.36
408.84	1265.64
409.05	1290.22
409.25	1290.22
409.46	1302.51
409.67	1275.88
409.88	1249.26
410.08	1263.60
410.29	1222.64
410.50	1253.36
410.70	1277.93
410.91	1234.93
411.12	1355.76
411.32	1183.73
411.53	1306.60
411.74	1259.50
411.95	1232.88
412.15	1265.64
412.36	1175.53
412.57	1296.36
412.77	1265.64
412.98	1275.88
413.19	1347.56
413.39	1208.30
413.60	1308.65
413.81	1224.69
414.01	1273.84
414.22	1298.41
414.43	1273.84
414.63	1269.74
414.84	1308.65
415.05	1279.98
415.25	1284.08
415.46	1216.49
415.67	1275.88
415.87	1263.60
416.08	1298.41
416.29	1284.08
416.49	1290.22
416.70	1327.08
416.91	1261.55
417.11	1275.88
417.32	1232.88
417.53	1269.74
417.73	1226.73
417.94	1234.93
418.15	1198.06
418.35	1247.21
418.56	1320.94
418.77	1275.88
418.97	1245.16
419.18	1236.97
419.38	1286.12
419.59	1292.27
419.80	1271.79
420.00	1257.45
420.21	1288.17
420.42	1224.69
420.62	1253.36
420.83	1185.77
421.04	1228.78
421.24	1253.36
421.45	1277.93
421.65	1304.56
421.86	1265.64
422.07	1269.74
422.27	1300.46
422.48	1277.93
422.69	1232.88
422.89	1277.93
423.10	1288.17
423.30	1294.32
423.51	1216.49
423.72	1232.88
423.92	1185.77
424.13	1247.21
424.33	1284.08
424.54	1222.64
424.75	1314.80
424.95	1241.07
425.16	1298.41
425.36	1257.45
425.57	1298.41
425.78	1218.54
425.98	1282.03
426.19	1232.88
426.39	1288.17
426.60	1277.93
426.81	1212.40
427.01	1296.36
427.22	1288.17
427.42	1312.75
427.63	1253.36
427.83	1181.68
428.04	1169.39
428.25	1253.36
428.45	1335.28
428.66	1210.35
428.86	1314.80
429.07	1308.65
429.28	1318.89
429.48	1253.36
429.69	1204.21
429.89	1247.21
430.10	1224.69
430.30	1331.18
430.51	1288.17
430.71	1241.07
430.92	1277.93
431.13	1269.74
431.33	1269.74
431.54	1273.84
431.74	1300.46
431.95	1236.97
432.15	1247.21
432.36	1284.08
432.56	1327.08
432.77	1339.37
432.98	1284.08
433.18	1327.08
433.39	1271.79
433.59	1271.79
433.80	1267.69
434.00	1216.49
434.21	1273.84
434.41	1355.76
434.62	1345.52
434.82	1296.36
435.03	1261.55
435.23	1275.88
435.44	1353.71
435.64	1218.54
435.85	1222.64
436.06	1267.69
436.26	1306.60
436.47	1196.01
436.67	1288.17
436.88	1361.90
437.08	1277.93
437.29	1275.88
437.49	1318.89
437.70	1239.02
437.90	1292.27
438.11	1247.21
438.31	1288.17
438.52	1284.08
438.72	1257.45
438.93	1288.17
439.13	1251.31
439.34	1267.69
439.54	1329.13
439.75	1267.69
439.95	1273.84
440.16	1232.88
440.36	1239.02
440.57	1275.88
440.77	1327.08
440.98	1230.83
441.18	1335.28
441.39	1245.16
441.59	1337.32
441.80	1322.99
442.00	1325.04
442.21	1296.36
442.41	1288.17
442.62	1306.60
442.82	1292.27
443.02	1261.55
443.23	1232.88
443.43	1259.50
443.64	1329.13
443.84	1292.27
444.05	1296.36
444.25	1230.83
444.46	1259.50
444.66	1251.31
444.87	1279.98
445.07	1263.60
445.28	1239.02
445.48	1232.88
445.69	1249.26
445.89	1363.95
446.09	1292.27
446.30	1288.17
446.50	1288.17
446.71	1269.74
446.91	1247.21
447.12	1298.41
447.32	1269.74
447.53	1316.84
447.73	1232.88
447.93	1300.46
448.14	1273.84
448.34	1232.88
448.55	1187.82
448.75	1341.42
448.96	1290.22
449.16	1214.45
449.36	1302.51
449.57	1279.98
449.77	1316.84
449.98	1257.45
450.18	1255.40
450.39	1241.07
450.59	1253.36
450.79	1265.64
451.00	1325.04
451.20	1245.16
451.41	1282.03
451.61	1214.45
451.81	1224.69
452.02	1204.21
452.22	1241.07
452.43	1339.37
452.63	1298.41
452.84	1234.93
453.04	1325.04
453.24	1306.60
453.45	1333.23
453.65	1300.46
453.86	1312.75
454.06	1259.50
454.26	1236.97
454.47	1267.69
454.67	1290.22
454.87	1288.17
455.08	1251.31
455.28	1349.61
455.49	1349.61
455.69	1298.41
455.89	1243.12
456.10	1310.70
456.30	1376.24
456.51	1230.83
456.71	1288.17
456.91	1329.13
457.12	1267.69
457.32	1247.21
457.52	1298.41
457.73	1241.07
457.93	1320.94
458.14	1318.89
458.34	1226.73
458.54	1234.93
458.75	1245.16
458.95	1327.08
459.15	1419.24
459.36	1236.97
459.56	1304.56
459.76	1310.70
459.97	1257.45
460.17	1218.54
460.37	1322.99
460.58	1261.55
460.78	1286.12
460.99	1247.21
461.19	1359.85
461.39	1247.21
461.60	1314.80
461.80	1275.88
462.00	1261.55
462.21	1247.21
462.41	1359.85
462.61	1271.79
462.82	1288.17
463.02	1247.21
463.22	1273.84
463.43	1212.40
463.63	1230.83
463.83	1298.41
464.04	1320.94
464.24	1245.16
464.44	1282.03
464.64	1318.89
464.85	1241.07
465.05	1337.32
465.25	1218.54
465.46	1245.16
465.66	1269.74
465.86	1239.02
466.07	1279.98
466.27	1267.69
466.47	1302.51
466.68	1269.74
466.88	1290.22
467.08	1335.28
467.29	1370.09
467.49	1253.36
467.69	1298.41
467.89	1306.60
468.10	1284.08
468.30	1279.98
468.50	1308.65
468.71	1208.30
468.91	1329.13
469.11	1241.07
469.31	1277.93
469.52	1253.36
469.72	1282.03
469.92	1310.70
470.13	1314.80
470.33	1308.65
470.53	1318.89
470.73	1216.49
470.94	1220.59
471.14	1269.74
471.34	1198.06
471.54	1189.87
471.75	1234.93
471.95	1236.97
472.15	1261.55
472.36	1245.16
472.56	1284.08
472.76	1269.74
472.96	1193.97
473.17	1327.08
473.37	1273.84
473.57	1257.45
473.77	1310.70
473.98	1286.12
474.18	1406.95
474.38	1304.56
474.58	1282.03
474.79	1300.46
474.99	1298.41
475.19	1265.64
475.39	1298.41
475.60	1277.93
475.80	1222.64
476.00	1292.27
476.20	1322.99
476.41	1296.36
476.61	1351.66
476.81	1294.32
477.01	1263.60
477.21	1310.70
477.42	1273.84
477.62	1322.99
477.82	1271.79
478.02	1320.94
478.23	1234.93
478.43	1296.36
478.63	1236.97
478.83	1329.13
479.03	1247.21
479.24	1329.13
479.44	1271.79
479.64	1277.93
479.84	1247.21
480.04	1316.84
480.25	1279.98
480.45	1236.97
480.65	1290.22
480.85	1222.64
481.06	1255.40
481.26	1298.41
481.46	1314.80
481.66	1253.36
481.86	1251.31
482.06	1300.46
482.27	1361.90
482.47	1251.31
482.67	1247.21
482.87	1247.21
483.07	1251.31
483.28	1279.98
483.48	1290.22
483.68	1310.70
483.88	1347.56
484.08	1335.28
484.29	1306.60
484.49	1421.29
484.69	1269.74
484.89	1239.02
485.09	1302.51
485.29	1273.84
485.50	1318.89
485.70	1214.45
485.90	1279.98
486.10	1300.46
486.30	1255.40
486.50	1277.93
486.71	1322.99
486.91	1183.73
487.11	1349.61
487.31	1216.49
487.51	1366.00
487.71	1273.84
487.91	1306.60
488.12	1228.78
488.32	1255.40
488.52	1288.17
488.72	1314.80
488.92	1251.31
489.12	1226.73
489.32	1253.36
489.53	1314.80
489.73	1253.36
489.93	1259.50
490.13	1261.55
490.33	1234.93
490.53	1239.02
490.73	1220.59
490.94	1218.54
491.14	1239.02
491.34	1275.88
491.54	1277.93
491.74	1267.69
491.94	1236.97
492.14	1296.36
492.34	1359.85
492.54	1275.88
492.75	1273.84
492.95	1331.18
493.15	1187.82
493.35	1298.41
493.55	1232.88
493.75	1234.93
493.95	1267.69
494.15	1329.13
494.35	1306.60
494.56	1329.13
494.76	1255.40
494.96	1290.22
495.16	1292.27
495.36	1263.60
495.56	1286.12
495.76	1277.93
495.96	1322.99
496.16	1290.22
496.36	1292.27
496.56	1247.21
496.77	1302.51
496.97	1288.17
497.17	1284.08
497.37	1333.23
497.57	1271.79
497.77	1331.18
497.97	1273.84
498.17	1333.23
498.37	1294.32
498.57	1314.80
498.77	1269.74
498.97	1224.69
499.17	1322.99
499.38	1296.36
499.58	1349.61
499.78	1245.16
499.98	1247.21
500.18	1310.70
500.38	1234.93
500.58	1298.41
500.78	1257.45
500.98	1308.65
501.18	1290.22
501.38	1302.51
501.58	1216.49
501.78	1191.92
501.98	1339.37
502.18	1316.84
502.38	1298.41
502.58	1302.51
502.78	1255.40
502.98	1259.50
503.18	1316.84
503.38	1257.45
503.59	1243.12
503.79	1269.74
503.99	1341.42
504.19	1226.73
504.39	1318.89
504.59	1282.03
504.79	1255.40
504.99	1230.83
505.19	1318.89
505.39	1316.84
505.59	1271.79
505.79	1191.92
505.99	1320.94
506.19	1220.59
506.39	1327.08
506.59	1251.31
506.79	1343.47
506.99	1282.03
507.19	1331.18
507.39	1312.75
507.59	1265.64
507.79	1288.17
507.99	1236.97
508.19	1310.70
508.39	1279.98
508.59	1224.69
508.79	1279.98
508.99	1247.21
509.19	1304.56
509.39	1345.52
509.59	1245.16
509.79	1339.37
509.99	1265.64
510.19	1202.16
510.39	1228.78
510.59	1298.41
510.79	1277.93
510.99	1247.21
511.19	1251.31
511.39	1230.83
511.59	1267.69
511.79	1220.59
511.99	1294.32
512.19	1294.32
512.38	1257.45
512.58	1273.84
512.78	1308.65
512.98	1335.28
513.18	1298.41
513.38	1261.55
513.58	1288.17
513.78	1261.55
513.98	1296.36
514.18	1304.56
514.38	1263.60
514.58	1279.98
514.78	1245.16
514.98	1279.98
515.18	1282.03
515.38	1214.45
515.58	1273.84
515.78	1298.41
515.98	1329.13
516.18	1296.36
516.38	1269.74
516.57	1265.64
516.77	1279.98
516.97	1312.75
517.17	1306.60
517.37	1239.02
517.57	1290.22
517.77	1261.55
517.97	1341.42
518.17	1310.70
518.37	1179.63
518.57	1269.74
518.77	1277.93
518.97	1327.08
519.16	1273.84
519.36	1306.60
519.56	1247.21
519.76	1271.79
519.96	1224.69
520.16	1339.37
520.36	1271.79
520.56	1288.17
520.76	1269.74
520.96	1269.74
521.16	1275.88
521.35	1214.45
521.55	1286.12
521.75	1204.21
521.95	1261.55
522.15	1253.36
522.35	1212.40
522.55	1249.26
522.75	1245.16
522.95	1316.84
523.14	1316.84
523.34	1298.41
523.54	1304.56
523.74	1253.36
523.94	1327.08
524.14	1255.40
524.34	1239.02
524.54	1222.64
524.73	1263.60
524.93	1228.78
525.13	1435.63
525.33	1298.41
525.53	1271.79
525.73	1284.08
525.93	1298.41
526.13	1257.45
526.32	1249.26
526.52	1271.79
526.72	1308.65
526.92	1255.40
527.12	1306.60
527.32	1251.31
527.52	1273.84
527.71	1263.60
527.91	1353.71
528.11	1228.78
528.31	1191.92
528.51	1294.32
528.71	1349.61
528.90	1322.99
529.10	1261.55
529.30	1322.99
529.50	1198.06
529.70	1273.84
529.90	1282.03
530.09	1236.97
530.29	1282.03
530.49	1261.55
530.69	1296.36
530.89	1187.82
531.09	1224.69
531.28	1198.06
531.48	1275.88
531.68	1239.02
531.88	1275.88
532.08	1288.17
532.28	1271.79
532.47	1189.87
532.67	1314.80
532.87	1275.88
533.07	1327.08
533.27	1335.28
533.46	1288.17
533.66	1282.03
533.86	1253.36
534.06	1300.46
534.26	1284.08
534.45	1255.40
534.65	1292.27
534.85	1298.41
535.05	1337.32
535.25	1275.88
535.44	1232.88
535.64	1282.03
535.84	1247.21
536.04	1306.60
536.24	1228.78
536.43	1345.52
536.63	1310.70
536.83	1318.89
537.03	1302.51
537.22	1249.26
537.42	1294.32
537.62	1253.36
537.82	1253.36
538.02	1263.60
538.21	1363.95
538.41	1331.18
538.61	1325.04
538.81	1236.97
539.00	1273.84
539.20	1220.59
539.40	1249.26
539.60	1253.36
539.79	1271.79
539.99	1247.21
540.19	1179.63
540.39	1288.17
540.58	1286.12
540.78	1308.65
540.98	1282.03
541.18	1261.55
541.37	1259.50
541.57	1288.17
541.77	1298.41
541.97	1275.88
542.16	1263.60
542.36	1300.46
542.56	1222.64
542.76	1277.93
542.95	1304.56
543.15	1259.50
543.35	1325.04
543.54	1296.36
543.74	1331.18
543.94	1316.84
544.14	1247.21
544.33	1247.21
544.53	1370.09
544.73	1337.32
544.93	1296.36
545.12	1253.36
545.32	1304.56
545.52	1265.64
545.71	1292.27
545.91	1314.80
546.11	1294.32
546.30	1245.16
546.50	1224.69
546.70	1257.45
546.90	1247.21
547.09	1224.69
547.29	1277.93
547.49	1312.75
547.68	1243.12
547.88	1247.21
548.08	1312.75
548.27	1335.28
548.47	1345.52
548.67	1220.59
548.87	1333.23
549.06	1316.84
549.26	1296.36
549.46	1288.17
549.65	1331.18
549.85	1230.83
550.05	1265.64
550.24	1249.26
550.44	1290.22
550.64	1300.46
550.83	1308.65
551.03	1294.32
551.23	1345.52
551.42	1224.69
551.62	1232.88
551.82	1288.17
552.01	1306.60
552.21	1267.69
552.41	1292.27
552.60	1298.41
552.80	1306.60
553.00	1245.16
553.19	1257.45
553.39	1226.73
553.59	1331.18
553.78	1359.85
553.98	1282.03
554.17	1372.14
554.37	1357.80
554.57	1267.69
554.76	1294.32
554.96	1282.03
555.16	1327.08
555.35	1302.51
555.55	1247.21
555.75	1335.28
555.94	1224.69
556.14	1261.55
556.33	1312.75
556.53	1265.64
556.73	1320.94
556.92	1277.93
557.12	1304.56
557.32	1339.37
557.51	1298.41
557.71	1298.41
557.90	1337.32
558.10	1292.27
558.30	1277.93
558.49	1292.27
558.69	1316.84
558.88	1329.13
559.08	1198.06
559.28	1312.75
559.47	1310.70
559.67	1193.97
559.86	1257.45
560.06	1249.26
560.26	1322.99
560.45	1251.31
560.65	1286.12
560.84	1282.03
561.04	1292.27
561.24	1230.83
561.43	1298.41
561.63	1320.94
561.82	1320.94
562.02	1181.68
562.22	1316.84
562.41	1249.26
562.61	1269.74
562.80	1216.49
563.00	1312.75
563.19	1314.80
563.39	1288.17
563.59	1351.66
563.78	1261.55
563.98	1282.03
564.17	1314.80
564.37	1337.32
564.56	1263.60
564.76	1312.75
564.96	1257.45
565.15	1249.26
565.35	1320.94
565.54	1320.94
565.74	1255.40
565.93	1232.88
566.13	1263.60
566.32	1341.42
566.52	1314.80
566.71	1251.31
566.91	1312.75
567.11	1282.03
567.30	1279.98
567.50	1329.13
567.69	1300.46
567.89	1257.45
568.08	1200.11
568.28	1286.12
568.47	1290.22
568.67	1327.08
568.86	1341.42
569.06	1286.12
569.25	1277.93
569.45	1339.37
569.64	1257.45
569.84	1308.65
570.04	1329.13
570.23	1265.64
570.43	1282.03
570.62	1335.28
570.82	1339.37
571.01	1249.26
571.21	1288.17
571.40	1308.65
571.60	1329.13
571.79	1277.93
571.99	1290.22
572.18	1265.64
572.38	1288.17
572.57	1255.40
572.77	1302.51
572.96	1304.56
573.16	1296.36
573.35	1269.74
573.55	1263.60
573.74	1261.55
573.94	1288.17
574.13	1351.66
574.33	1245.16
574.52	1245.16
574.71	1243.12
574.91	1222.64
575.10	1263.60
575.30	1290.22
575.49	1253.36
575.69	1314.80
575.88	1236.97
576.08	1275.88
576.27	1318.89
576.47	1325.04
576.66	1200.11
576.86	1310.70
577.05	1300.46
577.25	1380.33
577.44	1322.99
577.64	1277.93
577.83	1355.76
578.02	1302.51
578.22	1329.13
578.41	1251.31
578.61	1329.13
578.80	1265.64
579.00	1302.51
579.19	1298.41
579.39	1343.47
579.58	1208.30
579.77	1322.99
579.97	1269.74
580.16	1320.94
580.36	1327.08
580.55	1296.36
580.75	1234.93
580.94	1296.36
581.13	1355.76
581.33	1351.66
581.52	1302.51
581.72	1257.45
581.91	1306.60
582.11	1304.56
582.30	1261.55
582.49	1279.98
582.69	1331.18
582.88	1331.18
583.08	1296.36
583.27	1325.04
583.47	1234.93
583.66	1282.03
583.85	1265.64
584.05	1288.17
584.24	1333.23
584.44	1265.64
584.63	1239.02
584.82	1232.88
585.02	1300.46
585.21	1300.46
585.41	1202.16
585.60	1302.51
585.79	1263.60
585.99	1253.36
586.18	1347.56
586.37	1314.80
586.57	1204.21
586.76	1300.46
586.96	1304.56
587.15	1282.03
587.34	1304.56
587.54	1216.49
587.73	1249.26
587.93	1257.45
588.12	1279.98
588.31	1361.90
588.51	1273.84
588.70	1253.36
588.89	1261.55
589.09	1318.89
589.28	1329.13
589.47	1241.07
589.67	1314.80
589.86	1310.70
590.06	1318.89
590.25	1302.51
590.44	1253.36
590.64	1322.99
590.83	1312.75
591.02	1329.13
591.22	1249.26
591.41	1370.09
591.60	1236.97
591.80	1277.93
591.99	1239.02
592.18	1208.30
592.38	1284.08
592.57	1284.08
592.76	1267.69
592.96	1269.74
593.15	1249.26
593.34	1226.73
593.54	1269.74
593.73	1325.04
593.92	1259.50
594.12	1306.60
594.31	1318.89
594.50	1284.08
594.70	1265.64
594.89	1255.40
595.08	1294.32
595.28	1249.26
595.47	1300.46
595.66	1269.74
595.86	1290.22
596.05	1318.89
596.24	1325.04
596.43	1361.90
596.63	1298.41
596.82	1251.31
597.01	1273.84
597.21	1286.12
597.40	1349.61
597.59	1243.12
597.79	1228.78
597.98	1253.36
598.17	1208.30
598.36	1218.54
598.56	1257.45
598.75	1263.60
598.94	1210.35
599.14	1263.60
599.33	1284.08
599.52	1279.98
599.71	1302.51
599.91	1296.36
600.10	1269.74
600.29	1318.89
600.48	1298.41
600.68	1292.27
600.87	1298.41
601.06	1255.40
601.26	1243.12
601.45	1294.32
601.64	1275.88
601.83	1288.17
602.03	1259.50
602.22	1343.47
602.41	1320.94
602.60	1337.32
602.80	1226.73
602.99	1331.18
603.18	1263.60
603.37	1304.56
603.57	1337.32
603.76	1267.69
603.95	1316.84
604.14	1220.59
604.34	1351.66
604.53	1265.64
604.72	1214.45
604.91	1265.64
605.10	1245.16
605.30	1277.93
605.49	1218.54
605.68	1265.64
605.87	1314.80
606.07	1279.98
606.26	1286.12
606.45	1282.03
606.64	1241.07
606.84	1306.60
607.03	1302.51
607.22	1282.03
607.41	1267.69
607.60	1271.79
607.80	1279.98
607.99	1284.08
608.18	1232.88
608.37	1253.36
608.56	1312.75
608.76	1363.95
608.95	1290.22
609.14	1255.40
609.33	1325.04
609.52	1335.28
609.72	1282.03
609.91	1296.36
610.10	1304.56
610.29	1306.60
610.48	1257.45
610.68	1316.84
610.87	1241.07
611.06	1312.75
611.25	1271.79
611.44	1337.32
611.63	1279.98
611.83	1277.93
612.02	1263.60
612.21	1314.80
612.40	1220.59
612.59	1282.03
612.79	1228.78
612.98	1279.98
613.17	1282.03
613.36	1253.36
613.55	1232.88
613.74	1296.36
613.93	1355.76
614.13	1322.99
614.32	1310.70
614.51	1288.17
614.70	1286.12
614.89	1282.03
615.08	1320.94
615.28	1282.03
615.47	1308.65
615.66	1269.74
615.85	1308.65
616.04	1345.52
616.23	1210.35
616.42	1271.79
616.62	1290.22
616.81	1279.98
617.00	1206.25
617.19	1239.02
617.38	1277.93
617.57	1306.60
617.76	1302.51
617.95	1292.27
618.15	1245.16
618.34	1306.60
618.53	1310.70
618.72	1232.88
618.91	1298.41
619.10	1331.18
619.29	1208.30
619.48	1343.47
619.68	1316.84
619.87	1302.51
620.06	1310.70
620.25	1273.84
620.44	1304.56
620.63	1329.13
620.82	1343.47
621.01	1241.07
621.20	1312.75
621.39	1337.32
621.59	1314.80
621.78	1333.23
621.97	1292.27
622.16	1288.17
622.35	1226.73
622.54	1200.11
622.73	1302.51
622.92	1259.50
623.11	1296.36
623.30	1275.88
623.49	1294.32
623.68	1314.80
623.88	1279.98
624.07	1286.12
624.26	1282.03
624.45	1316.84
624.64	1269.74
624.83	1208.30
625.02	1300.46
625.21	1294.32
625.40	1275.88
625.59	1331.18
625.78	1271.79
625.97	1224.69
626.16	1282.03
626.35	1255.40
626.54	1296.36
626.74	1298.41
626.93	1275.88
627.12	1351.66
627.31	1337.32
627.50	1339.37
627.69	1210.35
627.88	1339.37
628.07	1267.69
628.26	1251.31
628.45	1298.41
628.64	1257.45
628.83	1284.08
629.02	1218.54
629.21	1304.56
629.40	1345.52
629.59	1320.94
629.78	1263.60
629.97	1286.12
630.16	1292.27
630.35	1267.69
630.54	1314.80
630.73	1279.98
630.92	1257.45
631.11	1304.56
631.30	1249.26
631.49	1290.22
631.68	1495.02
631.87	1785.83
632.06	2734.04
632.25	2617.30
632.44	3809.22
632.63	5040.05
632.82	8605.56
633.01	19621.59
633.20	23258.78
633.39	24229.52
633.58	19650.26
633.77	12767.04
633.96	6623.13
634.15	3735.50
634.34	2600.92
634.53	2226.14
634.72	2070.50
634.91	1972.19
635.10	2060.26
635.29	1824.74
635.48	1761.25
635.67	1746.92
635.86	1675.24
636.05	1665.00
636.24	1468.39
636.43	1396.71
636.62	1331.18
636.81	1290.22
637.00	1339.37
637.19	1417.19
637.38	1386.47
637.57	1333.23
637.76	1345.52
637.95	1304.56
638.14	1304.56
638.33	1327.08
638.52	1298.41
638.71	1239.02
638.89	1263.60
639.08	1318.89
639.27	1284.08
639.46	1257.45
639.65	1300.46
639.84	1304.56
640.03	1257.45
640.22	1335.28
640.41	1255.40
640.60	1243.12
640.79	1341.42
640.98	1275.88
641.17	1259.50
641.36	1273.84
641.55	1269.74
641.74	1320.94
641.92	1257.45
642.11	1294.32
642.30	1279.98
642.49	1234.93
642.68	1257.45
642.87	1304.56
643.06	1353.71
643.25	1296.36
643.44	1298.41
643.63	1322.99
643.82	1300.46
644.00	1296.36
644.19	1269.74
644.38	1249.26
644.57	1247.21
644.76	1259.50
644.95	1247.21
645.14	1298.41
645.33	1325.04
645.52	1312.75
645.71	1263.60
645.89	1294.32
646.08	1277.93
646.27	1257.45
646.46	1308.65
646.65	1339.37
646.84	1302.51
647.03	1277.93
647.22	1298.41
647.40	1335.28
647.59	1249.26
647.78	1325.04
647.97	1261.55
648.16	1296.36
648.35	1261.55
648.54	1351.66
648.73	1269.74
648.91	1310.70
649.10	1196.01
649.29	1298.41
649.48	1294.32
649.67	1253.36
649.86	1349.61
650.05	1292.27
650.23	1245.16
650.42	1267.69
650.61	1265.64
650.80	1191.92
650.99	1310.70
651.18	1318.89
651.36	1312.75
651.55	1216.49
651.74	1302.51
651.93	1288.17
652.12	1298.41
652.31	1198.06
652.49	1220.59
652.68	1257.45
652.87	1304.56
653.06	1282.03
653.25	1325.04
653.44	1255.40
653.62	1298.41
653.81	1355.76
654.00	1214.45
654.19	1236.97
654.38	1224.69
654.56	1269.74
654.75	1279.98
654.94	1376.24
655.13	1314.80
655.32	1304.56
655.51	1228.78
655.69	1265.64
655.88	1251.31
656.07	1343.47
656.26	1282.03
656.45	1298.41
656.63	1347.56
656.82	1243.12
657.01	1261.55
657.20	1247.21
657.38	1353.71
657.57	1243.12
657.76	1263.60
657.95	1236.97
658.14	1302.51
658.32	1279.98
658.51	1257.45
658.70	1329.13
658.89	1275.88
659.08	1333.23
659.26	1288.17
659.45	1232.88
659.64	1345.52
659.83	1236.97
660.01	1196.01
660.20	1239.02
660.39	1241.07
660.58	1320.94
660.76	1306.60
660.95	1183.73
661.14	1206.25
661.33	1198.06
661.51	1296.36
661.70	1286.12
661.89	1267.69
662.08	1329.13
662.26	1357.80
662.45	1236.97
662.64	1275.88
662.83	1232.88
663.01	1277.93
663.20	1288.17
663.39	1308.65
663.58	1220.59
663.76	1243.12
663.95	1236.97
664.14	1290.22
664.32	1245.16
664.51	1236.97
664.70	1335.28
664.89	1298.41
665.07	1257.45
665.26	1325.04
665.45	1245.16
665.64	1269.74
665.82	1271.79
666.01	1284.08
666.20	1329.13
666.38	1271.79
666.57	1232.88
666.76	1296.36
666.95	1300.46
667.13	1304.56
667.32	1282.03
667.51	1226.73
667.69	1343.47
667.88	1322.99
668.07	1275.88
668.25	1314.80
668.44	1333.23
668.63	1302.51
668.81	1253.36
669.00	1298.41
669.19	1282.03
669.38	1247.21
669.56	1296.36
669.75	1279.98
669.94	1320.94
670.12	1290.22
670.31	1282.03
670.50	1300.46
670.68	1308.65
670.87	1308.65
671.06	1298.41
671.24	1265.64
671.43	1234.93
671.62	1306.60
671.80	1269.74
671.99	1241.07
672.18	1302.51
672.36	1255.40
672.55	1220.59
672.74	1308.65
672.92	1236.97
673.11	1245.16
673.29	1206.25
673.48	1290.22
673.67	1230.83
673.85	1314.80
674.04	1302.51
674.23	1255.40
674.41	1277.93
674.60	1279.98
674.79	1253.36
674.97	1224.69
675.16	1247.21
675.34	1193.97
675.53	1316.84
675.72	1245.16
675.90	1218.54
676.09	1277.93
676.28	1193.97
676.46	1363.95
676.65	1234.93
676.83	1310.70
677.02	1226.73
677.21	1316.84
677.39	1155.05
677.58	1290.22
677.77	1212.40
677.95	1265.64
678.14	1243.12
678.32	1347.56
678.51	1331.18
678.70	1255.40
678.88	1220.59
679.07	1284.08
679.25	1288.17
679.44	1255.40
679.63	1349.61
679.81	1251.31
680.00	1269.74
680.18	1298.41
680.37	1331.18
680.55	1241.07
680.74	1343.47
680.93	1198.06
681.11	1220.59
681.30	1257.45
681.48	1271.79
681.67	1298.41
681.85	1329.13
682.04	1288.17
682.23	1263.60
682.41	1257.45
682.60	1191.92
682.78	1265.64
682.97	1267.69
683.15	1275.88
683.34	1165.29
683.53	1314.80
683.71	1185.77
683.90	1290.22
684.08	1253.36
684.27	1206.25
684.45	1216.49
684.64	1267.69
684.82	1322.99
685.01	1261.55
685.19	1224.69
685.38	1253.36
685.57	1255.40
685.75	1341.42
685.94	1271.79
686.12	1257.45
686.31	1322.99
686.49	1282.03
686.68	1318.89
686.86	1314.80
687.05	1224.69
687.23	1271.79
687.42	1224.69
687.60	1263.60
687.79	1245.16
687.97	1298.41
688.16	1277.93
688.34	1320.94
688.53	1169.39
688.71	1279.98
688.90	1234.93
689.08	1247.21
689.27	1150.96
689.45	1230.83
689.64	1308.65
689.82	1214.45
690.01	1302.51
690.19	1366.00
690.38	1282.03
690.56	1316.84
690.75	1288.17
690.93	1224.69
691.12	1247.21
691.30	1210.35
691.49	1236.97
691.67	1310.70
691.86	1298.41
692.04	1251.31
692.23	1308.65
692.41	1234.93
692.60	1202.16
692.78	1290.22
692.97	1351.66
693.15	1288.17
693.34	1273.84
693.52	1318.89
693.71	1257.45
693.89	1298.41
694.08	1296.36
694.26	1275.88
694.44	1271.79
694.63	1265.64
694.81	1275.88
695.00	1282.03
695.18	1265.64
695.37	1327.08
695.55	1347.56
695.74	1239.02
695.92	1273.84
696.10	1251.31
696.29	1265.64
696.47	1230.83
696.66	1288.17
696.84	1267.69
697.03	1271.79
697.21	1269.74
697.40	1296.36
697.58	1245.16
697.76	1275.88
697.95	1261.55
698.13	1239.02
698.32	1265.64
698.50	1216.49
698.68	1247.21
698.87	1341.42
699.05	1286.12
699.24	1249.26
699.42	1191.92
699.61	1232.88
699.79	1230.83
699.97	1216.49
700.16	1304.56
700.34	1298.41
700.53	1241.07
700.71	1263.60
700.89	1322.99
701.08	1296.36
701.26	1271.79
701.45	1255.40
701.63	1402.86
701.81	1339.37
702.00	1312.75
702.18	1288.17
702.37	1257.45
702.55	1308.65
702.73	1294.32
702.92	1212.40
703.10	1259.50
703.28	1261.55
703.47	1288.17
703.65	1208.30
703.84	1296.36
704.02	1200.11
704.20	1304.56
704.39	1306.60
704.57	1273.84
704.75	1296.36
704.94	1247.21
705.12	1282.03
705.30	1302.51
705.49	1191.92
705.67	1298.41
705.86	1345.52
706.04	1263.60
706.22	1245.16
706.41	1306.60
706.59	1298.41
706.77	1290.22
706.96	1273.84
707.14	1212.40
707.32	1257.45
707.51	1273.84
707.69	1224.69
707.87	1259.50
708.06	1259.50
708.24	1232.88
708.42	1277.93
708.61	1316.84
708.79	1222.64
708.97	1251.31
709.16	1275.88
709.34	1232.88
709.52	1273.84
709.71	1294.32
709.89	1245.16
710.07	1327.08
710.26	1251.31
710.44	1292.27
710.62	1263.60
710.80	1204.21
710.99	1320.94
711.17	1339.37
711.35	1366.00
711.54	1236.97
711.72	1306.60
711.90	1337.32
712.09	1277.93
712.27	1251.31
712.45	1189.87
712.63	1277.93
712.82	1273.84
713.00	1335.28
713.18	1236.97
713.37	1212.40
713.55	1339.37
713.73	1185.77
713.91	1312.75
714.10	1282.03
714.28	1320.94
714.46	1275.88
714.65	1259.50
714.83	1255.40
715.01	1296.36
715.19	1257.45
715.38	1343.47
715.56	1318.89
715.74	1290.22
715.92	1232.88
716.11	1306.60
716.29	1363.95
716.47	1277.93
716.65	1224.69
716.84	1218.54
717.02	1300.46
717.20	1261.55
717.38	1226.73
717.57	1302.51
717.75	1228.78
717.93	1275.88
718.11	1196.01
718.30	1261.55
718.48	1222.64
718.66	1282.03
718.84	1259.50
719.03	1273.84
719.21	1290.22
719.39	1279.98
719.57	1288.17
719.75	1249.26
719.94	1241.07
720.12	1312.75
720.30	1241.07
720.48	1222.64
720.67	1249.26
720.85	1251.31
721.03	1290.22
721.21	1314.80
721.39	1277.93
721.58	1294.32
721.76	1286.12
721.94	1263.60
722.12	1267.69
722.30	1251.31
722.49	1210.35
722.67	1306.60
722.85	1265.64
723.03	1265.64
723.21	1279.98
723.40	1361.90
723.58	1292.27
723.76	1288.17
723.94	1345.52
724.12	1255.40
724.30	1255.40
724.49	1267.69
724.67	1251.31
724.85	1267.69
725.03	1208.30
725.21	1187.82
725.40	1265.64
725.58	1300.46
725.76	1269.74
725.94	1279.98
726.12	1218.54
726.30	1224.69
726.49	1298.41
726.67	1300.46
726.85	1255.40
727.03	1331.18
727.21	1304.56
727.39	1322.99
727.57	1243.12
727.76	1255.40
727.94	1271.79
728.12	1236.97
728.30	1290.22
728.48	1230.83
728.66	1320.94
728.84	1241.07
729.03	1318.89
729.21	1251.31
729.39	1320.94
729.57	1290.22
729.75	1200.11
729.93	1277.93
730.11	1265.64
730.30	1241.07
730.48	1271.79
730.66	1222.64
730.84	1249.26
731.02	1232.88
731.20	1249.26
731.38	1290.22
731.56	1314.80
731.74	1306.60
731.93	1298.41
732.11	1259.50
732.29	1220.59
732.47	1245.16
732.65	1251.31
732.83	1304.56
733.01	1288.17
733.19	1220.59
733.37	1206.25
733.56	1310.70
733.74	1325.04
733.92	1212.40
734.10	1261.55
734.28	1222.64
734.46	1267.69
734.64	1302.51
734.82	1159.15
735.00	1257.45
735.18	1257.45
735.36	1302.51
735.54	1329.13
735.73	1243.12
735.91	1304.56
736.09	1163.25
736.27	1259.50
736.45	1277.93
736.63	1316.84
736.81	1198.06
736.99	1200.11
737.17	1288.17
737.35	1279.98
737.53	1267.69
737.71	1253.36
737.89	1220.59
738.07	1247.21
738.25	1226.73
738.43	1239.02
738.61	1204.21
738.80	1251.31
738.98	1284.08
739.16	1228.78
739.34	1263.60
739.52	1296.36
739.70	1253.36
739.88	1259.50
740.06	1253.36
740.24	1269.74
740.42	1275.88
740.60	1284.08
740.78	1247.21
740.96	1284.08
741.14	1257.45
741.32	1337.32
741.50	1265.64
741.68	1257.45
741.86	1327.08
742.04	1318.89
742.22	1220.59
742.40	1310.70
742.58	1243.12
742.76	1273.84
742.94	1230.83
743.12	1243.12
743.30	1282.03
743.48	1208.30
743.66	1236.97
743.84	1294.32
744.02	1271.79
744.20	1314.80
744.38	1257.45
744.56	1234.93
744.74	1306.60
744.92	1263.60
745.10	1224.69
745.28	1394.67
745.46	1343.47
745.64	1236.97
745.82	1232.88
746.00	1261.55
746.18	1234.93
746.36	1304.56
746.54	1236.97
746.72	1157.10
746.90	1198.06
747.08	1322.99
747.26	1312.75
747.44	1263.60
747.62	1316.84
747.80	1239.02
747.98	1320.94
748.15	1286.12
748.33	1329.13
748.51	1294.32
748.69	1253.36
748.87	1322.99
749.05	1259.50
749.23	1234.93
749.41	1189.87
749.59	1275.88
749.77	1224.69
749.95	1277.93
750.13	1204.21
750.31	1402.86
750.49	1304.56
750.67	1236.97
750.85	1234.93
751.03	1288.17
751.20	1282.03
751.38	1216.49
751.56	1228.78
751.74	1267.69
751.92	1322.99
752.10	1263.60
752.28	1302.51
752.46	1251.31
752.64	1224.69
752.82	1304.56
753.00	1251.31
753.18	1234.93
753.35	1239.02
753.53	1320.94
753.71	1300.46
753.89	1271.79
754.07	1279.98
754.25	1255.40
754.43	1247.21
754.61	1325.04
754.79	1277.93
754.97	1310.70
755.14	1269.74
755.32	1304.56
755.50	1214.45
755.68	1241.07
755.86	1282.03
756.04	1265.64
756.22	1273.84
756.40	1210.35
756.57	1322.99
756.75	1234.93
756.93	1325.04
757.11	1271.79
757.29	1310.70
757.47	1298.41
757.65	1318.89
757.82	1304.56
758.00	1349.61
758.18	1316.84
758.36	1239.02
758.54	1333.23
758.72	1314.80
758.90	1312.75
759.07	1265.64
759.25	1271.79
759.43	1284.08
759.61	1212.40
759.79	1312.75
759.97	1175.53
760.15	1277.93
760.32	1343.47
760.50	1222.64
760.68	1267.69
760.86	1302.51
761.04	1310.70
761.22	1255.40
761.39	1245.16
761.57	1292.27
761.75	1329.13
761.93	1257.45
762.11	1251.31
762.28	1320.94
762.46	1314.80
762.64	1261.55
762.82	1271.79
763.00	1312.75
763.18	1259.50
763.35	1222.64
763.53	1308.65
763.71	1335.28
763.89	1298.41
764.07	1226.73
764.24	1257.45
764.42	1302.51
764.60	1288.17
764.78	1232.88
764.96	1282.03
765.13	1310.70
765.31	1277.93
765.49	1234.93
765.67	1302.51
765.84	1239.02
766.02	1284.08
766.20	1265.64
766.38	1267.69
766.56	1241.07
766.73	1292.27
766.91	1245.16
767.09	1212.40
767.27	1222.64
767.44	1253.36
767.62	1257.45
767.80	1277.93
767.98	1243.12
768.15	1279.98
768.33	1269.74
768.51	1279.98
768.69	1302.51
768.87	1241.07
769.04	1249.26
769.22	1267.69
769.40	1296.36
769.58	1282.03
769.75	1267.69
769.93	1306.60
770.11	1261.55
770.28	1245.16
770.46	1226.73
770.64	1316.84
770.82	1269.74
770.99	1259.50
771.17	1261.55
771.35	1247.21
771.53	1239.02
771.70	1298.41
771.88	1290.22
772.06	1226.73
772.23	1232.88
772.41	1298.41
772.59	1288.17
772.77	1273.84
772.94	1327.08
773.12	1263.60
773.30	1185.77
773.47	1322.99
773.65	1273.84
773.83	1294.32
774.01	1277.93
774.18	1279.98
774.36	1288.17
774.54	1312.75
774.71	1261.55
774.89	1335.28
775.07	1282.03
775.24	1341.42
775.42	1302.51
775.60	1302.51
775.78	1269.74
775.95	1216.49
776.13	1236.97
776.31	1150.96
776.48	1275.88
776.66	1337.32
776.84	1292.27
777.01	1259.50
777.19	1337.32
777.37	1282.03
777.54	1292.27
777.72	1259.50
777.90	1216.49
778.07	1236.97
778.25	1296.36
778.43	1282.03
778.60	1230.83
778.78	1314.80
778.96	1343.47
779.13	1275.88
779.31	1333.23
779.49	1284.08
779.66	1241.07
779.84	1216.49
780.01	1290.22
780.19	1310.70
780.37	1234.93
780.54	1236.97
780.72	1253.36
780.90	1279.98
781.07	1210.35
781.25	1296.36
781.43	1302.51
781.60	1290.22
781.78	1239.02
781.95	1329.13
782.13	1212.40
782.31	1245.16
782.48	1249.26
782.66	1232.88
782.83	1265.64
783.01	1279.98
783.19	1251.31
783.36	1257.45
783.54	1273.84
783.72	1304.56
783.89	1271.79
784.07	1335.28
784.24	1216.49
784.42	1282.03
784.60	1175.53
784.77	1271.79
784.95	1196.01
785.12	1306.60
785.30	1259.50
785.47	1312.75
785.65	1316.84
785.83	1271.79
786.00	1224.69
786.18	1306.60
786.35	1232.88
786.53	1259.50
786.71	1245.16
786.88	1241.07
787.06	1239.02
787.23	1263.60
787.41	1306.60
787.58	1241.07
787.76	1251.31
787.94	1251.31
788.11	1284.08
788.29	1187.82
788.46	1259.50
788.64	1277.93
788.81	1261.55
788.99	1236.97
789.16	1265.64
789.34	1269.74
789.52	1191.92
789.69	1214.45
789.87	1286.12
790.04	1247.21
790.22	1376.24
790.39	1275.88
790.57	1286.12
790.74	1253.36
790.92	1302.51
791.09	1232.88
791.27	1187.82
791.44	1288.17
791.62	1310.70
791.79	1224.69
791.97	1290.22
792.15	1302.51
792.32	1257.45
792.50	1253.36
792.67	1224.69
792.85	1230.83
793.02	1232.88
793.20	1294.32
793.37	1218.54
793.55	1265.64
793.72	1273.84
793.90	1230.83
794.07	1257.45
794.25	1277.93
794.42	1288.17
794.60	1267.69
794.77	1261.55
794.95	1322.99
795.12	1359.85
795.30	1310.70
795.47	1218.54
795.65	1265.64
795.82	1271.79
796.00	1232.88
796.17	1255.40
796.34	1232.88
796.52	1193.97
796.69	1232.88
796.87	1175.53
797.04	1314.80
797.22	1271.79
797.39	1282.03
797.57	1224.69
797.74	1249.26
797.92	1275.88
798.09	1282.03
798.27	1322.99
798.44	1146.86
798.62	1273.84
798.79	1212.40
798.96	1284.08
799.14	1249.26
799.31	1224.69
799.49	1310.70
799.66	1294.32
799.84	1312.75
800.01	1265.64
800.19	1234.93
800.36	1232.88
800.53	1249.26
800.71	1284.08
800.88	1226.73
801.06	1230.83
801.23	1290.22
801.41	1232.88
801.58	1243.12
801.75	1271.79
801.93	1282.03
802.10	1249.26
802.28	1341.42
802.45	1279.98
802.63	1366.00
802.80	1273.84
802.97	1269.74
803.15	1298.41
803.32	1300.46
803.50	1273.84
803.67	1261.55
803.84	1218.54
804.02	1271.79
804.19	1208.30
804.37	1271.79
804.54	1216.49
804.71	1314.80
804.89	1265.64
805.06	1265.64
805.24	1249.26
805.41	1239.02
805.58	1310.70
805.76	1277.93
805.93	1353.71
806.10	1282.03
806.28	1267.69
806.45	1216.49
806.63	1341.42
806.80	1247.21
806.97	1277.93
807.15	1255.40
807.32	1243.12
807.49	1243.12
807.67	1230.83
807.84	1347.56
808.01	1236.97
808.19	1308.65
808.36	1265.64
808.54	1288.17
808.71	1263.60
808.88	1236.97
809.06	1257.45
809.23	1275.88
809.40	1290.22
809.58	1257.45
809.75	1257.45
809.92	1220.59
810.10	1216.49
810.27	1226.73
810.44	1298.41
810.62	1265.64
810.79	1234.93
810.96	1339.37
811.14	1265.64
811.31	1232.88
811.48	1218.54
811.66	1292.27
811.83	1263.60
812.00	1277.93
812.18	1316.84
812.35	1296.36
812.52	1179.63
812.69	1245.16
812.87	1312.75
813.04	1236.97
813.21	1331.18
813.39	1247.21
813.56	1279.98
813.73	1310.70
813.91	1206.25
814.08	1257.45
814.25	1249.26
814.42	1282.03
814.60	1312.75
814.77	1247.21
814.94	1271.79
815.12	1310.70
815.29	1316.84
815.46	1234.93
815.63	1263.60
815.81	1304.56
815.98	1267.69
816.15	1239.02
816.33	1282.03
816.50	1302.51
816.67	1269.74
816.84	1224.69
817.02	1253.36
817.19	1279.98
817.36	1308.65
817.53	1275.88
817.71	1232.88
817.88	1327.08
818.05	1239.02
818.22	1239.02
818.40	1247.21
818.57	1249.26
818.74	1296.36
818.91	1230.83
819.09	1247.21
819.26	1167.34
819.43	1243.12
819.60	1218.54
819.78	1204.21
819.95	1239.02
820.12	1284.08
820.29	1251.31
820.47	1318.89
820.64	1335.28
820.81	1249.26
820.98	1331.18
821.15	1251.31
821.33	1288.17
821.50	1259.50
821.67	1196.01
821.84	1212.40
822.02	1236.97
822.19	1275.88
822.36	1236.97
822.53	1286.12
822.70	1298.41
822.88	1187.82
823.05	1239.02
823.22	1298.41
823.39	1341.42
823.56	1265.64
823.74	1218.54
823.91	1298.41
824.08	1200.11
824.25	1318.89
824.42	1335.28
824.60	1318.89
824.77	1257.45
824.94	1288.17
825.11	1243.12
825.28	1267.69
825.45	1361.90
825.63	1255.40
825.80	1150.96
825.97	1279.98
826.14	1191.92
826.31	1267.69
826.48	1296.36
826.66	1273.84
826.83	1263.60
827.00	1318.89
827.17	1282.03
827.34	1263.60
827.51	1241.07
827.69	1275.88
827.86	1345.52
828.03	1212.40
828.20	1247.21
828.37	1216.49
828.54	1245.16
828.71	1300.46
828.89	1230.83
829.06	1263.60
829.23	1257.45
829.40	1189.87
829.57	1230.83
829.74	1265.64
829.91	1251.31
830.09	1234.93
830.26	1255.40
830.43	1273.84
830.60	1214.45
830.77	1259.50
830.94	1331.18
831.11	1236.97
831.28	1333.23
831.46	1259.50
831.63	1243.12
831.80	1368.04
831.97	1331.18
832.14	1247.21
832.31	1247.21
832.48	1224.69
832.65	1196.01
832.82	1148.91
832.99	1282.03
833.17	1226.73
833.34	1232.88
833.51	1261.55
833.68	1294.32
833.85	1302.51
834.02	1222.64
834.19	1294.32
834.36	1259.50
834.53	1230.83
834.70	1267.69
834.87	1322.99
835.04	1245.16
835.22	1273.84
835.39	1312.75
835.56	1177.58
835.73	1318.89
835.90	1345.52
836.07	1296.36
836.24	1294.32
836.41	1196.01
836.58	1302.51
836.75	1345.52
836.92	1343.47
837.09	1310.70
837.26	1277.93
837.43	1314.80
837.60	1253.36
837.77	1284.08
837.94	1286.12
838.12	1306.60
838.29	1204.21
838.46	1210.35
838.63	1298.41
838.80	1257.45
838.97	1298.41
839.14	1175.53
839.31	1196.01
839.48	1271.79
839.65	1267.69
839.82	1327.08
839.99	1359.85
840.16	1241.07
840.33	1247.21
840.50	1294.32
840.67	1306.60
840.84	1183.73
841.01	1306.60
841.18	1273.84
841.35	1269.74
841.52	1294.32
841.69	1288.17
841.86	1228.78
842.03	1234.93
842.20	1255.40
842.37	1253.36
842.54	1277.93
842.71	1220.59
842.88	1277.93
843.05	1232.88
843.22	1380.33
843.39	1322.99
843.56	1239.02
843.73	1257.45
843.90	1196.01
844.07	1288.17
844.24	1261.55
844.41	1251.31
844.58	1251.31
844.75	1318.89
844.92	1232.88
845.09	1198.06
845.26	1234.93
845.43	1286.12
845.60	1247.21
845.77	1253.36
845.94	1251.31
846.10	1269.74
846.27	1265.64
846.44	1277.93
846.61	1345.52
846.78	1259.50
846.95	1288.17
847.12	1216.49
847.29	1257.45
847.46	1249.26
847.63	1314.80
847.80	1318.89
847.97	1224.69
848.14	1282.03
848.31	1247.21
848.48	1222.64
848.65	1327.08
848.82	1314.80
848.98	1279.98
849.15	1234.93
849.32	1171.44
849.49	1257.45
849.66	1193.97
849.83	1275.88
850.00	1239.02
850.17	1265.64
850.34	1361.90
850.51	1239.02
850.68	1277.93
850.85	1282.03
851.01	1224.69
851.18	1325.04
851.35	1294.32
851.52	1245.16
851.69	1310.70
851.86	1288.17
852.03	1218.54
852.20	1282.03
852.37	1175.53
852.53	1290.22
852.70	1214.45
852.87	1232.88
853.04	1253.36
853.21	1202.16
853.38	1255.40
853.55	1290.22
853.72	1286.12
853.89	1247.21
854.05	1271.79
854.22	1257.45
854.39	1298.41
854.56	1300.46
854.73	1239.02
854.90	1271.79
855.07	1220.59
855.23	1314.80
855.40	1308.65
855.57	1290.22
855.74	1249.26
855.91	1310.70
856.08	1247.21
856.25	1212.40
856.41	1300.46
856.58	1282.03
856.75	1216.49
856.92	1236.97
857.09	1259.50
857.26	1249.26
857.42	1288.17
857.59	1251.31
857.76	1320.94
857.93	1286.12
858.10	1183.73
858.27	1259.50
858.43	1284.08
858.60	1290.22
858.77	1236.97
858.94	1292.27
859.11	1316.84
859.27	1314.80
859.44	1269.74
859.61	1320.94
859.78	1282.03
859.95	1273.84
860.12	1222.64
860.28	1200.11
860.45	1224.69
860.62	1290.22
860.79	1269.74
860.95	1318.89
861.12	1302.51
861.29	1368.04
861.46	1222.64
861.63	1150.96
861.79	1247.21
861.96	1183.73
862.13	1222.64
862.30	1251.31
862.47	1294.32
862.63	1265.64
862.80	1302.51
862.97	1239.02
863.14	1271.79
863.30	1310.70
863.47	1296.36
863.64	1226.73
863.81	1327.08
863.97	1290.22
864.14	1333.23
864.31	1253.36
864.48	1310.70
864.65	1220.59
864.81	1282.03
864.98	1288.17
865.15	1298.41
865.32	1243.12
865.48	1234.93
865.65	1298.41
865.82	1314.80
865.98	1304.56
866.15	1370.09
866.32	1251.31
866.49	1288.17
866.65	1265.64
866.82	1267.69
866.99	1308.65
867.16	1312.75
867.32	1331.18
867.49	1265.64
867.66	1261.55
867.83	1222.64
867.99	1267.69
868.16	1245.16
868.33	1279.98
868.49	1255.40
868.66	1257.45
868.83	1228.78
868.99	1294.32
869.16	1271.79
869.33	1232.88
869.50	1214.45
869.66	1245.16
869.83	1282.03
870.00	1171.44
870.16	1273.84
870.33	1277.93
870.50	1216.49
870.66	1294.32
870.83	1275.88
871.00	1220.59
871.17	1232.88
871.33	1271.79
871.50	1320.94
871.67	1261.55
871.83	1226.73
872.00	1263.60
872.17	1249.26
872.33	1249.26
872.50	1294.32
872.67	1245.16
872.83	1298.41
873.00	1286.12
873.17	1349.61
873.33	1173.49
873.50	1220.59
873.67	1241.07
873.83	1271.79
874.00	1261.55
874.16	1261.55
874.33	1212.40
874.50	1202.16
874.66	1296.36
874.83	1275.88
875.00	1339.37
875.16	1290.22
875.33	1316.84
875.50	1226.73
875.66	1234.93
875.83	1228.78
875.99	1271.79
876.16	1296.36
876.33	1214.45
876.49	1212.40
876.66	1216.49
876.83	1206.25
876.99	1245.16
877.16	1247.21
877.32	1275.88
877.49	1282.03
877.66	1226.73
877.82	1222.64
877.99	1253.36
878.15	1304.56
878.32	1263.60
878.49	1288.17
878.65	1175.53
878.82	1259.50
878.98	1222.64
879.15	1318.89
879.32	1271.79
879.48	1232.88
879.65	1304.56
879.81	1306.60
879.98	1296.36
880.15	1230.83
880.31	1277.93
880.48	1247.21
880.64	1300.46
880.81	1220.59
880.97	1206.25
881.14	1275.88
881.31	1265.64
881.47	1308.65
881.64	1261.55
881.80	1239.02
881.97	1193.97
882.13	1337.32
882.30	1210.35
882.47	1284.08
882.63	1284.08
882.80	1294.32
882.96	1277.93
883.13	1335.28
883.29	1239.02
883.46	1193.97
883.62	1286.12
883.79	1335.28
883.95	1277.93
884.12	1273.84
884.29	1249.26
884.45	1277.93
884.62	1271.79
884.78	1249.26
884.95	1275.88
885.11	1232.88
885.28	1259.50
885.44	1200.11
885.61	1236.97
885.77	1243.12
885.94	1249.26
886.10	1206.25
886.27	1273.84
886.43	1271.79
886.60	1249.26
886.76	1296.36
886.93	1349.61
887.09	1251.31
887.26	1220.59
887.42	1284.08
887.59	1236.97
887.75	1327.08
887.92	1282.03
888.08	1253.36
888.25	1222.64
888.41	1255.40
888.58	1318.89
888.74	1296.36
888.91	1241.07
>>>>>End Processed Spectral Data<<<<<
