SpectraSuite Data File
++++++++++++++++++++++++++++++++++++
Date: Sun Apr 03 19:55:36 CEST 2016
User: root
Dark Spectrum Present: No
Reference Spectrum Present: No
Number of Sampled Component Spectra: 1
Spectrometers: USB4C02835
Integration Time (usec): 10000 (USB4C02835)
Spectra Averaged: 1 (USB4C02835)
Boxcar Smoothing: 0 (USB4C02835)
Correct for Electrical Dark: No (USB4C02835)
Strobe/Lamp Enabled: No (USB4C02835)
Correct for Detector Non-linearity: No (USB4C02835)
Correct for Stray Light: No (USB4C02835)
Number of Pixels in Processed Spectrum: 3648
>>>>>Begin Processed Spectral Data<<<<<
177.47	1271.79
177.69	1271.79
177.91	1271.79
178.13	1271.79
178.36	1239.02
178.58	1239.02
178.80	1320.94
179.02	1191.92
179.24	1255.40
179.46	1300.46
179.68	1257.45
179.90	1228.78
180.13	1236.97
180.35	1253.36
180.57	1247.21
180.79	1241.07
181.01	1200.11
181.23	1314.80
181.45	1361.90
181.67	1286.12
181.90	1261.55
182.12	1230.83
182.34	1261.55
182.56	1347.56
182.78	1255.40
183.00	1234.93
183.22	1282.03
183.44	1294.32
183.66	1386.47
183.89	1189.87
184.11	1275.88
184.33	1261.55
184.55	1275.88
184.77	1288.17
184.99	1230.83
185.21	1298.41
185.43	1298.41
185.65	1226.73
185.87	1224.69
186.10	1230.83
186.32	1335.28
186.54	1310.70
186.76	1271.79
186.98	1294.32
187.20	1302.51
187.42	1267.69
187.64	1210.35
187.86	1273.84
188.08	1351.66
188.30	1236.97
188.52	1249.26
188.75	1257.45
188.97	1294.32
189.19	1282.03
189.41	1167.34
189.63	1318.89
189.85	1310.70
190.07	1226.73
190.29	1288.17
190.51	1241.07
190.73	1267.69
190.95	1265.64
191.17	1308.65
191.39	1241.07
191.61	1269.74
191.84	1234.93
192.06	1208.30
192.28	1357.80
192.50	1302.51
192.72	1327.08
192.94	1282.03
193.16	1273.84
193.38	1253.36
193.60	1251.31
193.82	1320.94
194.04	1218.54
194.26	1282.03
194.48	1187.82
194.70	1279.98
194.92	1243.12
195.14	1279.98
195.36	1243.12
195.58	1255.40
195.80	1251.31
196.02	1271.79
196.24	1269.74
196.46	1302.51
196.69	1282.03
196.91	1232.88
197.13	1294.32
197.35	1275.88
197.57	1226.73
197.79	1279.98
198.01	1339.37
198.23	1239.02
198.45	1198.06
198.67	1292.27
198.89	1267.69
199.11	1337.32
199.33	1261.55
199.55	1230.83
199.77	1263.60
199.99	1232.88
200.21	1308.65
200.43	1312.75
200.65	1259.50
200.87	1224.69
201.09	1253.36
201.31	1269.74
201.53	1322.99
201.75	1239.02
201.97	1179.63
202.19	1312.75
202.41	1218.54
202.63	1304.56
202.85	1325.04
203.07	1337.32
203.29	1245.16
203.51	1234.93
203.73	1259.50
203.95	1372.14
204.17	1298.41
204.39	1247.21
204.61	1234.93
204.83	1193.97
205.05	1200.11
205.27	1294.32
205.49	1241.07
205.71	1304.56
205.93	1202.16
206.15	1327.08
206.37	1300.46
206.59	1265.64
206.81	1253.36
207.03	1300.46
207.25	1249.26
207.47	1265.64
207.69	1286.12
207.91	1284.08
208.13	1245.16
208.34	1200.11
208.56	1275.88
208.78	1193.97
209.00	1298.41
209.22	1271.79
209.44	1331.18
209.66	1308.65
209.88	1314.80
210.10	1294.32
210.32	1277.93
210.54	1247.21
210.76	1314.80
210.98	1292.27
211.20	1239.02
211.42	1310.70
211.64	1257.45
211.86	1312.75
212.08	1251.31
212.30	1277.93
212.52	1292.27
212.74	1331.18
212.96	1253.36
213.17	1234.93
213.39	1290.22
213.61	1351.66
213.83	1269.74
214.05	1322.99
214.27	1247.21
214.49	1247.21
214.71	1247.21
214.93	1253.36
215.15	1290.22
215.37	1261.55
215.59	1249.26
215.81	1236.97
216.03	1273.84
216.24	1234.93
216.46	1282.03
216.68	1296.36
216.90	1255.40
217.12	1236.97
217.34	1171.44
217.56	1347.56
217.78	1228.78
218.00	1300.46
218.22	1320.94
218.44	1269.74
218.66	1212.40
218.87	1243.12
219.09	1163.25
219.31	1253.36
219.53	1251.31
219.75	1271.79
219.97	1230.83
220.19	1263.60
220.41	1288.17
220.63	1282.03
220.85	1290.22
221.06	1234.93
221.28	1273.84
221.50	1243.12
221.72	1333.23
221.94	1322.99
222.16	1243.12
222.38	1290.22
222.60	1224.69
222.82	1232.88
223.03	1226.73
223.25	1167.34
223.47	1322.99
223.69	1304.56
223.91	1255.40
224.13	1306.60
224.35	1290.22
224.57	1257.45
224.78	1286.12
225.00	1265.64
225.22	1212.40
225.44	1191.92
225.66	1275.88
225.88	1253.36
226.10	1292.27
226.32	1239.02
226.53	1251.31
226.75	1257.45
226.97	1265.64
227.19	1249.26
227.41	1333.23
227.63	1220.59
227.85	1255.40
228.06	1247.21
228.28	1271.79
228.50	1312.75
228.72	1257.45
228.94	1259.50
229.16	1286.12
229.37	1234.93
229.59	1290.22
229.81	1277.93
230.03	1288.17
230.25	1255.40
230.47	1224.69
230.69	1263.60
230.90	1224.69
231.12	1220.59
231.34	1247.21
231.56	1269.74
231.78	1292.27
232.00	1298.41
232.21	1300.46
232.43	1269.74
232.65	1286.12
232.87	1277.93
233.09	1288.17
233.30	1261.55
233.52	1224.69
233.74	1255.40
233.96	1255.40
234.18	1249.26
234.40	1253.36
234.61	1247.21
234.83	1300.46
235.05	1232.88
235.27	1279.98
235.49	1322.99
235.70	1247.21
235.92	1308.65
236.14	1269.74
236.36	1316.84
236.58	1216.49
236.79	1292.27
237.01	1284.08
237.23	1286.12
237.45	1322.99
237.67	1210.35
237.88	1298.41
238.10	1296.36
238.32	1308.65
238.54	1257.45
238.76	1306.60
238.97	1339.37
239.19	1226.73
239.41	1208.30
239.63	1300.46
239.85	1243.12
240.06	1345.52
240.28	1251.31
240.50	1232.88
240.72	1302.51
240.93	1189.87
241.15	1279.98
241.37	1327.08
241.59	1224.69
241.81	1202.16
242.02	1347.56
242.24	1257.45
242.46	1345.52
242.68	1245.16
242.89	1257.45
243.11	1173.49
243.33	1253.36
243.55	1243.12
243.76	1269.74
243.98	1298.41
244.20	1279.98
244.42	1288.17
244.64	1263.60
244.85	1325.04
245.07	1271.79
245.29	1224.69
245.51	1355.76
245.72	1241.07
245.94	1224.69
246.16	1206.25
246.38	1302.51
246.59	1279.98
246.81	1279.98
247.03	1241.07
247.24	1251.31
247.46	1257.45
247.68	1259.50
247.90	1327.08
248.11	1298.41
248.33	1241.07
248.55	1247.21
248.77	1247.21
248.98	1292.27
249.20	1267.69
249.42	1349.61
249.64	1306.60
249.85	1185.77
250.07	1198.06
250.29	1255.40
250.50	1241.07
250.72	1241.07
250.94	1212.40
251.16	1241.07
251.37	1265.64
251.59	1366.00
251.81	1335.28
252.02	1253.36
252.24	1298.41
252.46	1345.52
252.68	1273.84
252.89	1282.03
253.11	1286.12
253.33	1249.26
253.54	1204.21
253.76	1210.35
253.98	1165.29
254.20	1198.06
254.41	1265.64
254.63	1255.40
254.85	1200.11
255.06	1286.12
255.28	1310.70
255.50	1230.83
255.71	1228.78
255.93	1255.40
256.15	1282.03
256.36	1251.31
256.58	1177.58
256.80	1282.03
257.02	1288.17
257.23	1269.74
257.45	1284.08
257.67	1298.41
257.88	1222.64
258.10	1179.63
258.32	1204.21
258.53	1298.41
258.75	1239.02
258.97	1253.36
259.18	1245.16
259.40	1265.64
259.62	1271.79
259.83	1339.37
260.05	1265.64
260.27	1302.51
260.48	1282.03
260.70	1282.03
260.92	1265.64
261.13	1247.21
261.35	1294.32
261.57	1296.36
261.78	1265.64
262.00	1212.40
262.22	1284.08
262.43	1290.22
262.65	1302.51
262.86	1269.74
263.08	1333.23
263.30	1261.55
263.51	1294.32
263.73	1355.76
263.95	1261.55
264.16	1208.30
264.38	1267.69
264.60	1298.41
264.81	1241.07
265.03	1261.55
265.25	1282.03
265.46	1273.84
265.68	1228.78
265.89	1329.13
266.11	1269.74
266.33	1341.42
266.54	1249.26
266.76	1282.03
266.98	1269.74
267.19	1286.12
267.41	1232.88
267.62	1208.30
267.84	1224.69
268.06	1284.08
268.27	1302.51
268.49	1310.70
268.70	1335.28
268.92	1306.60
269.14	1253.36
269.35	1302.51
269.57	1196.01
269.79	1296.36
270.00	1245.16
270.22	1294.32
270.43	1343.47
270.65	1316.84
270.87	1243.12
271.08	1259.50
271.30	1314.80
271.51	1308.65
271.73	1200.11
271.95	1243.12
272.16	1284.08
272.38	1302.51
272.59	1232.88
272.81	1298.41
273.02	1212.40
273.24	1312.75
273.46	1255.40
273.67	1341.42
273.89	1239.02
274.10	1277.93
274.32	1339.37
274.54	1273.84
274.75	1312.75
274.97	1239.02
275.18	1247.21
275.40	1304.56
275.61	1292.27
275.83	1265.64
276.05	1234.93
276.26	1320.94
276.48	1275.88
276.69	1300.46
276.91	1222.64
277.12	1249.26
277.34	1251.31
277.55	1230.83
277.77	1236.97
277.99	1312.75
278.20	1236.97
278.42	1224.69
278.63	1179.63
278.85	1234.93
279.06	1288.17
279.28	1208.30
279.49	1239.02
279.71	1271.79
279.93	1288.17
280.14	1241.07
280.36	1320.94
280.57	1271.79
280.79	1339.37
281.00	1249.26
281.22	1218.54
281.43	1294.32
281.65	1304.56
281.86	1343.47
282.08	1265.64
282.29	1306.60
282.51	1257.45
282.73	1325.04
282.94	1255.40
283.16	1261.55
283.37	1277.93
283.59	1269.74
283.80	1284.08
284.02	1296.36
284.23	1216.49
284.45	1257.45
284.66	1236.97
284.88	1286.12
285.09	1232.88
285.31	1220.59
285.52	1224.69
285.74	1193.97
285.95	1282.03
286.17	1298.41
286.38	1318.89
286.60	1212.40
286.81	1267.69
287.03	1273.84
287.24	1314.80
287.46	1247.21
287.67	1288.17
287.89	1316.84
288.10	1284.08
288.32	1249.26
288.53	1308.65
288.75	1320.94
288.96	1306.60
289.18	1286.12
289.39	1241.07
289.61	1245.16
289.82	1277.93
290.04	1216.49
290.25	1318.89
290.47	1282.03
290.68	1255.40
290.90	1202.16
291.11	1255.40
291.33	1277.93
291.54	1261.55
291.76	1310.70
291.97	1236.97
292.18	1279.98
292.40	1263.60
292.61	1335.28
292.83	1341.42
293.04	1226.73
293.26	1220.59
293.47	1318.89
293.69	1312.75
293.90	1257.45
294.12	1271.79
294.33	1263.60
294.55	1239.02
294.76	1249.26
294.97	1325.04
295.19	1275.88
295.40	1251.31
295.62	1341.42
295.83	1200.11
296.05	1298.41
296.26	1277.93
296.48	1310.70
296.69	1249.26
296.90	1337.32
297.12	1290.22
297.33	1284.08
297.55	1271.79
297.76	1275.88
297.98	1279.98
298.19	1288.17
298.41	1279.98
298.62	1279.98
298.83	1247.21
299.05	1345.52
299.26	1296.36
299.48	1208.30
299.69	1294.32
299.90	1320.94
300.12	1267.69
300.33	1288.17
300.55	1298.41
300.76	1265.64
300.98	1282.03
301.19	1265.64
301.40	1218.54
301.62	1247.21
301.83	1298.41
302.05	1208.30
302.26	1251.31
302.47	1267.69
302.69	1304.56
302.90	1257.45
303.12	1257.45
303.33	1263.60
303.54	1263.60
303.76	1249.26
303.97	1200.11
304.19	1273.84
304.40	1314.80
304.61	1277.93
304.83	1302.51
305.04	1202.16
305.26	1257.45
305.47	1200.11
305.68	1273.84
305.90	1220.59
306.11	1296.36
306.33	1210.35
306.54	1236.97
306.75	1214.45
306.97	1284.08
307.18	1251.31
307.39	1282.03
307.61	1226.73
307.82	1304.56
308.04	1273.84
308.25	1212.40
308.46	1275.88
308.68	1273.84
308.89	1210.35
309.10	1210.35
309.32	1269.74
309.53	1294.32
309.74	1267.69
309.96	1300.46
310.17	1304.56
310.39	1269.74
310.60	1277.93
310.81	1271.79
311.03	1279.98
311.24	1265.64
311.45	1216.49
311.67	1318.89
311.88	1249.26
312.09	1302.51
312.31	1216.49
312.52	1189.87
312.73	1267.69
312.95	1306.60
313.16	1290.22
313.37	1279.98
313.59	1273.84
313.80	1298.41
314.01	1282.03
314.23	1257.45
314.44	1282.03
314.65	1183.73
314.87	1368.04
315.08	1236.97
315.29	1298.41
315.51	1279.98
315.72	1247.21
315.93	1325.04
316.15	1329.13
316.36	1187.82
316.57	1273.84
316.79	1318.89
317.00	1275.88
317.21	1245.16
317.43	1290.22
317.64	1228.78
317.85	1243.12
318.07	1212.40
318.28	1265.64
318.49	1279.98
318.70	1341.42
318.92	1282.03
319.13	1245.16
319.34	1196.01
319.56	1292.27
319.77	1247.21
319.98	1245.16
320.20	1296.36
320.41	1306.60
320.62	1239.02
320.83	1308.65
321.05	1214.45
321.26	1337.32
321.47	1277.93
321.69	1228.78
321.90	1327.08
322.11	1284.08
322.32	1263.60
322.54	1308.65
322.75	1300.46
322.96	1263.60
323.18	1224.69
323.39	1333.23
323.60	1267.69
323.81	1247.21
324.03	1212.40
324.24	1245.16
324.45	1179.63
324.66	1292.27
324.88	1361.90
325.09	1267.69
325.30	1226.73
325.52	1243.12
325.73	1316.84
325.94	1271.79
326.15	1232.88
326.37	1263.60
326.58	1302.51
326.79	1232.88
327.00	1286.12
327.22	1292.27
327.43	1353.71
327.64	1314.80
327.85	1228.78
328.07	1263.60
328.28	1306.60
328.49	1275.88
328.70	1212.40
328.92	1288.17
329.13	1261.55
329.34	1282.03
329.55	1275.88
329.76	1253.36
329.98	1243.12
330.19	1228.78
330.40	1275.88
330.61	1282.03
330.83	1267.69
331.04	1261.55
331.25	1239.02
331.46	1294.32
331.68	1243.12
331.89	1296.36
332.10	1282.03
332.31	1236.97
332.52	1185.77
332.74	1310.70
332.95	1300.46
333.16	1232.88
333.37	1218.54
333.58	1247.21
333.80	1310.70
334.01	1234.93
334.22	1251.31
334.43	1212.40
334.64	1277.93
334.86	1150.96
335.07	1267.69
335.28	1224.69
335.49	1200.11
335.70	1290.22
335.92	1286.12
336.13	1298.41
336.34	1320.94
336.55	1232.88
336.76	1269.74
336.98	1306.60
337.19	1339.37
337.40	1298.41
337.61	1247.21
337.82	1312.75
338.04	1318.89
338.25	1310.70
338.46	1282.03
338.67	1298.41
338.88	1216.49
339.09	1300.46
339.31	1267.69
339.52	1214.45
339.73	1247.21
339.94	1304.56
340.15	1261.55
340.36	1234.93
340.58	1308.65
340.79	1277.93
341.00	1284.08
341.21	1253.36
341.42	1257.45
341.63	1325.04
341.85	1288.17
342.06	1329.13
342.27	1286.12
342.48	1271.79
342.69	1275.88
342.90	1271.79
343.12	1298.41
343.33	1357.80
343.54	1271.79
343.75	1265.64
343.96	1249.26
344.17	1210.35
344.38	1306.60
344.60	1265.64
344.81	1290.22
345.02	1320.94
345.23	1343.47
345.44	1204.21
345.65	1304.56
345.86	1230.83
346.07	1290.22
346.29	1304.56
346.50	1273.84
346.71	1304.56
346.92	1349.61
347.13	1228.78
347.34	1267.69
347.55	1251.31
347.76	1314.80
347.98	1341.42
348.19	1331.18
348.40	1249.26
348.61	1216.49
348.82	1249.26
349.03	1359.85
349.24	1257.45
349.45	1333.23
349.66	1333.23
349.88	1196.01
350.09	1304.56
350.30	1249.26
350.51	1245.16
350.72	1284.08
350.93	1230.83
351.14	1228.78
351.35	1296.36
351.56	1312.75
351.77	1173.49
351.99	1255.40
352.20	1288.17
352.41	1277.93
352.62	1306.60
352.83	1236.97
353.04	1263.60
353.25	1236.97
353.46	1304.56
353.67	1273.84
353.88	1247.21
354.09	1335.28
354.30	1271.79
354.52	1286.12
354.73	1277.93
354.94	1206.25
355.15	1249.26
355.36	1282.03
355.57	1296.36
355.78	1241.07
355.99	1304.56
356.20	1239.02
356.41	1273.84
356.62	1226.73
356.83	1224.69
357.04	1239.02
357.25	1257.45
357.46	1257.45
357.68	1267.69
357.89	1310.70
358.10	1200.11
358.31	1247.21
358.52	1210.35
358.73	1374.19
358.94	1253.36
359.15	1206.25
359.36	1273.84
359.57	1314.80
359.78	1206.25
359.99	1245.16
360.20	1271.79
360.41	1261.55
360.62	1255.40
360.83	1286.12
361.04	1255.40
361.25	1269.74
361.46	1298.41
361.67	1288.17
361.88	1263.60
362.09	1216.49
362.30	1282.03
362.51	1273.84
362.72	1191.92
362.93	1220.59
363.14	1302.51
363.35	1232.88
363.56	1228.78
363.78	1177.58
363.99	1275.88
364.20	1222.64
364.41	1290.22
364.62	1298.41
364.83	1236.97
365.04	1232.88
365.25	1249.26
365.46	1292.27
365.67	1232.88
365.88	1286.12
366.09	1325.04
366.30	1200.11
366.51	1279.98
366.72	1325.04
366.93	1279.98
367.14	1245.16
367.35	1322.99
367.56	1230.83
367.77	1275.88
367.98	1212.40
368.18	1286.12
368.39	1259.50
368.60	1355.76
368.81	1286.12
369.02	1247.21
369.23	1263.60
369.44	1251.31
369.65	1230.83
369.86	1308.65
370.07	1292.27
370.28	1193.97
370.49	1341.42
370.70	1204.21
370.91	1292.27
371.12	1298.41
371.33	1359.85
371.54	1239.02
371.75	1259.50
371.96	1294.32
372.17	1230.83
372.38	1263.60
372.59	1294.32
372.80	1245.16
373.01	1212.40
373.22	1234.93
373.43	1288.17
373.64	1245.16
373.85	1279.98
374.06	1220.59
374.26	1218.54
374.47	1308.65
374.68	1333.23
374.89	1322.99
375.10	1253.36
375.31	1249.26
375.52	1251.31
375.73	1200.11
375.94	1214.45
376.15	1249.26
376.36	1290.22
376.57	1277.93
376.78	1255.40
376.99	1284.08
377.20	1284.08
377.40	1236.97
377.61	1271.79
377.82	1261.55
378.03	1273.84
378.24	1275.88
378.45	1271.79
378.66	1251.31
378.87	1255.40
379.08	1282.03
379.29	1273.84
379.50	1230.83
379.71	1314.80
379.91	1257.45
380.12	1257.45
380.33	1239.02
380.54	1300.46
380.75	1273.84
380.96	1292.27
381.17	1277.93
381.38	1255.40
381.59	1265.64
381.80	1257.45
382.00	1263.60
382.21	1245.16
382.42	1255.40
382.63	1308.65
382.84	1220.59
383.05	1294.32
383.26	1224.69
383.47	1245.16
383.68	1308.65
383.88	1249.26
384.09	1306.60
384.30	1265.64
384.51	1329.13
384.72	1198.06
384.93	1300.46
385.14	1239.02
385.35	1265.64
385.55	1296.36
385.76	1228.78
385.97	1261.55
386.18	1294.32
386.39	1220.59
386.60	1208.30
386.81	1306.60
387.02	1322.99
387.22	1228.78
387.43	1298.41
387.64	1177.58
387.85	1300.46
388.06	1279.98
388.27	1271.79
388.48	1249.26
388.68	1288.17
388.89	1308.65
389.10	1279.98
389.31	1294.32
389.52	1202.16
389.73	1236.97
389.93	1243.12
390.14	1251.31
390.35	1228.78
390.56	1290.22
390.77	1286.12
390.98	1232.88
391.18	1247.21
391.39	1255.40
391.60	1232.88
391.81	1265.64
392.02	1220.59
392.23	1218.54
392.43	1294.32
392.64	1320.94
392.85	1284.08
393.06	1269.74
393.27	1294.32
393.47	1296.36
393.68	1265.64
393.89	1286.12
394.10	1253.36
394.31	1255.40
394.52	1279.98
394.72	1265.64
394.93	1257.45
395.14	1306.60
395.35	1320.94
395.56	1267.69
395.76	1263.60
395.97	1236.97
396.18	1243.12
396.39	1267.69
396.60	1300.46
396.80	1339.37
397.01	1294.32
397.22	1249.26
397.43	1310.70
397.64	1322.99
397.84	1302.51
398.05	1322.99
398.26	1284.08
398.47	1263.60
398.67	1331.18
398.88	1220.59
399.09	1257.45
399.30	1288.17
399.51	1310.70
399.71	1247.21
399.92	1265.64
400.13	1187.82
400.34	1341.42
400.54	1255.40
400.75	1271.79
400.96	1224.69
401.17	1257.45
401.37	1236.97
401.58	1230.83
401.79	1261.55
402.00	1267.69
402.21	1226.73
402.41	1230.83
402.62	1275.88
402.83	1284.08
403.04	1277.93
403.24	1200.11
403.45	1212.40
403.66	1279.98
403.87	1296.36
404.07	1322.99
404.28	1310.70
404.49	1267.69
404.70	1216.49
404.90	1239.02
405.11	1261.55
405.32	1316.84
405.52	1218.54
405.73	1257.45
405.94	1273.84
406.15	1218.54
406.35	1257.45
406.56	1290.22
406.77	1316.84
406.98	1265.64
407.18	1239.02
407.39	1241.07
407.60	1286.12
407.80	1265.64
408.01	1267.69
408.22	1265.64
408.43	1269.74
408.63	1277.93
408.84	1245.16
409.05	1302.51
409.25	1277.93
409.46	1329.13
409.67	1282.03
409.88	1314.80
410.08	1261.55
410.29	1200.11
410.50	1263.60
410.70	1271.79
410.91	1308.65
411.12	1273.84
411.32	1279.98
411.53	1292.27
411.74	1261.55
411.95	1273.84
412.15	1257.45
412.36	1282.03
412.57	1308.65
412.77	1277.93
412.98	1245.16
413.19	1273.84
413.39	1261.55
413.60	1288.17
413.81	1282.03
414.01	1206.25
414.22	1292.27
414.43	1349.61
414.63	1253.36
414.84	1304.56
415.05	1308.65
415.25	1253.36
415.46	1247.21
415.67	1247.21
415.87	1269.74
416.08	1267.69
416.29	1245.16
416.49	1288.17
416.70	1226.73
416.91	1230.83
417.11	1298.41
417.32	1243.12
417.53	1257.45
417.73	1259.50
417.94	1290.22
418.15	1294.32
418.35	1251.31
418.56	1210.35
418.77	1263.60
418.97	1247.21
419.18	1296.36
419.38	1200.11
419.59	1212.40
419.80	1273.84
420.00	1306.60
420.21	1290.22
420.42	1255.40
420.62	1226.73
420.83	1251.31
421.04	1261.55
421.24	1271.79
421.45	1202.16
421.65	1302.51
421.86	1255.40
422.07	1247.21
422.27	1177.58
422.48	1314.80
422.69	1200.11
422.89	1271.79
423.10	1290.22
423.30	1230.83
423.51	1286.12
423.72	1290.22
423.92	1310.70
424.13	1255.40
424.33	1325.04
424.54	1263.60
424.75	1279.98
424.95	1255.40
425.16	1245.16
425.36	1224.69
425.57	1282.03
425.78	1214.45
425.98	1329.13
426.19	1226.73
426.39	1269.74
426.60	1261.55
426.81	1337.32
427.01	1263.60
427.22	1249.26
427.42	1271.79
427.63	1279.98
427.83	1288.17
428.04	1363.95
428.25	1298.41
428.45	1257.45
428.66	1228.78
428.86	1294.32
429.07	1296.36
429.28	1228.78
429.48	1234.93
429.69	1247.21
429.89	1343.47
430.10	1292.27
430.30	1275.88
430.51	1347.56
430.71	1316.84
430.92	1275.88
431.13	1294.32
431.33	1302.51
431.54	1310.70
431.74	1298.41
431.95	1288.17
432.15	1263.60
432.36	1300.46
432.56	1300.46
432.77	1234.93
432.98	1308.65
433.18	1294.32
433.39	1320.94
433.59	1273.84
433.80	1208.30
434.00	1212.40
434.21	1277.93
434.41	1210.35
434.62	1271.79
434.82	1214.45
435.03	1343.47
435.23	1284.08
435.44	1239.02
435.64	1247.21
435.85	1224.69
436.06	1271.79
436.26	1290.22
436.47	1304.56
436.67	1220.59
436.88	1318.89
437.08	1261.55
437.29	1249.26
437.49	1214.45
437.70	1220.59
437.90	1329.13
438.11	1275.88
438.31	1236.97
438.52	1302.51
438.72	1333.23
438.93	1255.40
439.13	1267.69
439.34	1318.89
439.54	1294.32
439.75	1230.83
439.95	1296.36
440.16	1337.32
440.36	1300.46
440.57	1267.69
440.77	1208.30
440.98	1261.55
441.18	1257.45
441.39	1279.98
441.59	1249.26
441.80	1298.41
442.00	1310.70
442.21	1306.60
442.41	1318.89
442.62	1300.46
442.82	1222.64
443.02	1290.22
443.23	1267.69
443.43	1288.17
443.64	1286.12
443.84	1251.31
444.05	1261.55
444.25	1294.32
444.46	1300.46
444.66	1255.40
444.87	1259.50
445.07	1282.03
445.28	1232.88
445.48	1255.40
445.69	1380.33
445.89	1253.36
446.09	1243.12
446.30	1345.52
446.50	1269.74
446.71	1202.16
446.91	1214.45
447.12	1327.08
447.32	1296.36
447.53	1275.88
447.73	1257.45
447.93	1290.22
448.14	1337.32
448.34	1279.98
448.55	1198.06
448.75	1253.36
448.96	1290.22
449.16	1327.08
449.36	1337.32
449.57	1308.65
449.77	1296.36
449.98	1308.65
450.18	1318.89
450.39	1259.50
450.59	1247.21
450.79	1284.08
451.00	1308.65
451.20	1314.80
451.41	1269.74
451.61	1267.69
451.81	1226.73
452.02	1236.97
452.22	1314.80
452.43	1286.12
452.63	1267.69
452.84	1271.79
453.04	1234.93
453.24	1271.79
453.45	1331.18
453.65	1228.78
453.86	1329.13
454.06	1306.60
454.26	1259.50
454.47	1302.51
454.67	1236.97
454.87	1302.51
455.08	1269.74
455.28	1259.50
455.49	1288.17
455.69	1271.79
455.89	1368.04
456.10	1290.22
456.30	1314.80
456.51	1263.60
456.71	1271.79
456.91	1288.17
457.12	1265.64
457.32	1290.22
457.52	1279.98
457.73	1327.08
457.93	1200.11
458.14	1298.41
458.34	1329.13
458.54	1265.64
458.75	1347.56
458.95	1243.12
459.15	1241.07
459.36	1224.69
459.56	1261.55
459.76	1257.45
459.97	1253.36
460.17	1265.64
460.37	1333.23
460.58	1226.73
460.78	1232.88
460.99	1179.63
461.19	1294.32
461.39	1222.64
461.60	1265.64
461.80	1263.60
462.00	1331.18
462.21	1310.70
462.41	1224.69
462.61	1277.93
462.82	1247.21
463.02	1290.22
463.22	1341.42
463.43	1294.32
463.63	1292.27
463.83	1269.74
464.04	1269.74
464.24	1380.33
464.44	1349.61
464.64	1251.31
464.85	1302.51
465.05	1236.97
465.25	1218.54
465.46	1255.40
465.66	1263.60
465.86	1216.49
466.07	1316.84
466.27	1253.36
466.47	1284.08
466.68	1243.12
466.88	1200.11
467.08	1327.08
467.29	1312.75
467.49	1157.10
467.69	1243.12
467.89	1282.03
468.10	1257.45
468.30	1265.64
468.50	1269.74
468.71	1230.83
468.91	1277.93
469.11	1247.21
469.31	1306.60
469.52	1224.69
469.72	1265.64
469.92	1314.80
470.13	1263.60
470.33	1296.36
470.53	1214.45
470.73	1267.69
470.94	1245.16
471.14	1251.31
471.34	1255.40
471.54	1318.89
471.75	1234.93
471.95	1257.45
472.15	1271.79
472.36	1189.87
472.56	1343.47
472.76	1292.27
472.96	1208.30
473.17	1339.37
473.37	1320.94
473.57	1331.18
473.77	1257.45
473.98	1314.80
474.18	1286.12
474.38	1331.18
474.58	1251.31
474.79	1290.22
474.99	1314.80
475.19	1243.12
475.39	1267.69
475.60	1239.02
475.80	1277.93
476.00	1265.64
476.20	1224.69
476.41	1290.22
476.61	1245.16
476.81	1239.02
477.01	1222.64
477.21	1257.45
477.42	1290.22
477.62	1273.84
477.82	1325.04
478.02	1308.65
478.23	1312.75
478.43	1241.07
478.63	1273.84
478.83	1230.83
479.03	1322.99
479.24	1228.78
479.44	1265.64
479.64	1245.16
479.84	1263.60
480.04	1294.32
480.25	1251.31
480.45	1224.69
480.65	1284.08
480.85	1249.26
481.06	1234.93
481.26	1343.47
481.46	1279.98
481.66	1206.25
481.86	1224.69
482.06	1261.55
482.27	1224.69
482.47	1228.78
482.67	1265.64
482.87	1353.71
483.07	1255.40
483.28	1200.11
483.48	1247.21
483.68	1316.84
483.88	1300.46
484.08	1259.50
484.29	1316.84
484.49	1269.74
484.69	1284.08
484.89	1239.02
485.09	1308.65
485.29	1222.64
485.50	1247.21
485.70	1232.88
485.90	1322.99
486.10	1259.50
486.30	1300.46
486.50	1189.87
486.71	1304.56
486.91	1251.31
487.11	1255.40
487.31	1273.84
487.51	1224.69
487.71	1284.08
487.91	1282.03
488.12	1220.59
488.32	1247.21
488.52	1181.68
488.72	1298.41
488.92	1224.69
489.12	1312.75
489.32	1257.45
489.53	1259.50
489.73	1224.69
489.93	1298.41
490.13	1378.28
490.33	1249.26
490.53	1239.02
490.73	1290.22
490.94	1251.31
491.14	1329.13
491.34	1232.88
491.54	1345.52
491.74	1314.80
491.94	1273.84
492.14	1224.69
492.34	1253.36
492.54	1251.31
492.75	1245.16
492.95	1286.12
493.15	1288.17
493.35	1247.21
493.55	1269.74
493.75	1234.93
493.95	1249.26
494.15	1249.26
494.35	1253.36
494.56	1288.17
494.76	1282.03
494.96	1294.32
495.16	1294.32
495.36	1277.93
495.56	1310.70
495.76	1267.69
495.96	1236.97
496.16	1204.21
496.36	1298.41
496.56	1339.37
496.77	1296.36
496.97	1249.26
497.17	1312.75
497.37	1236.97
497.57	1228.78
497.77	1247.21
497.97	1298.41
498.17	1304.56
498.37	1273.84
498.57	1269.74
498.77	1265.64
498.97	1269.74
499.17	1269.74
499.38	1306.60
499.58	1302.51
499.78	1243.12
499.98	1322.99
500.18	1271.79
500.38	1392.62
500.58	1290.22
500.78	1265.64
500.98	1232.88
501.18	1294.32
501.38	1325.04
501.58	1179.63
501.78	1329.13
501.98	1273.84
502.18	1277.93
502.38	1394.67
502.58	1316.84
502.78	1273.84
502.98	1302.51
503.18	1263.60
503.38	1230.83
503.59	1308.65
503.79	1269.74
503.99	1331.18
504.19	1296.36
504.39	1327.08
504.59	1314.80
504.79	1318.89
504.99	1239.02
505.19	1269.74
505.39	1220.59
505.59	1277.93
505.79	1273.84
505.99	1257.45
506.19	1294.32
506.39	1279.98
506.59	1220.59
506.79	1296.36
506.99	1288.17
507.19	1290.22
507.39	1304.56
507.59	1279.98
507.79	1255.40
507.99	1277.93
508.19	1298.41
508.39	1249.26
508.59	1251.31
508.79	1306.60
508.99	1214.45
509.19	1296.36
509.39	1292.27
509.59	1296.36
509.79	1259.50
509.99	1306.60
510.19	1251.31
510.39	1284.08
510.59	1320.94
510.79	1263.60
510.99	1236.97
511.19	1234.93
511.39	1339.37
511.59	1232.88
511.79	1263.60
511.99	1232.88
512.19	1239.02
512.38	1234.93
512.58	1247.21
512.78	1294.32
512.98	1247.21
513.18	1212.40
513.38	1267.69
513.58	1316.84
513.78	1245.16
513.98	1286.12
514.18	1259.50
514.38	1277.93
514.58	1325.04
514.78	1320.94
514.98	1253.36
515.18	1263.60
515.38	1241.07
515.58	1282.03
515.78	1261.55
515.98	1322.99
516.18	1275.88
516.38	1267.69
516.57	1257.45
516.77	1302.51
516.97	1298.41
517.17	1331.18
517.37	1286.12
517.57	1300.46
517.77	1318.89
517.97	1269.74
518.17	1267.69
518.37	1282.03
518.57	1271.79
518.77	1314.80
518.97	1286.12
519.16	1241.07
519.36	1294.32
519.56	1224.69
519.76	1302.51
519.96	1296.36
520.16	1230.83
520.36	1247.21
520.56	1247.21
520.76	1267.69
520.96	1325.04
521.16	1214.45
521.35	1239.02
521.55	1335.28
521.75	1302.51
521.95	1228.78
522.15	1294.32
522.35	1282.03
522.55	1290.22
522.75	1251.31
522.95	1345.52
523.14	1267.69
523.34	1232.88
523.54	1257.45
523.74	1310.70
523.94	1265.64
524.14	1282.03
524.34	1312.75
524.54	1290.22
524.73	1294.32
524.93	1298.41
525.13	1273.84
525.33	1261.55
525.53	1247.21
525.73	1249.26
525.93	1271.79
526.13	1298.41
526.32	1286.12
526.52	1284.08
526.72	1263.60
526.92	1239.02
527.12	1251.31
527.32	1216.49
527.52	1282.03
527.71	1341.42
527.91	1224.69
528.11	1288.17
528.31	1249.26
528.51	1304.56
528.71	1245.16
528.90	1275.88
529.10	1306.60
529.30	1269.74
529.50	1284.08
529.70	1300.46
529.90	1269.74
530.09	1304.56
530.29	1232.88
530.49	1292.27
530.69	1265.64
530.89	1218.54
531.09	1288.17
531.28	1347.56
531.48	1261.55
531.68	1253.36
531.88	1277.93
532.08	1284.08
532.28	1257.45
532.47	1286.12
532.67	1236.97
532.87	1329.13
533.07	1257.45
533.27	1298.41
533.46	1282.03
533.66	1226.73
533.86	1222.64
534.06	1257.45
534.26	1310.70
534.45	1251.31
534.65	1279.98
534.85	1259.50
535.05	1300.46
535.25	1327.08
535.44	1269.74
535.64	1216.49
535.84	1269.74
536.04	1314.80
536.24	1312.75
536.43	1257.45
536.63	1314.80
536.83	1234.93
537.03	1320.94
537.22	1322.99
537.42	1265.64
537.62	1335.28
537.82	1353.71
538.02	1263.60
538.21	1249.26
538.41	1316.84
538.61	1265.64
538.81	1335.28
539.00	1277.93
539.20	1245.16
539.40	1224.69
539.60	1202.16
539.79	1173.49
539.99	1277.93
540.19	1304.56
540.39	1288.17
540.58	1337.32
540.78	1253.36
540.98	1310.70
541.18	1257.45
541.37	1255.40
541.57	1359.85
541.77	1302.51
541.97	1255.40
542.16	1273.84
542.36	1220.59
542.56	1269.74
542.76	1318.89
542.95	1306.60
543.15	1243.12
543.35	1222.64
543.54	1349.61
543.74	1282.03
543.94	1206.25
544.14	1331.18
544.33	1273.84
544.53	1265.64
544.73	1286.12
544.93	1292.27
545.12	1349.61
545.32	1286.12
545.52	1300.46
545.71	1251.31
545.91	1339.37
546.11	1306.60
546.30	1308.65
546.50	1282.03
546.70	1329.13
546.90	1279.98
547.09	1273.84
547.29	1325.04
547.49	1277.93
547.68	1292.27
547.88	1312.75
548.08	1292.27
548.27	1286.12
548.47	1380.33
548.67	1308.65
548.87	1284.08
549.06	1292.27
549.26	1269.74
549.46	1288.17
549.65	1327.08
549.85	1247.21
550.05	1284.08
550.24	1288.17
550.44	1214.45
550.64	1275.88
550.83	1292.27
551.03	1290.22
551.23	1294.32
551.42	1275.88
551.62	1269.74
551.82	1253.36
552.01	1273.84
552.21	1327.08
552.41	1275.88
552.60	1259.50
552.80	1290.22
553.00	1236.97
553.19	1267.69
553.39	1306.60
553.59	1347.56
553.78	1249.26
553.98	1241.07
554.17	1243.12
554.37	1347.56
554.57	1331.18
554.76	1292.27
554.96	1327.08
555.16	1310.70
555.35	1331.18
555.55	1290.22
555.75	1273.84
555.94	1261.55
556.14	1292.27
556.33	1269.74
556.53	1249.26
556.73	1257.45
556.92	1331.18
557.12	1312.75
557.32	1359.85
557.51	1376.24
557.71	1218.54
557.90	1327.08
558.10	1333.23
558.30	1279.98
558.49	1234.93
558.69	1206.25
558.88	1296.36
559.08	1345.52
559.28	1306.60
559.47	1361.90
559.67	1292.27
559.86	1363.95
560.06	1372.14
560.26	1329.13
560.45	1204.21
560.65	1322.99
560.84	1288.17
561.04	1290.22
561.24	1218.54
561.43	1273.84
561.63	1282.03
561.82	1312.75
562.02	1263.60
562.22	1288.17
562.41	1224.69
562.61	1290.22
562.80	1288.17
563.00	1329.13
563.19	1294.32
563.39	1296.36
563.59	1257.45
563.78	1236.97
563.98	1296.36
564.17	1314.80
564.37	1304.56
564.56	1282.03
564.76	1255.40
564.96	1312.75
565.15	1298.41
565.35	1306.60
565.54	1300.46
565.74	1316.84
565.93	1257.45
566.13	1275.88
566.32	1263.60
566.52	1243.12
566.71	1216.49
566.91	1241.07
567.11	1275.88
567.30	1339.37
567.50	1304.56
567.69	1296.36
567.89	1284.08
568.08	1312.75
568.28	1271.79
568.47	1314.80
568.67	1302.51
568.86	1253.36
569.06	1282.03
569.25	1282.03
569.45	1298.41
569.64	1286.12
569.84	1271.79
570.04	1347.56
570.23	1269.74
570.43	1277.93
570.62	1290.22
570.82	1314.80
571.01	1257.45
571.21	1316.84
571.40	1298.41
571.60	1341.42
571.79	1269.74
571.99	1247.21
572.18	1292.27
572.38	1273.84
572.57	1290.22
572.77	1181.68
572.96	1171.44
573.16	1286.12
573.35	1257.45
573.55	1273.84
573.74	1243.12
573.94	1322.99
574.13	1269.74
574.33	1318.89
574.52	1232.88
574.71	1275.88
574.91	1282.03
575.10	1232.88
575.30	1302.51
575.49	1322.99
575.69	1269.74
575.88	1296.36
576.08	1308.65
576.27	1316.84
576.47	1320.94
576.66	1337.32
576.86	1343.47
577.05	1306.60
577.25	1251.31
577.44	1402.86
577.64	1255.40
577.83	1335.28
578.02	1261.55
578.22	1300.46
578.41	1318.89
578.61	1257.45
578.80	1236.97
579.00	1198.06
579.19	1239.02
579.39	1282.03
579.58	1222.64
579.77	1290.22
579.97	1327.08
580.16	1343.47
580.36	1286.12
580.55	1277.93
580.75	1302.51
580.94	1261.55
581.13	1302.51
581.33	1308.65
581.52	1331.18
581.72	1298.41
581.91	1286.12
582.11	1308.65
582.30	1271.79
582.49	1318.89
582.69	1304.56
582.88	1269.74
583.08	1316.84
583.27	1300.46
583.47	1224.69
583.66	1247.21
583.85	1236.97
584.05	1353.71
584.24	1314.80
584.44	1312.75
584.63	1306.60
584.82	1288.17
585.02	1267.69
585.21	1275.88
585.41	1224.69
585.60	1259.50
585.79	1298.41
585.99	1296.36
586.18	1284.08
586.37	1257.45
586.57	1302.51
586.76	1337.32
586.96	1261.55
587.15	1337.32
587.34	1232.88
587.54	1265.64
587.73	1247.21
587.93	1302.51
588.12	1273.84
588.31	1296.36
588.51	1288.17
588.70	1249.26
588.89	1236.97
589.09	1204.21
589.28	1265.64
589.47	1265.64
589.67	1249.26
589.86	1245.16
590.06	1349.61
590.25	1296.36
590.44	1251.31
590.64	1316.84
590.83	1236.97
591.02	1322.99
591.22	1282.03
591.41	1253.36
591.60	1279.98
591.80	1230.83
591.99	1214.45
592.18	1269.74
592.38	1265.64
592.57	1241.07
592.76	1288.17
592.96	1363.95
593.15	1294.32
593.34	1282.03
593.54	1275.88
593.73	1277.93
593.92	1255.40
594.12	1298.41
594.31	1255.40
594.50	1267.69
594.70	1275.88
594.89	1288.17
595.08	1255.40
595.28	1294.32
595.47	1304.56
595.66	1308.65
595.86	1277.93
596.05	1314.80
596.24	1216.49
596.43	1247.21
596.63	1269.74
596.82	1314.80
597.01	1232.88
597.21	1206.25
597.40	1312.75
597.59	1210.35
597.79	1310.70
597.98	1298.41
598.17	1314.80
598.36	1325.04
598.56	1298.41
598.75	1275.88
598.94	1212.40
599.14	1259.50
599.33	1271.79
599.52	1226.73
599.71	1306.60
599.91	1204.21
600.10	1279.98
600.29	1271.79
600.48	1224.69
600.68	1284.08
600.87	1318.89
601.06	1382.38
601.26	1370.09
601.45	1327.08
601.64	1263.60
601.83	1314.80
602.03	1279.98
602.22	1300.46
602.41	1298.41
602.60	1347.56
602.80	1308.65
602.99	1275.88
603.18	1312.75
603.37	1277.93
603.57	1243.12
603.76	1329.13
603.95	1298.41
604.14	1306.60
604.34	1308.65
604.53	1357.80
604.72	1204.21
604.91	1253.36
605.10	1204.21
605.30	1325.04
605.49	1314.80
605.68	1327.08
605.87	1351.66
606.07	1282.03
606.26	1300.46
606.45	1245.16
606.64	1322.99
606.84	1214.45
607.03	1322.99
607.22	1208.30
607.41	1284.08
607.60	1271.79
607.80	1288.17
607.99	1249.26
608.18	1286.12
608.37	1329.13
608.56	1216.49
608.76	1277.93
608.95	1286.12
609.14	1259.50
609.33	1265.64
609.52	1255.40
609.72	1310.70
609.91	1306.60
610.10	1294.32
610.29	1296.36
610.48	1181.68
610.68	1292.27
610.87	1282.03
611.06	1236.97
611.25	1267.69
611.44	1290.22
611.63	1320.94
611.83	1239.02
612.02	1275.88
612.21	1304.56
612.40	1267.69
612.59	1239.02
612.79	1230.83
612.98	1245.16
613.17	1322.99
613.36	1347.56
613.55	1277.93
613.74	1327.08
613.93	1200.11
614.13	1363.95
614.32	1243.12
614.51	1269.74
614.70	1185.77
614.89	1247.21
615.08	1308.65
615.28	1251.31
615.47	1249.26
615.66	1333.23
615.85	1257.45
616.04	1273.84
616.23	1269.74
616.42	1230.83
616.62	1290.22
616.81	1243.12
617.00	1269.74
617.19	1288.17
617.38	1292.27
617.57	1232.88
617.76	1288.17
617.95	1286.12
618.15	1239.02
618.34	1314.80
618.53	1308.65
618.72	1273.84
618.91	1282.03
619.10	1298.41
619.29	1204.21
619.48	1331.18
619.68	1275.88
619.87	1300.46
620.06	1282.03
620.25	1210.35
620.44	1228.78
620.63	1255.40
620.82	1316.84
621.01	1320.94
621.20	1183.73
621.39	1247.21
621.59	1351.66
621.78	1277.93
621.97	1282.03
622.16	1333.23
622.35	1286.12
622.54	1325.04
622.73	1249.26
622.92	1306.60
623.11	1345.52
623.30	1316.84
623.49	1300.46
623.68	1355.76
623.88	1267.69
624.07	1384.43
624.26	1261.55
624.45	1249.26
624.64	1286.12
624.83	1261.55
625.02	1275.88
625.21	1247.21
625.40	1306.60
625.59	1304.56
625.78	1308.65
625.97	1269.74
626.16	1286.12
626.35	1310.70
626.54	1318.89
626.74	1316.84
626.93	1286.12
627.12	1366.00
627.31	1314.80
627.50	1306.60
627.69	1269.74
627.88	1318.89
628.07	1286.12
628.26	1304.56
628.45	1265.64
628.64	1288.17
628.83	1312.75
629.02	1322.99
629.21	1253.36
629.40	1251.31
629.59	1241.07
629.78	1269.74
629.97	1310.70
630.16	1361.90
630.35	1345.52
630.54	1318.89
630.73	1290.22
630.92	1257.45
631.11	1345.52
631.30	1320.94
631.49	1351.66
631.68	1380.33
631.87	1376.24
632.06	1621.99
632.25	1445.87
632.44	1484.78
632.63	1523.69
632.82	1728.49
633.01	2138.08
633.20	1816.55
633.39	1886.18
633.58	1785.83
633.77	1738.73
633.96	1671.14
634.15	1886.18
634.34	1941.47
634.53	1884.13
634.72	1722.34
634.91	1585.13
635.10	1538.02
635.29	1472.49
635.48	1525.74
635.67	1486.83
635.86	1460.20
636.05	1421.29
636.24	1402.86
636.43	1353.71
636.62	1382.38
636.81	1310.70
637.00	1312.75
637.19	1366.00
637.38	1380.33
637.57	1316.84
637.76	1279.98
637.95	1327.08
638.14	1357.80
638.33	1302.51
638.52	1275.88
638.71	1306.60
638.89	1294.32
639.08	1368.04
639.27	1259.50
639.46	1236.97
639.65	1245.16
639.84	1241.07
640.03	1220.59
640.22	1331.18
640.41	1298.41
640.60	1322.99
640.79	1255.40
640.98	1308.65
641.17	1275.88
641.36	1263.60
641.55	1314.80
641.74	1306.60
641.92	1292.27
642.11	1232.88
642.30	1384.43
642.49	1304.56
642.68	1253.36
642.87	1333.23
643.06	1333.23
643.25	1261.55
643.44	1232.88
643.63	1273.84
643.82	1222.64
644.00	1337.32
644.19	1253.36
644.38	1282.03
644.57	1351.66
644.76	1284.08
644.95	1255.40
645.14	1275.88
645.33	1300.46
645.52	1187.82
645.71	1245.16
645.89	1279.98
646.08	1374.19
646.27	1243.12
646.46	1269.74
646.65	1316.84
646.84	1337.32
647.03	1208.30
647.22	1275.88
647.40	1249.26
647.59	1263.60
647.78	1253.36
647.97	1273.84
648.16	1269.74
648.35	1351.66
648.54	1341.42
648.73	1286.12
648.91	1294.32
649.10	1310.70
649.29	1300.46
649.48	1208.30
649.67	1267.69
649.86	1302.51
650.05	1257.45
650.23	1335.28
650.42	1284.08
650.61	1263.60
650.80	1327.08
650.99	1261.55
651.18	1288.17
651.36	1257.45
651.55	1290.22
651.74	1230.83
651.93	1255.40
652.12	1370.09
652.31	1234.93
652.49	1279.98
652.68	1253.36
652.87	1277.93
653.06	1269.74
653.25	1298.41
653.44	1290.22
653.62	1310.70
653.81	1322.99
654.00	1384.43
654.19	1300.46
654.38	1331.18
654.56	1243.12
654.75	1241.07
654.94	1327.08
655.13	1224.69
655.32	1345.52
655.51	1284.08
655.69	1288.17
655.88	1304.56
656.07	1273.84
656.26	1306.60
656.45	1261.55
656.63	1234.93
656.82	1267.69
657.01	1314.80
657.20	1308.65
657.38	1337.32
657.57	1318.89
657.76	1263.60
657.95	1300.46
658.14	1261.55
658.32	1269.74
658.51	1294.32
658.70	1361.90
658.89	1273.84
659.08	1286.12
659.26	1261.55
659.45	1259.50
659.64	1275.88
659.83	1251.31
660.01	1322.99
660.20	1288.17
660.39	1329.13
660.58	1230.83
660.76	1337.32
660.95	1239.02
661.14	1241.07
661.33	1318.89
661.51	1339.37
661.70	1253.36
661.89	1279.98
662.08	1259.50
662.26	1234.93
662.45	1284.08
662.64	1296.36
662.83	1271.79
663.01	1290.22
663.20	1273.84
663.39	1335.28
663.58	1232.88
663.76	1316.84
663.95	1277.93
664.14	1273.84
664.32	1314.80
664.51	1210.35
664.70	1312.75
664.89	1306.60
665.07	1271.79
665.26	1286.12
665.45	1271.79
665.64	1302.51
665.82	1259.50
666.01	1327.08
666.20	1273.84
666.38	1222.64
666.57	1236.97
666.76	1222.64
666.95	1286.12
667.13	1322.99
667.32	1277.93
667.51	1245.16
667.69	1273.84
667.88	1349.61
668.07	1316.84
668.25	1325.04
668.44	1224.69
668.63	1310.70
668.81	1310.70
669.00	1222.64
669.19	1318.89
669.38	1191.92
669.56	1202.16
669.75	1296.36
669.94	1261.55
670.12	1247.21
670.31	1282.03
670.50	1279.98
670.68	1273.84
670.87	1292.27
671.06	1247.21
671.24	1265.64
671.43	1265.64
671.62	1226.73
671.80	1259.50
671.99	1267.69
672.18	1239.02
672.36	1277.93
672.55	1218.54
672.74	1247.21
672.92	1245.16
673.11	1302.51
673.29	1292.27
673.48	1275.88
673.67	1267.69
673.85	1245.16
674.04	1306.60
674.23	1298.41
674.41	1325.04
674.60	1247.21
674.79	1228.78
674.97	1271.79
675.16	1155.05
675.34	1284.08
675.53	1249.26
675.72	1193.97
675.90	1282.03
676.09	1265.64
676.28	1230.83
676.46	1325.04
676.65	1257.45
676.83	1257.45
677.02	1279.98
677.21	1298.41
677.39	1343.47
677.58	1267.69
677.77	1343.47
677.95	1271.79
678.14	1228.78
678.32	1181.68
678.51	1275.88
678.70	1245.16
678.88	1236.97
679.07	1259.50
679.25	1329.13
679.44	1292.27
679.63	1294.32
679.81	1277.93
680.00	1269.74
680.18	1206.25
680.37	1294.32
680.55	1261.55
680.74	1255.40
680.93	1339.37
681.11	1290.22
681.30	1359.85
681.48	1269.74
681.67	1257.45
681.85	1306.60
682.04	1173.49
682.23	1251.31
682.41	1292.27
682.60	1284.08
682.78	1245.16
682.97	1382.38
683.15	1202.16
683.34	1304.56
683.53	1232.88
683.71	1282.03
683.90	1243.12
684.08	1257.45
684.27	1310.70
684.45	1206.25
684.64	1286.12
684.82	1290.22
685.01	1273.84
685.19	1241.07
685.38	1339.37
685.57	1230.83
685.75	1261.55
685.94	1243.12
686.12	1216.49
686.31	1202.16
686.49	1189.87
686.68	1226.73
686.86	1294.32
687.05	1282.03
687.23	1314.80
687.42	1263.60
687.60	1271.79
687.79	1228.78
687.97	1304.56
688.16	1259.50
688.34	1288.17
688.53	1284.08
688.71	1263.60
688.90	1310.70
689.08	1267.69
689.27	1279.98
689.45	1339.37
689.64	1310.70
689.82	1265.64
690.01	1253.36
690.19	1267.69
690.38	1230.83
690.56	1275.88
690.75	1290.22
690.93	1196.01
691.12	1224.69
691.30	1288.17
691.49	1277.93
691.67	1257.45
691.86	1220.59
692.04	1359.85
692.23	1316.84
692.41	1316.84
692.60	1230.83
692.78	1322.99
692.97	1294.32
693.15	1284.08
693.34	1249.26
693.52	1302.51
693.71	1263.60
693.89	1245.16
694.08	1208.30
694.26	1286.12
694.44	1343.47
694.63	1212.40
694.81	1273.84
695.00	1279.98
695.18	1230.83
695.37	1347.56
695.55	1314.80
695.74	1320.94
695.92	1245.16
696.10	1318.89
696.29	1296.36
696.47	1339.37
696.66	1165.29
696.84	1279.98
697.03	1239.02
697.21	1234.93
697.40	1206.25
697.58	1314.80
697.76	1234.93
697.95	1253.36
698.13	1247.21
698.32	1267.69
698.50	1232.88
698.68	1279.98
698.87	1273.84
699.05	1288.17
699.24	1224.69
699.42	1294.32
699.61	1349.61
699.79	1265.64
699.97	1202.16
700.16	1243.12
700.34	1296.36
700.53	1290.22
700.71	1253.36
700.89	1347.56
701.08	1277.93
701.26	1310.70
701.45	1290.22
701.63	1271.79
701.81	1253.36
702.00	1343.47
702.18	1259.50
702.37	1290.22
702.55	1263.60
702.73	1263.60
702.92	1234.93
703.10	1271.79
703.28	1335.28
703.47	1245.16
703.65	1306.60
703.84	1273.84
704.02	1253.36
704.20	1275.88
704.39	1294.32
704.57	1286.12
704.75	1239.02
704.94	1312.75
705.12	1263.60
705.30	1263.60
705.49	1265.64
705.67	1257.45
705.86	1261.55
706.04	1253.36
706.22	1308.65
706.41	1239.02
706.59	1327.08
706.77	1220.59
706.96	1288.17
707.14	1308.65
707.32	1257.45
707.51	1310.70
707.69	1226.73
707.87	1263.60
708.06	1288.17
708.24	1300.46
708.42	1241.07
708.61	1341.42
708.79	1210.35
708.97	1394.67
709.16	1269.74
709.34	1288.17
709.52	1294.32
709.71	1282.03
709.89	1316.84
710.07	1294.32
710.26	1210.35
710.44	1210.35
710.62	1310.70
710.80	1314.80
710.99	1179.63
711.17	1335.28
711.35	1222.64
711.54	1310.70
711.72	1267.69
711.90	1308.65
712.09	1263.60
712.27	1245.16
712.45	1273.84
712.63	1298.41
712.82	1300.46
713.00	1273.84
713.18	1312.75
713.37	1263.60
713.55	1249.26
713.73	1253.36
713.91	1210.35
714.10	1224.69
714.28	1284.08
714.46	1271.79
714.65	1294.32
714.83	1243.12
715.01	1335.28
715.19	1316.84
715.38	1216.49
715.56	1226.73
715.74	1318.89
715.92	1339.37
716.11	1239.02
716.29	1255.40
716.47	1310.70
716.65	1249.26
716.84	1183.73
717.02	1279.98
717.20	1273.84
717.38	1247.21
717.57	1214.45
717.75	1351.66
717.93	1286.12
718.11	1308.65
718.30	1208.30
718.48	1253.36
718.66	1259.50
718.84	1290.22
719.03	1271.79
719.21	1200.11
719.39	1271.79
719.57	1261.55
719.75	1275.88
719.94	1255.40
720.12	1273.84
720.30	1259.50
720.48	1296.36
720.67	1269.74
720.85	1193.97
721.03	1245.16
721.21	1193.97
721.39	1226.73
721.58	1245.16
721.76	1269.74
721.94	1290.22
722.12	1265.64
722.30	1257.45
722.49	1286.12
722.67	1269.74
722.85	1232.88
723.03	1294.32
723.21	1296.36
723.40	1239.02
723.58	1314.80
723.76	1263.60
723.94	1275.88
724.12	1220.59
724.30	1247.21
724.49	1267.69
724.67	1239.02
724.85	1249.26
725.03	1230.83
725.21	1261.55
725.40	1220.59
725.58	1286.12
725.76	1247.21
725.94	1308.65
726.12	1257.45
726.30	1261.55
726.49	1269.74
726.67	1206.25
726.85	1271.79
727.03	1206.25
727.21	1243.12
727.39	1277.93
727.57	1325.04
727.76	1302.51
727.94	1304.56
728.12	1251.31
728.30	1263.60
728.48	1298.41
728.66	1290.22
728.84	1257.45
729.03	1241.07
729.21	1341.42
729.39	1243.12
729.57	1232.88
729.75	1296.36
729.93	1220.59
730.11	1249.26
730.30	1247.21
730.48	1249.26
730.66	1257.45
730.84	1294.32
731.02	1245.16
731.20	1183.73
731.38	1284.08
731.56	1208.30
731.74	1288.17
731.93	1277.93
732.11	1257.45
732.29	1243.12
732.47	1267.69
732.65	1314.80
732.83	1271.79
733.01	1261.55
733.19	1218.54
733.37	1253.36
733.56	1275.88
733.74	1239.02
733.92	1271.79
734.10	1290.22
734.28	1306.60
734.46	1259.50
734.64	1243.12
734.82	1239.02
735.00	1271.79
735.18	1232.88
735.36	1322.99
735.54	1253.36
735.73	1243.12
735.91	1206.25
736.09	1247.21
736.27	1193.97
736.45	1253.36
736.63	1273.84
736.81	1226.73
736.99	1341.42
737.17	1282.03
737.35	1251.31
737.53	1355.76
737.71	1251.31
737.89	1193.97
738.07	1273.84
738.25	1308.65
738.43	1300.46
738.61	1255.40
738.80	1259.50
738.98	1304.56
739.16	1329.13
739.34	1247.21
739.52	1286.12
739.70	1316.84
739.88	1255.40
740.06	1347.56
740.24	1314.80
740.42	1292.27
740.60	1302.51
740.78	1202.16
740.96	1306.60
741.14	1329.13
741.32	1226.73
741.50	1208.30
741.68	1273.84
741.86	1259.50
742.04	1310.70
742.22	1288.17
742.40	1243.12
742.58	1279.98
742.76	1255.40
742.94	1265.64
743.12	1198.06
743.30	1302.51
743.48	1292.27
743.66	1202.16
743.84	1265.64
744.02	1218.54
744.20	1310.70
744.38	1181.68
744.56	1259.50
744.74	1177.58
744.92	1370.09
745.10	1269.74
745.28	1275.88
745.46	1241.07
745.64	1329.13
745.82	1308.65
746.00	1292.27
746.18	1212.40
746.36	1249.26
746.54	1251.31
746.72	1234.93
746.90	1228.78
747.08	1247.21
747.26	1200.11
747.44	1218.54
747.62	1292.27
747.80	1327.08
747.98	1241.07
748.15	1282.03
748.33	1279.98
748.51	1290.22
748.69	1271.79
748.87	1228.78
749.05	1259.50
749.23	1343.47
749.41	1271.79
749.59	1243.12
749.77	1239.02
749.95	1253.36
750.13	1275.88
750.31	1181.68
750.49	1185.77
750.67	1165.29
750.85	1290.22
751.03	1261.55
751.20	1267.69
751.38	1277.93
751.56	1255.40
751.74	1234.93
751.92	1212.40
752.10	1292.27
752.28	1257.45
752.46	1314.80
752.64	1273.84
752.82	1284.08
753.00	1318.89
753.18	1273.84
753.35	1251.31
753.53	1306.60
753.71	1279.98
753.89	1312.75
754.07	1224.69
754.25	1265.64
754.43	1292.27
754.61	1249.26
754.79	1267.69
754.97	1335.28
755.14	1308.65
755.32	1279.98
755.50	1300.46
755.68	1206.25
755.86	1290.22
756.04	1282.03
756.22	1247.21
756.40	1216.49
756.57	1284.08
756.75	1300.46
756.93	1255.40
757.11	1288.17
757.29	1329.13
757.47	1273.84
757.65	1327.08
757.82	1300.46
758.00	1234.93
758.18	1300.46
758.36	1288.17
758.54	1230.83
758.72	1322.99
758.90	1302.51
759.07	1316.84
759.25	1222.64
759.43	1298.41
759.61	1249.26
759.79	1273.84
759.97	1157.10
760.15	1345.52
760.32	1214.45
760.50	1316.84
760.68	1263.60
760.86	1273.84
761.04	1279.98
761.22	1275.88
761.39	1331.18
761.57	1282.03
761.75	1257.45
761.93	1255.40
762.11	1329.13
762.28	1355.76
762.46	1263.60
762.64	1275.88
762.82	1265.64
763.00	1245.16
763.18	1226.73
763.35	1312.75
763.53	1224.69
763.71	1212.40
763.89	1269.74
764.07	1341.42
764.24	1304.56
764.42	1271.79
764.60	1282.03
764.78	1232.88
764.96	1314.80
765.13	1294.32
765.31	1288.17
765.49	1318.89
765.67	1306.60
765.84	1220.59
766.02	1312.75
766.20	1263.60
766.38	1200.11
766.56	1204.21
766.73	1239.02
766.91	1253.36
767.09	1335.28
767.27	1265.64
767.44	1269.74
767.62	1308.65
767.80	1212.40
767.98	1175.53
768.15	1243.12
768.33	1261.55
768.51	1245.16
768.69	1253.36
768.87	1210.35
769.04	1261.55
769.22	1288.17
769.40	1294.32
769.58	1263.60
769.75	1243.12
769.93	1294.32
770.11	1273.84
770.28	1314.80
770.46	1232.88
770.64	1275.88
770.82	1310.70
770.99	1273.84
771.17	1296.36
771.35	1343.47
771.53	1282.03
771.70	1308.65
771.88	1220.59
772.06	1275.88
772.23	1247.21
772.41	1273.84
772.59	1230.83
772.77	1298.41
772.94	1200.11
773.12	1277.93
773.30	1263.60
773.47	1277.93
773.65	1189.87
773.83	1267.69
774.01	1200.11
774.18	1216.49
774.36	1306.60
774.54	1232.88
774.71	1265.64
774.89	1277.93
775.07	1279.98
775.24	1247.21
775.42	1273.84
775.60	1265.64
775.78	1251.31
775.95	1249.26
776.13	1189.87
776.31	1339.37
776.48	1239.02
776.66	1253.36
776.84	1200.11
777.01	1222.64
777.19	1314.80
777.37	1316.84
777.54	1249.26
777.72	1241.07
777.90	1269.74
778.07	1232.88
778.25	1269.74
778.43	1277.93
778.60	1259.50
778.78	1308.65
778.96	1290.22
779.13	1288.17
779.31	1251.31
779.49	1255.40
779.66	1271.79
779.84	1325.04
780.01	1279.98
780.19	1230.83
780.37	1312.75
780.54	1239.02
780.72	1259.50
780.90	1257.45
781.07	1255.40
781.25	1273.84
781.43	1279.98
781.60	1279.98
781.78	1337.32
781.95	1236.97
782.13	1253.36
782.31	1208.30
782.48	1232.88
782.66	1265.64
782.83	1249.26
783.01	1275.88
783.19	1236.97
783.36	1263.60
783.54	1220.59
783.72	1198.06
783.89	1310.70
784.07	1267.69
784.24	1232.88
784.42	1271.79
784.60	1212.40
784.77	1222.64
784.95	1251.31
785.12	1208.30
785.30	1284.08
785.47	1187.82
785.65	1263.60
785.83	1279.98
786.00	1269.74
786.18	1259.50
786.35	1290.22
786.53	1282.03
786.71	1224.69
786.88	1249.26
787.06	1249.26
787.23	1263.60
787.41	1296.36
787.58	1267.69
787.76	1279.98
787.94	1253.36
788.11	1245.16
788.29	1294.32
788.46	1329.13
788.64	1282.03
788.81	1271.79
788.99	1257.45
789.16	1269.74
789.34	1318.89
789.52	1220.59
789.69	1251.31
789.87	1269.74
790.04	1286.12
790.22	1257.45
790.39	1232.88
790.57	1218.54
790.74	1312.75
790.92	1251.31
791.09	1314.80
791.27	1312.75
791.44	1249.26
791.62	1230.83
791.79	1263.60
791.97	1208.30
792.15	1261.55
792.32	1271.79
792.50	1314.80
792.67	1288.17
792.85	1288.17
793.02	1247.21
793.20	1263.60
793.37	1251.31
793.55	1316.84
793.72	1185.77
793.90	1314.80
794.07	1253.36
794.25	1286.12
794.42	1282.03
794.60	1294.32
794.77	1226.73
794.95	1263.60
795.12	1271.79
795.30	1302.51
795.47	1183.73
795.65	1257.45
795.82	1212.40
796.00	1275.88
796.17	1265.64
796.34	1267.69
796.52	1302.51
796.69	1306.60
796.87	1265.64
797.04	1255.40
797.22	1286.12
797.39	1353.71
797.57	1308.65
797.74	1253.36
797.92	1269.74
798.09	1183.73
798.27	1314.80
798.44	1239.02
798.62	1357.80
798.79	1288.17
798.96	1255.40
799.14	1263.60
799.31	1288.17
799.49	1224.69
799.66	1220.59
799.84	1290.22
800.01	1245.16
800.19	1232.88
800.36	1267.69
800.53	1273.84
800.71	1320.94
800.88	1228.78
801.06	1232.88
801.23	1239.02
801.41	1232.88
801.58	1241.07
801.75	1271.79
801.93	1296.36
802.10	1234.93
802.28	1296.36
802.45	1253.36
802.63	1298.41
802.80	1288.17
802.97	1286.12
803.15	1269.74
803.32	1298.41
803.50	1232.88
803.67	1230.83
803.84	1269.74
804.02	1255.40
804.19	1249.26
804.37	1294.32
804.54	1247.21
804.71	1200.11
804.89	1257.45
805.06	1214.45
805.24	1286.12
805.41	1265.64
805.58	1234.93
805.76	1230.83
805.93	1232.88
806.10	1290.22
806.28	1255.40
806.45	1249.26
806.63	1296.36
806.80	1310.70
806.97	1316.84
807.15	1300.46
807.32	1226.73
807.49	1351.66
807.67	1222.64
807.84	1216.49
808.01	1296.36
808.19	1232.88
808.36	1269.74
808.54	1286.12
808.71	1267.69
808.88	1265.64
809.06	1318.89
809.23	1247.21
809.40	1277.93
809.58	1216.49
809.75	1263.60
809.92	1236.97
810.10	1279.98
810.27	1320.94
810.44	1304.56
810.62	1271.79
810.79	1191.92
810.96	1224.69
811.14	1257.45
811.31	1230.83
811.48	1241.07
811.66	1271.79
811.83	1249.26
812.00	1273.84
812.18	1347.56
812.35	1239.02
812.52	1275.88
812.69	1222.64
812.87	1273.84
813.04	1279.98
813.21	1302.51
813.39	1214.45
813.56	1296.36
813.73	1294.32
813.91	1241.07
814.08	1320.94
814.25	1261.55
814.42	1279.98
814.60	1251.31
814.77	1216.49
814.94	1177.58
815.12	1286.12
815.29	1282.03
815.46	1251.31
815.63	1183.73
815.81	1253.36
815.98	1259.50
816.15	1249.26
816.33	1259.50
816.50	1208.30
816.67	1300.46
816.84	1236.97
817.02	1290.22
817.19	1325.04
817.36	1243.12
817.53	1255.40
817.71	1265.64
817.88	1263.60
818.05	1288.17
818.22	1218.54
818.40	1279.98
818.57	1294.32
818.74	1251.31
818.91	1161.20
819.09	1243.12
819.26	1243.12
819.43	1251.31
819.60	1202.16
819.78	1265.64
819.95	1171.44
820.12	1220.59
820.29	1224.69
820.47	1302.51
820.64	1259.50
820.81	1275.88
820.98	1245.16
821.15	1273.84
821.33	1316.84
821.50	1261.55
821.67	1314.80
821.84	1304.56
822.02	1198.06
822.19	1253.36
822.36	1249.26
822.53	1261.55
822.70	1296.36
822.88	1255.40
823.05	1265.64
823.22	1322.99
823.39	1247.21
823.56	1284.08
823.74	1333.23
823.91	1306.60
824.08	1290.22
824.25	1265.64
824.42	1247.21
824.60	1279.98
824.77	1282.03
824.94	1230.83
825.11	1243.12
825.28	1339.37
825.45	1247.21
825.63	1302.51
825.80	1253.36
825.97	1261.55
826.14	1245.16
826.31	1257.45
826.48	1355.76
826.66	1241.07
826.83	1169.39
827.00	1290.22
827.17	1310.70
827.34	1241.07
827.51	1292.27
827.69	1279.98
827.86	1216.49
828.03	1193.97
828.20	1249.26
828.37	1296.36
828.54	1257.45
828.71	1273.84
828.89	1232.88
829.06	1257.45
829.23	1331.18
829.40	1245.16
829.57	1322.99
829.74	1259.50
829.91	1269.74
830.09	1263.60
830.26	1310.70
830.43	1296.36
830.60	1325.04
830.77	1271.79
830.94	1316.84
831.11	1214.45
831.28	1257.45
831.46	1304.56
831.63	1261.55
831.80	1218.54
831.97	1222.64
832.14	1222.64
832.31	1267.69
832.48	1286.12
832.65	1275.88
832.82	1236.97
832.99	1329.13
833.17	1212.40
833.34	1183.73
833.51	1267.69
833.68	1263.60
833.85	1187.82
834.02	1241.07
834.19	1290.22
834.36	1290.22
834.53	1279.98
834.70	1302.51
834.87	1255.40
835.04	1228.78
835.22	1243.12
835.39	1275.88
835.56	1200.11
835.73	1282.03
835.90	1181.68
836.07	1204.21
836.24	1196.01
836.41	1255.40
836.58	1312.75
836.75	1222.64
836.92	1232.88
837.09	1304.56
837.26	1275.88
837.43	1279.98
837.60	1243.12
837.77	1302.51
837.94	1282.03
838.12	1269.74
838.29	1308.65
838.46	1282.03
838.63	1257.45
838.80	1228.78
838.97	1259.50
839.14	1298.41
839.31	1263.60
839.48	1243.12
839.65	1255.40
839.82	1239.02
839.99	1234.93
840.16	1267.69
840.33	1294.32
840.50	1296.36
840.67	1269.74
840.84	1277.93
841.01	1249.26
841.18	1263.60
841.35	1269.74
841.52	1198.06
841.69	1263.60
841.86	1259.50
842.03	1275.88
842.20	1347.56
842.37	1257.45
842.54	1271.79
842.71	1249.26
842.88	1222.64
843.05	1308.65
843.22	1325.04
843.39	1277.93
843.56	1220.59
843.73	1232.88
843.90	1206.25
844.07	1284.08
844.24	1232.88
844.41	1245.16
844.58	1241.07
844.75	1243.12
844.92	1322.99
845.09	1245.16
845.26	1288.17
845.43	1273.84
845.60	1335.28
845.77	1306.60
845.94	1273.84
846.10	1279.98
846.27	1257.45
846.44	1253.36
846.61	1263.60
846.78	1226.73
846.95	1304.56
847.12	1249.26
847.29	1298.41
847.46	1265.64
847.63	1298.41
847.80	1206.25
847.97	1245.16
848.14	1327.08
848.31	1210.35
848.48	1273.84
848.65	1322.99
848.82	1308.65
848.98	1304.56
849.15	1255.40
849.32	1273.84
849.49	1236.97
849.66	1320.94
849.83	1288.17
850.00	1275.88
850.17	1210.35
850.34	1292.27
850.51	1251.31
850.68	1368.04
850.85	1220.59
851.01	1327.08
851.18	1263.60
851.35	1316.84
851.52	1265.64
851.69	1232.88
851.86	1275.88
852.03	1159.15
852.20	1339.37
852.37	1261.55
852.53	1290.22
852.70	1327.08
852.87	1210.35
853.04	1239.02
853.21	1263.60
853.38	1271.79
853.55	1284.08
853.72	1294.32
853.89	1251.31
854.05	1290.22
854.22	1306.60
854.39	1230.83
854.56	1286.12
854.73	1241.07
854.90	1243.12
855.07	1320.94
855.23	1241.07
855.40	1298.41
855.57	1273.84
855.74	1308.65
855.91	1337.32
856.08	1290.22
856.25	1189.87
856.41	1265.64
856.58	1318.89
856.75	1247.21
856.92	1236.97
857.09	1269.74
857.26	1261.55
857.42	1214.45
857.59	1245.16
857.76	1249.26
857.93	1241.07
858.10	1241.07
858.27	1212.40
858.43	1296.36
858.60	1245.16
858.77	1279.98
858.94	1261.55
859.11	1316.84
859.27	1294.32
859.44	1282.03
859.61	1302.51
859.78	1265.64
859.95	1269.74
860.12	1312.75
860.28	1327.08
860.45	1277.93
860.62	1232.88
860.79	1230.83
860.95	1222.64
861.12	1279.98
861.29	1253.36
861.46	1273.84
861.63	1165.29
861.79	1222.64
861.96	1257.45
862.13	1275.88
862.30	1310.70
862.47	1292.27
862.63	1271.79
862.80	1290.22
862.97	1267.69
863.14	1271.79
863.30	1196.01
863.47	1320.94
863.64	1269.74
863.81	1275.88
863.97	1249.26
864.14	1200.11
864.31	1253.36
864.48	1261.55
864.65	1269.74
864.81	1228.78
864.98	1284.08
865.15	1304.56
865.32	1257.45
865.48	1302.51
865.65	1204.21
865.82	1249.26
865.98	1267.69
866.15	1230.83
866.32	1279.98
866.49	1226.73
866.65	1259.50
866.82	1306.60
866.99	1271.79
867.16	1263.60
867.32	1288.17
867.49	1259.50
867.66	1294.32
867.83	1228.78
867.99	1273.84
868.16	1206.25
868.33	1236.97
868.49	1294.32
868.66	1282.03
868.83	1288.17
868.99	1300.46
869.16	1320.94
869.33	1277.93
869.50	1292.27
869.66	1216.49
869.83	1304.56
870.00	1220.59
870.16	1265.64
870.33	1296.36
870.50	1255.40
870.66	1230.83
870.83	1226.73
871.00	1247.21
871.17	1241.07
871.33	1241.07
871.50	1298.41
871.67	1290.22
871.83	1298.41
872.00	1310.70
872.17	1300.46
872.33	1212.40
872.50	1265.64
872.67	1232.88
872.83	1292.27
873.00	1222.64
873.17	1310.70
873.33	1269.74
873.50	1230.83
873.67	1320.94
873.83	1329.13
874.00	1232.88
874.16	1277.93
874.33	1251.31
874.50	1269.74
874.66	1331.18
874.83	1335.28
875.00	1298.41
875.16	1279.98
875.33	1267.69
875.50	1234.93
875.66	1288.17
875.83	1290.22
875.99	1314.80
876.16	1257.45
876.33	1269.74
876.49	1337.32
876.66	1275.88
876.83	1255.40
876.99	1230.83
877.16	1236.97
877.32	1253.36
877.49	1271.79
877.66	1331.18
877.82	1288.17
877.99	1239.02
878.15	1239.02
878.32	1271.79
878.49	1282.03
878.65	1304.56
878.82	1249.26
878.98	1269.74
879.15	1271.79
879.32	1273.84
879.48	1355.76
879.65	1290.22
879.81	1322.99
879.98	1267.69
880.15	1224.69
880.31	1232.88
880.48	1296.36
880.64	1269.74
880.81	1214.45
880.97	1294.32
881.14	1228.78
881.31	1214.45
881.47	1314.80
881.64	1298.41
881.80	1331.18
881.97	1259.50
882.13	1275.88
882.30	1224.69
882.47	1234.93
882.63	1251.31
882.80	1331.18
882.96	1206.25
883.13	1347.56
883.29	1312.75
883.46	1316.84
883.62	1234.93
883.79	1257.45
883.95	1273.84
884.12	1208.30
884.29	1275.88
884.45	1316.84
884.62	1304.56
884.78	1314.80
884.95	1212.40
885.11	1275.88
885.28	1243.12
885.44	1263.60
885.61	1294.32
885.77	1279.98
885.94	1277.93
886.10	1312.75
886.27	1261.55
886.43	1296.36
886.60	1177.58
886.76	1322.99
886.93	1224.69
887.09	1271.79
887.26	1243.12
887.42	1298.41
887.59	1210.35
887.75	1316.84
887.92	1265.64
888.08	1230.83
888.25	1257.45
888.41	1341.42
888.58	1273.84
888.74	1224.69
888.91	1282.03
>>>>>End Processed Spectral Data<<<<<
