SpectraSuite Data File
++++++++++++++++++++++++++++++++++++
Date: Sun Apr 03 19:55:14 CEST 2016
User: root
Dark Spectrum Present: No
Reference Spectrum Present: No
Number of Sampled Component Spectra: 1
Spectrometers: USB4C02835
Integration Time (usec): 10000 (USB4C02835)
Spectra Averaged: 1 (USB4C02835)
Boxcar Smoothing: 0 (USB4C02835)
Correct for Electrical Dark: No (USB4C02835)
Strobe/Lamp Enabled: No (USB4C02835)
Correct for Detector Non-linearity: No (USB4C02835)
Correct for Stray Light: No (USB4C02835)
Number of Pixels in Processed Spectrum: 3648
>>>>>Begin Processed Spectral Data<<<<<
177.47	1239.02
177.69	1239.02
177.91	1239.02
178.13	1245.16
178.36	1200.11
178.58	1220.59
178.80	1206.25
179.02	1232.88
179.24	1253.36
179.46	1331.18
179.68	1327.08
179.90	1208.30
180.13	1288.17
180.35	1300.46
180.57	1249.26
180.79	1300.46
181.01	1253.36
181.23	1312.75
181.45	1298.41
181.67	1331.18
181.90	1277.93
182.12	1239.02
182.34	1282.03
182.56	1325.04
182.78	1277.93
183.00	1220.59
183.22	1255.40
183.44	1275.88
183.66	1310.70
183.89	1275.88
184.11	1310.70
184.33	1263.60
184.55	1292.27
184.77	1282.03
184.99	1267.69
185.21	1247.21
185.43	1296.36
185.65	1273.84
185.87	1208.30
186.10	1312.75
186.32	1284.08
186.54	1286.12
186.76	1290.22
186.98	1241.07
187.20	1261.55
187.42	1249.26
187.64	1224.69
187.86	1245.16
188.08	1273.84
188.30	1212.40
188.52	1236.97
188.75	1245.16
188.97	1320.94
189.19	1212.40
189.41	1314.80
189.63	1220.59
189.85	1294.32
190.07	1259.50
190.29	1222.64
190.51	1300.46
190.73	1247.21
190.95	1325.04
191.17	1228.78
191.39	1265.64
191.61	1282.03
191.84	1216.49
192.06	1259.50
192.28	1232.88
192.50	1273.84
192.72	1294.32
192.94	1271.79
193.16	1288.17
193.38	1263.60
193.60	1196.01
193.82	1292.27
194.04	1261.55
194.26	1339.37
194.48	1251.31
194.70	1222.64
194.92	1257.45
195.14	1314.80
195.36	1255.40
195.58	1304.56
195.80	1302.51
196.02	1259.50
196.24	1288.17
196.46	1341.42
196.69	1261.55
196.91	1245.16
197.13	1253.36
197.35	1236.97
197.57	1239.02
197.79	1292.27
198.01	1329.13
198.23	1234.93
198.45	1282.03
198.67	1261.55
198.89	1263.60
199.11	1290.22
199.33	1245.16
199.55	1277.93
199.77	1335.28
199.99	1249.26
200.21	1245.16
200.43	1267.69
200.65	1284.08
200.87	1273.84
201.09	1318.89
201.31	1257.45
201.53	1263.60
201.75	1245.16
201.97	1282.03
202.19	1236.97
202.41	1232.88
202.63	1290.22
202.85	1282.03
203.07	1259.50
203.29	1253.36
203.51	1175.53
203.73	1228.78
203.95	1372.14
204.17	1251.31
204.39	1304.56
204.61	1306.60
204.83	1314.80
205.05	1206.25
205.27	1282.03
205.49	1294.32
205.71	1232.88
205.93	1251.31
206.15	1251.31
206.37	1265.64
206.59	1267.69
206.81	1263.60
207.03	1255.40
207.25	1284.08
207.47	1292.27
207.69	1247.21
207.91	1308.65
208.13	1259.50
208.34	1292.27
208.56	1282.03
208.78	1273.84
209.00	1269.74
209.22	1259.50
209.44	1282.03
209.66	1292.27
209.88	1259.50
210.10	1181.68
210.32	1196.01
210.54	1185.77
210.76	1249.26
210.98	1286.12
211.20	1239.02
211.42	1353.71
211.64	1345.52
211.86	1216.49
212.08	1312.75
212.30	1228.78
212.52	1255.40
212.74	1239.02
212.96	1273.84
213.17	1259.50
213.39	1286.12
213.61	1318.89
213.83	1273.84
214.05	1263.60
214.27	1331.18
214.49	1224.69
214.71	1212.40
214.93	1296.36
215.15	1230.83
215.37	1187.82
215.59	1243.12
215.81	1236.97
216.03	1265.64
216.24	1230.83
216.46	1200.11
216.68	1226.73
216.90	1224.69
217.12	1236.97
217.34	1261.55
217.56	1314.80
217.78	1220.59
218.00	1263.60
218.22	1210.35
218.44	1200.11
218.66	1296.36
218.87	1257.45
219.09	1271.79
219.31	1271.79
219.53	1245.16
219.75	1302.51
219.97	1261.55
220.19	1269.74
220.41	1306.60
220.63	1263.60
220.85	1308.65
221.06	1308.65
221.28	1269.74
221.50	1259.50
221.72	1333.23
221.94	1277.93
222.16	1247.21
222.38	1257.45
222.60	1282.03
222.82	1286.12
223.03	1306.60
223.25	1300.46
223.47	1288.17
223.69	1349.61
223.91	1286.12
224.13	1243.12
224.35	1257.45
224.57	1271.79
224.78	1273.84
225.00	1236.97
225.22	1273.84
225.44	1255.40
225.66	1216.49
225.88	1314.80
226.10	1253.36
226.32	1236.97
226.53	1267.69
226.75	1259.50
226.97	1335.28
227.19	1218.54
227.41	1294.32
227.63	1271.79
227.85	1286.12
228.06	1269.74
228.28	1294.32
228.50	1210.35
228.72	1273.84
228.94	1259.50
229.16	1273.84
229.37	1288.17
229.59	1224.69
229.81	1279.98
230.03	1257.45
230.25	1286.12
230.47	1271.79
230.69	1314.80
230.90	1247.21
231.12	1333.23
231.34	1269.74
231.56	1220.59
231.78	1292.27
232.00	1187.82
232.21	1286.12
232.43	1261.55
232.65	1259.50
232.87	1226.73
233.09	1292.27
233.30	1337.32
233.52	1253.36
233.74	1288.17
233.96	1241.07
234.18	1329.13
234.40	1214.45
234.61	1314.80
234.83	1325.04
235.05	1214.45
235.27	1202.16
235.49	1314.80
235.70	1204.21
235.92	1241.07
236.14	1245.16
236.36	1296.36
236.58	1218.54
236.79	1322.99
237.01	1277.93
237.23	1282.03
237.45	1200.11
237.67	1302.51
237.88	1288.17
238.10	1374.19
238.32	1263.60
238.54	1345.52
238.76	1284.08
238.97	1226.73
239.19	1241.07
239.41	1286.12
239.63	1271.79
239.85	1263.60
240.06	1261.55
240.28	1273.84
240.50	1298.41
240.72	1245.16
240.93	1304.56
241.15	1314.80
241.37	1296.36
241.59	1218.54
241.81	1255.40
242.02	1310.70
242.24	1325.04
242.46	1169.39
242.68	1265.64
242.89	1251.31
243.11	1253.36
243.33	1275.88
243.55	1275.88
243.76	1228.78
243.98	1279.98
244.20	1300.46
244.42	1265.64
244.64	1300.46
244.85	1257.45
245.07	1294.32
245.29	1261.55
245.51	1265.64
245.72	1265.64
245.94	1325.04
246.16	1257.45
246.38	1257.45
246.59	1271.79
246.81	1259.50
247.03	1202.16
247.24	1249.26
247.46	1327.08
247.68	1333.23
247.90	1286.12
248.11	1269.74
248.33	1279.98
248.55	1282.03
248.77	1249.26
248.98	1245.16
249.20	1259.50
249.42	1269.74
249.64	1228.78
249.85	1279.98
250.07	1241.07
250.29	1234.93
250.50	1191.92
250.72	1247.21
250.94	1222.64
251.16	1286.12
251.37	1331.18
251.59	1236.97
251.81	1243.12
252.02	1210.35
252.24	1288.17
252.46	1177.58
252.68	1267.69
252.89	1261.55
253.11	1304.56
253.33	1232.88
253.54	1257.45
253.76	1310.70
253.98	1296.36
254.20	1308.65
254.41	1275.88
254.63	1290.22
254.85	1282.03
255.06	1337.32
255.28	1279.98
255.50	1257.45
255.71	1253.36
255.93	1277.93
256.15	1290.22
256.36	1290.22
256.58	1251.31
256.80	1322.99
257.02	1275.88
257.23	1261.55
257.45	1296.36
257.67	1290.22
257.88	1298.41
258.10	1288.17
258.32	1273.84
258.53	1310.70
258.75	1216.49
258.97	1259.50
259.18	1216.49
259.40	1306.60
259.62	1222.64
259.83	1245.16
260.05	1271.79
260.27	1277.93
260.48	1216.49
260.70	1298.41
260.92	1370.09
261.13	1353.71
261.35	1296.36
261.57	1284.08
261.78	1249.26
262.00	1249.26
262.22	1204.21
262.43	1193.97
262.65	1269.74
262.86	1251.31
263.08	1290.22
263.30	1300.46
263.51	1300.46
263.73	1222.64
263.95	1239.02
264.16	1284.08
264.38	1261.55
264.60	1232.88
264.81	1241.07
265.03	1234.93
265.25	1163.25
265.46	1222.64
265.68	1318.89
265.89	1214.45
266.11	1236.97
266.33	1269.74
266.54	1243.12
266.76	1255.40
266.98	1269.74
267.19	1232.88
267.41	1269.74
267.62	1202.16
267.84	1265.64
268.06	1232.88
268.27	1277.93
268.49	1273.84
268.70	1185.77
268.92	1259.50
269.14	1279.98
269.35	1216.49
269.57	1269.74
269.79	1257.45
270.00	1187.82
270.22	1239.02
270.43	1310.70
270.65	1253.36
270.87	1294.32
271.08	1257.45
271.30	1294.32
271.51	1214.45
271.73	1302.51
271.95	1247.21
272.16	1286.12
272.38	1253.36
272.59	1296.36
272.81	1251.31
273.02	1261.55
273.24	1261.55
273.46	1296.36
273.67	1300.46
273.89	1249.26
274.10	1206.25
274.32	1245.16
274.54	1202.16
274.75	1220.59
274.97	1304.56
275.18	1302.51
275.40	1271.79
275.61	1269.74
275.83	1298.41
276.05	1263.60
276.26	1282.03
276.48	1202.16
276.69	1271.79
276.91	1216.49
277.12	1253.36
277.34	1196.01
277.55	1218.54
277.77	1308.65
277.99	1241.07
278.20	1249.26
278.42	1255.40
278.63	1253.36
278.85	1255.40
279.06	1286.12
279.28	1288.17
279.49	1296.36
279.71	1247.21
279.93	1220.59
280.14	1290.22
280.36	1298.41
280.57	1257.45
280.79	1255.40
281.00	1210.35
281.22	1325.04
281.43	1275.88
281.65	1234.93
281.86	1306.60
282.08	1228.78
282.29	1267.69
282.51	1363.95
282.73	1329.13
282.94	1232.88
283.16	1275.88
283.37	1245.16
283.59	1343.47
283.80	1214.45
284.02	1226.73
284.23	1265.64
284.45	1267.69
284.66	1220.59
284.88	1222.64
285.09	1308.65
285.31	1312.75
285.52	1284.08
285.74	1267.69
285.95	1261.55
286.17	1241.07
286.38	1286.12
286.60	1282.03
286.81	1304.56
287.03	1302.51
287.24	1294.32
287.46	1255.40
287.67	1198.06
287.89	1224.69
288.10	1253.36
288.32	1261.55
288.53	1263.60
288.75	1288.17
288.96	1171.44
289.18	1241.07
289.39	1282.03
289.61	1282.03
289.82	1247.21
290.04	1269.74
290.25	1273.84
290.47	1253.36
290.68	1347.56
290.90	1273.84
291.11	1247.21
291.33	1288.17
291.54	1236.97
291.76	1243.12
291.97	1277.93
292.18	1257.45
292.40	1300.46
292.61	1279.98
292.83	1271.79
293.04	1257.45
293.26	1249.26
293.47	1298.41
293.69	1298.41
293.90	1255.40
294.12	1314.80
294.33	1286.12
294.55	1271.79
294.76	1236.97
294.97	1228.78
295.19	1320.94
295.40	1230.83
295.62	1298.41
295.83	1253.36
296.05	1290.22
296.26	1282.03
296.48	1228.78
296.69	1267.69
296.90	1251.31
297.12	1290.22
297.33	1304.56
297.55	1329.13
297.76	1284.08
297.98	1243.12
298.19	1269.74
298.41	1300.46
298.62	1228.78
298.83	1169.39
299.05	1234.93
299.26	1284.08
299.48	1239.02
299.69	1275.88
299.90	1322.99
300.12	1230.83
300.33	1243.12
300.55	1282.03
300.76	1271.79
300.98	1286.12
301.19	1308.65
301.40	1261.55
301.62	1275.88
301.83	1259.50
302.05	1193.97
302.26	1245.16
302.47	1284.08
302.69	1290.22
302.90	1261.55
303.12	1300.46
303.33	1261.55
303.54	1269.74
303.76	1298.41
303.97	1288.17
304.19	1257.45
304.40	1286.12
304.61	1228.78
304.83	1327.08
305.04	1257.45
305.26	1267.69
305.47	1247.21
305.68	1263.60
305.90	1261.55
306.11	1271.79
306.33	1306.60
306.54	1294.32
306.75	1279.98
306.97	1228.78
307.18	1171.44
307.39	1208.30
307.61	1206.25
307.82	1314.80
308.04	1236.97
308.25	1241.07
308.46	1255.40
308.68	1380.33
308.89	1265.64
309.10	1263.60
309.32	1230.83
309.53	1273.84
309.74	1253.36
309.96	1245.16
310.17	1292.27
310.39	1286.12
310.60	1273.84
310.81	1216.49
311.03	1247.21
311.24	1245.16
311.45	1228.78
311.67	1298.41
311.88	1228.78
312.09	1257.45
312.31	1277.93
312.52	1288.17
312.73	1312.75
312.95	1329.13
313.16	1273.84
313.37	1322.99
313.59	1191.92
313.80	1341.42
314.01	1294.32
314.23	1255.40
314.44	1286.12
314.65	1335.28
314.87	1226.73
315.08	1316.84
315.29	1279.98
315.51	1271.79
315.72	1259.50
315.93	1302.51
316.15	1247.21
316.36	1167.34
316.57	1345.52
316.79	1335.28
317.00	1239.02
317.21	1216.49
317.43	1263.60
317.64	1216.49
317.85	1247.21
318.07	1220.59
318.28	1261.55
318.49	1294.32
318.70	1198.06
318.92	1232.88
319.13	1255.40
319.34	1251.31
319.56	1267.69
319.77	1308.65
319.98	1230.83
320.20	1298.41
320.41	1316.84
320.62	1259.50
320.83	1263.60
321.05	1257.45
321.26	1329.13
321.47	1249.26
321.69	1212.40
321.90	1208.30
322.11	1257.45
322.32	1263.60
322.54	1204.21
322.75	1271.79
322.96	1257.45
323.18	1263.60
323.39	1277.93
323.60	1331.18
323.81	1255.40
324.03	1247.21
324.24	1370.09
324.45	1306.60
324.66	1177.58
324.88	1228.78
325.09	1308.65
325.30	1216.49
325.52	1247.21
325.73	1271.79
325.94	1345.52
326.15	1224.69
326.37	1251.31
326.58	1279.98
326.79	1343.47
327.00	1290.22
327.22	1214.45
327.43	1230.83
327.64	1232.88
327.85	1265.64
328.07	1294.32
328.28	1263.60
328.49	1271.79
328.70	1310.70
328.92	1261.55
329.13	1257.45
329.34	1255.40
329.55	1247.21
329.76	1224.69
329.98	1230.83
330.19	1259.50
330.40	1286.12
330.61	1263.60
330.83	1212.40
331.04	1269.74
331.25	1296.36
331.46	1265.64
331.68	1247.21
331.89	1265.64
332.10	1267.69
332.31	1255.40
332.52	1282.03
332.74	1263.60
332.95	1245.16
333.16	1368.04
333.37	1355.76
333.58	1279.98
333.80	1275.88
334.01	1282.03
334.22	1249.26
334.43	1322.99
334.64	1175.53
334.86	1329.13
335.07	1204.21
335.28	1239.02
335.49	1337.32
335.70	1339.37
335.92	1284.08
336.13	1257.45
336.34	1263.60
336.55	1220.59
336.76	1277.93
336.98	1290.22
337.19	1308.65
337.40	1306.60
337.61	1269.74
337.82	1265.64
338.04	1177.58
338.25	1277.93
338.46	1224.69
338.67	1239.02
338.88	1251.31
339.09	1300.46
339.31	1327.08
339.52	1304.56
339.73	1196.01
339.94	1294.32
340.15	1286.12
340.36	1257.45
340.58	1198.06
340.79	1263.60
341.00	1279.98
341.21	1239.02
341.42	1255.40
341.63	1259.50
341.85	1288.17
342.06	1208.30
342.27	1245.16
342.48	1335.28
342.69	1294.32
342.90	1304.56
343.12	1322.99
343.33	1302.51
343.54	1259.50
343.75	1257.45
343.96	1335.28
344.17	1294.32
344.38	1273.84
344.60	1337.32
344.81	1282.03
345.02	1294.32
345.23	1271.79
345.44	1290.22
345.65	1200.11
345.86	1298.41
346.07	1230.83
346.29	1241.07
346.50	1353.71
346.71	1257.45
346.92	1241.07
347.13	1253.36
347.34	1294.32
347.55	1298.41
347.76	1302.51
347.98	1273.84
348.19	1277.93
348.40	1239.02
348.61	1218.54
348.82	1351.66
349.03	1214.45
349.24	1253.36
349.45	1302.51
349.66	1263.60
349.88	1314.80
350.09	1296.36
350.30	1228.78
350.51	1222.64
350.72	1177.58
350.93	1261.55
351.14	1253.36
351.35	1183.73
351.56	1265.64
351.77	1314.80
351.99	1243.12
352.20	1294.32
352.41	1296.36
352.62	1253.36
352.83	1239.02
353.04	1331.18
353.25	1267.69
353.46	1232.88
353.67	1286.12
353.88	1222.64
354.09	1243.12
354.30	1234.93
354.52	1273.84
354.73	1208.30
354.94	1298.41
355.15	1296.36
355.36	1224.69
355.57	1265.64
355.78	1273.84
355.99	1214.45
356.20	1259.50
356.41	1228.78
356.62	1294.32
356.83	1279.98
357.04	1208.30
357.25	1206.25
357.46	1214.45
357.68	1263.60
357.89	1282.03
358.10	1298.41
358.31	1275.88
358.52	1288.17
358.73	1251.31
358.94	1196.01
359.15	1206.25
359.36	1316.84
359.57	1310.70
359.78	1255.40
359.99	1243.12
360.20	1333.23
360.41	1304.56
360.62	1255.40
360.83	1224.69
361.04	1257.45
361.25	1286.12
361.46	1228.78
361.67	1245.16
361.88	1138.67
362.09	1193.97
362.30	1296.36
362.51	1286.12
362.72	1247.21
362.93	1333.23
363.14	1275.88
363.35	1327.08
363.56	1243.12
363.78	1275.88
363.99	1304.56
364.20	1292.27
364.41	1265.64
364.62	1273.84
364.83	1232.88
365.04	1273.84
365.25	1253.36
365.46	1275.88
365.67	1230.83
365.88	1249.26
366.09	1265.64
366.30	1265.64
366.51	1302.51
366.72	1263.60
366.93	1292.27
367.14	1320.94
367.35	1210.35
367.56	1239.02
367.77	1288.17
367.98	1314.80
368.18	1269.74
368.39	1261.55
368.60	1214.45
368.81	1198.06
369.02	1232.88
369.23	1249.26
369.44	1282.03
369.65	1206.25
369.86	1239.02
370.07	1279.98
370.28	1296.36
370.49	1310.70
370.70	1288.17
370.91	1204.21
371.12	1304.56
371.33	1288.17
371.54	1236.97
371.75	1310.70
371.96	1273.84
372.17	1302.51
372.38	1265.64
372.59	1351.66
372.80	1312.75
373.01	1329.13
373.22	1282.03
373.43	1241.07
373.64	1243.12
373.85	1263.60
374.06	1255.40
374.26	1265.64
374.47	1216.49
374.68	1316.84
374.89	1261.55
375.10	1257.45
375.31	1282.03
375.52	1257.45
375.73	1267.69
375.94	1257.45
376.15	1279.98
376.36	1175.53
376.57	1290.22
376.78	1286.12
376.99	1234.93
377.20	1224.69
377.40	1230.83
377.61	1349.61
377.82	1210.35
378.03	1212.40
378.24	1226.73
378.45	1177.58
378.66	1241.07
378.87	1212.40
379.08	1277.93
379.29	1249.26
379.50	1239.02
379.71	1275.88
379.91	1236.97
380.12	1333.23
380.33	1304.56
380.54	1212.40
380.75	1247.21
380.96	1296.36
381.17	1198.06
381.38	1210.35
381.59	1243.12
381.80	1261.55
382.00	1273.84
382.21	1216.49
382.42	1294.32
382.63	1251.31
382.84	1329.13
383.05	1300.46
383.26	1239.02
383.47	1275.88
383.68	1290.22
383.88	1202.16
384.09	1204.21
384.30	1310.70
384.51	1216.49
384.72	1236.97
384.93	1333.23
385.14	1212.40
385.35	1230.83
385.55	1241.07
385.76	1220.59
385.97	1271.79
386.18	1247.21
386.39	1210.35
386.60	1322.99
386.81	1273.84
387.02	1259.50
387.22	1282.03
387.43	1249.26
387.64	1325.04
387.85	1249.26
388.06	1304.56
388.27	1265.64
388.48	1261.55
388.68	1310.70
388.89	1263.60
389.10	1267.69
389.31	1277.93
389.52	1298.41
389.73	1282.03
389.93	1298.41
390.14	1236.97
390.35	1241.07
390.56	1249.26
390.77	1288.17
390.98	1243.12
391.18	1228.78
391.39	1259.50
391.60	1216.49
391.81	1245.16
392.02	1198.06
392.23	1335.28
392.43	1322.99
392.64	1298.41
392.85	1243.12
393.06	1241.07
393.27	1284.08
393.47	1271.79
393.68	1263.60
393.89	1275.88
394.10	1222.64
394.31	1251.31
394.52	1189.87
394.72	1300.46
394.93	1265.64
395.14	1271.79
395.35	1259.50
395.56	1228.78
395.76	1224.69
395.97	1257.45
396.18	1286.12
396.39	1310.70
396.60	1232.88
396.80	1269.74
397.01	1241.07
397.22	1271.79
397.43	1288.17
397.64	1228.78
397.84	1265.64
398.05	1261.55
398.26	1239.02
398.47	1241.07
398.67	1245.16
398.88	1245.16
399.09	1245.16
399.30	1212.40
399.51	1351.66
399.71	1261.55
399.92	1216.49
400.13	1261.55
400.34	1271.79
400.54	1286.12
400.75	1288.17
400.96	1206.25
401.17	1306.60
401.37	1257.45
401.58	1304.56
401.79	1269.74
402.00	1312.75
402.21	1261.55
402.41	1255.40
402.62	1226.73
402.83	1333.23
403.04	1284.08
403.24	1290.22
403.45	1218.54
403.66	1296.36
403.87	1263.60
404.07	1308.65
404.28	1257.45
404.49	1290.22
404.70	1255.40
404.90	1372.14
405.11	1218.54
405.32	1368.04
405.52	1165.29
405.73	1161.20
405.94	1269.74
406.15	1349.61
406.35	1251.31
406.56	1198.06
406.77	1226.73
406.98	1327.08
407.18	1241.07
407.39	1257.45
407.60	1257.45
407.80	1263.60
408.01	1249.26
408.22	1232.88
408.43	1277.93
408.63	1261.55
408.84	1261.55
409.05	1257.45
409.25	1208.30
409.46	1259.50
409.67	1298.41
409.88	1232.88
410.08	1273.84
410.29	1302.51
410.50	1345.52
410.70	1294.32
410.91	1304.56
411.12	1275.88
411.32	1269.74
411.53	1263.60
411.74	1269.74
411.95	1189.87
412.15	1271.79
412.36	1208.30
412.57	1206.25
412.77	1251.31
412.98	1288.17
413.19	1224.69
413.39	1206.25
413.60	1232.88
413.81	1296.36
414.01	1296.36
414.22	1224.69
414.43	1224.69
414.63	1288.17
414.84	1277.93
415.05	1245.16
415.25	1271.79
415.46	1241.07
415.67	1316.84
415.87	1335.28
416.08	1191.92
416.29	1210.35
416.49	1245.16
416.70	1290.22
416.91	1212.40
417.11	1232.88
417.32	1253.36
417.53	1292.27
417.73	1212.40
417.94	1269.74
418.15	1261.55
418.35	1271.79
418.56	1294.32
418.77	1282.03
418.97	1284.08
419.18	1269.74
419.38	1294.32
419.59	1310.70
419.80	1196.01
420.00	1331.18
420.21	1218.54
420.42	1277.93
420.62	1290.22
420.83	1267.69
421.04	1325.04
421.24	1224.69
421.45	1273.84
421.65	1218.54
421.86	1277.93
422.07	1259.50
422.27	1310.70
422.48	1241.07
422.69	1308.65
422.89	1341.42
423.10	1265.64
423.30	1236.97
423.51	1251.31
423.72	1236.97
423.92	1243.12
424.13	1255.40
424.33	1214.45
424.54	1189.87
424.75	1292.27
424.95	1251.31
425.16	1363.95
425.36	1263.60
425.57	1224.69
425.78	1234.93
425.98	1290.22
426.19	1271.79
426.39	1218.54
426.60	1239.02
426.81	1196.01
427.01	1214.45
427.22	1277.93
427.42	1282.03
427.63	1200.11
427.83	1279.98
428.04	1294.32
428.25	1331.18
428.45	1222.64
428.66	1185.77
428.86	1298.41
429.07	1224.69
429.28	1329.13
429.48	1212.40
429.69	1300.46
429.89	1243.12
430.10	1265.64
430.30	1202.16
430.51	1267.69
430.71	1306.60
430.92	1290.22
431.13	1286.12
431.33	1294.32
431.54	1273.84
431.74	1261.55
431.95	1275.88
432.15	1157.10
432.36	1236.97
432.56	1322.99
432.77	1312.75
432.98	1255.40
433.18	1372.14
433.39	1277.93
433.59	1282.03
433.80	1279.98
434.00	1228.78
434.21	1204.21
434.41	1255.40
434.62	1337.32
434.82	1236.97
435.03	1245.16
435.23	1269.74
435.44	1279.98
435.64	1271.79
435.85	1236.97
436.06	1234.93
436.26	1265.64
436.47	1224.69
436.67	1341.42
436.88	1341.42
437.08	1269.74
437.29	1302.51
437.49	1228.78
437.70	1273.84
437.90	1267.69
438.11	1249.26
438.31	1191.92
438.52	1288.17
438.72	1275.88
438.93	1224.69
439.13	1228.78
439.34	1275.88
439.54	1279.98
439.75	1294.32
439.95	1329.13
440.16	1239.02
440.36	1255.40
440.57	1302.51
440.77	1363.95
440.98	1282.03
441.18	1265.64
441.39	1191.92
441.59	1263.60
441.80	1282.03
442.00	1247.21
442.21	1316.84
442.41	1298.41
442.62	1279.98
442.82	1306.60
443.02	1304.56
443.23	1275.88
443.43	1339.37
443.64	1263.60
443.84	1322.99
444.05	1290.22
444.25	1265.64
444.46	1312.75
444.66	1273.84
444.87	1249.26
445.07	1206.25
445.28	1236.97
445.48	1257.45
445.69	1298.41
445.89	1230.83
446.09	1271.79
446.30	1288.17
446.50	1290.22
446.71	1243.12
446.91	1331.18
447.12	1294.32
447.32	1288.17
447.53	1310.70
447.73	1284.08
447.93	1269.74
448.14	1282.03
448.34	1294.32
448.55	1239.02
448.75	1288.17
448.96	1310.70
449.16	1265.64
449.36	1255.40
449.57	1265.64
449.77	1320.94
449.98	1318.89
450.18	1273.84
450.39	1251.31
450.59	1282.03
450.79	1228.78
451.00	1275.88
451.20	1243.12
451.41	1218.54
451.61	1243.12
451.81	1269.74
452.02	1279.98
452.22	1327.08
452.43	1241.07
452.63	1220.59
452.84	1376.24
453.04	1304.56
453.24	1366.00
453.45	1343.47
453.65	1279.98
453.86	1316.84
454.06	1198.06
454.26	1306.60
454.47	1284.08
454.67	1290.22
454.87	1181.68
455.08	1275.88
455.28	1232.88
455.49	1249.26
455.69	1179.63
455.89	1261.55
456.10	1257.45
456.30	1292.27
456.51	1277.93
456.71	1286.12
456.91	1253.36
457.12	1347.56
457.32	1275.88
457.52	1329.13
457.73	1286.12
457.93	1329.13
458.14	1259.50
458.34	1310.70
458.54	1292.27
458.75	1251.31
458.95	1292.27
459.15	1261.55
459.36	1288.17
459.56	1277.93
459.76	1380.33
459.97	1294.32
460.17	1314.80
460.37	1300.46
460.58	1294.32
460.78	1241.07
460.99	1247.21
461.19	1290.22
461.39	1304.56
461.60	1298.41
461.80	1271.79
462.00	1261.55
462.21	1306.60
462.41	1239.02
462.61	1329.13
462.82	1279.98
463.02	1282.03
463.22	1259.50
463.43	1294.32
463.63	1232.88
463.83	1249.26
464.04	1261.55
464.24	1218.54
464.44	1245.16
464.64	1253.36
464.85	1241.07
465.05	1277.93
465.25	1300.46
465.46	1249.26
465.66	1320.94
465.86	1214.45
466.07	1263.60
466.27	1284.08
466.47	1249.26
466.68	1273.84
466.88	1286.12
467.08	1302.51
467.29	1265.64
467.49	1245.16
467.69	1339.37
467.89	1277.93
468.10	1273.84
468.30	1269.74
468.50	1282.03
468.71	1290.22
468.91	1245.16
469.11	1296.36
469.31	1296.36
469.52	1265.64
469.72	1261.55
469.92	1286.12
470.13	1310.70
470.33	1294.32
470.53	1284.08
470.73	1288.17
470.94	1232.88
471.14	1239.02
471.34	1253.36
471.54	1243.12
471.75	1265.64
471.95	1279.98
472.15	1308.65
472.36	1265.64
472.56	1308.65
472.76	1306.60
472.96	1316.84
473.17	1318.89
473.37	1263.60
473.57	1298.41
473.77	1222.64
473.98	1288.17
474.18	1331.18
474.38	1232.88
474.58	1257.45
474.79	1310.70
474.99	1263.60
475.19	1253.36
475.39	1226.73
475.60	1247.21
475.80	1314.80
476.00	1304.56
476.20	1282.03
476.41	1333.23
476.61	1216.49
476.81	1198.06
477.01	1236.97
477.21	1218.54
477.42	1243.12
477.62	1239.02
477.82	1245.16
478.02	1245.16
478.23	1230.83
478.43	1241.07
478.63	1284.08
478.83	1232.88
479.03	1253.36
479.24	1218.54
479.44	1343.47
479.64	1249.26
479.84	1277.93
480.04	1257.45
480.25	1292.27
480.45	1310.70
480.65	1239.02
480.85	1261.55
481.06	1308.65
481.26	1239.02
481.46	1183.73
481.66	1243.12
481.86	1241.07
482.06	1204.21
482.27	1236.97
482.47	1245.16
482.67	1222.64
482.87	1298.41
483.07	1322.99
483.28	1312.75
483.48	1261.55
483.68	1253.36
483.88	1200.11
484.08	1292.27
484.29	1292.27
484.49	1284.08
484.69	1220.59
484.89	1261.55
485.09	1275.88
485.29	1298.41
485.50	1261.55
485.70	1247.21
485.90	1239.02
486.10	1314.80
486.30	1314.80
486.50	1236.97
486.71	1339.37
486.91	1308.65
487.11	1273.84
487.31	1247.21
487.51	1312.75
487.71	1275.88
487.91	1234.93
488.12	1298.41
488.32	1273.84
488.52	1214.45
488.72	1339.37
488.92	1251.31
489.12	1224.69
489.32	1265.64
489.53	1222.64
489.73	1349.61
489.93	1282.03
490.13	1306.60
490.33	1351.66
490.53	1247.21
490.73	1314.80
490.94	1331.18
491.14	1259.50
491.34	1269.74
491.54	1232.88
491.74	1286.12
491.94	1269.74
492.14	1261.55
492.34	1320.94
492.54	1232.88
492.75	1312.75
492.95	1327.08
493.15	1310.70
493.35	1312.75
493.55	1345.52
493.75	1288.17
493.95	1320.94
494.15	1241.07
494.35	1251.31
494.56	1271.79
494.76	1273.84
494.96	1275.88
495.16	1290.22
495.36	1279.98
495.56	1232.88
495.76	1300.46
495.96	1310.70
496.16	1265.64
496.36	1308.65
496.56	1265.64
496.77	1314.80
496.97	1288.17
497.17	1224.69
497.37	1304.56
497.57	1310.70
497.77	1224.69
497.97	1275.88
498.17	1286.12
498.37	1277.93
498.57	1230.83
498.77	1257.45
498.97	1255.40
499.17	1232.88
499.38	1171.44
499.58	1286.12
499.78	1302.51
499.98	1284.08
500.18	1306.60
500.38	1331.18
500.58	1304.56
500.78	1265.64
500.98	1263.60
501.18	1257.45
501.38	1275.88
501.58	1275.88
501.78	1261.55
501.98	1279.98
502.18	1212.40
502.38	1288.17
502.58	1253.36
502.78	1337.32
502.98	1239.02
503.18	1370.09
503.38	1275.88
503.59	1251.31
503.79	1253.36
503.99	1302.51
504.19	1308.65
504.39	1226.73
504.59	1286.12
504.79	1357.80
504.99	1245.16
505.19	1269.74
505.39	1290.22
505.59	1257.45
505.79	1255.40
505.99	1230.83
506.19	1282.03
506.39	1261.55
506.59	1282.03
506.79	1308.65
506.99	1337.32
507.19	1273.84
507.39	1263.60
507.59	1239.02
507.79	1322.99
507.99	1279.98
508.19	1196.01
508.39	1294.32
508.59	1218.54
508.79	1337.32
508.99	1286.12
509.19	1304.56
509.39	1306.60
509.59	1404.91
509.79	1261.55
509.99	1312.75
510.19	1257.45
510.39	1331.18
510.59	1243.12
510.79	1279.98
510.99	1247.21
511.19	1228.78
511.39	1214.45
511.59	1320.94
511.79	1304.56
511.99	1161.20
512.19	1294.32
512.38	1202.16
512.58	1273.84
512.78	1282.03
512.98	1282.03
513.18	1284.08
513.38	1275.88
513.58	1339.37
513.78	1245.16
513.98	1284.08
514.18	1247.21
514.38	1265.64
514.58	1273.84
514.78	1273.84
514.98	1325.04
515.18	1322.99
515.38	1310.70
515.58	1284.08
515.78	1236.97
515.98	1304.56
516.18	1271.79
516.38	1294.32
516.57	1232.88
516.77	1275.88
516.97	1304.56
517.17	1320.94
517.37	1261.55
517.57	1222.64
517.77	1251.31
517.97	1247.21
518.17	1187.82
518.37	1320.94
518.57	1265.64
518.77	1224.69
518.97	1288.17
519.16	1277.93
519.36	1245.16
519.56	1279.98
519.76	1366.00
519.96	1251.31
520.16	1208.30
520.36	1259.50
520.56	1232.88
520.76	1269.74
520.96	1257.45
521.16	1284.08
521.35	1271.79
521.55	1269.74
521.75	1255.40
521.95	1239.02
522.15	1222.64
522.35	1286.12
522.55	1265.64
522.75	1316.84
522.95	1261.55
523.14	1322.99
523.34	1300.46
523.54	1284.08
523.74	1249.26
523.94	1263.60
524.14	1290.22
524.34	1224.69
524.54	1314.80
524.73	1263.60
524.93	1228.78
525.13	1310.70
525.33	1226.73
525.53	1253.36
525.73	1329.13
525.93	1308.65
526.13	1263.60
526.32	1335.28
526.52	1236.97
526.72	1232.88
526.92	1275.88
527.12	1249.26
527.32	1333.23
527.52	1253.36
527.71	1257.45
527.91	1220.59
528.11	1286.12
528.31	1241.07
528.51	1253.36
528.71	1335.28
528.90	1290.22
529.10	1368.04
529.30	1263.60
529.50	1269.74
529.70	1292.27
529.90	1267.69
530.09	1282.03
530.29	1359.85
530.49	1316.84
530.69	1282.03
530.89	1236.97
531.09	1333.23
531.28	1249.26
531.48	1312.75
531.68	1257.45
531.88	1282.03
532.08	1320.94
532.28	1331.18
532.47	1255.40
532.67	1282.03
532.87	1263.60
533.07	1239.02
533.27	1304.56
533.46	1294.32
533.66	1327.08
533.86	1245.16
534.06	1329.13
534.26	1214.45
534.45	1251.31
534.65	1222.64
534.85	1263.60
535.05	1370.09
535.25	1286.12
535.44	1251.31
535.64	1277.93
535.84	1314.80
536.04	1249.26
536.24	1318.89
536.43	1253.36
536.63	1284.08
536.83	1300.46
537.03	1312.75
537.22	1322.99
537.42	1275.88
537.62	1275.88
537.82	1310.70
538.02	1298.41
538.21	1298.41
538.41	1265.64
538.61	1290.22
538.81	1222.64
539.00	1187.82
539.20	1286.12
539.40	1304.56
539.60	1234.93
539.79	1341.42
539.99	1343.47
540.19	1292.27
540.39	1241.07
540.58	1292.27
540.78	1300.46
540.98	1241.07
541.18	1351.66
541.37	1263.60
541.57	1241.07
541.77	1331.18
541.97	1306.60
542.16	1306.60
542.36	1322.99
542.56	1302.51
542.76	1269.74
542.95	1308.65
543.15	1298.41
543.35	1329.13
543.54	1257.45
543.74	1296.36
543.94	1216.49
544.14	1329.13
544.33	1239.02
544.53	1259.50
544.73	1271.79
544.93	1306.60
545.12	1220.59
545.32	1320.94
545.52	1259.50
545.71	1273.84
545.91	1206.25
546.11	1279.98
546.30	1236.97
546.50	1302.51
546.70	1292.27
546.90	1253.36
547.09	1265.64
547.29	1271.79
547.49	1325.04
547.68	1329.13
547.88	1247.21
548.08	1325.04
548.27	1331.18
548.47	1208.30
548.67	1263.60
548.87	1347.56
549.06	1239.02
549.26	1318.89
549.46	1236.97
549.65	1331.18
549.85	1234.93
550.05	1349.61
550.24	1230.83
550.44	1224.69
550.64	1249.26
550.83	1290.22
551.03	1318.89
551.23	1263.60
551.42	1370.09
551.62	1312.75
551.82	1271.79
552.01	1253.36
552.21	1351.66
552.41	1288.17
552.60	1286.12
552.80	1279.98
553.00	1320.94
553.19	1243.12
553.39	1249.26
553.59	1294.32
553.78	1206.25
553.98	1282.03
554.17	1216.49
554.37	1308.65
554.57	1232.88
554.76	1243.12
554.96	1249.26
555.16	1267.69
555.35	1298.41
555.55	1243.12
555.75	1257.45
555.94	1335.28
556.14	1239.02
556.33	1282.03
556.53	1261.55
556.73	1322.99
556.92	1329.13
557.12	1306.60
557.32	1251.31
557.51	1304.56
557.71	1310.70
557.90	1296.36
558.10	1314.80
558.30	1347.56
558.49	1300.46
558.69	1304.56
558.88	1304.56
559.08	1296.36
559.28	1224.69
559.47	1282.03
559.67	1265.64
559.86	1234.93
560.06	1183.73
560.26	1275.88
560.45	1288.17
560.65	1265.64
560.84	1251.31
561.04	1386.47
561.24	1296.36
561.43	1265.64
561.63	1316.84
561.82	1310.70
562.02	1243.12
562.22	1308.65
562.41	1351.66
562.61	1282.03
562.80	1257.45
563.00	1329.13
563.19	1284.08
563.39	1236.97
563.59	1273.84
563.78	1322.99
563.98	1253.36
564.17	1292.27
564.37	1255.40
564.56	1275.88
564.76	1308.65
564.96	1286.12
565.15	1306.60
565.35	1236.97
565.54	1343.47
565.74	1335.28
565.93	1241.07
566.13	1230.83
566.32	1234.93
566.52	1345.52
566.71	1333.23
566.91	1314.80
567.11	1341.42
567.30	1337.32
567.50	1282.03
567.69	1286.12
567.89	1335.28
568.08	1271.79
568.28	1267.69
568.47	1327.08
568.67	1298.41
568.86	1214.45
569.06	1277.93
569.25	1298.41
569.45	1286.12
569.64	1310.70
569.84	1308.65
570.04	1294.32
570.23	1253.36
570.43	1290.22
570.62	1273.84
570.82	1249.26
571.01	1308.65
571.21	1302.51
571.40	1355.76
571.60	1230.83
571.79	1251.31
571.99	1245.16
572.18	1300.46
572.38	1314.80
572.57	1247.21
572.77	1202.16
572.96	1306.60
573.16	1333.23
573.35	1261.55
573.55	1351.66
573.74	1322.99
573.94	1322.99
574.13	1261.55
574.33	1255.40
574.52	1265.64
574.71	1247.21
574.91	1316.84
575.10	1257.45
575.30	1183.73
575.49	1282.03
575.69	1304.56
575.88	1208.30
576.08	1183.73
576.27	1271.79
576.47	1288.17
576.66	1329.13
576.86	1269.74
577.05	1312.75
577.25	1292.27
577.44	1228.78
577.64	1279.98
577.83	1269.74
578.02	1216.49
578.22	1249.26
578.41	1306.60
578.61	1259.50
578.80	1267.69
579.00	1327.08
579.19	1335.28
579.39	1294.32
579.58	1341.42
579.77	1296.36
579.97	1222.64
580.16	1310.70
580.36	1249.26
580.55	1339.37
580.75	1261.55
580.94	1196.01
581.13	1329.13
581.33	1277.93
581.52	1253.36
581.72	1277.93
581.91	1263.60
582.11	1230.83
582.30	1347.56
582.49	1329.13
582.69	1302.51
582.88	1353.71
583.08	1329.13
583.27	1302.51
583.47	1279.98
583.66	1265.64
583.85	1210.35
584.05	1314.80
584.24	1269.74
584.44	1271.79
584.63	1253.36
584.82	1300.46
585.02	1314.80
585.21	1298.41
585.41	1294.32
585.60	1302.51
585.79	1234.93
585.99	1255.40
586.18	1243.12
586.37	1234.93
586.57	1259.50
586.76	1312.75
586.96	1353.71
587.15	1216.49
587.34	1308.65
587.54	1257.45
587.73	1273.84
587.93	1282.03
588.12	1243.12
588.31	1304.56
588.51	1288.17
588.70	1290.22
588.89	1320.94
589.09	1253.36
589.28	1288.17
589.47	1275.88
589.67	1294.32
589.86	1239.02
590.06	1292.27
590.25	1247.21
590.44	1224.69
590.64	1312.75
590.83	1232.88
591.02	1298.41
591.22	1308.65
591.41	1249.26
591.60	1331.18
591.80	1292.27
591.99	1302.51
592.18	1286.12
592.38	1294.32
592.57	1265.64
592.76	1294.32
592.96	1286.12
593.15	1247.21
593.34	1363.95
593.54	1294.32
593.73	1279.98
593.92	1292.27
594.12	1304.56
594.31	1253.36
594.50	1239.02
594.70	1247.21
594.89	1341.42
595.08	1302.51
595.28	1351.66
595.47	1279.98
595.66	1245.16
595.86	1243.12
596.05	1261.55
596.24	1232.88
596.43	1312.75
596.63	1245.16
596.82	1284.08
597.01	1290.22
597.21	1314.80
597.40	1245.16
597.59	1331.18
597.79	1368.04
597.98	1318.89
598.17	1226.73
598.36	1322.99
598.56	1331.18
598.75	1275.88
598.94	1314.80
599.14	1277.93
599.33	1284.08
599.52	1271.79
599.71	1372.14
599.91	1318.89
600.10	1267.69
600.29	1236.97
600.48	1271.79
600.68	1306.60
600.87	1269.74
601.06	1327.08
601.26	1310.70
601.45	1255.40
601.64	1296.36
601.83	1320.94
602.03	1234.93
602.22	1230.83
602.41	1327.08
602.60	1230.83
602.80	1333.23
602.99	1279.98
603.18	1288.17
603.37	1265.64
603.57	1282.03
603.76	1368.04
603.95	1286.12
604.14	1320.94
604.34	1316.84
604.53	1241.07
604.72	1312.75
604.91	1269.74
605.10	1298.41
605.30	1273.84
605.49	1290.22
605.68	1273.84
605.87	1277.93
606.07	1294.32
606.26	1267.69
606.45	1212.40
606.64	1253.36
606.84	1271.79
607.03	1292.27
607.22	1206.25
607.41	1300.46
607.60	1288.17
607.80	1277.93
607.99	1282.03
608.18	1298.41
608.37	1259.50
608.56	1234.93
608.76	1306.60
608.95	1290.22
609.14	1253.36
609.33	1249.26
609.52	1273.84
609.72	1216.49
609.91	1341.42
610.10	1333.23
610.29	1275.88
610.48	1300.46
610.68	1220.59
610.87	1269.74
611.06	1310.70
611.25	1318.89
611.44	1290.22
611.63	1230.83
611.83	1273.84
612.02	1273.84
612.21	1241.07
612.40	1277.93
612.59	1273.84
612.79	1265.64
612.98	1316.84
613.17	1327.08
613.36	1290.22
613.55	1251.31
613.74	1306.60
613.93	1271.79
614.13	1304.56
614.32	1304.56
614.51	1265.64
614.70	1271.79
614.89	1282.03
615.08	1347.56
615.28	1302.51
615.47	1267.69
615.66	1224.69
615.85	1228.78
616.04	1343.47
616.23	1288.17
616.42	1224.69
616.62	1284.08
616.81	1212.40
617.00	1212.40
617.19	1191.92
617.38	1318.89
617.57	1263.60
617.76	1294.32
617.95	1257.45
618.15	1239.02
618.34	1298.41
618.53	1236.97
618.72	1298.41
618.91	1249.26
619.10	1300.46
619.29	1261.55
619.48	1282.03
619.68	1327.08
619.87	1320.94
620.06	1284.08
620.25	1312.75
620.44	1333.23
620.63	1318.89
620.82	1351.66
621.01	1259.50
621.20	1259.50
621.39	1308.65
621.59	1353.71
621.78	1257.45
621.97	1245.16
622.16	1304.56
622.35	1296.36
622.54	1306.60
622.73	1290.22
622.92	1325.04
623.11	1214.45
623.30	1337.32
623.49	1247.21
623.68	1322.99
623.88	1337.32
624.07	1300.46
624.26	1257.45
624.45	1413.10
624.64	1273.84
624.83	1292.27
625.02	1253.36
625.21	1277.93
625.40	1329.13
625.59	1386.47
625.78	1243.12
625.97	1325.04
626.16	1275.88
626.35	1341.42
626.54	1263.60
626.74	1331.18
626.93	1273.84
627.12	1314.80
627.31	1320.94
627.50	1277.93
627.69	1312.75
627.88	1351.66
628.07	1253.36
628.26	1279.98
628.45	1327.08
628.64	1294.32
628.83	1292.27
629.02	1298.41
629.21	1316.84
629.40	1329.13
629.59	1271.79
629.78	1277.93
629.97	1273.84
630.16	1306.60
630.35	1322.99
630.54	1269.74
630.73	1308.65
630.92	1294.32
631.11	1333.23
631.30	1333.23
631.49	1368.04
631.68	1349.61
631.87	1495.02
632.06	1587.18
632.25	1495.02
632.44	1591.27
632.63	1681.38
632.82	2045.92
633.01	3209.17
633.20	3069.91
633.39	2897.88
633.58	2129.89
633.77	2187.23
633.96	2734.04
634.15	3909.57
634.34	3829.70
634.53	2940.88
634.72	2199.52
634.91	1785.83
635.10	1748.97
635.29	1605.61
635.48	1554.41
635.67	1490.92
635.86	1470.44
636.05	1441.77
636.24	1359.85
636.43	1447.91
636.62	1366.00
636.81	1300.46
637.00	1417.19
637.19	1341.42
637.38	1353.71
637.57	1294.32
637.76	1409.00
637.95	1374.19
638.14	1345.52
638.33	1316.84
638.52	1277.93
638.71	1322.99
638.89	1284.08
639.08	1265.64
639.27	1316.84
639.46	1239.02
639.65	1288.17
639.84	1284.08
640.03	1249.26
640.22	1290.22
640.41	1304.56
640.60	1298.41
640.79	1298.41
640.98	1357.80
641.17	1282.03
641.36	1316.84
641.55	1298.41
641.74	1275.88
641.92	1290.22
642.11	1228.78
642.30	1234.93
642.49	1310.70
642.68	1247.21
642.87	1282.03
643.06	1249.26
643.25	1259.50
643.44	1288.17
643.63	1251.31
643.82	1308.65
644.00	1265.64
644.19	1255.40
644.38	1200.11
644.57	1247.21
644.76	1337.32
644.95	1265.64
645.14	1255.40
645.33	1298.41
645.52	1322.99
645.71	1347.56
645.89	1353.71
646.08	1269.74
646.27	1300.46
646.46	1220.59
646.65	1247.21
646.84	1343.47
647.03	1241.07
647.22	1320.94
647.40	1245.16
647.59	1179.63
647.78	1267.69
647.97	1255.40
648.16	1251.31
648.35	1232.88
648.54	1284.08
648.73	1290.22
648.91	1296.36
649.10	1314.80
649.29	1259.50
649.48	1298.41
649.67	1306.60
649.86	1249.26
650.05	1312.75
650.23	1329.13
650.42	1302.51
650.61	1251.31
650.80	1245.16
650.99	1251.31
651.18	1308.65
651.36	1284.08
651.55	1318.89
651.74	1320.94
651.93	1241.07
652.12	1218.54
652.31	1255.40
652.49	1241.07
652.68	1277.93
652.87	1288.17
653.06	1206.25
653.25	1288.17
653.44	1294.32
653.62	1241.07
653.81	1234.93
654.00	1290.22
654.19	1267.69
654.38	1302.51
654.56	1253.36
654.75	1273.84
654.94	1273.84
655.13	1257.45
655.32	1263.60
655.51	1341.42
655.69	1263.60
655.88	1255.40
656.07	1286.12
656.26	1234.93
656.45	1259.50
656.63	1349.61
656.82	1179.63
657.01	1265.64
657.20	1284.08
657.38	1345.52
657.57	1325.04
657.76	1308.65
657.95	1236.97
658.14	1288.17
658.32	1218.54
658.51	1296.36
658.70	1234.93
658.89	1269.74
659.08	1302.51
659.26	1224.69
659.45	1185.77
659.64	1185.77
659.83	1298.41
660.01	1273.84
660.20	1277.93
660.39	1286.12
660.58	1292.27
660.76	1230.83
660.95	1263.60
661.14	1253.36
661.33	1224.69
661.51	1302.51
661.70	1247.21
661.89	1292.27
662.08	1318.89
662.26	1220.59
662.45	1236.97
662.64	1286.12
662.83	1241.07
663.01	1337.32
663.20	1275.88
663.39	1269.74
663.58	1218.54
663.76	1247.21
663.95	1251.31
664.14	1308.65
664.32	1198.06
664.51	1212.40
664.70	1312.75
664.89	1257.45
665.07	1259.50
665.26	1255.40
665.45	1265.64
665.64	1263.60
665.82	1218.54
666.01	1269.74
666.20	1234.93
666.38	1271.79
666.57	1263.60
666.76	1337.32
666.95	1269.74
667.13	1345.52
667.32	1296.36
667.51	1304.56
667.69	1304.56
667.88	1296.36
668.07	1279.98
668.25	1251.31
668.44	1249.26
668.63	1282.03
668.81	1275.88
669.00	1279.98
669.19	1333.23
669.38	1228.78
669.56	1253.36
669.75	1245.16
669.94	1279.98
670.12	1169.39
670.31	1284.08
670.50	1284.08
670.68	1292.27
670.87	1241.07
671.06	1290.22
671.24	1236.97
671.43	1290.22
671.62	1314.80
671.80	1294.32
671.99	1273.84
672.18	1298.41
672.36	1253.36
672.55	1257.45
672.74	1230.83
672.92	1290.22
673.11	1222.64
673.29	1247.21
673.48	1296.36
673.67	1298.41
673.85	1220.59
674.04	1300.46
674.23	1226.73
674.41	1253.36
674.60	1302.51
674.79	1288.17
674.97	1271.79
675.16	1255.40
675.34	1265.64
675.53	1243.12
675.72	1257.45
675.90	1331.18
676.09	1206.25
676.28	1347.56
676.46	1245.16
676.65	1284.08
676.83	1245.16
677.02	1257.45
677.21	1255.40
677.39	1214.45
677.58	1220.59
677.77	1308.65
677.95	1224.69
678.14	1251.31
678.32	1282.03
678.51	1310.70
678.70	1314.80
678.88	1277.93
679.07	1296.36
679.25	1277.93
679.44	1259.50
679.63	1308.65
679.81	1320.94
680.00	1331.18
680.18	1226.73
680.37	1257.45
680.55	1220.59
680.74	1288.17
680.93	1247.21
681.11	1257.45
681.30	1339.37
681.48	1273.84
681.67	1263.60
681.85	1253.36
682.04	1314.80
682.23	1234.93
682.41	1298.41
682.60	1249.26
682.78	1253.36
682.97	1261.55
683.15	1320.94
683.34	1239.02
683.53	1306.60
683.71	1251.31
683.90	1234.93
684.08	1333.23
684.27	1339.37
684.45	1382.38
684.64	1282.03
684.82	1279.98
685.01	1296.36
685.19	1329.13
685.38	1335.28
685.57	1286.12
685.75	1230.83
685.94	1257.45
686.12	1327.08
686.31	1273.84
686.49	1259.50
686.68	1277.93
686.86	1290.22
687.05	1286.12
687.23	1263.60
687.42	1339.37
687.60	1286.12
687.79	1282.03
687.97	1341.42
688.16	1261.55
688.34	1265.64
688.53	1263.60
688.71	1267.69
688.90	1275.88
689.08	1302.51
689.27	1277.93
689.45	1275.88
689.64	1218.54
689.82	1249.26
690.01	1279.98
690.19	1267.69
690.38	1310.70
690.56	1279.98
690.75	1296.36
690.93	1290.22
691.12	1239.02
691.30	1376.24
691.49	1259.50
691.67	1275.88
691.86	1232.88
692.04	1206.25
692.23	1222.64
692.41	1226.73
692.60	1257.45
692.78	1269.74
692.97	1214.45
693.15	1255.40
693.34	1257.45
693.52	1292.27
693.71	1271.79
693.89	1257.45
694.08	1288.17
694.26	1245.16
694.44	1185.77
694.63	1241.07
694.81	1298.41
695.00	1216.49
695.18	1294.32
695.37	1263.60
695.55	1261.55
695.74	1288.17
695.92	1208.30
696.10	1239.02
696.29	1210.35
696.47	1251.31
696.66	1286.12
696.84	1245.16
697.03	1239.02
697.21	1259.50
697.40	1386.47
697.58	1304.56
697.76	1269.74
697.95	1263.60
698.13	1290.22
698.32	1284.08
698.50	1308.65
698.68	1259.50
698.87	1196.01
699.05	1322.99
699.24	1292.27
699.42	1284.08
699.61	1243.12
699.79	1241.07
699.97	1333.23
700.16	1253.36
700.34	1273.84
700.53	1230.83
700.71	1243.12
700.89	1265.64
701.08	1196.01
701.26	1314.80
701.45	1294.32
701.63	1234.93
701.81	1302.51
702.00	1306.60
702.18	1257.45
702.37	1282.03
702.55	1228.78
702.73	1312.75
702.92	1263.60
703.10	1255.40
703.28	1200.11
703.47	1257.45
703.65	1232.88
703.84	1257.45
704.02	1286.12
704.20	1273.84
704.39	1230.83
704.57	1236.97
704.75	1269.74
704.94	1200.11
705.12	1253.36
705.30	1310.70
705.49	1298.41
705.67	1273.84
705.86	1245.16
706.04	1325.04
706.22	1271.79
706.41	1325.04
706.59	1286.12
706.77	1222.64
706.96	1249.26
707.14	1312.75
707.32	1288.17
707.51	1234.93
707.69	1228.78
707.87	1251.31
708.06	1320.94
708.24	1296.36
708.42	1306.60
708.61	1284.08
708.79	1269.74
708.97	1255.40
709.16	1243.12
709.34	1335.28
709.52	1239.02
709.71	1218.54
709.89	1298.41
710.07	1331.18
710.26	1282.03
710.44	1314.80
710.62	1257.45
710.80	1292.27
710.99	1245.16
711.17	1222.64
711.35	1251.31
711.54	1269.74
711.72	1269.74
711.90	1284.08
712.09	1277.93
712.27	1265.64
712.45	1290.22
712.63	1308.65
712.82	1206.25
713.00	1241.07
713.18	1271.79
713.37	1298.41
713.55	1296.36
713.73	1282.03
713.91	1304.56
714.10	1282.03
714.28	1228.78
714.46	1279.98
714.65	1245.16
714.83	1247.21
715.01	1271.79
715.19	1208.30
715.38	1282.03
715.56	1239.02
715.74	1253.36
715.92	1335.28
716.11	1253.36
716.29	1218.54
716.47	1251.31
716.65	1275.88
716.84	1320.94
717.02	1220.59
717.20	1228.78
717.38	1306.60
717.57	1302.51
717.75	1212.40
717.93	1292.27
718.11	1265.64
718.30	1241.07
718.48	1288.17
718.66	1222.64
718.84	1191.92
719.03	1314.80
719.21	1255.40
719.39	1236.97
719.57	1286.12
719.75	1312.75
719.94	1271.79
720.12	1312.75
720.30	1286.12
720.48	1259.50
720.67	1282.03
720.85	1247.21
721.03	1284.08
721.21	1224.69
721.39	1284.08
721.58	1318.89
721.76	1265.64
721.94	1337.32
722.12	1232.88
722.30	1232.88
722.49	1296.36
722.67	1302.51
722.85	1259.50
723.03	1339.37
723.21	1253.36
723.40	1271.79
723.58	1284.08
723.76	1318.89
723.94	1298.41
724.12	1288.17
724.30	1232.88
724.49	1312.75
724.67	1269.74
724.85	1308.65
725.03	1339.37
725.21	1210.35
725.40	1331.18
725.58	1204.21
725.76	1212.40
725.94	1286.12
726.12	1294.32
726.30	1261.55
726.49	1308.65
726.67	1320.94
726.85	1300.46
727.03	1257.45
727.21	1251.31
727.39	1279.98
727.57	1259.50
727.76	1263.60
727.94	1300.46
728.12	1218.54
728.30	1273.84
728.48	1220.59
728.66	1230.83
728.84	1304.56
729.03	1277.93
729.21	1267.69
729.39	1339.37
729.57	1288.17
729.75	1253.36
729.93	1267.69
730.11	1249.26
730.30	1232.88
730.48	1275.88
730.66	1314.80
730.84	1292.27
731.02	1234.93
731.20	1325.04
731.38	1286.12
731.56	1288.17
731.74	1261.55
731.93	1226.73
732.11	1298.41
732.29	1255.40
732.47	1273.84
732.65	1249.26
732.83	1202.16
733.01	1298.41
733.19	1241.07
733.37	1279.98
733.56	1220.59
733.74	1267.69
733.92	1286.12
734.10	1310.70
734.28	1261.55
734.46	1232.88
734.64	1304.56
734.82	1282.03
735.00	1290.22
735.18	1314.80
735.36	1261.55
735.54	1236.97
735.73	1322.99
735.91	1327.08
736.09	1249.26
736.27	1320.94
736.45	1230.83
736.63	1193.97
736.81	1245.16
736.99	1226.73
737.17	1259.50
737.35	1239.02
737.53	1261.55
737.71	1232.88
737.89	1234.93
738.07	1265.64
738.25	1251.31
738.43	1331.18
738.61	1200.11
738.80	1261.55
738.98	1261.55
739.16	1259.50
739.34	1218.54
739.52	1290.22
739.70	1257.45
739.88	1243.12
740.06	1290.22
740.24	1247.21
740.42	1247.21
740.60	1236.97
740.78	1257.45
740.96	1232.88
741.14	1277.93
741.32	1243.12
741.50	1202.16
741.68	1232.88
741.86	1263.60
742.04	1261.55
742.22	1267.69
742.40	1241.07
742.58	1331.18
742.76	1206.25
742.94	1275.88
743.12	1222.64
743.30	1308.65
743.48	1255.40
743.66	1253.36
743.84	1329.13
744.02	1286.12
744.20	1243.12
744.38	1277.93
744.56	1247.21
744.74	1265.64
744.92	1314.80
745.10	1296.36
745.28	1333.23
745.46	1232.88
745.64	1234.93
745.82	1241.07
746.00	1284.08
746.18	1265.64
746.36	1222.64
746.54	1275.88
746.72	1271.79
746.90	1304.56
747.08	1286.12
747.26	1251.31
747.44	1228.78
747.62	1265.64
747.80	1282.03
747.98	1153.01
748.15	1271.79
748.33	1279.98
748.51	1257.45
748.69	1347.56
748.87	1247.21
749.05	1300.46
749.23	1275.88
749.41	1255.40
749.59	1241.07
749.77	1273.84
749.95	1247.21
750.13	1300.46
750.31	1275.88
750.49	1302.51
750.67	1294.32
750.85	1329.13
751.03	1288.17
751.20	1269.74
751.38	1208.30
751.56	1259.50
751.74	1341.42
751.92	1304.56
752.10	1265.64
752.28	1271.79
752.46	1259.50
752.64	1220.59
752.82	1269.74
753.00	1273.84
753.18	1267.69
753.35	1290.22
753.53	1290.22
753.71	1316.84
753.89	1230.83
754.07	1206.25
754.25	1290.22
754.43	1267.69
754.61	1259.50
754.79	1249.26
754.97	1337.32
755.14	1265.64
755.32	1257.45
755.50	1273.84
755.68	1277.93
755.86	1277.93
756.04	1312.75
756.22	1241.07
756.40	1269.74
756.57	1241.07
756.75	1312.75
756.93	1224.69
757.11	1269.74
757.29	1255.40
757.47	1304.56
757.65	1243.12
757.82	1261.55
758.00	1234.93
758.18	1273.84
758.36	1255.40
758.54	1275.88
758.72	1259.50
758.90	1249.26
759.07	1308.65
759.25	1267.69
759.43	1239.02
759.61	1271.79
759.79	1304.56
759.97	1239.02
760.15	1269.74
760.32	1234.93
760.50	1294.32
760.68	1236.97
760.86	1312.75
761.04	1279.98
761.22	1239.02
761.39	1273.84
761.57	1226.73
761.75	1341.42
761.93	1294.32
762.11	1271.79
762.28	1228.78
762.46	1282.03
762.64	1228.78
762.82	1265.64
763.00	1241.07
763.18	1220.59
763.35	1300.46
763.53	1241.07
763.71	1222.64
763.89	1273.84
764.07	1232.88
764.24	1224.69
764.42	1196.01
764.60	1265.64
764.78	1212.40
764.96	1277.93
765.13	1277.93
765.31	1241.07
765.49	1243.12
765.67	1304.56
765.84	1294.32
766.02	1322.99
766.20	1253.36
766.38	1206.25
766.56	1267.69
766.73	1329.13
766.91	1282.03
767.09	1251.31
767.27	1236.97
767.44	1230.83
767.62	1245.16
767.80	1269.74
767.98	1212.40
768.15	1310.70
768.33	1325.04
768.51	1269.74
768.69	1290.22
768.87	1304.56
769.04	1249.26
769.22	1265.64
769.40	1241.07
769.58	1265.64
769.75	1294.32
769.93	1355.76
770.11	1222.64
770.28	1273.84
770.46	1355.76
770.64	1320.94
770.82	1230.83
770.99	1327.08
771.17	1261.55
771.35	1294.32
771.53	1298.41
771.70	1282.03
771.88	1251.31
772.06	1325.04
772.23	1279.98
772.41	1247.21
772.59	1236.97
772.77	1232.88
772.94	1241.07
773.12	1357.80
773.30	1208.30
773.47	1218.54
773.65	1279.98
773.83	1316.84
774.01	1212.40
774.18	1333.23
774.36	1271.79
774.54	1327.08
774.71	1298.41
774.89	1355.76
775.07	1279.98
775.24	1212.40
775.42	1249.26
775.60	1296.36
775.78	1355.76
775.95	1269.74
776.13	1279.98
776.31	1245.16
776.48	1214.45
776.66	1316.84
776.84	1214.45
777.01	1259.50
777.19	1243.12
777.37	1251.31
777.54	1228.78
777.72	1251.31
777.90	1298.41
778.07	1216.49
778.25	1310.70
778.43	1294.32
778.60	1148.91
778.78	1329.13
778.96	1277.93
779.13	1290.22
779.31	1253.36
779.49	1294.32
779.66	1306.60
779.84	1257.45
780.01	1294.32
780.19	1249.26
780.37	1292.27
780.54	1269.74
780.72	1239.02
780.90	1249.26
781.07	1239.02
781.25	1236.97
781.43	1249.26
781.60	1327.08
781.78	1294.32
781.95	1308.65
782.13	1234.93
782.31	1232.88
782.48	1290.22
782.66	1245.16
782.83	1296.36
783.01	1218.54
783.19	1265.64
783.36	1273.84
783.54	1241.07
783.72	1232.88
783.89	1304.56
784.07	1290.22
784.24	1228.78
784.42	1312.75
784.60	1304.56
784.77	1206.25
784.95	1282.03
785.12	1226.73
785.30	1193.97
785.47	1294.32
785.65	1296.36
785.83	1253.36
786.00	1273.84
786.18	1196.01
786.35	1331.18
786.53	1290.22
786.71	1290.22
786.88	1212.40
787.06	1316.84
787.23	1290.22
787.41	1290.22
787.58	1249.26
787.76	1257.45
787.94	1318.89
788.11	1171.44
788.29	1265.64
788.46	1290.22
788.64	1230.83
788.81	1286.12
788.99	1226.73
789.16	1222.64
789.34	1255.40
789.52	1314.80
789.69	1269.74
789.87	1216.49
790.04	1308.65
790.22	1243.12
790.39	1304.56
790.57	1226.73
790.74	1234.93
790.92	1267.69
791.09	1300.46
791.27	1257.45
791.44	1288.17
791.62	1239.02
791.79	1263.60
791.97	1271.79
792.15	1269.74
792.32	1288.17
792.50	1265.64
792.67	1353.71
792.85	1222.64
793.02	1279.98
793.20	1200.11
793.37	1269.74
793.55	1279.98
793.72	1265.64
793.90	1228.78
794.07	1196.01
794.25	1245.16
794.42	1234.93
794.60	1243.12
794.77	1234.93
794.95	1232.88
795.12	1296.36
795.30	1300.46
795.47	1265.64
795.65	1284.08
795.82	1247.21
796.00	1224.69
796.17	1288.17
796.34	1261.55
796.52	1249.26
796.69	1294.32
796.87	1234.93
797.04	1243.12
797.22	1312.75
797.39	1206.25
797.57	1335.28
797.74	1265.64
797.92	1187.82
798.09	1273.84
798.27	1208.30
798.44	1261.55
798.62	1275.88
798.79	1316.84
798.96	1304.56
799.14	1243.12
799.31	1275.88
799.49	1300.46
799.66	1140.72
799.84	1273.84
800.01	1282.03
800.19	1294.32
800.36	1226.73
800.53	1236.97
800.71	1316.84
800.88	1261.55
801.06	1343.47
801.23	1322.99
801.41	1236.97
801.58	1312.75
801.75	1247.21
801.93	1269.74
802.10	1310.70
802.28	1322.99
802.45	1296.36
802.63	1310.70
802.80	1241.07
802.97	1239.02
803.15	1220.59
803.32	1224.69
803.50	1300.46
803.67	1239.02
803.84	1191.92
804.02	1251.31
804.19	1243.12
804.37	1275.88
804.54	1236.97
804.71	1353.71
804.89	1282.03
805.06	1279.98
805.24	1255.40
805.41	1243.12
805.58	1288.17
805.76	1247.21
805.93	1282.03
806.10	1329.13
806.28	1265.64
806.45	1204.21
806.63	1288.17
806.80	1265.64
806.97	1284.08
807.15	1222.64
807.32	1243.12
807.49	1292.27
807.67	1243.12
807.84	1294.32
808.01	1239.02
808.19	1228.78
808.36	1251.31
808.54	1255.40
808.71	1232.88
808.88	1257.45
809.06	1306.60
809.23	1218.54
809.40	1234.93
809.58	1263.60
809.75	1224.69
809.92	1220.59
810.10	1245.16
810.27	1273.84
810.44	1220.59
810.62	1320.94
810.79	1325.04
810.96	1306.60
811.14	1288.17
811.31	1245.16
811.48	1230.83
811.66	1253.36
811.83	1243.12
812.00	1331.18
812.18	1212.40
812.35	1290.22
812.52	1277.93
812.69	1314.80
812.87	1275.88
813.04	1232.88
813.21	1310.70
813.39	1210.35
813.56	1200.11
813.73	1288.17
813.91	1290.22
814.08	1335.28
814.25	1269.74
814.42	1320.94
814.60	1327.08
814.77	1308.65
814.94	1279.98
815.12	1253.36
815.29	1255.40
815.46	1228.78
815.63	1236.97
815.81	1273.84
815.98	1302.51
816.15	1286.12
816.33	1298.41
816.50	1208.30
816.67	1318.89
816.84	1325.04
817.02	1318.89
817.19	1288.17
817.36	1267.69
817.53	1191.92
817.71	1275.88
817.88	1267.69
818.05	1284.08
818.22	1241.07
818.40	1308.65
818.57	1222.64
818.74	1257.45
818.91	1296.36
819.09	1347.56
819.26	1279.98
819.43	1253.36
819.60	1234.93
819.78	1320.94
819.95	1298.41
820.12	1241.07
820.29	1255.40
820.47	1275.88
820.64	1214.45
820.81	1218.54
820.98	1294.32
821.15	1247.21
821.33	1316.84
821.50	1234.93
821.67	1308.65
821.84	1257.45
822.02	1314.80
822.19	1271.79
822.36	1343.47
822.53	1255.40
822.70	1277.93
822.88	1337.32
823.05	1298.41
823.22	1259.50
823.39	1236.97
823.56	1249.26
823.74	1271.79
823.91	1310.70
824.08	1286.12
824.25	1269.74
824.42	1304.56
824.60	1245.16
824.77	1282.03
824.94	1234.93
825.11	1271.79
825.28	1232.88
825.45	1251.31
825.63	1271.79
825.80	1259.50
825.97	1290.22
826.14	1247.21
826.31	1318.89
826.48	1296.36
826.66	1292.27
826.83	1292.27
827.00	1193.97
827.17	1322.99
827.34	1292.27
827.51	1222.64
827.69	1263.60
827.86	1290.22
828.03	1150.96
828.20	1304.56
828.37	1290.22
828.54	1273.84
828.71	1265.64
828.89	1306.60
829.06	1269.74
829.23	1253.36
829.40	1277.93
829.57	1232.88
829.74	1253.36
829.91	1255.40
830.09	1306.60
830.26	1288.17
830.43	1302.51
830.60	1208.30
830.77	1232.88
830.94	1314.80
831.11	1269.74
831.28	1290.22
831.46	1255.40
831.63	1292.27
831.80	1265.64
831.97	1239.02
832.14	1257.45
832.31	1247.21
832.48	1325.04
832.65	1239.02
832.82	1234.93
832.99	1249.26
833.17	1239.02
833.34	1312.75
833.51	1322.99
833.68	1277.93
833.85	1306.60
834.02	1243.12
834.19	1243.12
834.36	1277.93
834.53	1218.54
834.70	1267.69
834.87	1208.30
835.04	1226.73
835.22	1284.08
835.39	1208.30
835.56	1269.74
835.73	1257.45
835.90	1296.36
836.07	1253.36
836.24	1314.80
836.41	1243.12
836.58	1208.30
836.75	1245.16
836.92	1284.08
837.09	1322.99
837.26	1228.78
837.43	1222.64
837.60	1306.60
837.77	1279.98
837.94	1306.60
838.12	1236.97
838.29	1257.45
838.46	1292.27
838.63	1179.63
838.80	1210.35
838.97	1253.36
839.14	1234.93
839.31	1226.73
839.48	1263.60
839.65	1257.45
839.82	1261.55
839.99	1265.64
840.16	1329.13
840.33	1216.49
840.50	1273.84
840.67	1269.74
840.84	1282.03
841.01	1273.84
841.18	1273.84
841.35	1275.88
841.52	1271.79
841.69	1304.56
841.86	1331.18
842.03	1308.65
842.20	1243.12
842.37	1302.51
842.54	1275.88
842.71	1210.35
842.88	1181.68
843.05	1263.60
843.22	1239.02
843.39	1200.11
843.56	1296.36
843.73	1327.08
843.90	1177.58
844.07	1232.88
844.24	1249.26
844.41	1286.12
844.58	1249.26
844.75	1271.79
844.92	1302.51
845.09	1284.08
845.26	1257.45
845.43	1265.64
845.60	1226.73
845.77	1224.69
845.94	1273.84
846.10	1208.30
846.27	1234.93
846.44	1253.36
846.61	1226.73
846.78	1286.12
846.95	1282.03
847.12	1239.02
847.29	1269.74
847.46	1263.60
847.63	1343.47
847.80	1267.69
847.97	1271.79
848.14	1216.49
848.31	1263.60
848.48	1169.39
848.65	1230.83
848.82	1249.26
848.98	1327.08
849.15	1226.73
849.32	1265.64
849.49	1251.31
849.66	1220.59
849.83	1294.32
850.00	1271.79
850.17	1230.83
850.34	1220.59
850.51	1247.21
850.68	1249.26
850.85	1325.04
851.01	1202.16
851.18	1296.36
851.35	1241.07
851.52	1243.12
851.69	1329.13
851.86	1259.50
852.03	1261.55
852.20	1312.75
852.37	1263.60
852.53	1269.74
852.70	1267.69
852.87	1241.07
853.04	1292.27
853.21	1267.69
853.38	1308.65
853.55	1282.03
853.72	1216.49
853.89	1282.03
854.05	1279.98
854.22	1263.60
854.39	1271.79
854.56	1251.31
854.73	1265.64
854.90	1265.64
855.07	1296.36
855.23	1294.32
855.40	1255.40
855.57	1261.55
855.74	1210.35
855.91	1308.65
856.08	1226.73
856.25	1273.84
856.41	1271.79
856.58	1206.25
856.75	1241.07
856.92	1257.45
857.09	1222.64
857.26	1284.08
857.42	1247.21
857.59	1255.40
857.76	1255.40
857.93	1312.75
858.10	1212.40
858.27	1290.22
858.43	1232.88
858.60	1245.16
858.77	1279.98
858.94	1216.49
859.11	1292.27
859.27	1239.02
859.44	1310.70
859.61	1279.98
859.78	1247.21
859.95	1247.21
860.12	1245.16
860.28	1222.64
860.45	1296.36
860.62	1329.13
860.79	1239.02
860.95	1245.16
861.12	1181.68
861.29	1302.51
861.46	1200.11
861.63	1271.79
861.79	1294.32
861.96	1259.50
862.13	1312.75
862.30	1236.97
862.47	1255.40
862.63	1310.70
862.80	1294.32
862.97	1286.12
863.14	1284.08
863.30	1282.03
863.47	1296.36
863.64	1263.60
863.81	1224.69
863.97	1273.84
864.14	1232.88
864.31	1232.88
864.48	1290.22
864.65	1269.74
864.81	1263.60
864.98	1239.02
865.15	1243.12
865.32	1265.64
865.48	1308.65
865.65	1271.79
865.82	1271.79
865.98	1230.83
866.15	1241.07
866.32	1226.73
866.49	1359.85
866.65	1316.84
866.82	1273.84
866.99	1234.93
867.16	1259.50
867.32	1204.21
867.49	1224.69
867.66	1353.71
867.83	1329.13
867.99	1306.60
868.16	1202.16
868.33	1204.21
868.49	1257.45
868.66	1279.98
868.83	1296.36
868.99	1277.93
869.16	1275.88
869.33	1282.03
869.50	1202.16
869.66	1261.55
869.83	1239.02
870.00	1191.92
870.16	1261.55
870.33	1183.73
870.50	1243.12
870.66	1298.41
870.83	1239.02
871.00	1259.50
871.17	1271.79
871.33	1224.69
871.50	1288.17
871.67	1308.65
871.83	1345.52
872.00	1261.55
872.17	1253.36
872.33	1222.64
872.50	1322.99
872.67	1245.16
872.83	1265.64
873.00	1261.55
873.17	1228.78
873.33	1282.03
873.50	1234.93
873.67	1247.21
873.83	1300.46
874.00	1255.40
874.16	1290.22
874.33	1320.94
874.50	1296.36
874.66	1298.41
874.83	1245.16
875.00	1366.00
875.16	1263.60
875.33	1243.12
875.50	1212.40
875.66	1224.69
875.83	1308.65
875.99	1290.22
876.16	1296.36
876.33	1261.55
876.49	1296.36
876.66	1275.88
876.83	1226.73
876.99	1150.96
877.16	1288.17
877.32	1273.84
877.49	1265.64
877.66	1279.98
877.82	1224.69
877.99	1216.49
878.15	1267.69
878.32	1290.22
878.49	1286.12
878.65	1255.40
878.82	1269.74
878.98	1312.75
879.15	1310.70
879.32	1249.26
879.48	1277.93
879.65	1255.40
879.81	1259.50
879.98	1196.01
880.15	1263.60
880.31	1302.51
880.48	1269.74
880.64	1222.64
880.81	1331.18
880.97	1271.79
881.14	1243.12
881.31	1275.88
881.47	1257.45
881.64	1294.32
881.80	1298.41
881.97	1249.26
882.13	1245.16
882.30	1218.54
882.47	1232.88
882.63	1245.16
882.80	1282.03
882.96	1257.45
883.13	1179.63
883.29	1257.45
883.46	1298.41
883.62	1296.36
883.79	1349.61
883.95	1243.12
884.12	1259.50
884.29	1243.12
884.45	1239.02
884.62	1253.36
884.78	1255.40
884.95	1243.12
885.11	1220.59
885.28	1204.21
885.44	1318.89
885.61	1165.29
885.77	1310.70
885.94	1236.97
886.10	1232.88
886.27	1318.89
886.43	1304.56
886.60	1257.45
886.76	1251.31
886.93	1288.17
887.09	1318.89
887.26	1277.93
887.42	1296.36
887.59	1282.03
887.75	1226.73
887.92	1316.84
888.08	1271.79
888.25	1279.98
888.41	1265.64
888.58	1308.65
888.74	1273.84
888.91	1236.97
>>>>>End Processed Spectral Data<<<<<
