SpectraSuite Data File
++++++++++++++++++++++++++++++++++++
Date: Sun Apr 03 19:55:14 CEST 2016
User: root
Dark Spectrum Present: No
Reference Spectrum Present: No
Number of Sampled Component Spectra: 1
Spectrometers: USB4C02835
Integration Time (usec): 10000 (USB4C02835)
Spectra Averaged: 1 (USB4C02835)
Boxcar Smoothing: 0 (USB4C02835)
Correct for Electrical Dark: No (USB4C02835)
Strobe/Lamp Enabled: No (USB4C02835)
Correct for Detector Non-linearity: No (USB4C02835)
Correct for Stray Light: No (USB4C02835)
Number of Pixels in Processed Spectrum: 3648
>>>>>Begin Processed Spectral Data<<<<<
177.47	1255.40
177.69	1255.40
177.91	1255.40
178.13	1265.64
178.36	1292.27
178.58	1261.55
178.80	1247.21
179.02	1245.16
179.24	1220.59
179.46	1304.56
179.68	1310.70
179.90	1286.12
180.13	1265.64
180.35	1269.74
180.57	1277.93
180.79	1261.55
181.01	1208.30
181.23	1226.73
181.45	1251.31
181.67	1282.03
181.90	1187.82
182.12	1218.54
182.34	1271.79
182.56	1286.12
182.78	1232.88
183.00	1249.26
183.22	1300.46
183.44	1277.93
183.66	1312.75
183.89	1277.93
184.11	1273.84
184.33	1259.50
184.55	1277.93
184.77	1275.88
184.99	1351.66
185.21	1257.45
185.43	1253.36
185.65	1331.18
185.87	1261.55
186.10	1265.64
186.32	1271.79
186.54	1214.45
186.76	1331.18
186.98	1202.16
187.20	1296.36
187.42	1249.26
187.64	1255.40
187.86	1302.51
188.08	1255.40
188.30	1284.08
188.52	1282.03
188.75	1245.16
188.97	1234.93
189.19	1243.12
189.41	1318.89
189.63	1216.49
189.85	1173.49
190.07	1306.60
190.29	1355.76
190.51	1224.69
190.73	1255.40
190.95	1282.03
191.17	1239.02
191.39	1245.16
191.61	1325.04
191.84	1314.80
192.06	1269.74
192.28	1234.93
192.50	1327.08
192.72	1275.88
192.94	1265.64
193.16	1257.45
193.38	1312.75
193.60	1218.54
193.82	1263.60
194.04	1232.88
194.26	1243.12
194.48	1255.40
194.70	1282.03
194.92	1277.93
195.14	1279.98
195.36	1236.97
195.58	1337.32
195.80	1273.84
196.02	1269.74
196.24	1271.79
196.46	1236.97
196.69	1331.18
196.91	1284.08
197.13	1204.21
197.35	1296.36
197.57	1279.98
197.79	1232.88
198.01	1257.45
198.23	1275.88
198.45	1298.41
198.67	1212.40
198.89	1304.56
199.11	1243.12
199.33	1269.74
199.55	1253.36
199.77	1218.54
199.99	1349.61
200.21	1279.98
200.43	1228.78
200.65	1288.17
200.87	1247.21
201.09	1216.49
201.31	1282.03
201.53	1273.84
201.75	1245.16
201.97	1218.54
202.19	1304.56
202.41	1296.36
202.63	1318.89
202.85	1236.97
203.07	1202.16
203.29	1292.27
203.51	1269.74
203.73	1300.46
203.95	1257.45
204.17	1282.03
204.39	1263.60
204.61	1232.88
204.83	1337.32
205.05	1222.64
205.27	1263.60
205.49	1310.70
205.71	1249.26
205.93	1241.07
206.15	1265.64
206.37	1210.35
206.59	1224.69
206.81	1271.79
207.03	1226.73
207.25	1247.21
207.47	1218.54
207.69	1296.36
207.91	1253.36
208.13	1214.45
208.34	1347.56
208.56	1337.32
208.78	1298.41
209.00	1202.16
209.22	1261.55
209.44	1236.97
209.66	1226.73
209.88	1265.64
210.10	1230.83
210.32	1337.32
210.54	1302.51
210.76	1366.00
210.98	1263.60
211.20	1286.12
211.42	1298.41
211.64	1191.92
211.86	1337.32
212.08	1284.08
212.30	1312.75
212.52	1245.16
212.74	1310.70
212.96	1220.59
213.17	1253.36
213.39	1232.88
213.61	1265.64
213.83	1232.88
214.05	1210.35
214.27	1277.93
214.49	1286.12
214.71	1206.25
214.93	1329.13
215.15	1282.03
215.37	1206.25
215.59	1247.21
215.81	1267.69
216.03	1230.83
216.24	1241.07
216.46	1224.69
216.68	1253.36
216.90	1259.50
217.12	1314.80
217.34	1314.80
217.56	1239.02
217.78	1302.51
218.00	1257.45
218.22	1173.49
218.44	1314.80
218.66	1273.84
218.87	1337.32
219.09	1314.80
219.31	1271.79
219.53	1177.58
219.75	1198.06
219.97	1282.03
220.19	1226.73
220.41	1265.64
220.63	1245.16
220.85	1185.77
221.06	1265.64
221.28	1300.46
221.50	1179.63
221.72	1228.78
221.94	1292.27
222.16	1298.41
222.38	1275.88
222.60	1220.59
222.82	1257.45
223.03	1191.92
223.25	1271.79
223.47	1261.55
223.69	1271.79
223.91	1243.12
224.13	1253.36
224.35	1196.01
224.57	1251.31
224.78	1284.08
225.00	1304.56
225.22	1259.50
225.44	1251.31
225.66	1218.54
225.88	1275.88
226.10	1234.93
226.32	1279.98
226.53	1296.36
226.75	1239.02
226.97	1255.40
227.19	1265.64
227.41	1210.35
227.63	1200.11
227.85	1239.02
228.06	1284.08
228.28	1249.26
228.50	1304.56
228.72	1331.18
228.94	1193.97
229.16	1241.07
229.37	1243.12
229.59	1232.88
229.81	1277.93
230.03	1267.69
230.25	1288.17
230.47	1249.26
230.69	1279.98
230.90	1212.40
231.12	1208.30
231.34	1298.41
231.56	1253.36
231.78	1245.16
232.00	1251.31
232.21	1277.93
232.43	1265.64
232.65	1253.36
232.87	1224.69
233.09	1310.70
233.30	1245.16
233.52	1306.60
233.74	1241.07
233.96	1230.83
234.18	1208.30
234.40	1294.32
234.61	1257.45
234.83	1247.21
235.05	1253.36
235.27	1224.69
235.49	1255.40
235.70	1224.69
235.92	1347.56
236.14	1206.25
236.36	1355.76
236.58	1263.60
236.79	1253.36
237.01	1327.08
237.23	1255.40
237.45	1351.66
237.67	1292.27
237.88	1279.98
238.10	1265.64
238.32	1316.84
238.54	1261.55
238.76	1247.21
238.97	1263.60
239.19	1284.08
239.41	1310.70
239.63	1239.02
239.85	1259.50
240.06	1286.12
240.28	1253.36
240.50	1279.98
240.72	1251.31
240.93	1267.69
241.15	1239.02
241.37	1214.45
241.59	1306.60
241.81	1216.49
242.02	1294.32
242.24	1222.64
242.46	1337.32
242.68	1292.27
242.89	1257.45
243.11	1189.87
243.33	1269.74
243.55	1261.55
243.76	1224.69
243.98	1325.04
244.20	1261.55
244.42	1251.31
244.64	1273.84
244.85	1253.36
245.07	1261.55
245.29	1292.27
245.51	1267.69
245.72	1292.27
245.94	1327.08
246.16	1296.36
246.38	1245.16
246.59	1255.40
246.81	1257.45
247.03	1296.36
247.24	1214.45
247.46	1284.08
247.68	1290.22
247.90	1341.42
248.11	1257.45
248.33	1329.13
248.55	1218.54
248.77	1275.88
248.98	1288.17
249.20	1236.97
249.42	1312.75
249.64	1318.89
249.85	1355.76
250.07	1269.74
250.29	1294.32
250.50	1269.74
250.72	1302.51
250.94	1255.40
251.16	1304.56
251.37	1275.88
251.59	1251.31
251.81	1232.88
252.02	1277.93
252.24	1226.73
252.46	1296.36
252.68	1239.02
252.89	1216.49
253.11	1333.23
253.33	1263.60
253.54	1212.40
253.76	1241.07
253.98	1279.98
254.20	1282.03
254.41	1298.41
254.63	1239.02
254.85	1267.69
255.06	1253.36
255.28	1304.56
255.50	1316.84
255.71	1187.82
255.93	1253.36
256.15	1380.33
256.36	1265.64
256.58	1298.41
256.80	1234.93
257.02	1236.97
257.23	1230.83
257.45	1269.74
257.67	1265.64
257.88	1245.16
258.10	1267.69
258.32	1267.69
258.53	1265.64
258.75	1232.88
258.97	1273.84
259.18	1337.32
259.40	1288.17
259.62	1296.36
259.83	1261.55
260.05	1226.73
260.27	1345.52
260.48	1322.99
260.70	1312.75
260.92	1257.45
261.13	1292.27
261.35	1312.75
261.57	1343.47
261.78	1261.55
262.00	1282.03
262.22	1222.64
262.43	1271.79
262.65	1331.18
262.86	1279.98
263.08	1279.98
263.30	1292.27
263.51	1277.93
263.73	1277.93
263.95	1284.08
264.16	1212.40
264.38	1232.88
264.60	1296.36
264.81	1284.08
265.03	1247.21
265.25	1253.36
265.46	1214.45
265.68	1277.93
265.89	1306.60
266.11	1282.03
266.33	1308.65
266.54	1284.08
266.76	1333.23
266.98	1302.51
267.19	1343.47
267.41	1261.55
267.62	1288.17
267.84	1241.07
268.06	1286.12
268.27	1331.18
268.49	1243.12
268.70	1249.26
268.92	1222.64
269.14	1228.78
269.35	1247.21
269.57	1234.93
269.79	1212.40
270.00	1302.51
270.22	1277.93
270.43	1239.02
270.65	1269.74
270.87	1257.45
271.08	1271.79
271.30	1267.69
271.51	1218.54
271.73	1279.98
271.95	1236.97
272.16	1288.17
272.38	1245.16
272.59	1304.56
272.81	1255.40
273.02	1282.03
273.24	1263.60
273.46	1294.32
273.67	1257.45
273.89	1226.73
274.10	1228.78
274.32	1363.95
274.54	1200.11
274.75	1214.45
274.97	1249.26
275.18	1220.59
275.40	1288.17
275.61	1259.50
275.83	1263.60
276.05	1259.50
276.26	1286.12
276.48	1265.64
276.69	1224.69
276.91	1191.92
277.12	1249.26
277.34	1282.03
277.55	1273.84
277.77	1239.02
277.99	1310.70
278.20	1275.88
278.42	1243.12
278.63	1296.36
278.85	1200.11
279.06	1288.17
279.28	1273.84
279.49	1343.47
279.71	1187.82
279.93	1259.50
280.14	1239.02
280.36	1277.93
280.57	1292.27
280.79	1249.26
281.00	1286.12
281.22	1290.22
281.43	1232.88
281.65	1239.02
281.86	1286.12
282.08	1284.08
282.29	1302.51
282.51	1290.22
282.73	1228.78
282.94	1239.02
283.16	1327.08
283.37	1294.32
283.59	1241.07
283.80	1224.69
284.02	1255.40
284.23	1218.54
284.45	1310.70
284.66	1204.21
284.88	1263.60
285.09	1320.94
285.31	1263.60
285.52	1224.69
285.74	1308.65
285.95	1267.69
286.17	1331.18
286.38	1302.51
286.60	1273.84
286.81	1208.30
287.03	1193.97
287.24	1290.22
287.46	1271.79
287.67	1282.03
287.89	1292.27
288.10	1288.17
288.32	1247.21
288.53	1224.69
288.75	1222.64
288.96	1277.93
289.18	1300.46
289.39	1263.60
289.61	1294.32
289.82	1286.12
290.04	1310.70
290.25	1259.50
290.47	1257.45
290.68	1257.45
290.90	1234.93
291.11	1230.83
291.33	1236.97
291.54	1284.08
291.76	1245.16
291.97	1294.32
292.18	1187.82
292.40	1259.50
292.61	1263.60
292.83	1279.98
293.04	1302.51
293.26	1286.12
293.47	1253.36
293.69	1290.22
293.90	1232.88
294.12	1228.78
294.33	1273.84
294.55	1322.99
294.76	1253.36
294.97	1232.88
295.19	1306.60
295.40	1316.84
295.62	1212.40
295.83	1284.08
296.05	1224.69
296.26	1282.03
296.48	1277.93
296.69	1271.79
296.90	1310.70
297.12	1290.22
297.33	1251.31
297.55	1335.28
297.76	1257.45
297.98	1284.08
298.19	1208.30
298.41	1325.04
298.62	1267.69
298.83	1216.49
299.05	1306.60
299.26	1310.70
299.48	1325.04
299.69	1341.42
299.90	1279.98
300.12	1304.56
300.33	1232.88
300.55	1239.02
300.76	1290.22
300.98	1271.79
301.19	1245.16
301.40	1314.80
301.62	1239.02
301.83	1255.40
302.05	1255.40
302.26	1298.41
302.47	1312.75
302.69	1232.88
302.90	1304.56
303.12	1212.40
303.33	1241.07
303.54	1298.41
303.76	1271.79
303.97	1312.75
304.19	1249.26
304.40	1259.50
304.61	1247.21
304.83	1282.03
305.04	1222.64
305.26	1322.99
305.47	1222.64
305.68	1290.22
305.90	1249.26
306.11	1267.69
306.33	1249.26
306.54	1310.70
306.75	1288.17
306.97	1236.97
307.18	1341.42
307.39	1271.79
307.61	1335.28
307.82	1304.56
308.04	1142.77
308.25	1331.18
308.46	1218.54
308.68	1200.11
308.89	1298.41
309.10	1265.64
309.32	1282.03
309.53	1290.22
309.74	1257.45
309.96	1202.16
310.17	1286.12
310.39	1224.69
310.60	1296.36
310.81	1245.16
311.03	1277.93
311.24	1261.55
311.45	1259.50
311.67	1275.88
311.88	1208.30
312.09	1282.03
312.31	1261.55
312.52	1286.12
312.73	1200.11
312.95	1318.89
313.16	1300.46
313.37	1314.80
313.59	1284.08
313.80	1200.11
314.01	1239.02
314.23	1310.70
314.44	1308.65
314.65	1337.32
314.87	1216.49
315.08	1269.74
315.29	1277.93
315.51	1298.41
315.72	1273.84
315.93	1224.69
316.15	1296.36
316.36	1271.79
316.57	1265.64
316.79	1331.18
317.00	1273.84
317.21	1269.74
317.43	1304.56
317.64	1257.45
317.85	1226.73
318.07	1277.93
318.28	1325.04
318.49	1267.69
318.70	1302.51
318.92	1269.74
319.13	1216.49
319.34	1271.79
319.56	1282.03
319.77	1296.36
319.98	1288.17
320.20	1191.92
320.41	1226.73
320.62	1265.64
320.83	1257.45
321.05	1320.94
321.26	1259.50
321.47	1263.60
321.69	1265.64
321.90	1181.68
322.11	1259.50
322.32	1286.12
322.54	1267.69
322.75	1232.88
322.96	1243.12
323.18	1257.45
323.39	1222.64
323.60	1230.83
323.81	1253.36
324.03	1284.08
324.24	1247.21
324.45	1216.49
324.66	1222.64
324.88	1245.16
325.09	1277.93
325.30	1216.49
325.52	1269.74
325.73	1284.08
325.94	1259.50
326.15	1265.64
326.37	1273.84
326.58	1159.15
326.79	1300.46
327.00	1228.78
327.22	1255.40
327.43	1253.36
327.64	1302.51
327.85	1230.83
328.07	1282.03
328.28	1300.46
328.49	1331.18
328.70	1292.27
328.92	1277.93
329.13	1241.07
329.34	1222.64
329.55	1212.40
329.76	1314.80
329.98	1345.52
330.19	1255.40
330.40	1267.69
330.61	1300.46
330.83	1312.75
331.04	1290.22
331.25	1298.41
331.46	1312.75
331.68	1236.97
331.89	1222.64
332.10	1259.50
332.31	1269.74
332.52	1282.03
332.74	1290.22
332.95	1206.25
333.16	1265.64
333.37	1241.07
333.58	1234.93
333.80	1302.51
334.01	1306.60
334.22	1243.12
334.43	1263.60
334.64	1220.59
334.86	1318.89
335.07	1271.79
335.28	1294.32
335.49	1308.65
335.70	1224.69
335.92	1327.08
336.13	1288.17
336.34	1341.42
336.55	1241.07
336.76	1257.45
336.98	1236.97
337.19	1243.12
337.40	1282.03
337.61	1267.69
337.82	1290.22
338.04	1318.89
338.25	1189.87
338.46	1349.61
338.67	1243.12
338.88	1341.42
339.09	1210.35
339.31	1279.98
339.52	1284.08
339.73	1269.74
339.94	1372.14
340.15	1263.60
340.36	1251.31
340.58	1273.84
340.79	1230.83
341.00	1265.64
341.21	1249.26
341.42	1284.08
341.63	1290.22
341.85	1286.12
342.06	1269.74
342.27	1261.55
342.48	1212.40
342.69	1286.12
342.90	1218.54
343.12	1298.41
343.33	1282.03
343.54	1290.22
343.75	1265.64
343.96	1220.59
344.17	1263.60
344.38	1234.93
344.60	1222.64
344.81	1298.41
345.02	1304.56
345.23	1335.28
345.44	1310.70
345.65	1312.75
345.86	1318.89
346.07	1249.26
346.29	1241.07
346.50	1232.88
346.71	1279.98
346.92	1220.59
347.13	1200.11
347.34	1312.75
347.55	1337.32
347.76	1333.23
347.98	1249.26
348.19	1249.26
348.40	1318.89
348.61	1241.07
348.82	1232.88
349.03	1222.64
349.24	1288.17
349.45	1263.60
349.66	1318.89
349.88	1257.45
350.09	1253.36
350.30	1341.42
350.51	1226.73
350.72	1331.18
350.93	1294.32
351.14	1241.07
351.35	1288.17
351.56	1271.79
351.77	1322.99
351.99	1284.08
352.20	1290.22
352.41	1230.83
352.62	1296.36
352.83	1306.60
353.04	1247.21
353.25	1316.84
353.46	1318.89
353.67	1245.16
353.88	1284.08
354.09	1284.08
354.30	1279.98
354.52	1239.02
354.73	1310.70
354.94	1255.40
355.15	1320.94
355.36	1290.22
355.57	1355.76
355.78	1282.03
355.99	1308.65
356.20	1275.88
356.41	1232.88
356.62	1239.02
356.83	1298.41
357.04	1288.17
357.25	1275.88
357.46	1302.51
357.68	1161.20
357.89	1267.69
358.10	1255.40
358.31	1275.88
358.52	1294.32
358.73	1349.61
358.94	1290.22
359.15	1253.36
359.36	1279.98
359.57	1306.60
359.78	1302.51
359.99	1327.08
360.20	1265.64
360.41	1284.08
360.62	1277.93
360.83	1206.25
361.04	1286.12
361.25	1253.36
361.46	1290.22
361.67	1312.75
361.88	1277.93
362.09	1273.84
362.30	1269.74
362.51	1282.03
362.72	1222.64
362.93	1304.56
363.14	1288.17
363.35	1304.56
363.56	1316.84
363.78	1222.64
363.99	1218.54
364.20	1277.93
364.41	1292.27
364.62	1253.36
364.83	1273.84
365.04	1261.55
365.25	1196.01
365.46	1267.69
365.67	1267.69
365.88	1316.84
366.09	1320.94
366.30	1222.64
366.51	1314.80
366.72	1263.60
366.93	1271.79
367.14	1261.55
367.35	1257.45
367.56	1257.45
367.77	1185.77
367.98	1202.16
368.18	1261.55
368.39	1325.04
368.60	1218.54
368.81	1312.75
369.02	1210.35
369.23	1212.40
369.44	1275.88
369.65	1187.82
369.86	1288.17
370.07	1329.13
370.28	1239.02
370.49	1261.55
370.70	1343.47
370.91	1267.69
371.12	1222.64
371.33	1304.56
371.54	1247.21
371.75	1230.83
371.96	1282.03
372.17	1247.21
372.38	1296.36
372.59	1290.22
372.80	1290.22
373.01	1222.64
373.22	1253.36
373.43	1241.07
373.64	1279.98
373.85	1265.64
374.06	1224.69
374.26	1335.28
374.47	1298.41
374.68	1290.22
374.89	1275.88
375.10	1286.12
375.31	1185.77
375.52	1353.71
375.73	1261.55
375.94	1282.03
376.15	1165.29
376.36	1284.08
376.57	1271.79
376.78	1279.98
376.99	1249.26
377.20	1257.45
377.40	1282.03
377.61	1234.93
377.82	1222.64
378.03	1210.35
378.24	1214.45
378.45	1236.97
378.66	1339.37
378.87	1228.78
379.08	1245.16
379.29	1243.12
379.50	1320.94
379.71	1339.37
379.91	1296.36
380.12	1269.74
380.33	1220.59
380.54	1214.45
380.75	1339.37
380.96	1318.89
381.17	1218.54
381.38	1343.47
381.59	1282.03
381.80	1247.21
382.00	1288.17
382.21	1181.68
382.42	1247.21
382.63	1304.56
382.84	1298.41
383.05	1325.04
383.26	1263.60
383.47	1296.36
383.68	1294.32
383.88	1282.03
384.09	1189.87
384.30	1290.22
384.51	1308.65
384.72	1241.07
384.93	1292.27
385.14	1302.51
385.35	1306.60
385.55	1286.12
385.76	1208.30
385.97	1292.27
386.18	1243.12
386.39	1333.23
386.60	1277.93
386.81	1337.32
387.02	1277.93
387.22	1239.02
387.43	1239.02
387.64	1247.21
387.85	1269.74
388.06	1308.65
388.27	1282.03
388.48	1306.60
388.68	1279.98
388.89	1300.46
389.10	1269.74
389.31	1314.80
389.52	1249.26
389.73	1241.07
389.93	1284.08
390.14	1245.16
390.35	1218.54
390.56	1263.60
390.77	1245.16
390.98	1284.08
391.18	1333.23
391.39	1304.56
391.60	1249.26
391.81	1308.65
392.02	1273.84
392.23	1327.08
392.43	1277.93
392.64	1255.40
392.85	1224.69
393.06	1239.02
393.27	1243.12
393.47	1216.49
393.68	1269.74
393.89	1292.27
394.10	1261.55
394.31	1282.03
394.52	1234.93
394.72	1259.50
394.93	1277.93
395.14	1277.93
395.35	1306.60
395.56	1212.40
395.76	1251.31
395.97	1355.76
396.18	1261.55
396.39	1261.55
396.60	1298.41
396.80	1243.12
397.01	1249.26
397.22	1286.12
397.43	1347.56
397.64	1271.79
397.84	1253.36
398.05	1284.08
398.26	1294.32
398.47	1292.27
398.67	1273.84
398.88	1316.84
399.09	1247.21
399.30	1249.26
399.51	1277.93
399.71	1255.40
399.92	1220.59
400.13	1288.17
400.34	1261.55
400.54	1271.79
400.75	1314.80
400.96	1290.22
401.17	1355.76
401.37	1218.54
401.58	1222.64
401.79	1241.07
402.00	1228.78
402.21	1251.31
402.41	1306.60
402.62	1198.06
402.83	1300.46
403.04	1310.70
403.24	1325.04
403.45	1318.89
403.66	1298.41
403.87	1273.84
404.07	1298.41
404.28	1236.97
404.49	1327.08
404.70	1284.08
404.90	1282.03
405.11	1261.55
405.32	1249.26
405.52	1308.65
405.73	1296.36
405.94	1253.36
406.15	1230.83
406.35	1204.21
406.56	1216.49
406.77	1220.59
406.98	1282.03
407.18	1239.02
407.39	1288.17
407.60	1368.04
407.80	1320.94
408.01	1249.26
408.22	1312.75
408.43	1259.50
408.63	1316.84
408.84	1292.27
409.05	1171.44
409.25	1241.07
409.46	1312.75
409.67	1298.41
409.88	1386.47
410.08	1247.21
410.29	1271.79
410.50	1214.45
410.70	1241.07
410.91	1216.49
411.12	1245.16
411.32	1286.12
411.53	1327.08
411.74	1249.26
411.95	1214.45
412.15	1212.40
412.36	1353.71
412.57	1290.22
412.77	1267.69
412.98	1277.93
413.19	1273.84
413.39	1286.12
413.60	1322.99
413.81	1263.60
414.01	1228.78
414.22	1304.56
414.43	1296.36
414.63	1294.32
414.84	1259.50
415.05	1271.79
415.25	1255.40
415.46	1210.35
415.67	1288.17
415.87	1263.60
416.08	1318.89
416.29	1253.36
416.49	1243.12
416.70	1277.93
416.91	1325.04
417.11	1304.56
417.32	1263.60
417.53	1331.18
417.73	1331.18
417.94	1261.55
418.15	1265.64
418.35	1288.17
418.56	1265.64
418.77	1267.69
418.97	1298.41
419.18	1239.02
419.38	1228.78
419.59	1296.36
419.80	1286.12
420.00	1265.64
420.21	1261.55
420.42	1304.56
420.62	1257.45
420.83	1267.69
421.04	1185.77
421.24	1277.93
421.45	1267.69
421.65	1220.59
421.86	1275.88
422.07	1222.64
422.27	1265.64
422.48	1249.26
422.69	1269.74
422.89	1224.69
423.10	1374.19
423.30	1322.99
423.51	1308.65
423.72	1286.12
423.92	1325.04
424.13	1345.52
424.33	1251.31
424.54	1253.36
424.75	1216.49
424.95	1294.32
425.16	1300.46
425.36	1277.93
425.57	1214.45
425.78	1306.60
425.98	1269.74
426.19	1253.36
426.39	1318.89
426.60	1212.40
426.81	1329.13
427.01	1245.16
427.22	1249.26
427.42	1251.31
427.63	1232.88
427.83	1245.16
428.04	1353.71
428.25	1296.36
428.45	1288.17
428.66	1275.88
428.86	1232.88
429.07	1271.79
429.28	1263.60
429.48	1343.47
429.69	1366.00
429.89	1198.06
430.10	1236.97
430.30	1314.80
430.51	1275.88
430.71	1304.56
430.92	1269.74
431.13	1302.51
431.33	1277.93
431.54	1253.36
431.74	1279.98
431.95	1314.80
432.15	1253.36
432.36	1304.56
432.56	1318.89
432.77	1284.08
432.98	1347.56
433.18	1175.53
433.39	1310.70
433.59	1189.87
433.80	1241.07
434.00	1253.36
434.21	1279.98
434.41	1247.21
434.62	1335.28
434.82	1144.81
435.03	1279.98
435.23	1255.40
435.44	1320.94
435.64	1282.03
435.85	1212.40
436.06	1294.32
436.26	1333.23
436.47	1306.60
436.67	1257.45
436.88	1267.69
437.08	1245.16
437.29	1273.84
437.49	1294.32
437.70	1212.40
437.90	1253.36
438.11	1181.68
438.31	1363.95
438.52	1267.69
438.72	1345.52
438.93	1232.88
439.13	1241.07
439.34	1263.60
439.54	1196.01
439.75	1271.79
439.95	1245.16
440.16	1247.21
440.36	1263.60
440.57	1261.55
440.77	1249.26
440.98	1234.93
441.18	1257.45
441.39	1255.40
441.59	1290.22
441.80	1288.17
442.00	1304.56
442.21	1337.32
442.41	1279.98
442.62	1247.21
442.82	1296.36
443.02	1294.32
443.23	1224.69
443.43	1251.31
443.64	1245.16
443.84	1304.56
444.05	1310.70
444.25	1345.52
444.46	1298.41
444.66	1372.14
444.87	1253.36
445.07	1337.32
445.28	1234.93
445.48	1275.88
445.69	1310.70
445.89	1232.88
446.09	1325.04
446.30	1306.60
446.50	1282.03
446.71	1257.45
446.91	1337.32
447.12	1298.41
447.32	1296.36
447.53	1259.50
447.73	1314.80
447.93	1314.80
448.14	1322.99
448.34	1288.17
448.55	1320.94
448.75	1277.93
448.96	1216.49
449.16	1228.78
449.36	1290.22
449.57	1206.25
449.77	1216.49
449.98	1257.45
450.18	1241.07
450.39	1239.02
450.59	1232.88
450.79	1296.36
451.00	1271.79
451.20	1288.17
451.41	1228.78
451.61	1284.08
451.81	1284.08
452.02	1298.41
452.22	1298.41
452.43	1290.22
452.63	1316.84
452.84	1343.47
453.04	1253.36
453.24	1310.70
453.45	1259.50
453.65	1208.30
453.86	1284.08
454.06	1277.93
454.26	1349.61
454.47	1284.08
454.67	1325.04
454.87	1310.70
455.08	1216.49
455.28	1265.64
455.49	1284.08
455.69	1232.88
455.89	1320.94
456.10	1253.36
456.30	1288.17
456.51	1294.32
456.71	1345.52
456.91	1261.55
457.12	1269.74
457.32	1306.60
457.52	1343.47
457.73	1331.18
457.93	1234.93
458.14	1316.84
458.34	1255.40
458.54	1259.50
458.75	1269.74
458.95	1249.26
459.15	1247.21
459.36	1236.97
459.56	1300.46
459.76	1239.02
459.97	1218.54
460.17	1243.12
460.37	1267.69
460.58	1298.41
460.78	1333.23
460.99	1247.21
461.19	1353.71
461.39	1277.93
461.60	1296.36
461.80	1220.59
462.00	1325.04
462.21	1327.08
462.41	1239.02
462.61	1308.65
462.82	1304.56
463.02	1265.64
463.22	1271.79
463.43	1310.70
463.63	1232.88
463.83	1269.74
464.04	1300.46
464.24	1247.21
464.44	1232.88
464.64	1343.47
464.85	1288.17
465.05	1298.41
465.25	1251.31
465.46	1294.32
465.66	1314.80
465.86	1286.12
466.07	1300.46
466.27	1294.32
466.47	1257.45
466.68	1284.08
466.88	1290.22
467.08	1202.16
467.29	1249.26
467.49	1163.25
467.69	1312.75
467.89	1224.69
468.10	1279.98
468.30	1265.64
468.50	1243.12
468.71	1273.84
468.91	1275.88
469.11	1345.52
469.31	1310.70
469.52	1261.55
469.72	1257.45
469.92	1257.45
470.13	1241.07
470.33	1234.93
470.53	1316.84
470.73	1200.11
470.94	1279.98
471.14	1259.50
471.34	1294.32
471.54	1322.99
471.75	1263.60
471.95	1228.78
472.15	1279.98
472.36	1243.12
472.56	1277.93
472.76	1259.50
472.96	1267.69
473.17	1302.51
473.37	1310.70
473.57	1267.69
473.77	1265.64
473.98	1232.88
474.18	1234.93
474.38	1265.64
474.58	1210.35
474.79	1296.36
474.99	1288.17
475.19	1247.21
475.39	1222.64
475.60	1298.41
475.80	1339.37
476.00	1314.80
476.20	1318.89
476.41	1218.54
476.61	1290.22
476.81	1339.37
477.01	1241.07
477.21	1296.36
477.42	1247.21
477.62	1255.40
477.82	1214.45
478.02	1245.16
478.23	1333.23
478.43	1185.77
478.63	1247.21
478.83	1226.73
479.03	1286.12
479.24	1257.45
479.44	1259.50
479.64	1224.69
479.84	1296.36
480.04	1263.60
480.25	1327.08
480.45	1279.98
480.65	1302.51
480.85	1310.70
481.06	1216.49
481.26	1259.50
481.46	1279.98
481.66	1277.93
481.86	1331.18
482.06	1257.45
482.27	1290.22
482.47	1249.26
482.67	1282.03
482.87	1263.60
483.07	1296.36
483.28	1261.55
483.48	1245.16
483.68	1277.93
483.88	1300.46
484.08	1312.75
484.29	1263.60
484.49	1310.70
484.69	1290.22
484.89	1292.27
485.09	1284.08
485.29	1249.26
485.50	1261.55
485.70	1253.36
485.90	1226.73
486.10	1273.84
486.30	1322.99
486.50	1208.30
486.71	1345.52
486.91	1265.64
487.11	1304.56
487.31	1251.31
487.51	1286.12
487.71	1290.22
487.91	1253.36
488.12	1228.78
488.32	1284.08
488.52	1296.36
488.72	1222.64
488.92	1230.83
489.12	1247.21
489.32	1269.74
489.53	1232.88
489.73	1284.08
489.93	1298.41
490.13	1284.08
490.33	1271.79
490.53	1224.69
490.73	1261.55
490.94	1265.64
491.14	1200.11
491.34	1251.31
491.54	1251.31
491.74	1249.26
491.94	1325.04
492.14	1220.59
492.34	1314.80
492.54	1325.04
492.75	1302.51
492.95	1234.93
493.15	1230.83
493.35	1339.37
493.55	1290.22
493.75	1279.98
493.95	1286.12
494.15	1247.21
494.35	1314.80
494.56	1261.55
494.76	1200.11
494.96	1212.40
495.16	1308.65
495.36	1282.03
495.56	1304.56
495.76	1277.93
495.96	1298.41
496.16	1249.26
496.36	1263.60
496.56	1292.27
496.77	1228.78
496.97	1300.46
497.17	1320.94
497.37	1247.21
497.57	1210.35
497.77	1343.47
497.97	1282.03
498.17	1312.75
498.37	1269.74
498.57	1169.39
498.77	1265.64
498.97	1275.88
499.17	1247.21
499.38	1206.25
499.58	1318.89
499.78	1236.97
499.98	1249.26
500.18	1253.36
500.38	1273.84
500.58	1269.74
500.78	1245.16
500.98	1232.88
501.18	1286.12
501.38	1347.56
501.58	1273.84
501.78	1290.22
501.98	1255.40
502.18	1296.36
502.38	1259.50
502.58	1257.45
502.78	1234.93
502.98	1273.84
503.18	1337.32
503.38	1232.88
503.59	1241.07
503.79	1239.02
503.99	1214.45
504.19	1382.38
504.39	1292.27
504.59	1290.22
504.79	1314.80
504.99	1200.11
505.19	1265.64
505.39	1331.18
505.59	1322.99
505.79	1327.08
505.99	1239.02
506.19	1298.41
506.39	1337.32
506.59	1290.22
506.79	1228.78
506.99	1341.42
507.19	1296.36
507.39	1263.60
507.59	1329.13
507.79	1314.80
507.99	1241.07
508.19	1322.99
508.39	1249.26
508.59	1310.70
508.79	1275.88
508.99	1265.64
509.19	1271.79
509.39	1292.27
509.59	1333.23
509.79	1257.45
509.99	1290.22
510.19	1306.60
510.39	1259.50
510.59	1273.84
510.79	1322.99
510.99	1265.64
511.19	1282.03
511.39	1306.60
511.59	1304.56
511.79	1277.93
511.99	1255.40
512.19	1245.16
512.38	1316.84
512.58	1284.08
512.78	1308.65
512.98	1224.69
513.18	1325.04
513.38	1230.83
513.58	1222.64
513.78	1288.17
513.98	1284.08
514.18	1314.80
514.38	1333.23
514.58	1265.64
514.78	1249.26
514.98	1218.54
515.18	1284.08
515.38	1325.04
515.58	1331.18
515.78	1286.12
515.98	1306.60
516.18	1277.93
516.38	1312.75
516.57	1253.36
516.77	1277.93
516.97	1230.83
517.17	1234.93
517.37	1255.40
517.57	1212.40
517.77	1196.01
517.97	1290.22
518.17	1269.74
518.37	1265.64
518.57	1320.94
518.77	1310.70
518.97	1310.70
519.16	1243.12
519.36	1269.74
519.56	1239.02
519.76	1339.37
519.96	1335.28
520.16	1263.60
520.36	1310.70
520.56	1265.64
520.76	1239.02
520.96	1239.02
521.16	1304.56
521.35	1314.80
521.55	1292.27
521.75	1230.83
521.95	1247.21
522.15	1282.03
522.35	1282.03
522.55	1300.46
522.75	1222.64
522.95	1308.65
523.14	1251.31
523.34	1259.50
523.54	1345.52
523.74	1275.88
523.94	1306.60
524.14	1333.23
524.34	1284.08
524.54	1304.56
524.73	1288.17
524.93	1253.36
525.13	1282.03
525.33	1306.60
525.53	1320.94
525.73	1296.36
525.93	1359.85
526.13	1224.69
526.32	1396.71
526.52	1271.79
526.72	1245.16
526.92	1269.74
527.12	1327.08
527.32	1251.31
527.52	1224.69
527.71	1341.42
527.91	1286.12
528.11	1279.98
528.31	1304.56
528.51	1259.50
528.71	1273.84
528.90	1314.80
529.10	1335.28
529.30	1249.26
529.50	1314.80
529.70	1294.32
529.90	1329.13
530.09	1290.22
530.29	1331.18
530.49	1198.06
530.69	1216.49
530.89	1320.94
531.09	1331.18
531.28	1298.41
531.48	1282.03
531.68	1296.36
531.88	1247.21
532.08	1267.69
532.28	1249.26
532.47	1236.97
532.67	1392.62
532.87	1302.51
533.07	1380.33
533.27	1384.43
533.46	1271.79
533.66	1304.56
533.86	1241.07
534.06	1196.01
534.26	1253.36
534.45	1236.97
534.65	1275.88
534.85	1310.70
535.05	1288.17
535.25	1277.93
535.44	1327.08
535.64	1351.66
535.84	1204.21
536.04	1345.52
536.24	1277.93
536.43	1169.39
536.63	1341.42
536.83	1279.98
537.03	1308.65
537.22	1302.51
537.42	1261.55
537.62	1241.07
537.82	1275.88
538.02	1245.16
538.21	1275.88
538.41	1204.21
538.61	1173.49
538.81	1273.84
539.00	1296.36
539.20	1300.46
539.40	1255.40
539.60	1210.35
539.79	1273.84
539.99	1265.64
540.19	1339.37
540.39	1241.07
540.58	1251.31
540.78	1320.94
540.98	1267.69
541.18	1271.79
541.37	1236.97
541.57	1302.51
541.77	1279.98
541.97	1329.13
542.16	1353.71
542.36	1318.89
542.56	1239.02
542.76	1277.93
542.95	1198.06
543.15	1366.00
543.35	1380.33
543.54	1306.60
543.74	1230.83
543.94	1312.75
544.14	1234.93
544.33	1261.55
544.53	1261.55
544.73	1349.61
544.93	1263.60
545.12	1267.69
545.32	1316.84
545.52	1310.70
545.71	1224.69
545.91	1325.04
546.11	1269.74
546.30	1226.73
546.50	1298.41
546.70	1243.12
546.90	1353.71
547.09	1241.07
547.29	1222.64
547.49	1234.93
547.68	1359.85
547.88	1335.28
548.08	1255.40
548.27	1306.60
548.47	1304.56
548.67	1273.84
548.87	1320.94
549.06	1277.93
549.26	1218.54
549.46	1318.89
549.65	1296.36
549.85	1329.13
550.05	1239.02
550.24	1327.08
550.44	1249.26
550.64	1275.88
550.83	1337.32
551.03	1245.16
551.23	1265.64
551.42	1325.04
551.62	1314.80
551.82	1198.06
552.01	1226.73
552.21	1314.80
552.41	1257.45
552.60	1234.93
552.80	1257.45
553.00	1273.84
553.19	1249.26
553.39	1279.98
553.59	1222.64
553.78	1247.21
553.98	1298.41
554.17	1325.04
554.37	1298.41
554.57	1296.36
554.76	1257.45
554.96	1251.31
555.16	1296.36
555.35	1329.13
555.55	1310.70
555.75	1308.65
555.94	1302.51
556.14	1294.32
556.33	1292.27
556.53	1277.93
556.73	1208.30
556.92	1218.54
557.12	1310.70
557.32	1273.84
557.51	1282.03
557.71	1300.46
557.90	1224.69
558.10	1320.94
558.30	1251.31
558.49	1294.32
558.69	1306.60
558.88	1255.40
559.08	1228.78
559.28	1267.69
559.47	1247.21
559.67	1212.40
559.86	1310.70
560.06	1261.55
560.26	1292.27
560.45	1277.93
560.65	1267.69
560.84	1294.32
561.04	1335.28
561.24	1257.45
561.43	1366.00
561.63	1230.83
561.82	1312.75
562.02	1210.35
562.22	1228.78
562.41	1282.03
562.61	1318.89
562.80	1228.78
563.00	1310.70
563.19	1304.56
563.39	1249.26
563.59	1318.89
563.78	1271.79
563.98	1312.75
564.17	1265.64
564.37	1312.75
564.56	1228.78
564.76	1230.83
564.96	1298.41
565.15	1189.87
565.35	1259.50
565.54	1259.50
565.74	1222.64
565.93	1292.27
566.13	1239.02
566.32	1288.17
566.52	1363.95
566.71	1312.75
566.91	1345.52
567.11	1282.03
567.30	1284.08
567.50	1245.16
567.69	1212.40
567.89	1290.22
568.08	1290.22
568.28	1325.04
568.47	1376.24
568.67	1294.32
568.86	1308.65
569.06	1290.22
569.25	1279.98
569.45	1251.31
569.64	1200.11
569.84	1263.60
570.04	1249.26
570.23	1306.60
570.43	1253.36
570.62	1251.31
570.82	1206.25
571.01	1300.46
571.21	1269.74
571.40	1275.88
571.60	1269.74
571.79	1269.74
571.99	1271.79
572.18	1239.02
572.38	1353.71
572.57	1302.51
572.77	1296.36
572.96	1222.64
573.16	1263.60
573.35	1214.45
573.55	1322.99
573.74	1279.98
573.94	1349.61
574.13	1298.41
574.33	1216.49
574.52	1257.45
574.71	1312.75
574.91	1296.36
575.10	1236.97
575.30	1257.45
575.49	1232.88
575.69	1261.55
575.88	1267.69
576.08	1251.31
576.27	1357.80
576.47	1318.89
576.66	1263.60
576.86	1314.80
577.05	1236.97
577.25	1322.99
577.44	1241.07
577.64	1263.60
577.83	1214.45
578.02	1279.98
578.22	1337.32
578.41	1241.07
578.61	1314.80
578.80	1306.60
579.00	1253.36
579.19	1320.94
579.39	1228.78
579.58	1271.79
579.77	1347.56
579.97	1341.42
580.16	1325.04
580.36	1253.36
580.55	1230.83
580.75	1306.60
580.94	1339.37
581.13	1298.41
581.33	1275.88
581.52	1232.88
581.72	1234.93
581.91	1277.93
582.11	1232.88
582.30	1286.12
582.49	1261.55
582.69	1341.42
582.88	1282.03
583.08	1284.08
583.27	1234.93
583.47	1210.35
583.66	1277.93
583.85	1284.08
584.05	1275.88
584.24	1310.70
584.44	1331.18
584.63	1261.55
584.82	1277.93
585.02	1257.45
585.21	1239.02
585.41	1296.36
585.60	1290.22
585.79	1267.69
585.99	1277.93
586.18	1232.88
586.37	1271.79
586.57	1343.47
586.76	1271.79
586.96	1273.84
587.15	1247.21
587.34	1298.41
587.54	1206.25
587.73	1251.31
587.93	1271.79
588.12	1345.52
588.31	1288.17
588.51	1294.32
588.70	1316.84
588.89	1302.51
589.09	1290.22
589.28	1253.36
589.47	1273.84
589.67	1243.12
589.86	1320.94
590.06	1245.16
590.25	1218.54
590.44	1193.97
590.64	1282.03
590.83	1286.12
591.02	1288.17
591.22	1335.28
591.41	1222.64
591.60	1316.84
591.80	1290.22
591.99	1282.03
592.18	1218.54
592.38	1331.18
592.57	1288.17
592.76	1302.51
592.96	1335.28
593.15	1259.50
593.34	1296.36
593.54	1277.93
593.73	1263.60
593.92	1292.27
594.12	1353.71
594.31	1257.45
594.50	1269.74
594.70	1230.83
594.89	1263.60
595.08	1335.28
595.28	1222.64
595.47	1331.18
595.66	1302.51
595.86	1318.89
596.05	1294.32
596.24	1243.12
596.43	1247.21
596.63	1267.69
596.82	1288.17
597.01	1275.88
597.21	1214.45
597.40	1243.12
597.59	1304.56
597.79	1304.56
597.98	1279.98
598.17	1282.03
598.36	1236.97
598.56	1263.60
598.75	1355.76
598.94	1275.88
599.14	1349.61
599.33	1290.22
599.52	1339.37
599.71	1318.89
599.91	1251.31
600.10	1226.73
600.29	1247.21
600.48	1282.03
600.68	1232.88
600.87	1329.13
601.06	1318.89
601.26	1290.22
601.45	1318.89
601.64	1286.12
601.83	1282.03
602.03	1298.41
602.22	1220.59
602.41	1257.45
602.60	1368.04
602.80	1271.79
602.99	1308.65
603.18	1349.61
603.37	1331.18
603.57	1298.41
603.76	1228.78
603.95	1284.08
604.14	1343.47
604.34	1279.98
604.53	1245.16
604.72	1249.26
604.91	1288.17
605.10	1263.60
605.30	1290.22
605.49	1271.79
605.68	1337.32
605.87	1304.56
606.07	1273.84
606.26	1327.08
606.45	1249.26
606.64	1388.52
606.84	1282.03
607.03	1220.59
607.22	1302.51
607.41	1241.07
607.60	1355.76
607.80	1310.70
607.99	1353.71
608.18	1265.64
608.37	1206.25
608.56	1261.55
608.76	1257.45
608.95	1263.60
609.14	1279.98
609.33	1249.26
609.52	1286.12
609.72	1320.94
609.91	1273.84
610.10	1224.69
610.29	1314.80
610.48	1306.60
610.68	1302.51
610.87	1228.78
611.06	1294.32
611.25	1226.73
611.44	1247.21
611.63	1241.07
611.83	1249.26
612.02	1204.21
612.21	1335.28
612.40	1312.75
612.59	1286.12
612.79	1327.08
612.98	1288.17
613.17	1279.98
613.36	1208.30
613.55	1271.79
613.74	1320.94
613.93	1294.32
614.13	1329.13
614.32	1296.36
614.51	1298.41
614.70	1318.89
614.89	1310.70
615.08	1230.83
615.28	1314.80
615.47	1257.45
615.66	1320.94
615.85	1263.60
616.04	1327.08
616.23	1286.12
616.42	1310.70
616.62	1234.93
616.81	1288.17
617.00	1345.52
617.19	1296.36
617.38	1298.41
617.57	1245.16
617.76	1234.93
617.95	1286.12
618.15	1241.07
618.34	1200.11
618.53	1312.75
618.72	1269.74
618.91	1277.93
619.10	1273.84
619.29	1304.56
619.48	1296.36
619.68	1220.59
619.87	1275.88
620.06	1335.28
620.25	1333.23
620.44	1259.50
620.63	1288.17
620.82	1333.23
621.01	1294.32
621.20	1300.46
621.39	1224.69
621.59	1318.89
621.78	1255.40
621.97	1316.84
622.16	1259.50
622.35	1308.65
622.54	1351.66
622.73	1335.28
622.92	1347.56
623.11	1286.12
623.30	1269.74
623.49	1271.79
623.68	1269.74
623.88	1322.99
624.07	1220.59
624.26	1337.32
624.45	1255.40
624.64	1271.79
624.83	1325.04
625.02	1290.22
625.21	1284.08
625.40	1249.26
625.59	1322.99
625.78	1239.02
625.97	1312.75
626.16	1230.83
626.35	1290.22
626.54	1286.12
626.74	1341.42
626.93	1218.54
627.12	1261.55
627.31	1312.75
627.50	1263.60
627.69	1282.03
627.88	1347.56
628.07	1228.78
628.26	1318.89
628.45	1261.55
628.64	1322.99
628.83	1284.08
629.02	1304.56
629.21	1366.00
629.40	1337.32
629.59	1288.17
629.78	1290.22
629.97	1263.60
630.16	1277.93
630.35	1343.47
630.54	1298.41
630.73	1304.56
630.92	1306.60
631.11	1267.69
631.30	1347.56
631.49	1370.09
631.68	1683.43
631.87	2562.01
632.06	5593.00
632.25	8468.35
632.44	16176.91
632.63	25095.81
632.82	44490.07
633.01	48461.08
633.20	22544.04
633.39	8355.71
633.58	4272.06
633.77	3669.96
633.96	3262.41
634.15	2404.32
634.34	1912.80
634.53	1867.75
634.72	1857.51
634.91	1636.33
635.10	1554.41
635.29	1466.35
635.48	1482.73
635.67	1544.17
635.86	1435.63
636.05	1427.43
636.24	1370.09
636.43	1384.43
636.62	1374.19
636.81	1275.88
637.00	1282.03
637.19	1325.04
637.38	1355.76
637.57	1267.69
637.76	1357.80
637.95	1312.75
638.14	1302.51
638.33	1288.17
638.52	1337.32
638.71	1331.18
638.89	1359.85
639.08	1302.51
639.27	1275.88
639.46	1351.66
639.65	1296.36
639.84	1345.52
640.03	1257.45
640.22	1275.88
640.41	1325.04
640.60	1329.13
640.79	1208.30
640.98	1247.21
641.17	1337.32
641.36	1327.08
641.55	1294.32
641.74	1247.21
641.92	1224.69
642.11	1198.06
642.30	1282.03
642.49	1204.21
642.68	1284.08
642.87	1232.88
643.06	1198.06
643.25	1277.93
643.44	1335.28
643.63	1286.12
643.82	1273.84
644.00	1304.56
644.19	1259.50
644.38	1249.26
644.57	1302.51
644.76	1167.34
644.95	1255.40
645.14	1310.70
645.33	1249.26
645.52	1296.36
645.71	1347.56
645.89	1316.84
646.08	1298.41
646.27	1288.17
646.46	1208.30
646.65	1265.64
646.84	1273.84
647.03	1300.46
647.22	1337.32
647.40	1302.51
647.59	1249.26
647.78	1347.56
647.97	1322.99
648.16	1343.47
648.35	1314.80
648.54	1327.08
648.73	1273.84
648.91	1298.41
649.10	1257.45
649.29	1249.26
649.48	1263.60
649.67	1243.12
649.86	1306.60
650.05	1310.70
650.23	1329.13
650.42	1273.84
650.61	1380.33
650.80	1282.03
650.99	1300.46
651.18	1249.26
651.36	1243.12
651.55	1284.08
651.74	1265.64
651.93	1322.99
652.12	1284.08
652.31	1275.88
652.49	1267.69
652.68	1298.41
652.87	1300.46
653.06	1232.88
653.25	1220.59
653.44	1273.84
653.62	1304.56
653.81	1296.36
654.00	1279.98
654.19	1282.03
654.38	1284.08
654.56	1351.66
654.75	1325.04
654.94	1302.51
655.13	1296.36
655.32	1196.01
655.51	1310.70
655.69	1269.74
655.88	1228.78
656.07	1257.45
656.26	1277.93
656.45	1277.93
656.63	1271.79
656.82	1253.36
657.01	1300.46
657.20	1273.84
657.38	1298.41
657.57	1257.45
657.76	1239.02
657.95	1245.16
658.14	1230.83
658.32	1314.80
658.51	1146.86
658.70	1267.69
658.89	1189.87
659.08	1234.93
659.26	1224.69
659.45	1329.13
659.64	1228.78
659.83	1347.56
660.01	1302.51
660.20	1255.40
660.39	1282.03
660.58	1204.21
660.76	1234.93
660.95	1265.64
661.14	1318.89
661.33	1251.31
661.51	1234.93
661.70	1239.02
661.89	1279.98
662.08	1302.51
662.26	1357.80
662.45	1267.69
662.64	1226.73
662.83	1224.69
663.01	1284.08
663.20	1255.40
663.39	1214.45
663.58	1318.89
663.76	1265.64
663.95	1310.70
664.14	1298.41
664.32	1259.50
664.51	1212.40
664.70	1306.60
664.89	1292.27
665.07	1230.83
665.26	1314.80
665.45	1257.45
665.64	1263.60
665.82	1333.23
666.01	1308.65
666.20	1245.16
666.38	1275.88
666.57	1236.97
666.76	1265.64
666.95	1269.74
667.13	1347.56
667.32	1308.65
667.51	1302.51
667.69	1273.84
667.88	1239.02
668.07	1150.96
668.25	1234.93
668.44	1257.45
668.63	1204.21
668.81	1189.87
669.00	1333.23
669.19	1267.69
669.38	1275.88
669.56	1339.37
669.75	1284.08
669.94	1277.93
670.12	1259.50
670.31	1288.17
670.50	1236.97
670.68	1222.64
670.87	1325.04
671.06	1286.12
671.24	1236.97
671.43	1261.55
671.62	1253.36
671.80	1310.70
671.99	1284.08
672.18	1294.32
672.36	1300.46
672.55	1277.93
672.74	1298.41
672.92	1294.32
673.11	1273.84
673.29	1253.36
673.48	1290.22
673.67	1277.93
673.85	1288.17
674.04	1265.64
674.23	1263.60
674.41	1284.08
674.60	1228.78
674.79	1269.74
674.97	1253.36
675.16	1275.88
675.34	1339.37
675.53	1312.75
675.72	1310.70
675.90	1300.46
676.09	1343.47
676.28	1249.26
676.46	1312.75
676.65	1222.64
676.83	1263.60
677.02	1251.31
677.21	1273.84
677.39	1271.79
677.58	1255.40
677.77	1331.18
677.95	1288.17
678.14	1267.69
678.32	1253.36
678.51	1261.55
678.70	1312.75
678.88	1302.51
679.07	1144.81
679.25	1322.99
679.44	1284.08
679.63	1320.94
679.81	1267.69
680.00	1284.08
680.18	1284.08
680.37	1296.36
680.55	1359.85
680.74	1288.17
680.93	1259.50
681.11	1290.22
681.30	1284.08
681.48	1275.88
681.67	1259.50
681.85	1275.88
682.04	1296.36
682.23	1288.17
682.41	1247.21
682.60	1204.21
682.78	1255.40
682.97	1198.06
683.15	1298.41
683.34	1304.56
683.53	1269.74
683.71	1331.18
683.90	1314.80
684.08	1255.40
684.27	1325.04
684.45	1206.25
684.64	1249.26
684.82	1267.69
685.01	1327.08
685.19	1200.11
685.38	1312.75
685.57	1279.98
685.75	1277.93
685.94	1308.65
686.12	1282.03
686.31	1329.13
686.49	1277.93
686.68	1288.17
686.86	1288.17
687.05	1249.26
687.23	1241.07
687.42	1230.83
687.60	1208.30
687.79	1310.70
687.97	1329.13
688.16	1265.64
688.34	1241.07
688.53	1294.32
688.71	1230.83
688.90	1239.02
689.08	1298.41
689.27	1204.21
689.45	1331.18
689.64	1245.16
689.82	1257.45
690.01	1298.41
690.19	1314.80
690.38	1337.32
690.56	1271.79
690.75	1271.79
690.93	1273.84
691.12	1189.87
691.30	1265.64
691.49	1222.64
691.67	1259.50
691.86	1228.78
692.04	1243.12
692.23	1316.84
692.41	1249.26
692.60	1230.83
692.78	1288.17
692.97	1228.78
693.15	1265.64
693.34	1228.78
693.52	1273.84
693.71	1310.70
693.89	1259.50
694.08	1269.74
694.26	1273.84
694.44	1216.49
694.63	1255.40
694.81	1282.03
695.00	1312.75
695.18	1318.89
695.37	1312.75
695.55	1343.47
695.74	1322.99
695.92	1257.45
696.10	1247.21
696.29	1277.93
696.47	1236.97
696.66	1241.07
696.84	1273.84
697.03	1226.73
697.21	1298.41
697.40	1269.74
697.58	1308.65
697.76	1320.94
697.95	1325.04
698.13	1245.16
698.32	1216.49
698.50	1245.16
698.68	1337.32
698.87	1314.80
699.05	1253.36
699.24	1216.49
699.42	1292.27
699.61	1286.12
699.79	1232.88
699.97	1302.51
700.16	1290.22
700.34	1335.28
700.53	1279.98
700.71	1185.77
700.89	1314.80
701.08	1226.73
701.26	1370.09
701.45	1212.40
701.63	1226.73
701.81	1318.89
702.00	1290.22
702.18	1294.32
702.37	1286.12
702.55	1300.46
702.73	1210.35
702.92	1284.08
703.10	1257.45
703.28	1302.51
703.47	1198.06
703.65	1318.89
703.84	1370.09
704.02	1310.70
704.20	1245.16
704.39	1271.79
704.57	1282.03
704.75	1269.74
704.94	1316.84
705.12	1259.50
705.30	1232.88
705.49	1253.36
705.67	1247.21
705.86	1275.88
706.04	1241.07
706.22	1265.64
706.41	1232.88
706.59	1304.56
706.77	1239.02
706.96	1294.32
707.14	1275.88
707.32	1327.08
707.51	1271.79
707.69	1249.26
707.87	1259.50
708.06	1212.40
708.24	1292.27
708.42	1282.03
708.61	1284.08
708.79	1310.70
708.97	1374.19
709.16	1218.54
709.34	1249.26
709.52	1304.56
709.71	1269.74
709.89	1259.50
710.07	1257.45
710.26	1294.32
710.44	1216.49
710.62	1333.23
710.80	1282.03
710.99	1302.51
711.17	1232.88
711.35	1257.45
711.54	1298.41
711.72	1253.36
711.90	1253.36
712.09	1249.26
712.27	1306.60
712.45	1269.74
712.63	1304.56
712.82	1232.88
713.00	1275.88
713.18	1222.64
713.37	1306.60
713.55	1249.26
713.73	1388.52
713.91	1243.12
714.10	1216.49
714.28	1236.97
714.46	1290.22
714.65	1243.12
714.83	1239.02
715.01	1236.97
715.19	1208.30
715.38	1331.18
715.56	1273.84
715.74	1241.07
715.92	1312.75
716.11	1314.80
716.29	1257.45
716.47	1343.47
716.65	1222.64
716.84	1228.78
717.02	1316.84
717.20	1236.97
717.38	1271.79
717.57	1241.07
717.75	1279.98
717.93	1245.16
718.11	1261.55
718.30	1245.16
718.48	1314.80
718.66	1267.69
718.84	1269.74
719.03	1261.55
719.21	1349.61
719.39	1265.64
719.57	1265.64
719.75	1267.69
719.94	1239.02
720.12	1222.64
720.30	1257.45
720.48	1239.02
720.67	1296.36
720.85	1300.46
721.03	1232.88
721.21	1288.17
721.39	1286.12
721.58	1310.70
721.76	1314.80
721.94	1284.08
722.12	1220.59
722.30	1263.60
722.49	1349.61
722.67	1253.36
722.85	1185.77
723.03	1216.49
723.21	1216.49
723.40	1212.40
723.58	1279.98
723.76	1234.93
723.94	1306.60
724.12	1263.60
724.30	1259.50
724.49	1220.59
724.67	1222.64
724.85	1259.50
725.03	1220.59
725.21	1208.30
725.40	1255.40
725.58	1234.93
725.76	1269.74
725.94	1290.22
726.12	1320.94
726.30	1220.59
726.49	1204.21
726.67	1241.07
726.85	1310.70
727.03	1247.21
727.21	1265.64
727.39	1279.98
727.57	1265.64
727.76	1322.99
727.94	1224.69
728.12	1296.36
728.30	1329.13
728.48	1353.71
728.66	1337.32
728.84	1269.74
729.03	1296.36
729.21	1302.51
729.39	1259.50
729.57	1335.28
729.75	1236.97
729.93	1273.84
730.11	1292.27
730.30	1234.93
730.48	1265.64
730.66	1267.69
730.84	1208.30
731.02	1327.08
731.20	1273.84
731.38	1290.22
731.56	1236.97
731.74	1257.45
731.93	1284.08
732.11	1255.40
732.29	1359.85
732.47	1241.07
732.65	1284.08
732.83	1249.26
733.01	1245.16
733.19	1204.21
733.37	1282.03
733.56	1253.36
733.74	1234.93
733.92	1304.56
734.10	1261.55
734.28	1210.35
734.46	1163.25
734.64	1261.55
734.82	1304.56
735.00	1349.61
735.18	1261.55
735.36	1343.47
735.54	1214.45
735.73	1210.35
735.91	1298.41
736.09	1257.45
736.27	1294.32
736.45	1251.31
736.63	1257.45
736.81	1255.40
736.99	1325.04
737.17	1253.36
737.35	1183.73
737.53	1275.88
737.71	1253.36
737.89	1269.74
738.07	1222.64
738.25	1351.66
738.43	1189.87
738.61	1271.79
738.80	1157.10
738.98	1298.41
739.16	1247.21
739.34	1267.69
739.52	1290.22
739.70	1318.89
739.88	1273.84
740.06	1226.73
740.24	1302.51
740.42	1140.72
740.60	1224.69
740.78	1255.40
740.96	1318.89
741.14	1222.64
741.32	1275.88
741.50	1222.64
741.68	1294.32
741.86	1343.47
742.04	1236.97
742.22	1234.93
742.40	1239.02
742.58	1282.03
742.76	1263.60
742.94	1341.42
743.12	1261.55
743.30	1275.88
743.48	1249.26
743.66	1220.59
743.84	1302.51
744.02	1290.22
744.20	1286.12
744.38	1222.64
744.56	1218.54
744.74	1253.36
744.92	1327.08
745.10	1290.22
745.28	1247.21
745.46	1331.18
745.64	1220.59
745.82	1232.88
746.00	1236.97
746.18	1232.88
746.36	1275.88
746.54	1292.27
746.72	1322.99
746.90	1300.46
747.08	1220.59
747.26	1337.32
747.44	1261.55
747.62	1322.99
747.80	1277.93
747.98	1220.59
748.15	1329.13
748.33	1300.46
748.51	1230.83
748.69	1269.74
748.87	1271.79
749.05	1257.45
749.23	1189.87
749.41	1306.60
749.59	1355.76
749.77	1171.44
749.95	1302.51
750.13	1232.88
750.31	1320.94
750.49	1224.69
750.67	1329.13
750.85	1185.77
751.03	1224.69
751.20	1296.36
751.38	1255.40
751.56	1308.65
751.74	1267.69
751.92	1282.03
752.10	1306.60
752.28	1288.17
752.46	1292.27
752.64	1239.02
752.82	1292.27
753.00	1208.30
753.18	1271.79
753.35	1284.08
753.53	1232.88
753.71	1273.84
753.89	1196.01
754.07	1241.07
754.25	1263.60
754.43	1284.08
754.61	1226.73
754.79	1294.32
754.97	1275.88
755.14	1236.97
755.32	1294.32
755.50	1273.84
755.68	1214.45
755.86	1263.60
756.04	1292.27
756.22	1185.77
756.40	1302.51
756.57	1212.40
756.75	1298.41
756.93	1273.84
757.11	1230.83
757.29	1269.74
757.47	1243.12
757.65	1202.16
757.82	1282.03
758.00	1189.87
758.18	1366.00
758.36	1239.02
758.54	1294.32
758.72	1218.54
758.90	1271.79
759.07	1308.65
759.25	1263.60
759.43	1277.93
759.61	1296.36
759.79	1294.32
759.97	1261.55
760.15	1255.40
760.32	1257.45
760.50	1247.21
760.68	1224.69
760.86	1263.60
761.04	1300.46
761.22	1275.88
761.39	1335.28
761.57	1300.46
761.75	1214.45
761.93	1327.08
762.11	1388.52
762.28	1355.76
762.46	1228.78
762.64	1247.21
762.82	1243.12
763.00	1251.31
763.18	1239.02
763.35	1302.51
763.53	1304.56
763.71	1366.00
763.89	1212.40
764.07	1290.22
764.24	1292.27
764.42	1339.37
764.60	1288.17
764.78	1216.49
764.96	1259.50
765.13	1269.74
765.31	1294.32
765.49	1339.37
765.67	1255.40
765.84	1253.36
766.02	1253.36
766.20	1273.84
766.38	1277.93
766.56	1230.83
766.73	1214.45
766.91	1298.41
767.09	1265.64
767.27	1286.12
767.44	1327.08
767.62	1310.70
767.80	1257.45
767.98	1239.02
768.15	1239.02
768.33	1282.03
768.51	1325.04
768.69	1245.16
768.87	1216.49
769.04	1316.84
769.22	1284.08
769.40	1261.55
769.58	1257.45
769.75	1232.88
769.93	1314.80
770.11	1310.70
770.28	1273.84
770.46	1247.21
770.64	1230.83
770.82	1310.70
770.99	1277.93
771.17	1275.88
771.35	1296.36
771.53	1306.60
771.70	1241.07
771.88	1314.80
772.06	1175.53
772.23	1216.49
772.41	1286.12
772.59	1206.25
772.77	1300.46
772.94	1282.03
773.12	1245.16
773.30	1308.65
773.47	1251.31
773.65	1306.60
773.83	1331.18
774.01	1277.93
774.18	1247.21
774.36	1288.17
774.54	1200.11
774.71	1288.17
774.89	1239.02
775.07	1290.22
775.24	1318.89
775.42	1322.99
775.60	1271.79
775.78	1245.16
775.95	1331.18
776.13	1279.98
776.31	1169.39
776.48	1277.93
776.66	1288.17
776.84	1300.46
777.01	1286.12
777.19	1269.74
777.37	1302.51
777.54	1282.03
777.72	1331.18
777.90	1286.12
778.07	1236.97
778.25	1333.23
778.43	1288.17
778.60	1249.26
778.78	1298.41
778.96	1234.93
779.13	1224.69
779.31	1245.16
779.49	1308.65
779.66	1335.28
779.84	1282.03
780.01	1308.65
780.19	1228.78
780.37	1284.08
780.54	1241.07
780.72	1284.08
780.90	1296.36
781.07	1216.49
781.25	1296.36
781.43	1273.84
781.60	1206.25
781.78	1284.08
781.95	1249.26
782.13	1208.30
782.31	1239.02
782.48	1345.52
782.66	1234.93
782.83	1255.40
783.01	1273.84
783.19	1255.40
783.36	1296.36
783.54	1181.68
783.72	1261.55
783.89	1212.40
784.07	1290.22
784.24	1202.16
784.42	1257.45
784.60	1325.04
784.77	1314.80
784.95	1300.46
785.12	1228.78
785.30	1298.41
785.47	1245.16
785.65	1271.79
785.83	1353.71
786.00	1288.17
786.18	1259.50
786.35	1247.21
786.53	1255.40
786.71	1259.50
786.88	1314.80
787.06	1322.99
787.23	1288.17
787.41	1312.75
787.58	1335.28
787.76	1325.04
787.94	1306.60
788.11	1265.64
788.29	1279.98
788.46	1294.32
788.64	1275.88
788.81	1294.32
788.99	1228.78
789.16	1310.70
789.34	1298.41
789.52	1177.58
789.69	1347.56
789.87	1302.51
790.04	1269.74
790.22	1214.45
790.39	1245.16
790.57	1253.36
790.74	1286.12
790.92	1310.70
791.09	1253.36
791.27	1234.93
791.44	1361.90
791.62	1286.12
791.79	1230.83
791.97	1241.07
792.15	1230.83
792.32	1273.84
792.50	1277.93
792.67	1296.36
792.85	1230.83
793.02	1230.83
793.20	1236.97
793.37	1241.07
793.55	1228.78
793.72	1196.01
793.90	1216.49
794.07	1253.36
794.25	1226.73
794.42	1222.64
794.60	1200.11
794.77	1224.69
794.95	1253.36
795.12	1284.08
795.30	1255.40
795.47	1210.35
795.65	1249.26
795.82	1218.54
796.00	1329.13
796.17	1200.11
796.34	1257.45
796.52	1257.45
796.69	1230.83
796.87	1357.80
797.04	1302.51
797.22	1234.93
797.39	1265.64
797.57	1314.80
797.74	1267.69
797.92	1300.46
798.09	1320.94
798.27	1271.79
798.44	1316.84
798.62	1263.60
798.79	1224.69
798.96	1230.83
799.14	1318.89
799.31	1257.45
799.49	1277.93
799.66	1310.70
799.84	1226.73
800.01	1261.55
800.19	1269.74
800.36	1269.74
800.53	1298.41
800.71	1298.41
800.88	1267.69
801.06	1224.69
801.23	1302.51
801.41	1286.12
801.58	1331.18
801.75	1269.74
801.93	1234.93
802.10	1271.79
802.28	1257.45
802.45	1257.45
802.63	1300.46
802.80	1282.03
802.97	1277.93
803.15	1312.75
803.32	1249.26
803.50	1216.49
803.67	1271.79
803.84	1212.40
804.02	1312.75
804.19	1245.16
804.37	1259.50
804.54	1279.98
804.71	1255.40
804.89	1308.65
805.06	1304.56
805.24	1230.83
805.41	1277.93
805.58	1263.60
805.76	1288.17
805.93	1218.54
806.10	1232.88
806.28	1290.22
806.45	1273.84
806.63	1294.32
806.80	1282.03
806.97	1329.13
807.15	1222.64
807.32	1271.79
807.49	1228.78
807.67	1243.12
807.84	1288.17
808.01	1257.45
808.19	1226.73
808.36	1239.02
808.54	1275.88
808.71	1279.98
808.88	1325.04
809.06	1196.01
809.23	1282.03
809.40	1220.59
809.58	1261.55
809.75	1316.84
809.92	1255.40
810.10	1318.89
810.27	1210.35
810.44	1277.93
810.62	1218.54
810.79	1214.45
810.96	1253.36
811.14	1243.12
811.31	1282.03
811.48	1329.13
811.66	1251.31
811.83	1249.26
812.00	1316.84
812.18	1245.16
812.35	1193.97
812.52	1253.36
812.69	1247.21
812.87	1245.16
813.04	1251.31
813.21	1322.99
813.39	1234.93
813.56	1257.45
813.73	1236.97
813.91	1261.55
814.08	1277.93
814.25	1245.16
814.42	1290.22
814.60	1306.60
814.77	1216.49
814.94	1273.84
815.12	1288.17
815.29	1304.56
815.46	1335.28
815.63	1288.17
815.81	1267.69
815.98	1279.98
816.15	1292.27
816.33	1224.69
816.50	1298.41
816.67	1310.70
816.84	1271.79
817.02	1253.36
817.19	1228.78
817.36	1286.12
817.53	1265.64
817.71	1245.16
817.88	1259.50
818.05	1253.36
818.22	1214.45
818.40	1236.97
818.57	1241.07
818.74	1271.79
818.91	1259.50
819.09	1269.74
819.26	1249.26
819.43	1243.12
819.60	1236.97
819.78	1292.27
819.95	1343.47
820.12	1286.12
820.29	1269.74
820.47	1249.26
820.64	1265.64
820.81	1275.88
820.98	1302.51
821.15	1284.08
821.33	1306.60
821.50	1284.08
821.67	1224.69
821.84	1255.40
822.02	1189.87
822.19	1267.69
822.36	1277.93
822.53	1212.40
822.70	1257.45
822.88	1290.22
823.05	1224.69
823.22	1296.36
823.39	1257.45
823.56	1185.77
823.74	1204.21
823.91	1249.26
824.08	1269.74
824.25	1320.94
824.42	1279.98
824.60	1306.60
824.77	1296.36
824.94	1290.22
825.11	1320.94
825.28	1277.93
825.45	1277.93
825.63	1267.69
825.80	1282.03
825.97	1271.79
826.14	1255.40
826.31	1300.46
826.48	1322.99
826.66	1343.47
826.83	1316.84
827.00	1236.97
827.17	1335.28
827.34	1216.49
827.51	1204.21
827.69	1296.36
827.86	1275.88
828.03	1261.55
828.20	1234.93
828.37	1288.17
828.54	1263.60
828.71	1290.22
828.89	1236.97
829.06	1296.36
829.23	1273.84
829.40	1286.12
829.57	1239.02
829.74	1234.93
829.91	1193.97
830.09	1269.74
830.26	1232.88
830.43	1314.80
830.60	1214.45
830.77	1208.30
830.94	1200.11
831.11	1273.84
831.28	1273.84
831.46	1267.69
831.63	1271.79
831.80	1294.32
831.97	1226.73
832.14	1286.12
832.31	1273.84
832.48	1261.55
832.65	1263.60
832.82	1202.16
832.99	1296.36
833.17	1232.88
833.34	1228.78
833.51	1296.36
833.68	1249.26
833.85	1267.69
834.02	1251.31
834.19	1226.73
834.36	1294.32
834.53	1269.74
834.70	1241.07
834.87	1257.45
835.04	1269.74
835.22	1261.55
835.39	1255.40
835.56	1216.49
835.73	1279.98
835.90	1239.02
836.07	1271.79
836.24	1232.88
836.41	1251.31
836.58	1239.02
836.75	1308.65
836.92	1226.73
837.09	1271.79
837.26	1290.22
837.43	1277.93
837.60	1282.03
837.77	1218.54
837.94	1316.84
838.12	1290.22
838.29	1247.21
838.46	1347.56
838.63	1327.08
838.80	1255.40
838.97	1265.64
839.14	1263.60
839.31	1290.22
839.48	1230.83
839.65	1230.83
839.82	1290.22
839.99	1249.26
840.16	1314.80
840.33	1275.88
840.50	1306.60
840.67	1245.16
840.84	1318.89
841.01	1290.22
841.18	1236.97
841.35	1259.50
841.52	1310.70
841.69	1322.99
841.86	1263.60
842.03	1220.59
842.20	1271.79
842.37	1277.93
842.54	1292.27
842.71	1279.98
842.88	1249.26
843.05	1279.98
843.22	1222.64
843.39	1284.08
843.56	1286.12
843.73	1269.74
843.90	1200.11
844.07	1253.36
844.24	1222.64
844.41	1300.46
844.58	1232.88
844.75	1216.49
844.92	1273.84
845.09	1267.69
845.26	1279.98
845.43	1290.22
845.60	1282.03
845.77	1335.28
845.94	1263.60
846.10	1263.60
846.27	1232.88
846.44	1269.74
846.61	1337.32
846.78	1249.26
846.95	1196.01
847.12	1263.60
847.29	1259.50
847.46	1249.26
847.63	1232.88
847.80	1191.92
847.97	1232.88
848.14	1185.77
848.31	1253.36
848.48	1245.16
848.65	1294.32
848.82	1187.82
848.98	1273.84
849.15	1261.55
849.32	1296.36
849.49	1208.30
849.66	1327.08
849.83	1243.12
850.00	1347.56
850.17	1204.21
850.34	1255.40
850.51	1253.36
850.68	1232.88
850.85	1263.60
851.01	1249.26
851.18	1251.31
851.35	1288.17
851.52	1286.12
851.69	1339.37
851.86	1271.79
852.03	1275.88
852.20	1312.75
852.37	1259.50
852.53	1271.79
852.70	1318.89
852.87	1257.45
853.04	1232.88
853.21	1288.17
853.38	1263.60
853.55	1222.64
853.72	1355.76
853.89	1241.07
854.05	1247.21
854.22	1308.65
854.39	1279.98
854.56	1277.93
854.73	1353.71
854.90	1337.32
855.07	1310.70
855.23	1363.95
855.40	1294.32
855.57	1277.93
855.74	1304.56
855.91	1288.17
856.08	1163.25
856.25	1236.97
856.41	1284.08
856.58	1249.26
856.75	1267.69
856.92	1310.70
857.09	1239.02
857.26	1204.21
857.42	1279.98
857.59	1282.03
857.76	1306.60
857.93	1267.69
858.10	1216.49
858.27	1251.31
858.43	1232.88
858.60	1286.12
858.77	1222.64
858.94	1222.64
859.11	1314.80
859.27	1318.89
859.44	1232.88
859.61	1251.31
859.78	1222.64
859.95	1253.36
860.12	1255.40
860.28	1243.12
860.45	1247.21
860.62	1312.75
860.79	1241.07
860.95	1265.64
861.12	1286.12
861.29	1218.54
861.46	1241.07
861.63	1286.12
861.79	1265.64
861.96	1292.27
862.13	1298.41
862.30	1228.78
862.47	1273.84
862.63	1259.50
862.80	1277.93
862.97	1267.69
863.14	1230.83
863.30	1236.97
863.47	1253.36
863.64	1267.69
863.81	1308.65
863.97	1288.17
864.14	1196.01
864.31	1236.97
864.48	1308.65
864.65	1216.49
864.81	1255.40
864.98	1306.60
865.15	1273.84
865.32	1269.74
865.48	1255.40
865.65	1216.49
865.82	1261.55
865.98	1216.49
866.15	1210.35
866.32	1277.93
866.49	1222.64
866.65	1243.12
866.82	1214.45
866.99	1179.63
867.16	1298.41
867.32	1257.45
867.49	1255.40
867.66	1247.21
867.83	1214.45
867.99	1267.69
868.16	1230.83
868.33	1265.64
868.49	1202.16
868.66	1255.40
868.83	1306.60
868.99	1232.88
869.16	1275.88
869.33	1220.59
869.50	1343.47
869.66	1222.64
869.83	1333.23
870.00	1226.73
870.16	1265.64
870.33	1282.03
870.50	1296.36
870.66	1222.64
870.83	1304.56
871.00	1345.52
871.17	1275.88
871.33	1150.96
871.50	1300.46
871.67	1282.03
871.83	1269.74
872.00	1335.28
872.17	1275.88
872.33	1308.65
872.50	1314.80
872.67	1212.40
872.83	1241.07
873.00	1236.97
873.17	1298.41
873.33	1200.11
873.50	1253.36
873.67	1284.08
873.83	1345.52
874.00	1247.21
874.16	1216.49
874.33	1236.97
874.50	1239.02
874.66	1204.21
874.83	1288.17
875.00	1310.70
875.16	1243.12
875.33	1216.49
875.50	1277.93
875.66	1316.84
875.83	1279.98
875.99	1294.32
876.16	1277.93
876.33	1294.32
876.49	1316.84
876.66	1196.01
876.83	1282.03
876.99	1249.26
877.16	1271.79
877.32	1292.27
877.49	1320.94
877.66	1284.08
877.82	1273.84
877.99	1187.82
878.15	1282.03
878.32	1310.70
878.49	1222.64
878.65	1241.07
878.82	1273.84
878.98	1267.69
879.15	1220.59
879.32	1277.93
879.48	1249.26
879.65	1314.80
879.81	1269.74
879.98	1241.07
880.15	1239.02
880.31	1290.22
880.48	1236.97
880.64	1202.16
880.81	1318.89
880.97	1196.01
881.14	1277.93
881.31	1253.36
881.47	1251.31
881.64	1200.11
881.80	1198.06
881.97	1241.07
882.13	1267.69
882.30	1298.41
882.47	1206.25
882.63	1222.64
882.80	1261.55
882.96	1290.22
883.13	1255.40
883.29	1310.70
883.46	1239.02
883.62	1271.79
883.79	1239.02
883.95	1255.40
884.12	1208.30
884.29	1200.11
884.45	1241.07
884.62	1296.36
884.78	1294.32
884.95	1214.45
885.11	1316.84
885.28	1292.27
885.44	1245.16
885.61	1259.50
885.77	1302.51
885.94	1263.60
886.10	1259.50
886.27	1339.37
886.43	1232.88
886.60	1224.69
886.76	1161.20
886.93	1279.98
887.09	1263.60
887.26	1279.98
887.42	1245.16
887.59	1302.51
887.75	1263.60
887.92	1245.16
888.08	1273.84
888.25	1275.88
888.41	1298.41
888.58	1312.75
888.74	1288.17
888.91	1273.84
>>>>>End Processed Spectral Data<<<<<
