SpectraSuite Data File
++++++++++++++++++++++++++++++++++++
Date: Sun Apr 03 19:55:26 CEST 2016
User: root
Dark Spectrum Present: No
Reference Spectrum Present: No
Number of Sampled Component Spectra: 1
Spectrometers: USB4C02835
Integration Time (usec): 10000 (USB4C02835)
Spectra Averaged: 1 (USB4C02835)
Boxcar Smoothing: 0 (USB4C02835)
Correct for Electrical Dark: No (USB4C02835)
Strobe/Lamp Enabled: No (USB4C02835)
Correct for Detector Non-linearity: No (USB4C02835)
Correct for Stray Light: No (USB4C02835)
Number of Pixels in Processed Spectrum: 3648
>>>>>Begin Processed Spectral Data<<<<<
177.47	1271.79
177.69	1271.79
177.91	1271.79
178.13	1232.88
178.36	1228.78
178.58	1259.50
178.80	1308.65
179.02	1198.06
179.24	1269.74
179.46	1290.22
179.68	1222.64
179.90	1345.52
180.13	1302.51
180.35	1288.17
180.57	1316.84
180.79	1243.12
181.01	1267.69
181.23	1318.89
181.45	1206.25
181.67	1282.03
181.90	1251.31
182.12	1269.74
182.34	1249.26
182.56	1343.47
182.78	1314.80
183.00	1232.88
183.22	1306.60
183.44	1306.60
183.66	1279.98
183.89	1253.36
184.11	1251.31
184.33	1249.26
184.55	1251.31
184.77	1300.46
184.99	1286.12
185.21	1253.36
185.43	1298.41
185.65	1322.99
185.87	1292.27
186.10	1181.68
186.32	1277.93
186.54	1261.55
186.76	1320.94
186.98	1322.99
187.20	1279.98
187.42	1234.93
187.64	1222.64
187.86	1263.60
188.08	1236.97
188.30	1288.17
188.52	1288.17
188.75	1329.13
188.97	1271.79
189.19	1269.74
189.41	1322.99
189.63	1212.40
189.85	1339.37
190.07	1265.64
190.29	1269.74
190.51	1193.97
190.73	1273.84
190.95	1220.59
191.17	1318.89
191.39	1206.25
191.61	1331.18
191.84	1208.30
192.06	1282.03
192.28	1222.64
192.50	1312.75
192.72	1224.69
192.94	1294.32
193.16	1292.27
193.38	1247.21
193.60	1226.73
193.82	1267.69
194.04	1273.84
194.26	1173.49
194.48	1161.20
194.70	1275.88
194.92	1222.64
195.14	1253.36
195.36	1275.88
195.58	1312.75
195.80	1265.64
196.02	1245.16
196.24	1249.26
196.46	1288.17
196.69	1284.08
196.91	1320.94
197.13	1322.99
197.35	1161.20
197.57	1234.93
197.79	1325.04
198.01	1249.26
198.23	1275.88
198.45	1247.21
198.67	1249.26
198.89	1265.64
199.11	1241.07
199.33	1341.42
199.55	1263.60
199.77	1230.83
199.99	1290.22
200.21	1212.40
200.43	1304.56
200.65	1322.99
200.87	1279.98
201.09	1304.56
201.31	1277.93
201.53	1245.16
201.75	1277.93
201.97	1208.30
202.19	1273.84
202.41	1282.03
202.63	1257.45
202.85	1230.83
203.07	1294.32
203.29	1273.84
203.51	1265.64
203.73	1273.84
203.95	1300.46
204.17	1247.21
204.39	1273.84
204.61	1288.17
204.83	1255.40
205.05	1318.89
205.27	1204.21
205.49	1232.88
205.71	1277.93
205.93	1265.64
206.15	1271.79
206.37	1265.64
206.59	1206.25
206.81	1259.50
207.03	1320.94
207.25	1267.69
207.47	1306.60
207.69	1282.03
207.91	1296.36
208.13	1312.75
208.34	1296.36
208.56	1273.84
208.78	1300.46
209.00	1249.26
209.22	1253.36
209.44	1374.19
209.66	1277.93
209.88	1290.22
210.10	1214.45
210.32	1265.64
210.54	1245.16
210.76	1271.79
210.98	1329.13
211.20	1333.23
211.42	1204.21
211.64	1300.46
211.86	1292.27
212.08	1300.46
212.30	1329.13
212.52	1292.27
212.74	1222.64
212.96	1275.88
213.17	1263.60
213.39	1251.31
213.61	1308.65
213.83	1267.69
214.05	1239.02
214.27	1265.64
214.49	1263.60
214.71	1210.35
214.93	1277.93
215.15	1251.31
215.37	1282.03
215.59	1224.69
215.81	1226.73
216.03	1275.88
216.24	1249.26
216.46	1245.16
216.68	1275.88
216.90	1216.49
217.12	1216.49
217.34	1275.88
217.56	1251.31
217.78	1189.87
218.00	1277.93
218.22	1228.78
218.44	1267.69
218.66	1300.46
218.87	1282.03
219.09	1269.74
219.31	1249.26
219.53	1234.93
219.75	1216.49
219.97	1232.88
220.19	1261.55
220.41	1269.74
220.63	1230.83
220.85	1290.22
221.06	1253.36
221.28	1271.79
221.50	1265.64
221.72	1331.18
221.94	1253.36
222.16	1273.84
222.38	1267.69
222.60	1261.55
222.82	1329.13
223.03	1351.66
223.25	1277.93
223.47	1298.41
223.69	1286.12
223.91	1298.41
224.13	1196.01
224.35	1329.13
224.57	1314.80
224.78	1265.64
225.00	1265.64
225.22	1300.46
225.44	1279.98
225.66	1247.21
225.88	1294.32
226.10	1187.82
226.32	1269.74
226.53	1286.12
226.75	1253.36
226.97	1212.40
227.19	1234.93
227.41	1208.30
227.63	1267.69
227.85	1232.88
228.06	1267.69
228.28	1239.02
228.50	1220.59
228.72	1228.78
228.94	1185.77
229.16	1241.07
229.37	1253.36
229.59	1304.56
229.81	1263.60
230.03	1298.41
230.25	1271.79
230.47	1261.55
230.69	1202.16
230.90	1279.98
231.12	1341.42
231.34	1216.49
231.56	1294.32
231.78	1312.75
232.00	1230.83
232.21	1253.36
232.43	1306.60
232.65	1263.60
232.87	1310.70
233.09	1249.26
233.30	1253.36
233.52	1265.64
233.74	1271.79
233.96	1331.18
234.18	1202.16
234.40	1325.04
234.61	1288.17
234.83	1286.12
235.05	1267.69
235.27	1304.56
235.49	1239.02
235.70	1222.64
235.92	1296.36
236.14	1257.45
236.36	1257.45
236.58	1234.93
236.79	1265.64
237.01	1290.22
237.23	1306.60
237.45	1269.74
237.67	1208.30
237.88	1253.36
238.10	1288.17
238.32	1277.93
238.54	1239.02
238.76	1198.06
238.97	1312.75
239.19	1249.26
239.41	1331.18
239.63	1292.27
239.85	1267.69
240.06	1306.60
240.28	1314.80
240.50	1245.16
240.72	1318.89
240.93	1284.08
241.15	1288.17
241.37	1361.90
241.59	1275.88
241.81	1282.03
242.02	1226.73
242.24	1261.55
242.46	1339.37
242.68	1290.22
242.89	1232.88
243.11	1130.48
243.33	1275.88
243.55	1222.64
243.76	1232.88
243.98	1196.01
244.20	1241.07
244.42	1277.93
244.64	1282.03
244.85	1273.84
245.07	1263.60
245.29	1255.40
245.51	1288.17
245.72	1255.40
245.94	1282.03
246.16	1273.84
246.38	1230.83
246.59	1224.69
246.81	1325.04
247.03	1251.31
247.24	1253.36
247.46	1277.93
247.68	1271.79
247.90	1308.65
248.11	1288.17
248.33	1261.55
248.55	1212.40
248.77	1366.00
248.98	1247.21
249.20	1226.73
249.42	1214.45
249.64	1286.12
249.85	1239.02
250.07	1206.25
250.29	1253.36
250.50	1220.59
250.72	1218.54
250.94	1196.01
251.16	1273.84
251.37	1243.12
251.59	1271.79
251.81	1306.60
252.02	1271.79
252.24	1288.17
252.46	1275.88
252.68	1253.36
252.89	1249.26
253.11	1187.82
253.33	1265.64
253.54	1230.83
253.76	1251.31
253.98	1210.35
254.20	1216.49
254.41	1245.16
254.63	1214.45
254.85	1255.40
255.06	1286.12
255.28	1200.11
255.50	1204.21
255.71	1214.45
255.93	1292.27
256.15	1273.84
256.36	1247.21
256.58	1339.37
256.80	1314.80
257.02	1228.78
257.23	1214.45
257.45	1296.36
257.67	1372.14
257.88	1220.59
258.10	1263.60
258.32	1212.40
258.53	1241.07
258.75	1310.70
258.97	1232.88
259.18	1284.08
259.40	1318.89
259.62	1267.69
259.83	1267.69
260.05	1253.36
260.27	1267.69
260.48	1304.56
260.70	1333.23
260.92	1191.92
261.13	1241.07
261.35	1253.36
261.57	1335.28
261.78	1310.70
262.00	1216.49
262.22	1302.51
262.43	1271.79
262.65	1236.97
262.86	1271.79
263.08	1243.12
263.30	1279.98
263.51	1241.07
263.73	1306.60
263.95	1294.32
264.16	1318.89
264.38	1298.41
264.60	1300.46
264.81	1277.93
265.03	1325.04
265.25	1212.40
265.46	1241.07
265.68	1314.80
265.89	1230.83
266.11	1232.88
266.33	1255.40
266.54	1286.12
266.76	1271.79
266.98	1312.75
267.19	1206.25
267.41	1306.60
267.62	1300.46
267.84	1312.75
268.06	1277.93
268.27	1224.69
268.49	1298.41
268.70	1200.11
268.92	1312.75
269.14	1269.74
269.35	1224.69
269.57	1239.02
269.79	1286.12
270.00	1251.31
270.22	1257.45
270.43	1273.84
270.65	1288.17
270.87	1269.74
271.08	1241.07
271.30	1300.46
271.51	1282.03
271.73	1275.88
271.95	1253.36
272.16	1292.27
272.38	1208.30
272.59	1296.36
272.81	1290.22
273.02	1220.59
273.24	1243.12
273.46	1271.79
273.67	1243.12
273.89	1290.22
274.10	1261.55
274.32	1267.69
274.54	1249.26
274.75	1204.21
274.97	1255.40
275.18	1300.46
275.40	1200.11
275.61	1218.54
275.83	1241.07
276.05	1214.45
276.26	1236.97
276.48	1208.30
276.69	1193.97
276.91	1265.64
277.12	1294.32
277.34	1288.17
277.55	1298.41
277.77	1304.56
277.99	1220.59
278.20	1222.64
278.42	1181.68
278.63	1312.75
278.85	1277.93
279.06	1263.60
279.28	1284.08
279.49	1304.56
279.71	1261.55
279.93	1247.21
280.14	1243.12
280.36	1345.52
280.57	1175.53
280.79	1271.79
281.00	1294.32
281.22	1253.36
281.43	1200.11
281.65	1331.18
281.86	1294.32
282.08	1253.36
282.29	1304.56
282.51	1218.54
282.73	1263.60
282.94	1316.84
283.16	1304.56
283.37	1279.98
283.59	1245.16
283.80	1208.30
284.02	1243.12
284.23	1273.84
284.45	1202.16
284.66	1284.08
284.88	1247.21
285.09	1169.39
285.31	1306.60
285.52	1243.12
285.74	1255.40
285.95	1239.02
286.17	1331.18
286.38	1259.50
286.60	1234.93
286.81	1316.84
287.03	1286.12
287.24	1277.93
287.46	1247.21
287.67	1232.88
287.89	1282.03
288.10	1265.64
288.32	1234.93
288.53	1228.78
288.75	1247.21
288.96	1292.27
289.18	1288.17
289.39	1193.97
289.61	1308.65
289.82	1322.99
290.04	1257.45
290.25	1277.93
290.47	1216.49
290.68	1193.97
290.90	1327.08
291.11	1265.64
291.33	1216.49
291.54	1273.84
291.76	1265.64
291.97	1284.08
292.18	1228.78
292.40	1251.31
292.61	1198.06
292.83	1335.28
293.04	1212.40
293.26	1265.64
293.47	1247.21
293.69	1286.12
293.90	1181.68
294.12	1298.41
294.33	1286.12
294.55	1318.89
294.76	1341.42
294.97	1314.80
295.19	1243.12
295.40	1292.27
295.62	1259.50
295.83	1370.09
296.05	1255.40
296.26	1312.75
296.48	1259.50
296.69	1257.45
296.90	1189.87
297.12	1298.41
297.33	1218.54
297.55	1259.50
297.76	1214.45
297.98	1261.55
298.19	1300.46
298.41	1257.45
298.62	1322.99
298.83	1204.21
299.05	1261.55
299.26	1206.25
299.48	1247.21
299.69	1271.79
299.90	1314.80
300.12	1128.43
300.33	1296.36
300.55	1259.50
300.76	1249.26
300.98	1243.12
301.19	1294.32
301.40	1247.21
301.62	1200.11
301.83	1294.32
302.05	1273.84
302.26	1353.71
302.47	1310.70
302.69	1251.31
302.90	1347.56
303.12	1269.74
303.33	1302.51
303.54	1239.02
303.76	1355.76
303.97	1226.73
304.19	1220.59
304.40	1255.40
304.61	1263.60
304.83	1286.12
305.04	1353.71
305.26	1279.98
305.47	1265.64
305.68	1304.56
305.90	1249.26
306.11	1226.73
306.33	1200.11
306.54	1245.16
306.75	1290.22
306.97	1245.16
307.18	1187.82
307.39	1208.30
307.61	1236.97
307.82	1253.36
308.04	1191.92
308.25	1322.99
308.46	1308.65
308.68	1249.26
308.89	1234.93
309.10	1294.32
309.32	1310.70
309.53	1202.16
309.74	1234.93
309.96	1171.44
310.17	1255.40
310.39	1316.84
310.60	1249.26
310.81	1261.55
311.03	1257.45
311.24	1298.41
311.45	1263.60
311.67	1161.20
311.88	1269.74
312.09	1226.73
312.31	1202.16
312.52	1259.50
312.73	1259.50
312.95	1261.55
313.16	1273.84
313.37	1271.79
313.59	1224.69
313.80	1308.65
314.01	1269.74
314.23	1247.21
314.44	1269.74
314.65	1314.80
314.87	1273.84
315.08	1251.31
315.29	1239.02
315.51	1255.40
315.72	1247.21
315.93	1239.02
316.15	1263.60
316.36	1282.03
316.57	1216.49
316.79	1253.36
317.00	1269.74
317.21	1286.12
317.43	1253.36
317.64	1210.35
317.85	1294.32
318.07	1288.17
318.28	1210.35
318.49	1255.40
318.70	1232.88
318.92	1214.45
319.13	1271.79
319.34	1325.04
319.56	1243.12
319.77	1263.60
319.98	1255.40
320.20	1198.06
320.41	1273.84
320.62	1265.64
320.83	1267.69
321.05	1327.08
321.26	1277.93
321.47	1271.79
321.69	1259.50
321.90	1247.21
322.11	1208.30
322.32	1224.69
322.54	1253.36
322.75	1171.44
322.96	1255.40
323.18	1257.45
323.39	1271.79
323.60	1265.64
323.81	1273.84
324.03	1282.03
324.24	1208.30
324.45	1294.32
324.66	1275.88
324.88	1239.02
325.09	1310.70
325.30	1263.60
325.52	1234.93
325.73	1290.22
325.94	1282.03
326.15	1284.08
326.37	1267.69
326.58	1294.32
326.79	1255.40
327.00	1167.34
327.22	1302.51
327.43	1282.03
327.64	1208.30
327.85	1259.50
328.07	1316.84
328.28	1312.75
328.49	1269.74
328.70	1249.26
328.92	1249.26
329.13	1241.07
329.34	1247.21
329.55	1261.55
329.76	1372.14
329.98	1277.93
330.19	1263.60
330.40	1316.84
330.61	1249.26
330.83	1249.26
331.04	1251.31
331.25	1234.93
331.46	1304.56
331.68	1253.36
331.89	1263.60
332.10	1257.45
332.31	1290.22
332.52	1255.40
332.74	1253.36
332.95	1275.88
333.16	1224.69
333.37	1224.69
333.58	1306.60
333.80	1208.30
334.01	1304.56
334.22	1271.79
334.43	1232.88
334.64	1267.69
334.86	1239.02
335.07	1222.64
335.28	1241.07
335.49	1294.32
335.70	1288.17
335.92	1263.60
336.13	1357.80
336.34	1257.45
336.55	1292.27
336.76	1327.08
336.98	1273.84
337.19	1224.69
337.40	1267.69
337.61	1275.88
337.82	1243.12
338.04	1257.45
338.25	1255.40
338.46	1279.98
338.67	1245.16
338.88	1312.75
339.09	1310.70
339.31	1224.69
339.52	1251.31
339.73	1298.41
339.94	1267.69
340.15	1286.12
340.36	1304.56
340.58	1261.55
340.79	1261.55
341.00	1228.78
341.21	1245.16
341.42	1329.13
341.63	1216.49
341.85	1232.88
342.06	1239.02
342.27	1265.64
342.48	1255.40
342.69	1275.88
342.90	1304.56
343.12	1308.65
343.33	1298.41
343.54	1265.64
343.75	1331.18
343.96	1333.23
344.17	1247.21
344.38	1327.08
344.60	1234.93
344.81	1228.78
345.02	1329.13
345.23	1224.69
345.44	1239.02
345.65	1232.88
345.86	1222.64
346.07	1314.80
346.29	1257.45
346.50	1265.64
346.71	1218.54
346.92	1306.60
347.13	1220.59
347.34	1310.70
347.55	1230.83
347.76	1288.17
347.98	1312.75
348.19	1339.37
348.40	1318.89
348.61	1228.78
348.82	1230.83
349.03	1282.03
349.24	1208.30
349.45	1245.16
349.66	1292.27
349.88	1296.36
350.09	1279.98
350.30	1226.73
350.51	1273.84
350.72	1312.75
350.93	1257.45
351.14	1243.12
351.35	1298.41
351.56	1306.60
351.77	1316.84
351.99	1257.45
352.20	1288.17
352.41	1228.78
352.62	1220.59
352.83	1314.80
353.04	1308.65
353.25	1245.16
353.46	1253.36
353.67	1279.98
353.88	1257.45
354.09	1230.83
354.30	1335.28
354.52	1241.07
354.73	1263.60
354.94	1251.31
355.15	1304.56
355.36	1226.73
355.57	1306.60
355.78	1318.89
355.99	1208.30
356.20	1290.22
356.41	1308.65
356.62	1322.99
356.83	1259.50
357.04	1239.02
357.25	1335.28
357.46	1249.26
357.68	1236.97
357.89	1290.22
358.10	1239.02
358.31	1327.08
358.52	1255.40
358.73	1318.89
358.94	1320.94
359.15	1222.64
359.36	1175.53
359.57	1312.75
359.78	1296.36
359.99	1273.84
360.20	1273.84
360.41	1363.95
360.62	1314.80
360.83	1232.88
361.04	1310.70
361.25	1288.17
361.46	1247.21
361.67	1249.26
361.88	1277.93
362.09	1273.84
362.30	1284.08
362.51	1234.93
362.72	1282.03
362.93	1243.12
363.14	1236.97
363.35	1300.46
363.56	1310.70
363.78	1288.17
363.99	1175.53
364.20	1167.34
364.41	1265.64
364.62	1333.23
364.83	1259.50
365.04	1232.88
365.25	1265.64
365.46	1245.16
365.67	1347.56
365.88	1325.04
366.09	1298.41
366.30	1267.69
366.51	1234.93
366.72	1275.88
366.93	1245.16
367.14	1243.12
367.35	1198.06
367.56	1318.89
367.77	1310.70
367.98	1284.08
368.18	1251.31
368.39	1267.69
368.60	1284.08
368.81	1288.17
369.02	1220.59
369.23	1267.69
369.44	1243.12
369.65	1247.21
369.86	1282.03
370.07	1216.49
370.28	1228.78
370.49	1325.04
370.70	1275.88
370.91	1239.02
371.12	1251.31
371.33	1257.45
371.54	1265.64
371.75	1212.40
371.96	1288.17
372.17	1320.94
372.38	1314.80
372.59	1245.16
372.80	1290.22
373.01	1210.35
373.22	1218.54
373.43	1288.17
373.64	1265.64
373.85	1208.30
374.06	1351.66
374.26	1273.84
374.47	1249.26
374.68	1296.36
374.89	1261.55
375.10	1306.60
375.31	1196.01
375.52	1267.69
375.73	1271.79
375.94	1349.61
376.15	1249.26
376.36	1329.13
376.57	1296.36
376.78	1277.93
376.99	1325.04
377.20	1345.52
377.40	1277.93
377.61	1277.93
377.82	1282.03
378.03	1267.69
378.24	1310.70
378.45	1255.40
378.66	1304.56
378.87	1234.93
379.08	1226.73
379.29	1279.98
379.50	1282.03
379.71	1255.40
379.91	1302.51
380.12	1206.25
380.33	1302.51
380.54	1265.64
380.75	1247.21
380.96	1300.46
381.17	1193.97
381.38	1253.36
381.59	1277.93
381.80	1294.32
382.00	1265.64
382.21	1236.97
382.42	1329.13
382.63	1257.45
382.84	1322.99
383.05	1261.55
383.26	1290.22
383.47	1249.26
383.68	1222.64
383.88	1290.22
384.09	1218.54
384.30	1243.12
384.51	1239.02
384.72	1279.98
384.93	1259.50
385.14	1304.56
385.35	1296.36
385.55	1236.97
385.76	1355.76
385.97	1263.60
386.18	1261.55
386.39	1257.45
386.60	1277.93
386.81	1284.08
387.02	1292.27
387.22	1290.22
387.43	1255.40
387.64	1216.49
387.85	1249.26
388.06	1206.25
388.27	1243.12
388.48	1294.32
388.68	1214.45
388.89	1325.04
389.10	1265.64
389.31	1296.36
389.52	1273.84
389.73	1191.92
389.93	1269.74
390.14	1290.22
390.35	1337.32
390.56	1290.22
390.77	1257.45
390.98	1290.22
391.18	1265.64
391.39	1206.25
391.60	1277.93
391.81	1298.41
392.02	1239.02
392.23	1253.36
392.43	1191.92
392.64	1279.98
392.85	1290.22
393.06	1275.88
393.27	1241.07
393.47	1277.93
393.68	1296.36
393.89	1232.88
394.10	1316.84
394.31	1310.70
394.52	1226.73
394.72	1306.60
394.93	1181.68
395.14	1286.12
395.35	1239.02
395.56	1263.60
395.76	1189.87
395.97	1302.51
396.18	1183.73
396.39	1259.50
396.60	1304.56
396.80	1261.55
397.01	1279.98
397.22	1290.22
397.43	1277.93
397.64	1335.28
397.84	1290.22
398.05	1316.84
398.26	1234.93
398.47	1267.69
398.67	1216.49
398.88	1206.25
399.09	1263.60
399.30	1279.98
399.51	1232.88
399.71	1200.11
399.92	1243.12
400.13	1300.46
400.34	1249.26
400.54	1208.30
400.75	1306.60
400.96	1312.75
401.17	1320.94
401.37	1284.08
401.58	1259.50
401.79	1347.56
402.00	1267.69
402.21	1302.51
402.41	1243.12
402.62	1261.55
402.83	1247.21
403.04	1304.56
403.24	1275.88
403.45	1265.64
403.66	1286.12
403.87	1200.11
404.07	1314.80
404.28	1282.03
404.49	1306.60
404.70	1251.31
404.90	1241.07
405.11	1253.36
405.32	1212.40
405.52	1271.79
405.73	1263.60
405.94	1292.27
406.15	1322.99
406.35	1239.02
406.56	1337.32
406.77	1259.50
406.98	1286.12
407.18	1255.40
407.39	1286.12
407.60	1279.98
407.80	1331.18
408.01	1271.79
408.22	1286.12
408.43	1232.88
408.63	1273.84
408.84	1302.51
409.05	1232.88
409.25	1273.84
409.46	1243.12
409.67	1265.64
409.88	1314.80
410.08	1243.12
410.29	1247.21
410.50	1282.03
410.70	1271.79
410.91	1288.17
411.12	1251.31
411.32	1185.77
411.53	1191.92
411.74	1247.21
411.95	1239.02
412.15	1279.98
412.36	1181.68
412.57	1288.17
412.77	1279.98
412.98	1275.88
413.19	1253.36
413.39	1230.83
413.60	1314.80
413.81	1294.32
414.01	1282.03
414.22	1224.69
414.43	1257.45
414.63	1249.26
414.84	1210.35
415.05	1284.08
415.25	1259.50
415.46	1226.73
415.67	1322.99
415.87	1247.21
416.08	1267.69
416.29	1265.64
416.49	1300.46
416.70	1228.78
416.91	1257.45
417.11	1193.97
417.32	1255.40
417.53	1243.12
417.73	1259.50
417.94	1269.74
418.15	1255.40
418.35	1187.82
418.56	1298.41
418.77	1300.46
418.97	1314.80
419.18	1245.16
419.38	1310.70
419.59	1218.54
419.80	1378.28
420.00	1181.68
420.21	1249.26
420.42	1308.65
420.62	1306.60
420.83	1249.26
421.04	1286.12
421.24	1259.50
421.45	1263.60
421.65	1275.88
421.86	1220.59
422.07	1239.02
422.27	1265.64
422.48	1306.60
422.69	1247.21
422.89	1355.76
423.10	1261.55
423.30	1263.60
423.51	1261.55
423.72	1261.55
423.92	1298.41
424.13	1224.69
424.33	1273.84
424.54	1265.64
424.75	1263.60
424.95	1245.16
425.16	1257.45
425.36	1216.49
425.57	1296.36
425.78	1267.69
425.98	1273.84
426.19	1312.75
426.39	1230.83
426.60	1251.31
426.81	1206.25
427.01	1243.12
427.22	1249.26
427.42	1187.82
427.63	1359.85
427.83	1259.50
428.04	1249.26
428.25	1275.88
428.45	1279.98
428.66	1269.74
428.86	1220.59
429.07	1249.26
429.28	1306.60
429.48	1253.36
429.69	1282.03
429.89	1216.49
430.10	1191.92
430.30	1257.45
430.51	1296.36
430.71	1253.36
430.92	1292.27
431.13	1228.78
431.33	1255.40
431.54	1232.88
431.74	1218.54
431.95	1273.84
432.15	1175.53
432.36	1337.32
432.56	1189.87
432.77	1265.64
432.98	1306.60
433.18	1325.04
433.39	1320.94
433.59	1275.88
433.80	1316.84
434.00	1263.60
434.21	1298.41
434.41	1261.55
434.62	1337.32
434.82	1269.74
435.03	1265.64
435.23	1292.27
435.44	1245.16
435.64	1277.93
435.85	1222.64
436.06	1204.21
436.26	1277.93
436.47	1300.46
436.67	1306.60
436.88	1320.94
437.08	1265.64
437.29	1318.89
437.49	1224.69
437.70	1261.55
437.90	1288.17
438.11	1269.74
438.31	1288.17
438.52	1204.21
438.72	1298.41
438.93	1263.60
439.13	1292.27
439.34	1263.60
439.54	1282.03
439.75	1310.70
439.95	1263.60
440.16	1298.41
440.36	1320.94
440.57	1257.45
440.77	1224.69
440.98	1322.99
441.18	1312.75
441.39	1290.22
441.59	1363.95
441.80	1259.50
442.00	1251.31
442.21	1279.98
442.41	1253.36
442.62	1232.88
442.82	1255.40
443.02	1282.03
443.23	1294.32
443.43	1267.69
443.64	1232.88
443.84	1290.22
444.05	1236.97
444.25	1312.75
444.46	1243.12
444.66	1222.64
444.87	1329.13
445.07	1202.16
445.28	1282.03
445.48	1271.79
445.69	1230.83
445.89	1304.56
446.09	1325.04
446.30	1316.84
446.50	1290.22
446.71	1320.94
446.91	1296.36
447.12	1294.32
447.32	1249.26
447.53	1251.31
447.73	1288.17
447.93	1284.08
448.14	1294.32
448.34	1275.88
448.55	1193.97
448.75	1294.32
448.96	1259.50
449.16	1261.55
449.36	1243.12
449.57	1284.08
449.77	1249.26
449.98	1279.98
450.18	1284.08
450.39	1220.59
450.59	1236.97
450.79	1261.55
451.00	1241.07
451.20	1296.36
451.41	1249.26
451.61	1226.73
451.81	1230.83
452.02	1247.21
452.22	1290.22
452.43	1329.13
452.63	1294.32
452.84	1253.36
453.04	1300.46
453.24	1314.80
453.45	1288.17
453.65	1290.22
453.86	1306.60
454.06	1300.46
454.26	1198.06
454.47	1271.79
454.67	1271.79
454.87	1329.13
455.08	1267.69
455.28	1273.84
455.49	1322.99
455.69	1306.60
455.89	1331.18
456.10	1255.40
456.30	1310.70
456.51	1296.36
456.71	1279.98
456.91	1288.17
457.12	1226.73
457.32	1253.36
457.52	1247.21
457.73	1296.36
457.93	1249.26
458.14	1277.93
458.34	1271.79
458.54	1271.79
458.75	1310.70
458.95	1347.56
459.15	1296.36
459.36	1310.70
459.56	1284.08
459.76	1306.60
459.97	1236.97
460.17	1308.65
460.37	1279.98
460.58	1341.42
460.78	1275.88
460.99	1273.84
461.19	1329.13
461.39	1275.88
461.60	1241.07
461.80	1300.46
462.00	1236.97
462.21	1288.17
462.41	1245.16
462.61	1196.01
462.82	1267.69
463.02	1345.52
463.22	1263.60
463.43	1198.06
463.63	1226.73
463.83	1298.41
464.04	1339.37
464.24	1298.41
464.44	1349.61
464.64	1243.12
464.85	1255.40
465.05	1316.84
465.25	1314.80
465.46	1322.99
465.66	1273.84
465.86	1267.69
466.07	1282.03
466.27	1243.12
466.47	1279.98
466.68	1245.16
466.88	1306.60
467.08	1216.49
467.29	1243.12
467.49	1316.84
467.69	1265.64
467.89	1216.49
468.10	1318.89
468.30	1265.64
468.50	1265.64
468.71	1288.17
468.91	1255.40
469.11	1210.35
469.31	1318.89
469.52	1261.55
469.72	1273.84
469.92	1298.41
470.13	1220.59
470.33	1296.36
470.53	1269.74
470.73	1292.27
470.94	1304.56
471.14	1251.31
471.34	1263.60
471.54	1284.08
471.75	1288.17
471.95	1277.93
472.15	1253.36
472.36	1259.50
472.56	1298.41
472.76	1286.12
472.96	1200.11
473.17	1259.50
473.37	1282.03
473.57	1316.84
473.77	1263.60
473.98	1236.97
474.18	1185.77
474.38	1331.18
474.58	1290.22
474.79	1286.12
474.99	1327.08
475.19	1267.69
475.39	1263.60
475.60	1320.94
475.80	1241.07
476.00	1273.84
476.20	1267.69
476.41	1269.74
476.61	1284.08
476.81	1275.88
477.01	1200.11
477.21	1263.60
477.42	1376.24
477.62	1249.26
477.82	1296.36
478.02	1245.16
478.23	1234.93
478.43	1325.04
478.63	1351.66
478.83	1263.60
479.03	1220.59
479.24	1273.84
479.44	1267.69
479.64	1284.08
479.84	1220.59
480.04	1273.84
480.25	1271.79
480.45	1239.02
480.65	1273.84
480.85	1253.36
481.06	1259.50
481.26	1245.16
481.46	1249.26
481.66	1165.29
481.86	1273.84
482.06	1318.89
482.27	1271.79
482.47	1249.26
482.67	1275.88
482.87	1290.22
483.07	1271.79
483.28	1310.70
483.48	1239.02
483.68	1261.55
483.88	1288.17
484.08	1257.45
484.29	1228.78
484.49	1290.22
484.69	1232.88
484.89	1329.13
485.09	1275.88
485.29	1236.97
485.50	1327.08
485.70	1243.12
485.90	1249.26
486.10	1241.07
486.30	1322.99
486.50	1261.55
486.71	1218.54
486.91	1290.22
487.11	1288.17
487.31	1277.93
487.51	1296.36
487.71	1232.88
487.91	1261.55
488.12	1239.02
488.32	1261.55
488.52	1308.65
488.72	1232.88
488.92	1282.03
489.12	1290.22
489.32	1322.99
489.53	1339.37
489.73	1257.45
489.93	1265.64
490.13	1249.26
490.33	1306.60
490.53	1185.77
490.73	1290.22
490.94	1222.64
491.14	1277.93
491.34	1261.55
491.54	1339.37
491.74	1325.04
491.94	1306.60
492.14	1327.08
492.34	1239.02
492.54	1306.60
492.75	1232.88
492.95	1245.16
493.15	1265.64
493.35	1286.12
493.55	1230.83
493.75	1261.55
493.95	1286.12
494.15	1288.17
494.35	1253.36
494.56	1267.69
494.76	1230.83
494.96	1257.45
495.16	1271.79
495.36	1341.42
495.56	1245.16
495.76	1255.40
495.96	1284.08
496.16	1228.78
496.36	1298.41
496.56	1253.36
496.77	1230.83
496.97	1265.64
497.17	1339.37
497.37	1263.60
497.57	1265.64
497.77	1206.25
497.97	1232.88
498.17	1279.98
498.37	1210.35
498.57	1212.40
498.77	1241.07
498.97	1406.95
499.17	1288.17
499.38	1196.01
499.58	1208.30
499.78	1261.55
499.98	1300.46
500.18	1349.61
500.38	1179.63
500.58	1355.76
500.78	1298.41
500.98	1263.60
501.18	1312.75
501.38	1294.32
501.58	1232.88
501.78	1304.56
501.98	1269.74
502.18	1306.60
502.38	1288.17
502.58	1284.08
502.78	1284.08
502.98	1220.59
503.18	1251.31
503.38	1286.12
503.59	1241.07
503.79	1216.49
503.99	1249.26
504.19	1269.74
504.39	1247.21
504.59	1261.55
504.79	1234.93
504.99	1253.36
505.19	1259.50
505.39	1265.64
505.59	1255.40
505.79	1292.27
505.99	1335.28
506.19	1298.41
506.39	1327.08
506.59	1325.04
506.79	1255.40
506.99	1245.16
507.19	1337.32
507.39	1255.40
507.59	1216.49
507.79	1267.69
507.99	1310.70
508.19	1325.04
508.39	1296.36
508.59	1327.08
508.79	1275.88
508.99	1247.21
509.19	1249.26
509.39	1222.64
509.59	1271.79
509.79	1257.45
509.99	1263.60
510.19	1200.11
510.39	1271.79
510.59	1251.31
510.79	1277.93
510.99	1261.55
511.19	1282.03
511.39	1290.22
511.59	1279.98
511.79	1368.04
511.99	1286.12
512.19	1212.40
512.38	1302.51
512.58	1312.75
512.78	1339.37
512.98	1261.55
513.18	1302.51
513.38	1284.08
513.58	1267.69
513.78	1294.32
513.98	1298.41
514.18	1269.74
514.38	1230.83
514.58	1243.12
514.78	1236.97
514.98	1292.27
515.18	1232.88
515.38	1277.93
515.58	1259.50
515.78	1253.36
515.98	1259.50
516.18	1277.93
516.38	1374.19
516.57	1269.74
516.77	1304.56
516.97	1275.88
517.17	1349.61
517.37	1294.32
517.57	1296.36
517.77	1320.94
517.97	1310.70
518.17	1316.84
518.37	1331.18
518.57	1349.61
518.77	1263.60
518.97	1308.65
519.16	1304.56
519.36	1333.23
519.56	1288.17
519.76	1257.45
519.96	1312.75
520.16	1249.26
520.36	1329.13
520.56	1292.27
520.76	1241.07
520.96	1298.41
521.16	1308.65
521.35	1312.75
521.55	1370.09
521.75	1200.11
521.95	1228.78
522.15	1286.12
522.35	1320.94
522.55	1271.79
522.75	1218.54
522.95	1273.84
523.14	1316.84
523.34	1263.60
523.54	1396.71
523.74	1329.13
523.94	1267.69
524.14	1255.40
524.34	1306.60
524.54	1308.65
524.73	1329.13
524.93	1282.03
525.13	1259.50
525.33	1290.22
525.53	1306.60
525.73	1300.46
525.93	1347.56
526.13	1196.01
526.32	1218.54
526.52	1279.98
526.72	1239.02
526.92	1292.27
527.12	1335.28
527.32	1228.78
527.52	1282.03
527.71	1286.12
527.91	1288.17
528.11	1200.11
528.31	1351.66
528.51	1267.69
528.71	1193.97
528.90	1214.45
529.10	1253.36
529.30	1316.84
529.50	1243.12
529.70	1296.36
529.90	1329.13
530.09	1228.78
530.29	1271.79
530.49	1325.04
530.69	1337.32
530.89	1279.98
531.09	1380.33
531.28	1306.60
531.48	1316.84
531.68	1222.64
531.88	1271.79
532.08	1320.94
532.28	1247.21
532.47	1288.17
532.67	1261.55
532.87	1306.60
533.07	1331.18
533.27	1236.97
533.46	1337.32
533.66	1255.40
533.86	1292.27
534.06	1265.64
534.26	1300.46
534.45	1267.69
534.65	1277.93
534.85	1288.17
535.05	1282.03
535.25	1249.26
535.44	1310.70
535.64	1259.50
535.84	1265.64
536.04	1204.21
536.24	1269.74
536.43	1304.56
536.63	1331.18
536.83	1224.69
537.03	1329.13
537.22	1239.02
537.42	1222.64
537.62	1269.74
537.82	1273.84
538.02	1282.03
538.21	1267.69
538.41	1345.52
538.61	1288.17
538.81	1331.18
539.00	1325.04
539.20	1259.50
539.40	1282.03
539.60	1271.79
539.79	1331.18
539.99	1206.25
540.19	1300.46
540.39	1370.09
540.58	1298.41
540.78	1331.18
540.98	1320.94
541.18	1286.12
541.37	1279.98
541.57	1265.64
541.77	1271.79
541.97	1296.36
542.16	1273.84
542.36	1263.60
542.56	1275.88
542.76	1218.54
542.95	1265.64
543.15	1302.51
543.35	1275.88
543.54	1239.02
543.74	1306.60
543.94	1241.07
544.14	1310.70
544.33	1325.04
544.53	1251.31
544.73	1282.03
544.93	1296.36
545.12	1257.45
545.32	1310.70
545.52	1271.79
545.71	1277.93
545.91	1306.60
546.11	1259.50
546.30	1294.32
546.50	1271.79
546.70	1288.17
546.90	1306.60
547.09	1245.16
547.29	1314.80
547.49	1337.32
547.68	1218.54
547.88	1228.78
548.08	1298.41
548.27	1382.38
548.47	1294.32
548.67	1300.46
548.87	1296.36
549.06	1329.13
549.26	1292.27
549.46	1320.94
549.65	1310.70
549.85	1243.12
550.05	1308.65
550.24	1363.95
550.44	1243.12
550.64	1228.78
550.83	1267.69
551.03	1255.40
551.23	1282.03
551.42	1259.50
551.62	1310.70
551.82	1275.88
552.01	1255.40
552.21	1306.60
552.41	1245.16
552.60	1267.69
552.80	1257.45
553.00	1216.49
553.19	1275.88
553.39	1282.03
553.59	1255.40
553.78	1341.42
553.98	1263.60
554.17	1275.88
554.37	1282.03
554.57	1304.56
554.76	1259.50
554.96	1261.55
555.16	1245.16
555.35	1288.17
555.55	1327.08
555.75	1327.08
555.94	1265.64
556.14	1239.02
556.33	1290.22
556.53	1335.28
556.73	1353.71
556.92	1249.26
557.12	1271.79
557.32	1210.35
557.51	1273.84
557.71	1310.70
557.90	1212.40
558.10	1394.67
558.30	1277.93
558.49	1224.69
558.69	1308.65
558.88	1288.17
559.08	1265.64
559.28	1318.89
559.47	1224.69
559.67	1320.94
559.86	1349.61
560.06	1284.08
560.26	1312.75
560.45	1259.50
560.65	1337.32
560.84	1284.08
561.04	1282.03
561.24	1263.60
561.43	1304.56
561.63	1204.21
561.82	1204.21
562.02	1318.89
562.22	1185.77
562.41	1239.02
562.61	1339.37
562.80	1296.36
563.00	1230.83
563.19	1271.79
563.39	1247.21
563.59	1275.88
563.78	1253.36
563.98	1339.37
564.17	1357.80
564.37	1308.65
564.56	1253.36
564.76	1245.16
564.96	1322.99
565.15	1271.79
565.35	1279.98
565.54	1316.84
565.74	1288.17
565.93	1247.21
566.13	1284.08
566.32	1282.03
566.52	1304.56
566.71	1302.51
566.91	1316.84
567.11	1322.99
567.30	1249.26
567.50	1265.64
567.69	1282.03
567.89	1298.41
568.08	1232.88
568.28	1277.93
568.47	1286.12
568.67	1279.98
568.86	1247.21
569.06	1279.98
569.25	1275.88
569.45	1304.56
569.64	1259.50
569.84	1294.32
570.04	1368.04
570.23	1251.31
570.43	1302.51
570.62	1341.42
570.82	1251.31
571.01	1378.28
571.21	1269.74
571.40	1277.93
571.60	1243.12
571.79	1261.55
571.99	1277.93
572.18	1269.74
572.38	1265.64
572.57	1308.65
572.77	1236.97
572.96	1298.41
573.16	1247.21
573.35	1243.12
573.55	1245.16
573.74	1261.55
573.94	1282.03
574.13	1204.21
574.33	1325.04
574.52	1277.93
574.71	1269.74
574.91	1290.22
575.10	1353.71
575.30	1273.84
575.49	1271.79
575.69	1263.60
575.88	1253.36
576.08	1341.42
576.27	1249.26
576.47	1282.03
576.66	1277.93
576.86	1296.36
577.05	1279.98
577.25	1261.55
577.44	1345.52
577.64	1249.26
577.83	1247.21
578.02	1275.88
578.22	1310.70
578.41	1302.51
578.61	1312.75
578.80	1232.88
579.00	1327.08
579.19	1261.55
579.39	1320.94
579.58	1318.89
579.77	1212.40
579.97	1339.37
580.16	1306.60
580.36	1271.79
580.55	1298.41
580.75	1220.59
580.94	1296.36
581.13	1294.32
581.33	1273.84
581.52	1282.03
581.72	1335.28
581.91	1290.22
582.11	1288.17
582.30	1349.61
582.49	1398.76
582.69	1245.16
582.88	1316.84
583.08	1306.60
583.27	1345.52
583.47	1251.31
583.66	1308.65
583.85	1269.74
584.05	1314.80
584.24	1239.02
584.44	1241.07
584.63	1320.94
584.82	1286.12
585.02	1275.88
585.21	1255.40
585.41	1302.51
585.60	1253.36
585.79	1255.40
585.99	1341.42
586.18	1298.41
586.37	1288.17
586.57	1304.56
586.76	1265.64
586.96	1318.89
587.15	1302.51
587.34	1304.56
587.54	1271.79
587.73	1277.93
587.93	1341.42
588.12	1296.36
588.31	1234.93
588.51	1279.98
588.70	1290.22
588.89	1243.12
589.09	1284.08
589.28	1290.22
589.47	1302.51
589.67	1316.84
589.86	1380.33
590.06	1298.41
590.25	1282.03
590.44	1335.28
590.64	1241.07
590.83	1241.07
591.02	1273.84
591.22	1304.56
591.41	1345.52
591.60	1306.60
591.80	1288.17
591.99	1304.56
592.18	1259.50
592.38	1228.78
592.57	1257.45
592.76	1230.83
592.96	1325.04
593.15	1314.80
593.34	1259.50
593.54	1286.12
593.73	1288.17
593.92	1198.06
594.12	1271.79
594.31	1282.03
594.50	1292.27
594.70	1286.12
594.89	1271.79
595.08	1314.80
595.28	1325.04
595.47	1351.66
595.66	1331.18
595.86	1243.12
596.05	1234.93
596.24	1304.56
596.43	1331.18
596.63	1255.40
596.82	1351.66
597.01	1286.12
597.21	1296.36
597.40	1292.27
597.59	1230.83
597.79	1298.41
597.98	1228.78
598.17	1236.97
598.36	1298.41
598.56	1212.40
598.75	1308.65
598.94	1322.99
599.14	1226.73
599.33	1273.84
599.52	1302.51
599.71	1265.64
599.91	1306.60
600.10	1253.36
600.29	1298.41
600.48	1292.27
600.68	1265.64
600.87	1333.23
601.06	1239.02
601.26	1267.69
601.45	1273.84
601.64	1282.03
601.83	1312.75
602.03	1271.79
602.22	1228.78
602.41	1271.79
602.60	1224.69
602.80	1232.88
602.99	1372.14
603.18	1236.97
603.37	1265.64
603.57	1210.35
603.76	1271.79
603.95	1279.98
604.14	1296.36
604.34	1294.32
604.53	1198.06
604.72	1304.56
604.91	1232.88
605.10	1292.27
605.30	1320.94
605.49	1243.12
605.68	1259.50
605.87	1327.08
606.07	1333.23
606.26	1292.27
606.45	1239.02
606.64	1308.65
606.84	1310.70
607.03	1296.36
607.22	1300.46
607.41	1275.88
607.60	1269.74
607.80	1331.18
607.99	1310.70
608.18	1271.79
608.37	1308.65
608.56	1282.03
608.76	1265.64
608.95	1314.80
609.14	1331.18
609.33	1269.74
609.52	1273.84
609.72	1275.88
609.91	1241.07
610.10	1288.17
610.29	1288.17
610.48	1294.32
610.68	1306.60
610.87	1296.36
611.06	1294.32
611.25	1255.40
611.44	1318.89
611.63	1314.80
611.83	1282.03
612.02	1279.98
612.21	1341.42
612.40	1236.97
612.59	1320.94
612.79	1275.88
612.98	1236.97
613.17	1279.98
613.36	1300.46
613.55	1267.69
613.74	1290.22
613.93	1294.32
614.13	1230.83
614.32	1220.59
614.51	1396.71
614.70	1275.88
614.89	1273.84
615.08	1220.59
615.28	1269.74
615.47	1331.18
615.66	1310.70
615.85	1253.36
616.04	1294.32
616.23	1249.26
616.42	1279.98
616.62	1228.78
616.81	1265.64
617.00	1228.78
617.19	1298.41
617.38	1218.54
617.57	1312.75
617.76	1236.97
617.95	1273.84
618.15	1236.97
618.34	1339.37
618.53	1294.32
618.72	1271.79
618.91	1318.89
619.10	1339.37
619.29	1232.88
619.48	1224.69
619.68	1200.11
619.87	1292.27
620.06	1275.88
620.25	1239.02
620.44	1269.74
620.63	1222.64
620.82	1337.32
621.01	1247.21
621.20	1263.60
621.39	1298.41
621.59	1298.41
621.78	1320.94
621.97	1210.35
622.16	1329.13
622.35	1288.17
622.54	1288.17
622.73	1224.69
622.92	1282.03
623.11	1298.41
623.30	1261.55
623.49	1302.51
623.68	1286.12
623.88	1286.12
624.07	1300.46
624.26	1306.60
624.45	1271.79
624.64	1275.88
624.83	1304.56
625.02	1228.78
625.21	1286.12
625.40	1361.90
625.59	1304.56
625.78	1388.52
625.97	1398.76
626.16	1349.61
626.35	1325.04
626.54	1294.32
626.74	1302.51
626.93	1198.06
627.12	1224.69
627.31	1247.21
627.50	1290.22
627.69	1273.84
627.88	1333.23
628.07	1302.51
628.26	1290.22
628.45	1290.22
628.64	1224.69
628.83	1282.03
629.02	1279.98
629.21	1222.64
629.40	1304.56
629.59	1265.64
629.78	1314.80
629.97	1290.22
630.16	1300.46
630.35	1316.84
630.54	1298.41
630.73	1304.56
630.92	1298.41
631.11	1290.22
631.30	1322.99
631.49	1265.64
631.68	1310.70
631.87	1396.71
632.06	1486.83
632.25	1464.30
632.44	1443.82
632.63	1529.83
632.82	1388.52
633.01	1398.76
633.20	1462.25
633.39	1425.39
633.58	1468.39
633.77	1437.67
633.96	1538.02
634.15	1509.35
634.34	1980.39
634.53	2441.18
634.72	1867.75
634.91	1476.59
635.10	1615.85
635.29	2158.56
635.48	2514.91
635.67	2592.73
635.86	2326.49
636.05	2066.40
636.24	1880.04
636.43	1572.84
636.62	1554.41
636.81	1427.43
637.00	1331.18
637.19	1374.19
637.38	1339.37
637.57	1392.62
637.76	1372.14
637.95	1339.37
638.14	1351.66
638.33	1374.19
638.52	1339.37
638.71	1306.60
638.89	1306.60
639.08	1322.99
639.27	1320.94
639.46	1228.78
639.65	1292.27
639.84	1325.04
640.03	1241.07
640.22	1228.78
640.41	1298.41
640.60	1224.69
640.79	1337.32
640.98	1284.08
641.17	1286.12
641.36	1253.36
641.55	1314.80
641.74	1236.97
641.92	1216.49
642.11	1306.60
642.30	1218.54
642.49	1269.74
642.68	1308.65
642.87	1226.73
643.06	1335.28
643.25	1239.02
643.44	1282.03
643.63	1273.84
643.82	1306.60
644.00	1314.80
644.19	1282.03
644.38	1239.02
644.57	1273.84
644.76	1329.13
644.95	1249.26
645.14	1220.59
645.33	1196.01
645.52	1228.78
645.71	1308.65
645.89	1300.46
646.08	1286.12
646.27	1288.17
646.46	1267.69
646.65	1249.26
646.84	1245.16
647.03	1257.45
647.22	1273.84
647.40	1294.32
647.59	1357.80
647.78	1259.50
647.97	1253.36
648.16	1345.52
648.35	1304.56
648.54	1318.89
648.73	1230.83
648.91	1275.88
649.10	1253.36
649.29	1347.56
649.48	1318.89
649.67	1296.36
649.86	1282.03
650.05	1265.64
650.23	1290.22
650.42	1257.45
650.61	1257.45
650.80	1290.22
650.99	1273.84
651.18	1230.83
651.36	1316.84
651.55	1294.32
651.74	1232.88
651.93	1214.45
652.12	1294.32
652.31	1208.30
652.49	1355.76
652.68	1275.88
652.87	1288.17
653.06	1269.74
653.25	1257.45
653.44	1245.16
653.62	1230.83
653.81	1292.27
654.00	1322.99
654.19	1228.78
654.38	1322.99
654.56	1224.69
654.75	1312.75
654.94	1259.50
655.13	1308.65
655.32	1296.36
655.51	1331.18
655.69	1279.98
655.88	1271.79
656.07	1271.79
656.26	1212.40
656.45	1261.55
656.63	1308.65
656.82	1239.02
657.01	1292.27
657.20	1298.41
657.38	1257.45
657.57	1269.74
657.76	1253.36
657.95	1327.08
658.14	1265.64
658.32	1241.07
658.51	1261.55
658.70	1304.56
658.89	1263.60
659.08	1288.17
659.26	1257.45
659.45	1355.76
659.64	1325.04
659.83	1251.31
660.01	1331.18
660.20	1257.45
660.39	1230.83
660.58	1261.55
660.76	1312.75
660.95	1265.64
661.14	1212.40
661.33	1286.12
661.51	1257.45
661.70	1220.59
661.89	1327.08
662.08	1298.41
662.26	1251.31
662.45	1183.73
662.64	1279.98
662.83	1187.82
663.01	1245.16
663.20	1263.60
663.39	1275.88
663.58	1263.60
663.76	1322.99
663.95	1222.64
664.14	1318.89
664.32	1247.21
664.51	1282.03
664.70	1345.52
664.89	1277.93
665.07	1257.45
665.26	1241.07
665.45	1312.75
665.64	1292.27
665.82	1310.70
666.01	1261.55
666.20	1273.84
666.38	1306.60
666.57	1173.49
666.76	1308.65
666.95	1253.36
667.13	1206.25
667.32	1296.36
667.51	1277.93
667.69	1212.40
667.88	1241.07
668.07	1284.08
668.25	1275.88
668.44	1288.17
668.63	1257.45
668.81	1222.64
669.00	1241.07
669.19	1294.32
669.38	1257.45
669.56	1290.22
669.75	1267.69
669.94	1261.55
670.12	1261.55
670.31	1200.11
670.50	1288.17
670.68	1202.16
670.87	1296.36
671.06	1236.97
671.24	1282.03
671.43	1298.41
671.62	1282.03
671.80	1251.31
671.99	1273.84
672.18	1259.50
672.36	1349.61
672.55	1288.17
672.74	1212.40
672.92	1273.84
673.11	1241.07
673.29	1337.32
673.48	1236.97
673.67	1316.84
673.85	1245.16
674.04	1222.64
674.23	1351.66
674.41	1296.36
674.60	1267.69
674.79	1249.26
674.97	1216.49
675.16	1300.46
675.34	1216.49
675.53	1341.42
675.72	1322.99
675.90	1331.18
676.09	1316.84
676.28	1282.03
676.46	1222.64
676.65	1253.36
676.83	1249.26
677.02	1284.08
677.21	1329.13
677.39	1220.59
677.58	1325.04
677.77	1234.93
677.95	1296.36
678.14	1255.40
678.32	1224.69
678.51	1200.11
678.70	1243.12
678.88	1279.98
679.07	1286.12
679.25	1263.60
679.44	1226.73
679.63	1230.83
679.81	1251.31
680.00	1273.84
680.18	1282.03
680.37	1277.93
680.55	1273.84
680.74	1253.36
680.93	1277.93
681.11	1292.27
681.30	1296.36
681.48	1234.93
681.67	1243.12
681.85	1198.06
682.04	1228.78
682.23	1351.66
682.41	1226.73
682.60	1290.22
682.78	1257.45
682.97	1234.93
683.15	1331.18
683.34	1273.84
683.53	1296.36
683.71	1247.21
683.90	1241.07
684.08	1212.40
684.27	1267.69
684.45	1286.12
684.64	1263.60
684.82	1247.21
685.01	1363.95
685.19	1292.27
685.38	1322.99
685.57	1269.74
685.75	1220.59
685.94	1312.75
686.12	1292.27
686.31	1286.12
686.49	1294.32
686.68	1261.55
686.86	1239.02
687.05	1198.06
687.23	1327.08
687.42	1273.84
687.60	1286.12
687.79	1290.22
687.97	1302.51
688.16	1286.12
688.34	1325.04
688.53	1263.60
688.71	1257.45
688.90	1298.41
689.08	1279.98
689.27	1247.21
689.45	1232.88
689.64	1234.93
689.82	1269.74
690.01	1204.21
690.19	1298.41
690.38	1325.04
690.56	1286.12
690.75	1212.40
690.93	1216.49
691.12	1288.17
691.30	1263.60
691.49	1318.89
691.67	1222.64
691.86	1267.69
692.04	1177.58
692.23	1288.17
692.41	1257.45
692.60	1255.40
692.78	1261.55
692.97	1261.55
693.15	1284.08
693.34	1277.93
693.52	1249.26
693.71	1249.26
693.89	1249.26
694.08	1292.27
694.26	1296.36
694.44	1273.84
694.63	1269.74
694.81	1273.84
695.00	1273.84
695.18	1189.87
695.37	1249.26
695.55	1312.75
695.74	1245.16
695.92	1279.98
696.10	1329.13
696.29	1292.27
696.47	1292.27
696.66	1257.45
696.84	1320.94
697.03	1277.93
697.21	1263.60
697.40	1359.85
697.58	1296.36
697.76	1269.74
697.95	1249.26
698.13	1286.12
698.32	1318.89
698.50	1271.79
698.68	1273.84
698.87	1253.36
699.05	1206.25
699.24	1282.03
699.42	1275.88
699.61	1271.79
699.79	1255.40
699.97	1275.88
700.16	1277.93
700.34	1257.45
700.53	1294.32
700.71	1292.27
700.89	1345.52
701.08	1236.97
701.26	1255.40
701.45	1286.12
701.63	1241.07
701.81	1226.73
702.00	1251.31
702.18	1253.36
702.37	1257.45
702.55	1253.36
702.73	1306.60
702.92	1189.87
703.10	1253.36
703.28	1263.60
703.47	1214.45
703.65	1212.40
703.84	1267.69
704.02	1286.12
704.20	1200.11
704.39	1253.36
704.57	1279.98
704.75	1282.03
704.94	1273.84
705.12	1271.79
705.30	1304.56
705.49	1288.17
705.67	1179.63
705.86	1269.74
706.04	1232.88
706.22	1288.17
706.41	1253.36
706.59	1232.88
706.77	1251.31
706.96	1226.73
707.14	1306.60
707.32	1230.83
707.51	1298.41
707.69	1243.12
707.87	1224.69
708.06	1218.54
708.24	1189.87
708.42	1279.98
708.61	1337.32
708.79	1198.06
708.97	1247.21
709.16	1339.37
709.34	1331.18
709.52	1265.64
709.71	1163.25
709.89	1310.70
710.07	1220.59
710.26	1191.92
710.44	1243.12
710.62	1259.50
710.80	1314.80
710.99	1306.60
711.17	1284.08
711.35	1273.84
711.54	1282.03
711.72	1263.60
711.90	1271.79
712.09	1331.18
712.27	1279.98
712.45	1228.78
712.63	1249.26
712.82	1273.84
713.00	1337.32
713.18	1277.93
713.37	1273.84
713.55	1314.80
713.73	1290.22
713.91	1327.08
714.10	1320.94
714.28	1218.54
714.46	1247.21
714.65	1327.08
714.83	1167.34
715.01	1273.84
715.19	1304.56
715.38	1322.99
715.56	1210.35
715.74	1257.45
715.92	1202.16
716.11	1263.60
716.29	1267.69
716.47	1239.02
716.65	1232.88
716.84	1200.11
717.02	1265.64
717.20	1265.64
717.38	1290.22
717.57	1302.51
717.75	1232.88
717.93	1249.26
718.11	1322.99
718.30	1279.98
718.48	1247.21
718.66	1251.31
718.84	1216.49
719.03	1247.21
719.21	1265.64
719.39	1265.64
719.57	1306.60
719.75	1271.79
719.94	1335.28
720.12	1339.37
720.30	1259.50
720.48	1222.64
720.67	1312.75
720.85	1310.70
721.03	1247.21
721.21	1230.83
721.39	1220.59
721.58	1241.07
721.76	1298.41
721.94	1308.65
722.12	1216.49
722.30	1271.79
722.49	1277.93
722.67	1269.74
722.85	1302.51
723.03	1322.99
723.21	1312.75
723.40	1224.69
723.58	1310.70
723.76	1314.80
723.94	1267.69
724.12	1224.69
724.30	1279.98
724.49	1191.92
724.67	1222.64
724.85	1269.74
725.03	1212.40
725.21	1247.21
725.40	1263.60
725.58	1220.59
725.76	1224.69
725.94	1322.99
726.12	1312.75
726.30	1275.88
726.49	1286.12
726.67	1282.03
726.85	1292.27
727.03	1318.89
727.21	1273.84
727.39	1189.87
727.57	1279.98
727.76	1279.98
727.94	1279.98
728.12	1269.74
728.30	1239.02
728.48	1337.32
728.66	1230.83
728.84	1187.82
729.03	1255.40
729.21	1290.22
729.39	1261.55
729.57	1183.73
729.75	1298.41
729.93	1241.07
730.11	1277.93
730.30	1257.45
730.48	1286.12
730.66	1279.98
730.84	1290.22
731.02	1222.64
731.20	1322.99
731.38	1279.98
731.56	1259.50
731.74	1228.78
731.93	1277.93
732.11	1310.70
732.29	1228.78
732.47	1243.12
732.65	1269.74
732.83	1226.73
733.01	1306.60
733.19	1306.60
733.37	1302.51
733.56	1265.64
733.74	1224.69
733.92	1232.88
734.10	1308.65
734.28	1286.12
734.46	1230.83
734.64	1333.23
734.82	1232.88
735.00	1298.41
735.18	1273.84
735.36	1286.12
735.54	1216.49
735.73	1275.88
735.91	1202.16
736.09	1230.83
736.27	1259.50
736.45	1263.60
736.63	1267.69
736.81	1206.25
736.99	1314.80
737.17	1261.55
737.35	1263.60
737.53	1318.89
737.71	1220.59
737.89	1294.32
738.07	1255.40
738.25	1392.62
738.43	1247.21
738.61	1275.88
738.80	1275.88
738.98	1265.64
739.16	1308.65
739.34	1263.60
739.52	1234.93
739.70	1251.31
739.88	1304.56
740.06	1263.60
740.24	1216.49
740.42	1296.36
740.60	1171.44
740.78	1312.75
740.96	1179.63
741.14	1273.84
741.32	1230.83
741.50	1247.21
741.68	1263.60
741.86	1216.49
742.04	1296.36
742.22	1216.49
742.40	1314.80
742.58	1236.97
742.76	1318.89
742.94	1374.19
743.12	1247.21
743.30	1306.60
743.48	1314.80
743.66	1251.31
743.84	1282.03
744.02	1257.45
744.20	1279.98
744.38	1263.60
744.56	1257.45
744.74	1257.45
744.92	1171.44
745.10	1198.06
745.28	1245.16
745.46	1220.59
745.64	1257.45
745.82	1222.64
746.00	1222.64
746.18	1353.71
746.36	1366.00
746.54	1284.08
746.72	1300.46
746.90	1200.11
747.08	1284.08
747.26	1247.21
747.44	1249.26
747.62	1255.40
747.80	1208.30
747.98	1296.36
748.15	1255.40
748.33	1265.64
748.51	1216.49
748.69	1247.21
748.87	1185.77
749.05	1243.12
749.23	1294.32
749.41	1189.87
749.59	1347.56
749.77	1253.36
749.95	1251.31
750.13	1232.88
750.31	1267.69
750.49	1310.70
750.67	1253.36
750.85	1275.88
751.03	1277.93
751.20	1318.89
751.38	1212.40
751.56	1265.64
751.74	1292.27
751.92	1214.45
752.10	1216.49
752.28	1245.16
752.46	1263.60
752.64	1284.08
752.82	1279.98
753.00	1259.50
753.18	1241.07
753.35	1314.80
753.53	1327.08
753.71	1343.47
753.89	1212.40
754.07	1226.73
754.25	1273.84
754.43	1310.70
754.61	1325.04
754.79	1302.51
754.97	1247.21
755.14	1236.97
755.32	1273.84
755.50	1327.08
755.68	1349.61
755.86	1249.26
756.04	1277.93
756.22	1290.22
756.40	1273.84
756.57	1255.40
756.75	1222.64
756.93	1312.75
757.11	1310.70
757.29	1202.16
757.47	1333.23
757.65	1216.49
757.82	1236.97
758.00	1294.32
758.18	1157.10
758.36	1220.59
758.54	1249.26
758.72	1253.36
758.90	1290.22
759.07	1239.02
759.25	1314.80
759.43	1251.31
759.61	1245.16
759.79	1257.45
759.97	1351.66
760.15	1322.99
760.32	1243.12
760.50	1290.22
760.68	1329.13
760.86	1314.80
761.04	1300.46
761.22	1296.36
761.39	1224.69
761.57	1261.55
761.75	1384.43
761.93	1222.64
762.11	1263.60
762.28	1249.26
762.46	1292.27
762.64	1312.75
762.82	1269.74
763.00	1327.08
763.18	1286.12
763.35	1230.83
763.53	1189.87
763.71	1206.25
763.89	1263.60
764.07	1273.84
764.24	1320.94
764.42	1296.36
764.60	1247.21
764.78	1310.70
764.96	1294.32
765.13	1232.88
765.31	1230.83
765.49	1351.66
765.67	1329.13
765.84	1253.36
766.02	1314.80
766.20	1241.07
766.38	1306.60
766.56	1245.16
766.73	1257.45
766.91	1251.31
767.09	1269.74
767.27	1273.84
767.44	1312.75
767.62	1243.12
767.80	1257.45
767.98	1310.70
768.15	1259.50
768.33	1251.31
768.51	1279.98
768.69	1292.27
768.87	1216.49
769.04	1329.13
769.22	1314.80
769.40	1267.69
769.58	1245.16
769.75	1284.08
769.93	1228.78
770.11	1271.79
770.28	1239.02
770.46	1263.60
770.64	1228.78
770.82	1265.64
770.99	1292.27
771.17	1208.30
771.35	1271.79
771.53	1277.93
771.70	1200.11
771.88	1271.79
772.06	1290.22
772.23	1325.04
772.41	1249.26
772.59	1314.80
772.77	1271.79
772.94	1279.98
773.12	1220.59
773.30	1226.73
773.47	1292.27
773.65	1349.61
773.83	1304.56
774.01	1239.02
774.18	1232.88
774.36	1282.03
774.54	1265.64
774.71	1269.74
774.89	1263.60
775.07	1284.08
775.24	1284.08
775.42	1234.93
775.60	1214.45
775.78	1277.93
775.95	1296.36
776.13	1253.36
776.31	1265.64
776.48	1204.21
776.66	1247.21
776.84	1275.88
777.01	1206.25
777.19	1271.79
777.37	1273.84
777.54	1267.69
777.72	1269.74
777.90	1275.88
778.07	1265.64
778.25	1257.45
778.43	1175.53
778.60	1314.80
778.78	1314.80
778.96	1300.46
779.13	1269.74
779.31	1247.21
779.49	1337.32
779.66	1271.79
779.84	1284.08
780.01	1185.77
780.19	1320.94
780.37	1267.69
780.54	1288.17
780.72	1259.50
780.90	1288.17
781.07	1230.83
781.25	1298.41
781.43	1312.75
781.60	1271.79
781.78	1255.40
781.95	1267.69
782.13	1288.17
782.31	1322.99
782.48	1265.64
782.66	1253.36
782.83	1292.27
783.01	1269.74
783.19	1208.30
783.36	1269.74
783.54	1226.73
783.72	1226.73
783.89	1228.78
784.07	1243.12
784.24	1228.78
784.42	1284.08
784.60	1251.31
784.77	1265.64
784.95	1241.07
785.12	1241.07
785.30	1271.79
785.47	1271.79
785.65	1275.88
785.83	1255.40
786.00	1253.36
786.18	1241.07
786.35	1214.45
786.53	1271.79
786.71	1273.84
786.88	1210.35
787.06	1236.97
787.23	1257.45
787.41	1284.08
787.58	1294.32
787.76	1288.17
787.94	1292.27
788.11	1318.89
788.29	1265.64
788.46	1267.69
788.64	1230.83
788.81	1263.60
788.99	1224.69
789.16	1304.56
789.34	1251.31
789.52	1277.93
789.69	1290.22
789.87	1275.88
790.04	1200.11
790.22	1247.21
790.39	1249.26
790.57	1228.78
790.74	1273.84
790.92	1298.41
791.09	1304.56
791.27	1228.78
791.44	1249.26
791.62	1288.17
791.79	1265.64
791.97	1239.02
792.15	1304.56
792.32	1329.13
792.50	1290.22
792.67	1320.94
792.85	1247.21
793.02	1267.69
793.20	1314.80
793.37	1255.40
793.55	1314.80
793.72	1263.60
793.90	1292.27
794.07	1230.83
794.25	1314.80
794.42	1306.60
794.60	1204.21
794.77	1271.79
794.95	1249.26
795.12	1308.65
795.30	1292.27
795.47	1224.69
795.65	1259.50
795.82	1245.16
796.00	1230.83
796.17	1245.16
796.34	1222.64
796.52	1292.27
796.69	1282.03
796.87	1226.73
797.04	1273.84
797.22	1261.55
797.39	1271.79
797.57	1234.93
797.74	1304.56
797.92	1363.95
798.09	1236.97
798.27	1310.70
798.44	1275.88
798.62	1263.60
798.79	1191.92
798.96	1265.64
799.14	1345.52
799.31	1271.79
799.49	1228.78
799.66	1286.12
799.84	1236.97
800.01	1245.16
800.19	1277.93
800.36	1322.99
800.53	1245.16
800.71	1249.26
800.88	1236.97
801.06	1206.25
801.23	1228.78
801.41	1304.56
801.58	1279.98
801.75	1230.83
801.93	1269.74
802.10	1232.88
802.28	1255.40
802.45	1294.32
802.63	1275.88
802.80	1222.64
802.97	1216.49
803.15	1247.21
803.32	1200.11
803.50	1284.08
803.67	1318.89
803.84	1320.94
804.02	1265.64
804.19	1243.12
804.37	1189.87
804.54	1206.25
804.71	1290.22
804.89	1200.11
805.06	1263.60
805.24	1302.51
805.41	1208.30
805.58	1228.78
805.76	1263.60
805.93	1234.93
806.10	1255.40
806.28	1279.98
806.45	1269.74
806.63	1173.49
806.80	1310.70
806.97	1224.69
807.15	1288.17
807.32	1296.36
807.49	1236.97
807.67	1208.30
807.84	1310.70
808.01	1173.49
808.19	1310.70
808.36	1239.02
808.54	1257.45
808.71	1232.88
808.88	1298.41
809.06	1253.36
809.23	1232.88
809.40	1271.79
809.58	1320.94
809.75	1294.32
809.92	1259.50
810.10	1314.80
810.27	1198.06
810.44	1353.71
810.62	1284.08
810.79	1339.37
810.96	1273.84
811.14	1304.56
811.31	1265.64
811.48	1191.92
811.66	1329.13
811.83	1279.98
812.00	1259.50
812.18	1230.83
812.35	1298.41
812.52	1232.88
812.69	1284.08
812.87	1292.27
813.04	1316.84
813.21	1187.82
813.39	1232.88
813.56	1202.16
813.73	1259.50
813.91	1175.53
814.08	1271.79
814.25	1263.60
814.42	1230.83
814.60	1318.89
814.77	1284.08
814.94	1284.08
815.12	1370.09
815.29	1247.21
815.46	1279.98
815.63	1304.56
815.81	1226.73
815.98	1204.21
816.15	1316.84
816.33	1312.75
816.50	1208.30
816.67	1353.71
816.84	1245.16
817.02	1257.45
817.19	1296.36
817.36	1216.49
817.53	1218.54
817.71	1243.12
817.88	1251.31
818.05	1261.55
818.22	1275.88
818.40	1310.70
818.57	1271.79
818.74	1241.07
818.91	1318.89
819.09	1230.83
819.26	1247.21
819.43	1261.55
819.60	1204.21
819.78	1312.75
819.95	1243.12
820.12	1341.42
820.29	1257.45
820.47	1353.71
820.64	1247.21
820.81	1263.60
820.98	1279.98
821.15	1265.64
821.33	1329.13
821.50	1265.64
821.67	1296.36
821.84	1222.64
822.02	1228.78
822.19	1208.30
822.36	1298.41
822.53	1288.17
822.70	1325.04
822.88	1257.45
823.05	1173.49
823.22	1277.93
823.39	1345.52
823.56	1261.55
823.74	1275.88
823.91	1306.60
824.08	1239.02
824.25	1251.31
824.42	1292.27
824.60	1249.26
824.77	1306.60
824.94	1206.25
825.11	1322.99
825.28	1220.59
825.45	1232.88
825.63	1320.94
825.80	1275.88
825.97	1263.60
826.14	1306.60
826.31	1263.60
826.48	1306.60
826.66	1210.35
826.83	1228.78
827.00	1232.88
827.17	1249.26
827.34	1271.79
827.51	1251.31
827.69	1310.70
827.86	1198.06
828.03	1277.93
828.20	1236.97
828.37	1253.36
828.54	1204.21
828.71	1218.54
828.89	1224.69
829.06	1236.97
829.23	1298.41
829.40	1308.65
829.57	1261.55
829.74	1241.07
829.91	1232.88
830.09	1253.36
830.26	1282.03
830.43	1273.84
830.60	1300.46
830.77	1277.93
830.94	1282.03
831.11	1310.70
831.28	1269.74
831.46	1241.07
831.63	1374.19
831.80	1267.69
831.97	1275.88
832.14	1234.93
832.31	1292.27
832.48	1249.26
832.65	1290.22
832.82	1310.70
832.99	1351.66
833.17	1230.83
833.34	1327.08
833.51	1286.12
833.68	1294.32
833.85	1218.54
834.02	1243.12
834.19	1173.49
834.36	1232.88
834.53	1329.13
834.70	1277.93
834.87	1249.26
835.04	1259.50
835.22	1261.55
835.39	1245.16
835.56	1261.55
835.73	1232.88
835.90	1239.02
836.07	1257.45
836.24	1282.03
836.41	1226.73
836.58	1275.88
836.75	1226.73
836.92	1290.22
837.09	1239.02
837.26	1239.02
837.43	1273.84
837.60	1282.03
837.77	1241.07
837.94	1269.74
838.12	1259.50
838.29	1247.21
838.46	1247.21
838.63	1273.84
838.80	1236.97
838.97	1253.36
839.14	1277.93
839.31	1216.49
839.48	1222.64
839.65	1239.02
839.82	1269.74
839.99	1322.99
840.16	1216.49
840.33	1279.98
840.50	1189.87
840.67	1282.03
840.84	1236.97
841.01	1220.59
841.18	1247.21
841.35	1212.40
841.52	1181.68
841.69	1277.93
841.86	1277.93
842.03	1230.83
842.20	1279.98
842.37	1251.31
842.54	1339.37
842.71	1275.88
842.88	1181.68
843.05	1245.16
843.22	1263.60
843.39	1247.21
843.56	1263.60
843.73	1230.83
843.90	1267.69
844.07	1312.75
844.24	1298.41
844.41	1232.88
844.58	1251.31
844.75	1261.55
844.92	1282.03
845.09	1257.45
845.26	1275.88
845.43	1191.92
845.60	1282.03
845.77	1269.74
845.94	1179.63
846.10	1269.74
846.27	1241.07
846.44	1236.97
846.61	1220.59
846.78	1224.69
846.95	1224.69
847.12	1234.93
847.29	1306.60
847.46	1279.98
847.63	1255.40
847.80	1302.51
847.97	1306.60
848.14	1234.93
848.31	1343.47
848.48	1271.79
848.65	1284.08
848.82	1226.73
848.98	1331.18
849.15	1386.47
849.32	1314.80
849.49	1189.87
849.66	1279.98
849.83	1216.49
850.00	1292.27
850.17	1294.32
850.34	1232.88
850.51	1322.99
850.68	1269.74
850.85	1257.45
851.01	1269.74
851.18	1206.25
851.35	1284.08
851.52	1302.51
851.69	1212.40
851.86	1236.97
852.03	1232.88
852.20	1247.21
852.37	1271.79
852.53	1294.32
852.70	1288.17
852.87	1310.70
853.04	1232.88
853.21	1255.40
853.38	1255.40
853.55	1329.13
853.72	1306.60
853.89	1265.64
854.05	1261.55
854.22	1296.36
854.39	1239.02
854.56	1167.34
854.73	1335.28
854.90	1249.26
855.07	1273.84
855.23	1210.35
855.40	1284.08
855.57	1263.60
855.74	1239.02
855.91	1318.89
856.08	1243.12
856.25	1284.08
856.41	1279.98
856.58	1245.16
856.75	1329.13
856.92	1308.65
857.09	1312.75
857.26	1255.40
857.42	1255.40
857.59	1312.75
857.76	1216.49
857.93	1271.79
858.10	1273.84
858.27	1230.83
858.43	1277.93
858.60	1298.41
858.77	1286.12
858.94	1351.66
859.11	1226.73
859.27	1249.26
859.44	1267.69
859.61	1249.26
859.78	1306.60
859.95	1198.06
860.12	1265.64
860.28	1265.64
860.45	1302.51
860.62	1263.60
860.79	1316.84
860.95	1239.02
861.12	1288.17
861.29	1222.64
861.46	1232.88
861.63	1191.92
861.79	1275.88
861.96	1230.83
862.13	1347.56
862.30	1202.16
862.47	1255.40
862.63	1234.93
862.80	1275.88
862.97	1249.26
863.14	1245.16
863.30	1214.45
863.47	1261.55
863.64	1239.02
863.81	1277.93
863.97	1318.89
864.14	1202.16
864.31	1282.03
864.48	1294.32
864.65	1306.60
864.81	1290.22
864.98	1259.50
865.15	1279.98
865.32	1327.08
865.48	1216.49
865.65	1202.16
865.82	1183.73
865.98	1224.69
866.15	1257.45
866.32	1236.97
866.49	1304.56
866.65	1312.75
866.82	1247.21
866.99	1298.41
867.16	1267.69
867.32	1335.28
867.49	1292.27
867.66	1302.51
867.83	1296.36
867.99	1220.59
868.16	1257.45
868.33	1251.31
868.49	1257.45
868.66	1265.64
868.83	1286.12
868.99	1241.07
869.16	1200.11
869.33	1275.88
869.50	1290.22
869.66	1329.13
869.83	1271.79
870.00	1271.79
870.16	1241.07
870.33	1259.50
870.50	1282.03
870.66	1290.22
870.83	1245.16
871.00	1286.12
871.17	1241.07
871.33	1204.21
871.50	1216.49
871.67	1216.49
871.83	1214.45
872.00	1282.03
872.17	1279.98
872.33	1263.60
872.50	1279.98
872.67	1206.25
872.83	1265.64
873.00	1308.65
873.17	1255.40
873.33	1298.41
873.50	1232.88
873.67	1198.06
873.83	1271.79
874.00	1296.36
874.16	1224.69
874.33	1277.93
874.50	1273.84
874.66	1228.78
874.83	1308.65
875.00	1279.98
875.16	1286.12
875.33	1263.60
875.50	1282.03
875.66	1302.51
875.83	1245.16
875.99	1333.23
876.16	1261.55
876.33	1200.11
876.49	1261.55
876.66	1290.22
876.83	1296.36
876.99	1255.40
877.16	1267.69
877.32	1214.45
877.49	1236.97
877.66	1282.03
877.82	1273.84
877.99	1253.36
878.15	1249.26
878.32	1239.02
878.49	1216.49
878.65	1265.64
878.82	1327.08
878.98	1210.35
879.15	1259.50
879.32	1236.97
879.48	1253.36
879.65	1200.11
879.81	1247.21
879.98	1236.97
880.15	1257.45
880.31	1343.47
880.48	1259.50
880.64	1212.40
880.81	1267.69
880.97	1230.83
881.14	1347.56
881.31	1275.88
881.47	1341.42
881.64	1310.70
881.80	1320.94
881.97	1212.40
882.13	1273.84
882.30	1286.12
882.47	1251.31
882.63	1245.16
882.80	1310.70
882.96	1273.84
883.13	1306.60
883.29	1337.32
883.46	1267.69
883.62	1286.12
883.79	1357.80
883.95	1263.60
884.12	1288.17
884.29	1290.22
884.45	1271.79
884.62	1202.16
884.78	1288.17
884.95	1271.79
885.11	1294.32
885.28	1265.64
885.44	1335.28
885.61	1251.31
885.77	1255.40
885.94	1224.69
886.10	1249.26
886.27	1267.69
886.43	1286.12
886.60	1263.60
886.76	1239.02
886.93	1224.69
887.09	1208.30
887.26	1255.40
887.42	1247.21
887.59	1232.88
887.75	1193.97
887.92	1239.02
888.08	1329.13
888.25	1279.98
888.41	1279.98
888.58	1263.60
888.74	1171.44
888.91	1316.84
>>>>>End Processed Spectral Data<<<<<
