SpectraSuite Data File
++++++++++++++++++++++++++++++++++++
Date: Sun Apr 03 19:55:30 CEST 2016
User: root
Dark Spectrum Present: No
Reference Spectrum Present: No
Number of Sampled Component Spectra: 1
Spectrometers: USB4C02835
Integration Time (usec): 10000 (USB4C02835)
Spectra Averaged: 1 (USB4C02835)
Boxcar Smoothing: 0 (USB4C02835)
Correct for Electrical Dark: No (USB4C02835)
Strobe/Lamp Enabled: No (USB4C02835)
Correct for Detector Non-linearity: No (USB4C02835)
Correct for Stray Light: No (USB4C02835)
Number of Pixels in Processed Spectrum: 3648
>>>>>Begin Processed Spectral Data<<<<<
177.47	1220.59
177.69	1220.59
177.91	1220.59
178.13	1212.40
178.36	1239.02
178.58	1288.17
178.80	1271.79
179.02	1277.93
179.24	1251.31
179.46	1271.79
179.68	1241.07
179.90	1257.45
180.13	1220.59
180.35	1200.11
180.57	1263.60
180.79	1304.56
181.01	1288.17
181.23	1308.65
181.45	1271.79
181.67	1296.36
181.90	1372.14
182.12	1243.12
182.34	1290.22
182.56	1228.78
182.78	1234.93
183.00	1243.12
183.22	1204.21
183.44	1204.21
183.66	1257.45
183.89	1232.88
184.11	1308.65
184.33	1249.26
184.55	1267.69
184.77	1374.19
184.99	1253.36
185.21	1208.30
185.43	1212.40
185.65	1296.36
185.87	1247.21
186.10	1224.69
186.32	1312.75
186.54	1300.46
186.76	1316.84
186.98	1204.21
187.20	1257.45
187.42	1247.21
187.64	1224.69
187.86	1261.55
188.08	1357.80
188.30	1288.17
188.52	1314.80
188.75	1230.83
188.97	1275.88
189.19	1259.50
189.41	1288.17
189.63	1310.70
189.85	1294.32
190.07	1169.39
190.29	1210.35
190.51	1304.56
190.73	1220.59
190.95	1284.08
191.17	1210.35
191.39	1228.78
191.61	1337.32
191.84	1282.03
192.06	1269.74
192.28	1314.80
192.50	1310.70
192.72	1290.22
192.94	1255.40
193.16	1306.60
193.38	1279.98
193.60	1196.01
193.82	1247.21
194.04	1300.46
194.26	1257.45
194.48	1265.64
194.70	1200.11
194.92	1212.40
195.14	1292.27
195.36	1216.49
195.58	1304.56
195.80	1269.74
196.02	1218.54
196.24	1255.40
196.46	1290.22
196.69	1247.21
196.91	1251.31
197.13	1282.03
197.35	1230.83
197.57	1316.84
197.79	1306.60
198.01	1286.12
198.23	1247.21
198.45	1300.46
198.67	1275.88
198.89	1341.42
199.11	1271.79
199.33	1279.98
199.55	1279.98
199.77	1253.36
199.99	1290.22
200.21	1210.35
200.43	1335.28
200.65	1300.46
200.87	1232.88
201.09	1222.64
201.31	1222.64
201.53	1208.30
201.75	1265.64
201.97	1232.88
202.19	1282.03
202.41	1241.07
202.63	1273.84
202.85	1275.88
203.07	1214.45
203.29	1288.17
203.51	1304.56
203.73	1290.22
203.95	1265.64
204.17	1265.64
204.39	1284.08
204.61	1308.65
204.83	1347.56
205.05	1290.22
205.27	1279.98
205.49	1269.74
205.71	1302.51
205.93	1265.64
206.15	1288.17
206.37	1316.84
206.59	1181.68
206.81	1271.79
207.03	1300.46
207.25	1259.50
207.47	1249.26
207.69	1241.07
207.91	1288.17
208.13	1220.59
208.34	1282.03
208.56	1314.80
208.78	1308.65
209.00	1257.45
209.22	1263.60
209.44	1228.78
209.66	1265.64
209.88	1265.64
210.10	1239.02
210.32	1269.74
210.54	1304.56
210.76	1277.93
210.98	1267.69
211.20	1269.74
211.42	1222.64
211.64	1271.79
211.86	1232.88
212.08	1191.92
212.30	1282.03
212.52	1253.36
212.74	1320.94
212.96	1234.93
213.17	1257.45
213.39	1300.46
213.61	1247.21
213.83	1243.12
214.05	1216.49
214.27	1247.21
214.49	1259.50
214.71	1282.03
214.93	1224.69
215.15	1265.64
215.37	1243.12
215.59	1257.45
215.81	1380.33
216.03	1282.03
216.24	1253.36
216.46	1245.16
216.68	1245.16
216.90	1218.54
217.12	1339.37
217.34	1255.40
217.56	1273.84
217.78	1304.56
218.00	1253.36
218.22	1304.56
218.44	1282.03
218.66	1282.03
218.87	1212.40
219.09	1265.64
219.31	1286.12
219.53	1253.36
219.75	1282.03
219.97	1388.52
220.19	1294.32
220.41	1265.64
220.63	1243.12
220.85	1247.21
221.06	1239.02
221.28	1318.89
221.50	1232.88
221.72	1226.73
221.94	1282.03
222.16	1239.02
222.38	1320.94
222.60	1261.55
222.82	1288.17
223.03	1325.04
223.25	1267.69
223.47	1255.40
223.69	1279.98
223.91	1224.69
224.13	1341.42
224.35	1253.36
224.57	1294.32
224.78	1269.74
225.00	1277.93
225.22	1302.51
225.44	1316.84
225.66	1273.84
225.88	1290.22
226.10	1349.61
226.32	1290.22
226.53	1259.50
226.75	1253.36
226.97	1261.55
227.19	1202.16
227.41	1284.08
227.63	1277.93
227.85	1265.64
228.06	1300.46
228.28	1290.22
228.50	1265.64
228.72	1239.02
228.94	1288.17
229.16	1286.12
229.37	1320.94
229.59	1288.17
229.81	1298.41
230.03	1279.98
230.25	1304.56
230.47	1236.97
230.69	1298.41
230.90	1302.51
231.12	1232.88
231.34	1288.17
231.56	1253.36
231.78	1273.84
232.00	1257.45
232.21	1292.27
232.43	1179.63
232.65	1210.35
232.87	1253.36
233.09	1339.37
233.30	1257.45
233.52	1257.45
233.74	1288.17
233.96	1212.40
234.18	1310.70
234.40	1241.07
234.61	1339.37
234.83	1253.36
235.05	1253.36
235.27	1232.88
235.49	1296.36
235.70	1214.45
235.92	1265.64
236.14	1335.28
236.36	1253.36
236.58	1224.69
236.79	1308.65
237.01	1284.08
237.23	1239.02
237.45	1259.50
237.67	1370.09
237.88	1232.88
238.10	1271.79
238.32	1282.03
238.54	1263.60
238.76	1316.84
238.97	1247.21
239.19	1316.84
239.41	1286.12
239.63	1284.08
239.85	1253.36
240.06	1269.74
240.28	1282.03
240.50	1187.82
240.72	1183.73
240.93	1204.21
241.15	1263.60
241.37	1347.56
241.59	1253.36
241.81	1314.80
242.02	1230.83
242.24	1230.83
242.46	1196.01
242.68	1320.94
242.89	1269.74
243.11	1202.16
243.33	1267.69
243.55	1236.97
243.76	1241.07
243.98	1224.69
244.20	1206.25
244.42	1318.89
244.64	1325.04
244.85	1210.35
245.07	1181.68
245.29	1265.64
245.51	1284.08
245.72	1269.74
245.94	1208.30
246.16	1181.68
246.38	1322.99
246.59	1245.16
246.81	1259.50
247.03	1263.60
247.24	1222.64
247.46	1230.83
247.68	1279.98
247.90	1247.21
248.11	1275.88
248.33	1273.84
248.55	1312.75
248.77	1290.22
248.98	1355.76
249.20	1259.50
249.42	1261.55
249.64	1265.64
249.85	1239.02
250.07	1216.49
250.29	1298.41
250.50	1314.80
250.72	1343.47
250.94	1208.30
251.16	1282.03
251.37	1314.80
251.59	1198.06
251.81	1257.45
252.02	1298.41
252.24	1173.49
252.46	1290.22
252.68	1255.40
252.89	1259.50
253.11	1234.93
253.33	1253.36
253.54	1288.17
253.76	1318.89
253.98	1279.98
254.20	1236.97
254.41	1382.38
254.63	1249.26
254.85	1275.88
255.06	1337.32
255.28	1288.17
255.50	1320.94
255.71	1304.56
255.93	1298.41
256.15	1208.30
256.36	1273.84
256.58	1271.79
256.80	1269.74
257.02	1206.25
257.23	1337.32
257.45	1253.36
257.67	1292.27
257.88	1243.12
258.10	1294.32
258.32	1232.88
258.53	1325.04
258.75	1294.32
258.97	1265.64
259.18	1302.51
259.40	1261.55
259.62	1302.51
259.83	1253.36
260.05	1212.40
260.27	1269.74
260.48	1214.45
260.70	1353.71
260.92	1282.03
261.13	1343.47
261.35	1214.45
261.57	1273.84
261.78	1288.17
262.00	1265.64
262.22	1302.51
262.43	1341.42
262.65	1318.89
262.86	1245.16
263.08	1318.89
263.30	1366.00
263.51	1249.26
263.73	1331.18
263.95	1273.84
264.16	1273.84
264.38	1247.21
264.60	1312.75
264.81	1284.08
265.03	1251.31
265.25	1341.42
265.46	1216.49
265.68	1318.89
265.89	1296.36
266.11	1220.59
266.33	1310.70
266.54	1335.28
266.76	1298.41
266.98	1396.71
267.19	1308.65
267.41	1232.88
267.62	1277.93
267.84	1263.60
268.06	1200.11
268.27	1302.51
268.49	1310.70
268.70	1275.88
268.92	1232.88
269.14	1294.32
269.35	1333.23
269.57	1271.79
269.79	1243.12
270.00	1284.08
270.22	1312.75
270.43	1290.22
270.65	1298.41
270.87	1345.52
271.08	1255.40
271.30	1230.83
271.51	1243.12
271.73	1245.16
271.95	1245.16
272.16	1273.84
272.38	1286.12
272.59	1202.16
272.81	1337.32
273.02	1196.01
273.24	1341.42
273.46	1279.98
273.67	1296.36
273.89	1259.50
274.10	1253.36
274.32	1236.97
274.54	1288.17
274.75	1222.64
274.97	1239.02
275.18	1265.64
275.40	1279.98
275.61	1322.99
275.83	1226.73
276.05	1292.27
276.26	1271.79
276.48	1304.56
276.69	1306.60
276.91	1261.55
277.12	1275.88
277.34	1257.45
277.55	1245.16
277.77	1271.79
277.99	1292.27
278.20	1339.37
278.42	1236.97
278.63	1273.84
278.85	1232.88
279.06	1196.01
279.28	1263.60
279.49	1234.93
279.71	1271.79
279.93	1247.21
280.14	1271.79
280.36	1232.88
280.57	1243.12
280.79	1331.18
281.00	1269.74
281.22	1265.64
281.43	1290.22
281.65	1288.17
281.86	1226.73
282.08	1249.26
282.29	1300.46
282.51	1304.56
282.73	1234.93
282.94	1257.45
283.16	1314.80
283.37	1271.79
283.59	1265.64
283.80	1200.11
284.02	1267.69
284.23	1257.45
284.45	1255.40
284.66	1255.40
284.88	1290.22
285.09	1322.99
285.31	1308.65
285.52	1247.21
285.74	1273.84
285.95	1320.94
286.17	1216.49
286.38	1339.37
286.60	1247.21
286.81	1234.93
287.03	1286.12
287.24	1339.37
287.46	1265.64
287.67	1277.93
287.89	1279.98
288.10	1298.41
288.32	1292.27
288.53	1230.83
288.75	1220.59
288.96	1228.78
289.18	1290.22
289.39	1212.40
289.61	1259.50
289.82	1200.11
290.04	1279.98
290.25	1239.02
290.47	1318.89
290.68	1230.83
290.90	1300.46
291.11	1288.17
291.33	1247.21
291.54	1204.21
291.76	1271.79
291.97	1214.45
292.18	1241.07
292.40	1322.99
292.61	1294.32
292.83	1214.45
293.04	1314.80
293.26	1236.97
293.47	1249.26
293.69	1277.93
293.90	1290.22
294.12	1273.84
294.33	1298.41
294.55	1241.07
294.76	1327.08
294.97	1220.59
295.19	1288.17
295.40	1236.97
295.62	1304.56
295.83	1349.61
296.05	1290.22
296.26	1222.64
296.48	1294.32
296.69	1222.64
296.90	1271.79
297.12	1337.32
297.33	1200.11
297.55	1316.84
297.76	1232.88
297.98	1200.11
298.19	1304.56
298.41	1279.98
298.62	1331.18
298.83	1290.22
299.05	1191.92
299.26	1310.70
299.48	1290.22
299.69	1359.85
299.90	1261.55
300.12	1234.93
300.33	1267.69
300.55	1257.45
300.76	1292.27
300.98	1249.26
301.19	1234.93
301.40	1298.41
301.62	1263.60
301.83	1255.40
302.05	1265.64
302.26	1279.98
302.47	1331.18
302.69	1265.64
302.90	1200.11
303.12	1243.12
303.33	1298.41
303.54	1196.01
303.76	1322.99
303.97	1259.50
304.19	1320.94
304.40	1306.60
304.61	1275.88
304.83	1214.45
305.04	1196.01
305.26	1228.78
305.47	1288.17
305.68	1265.64
305.90	1284.08
306.11	1310.70
306.33	1259.50
306.54	1202.16
306.75	1304.56
306.97	1253.36
307.18	1247.21
307.39	1322.99
307.61	1212.40
307.82	1320.94
308.04	1275.88
308.25	1277.93
308.46	1269.74
308.68	1325.04
308.89	1279.98
309.10	1220.59
309.32	1261.55
309.53	1267.69
309.74	1251.31
309.96	1310.70
310.17	1249.26
310.39	1198.06
310.60	1253.36
310.81	1302.51
311.03	1370.09
311.24	1243.12
311.45	1298.41
311.67	1251.31
311.88	1255.40
312.09	1265.64
312.31	1193.97
312.52	1214.45
312.73	1224.69
312.95	1290.22
313.16	1245.16
313.37	1232.88
313.59	1359.85
313.80	1318.89
314.01	1314.80
314.23	1355.76
314.44	1290.22
314.65	1261.55
314.87	1282.03
315.08	1261.55
315.29	1275.88
315.51	1224.69
315.72	1302.51
315.93	1304.56
316.15	1279.98
316.36	1212.40
316.57	1222.64
316.79	1247.21
317.00	1265.64
317.21	1275.88
317.43	1286.12
317.64	1261.55
317.85	1290.22
318.07	1255.40
318.28	1265.64
318.49	1267.69
318.70	1306.60
318.92	1314.80
319.13	1241.07
319.34	1288.17
319.56	1212.40
319.77	1249.26
319.98	1255.40
320.20	1273.84
320.41	1347.56
320.62	1271.79
320.83	1206.25
321.05	1275.88
321.26	1239.02
321.47	1277.93
321.69	1322.99
321.90	1216.49
322.11	1277.93
322.32	1310.70
322.54	1269.74
322.75	1310.70
322.96	1249.26
323.18	1247.21
323.39	1230.83
323.60	1241.07
323.81	1273.84
324.03	1267.69
324.24	1243.12
324.45	1279.98
324.66	1327.08
324.88	1306.60
325.09	1325.04
325.30	1249.26
325.52	1284.08
325.73	1306.60
325.94	1263.60
326.15	1234.93
326.37	1212.40
326.58	1267.69
326.79	1210.35
327.00	1214.45
327.22	1273.84
327.43	1263.60
327.64	1314.80
327.85	1253.36
328.07	1327.08
328.28	1310.70
328.49	1208.30
328.70	1222.64
328.92	1232.88
329.13	1265.64
329.34	1329.13
329.55	1249.26
329.76	1212.40
329.98	1269.74
330.19	1333.23
330.40	1359.85
330.61	1306.60
330.83	1363.95
331.04	1234.93
331.25	1279.98
331.46	1286.12
331.68	1216.49
331.89	1267.69
332.10	1245.16
332.31	1265.64
332.52	1259.50
332.74	1257.45
332.95	1271.79
333.16	1257.45
333.37	1206.25
333.58	1224.69
333.80	1253.36
334.01	1304.56
334.22	1286.12
334.43	1335.28
334.64	1257.45
334.86	1329.13
335.07	1251.31
335.28	1261.55
335.49	1298.41
335.70	1296.36
335.92	1282.03
336.13	1290.22
336.34	1275.88
336.55	1310.70
336.76	1212.40
336.98	1247.21
337.19	1271.79
337.40	1241.07
337.61	1277.93
337.82	1310.70
338.04	1247.21
338.25	1331.18
338.46	1243.12
338.67	1327.08
338.88	1279.98
339.09	1243.12
339.31	1261.55
339.52	1189.87
339.73	1222.64
339.94	1298.41
340.15	1298.41
340.36	1220.59
340.58	1284.08
340.79	1314.80
341.00	1353.71
341.21	1288.17
341.42	1261.55
341.63	1331.18
341.85	1310.70
342.06	1298.41
342.27	1224.69
342.48	1298.41
342.69	1294.32
342.90	1239.02
343.12	1318.89
343.33	1255.40
343.54	1251.31
343.75	1300.46
343.96	1196.01
344.17	1249.26
344.38	1232.88
344.60	1286.12
344.81	1253.36
345.02	1284.08
345.23	1310.70
345.44	1271.79
345.65	1228.78
345.86	1337.32
346.07	1333.23
346.29	1251.31
346.50	1261.55
346.71	1282.03
346.92	1290.22
347.13	1271.79
347.34	1191.92
347.55	1241.07
347.76	1251.31
347.98	1179.63
348.19	1253.36
348.40	1245.16
348.61	1214.45
348.82	1251.31
349.03	1275.88
349.24	1232.88
349.45	1259.50
349.66	1284.08
349.88	1265.64
350.09	1290.22
350.30	1339.37
350.51	1255.40
350.72	1275.88
350.93	1277.93
351.14	1230.83
351.35	1275.88
351.56	1327.08
351.77	1185.77
351.99	1290.22
352.20	1296.36
352.41	1271.79
352.62	1226.73
352.83	1277.93
353.04	1271.79
353.25	1243.12
353.46	1320.94
353.67	1292.27
353.88	1304.56
354.09	1277.93
354.30	1273.84
354.52	1284.08
354.73	1320.94
354.94	1214.45
355.15	1224.69
355.36	1224.69
355.57	1294.32
355.78	1269.74
355.99	1247.21
356.20	1241.07
356.41	1269.74
356.62	1310.70
356.83	1261.55
357.04	1304.56
357.25	1241.07
357.46	1245.16
357.68	1302.51
357.89	1284.08
358.10	1318.89
358.31	1302.51
358.52	1292.27
358.73	1222.64
358.94	1269.74
359.15	1224.69
359.36	1241.07
359.57	1282.03
359.78	1284.08
359.99	1161.20
360.20	1208.30
360.41	1308.65
360.62	1253.36
360.83	1239.02
361.04	1339.37
361.25	1220.59
361.46	1271.79
361.67	1236.97
361.88	1265.64
362.09	1232.88
362.30	1298.41
362.51	1239.02
362.72	1275.88
362.93	1288.17
363.14	1294.32
363.35	1257.45
363.56	1288.17
363.78	1241.07
363.99	1198.06
364.20	1253.36
364.41	1320.94
364.62	1308.65
364.83	1222.64
365.04	1380.33
365.25	1302.51
365.46	1310.70
365.67	1239.02
365.88	1320.94
366.09	1302.51
366.30	1247.21
366.51	1331.18
366.72	1228.78
366.93	1320.94
367.14	1263.60
367.35	1239.02
367.56	1236.97
367.77	1290.22
367.98	1318.89
368.18	1286.12
368.39	1261.55
368.60	1304.56
368.81	1243.12
369.02	1292.27
369.23	1191.92
369.44	1271.79
369.65	1333.23
369.86	1257.45
370.07	1273.84
370.28	1298.41
370.49	1247.21
370.70	1314.80
370.91	1261.55
371.12	1247.21
371.33	1187.82
371.54	1290.22
371.75	1236.97
371.96	1214.45
372.17	1239.02
372.38	1245.16
372.59	1284.08
372.80	1277.93
373.01	1214.45
373.22	1269.74
373.43	1243.12
373.64	1247.21
373.85	1196.01
374.06	1232.88
374.26	1286.12
374.47	1251.31
374.68	1230.83
374.89	1308.65
375.10	1288.17
375.31	1290.22
375.52	1247.21
375.73	1279.98
375.94	1159.15
376.15	1224.69
376.36	1273.84
376.57	1232.88
376.78	1236.97
376.99	1218.54
377.20	1259.50
377.40	1255.40
377.61	1304.56
377.82	1220.59
378.03	1249.26
378.24	1284.08
378.45	1282.03
378.66	1230.83
378.87	1263.60
379.08	1282.03
379.29	1226.73
379.50	1316.84
379.71	1322.99
379.91	1265.64
380.12	1296.36
380.33	1218.54
380.54	1267.69
380.75	1282.03
380.96	1251.31
381.17	1206.25
381.38	1239.02
381.59	1284.08
381.80	1157.10
382.00	1314.80
382.21	1300.46
382.42	1316.84
382.63	1320.94
382.84	1241.07
383.05	1363.95
383.26	1314.80
383.47	1345.52
383.68	1302.51
383.88	1363.95
384.09	1232.88
384.30	1241.07
384.51	1347.56
384.72	1279.98
384.93	1282.03
385.14	1210.35
385.35	1230.83
385.55	1345.52
385.76	1226.73
385.97	1249.26
386.18	1294.32
386.39	1224.69
386.60	1318.89
386.81	1222.64
387.02	1304.56
387.22	1267.69
387.43	1257.45
387.64	1220.59
387.85	1290.22
388.06	1212.40
388.27	1347.56
388.48	1300.46
388.68	1353.71
388.89	1279.98
389.10	1257.45
389.31	1271.79
389.52	1267.69
389.73	1118.19
389.93	1245.16
390.14	1312.75
390.35	1304.56
390.56	1314.80
390.77	1310.70
390.98	1245.16
391.18	1310.70
391.39	1265.64
391.60	1232.88
391.81	1187.82
392.02	1261.55
392.23	1304.56
392.43	1261.55
392.64	1286.12
392.85	1271.79
393.06	1279.98
393.27	1245.16
393.47	1232.88
393.68	1228.78
393.89	1353.71
394.10	1290.22
394.31	1269.74
394.52	1298.41
394.72	1230.83
394.93	1243.12
395.14	1269.74
395.35	1310.70
395.56	1279.98
395.76	1296.36
395.97	1265.64
396.18	1314.80
396.39	1226.73
396.60	1243.12
396.80	1177.58
397.01	1161.20
397.22	1259.50
397.43	1333.23
397.64	1249.26
397.84	1269.74
398.05	1232.88
398.26	1232.88
398.47	1241.07
398.67	1247.21
398.88	1271.79
399.09	1228.78
399.30	1275.88
399.51	1259.50
399.71	1271.79
399.92	1236.97
400.13	1355.76
400.34	1224.69
400.54	1247.21
400.75	1269.74
400.96	1290.22
401.17	1228.78
401.37	1318.89
401.58	1239.02
401.79	1273.84
402.00	1282.03
402.21	1341.42
402.41	1255.40
402.62	1241.07
402.83	1245.16
403.04	1253.36
403.24	1257.45
403.45	1282.03
403.66	1241.07
403.87	1292.27
404.07	1261.55
404.28	1236.97
404.49	1282.03
404.70	1239.02
404.90	1269.74
405.11	1288.17
405.32	1284.08
405.52	1265.64
405.73	1320.94
405.94	1255.40
406.15	1171.44
406.35	1263.60
406.56	1318.89
406.77	1279.98
406.98	1308.65
407.18	1210.35
407.39	1306.60
407.60	1236.97
407.80	1298.41
408.01	1222.64
408.22	1290.22
408.43	1294.32
408.63	1212.40
408.84	1251.31
409.05	1253.36
409.25	1228.78
409.46	1249.26
409.67	1333.23
409.88	1253.36
410.08	1296.36
410.29	1249.26
410.50	1204.21
410.70	1241.07
410.91	1300.46
411.12	1222.64
411.32	1271.79
411.53	1226.73
411.74	1322.99
411.95	1236.97
412.15	1279.98
412.36	1239.02
412.57	1257.45
412.77	1302.51
412.98	1218.54
413.19	1232.88
413.39	1224.69
413.60	1286.12
413.81	1239.02
414.01	1347.56
414.22	1239.02
414.43	1282.03
414.63	1200.11
414.84	1245.16
415.05	1228.78
415.25	1292.27
415.46	1230.83
415.67	1312.75
415.87	1224.69
416.08	1296.36
416.29	1257.45
416.49	1265.64
416.70	1316.84
416.91	1300.46
417.11	1249.26
417.32	1296.36
417.53	1265.64
417.73	1308.65
417.94	1257.45
418.15	1310.70
418.35	1189.87
418.56	1239.02
418.77	1282.03
418.97	1263.60
419.18	1234.93
419.38	1277.93
419.59	1208.30
419.80	1302.51
420.00	1331.18
420.21	1271.79
420.42	1208.30
420.62	1241.07
420.83	1277.93
421.04	1337.32
421.24	1206.25
421.45	1222.64
421.65	1191.92
421.86	1275.88
422.07	1218.54
422.27	1284.08
422.48	1273.84
422.69	1255.40
422.89	1253.36
423.10	1294.32
423.30	1226.73
423.51	1255.40
423.72	1224.69
423.92	1316.84
424.13	1253.36
424.33	1239.02
424.54	1228.78
424.75	1288.17
424.95	1333.23
425.16	1329.13
425.36	1216.49
425.57	1230.83
425.78	1216.49
425.98	1241.07
426.19	1298.41
426.39	1210.35
426.60	1259.50
426.81	1247.21
427.01	1269.74
427.22	1288.17
427.42	1279.98
427.63	1271.79
427.83	1259.50
428.04	1259.50
428.25	1357.80
428.45	1175.53
428.66	1208.30
428.86	1257.45
429.07	1308.65
429.28	1288.17
429.48	1220.59
429.69	1349.61
429.89	1288.17
430.10	1251.31
430.30	1257.45
430.51	1259.50
430.71	1253.36
430.92	1224.69
431.13	1261.55
431.33	1271.79
431.54	1304.56
431.74	1259.50
431.95	1226.73
432.15	1279.98
432.36	1265.64
432.56	1224.69
432.77	1220.59
432.98	1288.17
433.18	1269.74
433.39	1314.80
433.59	1292.27
433.80	1300.46
434.00	1257.45
434.21	1191.92
434.41	1294.32
434.62	1230.83
434.82	1230.83
435.03	1247.21
435.23	1228.78
435.44	1304.56
435.64	1253.36
435.85	1226.73
436.06	1290.22
436.26	1206.25
436.47	1294.32
436.67	1236.97
436.88	1282.03
437.08	1345.52
437.29	1306.60
437.49	1230.83
437.70	1226.73
437.90	1314.80
438.11	1273.84
438.31	1302.51
438.52	1216.49
438.72	1255.40
438.93	1292.27
439.13	1294.32
439.34	1308.65
439.54	1232.88
439.75	1239.02
439.95	1333.23
440.16	1177.58
440.36	1269.74
440.57	1247.21
440.77	1249.26
440.98	1302.51
441.18	1251.31
441.39	1304.56
441.59	1331.18
441.80	1275.88
442.00	1198.06
442.21	1236.97
442.41	1241.07
442.62	1298.41
442.82	1210.35
443.02	1249.26
443.23	1261.55
443.43	1249.26
443.64	1181.68
443.84	1228.78
444.05	1185.77
444.25	1318.89
444.46	1216.49
444.66	1282.03
444.87	1234.93
445.07	1216.49
445.28	1288.17
445.48	1249.26
445.69	1353.71
445.89	1239.02
446.09	1304.56
446.30	1277.93
446.50	1175.53
446.71	1247.21
446.91	1349.61
447.12	1290.22
447.32	1228.78
447.53	1267.69
447.73	1306.60
447.93	1263.60
448.14	1288.17
448.34	1277.93
448.55	1294.32
448.75	1259.50
448.96	1275.88
449.16	1189.87
449.36	1263.60
449.57	1288.17
449.77	1279.98
449.98	1257.45
450.18	1298.41
450.39	1245.16
450.59	1284.08
450.79	1302.51
451.00	1259.50
451.20	1294.32
451.41	1271.79
451.61	1275.88
451.81	1335.28
452.02	1282.03
452.22	1249.26
452.43	1359.85
452.63	1337.32
452.84	1304.56
453.04	1218.54
453.24	1271.79
453.45	1247.21
453.65	1249.26
453.86	1259.50
454.06	1347.56
454.26	1253.36
454.47	1269.74
454.67	1267.69
454.87	1261.55
455.08	1300.46
455.28	1163.25
455.49	1214.45
455.69	1253.36
455.89	1290.22
456.10	1294.32
456.30	1230.83
456.51	1286.12
456.71	1279.98
456.91	1269.74
457.12	1243.12
457.32	1312.75
457.52	1294.32
457.73	1320.94
457.93	1337.32
458.14	1286.12
458.34	1241.07
458.54	1243.12
458.75	1279.98
458.95	1322.99
459.15	1206.25
459.36	1243.12
459.56	1288.17
459.76	1275.88
459.97	1300.46
460.17	1228.78
460.37	1284.08
460.58	1284.08
460.78	1218.54
460.99	1191.92
461.19	1279.98
461.39	1171.44
461.60	1292.27
461.80	1277.93
462.00	1271.79
462.21	1372.14
462.41	1253.36
462.61	1230.83
462.82	1292.27
463.02	1228.78
463.22	1275.88
463.43	1304.56
463.63	1224.69
463.83	1257.45
464.04	1214.45
464.24	1277.93
464.44	1263.60
464.64	1245.16
464.85	1245.16
465.05	1286.12
465.25	1236.97
465.46	1218.54
465.66	1277.93
465.86	1277.93
466.07	1271.79
466.27	1212.40
466.47	1345.52
466.68	1234.93
466.88	1347.56
467.08	1259.50
467.29	1265.64
467.49	1253.36
467.69	1306.60
467.89	1296.36
468.10	1265.64
468.30	1298.41
468.50	1228.78
468.71	1337.32
468.91	1263.60
469.11	1224.69
469.31	1247.21
469.52	1312.75
469.72	1257.45
469.92	1269.74
470.13	1261.55
470.33	1255.40
470.53	1292.27
470.73	1228.78
470.94	1279.98
471.14	1269.74
471.34	1310.70
471.54	1212.40
471.75	1306.60
471.95	1230.83
472.15	1253.36
472.36	1253.36
472.56	1329.13
472.76	1341.42
472.96	1312.75
473.17	1251.31
473.37	1271.79
473.57	1353.71
473.77	1304.56
473.98	1284.08
474.18	1273.84
474.38	1220.59
474.58	1345.52
474.79	1239.02
474.99	1298.41
475.19	1304.56
475.39	1269.74
475.60	1310.70
475.80	1345.52
476.00	1296.36
476.20	1290.22
476.41	1249.26
476.61	1255.40
476.81	1284.08
477.01	1306.60
477.21	1284.08
477.42	1302.51
477.62	1214.45
477.82	1273.84
478.02	1327.08
478.23	1228.78
478.43	1292.27
478.63	1306.60
478.83	1228.78
479.03	1236.97
479.24	1253.36
479.44	1284.08
479.64	1275.88
479.84	1249.26
480.04	1320.94
480.25	1355.76
480.45	1343.47
480.65	1255.40
480.85	1257.45
481.06	1290.22
481.26	1253.36
481.46	1296.36
481.66	1271.79
481.86	1257.45
482.06	1294.32
482.27	1208.30
482.47	1300.46
482.67	1243.12
482.87	1224.69
483.07	1333.23
483.28	1187.82
483.48	1183.73
483.68	1210.35
483.88	1325.04
484.08	1261.55
484.29	1243.12
484.49	1312.75
484.69	1286.12
484.89	1314.80
485.09	1236.97
485.29	1232.88
485.50	1230.83
485.70	1241.07
485.90	1296.36
486.10	1261.55
486.30	1191.92
486.50	1314.80
486.71	1279.98
486.91	1245.16
487.11	1333.23
487.31	1286.12
487.51	1271.79
487.71	1312.75
487.91	1224.69
488.12	1236.97
488.32	1279.98
488.52	1220.59
488.72	1304.56
488.92	1333.23
489.12	1232.88
489.32	1226.73
489.53	1247.21
489.73	1255.40
489.93	1294.32
490.13	1275.88
490.33	1275.88
490.53	1236.97
490.73	1277.93
490.94	1298.41
491.14	1245.16
491.34	1310.70
491.54	1273.84
491.74	1224.69
491.94	1316.84
492.14	1275.88
492.34	1306.60
492.54	1335.28
492.75	1228.78
492.95	1306.60
493.15	1320.94
493.35	1239.02
493.55	1251.31
493.75	1284.08
493.95	1183.73
494.15	1200.11
494.35	1267.69
494.56	1259.50
494.76	1290.22
494.96	1310.70
495.16	1261.55
495.36	1251.31
495.56	1304.56
495.76	1234.93
495.96	1341.42
496.16	1337.32
496.36	1265.64
496.56	1206.25
496.77	1353.71
496.97	1286.12
497.17	1337.32
497.37	1191.92
497.57	1282.03
497.77	1361.90
497.97	1288.17
498.17	1296.36
498.37	1259.50
498.57	1245.16
498.77	1273.84
498.97	1251.31
499.17	1310.70
499.38	1286.12
499.58	1298.41
499.78	1247.21
499.98	1273.84
500.18	1212.40
500.38	1239.02
500.58	1292.27
500.78	1275.88
500.98	1263.60
501.18	1284.08
501.38	1300.46
501.58	1286.12
501.78	1306.60
501.98	1239.02
502.18	1214.45
502.38	1267.69
502.58	1267.69
502.78	1271.79
502.98	1290.22
503.18	1310.70
503.38	1288.17
503.59	1337.32
503.79	1259.50
503.99	1271.79
504.19	1255.40
504.39	1210.35
504.59	1271.79
504.79	1390.57
504.99	1306.60
505.19	1265.64
505.39	1292.27
505.59	1239.02
505.79	1267.69
505.99	1271.79
506.19	1343.47
506.39	1220.59
506.59	1288.17
506.79	1331.18
506.99	1255.40
507.19	1335.28
507.39	1271.79
507.59	1290.22
507.79	1232.88
507.99	1308.65
508.19	1318.89
508.39	1259.50
508.59	1306.60
508.79	1298.41
508.99	1318.89
509.19	1277.93
509.39	1261.55
509.59	1228.78
509.79	1288.17
509.99	1322.99
510.19	1275.88
510.39	1337.32
510.59	1300.46
510.79	1331.18
510.99	1282.03
511.19	1196.01
511.39	1306.60
511.59	1335.28
511.79	1310.70
511.99	1300.46
512.19	1312.75
512.38	1232.88
512.58	1314.80
512.78	1296.36
512.98	1230.83
513.18	1337.32
513.38	1284.08
513.58	1273.84
513.78	1220.59
513.98	1271.79
514.18	1292.27
514.38	1345.52
514.58	1249.26
514.78	1239.02
514.98	1214.45
515.18	1284.08
515.38	1279.98
515.58	1306.60
515.78	1226.73
515.98	1239.02
516.18	1269.74
516.38	1232.88
516.57	1331.18
516.77	1314.80
516.97	1245.16
517.17	1325.04
517.37	1300.46
517.57	1300.46
517.77	1304.56
517.97	1239.02
518.17	1239.02
518.37	1200.11
518.57	1341.42
518.77	1185.77
518.97	1277.93
519.16	1290.22
519.36	1288.17
519.56	1232.88
519.76	1247.21
519.96	1306.60
520.16	1300.46
520.36	1292.27
520.56	1261.55
520.76	1255.40
520.96	1259.50
521.16	1267.69
521.35	1261.55
521.55	1249.26
521.75	1273.84
521.95	1273.84
522.15	1279.98
522.35	1292.27
522.55	1249.26
522.75	1247.21
522.95	1290.22
523.14	1265.64
523.34	1296.36
523.54	1296.36
523.74	1351.66
523.94	1292.27
524.14	1316.84
524.34	1255.40
524.54	1265.64
524.73	1271.79
524.93	1257.45
525.13	1302.51
525.33	1214.45
525.53	1277.93
525.73	1200.11
525.93	1279.98
526.13	1292.27
526.32	1236.97
526.52	1333.23
526.72	1216.49
526.92	1304.56
527.12	1345.52
527.32	1222.64
527.52	1314.80
527.71	1290.22
527.91	1286.12
528.11	1183.73
528.31	1243.12
528.51	1318.89
528.71	1265.64
528.90	1370.09
529.10	1265.64
529.30	1253.36
529.50	1214.45
529.70	1331.18
529.90	1265.64
530.09	1298.41
530.29	1247.21
530.49	1265.64
530.69	1296.36
530.89	1247.21
531.09	1304.56
531.28	1304.56
531.48	1318.89
531.68	1259.50
531.88	1304.56
532.08	1243.12
532.28	1343.47
532.47	1271.79
532.67	1275.88
532.87	1341.42
533.07	1263.60
533.27	1263.60
533.46	1269.74
533.66	1275.88
533.86	1351.66
534.06	1288.17
534.26	1267.69
534.45	1316.84
534.65	1378.28
534.85	1214.45
535.05	1265.64
535.25	1304.56
535.44	1329.13
535.64	1179.63
535.84	1255.40
536.04	1294.32
536.24	1316.84
536.43	1255.40
536.63	1296.36
536.83	1282.03
537.03	1316.84
537.22	1253.36
537.42	1296.36
537.62	1269.74
537.82	1212.40
538.02	1327.08
538.21	1271.79
538.41	1314.80
538.61	1239.02
538.81	1247.21
539.00	1300.46
539.20	1347.56
539.40	1247.21
539.60	1327.08
539.79	1282.03
539.99	1282.03
540.19	1294.32
540.39	1296.36
540.58	1300.46
540.78	1265.64
540.98	1277.93
541.18	1296.36
541.37	1255.40
541.57	1279.98
541.77	1257.45
541.97	1269.74
542.16	1265.64
542.36	1239.02
542.56	1296.36
542.76	1286.12
542.95	1298.41
543.15	1337.32
543.35	1277.93
543.54	1292.27
543.74	1282.03
543.94	1341.42
544.14	1245.16
544.33	1259.50
544.53	1288.17
544.73	1236.97
544.93	1257.45
545.12	1277.93
545.32	1277.93
545.52	1214.45
545.71	1292.27
545.91	1183.73
546.11	1343.47
546.30	1245.16
546.50	1298.41
546.70	1279.98
546.90	1306.60
547.09	1255.40
547.29	1314.80
547.49	1263.60
547.68	1271.79
547.88	1241.07
548.08	1296.36
548.27	1322.99
548.47	1314.80
548.67	1306.60
548.87	1304.56
549.06	1292.27
549.26	1335.28
549.46	1331.18
549.65	1296.36
549.85	1220.59
550.05	1351.66
550.24	1337.32
550.44	1339.37
550.64	1368.04
550.83	1269.74
551.03	1255.40
551.23	1294.32
551.42	1290.22
551.62	1230.83
551.82	1296.36
552.01	1284.08
552.21	1359.85
552.41	1236.97
552.60	1243.12
552.80	1357.80
553.00	1241.07
553.19	1277.93
553.39	1232.88
553.59	1308.65
553.78	1230.83
553.98	1314.80
554.17	1302.51
554.37	1331.18
554.57	1222.64
554.76	1224.69
554.96	1290.22
555.16	1253.36
555.35	1271.79
555.55	1212.40
555.75	1349.61
555.94	1376.24
556.14	1312.75
556.33	1269.74
556.53	1310.70
556.73	1257.45
556.92	1275.88
557.12	1261.55
557.32	1275.88
557.51	1286.12
557.71	1308.65
557.90	1267.69
558.10	1259.50
558.30	1271.79
558.49	1290.22
558.69	1304.56
558.88	1306.60
559.08	1245.16
559.28	1290.22
559.47	1251.31
559.67	1363.95
559.86	1320.94
560.06	1298.41
560.26	1282.03
560.45	1310.70
560.65	1282.03
560.84	1296.36
561.04	1275.88
561.24	1239.02
561.43	1265.64
561.63	1284.08
561.82	1282.03
562.02	1249.26
562.22	1318.89
562.41	1224.69
562.61	1314.80
562.80	1251.31
563.00	1294.32
563.19	1320.94
563.39	1306.60
563.59	1306.60
563.78	1247.21
563.98	1245.16
564.17	1298.41
564.37	1290.22
564.56	1339.37
564.76	1243.12
564.96	1327.08
565.15	1282.03
565.35	1298.41
565.54	1343.47
565.74	1304.56
565.93	1296.36
566.13	1251.31
566.32	1314.80
566.52	1318.89
566.71	1259.50
566.91	1292.27
567.11	1263.60
567.30	1232.88
567.50	1253.36
567.69	1273.84
567.89	1302.51
568.08	1257.45
568.28	1214.45
568.47	1290.22
568.67	1304.56
568.86	1327.08
569.06	1224.69
569.25	1273.84
569.45	1316.84
569.64	1279.98
569.84	1267.69
570.04	1249.26
570.23	1279.98
570.43	1263.60
570.62	1241.07
570.82	1288.17
571.01	1204.21
571.21	1279.98
571.40	1253.36
571.60	1318.89
571.79	1241.07
571.99	1212.40
572.18	1216.49
572.38	1265.64
572.57	1345.52
572.77	1331.18
572.96	1239.02
573.16	1306.60
573.35	1316.84
573.55	1271.79
573.74	1310.70
573.94	1322.99
574.13	1255.40
574.33	1333.23
574.52	1220.59
574.71	1249.26
574.91	1261.55
575.10	1335.28
575.30	1292.27
575.49	1271.79
575.69	1263.60
575.88	1306.60
576.08	1253.36
576.27	1351.66
576.47	1298.41
576.66	1265.64
576.86	1243.12
577.05	1241.07
577.25	1335.28
577.44	1265.64
577.64	1265.64
577.83	1282.03
578.02	1273.84
578.22	1320.94
578.41	1310.70
578.61	1279.98
578.80	1339.37
579.00	1310.70
579.19	1277.93
579.39	1300.46
579.58	1310.70
579.77	1271.79
579.97	1275.88
580.16	1304.56
580.36	1279.98
580.55	1273.84
580.75	1259.50
580.94	1239.02
581.13	1220.59
581.33	1271.79
581.52	1261.55
581.72	1306.60
581.91	1304.56
582.11	1302.51
582.30	1329.13
582.49	1273.84
582.69	1292.27
582.88	1325.04
583.08	1271.79
583.27	1322.99
583.47	1290.22
583.66	1300.46
583.85	1314.80
584.05	1257.45
584.24	1232.88
584.44	1267.69
584.63	1269.74
584.82	1230.83
585.02	1253.36
585.21	1290.22
585.41	1253.36
585.60	1271.79
585.79	1312.75
585.99	1296.36
586.18	1277.93
586.37	1296.36
586.57	1261.55
586.76	1353.71
586.96	1318.89
587.15	1312.75
587.34	1322.99
587.54	1271.79
587.73	1241.07
587.93	1269.74
588.12	1310.70
588.31	1302.51
588.51	1245.16
588.70	1320.94
588.89	1253.36
589.09	1353.71
589.28	1267.69
589.47	1337.32
589.67	1273.84
589.86	1279.98
590.06	1314.80
590.25	1228.78
590.44	1351.66
590.64	1308.65
590.83	1359.85
591.02	1218.54
591.22	1241.07
591.41	1232.88
591.60	1279.98
591.80	1247.21
591.99	1257.45
592.18	1273.84
592.38	1300.46
592.57	1279.98
592.76	1343.47
592.96	1255.40
593.15	1265.64
593.34	1294.32
593.54	1241.07
593.73	1275.88
593.92	1392.62
594.12	1232.88
594.31	1343.47
594.50	1296.36
594.70	1243.12
594.89	1286.12
595.08	1343.47
595.28	1306.60
595.47	1230.83
595.66	1288.17
595.86	1298.41
596.05	1265.64
596.24	1320.94
596.43	1210.35
596.63	1300.46
596.82	1302.51
597.01	1265.64
597.21	1302.51
597.40	1232.88
597.59	1296.36
597.79	1232.88
597.98	1167.34
598.17	1265.64
598.36	1314.80
598.56	1286.12
598.75	1302.51
598.94	1189.87
599.14	1300.46
599.33	1275.88
599.52	1318.89
599.71	1277.93
599.91	1288.17
600.10	1277.93
600.29	1269.74
600.48	1257.45
600.68	1316.84
600.87	1249.26
601.06	1265.64
601.26	1239.02
601.45	1263.60
601.64	1304.56
601.83	1290.22
602.03	1282.03
602.22	1284.08
602.41	1257.45
602.60	1302.51
602.80	1296.36
602.99	1320.94
603.18	1257.45
603.37	1275.88
603.57	1312.75
603.76	1331.18
603.95	1273.84
604.14	1298.41
604.34	1204.21
604.53	1282.03
604.72	1259.50
604.91	1286.12
605.10	1253.36
605.30	1259.50
605.49	1214.45
605.68	1292.27
605.87	1257.45
606.07	1329.13
606.26	1292.27
606.45	1345.52
606.64	1241.07
606.84	1236.97
607.03	1327.08
607.22	1335.28
607.41	1265.64
607.60	1290.22
607.80	1228.78
607.99	1310.70
608.18	1247.21
608.37	1234.93
608.56	1220.59
608.76	1302.51
608.95	1269.74
609.14	1322.99
609.33	1261.55
609.52	1220.59
609.72	1220.59
609.91	1271.79
610.10	1320.94
610.29	1374.19
610.48	1279.98
610.68	1306.60
610.87	1247.21
611.06	1308.65
611.25	1298.41
611.44	1267.69
611.63	1236.97
611.83	1318.89
612.02	1294.32
612.21	1298.41
612.40	1212.40
612.59	1302.51
612.79	1232.88
612.98	1308.65
613.17	1277.93
613.36	1267.69
613.55	1343.47
613.74	1269.74
613.93	1279.98
614.13	1243.12
614.32	1267.69
614.51	1310.70
614.70	1310.70
614.89	1306.60
615.08	1251.31
615.28	1298.41
615.47	1294.32
615.66	1249.26
615.85	1298.41
616.04	1286.12
616.23	1314.80
616.42	1296.36
616.62	1198.06
616.81	1353.71
617.00	1318.89
617.19	1273.84
617.38	1249.26
617.57	1191.92
617.76	1251.31
617.95	1296.36
618.15	1292.27
618.34	1265.64
618.53	1224.69
618.72	1296.36
618.91	1247.21
619.10	1331.18
619.29	1255.40
619.48	1376.24
619.68	1302.51
619.87	1306.60
620.06	1400.81
620.25	1298.41
620.44	1228.78
620.63	1296.36
620.82	1222.64
621.01	1245.16
621.20	1355.76
621.39	1255.40
621.59	1228.78
621.78	1292.27
621.97	1243.12
622.16	1214.45
622.35	1296.36
622.54	1296.36
622.73	1282.03
622.92	1187.82
623.11	1257.45
623.30	1286.12
623.49	1263.60
623.68	1333.23
623.88	1257.45
624.07	1286.12
624.26	1304.56
624.45	1273.84
624.64	1359.85
624.83	1337.32
625.02	1290.22
625.21	1306.60
625.40	1255.40
625.59	1314.80
625.78	1288.17
625.97	1304.56
626.16	1241.07
626.35	1239.02
626.54	1279.98
626.74	1304.56
626.93	1329.13
627.12	1304.56
627.31	1220.59
627.50	1253.36
627.69	1273.84
627.88	1298.41
628.07	1368.04
628.26	1261.55
628.45	1255.40
628.64	1325.04
628.83	1236.97
629.02	1243.12
629.21	1370.09
629.40	1308.65
629.59	1335.28
629.78	1335.28
629.97	1320.94
630.16	1290.22
630.35	1232.88
630.54	1308.65
630.73	1312.75
630.92	1277.93
631.11	1316.84
631.30	1239.02
631.49	1316.84
631.68	1390.57
631.87	1359.85
632.06	1433.58
632.25	1429.48
632.44	1468.39
632.63	1427.43
632.82	1492.97
633.01	1423.34
633.20	1433.58
633.39	1423.34
633.58	1476.59
633.77	1486.83
633.96	1513.45
634.15	1540.07
634.34	1529.83
634.53	1488.87
634.72	1454.06
634.91	1443.82
635.10	1427.43
635.29	1503.21
635.48	1578.98
635.67	1447.91
635.86	1474.54
636.05	1486.83
636.24	1509.35
636.43	1437.67
636.62	1454.06
636.81	1363.95
637.00	1400.81
637.19	1423.34
637.38	1458.15
637.57	1417.19
637.76	1372.14
637.95	1339.37
638.14	1359.85
638.33	1304.56
638.52	1296.36
638.71	1355.76
638.89	1390.57
639.08	1290.22
639.27	1277.93
639.46	1329.13
639.65	1306.60
639.84	1316.84
640.03	1290.22
640.22	1355.76
640.41	1318.89
640.60	1296.36
640.79	1271.79
640.98	1251.31
641.17	1284.08
641.36	1263.60
641.55	1284.08
641.74	1243.12
641.92	1183.73
642.11	1306.60
642.30	1282.03
642.49	1380.33
642.68	1312.75
642.87	1292.27
643.06	1265.64
643.25	1218.54
643.44	1277.93
643.63	1230.83
643.82	1249.26
644.00	1298.41
644.19	1206.25
644.38	1312.75
644.57	1245.16
644.76	1241.07
644.95	1288.17
645.14	1304.56
645.33	1216.49
645.52	1282.03
645.71	1288.17
645.89	1275.88
646.08	1226.73
646.27	1273.84
646.46	1263.60
646.65	1329.13
646.84	1263.60
647.03	1286.12
647.22	1226.73
647.40	1273.84
647.59	1286.12
647.78	1269.74
647.97	1310.70
648.16	1224.69
648.35	1347.56
648.54	1265.64
648.73	1327.08
648.91	1224.69
649.10	1282.03
649.29	1304.56
649.48	1249.26
649.67	1196.01
649.86	1325.04
650.05	1236.97
650.23	1329.13
650.42	1245.16
650.61	1327.08
650.80	1263.60
650.99	1284.08
651.18	1185.77
651.36	1271.79
651.55	1337.32
651.74	1284.08
651.93	1159.15
652.12	1314.80
652.31	1282.03
652.49	1277.93
652.68	1320.94
652.87	1271.79
653.06	1288.17
653.25	1279.98
653.44	1247.21
653.62	1288.17
653.81	1322.99
654.00	1239.02
654.19	1300.46
654.38	1292.27
654.56	1255.40
654.75	1263.60
654.94	1265.64
655.13	1337.32
655.32	1257.45
655.51	1331.18
655.69	1247.21
655.88	1288.17
656.07	1222.64
656.26	1355.76
656.45	1290.22
656.63	1257.45
656.82	1298.41
657.01	1271.79
657.20	1331.18
657.38	1230.83
657.57	1286.12
657.76	1279.98
657.95	1290.22
658.14	1239.02
658.32	1298.41
658.51	1224.69
658.70	1327.08
658.89	1245.16
659.08	1253.36
659.26	1230.83
659.45	1296.36
659.64	1279.98
659.83	1261.55
660.01	1343.47
660.20	1255.40
660.39	1298.41
660.58	1265.64
660.76	1275.88
660.95	1296.36
661.14	1296.36
661.33	1193.97
661.51	1265.64
661.70	1286.12
661.89	1277.93
662.08	1273.84
662.26	1300.46
662.45	1284.08
662.64	1298.41
662.83	1257.45
663.01	1267.69
663.20	1320.94
663.39	1306.60
663.58	1370.09
663.76	1255.40
663.95	1228.78
664.14	1255.40
664.32	1292.27
664.51	1261.55
664.70	1298.41
664.89	1294.32
665.07	1247.21
665.26	1263.60
665.45	1290.22
665.64	1267.69
665.82	1183.73
666.01	1282.03
666.20	1245.16
666.38	1292.27
666.57	1181.68
666.76	1302.51
666.95	1261.55
667.13	1239.02
667.32	1288.17
667.51	1279.98
667.69	1325.04
667.88	1245.16
668.07	1302.51
668.25	1202.16
668.44	1204.21
668.63	1288.17
668.81	1273.84
669.00	1290.22
669.19	1216.49
669.38	1234.93
669.56	1306.60
669.75	1228.78
669.94	1343.47
670.12	1316.84
670.31	1275.88
670.50	1263.60
670.68	1216.49
670.87	1257.45
671.06	1290.22
671.24	1271.79
671.43	1316.84
671.62	1345.52
671.80	1224.69
671.99	1286.12
672.18	1279.98
672.36	1322.99
672.55	1335.28
672.74	1304.56
672.92	1320.94
673.11	1185.77
673.29	1189.87
673.48	1249.26
673.67	1298.41
673.85	1343.47
674.04	1247.21
674.23	1298.41
674.41	1269.74
674.60	1257.45
674.79	1261.55
674.97	1249.26
675.16	1314.80
675.34	1333.23
675.53	1284.08
675.72	1181.68
675.90	1329.13
676.09	1329.13
676.28	1265.64
676.46	1329.13
676.65	1286.12
676.83	1310.70
677.02	1230.83
677.21	1286.12
677.39	1296.36
677.58	1298.41
677.77	1333.23
677.95	1282.03
678.14	1271.79
678.32	1208.30
678.51	1296.36
678.70	1275.88
678.88	1259.50
679.07	1380.33
679.25	1322.99
679.44	1325.04
679.63	1267.69
679.81	1230.83
680.00	1316.84
680.18	1359.85
680.37	1220.59
680.55	1308.65
680.74	1216.49
680.93	1212.40
681.11	1325.04
681.30	1277.93
681.48	1247.21
681.67	1308.65
681.85	1300.46
682.04	1290.22
682.23	1230.83
682.41	1269.74
682.60	1308.65
682.78	1263.60
682.97	1265.64
683.15	1214.45
683.34	1286.12
683.53	1333.23
683.71	1251.31
683.90	1331.18
684.08	1220.59
684.27	1290.22
684.45	1308.65
684.64	1282.03
684.82	1181.68
685.01	1241.07
685.19	1290.22
685.38	1302.51
685.57	1343.47
685.75	1296.36
685.94	1234.93
686.12	1239.02
686.31	1234.93
686.49	1241.07
686.68	1234.93
686.86	1189.87
687.05	1261.55
687.23	1243.12
687.42	1282.03
687.60	1245.16
687.79	1193.97
687.97	1302.51
688.16	1318.89
688.34	1259.50
688.53	1298.41
688.71	1247.21
688.90	1224.69
689.08	1312.75
689.27	1286.12
689.45	1216.49
689.64	1290.22
689.82	1255.40
690.01	1253.36
690.19	1251.31
690.38	1208.30
690.56	1351.66
690.75	1288.17
690.93	1255.40
691.12	1245.16
691.30	1298.41
691.49	1269.74
691.67	1232.88
691.86	1251.31
692.04	1312.75
692.23	1271.79
692.41	1220.59
692.60	1292.27
692.78	1265.64
692.97	1265.64
693.15	1257.45
693.34	1284.08
693.52	1228.78
693.71	1255.40
693.89	1322.99
694.08	1241.07
694.26	1255.40
694.44	1167.34
694.63	1351.66
694.81	1210.35
695.00	1234.93
695.18	1277.93
695.37	1273.84
695.55	1257.45
695.74	1298.41
695.92	1300.46
696.10	1277.93
696.29	1286.12
696.47	1265.64
696.66	1265.64
696.84	1257.45
697.03	1284.08
697.21	1292.27
697.40	1339.37
697.58	1259.50
697.76	1343.47
697.95	1304.56
698.13	1267.69
698.32	1251.31
698.50	1275.88
698.68	1241.07
698.87	1290.22
699.05	1300.46
699.24	1312.75
699.42	1282.03
699.61	1292.27
699.79	1294.32
699.97	1271.79
700.16	1222.64
700.34	1310.70
700.53	1308.65
700.71	1245.16
700.89	1302.51
701.08	1234.93
701.26	1304.56
701.45	1333.23
701.63	1349.61
701.81	1259.50
702.00	1320.94
702.18	1267.69
702.37	1193.97
702.55	1245.16
702.73	1261.55
702.92	1175.53
703.10	1263.60
703.28	1349.61
703.47	1230.83
703.65	1273.84
703.84	1245.16
704.02	1296.36
704.20	1232.88
704.39	1294.32
704.57	1253.36
704.75	1370.09
704.94	1200.11
705.12	1259.50
705.30	1279.98
705.49	1327.08
705.67	1294.32
705.86	1193.97
706.04	1304.56
706.22	1259.50
706.41	1366.00
706.59	1294.32
706.77	1249.26
706.96	1208.30
707.14	1257.45
707.32	1304.56
707.51	1306.60
707.69	1230.83
707.87	1279.98
708.06	1236.97
708.24	1322.99
708.42	1222.64
708.61	1271.79
708.79	1279.98
708.97	1296.36
709.16	1290.22
709.34	1296.36
709.52	1169.39
709.71	1277.93
709.89	1230.83
710.07	1208.30
710.26	1314.80
710.44	1298.41
710.62	1353.71
710.80	1222.64
710.99	1263.60
711.17	1273.84
711.35	1333.23
711.54	1314.80
711.72	1257.45
711.90	1277.93
712.09	1300.46
712.27	1302.51
712.45	1312.75
712.63	1288.17
712.82	1228.78
713.00	1296.36
713.18	1257.45
713.37	1366.00
713.55	1290.22
713.73	1282.03
713.91	1267.69
714.10	1322.99
714.28	1267.69
714.46	1218.54
714.65	1271.79
714.83	1226.73
715.01	1279.98
715.19	1292.27
715.38	1226.73
715.56	1255.40
715.74	1251.31
715.92	1208.30
716.11	1286.12
716.29	1290.22
716.47	1282.03
716.65	1322.99
716.84	1318.89
717.02	1259.50
717.20	1294.32
717.38	1234.93
717.57	1294.32
717.75	1179.63
717.93	1241.07
718.11	1239.02
718.30	1212.40
718.48	1202.16
718.66	1288.17
718.84	1316.84
719.03	1277.93
719.21	1212.40
719.39	1261.55
719.57	1312.75
719.75	1300.46
719.94	1275.88
720.12	1263.60
720.30	1318.89
720.48	1214.45
720.67	1296.36
720.85	1230.83
721.03	1226.73
721.21	1296.36
721.39	1271.79
721.58	1327.08
721.76	1230.83
721.94	1308.65
722.12	1302.51
722.30	1331.18
722.49	1296.36
722.67	1275.88
722.85	1353.71
723.03	1269.74
723.21	1210.35
723.40	1263.60
723.58	1257.45
723.76	1265.64
723.94	1286.12
724.12	1232.88
724.30	1271.79
724.49	1239.02
724.67	1212.40
724.85	1294.32
725.03	1234.93
725.21	1304.56
725.40	1212.40
725.58	1189.87
725.76	1345.52
725.94	1290.22
726.12	1263.60
726.30	1255.40
726.49	1290.22
726.67	1175.53
726.85	1361.90
727.03	1329.13
727.21	1269.74
727.39	1243.12
727.57	1239.02
727.76	1277.93
727.94	1347.56
728.12	1144.81
728.30	1265.64
728.48	1290.22
728.66	1253.36
728.84	1226.73
729.03	1236.97
729.21	1239.02
729.39	1292.27
729.57	1239.02
729.75	1294.32
729.93	1296.36
730.11	1239.02
730.30	1241.07
730.48	1292.27
730.66	1277.93
730.84	1296.36
731.02	1308.65
731.20	1284.08
731.38	1320.94
731.56	1245.16
731.74	1253.36
731.93	1333.23
732.11	1263.60
732.29	1316.84
732.47	1288.17
732.65	1247.21
732.83	1261.55
733.01	1255.40
733.19	1261.55
733.37	1298.41
733.56	1230.83
733.74	1279.98
733.92	1290.22
734.10	1226.73
734.28	1277.93
734.46	1241.07
734.64	1275.88
734.82	1339.37
735.00	1196.01
735.18	1259.50
735.36	1316.84
735.54	1288.17
735.73	1206.25
735.91	1249.26
736.09	1292.27
736.27	1318.89
736.45	1241.07
736.63	1247.21
736.81	1331.18
736.99	1239.02
737.17	1277.93
737.35	1265.64
737.53	1269.74
737.71	1224.69
737.89	1292.27
738.07	1255.40
738.25	1226.73
738.43	1279.98
738.61	1216.49
738.80	1267.69
738.98	1245.16
739.16	1236.97
739.34	1263.60
739.52	1316.84
739.70	1239.02
739.88	1269.74
740.06	1212.40
740.24	1286.12
740.42	1282.03
740.60	1202.16
740.78	1224.69
740.96	1269.74
741.14	1374.19
741.32	1347.56
741.50	1249.26
741.68	1232.88
741.86	1322.99
742.04	1265.64
742.22	1286.12
742.40	1316.84
742.58	1222.64
742.76	1286.12
742.94	1275.88
743.12	1331.18
743.30	1337.32
743.48	1314.80
743.66	1212.40
743.84	1279.98
744.02	1273.84
744.20	1312.75
744.38	1282.03
744.56	1339.37
744.74	1251.31
744.92	1247.21
745.10	1300.46
745.28	1249.26
745.46	1314.80
745.64	1322.99
745.82	1304.56
746.00	1314.80
746.18	1286.12
746.36	1230.83
746.54	1286.12
746.72	1228.78
746.90	1226.73
747.08	1249.26
747.26	1290.22
747.44	1284.08
747.62	1275.88
747.80	1249.26
747.98	1275.88
748.15	1308.65
748.33	1300.46
748.51	1257.45
748.69	1251.31
748.87	1208.30
749.05	1302.51
749.23	1269.74
749.41	1251.31
749.59	1228.78
749.77	1269.74
749.95	1277.93
750.13	1236.97
750.31	1310.70
750.49	1261.55
750.67	1232.88
750.85	1318.89
751.03	1290.22
751.20	1224.69
751.38	1265.64
751.56	1218.54
751.74	1277.93
751.92	1294.32
752.10	1325.04
752.28	1257.45
752.46	1269.74
752.64	1296.36
752.82	1288.17
753.00	1228.78
753.18	1146.86
753.35	1275.88
753.53	1177.58
753.71	1241.07
753.89	1200.11
754.07	1255.40
754.25	1335.28
754.43	1298.41
754.61	1279.98
754.79	1255.40
754.97	1267.69
755.14	1247.21
755.32	1245.16
755.50	1318.89
755.68	1259.50
755.86	1279.98
756.04	1171.44
756.22	1259.50
756.40	1222.64
756.57	1259.50
756.75	1298.41
756.93	1279.98
757.11	1261.55
757.29	1232.88
757.47	1312.75
757.65	1261.55
757.82	1239.02
758.00	1284.08
758.18	1347.56
758.36	1273.84
758.54	1337.32
758.72	1300.46
758.90	1232.88
759.07	1292.27
759.25	1245.16
759.43	1261.55
759.61	1286.12
759.79	1275.88
759.97	1298.41
760.15	1247.21
760.32	1251.31
760.50	1228.78
760.68	1271.79
760.86	1236.97
761.04	1234.93
761.22	1282.03
761.39	1243.12
761.57	1255.40
761.75	1239.02
761.93	1282.03
762.11	1300.46
762.28	1232.88
762.46	1261.55
762.64	1298.41
762.82	1153.01
763.00	1234.93
763.18	1251.31
763.35	1331.18
763.53	1308.65
763.71	1325.04
763.89	1204.21
764.07	1271.79
764.24	1288.17
764.42	1306.60
764.60	1241.07
764.78	1308.65
764.96	1271.79
765.13	1288.17
765.31	1290.22
765.49	1181.68
765.67	1249.26
765.84	1308.65
766.02	1337.32
766.20	1183.73
766.38	1320.94
766.56	1271.79
766.73	1239.02
766.91	1257.45
767.09	1265.64
767.27	1273.84
767.44	1269.74
767.62	1298.41
767.80	1322.99
767.98	1226.73
768.15	1284.08
768.33	1253.36
768.51	1318.89
768.69	1273.84
768.87	1343.47
769.04	1277.93
769.22	1224.69
769.40	1331.18
769.58	1222.64
769.75	1331.18
769.93	1288.17
770.11	1220.59
770.28	1255.40
770.46	1306.60
770.64	1220.59
770.82	1288.17
770.99	1265.64
771.17	1288.17
771.35	1300.46
771.53	1253.36
771.70	1333.23
771.88	1267.69
772.06	1263.60
772.23	1310.70
772.41	1273.84
772.59	1284.08
772.77	1247.21
772.94	1263.60
773.12	1284.08
773.30	1296.36
773.47	1273.84
773.65	1257.45
773.83	1277.93
774.01	1247.21
774.18	1257.45
774.36	1191.92
774.54	1204.21
774.71	1255.40
774.89	1239.02
775.07	1243.12
775.24	1279.98
775.42	1259.50
775.60	1279.98
775.78	1284.08
775.95	1261.55
776.13	1255.40
776.31	1290.22
776.48	1396.71
776.66	1234.93
776.84	1271.79
777.01	1255.40
777.19	1257.45
777.37	1296.36
777.54	1234.93
777.72	1296.36
777.90	1243.12
778.07	1296.36
778.25	1236.97
778.43	1261.55
778.60	1314.80
778.78	1202.16
778.96	1255.40
779.13	1247.21
779.31	1322.99
779.49	1257.45
779.66	1232.88
779.84	1228.78
780.01	1284.08
780.19	1267.69
780.37	1286.12
780.54	1232.88
780.72	1228.78
780.90	1304.56
781.07	1263.60
781.25	1259.50
781.43	1282.03
781.60	1210.35
781.78	1277.93
781.95	1261.55
782.13	1341.42
782.31	1273.84
782.48	1191.92
782.66	1271.79
782.83	1241.07
783.01	1355.76
783.19	1290.22
783.36	1286.12
783.54	1253.36
783.72	1294.32
783.89	1183.73
784.07	1267.69
784.24	1308.65
784.42	1300.46
784.60	1322.99
784.77	1267.69
784.95	1261.55
785.12	1218.54
785.30	1165.29
785.47	1271.79
785.65	1269.74
785.83	1255.40
786.00	1230.83
786.18	1263.60
786.35	1269.74
786.53	1255.40
786.71	1265.64
786.88	1347.56
787.06	1288.17
787.23	1304.56
787.41	1228.78
787.58	1302.51
787.76	1269.74
787.94	1226.73
788.11	1239.02
788.29	1282.03
788.46	1294.32
788.64	1288.17
788.81	1271.79
788.99	1249.26
789.16	1218.54
789.34	1269.74
789.52	1282.03
789.69	1316.84
789.87	1302.51
790.04	1234.93
790.22	1322.99
790.39	1277.93
790.57	1306.60
790.74	1208.30
790.92	1241.07
791.09	1255.40
791.27	1267.69
791.44	1306.60
791.62	1220.59
791.79	1239.02
791.97	1279.98
792.15	1239.02
792.32	1284.08
792.50	1308.65
792.67	1230.83
792.85	1202.16
793.02	1302.51
793.20	1277.93
793.37	1304.56
793.55	1257.45
793.72	1294.32
793.90	1357.80
794.07	1279.98
794.25	1234.93
794.42	1269.74
794.60	1284.08
794.77	1284.08
794.95	1308.65
795.12	1230.83
795.30	1247.21
795.47	1271.79
795.65	1288.17
795.82	1265.64
796.00	1298.41
796.17	1351.66
796.34	1263.60
796.52	1230.83
796.69	1294.32
796.87	1296.36
797.04	1241.07
797.22	1241.07
797.39	1220.59
797.57	1294.32
797.74	1316.84
797.92	1230.83
798.09	1308.65
798.27	1265.64
798.44	1279.98
798.62	1132.53
798.79	1359.85
798.96	1265.64
799.14	1249.26
799.31	1241.07
799.49	1239.02
799.66	1267.69
799.84	1257.45
800.01	1193.97
800.19	1265.64
800.36	1241.07
800.53	1327.08
800.71	1234.93
800.88	1216.49
801.06	1230.83
801.23	1243.12
801.41	1282.03
801.58	1310.70
801.75	1165.29
801.93	1308.65
802.10	1288.17
802.28	1294.32
802.45	1181.68
802.63	1374.19
802.80	1341.42
802.97	1300.46
803.15	1282.03
803.32	1288.17
803.50	1302.51
803.67	1150.96
803.84	1222.64
804.02	1275.88
804.19	1220.59
804.37	1314.80
804.54	1236.97
804.71	1259.50
804.89	1165.29
805.06	1249.26
805.24	1236.97
805.41	1245.16
805.58	1212.40
805.76	1226.73
805.93	1298.41
806.10	1306.60
806.28	1210.35
806.45	1286.12
806.63	1288.17
806.80	1249.26
806.97	1261.55
807.15	1290.22
807.32	1208.30
807.49	1331.18
807.67	1337.32
807.84	1322.99
808.01	1198.06
808.19	1234.93
808.36	1279.98
808.54	1234.93
808.71	1253.36
808.88	1216.49
809.06	1290.22
809.23	1261.55
809.40	1265.64
809.58	1255.40
809.75	1325.04
809.92	1331.18
810.10	1239.02
810.27	1247.21
810.44	1234.93
810.62	1175.53
810.79	1320.94
810.96	1296.36
811.14	1284.08
811.31	1189.87
811.48	1286.12
811.66	1331.18
811.83	1269.74
812.00	1249.26
812.18	1222.64
812.35	1167.34
812.52	1243.12
812.69	1269.74
812.87	1316.84
813.04	1230.83
813.21	1259.50
813.39	1255.40
813.56	1236.97
813.73	1279.98
813.91	1173.49
814.08	1247.21
814.25	1275.88
814.42	1279.98
814.60	1282.03
814.77	1355.76
814.94	1181.68
815.12	1320.94
815.29	1298.41
815.46	1171.44
815.63	1282.03
815.81	1251.31
815.98	1249.26
816.15	1200.11
816.33	1210.35
816.50	1245.16
816.67	1204.21
816.84	1288.17
817.02	1271.79
817.19	1312.75
817.36	1267.69
817.53	1259.50
817.71	1226.73
817.88	1243.12
818.05	1327.08
818.22	1249.26
818.40	1228.78
818.57	1294.32
818.74	1282.03
818.91	1292.27
819.09	1230.83
819.26	1255.40
819.43	1200.11
819.60	1216.49
819.78	1277.93
819.95	1290.22
820.12	1204.21
820.29	1230.83
820.47	1245.16
820.64	1277.93
820.81	1220.59
820.98	1251.31
821.15	1191.92
821.33	1273.84
821.50	1206.25
821.67	1282.03
821.84	1296.36
822.02	1269.74
822.19	1206.25
822.36	1310.70
822.53	1263.60
822.70	1302.51
822.88	1271.79
823.05	1236.97
823.22	1294.32
823.39	1236.97
823.56	1210.35
823.74	1249.26
823.91	1239.02
824.08	1253.36
824.25	1304.56
824.42	1269.74
824.60	1245.16
824.77	1327.08
824.94	1294.32
825.11	1208.30
825.28	1263.60
825.45	1300.46
825.63	1314.80
825.80	1306.60
825.97	1234.93
826.14	1294.32
826.31	1257.45
826.48	1300.46
826.66	1316.84
826.83	1234.93
827.00	1247.21
827.17	1259.50
827.34	1257.45
827.51	1212.40
827.69	1232.88
827.86	1255.40
828.03	1253.36
828.20	1292.27
828.37	1271.79
828.54	1224.69
828.71	1251.31
828.89	1359.85
829.06	1212.40
829.23	1236.97
829.40	1245.16
829.57	1306.60
829.74	1327.08
829.91	1214.45
830.09	1173.49
830.26	1279.98
830.43	1265.64
830.60	1267.69
830.77	1366.00
830.94	1222.64
831.11	1286.12
831.28	1294.32
831.46	1308.65
831.63	1320.94
831.80	1236.97
831.97	1282.03
832.14	1257.45
832.31	1304.56
832.48	1282.03
832.65	1265.64
832.82	1236.97
832.99	1263.60
833.17	1265.64
833.34	1226.73
833.51	1298.41
833.68	1241.07
833.85	1335.28
834.02	1265.64
834.19	1222.64
834.36	1286.12
834.53	1267.69
834.70	1265.64
834.87	1204.21
835.04	1267.69
835.22	1263.60
835.39	1249.26
835.56	1290.22
835.73	1222.64
835.90	1243.12
836.07	1251.31
836.24	1243.12
836.41	1232.88
836.58	1259.50
836.75	1243.12
836.92	1239.02
837.09	1306.60
837.26	1263.60
837.43	1314.80
837.60	1220.59
837.77	1304.56
837.94	1265.64
838.12	1286.12
838.29	1245.16
838.46	1294.32
838.63	1294.32
838.80	1230.83
838.97	1277.93
839.14	1263.60
839.31	1290.22
839.48	1306.60
839.65	1236.97
839.82	1239.02
839.99	1269.74
840.16	1271.79
840.33	1234.93
840.50	1304.56
840.67	1214.45
840.84	1245.16
841.01	1269.74
841.18	1249.26
841.35	1277.93
841.52	1216.49
841.69	1239.02
841.86	1337.32
842.03	1234.93
842.20	1298.41
842.37	1216.49
842.54	1368.04
842.71	1296.36
842.88	1269.74
843.05	1249.26
843.22	1273.84
843.39	1224.69
843.56	1267.69
843.73	1255.40
843.90	1226.73
844.07	1232.88
844.24	1320.94
844.41	1273.84
844.58	1304.56
844.75	1232.88
844.92	1306.60
845.09	1241.07
845.26	1290.22
845.43	1279.98
845.60	1214.45
845.77	1282.03
845.94	1236.97
846.10	1226.73
846.27	1220.59
846.44	1146.86
846.61	1306.60
846.78	1296.36
846.95	1245.16
847.12	1267.69
847.29	1196.01
847.46	1259.50
847.63	1210.35
847.80	1245.16
847.97	1273.84
848.14	1302.51
848.31	1206.25
848.48	1239.02
848.65	1294.32
848.82	1241.07
848.98	1290.22
849.15	1253.36
849.32	1298.41
849.49	1253.36
849.66	1300.46
849.83	1282.03
850.00	1314.80
850.17	1271.79
850.34	1296.36
850.51	1296.36
850.68	1259.50
850.85	1212.40
851.01	1222.64
851.18	1282.03
851.35	1322.99
851.52	1302.51
851.69	1216.49
851.86	1286.12
852.03	1361.90
852.20	1239.02
852.37	1265.64
852.53	1206.25
852.70	1312.75
852.87	1216.49
853.04	1251.31
853.21	1265.64
853.38	1259.50
853.55	1267.69
853.72	1239.02
853.89	1267.69
854.05	1298.41
854.22	1206.25
854.39	1304.56
854.56	1298.41
854.73	1292.27
854.90	1284.08
855.07	1257.45
855.23	1329.13
855.40	1271.79
855.57	1294.32
855.74	1353.71
855.91	1228.78
856.08	1290.22
856.25	1193.97
856.41	1269.74
856.58	1298.41
856.75	1220.59
856.92	1284.08
857.09	1210.35
857.26	1224.69
857.42	1243.12
857.59	1269.74
857.76	1232.88
857.93	1236.97
858.10	1286.12
858.27	1290.22
858.43	1325.04
858.60	1253.36
858.77	1282.03
858.94	1282.03
859.11	1279.98
859.27	1327.08
859.44	1275.88
859.61	1253.36
859.78	1212.40
859.95	1277.93
860.12	1214.45
860.28	1249.26
860.45	1226.73
860.62	1239.02
860.79	1273.84
860.95	1267.69
861.12	1265.64
861.29	1230.83
861.46	1273.84
861.63	1290.22
861.79	1282.03
861.96	1251.31
862.13	1271.79
862.30	1308.65
862.47	1300.46
862.63	1249.26
862.80	1239.02
862.97	1239.02
863.14	1275.88
863.30	1284.08
863.47	1343.47
863.64	1253.36
863.81	1245.16
863.97	1333.23
864.14	1296.36
864.31	1298.41
864.48	1277.93
864.65	1273.84
864.81	1310.70
864.98	1322.99
865.15	1175.53
865.32	1245.16
865.48	1253.36
865.65	1234.93
865.82	1241.07
865.98	1296.36
866.15	1339.37
866.32	1167.34
866.49	1343.47
866.65	1279.98
866.82	1249.26
866.99	1286.12
867.16	1279.98
867.32	1294.32
867.49	1236.97
867.66	1247.21
867.83	1271.79
867.99	1255.40
868.16	1312.75
868.33	1296.36
868.49	1290.22
868.66	1273.84
868.83	1339.37
868.99	1253.36
869.16	1198.06
869.33	1308.65
869.50	1376.24
869.66	1275.88
869.83	1239.02
870.00	1224.69
870.16	1253.36
870.33	1245.16
870.50	1341.42
870.66	1312.75
870.83	1247.21
871.00	1230.83
871.17	1232.88
871.33	1191.92
871.50	1232.88
871.67	1296.36
871.83	1222.64
872.00	1288.17
872.17	1220.59
872.33	1271.79
872.50	1228.78
872.67	1329.13
872.83	1288.17
873.00	1243.12
873.17	1282.03
873.33	1265.64
873.50	1271.79
873.67	1247.21
873.83	1216.49
874.00	1277.93
874.16	1241.07
874.33	1290.22
874.50	1214.45
874.66	1257.45
874.83	1296.36
875.00	1234.93
875.16	1236.97
875.33	1279.98
875.50	1286.12
875.66	1284.08
875.83	1267.69
875.99	1312.75
876.16	1253.36
876.33	1282.03
876.49	1316.84
876.66	1282.03
876.83	1300.46
876.99	1239.02
877.16	1232.88
877.32	1271.79
877.49	1249.26
877.66	1257.45
877.82	1230.83
877.99	1282.03
878.15	1296.36
878.32	1200.11
878.49	1284.08
878.65	1257.45
878.82	1335.28
878.98	1286.12
879.15	1214.45
879.32	1273.84
879.48	1232.88
879.65	1257.45
879.81	1257.45
879.98	1277.93
880.15	1200.11
880.31	1163.25
880.48	1279.98
880.64	1175.53
880.81	1239.02
880.97	1290.22
881.14	1241.07
881.31	1191.92
881.47	1273.84
881.64	1290.22
881.80	1218.54
881.97	1253.36
882.13	1318.89
882.30	1306.60
882.47	1300.46
882.63	1210.35
882.80	1228.78
882.96	1204.21
883.13	1187.82
883.29	1288.17
883.46	1331.18
883.62	1257.45
883.79	1261.55
883.95	1245.16
884.12	1263.60
884.29	1265.64
884.45	1277.93
884.62	1206.25
884.78	1241.07
884.95	1273.84
885.11	1193.97
885.28	1220.59
885.44	1220.59
885.61	1236.97
885.77	1259.50
885.94	1251.31
886.10	1228.78
886.27	1239.02
886.43	1243.12
886.60	1249.26
886.76	1198.06
886.93	1241.07
887.09	1255.40
887.26	1269.74
887.42	1286.12
887.59	1200.11
887.75	1316.84
887.92	1273.84
888.08	1241.07
888.25	1243.12
888.41	1218.54
888.58	1257.45
888.74	1314.80
888.91	1288.17
>>>>>End Processed Spectral Data<<<<<
