SpectraSuite Data File
++++++++++++++++++++++++++++++++++++
Date: Sun Apr 03 19:55:48 CEST 2016
User: root
Dark Spectrum Present: No
Reference Spectrum Present: No
Number of Sampled Component Spectra: 1
Spectrometers: USB4C02835
Integration Time (usec): 10000 (USB4C02835)
Spectra Averaged: 1 (USB4C02835)
Boxcar Smoothing: 0 (USB4C02835)
Correct for Electrical Dark: No (USB4C02835)
Strobe/Lamp Enabled: No (USB4C02835)
Correct for Detector Non-linearity: No (USB4C02835)
Correct for Stray Light: No (USB4C02835)
Number of Pixels in Processed Spectrum: 3648
>>>>>Begin Processed Spectral Data<<<<<
177.47	1245.16
177.69	1245.16
177.91	1245.16
178.13	1245.16
178.36	1263.60
178.58	1177.58
178.80	1243.12
179.02	1183.73
179.24	1277.93
179.46	1257.45
179.68	1232.88
179.90	1224.69
180.13	1224.69
180.35	1265.64
180.57	1325.04
180.79	1333.23
181.01	1243.12
181.23	1263.60
181.45	1308.65
181.67	1253.36
181.90	1263.60
182.12	1271.79
182.34	1284.08
182.56	1282.03
182.78	1222.64
183.00	1255.40
183.22	1279.98
183.44	1232.88
183.66	1327.08
183.89	1230.83
184.11	1255.40
184.33	1214.45
184.55	1259.50
184.77	1253.36
184.99	1304.56
185.21	1200.11
185.43	1249.26
185.65	1263.60
185.87	1214.45
186.10	1310.70
186.32	1279.98
186.54	1286.12
186.76	1353.71
186.98	1294.32
187.20	1263.60
187.42	1230.83
187.64	1300.46
187.86	1255.40
188.08	1253.36
188.30	1204.21
188.52	1273.84
188.75	1206.25
188.97	1247.21
189.19	1243.12
189.41	1230.83
189.63	1265.64
189.85	1294.32
190.07	1214.45
190.29	1314.80
190.51	1282.03
190.73	1247.21
190.95	1286.12
191.17	1228.78
191.39	1331.18
191.61	1255.40
191.84	1191.92
192.06	1232.88
192.28	1286.12
192.50	1267.69
192.72	1183.73
192.94	1269.74
193.16	1282.03
193.38	1265.64
193.60	1298.41
193.82	1228.78
194.04	1224.69
194.26	1312.75
194.48	1265.64
194.70	1220.59
194.92	1177.58
195.14	1286.12
195.36	1204.21
195.58	1312.75
195.80	1210.35
196.02	1196.01
196.24	1339.37
196.46	1265.64
196.69	1230.83
196.91	1216.49
197.13	1269.74
197.35	1290.22
197.57	1343.47
197.79	1286.12
198.01	1198.06
198.23	1267.69
198.45	1267.69
198.67	1286.12
198.89	1210.35
199.11	1314.80
199.33	1249.26
199.55	1236.97
199.77	1191.92
199.99	1343.47
200.21	1282.03
200.43	1279.98
200.65	1232.88
200.87	1282.03
201.09	1265.64
201.31	1277.93
201.53	1206.25
201.75	1275.88
201.97	1286.12
202.19	1241.07
202.41	1284.08
202.63	1247.21
202.85	1294.32
203.07	1329.13
203.29	1247.21
203.51	1234.93
203.73	1220.59
203.95	1265.64
204.17	1234.93
204.39	1312.75
204.61	1243.12
204.83	1271.79
205.05	1288.17
205.27	1232.88
205.49	1302.51
205.71	1314.80
205.93	1277.93
206.15	1183.73
206.37	1239.02
206.59	1325.04
206.81	1259.50
207.03	1236.97
207.25	1314.80
207.47	1239.02
207.69	1263.60
207.91	1261.55
208.13	1300.46
208.34	1288.17
208.56	1210.35
208.78	1183.73
209.00	1259.50
209.22	1294.32
209.44	1224.69
209.66	1243.12
209.88	1298.41
210.10	1198.06
210.32	1226.73
210.54	1263.60
210.76	1282.03
210.98	1322.99
211.20	1284.08
211.42	1331.18
211.64	1247.21
211.86	1204.21
212.08	1214.45
212.30	1357.80
212.52	1255.40
212.74	1257.45
212.96	1282.03
213.17	1259.50
213.39	1277.93
213.61	1298.41
213.83	1288.17
214.05	1267.69
214.27	1230.83
214.49	1271.79
214.71	1327.08
214.93	1275.88
215.15	1300.46
215.37	1167.34
215.59	1271.79
215.81	1273.84
216.03	1292.27
216.24	1337.32
216.46	1279.98
216.68	1294.32
216.90	1284.08
217.12	1290.22
217.34	1269.74
217.56	1292.27
217.78	1234.93
218.00	1345.52
218.22	1267.69
218.44	1322.99
218.66	1296.36
218.87	1202.16
219.09	1236.97
219.31	1288.17
219.53	1292.27
219.75	1187.82
219.97	1310.70
220.19	1306.60
220.41	1257.45
220.63	1282.03
220.85	1222.64
221.06	1298.41
221.28	1253.36
221.50	1306.60
221.72	1239.02
221.94	1282.03
222.16	1255.40
222.38	1339.37
222.60	1259.50
222.82	1273.84
223.03	1200.11
223.25	1329.13
223.47	1269.74
223.69	1306.60
223.91	1206.25
224.13	1331.18
224.35	1220.59
224.57	1243.12
224.78	1271.79
225.00	1282.03
225.22	1212.40
225.44	1359.85
225.66	1294.32
225.88	1265.64
226.10	1236.97
226.32	1208.30
226.53	1210.35
226.75	1282.03
226.97	1292.27
227.19	1200.11
227.41	1230.83
227.63	1271.79
227.85	1310.70
228.06	1296.36
228.28	1273.84
228.50	1288.17
228.72	1249.26
228.94	1239.02
229.16	1333.23
229.37	1267.69
229.59	1241.07
229.81	1290.22
230.03	1275.88
230.25	1343.47
230.47	1228.78
230.69	1214.45
230.90	1224.69
231.12	1296.36
231.34	1267.69
231.56	1302.51
231.78	1310.70
232.00	1288.17
232.21	1277.93
232.43	1249.26
232.65	1290.22
232.87	1261.55
233.09	1241.07
233.30	1261.55
233.52	1234.93
233.74	1316.84
233.96	1271.79
234.18	1288.17
234.40	1296.36
234.61	1318.89
234.83	1236.97
235.05	1304.56
235.27	1234.93
235.49	1284.08
235.70	1265.64
235.92	1232.88
236.14	1290.22
236.36	1265.64
236.58	1163.25
236.79	1241.07
237.01	1273.84
237.23	1239.02
237.45	1302.51
237.67	1247.21
237.88	1269.74
238.10	1265.64
238.32	1329.13
238.54	1271.79
238.76	1339.37
238.97	1288.17
239.19	1183.73
239.41	1247.21
239.63	1298.41
239.85	1263.60
240.06	1222.64
240.28	1271.79
240.50	1251.31
240.72	1331.18
240.93	1261.55
241.15	1292.27
241.37	1257.45
241.59	1183.73
241.81	1292.27
242.02	1251.31
242.24	1322.99
242.46	1259.50
242.68	1320.94
242.89	1312.75
243.11	1306.60
243.33	1282.03
243.55	1255.40
243.76	1292.27
243.98	1224.69
244.20	1329.13
244.42	1269.74
244.64	1245.16
244.85	1265.64
245.07	1386.47
245.29	1259.50
245.51	1322.99
245.72	1243.12
245.94	1271.79
246.16	1273.84
246.38	1312.75
246.59	1243.12
246.81	1265.64
247.03	1298.41
247.24	1191.92
247.46	1277.93
247.68	1296.36
247.90	1310.70
248.11	1257.45
248.33	1257.45
248.55	1236.97
248.77	1206.25
248.98	1220.59
249.20	1275.88
249.42	1273.84
249.64	1273.84
249.85	1257.45
250.07	1245.16
250.29	1290.22
250.50	1286.12
250.72	1263.60
250.94	1300.46
251.16	1327.08
251.37	1306.60
251.59	1286.12
251.81	1296.36
252.02	1304.56
252.24	1255.40
252.46	1314.80
252.68	1269.74
252.89	1275.88
253.11	1236.97
253.33	1312.75
253.54	1286.12
253.76	1210.35
253.98	1245.16
254.20	1290.22
254.41	1296.36
254.63	1245.16
254.85	1300.46
255.06	1261.55
255.28	1286.12
255.50	1275.88
255.71	1208.30
255.93	1275.88
256.15	1191.92
256.36	1273.84
256.58	1310.70
256.80	1193.97
257.02	1251.31
257.23	1271.79
257.45	1302.51
257.67	1288.17
257.88	1294.32
258.10	1263.60
258.32	1310.70
258.53	1241.07
258.75	1171.44
258.97	1318.89
259.18	1271.79
259.40	1284.08
259.62	1253.36
259.83	1277.93
260.05	1175.53
260.27	1261.55
260.48	1247.21
260.70	1224.69
260.92	1245.16
261.13	1329.13
261.35	1236.97
261.57	1318.89
261.78	1288.17
262.00	1189.87
262.22	1202.16
262.43	1304.56
262.65	1226.73
262.86	1200.11
263.08	1279.98
263.30	1279.98
263.51	1335.28
263.73	1296.36
263.95	1226.73
264.16	1247.21
264.38	1206.25
264.60	1349.61
264.81	1361.90
265.03	1339.37
265.25	1261.55
265.46	1310.70
265.68	1333.23
265.89	1261.55
266.11	1275.88
266.33	1286.12
266.54	1302.51
266.76	1253.36
266.98	1322.99
267.19	1298.41
267.41	1212.40
267.62	1269.74
267.84	1255.40
268.06	1232.88
268.27	1261.55
268.49	1198.06
268.70	1286.12
268.92	1245.16
269.14	1198.06
269.35	1312.75
269.57	1292.27
269.79	1183.73
270.00	1277.93
270.22	1267.69
270.43	1234.93
270.65	1273.84
270.87	1226.73
271.08	1286.12
271.30	1251.31
271.51	1230.83
271.73	1271.79
271.95	1198.06
272.16	1314.80
272.38	1314.80
272.59	1290.22
272.81	1275.88
273.02	1292.27
273.24	1232.88
273.46	1306.60
273.67	1273.84
273.89	1249.26
274.10	1298.41
274.32	1267.69
274.54	1263.60
274.75	1232.88
274.97	1253.36
275.18	1249.26
275.40	1259.50
275.61	1376.24
275.83	1226.73
276.05	1257.45
276.26	1282.03
276.48	1226.73
276.69	1302.51
276.91	1265.64
277.12	1306.60
277.34	1245.16
277.55	1251.31
277.77	1222.64
277.99	1220.59
278.20	1224.69
278.42	1312.75
278.63	1267.69
278.85	1282.03
279.06	1271.79
279.28	1306.60
279.49	1239.02
279.71	1304.56
279.93	1255.40
280.14	1224.69
280.36	1298.41
280.57	1284.08
280.79	1271.79
281.00	1269.74
281.22	1251.31
281.43	1239.02
281.65	1259.50
281.86	1296.36
282.08	1230.83
282.29	1255.40
282.51	1277.93
282.73	1279.98
282.94	1296.36
283.16	1222.64
283.37	1286.12
283.59	1251.31
283.80	1232.88
284.02	1263.60
284.23	1259.50
284.45	1206.25
284.66	1257.45
284.88	1265.64
285.09	1271.79
285.31	1284.08
285.52	1226.73
285.74	1269.74
285.95	1333.23
286.17	1206.25
286.38	1292.27
286.60	1298.41
286.81	1249.26
287.03	1331.18
287.24	1277.93
287.46	1277.93
287.67	1298.41
287.89	1236.97
288.10	1310.70
288.32	1290.22
288.53	1255.40
288.75	1171.44
288.96	1251.31
289.18	1212.40
289.39	1253.36
289.61	1257.45
289.82	1286.12
290.04	1277.93
290.25	1224.69
290.47	1265.64
290.68	1259.50
290.90	1286.12
291.11	1318.89
291.33	1275.88
291.54	1282.03
291.76	1263.60
291.97	1294.32
292.18	1306.60
292.40	1243.12
292.61	1298.41
292.83	1282.03
293.04	1269.74
293.26	1286.12
293.47	1228.78
293.69	1290.22
293.90	1288.17
294.12	1228.78
294.33	1208.30
294.55	1177.58
294.76	1261.55
294.97	1273.84
295.19	1251.31
295.40	1277.93
295.62	1298.41
295.83	1267.69
296.05	1284.08
296.26	1249.26
296.48	1208.30
296.69	1296.36
296.90	1253.36
297.12	1269.74
297.33	1271.79
297.55	1214.45
297.76	1314.80
297.98	1198.06
298.19	1304.56
298.41	1210.35
298.62	1273.84
298.83	1294.32
299.05	1267.69
299.26	1279.98
299.48	1185.77
299.69	1255.40
299.90	1277.93
300.12	1265.64
300.33	1325.04
300.55	1204.21
300.76	1249.26
300.98	1288.17
301.19	1284.08
301.40	1236.97
301.62	1214.45
301.83	1243.12
302.05	1339.37
302.26	1306.60
302.47	1308.65
302.69	1298.41
302.90	1322.99
303.12	1255.40
303.33	1226.73
303.54	1302.51
303.76	1228.78
303.97	1263.60
304.19	1366.00
304.40	1294.32
304.61	1261.55
304.83	1341.42
305.04	1218.54
305.26	1343.47
305.47	1255.40
305.68	1286.12
305.90	1316.84
306.11	1318.89
306.33	1318.89
306.54	1265.64
306.75	1259.50
306.97	1325.04
307.18	1245.16
307.39	1261.55
307.61	1314.80
307.82	1210.35
308.04	1261.55
308.25	1253.36
308.46	1255.40
308.68	1284.08
308.89	1322.99
309.10	1302.51
309.32	1279.98
309.53	1261.55
309.74	1251.31
309.96	1239.02
310.17	1273.84
310.39	1265.64
310.60	1224.69
310.81	1193.97
311.03	1271.79
311.24	1239.02
311.45	1269.74
311.67	1284.08
311.88	1255.40
312.09	1236.97
312.31	1257.45
312.52	1271.79
312.73	1314.80
312.95	1267.69
313.16	1173.49
313.37	1230.83
313.59	1265.64
313.80	1349.61
314.01	1284.08
314.23	1296.36
314.44	1288.17
314.65	1269.74
314.87	1261.55
315.08	1290.22
315.29	1279.98
315.51	1193.97
315.72	1257.45
315.93	1335.28
316.15	1286.12
316.36	1290.22
316.57	1226.73
316.79	1243.12
317.00	1300.46
317.21	1300.46
317.43	1249.26
317.64	1296.36
317.85	1355.76
318.07	1318.89
318.28	1183.73
318.49	1275.88
318.70	1325.04
318.92	1234.93
319.13	1253.36
319.34	1253.36
319.56	1236.97
319.77	1196.01
319.98	1269.74
320.20	1261.55
320.41	1288.17
320.62	1210.35
320.83	1282.03
321.05	1355.76
321.26	1304.56
321.47	1185.77
321.69	1275.88
321.90	1253.36
322.11	1267.69
322.32	1261.55
322.54	1185.77
322.75	1279.98
322.96	1298.41
323.18	1226.73
323.39	1288.17
323.60	1273.84
323.81	1339.37
324.03	1300.46
324.24	1271.79
324.45	1255.40
324.66	1236.97
324.88	1251.31
325.09	1271.79
325.30	1275.88
325.52	1273.84
325.73	1241.07
325.94	1269.74
326.15	1255.40
326.37	1247.21
326.58	1234.93
326.79	1249.26
327.00	1306.60
327.22	1261.55
327.43	1224.69
327.64	1241.07
327.85	1243.12
328.07	1288.17
328.28	1255.40
328.49	1273.84
328.70	1243.12
328.92	1269.74
329.13	1316.84
329.34	1304.56
329.55	1239.02
329.76	1251.31
329.98	1255.40
330.19	1236.97
330.40	1247.21
330.61	1251.31
330.83	1236.97
331.04	1284.08
331.25	1253.36
331.46	1310.70
331.68	1265.64
331.89	1265.64
332.10	1245.16
332.31	1271.79
332.52	1257.45
332.74	1234.93
332.95	1308.65
333.16	1335.28
333.37	1263.60
333.58	1200.11
333.80	1306.60
334.01	1288.17
334.22	1302.51
334.43	1222.64
334.64	1236.97
334.86	1308.65
335.07	1279.98
335.28	1320.94
335.49	1337.32
335.70	1312.75
335.92	1261.55
336.13	1259.50
336.34	1255.40
336.55	1286.12
336.76	1236.97
336.98	1255.40
337.19	1290.22
337.40	1241.07
337.61	1253.36
337.82	1247.21
338.04	1230.83
338.25	1329.13
338.46	1267.69
338.67	1312.75
338.88	1261.55
339.09	1312.75
339.31	1228.78
339.52	1279.98
339.73	1224.69
339.94	1232.88
340.15	1226.73
340.36	1329.13
340.58	1265.64
340.79	1267.69
341.00	1277.93
341.21	1347.56
341.42	1243.12
341.63	1245.16
341.85	1320.94
342.06	1322.99
342.27	1224.69
342.48	1239.02
342.69	1191.92
342.90	1206.25
343.12	1308.65
343.33	1351.66
343.54	1382.38
343.75	1259.50
343.96	1279.98
344.17	1302.51
344.38	1290.22
344.60	1234.93
344.81	1243.12
345.02	1257.45
345.23	1263.60
345.44	1279.98
345.65	1292.27
345.86	1234.93
346.07	1214.45
346.29	1306.60
346.50	1277.93
346.71	1222.64
346.92	1198.06
347.13	1294.32
347.34	1271.79
347.55	1239.02
347.76	1196.01
347.98	1255.40
348.19	1288.17
348.40	1216.49
348.61	1220.59
348.82	1304.56
349.03	1255.40
349.24	1345.52
349.45	1261.55
349.66	1165.29
349.88	1292.27
350.09	1310.70
350.30	1308.65
350.51	1337.32
350.72	1292.27
350.93	1241.07
351.14	1257.45
351.35	1212.40
351.56	1263.60
351.77	1331.18
351.99	1200.11
352.20	1310.70
352.41	1282.03
352.62	1265.64
352.83	1325.04
353.04	1265.64
353.25	1249.26
353.46	1292.27
353.67	1236.97
353.88	1259.50
354.09	1259.50
354.30	1249.26
354.52	1282.03
354.73	1282.03
354.94	1353.71
355.15	1306.60
355.36	1284.08
355.57	1298.41
355.78	1286.12
355.99	1290.22
356.20	1200.11
356.41	1218.54
356.62	1228.78
356.83	1273.84
357.04	1279.98
357.25	1320.94
357.46	1265.64
357.68	1273.84
357.89	1259.50
358.10	1314.80
358.31	1232.88
358.52	1249.26
358.73	1277.93
358.94	1226.73
359.15	1226.73
359.36	1292.27
359.57	1247.21
359.78	1251.31
359.99	1234.93
360.20	1273.84
360.41	1249.26
360.62	1275.88
360.83	1310.70
361.04	1286.12
361.25	1239.02
361.46	1263.60
361.67	1243.12
361.88	1251.31
362.09	1255.40
362.30	1320.94
362.51	1253.36
362.72	1267.69
362.93	1302.51
363.14	1288.17
363.35	1202.16
363.56	1329.13
363.78	1265.64
363.99	1288.17
364.20	1277.93
364.41	1239.02
364.62	1310.70
364.83	1277.93
365.04	1247.21
365.25	1273.84
365.46	1294.32
365.67	1288.17
365.88	1284.08
366.09	1279.98
366.30	1251.31
366.51	1331.18
366.72	1296.36
366.93	1210.35
367.14	1230.83
367.35	1269.74
367.56	1259.50
367.77	1196.01
367.98	1273.84
368.18	1220.59
368.39	1224.69
368.60	1208.30
368.81	1298.41
369.02	1296.36
369.23	1249.26
369.44	1314.80
369.65	1300.46
369.86	1273.84
370.07	1273.84
370.28	1279.98
370.49	1292.27
370.70	1271.79
370.91	1304.56
371.12	1269.74
371.33	1267.69
371.54	1273.84
371.75	1269.74
371.96	1257.45
372.17	1245.16
372.38	1304.56
372.59	1292.27
372.80	1255.40
373.01	1159.15
373.22	1263.60
373.43	1306.60
373.64	1247.21
373.85	1341.42
374.06	1286.12
374.26	1257.45
374.47	1312.75
374.68	1368.04
374.89	1277.93
375.10	1212.40
375.31	1286.12
375.52	1204.21
375.73	1263.60
375.94	1318.89
376.15	1304.56
376.36	1112.05
376.57	1284.08
376.78	1284.08
376.99	1206.25
377.20	1277.93
377.40	1298.41
377.61	1228.78
377.82	1265.64
378.03	1234.93
378.24	1251.31
378.45	1243.12
378.66	1257.45
378.87	1263.60
379.08	1247.21
379.29	1257.45
379.50	1243.12
379.71	1329.13
379.91	1273.84
380.12	1357.80
380.33	1318.89
380.54	1314.80
380.75	1224.69
380.96	1263.60
381.17	1267.69
381.38	1249.26
381.59	1220.59
381.80	1218.54
382.00	1294.32
382.21	1312.75
382.42	1273.84
382.63	1271.79
382.84	1288.17
383.05	1191.92
383.26	1232.88
383.47	1325.04
383.68	1251.31
383.88	1251.31
384.09	1222.64
384.30	1290.22
384.51	1279.98
384.72	1286.12
384.93	1284.08
385.14	1308.65
385.35	1306.60
385.55	1247.21
385.76	1228.78
385.97	1292.27
386.18	1294.32
386.39	1220.59
386.60	1271.79
386.81	1288.17
387.02	1249.26
387.22	1146.86
387.43	1257.45
387.64	1214.45
387.85	1263.60
388.06	1230.83
388.27	1325.04
388.48	1335.28
388.68	1329.13
388.89	1247.21
389.10	1200.11
389.31	1241.07
389.52	1312.75
389.73	1218.54
389.93	1292.27
390.14	1284.08
390.35	1294.32
390.56	1224.69
390.77	1206.25
390.98	1271.79
391.18	1337.32
391.39	1234.93
391.60	1241.07
391.81	1253.36
392.02	1253.36
392.23	1224.69
392.43	1245.16
392.64	1251.31
392.85	1265.64
393.06	1257.45
393.27	1306.60
393.47	1308.65
393.68	1183.73
393.89	1296.36
394.10	1351.66
394.31	1226.73
394.52	1265.64
394.72	1322.99
394.93	1269.74
395.14	1286.12
395.35	1232.88
395.56	1265.64
395.76	1271.79
395.97	1282.03
396.18	1232.88
396.39	1196.01
396.60	1284.08
396.80	1230.83
397.01	1300.46
397.22	1241.07
397.43	1304.56
397.64	1232.88
397.84	1282.03
398.05	1275.88
398.26	1290.22
398.47	1200.11
398.67	1290.22
398.88	1234.93
399.09	1265.64
399.30	1245.16
399.51	1257.45
399.71	1218.54
399.92	1275.88
400.13	1263.60
400.34	1234.93
400.54	1265.64
400.75	1267.69
400.96	1271.79
401.17	1232.88
401.37	1302.51
401.58	1302.51
401.79	1251.31
402.00	1279.98
402.21	1265.64
402.41	1310.70
402.62	1275.88
402.83	1318.89
403.04	1339.37
403.24	1279.98
403.45	1286.12
403.66	1304.56
403.87	1327.08
404.07	1230.83
404.28	1284.08
404.49	1273.84
404.70	1275.88
404.90	1292.27
405.11	1271.79
405.32	1161.20
405.52	1314.80
405.73	1296.36
405.94	1196.01
406.15	1275.88
406.35	1257.45
406.56	1277.93
406.77	1255.40
406.98	1282.03
407.18	1279.98
407.39	1243.12
407.60	1265.64
407.80	1239.02
408.01	1224.69
408.22	1314.80
408.43	1286.12
408.63	1193.97
408.84	1255.40
409.05	1218.54
409.25	1234.93
409.46	1316.84
409.67	1275.88
409.88	1236.97
410.08	1327.08
410.29	1206.25
410.50	1234.93
410.70	1355.76
410.91	1191.92
411.12	1216.49
411.32	1271.79
411.53	1220.59
411.74	1290.22
411.95	1230.83
412.15	1292.27
412.36	1279.98
412.57	1308.65
412.77	1312.75
412.98	1294.32
413.19	1282.03
413.39	1263.60
413.60	1261.55
413.81	1230.83
414.01	1288.17
414.22	1206.25
414.43	1263.60
414.63	1222.64
414.84	1325.04
415.05	1261.55
415.25	1247.21
415.46	1288.17
415.67	1257.45
415.87	1263.60
416.08	1222.64
416.29	1200.11
416.49	1251.31
416.70	1261.55
416.91	1304.56
417.11	1296.36
417.32	1302.51
417.53	1234.93
417.73	1314.80
417.94	1226.73
418.15	1277.93
418.35	1257.45
418.56	1265.64
418.77	1290.22
418.97	1286.12
419.18	1257.45
419.38	1241.07
419.59	1239.02
419.80	1316.84
420.00	1284.08
420.21	1196.01
420.42	1265.64
420.62	1261.55
420.83	1220.59
421.04	1300.46
421.24	1247.21
421.45	1298.41
421.65	1198.06
421.86	1200.11
422.07	1296.36
422.27	1277.93
422.48	1310.70
422.69	1325.04
422.89	1284.08
423.10	1304.56
423.30	1275.88
423.51	1214.45
423.72	1232.88
423.92	1269.74
424.13	1284.08
424.33	1200.11
424.54	1269.74
424.75	1269.74
424.95	1181.68
425.16	1294.32
425.36	1273.84
425.57	1320.94
425.78	1277.93
425.98	1271.79
426.19	1329.13
426.39	1271.79
426.60	1376.24
426.81	1296.36
427.01	1257.45
427.22	1294.32
427.42	1282.03
427.63	1216.49
427.83	1273.84
428.04	1329.13
428.25	1308.65
428.45	1329.13
428.66	1298.41
428.86	1198.06
429.07	1347.56
429.28	1308.65
429.48	1257.45
429.69	1296.36
429.89	1224.69
430.10	1245.16
430.30	1273.84
430.51	1279.98
430.71	1224.69
430.92	1255.40
431.13	1204.21
431.33	1263.60
431.54	1243.12
431.74	1245.16
431.95	1265.64
432.15	1271.79
432.36	1284.08
432.56	1263.60
432.77	1271.79
432.98	1253.36
433.18	1200.11
433.39	1286.12
433.59	1339.37
433.80	1290.22
434.00	1265.64
434.21	1222.64
434.41	1288.17
434.62	1308.65
434.82	1208.30
435.03	1310.70
435.23	1243.12
435.44	1206.25
435.64	1341.42
435.85	1259.50
436.06	1216.49
436.26	1314.80
436.47	1322.99
436.67	1257.45
436.88	1310.70
437.08	1290.22
437.29	1249.26
437.49	1304.56
437.70	1308.65
437.90	1275.88
438.11	1247.21
438.31	1273.84
438.52	1284.08
438.72	1255.40
438.93	1273.84
439.13	1284.08
439.34	1284.08
439.54	1286.12
439.75	1232.88
439.95	1302.51
440.16	1284.08
440.36	1286.12
440.57	1239.02
440.77	1286.12
440.98	1284.08
441.18	1181.68
441.39	1275.88
441.59	1304.56
441.80	1312.75
442.00	1232.88
442.21	1327.08
442.41	1257.45
442.62	1320.94
442.82	1294.32
443.02	1290.22
443.23	1273.84
443.43	1232.88
443.64	1259.50
443.84	1234.93
444.05	1325.04
444.25	1257.45
444.46	1224.69
444.66	1245.16
444.87	1257.45
445.07	1273.84
445.28	1294.32
445.48	1304.56
445.69	1282.03
445.89	1312.75
446.09	1261.55
446.30	1269.74
446.50	1296.36
446.71	1214.45
446.91	1202.16
447.12	1267.69
447.32	1288.17
447.53	1263.60
447.73	1314.80
447.93	1185.77
448.14	1263.60
448.34	1302.51
448.55	1277.93
448.75	1259.50
448.96	1269.74
449.16	1294.32
449.36	1294.32
449.57	1267.69
449.77	1273.84
449.98	1300.46
450.18	1249.26
450.39	1304.56
450.59	1314.80
450.79	1202.16
451.00	1267.69
451.20	1261.55
451.41	1290.22
451.61	1292.27
451.81	1292.27
452.02	1271.79
452.22	1265.64
452.43	1263.60
452.63	1275.88
452.84	1298.41
453.04	1239.02
453.24	1273.84
453.45	1249.26
453.65	1304.56
453.86	1292.27
454.06	1265.64
454.26	1316.84
454.47	1247.21
454.67	1337.32
454.87	1302.51
455.08	1265.64
455.28	1208.30
455.49	1294.32
455.69	1247.21
455.89	1327.08
456.10	1320.94
456.30	1249.26
456.51	1277.93
456.71	1279.98
456.91	1284.08
457.12	1230.83
457.32	1325.04
457.52	1380.33
457.73	1284.08
457.93	1247.21
458.14	1322.99
458.34	1206.25
458.54	1236.97
458.75	1271.79
458.95	1277.93
459.15	1286.12
459.36	1300.46
459.56	1290.22
459.76	1224.69
459.97	1294.32
460.17	1298.41
460.37	1318.89
460.58	1282.03
460.78	1296.36
460.99	1271.79
461.19	1275.88
461.39	1236.97
461.60	1241.07
461.80	1318.89
462.00	1368.04
462.21	1249.26
462.41	1275.88
462.61	1304.56
462.82	1218.54
463.02	1251.31
463.22	1200.11
463.43	1339.37
463.63	1263.60
463.83	1265.64
464.04	1306.60
464.24	1286.12
464.44	1282.03
464.64	1341.42
464.85	1206.25
465.05	1253.36
465.25	1249.26
465.46	1216.49
465.66	1224.69
465.86	1249.26
466.07	1261.55
466.27	1230.83
466.47	1257.45
466.68	1261.55
466.88	1263.60
467.08	1296.36
467.29	1282.03
467.49	1296.36
467.69	1269.74
467.89	1302.51
468.10	1284.08
468.30	1298.41
468.50	1271.79
468.71	1269.74
468.91	1253.36
469.11	1226.73
469.31	1282.03
469.52	1259.50
469.72	1267.69
469.92	1277.93
470.13	1282.03
470.33	1253.36
470.53	1284.08
470.73	1220.59
470.94	1277.93
471.14	1189.87
471.34	1337.32
471.54	1263.60
471.75	1327.08
471.95	1290.22
472.15	1247.21
472.36	1357.80
472.56	1259.50
472.76	1236.97
472.96	1261.55
473.17	1198.06
473.37	1337.32
473.57	1331.18
473.77	1234.93
473.98	1253.36
474.18	1277.93
474.38	1261.55
474.58	1300.46
474.79	1265.64
474.99	1304.56
475.19	1304.56
475.39	1335.28
475.60	1269.74
475.80	1306.60
476.00	1200.11
476.20	1181.68
476.41	1314.80
476.61	1269.74
476.81	1325.04
477.01	1273.84
477.21	1312.75
477.42	1347.56
477.62	1284.08
477.82	1339.37
478.02	1255.40
478.23	1224.69
478.43	1310.70
478.63	1247.21
478.83	1271.79
479.03	1316.84
479.24	1284.08
479.44	1294.32
479.64	1355.76
479.84	1284.08
480.04	1273.84
480.25	1284.08
480.45	1308.65
480.65	1284.08
480.85	1236.97
481.06	1232.88
481.26	1202.16
481.46	1329.13
481.66	1261.55
481.86	1347.56
482.06	1304.56
482.27	1239.02
482.47	1288.17
482.67	1310.70
482.87	1251.31
483.07	1249.26
483.28	1290.22
483.48	1316.84
483.68	1243.12
483.88	1249.26
484.08	1245.16
484.29	1230.83
484.49	1228.78
484.69	1222.64
484.89	1224.69
485.09	1269.74
485.29	1243.12
485.50	1296.36
485.70	1298.41
485.90	1298.41
486.10	1286.12
486.30	1298.41
486.50	1259.50
486.71	1271.79
486.91	1255.40
487.11	1363.95
487.31	1312.75
487.51	1279.98
487.71	1271.79
487.91	1273.84
488.12	1347.56
488.32	1337.32
488.52	1220.59
488.72	1314.80
488.92	1249.26
489.12	1296.36
489.32	1202.16
489.53	1343.47
489.73	1329.13
489.93	1308.65
490.13	1212.40
490.33	1286.12
490.53	1255.40
490.73	1282.03
490.94	1318.89
491.14	1304.56
491.34	1292.27
491.54	1275.88
491.74	1284.08
491.94	1288.17
492.14	1300.46
492.34	1257.45
492.54	1269.74
492.75	1310.70
492.95	1214.45
493.15	1255.40
493.35	1253.36
493.55	1218.54
493.75	1269.74
493.95	1290.22
494.15	1341.42
494.35	1216.49
494.56	1335.28
494.76	1269.74
494.96	1243.12
495.16	1226.73
495.36	1308.65
495.56	1282.03
495.76	1241.07
495.96	1243.12
496.16	1247.21
496.36	1351.66
496.56	1257.45
496.77	1226.73
496.97	1241.07
497.17	1325.04
497.37	1361.90
497.57	1286.12
497.77	1220.59
497.97	1245.16
498.17	1322.99
498.37	1222.64
498.57	1282.03
498.77	1347.56
498.97	1294.32
499.17	1255.40
499.38	1271.79
499.58	1271.79
499.78	1232.88
499.98	1224.69
500.18	1298.41
500.38	1331.18
500.58	1249.26
500.78	1306.60
500.98	1257.45
501.18	1247.21
501.38	1290.22
501.58	1230.83
501.78	1259.50
501.98	1167.34
502.18	1267.69
502.38	1308.65
502.58	1267.69
502.78	1269.74
502.98	1218.54
503.18	1265.64
503.38	1302.51
503.59	1249.26
503.79	1312.75
503.99	1308.65
504.19	1308.65
504.39	1265.64
504.59	1265.64
504.79	1271.79
504.99	1265.64
505.19	1298.41
505.39	1247.21
505.59	1189.87
505.79	1222.64
505.99	1245.16
506.19	1230.83
506.39	1257.45
506.59	1185.77
506.79	1273.84
506.99	1259.50
507.19	1181.68
507.39	1277.93
507.59	1329.13
507.79	1198.06
507.99	1249.26
508.19	1239.02
508.39	1343.47
508.59	1273.84
508.79	1306.60
508.99	1314.80
509.19	1257.45
509.39	1269.74
509.59	1290.22
509.79	1277.93
509.99	1312.75
510.19	1347.56
510.39	1232.88
510.59	1228.78
510.79	1294.32
510.99	1284.08
511.19	1234.93
511.39	1325.04
511.59	1259.50
511.79	1253.36
511.99	1277.93
512.19	1308.65
512.38	1288.17
512.58	1198.06
512.78	1292.27
512.98	1282.03
513.18	1316.84
513.38	1279.98
513.58	1310.70
513.78	1288.17
513.98	1249.26
514.18	1200.11
514.38	1284.08
514.58	1251.31
514.78	1279.98
514.98	1314.80
515.18	1251.31
515.38	1261.55
515.58	1314.80
515.78	1282.03
515.98	1200.11
516.18	1267.69
516.38	1339.37
516.57	1316.84
516.77	1245.16
516.97	1279.98
517.17	1300.46
517.37	1302.51
517.57	1290.22
517.77	1277.93
517.97	1363.95
518.17	1269.74
518.37	1314.80
518.57	1220.59
518.77	1329.13
518.97	1290.22
519.16	1312.75
519.36	1273.84
519.56	1257.45
519.76	1236.97
519.96	1265.64
520.16	1261.55
520.36	1200.11
520.56	1294.32
520.76	1288.17
520.96	1300.46
521.16	1294.32
521.35	1333.23
521.55	1273.84
521.75	1282.03
521.95	1269.74
522.15	1286.12
522.35	1292.27
522.55	1331.18
522.75	1273.84
522.95	1214.45
523.14	1294.32
523.34	1310.70
523.54	1249.26
523.74	1325.04
523.94	1314.80
524.14	1234.93
524.34	1216.49
524.54	1265.64
524.73	1273.84
524.93	1300.46
525.13	1224.69
525.33	1304.56
525.53	1218.54
525.73	1275.88
525.93	1253.36
526.13	1257.45
526.32	1251.31
526.52	1265.64
526.72	1255.40
526.92	1271.79
527.12	1306.60
527.32	1298.41
527.52	1261.55
527.71	1288.17
527.91	1255.40
528.11	1294.32
528.31	1218.54
528.51	1279.98
528.71	1263.60
528.90	1249.26
529.10	1206.25
529.30	1271.79
529.50	1269.74
529.70	1337.32
529.90	1273.84
530.09	1306.60
530.29	1267.69
530.49	1263.60
530.69	1322.99
530.89	1400.81
531.09	1255.40
531.28	1251.31
531.48	1353.71
531.68	1239.02
531.88	1331.18
532.08	1255.40
532.28	1300.46
532.47	1277.93
532.67	1286.12
532.87	1245.16
533.07	1273.84
533.27	1296.36
533.46	1267.69
533.66	1312.75
533.86	1337.32
534.06	1279.98
534.26	1320.94
534.45	1263.60
534.65	1249.26
534.85	1296.36
535.05	1220.59
535.25	1316.84
535.44	1265.64
535.64	1275.88
535.84	1341.42
536.04	1247.21
536.24	1335.28
536.43	1198.06
536.63	1263.60
536.83	1284.08
537.03	1261.55
537.22	1222.64
537.42	1282.03
537.62	1232.88
537.82	1298.41
538.02	1224.69
538.21	1249.26
538.41	1255.40
538.61	1286.12
538.81	1314.80
539.00	1337.32
539.20	1257.45
539.40	1273.84
539.60	1306.60
539.79	1329.13
539.99	1353.71
540.19	1310.70
540.39	1247.21
540.58	1265.64
540.78	1310.70
540.98	1304.56
541.18	1308.65
541.37	1337.32
541.57	1228.78
541.77	1341.42
541.97	1296.36
542.16	1222.64
542.36	1269.74
542.56	1261.55
542.76	1327.08
542.95	1220.59
543.15	1208.30
543.35	1312.75
543.54	1269.74
543.74	1296.36
543.94	1251.31
544.14	1239.02
544.33	1302.51
544.53	1273.84
544.73	1327.08
544.93	1273.84
545.12	1304.56
545.32	1257.45
545.52	1255.40
545.71	1275.88
545.91	1261.55
546.11	1279.98
546.30	1236.97
546.50	1337.32
546.70	1327.08
546.90	1245.16
547.09	1279.98
547.29	1273.84
547.49	1279.98
547.68	1308.65
547.88	1259.50
548.08	1284.08
548.27	1327.08
548.47	1294.32
548.67	1265.64
548.87	1265.64
549.06	1288.17
549.26	1333.23
549.46	1277.93
549.65	1255.40
549.85	1210.35
550.05	1292.27
550.24	1308.65
550.44	1228.78
550.64	1220.59
550.83	1282.03
551.03	1251.31
551.23	1273.84
551.42	1265.64
551.62	1263.60
551.82	1290.22
552.01	1216.49
552.21	1288.17
552.41	1294.32
552.60	1312.75
552.80	1243.12
553.00	1216.49
553.19	1310.70
553.39	1361.90
553.59	1253.36
553.78	1288.17
553.98	1241.07
554.17	1325.04
554.37	1269.74
554.57	1259.50
554.76	1263.60
554.96	1208.30
555.16	1265.64
555.35	1349.61
555.55	1298.41
555.75	1255.40
555.94	1294.32
556.14	1314.80
556.33	1263.60
556.53	1247.21
556.73	1290.22
556.92	1284.08
557.12	1243.12
557.32	1284.08
557.51	1314.80
557.71	1318.89
557.90	1279.98
558.10	1234.93
558.30	1298.41
558.49	1304.56
558.69	1327.08
558.88	1372.14
559.08	1208.30
559.28	1314.80
559.47	1239.02
559.67	1193.97
559.86	1288.17
560.06	1236.97
560.26	1282.03
560.45	1269.74
560.65	1345.52
560.84	1306.60
561.04	1286.12
561.24	1316.84
561.43	1370.09
561.63	1210.35
561.82	1269.74
562.02	1247.21
562.22	1290.22
562.41	1304.56
562.61	1232.88
562.80	1269.74
563.00	1333.23
563.19	1224.69
563.39	1318.89
563.59	1300.46
563.78	1302.51
563.98	1210.35
564.17	1296.36
564.37	1286.12
564.56	1286.12
564.76	1204.21
564.96	1296.36
565.15	1353.71
565.35	1308.65
565.54	1265.64
565.74	1275.88
565.93	1302.51
566.13	1257.45
566.32	1306.60
566.52	1230.83
566.71	1304.56
566.91	1347.56
567.11	1339.37
567.30	1337.32
567.50	1304.56
567.69	1316.84
567.89	1296.36
568.08	1279.98
568.28	1277.93
568.47	1247.21
568.67	1314.80
568.86	1232.88
569.06	1236.97
569.25	1265.64
569.45	1284.08
569.64	1322.99
569.84	1218.54
570.04	1249.26
570.23	1263.60
570.43	1296.36
570.62	1282.03
570.82	1325.04
571.01	1257.45
571.21	1269.74
571.40	1259.50
571.60	1275.88
571.79	1230.83
571.99	1339.37
572.18	1232.88
572.38	1318.89
572.57	1327.08
572.77	1257.45
572.96	1331.18
573.16	1224.69
573.35	1275.88
573.55	1239.02
573.74	1341.42
573.94	1232.88
574.13	1269.74
574.33	1294.32
574.52	1224.69
574.71	1290.22
574.91	1290.22
575.10	1339.37
575.30	1175.53
575.49	1232.88
575.69	1282.03
575.88	1273.84
576.08	1224.69
576.27	1245.16
576.47	1185.77
576.66	1193.97
576.86	1286.12
577.05	1306.60
577.25	1298.41
577.44	1298.41
577.64	1210.35
577.83	1361.90
578.02	1234.93
578.22	1208.30
578.41	1327.08
578.61	1234.93
578.80	1327.08
579.00	1347.56
579.19	1212.40
579.39	1257.45
579.58	1333.23
579.77	1380.33
579.97	1343.47
580.16	1327.08
580.36	1349.61
580.55	1286.12
580.75	1318.89
580.94	1230.83
581.13	1253.36
581.33	1294.32
581.52	1284.08
581.72	1279.98
581.91	1279.98
582.11	1265.64
582.30	1279.98
582.49	1232.88
582.69	1282.03
582.88	1294.32
583.08	1271.79
583.27	1288.17
583.47	1329.13
583.66	1308.65
583.85	1273.84
584.05	1298.41
584.24	1263.60
584.44	1312.75
584.63	1253.36
584.82	1247.21
585.02	1308.65
585.21	1374.19
585.41	1265.64
585.60	1349.61
585.79	1277.93
585.99	1298.41
586.18	1234.93
586.37	1189.87
586.57	1273.84
586.76	1306.60
586.96	1300.46
587.15	1193.97
587.34	1255.40
587.54	1282.03
587.73	1255.40
587.93	1314.80
588.12	1294.32
588.31	1314.80
588.51	1187.82
588.70	1314.80
588.89	1204.21
589.09	1329.13
589.28	1308.65
589.47	1304.56
589.67	1286.12
589.86	1318.89
590.06	1261.55
590.25	1267.69
590.44	1288.17
590.64	1226.73
590.83	1337.32
591.02	1306.60
591.22	1329.13
591.41	1257.45
591.60	1253.36
591.80	1304.56
591.99	1269.74
592.18	1339.37
592.38	1308.65
592.57	1230.83
592.76	1298.41
592.96	1249.26
593.15	1288.17
593.34	1249.26
593.54	1288.17
593.73	1261.55
593.92	1261.55
594.12	1333.23
594.31	1316.84
594.50	1322.99
594.70	1314.80
594.89	1253.36
595.08	1292.27
595.28	1249.26
595.47	1239.02
595.66	1200.11
595.86	1253.36
596.05	1292.27
596.24	1253.36
596.43	1339.37
596.63	1300.46
596.82	1288.17
597.01	1296.36
597.21	1318.89
597.40	1249.26
597.59	1308.65
597.79	1247.21
597.98	1251.31
598.17	1273.84
598.36	1271.79
598.56	1282.03
598.75	1331.18
598.94	1312.75
599.14	1191.92
599.33	1300.46
599.52	1320.94
599.71	1253.36
599.91	1318.89
600.10	1232.88
600.29	1294.32
600.48	1349.61
600.68	1333.23
600.87	1214.45
601.06	1271.79
601.26	1312.75
601.45	1247.21
601.64	1241.07
601.83	1325.04
602.03	1300.46
602.22	1292.27
602.41	1232.88
602.60	1286.12
602.80	1298.41
602.99	1234.93
603.18	1282.03
603.37	1302.51
603.57	1249.26
603.76	1298.41
603.95	1296.36
604.14	1337.32
604.34	1275.88
604.53	1302.51
604.72	1259.50
604.91	1304.56
605.10	1273.84
605.30	1259.50
605.49	1230.83
605.68	1288.17
605.87	1296.36
606.07	1312.75
606.26	1288.17
606.45	1286.12
606.64	1331.18
606.84	1271.79
607.03	1269.74
607.22	1275.88
607.41	1265.64
607.60	1241.07
607.80	1292.27
607.99	1265.64
608.18	1306.60
608.37	1239.02
608.56	1241.07
608.76	1277.93
608.95	1288.17
609.14	1230.83
609.33	1271.79
609.52	1239.02
609.72	1320.94
609.91	1228.78
610.10	1239.02
610.29	1275.88
610.48	1263.60
610.68	1288.17
610.87	1210.35
611.06	1333.23
611.25	1327.08
611.44	1265.64
611.63	1269.74
611.83	1259.50
612.02	1327.08
612.21	1286.12
612.40	1298.41
612.59	1265.64
612.79	1222.64
612.98	1236.97
613.17	1232.88
613.36	1257.45
613.55	1265.64
613.74	1335.28
613.93	1261.55
614.13	1257.45
614.32	1222.64
614.51	1226.73
614.70	1273.84
614.89	1347.56
615.08	1271.79
615.28	1343.47
615.47	1271.79
615.66	1257.45
615.85	1282.03
616.04	1249.26
616.23	1294.32
616.42	1341.42
616.62	1296.36
616.81	1318.89
617.00	1236.97
617.19	1310.70
617.38	1181.68
617.57	1239.02
617.76	1308.65
617.95	1302.51
618.15	1251.31
618.34	1279.98
618.53	1257.45
618.72	1302.51
618.91	1273.84
619.10	1325.04
619.29	1302.51
619.48	1333.23
619.68	1341.42
619.87	1302.51
620.06	1222.64
620.25	1275.88
620.44	1294.32
620.63	1378.28
620.82	1277.93
621.01	1300.46
621.20	1277.93
621.39	1269.74
621.59	1318.89
621.78	1251.31
621.97	1349.61
622.16	1257.45
622.35	1284.08
622.54	1372.14
622.73	1275.88
622.92	1241.07
623.11	1263.60
623.30	1304.56
623.49	1333.23
623.68	1290.22
623.88	1351.66
624.07	1325.04
624.26	1298.41
624.45	1282.03
624.64	1310.70
624.83	1302.51
625.02	1245.16
625.21	1241.07
625.40	1302.51
625.59	1282.03
625.78	1351.66
625.97	1279.98
626.16	1277.93
626.35	1226.73
626.54	1308.65
626.74	1345.52
626.93	1284.08
627.12	1277.93
627.31	1204.21
627.50	1333.23
627.69	1329.13
627.88	1204.21
628.07	1322.99
628.26	1316.84
628.45	1306.60
628.64	1327.08
628.83	1275.88
629.02	1290.22
629.21	1325.04
629.40	1318.89
629.59	1345.52
629.78	1345.52
629.97	1236.97
630.16	1277.93
630.35	1314.80
630.54	1347.56
630.73	1306.60
630.92	1370.09
631.11	1294.32
631.30	1308.65
631.49	1386.47
631.68	1626.09
631.87	5746.60
632.06	19422.94
632.25	36208.09
632.44	58770.56
632.63	65535.00
632.82	61582.42
633.01	34080.25
633.20	13762.35
633.39	6815.64
633.58	3528.65
633.77	3145.68
633.96	2854.87
634.15	2605.02
634.34	2045.92
634.53	1865.70
634.72	1935.33
634.91	1812.45
635.10	1804.26
635.29	1665.00
635.48	1624.04
635.67	1615.85
635.86	1533.93
636.05	1515.50
636.24	1484.78
636.43	1386.47
636.62	1460.20
636.81	1421.29
637.00	1433.58
637.19	1372.14
637.38	1394.67
637.57	1396.71
637.76	1337.32
637.95	1335.28
638.14	1314.80
638.33	1339.37
638.52	1316.84
638.71	1284.08
638.89	1398.76
639.08	1259.50
639.27	1308.65
639.46	1239.02
639.65	1331.18
639.84	1253.36
640.03	1308.65
640.22	1316.84
640.41	1275.88
640.60	1333.23
640.79	1257.45
640.98	1249.26
641.17	1277.93
641.36	1306.60
641.55	1279.98
641.74	1275.88
641.92	1290.22
642.11	1331.18
642.30	1298.41
642.49	1259.50
642.68	1282.03
642.87	1292.27
643.06	1333.23
643.25	1316.84
643.44	1263.60
643.63	1282.03
643.82	1306.60
644.00	1261.55
644.19	1320.94
644.38	1306.60
644.57	1263.60
644.76	1316.84
644.95	1296.36
645.14	1292.27
645.33	1261.55
645.52	1337.32
645.71	1249.26
645.89	1310.70
646.08	1288.17
646.27	1288.17
646.46	1230.83
646.65	1282.03
646.84	1251.31
647.03	1230.83
647.22	1279.98
647.40	1232.88
647.59	1232.88
647.78	1245.16
647.97	1314.80
648.16	1294.32
648.35	1253.36
648.54	1212.40
648.73	1259.50
648.91	1261.55
649.10	1282.03
649.29	1304.56
649.48	1292.27
649.67	1261.55
649.86	1243.12
650.05	1306.60
650.23	1288.17
650.42	1214.45
650.61	1275.88
650.80	1277.93
650.99	1245.16
651.18	1300.46
651.36	1351.66
651.55	1185.77
651.74	1284.08
651.93	1253.36
652.12	1300.46
652.31	1267.69
652.49	1322.99
652.68	1249.26
652.87	1318.89
653.06	1208.30
653.25	1320.94
653.44	1202.16
653.62	1282.03
653.81	1247.21
654.00	1271.79
654.19	1318.89
654.38	1267.69
654.56	1292.27
654.75	1292.27
654.94	1322.99
655.13	1265.64
655.32	1380.33
655.51	1255.40
655.69	1273.84
655.88	1263.60
656.07	1277.93
656.26	1273.84
656.45	1310.70
656.63	1298.41
656.82	1218.54
657.01	1261.55
657.20	1312.75
657.38	1275.88
657.57	1263.60
657.76	1265.64
657.95	1327.08
658.14	1294.32
658.32	1277.93
658.51	1243.12
658.70	1275.88
658.89	1269.74
659.08	1253.36
659.26	1296.36
659.45	1290.22
659.64	1230.83
659.83	1288.17
660.01	1282.03
660.20	1245.16
660.39	1347.56
660.58	1204.21
660.76	1290.22
660.95	1279.98
661.14	1259.50
661.33	1318.89
661.51	1298.41
661.70	1236.97
661.89	1234.93
662.08	1257.45
662.26	1263.60
662.45	1296.36
662.64	1290.22
662.83	1286.12
663.01	1241.07
663.20	1279.98
663.39	1296.36
663.58	1253.36
663.76	1232.88
663.95	1200.11
664.14	1310.70
664.32	1306.60
664.51	1339.37
664.70	1271.79
664.89	1249.26
665.07	1320.94
665.26	1249.26
665.45	1267.69
665.64	1241.07
665.82	1320.94
666.01	1243.12
666.20	1249.26
666.38	1322.99
666.57	1318.89
666.76	1232.88
666.95	1271.79
667.13	1306.60
667.32	1263.60
667.51	1230.83
667.69	1302.51
667.88	1269.74
668.07	1253.36
668.25	1247.21
668.44	1279.98
668.63	1296.36
668.81	1357.80
669.00	1286.12
669.19	1257.45
669.38	1257.45
669.56	1265.64
669.75	1345.52
669.94	1271.79
670.12	1255.40
670.31	1310.70
670.50	1273.84
670.68	1208.30
670.87	1232.88
671.06	1273.84
671.24	1245.16
671.43	1265.64
671.62	1329.13
671.80	1294.32
671.99	1308.65
672.18	1216.49
672.36	1243.12
672.55	1275.88
672.74	1273.84
672.92	1277.93
673.11	1216.49
673.29	1318.89
673.48	1335.28
673.67	1327.08
673.85	1259.50
674.04	1228.78
674.23	1296.36
674.41	1314.80
674.60	1302.51
674.79	1261.55
674.97	1239.02
675.16	1288.17
675.34	1273.84
675.53	1290.22
675.72	1290.22
675.90	1308.65
676.09	1265.64
676.28	1310.70
676.46	1239.02
676.65	1232.88
676.83	1245.16
677.02	1228.78
677.21	1304.56
677.39	1261.55
677.58	1224.69
677.77	1183.73
677.95	1271.79
678.14	1273.84
678.32	1230.83
678.51	1259.50
678.70	1314.80
678.88	1239.02
679.07	1267.69
679.25	1218.54
679.44	1320.94
679.63	1318.89
679.81	1251.31
680.00	1277.93
680.18	1290.22
680.37	1191.92
680.55	1333.23
680.74	1236.97
680.93	1259.50
681.11	1306.60
681.30	1247.21
681.48	1247.21
681.67	1282.03
681.85	1298.41
682.04	1198.06
682.23	1265.64
682.41	1320.94
682.60	1273.84
682.78	1236.97
682.97	1224.69
683.15	1298.41
683.34	1224.69
683.53	1314.80
683.71	1243.12
683.90	1249.26
684.08	1308.65
684.27	1277.93
684.45	1277.93
684.64	1282.03
684.82	1273.84
685.01	1236.97
685.19	1259.50
685.38	1290.22
685.57	1241.07
685.75	1265.64
685.94	1243.12
686.12	1245.16
686.31	1239.02
686.49	1306.60
686.68	1279.98
686.86	1294.32
687.05	1247.21
687.23	1273.84
687.42	1267.69
687.60	1226.73
687.79	1300.46
687.97	1296.36
688.16	1312.75
688.34	1345.52
688.53	1294.32
688.71	1322.99
688.90	1304.56
689.08	1312.75
689.27	1271.79
689.45	1304.56
689.64	1241.07
689.82	1327.08
690.01	1239.02
690.19	1261.55
690.38	1339.37
690.56	1304.56
690.75	1286.12
690.93	1265.64
691.12	1253.36
691.30	1167.34
691.49	1159.15
691.67	1286.12
691.86	1269.74
692.04	1228.78
692.23	1327.08
692.41	1189.87
692.60	1273.84
692.78	1298.41
692.97	1236.97
693.15	1380.33
693.34	1370.09
693.52	1271.79
693.71	1269.74
693.89	1247.21
694.08	1239.02
694.26	1300.46
694.44	1277.93
694.63	1247.21
694.81	1234.93
695.00	1296.36
695.18	1265.64
695.37	1298.41
695.55	1232.88
695.74	1378.28
695.92	1286.12
696.10	1320.94
696.29	1265.64
696.47	1286.12
696.66	1286.12
696.84	1210.35
697.03	1296.36
697.21	1275.88
697.40	1316.84
697.58	1275.88
697.76	1353.71
697.95	1286.12
698.13	1273.84
698.32	1234.93
698.50	1349.61
698.68	1216.49
698.87	1286.12
699.05	1290.22
699.24	1253.36
699.42	1282.03
699.61	1275.88
699.79	1245.16
699.97	1216.49
700.16	1206.25
700.34	1251.31
700.53	1337.32
700.71	1327.08
700.89	1216.49
701.08	1218.54
701.26	1308.65
701.45	1378.28
701.63	1200.11
701.81	1247.21
702.00	1304.56
702.18	1263.60
702.37	1234.93
702.55	1277.93
702.73	1296.36
702.92	1263.60
703.10	1277.93
703.28	1275.88
703.47	1198.06
703.65	1290.22
703.84	1193.97
704.02	1273.84
704.20	1228.78
704.39	1269.74
704.57	1279.98
704.75	1306.60
704.94	1265.64
705.12	1308.65
705.30	1275.88
705.49	1312.75
705.67	1171.44
705.86	1232.88
706.04	1282.03
706.22	1234.93
706.41	1294.32
706.59	1296.36
706.77	1261.55
706.96	1277.93
707.14	1189.87
707.32	1226.73
707.51	1296.36
707.69	1251.31
707.87	1335.28
708.06	1339.37
708.24	1296.36
708.42	1259.50
708.61	1273.84
708.79	1308.65
708.97	1236.97
709.16	1322.99
709.34	1351.66
709.52	1304.56
709.71	1249.26
709.89	1261.55
710.07	1249.26
710.26	1206.25
710.44	1318.89
710.62	1236.97
710.80	1243.12
710.99	1288.17
711.17	1298.41
711.35	1275.88
711.54	1265.64
711.72	1255.40
711.90	1310.70
712.09	1241.07
712.27	1257.45
712.45	1325.04
712.63	1187.82
712.82	1298.41
713.00	1312.75
713.18	1265.64
713.37	1316.84
713.55	1312.75
713.73	1267.69
713.91	1265.64
714.10	1263.60
714.28	1234.93
714.46	1200.11
714.65	1193.97
714.83	1271.79
715.01	1290.22
715.19	1310.70
715.38	1308.65
715.56	1277.93
715.74	1298.41
715.92	1265.64
716.11	1282.03
716.29	1296.36
716.47	1331.18
716.65	1251.31
716.84	1257.45
717.02	1193.97
717.20	1261.55
717.38	1288.17
717.57	1265.64
717.75	1306.60
717.93	1249.26
718.11	1265.64
718.30	1286.12
718.48	1269.74
718.66	1290.22
718.84	1294.32
719.03	1269.74
719.21	1380.33
719.39	1255.40
719.57	1222.64
719.75	1253.36
719.94	1239.02
720.12	1310.70
720.30	1261.55
720.48	1193.97
720.67	1232.88
720.85	1355.76
721.03	1290.22
721.21	1247.21
721.39	1251.31
721.58	1290.22
721.76	1296.36
721.94	1167.34
722.12	1269.74
722.30	1234.93
722.49	1257.45
722.67	1282.03
722.85	1277.93
723.03	1294.32
723.21	1206.25
723.40	1230.83
723.58	1200.11
723.76	1279.98
723.94	1279.98
724.12	1263.60
724.30	1279.98
724.49	1263.60
724.67	1200.11
724.85	1273.84
725.03	1292.27
725.21	1269.74
725.40	1290.22
725.58	1292.27
725.76	1232.88
725.94	1275.88
726.12	1226.73
726.30	1302.51
726.49	1288.17
726.67	1349.61
726.85	1193.97
727.03	1241.07
727.21	1318.89
727.39	1228.78
727.57	1277.93
727.76	1191.92
727.94	1284.08
728.12	1288.17
728.30	1275.88
728.48	1292.27
728.66	1345.52
728.84	1234.93
729.03	1327.08
729.21	1265.64
729.39	1294.32
729.57	1314.80
729.75	1296.36
729.93	1255.40
730.11	1296.36
730.30	1247.21
730.48	1247.21
730.66	1388.52
730.84	1286.12
731.02	1193.97
731.20	1292.27
731.38	1200.11
731.56	1222.64
731.74	1210.35
731.93	1253.36
732.11	1249.26
732.29	1255.40
732.47	1294.32
732.65	1292.27
732.83	1208.30
733.01	1243.12
733.19	1267.69
733.37	1269.74
733.56	1210.35
733.74	1288.17
733.92	1279.98
734.10	1290.22
734.28	1200.11
734.46	1306.60
734.64	1296.36
734.82	1249.26
735.00	1292.27
735.18	1236.97
735.36	1239.02
735.54	1310.70
735.73	1241.07
735.91	1269.74
736.09	1251.31
736.27	1282.03
736.45	1232.88
736.63	1359.85
736.81	1243.12
736.99	1304.56
737.17	1255.40
737.35	1290.22
737.53	1259.50
737.71	1296.36
737.89	1255.40
738.07	1255.40
738.25	1292.27
738.43	1345.52
738.61	1251.31
738.80	1271.79
738.98	1204.21
739.16	1245.16
739.34	1312.75
739.52	1263.60
739.70	1269.74
739.88	1269.74
740.06	1290.22
740.24	1193.97
740.42	1277.93
740.60	1253.36
740.78	1236.97
740.96	1236.97
741.14	1314.80
741.32	1267.69
741.50	1245.16
741.68	1329.13
741.86	1277.93
742.04	1275.88
742.22	1318.89
742.40	1302.51
742.58	1202.16
742.76	1239.02
742.94	1220.59
743.12	1247.21
743.30	1257.45
743.48	1257.45
743.66	1300.46
743.84	1302.51
744.02	1181.68
744.20	1292.27
744.38	1288.17
744.56	1306.60
744.74	1234.93
744.92	1257.45
745.10	1298.41
745.28	1265.64
745.46	1261.55
745.64	1210.35
745.82	1245.16
746.00	1312.75
746.18	1290.22
746.36	1275.88
746.54	1183.73
746.72	1212.40
746.90	1255.40
747.08	1337.32
747.26	1239.02
747.44	1325.04
747.62	1263.60
747.80	1298.41
747.98	1236.97
748.15	1249.26
748.33	1318.89
748.51	1302.51
748.69	1255.40
748.87	1255.40
749.05	1316.84
749.23	1181.68
749.41	1288.17
749.59	1306.60
749.77	1300.46
749.95	1249.26
750.13	1167.34
750.31	1335.28
750.49	1208.30
750.67	1314.80
750.85	1257.45
751.03	1220.59
751.20	1255.40
751.38	1273.84
751.56	1306.60
751.74	1241.07
751.92	1265.64
752.10	1263.60
752.28	1236.97
752.46	1208.30
752.64	1228.78
752.82	1282.03
753.00	1241.07
753.18	1251.31
753.35	1286.12
753.53	1208.30
753.71	1255.40
753.89	1212.40
754.07	1310.70
754.25	1282.03
754.43	1236.97
754.61	1224.69
754.79	1259.50
754.97	1239.02
755.14	1241.07
755.32	1220.59
755.50	1234.93
755.68	1273.84
755.86	1222.64
756.04	1275.88
756.22	1279.98
756.40	1275.88
756.57	1183.73
756.75	1255.40
756.93	1210.35
757.11	1232.88
757.29	1249.26
757.47	1292.27
757.65	1290.22
757.82	1288.17
758.00	1259.50
758.18	1265.64
758.36	1228.78
758.54	1220.59
758.72	1218.54
758.90	1290.22
759.07	1261.55
759.25	1247.21
759.43	1357.80
759.61	1239.02
759.79	1298.41
759.97	1282.03
760.15	1294.32
760.32	1279.98
760.50	1286.12
760.68	1308.65
760.86	1353.71
761.04	1255.40
761.22	1257.45
761.39	1304.56
761.57	1339.37
761.75	1296.36
761.93	1263.60
762.11	1312.75
762.28	1232.88
762.46	1263.60
762.64	1257.45
762.82	1294.32
763.00	1255.40
763.18	1226.73
763.35	1175.53
763.53	1275.88
763.71	1243.12
763.89	1290.22
764.07	1220.59
764.24	1300.46
764.42	1294.32
764.60	1249.26
764.78	1263.60
764.96	1236.97
765.13	1282.03
765.31	1257.45
765.49	1230.83
765.67	1259.50
765.84	1228.78
766.02	1271.79
766.20	1273.84
766.38	1255.40
766.56	1263.60
766.73	1294.32
766.91	1273.84
767.09	1257.45
767.27	1296.36
767.44	1271.79
767.62	1239.02
767.80	1239.02
767.98	1179.63
768.15	1267.69
768.33	1298.41
768.51	1302.51
768.69	1208.30
768.87	1263.60
769.04	1191.92
769.22	1257.45
769.40	1255.40
769.58	1345.52
769.75	1247.21
769.93	1322.99
770.11	1249.26
770.28	1232.88
770.46	1222.64
770.64	1232.88
770.82	1265.64
770.99	1273.84
771.17	1269.74
771.35	1273.84
771.53	1236.97
771.70	1226.73
771.88	1269.74
772.06	1257.45
772.23	1181.68
772.41	1277.93
772.59	1255.40
772.77	1304.56
772.94	1296.36
773.12	1255.40
773.30	1265.64
773.47	1312.75
773.65	1241.07
773.83	1363.95
774.01	1318.89
774.18	1288.17
774.36	1325.04
774.54	1210.35
774.71	1320.94
774.89	1232.88
775.07	1243.12
775.24	1277.93
775.42	1271.79
775.60	1294.32
775.78	1255.40
775.95	1239.02
776.13	1284.08
776.31	1259.50
776.48	1277.93
776.66	1236.97
776.84	1216.49
777.01	1183.73
777.19	1267.69
777.37	1265.64
777.54	1282.03
777.72	1228.78
777.90	1290.22
778.07	1202.16
778.25	1294.32
778.43	1220.59
778.60	1253.36
778.78	1245.16
778.96	1331.18
779.13	1236.97
779.31	1320.94
779.49	1253.36
779.66	1261.55
779.84	1212.40
780.01	1286.12
780.19	1347.56
780.37	1247.21
780.54	1290.22
780.72	1230.83
780.90	1296.36
781.07	1296.36
781.25	1239.02
781.43	1314.80
781.60	1251.31
781.78	1304.56
781.95	1259.50
782.13	1243.12
782.31	1277.93
782.48	1263.60
782.66	1220.59
782.83	1255.40
783.01	1191.92
783.19	1294.32
783.36	1253.36
783.54	1275.88
783.72	1273.84
783.89	1191.92
784.07	1222.64
784.24	1224.69
784.42	1228.78
784.60	1312.75
784.77	1279.98
784.95	1236.97
785.12	1269.74
785.30	1261.55
785.47	1210.35
785.65	1208.30
785.83	1327.08
786.00	1288.17
786.18	1273.84
786.35	1273.84
786.53	1222.64
786.71	1298.41
786.88	1298.41
787.06	1222.64
787.23	1200.11
787.41	1214.45
787.58	1236.97
787.76	1279.98
787.94	1247.21
788.11	1263.60
788.29	1261.55
788.46	1198.06
788.64	1271.79
788.81	1298.41
788.99	1271.79
789.16	1378.28
789.34	1230.83
789.52	1257.45
789.69	1255.40
789.87	1322.99
790.04	1275.88
790.22	1253.36
790.39	1251.31
790.57	1222.64
790.74	1275.88
790.92	1302.51
791.09	1273.84
791.27	1245.16
791.44	1284.08
791.62	1257.45
791.79	1241.07
791.97	1259.50
792.15	1296.36
792.32	1247.21
792.50	1273.84
792.67	1222.64
792.85	1181.68
793.02	1288.17
793.20	1263.60
793.37	1286.12
793.55	1312.75
793.72	1302.51
793.90	1314.80
794.07	1320.94
794.25	1208.30
794.42	1218.54
794.60	1298.41
794.77	1325.04
794.95	1232.88
795.12	1210.35
795.30	1255.40
795.47	1300.46
795.65	1271.79
795.82	1308.65
796.00	1247.21
796.17	1302.51
796.34	1294.32
796.52	1251.31
796.69	1325.04
796.87	1277.93
797.04	1302.51
797.22	1263.60
797.39	1257.45
797.57	1273.84
797.74	1331.18
797.92	1282.03
798.09	1234.93
798.27	1400.81
798.44	1243.12
798.62	1183.73
798.79	1306.60
798.96	1251.31
799.14	1243.12
799.31	1290.22
799.49	1257.45
799.66	1296.36
799.84	1216.49
800.01	1239.02
800.19	1347.56
800.36	1224.69
800.53	1277.93
800.71	1249.26
800.88	1273.84
801.06	1261.55
801.23	1230.83
801.41	1318.89
801.58	1368.04
801.75	1261.55
801.93	1257.45
802.10	1259.50
802.28	1290.22
802.45	1253.36
802.63	1413.10
802.80	1290.22
802.97	1267.69
803.15	1259.50
803.32	1271.79
803.50	1294.32
803.67	1312.75
803.84	1314.80
804.02	1273.84
804.19	1208.30
804.37	1245.16
804.54	1232.88
804.71	1314.80
804.89	1265.64
805.06	1234.93
805.24	1279.98
805.41	1288.17
805.58	1290.22
805.76	1273.84
805.93	1282.03
806.10	1220.59
806.28	1310.70
806.45	1265.64
806.63	1224.69
806.80	1294.32
806.97	1341.42
807.15	1243.12
807.32	1251.31
807.49	1275.88
807.67	1296.36
807.84	1269.74
808.01	1310.70
808.19	1314.80
808.36	1247.21
808.54	1208.30
808.71	1193.97
808.88	1257.45
809.06	1290.22
809.23	1296.36
809.40	1236.97
809.58	1322.99
809.75	1294.32
809.92	1294.32
810.10	1243.12
810.27	1265.64
810.44	1316.84
810.62	1259.50
810.79	1312.75
810.96	1212.40
811.14	1271.79
811.31	1277.93
811.48	1265.64
811.66	1257.45
811.83	1257.45
812.00	1314.80
812.18	1269.74
812.35	1312.75
812.52	1230.83
812.69	1306.60
812.87	1183.73
813.04	1263.60
813.21	1302.51
813.39	1329.13
813.56	1359.85
813.73	1329.13
813.91	1257.45
814.08	1294.32
814.25	1271.79
814.42	1282.03
814.60	1259.50
814.77	1275.88
814.94	1239.02
815.12	1243.12
815.29	1222.64
815.46	1273.84
815.63	1222.64
815.81	1277.93
815.98	1290.22
816.15	1247.21
816.33	1269.74
816.50	1294.32
816.67	1214.45
816.84	1265.64
817.02	1263.60
817.19	1214.45
817.36	1247.21
817.53	1265.64
817.71	1273.84
817.88	1271.79
818.05	1273.84
818.22	1273.84
818.40	1275.88
818.57	1310.70
818.74	1298.41
818.91	1226.73
819.09	1312.75
819.26	1234.93
819.43	1298.41
819.60	1212.40
819.78	1253.36
819.95	1236.97
820.12	1230.83
820.29	1249.26
820.47	1255.40
820.64	1265.64
820.81	1226.73
820.98	1230.83
821.15	1269.74
821.33	1245.16
821.50	1273.84
821.67	1290.22
821.84	1157.10
822.02	1282.03
822.19	1216.49
822.36	1314.80
822.53	1263.60
822.70	1198.06
822.88	1261.55
823.05	1279.98
823.22	1282.03
823.39	1312.75
823.56	1220.59
823.74	1284.08
823.91	1243.12
824.08	1302.51
824.25	1269.74
824.42	1253.36
824.60	1267.69
824.77	1259.50
824.94	1239.02
825.11	1239.02
825.28	1247.21
825.45	1288.17
825.63	1284.08
825.80	1232.88
825.97	1282.03
826.14	1247.21
826.31	1249.26
826.48	1265.64
826.66	1310.70
826.83	1298.41
827.00	1279.98
827.17	1284.08
827.34	1275.88
827.51	1277.93
827.69	1228.78
827.86	1284.08
828.03	1245.16
828.20	1337.32
828.37	1183.73
828.54	1263.60
828.71	1204.21
828.89	1286.12
829.06	1292.27
829.23	1286.12
829.40	1202.16
829.57	1263.60
829.74	1282.03
829.91	1277.93
830.09	1279.98
830.26	1249.26
830.43	1261.55
830.60	1263.60
830.77	1210.35
830.94	1314.80
831.11	1277.93
831.28	1224.69
831.46	1271.79
831.63	1267.69
831.80	1294.32
831.97	1241.07
832.14	1216.49
832.31	1155.05
832.48	1232.88
832.65	1267.69
832.82	1271.79
832.99	1265.64
833.17	1269.74
833.34	1249.26
833.51	1216.49
833.68	1200.11
833.85	1220.59
834.02	1222.64
834.19	1269.74
834.36	1269.74
834.53	1224.69
834.70	1288.17
834.87	1275.88
835.04	1214.45
835.22	1230.83
835.39	1331.18
835.56	1312.75
835.73	1259.50
835.90	1329.13
836.07	1290.22
836.24	1327.08
836.41	1292.27
836.58	1275.88
836.75	1308.65
836.92	1282.03
837.09	1257.45
837.26	1259.50
837.43	1222.64
837.60	1275.88
837.77	1292.27
837.94	1247.21
838.12	1294.32
838.29	1265.64
838.46	1220.59
838.63	1312.75
838.80	1224.69
838.97	1232.88
839.14	1361.90
839.31	1286.12
839.48	1302.51
839.65	1251.31
839.82	1263.60
839.99	1312.75
840.16	1220.59
840.33	1191.92
840.50	1273.84
840.67	1294.32
840.84	1314.80
841.01	1290.22
841.18	1320.94
841.35	1255.40
841.52	1257.45
841.69	1214.45
841.86	1282.03
842.03	1263.60
842.20	1316.84
842.37	1290.22
842.54	1304.56
842.71	1294.32
842.88	1325.04
843.05	1243.12
843.22	1253.36
843.39	1269.74
843.56	1230.83
843.73	1253.36
843.90	1318.89
844.07	1232.88
844.24	1304.56
844.41	1271.79
844.58	1279.98
844.75	1310.70
844.92	1308.65
845.09	1290.22
845.26	1263.60
845.43	1202.16
845.60	1300.46
845.77	1269.74
845.94	1316.84
846.10	1275.88
846.27	1239.02
846.44	1288.17
846.61	1265.64
846.78	1216.49
846.95	1337.32
847.12	1198.06
847.29	1275.88
847.46	1349.61
847.63	1304.56
847.80	1275.88
847.97	1241.07
848.14	1198.06
848.31	1255.40
848.48	1196.01
848.65	1232.88
848.82	1265.64
848.98	1325.04
849.15	1146.86
849.32	1331.18
849.49	1343.47
849.66	1251.31
849.83	1230.83
850.00	1292.27
850.17	1177.58
850.34	1224.69
850.51	1269.74
850.68	1347.56
850.85	1306.60
851.01	1265.64
851.18	1189.87
851.35	1247.21
851.52	1241.07
851.69	1241.07
851.86	1214.45
852.03	1224.69
852.20	1255.40
852.37	1187.82
852.53	1214.45
852.70	1247.21
852.87	1234.93
853.04	1236.97
853.21	1314.80
853.38	1327.08
853.55	1234.93
853.72	1310.70
853.89	1234.93
854.05	1275.88
854.22	1255.40
854.39	1398.76
854.56	1243.12
854.73	1236.97
854.90	1257.45
855.07	1239.02
855.23	1253.36
855.40	1294.32
855.57	1273.84
855.74	1265.64
855.91	1259.50
856.08	1265.64
856.25	1198.06
856.41	1339.37
856.58	1228.78
856.75	1322.99
856.92	1212.40
857.09	1261.55
857.26	1296.36
857.42	1236.97
857.59	1222.64
857.76	1253.36
857.93	1255.40
858.10	1259.50
858.27	1269.74
858.43	1288.17
858.60	1325.04
858.77	1249.26
858.94	1261.55
859.11	1288.17
859.27	1298.41
859.44	1247.21
859.61	1253.36
859.78	1296.36
859.95	1292.27
860.12	1288.17
860.28	1269.74
860.45	1253.36
860.62	1228.78
860.79	1243.12
860.95	1239.02
861.12	1306.60
861.29	1218.54
861.46	1345.52
861.63	1247.21
861.79	1159.15
861.96	1277.93
862.13	1243.12
862.30	1329.13
862.47	1267.69
862.63	1196.01
862.80	1296.36
862.97	1247.21
863.14	1284.08
863.30	1304.56
863.47	1282.03
863.64	1273.84
863.81	1269.74
863.97	1255.40
864.14	1224.69
864.31	1210.35
864.48	1339.37
864.65	1290.22
864.81	1279.98
864.98	1318.89
865.15	1253.36
865.32	1267.69
865.48	1300.46
865.65	1320.94
865.82	1304.56
865.98	1282.03
866.15	1304.56
866.32	1208.30
866.49	1290.22
866.65	1247.21
866.82	1284.08
866.99	1210.35
867.16	1308.65
867.32	1236.97
867.49	1239.02
867.66	1230.83
867.83	1288.17
867.99	1216.49
868.16	1226.73
868.33	1279.98
868.49	1284.08
868.66	1210.35
868.83	1222.64
868.99	1202.16
869.16	1290.22
869.33	1255.40
869.50	1279.98
869.66	1284.08
869.83	1261.55
870.00	1284.08
870.16	1327.08
870.33	1200.11
870.50	1304.56
870.66	1183.73
870.83	1224.69
871.00	1257.45
871.17	1263.60
871.33	1277.93
871.50	1198.06
871.67	1228.78
871.83	1247.21
872.00	1259.50
872.17	1214.45
872.33	1220.59
872.50	1202.16
872.67	1331.18
872.83	1333.23
873.00	1253.36
873.17	1214.45
873.33	1277.93
873.50	1294.32
873.67	1224.69
873.83	1241.07
874.00	1161.20
874.16	1228.78
874.33	1230.83
874.50	1208.30
874.66	1218.54
874.83	1241.07
875.00	1224.69
875.16	1202.16
875.33	1284.08
875.50	1284.08
875.66	1282.03
875.83	1292.27
875.99	1255.40
876.16	1222.64
876.33	1224.69
876.49	1279.98
876.66	1296.36
876.83	1263.60
876.99	1253.36
877.16	1304.56
877.32	1265.64
877.49	1249.26
877.66	1296.36
877.82	1261.55
877.99	1331.18
878.15	1241.07
878.32	1269.74
878.49	1263.60
878.65	1216.49
878.82	1306.60
878.98	1314.80
879.15	1318.89
879.32	1273.84
879.48	1288.17
879.65	1265.64
879.81	1206.25
879.98	1294.32
880.15	1314.80
880.31	1257.45
880.48	1263.60
880.64	1249.26
880.81	1175.53
880.97	1388.52
881.14	1300.46
881.31	1239.02
881.47	1290.22
881.64	1302.51
881.80	1282.03
881.97	1275.88
882.13	1234.93
882.30	1234.93
882.47	1302.51
882.63	1249.26
882.80	1232.88
882.96	1306.60
883.13	1286.12
883.29	1198.06
883.46	1296.36
883.62	1208.30
883.79	1310.70
883.95	1273.84
884.12	1288.17
884.29	1282.03
884.45	1220.59
884.62	1247.21
884.78	1310.70
884.95	1247.21
885.11	1294.32
885.28	1335.28
885.44	1327.08
885.61	1212.40
885.77	1212.40
885.94	1298.41
886.10	1300.46
886.27	1294.32
886.43	1234.93
886.60	1249.26
886.76	1302.51
886.93	1282.03
887.09	1325.04
887.26	1224.69
887.42	1292.27
887.59	1263.60
887.75	1220.59
887.92	1282.03
888.08	1255.40
888.25	1325.04
888.41	1347.56
888.58	1279.98
888.74	1232.88
888.91	1376.24
>>>>>End Processed Spectral Data<<<<<
