SpectraSuite Data File
++++++++++++++++++++++++++++++++++++
Date: Sun Apr 03 19:55:23 CEST 2016
User: root
Dark Spectrum Present: No
Reference Spectrum Present: No
Number of Sampled Component Spectra: 1
Spectrometers: USB4C02835
Integration Time (usec): 10000 (USB4C02835)
Spectra Averaged: 1 (USB4C02835)
Boxcar Smoothing: 0 (USB4C02835)
Correct for Electrical Dark: No (USB4C02835)
Strobe/Lamp Enabled: No (USB4C02835)
Correct for Detector Non-linearity: No (USB4C02835)
Correct for Stray Light: No (USB4C02835)
Number of Pixels in Processed Spectrum: 3648
>>>>>Begin Processed Spectral Data<<<<<
177.47	1269.74
177.69	1269.74
177.91	1269.74
178.13	1249.26
178.36	1273.84
178.58	1277.93
178.80	1212.40
179.02	1200.11
179.24	1259.50
179.46	1267.69
179.68	1333.23
179.90	1265.64
180.13	1253.36
180.35	1312.75
180.57	1236.97
180.79	1304.56
181.01	1277.93
181.23	1306.60
181.45	1306.60
181.67	1296.36
181.90	1306.60
182.12	1234.93
182.34	1234.93
182.56	1265.64
182.78	1290.22
183.00	1306.60
183.22	1275.88
183.44	1173.49
183.66	1329.13
183.89	1245.16
184.11	1251.31
184.33	1282.03
184.55	1277.93
184.77	1249.26
184.99	1245.16
185.21	1236.97
185.43	1290.22
185.65	1230.83
185.87	1257.45
186.10	1228.78
186.32	1255.40
186.54	1277.93
186.76	1294.32
186.98	1294.32
187.20	1363.95
187.42	1329.13
187.64	1208.30
187.86	1171.44
188.08	1282.03
188.30	1288.17
188.52	1234.93
188.75	1255.40
188.97	1345.52
189.19	1253.36
189.41	1331.18
189.63	1318.89
189.85	1290.22
190.07	1228.78
190.29	1279.98
190.51	1267.69
190.73	1320.94
190.95	1273.84
191.17	1284.08
191.39	1208.30
191.61	1314.80
191.84	1210.35
192.06	1310.70
192.28	1275.88
192.50	1243.12
192.72	1243.12
192.94	1273.84
193.16	1286.12
193.38	1279.98
193.60	1263.60
193.82	1241.07
194.04	1267.69
194.26	1257.45
194.48	1253.36
194.70	1267.69
194.92	1269.74
195.14	1286.12
195.36	1208.30
195.58	1277.93
195.80	1294.32
196.02	1234.93
196.24	1271.79
196.46	1306.60
196.69	1224.69
196.91	1327.08
197.13	1222.64
197.35	1267.69
197.57	1243.12
197.79	1224.69
198.01	1304.56
198.23	1282.03
198.45	1290.22
198.67	1288.17
198.89	1284.08
199.11	1314.80
199.33	1253.36
199.55	1265.64
199.77	1230.83
199.99	1222.64
200.21	1257.45
200.43	1282.03
200.65	1294.32
200.87	1304.56
201.09	1308.65
201.31	1265.64
201.53	1263.60
201.75	1316.84
201.97	1249.26
202.19	1245.16
202.41	1257.45
202.63	1261.55
202.85	1257.45
203.07	1294.32
203.29	1275.88
203.51	1296.36
203.73	1273.84
203.95	1284.08
204.17	1265.64
204.39	1257.45
204.61	1234.93
204.83	1294.32
205.05	1265.64
205.27	1269.74
205.49	1298.41
205.71	1253.36
205.93	1259.50
206.15	1347.56
206.37	1243.12
206.59	1273.84
206.81	1241.07
207.03	1200.11
207.25	1300.46
207.47	1302.51
207.69	1257.45
207.91	1277.93
208.13	1306.60
208.34	1320.94
208.56	1277.93
208.78	1329.13
209.00	1259.50
209.22	1247.21
209.44	1288.17
209.66	1298.41
209.88	1318.89
210.10	1320.94
210.32	1271.79
210.54	1282.03
210.76	1292.27
210.98	1275.88
211.20	1253.36
211.42	1294.32
211.64	1314.80
211.86	1226.73
212.08	1298.41
212.30	1222.64
212.52	1196.01
212.74	1243.12
212.96	1249.26
213.17	1312.75
213.39	1282.03
213.61	1271.79
213.83	1214.45
214.05	1292.27
214.27	1300.46
214.49	1306.60
214.71	1263.60
214.93	1294.32
215.15	1288.17
215.37	1245.16
215.59	1193.97
215.81	1253.36
216.03	1253.36
216.24	1294.32
216.46	1239.02
216.68	1271.79
216.90	1230.83
217.12	1302.51
217.34	1220.59
217.56	1241.07
217.78	1155.05
218.00	1286.12
218.22	1341.42
218.44	1279.98
218.66	1206.25
218.87	1310.70
219.09	1269.74
219.31	1245.16
219.53	1259.50
219.75	1241.07
219.97	1290.22
220.19	1320.94
220.41	1200.11
220.63	1275.88
220.85	1255.40
221.06	1232.88
221.28	1314.80
221.50	1277.93
221.72	1265.64
221.94	1232.88
222.16	1245.16
222.38	1230.83
222.60	1183.73
222.82	1282.03
223.03	1230.83
223.25	1343.47
223.47	1286.12
223.69	1251.31
223.91	1261.55
224.13	1279.98
224.35	1271.79
224.57	1273.84
224.78	1296.36
225.00	1306.60
225.22	1241.07
225.44	1337.32
225.66	1302.51
225.88	1269.74
226.10	1322.99
226.32	1234.93
226.53	1325.04
226.75	1269.74
226.97	1234.93
227.19	1302.51
227.41	1331.18
227.63	1306.60
227.85	1290.22
228.06	1251.31
228.28	1333.23
228.50	1279.98
228.72	1269.74
228.94	1290.22
229.16	1277.93
229.37	1206.25
229.59	1269.74
229.81	1279.98
230.03	1245.16
230.25	1181.68
230.47	1234.93
230.69	1275.88
230.90	1263.60
231.12	1263.60
231.34	1210.35
231.56	1302.51
231.78	1224.69
232.00	1269.74
232.21	1308.65
232.43	1234.93
232.65	1257.45
232.87	1200.11
233.09	1335.28
233.30	1228.78
233.52	1277.93
233.74	1277.93
233.96	1314.80
234.18	1265.64
234.40	1140.72
234.61	1232.88
234.83	1175.53
235.05	1243.12
235.27	1322.99
235.49	1226.73
235.70	1300.46
235.92	1265.64
236.14	1204.21
236.36	1277.93
236.58	1210.35
236.79	1273.84
237.01	1253.36
237.23	1337.32
237.45	1284.08
237.67	1263.60
237.88	1316.84
238.10	1163.25
238.32	1232.88
238.54	1296.36
238.76	1288.17
238.97	1302.51
239.19	1251.31
239.41	1232.88
239.63	1251.31
239.85	1247.21
240.06	1255.40
240.28	1265.64
240.50	1296.36
240.72	1308.65
240.93	1290.22
241.15	1282.03
241.37	1234.93
241.59	1275.88
241.81	1269.74
242.02	1279.98
242.24	1263.60
242.46	1230.83
242.68	1355.76
242.89	1306.60
243.11	1257.45
243.33	1308.65
243.55	1220.59
243.76	1230.83
243.98	1224.69
244.20	1304.56
244.42	1255.40
244.64	1255.40
244.85	1273.84
245.07	1345.52
245.29	1222.64
245.51	1275.88
245.72	1257.45
245.94	1216.49
246.16	1273.84
246.38	1210.35
246.59	1320.94
246.81	1296.36
247.03	1251.31
247.24	1294.32
247.46	1275.88
247.68	1288.17
247.90	1234.93
248.11	1271.79
248.33	1296.36
248.55	1253.36
248.77	1249.26
248.98	1329.13
249.20	1228.78
249.42	1261.55
249.64	1241.07
249.85	1284.08
250.07	1306.60
250.29	1279.98
250.50	1271.79
250.72	1273.84
250.94	1257.45
251.16	1249.26
251.37	1302.51
251.59	1282.03
251.81	1224.69
252.02	1290.22
252.24	1269.74
252.46	1374.19
252.68	1273.84
252.89	1243.12
253.11	1286.12
253.33	1241.07
253.54	1257.45
253.76	1310.70
253.98	1275.88
254.20	1282.03
254.41	1216.49
254.63	1257.45
254.85	1236.97
255.06	1247.21
255.28	1363.95
255.50	1271.79
255.71	1298.41
255.93	1257.45
256.15	1292.27
256.36	1222.64
256.58	1286.12
256.80	1249.26
257.02	1308.65
257.23	1263.60
257.45	1282.03
257.67	1327.08
257.88	1255.40
258.10	1243.12
258.32	1239.02
258.53	1279.98
258.75	1255.40
258.97	1294.32
259.18	1230.83
259.40	1304.56
259.62	1236.97
259.83	1251.31
260.05	1259.50
260.27	1232.88
260.48	1308.65
260.70	1325.04
260.92	1282.03
261.13	1322.99
261.35	1269.74
261.57	1241.07
261.78	1257.45
262.00	1279.98
262.22	1271.79
262.43	1286.12
262.65	1306.60
262.86	1292.27
263.08	1200.11
263.30	1271.79
263.51	1222.64
263.73	1265.64
263.95	1234.93
264.16	1239.02
264.38	1265.64
264.60	1247.21
264.81	1300.46
265.03	1234.93
265.25	1181.68
265.46	1255.40
265.68	1339.37
265.89	1271.79
266.11	1224.69
266.33	1257.45
266.54	1310.70
266.76	1206.25
266.98	1251.31
267.19	1312.75
267.41	1300.46
267.62	1279.98
267.84	1222.64
268.06	1302.51
268.27	1312.75
268.49	1271.79
268.70	1261.55
268.92	1232.88
269.14	1208.30
269.35	1345.52
269.57	1282.03
269.79	1249.26
270.00	1239.02
270.22	1247.21
270.43	1234.93
270.65	1253.36
270.87	1277.93
271.08	1273.84
271.30	1279.98
271.51	1265.64
271.73	1249.26
271.95	1273.84
272.16	1294.32
272.38	1308.65
272.59	1318.89
272.81	1232.88
273.02	1286.12
273.24	1308.65
273.46	1267.69
273.67	1239.02
273.89	1216.49
274.10	1288.17
274.32	1284.08
274.54	1224.69
274.75	1337.32
274.97	1261.55
275.18	1241.07
275.40	1263.60
275.61	1279.98
275.83	1357.80
276.05	1290.22
276.26	1263.60
276.48	1288.17
276.69	1308.65
276.91	1198.06
277.12	1329.13
277.34	1312.75
277.55	1343.47
277.77	1220.59
277.99	1279.98
278.20	1286.12
278.42	1206.25
278.63	1253.36
278.85	1277.93
279.06	1302.51
279.28	1263.60
279.49	1331.18
279.71	1298.41
279.93	1236.97
280.14	1275.88
280.36	1241.07
280.57	1255.40
280.79	1308.65
281.00	1144.81
281.22	1232.88
281.43	1232.88
281.65	1230.83
281.86	1243.12
282.08	1218.54
282.29	1318.89
282.51	1249.26
282.73	1200.11
282.94	1218.54
283.16	1267.69
283.37	1286.12
283.59	1239.02
283.80	1257.45
284.02	1277.93
284.23	1347.56
284.45	1353.71
284.66	1353.71
284.88	1298.41
285.09	1183.73
285.31	1239.02
285.52	1357.80
285.74	1224.69
285.95	1191.92
286.17	1275.88
286.38	1288.17
286.60	1300.46
286.81	1261.55
287.03	1206.25
287.24	1298.41
287.46	1343.47
287.67	1329.13
287.89	1331.18
288.10	1267.69
288.32	1286.12
288.53	1236.97
288.75	1259.50
288.96	1282.03
289.18	1265.64
289.39	1306.60
289.61	1253.36
289.82	1290.22
290.04	1263.60
290.25	1273.84
290.47	1247.21
290.68	1370.09
290.90	1314.80
291.11	1294.32
291.33	1294.32
291.54	1243.12
291.76	1288.17
291.97	1296.36
292.18	1322.99
292.40	1259.50
292.61	1269.74
292.83	1269.74
293.04	1243.12
293.26	1310.70
293.47	1284.08
293.69	1273.84
293.90	1335.28
294.12	1251.31
294.33	1273.84
294.55	1257.45
294.76	1300.46
294.97	1263.60
295.19	1318.89
295.40	1314.80
295.62	1236.97
295.83	1185.77
296.05	1302.51
296.26	1304.56
296.48	1177.58
296.69	1279.98
296.90	1306.60
297.12	1282.03
297.33	1271.79
297.55	1288.17
297.76	1302.51
297.98	1304.56
298.19	1216.49
298.41	1232.88
298.62	1234.93
298.83	1290.22
299.05	1333.23
299.26	1218.54
299.48	1265.64
299.69	1306.60
299.90	1275.88
300.12	1298.41
300.33	1325.04
300.55	1181.68
300.76	1249.26
300.98	1247.21
301.19	1183.73
301.40	1224.69
301.62	1228.78
301.83	1279.98
302.05	1236.97
302.26	1224.69
302.47	1241.07
302.69	1261.55
302.90	1259.50
303.12	1216.49
303.33	1361.90
303.54	1310.70
303.76	1212.40
303.97	1302.51
304.19	1298.41
304.40	1284.08
304.61	1241.07
304.83	1290.22
305.04	1288.17
305.26	1282.03
305.47	1327.08
305.68	1265.64
305.90	1232.88
306.11	1263.60
306.33	1142.77
306.54	1241.07
306.75	1193.97
306.97	1269.74
307.18	1261.55
307.39	1255.40
307.61	1298.41
307.82	1241.07
308.04	1302.51
308.25	1243.12
308.46	1282.03
308.68	1234.93
308.89	1275.88
309.10	1308.65
309.32	1298.41
309.53	1245.16
309.74	1279.98
309.96	1259.50
310.17	1282.03
310.39	1208.30
310.60	1269.74
310.81	1316.84
311.03	1271.79
311.24	1247.21
311.45	1245.16
311.67	1314.80
311.88	1224.69
312.09	1290.22
312.31	1249.26
312.52	1243.12
312.73	1290.22
312.95	1304.56
313.16	1200.11
313.37	1241.07
313.59	1331.18
313.80	1306.60
314.01	1282.03
314.23	1263.60
314.44	1267.69
314.65	1275.88
314.87	1304.56
315.08	1257.45
315.29	1329.13
315.51	1273.84
315.72	1279.98
315.93	1265.64
316.15	1196.01
316.36	1265.64
316.57	1292.27
316.79	1269.74
317.00	1269.74
317.21	1226.73
317.43	1284.08
317.64	1290.22
317.85	1230.83
318.07	1249.26
318.28	1298.41
318.49	1267.69
318.70	1318.89
318.92	1265.64
319.13	1306.60
319.34	1331.18
319.56	1261.55
319.77	1279.98
319.98	1236.97
320.20	1357.80
320.41	1267.69
320.62	1331.18
320.83	1187.82
321.05	1333.23
321.26	1286.12
321.47	1337.32
321.69	1263.60
321.90	1271.79
322.11	1290.22
322.32	1251.31
322.54	1310.70
322.75	1191.92
322.96	1304.56
323.18	1275.88
323.39	1191.92
323.60	1296.36
323.81	1249.26
324.03	1249.26
324.24	1302.51
324.45	1214.45
324.66	1249.26
324.88	1265.64
325.09	1288.17
325.30	1316.84
325.52	1212.40
325.73	1300.46
325.94	1232.88
326.15	1257.45
326.37	1261.55
326.58	1241.07
326.79	1271.79
327.00	1241.07
327.22	1247.21
327.43	1265.64
327.64	1302.51
327.85	1314.80
328.07	1282.03
328.28	1236.97
328.49	1304.56
328.70	1304.56
328.92	1284.08
329.13	1282.03
329.34	1275.88
329.55	1232.88
329.76	1251.31
329.98	1236.97
330.19	1288.17
330.40	1255.40
330.61	1255.40
330.83	1306.60
331.04	1302.51
331.25	1193.97
331.46	1265.64
331.68	1294.32
331.89	1224.69
332.10	1282.03
332.31	1214.45
332.52	1247.21
332.74	1200.11
332.95	1181.68
333.16	1322.99
333.37	1265.64
333.58	1230.83
333.80	1257.45
334.01	1294.32
334.22	1220.59
334.43	1236.97
334.64	1253.36
334.86	1267.69
335.07	1296.36
335.28	1255.40
335.49	1230.83
335.70	1253.36
335.92	1300.46
336.13	1234.93
336.34	1241.07
336.55	1312.75
336.76	1277.93
336.98	1236.97
337.19	1232.88
337.40	1249.26
337.61	1259.50
337.82	1226.73
338.04	1302.51
338.25	1232.88
338.46	1224.69
338.67	1304.56
338.88	1179.63
339.09	1230.83
339.31	1249.26
339.52	1253.36
339.73	1230.83
339.94	1288.17
340.15	1275.88
340.36	1191.92
340.58	1294.32
340.79	1263.60
341.00	1327.08
341.21	1273.84
341.42	1273.84
341.63	1253.36
341.85	1312.75
342.06	1320.94
342.27	1251.31
342.48	1279.98
342.69	1206.25
342.90	1232.88
343.12	1269.74
343.33	1265.64
343.54	1224.69
343.75	1183.73
343.96	1241.07
344.17	1290.22
344.38	1304.56
344.60	1290.22
344.81	1273.84
345.02	1257.45
345.23	1255.40
345.44	1259.50
345.65	1327.08
345.86	1298.41
346.07	1230.83
346.29	1300.46
346.50	1318.89
346.71	1312.75
346.92	1220.59
347.13	1310.70
347.34	1259.50
347.55	1282.03
347.76	1239.02
347.98	1300.46
348.19	1212.40
348.40	1300.46
348.61	1269.74
348.82	1222.64
349.03	1236.97
349.24	1337.32
349.45	1210.35
349.66	1208.30
349.88	1259.50
350.09	1228.78
350.30	1304.56
350.51	1255.40
350.72	1286.12
350.93	1263.60
351.14	1298.41
351.35	1224.69
351.56	1292.27
351.77	1306.60
351.99	1216.49
352.20	1312.75
352.41	1339.37
352.62	1196.01
352.83	1255.40
353.04	1191.92
353.25	1282.03
353.46	1286.12
353.67	1204.21
353.88	1292.27
354.09	1318.89
354.30	1243.12
354.52	1284.08
354.73	1259.50
354.94	1284.08
355.15	1241.07
355.36	1255.40
355.57	1353.71
355.78	1277.93
355.99	1249.26
356.20	1222.64
356.41	1290.22
356.62	1241.07
356.83	1306.60
357.04	1243.12
357.25	1271.79
357.46	1236.97
357.68	1318.89
357.89	1224.69
358.10	1298.41
358.31	1214.45
358.52	1306.60
358.73	1247.21
358.94	1245.16
359.15	1312.75
359.36	1224.69
359.57	1279.98
359.78	1314.80
359.99	1329.13
360.20	1322.99
360.41	1245.16
360.62	1339.37
360.83	1269.74
361.04	1206.25
361.25	1259.50
361.46	1271.79
361.67	1222.64
361.88	1277.93
362.09	1279.98
362.30	1294.32
362.51	1255.40
362.72	1247.21
362.93	1277.93
363.14	1296.36
363.35	1234.93
363.56	1314.80
363.78	1257.45
363.99	1320.94
364.20	1271.79
364.41	1292.27
364.62	1257.45
364.83	1290.22
365.04	1189.87
365.25	1257.45
365.46	1306.60
365.67	1275.88
365.88	1247.21
366.09	1247.21
366.30	1277.93
366.51	1273.84
366.72	1222.64
366.93	1251.31
367.14	1320.94
367.35	1204.21
367.56	1234.93
367.77	1257.45
367.98	1236.97
368.18	1265.64
368.39	1290.22
368.60	1298.41
368.81	1241.07
369.02	1320.94
369.23	1263.60
369.44	1304.56
369.65	1273.84
369.86	1292.27
370.07	1298.41
370.28	1253.36
370.49	1216.49
370.70	1279.98
370.91	1173.49
371.12	1282.03
371.33	1214.45
371.54	1275.88
371.75	1255.40
371.96	1257.45
372.17	1282.03
372.38	1310.70
372.59	1345.52
372.80	1220.59
373.01	1306.60
373.22	1296.36
373.43	1337.32
373.64	1325.04
373.85	1183.73
374.06	1288.17
374.26	1222.64
374.47	1273.84
374.68	1255.40
374.89	1257.45
375.10	1230.83
375.31	1300.46
375.52	1206.25
375.73	1257.45
375.94	1208.30
376.15	1279.98
376.36	1259.50
376.57	1290.22
376.78	1271.79
376.99	1257.45
377.20	1232.88
377.40	1261.55
377.61	1277.93
377.82	1224.69
378.03	1333.23
378.24	1263.60
378.45	1265.64
378.66	1302.51
378.87	1261.55
379.08	1322.99
379.29	1208.30
379.50	1236.97
379.71	1282.03
379.91	1298.41
380.12	1187.82
380.33	1282.03
380.54	1320.94
380.75	1228.78
380.96	1263.60
381.17	1214.45
381.38	1210.35
381.59	1257.45
381.80	1187.82
382.00	1284.08
382.21	1261.55
382.42	1318.89
382.63	1339.37
382.84	1271.79
383.05	1277.93
383.26	1263.60
383.47	1314.80
383.68	1290.22
383.88	1249.26
384.09	1312.75
384.30	1292.27
384.51	1218.54
384.72	1290.22
384.93	1310.70
385.14	1294.32
385.35	1302.51
385.55	1212.40
385.76	1257.45
385.97	1304.56
386.18	1298.41
386.39	1245.16
386.60	1257.45
386.81	1269.74
387.02	1265.64
387.22	1269.74
387.43	1253.36
387.64	1261.55
387.85	1304.56
388.06	1232.88
388.27	1333.23
388.48	1247.21
388.68	1298.41
388.89	1327.08
389.10	1298.41
389.31	1216.49
389.52	1298.41
389.73	1257.45
389.93	1284.08
390.14	1304.56
390.35	1273.84
390.56	1316.84
390.77	1241.07
390.98	1222.64
391.18	1255.40
391.39	1204.21
391.60	1216.49
391.81	1292.27
392.02	1232.88
392.23	1337.32
392.43	1271.79
392.64	1290.22
392.85	1228.78
393.06	1243.12
393.27	1300.46
393.47	1216.49
393.68	1204.21
393.89	1224.69
394.10	1277.93
394.31	1296.36
394.52	1306.60
394.72	1298.41
394.93	1279.98
395.14	1339.37
395.35	1251.31
395.56	1292.27
395.76	1159.15
395.97	1316.84
396.18	1228.78
396.39	1296.36
396.60	1312.75
396.80	1292.27
397.01	1304.56
397.22	1265.64
397.43	1269.74
397.64	1249.26
397.84	1357.80
398.05	1267.69
398.26	1322.99
398.47	1200.11
398.67	1236.97
398.88	1263.60
399.09	1265.64
399.30	1331.18
399.51	1269.74
399.71	1296.36
399.92	1290.22
400.13	1208.30
400.34	1255.40
400.54	1290.22
400.75	1251.31
400.96	1183.73
401.17	1234.93
401.37	1310.70
401.58	1267.69
401.79	1277.93
402.00	1282.03
402.21	1292.27
402.41	1263.60
402.62	1234.93
402.83	1228.78
403.04	1210.35
403.24	1267.69
403.45	1298.41
403.66	1255.40
403.87	1290.22
404.07	1263.60
404.28	1214.45
404.49	1314.80
404.70	1253.36
404.90	1271.79
405.11	1236.97
405.32	1316.84
405.52	1241.07
405.73	1269.74
405.94	1298.41
406.15	1288.17
406.35	1216.49
406.56	1271.79
406.77	1214.45
406.98	1224.69
407.18	1261.55
407.39	1304.56
407.60	1308.65
407.80	1370.09
408.01	1290.22
408.22	1292.27
408.43	1245.16
408.63	1224.69
408.84	1241.07
409.05	1265.64
409.25	1255.40
409.46	1245.16
409.67	1257.45
409.88	1249.26
410.08	1243.12
410.29	1265.64
410.50	1290.22
410.70	1224.69
410.91	1241.07
411.12	1263.60
411.32	1224.69
411.53	1259.50
411.74	1337.32
411.95	1286.12
412.15	1290.22
412.36	1347.56
412.57	1296.36
412.77	1288.17
412.98	1251.31
413.19	1232.88
413.39	1183.73
413.60	1318.89
413.81	1310.70
414.01	1200.11
414.22	1300.46
414.43	1273.84
414.63	1269.74
414.84	1218.54
415.05	1210.35
415.25	1269.74
415.46	1255.40
415.67	1322.99
415.87	1290.22
416.08	1347.56
416.29	1282.03
416.49	1241.07
416.70	1265.64
416.91	1265.64
417.11	1322.99
417.32	1335.28
417.53	1314.80
417.73	1294.32
417.94	1259.50
418.15	1290.22
418.35	1290.22
418.56	1298.41
418.77	1302.51
418.97	1259.50
419.18	1314.80
419.38	1298.41
419.59	1212.40
419.80	1329.13
420.00	1306.60
420.21	1288.17
420.42	1284.08
420.62	1212.40
420.83	1226.73
421.04	1294.32
421.24	1290.22
421.45	1267.69
421.65	1351.66
421.86	1232.88
422.07	1288.17
422.27	1296.36
422.48	1208.30
422.69	1261.55
422.89	1241.07
423.10	1247.21
423.30	1249.26
423.51	1265.64
423.72	1161.20
423.92	1298.41
424.13	1193.97
424.33	1265.64
424.54	1206.25
424.75	1298.41
424.95	1202.16
425.16	1312.75
425.36	1306.60
425.57	1247.21
425.78	1312.75
425.98	1306.60
426.19	1212.40
426.39	1347.56
426.60	1189.87
426.81	1343.47
427.01	1271.79
427.22	1243.12
427.42	1273.84
427.63	1224.69
427.83	1243.12
428.04	1265.64
428.25	1253.36
428.45	1345.52
428.66	1267.69
428.86	1304.56
429.07	1200.11
429.28	1314.80
429.48	1298.41
429.69	1243.12
429.89	1304.56
430.10	1259.50
430.30	1339.37
430.51	1267.69
430.71	1257.45
430.92	1325.04
431.13	1310.70
431.33	1282.03
431.54	1265.64
431.74	1206.25
431.95	1243.12
432.15	1292.27
432.36	1275.88
432.56	1325.04
432.77	1288.17
432.98	1314.80
433.18	1257.45
433.39	1282.03
433.59	1304.56
433.80	1308.65
434.00	1310.70
434.21	1261.55
434.41	1200.11
434.62	1247.21
434.82	1200.11
435.03	1236.97
435.23	1206.25
435.44	1232.88
435.64	1226.73
435.85	1263.60
436.06	1290.22
436.26	1310.70
436.47	1261.55
436.67	1292.27
436.88	1253.36
437.08	1304.56
437.29	1200.11
437.49	1284.08
437.70	1275.88
437.90	1288.17
438.11	1302.51
438.31	1269.74
438.52	1212.40
438.72	1300.46
438.93	1298.41
439.13	1322.99
439.34	1277.93
439.54	1230.83
439.75	1310.70
439.95	1296.36
440.16	1304.56
440.36	1263.60
440.57	1284.08
440.77	1261.55
440.98	1239.02
441.18	1241.07
441.39	1257.45
441.59	1329.13
441.80	1257.45
442.00	1325.04
442.21	1245.16
442.41	1226.73
442.62	1261.55
442.82	1251.31
443.02	1249.26
443.23	1304.56
443.43	1236.97
443.64	1290.22
443.84	1284.08
444.05	1345.52
444.25	1306.60
444.46	1279.98
444.66	1296.36
444.87	1277.93
445.07	1290.22
445.28	1271.79
445.48	1310.70
445.69	1282.03
445.89	1288.17
446.09	1232.88
446.30	1247.21
446.50	1257.45
446.71	1245.16
446.91	1290.22
447.12	1269.74
447.32	1318.89
447.53	1363.95
447.73	1306.60
447.93	1257.45
448.14	1294.32
448.34	1298.41
448.55	1210.35
448.75	1251.31
448.96	1261.55
449.16	1212.40
449.36	1277.93
449.57	1251.31
449.77	1236.97
449.98	1312.75
450.18	1222.64
450.39	1263.60
450.59	1279.98
450.79	1286.12
451.00	1294.32
451.20	1310.70
451.41	1273.84
451.61	1277.93
451.81	1302.51
452.02	1200.11
452.22	1267.69
452.43	1327.08
452.63	1292.27
452.84	1279.98
453.04	1320.94
453.24	1290.22
453.45	1263.60
453.65	1282.03
453.86	1206.25
454.06	1251.31
454.26	1232.88
454.47	1253.36
454.67	1249.26
454.87	1290.22
455.08	1234.93
455.28	1314.80
455.49	1241.07
455.69	1243.12
455.89	1349.61
456.10	1273.84
456.30	1325.04
456.51	1304.56
456.71	1251.31
456.91	1253.36
457.12	1196.01
457.32	1249.26
457.52	1263.60
457.73	1279.98
457.93	1216.49
458.14	1306.60
458.34	1247.21
458.54	1255.40
458.75	1304.56
458.95	1294.32
459.15	1253.36
459.36	1239.02
459.56	1230.83
459.76	1304.56
459.97	1200.11
460.17	1312.75
460.37	1208.30
460.58	1239.02
460.78	1314.80
460.99	1230.83
461.19	1257.45
461.39	1286.12
461.60	1212.40
461.80	1288.17
462.00	1294.32
462.21	1257.45
462.41	1271.79
462.61	1312.75
462.82	1239.02
463.02	1239.02
463.22	1257.45
463.43	1271.79
463.63	1275.88
463.83	1290.22
464.04	1265.64
464.24	1271.79
464.44	1290.22
464.64	1341.42
464.85	1273.84
465.05	1294.32
465.25	1304.56
465.46	1243.12
465.66	1269.74
465.86	1320.94
466.07	1239.02
466.27	1241.07
466.47	1304.56
466.68	1216.49
466.88	1206.25
467.08	1310.70
467.29	1357.80
467.49	1247.21
467.69	1372.14
467.89	1312.75
468.10	1220.59
468.30	1275.88
468.50	1245.16
468.71	1286.12
468.91	1288.17
469.11	1210.35
469.31	1300.46
469.52	1298.41
469.72	1288.17
469.92	1316.84
470.13	1282.03
470.33	1304.56
470.53	1298.41
470.73	1265.64
470.94	1312.75
471.14	1296.36
471.34	1279.98
471.54	1302.51
471.75	1343.47
471.95	1294.32
472.15	1239.02
472.36	1234.93
472.56	1284.08
472.76	1271.79
472.96	1181.68
473.17	1292.27
473.37	1320.94
473.57	1222.64
473.77	1263.60
473.98	1331.18
474.18	1314.80
474.38	1341.42
474.58	1314.80
474.79	1257.45
474.99	1155.05
475.19	1232.88
475.39	1292.27
475.60	1255.40
475.80	1234.93
476.00	1331.18
476.20	1212.40
476.41	1345.52
476.61	1271.79
476.81	1271.79
477.01	1222.64
477.21	1245.16
477.42	1294.32
477.62	1232.88
477.82	1300.46
478.02	1282.03
478.23	1239.02
478.43	1239.02
478.63	1302.51
478.83	1273.84
479.03	1263.60
479.24	1351.66
479.44	1263.60
479.64	1298.41
479.84	1259.50
480.04	1251.31
480.25	1218.54
480.45	1282.03
480.65	1318.89
480.85	1243.12
481.06	1271.79
481.26	1290.22
481.46	1275.88
481.66	1290.22
481.86	1286.12
482.06	1310.70
482.27	1263.60
482.47	1290.22
482.67	1259.50
482.87	1273.84
483.07	1239.02
483.28	1193.97
483.48	1261.55
483.68	1335.28
483.88	1279.98
484.08	1269.74
484.29	1329.13
484.49	1236.97
484.69	1265.64
484.89	1288.17
485.09	1150.96
485.29	1363.95
485.50	1234.93
485.70	1286.12
485.90	1253.36
486.10	1239.02
486.30	1247.21
486.50	1247.21
486.71	1290.22
486.91	1327.08
487.11	1247.21
487.31	1247.21
487.51	1290.22
487.71	1228.78
487.91	1222.64
488.12	1241.07
488.32	1306.60
488.52	1273.84
488.72	1335.28
488.92	1261.55
489.12	1226.73
489.32	1245.16
489.53	1294.32
489.73	1273.84
489.93	1243.12
490.13	1298.41
490.33	1320.94
490.53	1249.26
490.73	1273.84
490.94	1269.74
491.14	1282.03
491.34	1247.21
491.54	1284.08
491.74	1277.93
491.94	1304.56
492.14	1234.93
492.34	1327.08
492.54	1259.50
492.75	1198.06
492.95	1286.12
493.15	1243.12
493.35	1333.23
493.55	1312.75
493.75	1331.18
493.95	1271.79
494.15	1310.70
494.35	1357.80
494.56	1253.36
494.76	1294.32
494.96	1310.70
495.16	1284.08
495.36	1271.79
495.56	1239.02
495.76	1320.94
495.96	1271.79
496.16	1220.59
496.36	1265.64
496.56	1282.03
496.77	1271.79
496.97	1236.97
497.17	1337.32
497.37	1355.76
497.57	1239.02
497.77	1312.75
497.97	1239.02
498.17	1239.02
498.37	1187.82
498.57	1265.64
498.77	1325.04
498.97	1318.89
499.17	1298.41
499.38	1341.42
499.58	1255.40
499.78	1243.12
499.98	1286.12
500.18	1247.21
500.38	1251.31
500.58	1310.70
500.78	1236.97
500.98	1245.16
501.18	1288.17
501.38	1236.97
501.58	1265.64
501.78	1320.94
501.98	1296.36
502.18	1325.04
502.38	1228.78
502.58	1230.83
502.78	1290.22
502.98	1247.21
503.18	1327.08
503.38	1269.74
503.59	1261.55
503.79	1349.61
503.99	1302.51
504.19	1243.12
504.39	1245.16
504.59	1277.93
504.79	1265.64
504.99	1316.84
505.19	1279.98
505.39	1267.69
505.59	1296.36
505.79	1316.84
505.99	1232.88
506.19	1269.74
506.39	1251.31
506.59	1271.79
506.79	1292.27
506.99	1251.31
507.19	1243.12
507.39	1308.65
507.59	1279.98
507.79	1345.52
507.99	1259.50
508.19	1306.60
508.39	1243.12
508.59	1300.46
508.79	1310.70
508.99	1267.69
509.19	1236.97
509.39	1222.64
509.59	1312.75
509.79	1249.26
509.99	1257.45
510.19	1196.01
510.39	1257.45
510.59	1204.21
510.79	1239.02
510.99	1247.21
511.19	1230.83
511.39	1306.60
511.59	1286.12
511.79	1300.46
511.99	1304.56
512.19	1296.36
512.38	1320.94
512.58	1257.45
512.78	1282.03
512.98	1296.36
513.18	1300.46
513.38	1310.70
513.58	1286.12
513.78	1300.46
513.98	1316.84
514.18	1220.59
514.38	1312.75
514.58	1335.28
514.78	1312.75
514.98	1372.14
515.18	1200.11
515.38	1286.12
515.58	1314.80
515.78	1265.64
515.98	1275.88
516.18	1325.04
516.38	1271.79
516.57	1253.36
516.77	1366.00
516.97	1234.93
517.17	1335.28
517.37	1284.08
517.57	1304.56
517.77	1322.99
517.97	1282.03
518.17	1316.84
518.37	1288.17
518.57	1327.08
518.77	1273.84
518.97	1282.03
519.16	1204.21
519.36	1357.80
519.56	1261.55
519.76	1286.12
519.96	1282.03
520.16	1222.64
520.36	1279.98
520.56	1259.50
520.76	1267.69
520.96	1314.80
521.16	1329.13
521.35	1216.49
521.55	1298.41
521.75	1308.65
521.95	1273.84
522.15	1259.50
522.35	1320.94
522.55	1314.80
522.75	1296.36
522.95	1312.75
523.14	1359.85
523.34	1241.07
523.54	1304.56
523.74	1290.22
523.94	1310.70
524.14	1304.56
524.34	1230.83
524.54	1273.84
524.73	1255.40
524.93	1300.46
525.13	1271.79
525.33	1304.56
525.53	1275.88
525.73	1232.88
525.93	1234.93
526.13	1296.36
526.32	1249.26
526.52	1322.99
526.72	1241.07
526.92	1204.21
527.12	1224.69
527.32	1257.45
527.52	1314.80
527.71	1282.03
527.91	1335.28
528.11	1282.03
528.31	1226.73
528.51	1322.99
528.71	1236.97
528.90	1228.78
529.10	1294.32
529.30	1304.56
529.50	1253.36
529.70	1306.60
529.90	1239.02
530.09	1290.22
530.29	1257.45
530.49	1234.93
530.69	1273.84
530.89	1236.97
531.09	1329.13
531.28	1304.56
531.48	1331.18
531.68	1267.69
531.88	1271.79
532.08	1337.32
532.28	1286.12
532.47	1232.88
532.67	1300.46
532.87	1279.98
533.07	1249.26
533.27	1294.32
533.46	1335.28
533.66	1236.97
533.86	1193.97
534.06	1196.01
534.26	1273.84
534.45	1288.17
534.65	1284.08
534.85	1261.55
535.05	1282.03
535.25	1253.36
535.44	1282.03
535.64	1310.70
535.84	1257.45
536.04	1210.35
536.24	1304.56
536.43	1228.78
536.63	1296.36
536.83	1216.49
537.03	1245.16
537.22	1284.08
537.42	1335.28
537.62	1245.16
537.82	1255.40
538.02	1302.51
538.21	1290.22
538.41	1261.55
538.61	1312.75
538.81	1212.40
539.00	1325.04
539.20	1306.60
539.40	1316.84
539.60	1275.88
539.79	1247.21
539.99	1265.64
540.19	1355.76
540.39	1296.36
540.58	1277.93
540.78	1230.83
540.98	1282.03
541.18	1322.99
541.37	1286.12
541.57	1253.36
541.77	1329.13
541.97	1179.63
542.16	1230.83
542.36	1308.65
542.56	1245.16
542.76	1286.12
542.95	1239.02
543.15	1298.41
543.35	1216.49
543.54	1322.99
543.74	1282.03
543.94	1290.22
544.14	1337.32
544.33	1241.07
544.53	1312.75
544.73	1302.51
544.93	1271.79
545.12	1300.46
545.32	1329.13
545.52	1286.12
545.71	1255.40
545.91	1245.16
546.11	1263.60
546.30	1271.79
546.50	1251.31
546.70	1343.47
546.90	1265.64
547.09	1263.60
547.29	1302.51
547.49	1286.12
547.68	1282.03
547.88	1259.50
548.08	1239.02
548.27	1277.93
548.47	1249.26
548.67	1275.88
548.87	1193.97
549.06	1232.88
549.26	1284.08
549.46	1298.41
549.65	1261.55
549.85	1322.99
550.05	1382.38
550.24	1265.64
550.44	1316.84
550.64	1257.45
550.83	1282.03
551.03	1271.79
551.23	1257.45
551.42	1275.88
551.62	1261.55
551.82	1306.60
552.01	1345.52
552.21	1325.04
552.41	1275.88
552.60	1273.84
552.80	1288.17
553.00	1312.75
553.19	1251.31
553.39	1310.70
553.59	1265.64
553.78	1243.12
553.98	1314.80
554.17	1257.45
554.37	1327.08
554.57	1249.26
554.76	1288.17
554.96	1234.93
555.16	1275.88
555.35	1271.79
555.55	1269.74
555.75	1302.51
555.94	1279.98
556.14	1275.88
556.33	1247.21
556.53	1304.56
556.73	1263.60
556.92	1279.98
557.12	1282.03
557.32	1243.12
557.51	1304.56
557.71	1263.60
557.90	1259.50
558.10	1292.27
558.30	1320.94
558.49	1212.40
558.69	1288.17
558.88	1300.46
559.08	1239.02
559.28	1263.60
559.47	1327.08
559.67	1273.84
559.86	1247.21
560.06	1329.13
560.26	1273.84
560.45	1282.03
560.65	1249.26
560.84	1257.45
561.04	1279.98
561.24	1226.73
561.43	1337.32
561.63	1265.64
561.82	1263.60
562.02	1288.17
562.22	1310.70
562.41	1312.75
562.61	1224.69
562.80	1279.98
563.00	1234.93
563.19	1296.36
563.39	1304.56
563.59	1325.04
563.78	1349.61
563.98	1288.17
564.17	1294.32
564.37	1279.98
564.56	1271.79
564.76	1294.32
564.96	1222.64
565.15	1267.69
565.35	1232.88
565.54	1257.45
565.74	1253.36
565.93	1269.74
566.13	1304.56
566.32	1294.32
566.52	1329.13
566.71	1251.31
566.91	1279.98
567.11	1341.42
567.30	1212.40
567.50	1316.84
567.69	1214.45
567.89	1347.56
568.08	1286.12
568.28	1208.30
568.47	1329.13
568.67	1282.03
568.86	1284.08
569.06	1296.36
569.25	1255.40
569.45	1269.74
569.64	1292.27
569.84	1232.88
570.04	1212.40
570.23	1218.54
570.43	1243.12
570.62	1249.26
570.82	1257.45
571.01	1333.23
571.21	1296.36
571.40	1288.17
571.60	1296.36
571.79	1267.69
571.99	1304.56
572.18	1298.41
572.38	1370.09
572.57	1366.00
572.77	1288.17
572.96	1257.45
573.16	1261.55
573.35	1325.04
573.55	1298.41
573.74	1335.28
573.94	1302.51
574.13	1282.03
574.33	1320.94
574.52	1306.60
574.71	1286.12
574.91	1284.08
575.10	1241.07
575.30	1306.60
575.49	1212.40
575.69	1261.55
575.88	1251.31
576.08	1279.98
576.27	1327.08
576.47	1263.60
576.66	1275.88
576.86	1204.21
577.05	1302.51
577.25	1316.84
577.44	1345.52
577.64	1232.88
577.83	1273.84
578.02	1228.78
578.22	1341.42
578.41	1257.45
578.61	1337.32
578.80	1183.73
579.00	1339.37
579.19	1247.21
579.39	1359.85
579.58	1312.75
579.77	1230.83
579.97	1251.31
580.16	1259.50
580.36	1255.40
580.55	1304.56
580.75	1253.36
580.94	1208.30
581.13	1255.40
581.33	1341.42
581.52	1316.84
581.72	1193.97
581.91	1329.13
582.11	1327.08
582.30	1257.45
582.49	1222.64
582.69	1284.08
582.88	1347.56
583.08	1325.04
583.27	1292.27
583.47	1300.46
583.66	1282.03
583.85	1306.60
584.05	1259.50
584.24	1273.84
584.44	1187.82
584.63	1306.60
584.82	1273.84
585.02	1243.12
585.21	1304.56
585.41	1269.74
585.60	1253.36
585.79	1302.51
585.99	1273.84
586.18	1224.69
586.37	1249.26
586.57	1359.85
586.76	1275.88
586.96	1265.64
587.15	1200.11
587.34	1253.36
587.54	1245.16
587.73	1269.74
587.93	1308.65
588.12	1259.50
588.31	1253.36
588.51	1230.83
588.70	1267.69
588.89	1234.93
589.09	1347.56
589.28	1263.60
589.47	1288.17
589.67	1341.42
589.86	1251.31
590.06	1267.69
590.25	1312.75
590.44	1263.60
590.64	1257.45
590.83	1261.55
591.02	1286.12
591.22	1284.08
591.41	1255.40
591.60	1259.50
591.80	1306.60
591.99	1300.46
592.18	1314.80
592.38	1296.36
592.57	1269.74
592.76	1339.37
592.96	1310.70
593.15	1288.17
593.34	1269.74
593.54	1273.84
593.73	1310.70
593.92	1343.47
594.12	1277.93
594.31	1331.18
594.50	1265.64
594.70	1273.84
594.89	1271.79
595.08	1245.16
595.28	1353.71
595.47	1228.78
595.66	1286.12
595.86	1249.26
596.05	1279.98
596.24	1265.64
596.43	1243.12
596.63	1279.98
596.82	1243.12
597.01	1218.54
597.21	1249.26
597.40	1304.56
597.59	1177.58
597.79	1257.45
597.98	1284.08
598.17	1222.64
598.36	1320.94
598.56	1282.03
598.75	1259.50
598.94	1292.27
599.14	1370.09
599.33	1228.78
599.52	1306.60
599.71	1282.03
599.91	1306.60
600.10	1249.26
600.29	1253.36
600.48	1300.46
600.68	1296.36
600.87	1273.84
601.06	1263.60
601.26	1259.50
601.45	1304.56
601.64	1210.35
601.83	1236.97
602.03	1290.22
602.22	1230.83
602.41	1290.22
602.60	1265.64
602.80	1290.22
602.99	1300.46
603.18	1255.40
603.37	1239.02
603.57	1236.97
603.76	1304.56
603.95	1271.79
604.14	1310.70
604.34	1265.64
604.53	1247.21
604.72	1271.79
604.91	1294.32
605.10	1259.50
605.30	1308.65
605.49	1279.98
605.68	1241.07
605.87	1322.99
606.07	1339.37
606.26	1255.40
606.45	1269.74
606.64	1290.22
606.84	1294.32
607.03	1333.23
607.22	1214.45
607.41	1314.80
607.60	1294.32
607.80	1310.70
607.99	1282.03
608.18	1284.08
608.37	1271.79
608.56	1273.84
608.76	1347.56
608.95	1218.54
609.14	1208.30
609.33	1241.07
609.52	1290.22
609.72	1257.45
609.91	1335.28
610.10	1275.88
610.29	1259.50
610.48	1206.25
610.68	1341.42
610.87	1273.84
611.06	1277.93
611.25	1232.88
611.44	1273.84
611.63	1275.88
611.83	1245.16
612.02	1286.12
612.21	1249.26
612.40	1265.64
612.59	1279.98
612.79	1224.69
612.98	1277.93
613.17	1210.35
613.36	1253.36
613.55	1275.88
613.74	1265.64
613.93	1300.46
614.13	1222.64
614.32	1259.50
614.51	1243.12
614.70	1302.51
614.89	1296.36
615.08	1239.02
615.28	1331.18
615.47	1329.13
615.66	1277.93
615.85	1249.26
616.04	1308.65
616.23	1273.84
616.42	1177.58
616.62	1300.46
616.81	1265.64
617.00	1267.69
617.19	1247.21
617.38	1247.21
617.57	1249.26
617.76	1259.50
617.95	1261.55
618.15	1181.68
618.34	1269.74
618.53	1275.88
618.72	1292.27
618.91	1351.66
619.10	1333.23
619.29	1306.60
619.48	1351.66
619.68	1269.74
619.87	1261.55
620.06	1267.69
620.25	1300.46
620.44	1347.56
620.63	1329.13
620.82	1294.32
621.01	1320.94
621.20	1249.26
621.39	1286.12
621.59	1251.31
621.78	1304.56
621.97	1298.41
622.16	1288.17
622.35	1335.28
622.54	1271.79
622.73	1265.64
622.92	1257.45
623.11	1320.94
623.30	1290.22
623.49	1314.80
623.68	1304.56
623.88	1249.26
624.07	1282.03
624.26	1279.98
624.45	1267.69
624.64	1331.18
624.83	1282.03
625.02	1335.28
625.21	1294.32
625.40	1257.45
625.59	1331.18
625.78	1320.94
625.97	1261.55
626.16	1306.60
626.35	1341.42
626.54	1296.36
626.74	1298.41
626.93	1230.83
627.12	1257.45
627.31	1333.23
627.50	1322.99
627.69	1304.56
627.88	1314.80
628.07	1339.37
628.26	1343.47
628.45	1310.70
628.64	1296.36
628.83	1282.03
629.02	1310.70
629.21	1306.60
629.40	1327.08
629.59	1296.36
629.78	1318.89
629.97	1273.84
630.16	1257.45
630.35	1302.51
630.54	1294.32
630.73	1288.17
630.92	1267.69
631.11	1318.89
631.30	1284.08
631.49	1363.95
631.68	1423.34
631.87	1759.21
632.06	2156.51
632.25	1959.91
632.44	1994.72
632.63	1982.43
632.82	1920.99
633.01	2371.55
633.20	2256.86
633.39	2303.96
633.58	2756.57
633.77	3084.24
633.96	2940.88
634.15	3981.25
634.34	7567.24
634.53	13958.96
634.72	19668.69
634.91	21716.66
635.10	18835.17
635.29	14137.13
635.48	9355.12
635.67	6285.22
635.86	3866.56
636.05	2449.37
636.24	1814.50
636.43	1431.53
636.62	1374.19
636.81	1396.71
637.00	1372.14
637.19	1257.45
637.38	1316.84
637.57	1273.84
637.76	1347.56
637.95	1253.36
638.14	1304.56
638.33	1318.89
638.52	1359.85
638.71	1312.75
638.89	1249.26
639.08	1325.04
639.27	1228.78
639.46	1335.28
639.65	1302.51
639.84	1288.17
640.03	1306.60
640.22	1265.64
640.41	1288.17
640.60	1357.80
640.79	1322.99
640.98	1320.94
641.17	1234.93
641.36	1245.16
641.55	1304.56
641.74	1214.45
641.92	1306.60
642.11	1177.58
642.30	1304.56
642.49	1243.12
642.68	1310.70
642.87	1284.08
643.06	1273.84
643.25	1208.30
643.44	1224.69
643.63	1304.56
643.82	1298.41
644.00	1312.75
644.19	1251.31
644.38	1269.74
644.57	1329.13
644.76	1198.06
644.95	1296.36
645.14	1275.88
645.33	1257.45
645.52	1308.65
645.71	1243.12
645.89	1290.22
646.08	1228.78
646.27	1249.26
646.46	1255.40
646.65	1310.70
646.84	1298.41
647.03	1243.12
647.22	1271.79
647.40	1277.93
647.59	1243.12
647.78	1247.21
647.97	1322.99
648.16	1288.17
648.35	1279.98
648.54	1314.80
648.73	1353.71
648.91	1284.08
649.10	1228.78
649.29	1275.88
649.48	1286.12
649.67	1279.98
649.86	1290.22
650.05	1294.32
650.23	1286.12
650.42	1239.02
650.61	1282.03
650.80	1146.86
650.99	1296.36
651.18	1294.32
651.36	1322.99
651.55	1251.31
651.74	1310.70
651.93	1251.31
652.12	1298.41
652.31	1312.75
652.49	1245.16
652.68	1261.55
652.87	1306.60
653.06	1298.41
653.25	1241.07
653.44	1267.69
653.62	1312.75
653.81	1288.17
654.00	1251.31
654.19	1312.75
654.38	1372.14
654.56	1318.89
654.75	1230.83
654.94	1236.97
655.13	1193.97
655.32	1310.70
655.51	1228.78
655.69	1249.26
655.88	1247.21
656.07	1273.84
656.26	1232.88
656.45	1222.64
656.63	1226.73
656.82	1310.70
657.01	1292.27
657.20	1308.65
657.38	1263.60
657.57	1302.51
657.76	1271.79
657.95	1292.27
658.14	1298.41
658.32	1202.16
658.51	1230.83
658.70	1308.65
658.89	1261.55
659.08	1277.93
659.26	1271.79
659.45	1314.80
659.64	1310.70
659.83	1253.36
660.01	1296.36
660.20	1183.73
660.39	1245.16
660.58	1232.88
660.76	1273.84
660.95	1277.93
661.14	1257.45
661.33	1269.74
661.51	1267.69
661.70	1275.88
661.89	1353.71
662.08	1277.93
662.26	1282.03
662.45	1241.07
662.64	1282.03
662.83	1320.94
663.01	1257.45
663.20	1249.26
663.39	1337.32
663.58	1253.36
663.76	1224.69
663.95	1322.99
664.14	1273.84
664.32	1228.78
664.51	1302.51
664.70	1273.84
664.89	1271.79
665.07	1232.88
665.26	1200.11
665.45	1257.45
665.64	1282.03
665.82	1296.36
666.01	1226.73
666.20	1234.93
666.38	1282.03
666.57	1282.03
666.76	1308.65
666.95	1220.59
667.13	1273.84
667.32	1241.07
667.51	1245.16
667.69	1241.07
667.88	1363.95
668.07	1267.69
668.25	1351.66
668.44	1239.02
668.63	1241.07
668.81	1363.95
669.00	1228.78
669.19	1284.08
669.38	1363.95
669.56	1173.49
669.75	1331.18
669.94	1316.84
670.12	1249.26
670.31	1251.31
670.50	1320.94
670.68	1263.60
670.87	1327.08
671.06	1271.79
671.24	1216.49
671.43	1292.27
671.62	1253.36
671.80	1290.22
671.99	1255.40
672.18	1351.66
672.36	1314.80
672.55	1232.88
672.74	1279.98
672.92	1232.88
673.11	1339.37
673.29	1257.45
673.48	1251.31
673.67	1292.27
673.85	1265.64
674.04	1306.60
674.23	1185.77
674.41	1294.32
674.60	1273.84
674.79	1208.30
674.97	1353.71
675.16	1290.22
675.34	1279.98
675.53	1216.49
675.72	1249.26
675.90	1277.93
676.09	1288.17
676.28	1273.84
676.46	1290.22
676.65	1273.84
676.83	1306.60
677.02	1300.46
677.21	1245.16
677.39	1271.79
677.58	1226.73
677.77	1241.07
677.95	1282.03
678.14	1198.06
678.32	1257.45
678.51	1234.93
678.70	1341.42
678.88	1304.56
679.07	1282.03
679.25	1263.60
679.44	1245.16
679.63	1294.32
679.81	1259.50
680.00	1261.55
680.18	1288.17
680.37	1210.35
680.55	1224.69
680.74	1288.17
680.93	1271.79
681.11	1273.84
681.30	1232.88
681.48	1251.31
681.67	1234.93
681.85	1236.97
682.04	1214.45
682.23	1251.31
682.41	1314.80
682.60	1269.74
682.78	1214.45
682.97	1239.02
683.15	1275.88
683.34	1257.45
683.53	1255.40
683.71	1327.08
683.90	1259.50
684.08	1259.50
684.27	1308.65
684.45	1218.54
684.64	1271.79
684.82	1257.45
685.01	1322.99
685.19	1187.82
685.38	1259.50
685.57	1304.56
685.75	1306.60
685.94	1214.45
686.12	1308.65
686.31	1286.12
686.49	1306.60
686.68	1308.65
686.86	1265.64
687.05	1339.37
687.23	1222.64
687.42	1271.79
687.60	1259.50
687.79	1300.46
687.97	1288.17
688.16	1234.93
688.34	1247.21
688.53	1269.74
688.71	1312.75
688.90	1290.22
689.08	1304.56
689.27	1261.55
689.45	1261.55
689.64	1232.88
689.82	1226.73
690.01	1300.46
690.19	1249.26
690.38	1249.26
690.56	1320.94
690.75	1261.55
690.93	1271.79
691.12	1341.42
691.30	1245.16
691.49	1245.16
691.67	1257.45
691.86	1212.40
692.04	1310.70
692.23	1298.41
692.41	1304.56
692.60	1333.23
692.78	1322.99
692.97	1292.27
693.15	1241.07
693.34	1271.79
693.52	1222.64
693.71	1304.56
693.89	1259.50
694.08	1265.64
694.26	1216.49
694.44	1232.88
694.63	1259.50
694.81	1296.36
695.00	1259.50
695.18	1259.50
695.37	1255.40
695.55	1316.84
695.74	1286.12
695.92	1294.32
696.10	1286.12
696.29	1308.65
696.47	1277.93
696.66	1284.08
696.84	1335.28
697.03	1259.50
697.21	1236.97
697.40	1279.98
697.58	1279.98
697.76	1282.03
697.95	1290.22
698.13	1320.94
698.32	1277.93
698.50	1335.28
698.68	1253.36
698.87	1275.88
699.05	1288.17
699.24	1349.61
699.42	1263.60
699.61	1288.17
699.79	1294.32
699.97	1220.59
700.16	1167.34
700.34	1273.84
700.53	1318.89
700.71	1304.56
700.89	1343.47
701.08	1251.31
701.26	1259.50
701.45	1306.60
701.63	1243.12
701.81	1251.31
702.00	1304.56
702.18	1226.73
702.37	1320.94
702.55	1275.88
702.73	1308.65
702.92	1282.03
703.10	1249.26
703.28	1218.54
703.47	1271.79
703.65	1267.69
703.84	1273.84
704.02	1265.64
704.20	1259.50
704.39	1333.23
704.57	1265.64
704.75	1230.83
704.94	1239.02
705.12	1294.32
705.30	1259.50
705.49	1306.60
705.67	1353.71
705.86	1247.21
706.04	1241.07
706.22	1265.64
706.41	1247.21
706.59	1202.16
706.77	1234.93
706.96	1263.60
707.14	1261.55
707.32	1228.78
707.51	1247.21
707.69	1189.87
707.87	1249.26
708.06	1251.31
708.24	1347.56
708.42	1329.13
708.61	1255.40
708.79	1304.56
708.97	1282.03
709.16	1267.69
709.34	1316.84
709.52	1255.40
709.71	1224.69
709.89	1347.56
710.07	1269.74
710.26	1259.50
710.44	1245.16
710.62	1265.64
710.80	1265.64
710.99	1290.22
711.17	1279.98
711.35	1292.27
711.54	1263.60
711.72	1288.17
711.90	1259.50
712.09	1267.69
712.27	1257.45
712.45	1357.80
712.63	1255.40
712.82	1267.69
713.00	1257.45
713.18	1302.51
713.37	1310.70
713.55	1253.36
713.73	1269.74
713.91	1241.07
714.10	1296.36
714.28	1310.70
714.46	1284.08
714.65	1255.40
714.83	1320.94
715.01	1245.16
715.19	1249.26
715.38	1294.32
715.56	1331.18
715.74	1251.31
715.92	1241.07
716.11	1271.79
716.29	1288.17
716.47	1314.80
716.65	1306.60
716.84	1271.79
717.02	1261.55
717.20	1210.35
717.38	1193.97
717.57	1333.23
717.75	1310.70
717.93	1257.45
718.11	1284.08
718.30	1331.18
718.48	1288.17
718.66	1196.01
718.84	1290.22
719.03	1341.42
719.21	1253.36
719.39	1267.69
719.57	1339.37
719.75	1288.17
719.94	1255.40
720.12	1288.17
720.30	1234.93
720.48	1312.75
720.67	1277.93
720.85	1296.36
721.03	1247.21
721.21	1269.74
721.39	1302.51
721.58	1335.28
721.76	1298.41
721.94	1243.12
722.12	1320.94
722.30	1273.84
722.49	1302.51
722.67	1204.21
722.85	1234.93
723.03	1257.45
723.21	1320.94
723.40	1343.47
723.58	1282.03
723.76	1261.55
723.94	1255.40
724.12	1265.64
724.30	1300.46
724.49	1196.01
724.67	1292.27
724.85	1208.30
725.03	1275.88
725.21	1251.31
725.40	1245.16
725.58	1331.18
725.76	1298.41
725.94	1236.97
726.12	1294.32
726.30	1263.60
726.49	1339.37
726.67	1286.12
726.85	1271.79
727.03	1302.51
727.21	1339.37
727.39	1267.69
727.57	1257.45
727.76	1261.55
727.94	1220.59
728.12	1251.31
728.30	1181.68
728.48	1320.94
728.66	1241.07
728.84	1228.78
729.03	1304.56
729.21	1292.27
729.39	1337.32
729.57	1269.74
729.75	1298.41
729.93	1282.03
730.11	1271.79
730.30	1222.64
730.48	1257.45
730.66	1335.28
730.84	1273.84
731.02	1257.45
731.20	1208.30
731.38	1294.32
731.56	1177.58
731.74	1327.08
731.93	1290.22
732.11	1230.83
732.29	1312.75
732.47	1267.69
732.65	1372.14
732.83	1232.88
733.01	1337.32
733.19	1320.94
733.37	1196.01
733.56	1277.93
733.74	1288.17
733.92	1216.49
734.10	1298.41
734.28	1282.03
734.46	1265.64
734.64	1232.88
734.82	1224.69
735.00	1286.12
735.18	1269.74
735.36	1284.08
735.54	1286.12
735.73	1259.50
735.91	1249.26
736.09	1286.12
736.27	1251.31
736.45	1292.27
736.63	1228.78
736.81	1224.69
736.99	1216.49
737.17	1257.45
737.35	1275.88
737.53	1245.16
737.71	1198.06
737.89	1220.59
738.07	1220.59
738.25	1142.77
738.43	1218.54
738.61	1290.22
738.80	1271.79
738.98	1284.08
739.16	1277.93
739.34	1284.08
739.52	1230.83
739.70	1245.16
739.88	1308.65
740.06	1341.42
740.24	1320.94
740.42	1284.08
740.60	1320.94
740.78	1212.40
740.96	1312.75
741.14	1239.02
741.32	1292.27
741.50	1245.16
741.68	1292.27
741.86	1226.73
742.04	1259.50
742.22	1275.88
742.40	1271.79
742.58	1308.65
742.76	1239.02
742.94	1241.07
743.12	1277.93
743.30	1265.64
743.48	1232.88
743.66	1300.46
743.84	1288.17
744.02	1273.84
744.20	1284.08
744.38	1200.11
744.56	1214.45
744.74	1247.21
744.92	1159.15
745.10	1196.01
745.28	1251.31
745.46	1261.55
745.64	1322.99
745.82	1263.60
746.00	1314.80
746.18	1275.88
746.36	1236.97
746.54	1210.35
746.72	1347.56
746.90	1232.88
747.08	1247.21
747.26	1247.21
747.44	1259.50
747.62	1257.45
747.80	1292.27
747.98	1228.78
748.15	1261.55
748.33	1339.37
748.51	1157.10
748.69	1257.45
748.87	1191.92
749.05	1247.21
749.23	1243.12
749.41	1222.64
749.59	1286.12
749.77	1284.08
749.95	1298.41
750.13	1286.12
750.31	1275.88
750.49	1279.98
750.67	1241.07
750.85	1257.45
751.03	1290.22
751.20	1314.80
751.38	1355.76
751.56	1316.84
751.74	1359.85
751.92	1187.82
752.10	1284.08
752.28	1214.45
752.46	1230.83
752.64	1189.87
752.82	1298.41
753.00	1261.55
753.18	1296.36
753.35	1261.55
753.53	1306.60
753.71	1273.84
753.89	1247.21
754.07	1257.45
754.25	1210.35
754.43	1226.73
754.61	1302.51
754.79	1220.59
754.97	1310.70
755.14	1271.79
755.32	1286.12
755.50	1222.64
755.68	1269.74
755.86	1224.69
756.04	1298.41
756.22	1271.79
756.40	1413.10
756.57	1327.08
756.75	1347.56
756.93	1263.60
757.11	1282.03
757.29	1165.29
757.47	1277.93
757.65	1316.84
757.82	1208.30
758.00	1267.69
758.18	1282.03
758.36	1239.02
758.54	1284.08
758.72	1218.54
758.90	1222.64
759.07	1318.89
759.25	1279.98
759.43	1302.51
759.61	1296.36
759.79	1288.17
759.97	1302.51
760.15	1220.59
760.32	1296.36
760.50	1214.45
760.68	1322.99
760.86	1204.21
761.04	1302.51
761.22	1259.50
761.39	1251.31
761.57	1308.65
761.75	1263.60
761.93	1333.23
762.11	1302.51
762.28	1310.70
762.46	1257.45
762.64	1292.27
762.82	1304.56
763.00	1226.73
763.18	1208.30
763.35	1257.45
763.53	1331.18
763.71	1243.12
763.89	1341.42
764.07	1259.50
764.24	1239.02
764.42	1284.08
764.60	1226.73
764.78	1222.64
764.96	1226.73
765.13	1241.07
765.31	1279.98
765.49	1347.56
765.67	1271.79
765.84	1261.55
766.02	1275.88
766.20	1316.84
766.38	1212.40
766.56	1294.32
766.73	1329.13
766.91	1306.60
767.09	1298.41
767.27	1312.75
767.44	1329.13
767.62	1191.92
767.80	1259.50
767.98	1298.41
768.15	1284.08
768.33	1210.35
768.51	1271.79
768.69	1267.69
768.87	1214.45
769.04	1269.74
769.22	1239.02
769.40	1196.01
769.58	1277.93
769.75	1253.36
769.93	1226.73
770.11	1292.27
770.28	1279.98
770.46	1253.36
770.64	1312.75
770.82	1282.03
770.99	1222.64
771.17	1314.80
771.35	1216.49
771.53	1308.65
771.70	1327.08
771.88	1259.50
772.06	1245.16
772.23	1200.11
772.41	1304.56
772.59	1290.22
772.77	1271.79
772.94	1298.41
773.12	1226.73
773.30	1277.93
773.47	1376.24
773.65	1200.11
773.83	1296.36
774.01	1316.84
774.18	1284.08
774.36	1228.78
774.54	1245.16
774.71	1259.50
774.89	1275.88
775.07	1259.50
775.24	1253.36
775.42	1251.31
775.60	1214.45
775.78	1277.93
775.95	1257.45
776.13	1271.79
776.31	1306.60
776.48	1208.30
776.66	1255.40
776.84	1269.74
777.01	1292.27
777.19	1206.25
777.37	1216.49
777.54	1314.80
777.72	1306.60
777.90	1290.22
778.07	1314.80
778.25	1290.22
778.43	1304.56
778.60	1306.60
778.78	1249.26
778.96	1224.69
779.13	1255.40
779.31	1198.06
779.49	1259.50
779.66	1290.22
779.84	1327.08
780.01	1259.50
780.19	1284.08
780.37	1318.89
780.54	1171.44
780.72	1255.40
780.90	1212.40
781.07	1224.69
781.25	1247.21
781.43	1261.55
781.60	1163.25
781.78	1247.21
781.95	1261.55
782.13	1288.17
782.31	1247.21
782.48	1187.82
782.66	1257.45
782.83	1296.36
783.01	1253.36
783.19	1318.89
783.36	1273.84
783.54	1261.55
783.72	1249.26
783.89	1228.78
784.07	1310.70
784.24	1273.84
784.42	1226.73
784.60	1261.55
784.77	1296.36
784.95	1218.54
785.12	1277.93
785.30	1271.79
785.47	1253.36
785.65	1257.45
785.83	1277.93
786.00	1300.46
786.18	1275.88
786.35	1298.41
786.53	1257.45
786.71	1265.64
786.88	1288.17
787.06	1251.31
787.23	1310.70
787.41	1251.31
787.58	1269.74
787.76	1267.69
787.94	1282.03
788.11	1187.82
788.29	1296.36
788.46	1175.53
788.64	1259.50
788.81	1263.60
788.99	1275.88
789.16	1247.21
789.34	1210.35
789.52	1294.32
789.69	1161.20
789.87	1263.60
790.04	1275.88
790.22	1198.06
790.39	1265.64
790.57	1239.02
790.74	1245.16
790.92	1269.74
791.09	1243.12
791.27	1286.12
791.44	1312.75
791.62	1310.70
791.79	1241.07
791.97	1200.11
792.15	1300.46
792.32	1296.36
792.50	1314.80
792.67	1333.23
792.85	1273.84
793.02	1228.78
793.20	1296.36
793.37	1261.55
793.55	1249.26
793.72	1267.69
793.90	1310.70
794.07	1282.03
794.25	1263.60
794.42	1251.31
794.60	1216.49
794.77	1286.12
794.95	1296.36
795.12	1304.56
795.30	1249.26
795.47	1239.02
795.65	1329.13
795.82	1243.12
796.00	1314.80
796.17	1216.49
796.34	1302.51
796.52	1290.22
796.69	1251.31
796.87	1327.08
797.04	1171.44
797.22	1198.06
797.39	1253.36
797.57	1292.27
797.74	1257.45
797.92	1253.36
798.09	1343.47
798.27	1230.83
798.44	1279.98
798.62	1241.07
798.79	1304.56
798.96	1181.68
799.14	1335.28
799.31	1298.41
799.49	1277.93
799.66	1316.84
799.84	1290.22
800.01	1193.97
800.19	1253.36
800.36	1208.30
800.53	1228.78
800.71	1241.07
800.88	1265.64
801.06	1239.02
801.23	1282.03
801.41	1251.31
801.58	1290.22
801.75	1155.05
801.93	1257.45
802.10	1335.28
802.28	1265.64
802.45	1265.64
802.63	1294.32
802.80	1261.55
802.97	1286.12
803.15	1304.56
803.32	1296.36
803.50	1296.36
803.67	1304.56
803.84	1247.21
804.02	1314.80
804.19	1312.75
804.37	1300.46
804.54	1232.88
804.71	1347.56
804.89	1335.28
805.06	1263.60
805.24	1282.03
805.41	1243.12
805.58	1245.16
805.76	1275.88
805.93	1269.74
806.10	1277.93
806.28	1296.36
806.45	1292.27
806.63	1224.69
806.80	1269.74
806.97	1277.93
807.15	1210.35
807.32	1255.40
807.49	1259.50
807.67	1234.93
807.84	1322.99
808.01	1296.36
808.19	1247.21
808.36	1267.69
808.54	1339.37
808.71	1279.98
808.88	1273.84
809.06	1288.17
809.23	1239.02
809.40	1267.69
809.58	1306.60
809.75	1236.97
809.92	1261.55
810.10	1322.99
810.27	1249.26
810.44	1284.08
810.62	1310.70
810.79	1263.60
810.96	1269.74
811.14	1329.13
811.31	1222.64
811.48	1228.78
811.66	1234.93
811.83	1331.18
812.00	1243.12
812.18	1357.80
812.35	1214.45
812.52	1245.16
812.69	1284.08
812.87	1294.32
813.04	1288.17
813.21	1224.69
813.39	1200.11
813.56	1279.98
813.73	1263.60
813.91	1339.37
814.08	1206.25
814.25	1273.84
814.42	1206.25
814.60	1241.07
814.77	1257.45
814.94	1265.64
815.12	1226.73
815.29	1245.16
815.46	1286.12
815.63	1306.60
815.81	1286.12
815.98	1171.44
816.15	1241.07
816.33	1269.74
816.50	1267.69
816.67	1279.98
816.84	1325.04
817.02	1298.41
817.19	1277.93
817.36	1286.12
817.53	1282.03
817.71	1208.30
817.88	1292.27
818.05	1306.60
818.22	1257.45
818.40	1251.31
818.57	1214.45
818.74	1261.55
818.91	1267.69
819.09	1251.31
819.26	1255.40
819.43	1222.64
819.60	1259.50
819.78	1247.21
819.95	1419.24
820.12	1288.17
820.29	1267.69
820.47	1298.41
820.64	1243.12
820.81	1259.50
820.98	1277.93
821.15	1327.08
821.33	1327.08
821.50	1259.50
821.67	1275.88
821.84	1275.88
822.02	1234.93
822.19	1177.58
822.36	1253.36
822.53	1271.79
822.70	1316.84
822.88	1269.74
823.05	1273.84
823.22	1300.46
823.39	1263.60
823.56	1318.89
823.74	1255.40
823.91	1282.03
824.08	1208.30
824.25	1316.84
824.42	1275.88
824.60	1185.77
824.77	1251.31
824.94	1251.31
825.11	1271.79
825.28	1288.17
825.45	1253.36
825.63	1204.21
825.80	1257.45
825.97	1169.39
826.14	1261.55
826.31	1247.21
826.48	1255.40
826.66	1259.50
826.83	1212.40
827.00	1277.93
827.17	1273.84
827.34	1294.32
827.51	1234.93
827.69	1243.12
827.86	1277.93
828.03	1292.27
828.20	1239.02
828.37	1241.07
828.54	1253.36
828.71	1255.40
828.89	1271.79
829.06	1263.60
829.23	1271.79
829.40	1257.45
829.57	1257.45
829.74	1320.94
829.91	1218.54
830.09	1255.40
830.26	1288.17
830.43	1288.17
830.60	1302.51
830.77	1218.54
830.94	1265.64
831.11	1245.16
831.28	1261.55
831.46	1263.60
831.63	1255.40
831.80	1345.52
831.97	1290.22
832.14	1288.17
832.31	1226.73
832.48	1296.36
832.65	1284.08
832.82	1279.98
832.99	1286.12
833.17	1275.88
833.34	1261.55
833.51	1210.35
833.68	1290.22
833.85	1284.08
834.02	1267.69
834.19	1314.80
834.36	1269.74
834.53	1249.26
834.70	1253.36
834.87	1226.73
835.04	1284.08
835.22	1247.21
835.39	1259.50
835.56	1222.64
835.73	1273.84
835.90	1193.97
836.07	1306.60
836.24	1259.50
836.41	1333.23
836.58	1265.64
836.75	1284.08
836.92	1282.03
837.09	1263.60
837.26	1183.73
837.43	1304.56
837.60	1241.07
837.77	1294.32
837.94	1255.40
838.12	1273.84
838.29	1267.69
838.46	1224.69
838.63	1206.25
838.80	1239.02
838.97	1275.88
839.14	1234.93
839.31	1275.88
839.48	1206.25
839.65	1279.98
839.82	1249.26
839.99	1267.69
840.16	1224.69
840.33	1228.78
840.50	1228.78
840.67	1228.78
840.84	1226.73
841.01	1279.98
841.18	1347.56
841.35	1279.98
841.52	1263.60
841.69	1298.41
841.86	1249.26
842.03	1331.18
842.20	1265.64
842.37	1271.79
842.54	1220.59
842.71	1314.80
842.88	1259.50
843.05	1271.79
843.22	1255.40
843.39	1335.28
843.56	1261.55
843.73	1226.73
843.90	1265.64
844.07	1279.98
844.24	1249.26
844.41	1245.16
844.58	1292.27
844.75	1306.60
844.92	1294.32
845.09	1265.64
845.26	1245.16
845.43	1284.08
845.60	1306.60
845.77	1265.64
845.94	1265.64
846.10	1261.55
846.27	1216.49
846.44	1277.93
846.61	1255.40
846.78	1327.08
846.95	1282.03
847.12	1183.73
847.29	1279.98
847.46	1220.59
847.63	1290.22
847.80	1251.31
847.97	1265.64
848.14	1224.69
848.31	1204.21
848.48	1245.16
848.65	1198.06
848.82	1349.61
848.98	1251.31
849.15	1325.04
849.32	1263.60
849.49	1241.07
849.66	1271.79
849.83	1306.60
850.00	1257.45
850.17	1232.88
850.34	1251.31
850.51	1390.57
850.68	1331.18
850.85	1275.88
851.01	1306.60
851.18	1265.64
851.35	1265.64
851.52	1212.40
851.69	1314.80
851.86	1255.40
852.03	1257.45
852.20	1282.03
852.37	1245.16
852.53	1290.22
852.70	1333.23
852.87	1267.69
853.04	1298.41
853.21	1308.65
853.38	1230.83
853.55	1277.93
853.72	1257.45
853.89	1286.12
854.05	1296.36
854.22	1220.59
854.39	1228.78
854.56	1226.73
854.73	1273.84
854.90	1224.69
855.07	1218.54
855.23	1239.02
855.40	1288.17
855.57	1341.42
855.74	1265.64
855.91	1282.03
856.08	1279.98
856.25	1325.04
856.41	1298.41
856.58	1216.49
856.75	1239.02
856.92	1267.69
857.09	1265.64
857.26	1200.11
857.42	1273.84
857.59	1265.64
857.76	1279.98
857.93	1265.64
858.10	1220.59
858.27	1279.98
858.43	1282.03
858.60	1271.79
858.77	1298.41
858.94	1347.56
859.11	1255.40
859.27	1220.59
859.44	1298.41
859.61	1259.50
859.78	1208.30
859.95	1208.30
860.12	1191.92
860.28	1306.60
860.45	1251.31
860.62	1286.12
860.79	1322.99
860.95	1312.75
861.12	1261.55
861.29	1302.51
861.46	1282.03
861.63	1265.64
861.79	1245.16
861.96	1294.32
862.13	1302.51
862.30	1271.79
862.47	1255.40
862.63	1200.11
862.80	1214.45
862.97	1228.78
863.14	1251.31
863.30	1200.11
863.47	1292.27
863.64	1177.58
863.81	1335.28
863.97	1271.79
864.14	1232.88
864.31	1239.02
864.48	1308.65
864.65	1312.75
864.81	1282.03
864.98	1241.07
865.15	1167.34
865.32	1249.26
865.48	1243.12
865.65	1245.16
865.82	1232.88
865.98	1251.31
866.15	1247.21
866.32	1208.30
866.49	1300.46
866.65	1265.64
866.82	1296.36
866.99	1234.93
867.16	1222.64
867.32	1251.31
867.49	1251.31
867.66	1236.97
867.83	1306.60
867.99	1316.84
868.16	1279.98
868.33	1228.78
868.49	1198.06
868.66	1275.88
868.83	1286.12
868.99	1234.93
869.16	1292.27
869.33	1363.95
869.50	1327.08
869.66	1275.88
869.83	1279.98
870.00	1294.32
870.16	1261.55
870.33	1251.31
870.50	1296.36
870.66	1269.74
870.83	1286.12
871.00	1239.02
871.17	1343.47
871.33	1333.23
871.50	1230.83
871.67	1304.56
871.83	1247.21
872.00	1306.60
872.17	1279.98
872.33	1263.60
872.50	1249.26
872.67	1275.88
872.83	1308.65
873.00	1257.45
873.17	1234.93
873.33	1302.51
873.50	1353.71
873.67	1224.69
873.83	1271.79
874.00	1259.50
874.16	1351.66
874.33	1249.26
874.50	1331.18
874.66	1288.17
874.83	1265.64
875.00	1308.65
875.16	1292.27
875.33	1200.11
875.50	1232.88
875.66	1243.12
875.83	1290.22
875.99	1216.49
876.16	1230.83
876.33	1292.27
876.49	1306.60
876.66	1298.41
876.83	1253.36
876.99	1314.80
877.16	1204.21
877.32	1228.78
877.49	1329.13
877.66	1288.17
877.82	1308.65
877.99	1273.84
878.15	1273.84
878.32	1234.93
878.49	1257.45
878.65	1210.35
878.82	1232.88
878.98	1249.26
879.15	1308.65
879.32	1294.32
879.48	1261.55
879.65	1232.88
879.81	1241.07
879.98	1284.08
880.15	1351.66
880.31	1257.45
880.48	1226.73
880.64	1263.60
880.81	1202.16
880.97	1261.55
881.14	1279.98
881.31	1267.69
881.47	1191.92
881.64	1298.41
881.80	1206.25
881.97	1273.84
882.13	1220.59
882.30	1232.88
882.47	1335.28
882.63	1284.08
882.80	1257.45
882.96	1257.45
883.13	1269.74
883.29	1282.03
883.46	1183.73
883.62	1304.56
883.79	1253.36
883.95	1191.92
884.12	1347.56
884.29	1222.64
884.45	1267.69
884.62	1308.65
884.78	1230.83
884.95	1304.56
885.11	1288.17
885.28	1257.45
885.44	1267.69
885.61	1228.78
885.77	1269.74
885.94	1220.59
886.10	1339.37
886.27	1232.88
886.43	1329.13
886.60	1224.69
886.76	1245.16
886.93	1234.93
887.09	1273.84
887.26	1216.49
887.42	1255.40
887.59	1230.83
887.75	1239.02
887.92	1155.05
888.08	1288.17
888.25	1200.11
888.41	1294.32
888.58	1239.02
888.74	1286.12
888.91	1304.56
>>>>>End Processed Spectral Data<<<<<
