SpectraSuite Data File
++++++++++++++++++++++++++++++++++++
Date: Sun Apr 03 19:55:25 CEST 2016
User: root
Dark Spectrum Present: No
Reference Spectrum Present: No
Number of Sampled Component Spectra: 1
Spectrometers: USB4C02835
Integration Time (usec): 10000 (USB4C02835)
Spectra Averaged: 1 (USB4C02835)
Boxcar Smoothing: 0 (USB4C02835)
Correct for Electrical Dark: No (USB4C02835)
Strobe/Lamp Enabled: No (USB4C02835)
Correct for Detector Non-linearity: No (USB4C02835)
Correct for Stray Light: No (USB4C02835)
Number of Pixels in Processed Spectrum: 3648
>>>>>Begin Processed Spectral Data<<<<<
177.47	1161.20
177.69	1161.20
177.91	1161.20
178.13	1208.30
178.36	1296.36
178.58	1206.25
178.80	1294.32
179.02	1234.93
179.24	1322.99
179.46	1216.49
179.68	1261.55
179.90	1249.26
180.13	1286.12
180.35	1320.94
180.57	1259.50
180.79	1275.88
181.01	1206.25
181.23	1269.74
181.45	1292.27
181.67	1239.02
181.90	1228.78
182.12	1241.07
182.34	1251.31
182.56	1298.41
182.78	1255.40
183.00	1284.08
183.22	1312.75
183.44	1224.69
183.66	1253.36
183.89	1251.31
184.11	1329.13
184.33	1273.84
184.55	1267.69
184.77	1245.16
184.99	1243.12
185.21	1196.01
185.43	1239.02
185.65	1282.03
185.87	1310.70
186.10	1249.26
186.32	1320.94
186.54	1228.78
186.76	1253.36
186.98	1292.27
187.20	1277.93
187.42	1232.88
187.64	1193.97
187.86	1300.46
188.08	1294.32
188.30	1239.02
188.52	1259.50
188.75	1302.51
188.97	1245.16
189.19	1259.50
189.41	1261.55
189.63	1214.45
189.85	1257.45
190.07	1306.60
190.29	1286.12
190.51	1222.64
190.73	1282.03
190.95	1279.98
191.17	1361.90
191.39	1277.93
191.61	1308.65
191.84	1177.58
192.06	1302.51
192.28	1269.74
192.50	1284.08
192.72	1245.16
192.94	1304.56
193.16	1284.08
193.38	1269.74
193.60	1267.69
193.82	1253.36
194.04	1282.03
194.26	1202.16
194.48	1261.55
194.70	1216.49
194.92	1290.22
195.14	1273.84
195.36	1232.88
195.58	1310.70
195.80	1222.64
196.02	1261.55
196.24	1245.16
196.46	1286.12
196.69	1314.80
196.91	1253.36
197.13	1214.45
197.35	1259.50
197.57	1253.36
197.79	1173.49
198.01	1228.78
198.23	1259.50
198.45	1253.36
198.67	1216.49
198.89	1263.60
199.11	1245.16
199.33	1251.31
199.55	1269.74
199.77	1196.01
199.99	1322.99
200.21	1277.93
200.43	1282.03
200.65	1267.69
200.87	1277.93
201.09	1286.12
201.31	1251.31
201.53	1318.89
201.75	1269.74
201.97	1202.16
202.19	1302.51
202.41	1255.40
202.63	1322.99
202.85	1273.84
203.07	1243.12
203.29	1347.56
203.51	1230.83
203.73	1226.73
203.95	1222.64
204.17	1271.79
204.39	1292.27
204.61	1216.49
204.83	1243.12
205.05	1157.10
205.27	1284.08
205.49	1277.93
205.71	1251.31
205.93	1200.11
206.15	1228.78
206.37	1316.84
206.59	1269.74
206.81	1239.02
207.03	1179.63
207.25	1302.51
207.47	1255.40
207.69	1316.84
207.91	1333.23
208.13	1304.56
208.34	1271.79
208.56	1193.97
208.78	1247.21
209.00	1257.45
209.22	1314.80
209.44	1300.46
209.66	1271.79
209.88	1308.65
210.10	1312.75
210.32	1255.40
210.54	1239.02
210.76	1265.64
210.98	1288.17
211.20	1271.79
211.42	1267.69
211.64	1243.12
211.86	1247.21
212.08	1249.26
212.30	1298.41
212.52	1269.74
212.74	1261.55
212.96	1308.65
213.17	1259.50
213.39	1234.93
213.61	1314.80
213.83	1318.89
214.05	1251.31
214.27	1196.01
214.49	1300.46
214.71	1257.45
214.93	1241.07
215.15	1263.60
215.37	1310.70
215.59	1202.16
215.81	1251.31
216.03	1216.49
216.24	1279.98
216.46	1263.60
216.68	1255.40
216.90	1249.26
217.12	1271.79
217.34	1273.84
217.56	1296.36
217.78	1275.88
218.00	1296.36
218.22	1333.23
218.44	1298.41
218.66	1220.59
218.87	1331.18
219.09	1245.16
219.31	1343.47
219.53	1275.88
219.75	1284.08
219.97	1249.26
220.19	1206.25
220.41	1257.45
220.63	1279.98
220.85	1230.83
221.06	1200.11
221.28	1177.58
221.50	1263.60
221.72	1200.11
221.94	1228.78
222.16	1273.84
222.38	1222.64
222.60	1304.56
222.82	1345.52
223.03	1304.56
223.25	1239.02
223.47	1239.02
223.69	1216.49
223.91	1284.08
224.13	1265.64
224.35	1267.69
224.57	1228.78
224.78	1212.40
225.00	1261.55
225.22	1255.40
225.44	1265.64
225.66	1236.97
225.88	1257.45
226.10	1224.69
226.32	1253.36
226.53	1263.60
226.75	1273.84
226.97	1267.69
227.19	1271.79
227.41	1245.16
227.63	1306.60
227.85	1196.01
228.06	1218.54
228.28	1347.56
228.50	1200.11
228.72	1282.03
228.94	1279.98
229.16	1239.02
229.37	1308.65
229.59	1288.17
229.81	1247.21
230.03	1208.30
230.25	1286.12
230.47	1210.35
230.69	1282.03
230.90	1189.87
231.12	1345.52
231.34	1236.97
231.56	1298.41
231.78	1200.11
232.00	1310.70
232.21	1241.07
232.43	1257.45
232.65	1214.45
232.87	1269.74
233.09	1284.08
233.30	1267.69
233.52	1226.73
233.74	1239.02
233.96	1228.78
234.18	1286.12
234.40	1296.36
234.61	1292.27
234.83	1230.83
235.05	1269.74
235.27	1224.69
235.49	1298.41
235.70	1261.55
235.92	1304.56
236.14	1331.18
236.36	1181.68
236.58	1269.74
236.79	1333.23
237.01	1298.41
237.23	1255.40
237.45	1279.98
237.67	1273.84
237.88	1253.36
238.10	1193.97
238.32	1349.61
238.54	1253.36
238.76	1363.95
238.97	1255.40
239.19	1236.97
239.41	1271.79
239.63	1241.07
239.85	1249.26
240.06	1292.27
240.28	1253.36
240.50	1282.03
240.72	1286.12
240.93	1318.89
241.15	1327.08
241.37	1226.73
241.59	1271.79
241.81	1294.32
242.02	1300.46
242.24	1298.41
242.46	1214.45
242.68	1282.03
242.89	1349.61
243.11	1312.75
243.33	1304.56
243.55	1224.69
243.76	1204.21
243.98	1245.16
244.20	1257.45
244.42	1267.69
244.64	1286.12
244.85	1259.50
245.07	1292.27
245.29	1294.32
245.51	1261.55
245.72	1241.07
245.94	1290.22
246.16	1222.64
246.38	1243.12
246.59	1261.55
246.81	1224.69
247.03	1224.69
247.24	1286.12
247.46	1322.99
247.68	1271.79
247.90	1296.36
248.11	1232.88
248.33	1275.88
248.55	1204.21
248.77	1284.08
248.98	1232.88
249.20	1247.21
249.42	1298.41
249.64	1290.22
249.85	1245.16
250.07	1269.74
250.29	1259.50
250.50	1286.12
250.72	1228.78
250.94	1275.88
251.16	1306.60
251.37	1234.93
251.59	1263.60
251.81	1247.21
252.02	1251.31
252.24	1220.59
252.46	1308.65
252.68	1308.65
252.89	1333.23
253.11	1263.60
253.33	1290.22
253.54	1335.28
253.76	1267.69
253.98	1261.55
254.20	1247.21
254.41	1236.97
254.63	1265.64
254.85	1282.03
255.06	1226.73
255.28	1314.80
255.50	1320.94
255.71	1243.12
255.93	1259.50
256.15	1314.80
256.36	1218.54
256.58	1261.55
256.80	1269.74
257.02	1318.89
257.23	1279.98
257.45	1282.03
257.67	1210.35
257.88	1331.18
258.10	1204.21
258.32	1294.32
258.53	1265.64
258.75	1257.45
258.97	1282.03
259.18	1286.12
259.40	1257.45
259.62	1234.93
259.83	1306.60
260.05	1282.03
260.27	1279.98
260.48	1212.40
260.70	1239.02
260.92	1249.26
261.13	1320.94
261.35	1312.75
261.57	1232.88
261.78	1335.28
262.00	1314.80
262.22	1267.69
262.43	1284.08
262.65	1279.98
262.86	1341.42
263.08	1282.03
263.30	1196.01
263.51	1224.69
263.73	1236.97
263.95	1269.74
264.16	1218.54
264.38	1228.78
264.60	1271.79
264.81	1292.27
265.03	1310.70
265.25	1320.94
265.46	1241.07
265.68	1298.41
265.89	1220.59
266.11	1185.77
266.33	1271.79
266.54	1284.08
266.76	1351.66
266.98	1277.93
267.19	1327.08
267.41	1257.45
267.62	1343.47
267.84	1196.01
268.06	1284.08
268.27	1204.21
268.49	1298.41
268.70	1239.02
268.92	1327.08
269.14	1175.53
269.35	1277.93
269.57	1306.60
269.79	1241.07
270.00	1261.55
270.22	1302.51
270.43	1259.50
270.65	1214.45
270.87	1226.73
271.08	1331.18
271.30	1282.03
271.51	1222.64
271.73	1236.97
271.95	1257.45
272.16	1337.32
272.38	1245.16
272.59	1247.21
272.81	1273.84
273.02	1279.98
273.24	1257.45
273.46	1327.08
273.67	1279.98
273.89	1245.16
274.10	1239.02
274.32	1273.84
274.54	1292.27
274.75	1331.18
274.97	1245.16
275.18	1331.18
275.40	1214.45
275.61	1296.36
275.83	1214.45
276.05	1247.21
276.26	1251.31
276.48	1265.64
276.69	1224.69
276.91	1218.54
277.12	1282.03
277.34	1306.60
277.55	1298.41
277.77	1300.46
277.99	1304.56
278.20	1249.26
278.42	1257.45
278.63	1310.70
278.85	1255.40
279.06	1255.40
279.28	1341.42
279.49	1277.93
279.71	1224.69
279.93	1187.82
280.14	1181.68
280.36	1185.77
280.57	1277.93
280.79	1273.84
281.00	1312.75
281.22	1298.41
281.43	1306.60
281.65	1290.22
281.86	1308.65
282.08	1325.04
282.29	1230.83
282.51	1142.77
282.73	1282.03
282.94	1249.26
283.16	1202.16
283.37	1320.94
283.59	1320.94
283.80	1241.07
284.02	1337.32
284.23	1230.83
284.45	1275.88
284.66	1288.17
284.88	1208.30
285.09	1314.80
285.31	1318.89
285.52	1302.51
285.74	1329.13
285.95	1275.88
286.17	1196.01
286.38	1298.41
286.60	1286.12
286.81	1263.60
287.03	1314.80
287.24	1277.93
287.46	1320.94
287.67	1249.26
287.89	1249.26
288.10	1243.12
288.32	1228.78
288.53	1277.93
288.75	1230.83
288.96	1286.12
289.18	1222.64
289.39	1279.98
289.61	1245.16
289.82	1273.84
290.04	1263.60
290.25	1157.10
290.47	1236.97
290.68	1210.35
290.90	1271.79
291.11	1234.93
291.33	1255.40
291.54	1218.54
291.76	1271.79
291.97	1294.32
292.18	1257.45
292.40	1243.12
292.61	1191.92
292.83	1284.08
293.04	1318.89
293.26	1255.40
293.47	1290.22
293.69	1253.36
293.90	1296.36
294.12	1255.40
294.33	1230.83
294.55	1277.93
294.76	1245.16
294.97	1218.54
295.19	1255.40
295.40	1300.46
295.62	1314.80
295.83	1220.59
296.05	1286.12
296.26	1279.98
296.48	1347.56
296.69	1296.36
296.90	1257.45
297.12	1234.93
297.33	1232.88
297.55	1218.54
297.76	1222.64
297.98	1247.21
298.19	1234.93
298.41	1204.21
298.62	1292.27
298.83	1314.80
299.05	1230.83
299.26	1247.21
299.48	1255.40
299.69	1271.79
299.90	1288.17
300.12	1214.45
300.33	1265.64
300.55	1255.40
300.76	1234.93
300.98	1320.94
301.19	1290.22
301.40	1198.06
301.62	1273.84
301.83	1273.84
302.05	1251.31
302.26	1263.60
302.47	1300.46
302.69	1298.41
302.90	1292.27
303.12	1245.16
303.33	1273.84
303.54	1271.79
303.76	1257.45
303.97	1259.50
304.19	1351.66
304.40	1341.42
304.61	1241.07
304.83	1296.36
305.04	1345.52
305.26	1243.12
305.47	1230.83
305.68	1300.46
305.90	1179.63
306.11	1267.69
306.33	1282.03
306.54	1216.49
306.75	1333.23
306.97	1212.40
307.18	1363.95
307.39	1325.04
307.61	1257.45
307.82	1304.56
308.04	1239.02
308.25	1261.55
308.46	1310.70
308.68	1239.02
308.89	1251.31
309.10	1284.08
309.32	1279.98
309.53	1325.04
309.74	1306.60
309.96	1253.36
310.17	1322.99
310.39	1304.56
310.60	1245.16
310.81	1236.97
311.03	1329.13
311.24	1318.89
311.45	1253.36
311.67	1286.12
311.88	1247.21
312.09	1220.59
312.31	1228.78
312.52	1296.36
312.73	1255.40
312.95	1267.69
313.16	1288.17
313.37	1290.22
313.59	1236.97
313.80	1257.45
314.01	1378.28
314.23	1202.16
314.44	1239.02
314.65	1267.69
314.87	1282.03
315.08	1320.94
315.29	1279.98
315.51	1222.64
315.72	1282.03
315.93	1232.88
316.15	1257.45
316.36	1243.12
316.57	1269.74
316.79	1277.93
317.00	1308.65
317.21	1220.59
317.43	1206.25
317.64	1284.08
317.85	1239.02
318.07	1257.45
318.28	1331.18
318.49	1273.84
318.70	1228.78
318.92	1257.45
319.13	1255.40
319.34	1267.69
319.56	1294.32
319.77	1245.16
319.98	1216.49
320.20	1226.73
320.41	1302.51
320.62	1325.04
320.83	1214.45
321.05	1341.42
321.26	1277.93
321.47	1220.59
321.69	1284.08
321.90	1230.83
322.11	1247.21
322.32	1234.93
322.54	1247.21
322.75	1302.51
322.96	1255.40
323.18	1249.26
323.39	1263.60
323.60	1296.36
323.81	1279.98
324.03	1277.93
324.24	1304.56
324.45	1302.51
324.66	1261.55
324.88	1228.78
325.09	1263.60
325.30	1292.27
325.52	1298.41
325.73	1282.03
325.94	1206.25
326.15	1298.41
326.37	1241.07
326.58	1325.04
326.79	1300.46
327.00	1273.84
327.22	1198.06
327.43	1261.55
327.64	1241.07
327.85	1224.69
328.07	1257.45
328.28	1259.50
328.49	1212.40
328.70	1239.02
328.92	1273.84
329.13	1234.93
329.34	1249.26
329.55	1312.75
329.76	1269.74
329.98	1204.21
330.19	1261.55
330.40	1239.02
330.61	1302.51
330.83	1277.93
331.04	1249.26
331.25	1290.22
331.46	1234.93
331.68	1294.32
331.89	1275.88
332.10	1206.25
332.31	1337.32
332.52	1318.89
332.74	1300.46
332.95	1218.54
333.16	1275.88
333.37	1251.31
333.58	1251.31
333.80	1261.55
334.01	1255.40
334.22	1320.94
334.43	1284.08
334.64	1337.32
334.86	1263.60
335.07	1253.36
335.28	1189.87
335.49	1251.31
335.70	1304.56
335.92	1263.60
336.13	1341.42
336.34	1314.80
336.55	1329.13
336.76	1290.22
336.98	1253.36
337.19	1263.60
337.40	1290.22
337.61	1269.74
337.82	1257.45
338.04	1282.03
338.25	1175.53
338.46	1257.45
338.67	1232.88
338.88	1290.22
339.09	1230.83
339.31	1286.12
339.52	1253.36
339.73	1263.60
339.94	1228.78
340.15	1288.17
340.36	1279.98
340.58	1243.12
340.79	1302.51
341.00	1286.12
341.21	1314.80
341.42	1253.36
341.63	1263.60
341.85	1292.27
342.06	1357.80
342.27	1257.45
342.48	1284.08
342.69	1224.69
342.90	1183.73
343.12	1253.36
343.33	1255.40
343.54	1263.60
343.75	1259.50
343.96	1318.89
344.17	1228.78
344.38	1271.79
344.60	1247.21
344.81	1224.69
345.02	1218.54
345.23	1267.69
345.44	1222.64
345.65	1331.18
345.86	1271.79
346.07	1224.69
346.29	1249.26
346.50	1241.07
346.71	1236.97
346.92	1282.03
347.13	1255.40
347.34	1239.02
347.55	1179.63
347.76	1263.60
347.98	1222.64
348.19	1239.02
348.40	1296.36
348.61	1228.78
348.82	1259.50
349.03	1327.08
349.24	1312.75
349.45	1279.98
349.66	1261.55
349.88	1290.22
350.09	1286.12
350.30	1347.56
350.51	1300.46
350.72	1271.79
350.93	1191.92
351.14	1228.78
351.35	1296.36
351.56	1243.12
351.77	1206.25
351.99	1212.40
352.20	1257.45
352.41	1302.51
352.62	1183.73
352.83	1284.08
353.04	1257.45
353.25	1282.03
353.46	1261.55
353.67	1314.80
353.88	1284.08
354.09	1206.25
354.30	1210.35
354.52	1288.17
354.73	1247.21
354.94	1232.88
355.15	1265.64
355.36	1288.17
355.57	1282.03
355.78	1241.07
355.99	1200.11
356.20	1314.80
356.41	1290.22
356.62	1296.36
356.83	1298.41
357.04	1277.93
357.25	1247.21
357.46	1284.08
357.68	1320.94
357.89	1288.17
358.10	1239.02
358.31	1157.10
358.52	1316.84
358.73	1279.98
358.94	1286.12
359.15	1239.02
359.36	1329.13
359.57	1271.79
359.78	1253.36
359.99	1234.93
360.20	1212.40
360.41	1304.56
360.62	1210.35
360.83	1257.45
361.04	1308.65
361.25	1257.45
361.46	1314.80
361.67	1290.22
361.88	1243.12
362.09	1245.16
362.30	1310.70
362.51	1265.64
362.72	1271.79
362.93	1230.83
363.14	1277.93
363.35	1255.40
363.56	1306.60
363.78	1206.25
363.99	1275.88
364.20	1347.56
364.41	1226.73
364.62	1290.22
364.83	1341.42
365.04	1247.21
365.25	1335.28
365.46	1265.64
365.67	1298.41
365.88	1257.45
366.09	1273.84
366.30	1288.17
366.51	1359.85
366.72	1243.12
366.93	1259.50
367.14	1214.45
367.35	1259.50
367.56	1277.93
367.77	1308.65
367.98	1187.82
368.18	1363.95
368.39	1333.23
368.60	1277.93
368.81	1286.12
369.02	1296.36
369.23	1275.88
369.44	1253.36
369.65	1257.45
369.86	1300.46
370.07	1230.83
370.28	1253.36
370.49	1282.03
370.70	1279.98
370.91	1292.27
371.12	1292.27
371.33	1279.98
371.54	1232.88
371.75	1234.93
371.96	1247.21
372.17	1290.22
372.38	1259.50
372.59	1189.87
372.80	1310.70
373.01	1314.80
373.22	1222.64
373.43	1275.88
373.64	1290.22
373.85	1230.83
374.06	1265.64
374.26	1263.60
374.47	1210.35
374.68	1318.89
374.89	1374.19
375.10	1329.13
375.31	1273.84
375.52	1187.82
375.73	1273.84
375.94	1320.94
376.15	1282.03
376.36	1290.22
376.57	1277.93
376.78	1308.65
376.99	1347.56
377.20	1327.08
377.40	1273.84
377.61	1202.16
377.82	1251.31
378.03	1189.87
378.24	1253.36
378.45	1236.97
378.66	1232.88
378.87	1263.60
379.08	1347.56
379.29	1232.88
379.50	1284.08
379.71	1300.46
379.91	1277.93
380.12	1290.22
380.33	1290.22
380.54	1273.84
380.75	1306.60
380.96	1273.84
381.17	1257.45
381.38	1232.88
381.59	1306.60
381.80	1325.04
382.00	1271.79
382.21	1300.46
382.42	1312.75
382.63	1216.49
382.84	1249.26
383.05	1234.93
383.26	1257.45
383.47	1241.07
383.68	1284.08
383.88	1304.56
384.09	1232.88
384.30	1271.79
384.51	1314.80
384.72	1296.36
384.93	1314.80
385.14	1210.35
385.35	1208.30
385.55	1318.89
385.76	1263.60
385.97	1294.32
386.18	1245.16
386.39	1275.88
386.60	1255.40
386.81	1208.30
387.02	1329.13
387.22	1282.03
387.43	1214.45
387.64	1261.55
387.85	1312.75
388.06	1329.13
388.27	1306.60
388.48	1304.56
388.68	1275.88
388.89	1241.07
389.10	1208.30
389.31	1249.26
389.52	1312.75
389.73	1241.07
389.93	1245.16
390.14	1314.80
390.35	1302.51
390.56	1251.31
390.77	1320.94
390.98	1302.51
391.18	1255.40
391.39	1259.50
391.60	1271.79
391.81	1355.76
392.02	1277.93
392.23	1253.36
392.43	1304.56
392.64	1300.46
392.85	1245.16
393.06	1253.36
393.27	1253.36
393.47	1271.79
393.68	1294.32
393.89	1308.65
394.10	1308.65
394.31	1247.21
394.52	1271.79
394.72	1253.36
394.93	1249.26
395.14	1279.98
395.35	1271.79
395.56	1222.64
395.76	1253.36
395.97	1333.23
396.18	1290.22
396.39	1206.25
396.60	1271.79
396.80	1290.22
397.01	1196.01
397.22	1257.45
397.43	1245.16
397.64	1290.22
397.84	1232.88
398.05	1271.79
398.26	1275.88
398.47	1284.08
398.67	1329.13
398.88	1318.89
399.09	1208.30
399.30	1271.79
399.51	1298.41
399.71	1247.21
399.92	1282.03
400.13	1255.40
400.34	1284.08
400.54	1277.93
400.75	1216.49
400.96	1269.74
401.17	1202.16
401.37	1220.59
401.58	1224.69
401.79	1249.26
402.00	1228.78
402.21	1282.03
402.41	1288.17
402.62	1257.45
402.83	1265.64
403.04	1251.31
403.24	1239.02
403.45	1222.64
403.66	1265.64
403.87	1243.12
404.07	1282.03
404.28	1318.89
404.49	1232.88
404.70	1257.45
404.90	1204.21
405.11	1259.50
405.32	1204.21
405.52	1290.22
405.73	1257.45
405.94	1331.18
406.15	1198.06
406.35	1206.25
406.56	1267.69
406.77	1234.93
406.98	1239.02
407.18	1216.49
407.39	1277.93
407.60	1304.56
407.80	1236.97
408.01	1331.18
408.22	1310.70
408.43	1327.08
408.63	1286.12
408.84	1302.51
409.05	1236.97
409.25	1273.84
409.46	1271.79
409.67	1263.60
409.88	1306.60
410.08	1265.64
410.29	1243.12
410.50	1216.49
410.70	1273.84
410.91	1218.54
411.12	1263.60
411.32	1296.36
411.53	1273.84
411.74	1298.41
411.95	1314.80
412.15	1267.69
412.36	1355.76
412.57	1228.78
412.77	1290.22
412.98	1206.25
413.19	1331.18
413.39	1279.98
413.60	1249.26
413.81	1243.12
414.01	1302.51
414.22	1257.45
414.43	1318.89
414.63	1312.75
414.84	1228.78
415.05	1267.69
415.25	1265.64
415.46	1320.94
415.67	1226.73
415.87	1253.36
416.08	1232.88
416.29	1286.12
416.49	1226.73
416.70	1284.08
416.91	1271.79
417.11	1234.93
417.32	1206.25
417.53	1310.70
417.73	1288.17
417.94	1288.17
418.15	1275.88
418.35	1232.88
418.56	1230.83
418.77	1210.35
418.97	1282.03
419.18	1306.60
419.38	1322.99
419.59	1247.21
419.80	1312.75
420.00	1300.46
420.21	1292.27
420.42	1255.40
420.62	1282.03
420.83	1181.68
421.04	1271.79
421.24	1284.08
421.45	1288.17
421.65	1187.82
421.86	1241.07
422.07	1290.22
422.27	1263.60
422.48	1306.60
422.69	1247.21
422.89	1314.80
423.10	1286.12
423.30	1216.49
423.51	1236.97
423.72	1181.68
423.92	1339.37
424.13	1277.93
424.33	1236.97
424.54	1255.40
424.75	1282.03
424.95	1292.27
425.16	1271.79
425.36	1245.16
425.57	1245.16
425.78	1232.88
425.98	1329.13
426.19	1198.06
426.39	1241.07
426.60	1257.45
426.81	1290.22
427.01	1308.65
427.22	1249.26
427.42	1241.07
427.63	1220.59
427.83	1234.93
428.04	1298.41
428.25	1269.74
428.45	1247.21
428.66	1257.45
428.86	1265.64
429.07	1308.65
429.28	1208.30
429.48	1277.93
429.69	1292.27
429.89	1247.21
430.10	1282.03
430.30	1275.88
430.51	1288.17
430.71	1216.49
430.92	1228.78
431.13	1259.50
431.33	1302.51
431.54	1222.64
431.74	1241.07
431.95	1314.80
432.15	1259.50
432.36	1290.22
432.56	1263.60
432.77	1241.07
432.98	1294.32
433.18	1277.93
433.39	1322.99
433.59	1212.40
433.80	1368.04
434.00	1318.89
434.21	1273.84
434.41	1300.46
434.62	1226.73
434.82	1230.83
435.03	1232.88
435.23	1255.40
435.44	1273.84
435.64	1177.58
435.85	1236.97
436.06	1204.21
436.26	1310.70
436.47	1282.03
436.67	1304.56
436.88	1294.32
437.08	1261.55
437.29	1257.45
437.49	1265.64
437.70	1234.93
437.90	1214.45
438.11	1234.93
438.31	1267.69
438.52	1236.97
438.72	1284.08
438.93	1292.27
439.13	1253.36
439.34	1300.46
439.54	1247.21
439.75	1232.88
439.95	1296.36
440.16	1259.50
440.36	1257.45
440.57	1310.70
440.77	1347.56
440.98	1226.73
441.18	1304.56
441.39	1288.17
441.59	1267.69
441.80	1214.45
442.00	1335.28
442.21	1271.79
442.41	1298.41
442.62	1277.93
442.82	1257.45
443.02	1284.08
443.23	1271.79
443.43	1249.26
443.64	1275.88
443.84	1265.64
444.05	1255.40
444.25	1300.46
444.46	1228.78
444.66	1257.45
444.87	1306.60
445.07	1263.60
445.28	1241.07
445.48	1257.45
445.69	1263.60
445.89	1273.84
446.09	1247.21
446.30	1208.30
446.50	1253.36
446.71	1318.89
446.91	1302.51
447.12	1347.56
447.32	1292.27
447.53	1288.17
447.73	1290.22
447.93	1298.41
448.14	1294.32
448.34	1269.74
448.55	1308.65
448.75	1312.75
448.96	1314.80
449.16	1310.70
449.36	1296.36
449.57	1298.41
449.77	1314.80
449.98	1290.22
450.18	1329.13
450.39	1202.16
450.59	1253.36
450.79	1304.56
451.00	1343.47
451.20	1290.22
451.41	1269.74
451.61	1300.46
451.81	1300.46
452.02	1279.98
452.22	1304.56
452.43	1247.21
452.63	1204.21
452.84	1329.13
453.04	1232.88
453.24	1210.35
453.45	1251.31
453.65	1345.52
453.86	1267.69
454.06	1294.32
454.26	1337.32
454.47	1220.59
454.67	1320.94
454.87	1271.79
455.08	1290.22
455.28	1224.69
455.49	1331.18
455.69	1261.55
455.89	1263.60
456.10	1220.59
456.30	1267.69
456.51	1312.75
456.71	1230.83
456.91	1279.98
457.12	1247.21
457.32	1302.51
457.52	1220.59
457.73	1286.12
457.93	1210.35
458.14	1290.22
458.34	1275.88
458.54	1249.26
458.75	1290.22
458.95	1241.07
459.15	1273.84
459.36	1220.59
459.56	1224.69
459.76	1245.16
459.97	1187.82
460.17	1236.97
460.37	1277.93
460.58	1298.41
460.78	1325.04
460.99	1236.97
461.19	1282.03
461.39	1300.46
461.60	1279.98
461.80	1390.57
462.00	1232.88
462.21	1251.31
462.41	1239.02
462.61	1243.12
462.82	1232.88
463.02	1296.36
463.22	1255.40
463.43	1306.60
463.63	1249.26
463.83	1279.98
464.04	1286.12
464.24	1300.46
464.44	1286.12
464.64	1265.64
464.85	1286.12
465.05	1363.95
465.25	1282.03
465.46	1171.44
465.66	1355.76
465.86	1325.04
466.07	1255.40
466.27	1327.08
466.47	1267.69
466.68	1284.08
466.88	1279.98
467.08	1193.97
467.29	1339.37
467.49	1296.36
467.69	1282.03
467.89	1243.12
468.10	1279.98
468.30	1200.11
468.50	1234.93
468.71	1341.42
468.91	1320.94
469.11	1271.79
469.31	1337.32
469.52	1331.18
469.72	1345.52
469.92	1216.49
470.13	1277.93
470.33	1318.89
470.53	1226.73
470.73	1298.41
470.94	1226.73
471.14	1275.88
471.34	1363.95
471.54	1343.47
471.75	1286.12
471.95	1208.30
472.15	1257.45
472.36	1277.93
472.56	1267.69
472.76	1376.24
472.96	1308.65
473.17	1177.58
473.37	1263.60
473.57	1282.03
473.77	1325.04
473.98	1302.51
474.18	1331.18
474.38	1361.90
474.58	1290.22
474.79	1249.26
474.99	1204.21
475.19	1314.80
475.39	1314.80
475.60	1279.98
475.80	1279.98
476.00	1218.54
476.20	1306.60
476.41	1298.41
476.61	1279.98
476.81	1212.40
477.01	1257.45
477.21	1279.98
477.42	1282.03
477.62	1175.53
477.82	1290.22
478.02	1294.32
478.23	1282.03
478.43	1288.17
478.63	1257.45
478.83	1253.36
479.03	1318.89
479.24	1234.93
479.44	1298.41
479.64	1218.54
479.84	1241.07
480.04	1257.45
480.25	1282.03
480.45	1255.40
480.65	1265.64
480.85	1343.47
481.06	1320.94
481.26	1265.64
481.46	1277.93
481.66	1245.16
481.86	1222.64
482.06	1257.45
482.27	1284.08
482.47	1224.69
482.67	1273.84
482.87	1335.28
483.07	1337.32
483.28	1349.61
483.48	1310.70
483.68	1222.64
483.88	1249.26
484.08	1306.60
484.29	1292.27
484.49	1261.55
484.69	1236.97
484.89	1253.36
485.09	1282.03
485.29	1263.60
485.50	1318.89
485.70	1253.36
485.90	1298.41
486.10	1314.80
486.30	1292.27
486.50	1247.21
486.71	1277.93
486.91	1271.79
487.11	1204.21
487.31	1267.69
487.51	1282.03
487.71	1269.74
487.91	1292.27
488.12	1273.84
488.32	1300.46
488.52	1245.16
488.72	1279.98
488.92	1251.31
489.12	1290.22
489.32	1298.41
489.53	1224.69
489.73	1263.60
489.93	1316.84
490.13	1185.77
490.33	1288.17
490.53	1292.27
490.73	1249.26
490.94	1212.40
491.14	1284.08
491.34	1282.03
491.54	1339.37
491.74	1224.69
491.94	1304.56
492.14	1329.13
492.34	1232.88
492.54	1288.17
492.75	1267.69
492.95	1239.02
493.15	1343.47
493.35	1288.17
493.55	1267.69
493.75	1298.41
493.95	1290.22
494.15	1271.79
494.35	1216.49
494.56	1288.17
494.76	1337.32
494.96	1329.13
495.16	1304.56
495.36	1218.54
495.56	1196.01
495.76	1288.17
495.96	1220.59
496.16	1269.74
496.36	1337.32
496.56	1271.79
496.77	1273.84
496.97	1304.56
497.17	1222.64
497.37	1290.22
497.57	1269.74
497.77	1236.97
497.97	1259.50
498.17	1277.93
498.37	1265.64
498.57	1294.32
498.77	1275.88
498.97	1286.12
499.17	1257.45
499.38	1275.88
499.58	1239.02
499.78	1214.45
499.98	1298.41
500.18	1300.46
500.38	1282.03
500.58	1216.49
500.78	1247.21
500.98	1265.64
501.18	1275.88
501.38	1267.69
501.58	1302.51
501.78	1279.98
501.98	1288.17
502.18	1322.99
502.38	1212.40
502.58	1279.98
502.78	1271.79
502.98	1325.04
503.18	1259.50
503.38	1245.16
503.59	1245.16
503.79	1177.58
503.99	1306.60
504.19	1363.95
504.39	1288.17
504.59	1359.85
504.79	1327.08
504.99	1286.12
505.19	1267.69
505.39	1279.98
505.59	1294.32
505.79	1212.40
505.99	1282.03
506.19	1343.47
506.39	1288.17
506.59	1273.84
506.79	1222.64
506.99	1290.22
507.19	1294.32
507.39	1314.80
507.59	1208.30
507.79	1304.56
507.99	1355.76
508.19	1275.88
508.39	1239.02
508.59	1269.74
508.79	1282.03
508.99	1304.56
509.19	1314.80
509.39	1290.22
509.59	1259.50
509.79	1306.60
509.99	1316.84
510.19	1298.41
510.39	1288.17
510.59	1216.49
510.79	1312.75
510.99	1314.80
511.19	1290.22
511.39	1286.12
511.59	1241.07
511.79	1310.70
511.99	1308.65
512.19	1374.19
512.38	1298.41
512.58	1312.75
512.78	1265.64
512.98	1257.45
513.18	1271.79
513.38	1288.17
513.58	1335.28
513.78	1277.93
513.98	1341.42
514.18	1249.26
514.38	1271.79
514.58	1185.77
514.78	1282.03
514.98	1269.74
515.18	1339.37
515.38	1179.63
515.58	1236.97
515.78	1306.60
515.98	1320.94
516.18	1298.41
516.38	1226.73
516.57	1251.31
516.77	1292.27
516.97	1257.45
517.17	1271.79
517.37	1249.26
517.57	1320.94
517.77	1271.79
517.97	1298.41
518.17	1267.69
518.37	1329.13
518.57	1292.27
518.77	1304.56
518.97	1220.59
519.16	1273.84
519.36	1294.32
519.56	1300.46
519.76	1277.93
519.96	1286.12
520.16	1228.78
520.36	1290.22
520.56	1345.52
520.76	1224.69
520.96	1247.21
521.16	1355.76
521.35	1245.16
521.55	1286.12
521.75	1279.98
521.95	1294.32
522.15	1212.40
522.35	1263.60
522.55	1314.80
522.75	1372.14
522.95	1253.36
523.14	1339.37
523.34	1341.42
523.54	1263.60
523.74	1265.64
523.94	1273.84
524.14	1259.50
524.34	1329.13
524.54	1290.22
524.73	1296.36
524.93	1255.40
525.13	1306.60
525.33	1271.79
525.53	1198.06
525.73	1275.88
525.93	1310.70
526.13	1263.60
526.32	1269.74
526.52	1282.03
526.72	1245.16
526.92	1304.56
527.12	1329.13
527.32	1243.12
527.52	1271.79
527.71	1331.18
527.91	1241.07
528.11	1380.33
528.31	1220.59
528.51	1298.41
528.71	1273.84
528.90	1259.50
529.10	1232.88
529.30	1300.46
529.50	1261.55
529.70	1259.50
529.90	1249.26
530.09	1300.46
530.29	1390.57
530.49	1191.92
530.69	1255.40
530.89	1275.88
531.09	1230.83
531.28	1259.50
531.48	1370.09
531.68	1310.70
531.88	1269.74
532.08	1273.84
532.28	1275.88
532.47	1251.31
532.67	1282.03
532.87	1296.36
533.07	1259.50
533.27	1277.93
533.46	1304.56
533.66	1273.84
533.86	1212.40
534.06	1202.16
534.26	1216.49
534.45	1259.50
534.65	1257.45
534.85	1347.56
535.05	1320.94
535.25	1294.32
535.44	1341.42
535.64	1304.56
535.84	1249.26
536.04	1236.97
536.24	1320.94
536.43	1275.88
536.63	1275.88
536.83	1292.27
537.03	1386.47
537.22	1308.65
537.42	1265.64
537.62	1308.65
537.82	1222.64
538.02	1261.55
538.21	1327.08
538.41	1232.88
538.61	1232.88
538.81	1257.45
539.00	1288.17
539.20	1275.88
539.40	1239.02
539.60	1279.98
539.79	1243.12
539.99	1277.93
540.19	1224.69
540.39	1271.79
540.58	1339.37
540.78	1292.27
540.98	1314.80
541.18	1277.93
541.37	1320.94
541.57	1277.93
541.77	1306.60
541.97	1249.26
542.16	1265.64
542.36	1294.32
542.56	1300.46
542.76	1277.93
542.95	1302.51
543.15	1294.32
543.35	1279.98
543.54	1277.93
543.74	1308.65
543.94	1263.60
544.14	1306.60
544.33	1298.41
544.53	1259.50
544.73	1314.80
544.93	1316.84
545.12	1218.54
545.32	1255.40
545.52	1257.45
545.71	1310.70
545.91	1269.74
546.11	1282.03
546.30	1263.60
546.50	1308.65
546.70	1247.21
546.90	1253.36
547.09	1249.26
547.29	1288.17
547.49	1290.22
547.68	1257.45
547.88	1294.32
548.08	1286.12
548.27	1308.65
548.47	1320.94
548.67	1310.70
548.87	1255.40
549.06	1253.36
549.26	1308.65
549.46	1269.74
549.65	1308.65
549.85	1269.74
550.05	1232.88
550.24	1216.49
550.44	1259.50
550.64	1318.89
550.83	1327.08
551.03	1308.65
551.23	1335.28
551.42	1251.31
551.62	1218.54
551.82	1253.36
552.01	1277.93
552.21	1306.60
552.41	1265.64
552.60	1275.88
552.80	1269.74
553.00	1329.13
553.19	1253.36
553.39	1306.60
553.59	1253.36
553.78	1222.64
553.98	1226.73
554.17	1228.78
554.37	1349.61
554.57	1370.09
554.76	1187.82
554.96	1253.36
555.16	1282.03
555.35	1255.40
555.55	1282.03
555.75	1251.31
555.94	1327.08
556.14	1320.94
556.33	1314.80
556.53	1265.64
556.73	1261.55
556.92	1359.85
557.12	1259.50
557.32	1273.84
557.51	1267.69
557.71	1325.04
557.90	1310.70
558.10	1282.03
558.30	1298.41
558.49	1273.84
558.69	1236.97
558.88	1253.36
559.08	1214.45
559.28	1298.41
559.47	1304.56
559.67	1275.88
559.86	1255.40
560.06	1253.36
560.26	1296.36
560.45	1284.08
560.65	1290.22
560.84	1316.84
561.04	1241.07
561.24	1169.39
561.43	1294.32
561.63	1298.41
561.82	1306.60
562.02	1296.36
562.22	1294.32
562.41	1275.88
562.61	1312.75
562.80	1298.41
563.00	1292.27
563.19	1185.77
563.39	1263.60
563.59	1351.66
563.78	1304.56
563.98	1300.46
564.17	1296.36
564.37	1310.70
564.56	1335.28
564.76	1273.84
564.96	1275.88
565.15	1308.65
565.35	1347.56
565.54	1228.78
565.74	1335.28
565.93	1232.88
566.13	1320.94
566.32	1232.88
566.52	1298.41
566.71	1183.73
566.91	1222.64
567.11	1277.93
567.30	1214.45
567.50	1275.88
567.69	1261.55
567.89	1298.41
568.08	1327.08
568.28	1267.69
568.47	1361.90
568.67	1253.36
568.86	1306.60
569.06	1275.88
569.25	1294.32
569.45	1243.12
569.64	1318.89
569.84	1337.32
570.04	1273.84
570.23	1310.70
570.43	1282.03
570.62	1298.41
570.82	1290.22
571.01	1249.26
571.21	1292.27
571.40	1288.17
571.60	1259.50
571.79	1271.79
571.99	1355.76
572.18	1218.54
572.38	1267.69
572.57	1245.16
572.77	1241.07
572.96	1339.37
573.16	1288.17
573.35	1304.56
573.55	1288.17
573.74	1310.70
573.94	1275.88
574.13	1167.34
574.33	1304.56
574.52	1257.45
574.71	1284.08
574.91	1298.41
575.10	1208.30
575.30	1308.65
575.49	1288.17
575.69	1277.93
575.88	1271.79
576.08	1259.50
576.27	1292.27
576.47	1318.89
576.66	1236.97
576.86	1263.60
577.05	1331.18
577.25	1306.60
577.44	1249.26
577.64	1292.27
577.83	1286.12
578.02	1230.83
578.22	1306.60
578.41	1314.80
578.61	1269.74
578.80	1320.94
579.00	1288.17
579.19	1314.80
579.39	1304.56
579.58	1245.16
579.77	1314.80
579.97	1277.93
580.16	1314.80
580.36	1355.76
580.55	1234.93
580.75	1300.46
580.94	1335.28
581.13	1312.75
581.33	1359.85
581.52	1255.40
581.72	1298.41
581.91	1284.08
582.11	1220.59
582.30	1267.69
582.49	1271.79
582.69	1257.45
582.88	1273.84
583.08	1269.74
583.27	1306.60
583.47	1224.69
583.66	1296.36
583.85	1251.31
584.05	1249.26
584.24	1286.12
584.44	1320.94
584.63	1241.07
584.82	1296.36
585.02	1269.74
585.21	1226.73
585.41	1271.79
585.60	1378.28
585.79	1275.88
585.99	1282.03
586.18	1290.22
586.37	1306.60
586.57	1253.36
586.76	1282.03
586.96	1245.16
587.15	1284.08
587.34	1277.93
587.54	1288.17
587.73	1290.22
587.93	1308.65
588.12	1245.16
588.31	1263.60
588.51	1245.16
588.70	1269.74
588.89	1210.35
589.09	1314.80
589.28	1271.79
589.47	1314.80
589.67	1257.45
589.86	1312.75
590.06	1308.65
590.25	1269.74
590.44	1284.08
590.64	1234.93
590.83	1265.64
591.02	1288.17
591.22	1224.69
591.41	1261.55
591.60	1179.63
591.80	1337.32
591.99	1226.73
592.18	1261.55
592.38	1298.41
592.57	1308.65
592.76	1351.66
592.96	1261.55
593.15	1333.23
593.34	1316.84
593.54	1322.99
593.73	1261.55
593.92	1251.31
594.12	1322.99
594.31	1300.46
594.50	1251.31
594.70	1286.12
594.89	1304.56
595.08	1257.45
595.28	1288.17
595.47	1226.73
595.66	1290.22
595.86	1273.84
596.05	1273.84
596.24	1249.26
596.43	1290.22
596.63	1316.84
596.82	1282.03
597.01	1316.84
597.21	1269.74
597.40	1325.04
597.59	1204.21
597.79	1275.88
597.98	1224.69
598.17	1316.84
598.36	1263.60
598.56	1267.69
598.75	1314.80
598.94	1288.17
599.14	1290.22
599.33	1288.17
599.52	1304.56
599.71	1300.46
599.91	1265.64
600.10	1292.27
600.29	1368.04
600.48	1286.12
600.68	1232.88
600.87	1345.52
601.06	1331.18
601.26	1306.60
601.45	1370.09
601.64	1218.54
601.83	1327.08
602.03	1265.64
602.22	1312.75
602.41	1304.56
602.60	1290.22
602.80	1279.98
602.99	1290.22
603.18	1300.46
603.37	1339.37
603.57	1275.88
603.76	1251.31
603.95	1247.21
604.14	1361.90
604.34	1271.79
604.53	1337.32
604.72	1284.08
604.91	1290.22
605.10	1314.80
605.30	1288.17
605.49	1290.22
605.68	1284.08
605.87	1406.95
606.07	1263.60
606.26	1300.46
606.45	1327.08
606.64	1298.41
606.84	1341.42
607.03	1251.31
607.22	1288.17
607.41	1218.54
607.60	1284.08
607.80	1273.84
607.99	1239.02
608.18	1267.69
608.37	1331.18
608.56	1318.89
608.76	1310.70
608.95	1265.64
609.14	1298.41
609.33	1288.17
609.52	1273.84
609.72	1288.17
609.91	1251.31
610.10	1261.55
610.29	1288.17
610.48	1349.61
610.68	1357.80
610.87	1282.03
611.06	1314.80
611.25	1257.45
611.44	1263.60
611.63	1265.64
611.83	1320.94
612.02	1357.80
612.21	1333.23
612.40	1306.60
612.59	1290.22
612.79	1337.32
612.98	1288.17
613.17	1247.21
613.36	1286.12
613.55	1253.36
613.74	1329.13
613.93	1304.56
614.13	1298.41
614.32	1284.08
614.51	1329.13
614.70	1292.27
614.89	1214.45
615.08	1292.27
615.28	1263.60
615.47	1284.08
615.66	1255.40
615.85	1263.60
616.04	1241.07
616.23	1329.13
616.42	1286.12
616.62	1286.12
616.81	1267.69
617.00	1267.69
617.19	1347.56
617.38	1247.21
617.57	1241.07
617.76	1249.26
617.95	1282.03
618.15	1261.55
618.34	1228.78
618.53	1286.12
618.72	1247.21
618.91	1251.31
619.10	1294.32
619.29	1316.84
619.48	1247.21
619.68	1304.56
619.87	1241.07
620.06	1337.32
620.25	1304.56
620.44	1236.97
620.63	1245.16
620.82	1331.18
621.01	1279.98
621.20	1226.73
621.39	1320.94
621.59	1341.42
621.78	1325.04
621.97	1216.49
622.16	1366.00
622.35	1275.88
622.54	1318.89
622.73	1226.73
622.92	1218.54
623.11	1247.21
623.30	1241.07
623.49	1271.79
623.68	1263.60
623.88	1353.71
624.07	1277.93
624.26	1257.45
624.45	1241.07
624.64	1257.45
624.83	1243.12
625.02	1310.70
625.21	1271.79
625.40	1294.32
625.59	1331.18
625.78	1347.56
625.97	1318.89
626.16	1310.70
626.35	1263.60
626.54	1243.12
626.74	1361.90
626.93	1333.23
627.12	1302.51
627.31	1312.75
627.50	1228.78
627.69	1290.22
627.88	1261.55
628.07	1249.26
628.26	1224.69
628.45	1239.02
628.64	1286.12
628.83	1275.88
629.02	1359.85
629.21	1247.21
629.40	1314.80
629.59	1282.03
629.78	1343.47
629.97	1292.27
630.16	1277.93
630.35	1300.46
630.54	1247.21
630.73	1286.12
630.92	1357.80
631.11	1355.76
631.30	1304.56
631.49	1318.89
631.68	1603.56
631.87	6735.77
632.06	23748.25
632.25	44506.46
632.44	65535.00
632.63	65535.00
632.82	65535.00
633.01	50885.88
633.20	15972.11
633.39	7198.61
633.58	3784.65
633.77	3192.78
633.96	3076.05
634.15	2760.66
634.34	2025.44
634.53	1961.95
634.72	2043.87
634.91	1753.06
635.10	1720.29
635.29	1687.53
635.48	1667.05
635.67	1609.70
635.86	1542.12
636.05	1445.87
636.24	1486.83
636.43	1472.49
636.62	1392.62
636.81	1404.91
637.00	1433.58
637.19	1390.57
637.38	1392.62
637.57	1327.08
637.76	1390.57
637.95	1351.66
638.14	1267.69
638.33	1363.95
638.52	1232.88
638.71	1314.80
638.89	1312.75
639.08	1255.40
639.27	1327.08
639.46	1257.45
639.65	1312.75
639.84	1294.32
640.03	1314.80
640.22	1271.79
640.41	1253.36
640.60	1269.74
640.79	1320.94
640.98	1232.88
641.17	1318.89
641.36	1234.93
641.55	1261.55
641.74	1210.35
641.92	1314.80
642.11	1329.13
642.30	1286.12
642.49	1232.88
642.68	1230.83
642.87	1325.04
643.06	1325.04
643.25	1253.36
643.44	1243.12
643.63	1247.21
643.82	1257.45
644.00	1277.93
644.19	1345.52
644.38	1228.78
644.57	1261.55
644.76	1290.22
644.95	1265.64
645.14	1312.75
645.33	1249.26
645.52	1214.45
645.71	1255.40
645.89	1288.17
646.08	1183.73
646.27	1212.40
646.46	1320.94
646.65	1210.35
646.84	1310.70
647.03	1241.07
647.22	1322.99
647.40	1304.56
647.59	1353.71
647.78	1251.31
647.97	1267.69
648.16	1269.74
648.35	1275.88
648.54	1226.73
648.73	1347.56
648.91	1331.18
649.10	1279.98
649.29	1292.27
649.48	1271.79
649.67	1257.45
649.86	1306.60
650.05	1312.75
650.23	1335.28
650.42	1243.12
650.61	1322.99
650.80	1253.36
650.99	1302.51
651.18	1236.97
651.36	1284.08
651.55	1284.08
651.74	1267.69
651.93	1255.40
652.12	1282.03
652.31	1228.78
652.49	1304.56
652.68	1263.60
652.87	1255.40
653.06	1249.26
653.25	1308.65
653.44	1308.65
653.62	1261.55
653.81	1275.88
654.00	1234.93
654.19	1300.46
654.38	1234.93
654.56	1239.02
654.75	1228.78
654.94	1294.32
655.13	1296.36
655.32	1265.64
655.51	1232.88
655.69	1200.11
655.88	1191.92
656.07	1265.64
656.26	1239.02
656.45	1341.42
656.63	1282.03
656.82	1322.99
657.01	1314.80
657.20	1300.46
657.38	1234.93
657.57	1267.69
657.76	1284.08
657.95	1314.80
658.14	1288.17
658.32	1253.36
658.51	1191.92
658.70	1224.69
658.89	1320.94
659.08	1271.79
659.26	1253.36
659.45	1253.36
659.64	1306.60
659.83	1257.45
660.01	1341.42
660.20	1267.69
660.39	1290.22
660.58	1273.84
660.76	1163.25
660.95	1290.22
661.14	1265.64
661.33	1271.79
661.51	1273.84
661.70	1181.68
661.89	1300.46
662.08	1198.06
662.26	1245.16
662.45	1314.80
662.64	1273.84
662.83	1329.13
663.01	1314.80
663.20	1284.08
663.39	1236.97
663.58	1181.68
663.76	1282.03
663.95	1255.40
664.14	1255.40
664.32	1257.45
664.51	1255.40
664.70	1245.16
664.89	1263.60
665.07	1255.40
665.26	1282.03
665.45	1239.02
665.64	1310.70
665.82	1312.75
666.01	1247.21
666.20	1314.80
666.38	1220.59
666.57	1232.88
666.76	1236.97
666.95	1279.98
667.13	1193.97
667.32	1290.22
667.51	1339.37
667.69	1253.36
667.88	1200.11
668.07	1247.21
668.25	1294.32
668.44	1277.93
668.63	1290.22
668.81	1271.79
669.00	1275.88
669.19	1241.07
669.38	1273.84
669.56	1282.03
669.75	1273.84
669.94	1249.26
670.12	1331.18
670.31	1236.97
670.50	1200.11
670.68	1335.28
670.87	1282.03
671.06	1271.79
671.24	1333.23
671.43	1300.46
671.62	1277.93
671.80	1214.45
671.99	1282.03
672.18	1269.74
672.36	1222.64
672.55	1196.01
672.74	1279.98
672.92	1329.13
673.11	1273.84
673.29	1273.84
673.48	1222.64
673.67	1253.36
673.85	1325.04
674.04	1236.97
674.23	1212.40
674.41	1314.80
674.60	1286.12
674.79	1255.40
674.97	1247.21
675.16	1290.22
675.34	1273.84
675.53	1282.03
675.72	1329.13
675.90	1267.69
676.09	1288.17
676.28	1286.12
676.46	1279.98
676.65	1320.94
676.83	1290.22
677.02	1275.88
677.21	1292.27
677.39	1302.51
677.58	1165.29
677.77	1265.64
677.95	1339.37
678.14	1265.64
678.32	1255.40
678.51	1288.17
678.70	1218.54
678.88	1290.22
679.07	1261.55
679.25	1249.26
679.44	1284.08
679.63	1177.58
679.81	1308.65
680.00	1232.88
680.18	1316.84
680.37	1253.36
680.55	1191.92
680.74	1296.36
680.93	1212.40
681.11	1273.84
681.30	1222.64
681.48	1312.75
681.67	1245.16
681.85	1241.07
682.04	1226.73
682.23	1269.74
682.41	1296.36
682.60	1302.51
682.78	1288.17
682.97	1310.70
683.15	1241.07
683.34	1290.22
683.53	1345.52
683.71	1267.69
683.90	1269.74
684.08	1284.08
684.27	1241.07
684.45	1347.56
684.64	1331.18
684.82	1335.28
685.01	1265.64
685.19	1249.26
685.38	1347.56
685.57	1263.60
685.75	1273.84
685.94	1253.36
686.12	1306.60
686.31	1253.36
686.49	1249.26
686.68	1249.26
686.86	1265.64
687.05	1239.02
687.23	1251.31
687.42	1171.44
687.60	1286.12
687.79	1284.08
687.97	1282.03
688.16	1241.07
688.34	1292.27
688.53	1271.79
688.71	1296.36
688.90	1222.64
689.08	1282.03
689.27	1322.99
689.45	1243.12
689.64	1300.46
689.82	1306.60
690.01	1185.77
690.19	1331.18
690.38	1255.40
690.56	1286.12
690.75	1277.93
690.93	1290.22
691.12	1193.97
691.30	1251.31
691.49	1267.69
691.67	1230.83
691.86	1288.17
692.04	1271.79
692.23	1320.94
692.41	1302.51
692.60	1279.98
692.78	1224.69
692.97	1239.02
693.15	1288.17
693.34	1265.64
693.52	1208.30
693.71	1318.89
693.89	1255.40
694.08	1247.21
694.26	1224.69
694.44	1206.25
694.63	1191.92
694.81	1263.60
695.00	1292.27
695.18	1245.16
695.37	1282.03
695.55	1228.78
695.74	1249.26
695.92	1234.93
696.10	1296.36
696.29	1259.50
696.47	1249.26
696.66	1249.26
696.84	1216.49
697.03	1347.56
697.21	1284.08
697.40	1302.51
697.58	1306.60
697.76	1243.12
697.95	1271.79
698.13	1224.69
698.32	1265.64
698.50	1269.74
698.68	1253.36
698.87	1241.07
699.05	1204.21
699.24	1290.22
699.42	1343.47
699.61	1304.56
699.79	1292.27
699.97	1263.60
700.16	1255.40
700.34	1314.80
700.53	1241.07
700.71	1304.56
700.89	1245.16
701.08	1294.32
701.26	1286.12
701.45	1226.73
701.63	1288.17
701.81	1239.02
702.00	1298.41
702.18	1302.51
702.37	1263.60
702.55	1218.54
702.73	1312.75
702.92	1210.35
703.10	1265.64
703.28	1271.79
703.47	1314.80
703.65	1294.32
703.84	1308.65
704.02	1298.41
704.20	1265.64
704.39	1249.26
704.57	1247.21
704.75	1261.55
704.94	1224.69
705.12	1214.45
705.30	1312.75
705.49	1282.03
705.67	1218.54
705.86	1228.78
706.04	1263.60
706.22	1236.97
706.41	1265.64
706.59	1189.87
706.77	1247.21
706.96	1245.16
707.14	1294.32
707.32	1239.02
707.51	1290.22
707.69	1263.60
707.87	1314.80
708.06	1241.07
708.24	1333.23
708.42	1282.03
708.61	1216.49
708.79	1210.35
708.97	1304.56
709.16	1259.50
709.34	1259.50
709.52	1282.03
709.71	1284.08
709.89	1279.98
710.07	1304.56
710.26	1236.97
710.44	1247.21
710.62	1239.02
710.80	1304.56
710.99	1314.80
711.17	1249.26
711.35	1253.36
711.54	1290.22
711.72	1282.03
711.90	1279.98
712.09	1382.38
712.27	1282.03
712.45	1267.69
712.63	1316.84
712.82	1282.03
713.00	1306.60
713.18	1267.69
713.37	1286.12
713.55	1314.80
713.73	1286.12
713.91	1271.79
714.10	1327.08
714.28	1230.83
714.46	1306.60
714.65	1292.27
714.83	1320.94
715.01	1318.89
715.19	1253.36
715.38	1257.45
715.56	1282.03
715.74	1363.95
715.92	1331.18
716.11	1277.93
716.29	1230.83
716.47	1335.28
716.65	1243.12
716.84	1249.26
717.02	1183.73
717.20	1263.60
717.38	1298.41
717.57	1247.21
717.75	1292.27
717.93	1292.27
718.11	1269.74
718.30	1302.51
718.48	1253.36
718.66	1150.96
718.84	1277.93
719.03	1322.99
719.21	1230.83
719.39	1236.97
719.57	1249.26
719.75	1284.08
719.94	1255.40
720.12	1255.40
720.30	1298.41
720.48	1263.60
720.67	1325.04
720.85	1277.93
721.03	1345.52
721.21	1284.08
721.39	1298.41
721.58	1290.22
721.76	1351.66
721.94	1261.55
722.12	1296.36
722.30	1341.42
722.49	1355.76
722.67	1224.69
722.85	1212.40
723.03	1265.64
723.21	1249.26
723.40	1234.93
723.58	1306.60
723.76	1292.27
723.94	1300.46
724.12	1226.73
724.30	1296.36
724.49	1277.93
724.67	1298.41
724.85	1187.82
725.03	1267.69
725.21	1267.69
725.40	1316.84
725.58	1230.83
725.76	1304.56
725.94	1257.45
726.12	1236.97
726.30	1327.08
726.49	1312.75
726.67	1196.01
726.85	1322.99
727.03	1308.65
727.21	1284.08
727.39	1218.54
727.57	1228.78
727.76	1298.41
727.94	1265.64
728.12	1173.49
728.30	1241.07
728.48	1187.82
728.66	1247.21
728.84	1273.84
729.03	1322.99
729.21	1298.41
729.39	1255.40
729.57	1279.98
729.75	1255.40
729.93	1253.36
730.11	1275.88
730.30	1263.60
730.48	1300.46
730.66	1232.88
730.84	1292.27
731.02	1286.12
731.20	1259.50
731.38	1302.51
731.56	1267.69
731.74	1214.45
731.93	1267.69
732.11	1302.51
732.29	1267.69
732.47	1236.97
732.65	1296.36
732.83	1267.69
733.01	1290.22
733.19	1236.97
733.37	1218.54
733.56	1202.16
733.74	1282.03
733.92	1265.64
734.10	1232.88
734.28	1263.60
734.46	1296.36
734.64	1245.16
734.82	1208.30
735.00	1159.15
735.18	1335.28
735.36	1306.60
735.54	1257.45
735.73	1273.84
735.91	1247.21
736.09	1282.03
736.27	1224.69
736.45	1275.88
736.63	1284.08
736.81	1259.50
736.99	1245.16
737.17	1331.18
737.35	1259.50
737.53	1236.97
737.71	1245.16
737.89	1271.79
738.07	1318.89
738.25	1273.84
738.43	1273.84
738.61	1294.32
738.80	1226.73
738.98	1341.42
739.16	1279.98
739.34	1325.04
739.52	1261.55
739.70	1212.40
739.88	1286.12
740.06	1366.00
740.24	1286.12
740.42	1279.98
740.60	1347.56
740.78	1257.45
740.96	1251.31
741.14	1310.70
741.32	1331.18
741.50	1304.56
741.68	1345.52
741.86	1296.36
742.04	1304.56
742.22	1298.41
742.40	1282.03
742.58	1230.83
742.76	1306.60
742.94	1267.69
743.12	1202.16
743.30	1247.21
743.48	1339.37
743.66	1189.87
743.84	1329.13
744.02	1236.97
744.20	1282.03
744.38	1193.97
744.56	1290.22
744.74	1265.64
744.92	1327.08
745.10	1296.36
745.28	1304.56
745.46	1200.11
745.64	1337.32
745.82	1224.69
746.00	1234.93
746.18	1300.46
746.36	1314.80
746.54	1257.45
746.72	1325.04
746.90	1302.51
747.08	1296.36
747.26	1230.83
747.44	1189.87
747.62	1263.60
747.80	1308.65
747.98	1349.61
748.15	1236.97
748.33	1241.07
748.51	1261.55
748.69	1279.98
748.87	1314.80
749.05	1249.26
749.23	1257.45
749.41	1312.75
749.59	1322.99
749.77	1226.73
749.95	1251.31
750.13	1265.64
750.31	1275.88
750.49	1243.12
750.67	1232.88
750.85	1300.46
751.03	1241.07
751.20	1265.64
751.38	1298.41
751.56	1263.60
751.74	1251.31
751.92	1245.16
752.10	1306.60
752.28	1292.27
752.46	1277.93
752.64	1355.76
752.82	1263.60
753.00	1314.80
753.18	1232.88
753.35	1226.73
753.53	1265.64
753.71	1267.69
753.89	1210.35
754.07	1306.60
754.25	1314.80
754.43	1271.79
754.61	1282.03
754.79	1245.16
754.97	1214.45
755.14	1296.36
755.32	1220.59
755.50	1255.40
755.68	1310.70
755.86	1251.31
756.04	1253.36
756.22	1282.03
756.40	1253.36
756.57	1273.84
756.75	1257.45
756.93	1290.22
757.11	1265.64
757.29	1279.98
757.47	1337.32
757.65	1298.41
757.82	1273.84
758.00	1251.31
758.18	1306.60
758.36	1282.03
758.54	1243.12
758.72	1282.03
758.90	1345.52
759.07	1335.28
759.25	1267.69
759.43	1230.83
759.61	1222.64
759.79	1335.28
759.97	1216.49
760.15	1290.22
760.32	1261.55
760.50	1220.59
760.68	1322.99
760.86	1316.84
761.04	1226.73
761.22	1304.56
761.39	1236.97
761.57	1298.41
761.75	1230.83
761.93	1292.27
762.11	1251.31
762.28	1257.45
762.46	1239.02
762.64	1249.26
762.82	1171.44
763.00	1277.93
763.18	1347.56
763.35	1284.08
763.53	1257.45
763.71	1232.88
763.89	1314.80
764.07	1265.64
764.24	1255.40
764.42	1310.70
764.60	1273.84
764.78	1224.69
764.96	1261.55
765.13	1288.17
765.31	1318.89
765.49	1189.87
765.67	1212.40
765.84	1269.74
766.02	1226.73
766.20	1267.69
766.38	1261.55
766.56	1222.64
766.73	1226.73
766.91	1257.45
767.09	1208.30
767.27	1236.97
767.44	1300.46
767.62	1263.60
767.80	1265.64
767.98	1265.64
768.15	1327.08
768.33	1222.64
768.51	1329.13
768.69	1253.36
768.87	1284.08
769.04	1310.70
769.22	1279.98
769.40	1310.70
769.58	1234.93
769.75	1265.64
769.93	1165.29
770.11	1183.73
770.28	1249.26
770.46	1216.49
770.64	1247.21
770.82	1269.74
770.99	1234.93
771.17	1343.47
771.35	1230.83
771.53	1241.07
771.70	1271.79
771.88	1247.21
772.06	1191.92
772.23	1255.40
772.41	1232.88
772.59	1218.54
772.77	1310.70
772.94	1228.78
773.12	1259.50
773.30	1267.69
773.47	1341.42
773.65	1267.69
773.83	1230.83
774.01	1247.21
774.18	1259.50
774.36	1294.32
774.54	1318.89
774.71	1234.93
774.89	1304.56
775.07	1202.16
775.24	1331.18
775.42	1249.26
775.60	1302.51
775.78	1306.60
775.95	1298.41
776.13	1224.69
776.31	1316.84
776.48	1273.84
776.66	1290.22
776.84	1269.74
777.01	1314.80
777.19	1298.41
777.37	1347.56
777.54	1267.69
777.72	1255.40
777.90	1269.74
778.07	1314.80
778.25	1292.27
778.43	1304.56
778.60	1236.97
778.78	1290.22
778.96	1286.12
779.13	1228.78
779.31	1153.01
779.49	1245.16
779.66	1275.88
779.84	1175.53
780.01	1304.56
780.19	1310.70
780.37	1243.12
780.54	1255.40
780.72	1228.78
780.90	1277.93
781.07	1286.12
781.25	1279.98
781.43	1230.83
781.60	1294.32
781.78	1257.45
781.95	1322.99
782.13	1261.55
782.31	1290.22
782.48	1322.99
782.66	1302.51
782.83	1224.69
783.01	1257.45
783.19	1275.88
783.36	1265.64
783.54	1224.69
783.72	1249.26
783.89	1175.53
784.07	1236.97
784.24	1327.08
784.42	1241.07
784.60	1228.78
784.77	1222.64
784.95	1294.32
785.12	1304.56
785.30	1253.36
785.47	1273.84
785.65	1275.88
785.83	1236.97
786.00	1249.26
786.18	1282.03
786.35	1320.94
786.53	1255.40
786.71	1331.18
786.88	1247.21
787.06	1232.88
787.23	1220.59
787.41	1277.93
787.58	1366.00
787.76	1249.26
787.94	1216.49
788.11	1259.50
788.29	1347.56
788.46	1249.26
788.64	1286.12
788.81	1320.94
788.99	1282.03
789.16	1269.74
789.34	1286.12
789.52	1198.06
789.69	1279.98
789.87	1286.12
790.04	1208.30
790.22	1300.46
790.39	1288.17
790.57	1245.16
790.74	1263.60
790.92	1310.70
791.09	1318.89
791.27	1282.03
791.44	1286.12
791.62	1306.60
791.79	1286.12
791.97	1298.41
792.15	1257.45
792.32	1253.36
792.50	1314.80
792.67	1239.02
792.85	1298.41
793.02	1216.49
793.20	1243.12
793.37	1187.82
793.55	1304.56
793.72	1239.02
793.90	1275.88
794.07	1241.07
794.25	1257.45
794.42	1314.80
794.60	1208.30
794.77	1335.28
794.95	1343.47
795.12	1374.19
795.30	1279.98
795.47	1263.60
795.65	1296.36
795.82	1230.83
796.00	1282.03
796.17	1302.51
796.34	1275.88
796.52	1279.98
796.69	1304.56
796.87	1296.36
797.04	1292.27
797.22	1331.18
797.39	1234.93
797.57	1275.88
797.74	1314.80
797.92	1288.17
798.09	1302.51
798.27	1261.55
798.44	1288.17
798.62	1316.84
798.79	1230.83
798.96	1165.29
799.14	1204.21
799.31	1241.07
799.49	1159.15
799.66	1310.70
799.84	1318.89
800.01	1187.82
800.19	1294.32
800.36	1241.07
800.53	1204.21
800.71	1236.97
800.88	1302.51
801.06	1265.64
801.23	1318.89
801.41	1308.65
801.58	1255.40
801.75	1298.41
801.93	1286.12
802.10	1187.82
802.28	1189.87
802.45	1159.15
802.63	1232.88
802.80	1374.19
802.97	1273.84
803.15	1292.27
803.32	1314.80
803.50	1296.36
803.67	1251.31
803.84	1269.74
804.02	1294.32
804.19	1259.50
804.37	1286.12
804.54	1290.22
804.71	1253.36
804.89	1257.45
805.06	1265.64
805.24	1228.78
805.41	1296.36
805.58	1259.50
805.76	1263.60
805.93	1226.73
806.10	1253.36
806.28	1357.80
806.45	1327.08
806.63	1349.61
806.80	1314.80
806.97	1236.97
807.15	1298.41
807.32	1279.98
807.49	1296.36
807.67	1212.40
807.84	1290.22
808.01	1269.74
808.19	1331.18
808.36	1273.84
808.54	1251.31
808.71	1206.25
808.88	1296.36
809.06	1290.22
809.23	1218.54
809.40	1355.76
809.58	1271.79
809.75	1232.88
809.92	1239.02
810.10	1316.84
810.27	1273.84
810.44	1243.12
810.62	1370.09
810.79	1306.60
810.96	1216.49
811.14	1333.23
811.31	1226.73
811.48	1175.53
811.66	1253.36
811.83	1308.65
812.00	1261.55
812.18	1228.78
812.35	1292.27
812.52	1232.88
812.69	1212.40
812.87	1337.32
813.04	1273.84
813.21	1306.60
813.39	1206.25
813.56	1265.64
813.73	1284.08
813.91	1267.69
814.08	1273.84
814.25	1273.84
814.42	1286.12
814.60	1208.30
814.77	1300.46
814.94	1259.50
815.12	1214.45
815.29	1245.16
815.46	1279.98
815.63	1236.97
815.81	1243.12
815.98	1226.73
816.15	1200.11
816.33	1298.41
816.50	1259.50
816.67	1239.02
816.84	1206.25
817.02	1241.07
817.19	1236.97
817.36	1302.51
817.53	1263.60
817.71	1279.98
817.88	1245.16
818.05	1247.21
818.22	1294.32
818.40	1288.17
818.57	1230.83
818.74	1200.11
818.91	1255.40
819.09	1251.31
819.26	1241.07
819.43	1255.40
819.60	1327.08
819.78	1206.25
819.95	1239.02
820.12	1286.12
820.29	1261.55
820.47	1232.88
820.64	1218.54
820.81	1257.45
820.98	1273.84
821.15	1245.16
821.33	1204.21
821.50	1255.40
821.67	1243.12
821.84	1216.49
822.02	1347.56
822.19	1232.88
822.36	1296.36
822.53	1191.92
822.70	1243.12
822.88	1216.49
823.05	1351.66
823.22	1263.60
823.39	1263.60
823.56	1273.84
823.74	1230.83
823.91	1298.41
824.08	1279.98
824.25	1236.97
824.42	1308.65
824.60	1322.99
824.77	1245.16
824.94	1284.08
825.11	1230.83
825.28	1263.60
825.45	1257.45
825.63	1230.83
825.80	1218.54
825.97	1282.03
826.14	1241.07
826.31	1257.45
826.48	1214.45
826.66	1230.83
826.83	1298.41
827.00	1208.30
827.17	1335.28
827.34	1222.64
827.51	1277.93
827.69	1314.80
827.86	1282.03
828.03	1241.07
828.20	1236.97
828.37	1314.80
828.54	1279.98
828.71	1320.94
828.89	1298.41
829.06	1288.17
829.23	1277.93
829.40	1226.73
829.57	1261.55
829.74	1243.12
829.91	1253.36
830.09	1296.36
830.26	1288.17
830.43	1236.97
830.60	1337.32
830.77	1288.17
830.94	1325.04
831.11	1271.79
831.28	1253.36
831.46	1279.98
831.63	1306.60
831.80	1294.32
831.97	1292.27
832.14	1282.03
832.31	1261.55
832.48	1259.50
832.65	1279.98
832.82	1284.08
832.99	1234.93
833.17	1292.27
833.34	1247.21
833.51	1228.78
833.68	1282.03
833.85	1204.21
834.02	1193.97
834.19	1282.03
834.36	1261.55
834.53	1294.32
834.70	1302.51
834.87	1263.60
835.04	1200.11
835.22	1243.12
835.39	1263.60
835.56	1277.93
835.73	1290.22
835.90	1236.97
836.07	1255.40
836.24	1288.17
836.41	1232.88
836.58	1269.74
836.75	1286.12
836.92	1247.21
837.09	1189.87
837.26	1277.93
837.43	1282.03
837.60	1325.04
837.77	1312.75
837.94	1267.69
838.12	1320.94
838.29	1320.94
838.46	1249.26
838.63	1261.55
838.80	1277.93
838.97	1290.22
839.14	1314.80
839.31	1236.97
839.48	1253.36
839.65	1279.98
839.82	1224.69
839.99	1279.98
840.16	1220.59
840.33	1148.91
840.50	1343.47
840.67	1251.31
840.84	1320.94
841.01	1273.84
841.18	1206.25
841.35	1241.07
841.52	1327.08
841.69	1234.93
841.86	1279.98
842.03	1228.78
842.20	1267.69
842.37	1212.40
842.54	1294.32
842.71	1286.12
842.88	1251.31
843.05	1255.40
843.22	1296.36
843.39	1187.82
843.56	1331.18
843.73	1339.37
843.90	1331.18
844.07	1204.21
844.24	1322.99
844.41	1212.40
844.58	1222.64
844.75	1310.70
844.92	1325.04
845.09	1230.83
845.26	1300.46
845.43	1296.36
845.60	1288.17
845.77	1263.60
845.94	1243.12
846.10	1202.16
846.27	1290.22
846.44	1198.06
846.61	1265.64
846.78	1275.88
846.95	1257.45
847.12	1206.25
847.29	1300.46
847.46	1253.36
847.63	1234.93
847.80	1308.65
847.97	1226.73
848.14	1265.64
848.31	1179.63
848.48	1337.32
848.65	1255.40
848.82	1341.42
848.98	1236.97
849.15	1300.46
849.32	1263.60
849.49	1210.35
849.66	1300.46
849.83	1282.03
850.00	1232.88
850.17	1226.73
850.34	1296.36
850.51	1279.98
850.68	1314.80
850.85	1292.27
851.01	1316.84
851.18	1212.40
851.35	1292.27
851.52	1275.88
851.69	1277.93
851.86	1212.40
852.03	1304.56
852.20	1218.54
852.37	1288.17
852.53	1267.69
852.70	1306.60
852.87	1279.98
853.04	1259.50
853.21	1267.69
853.38	1312.75
853.55	1292.27
853.72	1263.60
853.89	1308.65
854.05	1257.45
854.22	1222.64
854.39	1241.07
854.56	1265.64
854.73	1273.84
854.90	1294.32
855.07	1200.11
855.23	1306.60
855.40	1249.26
855.57	1247.21
855.74	1290.22
855.91	1312.75
856.08	1273.84
856.25	1286.12
856.41	1296.36
856.58	1306.60
856.75	1292.27
856.92	1300.46
857.09	1316.84
857.26	1263.60
857.42	1277.93
857.59	1267.69
857.76	1249.26
857.93	1243.12
858.10	1257.45
858.27	1273.84
858.43	1271.79
858.60	1257.45
858.77	1167.34
858.94	1277.93
859.11	1304.56
859.27	1249.26
859.44	1267.69
859.61	1245.16
859.78	1263.60
859.95	1257.45
860.12	1220.59
860.28	1275.88
860.45	1220.59
860.62	1277.93
860.79	1222.64
860.95	1236.97
861.12	1261.55
861.29	1275.88
861.46	1282.03
861.63	1302.51
861.79	1304.56
861.96	1257.45
862.13	1273.84
862.30	1318.89
862.47	1279.98
862.63	1171.44
862.80	1265.64
862.97	1286.12
863.14	1257.45
863.30	1224.69
863.47	1265.64
863.64	1196.01
863.81	1257.45
863.97	1230.83
864.14	1269.74
864.31	1185.77
864.48	1273.84
864.65	1228.78
864.81	1255.40
864.98	1259.50
865.15	1282.03
865.32	1243.12
865.48	1296.36
865.65	1275.88
865.82	1257.45
865.98	1232.88
866.15	1314.80
866.32	1214.45
866.49	1265.64
866.65	1273.84
866.82	1226.73
866.99	1253.36
867.16	1220.59
867.32	1296.36
867.49	1318.89
867.66	1196.01
867.83	1247.21
867.99	1224.69
868.16	1269.74
868.33	1222.64
868.49	1294.32
868.66	1255.40
868.83	1347.56
868.99	1304.56
869.16	1257.45
869.33	1271.79
869.50	1273.84
869.66	1249.26
869.83	1222.64
870.00	1269.74
870.16	1267.69
870.33	1282.03
870.50	1224.69
870.66	1279.98
870.83	1333.23
871.00	1261.55
871.17	1224.69
871.33	1179.63
871.50	1337.32
871.67	1232.88
871.83	1333.23
872.00	1257.45
872.17	1267.69
872.33	1228.78
872.50	1320.94
872.67	1230.83
872.83	1290.22
873.00	1212.40
873.17	1204.21
873.33	1277.93
873.50	1282.03
873.67	1284.08
873.83	1331.18
874.00	1255.40
874.16	1282.03
874.33	1236.97
874.50	1361.90
874.66	1265.64
874.83	1306.60
875.00	1292.27
875.16	1259.50
875.33	1247.21
875.50	1236.97
875.66	1243.12
875.83	1282.03
875.99	1247.21
876.16	1234.93
876.33	1277.93
876.49	1294.32
876.66	1224.69
876.83	1267.69
876.99	1269.74
877.16	1284.08
877.32	1196.01
877.49	1273.84
877.66	1222.64
877.82	1314.80
877.99	1220.59
878.15	1251.31
878.32	1312.75
878.49	1325.04
878.65	1273.84
878.82	1212.40
878.98	1222.64
879.15	1226.73
879.32	1277.93
879.48	1236.97
879.65	1308.65
879.81	1306.60
879.98	1228.78
880.15	1232.88
880.31	1296.36
880.48	1269.74
880.64	1255.40
880.81	1234.93
880.97	1183.73
881.14	1284.08
881.31	1273.84
881.47	1273.84
881.64	1230.83
881.80	1267.69
881.97	1300.46
882.13	1296.36
882.30	1259.50
882.47	1245.16
882.63	1245.16
882.80	1273.84
882.96	1341.42
883.13	1234.93
883.29	1298.41
883.46	1222.64
883.62	1269.74
883.79	1230.83
883.95	1288.17
884.12	1282.03
884.29	1290.22
884.45	1300.46
884.62	1263.60
884.78	1314.80
884.95	1288.17
885.11	1259.50
885.28	1226.73
885.44	1263.60
885.61	1259.50
885.77	1247.21
885.94	1288.17
886.10	1196.01
886.27	1298.41
886.43	1251.31
886.60	1261.55
886.76	1277.93
886.93	1308.65
887.09	1253.36
887.26	1265.64
887.42	1282.03
887.59	1230.83
887.75	1302.51
887.92	1247.21
888.08	1265.64
888.25	1239.02
888.41	1214.45
888.58	1226.73
888.74	1279.98
888.91	1191.92
>>>>>End Processed Spectral Data<<<<<
