SpectraSuite Data File
++++++++++++++++++++++++++++++++++++
Date: Sun Apr 03 19:55:53 CEST 2016
User: root
Dark Spectrum Present: No
Reference Spectrum Present: No
Number of Sampled Component Spectra: 1
Spectrometers: USB4C02835
Integration Time (usec): 10000 (USB4C02835)
Spectra Averaged: 1 (USB4C02835)
Boxcar Smoothing: 0 (USB4C02835)
Correct for Electrical Dark: No (USB4C02835)
Strobe/Lamp Enabled: No (USB4C02835)
Correct for Detector Non-linearity: No (USB4C02835)
Correct for Stray Light: No (USB4C02835)
Number of Pixels in Processed Spectrum: 3648
>>>>>Begin Processed Spectral Data<<<<<
177.47	1245.16
177.69	1245.16
177.91	1245.16
178.13	1249.26
178.36	1185.77
178.58	1216.49
178.80	1206.25
179.02	1304.56
179.24	1314.80
179.46	1255.40
179.68	1251.31
179.90	1232.88
180.13	1320.94
180.35	1253.36
180.57	1282.03
180.79	1300.46
181.01	1226.73
181.23	1214.45
181.45	1263.60
181.67	1316.84
181.90	1300.46
182.12	1273.84
182.34	1286.12
182.56	1228.78
182.78	1236.97
183.00	1253.36
183.22	1331.18
183.44	1216.49
183.66	1339.37
183.89	1359.85
184.11	1263.60
184.33	1265.64
184.55	1282.03
184.77	1241.07
184.99	1298.41
185.21	1226.73
185.43	1316.84
185.65	1288.17
185.87	1234.93
186.10	1296.36
186.32	1253.36
186.54	1261.55
186.76	1337.32
186.98	1265.64
187.20	1339.37
187.42	1177.58
187.64	1275.88
187.86	1277.93
188.08	1304.56
188.30	1210.35
188.52	1263.60
188.75	1302.51
188.97	1265.64
189.19	1226.73
189.41	1224.69
189.63	1245.16
189.85	1239.02
190.07	1257.45
190.29	1251.31
190.51	1179.63
190.73	1267.69
190.95	1257.45
191.17	1249.26
191.39	1304.56
191.61	1222.64
191.84	1265.64
192.06	1259.50
192.28	1257.45
192.50	1247.21
192.72	1282.03
192.94	1282.03
193.16	1255.40
193.38	1302.51
193.60	1261.55
193.82	1322.99
194.04	1175.53
194.26	1329.13
194.48	1236.97
194.70	1306.60
194.92	1263.60
195.14	1318.89
195.36	1284.08
195.58	1214.45
195.80	1265.64
196.02	1335.28
196.24	1169.39
196.46	1265.64
196.69	1271.79
196.91	1187.82
197.13	1232.88
197.35	1216.49
197.57	1320.94
197.79	1290.22
198.01	1277.93
198.23	1269.74
198.45	1279.98
198.67	1241.07
198.89	1282.03
199.11	1279.98
199.33	1257.45
199.55	1288.17
199.77	1230.83
199.99	1222.64
200.21	1318.89
200.43	1239.02
200.65	1337.32
200.87	1304.56
201.09	1247.21
201.31	1325.04
201.53	1302.51
201.75	1220.59
201.97	1277.93
202.19	1284.08
202.41	1249.26
202.63	1282.03
202.85	1257.45
203.07	1249.26
203.29	1282.03
203.51	1273.84
203.73	1255.40
203.95	1292.27
204.17	1202.16
204.39	1232.88
204.61	1294.32
204.83	1208.30
205.05	1265.64
205.27	1312.75
205.49	1296.36
205.71	1222.64
205.93	1257.45
206.15	1269.74
206.37	1275.88
206.59	1251.31
206.81	1273.84
207.03	1351.66
207.25	1271.79
207.47	1306.60
207.69	1245.16
207.91	1226.73
208.13	1261.55
208.34	1191.92
208.56	1228.78
208.78	1269.74
209.00	1286.12
209.22	1265.64
209.44	1208.30
209.66	1288.17
209.88	1349.61
210.10	1271.79
210.32	1290.22
210.54	1222.64
210.76	1314.80
210.98	1226.73
211.20	1245.16
211.42	1265.64
211.64	1320.94
211.86	1292.27
212.08	1308.65
212.30	1265.64
212.52	1220.59
212.74	1290.22
212.96	1284.08
213.17	1236.97
213.39	1216.49
213.61	1298.41
213.83	1259.50
214.05	1300.46
214.27	1241.07
214.49	1273.84
214.71	1310.70
214.93	1251.31
215.15	1304.56
215.37	1265.64
215.59	1263.60
215.81	1134.57
216.03	1298.41
216.24	1288.17
216.46	1300.46
216.68	1286.12
216.90	1257.45
217.12	1234.93
217.34	1226.73
217.56	1232.88
217.78	1284.08
218.00	1265.64
218.22	1200.11
218.44	1255.40
218.66	1263.60
218.87	1255.40
219.09	1343.47
219.31	1255.40
219.53	1232.88
219.75	1234.93
219.97	1251.31
220.19	1310.70
220.41	1241.07
220.63	1284.08
220.85	1273.84
221.06	1282.03
221.28	1302.51
221.50	1218.54
221.72	1302.51
221.94	1279.98
222.16	1282.03
222.38	1241.07
222.60	1200.11
222.82	1232.88
223.03	1277.93
223.25	1345.52
223.47	1239.02
223.69	1306.60
223.91	1228.78
224.13	1236.97
224.35	1234.93
224.57	1349.61
224.78	1253.36
225.00	1300.46
225.22	1282.03
225.44	1306.60
225.66	1304.56
225.88	1234.93
226.10	1286.12
226.32	1273.84
226.53	1269.74
226.75	1366.00
226.97	1316.84
227.19	1290.22
227.41	1232.88
227.63	1220.59
227.85	1279.98
228.06	1212.40
228.28	1177.58
228.50	1257.45
228.72	1193.97
228.94	1257.45
229.16	1226.73
229.37	1249.26
229.59	1230.83
229.81	1267.69
230.03	1220.59
230.25	1282.03
230.47	1204.21
230.69	1257.45
230.90	1284.08
231.12	1255.40
231.34	1279.98
231.56	1212.40
231.78	1282.03
232.00	1261.55
232.21	1241.07
232.43	1302.51
232.65	1150.96
232.87	1290.22
233.09	1261.55
233.30	1261.55
233.52	1243.12
233.74	1224.69
233.96	1230.83
234.18	1255.40
234.40	1210.35
234.61	1290.22
234.83	1216.49
235.05	1277.93
235.27	1308.65
235.49	1284.08
235.70	1294.32
235.92	1218.54
236.14	1298.41
236.36	1308.65
236.58	1284.08
236.79	1255.40
237.01	1282.03
237.23	1312.75
237.45	1236.97
237.67	1294.32
237.88	1204.21
238.10	1208.30
238.32	1267.69
238.54	1284.08
238.76	1275.88
238.97	1290.22
239.19	1251.31
239.41	1247.21
239.63	1306.60
239.85	1292.27
240.06	1247.21
240.28	1234.93
240.50	1366.00
240.72	1230.83
240.93	1298.41
241.15	1245.16
241.37	1306.60
241.59	1263.60
241.81	1247.21
242.02	1300.46
242.24	1331.18
242.46	1349.61
242.68	1308.65
242.89	1232.88
243.11	1269.74
243.33	1279.98
243.55	1245.16
243.76	1282.03
243.98	1265.64
244.20	1265.64
244.42	1279.98
244.64	1282.03
244.85	1179.63
245.07	1200.11
245.29	1298.41
245.51	1271.79
245.72	1269.74
245.94	1318.89
246.16	1304.56
246.38	1273.84
246.59	1273.84
246.81	1263.60
247.03	1265.64
247.24	1208.30
247.46	1241.07
247.68	1290.22
247.90	1318.89
248.11	1239.02
248.33	1294.32
248.55	1265.64
248.77	1296.36
248.98	1298.41
249.20	1294.32
249.42	1265.64
249.64	1273.84
249.85	1282.03
250.07	1294.32
250.29	1261.55
250.50	1318.89
250.72	1271.79
250.94	1232.88
251.16	1279.98
251.37	1243.12
251.59	1298.41
251.81	1343.47
252.02	1208.30
252.24	1329.13
252.46	1361.90
252.68	1288.17
252.89	1296.36
253.11	1273.84
253.33	1271.79
253.54	1239.02
253.76	1255.40
253.98	1247.21
254.20	1251.31
254.41	1269.74
254.63	1279.98
254.85	1279.98
255.06	1253.36
255.28	1275.88
255.50	1292.27
255.71	1333.23
255.93	1259.50
256.15	1243.12
256.36	1226.73
256.58	1320.94
256.80	1298.41
257.02	1267.69
257.23	1251.31
257.45	1316.84
257.67	1263.60
257.88	1204.21
258.10	1230.83
258.32	1288.17
258.53	1273.84
258.75	1249.26
258.97	1257.45
259.18	1294.32
259.40	1292.27
259.62	1200.11
259.83	1232.88
260.05	1288.17
260.27	1290.22
260.48	1253.36
260.70	1226.73
260.92	1294.32
261.13	1302.51
261.35	1282.03
261.57	1294.32
261.78	1267.69
262.00	1220.59
262.22	1286.12
262.43	1267.69
262.65	1204.21
262.86	1222.64
263.08	1247.21
263.30	1263.60
263.51	1200.11
263.73	1298.41
263.95	1294.32
264.16	1214.45
264.38	1298.41
264.60	1224.69
264.81	1259.50
265.03	1339.37
265.25	1325.04
265.46	1259.50
265.68	1253.36
265.89	1224.69
266.11	1269.74
266.33	1257.45
266.54	1345.52
266.76	1196.01
266.98	1298.41
267.19	1304.56
267.41	1253.36
267.62	1198.06
267.84	1302.51
268.06	1306.60
268.27	1306.60
268.49	1286.12
268.70	1239.02
268.92	1265.64
269.14	1302.51
269.35	1243.12
269.57	1230.83
269.79	1267.69
270.00	1312.75
270.22	1257.45
270.43	1259.50
270.65	1284.08
270.87	1265.64
271.08	1345.52
271.30	1181.68
271.51	1284.08
271.73	1290.22
271.95	1255.40
272.16	1185.77
272.38	1343.47
272.59	1304.56
272.81	1282.03
273.02	1200.11
273.24	1292.27
273.46	1220.59
273.67	1279.98
273.89	1200.11
274.10	1271.79
274.32	1265.64
274.54	1224.69
274.75	1341.42
274.97	1253.36
275.18	1282.03
275.40	1298.41
275.61	1220.59
275.83	1216.49
276.05	1232.88
276.26	1230.83
276.48	1306.60
276.69	1265.64
276.91	1261.55
277.12	1210.35
277.34	1279.98
277.55	1343.47
277.77	1222.64
277.99	1269.74
278.20	1245.16
278.42	1243.12
278.63	1230.83
278.85	1226.73
279.06	1259.50
279.28	1320.94
279.49	1222.64
279.71	1216.49
279.93	1316.84
280.14	1255.40
280.36	1228.78
280.57	1388.52
280.79	1279.98
281.00	1220.59
281.22	1282.03
281.43	1226.73
281.65	1239.02
281.86	1277.93
282.08	1306.60
282.29	1269.74
282.51	1226.73
282.73	1249.26
282.94	1222.64
283.16	1269.74
283.37	1282.03
283.59	1257.45
283.80	1310.70
284.02	1241.07
284.23	1204.21
284.45	1331.18
284.66	1228.78
284.88	1331.18
285.09	1288.17
285.31	1296.36
285.52	1241.07
285.74	1273.84
285.95	1296.36
286.17	1261.55
286.38	1282.03
286.60	1259.50
286.81	1220.59
287.03	1245.16
287.24	1257.45
287.46	1253.36
287.67	1290.22
287.89	1298.41
288.10	1263.60
288.32	1343.47
288.53	1296.36
288.75	1230.83
288.96	1261.55
289.18	1247.21
289.39	1353.71
289.61	1339.37
289.82	1261.55
290.04	1282.03
290.25	1253.36
290.47	1361.90
290.68	1226.73
290.90	1263.60
291.11	1232.88
291.33	1331.18
291.54	1294.32
291.76	1284.08
291.97	1200.11
292.18	1271.79
292.40	1296.36
292.61	1191.92
292.83	1239.02
293.04	1284.08
293.26	1320.94
293.47	1300.46
293.69	1241.07
293.90	1290.22
294.12	1228.78
294.33	1286.12
294.55	1265.64
294.76	1279.98
294.97	1193.97
295.19	1269.74
295.40	1255.40
295.62	1304.56
295.83	1322.99
296.05	1273.84
296.26	1247.21
296.48	1286.12
296.69	1253.36
296.90	1310.70
297.12	1261.55
297.33	1273.84
297.55	1241.07
297.76	1210.35
297.98	1339.37
298.19	1314.80
298.41	1290.22
298.62	1265.64
298.83	1273.84
299.05	1232.88
299.26	1245.16
299.48	1253.36
299.69	1257.45
299.90	1302.51
300.12	1181.68
300.33	1247.21
300.55	1222.64
300.76	1263.60
300.98	1249.26
301.19	1310.70
301.40	1236.97
301.62	1263.60
301.83	1251.31
302.05	1296.36
302.26	1343.47
302.47	1347.56
302.69	1257.45
302.90	1239.02
303.12	1320.94
303.33	1329.13
303.54	1284.08
303.76	1339.37
303.97	1316.84
304.19	1286.12
304.40	1253.36
304.61	1232.88
304.83	1286.12
305.04	1265.64
305.26	1288.17
305.47	1304.56
305.68	1273.84
305.90	1275.88
306.11	1243.12
306.33	1267.69
306.54	1236.97
306.75	1339.37
306.97	1234.93
307.18	1296.36
307.39	1292.27
307.61	1253.36
307.82	1288.17
308.04	1232.88
308.25	1253.36
308.46	1282.03
308.68	1191.92
308.89	1208.30
309.10	1294.32
309.32	1302.51
309.53	1241.07
309.74	1286.12
309.96	1298.41
310.17	1247.21
310.39	1206.25
310.60	1232.88
310.81	1292.27
311.03	1220.59
311.24	1302.51
311.45	1234.93
311.67	1339.37
311.88	1247.21
312.09	1294.32
312.31	1284.08
312.52	1249.26
312.73	1290.22
312.95	1239.02
313.16	1216.49
313.37	1239.02
313.59	1241.07
313.80	1306.60
314.01	1316.84
314.23	1335.28
314.44	1249.26
314.65	1282.03
314.87	1249.26
315.08	1277.93
315.29	1220.59
315.51	1200.11
315.72	1325.04
315.93	1337.32
316.15	1322.99
316.36	1257.45
316.57	1175.53
316.79	1236.97
317.00	1304.56
317.21	1218.54
317.43	1234.93
317.64	1236.97
317.85	1296.36
318.07	1277.93
318.28	1249.26
318.49	1255.40
318.70	1269.74
318.92	1259.50
319.13	1251.31
319.34	1241.07
319.56	1339.37
319.77	1279.98
319.98	1288.17
320.20	1253.36
320.41	1243.12
320.62	1224.69
320.83	1325.04
321.05	1318.89
321.26	1282.03
321.47	1249.26
321.69	1279.98
321.90	1290.22
322.11	1300.46
322.32	1173.49
322.54	1275.88
322.75	1257.45
322.96	1292.27
323.18	1241.07
323.39	1308.65
323.60	1288.17
323.81	1271.79
324.03	1241.07
324.24	1343.47
324.45	1322.99
324.66	1236.97
324.88	1290.22
325.09	1239.02
325.30	1273.84
325.52	1230.83
325.73	1284.08
325.94	1228.78
326.15	1267.69
326.37	1247.21
326.58	1241.07
326.79	1257.45
327.00	1232.88
327.22	1290.22
327.43	1263.60
327.64	1236.97
327.85	1275.88
328.07	1247.21
328.28	1228.78
328.49	1226.73
328.70	1322.99
328.92	1290.22
329.13	1273.84
329.34	1290.22
329.55	1261.55
329.76	1249.26
329.98	1279.98
330.19	1224.69
330.40	1224.69
330.61	1261.55
330.83	1269.74
331.04	1222.64
331.25	1277.93
331.46	1175.53
331.68	1290.22
331.89	1271.79
332.10	1302.51
332.31	1230.83
332.52	1296.36
332.74	1245.16
332.95	1140.72
333.16	1279.98
333.37	1216.49
333.58	1253.36
333.80	1247.21
334.01	1189.87
334.22	1306.60
334.43	1290.22
334.64	1300.46
334.86	1251.31
335.07	1191.92
335.28	1251.31
335.49	1222.64
335.70	1232.88
335.92	1290.22
336.13	1245.16
336.34	1150.96
336.55	1292.27
336.76	1218.54
336.98	1196.01
337.19	1243.12
337.40	1314.80
337.61	1253.36
337.82	1230.83
338.04	1204.21
338.25	1296.36
338.46	1196.01
338.67	1267.69
338.88	1257.45
339.09	1216.49
339.31	1263.60
339.52	1292.27
339.73	1304.56
339.94	1279.98
340.15	1220.59
340.36	1230.83
340.58	1249.26
340.79	1341.42
341.00	1204.21
341.21	1208.30
341.42	1308.65
341.63	1286.12
341.85	1310.70
342.06	1210.35
342.27	1193.97
342.48	1222.64
342.69	1241.07
342.90	1296.36
343.12	1298.41
343.33	1226.73
343.54	1304.56
343.75	1314.80
343.96	1318.89
344.17	1306.60
344.38	1232.88
344.60	1253.36
344.81	1286.12
345.02	1292.27
345.23	1220.59
345.44	1202.16
345.65	1214.45
345.86	1294.32
346.07	1296.36
346.29	1265.64
346.50	1331.18
346.71	1241.07
346.92	1271.79
347.13	1200.11
347.34	1265.64
347.55	1304.56
347.76	1159.15
347.98	1249.26
348.19	1310.70
348.40	1265.64
348.61	1241.07
348.82	1251.31
349.03	1224.69
349.24	1218.54
349.45	1316.84
349.66	1175.53
349.88	1230.83
350.09	1224.69
350.30	1210.35
350.51	1271.79
350.72	1267.69
350.93	1286.12
351.14	1279.98
351.35	1269.74
351.56	1155.05
351.77	1222.64
351.99	1363.95
352.20	1322.99
352.41	1296.36
352.62	1241.07
352.83	1277.93
353.04	1255.40
353.25	1322.99
353.46	1273.84
353.67	1273.84
353.88	1261.55
354.09	1304.56
354.30	1267.69
354.52	1259.50
354.73	1271.79
354.94	1257.45
355.15	1255.40
355.36	1286.12
355.57	1322.99
355.78	1308.65
355.99	1224.69
356.20	1255.40
356.41	1206.25
356.62	1284.08
356.83	1312.75
357.04	1269.74
357.25	1271.79
357.46	1218.54
357.68	1259.50
357.89	1208.30
358.10	1333.23
358.31	1290.22
358.52	1271.79
358.73	1312.75
358.94	1359.85
359.15	1263.60
359.36	1253.36
359.57	1271.79
359.78	1263.60
359.99	1265.64
360.20	1206.25
360.41	1239.02
360.62	1255.40
360.83	1400.81
361.04	1277.93
361.25	1345.52
361.46	1214.45
361.67	1251.31
361.88	1257.45
362.09	1349.61
362.30	1228.78
362.51	1218.54
362.72	1312.75
362.93	1228.78
363.14	1277.93
363.35	1226.73
363.56	1212.40
363.78	1224.69
363.99	1234.93
364.20	1284.08
364.41	1282.03
364.62	1245.16
364.83	1339.37
365.04	1265.64
365.25	1322.99
365.46	1243.12
365.67	1253.36
365.88	1314.80
366.09	1316.84
366.30	1261.55
366.51	1255.40
366.72	1236.97
366.93	1314.80
367.14	1286.12
367.35	1269.74
367.56	1224.69
367.77	1257.45
367.98	1153.01
368.18	1187.82
368.39	1214.45
368.60	1273.84
368.81	1261.55
369.02	1239.02
369.23	1245.16
369.44	1239.02
369.65	1275.88
369.86	1265.64
370.07	1263.60
370.28	1312.75
370.49	1232.88
370.70	1304.56
370.91	1284.08
371.12	1329.13
371.33	1261.55
371.54	1279.98
371.75	1265.64
371.96	1241.07
372.17	1282.03
372.38	1263.60
372.59	1247.21
372.80	1271.79
373.01	1292.27
373.22	1302.51
373.43	1275.88
373.64	1263.60
373.85	1247.21
374.06	1282.03
374.26	1296.36
374.47	1298.41
374.68	1251.31
374.89	1236.97
375.10	1255.40
375.31	1198.06
375.52	1294.32
375.73	1275.88
375.94	1298.41
376.15	1220.59
376.36	1288.17
376.57	1265.64
376.78	1249.26
376.99	1284.08
377.20	1263.60
377.40	1282.03
377.61	1298.41
377.82	1322.99
378.03	1216.49
378.24	1253.36
378.45	1284.08
378.66	1282.03
378.87	1304.56
379.08	1286.12
379.29	1232.88
379.50	1273.84
379.71	1288.17
379.91	1185.77
380.12	1306.60
380.33	1310.70
380.54	1284.08
380.75	1230.83
380.96	1218.54
381.17	1263.60
381.38	1243.12
381.59	1277.93
381.80	1279.98
382.00	1341.42
382.21	1267.69
382.42	1363.95
382.63	1277.93
382.84	1306.60
383.05	1292.27
383.26	1261.55
383.47	1224.69
383.68	1245.16
383.88	1282.03
384.09	1263.60
384.30	1200.11
384.51	1361.90
384.72	1331.18
384.93	1273.84
385.14	1279.98
385.35	1306.60
385.55	1353.71
385.76	1265.64
385.97	1245.16
386.18	1216.49
386.39	1290.22
386.60	1312.75
386.81	1318.89
387.02	1296.36
387.22	1257.45
387.43	1359.85
387.64	1333.23
387.85	1290.22
388.06	1228.78
388.27	1243.12
388.48	1255.40
388.68	1224.69
388.89	1304.56
389.10	1298.41
389.31	1300.46
389.52	1263.60
389.73	1292.27
389.93	1257.45
390.14	1198.06
390.35	1296.36
390.56	1275.88
390.77	1267.69
390.98	1200.11
391.18	1312.75
391.39	1208.30
391.60	1183.73
391.81	1325.04
392.02	1282.03
392.23	1228.78
392.43	1292.27
392.64	1249.26
392.85	1224.69
393.06	1226.73
393.27	1277.93
393.47	1327.08
393.68	1216.49
393.89	1249.26
394.10	1337.32
394.31	1306.60
394.52	1263.60
394.72	1224.69
394.93	1259.50
395.14	1224.69
395.35	1282.03
395.56	1302.51
395.76	1271.79
395.97	1275.88
396.18	1245.16
396.39	1298.41
396.60	1320.94
396.80	1253.36
397.01	1247.21
397.22	1202.16
397.43	1277.93
397.64	1366.00
397.84	1312.75
398.05	1329.13
398.26	1292.27
398.47	1224.69
398.67	1261.55
398.88	1224.69
399.09	1222.64
399.30	1232.88
399.51	1288.17
399.71	1224.69
399.92	1255.40
400.13	1286.12
400.34	1279.98
400.54	1189.87
400.75	1304.56
400.96	1257.45
401.17	1314.80
401.37	1212.40
401.58	1320.94
401.79	1218.54
402.00	1275.88
402.21	1236.97
402.41	1259.50
402.62	1234.93
402.83	1218.54
403.04	1277.93
403.24	1271.79
403.45	1320.94
403.66	1212.40
403.87	1279.98
404.07	1208.30
404.28	1243.12
404.49	1193.97
404.70	1331.18
404.90	1189.87
405.11	1275.88
405.32	1304.56
405.52	1286.12
405.73	1279.98
405.94	1265.64
406.15	1230.83
406.35	1239.02
406.56	1257.45
406.77	1239.02
406.98	1300.46
407.18	1286.12
407.39	1288.17
407.60	1343.47
407.80	1288.17
408.01	1271.79
408.22	1296.36
408.43	1290.22
408.63	1318.89
408.84	1304.56
409.05	1273.84
409.25	1273.84
409.46	1228.78
409.67	1300.46
409.88	1312.75
410.08	1271.79
410.29	1312.75
410.50	1245.16
410.70	1271.79
410.91	1306.60
411.12	1294.32
411.32	1239.02
411.53	1273.84
411.74	1312.75
411.95	1339.37
412.15	1259.50
412.36	1269.74
412.57	1282.03
412.77	1318.89
412.98	1333.23
413.19	1296.36
413.39	1304.56
413.60	1286.12
413.81	1218.54
414.01	1302.51
414.22	1236.97
414.43	1277.93
414.63	1150.96
414.84	1212.40
415.05	1269.74
415.25	1374.19
415.46	1234.93
415.67	1347.56
415.87	1296.36
416.08	1275.88
416.29	1318.89
416.49	1267.69
416.70	1282.03
416.91	1265.64
417.11	1320.94
417.32	1286.12
417.53	1247.21
417.73	1224.69
417.94	1202.16
418.15	1245.16
418.35	1216.49
418.56	1322.99
418.77	1210.35
418.97	1277.93
419.18	1286.12
419.38	1185.77
419.59	1284.08
419.80	1312.75
420.00	1341.42
420.21	1144.81
420.42	1265.64
420.62	1273.84
420.83	1196.01
421.04	1224.69
421.24	1210.35
421.45	1265.64
421.65	1239.02
421.86	1265.64
422.07	1308.65
422.27	1236.97
422.48	1308.65
422.69	1273.84
422.89	1236.97
423.10	1271.79
423.30	1234.93
423.51	1288.17
423.72	1275.88
423.92	1327.08
424.13	1294.32
424.33	1257.45
424.54	1267.69
424.75	1292.27
424.95	1277.93
425.16	1318.89
425.36	1236.97
425.57	1208.30
425.78	1243.12
425.98	1337.32
426.19	1249.26
426.39	1253.36
426.60	1247.21
426.81	1243.12
427.01	1277.93
427.22	1187.82
427.42	1230.83
427.63	1296.36
427.83	1286.12
428.04	1269.74
428.25	1312.75
428.45	1216.49
428.66	1255.40
428.86	1331.18
429.07	1249.26
429.28	1228.78
429.48	1265.64
429.69	1271.79
429.89	1255.40
430.10	1263.60
430.30	1247.21
430.51	1245.16
430.71	1218.54
430.92	1310.70
431.13	1214.45
431.33	1212.40
431.54	1310.70
431.74	1200.11
431.95	1279.98
432.15	1282.03
432.36	1251.31
432.56	1282.03
432.77	1292.27
432.98	1314.80
433.18	1284.08
433.39	1310.70
433.59	1294.32
433.80	1296.36
434.00	1259.50
434.21	1306.60
434.41	1271.79
434.62	1298.41
434.82	1249.26
435.03	1265.64
435.23	1218.54
435.44	1314.80
435.64	1261.55
435.85	1243.12
436.06	1263.60
436.26	1271.79
436.47	1234.93
436.67	1259.50
436.88	1239.02
437.08	1347.56
437.29	1234.93
437.49	1273.84
437.70	1275.88
437.90	1263.60
438.11	1265.64
438.31	1288.17
438.52	1228.78
438.72	1318.89
438.93	1247.21
439.13	1265.64
439.34	1269.74
439.54	1259.50
439.75	1232.88
439.95	1345.52
440.16	1294.32
440.36	1259.50
440.57	1251.31
440.77	1155.05
440.98	1261.55
441.18	1296.36
441.39	1290.22
441.59	1224.69
441.80	1290.22
442.00	1306.60
442.21	1265.64
442.41	1239.02
442.62	1230.83
442.82	1251.31
443.02	1284.08
443.23	1257.45
443.43	1208.30
443.64	1339.37
443.84	1230.83
444.05	1288.17
444.25	1325.04
444.46	1302.51
444.66	1257.45
444.87	1234.93
445.07	1302.51
445.28	1312.75
445.48	1294.32
445.69	1273.84
445.89	1310.70
446.09	1300.46
446.30	1339.37
446.50	1249.26
446.71	1275.88
446.91	1310.70
447.12	1234.93
447.32	1243.12
447.53	1265.64
447.73	1273.84
447.93	1318.89
448.14	1275.88
448.34	1257.45
448.55	1263.60
448.75	1259.50
448.96	1261.55
449.16	1275.88
449.36	1216.49
449.57	1236.97
449.77	1302.51
449.98	1322.99
450.18	1282.03
450.39	1243.12
450.59	1339.37
450.79	1318.89
451.00	1216.49
451.20	1269.74
451.41	1208.30
451.61	1245.16
451.81	1306.60
452.02	1304.56
452.22	1372.14
452.43	1368.04
452.63	1216.49
452.84	1204.21
453.04	1320.94
453.24	1271.79
453.45	1275.88
453.65	1208.30
453.86	1261.55
454.06	1316.84
454.26	1255.40
454.47	1327.08
454.67	1361.90
454.87	1320.94
455.08	1331.18
455.28	1286.12
455.49	1327.08
455.69	1253.36
455.89	1222.64
456.10	1312.75
456.30	1296.36
456.51	1306.60
456.71	1279.98
456.91	1239.02
457.12	1341.42
457.32	1265.64
457.52	1224.69
457.73	1255.40
457.93	1245.16
458.14	1282.03
458.34	1261.55
458.54	1331.18
458.75	1259.50
458.95	1263.60
459.15	1224.69
459.36	1263.60
459.56	1222.64
459.76	1230.83
459.97	1286.12
460.17	1316.84
460.37	1220.59
460.58	1210.35
460.78	1236.97
460.99	1159.15
461.19	1327.08
461.39	1337.32
461.60	1277.93
461.80	1232.88
462.00	1167.34
462.21	1214.45
462.41	1261.55
462.61	1372.14
462.82	1232.88
463.02	1318.89
463.22	1226.73
463.43	1255.40
463.63	1286.12
463.83	1300.46
464.04	1327.08
464.24	1335.28
464.44	1253.36
464.64	1306.60
464.85	1290.22
465.05	1226.73
465.25	1329.13
465.46	1327.08
465.66	1282.03
465.86	1294.32
466.07	1284.08
466.27	1245.16
466.47	1241.07
466.68	1251.31
466.88	1294.32
467.08	1265.64
467.29	1318.89
467.49	1236.97
467.69	1331.18
467.89	1165.29
468.10	1296.36
468.30	1218.54
468.50	1224.69
468.71	1322.99
468.91	1279.98
469.11	1275.88
469.31	1259.50
469.52	1361.90
469.72	1290.22
469.92	1236.97
470.13	1296.36
470.33	1198.06
470.53	1214.45
470.73	1308.65
470.94	1251.31
471.14	1202.16
471.34	1322.99
471.54	1261.55
471.75	1226.73
471.95	1269.74
472.15	1265.64
472.36	1284.08
472.56	1253.36
472.76	1273.84
472.96	1249.26
473.17	1261.55
473.37	1216.49
473.57	1267.69
473.77	1226.73
473.98	1296.36
474.18	1193.97
474.38	1218.54
474.58	1329.13
474.79	1290.22
474.99	1265.64
475.19	1339.37
475.39	1236.97
475.60	1271.79
475.80	1314.80
476.00	1222.64
476.20	1273.84
476.41	1269.74
476.61	1253.36
476.81	1214.45
477.01	1216.49
477.21	1243.12
477.42	1294.32
477.62	1269.74
477.82	1273.84
478.02	1275.88
478.23	1279.98
478.43	1263.60
478.63	1259.50
478.83	1279.98
479.03	1329.13
479.24	1312.75
479.44	1345.52
479.64	1241.07
479.84	1388.52
480.04	1202.16
480.25	1265.64
480.45	1226.73
480.65	1179.63
480.85	1251.31
481.06	1271.79
481.26	1206.25
481.46	1277.93
481.66	1255.40
481.86	1234.93
482.06	1288.17
482.27	1263.60
482.47	1259.50
482.67	1306.60
482.87	1294.32
483.07	1277.93
483.28	1230.83
483.48	1263.60
483.68	1294.32
483.88	1314.80
484.08	1384.43
484.29	1296.36
484.49	1357.80
484.69	1220.59
484.89	1314.80
485.09	1275.88
485.29	1298.41
485.50	1320.94
485.70	1228.78
485.90	1302.51
486.10	1245.16
486.30	1257.45
486.50	1261.55
486.71	1230.83
486.91	1226.73
487.11	1335.28
487.31	1318.89
487.51	1325.04
487.71	1318.89
487.91	1241.07
488.12	1277.93
488.32	1314.80
488.52	1263.60
488.72	1171.44
488.92	1279.98
489.12	1292.27
489.32	1288.17
489.53	1230.83
489.73	1249.26
489.93	1220.59
490.13	1241.07
490.33	1243.12
490.53	1322.99
490.73	1288.17
490.94	1232.88
491.14	1292.27
491.34	1265.64
491.54	1282.03
491.74	1224.69
491.94	1337.32
492.14	1245.16
492.34	1312.75
492.54	1351.66
492.75	1261.55
492.95	1224.69
493.15	1261.55
493.35	1228.78
493.55	1337.32
493.75	1255.40
493.95	1253.36
494.15	1302.51
494.35	1314.80
494.56	1282.03
494.76	1241.07
494.96	1196.01
495.16	1249.26
495.36	1279.98
495.56	1282.03
495.76	1226.73
495.96	1290.22
496.16	1279.98
496.36	1236.97
496.56	1267.69
496.77	1245.16
496.97	1251.31
497.17	1236.97
497.37	1267.69
497.57	1261.55
497.77	1208.30
497.97	1273.84
498.17	1269.74
498.37	1261.55
498.57	1286.12
498.77	1269.74
498.97	1259.50
499.17	1345.52
499.38	1230.83
499.58	1202.16
499.78	1257.45
499.98	1265.64
500.18	1253.36
500.38	1263.60
500.58	1265.64
500.78	1230.83
500.98	1210.35
501.18	1259.50
501.38	1239.02
501.58	1212.40
501.78	1236.97
501.98	1253.36
502.18	1288.17
502.38	1247.21
502.58	1228.78
502.78	1296.36
502.98	1241.07
503.18	1284.08
503.38	1275.88
503.59	1284.08
503.79	1263.60
503.99	1232.88
504.19	1241.07
504.39	1368.04
504.59	1298.41
504.79	1298.41
504.99	1298.41
505.19	1286.12
505.39	1220.59
505.59	1314.80
505.79	1294.32
505.99	1284.08
506.19	1259.50
506.39	1331.18
506.59	1275.88
506.79	1282.03
506.99	1380.33
507.19	1236.97
507.39	1298.41
507.59	1298.41
507.79	1300.46
507.99	1284.08
508.19	1290.22
508.39	1183.73
508.59	1249.26
508.79	1361.90
508.99	1239.02
509.19	1239.02
509.39	1271.79
509.59	1308.65
509.79	1236.97
509.99	1335.28
510.19	1212.40
510.39	1226.73
510.59	1226.73
510.79	1279.98
510.99	1310.70
511.19	1261.55
511.39	1265.64
511.59	1300.46
511.79	1341.42
511.99	1269.74
512.19	1218.54
512.38	1261.55
512.58	1230.83
512.78	1222.64
512.98	1191.92
513.18	1343.47
513.38	1185.77
513.58	1331.18
513.78	1345.52
513.98	1335.28
514.18	1245.16
514.38	1363.95
514.58	1378.28
514.78	1279.98
514.98	1236.97
515.18	1351.66
515.38	1325.04
515.58	1335.28
515.78	1300.46
515.98	1359.85
516.18	1288.17
516.38	1263.60
516.57	1263.60
516.77	1202.16
516.97	1306.60
517.17	1253.36
517.37	1361.90
517.57	1271.79
517.77	1271.79
517.97	1282.03
518.17	1304.56
518.37	1302.51
518.57	1269.74
518.77	1204.21
518.97	1318.89
519.16	1263.60
519.36	1290.22
519.56	1288.17
519.76	1314.80
519.96	1314.80
520.16	1253.36
520.36	1282.03
520.56	1290.22
520.76	1230.83
520.96	1247.21
521.16	1325.04
521.35	1329.13
521.55	1347.56
521.75	1298.41
521.95	1359.85
522.15	1312.75
522.35	1302.51
522.55	1236.97
522.75	1275.88
522.95	1243.12
523.14	1318.89
523.34	1357.80
523.54	1286.12
523.74	1284.08
523.94	1282.03
524.14	1261.55
524.34	1308.65
524.54	1275.88
524.73	1257.45
524.93	1284.08
525.13	1314.80
525.33	1366.00
525.53	1288.17
525.73	1288.17
525.93	1298.41
526.13	1292.27
526.32	1300.46
526.52	1265.64
526.72	1271.79
526.92	1222.64
527.12	1296.36
527.32	1273.84
527.52	1277.93
527.71	1253.36
527.91	1310.70
528.11	1269.74
528.31	1243.12
528.51	1329.13
528.71	1320.94
528.90	1314.80
529.10	1318.89
529.30	1282.03
529.50	1310.70
529.70	1269.74
529.90	1267.69
530.09	1251.31
530.29	1218.54
530.49	1290.22
530.69	1322.99
530.89	1251.31
531.09	1314.80
531.28	1322.99
531.48	1290.22
531.68	1312.75
531.88	1298.41
532.08	1265.64
532.28	1245.16
532.47	1320.94
532.67	1255.40
532.87	1320.94
533.07	1275.88
533.27	1325.04
533.46	1290.22
533.66	1243.12
533.86	1232.88
534.06	1200.11
534.26	1253.36
534.45	1290.22
534.65	1298.41
534.85	1263.60
535.05	1316.84
535.25	1277.93
535.44	1193.97
535.64	1259.50
535.84	1210.35
536.04	1341.42
536.24	1257.45
536.43	1224.69
536.63	1279.98
536.83	1279.98
537.03	1236.97
537.22	1228.78
537.42	1288.17
537.62	1318.89
537.82	1316.84
538.02	1269.74
538.21	1325.04
538.41	1290.22
538.61	1243.12
538.81	1263.60
539.00	1345.52
539.20	1290.22
539.40	1284.08
539.60	1361.90
539.79	1306.60
539.99	1312.75
540.19	1290.22
540.39	1273.84
540.58	1241.07
540.78	1363.95
540.98	1314.80
541.18	1251.31
541.37	1347.56
541.57	1259.50
541.77	1298.41
541.97	1247.21
542.16	1230.83
542.36	1232.88
542.56	1298.41
542.76	1355.76
542.95	1282.03
543.15	1255.40
543.35	1355.76
543.54	1292.27
543.74	1245.16
543.94	1196.01
544.14	1261.55
544.33	1277.93
544.53	1265.64
544.73	1282.03
544.93	1304.56
545.12	1345.52
545.32	1230.83
545.52	1318.89
545.71	1273.84
545.91	1265.64
546.11	1279.98
546.30	1267.69
546.50	1308.65
546.70	1279.98
546.90	1279.98
547.09	1316.84
547.29	1398.76
547.49	1316.84
547.68	1265.64
547.88	1271.79
548.08	1269.74
548.27	1331.18
548.47	1380.33
548.67	1351.66
548.87	1236.97
549.06	1279.98
549.26	1316.84
549.46	1341.42
549.65	1331.18
549.85	1228.78
550.05	1249.26
550.24	1302.51
550.44	1320.94
550.64	1292.27
550.83	1265.64
551.03	1200.11
551.23	1298.41
551.42	1271.79
551.62	1275.88
551.82	1251.31
552.01	1298.41
552.21	1300.46
552.41	1329.13
552.60	1368.04
552.80	1331.18
553.00	1314.80
553.19	1327.08
553.39	1318.89
553.59	1228.78
553.78	1302.51
553.98	1273.84
554.17	1314.80
554.37	1355.76
554.57	1296.36
554.76	1265.64
554.96	1333.23
555.16	1243.12
555.35	1290.22
555.55	1292.27
555.75	1247.21
555.94	1296.36
556.14	1286.12
556.33	1236.97
556.53	1249.26
556.73	1230.83
556.92	1249.26
557.12	1292.27
557.32	1255.40
557.51	1286.12
557.71	1275.88
557.90	1273.84
558.10	1277.93
558.30	1277.93
558.49	1292.27
558.69	1286.12
558.88	1327.08
559.08	1288.17
559.28	1312.75
559.47	1322.99
559.67	1277.93
559.86	1257.45
560.06	1232.88
560.26	1257.45
560.45	1232.88
560.65	1288.17
560.84	1318.89
561.04	1261.55
561.24	1284.08
561.43	1239.02
561.63	1308.65
561.82	1286.12
562.02	1347.56
562.22	1320.94
562.41	1234.93
562.61	1339.37
562.80	1261.55
563.00	1261.55
563.19	1286.12
563.39	1279.98
563.59	1318.89
563.78	1331.18
563.98	1284.08
564.17	1243.12
564.37	1239.02
564.56	1284.08
564.76	1263.60
564.96	1275.88
565.15	1286.12
565.35	1269.74
565.54	1284.08
565.74	1292.27
565.93	1306.60
566.13	1320.94
566.32	1304.56
566.52	1257.45
566.71	1226.73
566.91	1271.79
567.11	1353.71
567.30	1351.66
567.50	1290.22
567.69	1335.28
567.89	1189.87
568.08	1318.89
568.28	1282.03
568.47	1253.36
568.67	1310.70
568.86	1318.89
569.06	1239.02
569.25	1175.53
569.45	1206.25
569.64	1234.93
569.84	1300.46
570.04	1318.89
570.23	1265.64
570.43	1277.93
570.62	1282.03
570.82	1325.04
571.01	1208.30
571.21	1279.98
571.40	1290.22
571.60	1271.79
571.79	1298.41
571.99	1306.60
572.18	1193.97
572.38	1308.65
572.57	1234.93
572.77	1294.32
572.96	1263.60
573.16	1331.18
573.35	1390.57
573.55	1245.16
573.74	1312.75
573.94	1290.22
574.13	1327.08
574.33	1265.64
574.52	1271.79
574.71	1304.56
574.91	1363.95
575.10	1316.84
575.30	1286.12
575.49	1306.60
575.69	1249.26
575.88	1353.71
576.08	1275.88
576.27	1322.99
576.47	1284.08
576.66	1261.55
576.86	1263.60
577.05	1329.13
577.25	1269.74
577.44	1329.13
577.64	1284.08
577.83	1372.14
578.02	1269.74
578.22	1269.74
578.41	1318.89
578.61	1310.70
578.80	1298.41
579.00	1263.60
579.19	1269.74
579.39	1314.80
579.58	1300.46
579.77	1265.64
579.97	1277.93
580.16	1269.74
580.36	1322.99
580.55	1234.93
580.75	1363.95
580.94	1298.41
581.13	1318.89
581.33	1263.60
581.52	1298.41
581.72	1279.98
581.91	1239.02
582.11	1294.32
582.30	1216.49
582.49	1300.46
582.69	1247.21
582.88	1271.79
583.08	1329.13
583.27	1271.79
583.47	1294.32
583.66	1265.64
583.85	1269.74
584.05	1318.89
584.24	1298.41
584.44	1378.28
584.63	1339.37
584.82	1353.71
585.02	1261.55
585.21	1298.41
585.41	1253.36
585.60	1339.37
585.79	1316.84
585.99	1286.12
586.18	1214.45
586.37	1232.88
586.57	1214.45
586.76	1300.46
586.96	1230.83
587.15	1316.84
587.34	1290.22
587.54	1298.41
587.73	1269.74
587.93	1279.98
588.12	1259.50
588.31	1310.70
588.51	1245.16
588.70	1290.22
588.89	1187.82
589.09	1267.69
589.28	1214.45
589.47	1322.99
589.67	1368.04
589.86	1302.51
590.06	1300.46
590.25	1239.02
590.44	1347.56
590.64	1290.22
590.83	1273.84
591.02	1259.50
591.22	1290.22
591.41	1265.64
591.60	1331.18
591.80	1259.50
591.99	1212.40
592.18	1273.84
592.38	1286.12
592.57	1255.40
592.76	1300.46
592.96	1306.60
593.15	1320.94
593.34	1353.71
593.54	1236.97
593.73	1292.27
593.92	1265.64
594.12	1249.26
594.31	1282.03
594.50	1292.27
594.70	1302.51
594.89	1267.69
595.08	1273.84
595.28	1279.98
595.47	1249.26
595.66	1241.07
595.86	1257.45
596.05	1318.89
596.24	1236.97
596.43	1304.56
596.63	1333.23
596.82	1271.79
597.01	1273.84
597.21	1249.26
597.40	1282.03
597.59	1275.88
597.79	1316.84
597.98	1206.25
598.17	1241.07
598.36	1224.69
598.56	1292.27
598.75	1314.80
598.94	1214.45
599.14	1316.84
599.33	1329.13
599.52	1216.49
599.71	1320.94
599.91	1279.98
600.10	1273.84
600.29	1292.27
600.48	1304.56
600.68	1333.23
600.87	1282.03
601.06	1230.83
601.26	1302.51
601.45	1306.60
601.64	1351.66
601.83	1302.51
602.03	1212.40
602.22	1167.34
602.41	1341.42
602.60	1275.88
602.80	1239.02
602.99	1269.74
603.18	1279.98
603.37	1341.42
603.57	1331.18
603.76	1308.65
603.95	1220.59
604.14	1247.21
604.34	1282.03
604.53	1292.27
604.72	1316.84
604.91	1263.60
605.10	1212.40
605.30	1273.84
605.49	1218.54
605.68	1275.88
605.87	1224.69
606.07	1359.85
606.26	1269.74
606.45	1263.60
606.64	1275.88
606.84	1288.17
607.03	1191.92
607.22	1306.60
607.41	1249.26
607.60	1286.12
607.80	1204.21
607.99	1304.56
608.18	1296.36
608.37	1298.41
608.56	1282.03
608.76	1320.94
608.95	1224.69
609.14	1327.08
609.33	1341.42
609.52	1251.31
609.72	1269.74
609.91	1316.84
610.10	1322.99
610.29	1282.03
610.48	1318.89
610.68	1261.55
610.87	1306.60
611.06	1331.18
611.25	1245.16
611.44	1243.12
611.63	1368.04
611.83	1302.51
612.02	1263.60
612.21	1351.66
612.40	1298.41
612.59	1277.93
612.79	1300.46
612.98	1325.04
613.17	1343.47
613.36	1298.41
613.55	1304.56
613.74	1284.08
613.93	1279.98
614.13	1296.36
614.32	1325.04
614.51	1279.98
614.70	1282.03
614.89	1290.22
615.08	1306.60
615.28	1294.32
615.47	1322.99
615.66	1363.95
615.85	1269.74
616.04	1325.04
616.23	1253.36
616.42	1282.03
616.62	1239.02
616.81	1273.84
617.00	1249.26
617.19	1312.75
617.38	1316.84
617.57	1279.98
617.76	1257.45
617.95	1234.93
618.15	1263.60
618.34	1322.99
618.53	1228.78
618.72	1290.22
618.91	1288.17
619.10	1228.78
619.29	1329.13
619.48	1185.77
619.68	1290.22
619.87	1290.22
620.06	1253.36
620.25	1302.51
620.44	1224.69
620.63	1239.02
620.82	1306.60
621.01	1308.65
621.20	1304.56
621.39	1236.97
621.59	1208.30
621.78	1282.03
621.97	1310.70
622.16	1259.50
622.35	1355.76
622.54	1314.80
622.73	1259.50
622.92	1239.02
623.11	1269.74
623.30	1220.59
623.49	1363.95
623.68	1232.88
623.88	1298.41
624.07	1306.60
624.26	1325.04
624.45	1196.01
624.64	1243.12
624.83	1279.98
625.02	1247.21
625.21	1292.27
625.40	1312.75
625.59	1259.50
625.78	1265.64
625.97	1263.60
626.16	1322.99
626.35	1212.40
626.54	1333.23
626.74	1337.32
626.93	1251.31
627.12	1337.32
627.31	1376.24
627.50	1304.56
627.69	1277.93
627.88	1316.84
628.07	1271.79
628.26	1310.70
628.45	1271.79
628.64	1200.11
628.83	1359.85
629.02	1255.40
629.21	1322.99
629.40	1339.37
629.59	1290.22
629.78	1333.23
629.97	1265.64
630.16	1292.27
630.35	1341.42
630.54	1259.50
630.73	1282.03
630.92	1363.95
631.11	1290.22
631.30	1329.13
631.49	1322.99
631.68	1347.56
631.87	1402.86
632.06	1554.41
632.25	1435.63
632.44	1398.76
632.63	1402.86
632.82	1435.63
633.01	1478.63
633.20	1458.15
633.39	1417.19
633.58	1404.91
633.77	1341.42
633.96	1490.92
634.15	1466.35
634.34	1832.93
634.53	2129.89
634.72	1806.31
634.91	1478.63
635.10	1673.19
635.29	1927.14
635.48	2224.09
635.67	2299.87
635.86	2054.11
636.05	1998.82
636.24	1691.62
636.43	1558.50
636.62	1488.87
636.81	1495.02
637.00	1437.67
637.19	1452.01
637.38	1359.85
637.57	1351.66
637.76	1279.98
637.95	1341.42
638.14	1347.56
638.33	1228.78
638.52	1378.28
638.71	1292.27
638.89	1245.16
639.08	1314.80
639.27	1245.16
639.46	1249.26
639.65	1243.12
639.84	1310.70
640.03	1208.30
640.22	1290.22
640.41	1347.56
640.60	1310.70
640.79	1363.95
640.98	1271.79
641.17	1249.26
641.36	1355.76
641.55	1306.60
641.74	1208.30
641.92	1300.46
642.11	1234.93
642.30	1271.79
642.49	1243.12
642.68	1290.22
642.87	1279.98
643.06	1279.98
643.25	1239.02
643.44	1224.69
643.63	1245.16
643.82	1214.45
644.00	1296.36
644.19	1259.50
644.38	1279.98
644.57	1257.45
644.76	1232.88
644.95	1351.66
645.14	1284.08
645.33	1282.03
645.52	1236.97
645.71	1296.36
645.89	1265.64
646.08	1263.60
646.27	1226.73
646.46	1294.32
646.65	1253.36
646.84	1298.41
647.03	1337.32
647.22	1277.93
647.40	1249.26
647.59	1290.22
647.78	1232.88
647.97	1273.84
648.16	1234.93
648.35	1271.79
648.54	1275.88
648.73	1253.36
648.91	1189.87
649.10	1284.08
649.29	1257.45
649.48	1261.55
649.67	1267.69
649.86	1253.36
650.05	1271.79
650.23	1269.74
650.42	1234.93
650.61	1288.17
650.80	1288.17
650.99	1318.89
651.18	1302.51
651.36	1269.74
651.55	1347.56
651.74	1257.45
651.93	1257.45
652.12	1339.37
652.31	1275.88
652.49	1269.74
652.68	1204.21
652.87	1298.41
653.06	1232.88
653.25	1236.97
653.44	1228.78
653.62	1257.45
653.81	1271.79
654.00	1310.70
654.19	1269.74
654.38	1363.95
654.56	1277.93
654.75	1198.06
654.94	1202.16
655.13	1374.19
655.32	1222.64
655.51	1308.65
655.69	1241.07
655.88	1257.45
656.07	1304.56
656.26	1296.36
656.45	1269.74
656.63	1265.64
656.82	1279.98
657.01	1224.69
657.20	1282.03
657.38	1228.78
657.57	1282.03
657.76	1277.93
657.95	1263.60
658.14	1273.84
658.32	1222.64
658.51	1370.09
658.70	1306.60
658.89	1282.03
659.08	1290.22
659.26	1298.41
659.45	1253.36
659.64	1261.55
659.83	1284.08
660.01	1226.73
660.20	1263.60
660.39	1269.74
660.58	1288.17
660.76	1251.31
660.95	1204.21
661.14	1224.69
661.33	1247.21
661.51	1273.84
661.70	1263.60
661.89	1335.28
662.08	1298.41
662.26	1269.74
662.45	1327.08
662.64	1282.03
662.83	1261.55
663.01	1255.40
663.20	1308.65
663.39	1279.98
663.58	1310.70
663.76	1183.73
663.95	1267.69
664.14	1294.32
664.32	1284.08
664.51	1249.26
664.70	1296.36
664.89	1300.46
665.07	1359.85
665.26	1228.78
665.45	1284.08
665.64	1304.56
665.82	1279.98
666.01	1333.23
666.20	1292.27
666.38	1263.60
666.57	1175.53
666.76	1257.45
666.95	1249.26
667.13	1288.17
667.32	1273.84
667.51	1325.04
667.69	1239.02
667.88	1288.17
668.07	1288.17
668.25	1353.71
668.44	1351.66
668.63	1214.45
668.81	1279.98
669.00	1337.32
669.19	1300.46
669.38	1304.56
669.56	1208.30
669.75	1222.64
669.94	1273.84
670.12	1322.99
670.31	1222.64
670.50	1296.36
670.68	1335.28
670.87	1273.84
671.06	1294.32
671.24	1294.32
671.43	1243.12
671.62	1267.69
671.80	1282.03
671.99	1300.46
672.18	1259.50
672.36	1335.28
672.55	1241.07
672.74	1290.22
672.92	1224.69
673.11	1282.03
673.29	1302.51
673.48	1249.26
673.67	1245.16
673.85	1286.12
674.04	1185.77
674.23	1374.19
674.41	1144.81
674.60	1349.61
674.79	1335.28
674.97	1273.84
675.16	1316.84
675.34	1294.32
675.53	1290.22
675.72	1257.45
675.90	1284.08
676.09	1273.84
676.28	1257.45
676.46	1243.12
676.65	1210.35
676.83	1288.17
677.02	1249.26
677.21	1275.88
677.39	1300.46
677.58	1277.93
677.77	1277.93
677.95	1308.65
678.14	1196.01
678.32	1216.49
678.51	1288.17
678.70	1282.03
678.88	1257.45
679.07	1277.93
679.25	1212.40
679.44	1257.45
679.63	1191.92
679.81	1288.17
680.00	1335.28
680.18	1322.99
680.37	1279.98
680.55	1265.64
680.74	1245.16
680.93	1292.27
681.11	1290.22
681.30	1298.41
681.48	1322.99
681.67	1247.21
681.85	1279.98
682.04	1292.27
682.23	1257.45
682.41	1216.49
682.60	1314.80
682.78	1271.79
682.97	1245.16
683.15	1286.12
683.34	1255.40
683.53	1290.22
683.71	1271.79
683.90	1261.55
684.08	1284.08
684.27	1249.26
684.45	1265.64
684.64	1298.41
684.82	1286.12
685.01	1236.97
685.19	1298.41
685.38	1255.40
685.57	1249.26
685.75	1284.08
685.94	1228.78
686.12	1271.79
686.31	1351.66
686.49	1327.08
686.68	1220.59
686.86	1271.79
687.05	1259.50
687.23	1259.50
687.42	1277.93
687.60	1273.84
687.79	1216.49
687.97	1273.84
688.16	1294.32
688.34	1296.36
688.53	1239.02
688.71	1300.46
688.90	1226.73
689.08	1296.36
689.27	1314.80
689.45	1224.69
689.64	1220.59
689.82	1275.88
690.01	1296.36
690.19	1308.65
690.38	1279.98
690.56	1271.79
690.75	1249.26
690.93	1239.02
691.12	1255.40
691.30	1279.98
691.49	1320.94
691.67	1206.25
691.86	1345.52
692.04	1224.69
692.23	1304.56
692.41	1302.51
692.60	1306.60
692.78	1306.60
692.97	1200.11
693.15	1216.49
693.34	1337.32
693.52	1277.93
693.71	1216.49
693.89	1286.12
694.08	1187.82
694.26	1255.40
694.44	1230.83
694.63	1265.64
694.81	1302.51
695.00	1298.41
695.18	1306.60
695.37	1241.07
695.55	1263.60
695.74	1216.49
695.92	1300.46
696.10	1310.70
696.29	1245.16
696.47	1282.03
696.66	1251.31
696.84	1216.49
697.03	1247.21
697.21	1290.22
697.40	1314.80
697.58	1228.78
697.76	1257.45
697.95	1269.74
698.13	1200.11
698.32	1214.45
698.50	1335.28
698.68	1327.08
698.87	1286.12
699.05	1273.84
699.24	1265.64
699.42	1304.56
699.61	1253.36
699.79	1325.04
699.97	1245.16
700.16	1320.94
700.34	1316.84
700.53	1245.16
700.71	1316.84
700.89	1318.89
701.08	1292.27
701.26	1284.08
701.45	1302.51
701.63	1320.94
701.81	1249.26
702.00	1286.12
702.18	1255.40
702.37	1282.03
702.55	1284.08
702.73	1273.84
702.92	1241.07
703.10	1198.06
703.28	1267.69
703.47	1329.13
703.65	1251.31
703.84	1216.49
704.02	1212.40
704.20	1292.27
704.39	1271.79
704.57	1243.12
704.75	1294.32
704.94	1226.73
705.12	1183.73
705.30	1298.41
705.49	1284.08
705.67	1226.73
705.86	1286.12
706.04	1245.16
706.22	1226.73
706.41	1271.79
706.59	1290.22
706.77	1232.88
706.96	1267.69
707.14	1251.31
707.32	1216.49
707.51	1331.18
707.69	1202.16
707.87	1245.16
708.06	1202.16
708.24	1214.45
708.42	1196.01
708.61	1368.04
708.79	1251.31
708.97	1224.69
709.16	1275.88
709.34	1314.80
709.52	1239.02
709.71	1243.12
709.89	1273.84
710.07	1263.60
710.26	1286.12
710.44	1282.03
710.62	1241.07
710.80	1251.31
710.99	1333.23
711.17	1288.17
711.35	1239.02
711.54	1251.31
711.72	1290.22
711.90	1296.36
712.09	1263.60
712.27	1302.51
712.45	1290.22
712.63	1265.64
712.82	1294.32
713.00	1298.41
713.18	1230.83
713.37	1210.35
713.55	1286.12
713.73	1322.99
713.91	1288.17
714.10	1335.28
714.28	1247.21
714.46	1310.70
714.65	1277.93
714.83	1253.36
715.01	1335.28
715.19	1239.02
715.38	1247.21
715.56	1306.60
715.74	1275.88
715.92	1265.64
716.11	1224.69
716.29	1337.32
716.47	1230.83
716.65	1282.03
716.84	1255.40
717.02	1318.89
717.20	1277.93
717.38	1335.28
717.57	1314.80
717.75	1288.17
717.93	1255.40
718.11	1284.08
718.30	1232.88
718.48	1290.22
718.66	1253.36
718.84	1210.35
719.03	1290.22
719.21	1282.03
719.39	1255.40
719.57	1308.65
719.75	1243.12
719.94	1335.28
720.12	1251.31
720.30	1363.95
720.48	1220.59
720.67	1275.88
720.85	1214.45
721.03	1234.93
721.21	1224.69
721.39	1239.02
721.58	1265.64
721.76	1298.41
721.94	1179.63
722.12	1247.21
722.30	1306.60
722.49	1224.69
722.67	1314.80
722.85	1314.80
723.03	1306.60
723.21	1296.36
723.40	1271.79
723.58	1312.75
723.76	1216.49
723.94	1265.64
724.12	1196.01
724.30	1302.51
724.49	1279.98
724.67	1208.30
724.85	1298.41
725.03	1322.99
725.21	1271.79
725.40	1167.34
725.58	1226.73
725.76	1226.73
725.94	1196.01
726.12	1288.17
726.30	1249.26
726.49	1325.04
726.67	1232.88
726.85	1302.51
727.03	1204.21
727.21	1279.98
727.39	1230.83
727.57	1331.18
727.76	1335.28
727.94	1253.36
728.12	1239.02
728.30	1232.88
728.48	1261.55
728.66	1249.26
728.84	1208.30
729.03	1222.64
729.21	1204.21
729.39	1261.55
729.57	1316.84
729.75	1394.67
729.93	1269.74
730.11	1269.74
730.30	1271.79
730.48	1269.74
730.66	1294.32
730.84	1243.12
731.02	1279.98
731.20	1208.30
731.38	1277.93
731.56	1306.60
731.74	1314.80
731.93	1261.55
732.11	1245.16
732.29	1279.98
732.47	1353.71
732.65	1214.45
732.83	1279.98
733.01	1298.41
733.19	1306.60
733.37	1294.32
733.56	1265.64
733.74	1308.65
733.92	1288.17
734.10	1355.76
734.28	1249.26
734.46	1300.46
734.64	1269.74
734.82	1279.98
735.00	1163.25
735.18	1216.49
735.36	1265.64
735.54	1288.17
735.73	1306.60
735.91	1322.99
736.09	1236.97
736.27	1198.06
736.45	1232.88
736.63	1288.17
736.81	1294.32
736.99	1249.26
737.17	1263.60
737.35	1314.80
737.53	1322.99
737.71	1345.52
737.89	1251.31
738.07	1269.74
738.25	1298.41
738.43	1247.21
738.61	1206.25
738.80	1349.61
738.98	1251.31
739.16	1290.22
739.34	1239.02
739.52	1247.21
739.70	1183.73
739.88	1269.74
740.06	1277.93
740.24	1292.27
740.42	1253.36
740.60	1236.97
740.78	1292.27
740.96	1253.36
741.14	1265.64
741.32	1302.51
741.50	1261.55
741.68	1279.98
741.86	1226.73
742.04	1212.40
742.22	1243.12
742.40	1228.78
742.58	1288.17
742.76	1191.92
742.94	1245.16
743.12	1259.50
743.30	1241.07
743.48	1298.41
743.66	1255.40
743.84	1243.12
744.02	1304.56
744.20	1284.08
744.38	1298.41
744.56	1290.22
744.74	1288.17
744.92	1271.79
745.10	1284.08
745.28	1273.84
745.46	1273.84
745.64	1302.51
745.82	1253.36
746.00	1208.30
746.18	1218.54
746.36	1308.65
746.54	1331.18
746.72	1296.36
746.90	1204.21
747.08	1198.06
747.26	1335.28
747.44	1177.58
747.62	1263.60
747.80	1314.80
747.98	1198.06
748.15	1284.08
748.33	1318.89
748.51	1310.70
748.69	1288.17
748.87	1337.32
749.05	1187.82
749.23	1220.59
749.41	1247.21
749.59	1322.99
749.77	1255.40
749.95	1290.22
750.13	1245.16
750.31	1255.40
750.49	1210.35
750.67	1314.80
750.85	1259.50
751.03	1224.69
751.20	1239.02
751.38	1204.21
751.56	1282.03
751.74	1202.16
751.92	1202.16
752.10	1220.59
752.28	1249.26
752.46	1241.07
752.64	1286.12
752.82	1220.59
753.00	1282.03
753.18	1279.98
753.35	1282.03
753.53	1279.98
753.71	1218.54
753.89	1284.08
754.07	1200.11
754.25	1292.27
754.43	1236.97
754.61	1249.26
754.79	1284.08
754.97	1349.61
755.14	1263.60
755.32	1296.36
755.50	1247.21
755.68	1271.79
755.86	1329.13
756.04	1302.51
756.22	1277.93
756.40	1279.98
756.57	1220.59
756.75	1273.84
756.93	1249.26
757.11	1320.94
757.29	1314.80
757.47	1241.07
757.65	1253.36
757.82	1232.88
758.00	1296.36
758.18	1363.95
758.36	1290.22
758.54	1290.22
758.72	1200.11
758.90	1302.51
759.07	1267.69
759.25	1288.17
759.43	1304.56
759.61	1273.84
759.79	1228.78
759.97	1253.36
760.15	1269.74
760.32	1257.45
760.50	1310.70
760.68	1251.31
760.86	1298.41
761.04	1333.23
761.22	1284.08
761.39	1298.41
761.57	1247.21
761.75	1316.84
761.93	1284.08
762.11	1372.14
762.28	1245.16
762.46	1345.52
762.64	1220.59
762.82	1257.45
763.00	1298.41
763.18	1302.51
763.35	1294.32
763.53	1271.79
763.71	1249.26
763.89	1251.31
764.07	1318.89
764.24	1257.45
764.42	1259.50
764.60	1279.98
764.78	1198.06
764.96	1343.47
765.13	1316.84
765.31	1245.16
765.49	1271.79
765.67	1296.36
765.84	1261.55
766.02	1329.13
766.20	1351.66
766.38	1302.51
766.56	1234.93
766.73	1191.92
766.91	1206.25
767.09	1265.64
767.27	1277.93
767.44	1296.36
767.62	1306.60
767.80	1216.49
767.98	1314.80
768.15	1265.64
768.33	1288.17
768.51	1368.04
768.69	1349.61
768.87	1290.22
769.04	1279.98
769.22	1290.22
769.40	1220.59
769.58	1282.03
769.75	1265.64
769.93	1302.51
770.11	1300.46
770.28	1247.21
770.46	1359.85
770.64	1241.07
770.82	1294.32
770.99	1273.84
771.17	1302.51
771.35	1239.02
771.53	1243.12
771.70	1300.46
771.88	1314.80
772.06	1249.26
772.23	1286.12
772.41	1331.18
772.59	1210.35
772.77	1245.16
772.94	1318.89
773.12	1273.84
773.30	1263.60
773.47	1257.45
773.65	1300.46
773.83	1282.03
774.01	1333.23
774.18	1265.64
774.36	1257.45
774.54	1257.45
774.71	1243.12
774.89	1241.07
775.07	1267.69
775.24	1216.49
775.42	1214.45
775.60	1255.40
775.78	1292.27
775.95	1263.60
776.13	1249.26
776.31	1189.87
776.48	1273.84
776.66	1275.88
776.84	1302.51
777.01	1339.37
777.19	1312.75
777.37	1232.88
777.54	1249.26
777.72	1312.75
777.90	1263.60
778.07	1263.60
778.25	1239.02
778.43	1239.02
778.60	1218.54
778.78	1247.21
778.96	1255.40
779.13	1265.64
779.31	1279.98
779.49	1216.49
779.66	1312.75
779.84	1298.41
780.01	1206.25
780.19	1351.66
780.37	1265.64
780.54	1204.21
780.72	1296.36
780.90	1232.88
781.07	1224.69
781.25	1243.12
781.43	1208.30
781.60	1316.84
781.78	1292.27
781.95	1294.32
782.13	1271.79
782.31	1277.93
782.48	1255.40
782.66	1239.02
782.83	1239.02
783.01	1279.98
783.19	1220.59
783.36	1288.17
783.54	1279.98
783.72	1275.88
783.89	1245.16
784.07	1185.77
784.24	1206.25
784.42	1251.31
784.60	1232.88
784.77	1282.03
784.95	1345.52
785.12	1322.99
785.30	1259.50
785.47	1290.22
785.65	1265.64
785.83	1279.98
786.00	1337.32
786.18	1243.12
786.35	1284.08
786.53	1349.61
786.71	1269.74
786.88	1269.74
787.06	1232.88
787.23	1298.41
787.41	1232.88
787.58	1269.74
787.76	1243.12
787.94	1279.98
788.11	1277.93
788.29	1204.21
788.46	1247.21
788.64	1200.11
788.81	1312.75
788.99	1247.21
789.16	1251.31
789.34	1292.27
789.52	1322.99
789.69	1228.78
789.87	1259.50
790.04	1302.51
790.22	1245.16
790.39	1241.07
790.57	1249.26
790.74	1259.50
790.92	1228.78
791.09	1247.21
791.27	1212.40
791.44	1329.13
791.62	1279.98
791.79	1208.30
791.97	1286.12
792.15	1361.90
792.32	1222.64
792.50	1308.65
792.67	1277.93
792.85	1298.41
793.02	1294.32
793.20	1218.54
793.37	1191.92
793.55	1294.32
793.72	1247.21
793.90	1230.83
794.07	1208.30
794.25	1249.26
794.42	1284.08
794.60	1275.88
794.77	1189.87
794.95	1294.32
795.12	1282.03
795.30	1226.73
795.47	1331.18
795.65	1277.93
795.82	1206.25
796.00	1239.02
796.17	1228.78
796.34	1249.26
796.52	1275.88
796.69	1263.60
796.87	1257.45
797.04	1234.93
797.22	1251.31
797.39	1259.50
797.57	1253.36
797.74	1267.69
797.92	1302.51
798.09	1255.40
798.27	1277.93
798.44	1253.36
798.62	1241.07
798.79	1282.03
798.96	1292.27
799.14	1150.96
799.31	1253.36
799.49	1312.75
799.66	1288.17
799.84	1241.07
800.01	1232.88
800.19	1271.79
800.36	1249.26
800.53	1320.94
800.71	1243.12
800.88	1282.03
801.06	1210.35
801.23	1239.02
801.41	1245.16
801.58	1255.40
801.75	1284.08
801.93	1218.54
802.10	1218.54
802.28	1193.97
802.45	1290.22
802.63	1241.07
802.80	1259.50
802.97	1226.73
803.15	1271.79
803.32	1259.50
803.50	1251.31
803.67	1290.22
803.84	1255.40
804.02	1273.84
804.19	1232.88
804.37	1288.17
804.54	1378.28
804.71	1257.45
804.89	1253.36
805.06	1329.13
805.24	1263.60
805.41	1241.07
805.58	1273.84
805.76	1222.64
805.93	1275.88
806.10	1343.47
806.28	1251.31
806.45	1302.51
806.63	1304.56
806.80	1329.13
806.97	1236.97
807.15	1257.45
807.32	1236.97
807.49	1275.88
807.67	1269.74
807.84	1251.31
808.01	1288.17
808.19	1232.88
808.36	1261.55
808.54	1210.35
808.71	1302.51
808.88	1335.28
809.06	1198.06
809.23	1251.31
809.40	1294.32
809.58	1333.23
809.75	1241.07
809.92	1308.65
810.10	1253.36
810.27	1265.64
810.44	1198.06
810.62	1263.60
810.79	1341.42
810.96	1355.76
811.14	1300.46
811.31	1220.59
811.48	1200.11
811.66	1304.56
811.83	1288.17
812.00	1333.23
812.18	1275.88
812.35	1228.78
812.52	1286.12
812.69	1310.70
812.87	1284.08
813.04	1222.64
813.21	1302.51
813.39	1265.64
813.56	1318.89
813.73	1206.25
813.91	1271.79
814.08	1306.60
814.25	1214.45
814.42	1228.78
814.60	1212.40
814.77	1279.98
814.94	1236.97
815.12	1290.22
815.29	1212.40
815.46	1247.21
815.63	1286.12
815.81	1193.97
815.98	1255.40
816.15	1296.36
816.33	1288.17
816.50	1196.01
816.67	1206.25
816.84	1249.26
817.02	1234.93
817.19	1290.22
817.36	1261.55
817.53	1245.16
817.71	1251.31
817.88	1239.02
818.05	1288.17
818.22	1294.32
818.40	1318.89
818.57	1331.18
818.74	1189.87
818.91	1318.89
819.09	1253.36
819.26	1273.84
819.43	1284.08
819.60	1167.34
819.78	1269.74
819.95	1243.12
820.12	1198.06
820.29	1232.88
820.47	1239.02
820.64	1275.88
820.81	1241.07
820.98	1359.85
821.15	1322.99
821.33	1261.55
821.50	1308.65
821.67	1314.80
821.84	1308.65
822.02	1292.27
822.19	1286.12
822.36	1257.45
822.53	1241.07
822.70	1320.94
822.88	1220.59
823.05	1193.97
823.22	1279.98
823.39	1294.32
823.56	1263.60
823.74	1288.17
823.91	1243.12
824.08	1312.75
824.25	1204.21
824.42	1329.13
824.60	1253.36
824.77	1312.75
824.94	1282.03
825.11	1255.40
825.28	1241.07
825.45	1249.26
825.63	1206.25
825.80	1314.80
825.97	1329.13
826.14	1296.36
826.31	1232.88
826.48	1290.22
826.66	1269.74
826.83	1327.08
827.00	1269.74
827.17	1261.55
827.34	1286.12
827.51	1265.64
827.69	1234.93
827.86	1271.79
828.03	1310.70
828.20	1329.13
828.37	1226.73
828.54	1175.53
828.71	1271.79
828.89	1345.52
829.06	1314.80
829.23	1273.84
829.40	1286.12
829.57	1189.87
829.74	1261.55
829.91	1282.03
830.09	1251.31
830.26	1226.73
830.43	1259.50
830.60	1253.36
830.77	1185.77
830.94	1222.64
831.11	1329.13
831.28	1243.12
831.46	1247.21
831.63	1273.84
831.80	1302.51
831.97	1239.02
832.14	1234.93
832.31	1308.65
832.48	1282.03
832.65	1296.36
832.82	1363.95
832.99	1322.99
833.17	1318.89
833.34	1247.21
833.51	1318.89
833.68	1249.26
833.85	1253.36
834.02	1261.55
834.19	1282.03
834.36	1257.45
834.53	1308.65
834.70	1181.68
834.87	1241.07
835.04	1306.60
835.22	1249.26
835.39	1251.31
835.56	1191.92
835.73	1292.27
835.90	1222.64
836.07	1359.85
836.24	1363.95
836.41	1312.75
836.58	1310.70
836.75	1263.60
836.92	1265.64
837.09	1282.03
837.26	1204.21
837.43	1335.28
837.60	1232.88
837.77	1269.74
837.94	1247.21
838.12	1275.88
838.29	1247.21
838.46	1236.97
838.63	1214.45
838.80	1224.69
838.97	1265.64
839.14	1265.64
839.31	1265.64
839.48	1294.32
839.65	1300.46
839.82	1232.88
839.99	1218.54
840.16	1374.19
840.33	1263.60
840.50	1257.45
840.67	1251.31
840.84	1282.03
841.01	1239.02
841.18	1263.60
841.35	1292.27
841.52	1263.60
841.69	1343.47
841.86	1331.18
842.03	1320.94
842.20	1251.31
842.37	1316.84
842.54	1204.21
842.71	1298.41
842.88	1216.49
843.05	1220.59
843.22	1263.60
843.39	1275.88
843.56	1257.45
843.73	1249.26
843.90	1251.31
844.07	1302.51
844.24	1302.51
844.41	1224.69
844.58	1296.36
844.75	1279.98
844.92	1282.03
845.09	1236.97
845.26	1351.66
845.43	1193.97
845.60	1265.64
845.77	1230.83
845.94	1263.60
846.10	1273.84
846.27	1306.60
846.44	1292.27
846.61	1263.60
846.78	1265.64
846.95	1314.80
847.12	1247.21
847.29	1236.97
847.46	1243.12
847.63	1251.31
847.80	1228.78
847.97	1265.64
848.14	1288.17
848.31	1216.49
848.48	1214.45
848.65	1259.50
848.82	1232.88
848.98	1279.98
849.15	1286.12
849.32	1263.60
849.49	1286.12
849.66	1292.27
849.83	1255.40
850.00	1325.04
850.17	1273.84
850.34	1216.49
850.51	1279.98
850.68	1224.69
850.85	1306.60
851.01	1214.45
851.18	1304.56
851.35	1243.12
851.52	1265.64
851.69	1331.18
851.86	1282.03
852.03	1308.65
852.20	1277.93
852.37	1218.54
852.53	1198.06
852.70	1325.04
852.87	1312.75
853.04	1288.17
853.21	1300.46
853.38	1255.40
853.55	1236.97
853.72	1265.64
853.89	1220.59
854.05	1212.40
854.22	1271.79
854.39	1265.64
854.56	1273.84
854.73	1236.97
854.90	1341.42
855.07	1263.60
855.23	1212.40
855.40	1239.02
855.57	1277.93
855.74	1275.88
855.91	1333.23
856.08	1275.88
856.25	1234.93
856.41	1241.07
856.58	1259.50
856.75	1284.08
856.92	1239.02
857.09	1265.64
857.26	1277.93
857.42	1257.45
857.59	1279.98
857.76	1232.88
857.93	1245.16
858.10	1331.18
858.27	1253.36
858.43	1308.65
858.60	1286.12
858.77	1267.69
858.94	1159.15
859.11	1329.13
859.27	1234.93
859.44	1296.36
859.61	1275.88
859.78	1322.99
859.95	1265.64
860.12	1267.69
860.28	1296.36
860.45	1271.79
860.62	1308.65
860.79	1282.03
860.95	1286.12
861.12	1202.16
861.29	1251.31
861.46	1269.74
861.63	1275.88
861.79	1253.36
861.96	1253.36
862.13	1214.45
862.30	1277.93
862.47	1267.69
862.63	1288.17
862.80	1298.41
862.97	1263.60
863.14	1253.36
863.30	1249.26
863.47	1298.41
863.64	1290.22
863.81	1216.49
863.97	1251.31
864.14	1271.79
864.31	1234.93
864.48	1314.80
864.65	1257.45
864.81	1306.60
864.98	1261.55
865.15	1325.04
865.32	1333.23
865.48	1230.83
865.65	1288.17
865.82	1304.56
865.98	1298.41
866.15	1222.64
866.32	1271.79
866.49	1245.16
866.65	1255.40
866.82	1269.74
866.99	1275.88
867.16	1259.50
867.32	1210.35
867.49	1257.45
867.66	1265.64
867.83	1322.99
867.99	1290.22
868.16	1263.60
868.33	1300.46
868.49	1261.55
868.66	1288.17
868.83	1239.02
868.99	1273.84
869.16	1292.27
869.33	1208.30
869.50	1267.69
869.66	1300.46
869.83	1310.70
870.00	1216.49
870.16	1288.17
870.33	1261.55
870.50	1267.69
870.66	1241.07
870.83	1239.02
871.00	1286.12
871.17	1216.49
871.33	1292.27
871.50	1247.21
871.67	1185.77
871.83	1214.45
872.00	1288.17
872.17	1275.88
872.33	1255.40
872.50	1222.64
872.67	1306.60
872.83	1214.45
873.00	1277.93
873.17	1212.40
873.33	1161.20
873.50	1279.98
873.67	1300.46
873.83	1226.73
874.00	1271.79
874.16	1316.84
874.33	1325.04
874.50	1263.60
874.66	1347.56
874.83	1310.70
875.00	1288.17
875.16	1288.17
875.33	1271.79
875.50	1286.12
875.66	1257.45
875.83	1263.60
875.99	1302.51
876.16	1322.99
876.33	1202.16
876.49	1253.36
876.66	1257.45
876.83	1374.19
876.99	1290.22
877.16	1259.50
877.32	1251.31
877.49	1282.03
877.66	1275.88
877.82	1282.03
877.99	1239.02
878.15	1234.93
878.32	1253.36
878.49	1306.60
878.65	1296.36
878.82	1249.26
878.98	1353.71
879.15	1202.16
879.32	1257.45
879.48	1253.36
879.65	1243.12
879.81	1257.45
879.98	1269.74
880.15	1327.08
880.31	1177.58
880.48	1241.07
880.64	1288.17
880.81	1345.52
880.97	1269.74
881.14	1322.99
881.31	1216.49
881.47	1282.03
881.64	1171.44
881.80	1232.88
881.97	1282.03
882.13	1249.26
882.30	1282.03
882.47	1247.21
882.63	1335.28
882.80	1261.55
882.96	1218.54
883.13	1257.45
883.29	1273.84
883.46	1267.69
883.62	1294.32
883.79	1271.79
883.95	1243.12
884.12	1269.74
884.29	1290.22
884.45	1284.08
884.62	1234.93
884.78	1249.26
884.95	1271.79
885.11	1267.69
885.28	1282.03
885.44	1320.94
885.61	1261.55
885.77	1249.26
885.94	1216.49
886.10	1259.50
886.27	1306.60
886.43	1249.26
886.60	1316.84
886.76	1284.08
886.93	1234.93
887.09	1216.49
887.26	1236.97
887.42	1239.02
887.59	1253.36
887.75	1265.64
887.92	1226.73
888.08	1241.07
888.25	1312.75
888.41	1282.03
888.58	1277.93
888.74	1253.36
888.91	1200.11
>>>>>End Processed Spectral Data<<<<<
