SpectraSuite Data File
++++++++++++++++++++++++++++++++++++
Date: Sun Apr 03 19:55:39 CEST 2016
User: root
Dark Spectrum Present: No
Reference Spectrum Present: No
Number of Sampled Component Spectra: 1
Spectrometers: USB4C02835
Integration Time (usec): 10000 (USB4C02835)
Spectra Averaged: 1 (USB4C02835)
Boxcar Smoothing: 0 (USB4C02835)
Correct for Electrical Dark: No (USB4C02835)
Strobe/Lamp Enabled: No (USB4C02835)
Correct for Detector Non-linearity: No (USB4C02835)
Correct for Stray Light: No (USB4C02835)
Number of Pixels in Processed Spectrum: 3648
>>>>>Begin Processed Spectral Data<<<<<
177.47	1257.45
177.69	1257.45
177.91	1257.45
178.13	1298.41
178.36	1249.26
178.58	1275.88
178.80	1263.60
179.02	1298.41
179.24	1212.40
179.46	1279.98
179.68	1282.03
179.90	1298.41
180.13	1267.69
180.35	1232.88
180.57	1259.50
180.79	1333.23
181.01	1253.36
181.23	1200.11
181.45	1204.21
181.67	1230.83
181.90	1302.51
182.12	1236.97
182.34	1308.65
182.56	1290.22
182.78	1337.32
183.00	1265.64
183.22	1306.60
183.44	1251.31
183.66	1361.90
183.89	1253.36
184.11	1265.64
184.33	1198.06
184.55	1265.64
184.77	1329.13
184.99	1325.04
185.21	1222.64
185.43	1290.22
185.65	1228.78
185.87	1267.69
186.10	1282.03
186.32	1239.02
186.54	1308.65
186.76	1363.95
186.98	1351.66
187.20	1333.23
187.42	1302.51
187.64	1275.88
187.86	1261.55
188.08	1263.60
188.30	1243.12
188.52	1277.93
188.75	1249.26
188.97	1247.21
189.19	1284.08
189.41	1255.40
189.63	1245.16
189.85	1245.16
190.07	1173.49
190.29	1257.45
190.51	1277.93
190.73	1310.70
190.95	1232.88
191.17	1273.84
191.39	1269.74
191.61	1271.79
191.84	1222.64
192.06	1267.69
192.28	1279.98
192.50	1247.21
192.72	1259.50
192.94	1234.93
193.16	1302.51
193.38	1286.12
193.60	1255.40
193.82	1261.55
194.04	1304.56
194.26	1204.21
194.48	1275.88
194.70	1251.31
194.92	1249.26
195.14	1230.83
195.36	1320.94
195.58	1312.75
195.80	1263.60
196.02	1198.06
196.24	1277.93
196.46	1265.64
196.69	1308.65
196.91	1230.83
197.13	1322.99
197.35	1222.64
197.57	1226.73
197.79	1253.36
198.01	1210.35
198.23	1232.88
198.45	1216.49
198.67	1306.60
198.89	1296.36
199.11	1185.77
199.33	1255.40
199.55	1239.02
199.77	1247.21
199.99	1222.64
200.21	1251.31
200.43	1198.06
200.65	1290.22
200.87	1284.08
201.09	1241.07
201.31	1296.36
201.53	1298.41
201.75	1263.60
201.97	1273.84
202.19	1230.83
202.41	1224.69
202.63	1331.18
202.85	1247.21
203.07	1189.87
203.29	1271.79
203.51	1380.33
203.73	1175.53
203.95	1269.74
204.17	1249.26
204.39	1269.74
204.61	1230.83
204.83	1232.88
205.05	1210.35
205.27	1290.22
205.49	1257.45
205.71	1230.83
205.93	1271.79
206.15	1232.88
206.37	1210.35
206.59	1290.22
206.81	1265.64
207.03	1222.64
207.25	1302.51
207.47	1142.77
207.69	1269.74
207.91	1322.99
208.13	1218.54
208.34	1279.98
208.56	1273.84
208.78	1263.60
209.00	1263.60
209.22	1277.93
209.44	1275.88
209.66	1245.16
209.88	1230.83
210.10	1306.60
210.32	1255.40
210.54	1263.60
210.76	1263.60
210.98	1198.06
211.20	1220.59
211.42	1292.27
211.64	1273.84
211.86	1259.50
212.08	1325.04
212.30	1273.84
212.52	1302.51
212.74	1298.41
212.96	1224.69
213.17	1329.13
213.39	1290.22
213.61	1265.64
213.83	1267.69
214.05	1239.02
214.27	1335.28
214.49	1294.32
214.71	1273.84
214.93	1284.08
215.15	1286.12
215.37	1269.74
215.59	1337.32
215.81	1306.60
216.03	1241.07
216.24	1261.55
216.46	1318.89
216.68	1304.56
216.90	1267.69
217.12	1265.64
217.34	1273.84
217.56	1316.84
217.78	1322.99
218.00	1345.52
218.22	1208.30
218.44	1261.55
218.66	1310.70
218.87	1282.03
219.09	1239.02
219.31	1241.07
219.53	1298.41
219.75	1279.98
219.97	1302.51
220.19	1273.84
220.41	1290.22
220.63	1251.31
220.85	1263.60
221.06	1259.50
221.28	1298.41
221.50	1255.40
221.72	1257.45
221.94	1286.12
222.16	1333.23
222.38	1273.84
222.60	1361.90
222.82	1312.75
223.03	1316.84
223.25	1329.13
223.47	1288.17
223.69	1359.85
223.91	1349.61
224.13	1318.89
224.35	1314.80
224.57	1212.40
224.78	1277.93
225.00	1282.03
225.22	1251.31
225.44	1329.13
225.66	1216.49
225.88	1296.36
226.10	1245.16
226.32	1279.98
226.53	1320.94
226.75	1296.36
226.97	1241.07
227.19	1282.03
227.41	1245.16
227.63	1374.19
227.85	1249.26
228.06	1214.45
228.28	1216.49
228.50	1294.32
228.72	1269.74
228.94	1277.93
229.16	1265.64
229.37	1277.93
229.59	1277.93
229.81	1294.32
230.03	1282.03
230.25	1259.50
230.47	1232.88
230.69	1249.26
230.90	1273.84
231.12	1284.08
231.34	1200.11
231.56	1267.69
231.78	1249.26
232.00	1333.23
232.21	1384.43
232.43	1261.55
232.65	1269.74
232.87	1257.45
233.09	1359.85
233.30	1277.93
233.52	1255.40
233.74	1300.46
233.96	1325.04
234.18	1236.97
234.40	1335.28
234.61	1304.56
234.83	1208.30
235.05	1322.99
235.27	1269.74
235.49	1228.78
235.70	1284.08
235.92	1300.46
236.14	1212.40
236.36	1279.98
236.58	1269.74
236.79	1273.84
237.01	1273.84
237.23	1296.36
237.45	1269.74
237.67	1312.75
237.88	1288.17
238.10	1228.78
238.32	1290.22
238.54	1245.16
238.76	1224.69
238.97	1273.84
239.19	1236.97
239.41	1333.23
239.63	1253.36
239.85	1288.17
240.06	1249.26
240.28	1282.03
240.50	1253.36
240.72	1288.17
240.93	1253.36
241.15	1310.70
241.37	1277.93
241.59	1267.69
241.81	1273.84
242.02	1255.40
242.24	1236.97
242.46	1222.64
242.68	1294.32
242.89	1236.97
243.11	1288.17
243.33	1292.27
243.55	1277.93
243.76	1271.79
243.98	1269.74
244.20	1261.55
244.42	1296.36
244.64	1312.75
244.85	1310.70
245.07	1189.87
245.29	1251.31
245.51	1318.89
245.72	1306.60
245.94	1206.25
246.16	1277.93
246.38	1282.03
246.59	1273.84
246.81	1202.16
247.03	1261.55
247.24	1228.78
247.46	1230.83
247.68	1292.27
247.90	1279.98
248.11	1327.08
248.33	1234.93
248.55	1263.60
248.77	1255.40
248.98	1322.99
249.20	1253.36
249.42	1206.25
249.64	1230.83
249.85	1304.56
250.07	1245.16
250.29	1306.60
250.50	1320.94
250.72	1282.03
250.94	1249.26
251.16	1226.73
251.37	1269.74
251.59	1214.45
251.81	1265.64
252.02	1261.55
252.24	1245.16
252.46	1243.12
252.68	1318.89
252.89	1292.27
253.11	1257.45
253.33	1298.41
253.54	1329.13
253.76	1333.23
253.98	1286.12
254.20	1327.08
254.41	1302.51
254.63	1230.83
254.85	1284.08
255.06	1255.40
255.28	1312.75
255.50	1255.40
255.71	1267.69
255.93	1273.84
256.15	1232.88
256.36	1253.36
256.58	1329.13
256.80	1282.03
257.02	1241.07
257.23	1310.70
257.45	1263.60
257.67	1308.65
257.88	1320.94
258.10	1222.64
258.32	1208.30
258.53	1220.59
258.75	1376.24
258.97	1284.08
259.18	1282.03
259.40	1314.80
259.62	1316.84
259.83	1284.08
260.05	1310.70
260.27	1329.13
260.48	1226.73
260.70	1198.06
260.92	1306.60
261.13	1279.98
261.35	1277.93
261.57	1257.45
261.78	1259.50
262.00	1277.93
262.22	1322.99
262.43	1249.26
262.65	1257.45
262.86	1261.55
263.08	1279.98
263.30	1304.56
263.51	1232.88
263.73	1257.45
263.95	1273.84
264.16	1267.69
264.38	1341.42
264.60	1232.88
264.81	1282.03
265.03	1232.88
265.25	1208.30
265.46	1300.46
265.68	1290.22
265.89	1241.07
266.11	1265.64
266.33	1269.74
266.54	1255.40
266.76	1271.79
266.98	1241.07
267.19	1292.27
267.41	1259.50
267.62	1251.31
267.84	1136.62
268.06	1282.03
268.27	1216.49
268.49	1267.69
268.70	1228.78
268.92	1312.75
269.14	1316.84
269.35	1245.16
269.57	1187.82
269.79	1220.59
270.00	1286.12
270.22	1208.30
270.43	1255.40
270.65	1224.69
270.87	1253.36
271.08	1294.32
271.30	1224.69
271.51	1327.08
271.73	1255.40
271.95	1310.70
272.16	1284.08
272.38	1290.22
272.59	1249.26
272.81	1282.03
273.02	1279.98
273.24	1243.12
273.46	1294.32
273.67	1230.83
273.89	1232.88
274.10	1292.27
274.32	1288.17
274.54	1249.26
274.75	1253.36
274.97	1302.51
275.18	1308.65
275.40	1318.89
275.61	1236.97
275.83	1269.74
276.05	1312.75
276.26	1214.45
276.48	1198.06
276.69	1253.36
276.91	1302.51
277.12	1292.27
277.34	1191.92
277.55	1273.84
277.77	1189.87
277.99	1263.60
278.20	1255.40
278.42	1247.21
278.63	1304.56
278.85	1257.45
279.06	1175.53
279.28	1247.21
279.49	1257.45
279.71	1296.36
279.93	1212.40
280.14	1232.88
280.36	1341.42
280.57	1277.93
280.79	1290.22
281.00	1222.64
281.22	1269.74
281.43	1198.06
281.65	1263.60
281.86	1322.99
282.08	1249.26
282.29	1288.17
282.51	1263.60
282.73	1222.64
282.94	1271.79
283.16	1241.07
283.37	1290.22
283.59	1294.32
283.80	1273.84
284.02	1243.12
284.23	1277.93
284.45	1239.02
284.66	1193.97
284.88	1312.75
285.09	1230.83
285.31	1271.79
285.52	1335.28
285.74	1232.88
285.95	1275.88
286.17	1222.64
286.38	1353.71
286.60	1261.55
286.81	1212.40
287.03	1198.06
287.24	1271.79
287.46	1304.56
287.67	1318.89
287.89	1271.79
288.10	1312.75
288.32	1259.50
288.53	1294.32
288.75	1214.45
288.96	1314.80
289.18	1241.07
289.39	1193.97
289.61	1296.36
289.82	1271.79
290.04	1333.23
290.25	1251.31
290.47	1273.84
290.68	1300.46
290.90	1245.16
291.11	1247.21
291.33	1234.93
291.54	1294.32
291.76	1259.50
291.97	1245.16
292.18	1218.54
292.40	1294.32
292.61	1183.73
292.83	1269.74
293.04	1284.08
293.26	1230.83
293.47	1286.12
293.69	1179.63
293.90	1249.26
294.12	1245.16
294.33	1284.08
294.55	1294.32
294.76	1308.65
294.97	1288.17
295.19	1277.93
295.40	1331.18
295.62	1265.64
295.83	1284.08
296.05	1318.89
296.26	1234.93
296.48	1316.84
296.69	1294.32
296.90	1304.56
297.12	1253.36
297.33	1320.94
297.55	1269.74
297.76	1288.17
297.98	1253.36
298.19	1304.56
298.41	1232.88
298.62	1263.60
298.83	1302.51
299.05	1255.40
299.26	1296.36
299.48	1265.64
299.69	1226.73
299.90	1300.46
300.12	1234.93
300.33	1247.21
300.55	1247.21
300.76	1304.56
300.98	1253.36
301.19	1255.40
301.40	1187.82
301.62	1267.69
301.83	1208.30
302.05	1257.45
302.26	1247.21
302.47	1320.94
302.69	1230.83
302.90	1239.02
303.12	1267.69
303.33	1306.60
303.54	1284.08
303.76	1325.04
303.97	1267.69
304.19	1249.26
304.40	1263.60
304.61	1290.22
304.83	1210.35
305.04	1288.17
305.26	1290.22
305.47	1300.46
305.68	1271.79
305.90	1245.16
306.11	1271.79
306.33	1245.16
306.54	1193.97
306.75	1241.07
306.97	1282.03
307.18	1277.93
307.39	1284.08
307.61	1279.98
307.82	1304.56
308.04	1259.50
308.25	1183.73
308.46	1239.02
308.68	1320.94
308.89	1257.45
309.10	1257.45
309.32	1273.84
309.53	1298.41
309.74	1279.98
309.96	1228.78
310.17	1279.98
310.39	1249.26
310.60	1325.04
310.81	1220.59
311.03	1318.89
311.24	1271.79
311.45	1200.11
311.67	1249.26
311.88	1245.16
312.09	1273.84
312.31	1306.60
312.52	1275.88
312.73	1279.98
312.95	1257.45
313.16	1193.97
313.37	1271.79
313.59	1322.99
313.80	1251.31
314.01	1265.64
314.23	1183.73
314.44	1255.40
314.65	1228.78
314.87	1312.75
315.08	1286.12
315.29	1284.08
315.51	1298.41
315.72	1249.26
315.93	1200.11
316.15	1271.79
316.36	1298.41
316.57	1302.51
316.79	1243.12
317.00	1236.97
317.21	1261.55
317.43	1220.59
317.64	1232.88
317.85	1222.64
318.07	1247.21
318.28	1208.30
318.49	1314.80
318.70	1290.22
318.92	1279.98
319.13	1228.78
319.34	1232.88
319.56	1247.21
319.77	1284.08
319.98	1214.45
320.20	1239.02
320.41	1312.75
320.62	1273.84
320.83	1257.45
321.05	1312.75
321.26	1241.07
321.47	1325.04
321.69	1286.12
321.90	1218.54
322.11	1245.16
322.32	1253.36
322.54	1261.55
322.75	1265.64
322.96	1255.40
323.18	1232.88
323.39	1263.60
323.60	1310.70
323.81	1239.02
324.03	1314.80
324.24	1253.36
324.45	1366.00
324.66	1333.23
324.88	1302.51
325.09	1241.07
325.30	1322.99
325.52	1255.40
325.73	1355.76
325.94	1294.32
326.15	1236.97
326.37	1294.32
326.58	1251.31
326.79	1366.00
327.00	1308.65
327.22	1239.02
327.43	1265.64
327.64	1288.17
327.85	1273.84
328.07	1257.45
328.28	1308.65
328.49	1249.26
328.70	1284.08
328.92	1263.60
329.13	1288.17
329.34	1312.75
329.55	1282.03
329.76	1298.41
329.98	1247.21
330.19	1302.51
330.40	1234.93
330.61	1232.88
330.83	1265.64
331.04	1269.74
331.25	1304.56
331.46	1279.98
331.68	1308.65
331.89	1196.01
332.10	1193.97
332.31	1331.18
332.52	1290.22
332.74	1222.64
332.95	1329.13
333.16	1279.98
333.37	1193.97
333.58	1298.41
333.80	1232.88
334.01	1263.60
334.22	1171.44
334.43	1298.41
334.64	1259.50
334.86	1259.50
335.07	1269.74
335.28	1230.83
335.49	1275.88
335.70	1286.12
335.92	1243.12
336.13	1304.56
336.34	1316.84
336.55	1226.73
336.76	1224.69
336.98	1292.27
337.19	1284.08
337.40	1224.69
337.61	1251.31
337.82	1251.31
338.04	1226.73
338.25	1212.40
338.46	1275.88
338.67	1257.45
338.88	1214.45
339.09	1216.49
339.31	1261.55
339.52	1259.50
339.73	1251.31
339.94	1247.21
340.15	1263.60
340.36	1320.94
340.58	1261.55
340.79	1302.51
341.00	1251.31
341.21	1263.60
341.42	1294.32
341.63	1234.93
341.85	1372.14
342.06	1236.97
342.27	1298.41
342.48	1275.88
342.69	1257.45
342.90	1318.89
343.12	1239.02
343.33	1239.02
343.54	1261.55
343.75	1202.16
343.96	1296.36
344.17	1271.79
344.38	1239.02
344.60	1202.16
344.81	1243.12
345.02	1296.36
345.23	1261.55
345.44	1249.26
345.65	1206.25
345.86	1279.98
346.07	1243.12
346.29	1306.60
346.50	1275.88
346.71	1255.40
346.92	1261.55
347.13	1234.93
347.34	1247.21
347.55	1306.60
347.76	1308.65
347.98	1296.36
348.19	1218.54
348.40	1290.22
348.61	1294.32
348.82	1304.56
349.03	1314.80
349.24	1290.22
349.45	1226.73
349.66	1257.45
349.88	1261.55
350.09	1306.60
350.30	1282.03
350.51	1288.17
350.72	1230.83
350.93	1263.60
351.14	1210.35
351.35	1220.59
351.56	1253.36
351.77	1265.64
351.99	1222.64
352.20	1187.82
352.41	1306.60
352.62	1224.69
352.83	1296.36
353.04	1271.79
353.25	1200.11
353.46	1265.64
353.67	1255.40
353.88	1273.84
354.09	1288.17
354.30	1239.02
354.52	1318.89
354.73	1284.08
354.94	1218.54
355.15	1277.93
355.36	1228.78
355.57	1263.60
355.78	1249.26
355.99	1265.64
356.20	1300.46
356.41	1378.28
356.62	1275.88
356.83	1241.07
357.04	1308.65
357.25	1210.35
357.46	1314.80
357.68	1269.74
357.89	1329.13
358.10	1286.12
358.31	1222.64
358.52	1306.60
358.73	1271.79
358.94	1304.56
359.15	1226.73
359.36	1298.41
359.57	1210.35
359.78	1277.93
359.99	1298.41
360.20	1226.73
360.41	1302.51
360.62	1259.50
360.83	1298.41
361.04	1189.87
361.25	1210.35
361.46	1265.64
361.67	1230.83
361.88	1247.21
362.09	1279.98
362.30	1292.27
362.51	1265.64
362.72	1165.29
362.93	1314.80
363.14	1253.36
363.35	1243.12
363.56	1249.26
363.78	1245.16
363.99	1290.22
364.20	1288.17
364.41	1253.36
364.62	1288.17
364.83	1257.45
365.04	1212.40
365.25	1259.50
365.46	1318.89
365.67	1277.93
365.88	1263.60
366.09	1222.64
366.30	1312.75
366.51	1212.40
366.72	1279.98
366.93	1286.12
367.14	1271.79
367.35	1312.75
367.56	1290.22
367.77	1329.13
367.98	1245.16
368.18	1271.79
368.39	1292.27
368.60	1282.03
368.81	1269.74
369.02	1257.45
369.23	1148.91
369.44	1275.88
369.65	1191.92
369.86	1247.21
370.07	1273.84
370.28	1251.31
370.49	1220.59
370.70	1267.69
370.91	1185.77
371.12	1292.27
371.33	1286.12
371.54	1232.88
371.75	1279.98
371.96	1245.16
372.17	1277.93
372.38	1263.60
372.59	1265.64
372.80	1296.36
373.01	1288.17
373.22	1263.60
373.43	1239.02
373.64	1247.21
373.85	1288.17
374.06	1277.93
374.26	1259.50
374.47	1310.70
374.68	1267.69
374.89	1265.64
375.10	1288.17
375.31	1288.17
375.52	1204.21
375.73	1282.03
375.94	1257.45
376.15	1277.93
376.36	1243.12
376.57	1239.02
376.78	1298.41
376.99	1222.64
377.20	1306.60
377.40	1271.79
377.61	1296.36
377.82	1269.74
378.03	1310.70
378.24	1222.64
378.45	1230.83
378.66	1181.68
378.87	1247.21
379.08	1234.93
379.29	1304.56
379.50	1298.41
379.71	1214.45
379.91	1239.02
380.12	1253.36
380.33	1228.78
380.54	1306.60
380.75	1318.89
380.96	1249.26
381.17	1216.49
381.38	1277.93
381.59	1253.36
381.80	1310.70
382.00	1181.68
382.21	1251.31
382.42	1286.12
382.63	1226.73
382.84	1236.97
383.05	1353.71
383.26	1271.79
383.47	1294.32
383.68	1232.88
383.88	1304.56
384.09	1292.27
384.30	1290.22
384.51	1269.74
384.72	1212.40
384.93	1271.79
385.14	1251.31
385.35	1271.79
385.55	1273.84
385.76	1282.03
385.97	1187.82
386.18	1304.56
386.39	1271.79
386.60	1224.69
386.81	1355.76
387.02	1296.36
387.22	1345.52
387.43	1292.27
387.64	1255.40
387.85	1239.02
388.06	1267.69
388.27	1290.22
388.48	1187.82
388.68	1286.12
388.89	1306.60
389.10	1284.08
389.31	1265.64
389.52	1292.27
389.73	1275.88
389.93	1294.32
390.14	1265.64
390.35	1261.55
390.56	1234.93
390.77	1282.03
390.98	1302.51
391.18	1234.93
391.39	1253.36
391.60	1300.46
391.81	1343.47
392.02	1267.69
392.23	1232.88
392.43	1298.41
392.64	1261.55
392.85	1271.79
393.06	1263.60
393.27	1325.04
393.47	1241.07
393.68	1314.80
393.89	1269.74
394.10	1290.22
394.31	1290.22
394.52	1218.54
394.72	1331.18
394.93	1255.40
395.14	1273.84
395.35	1243.12
395.56	1261.55
395.76	1263.60
395.97	1267.69
396.18	1282.03
396.39	1286.12
396.60	1339.37
396.80	1255.40
397.01	1353.71
397.22	1298.41
397.43	1286.12
397.64	1210.35
397.84	1308.65
398.05	1271.79
398.26	1347.56
398.47	1327.08
398.67	1273.84
398.88	1263.60
399.09	1259.50
399.30	1243.12
399.51	1329.13
399.71	1273.84
399.92	1294.32
400.13	1255.40
400.34	1251.31
400.54	1232.88
400.75	1331.18
400.96	1218.54
401.17	1314.80
401.37	1306.60
401.58	1259.50
401.79	1226.73
402.00	1228.78
402.21	1273.84
402.41	1232.88
402.62	1230.83
402.83	1216.49
403.04	1288.17
403.24	1357.80
403.45	1298.41
403.66	1337.32
403.87	1290.22
404.07	1259.50
404.28	1253.36
404.49	1206.25
404.70	1271.79
404.90	1269.74
405.11	1222.64
405.32	1236.97
405.52	1257.45
405.73	1306.60
405.94	1228.78
406.15	1298.41
406.35	1296.36
406.56	1361.90
406.77	1243.12
406.98	1216.49
407.18	1265.64
407.39	1302.51
407.60	1282.03
407.80	1275.88
408.01	1329.13
408.22	1318.89
408.43	1294.32
408.63	1265.64
408.84	1251.31
409.05	1251.31
409.25	1255.40
409.46	1210.35
409.67	1228.78
409.88	1322.99
410.08	1304.56
410.29	1320.94
410.50	1259.50
410.70	1288.17
410.91	1228.78
411.12	1249.26
411.32	1222.64
411.53	1212.40
411.74	1245.16
411.95	1282.03
412.15	1214.45
412.36	1312.75
412.57	1263.60
412.77	1245.16
412.98	1333.23
413.19	1187.82
413.39	1212.40
413.60	1269.74
413.81	1304.56
414.01	1316.84
414.22	1296.36
414.43	1261.55
414.63	1239.02
414.84	1310.70
415.05	1263.60
415.25	1214.45
415.46	1251.31
415.67	1302.51
415.87	1243.12
416.08	1247.21
416.29	1277.93
416.49	1263.60
416.70	1220.59
416.91	1286.12
417.11	1206.25
417.32	1275.88
417.53	1306.60
417.73	1232.88
417.94	1298.41
418.15	1284.08
418.35	1277.93
418.56	1284.08
418.77	1290.22
418.97	1259.50
419.18	1257.45
419.38	1310.70
419.59	1277.93
419.80	1284.08
420.00	1298.41
420.21	1255.40
420.42	1257.45
420.62	1224.69
420.83	1314.80
421.04	1306.60
421.24	1290.22
421.45	1288.17
421.65	1234.93
421.86	1308.65
422.07	1269.74
422.27	1263.60
422.48	1269.74
422.69	1337.32
422.89	1288.17
423.10	1312.75
423.30	1198.06
423.51	1271.79
423.72	1271.79
423.92	1202.16
424.13	1253.36
424.33	1294.32
424.54	1226.73
424.75	1269.74
424.95	1247.21
425.16	1282.03
425.36	1271.79
425.57	1230.83
425.78	1220.59
425.98	1257.45
426.19	1216.49
426.39	1259.50
426.60	1265.64
426.81	1247.21
427.01	1298.41
427.22	1265.64
427.42	1310.70
427.63	1263.60
427.83	1310.70
428.04	1302.51
428.25	1232.88
428.45	1284.08
428.66	1277.93
428.86	1255.40
429.07	1226.73
429.28	1210.35
429.48	1247.21
429.69	1359.85
429.89	1271.79
430.10	1273.84
430.30	1318.89
430.51	1294.32
430.71	1259.50
430.92	1210.35
431.13	1279.98
431.33	1265.64
431.54	1245.16
431.74	1314.80
431.95	1226.73
432.15	1236.97
432.36	1304.56
432.56	1282.03
432.77	1284.08
432.98	1267.69
433.18	1273.84
433.39	1255.40
433.59	1228.78
433.80	1212.40
434.00	1337.32
434.21	1187.82
434.41	1327.08
434.62	1265.64
434.82	1241.07
435.03	1288.17
435.23	1261.55
435.44	1269.74
435.64	1277.93
435.85	1202.16
436.06	1257.45
436.26	1312.75
436.47	1345.52
436.67	1337.32
436.88	1298.41
437.08	1232.88
437.29	1284.08
437.49	1271.79
437.70	1271.79
437.90	1255.40
438.11	1310.70
438.31	1249.26
438.52	1273.84
438.72	1251.31
438.93	1243.12
439.13	1271.79
439.34	1376.24
439.54	1261.55
439.75	1275.88
439.95	1255.40
440.16	1181.68
440.36	1249.26
440.57	1310.70
440.77	1265.64
440.98	1232.88
441.18	1273.84
441.39	1214.45
441.59	1220.59
441.80	1259.50
442.00	1294.32
442.21	1337.32
442.41	1279.98
442.62	1269.74
442.82	1343.47
443.02	1183.73
443.23	1273.84
443.43	1255.40
443.64	1269.74
443.84	1261.55
444.05	1263.60
444.25	1259.50
444.46	1294.32
444.66	1226.73
444.87	1261.55
445.07	1286.12
445.28	1265.64
445.48	1345.52
445.69	1271.79
445.89	1325.04
446.09	1286.12
446.30	1232.88
446.50	1282.03
446.71	1185.77
446.91	1245.16
447.12	1320.94
447.32	1277.93
447.53	1255.40
447.73	1320.94
447.93	1259.50
448.14	1290.22
448.34	1259.50
448.55	1298.41
448.75	1284.08
448.96	1271.79
449.16	1236.97
449.36	1245.16
449.57	1263.60
449.77	1265.64
449.98	1259.50
450.18	1282.03
450.39	1306.60
450.59	1189.87
450.79	1265.64
451.00	1255.40
451.20	1257.45
451.41	1298.41
451.61	1261.55
451.81	1271.79
452.02	1329.13
452.22	1214.45
452.43	1355.76
452.63	1277.93
452.84	1288.17
453.04	1226.73
453.24	1232.88
453.45	1298.41
453.65	1271.79
453.86	1247.21
454.06	1224.69
454.26	1314.80
454.47	1232.88
454.67	1284.08
454.87	1245.16
455.08	1325.04
455.28	1314.80
455.49	1261.55
455.69	1300.46
455.89	1259.50
456.10	1292.27
456.30	1331.18
456.51	1308.65
456.71	1288.17
456.91	1327.08
457.12	1273.84
457.32	1234.93
457.52	1275.88
457.73	1259.50
457.93	1282.03
458.14	1312.75
458.34	1306.60
458.54	1279.98
458.75	1306.60
458.95	1343.47
459.15	1306.60
459.36	1267.69
459.56	1277.93
459.76	1294.32
459.97	1290.22
460.17	1216.49
460.37	1288.17
460.58	1253.36
460.78	1282.03
460.99	1304.56
461.19	1265.64
461.39	1261.55
461.60	1267.69
461.80	1183.73
462.00	1265.64
462.21	1259.50
462.41	1339.37
462.61	1294.32
462.82	1302.51
463.02	1310.70
463.22	1339.37
463.43	1294.32
463.63	1320.94
463.83	1320.94
464.04	1236.97
464.24	1261.55
464.44	1257.45
464.64	1198.06
464.85	1236.97
465.05	1310.70
465.25	1325.04
465.46	1241.07
465.66	1304.56
465.86	1279.98
466.07	1259.50
466.27	1241.07
466.47	1279.98
466.68	1294.32
466.88	1361.90
467.08	1273.84
467.29	1271.79
467.49	1247.21
467.69	1265.64
467.89	1273.84
468.10	1257.45
468.30	1277.93
468.50	1318.89
468.71	1353.71
468.91	1249.26
469.11	1216.49
469.31	1220.59
469.52	1310.70
469.72	1308.65
469.92	1310.70
470.13	1273.84
470.33	1273.84
470.53	1320.94
470.73	1253.36
470.94	1284.08
471.14	1267.69
471.34	1288.17
471.54	1257.45
471.75	1222.64
471.95	1322.99
472.15	1210.35
472.36	1298.41
472.56	1265.64
472.76	1300.46
472.96	1273.84
473.17	1290.22
473.37	1310.70
473.57	1228.78
473.77	1249.26
473.98	1265.64
474.18	1282.03
474.38	1269.74
474.58	1249.26
474.79	1322.99
474.99	1230.83
475.19	1261.55
475.39	1271.79
475.60	1255.40
475.80	1304.56
476.00	1259.50
476.20	1279.98
476.41	1226.73
476.61	1275.88
476.81	1261.55
477.01	1273.84
477.21	1202.16
477.42	1300.46
477.62	1333.23
477.82	1267.69
478.02	1300.46
478.23	1288.17
478.43	1259.50
478.63	1320.94
478.83	1224.69
479.03	1306.60
479.24	1267.69
479.44	1261.55
479.64	1269.74
479.84	1263.60
480.04	1275.88
480.25	1230.83
480.45	1292.27
480.65	1288.17
480.85	1277.93
481.06	1286.12
481.26	1269.74
481.46	1273.84
481.66	1212.40
481.86	1218.54
482.06	1290.22
482.27	1325.04
482.47	1212.40
482.67	1232.88
482.87	1249.26
483.07	1306.60
483.28	1212.40
483.48	1253.36
483.68	1257.45
483.88	1292.27
484.08	1273.84
484.29	1288.17
484.49	1284.08
484.69	1290.22
484.89	1230.83
485.09	1296.36
485.29	1341.42
485.50	1269.74
485.70	1230.83
485.90	1329.13
486.10	1306.60
486.30	1208.30
486.50	1355.76
486.71	1351.66
486.91	1261.55
487.11	1304.56
487.31	1308.65
487.51	1263.60
487.71	1288.17
487.91	1265.64
488.12	1241.07
488.32	1318.89
488.52	1241.07
488.72	1306.60
488.92	1230.83
489.12	1208.30
489.32	1282.03
489.53	1198.06
489.73	1220.59
489.93	1353.71
490.13	1292.27
490.33	1208.30
490.53	1249.26
490.73	1265.64
490.94	1331.18
491.14	1290.22
491.34	1286.12
491.54	1374.19
491.74	1216.49
491.94	1292.27
492.14	1282.03
492.34	1224.69
492.54	1224.69
492.75	1294.32
492.95	1224.69
493.15	1224.69
493.35	1220.59
493.55	1288.17
493.75	1337.32
493.95	1288.17
494.15	1275.88
494.35	1245.16
494.56	1173.49
494.76	1286.12
494.96	1296.36
495.16	1331.18
495.36	1249.26
495.56	1249.26
495.76	1263.60
495.96	1259.50
496.16	1345.52
496.36	1290.22
496.56	1247.21
496.77	1294.32
496.97	1236.97
497.17	1304.56
497.37	1210.35
497.57	1230.83
497.77	1294.32
497.97	1308.65
498.17	1216.49
498.37	1314.80
498.57	1298.41
498.77	1257.45
498.97	1273.84
499.17	1310.70
499.38	1337.32
499.58	1296.36
499.78	1292.27
499.98	1279.98
500.18	1296.36
500.38	1304.56
500.58	1290.22
500.78	1243.12
500.98	1288.17
501.18	1279.98
501.38	1286.12
501.58	1277.93
501.78	1261.55
501.98	1253.36
502.18	1290.22
502.38	1267.69
502.58	1279.98
502.78	1255.40
502.98	1343.47
503.18	1302.51
503.38	1343.47
503.59	1255.40
503.79	1230.83
503.99	1257.45
504.19	1247.21
504.39	1263.60
504.59	1269.74
504.79	1353.71
504.99	1294.32
505.19	1314.80
505.39	1253.36
505.59	1263.60
505.79	1286.12
505.99	1228.78
506.19	1275.88
506.39	1157.10
506.59	1263.60
506.79	1214.45
506.99	1277.93
507.19	1232.88
507.39	1296.36
507.59	1316.84
507.79	1167.34
507.99	1259.50
508.19	1294.32
508.39	1243.12
508.59	1257.45
508.79	1255.40
508.99	1263.60
509.19	1337.32
509.39	1302.51
509.59	1282.03
509.79	1257.45
509.99	1249.26
510.19	1310.70
510.39	1261.55
510.59	1284.08
510.79	1253.36
510.99	1282.03
511.19	1288.17
511.39	1277.93
511.59	1279.98
511.79	1271.79
511.99	1320.94
512.19	1310.70
512.38	1282.03
512.58	1298.41
512.78	1216.49
512.98	1314.80
513.18	1308.65
513.38	1294.32
513.58	1273.84
513.78	1257.45
513.98	1257.45
514.18	1271.79
514.38	1279.98
514.58	1241.07
514.78	1384.43
514.98	1329.13
515.18	1245.16
515.38	1249.26
515.58	1279.98
515.78	1279.98
515.98	1390.57
516.18	1320.94
516.38	1284.08
516.57	1316.84
516.77	1239.02
516.97	1310.70
517.17	1271.79
517.37	1263.60
517.57	1333.23
517.77	1294.32
517.97	1267.69
518.17	1282.03
518.37	1325.04
518.57	1279.98
518.77	1253.36
518.97	1279.98
519.16	1284.08
519.36	1314.80
519.56	1302.51
519.76	1273.84
519.96	1308.65
520.16	1228.78
520.36	1292.27
520.56	1245.16
520.76	1277.93
520.96	1239.02
521.16	1271.79
521.35	1202.16
521.55	1316.84
521.75	1282.03
521.95	1273.84
522.15	1243.12
522.35	1273.84
522.55	1239.02
522.75	1224.69
522.95	1396.71
523.14	1206.25
523.34	1306.60
523.54	1284.08
523.74	1288.17
523.94	1265.64
524.14	1265.64
524.34	1279.98
524.54	1286.12
524.73	1245.16
524.93	1259.50
525.13	1298.41
525.33	1294.32
525.53	1292.27
525.73	1247.21
525.93	1327.08
526.13	1290.22
526.32	1318.89
526.52	1267.69
526.72	1314.80
526.92	1292.27
527.12	1290.22
527.32	1327.08
527.52	1306.60
527.71	1325.04
527.91	1200.11
528.11	1275.88
528.31	1255.40
528.51	1279.98
528.71	1263.60
528.90	1191.92
529.10	1304.56
529.30	1318.89
529.50	1339.37
529.70	1253.36
529.90	1320.94
530.09	1347.56
530.29	1279.98
530.49	1312.75
530.69	1263.60
530.89	1337.32
531.09	1261.55
531.28	1322.99
531.48	1284.08
531.68	1234.93
531.88	1302.51
532.08	1257.45
532.28	1236.97
532.47	1286.12
532.67	1304.56
532.87	1234.93
533.07	1277.93
533.27	1302.51
533.46	1290.22
533.66	1245.16
533.86	1279.98
534.06	1294.32
534.26	1241.07
534.45	1263.60
534.65	1296.36
534.85	1318.89
535.05	1306.60
535.25	1312.75
535.44	1267.69
535.64	1308.65
535.84	1331.18
536.04	1253.36
536.24	1243.12
536.43	1329.13
536.63	1351.66
536.83	1363.95
537.03	1193.97
537.22	1230.83
537.42	1265.64
537.62	1304.56
537.82	1292.27
538.02	1239.02
538.21	1275.88
538.41	1390.57
538.61	1251.31
538.81	1208.30
539.00	1320.94
539.20	1259.50
539.40	1325.04
539.60	1269.74
539.79	1290.22
539.99	1249.26
540.19	1279.98
540.39	1286.12
540.58	1259.50
540.78	1308.65
540.98	1314.80
541.18	1269.74
541.37	1372.14
541.57	1243.12
541.77	1304.56
541.97	1255.40
542.16	1347.56
542.36	1249.26
542.56	1277.93
542.76	1327.08
542.95	1226.73
543.15	1245.16
543.35	1329.13
543.54	1271.79
543.74	1232.88
543.94	1304.56
544.14	1304.56
544.33	1251.31
544.53	1241.07
544.73	1351.66
544.93	1316.84
545.12	1263.60
545.32	1320.94
545.52	1220.59
545.71	1282.03
545.91	1284.08
546.11	1310.70
546.30	1331.18
546.50	1341.42
546.70	1277.93
546.90	1247.21
547.09	1306.60
547.29	1220.59
547.49	1267.69
547.68	1288.17
547.88	1239.02
548.08	1298.41
548.27	1318.89
548.47	1308.65
548.67	1269.74
548.87	1341.42
549.06	1214.45
549.26	1296.36
549.46	1263.60
549.65	1296.36
549.85	1288.17
550.05	1290.22
550.24	1282.03
550.44	1267.69
550.64	1294.32
550.83	1241.07
551.03	1304.56
551.23	1243.12
551.42	1290.22
551.62	1296.36
551.82	1214.45
552.01	1183.73
552.21	1290.22
552.41	1216.49
552.60	1294.32
552.80	1296.36
553.00	1298.41
553.19	1318.89
553.39	1335.28
553.59	1345.52
553.78	1273.84
553.98	1288.17
554.17	1257.45
554.37	1234.93
554.57	1294.32
554.76	1267.69
554.96	1271.79
555.16	1292.27
555.35	1226.73
555.55	1282.03
555.75	1271.79
555.94	1265.64
556.14	1306.60
556.33	1286.12
556.53	1177.58
556.73	1310.70
556.92	1263.60
557.12	1277.93
557.32	1198.06
557.51	1269.74
557.71	1222.64
557.90	1259.50
558.10	1245.16
558.30	1316.84
558.49	1261.55
558.69	1265.64
558.88	1306.60
559.08	1366.00
559.28	1277.93
559.47	1279.98
559.67	1275.88
559.86	1290.22
560.06	1357.80
560.26	1329.13
560.45	1265.64
560.65	1288.17
560.84	1275.88
561.04	1265.64
561.24	1282.03
561.43	1363.95
561.63	1357.80
561.82	1286.12
562.02	1296.36
562.22	1245.16
562.41	1241.07
562.61	1314.80
562.80	1253.36
563.00	1265.64
563.19	1296.36
563.39	1310.70
563.59	1300.46
563.78	1241.07
563.98	1239.02
564.17	1249.26
564.37	1325.04
564.56	1286.12
564.76	1308.65
564.96	1247.21
565.15	1288.17
565.35	1265.64
565.54	1310.70
565.74	1200.11
565.93	1363.95
566.13	1241.07
566.32	1236.97
566.52	1245.16
566.71	1312.75
566.91	1239.02
567.11	1308.65
567.30	1366.00
567.50	1298.41
567.69	1314.80
567.89	1279.98
568.08	1267.69
568.28	1275.88
568.47	1302.51
568.67	1273.84
568.86	1232.88
569.06	1296.36
569.25	1314.80
569.45	1241.07
569.64	1214.45
569.84	1202.16
570.04	1282.03
570.23	1226.73
570.43	1263.60
570.62	1288.17
570.82	1275.88
571.01	1208.30
571.21	1259.50
571.40	1312.75
571.60	1300.46
571.79	1234.93
571.99	1228.78
572.18	1302.51
572.38	1353.71
572.57	1298.41
572.77	1263.60
572.96	1294.32
573.16	1212.40
573.35	1236.97
573.55	1243.12
573.74	1257.45
573.94	1218.54
574.13	1230.83
574.33	1325.04
574.52	1253.36
574.71	1255.40
574.91	1226.73
575.10	1198.06
575.30	1349.61
575.49	1212.40
575.69	1331.18
575.88	1234.93
576.08	1302.51
576.27	1345.52
576.47	1212.40
576.66	1337.32
576.86	1331.18
577.05	1259.50
577.25	1320.94
577.44	1337.32
577.64	1196.01
577.83	1288.17
578.02	1329.13
578.22	1267.69
578.41	1322.99
578.61	1279.98
578.80	1325.04
579.00	1243.12
579.19	1316.84
579.39	1259.50
579.58	1249.26
579.77	1269.74
579.97	1265.64
580.16	1353.71
580.36	1327.08
580.55	1263.60
580.75	1275.88
580.94	1234.93
581.13	1343.47
581.33	1325.04
581.52	1306.60
581.72	1331.18
581.91	1316.84
582.11	1277.93
582.30	1296.36
582.49	1304.56
582.69	1310.70
582.88	1296.36
583.08	1230.83
583.27	1265.64
583.47	1267.69
583.66	1224.69
583.85	1263.60
584.05	1312.75
584.24	1263.60
584.44	1275.88
584.63	1316.84
584.82	1202.16
585.02	1286.12
585.21	1261.55
585.41	1300.46
585.60	1286.12
585.79	1292.27
585.99	1320.94
586.18	1296.36
586.37	1298.41
586.57	1269.74
586.76	1331.18
586.96	1277.93
587.15	1347.56
587.34	1325.04
587.54	1243.12
587.73	1269.74
587.93	1265.64
588.12	1396.71
588.31	1245.16
588.51	1257.45
588.70	1271.79
588.89	1267.69
589.09	1236.97
589.28	1236.97
589.47	1302.51
589.67	1286.12
589.86	1290.22
590.06	1275.88
590.25	1277.93
590.44	1273.84
590.64	1253.36
590.83	1335.28
591.02	1290.22
591.22	1279.98
591.41	1302.51
591.60	1224.69
591.80	1257.45
591.99	1318.89
592.18	1263.60
592.38	1378.28
592.57	1300.46
592.76	1298.41
592.96	1249.26
593.15	1339.37
593.34	1329.13
593.54	1277.93
593.73	1304.56
593.92	1243.12
594.12	1239.02
594.31	1286.12
594.50	1257.45
594.70	1331.18
594.89	1374.19
595.08	1245.16
595.28	1322.99
595.47	1247.21
595.66	1249.26
595.86	1247.21
596.05	1255.40
596.24	1263.60
596.43	1294.32
596.63	1282.03
596.82	1325.04
597.01	1243.12
597.21	1230.83
597.40	1265.64
597.59	1271.79
597.79	1310.70
597.98	1267.69
598.17	1267.69
598.36	1273.84
598.56	1279.98
598.75	1290.22
598.94	1210.35
599.14	1273.84
599.33	1286.12
599.52	1273.84
599.71	1288.17
599.91	1376.24
600.10	1277.93
600.29	1308.65
600.48	1206.25
600.68	1273.84
600.87	1292.27
601.06	1232.88
601.26	1302.51
601.45	1320.94
601.64	1193.97
601.83	1216.49
602.03	1222.64
602.22	1325.04
602.41	1239.02
602.60	1306.60
602.80	1226.73
602.99	1228.78
603.18	1255.40
603.37	1296.36
603.57	1282.03
603.76	1236.97
603.95	1263.60
604.14	1265.64
604.34	1236.97
604.53	1230.83
604.72	1279.98
604.91	1282.03
605.10	1257.45
605.30	1306.60
605.49	1273.84
605.68	1239.02
605.87	1314.80
606.07	1359.85
606.26	1243.12
606.45	1284.08
606.64	1245.16
606.84	1230.83
607.03	1265.64
607.22	1318.89
607.41	1263.60
607.60	1304.56
607.80	1261.55
607.99	1251.31
608.18	1261.55
608.37	1277.93
608.56	1288.17
608.76	1325.04
608.95	1273.84
609.14	1277.93
609.33	1296.36
609.52	1271.79
609.72	1312.75
609.91	1239.02
610.10	1372.14
610.29	1341.42
610.48	1189.87
610.68	1255.40
610.87	1161.20
611.06	1298.41
611.25	1296.36
611.44	1259.50
611.63	1224.69
611.83	1288.17
612.02	1331.18
612.21	1351.66
612.40	1247.21
612.59	1341.42
612.79	1316.84
612.98	1306.60
613.17	1224.69
613.36	1282.03
613.55	1306.60
613.74	1282.03
613.93	1331.18
614.13	1308.65
614.32	1302.51
614.51	1302.51
614.70	1279.98
614.89	1247.21
615.08	1286.12
615.28	1300.46
615.47	1300.46
615.66	1298.41
615.85	1247.21
616.04	1273.84
616.23	1243.12
616.42	1224.69
616.62	1265.64
616.81	1306.60
617.00	1222.64
617.19	1257.45
617.38	1255.40
617.57	1247.21
617.76	1304.56
617.95	1308.65
618.15	1232.88
618.34	1406.95
618.53	1320.94
618.72	1251.31
618.91	1232.88
619.10	1306.60
619.29	1304.56
619.48	1269.74
619.68	1292.27
619.87	1277.93
620.06	1310.70
620.25	1294.32
620.44	1251.31
620.63	1333.23
620.82	1329.13
621.01	1302.51
621.20	1292.27
621.39	1245.16
621.59	1318.89
621.78	1290.22
621.97	1251.31
622.16	1294.32
622.35	1134.57
622.54	1312.75
622.73	1355.76
622.92	1282.03
623.11	1269.74
623.30	1337.32
623.49	1228.78
623.68	1261.55
623.88	1308.65
624.07	1255.40
624.26	1245.16
624.45	1226.73
624.64	1265.64
624.83	1259.50
625.02	1337.32
625.21	1230.83
625.40	1286.12
625.59	1331.18
625.78	1226.73
625.97	1267.69
626.16	1253.36
626.35	1304.56
626.54	1249.26
626.74	1325.04
626.93	1257.45
627.12	1298.41
627.31	1335.28
627.50	1339.37
627.69	1269.74
627.88	1341.42
628.07	1322.99
628.26	1306.60
628.45	1341.42
628.64	1263.60
628.83	1224.69
629.02	1314.80
629.21	1318.89
629.40	1302.51
629.59	1304.56
629.78	1296.36
629.97	1294.32
630.16	1359.85
630.35	1284.08
630.54	1337.32
630.73	1265.64
630.92	1292.27
631.11	1331.18
631.30	1312.75
631.49	1359.85
631.68	1308.65
631.87	1497.07
632.06	1675.24
632.25	1515.50
632.44	1617.90
632.63	1769.44
632.82	2027.49
633.01	3821.51
633.20	3295.18
633.39	3020.75
633.58	2230.24
633.77	2529.24
633.96	3735.50
634.15	4321.21
634.34	3932.10
634.53	3000.27
634.72	2228.19
634.91	1789.92
635.10	1701.86
635.29	1542.12
635.48	1556.46
635.67	1548.26
635.86	1394.67
636.05	1417.19
636.24	1417.19
636.43	1368.04
636.62	1372.14
636.81	1296.36
637.00	1259.50
637.19	1282.03
637.38	1304.56
637.57	1302.51
637.76	1312.75
637.95	1331.18
638.14	1255.40
638.33	1279.98
638.52	1298.41
638.71	1304.56
638.89	1343.47
639.08	1284.08
639.27	1400.81
639.46	1275.88
639.65	1298.41
639.84	1341.42
640.03	1327.08
640.22	1253.36
640.41	1294.32
640.60	1257.45
640.79	1236.97
640.98	1302.51
641.17	1279.98
641.36	1322.99
641.55	1298.41
641.74	1247.21
641.92	1269.74
642.11	1208.30
642.30	1239.02
642.49	1286.12
642.68	1359.85
642.87	1296.36
643.06	1271.79
643.25	1224.69
643.44	1261.55
643.63	1269.74
643.82	1273.84
644.00	1374.19
644.19	1269.74
644.38	1308.65
644.57	1232.88
644.76	1316.84
644.95	1296.36
645.14	1290.22
645.33	1271.79
645.52	1308.65
645.71	1279.98
645.89	1245.16
646.08	1390.57
646.27	1275.88
646.46	1312.75
646.65	1273.84
646.84	1232.88
647.03	1249.26
647.22	1253.36
647.40	1277.93
647.59	1224.69
647.78	1255.40
647.97	1263.60
648.16	1251.31
648.35	1241.07
648.54	1300.46
648.73	1304.56
648.91	1314.80
649.10	1239.02
649.29	1263.60
649.48	1241.07
649.67	1275.88
649.86	1247.21
650.05	1251.31
650.23	1310.70
650.42	1251.31
650.61	1282.03
650.80	1273.84
650.99	1357.80
651.18	1224.69
651.36	1271.79
651.55	1310.70
651.74	1236.97
651.93	1298.41
652.12	1216.49
652.31	1220.59
652.49	1322.99
652.68	1298.41
652.87	1316.84
653.06	1263.60
653.25	1277.93
653.44	1255.40
653.62	1275.88
653.81	1292.27
654.00	1185.77
654.19	1286.12
654.38	1224.69
654.56	1241.07
654.75	1247.21
654.94	1339.37
655.13	1331.18
655.32	1333.23
655.51	1314.80
655.69	1304.56
655.88	1212.40
656.07	1232.88
656.26	1257.45
656.45	1241.07
656.63	1243.12
656.82	1275.88
657.01	1232.88
657.20	1249.26
657.38	1290.22
657.57	1310.70
657.76	1218.54
657.95	1273.84
658.14	1249.26
658.32	1253.36
658.51	1271.79
658.70	1302.51
658.89	1282.03
659.08	1253.36
659.26	1230.83
659.45	1306.60
659.64	1316.84
659.83	1175.53
660.01	1298.41
660.20	1322.99
660.39	1314.80
660.58	1255.40
660.76	1290.22
660.95	1228.78
661.14	1259.50
661.33	1257.45
661.51	1265.64
661.70	1247.21
661.89	1302.51
662.08	1310.70
662.26	1308.65
662.45	1277.93
662.64	1241.07
662.83	1181.68
663.01	1253.36
663.20	1230.83
663.39	1234.93
663.58	1247.21
663.76	1263.60
663.95	1245.16
664.14	1249.26
664.32	1245.16
664.51	1249.26
664.70	1249.26
664.89	1329.13
665.07	1310.70
665.26	1249.26
665.45	1273.84
665.64	1284.08
665.82	1167.34
666.01	1161.20
666.20	1232.88
666.38	1279.98
666.57	1290.22
666.76	1292.27
666.95	1271.79
667.13	1249.26
667.32	1318.89
667.51	1236.97
667.69	1269.74
667.88	1279.98
668.07	1341.42
668.25	1327.08
668.44	1251.31
668.63	1259.50
668.81	1318.89
669.00	1320.94
669.19	1265.64
669.38	1243.12
669.56	1322.99
669.75	1302.51
669.94	1286.12
670.12	1279.98
670.31	1286.12
670.50	1292.27
670.68	1241.07
670.87	1279.98
671.06	1247.21
671.24	1329.13
671.43	1259.50
671.62	1255.40
671.80	1290.22
671.99	1290.22
672.18	1327.08
672.36	1236.97
672.55	1322.99
672.74	1296.36
672.92	1243.12
673.11	1275.88
673.29	1337.32
673.48	1257.45
673.67	1300.46
673.85	1370.09
674.04	1173.49
674.23	1271.79
674.41	1234.93
674.60	1212.40
674.79	1286.12
674.97	1296.36
675.16	1251.31
675.34	1329.13
675.53	1214.45
675.72	1241.07
675.90	1269.74
676.09	1279.98
676.28	1234.93
676.46	1269.74
676.65	1306.60
676.83	1337.32
677.02	1292.27
677.21	1331.18
677.39	1261.55
677.58	1273.84
677.77	1329.13
677.95	1302.51
678.14	1320.94
678.32	1247.21
678.51	1230.83
678.70	1253.36
678.88	1247.21
679.07	1193.97
679.25	1173.49
679.44	1290.22
679.63	1187.82
679.81	1339.37
680.00	1245.16
680.18	1300.46
680.37	1290.22
680.55	1292.27
680.74	1245.16
680.93	1284.08
681.11	1214.45
681.30	1257.45
681.48	1224.69
681.67	1232.88
681.85	1339.37
682.04	1220.59
682.23	1269.74
682.41	1224.69
682.60	1273.84
682.78	1282.03
682.97	1222.64
683.15	1322.99
683.34	1310.70
683.53	1282.03
683.71	1327.08
683.90	1220.59
684.08	1239.02
684.27	1179.63
684.45	1249.26
684.64	1222.64
684.82	1282.03
685.01	1206.25
685.19	1245.16
685.38	1216.49
685.57	1318.89
685.75	1224.69
685.94	1257.45
686.12	1224.69
686.31	1302.51
686.49	1245.16
686.68	1277.93
686.86	1335.28
687.05	1277.93
687.23	1304.56
687.42	1292.27
687.60	1290.22
687.79	1372.14
687.97	1259.50
688.16	1253.36
688.34	1269.74
688.53	1275.88
688.71	1359.85
688.90	1224.69
689.08	1282.03
689.27	1259.50
689.45	1265.64
689.64	1224.69
689.82	1279.98
690.01	1253.36
690.19	1243.12
690.38	1234.93
690.56	1304.56
690.75	1230.83
690.93	1300.46
691.12	1296.36
691.30	1220.59
691.49	1259.50
691.67	1249.26
691.86	1261.55
692.04	1234.93
692.23	1257.45
692.41	1337.32
692.60	1345.52
692.78	1249.26
692.97	1335.28
693.15	1271.79
693.34	1277.93
693.52	1236.97
693.71	1228.78
693.89	1275.88
694.08	1325.04
694.26	1290.22
694.44	1361.90
694.63	1298.41
694.81	1255.40
695.00	1290.22
695.18	1288.17
695.37	1335.28
695.55	1282.03
695.74	1306.60
695.92	1366.00
696.10	1214.45
696.29	1312.75
696.47	1239.02
696.66	1349.61
696.84	1308.65
697.03	1284.08
697.21	1271.79
697.40	1310.70
697.58	1368.04
697.76	1212.40
697.95	1206.25
698.13	1267.69
698.32	1253.36
698.50	1249.26
698.68	1304.56
698.87	1269.74
699.05	1275.88
699.24	1243.12
699.42	1279.98
699.61	1300.46
699.79	1279.98
699.97	1226.73
700.16	1286.12
700.34	1228.78
700.53	1220.59
700.71	1296.36
700.89	1306.60
701.08	1247.21
701.26	1239.02
701.45	1265.64
701.63	1318.89
701.81	1304.56
702.00	1263.60
702.18	1331.18
702.37	1257.45
702.55	1247.21
702.73	1224.69
702.92	1253.36
703.10	1179.63
703.28	1269.74
703.47	1196.01
703.65	1206.25
703.84	1271.79
704.02	1243.12
704.20	1228.78
704.39	1277.93
704.57	1247.21
704.75	1314.80
704.94	1275.88
705.12	1259.50
705.30	1331.18
705.49	1298.41
705.67	1284.08
705.86	1267.69
706.04	1286.12
706.22	1298.41
706.41	1183.73
706.59	1312.75
706.77	1216.49
706.96	1265.64
707.14	1261.55
707.32	1267.69
707.51	1277.93
707.69	1241.07
707.87	1292.27
708.06	1320.94
708.24	1288.17
708.42	1282.03
708.61	1296.36
708.79	1179.63
708.97	1279.98
709.16	1298.41
709.34	1241.07
709.52	1267.69
709.71	1335.28
709.89	1325.04
710.07	1322.99
710.26	1277.93
710.44	1212.40
710.62	1218.54
710.80	1236.97
710.99	1302.51
711.17	1292.27
711.35	1263.60
711.54	1306.60
711.72	1310.70
711.90	1284.08
712.09	1249.26
712.27	1198.06
712.45	1312.75
712.63	1302.51
712.82	1294.32
713.00	1282.03
713.18	1304.56
713.37	1251.31
713.55	1212.40
713.73	1292.27
713.91	1292.27
714.10	1228.78
714.28	1212.40
714.46	1322.99
714.65	1269.74
714.83	1208.30
715.01	1306.60
715.19	1234.93
715.38	1316.84
715.56	1329.13
715.74	1232.88
715.92	1253.36
716.11	1308.65
716.29	1320.94
716.47	1249.26
716.65	1261.55
716.84	1239.02
717.02	1300.46
717.20	1337.32
717.38	1314.80
717.57	1255.40
717.75	1308.65
717.93	1247.21
718.11	1302.51
718.30	1173.49
718.48	1249.26
718.66	1193.97
718.84	1378.28
719.03	1191.92
719.21	1245.16
719.39	1267.69
719.57	1279.98
719.75	1329.13
719.94	1279.98
720.12	1349.61
720.30	1337.32
720.48	1310.70
720.67	1273.84
720.85	1261.55
721.03	1247.21
721.21	1269.74
721.39	1255.40
721.58	1282.03
721.76	1279.98
721.94	1243.12
722.12	1292.27
722.30	1245.16
722.49	1247.21
722.67	1228.78
722.85	1232.88
723.03	1249.26
723.21	1228.78
723.40	1290.22
723.58	1181.68
723.76	1245.16
723.94	1286.12
724.12	1261.55
724.30	1255.40
724.49	1185.77
724.67	1312.75
724.85	1259.50
725.03	1191.92
725.21	1191.92
725.40	1294.32
725.58	1269.74
725.76	1226.73
725.94	1271.79
726.12	1249.26
726.30	1163.25
726.49	1275.88
726.67	1273.84
726.85	1269.74
727.03	1380.33
727.21	1226.73
727.39	1267.69
727.57	1198.06
727.76	1341.42
727.94	1265.64
728.12	1290.22
728.30	1282.03
728.48	1265.64
728.66	1269.74
728.84	1277.93
729.03	1253.36
729.21	1347.56
729.39	1275.88
729.57	1191.92
729.75	1282.03
729.93	1212.40
730.11	1226.73
730.30	1374.19
730.48	1279.98
730.66	1222.64
730.84	1316.84
731.02	1288.17
731.20	1275.88
731.38	1320.94
731.56	1304.56
731.74	1220.59
731.93	1314.80
732.11	1255.40
732.29	1239.02
732.47	1361.90
732.65	1329.13
732.83	1222.64
733.01	1322.99
733.19	1296.36
733.37	1325.04
733.56	1261.55
733.74	1210.35
733.92	1255.40
734.10	1198.06
734.28	1296.36
734.46	1331.18
734.64	1220.59
734.82	1269.74
735.00	1224.69
735.18	1247.21
735.36	1243.12
735.54	1292.27
735.73	1273.84
735.91	1259.50
736.09	1245.16
736.27	1245.16
736.45	1247.21
736.63	1249.26
736.81	1265.64
736.99	1265.64
737.17	1226.73
737.35	1275.88
737.53	1282.03
737.71	1259.50
737.89	1327.08
738.07	1232.88
738.25	1267.69
738.43	1216.49
738.61	1277.93
738.80	1322.99
738.98	1282.03
739.16	1271.79
739.34	1232.88
739.52	1290.22
739.70	1222.64
739.88	1214.45
740.06	1214.45
740.24	1247.21
740.42	1263.60
740.60	1327.08
740.78	1263.60
740.96	1193.97
741.14	1245.16
741.32	1198.06
741.50	1290.22
741.68	1277.93
741.86	1265.64
742.04	1261.55
742.22	1257.45
742.40	1288.17
742.58	1175.53
742.76	1359.85
742.94	1234.93
743.12	1273.84
743.30	1228.78
743.48	1259.50
743.66	1210.35
743.84	1228.78
744.02	1253.36
744.20	1220.59
744.38	1316.84
744.56	1269.74
744.74	1345.52
744.92	1349.61
745.10	1251.31
745.28	1288.17
745.46	1232.88
745.64	1173.49
745.82	1249.26
746.00	1318.89
746.18	1230.83
746.36	1198.06
746.54	1212.40
746.72	1292.27
746.90	1329.13
747.08	1310.70
747.26	1282.03
747.44	1249.26
747.62	1322.99
747.80	1318.89
747.98	1265.64
748.15	1261.55
748.33	1312.75
748.51	1331.18
748.69	1288.17
748.87	1249.26
749.05	1230.83
749.23	1304.56
749.41	1282.03
749.59	1310.70
749.77	1294.32
749.95	1294.32
750.13	1253.36
750.31	1271.79
750.49	1267.69
750.67	1286.12
750.85	1275.88
751.03	1331.18
751.20	1310.70
751.38	1259.50
751.56	1230.83
751.74	1290.22
751.92	1259.50
752.10	1306.60
752.28	1279.98
752.46	1306.60
752.64	1288.17
752.82	1318.89
753.00	1333.23
753.18	1269.74
753.35	1292.27
753.53	1306.60
753.71	1380.33
753.89	1320.94
754.07	1267.69
754.25	1294.32
754.43	1275.88
754.61	1253.36
754.79	1277.93
754.97	1329.13
755.14	1298.41
755.32	1286.12
755.50	1294.32
755.68	1363.95
755.86	1257.45
756.04	1339.37
756.22	1255.40
756.40	1249.26
756.57	1318.89
756.75	1243.12
756.93	1284.08
757.11	1292.27
757.29	1277.93
757.47	1241.07
757.65	1245.16
757.82	1208.30
758.00	1177.58
758.18	1282.03
758.36	1294.32
758.54	1325.04
758.72	1200.11
758.90	1243.12
759.07	1265.64
759.25	1247.21
759.43	1249.26
759.61	1279.98
759.79	1312.75
759.97	1286.12
760.15	1228.78
760.32	1288.17
760.50	1261.55
760.68	1253.36
760.86	1271.79
761.04	1341.42
761.22	1224.69
761.39	1302.51
761.57	1247.21
761.75	1232.88
761.93	1302.51
762.11	1255.40
762.28	1329.13
762.46	1228.78
762.64	1284.08
762.82	1304.56
763.00	1333.23
763.18	1267.69
763.35	1282.03
763.53	1267.69
763.71	1265.64
763.89	1249.26
764.07	1325.04
764.24	1333.23
764.42	1224.69
764.60	1314.80
764.78	1265.64
764.96	1255.40
765.13	1271.79
765.31	1273.84
765.49	1214.45
765.67	1263.60
765.84	1290.22
766.02	1339.37
766.20	1220.59
766.38	1282.03
766.56	1290.22
766.73	1269.74
766.91	1224.69
767.09	1273.84
767.27	1290.22
767.44	1249.26
767.62	1304.56
767.80	1206.25
767.98	1318.89
768.15	1296.36
768.33	1255.40
768.51	1216.49
768.69	1232.88
768.87	1277.93
769.04	1302.51
769.22	1310.70
769.40	1286.12
769.58	1259.50
769.75	1298.41
769.93	1277.93
770.11	1314.80
770.28	1306.60
770.46	1181.68
770.64	1292.27
770.82	1304.56
770.99	1265.64
771.17	1206.25
771.35	1273.84
771.53	1249.26
771.70	1208.30
771.88	1196.01
772.06	1214.45
772.23	1318.89
772.41	1269.74
772.59	1290.22
772.77	1290.22
772.94	1253.36
773.12	1335.28
773.30	1208.30
773.47	1257.45
773.65	1249.26
773.83	1210.35
774.01	1234.93
774.18	1243.12
774.36	1269.74
774.54	1314.80
774.71	1222.64
774.89	1253.36
775.07	1206.25
775.24	1249.26
775.42	1275.88
775.60	1308.65
775.78	1312.75
775.95	1302.51
776.13	1288.17
776.31	1290.22
776.48	1271.79
776.66	1327.08
776.84	1296.36
777.01	1185.77
777.19	1279.98
777.37	1263.60
777.54	1288.17
777.72	1267.69
777.90	1251.31
778.07	1257.45
778.25	1296.36
778.43	1212.40
778.60	1236.97
778.78	1265.64
778.96	1239.02
779.13	1216.49
779.31	1312.75
779.49	1239.02
779.66	1298.41
779.84	1304.56
780.01	1222.64
780.19	1265.64
780.37	1306.60
780.54	1245.16
780.72	1294.32
780.90	1241.07
781.07	1249.26
781.25	1282.03
781.43	1271.79
781.60	1288.17
781.78	1300.46
781.95	1320.94
782.13	1273.84
782.31	1302.51
782.48	1177.58
782.66	1239.02
782.83	1220.59
783.01	1284.08
783.19	1241.07
783.36	1236.97
783.54	1271.79
783.72	1214.45
783.89	1288.17
784.07	1245.16
784.24	1288.17
784.42	1232.88
784.60	1239.02
784.77	1325.04
784.95	1232.88
785.12	1312.75
785.30	1275.88
785.47	1286.12
785.65	1292.27
785.83	1236.97
786.00	1247.21
786.18	1220.59
786.35	1288.17
786.53	1306.60
786.71	1271.79
786.88	1269.74
787.06	1193.97
787.23	1251.31
787.41	1222.64
787.58	1357.80
787.76	1267.69
787.94	1251.31
788.11	1263.60
788.29	1296.36
788.46	1296.36
788.64	1261.55
788.81	1191.92
788.99	1318.89
789.16	1228.78
789.34	1208.30
789.52	1232.88
789.69	1327.08
789.87	1259.50
790.04	1271.79
790.22	1292.27
790.39	1257.45
790.57	1265.64
790.74	1212.40
790.92	1216.49
791.09	1236.97
791.27	1196.01
791.44	1267.69
791.62	1275.88
791.79	1314.80
791.97	1296.36
792.15	1314.80
792.32	1261.55
792.50	1271.79
792.67	1288.17
792.85	1200.11
793.02	1300.46
793.20	1253.36
793.37	1275.88
793.55	1288.17
793.72	1224.69
793.90	1257.45
794.07	1265.64
794.25	1239.02
794.42	1318.89
794.60	1310.70
794.77	1333.23
794.95	1339.37
795.12	1232.88
795.30	1232.88
795.47	1236.97
795.65	1337.32
795.82	1218.54
796.00	1230.83
796.17	1318.89
796.34	1294.32
796.52	1261.55
796.69	1247.21
796.87	1284.08
797.04	1202.16
797.22	1263.60
797.39	1296.36
797.57	1241.07
797.74	1275.88
797.92	1265.64
798.09	1241.07
798.27	1234.93
798.44	1269.74
798.62	1259.50
798.79	1292.27
798.96	1243.12
799.14	1241.07
799.31	1370.09
799.49	1218.54
799.66	1269.74
799.84	1273.84
800.01	1320.94
800.19	1247.21
800.36	1259.50
800.53	1228.78
800.71	1245.16
800.88	1212.40
801.06	1404.91
801.23	1191.92
801.41	1241.07
801.58	1300.46
801.75	1310.70
801.93	1271.79
802.10	1210.35
802.28	1267.69
802.45	1298.41
802.63	1294.32
802.80	1251.31
802.97	1196.01
803.15	1279.98
803.32	1302.51
803.50	1249.26
803.67	1224.69
803.84	1294.32
804.02	1269.74
804.19	1234.93
804.37	1216.49
804.54	1275.88
804.71	1202.16
804.89	1265.64
805.06	1265.64
805.24	1226.73
805.41	1236.97
805.58	1267.69
805.76	1267.69
805.93	1241.07
806.10	1349.61
806.28	1279.98
806.45	1267.69
806.63	1261.55
806.80	1302.51
806.97	1236.97
807.15	1226.73
807.32	1279.98
807.49	1298.41
807.67	1312.75
807.84	1208.30
808.01	1267.69
808.19	1273.84
808.36	1265.64
808.54	1247.21
808.71	1310.70
808.88	1224.69
809.06	1284.08
809.23	1263.60
809.40	1236.97
809.58	1288.17
809.75	1198.06
809.92	1222.64
810.10	1216.49
810.27	1304.56
810.44	1320.94
810.62	1269.74
810.79	1282.03
810.96	1200.11
811.14	1212.40
811.31	1279.98
811.48	1200.11
811.66	1257.45
811.83	1226.73
812.00	1282.03
812.18	1279.98
812.35	1150.96
812.52	1169.39
812.69	1327.08
812.87	1222.64
813.04	1290.22
813.21	1208.30
813.39	1306.60
813.56	1261.55
813.73	1218.54
813.91	1310.70
814.08	1245.16
814.25	1245.16
814.42	1245.16
814.60	1216.49
814.77	1236.97
814.94	1196.01
815.12	1245.16
815.29	1284.08
815.46	1273.84
815.63	1292.27
815.81	1286.12
815.98	1282.03
816.15	1320.94
816.33	1253.36
816.50	1300.46
816.67	1236.97
816.84	1255.40
817.02	1259.50
817.19	1259.50
817.36	1255.40
817.53	1232.88
817.71	1210.35
817.88	1249.26
818.05	1296.36
818.22	1200.11
818.40	1273.84
818.57	1282.03
818.74	1273.84
818.91	1288.17
819.09	1226.73
819.26	1220.59
819.43	1265.64
819.60	1261.55
819.78	1294.32
819.95	1290.22
820.12	1261.55
820.29	1255.40
820.47	1261.55
820.64	1214.45
820.81	1107.95
820.98	1284.08
821.15	1286.12
821.33	1271.79
821.50	1279.98
821.67	1247.21
821.84	1222.64
822.02	1279.98
822.19	1228.78
822.36	1206.25
822.53	1320.94
822.70	1322.99
822.88	1255.40
823.05	1312.75
823.22	1306.60
823.39	1236.97
823.56	1282.03
823.74	1314.80
823.91	1329.13
824.08	1300.46
824.25	1314.80
824.42	1259.50
824.60	1312.75
824.77	1292.27
824.94	1183.73
825.11	1230.83
825.28	1224.69
825.45	1286.12
825.63	1300.46
825.80	1247.21
825.97	1286.12
826.14	1296.36
826.31	1261.55
826.48	1312.75
826.66	1294.32
826.83	1269.74
827.00	1267.69
827.17	1247.21
827.34	1277.93
827.51	1255.40
827.69	1179.63
827.86	1261.55
828.03	1275.88
828.20	1290.22
828.37	1259.50
828.54	1265.64
828.71	1322.99
828.89	1288.17
829.06	1261.55
829.23	1239.02
829.40	1302.51
829.57	1265.64
829.74	1271.79
829.91	1294.32
830.09	1253.36
830.26	1292.27
830.43	1210.35
830.60	1298.41
830.77	1257.45
830.94	1308.65
831.11	1253.36
831.28	1275.88
831.46	1267.69
831.63	1279.98
831.80	1265.64
831.97	1214.45
832.14	1261.55
832.31	1288.17
832.48	1257.45
832.65	1286.12
832.82	1343.47
832.99	1210.35
833.17	1345.52
833.34	1251.31
833.51	1275.88
833.68	1282.03
833.85	1316.84
834.02	1333.23
834.19	1290.22
834.36	1265.64
834.53	1232.88
834.70	1202.16
834.87	1306.60
835.04	1222.64
835.22	1243.12
835.39	1306.60
835.56	1279.98
835.73	1296.36
835.90	1284.08
836.07	1245.16
836.24	1310.70
836.41	1253.36
836.58	1300.46
836.75	1306.60
836.92	1292.27
837.09	1300.46
837.26	1271.79
837.43	1314.80
837.60	1277.93
837.77	1286.12
837.94	1224.69
838.12	1306.60
838.29	1163.25
838.46	1292.27
838.63	1261.55
838.80	1251.31
838.97	1275.88
839.14	1191.92
839.31	1325.04
839.48	1269.74
839.65	1241.07
839.82	1271.79
839.99	1210.35
840.16	1275.88
840.33	1294.32
840.50	1273.84
840.67	1279.98
840.84	1226.73
841.01	1312.75
841.18	1245.16
841.35	1265.64
841.52	1218.54
841.69	1316.84
841.86	1189.87
842.03	1218.54
842.20	1339.37
842.37	1271.79
842.54	1265.64
842.71	1308.65
842.88	1200.11
843.05	1316.84
843.22	1288.17
843.39	1267.69
843.56	1261.55
843.73	1228.78
843.90	1310.70
844.07	1269.74
844.24	1269.74
844.41	1228.78
844.58	1265.64
844.75	1210.35
844.92	1196.01
845.09	1236.97
845.26	1314.80
845.43	1290.22
845.60	1183.73
845.77	1263.60
845.94	1226.73
846.10	1331.18
846.27	1290.22
846.44	1267.69
846.61	1214.45
846.78	1331.18
846.95	1261.55
847.12	1306.60
847.29	1304.56
847.46	1230.83
847.63	1271.79
847.80	1263.60
847.97	1232.88
848.14	1241.07
848.31	1275.88
848.48	1230.83
848.65	1251.31
848.82	1234.93
848.98	1298.41
849.15	1212.40
849.32	1271.79
849.49	1273.84
849.66	1261.55
849.83	1314.80
850.00	1290.22
850.17	1271.79
850.34	1288.17
850.51	1284.08
850.68	1288.17
850.85	1284.08
851.01	1216.49
851.18	1290.22
851.35	1282.03
851.52	1314.80
851.69	1245.16
851.86	1243.12
852.03	1265.64
852.20	1261.55
852.37	1331.18
852.53	1218.54
852.70	1247.21
852.87	1185.77
853.04	1234.93
853.21	1234.93
853.38	1296.36
853.55	1275.88
853.72	1282.03
853.89	1273.84
854.05	1249.26
854.22	1300.46
854.39	1296.36
854.56	1282.03
854.73	1245.16
854.90	1243.12
855.07	1296.36
855.23	1284.08
855.40	1251.31
855.57	1224.69
855.74	1273.84
855.91	1277.93
856.08	1230.83
856.25	1257.45
856.41	1302.51
856.58	1204.21
856.75	1318.89
856.92	1220.59
857.09	1286.12
857.26	1261.55
857.42	1232.88
857.59	1322.99
857.76	1312.75
857.93	1267.69
858.10	1298.41
858.27	1126.38
858.43	1269.74
858.60	1222.64
858.77	1277.93
858.94	1263.60
859.11	1284.08
859.27	1224.69
859.44	1232.88
859.61	1357.80
859.78	1286.12
859.95	1255.40
860.12	1259.50
860.28	1257.45
860.45	1286.12
860.62	1284.08
860.79	1239.02
860.95	1257.45
861.12	1265.64
861.29	1284.08
861.46	1300.46
861.63	1286.12
861.79	1243.12
861.96	1261.55
862.13	1249.26
862.30	1247.21
862.47	1269.74
862.63	1224.69
862.80	1304.56
862.97	1333.23
863.14	1353.71
863.30	1300.46
863.47	1230.83
863.64	1275.88
863.81	1257.45
863.97	1249.26
864.14	1232.88
864.31	1314.80
864.48	1271.79
864.65	1245.16
864.81	1269.74
864.98	1220.59
865.15	1236.97
865.32	1286.12
865.48	1257.45
865.65	1345.52
865.82	1306.60
865.98	1316.84
866.15	1320.94
866.32	1236.97
866.49	1263.60
866.65	1306.60
866.82	1263.60
866.99	1277.93
867.16	1118.19
867.32	1183.73
867.49	1267.69
867.66	1327.08
867.83	1239.02
867.99	1359.85
868.16	1325.04
868.33	1277.93
868.49	1298.41
868.66	1265.64
868.83	1292.27
868.99	1271.79
869.16	1253.36
869.33	1251.31
869.50	1267.69
869.66	1245.16
869.83	1247.21
870.00	1286.12
870.16	1282.03
870.33	1253.36
870.50	1273.84
870.66	1304.56
870.83	1327.08
871.00	1210.35
871.17	1271.79
871.33	1261.55
871.50	1308.65
871.67	1241.07
871.83	1239.02
872.00	1208.30
872.17	1257.45
872.33	1355.76
872.50	1273.84
872.67	1236.97
872.83	1265.64
873.00	1249.26
873.17	1253.36
873.33	1298.41
873.50	1320.94
873.67	1163.25
873.83	1290.22
874.00	1245.16
874.16	1282.03
874.33	1308.65
874.50	1261.55
874.66	1220.59
874.83	1216.49
875.00	1302.51
875.16	1267.69
875.33	1251.31
875.50	1239.02
875.66	1253.36
875.83	1228.78
875.99	1288.17
876.16	1288.17
876.33	1234.93
876.49	1198.06
876.66	1269.74
876.83	1296.36
876.99	1290.22
877.16	1259.50
877.32	1232.88
877.49	1296.36
877.66	1232.88
877.82	1322.99
877.99	1265.64
878.15	1236.97
878.32	1290.22
878.49	1310.70
878.65	1157.10
878.82	1255.40
878.98	1288.17
879.15	1302.51
879.32	1259.50
879.48	1177.58
879.65	1218.54
879.81	1290.22
879.98	1261.55
880.15	1220.59
880.31	1247.21
880.48	1271.79
880.64	1234.93
880.81	1329.13
880.97	1308.65
881.14	1271.79
881.31	1304.56
881.47	1263.60
881.64	1259.50
881.80	1284.08
881.97	1210.35
882.13	1275.88
882.30	1261.55
882.47	1277.93
882.63	1183.73
882.80	1320.94
882.96	1333.23
883.13	1226.73
883.29	1208.30
883.46	1251.31
883.62	1261.55
883.79	1290.22
883.95	1220.59
884.12	1333.23
884.29	1279.98
884.45	1298.41
884.62	1265.64
884.78	1347.56
884.95	1263.60
885.11	1232.88
885.28	1259.50
885.44	1259.50
885.61	1277.93
885.77	1282.03
885.94	1263.60
886.10	1204.21
886.27	1208.30
886.43	1189.87
886.60	1222.64
886.76	1179.63
886.93	1273.84
887.09	1357.80
887.26	1273.84
887.42	1337.32
887.59	1265.64
887.75	1275.88
887.92	1294.32
888.08	1345.52
888.25	1282.03
888.41	1249.26
888.58	1288.17
888.74	1320.94
888.91	1261.55
>>>>>End Processed Spectral Data<<<<<
