SpectraSuite Data File
++++++++++++++++++++++++++++++++++++
Date: Sun Apr 03 19:55:16 CEST 2016
User: root
Dark Spectrum Present: No
Reference Spectrum Present: No
Number of Sampled Component Spectra: 1
Spectrometers: USB4C02835
Integration Time (usec): 10000 (USB4C02835)
Spectra Averaged: 1 (USB4C02835)
Boxcar Smoothing: 0 (USB4C02835)
Correct for Electrical Dark: No (USB4C02835)
Strobe/Lamp Enabled: No (USB4C02835)
Correct for Detector Non-linearity: No (USB4C02835)
Correct for Stray Light: No (USB4C02835)
Number of Pixels in Processed Spectrum: 3648
>>>>>Begin Processed Spectral Data<<<<<
177.47	1224.69
177.69	1224.69
177.91	1224.69
178.13	1337.32
178.36	1222.64
178.58	1230.83
178.80	1216.49
179.02	1228.78
179.24	1204.21
179.46	1288.17
179.68	1226.73
179.90	1247.21
180.13	1181.68
180.35	1234.93
180.57	1316.84
180.79	1271.79
181.01	1279.98
181.23	1306.60
181.45	1265.64
181.67	1230.83
181.90	1257.45
182.12	1290.22
182.34	1279.98
182.56	1320.94
182.78	1253.36
183.00	1359.85
183.22	1290.22
183.44	1298.41
183.66	1232.88
183.89	1292.27
184.11	1255.40
184.33	1275.88
184.55	1243.12
184.77	1294.32
184.99	1224.69
185.21	1196.01
185.43	1288.17
185.65	1327.08
185.87	1372.14
186.10	1304.56
186.32	1249.26
186.54	1361.90
186.76	1273.84
186.98	1241.07
187.20	1236.97
187.42	1265.64
187.64	1265.64
187.86	1210.35
188.08	1263.60
188.30	1312.75
188.52	1267.69
188.75	1249.26
188.97	1271.79
189.19	1216.49
189.41	1320.94
189.63	1226.73
189.85	1290.22
190.07	1253.36
190.29	1216.49
190.51	1322.99
190.73	1239.02
190.95	1216.49
191.17	1208.30
191.39	1204.21
191.61	1300.46
191.84	1277.93
192.06	1294.32
192.28	1316.84
192.50	1251.31
192.72	1249.26
192.94	1363.95
193.16	1249.26
193.38	1279.98
193.60	1279.98
193.82	1279.98
194.04	1271.79
194.26	1226.73
194.48	1327.08
194.70	1232.88
194.92	1298.41
195.14	1308.65
195.36	1275.88
195.58	1259.50
195.80	1241.07
196.02	1249.26
196.24	1284.08
196.46	1249.26
196.69	1331.18
196.91	1224.69
197.13	1183.73
197.35	1261.55
197.57	1271.79
197.79	1236.97
198.01	1241.07
198.23	1226.73
198.45	1351.66
198.67	1325.04
198.89	1320.94
199.11	1271.79
199.33	1273.84
199.55	1273.84
199.77	1300.46
199.99	1196.01
200.21	1269.74
200.43	1247.21
200.65	1267.69
200.87	1273.84
201.09	1282.03
201.31	1312.75
201.53	1253.36
201.75	1251.31
201.97	1243.12
202.19	1251.31
202.41	1296.36
202.63	1224.69
202.85	1306.60
203.07	1273.84
203.29	1284.08
203.51	1296.36
203.73	1245.16
203.95	1247.21
204.17	1304.56
204.39	1216.49
204.61	1167.34
204.83	1298.41
205.05	1179.63
205.27	1265.64
205.49	1261.55
205.71	1290.22
205.93	1236.97
206.15	1355.76
206.37	1279.98
206.59	1267.69
206.81	1320.94
207.03	1236.97
207.25	1247.21
207.47	1253.36
207.69	1302.51
207.91	1259.50
208.13	1290.22
208.34	1236.97
208.56	1286.12
208.78	1208.30
209.00	1290.22
209.22	1347.56
209.44	1296.36
209.66	1232.88
209.88	1259.50
210.10	1247.21
210.32	1265.64
210.54	1269.74
210.76	1284.08
210.98	1251.31
211.20	1269.74
211.42	1327.08
211.64	1271.79
211.86	1245.16
212.08	1294.32
212.30	1279.98
212.52	1234.93
212.74	1243.12
212.96	1273.84
213.17	1304.56
213.39	1263.60
213.61	1243.12
213.83	1212.40
214.05	1273.84
214.27	1290.22
214.49	1271.79
214.71	1204.21
214.93	1204.21
215.15	1226.73
215.37	1366.00
215.59	1302.51
215.81	1230.83
216.03	1279.98
216.24	1249.26
216.46	1304.56
216.68	1216.49
216.90	1245.16
217.12	1304.56
217.34	1214.45
217.56	1316.84
217.78	1277.93
218.00	1282.03
218.22	1290.22
218.44	1296.36
218.66	1239.02
218.87	1265.64
219.09	1220.59
219.31	1263.60
219.53	1253.36
219.75	1249.26
219.97	1220.59
220.19	1298.41
220.41	1271.79
220.63	1304.56
220.85	1257.45
221.06	1163.25
221.28	1222.64
221.50	1251.31
221.72	1284.08
221.94	1312.75
222.16	1247.21
222.38	1228.78
222.60	1308.65
222.82	1222.64
223.03	1308.65
223.25	1265.64
223.47	1224.69
223.69	1269.74
223.91	1249.26
224.13	1232.88
224.35	1226.73
224.57	1257.45
224.78	1337.32
225.00	1214.45
225.22	1257.45
225.44	1214.45
225.66	1259.50
225.88	1279.98
226.10	1261.55
226.32	1253.36
226.53	1304.56
226.75	1282.03
226.97	1279.98
227.19	1224.69
227.41	1300.46
227.63	1331.18
227.85	1216.49
228.06	1224.69
228.28	1275.88
228.50	1255.40
228.72	1239.02
228.94	1249.26
229.16	1200.11
229.37	1284.08
229.59	1351.66
229.81	1300.46
230.03	1304.56
230.25	1247.21
230.47	1273.84
230.69	1314.80
230.90	1265.64
231.12	1284.08
231.34	1267.69
231.56	1294.32
231.78	1255.40
232.00	1345.52
232.21	1241.07
232.43	1275.88
232.65	1247.21
232.87	1253.36
233.09	1306.60
233.30	1232.88
233.52	1282.03
233.74	1226.73
233.96	1271.79
234.18	1191.92
234.40	1247.21
234.61	1304.56
234.83	1224.69
235.05	1296.36
235.27	1322.99
235.49	1322.99
235.70	1296.36
235.92	1247.21
236.14	1251.31
236.36	1296.36
236.58	1271.79
236.79	1314.80
237.01	1241.07
237.23	1288.17
237.45	1335.28
237.67	1255.40
237.88	1329.13
238.10	1298.41
238.32	1204.21
238.54	1302.51
238.76	1232.88
238.97	1253.36
239.19	1355.76
239.41	1288.17
239.63	1302.51
239.85	1310.70
240.06	1339.37
240.28	1298.41
240.50	1265.64
240.72	1232.88
240.93	1314.80
241.15	1259.50
241.37	1277.93
241.59	1284.08
241.81	1224.69
242.02	1247.21
242.24	1288.17
242.46	1306.60
242.68	1304.56
242.89	1224.69
243.11	1232.88
243.33	1290.22
243.55	1255.40
243.76	1292.27
243.98	1265.64
244.20	1251.31
244.42	1320.94
244.64	1224.69
244.85	1234.93
245.07	1288.17
245.29	1269.74
245.51	1292.27
245.72	1314.80
245.94	1239.02
246.16	1216.49
246.38	1288.17
246.59	1306.60
246.81	1236.97
247.03	1290.22
247.24	1206.25
247.46	1251.31
247.68	1318.89
247.90	1206.25
248.11	1279.98
248.33	1290.22
248.55	1279.98
248.77	1216.49
248.98	1327.08
249.20	1341.42
249.42	1249.26
249.64	1204.21
249.85	1234.93
250.07	1187.82
250.29	1282.03
250.50	1275.88
250.72	1232.88
250.94	1251.31
251.16	1247.21
251.37	1288.17
251.59	1310.70
251.81	1255.40
252.02	1249.26
252.24	1298.41
252.46	1214.45
252.68	1187.82
252.89	1327.08
253.11	1214.45
253.33	1236.97
253.54	1284.08
253.76	1243.12
253.98	1277.93
254.20	1259.50
254.41	1255.40
254.63	1308.65
254.85	1282.03
255.06	1218.54
255.28	1296.36
255.50	1296.36
255.71	1355.76
255.93	1257.45
256.15	1372.14
256.36	1263.60
256.58	1216.49
256.80	1308.65
257.02	1329.13
257.23	1298.41
257.45	1255.40
257.67	1310.70
257.88	1304.56
258.10	1220.59
258.32	1308.65
258.53	1259.50
258.75	1239.02
258.97	1265.64
259.18	1284.08
259.40	1249.26
259.62	1271.79
259.83	1255.40
260.05	1230.83
260.27	1228.78
260.48	1253.36
260.70	1218.54
260.92	1187.82
261.13	1286.12
261.35	1253.36
261.57	1263.60
261.78	1247.21
262.00	1302.51
262.22	1232.88
262.43	1288.17
262.65	1271.79
262.86	1263.60
263.08	1277.93
263.30	1257.45
263.51	1279.98
263.73	1302.51
263.95	1239.02
264.16	1347.56
264.38	1257.45
264.60	1347.56
264.81	1284.08
265.03	1226.73
265.25	1294.32
265.46	1239.02
265.68	1304.56
265.89	1193.97
266.11	1314.80
266.33	1302.51
266.54	1263.60
266.76	1222.64
266.98	1284.08
267.19	1290.22
267.41	1224.69
267.62	1298.41
267.84	1232.88
268.06	1210.35
268.27	1261.55
268.49	1230.83
268.70	1218.54
268.92	1267.69
269.14	1232.88
269.35	1271.79
269.57	1228.78
269.79	1236.97
270.00	1263.60
270.22	1322.99
270.43	1271.79
270.65	1257.45
270.87	1282.03
271.08	1239.02
271.30	1275.88
271.51	1261.55
271.73	1290.22
271.95	1265.64
272.16	1181.68
272.38	1339.37
272.59	1294.32
272.81	1269.74
273.02	1249.26
273.24	1257.45
273.46	1333.23
273.67	1253.36
273.89	1341.42
274.10	1290.22
274.32	1325.04
274.54	1286.12
274.75	1265.64
274.97	1224.69
275.18	1202.16
275.40	1255.40
275.61	1308.65
275.83	1273.84
276.05	1224.69
276.26	1306.60
276.48	1247.21
276.69	1304.56
276.91	1226.73
277.12	1247.21
277.34	1232.88
277.55	1269.74
277.77	1271.79
277.99	1296.36
278.20	1314.80
278.42	1333.23
278.63	1318.89
278.85	1220.59
279.06	1230.83
279.28	1241.07
279.49	1318.89
279.71	1282.03
279.93	1345.52
280.14	1320.94
280.36	1245.16
280.57	1251.31
280.79	1255.40
281.00	1282.03
281.22	1304.56
281.43	1263.60
281.65	1284.08
281.86	1257.45
282.08	1312.75
282.29	1347.56
282.51	1290.22
282.73	1163.25
282.94	1257.45
283.16	1275.88
283.37	1308.65
283.59	1218.54
283.80	1284.08
284.02	1277.93
284.23	1257.45
284.45	1249.26
284.66	1316.84
284.88	1284.08
285.09	1228.78
285.31	1257.45
285.52	1259.50
285.74	1288.17
285.95	1261.55
286.17	1282.03
286.38	1234.93
286.60	1314.80
286.81	1261.55
287.03	1306.60
287.24	1208.30
287.46	1261.55
287.67	1275.88
287.89	1241.07
288.10	1181.68
288.32	1288.17
288.53	1316.84
288.75	1249.26
288.96	1253.36
289.18	1318.89
289.39	1384.43
289.61	1247.21
289.82	1265.64
290.04	1314.80
290.25	1243.12
290.47	1292.27
290.68	1232.88
290.90	1220.59
291.11	1302.51
291.33	1290.22
291.54	1261.55
291.76	1247.21
291.97	1239.02
292.18	1271.79
292.40	1282.03
292.61	1263.60
292.83	1257.45
293.04	1282.03
293.26	1296.36
293.47	1232.88
293.69	1251.31
293.90	1249.26
294.12	1202.16
294.33	1243.12
294.55	1333.23
294.76	1249.26
294.97	1265.64
295.19	1284.08
295.40	1306.60
295.62	1187.82
295.83	1241.07
296.05	1302.51
296.26	1253.36
296.48	1343.47
296.69	1253.36
296.90	1282.03
297.12	1286.12
297.33	1265.64
297.55	1286.12
297.76	1296.36
297.98	1277.93
298.19	1259.50
298.41	1228.78
298.62	1277.93
298.83	1251.31
299.05	1294.32
299.26	1189.87
299.48	1329.13
299.69	1228.78
299.90	1286.12
300.12	1374.19
300.33	1259.50
300.55	1286.12
300.76	1310.70
300.98	1241.07
301.19	1251.31
301.40	1279.98
301.62	1298.41
301.83	1251.31
302.05	1247.21
302.26	1234.93
302.47	1243.12
302.69	1257.45
302.90	1236.97
303.12	1302.51
303.33	1275.88
303.54	1282.03
303.76	1310.70
303.97	1294.32
304.19	1273.84
304.40	1263.60
304.61	1249.26
304.83	1261.55
305.04	1189.87
305.26	1234.93
305.47	1236.97
305.68	1282.03
305.90	1243.12
306.11	1259.50
306.33	1222.64
306.54	1232.88
306.75	1206.25
306.97	1282.03
307.18	1259.50
307.39	1306.60
307.61	1331.18
307.82	1265.64
308.04	1228.78
308.25	1290.22
308.46	1239.02
308.68	1259.50
308.89	1214.45
309.10	1261.55
309.32	1316.84
309.53	1232.88
309.74	1263.60
309.96	1298.41
310.17	1269.74
310.39	1257.45
310.60	1275.88
310.81	1245.16
311.03	1294.32
311.24	1228.78
311.45	1263.60
311.67	1216.49
311.88	1214.45
312.09	1245.16
312.31	1226.73
312.52	1294.32
312.73	1261.55
312.95	1204.21
313.16	1304.56
313.37	1304.56
313.59	1228.78
313.80	1259.50
314.01	1255.40
314.23	1288.17
314.44	1282.03
314.65	1277.93
314.87	1228.78
315.08	1234.93
315.29	1269.74
315.51	1267.69
315.72	1298.41
315.93	1271.79
316.15	1282.03
316.36	1216.49
316.57	1273.84
316.79	1306.60
317.00	1327.08
317.21	1292.27
317.43	1257.45
317.64	1265.64
317.85	1263.60
318.07	1249.26
318.28	1282.03
318.49	1271.79
318.70	1245.16
318.92	1279.98
319.13	1288.17
319.34	1249.26
319.56	1202.16
319.77	1347.56
319.98	1251.31
320.20	1318.89
320.41	1259.50
320.62	1271.79
320.83	1322.99
321.05	1304.56
321.26	1273.84
321.47	1273.84
321.69	1370.09
321.90	1290.22
322.11	1273.84
322.32	1302.51
322.54	1251.31
322.75	1284.08
322.96	1251.31
323.18	1359.85
323.39	1263.60
323.60	1171.44
323.81	1247.21
324.03	1191.92
324.24	1234.93
324.45	1282.03
324.66	1304.56
324.88	1224.69
325.09	1232.88
325.30	1249.26
325.52	1271.79
325.73	1224.69
325.94	1308.65
326.15	1284.08
326.37	1267.69
326.58	1271.79
326.79	1294.32
327.00	1232.88
327.22	1298.41
327.43	1236.97
327.64	1189.87
327.85	1286.12
328.07	1296.36
328.28	1288.17
328.49	1314.80
328.70	1271.79
328.92	1325.04
329.13	1241.07
329.34	1265.64
329.55	1234.93
329.76	1310.70
329.98	1296.36
330.19	1279.98
330.40	1212.40
330.61	1304.56
330.83	1271.79
331.04	1236.97
331.25	1198.06
331.46	1253.36
331.68	1241.07
331.89	1277.93
332.10	1294.32
332.31	1232.88
332.52	1245.16
332.74	1265.64
332.95	1253.36
333.16	1294.32
333.37	1232.88
333.58	1282.03
333.80	1261.55
334.01	1273.84
334.22	1251.31
334.43	1296.36
334.64	1187.82
334.86	1282.03
335.07	1228.78
335.28	1255.40
335.49	1212.40
335.70	1314.80
335.92	1300.46
336.13	1320.94
336.34	1257.45
336.55	1206.25
336.76	1269.74
336.98	1249.26
337.19	1284.08
337.40	1269.74
337.61	1271.79
337.82	1255.40
338.04	1200.11
338.25	1232.88
338.46	1292.27
338.67	1269.74
338.88	1363.95
339.09	1312.75
339.31	1239.02
339.52	1277.93
339.73	1271.79
339.94	1263.60
340.15	1200.11
340.36	1300.46
340.58	1320.94
340.79	1257.45
341.00	1298.41
341.21	1200.11
341.42	1288.17
341.63	1220.59
341.85	1306.60
342.06	1267.69
342.27	1243.12
342.48	1308.65
342.69	1189.87
342.90	1255.40
343.12	1288.17
343.33	1230.83
343.54	1247.21
343.75	1255.40
343.96	1277.93
344.17	1206.25
344.38	1292.27
344.60	1251.31
344.81	1200.11
345.02	1314.80
345.23	1284.08
345.44	1304.56
345.65	1243.12
345.86	1322.99
346.07	1269.74
346.29	1249.26
346.50	1224.69
346.71	1296.36
346.92	1306.60
347.13	1279.98
347.34	1333.23
347.55	1257.45
347.76	1329.13
347.98	1298.41
348.19	1302.51
348.40	1273.84
348.61	1251.31
348.82	1320.94
349.03	1226.73
349.24	1279.98
349.45	1277.93
349.66	1314.80
349.88	1304.56
350.09	1269.74
350.30	1296.36
350.51	1257.45
350.72	1212.40
350.93	1255.40
351.14	1212.40
351.35	1241.07
351.56	1292.27
351.77	1265.64
351.99	1337.32
352.20	1255.40
352.41	1271.79
352.62	1275.88
352.83	1257.45
353.04	1310.70
353.25	1255.40
353.46	1288.17
353.67	1261.55
353.88	1325.04
354.09	1284.08
354.30	1279.98
354.52	1241.07
354.73	1236.97
354.94	1222.64
355.15	1257.45
355.36	1290.22
355.57	1185.77
355.78	1318.89
355.99	1236.97
356.20	1322.99
356.41	1228.78
356.62	1247.21
356.83	1245.16
357.04	1257.45
357.25	1275.88
357.46	1241.07
357.68	1222.64
357.89	1249.26
358.10	1263.60
358.31	1302.51
358.52	1265.64
358.73	1294.32
358.94	1220.59
359.15	1230.83
359.36	1277.93
359.57	1247.21
359.78	1269.74
359.99	1271.79
360.20	1302.51
360.41	1318.89
360.62	1327.08
360.83	1234.93
361.04	1181.68
361.25	1265.64
361.46	1312.75
361.67	1269.74
361.88	1298.41
362.09	1228.78
362.30	1298.41
362.51	1239.02
362.72	1245.16
362.93	1269.74
363.14	1234.93
363.35	1228.78
363.56	1300.46
363.78	1267.69
363.99	1333.23
364.20	1206.25
364.41	1218.54
364.62	1290.22
364.83	1251.31
365.04	1245.16
365.25	1306.60
365.46	1288.17
365.67	1320.94
365.88	1277.93
366.09	1368.04
366.30	1247.21
366.51	1318.89
366.72	1224.69
366.93	1265.64
367.14	1308.65
367.35	1271.79
367.56	1255.40
367.77	1380.33
367.98	1236.97
368.18	1279.98
368.39	1312.75
368.60	1216.49
368.81	1300.46
369.02	1265.64
369.23	1284.08
369.44	1239.02
369.65	1245.16
369.86	1290.22
370.07	1224.69
370.28	1300.46
370.49	1269.74
370.70	1220.59
370.91	1226.73
371.12	1277.93
371.33	1275.88
371.54	1325.04
371.75	1277.93
371.96	1261.55
372.17	1214.45
372.38	1263.60
372.59	1271.79
372.80	1290.22
373.01	1294.32
373.22	1279.98
373.43	1208.30
373.64	1288.17
373.85	1279.98
374.06	1288.17
374.26	1288.17
374.47	1271.79
374.68	1261.55
374.89	1290.22
375.10	1224.69
375.31	1296.36
375.52	1282.03
375.73	1277.93
375.94	1232.88
376.15	1314.80
376.36	1259.50
376.57	1304.56
376.78	1265.64
376.99	1286.12
377.20	1308.65
377.40	1243.12
377.61	1329.13
377.82	1279.98
378.03	1320.94
378.24	1214.45
378.45	1296.36
378.66	1253.36
378.87	1251.31
379.08	1265.64
379.29	1255.40
379.50	1288.17
379.71	1189.87
379.91	1284.08
380.12	1275.88
380.33	1327.08
380.54	1279.98
380.75	1269.74
380.96	1253.36
381.17	1208.30
381.38	1224.69
381.59	1284.08
381.80	1279.98
382.00	1236.97
382.21	1271.79
382.42	1232.88
382.63	1236.97
382.84	1275.88
383.05	1284.08
383.26	1343.47
383.47	1222.64
383.68	1286.12
383.88	1286.12
384.09	1306.60
384.30	1236.97
384.51	1322.99
384.72	1341.42
384.93	1220.59
385.14	1228.78
385.35	1282.03
385.55	1290.22
385.76	1306.60
385.97	1271.79
386.18	1316.84
386.39	1302.51
386.60	1255.40
386.81	1253.36
387.02	1302.51
387.22	1214.45
387.43	1259.50
387.64	1212.40
387.85	1249.26
388.06	1159.15
388.27	1296.36
388.48	1208.30
388.68	1241.07
388.89	1226.73
389.10	1296.36
389.31	1290.22
389.52	1286.12
389.73	1228.78
389.93	1327.08
390.14	1273.84
390.35	1247.21
390.56	1257.45
390.77	1269.74
390.98	1208.30
391.18	1302.51
391.39	1234.93
391.60	1290.22
391.81	1296.36
392.02	1316.84
392.23	1257.45
392.43	1316.84
392.64	1210.35
392.85	1202.16
393.06	1310.70
393.27	1259.50
393.47	1245.16
393.68	1282.03
393.89	1208.30
394.10	1275.88
394.31	1222.64
394.52	1288.17
394.72	1296.36
394.93	1241.07
395.14	1271.79
395.35	1189.87
395.56	1290.22
395.76	1306.60
395.97	1224.69
396.18	1257.45
396.39	1296.36
396.60	1265.64
396.80	1327.08
397.01	1259.50
397.22	1284.08
397.43	1230.83
397.64	1314.80
397.84	1189.87
398.05	1284.08
398.26	1226.73
398.47	1306.60
398.67	1275.88
398.88	1228.78
399.09	1214.45
399.30	1271.79
399.51	1224.69
399.71	1300.46
399.92	1259.50
400.13	1212.40
400.34	1230.83
400.54	1327.08
400.75	1200.11
400.96	1265.64
401.17	1247.21
401.37	1275.88
401.58	1325.04
401.79	1294.32
402.00	1302.51
402.21	1241.07
402.41	1247.21
402.62	1343.47
402.83	1234.93
403.04	1234.93
403.24	1318.89
403.45	1234.93
403.66	1314.80
403.87	1290.22
404.07	1300.46
404.28	1308.65
404.49	1261.55
404.70	1312.75
404.90	1296.36
405.11	1191.92
405.32	1277.93
405.52	1236.97
405.73	1331.18
405.94	1306.60
406.15	1228.78
406.35	1312.75
406.56	1232.88
406.77	1269.74
406.98	1282.03
407.18	1269.74
407.39	1325.04
407.60	1220.59
407.80	1298.41
408.01	1298.41
408.22	1286.12
408.43	1290.22
408.63	1249.26
408.84	1333.23
409.05	1296.36
409.25	1265.64
409.46	1296.36
409.67	1265.64
409.88	1259.50
410.08	1290.22
410.29	1296.36
410.50	1247.21
410.70	1267.69
410.91	1296.36
411.12	1286.12
411.32	1292.27
411.53	1259.50
411.74	1308.65
411.95	1265.64
412.15	1292.27
412.36	1245.16
412.57	1284.08
412.77	1306.60
412.98	1310.70
413.19	1277.93
413.39	1296.36
413.60	1247.21
413.81	1261.55
414.01	1236.97
414.22	1224.69
414.43	1271.79
414.63	1226.73
414.84	1236.97
415.05	1273.84
415.25	1200.11
415.46	1327.08
415.67	1284.08
415.87	1312.75
416.08	1259.50
416.29	1302.51
416.49	1216.49
416.70	1288.17
416.91	1347.56
417.11	1245.16
417.32	1236.97
417.53	1202.16
417.73	1273.84
417.94	1255.40
418.15	1300.46
418.35	1273.84
418.56	1325.04
418.77	1290.22
418.97	1296.36
419.18	1251.31
419.38	1298.41
419.59	1171.44
419.80	1284.08
420.00	1224.69
420.21	1218.54
420.42	1232.88
420.62	1206.25
420.83	1306.60
421.04	1310.70
421.24	1273.84
421.45	1214.45
421.65	1216.49
421.86	1245.16
422.07	1241.07
422.27	1273.84
422.48	1296.36
422.69	1243.12
422.89	1234.93
423.10	1216.49
423.30	1284.08
423.51	1314.80
423.72	1265.64
423.92	1241.07
424.13	1261.55
424.33	1259.50
424.54	1312.75
424.75	1253.36
424.95	1304.56
425.16	1216.49
425.36	1286.12
425.57	1292.27
425.78	1224.69
425.98	1314.80
426.19	1273.84
426.39	1236.97
426.60	1265.64
426.81	1255.40
427.01	1251.31
427.22	1273.84
427.42	1241.07
427.63	1261.55
427.83	1245.16
428.04	1329.13
428.25	1292.27
428.45	1288.17
428.66	1277.93
428.86	1247.21
429.07	1214.45
429.28	1343.47
429.48	1210.35
429.69	1279.98
429.89	1241.07
430.10	1306.60
430.30	1288.17
430.51	1273.84
430.71	1298.41
430.92	1261.55
431.13	1247.21
431.33	1310.70
431.54	1298.41
431.74	1198.06
431.95	1288.17
432.15	1193.97
432.36	1359.85
432.56	1212.40
432.77	1314.80
432.98	1247.21
433.18	1253.36
433.39	1196.01
433.59	1228.78
433.80	1239.02
434.00	1157.10
434.21	1386.47
434.41	1273.84
434.62	1282.03
434.82	1335.28
435.03	1228.78
435.23	1411.05
435.44	1355.76
435.64	1308.65
435.85	1298.41
436.06	1236.97
436.26	1269.74
436.47	1310.70
436.67	1198.06
436.88	1243.12
437.08	1239.02
437.29	1277.93
437.49	1304.56
437.70	1247.21
437.90	1318.89
438.11	1239.02
438.31	1232.88
438.52	1224.69
438.72	1275.88
438.93	1263.60
439.13	1249.26
439.34	1337.32
439.54	1296.36
439.75	1271.79
439.95	1286.12
440.16	1243.12
440.36	1226.73
440.57	1290.22
440.77	1288.17
440.98	1261.55
441.18	1255.40
441.39	1300.46
441.59	1296.36
441.80	1247.21
442.00	1261.55
442.21	1251.31
442.41	1269.74
442.62	1331.18
442.82	1249.26
443.02	1286.12
443.23	1200.11
443.43	1241.07
443.64	1304.56
443.84	1284.08
444.05	1306.60
444.25	1294.32
444.46	1257.45
444.66	1239.02
444.87	1230.83
445.07	1318.89
445.28	1320.94
445.48	1200.11
445.69	1290.22
445.89	1327.08
446.09	1273.84
446.30	1337.32
446.50	1306.60
446.71	1273.84
446.91	1279.98
447.12	1335.28
447.32	1232.88
447.53	1343.47
447.73	1312.75
447.93	1259.50
448.14	1273.84
448.34	1230.83
448.55	1230.83
448.75	1212.40
448.96	1239.02
449.16	1345.52
449.36	1269.74
449.57	1331.18
449.77	1302.51
449.98	1265.64
450.18	1214.45
450.39	1322.99
450.59	1279.98
450.79	1308.65
451.00	1288.17
451.20	1279.98
451.41	1216.49
451.61	1259.50
451.81	1236.97
452.02	1259.50
452.22	1263.60
452.43	1286.12
452.63	1322.99
452.84	1286.12
453.04	1286.12
453.24	1267.69
453.45	1255.40
453.65	1265.64
453.86	1261.55
454.06	1259.50
454.26	1212.40
454.47	1304.56
454.67	1232.88
454.87	1214.45
455.08	1218.54
455.28	1222.64
455.49	1271.79
455.69	1284.08
455.89	1316.84
456.10	1288.17
456.30	1275.88
456.51	1277.93
456.71	1277.93
456.91	1318.89
457.12	1310.70
457.32	1308.65
457.52	1226.73
457.73	1277.93
457.93	1257.45
458.14	1236.97
458.34	1347.56
458.54	1253.36
458.75	1288.17
458.95	1273.84
459.15	1200.11
459.36	1241.07
459.56	1261.55
459.76	1255.40
459.97	1312.75
460.17	1265.64
460.37	1322.99
460.58	1265.64
460.78	1257.45
460.99	1267.69
461.19	1320.94
461.39	1251.31
461.60	1267.69
461.80	1290.22
462.00	1247.21
462.21	1277.93
462.41	1251.31
462.61	1263.60
462.82	1271.79
463.02	1224.69
463.22	1228.78
463.43	1253.36
463.63	1271.79
463.83	1257.45
464.04	1304.56
464.24	1310.70
464.44	1292.27
464.64	1216.49
464.85	1267.69
465.05	1286.12
465.25	1245.16
465.46	1245.16
465.66	1273.84
465.86	1339.37
466.07	1359.85
466.27	1269.74
466.47	1322.99
466.68	1320.94
466.88	1261.55
467.08	1226.73
467.29	1257.45
467.49	1325.04
467.69	1277.93
467.89	1304.56
468.10	1294.32
468.30	1337.32
468.50	1292.27
468.71	1263.60
468.91	1271.79
469.11	1351.66
469.31	1306.60
469.52	1247.21
469.72	1288.17
469.92	1359.85
470.13	1273.84
470.33	1345.52
470.53	1286.12
470.73	1259.50
470.94	1265.64
471.14	1165.29
471.34	1265.64
471.54	1366.00
471.75	1236.97
471.95	1298.41
472.15	1191.92
472.36	1265.64
472.56	1304.56
472.76	1361.90
472.96	1312.75
473.17	1282.03
473.37	1314.80
473.57	1206.25
473.77	1308.65
473.98	1247.21
474.18	1253.36
474.38	1294.32
474.58	1347.56
474.79	1267.69
474.99	1251.31
475.19	1224.69
475.39	1279.98
475.60	1290.22
475.80	1306.60
476.00	1267.69
476.20	1306.60
476.41	1265.64
476.61	1292.27
476.81	1298.41
477.01	1261.55
477.21	1255.40
477.42	1255.40
477.62	1277.93
477.82	1306.60
478.02	1290.22
478.23	1282.03
478.43	1261.55
478.63	1329.13
478.83	1224.69
479.03	1234.93
479.24	1271.79
479.44	1273.84
479.64	1224.69
479.84	1177.58
480.04	1275.88
480.25	1279.98
480.45	1284.08
480.65	1230.83
480.85	1255.40
481.06	1263.60
481.26	1329.13
481.46	1267.69
481.66	1284.08
481.86	1284.08
482.06	1300.46
482.27	1304.56
482.47	1239.02
482.67	1239.02
482.87	1220.59
483.07	1282.03
483.28	1200.11
483.48	1241.07
483.68	1320.94
483.88	1232.88
484.08	1282.03
484.29	1214.45
484.49	1179.63
484.69	1306.60
484.89	1245.16
485.09	1241.07
485.29	1196.01
485.50	1329.13
485.70	1349.61
485.90	1251.31
486.10	1316.84
486.30	1220.59
486.50	1232.88
486.71	1290.22
486.91	1255.40
487.11	1288.17
487.31	1265.64
487.51	1236.97
487.71	1230.83
487.91	1271.79
488.12	1314.80
488.32	1189.87
488.52	1304.56
488.72	1212.40
488.92	1271.79
489.12	1245.16
489.32	1243.12
489.53	1335.28
489.73	1251.31
489.93	1325.04
490.13	1239.02
490.33	1333.23
490.53	1290.22
490.73	1290.22
490.94	1247.21
491.14	1286.12
491.34	1261.55
491.54	1239.02
491.74	1259.50
491.94	1222.64
492.14	1247.21
492.34	1273.84
492.54	1249.26
492.75	1320.94
492.95	1275.88
493.15	1224.69
493.35	1261.55
493.55	1335.28
493.75	1277.93
493.95	1241.07
494.15	1257.45
494.35	1294.32
494.56	1286.12
494.76	1282.03
494.96	1159.15
495.16	1320.94
495.36	1228.78
495.56	1331.18
495.76	1216.49
495.96	1251.31
496.16	1245.16
496.36	1241.07
496.56	1312.75
496.77	1239.02
496.97	1263.60
497.17	1275.88
497.37	1279.98
497.57	1327.08
497.77	1304.56
497.97	1290.22
498.17	1255.40
498.37	1294.32
498.57	1271.79
498.77	1249.26
498.97	1306.60
499.17	1271.79
499.38	1296.36
499.58	1286.12
499.78	1214.45
499.98	1265.64
500.18	1196.01
500.38	1241.07
500.58	1267.69
500.78	1208.30
500.98	1206.25
501.18	1288.17
501.38	1279.98
501.58	1275.88
501.78	1329.13
501.98	1343.47
502.18	1310.70
502.38	1273.84
502.58	1257.45
502.78	1247.21
502.98	1333.23
503.18	1300.46
503.38	1200.11
503.59	1306.60
503.79	1282.03
503.99	1288.17
504.19	1265.64
504.39	1210.35
504.59	1275.88
504.79	1288.17
504.99	1247.21
505.19	1228.78
505.39	1304.56
505.59	1259.50
505.79	1298.41
505.99	1257.45
506.19	1257.45
506.39	1220.59
506.59	1294.32
506.79	1216.49
506.99	1282.03
507.19	1259.50
507.39	1294.32
507.59	1411.05
507.79	1277.93
507.99	1304.56
508.19	1263.60
508.39	1267.69
508.59	1288.17
508.79	1271.79
508.99	1347.56
509.19	1259.50
509.39	1269.74
509.59	1322.99
509.79	1286.12
509.99	1308.65
510.19	1306.60
510.39	1269.74
510.59	1331.18
510.79	1347.56
510.99	1277.93
511.19	1294.32
511.39	1255.40
511.59	1271.79
511.79	1218.54
511.99	1327.08
512.19	1325.04
512.38	1247.21
512.58	1200.11
512.78	1282.03
512.98	1255.40
513.18	1189.87
513.38	1251.31
513.58	1179.63
513.78	1255.40
513.98	1353.71
514.18	1251.31
514.38	1302.51
514.58	1263.60
514.78	1230.83
514.98	1261.55
515.18	1345.52
515.38	1331.18
515.58	1337.32
515.78	1239.02
515.98	1228.78
516.18	1261.55
516.38	1290.22
516.57	1271.79
516.77	1320.94
516.97	1282.03
517.17	1306.60
517.37	1298.41
517.57	1216.49
517.77	1273.84
517.97	1349.61
518.17	1255.40
518.37	1253.36
518.57	1306.60
518.77	1265.64
518.97	1296.36
519.16	1271.79
519.36	1265.64
519.56	1329.13
519.76	1239.02
519.96	1234.93
520.16	1308.65
520.36	1333.23
520.56	1322.99
520.76	1245.16
520.96	1275.88
521.16	1198.06
521.35	1212.40
521.55	1251.31
521.75	1296.36
521.95	1261.55
522.15	1282.03
522.35	1296.36
522.55	1251.31
522.75	1228.78
522.95	1269.74
523.14	1249.26
523.34	1290.22
523.54	1277.93
523.74	1275.88
523.94	1329.13
524.14	1239.02
524.34	1277.93
524.54	1296.36
524.73	1284.08
524.93	1216.49
525.13	1302.51
525.33	1286.12
525.53	1310.70
525.73	1263.60
525.93	1279.98
526.13	1288.17
526.32	1327.08
526.52	1245.16
526.72	1247.21
526.92	1218.54
527.12	1290.22
527.32	1271.79
527.52	1296.36
527.71	1286.12
527.91	1277.93
528.11	1318.89
528.31	1327.08
528.51	1279.98
528.71	1243.12
528.90	1257.45
529.10	1243.12
529.30	1296.36
529.50	1265.64
529.70	1314.80
529.90	1302.51
530.09	1269.74
530.29	1345.52
530.49	1302.51
530.69	1275.88
530.89	1255.40
531.09	1257.45
531.28	1269.74
531.48	1273.84
531.68	1290.22
531.88	1329.13
532.08	1269.74
532.28	1261.55
532.47	1304.56
532.67	1335.28
532.87	1251.31
533.07	1302.51
533.27	1251.31
533.46	1279.98
533.66	1322.99
533.86	1247.21
534.06	1335.28
534.26	1239.02
534.45	1298.41
534.65	1292.27
534.85	1249.26
535.05	1269.74
535.25	1314.80
535.44	1282.03
535.64	1202.16
535.84	1294.32
536.04	1353.71
536.24	1253.36
536.43	1241.07
536.63	1269.74
536.83	1249.26
537.03	1310.70
537.22	1306.60
537.42	1322.99
537.62	1294.32
537.82	1288.17
538.02	1243.12
538.21	1320.94
538.41	1300.46
538.61	1247.21
538.81	1253.36
539.00	1277.93
539.20	1277.93
539.40	1249.26
539.60	1222.64
539.79	1306.60
539.99	1302.51
540.19	1292.27
540.39	1376.24
540.58	1265.64
540.78	1363.95
540.98	1284.08
541.18	1288.17
541.37	1245.16
541.57	1273.84
541.77	1269.74
541.97	1191.92
542.16	1206.25
542.36	1320.94
542.56	1249.26
542.76	1316.84
542.95	1310.70
543.15	1271.79
543.35	1202.16
543.54	1296.36
543.74	1282.03
543.94	1232.88
544.14	1210.35
544.33	1263.60
544.53	1351.66
544.73	1282.03
544.93	1202.16
545.12	1279.98
545.32	1388.52
545.52	1269.74
545.71	1275.88
545.91	1292.27
546.11	1339.37
546.30	1263.60
546.50	1327.08
546.70	1247.21
546.90	1353.71
547.09	1341.42
547.29	1288.17
547.49	1247.21
547.68	1314.80
547.88	1284.08
548.08	1341.42
548.27	1392.62
548.47	1296.36
548.67	1255.40
548.87	1322.99
549.06	1275.88
549.26	1322.99
549.46	1318.89
549.65	1325.04
549.85	1286.12
550.05	1318.89
550.24	1306.60
550.44	1282.03
550.64	1286.12
550.83	1376.24
551.03	1245.16
551.23	1271.79
551.42	1140.72
551.62	1316.84
551.82	1253.36
552.01	1296.36
552.21	1253.36
552.41	1322.99
552.60	1333.23
552.80	1236.97
553.00	1308.65
553.19	1247.21
553.39	1325.04
553.59	1368.04
553.78	1292.27
553.98	1310.70
554.17	1284.08
554.37	1343.47
554.57	1202.16
554.76	1318.89
554.96	1318.89
555.16	1310.70
555.35	1249.26
555.55	1279.98
555.75	1288.17
555.94	1286.12
556.14	1314.80
556.33	1298.41
556.53	1263.60
556.73	1273.84
556.92	1224.69
557.12	1269.74
557.32	1308.65
557.51	1255.40
557.71	1204.21
557.90	1277.93
558.10	1261.55
558.30	1300.46
558.49	1329.13
558.69	1290.22
558.88	1255.40
559.08	1261.55
559.28	1255.40
559.47	1284.08
559.67	1267.69
559.86	1271.79
560.06	1218.54
560.26	1263.60
560.45	1191.92
560.65	1286.12
560.84	1325.04
561.04	1312.75
561.24	1241.07
561.43	1282.03
561.63	1220.59
561.82	1241.07
562.02	1220.59
562.22	1292.27
562.41	1267.69
562.61	1288.17
562.80	1294.32
563.00	1327.08
563.19	1257.45
563.39	1345.52
563.59	1306.60
563.78	1331.18
563.98	1232.88
564.17	1318.89
564.37	1247.21
564.56	1253.36
564.76	1294.32
564.96	1282.03
565.15	1236.97
565.35	1204.21
565.54	1251.31
565.74	1277.93
565.93	1304.56
566.13	1269.74
566.32	1335.28
566.52	1255.40
566.71	1273.84
566.91	1284.08
567.11	1288.17
567.30	1249.26
567.50	1288.17
567.69	1279.98
567.89	1290.22
568.08	1300.46
568.28	1359.85
568.47	1320.94
568.67	1245.16
568.86	1327.08
569.06	1349.61
569.25	1304.56
569.45	1216.49
569.64	1236.97
569.84	1255.40
570.04	1329.13
570.23	1333.23
570.43	1320.94
570.62	1298.41
570.82	1249.26
571.01	1286.12
571.21	1282.03
571.40	1310.70
571.60	1255.40
571.79	1232.88
571.99	1292.27
572.18	1279.98
572.38	1306.60
572.57	1249.26
572.77	1337.32
572.96	1232.88
573.16	1261.55
573.35	1292.27
573.55	1329.13
573.74	1253.36
573.94	1327.08
574.13	1279.98
574.33	1327.08
574.52	1302.51
574.71	1331.18
574.91	1327.08
575.10	1314.80
575.30	1228.78
575.49	1259.50
575.69	1179.63
575.88	1257.45
576.08	1261.55
576.27	1294.32
576.47	1257.45
576.66	1275.88
576.86	1193.97
577.05	1314.80
577.25	1271.79
577.44	1335.28
577.64	1267.69
577.83	1300.46
578.02	1269.74
578.22	1257.45
578.41	1234.93
578.61	1232.88
578.80	1288.17
579.00	1298.41
579.19	1302.51
579.39	1232.88
579.58	1277.93
579.77	1241.07
579.97	1271.79
580.16	1310.70
580.36	1322.99
580.55	1183.73
580.75	1275.88
580.94	1232.88
581.13	1257.45
581.33	1216.49
581.52	1279.98
581.72	1329.13
581.91	1277.93
582.11	1322.99
582.30	1249.26
582.49	1314.80
582.69	1290.22
582.88	1298.41
583.08	1357.80
583.27	1243.12
583.47	1249.26
583.66	1331.18
583.85	1200.11
584.05	1284.08
584.24	1374.19
584.44	1208.30
584.63	1249.26
584.82	1271.79
585.02	1253.36
585.21	1220.59
585.41	1284.08
585.60	1331.18
585.79	1306.60
585.99	1267.69
586.18	1216.49
586.37	1296.36
586.57	1286.12
586.76	1300.46
586.96	1322.99
587.15	1298.41
587.34	1267.69
587.54	1253.36
587.73	1236.97
587.93	1247.21
588.12	1241.07
588.31	1241.07
588.51	1224.69
588.70	1249.26
588.89	1269.74
589.09	1286.12
589.28	1300.46
589.47	1257.45
589.67	1312.75
589.86	1273.84
590.06	1343.47
590.25	1257.45
590.44	1290.22
590.64	1230.83
590.83	1284.08
591.02	1325.04
591.22	1335.28
591.41	1349.61
591.60	1345.52
591.80	1333.23
591.99	1355.76
592.18	1255.40
592.38	1294.32
592.57	1257.45
592.76	1255.40
592.96	1316.84
593.15	1253.36
593.34	1363.95
593.54	1337.32
593.73	1236.97
593.92	1343.47
594.12	1298.41
594.31	1282.03
594.50	1273.84
594.70	1288.17
594.89	1269.74
595.08	1316.84
595.28	1267.69
595.47	1394.67
595.66	1228.78
595.86	1196.01
596.05	1290.22
596.24	1222.64
596.43	1267.69
596.63	1236.97
596.82	1214.45
597.01	1314.80
597.21	1277.93
597.40	1257.45
597.59	1316.84
597.79	1275.88
597.98	1236.97
598.17	1345.52
598.36	1322.99
598.56	1267.69
598.75	1284.08
598.94	1318.89
599.14	1267.69
599.33	1292.27
599.52	1363.95
599.71	1294.32
599.91	1263.60
600.10	1232.88
600.29	1265.64
600.48	1279.98
600.68	1249.26
600.87	1273.84
601.06	1263.60
601.26	1210.35
601.45	1345.52
601.64	1372.14
601.83	1318.89
602.03	1349.61
602.22	1310.70
602.41	1300.46
602.60	1265.64
602.80	1210.35
602.99	1239.02
603.18	1353.71
603.37	1282.03
603.57	1314.80
603.76	1265.64
603.95	1296.36
604.14	1331.18
604.34	1200.11
604.53	1277.93
604.72	1224.69
604.91	1325.04
605.10	1337.32
605.30	1288.17
605.49	1288.17
605.68	1263.60
605.87	1271.79
606.07	1288.17
606.26	1329.13
606.45	1273.84
606.64	1284.08
606.84	1253.36
607.03	1292.27
607.22	1239.02
607.41	1216.49
607.60	1306.60
607.80	1275.88
607.99	1265.64
608.18	1306.60
608.37	1380.33
608.56	1263.60
608.76	1206.25
608.95	1243.12
609.14	1314.80
609.33	1218.54
609.52	1292.27
609.72	1247.21
609.91	1286.12
610.10	1292.27
610.29	1277.93
610.48	1243.12
610.68	1282.03
610.87	1187.82
611.06	1314.80
611.25	1306.60
611.44	1296.36
611.63	1232.88
611.83	1308.65
612.02	1279.98
612.21	1220.59
612.40	1214.45
612.59	1290.22
612.79	1286.12
612.98	1325.04
613.17	1337.32
613.36	1279.98
613.55	1308.65
613.74	1269.74
613.93	1255.40
614.13	1269.74
614.32	1282.03
614.51	1296.36
614.70	1316.84
614.89	1220.59
615.08	1331.18
615.28	1345.52
615.47	1253.36
615.66	1298.41
615.85	1320.94
616.04	1277.93
616.23	1320.94
616.42	1226.73
616.62	1277.93
616.81	1228.78
617.00	1288.17
617.19	1314.80
617.38	1372.14
617.57	1269.74
617.76	1288.17
617.95	1322.99
618.15	1329.13
618.34	1241.07
618.53	1267.69
618.72	1296.36
618.91	1286.12
619.10	1273.84
619.29	1288.17
619.48	1236.97
619.68	1308.65
619.87	1288.17
620.06	1275.88
620.25	1228.78
620.44	1273.84
620.63	1216.49
620.82	1392.62
621.01	1284.08
621.20	1337.32
621.39	1302.51
621.59	1275.88
621.78	1308.65
621.97	1282.03
622.16	1304.56
622.35	1329.13
622.54	1316.84
622.73	1234.93
622.92	1263.60
623.11	1314.80
623.30	1282.03
623.49	1232.88
623.68	1265.64
623.88	1288.17
624.07	1302.51
624.26	1230.83
624.45	1312.75
624.64	1273.84
624.83	1298.41
625.02	1273.84
625.21	1239.02
625.40	1249.26
625.59	1277.93
625.78	1351.66
625.97	1335.28
626.16	1333.23
626.35	1333.23
626.54	1363.95
626.74	1337.32
626.93	1249.26
627.12	1372.14
627.31	1230.83
627.50	1232.88
627.69	1239.02
627.88	1249.26
628.07	1191.92
628.26	1282.03
628.45	1296.36
628.64	1290.22
628.83	1288.17
629.02	1355.76
629.21	1220.59
629.40	1259.50
629.59	1339.37
629.78	1316.84
629.97	1325.04
630.16	1302.51
630.35	1275.88
630.54	1300.46
630.73	1359.85
630.92	1372.14
631.11	1331.18
631.30	1339.37
631.49	1433.58
631.68	1599.46
631.87	2105.31
632.06	3049.43
632.25	2992.08
632.44	4071.36
632.63	5533.61
632.82	7675.79
633.01	16203.53
633.20	30238.26
633.39	43654.50
633.58	46234.94
633.77	40992.14
633.96	29402.69
634.15	18026.22
634.34	9340.79
634.53	4859.83
634.72	2813.91
634.91	1896.42
635.10	1574.89
635.29	1525.74
635.48	1468.39
635.67	1492.97
635.86	1447.91
636.05	1390.57
636.24	1441.77
636.43	1251.31
636.62	1380.33
636.81	1312.75
637.00	1357.80
637.19	1308.65
637.38	1329.13
637.57	1349.61
637.76	1284.08
637.95	1341.42
638.14	1337.32
638.33	1368.04
638.52	1273.84
638.71	1343.47
638.89	1386.47
639.08	1220.59
639.27	1314.80
639.46	1273.84
639.65	1279.98
639.84	1359.85
640.03	1292.27
640.22	1275.88
640.41	1304.56
640.60	1220.59
640.79	1308.65
640.98	1308.65
641.17	1265.64
641.36	1306.60
641.55	1359.85
641.74	1224.69
641.92	1288.17
642.11	1300.46
642.30	1298.41
642.49	1306.60
642.68	1282.03
642.87	1308.65
643.06	1228.78
643.25	1218.54
643.44	1292.27
643.63	1236.97
643.82	1259.50
644.00	1288.17
644.19	1322.99
644.38	1284.08
644.57	1236.97
644.76	1292.27
644.95	1198.06
645.14	1298.41
645.33	1198.06
645.52	1261.55
645.71	1230.83
645.89	1236.97
646.08	1212.40
646.27	1300.46
646.46	1314.80
646.65	1249.26
646.84	1216.49
647.03	1243.12
647.22	1290.22
647.40	1247.21
647.59	1322.99
647.78	1204.21
647.97	1277.93
648.16	1243.12
648.35	1265.64
648.54	1273.84
648.73	1296.36
648.91	1269.74
649.10	1298.41
649.29	1361.90
649.48	1277.93
649.67	1300.46
649.86	1255.40
650.05	1249.26
650.23	1241.07
650.42	1302.51
650.61	1316.84
650.80	1261.55
650.99	1325.04
651.18	1308.65
651.36	1314.80
651.55	1335.28
651.74	1265.64
651.93	1333.23
652.12	1259.50
652.31	1228.78
652.49	1329.13
652.68	1292.27
652.87	1241.07
653.06	1259.50
653.25	1277.93
653.44	1312.75
653.62	1294.32
653.81	1251.31
654.00	1241.07
654.19	1282.03
654.38	1312.75
654.56	1310.70
654.75	1232.88
654.94	1363.95
655.13	1337.32
655.32	1277.93
655.51	1402.86
655.69	1265.64
655.88	1298.41
656.07	1339.37
656.26	1322.99
656.45	1230.83
656.63	1271.79
656.82	1271.79
657.01	1325.04
657.20	1290.22
657.38	1253.36
657.57	1361.90
657.76	1259.50
657.95	1296.36
658.14	1277.93
658.32	1216.49
658.51	1257.45
658.70	1298.41
658.89	1306.60
659.08	1282.03
659.26	1255.40
659.45	1218.54
659.64	1220.59
659.83	1263.60
660.01	1239.02
660.20	1193.97
660.39	1314.80
660.58	1300.46
660.76	1243.12
660.95	1279.98
661.14	1335.28
661.33	1232.88
661.51	1263.60
661.70	1294.32
661.89	1279.98
662.08	1288.17
662.26	1277.93
662.45	1236.97
662.64	1294.32
662.83	1210.35
663.01	1282.03
663.20	1212.40
663.39	1300.46
663.58	1267.69
663.76	1308.65
663.95	1314.80
664.14	1144.81
664.32	1310.70
664.51	1263.60
664.70	1263.60
664.89	1298.41
665.07	1255.40
665.26	1228.78
665.45	1277.93
665.64	1206.25
665.82	1267.69
666.01	1322.99
666.20	1230.83
666.38	1255.40
666.57	1275.88
666.76	1257.45
666.95	1251.31
667.13	1294.32
667.32	1269.74
667.51	1243.12
667.69	1294.32
667.88	1241.07
668.07	1269.74
668.25	1257.45
668.44	1273.84
668.63	1228.78
668.81	1337.32
669.00	1310.70
669.19	1228.78
669.38	1314.80
669.56	1388.52
669.75	1259.50
669.94	1230.83
670.12	1292.27
670.31	1249.26
670.50	1310.70
670.68	1277.93
670.87	1261.55
671.06	1208.30
671.24	1273.84
671.43	1269.74
671.62	1251.31
671.80	1271.79
671.99	1249.26
672.18	1261.55
672.36	1220.59
672.55	1331.18
672.74	1247.21
672.92	1257.45
673.11	1277.93
673.29	1224.69
673.48	1249.26
673.67	1286.12
673.85	1312.75
674.04	1269.74
674.23	1261.55
674.41	1241.07
674.60	1255.40
674.79	1212.40
674.97	1331.18
675.16	1251.31
675.34	1310.70
675.53	1290.22
675.72	1263.60
675.90	1372.14
676.09	1275.88
676.28	1198.06
676.46	1271.79
676.65	1296.36
676.83	1288.17
677.02	1236.97
677.21	1265.64
677.39	1251.31
677.58	1241.07
677.77	1316.84
677.95	1345.52
678.14	1251.31
678.32	1329.13
678.51	1282.03
678.70	1286.12
678.88	1265.64
679.07	1304.56
679.25	1284.08
679.44	1263.60
679.63	1261.55
679.81	1230.83
680.00	1275.88
680.18	1253.36
680.37	1284.08
680.55	1325.04
680.74	1277.93
680.93	1263.60
681.11	1329.13
681.30	1277.93
681.48	1251.31
681.67	1314.80
681.85	1255.40
682.04	1200.11
682.23	1228.78
682.41	1230.83
682.60	1267.69
682.78	1298.41
682.97	1263.60
683.15	1232.88
683.34	1259.50
683.53	1306.60
683.71	1226.73
683.90	1255.40
684.08	1253.36
684.27	1286.12
684.45	1284.08
684.64	1286.12
684.82	1325.04
685.01	1196.01
685.19	1286.12
685.38	1304.56
685.57	1249.26
685.75	1284.08
685.94	1275.88
686.12	1204.21
686.31	1228.78
686.49	1312.75
686.68	1292.27
686.86	1253.36
687.05	1277.93
687.23	1257.45
687.42	1322.99
687.60	1253.36
687.79	1290.22
687.97	1265.64
688.16	1310.70
688.34	1249.26
688.53	1288.17
688.71	1337.32
688.90	1282.03
689.08	1257.45
689.27	1193.97
689.45	1269.74
689.64	1177.58
689.82	1304.56
690.01	1255.40
690.19	1275.88
690.38	1214.45
690.56	1249.26
690.75	1282.03
690.93	1271.79
691.12	1288.17
691.30	1224.69
691.49	1294.32
691.67	1341.42
691.86	1265.64
692.04	1263.60
692.23	1261.55
692.41	1318.89
692.60	1314.80
692.78	1230.83
692.97	1290.22
693.15	1306.60
693.34	1183.73
693.52	1253.36
693.71	1316.84
693.89	1298.41
694.08	1241.07
694.26	1290.22
694.44	1290.22
694.63	1257.45
694.81	1239.02
695.00	1236.97
695.18	1257.45
695.37	1333.23
695.55	1232.88
695.74	1175.53
695.92	1300.46
696.10	1259.50
696.29	1296.36
696.47	1253.36
696.66	1271.79
696.84	1322.99
697.03	1294.32
697.21	1292.27
697.40	1341.42
697.58	1273.84
697.76	1232.88
697.95	1292.27
698.13	1261.55
698.32	1206.25
698.50	1198.06
698.68	1357.80
698.87	1325.04
699.05	1249.26
699.24	1316.84
699.42	1247.21
699.61	1226.73
699.79	1259.50
699.97	1310.70
700.16	1239.02
700.34	1206.25
700.53	1161.20
700.71	1292.27
700.89	1320.94
701.08	1277.93
701.26	1187.82
701.45	1277.93
701.63	1191.92
701.81	1222.64
702.00	1249.26
702.18	1288.17
702.37	1298.41
702.55	1267.69
702.73	1222.64
702.92	1312.75
703.10	1296.36
703.28	1236.97
703.47	1257.45
703.65	1204.21
703.84	1282.03
704.02	1257.45
704.20	1265.64
704.39	1292.27
704.57	1253.36
704.75	1261.55
704.94	1265.64
705.12	1284.08
705.30	1312.75
705.49	1298.41
705.67	1247.21
705.86	1234.93
706.04	1257.45
706.22	1271.79
706.41	1279.98
706.59	1247.21
706.77	1232.88
706.96	1298.41
707.14	1279.98
707.32	1206.25
707.51	1286.12
707.69	1294.32
707.87	1255.40
708.06	1271.79
708.24	1288.17
708.42	1204.21
708.61	1361.90
708.79	1277.93
708.97	1306.60
709.16	1259.50
709.34	1284.08
709.52	1331.18
709.71	1294.32
709.89	1277.93
710.07	1255.40
710.26	1245.16
710.44	1290.22
710.62	1241.07
710.80	1243.12
710.99	1277.93
711.17	1251.31
711.35	1300.46
711.54	1198.06
711.72	1300.46
711.90	1230.83
712.09	1224.69
712.27	1345.52
712.45	1214.45
712.63	1282.03
712.82	1226.73
713.00	1239.02
713.18	1191.92
713.37	1271.79
713.55	1310.70
713.73	1206.25
713.91	1322.99
714.10	1257.45
714.28	1261.55
714.46	1314.80
714.65	1239.02
714.83	1273.84
715.01	1245.16
715.19	1214.45
715.38	1206.25
715.56	1273.84
715.74	1296.36
715.92	1241.07
716.11	1249.26
716.29	1239.02
716.47	1234.93
716.65	1271.79
716.84	1224.69
717.02	1208.30
717.20	1277.93
717.38	1204.21
717.57	1325.04
717.75	1320.94
717.93	1261.55
718.11	1265.64
718.30	1290.22
718.48	1261.55
718.66	1308.65
718.84	1245.16
719.03	1230.83
719.21	1273.84
719.39	1304.56
719.57	1220.59
719.75	1333.23
719.94	1310.70
720.12	1230.83
720.30	1298.41
720.48	1261.55
720.67	1335.28
720.85	1277.93
721.03	1275.88
721.21	1228.78
721.39	1239.02
721.58	1335.28
721.76	1273.84
721.94	1298.41
722.12	1243.12
722.30	1224.69
722.49	1310.70
722.67	1271.79
722.85	1193.97
723.03	1312.75
723.21	1228.78
723.40	1257.45
723.58	1230.83
723.76	1265.64
723.94	1331.18
724.12	1261.55
724.30	1214.45
724.49	1269.74
724.67	1267.69
724.85	1333.23
725.03	1228.78
725.21	1277.93
725.40	1327.08
725.58	1261.55
725.76	1265.64
725.94	1263.60
726.12	1239.02
726.30	1241.07
726.49	1275.88
726.67	1263.60
726.85	1339.37
727.03	1333.23
727.21	1271.79
727.39	1296.36
727.57	1277.93
727.76	1320.94
727.94	1253.36
728.12	1216.49
728.30	1259.50
728.48	1290.22
728.66	1310.70
728.84	1292.27
729.03	1220.59
729.21	1279.98
729.39	1286.12
729.57	1345.52
729.75	1269.74
729.93	1253.36
730.11	1267.69
730.30	1286.12
730.48	1247.21
730.66	1290.22
730.84	1253.36
731.02	1265.64
731.20	1261.55
731.38	1263.60
731.56	1298.41
731.74	1247.21
731.93	1322.99
732.11	1226.73
732.29	1263.60
732.47	1282.03
732.65	1191.92
732.83	1288.17
733.01	1251.31
733.19	1329.13
733.37	1290.22
733.56	1314.80
733.74	1224.69
733.92	1257.45
734.10	1251.31
734.28	1243.12
734.46	1200.11
734.64	1271.79
734.82	1212.40
735.00	1288.17
735.18	1279.98
735.36	1245.16
735.54	1249.26
735.73	1296.36
735.91	1249.26
736.09	1331.18
736.27	1298.41
736.45	1200.11
736.63	1273.84
736.81	1351.66
736.99	1259.50
737.17	1243.12
737.35	1279.98
737.53	1224.69
737.71	1249.26
737.89	1271.79
738.07	1320.94
738.25	1279.98
738.43	1222.64
738.61	1239.02
738.80	1329.13
738.98	1273.84
739.16	1306.60
739.34	1265.64
739.52	1239.02
739.70	1216.49
739.88	1304.56
740.06	1294.32
740.24	1339.37
740.42	1245.16
740.60	1212.40
740.78	1263.60
740.96	1275.88
741.14	1208.30
741.32	1273.84
741.50	1331.18
741.68	1257.45
741.86	1271.79
742.04	1267.69
742.22	1265.64
742.40	1290.22
742.58	1179.63
742.76	1288.17
742.94	1224.69
743.12	1230.83
743.30	1265.64
743.48	1222.64
743.66	1224.69
743.84	1226.73
744.02	1271.79
744.20	1298.41
744.38	1253.36
744.56	1296.36
744.74	1296.36
744.92	1249.26
745.10	1296.36
745.28	1279.98
745.46	1275.88
745.64	1316.84
745.82	1341.42
746.00	1265.64
746.18	1271.79
746.36	1224.69
746.54	1267.69
746.72	1245.16
746.90	1273.84
747.08	1279.98
747.26	1298.41
747.44	1288.17
747.62	1273.84
747.80	1228.78
747.98	1314.80
748.15	1234.93
748.33	1357.80
748.51	1253.36
748.69	1298.41
748.87	1300.46
749.05	1282.03
749.23	1263.60
749.41	1273.84
749.59	1263.60
749.77	1204.21
749.95	1216.49
750.13	1251.31
750.31	1259.50
750.49	1304.56
750.67	1298.41
750.85	1300.46
751.03	1259.50
751.20	1228.78
751.38	1292.27
751.56	1206.25
751.74	1271.79
751.92	1298.41
752.10	1245.16
752.28	1298.41
752.46	1271.79
752.64	1200.11
752.82	1259.50
753.00	1247.21
753.18	1368.04
753.35	1325.04
753.53	1337.32
753.71	1296.36
753.89	1294.32
754.07	1282.03
754.25	1286.12
754.43	1269.74
754.61	1286.12
754.79	1230.83
754.97	1294.32
755.14	1271.79
755.32	1255.40
755.50	1259.50
755.68	1308.65
755.86	1247.21
756.04	1300.46
756.22	1239.02
756.40	1234.93
756.57	1265.64
756.75	1298.41
756.93	1253.36
757.11	1290.22
757.29	1273.84
757.47	1269.74
757.65	1214.45
757.82	1226.73
758.00	1183.73
758.18	1228.78
758.36	1275.88
758.54	1282.03
758.72	1279.98
758.90	1208.30
759.07	1198.06
759.25	1331.18
759.43	1304.56
759.61	1232.88
759.79	1245.16
759.97	1286.12
760.15	1193.97
760.32	1327.08
760.50	1253.36
760.68	1230.83
760.86	1273.84
761.04	1282.03
761.22	1263.60
761.39	1196.01
761.57	1220.59
761.75	1335.28
761.93	1355.76
762.11	1259.50
762.28	1259.50
762.46	1292.27
762.64	1216.49
762.82	1243.12
763.00	1271.79
763.18	1329.13
763.35	1232.88
763.53	1302.51
763.71	1212.40
763.89	1271.79
764.07	1243.12
764.24	1314.80
764.42	1202.16
764.60	1224.69
764.78	1257.45
764.96	1282.03
765.13	1316.84
765.31	1279.98
765.49	1249.26
765.67	1273.84
765.84	1261.55
766.02	1277.93
766.20	1277.93
766.38	1310.70
766.56	1247.21
766.73	1286.12
766.91	1304.56
767.09	1277.93
767.27	1275.88
767.44	1298.41
767.62	1214.45
767.80	1249.26
767.98	1265.64
768.15	1249.26
768.33	1253.36
768.51	1279.98
768.69	1251.31
768.87	1302.51
769.04	1204.21
769.22	1298.41
769.40	1259.50
769.58	1165.29
769.75	1294.32
769.93	1310.70
770.11	1249.26
770.28	1247.21
770.46	1218.54
770.64	1273.84
770.82	1314.80
770.99	1247.21
771.17	1234.93
771.35	1265.64
771.53	1261.55
771.70	1253.36
771.88	1277.93
772.06	1333.23
772.23	1234.93
772.41	1165.29
772.59	1286.12
772.77	1228.78
772.94	1259.50
773.12	1296.36
773.30	1296.36
773.47	1298.41
773.65	1337.32
773.83	1302.51
774.01	1247.21
774.18	1286.12
774.36	1284.08
774.54	1259.50
774.71	1265.64
774.89	1294.32
775.07	1239.02
775.24	1222.64
775.42	1228.78
775.60	1247.21
775.78	1228.78
775.95	1290.22
776.13	1216.49
776.31	1261.55
776.48	1247.21
776.66	1308.65
776.84	1271.79
777.01	1273.84
777.19	1284.08
777.37	1310.70
777.54	1263.60
777.72	1261.55
777.90	1279.98
778.07	1296.36
778.25	1306.60
778.43	1224.69
778.60	1261.55
778.78	1306.60
778.96	1302.51
779.13	1222.64
779.31	1302.51
779.49	1247.21
779.66	1284.08
779.84	1292.27
780.01	1245.16
780.19	1282.03
780.37	1277.93
780.54	1259.50
780.72	1269.74
780.90	1236.97
781.07	1210.35
781.25	1218.54
781.43	1239.02
781.60	1212.40
781.78	1263.60
781.95	1253.36
782.13	1247.21
782.31	1339.37
782.48	1290.22
782.66	1300.46
782.83	1261.55
783.01	1294.32
783.19	1220.59
783.36	1308.65
783.54	1234.93
783.72	1271.79
783.89	1163.25
784.07	1255.40
784.24	1290.22
784.42	1259.50
784.60	1331.18
784.77	1257.45
784.95	1296.36
785.12	1320.94
785.30	1212.40
785.47	1306.60
785.65	1193.97
785.83	1265.64
786.00	1218.54
786.18	1259.50
786.35	1243.12
786.53	1259.50
786.71	1265.64
786.88	1292.27
787.06	1267.69
787.23	1245.16
787.41	1245.16
787.58	1318.89
787.76	1271.79
787.94	1220.59
788.11	1349.61
788.29	1296.36
788.46	1275.88
788.64	1267.69
788.81	1230.83
788.99	1275.88
789.16	1253.36
789.34	1253.36
789.52	1183.73
789.69	1345.52
789.87	1318.89
790.04	1331.18
790.22	1277.93
790.39	1282.03
790.57	1277.93
790.74	1275.88
790.92	1290.22
791.09	1320.94
791.27	1325.04
791.44	1239.02
791.62	1300.46
791.79	1312.75
791.97	1210.35
792.15	1263.60
792.32	1271.79
792.50	1243.12
792.67	1269.74
792.85	1230.83
793.02	1261.55
793.20	1355.76
793.37	1318.89
793.55	1175.53
793.72	1269.74
793.90	1277.93
794.07	1343.47
794.25	1208.30
794.42	1310.70
794.60	1292.27
794.77	1228.78
794.95	1337.32
795.12	1206.25
795.30	1214.45
795.47	1314.80
795.65	1271.79
795.82	1308.65
796.00	1298.41
796.17	1271.79
796.34	1310.70
796.52	1277.93
796.69	1236.97
796.87	1345.52
797.04	1193.97
797.22	1302.51
797.39	1306.60
797.57	1310.70
797.74	1263.60
797.92	1286.12
798.09	1263.60
798.27	1249.26
798.44	1249.26
798.62	1312.75
798.79	1310.70
798.96	1228.78
799.14	1200.11
799.31	1198.06
799.49	1288.17
799.66	1339.37
799.84	1239.02
800.01	1261.55
800.19	1273.84
800.36	1200.11
800.53	1234.93
800.71	1259.50
800.88	1251.31
801.06	1275.88
801.23	1261.55
801.41	1179.63
801.58	1275.88
801.75	1239.02
801.93	1275.88
802.10	1159.15
802.28	1277.93
802.45	1308.65
802.63	1275.88
802.80	1290.22
802.97	1210.35
803.15	1185.77
803.32	1241.07
803.50	1273.84
803.67	1239.02
803.84	1273.84
804.02	1241.07
804.19	1228.78
804.37	1230.83
804.54	1239.02
804.71	1269.74
804.89	1230.83
805.06	1249.26
805.24	1220.59
805.41	1243.12
805.58	1236.97
805.76	1298.41
805.93	1298.41
806.10	1288.17
806.28	1232.88
806.45	1257.45
806.63	1208.30
806.80	1310.70
806.97	1282.03
807.15	1273.84
807.32	1245.16
807.49	1230.83
807.67	1312.75
807.84	1224.69
808.01	1310.70
808.19	1314.80
808.36	1263.60
808.54	1249.26
808.71	1251.31
808.88	1271.79
809.06	1251.31
809.23	1208.30
809.40	1282.03
809.58	1257.45
809.75	1345.52
809.92	1298.41
810.10	1374.19
810.27	1339.37
810.44	1304.56
810.62	1253.36
810.79	1232.88
810.96	1271.79
811.14	1249.26
811.31	1265.64
811.48	1263.60
811.66	1255.40
811.83	1286.12
812.00	1296.36
812.18	1314.80
812.35	1232.88
812.52	1357.80
812.69	1327.08
812.87	1251.31
813.04	1279.98
813.21	1273.84
813.39	1277.93
813.56	1218.54
813.73	1206.25
813.91	1263.60
814.08	1277.93
814.25	1241.07
814.42	1294.32
814.60	1290.22
814.77	1259.50
814.94	1232.88
815.12	1259.50
815.29	1222.64
815.46	1271.79
815.63	1279.98
815.81	1224.69
815.98	1239.02
816.15	1255.40
816.33	1245.16
816.50	1337.32
816.67	1228.78
816.84	1224.69
817.02	1263.60
817.19	1255.40
817.36	1308.65
817.53	1259.50
817.71	1224.69
817.88	1282.03
818.05	1228.78
818.22	1296.36
818.40	1212.40
818.57	1275.88
818.74	1236.97
818.91	1284.08
819.09	1296.36
819.26	1275.88
819.43	1234.93
819.60	1208.30
819.78	1265.64
819.95	1265.64
820.12	1290.22
820.29	1259.50
820.47	1259.50
820.64	1349.61
820.81	1241.07
820.98	1292.27
821.15	1294.32
821.33	1236.97
821.50	1322.99
821.67	1294.32
821.84	1318.89
822.02	1279.98
822.19	1314.80
822.36	1284.08
822.53	1243.12
822.70	1269.74
822.88	1263.60
823.05	1327.08
823.22	1329.13
823.39	1257.45
823.56	1316.84
823.74	1286.12
823.91	1349.61
824.08	1261.55
824.25	1226.73
824.42	1249.26
824.60	1316.84
824.77	1206.25
824.94	1271.79
825.11	1314.80
825.28	1212.40
825.45	1200.11
825.63	1304.56
825.80	1298.41
825.97	1220.59
826.14	1271.79
826.31	1296.36
826.48	1273.84
826.66	1249.26
826.83	1191.92
827.00	1300.46
827.17	1269.74
827.34	1339.37
827.51	1241.07
827.69	1259.50
827.86	1226.73
828.03	1236.97
828.20	1259.50
828.37	1286.12
828.54	1273.84
828.71	1263.60
828.89	1310.70
829.06	1290.22
829.23	1288.17
829.40	1206.25
829.57	1294.32
829.74	1265.64
829.91	1269.74
830.09	1269.74
830.26	1234.93
830.43	1302.51
830.60	1275.88
830.77	1302.51
830.94	1208.30
831.11	1218.54
831.28	1327.08
831.46	1241.07
831.63	1210.35
831.80	1275.88
831.97	1265.64
832.14	1247.21
832.31	1206.25
832.48	1284.08
832.65	1273.84
832.82	1253.36
832.99	1273.84
833.17	1247.21
833.34	1298.41
833.51	1249.26
833.68	1247.21
833.85	1279.98
834.02	1275.88
834.19	1320.94
834.36	1327.08
834.53	1284.08
834.70	1325.04
834.87	1316.84
835.04	1251.31
835.22	1230.83
835.39	1267.69
835.56	1236.97
835.73	1263.60
835.90	1302.51
836.07	1232.88
836.24	1310.70
836.41	1273.84
836.58	1269.74
836.75	1286.12
836.92	1302.51
837.09	1329.13
837.26	1263.60
837.43	1255.40
837.60	1247.21
837.77	1200.11
837.94	1304.56
838.12	1343.47
838.29	1265.64
838.46	1245.16
838.63	1204.21
838.80	1290.22
838.97	1259.50
839.14	1241.07
839.31	1296.36
839.48	1257.45
839.65	1247.21
839.82	1241.07
839.99	1220.59
840.16	1232.88
840.33	1239.02
840.50	1267.69
840.67	1200.11
840.84	1279.98
841.01	1228.78
841.18	1271.79
841.35	1286.12
841.52	1329.13
841.69	1304.56
841.86	1191.92
842.03	1249.26
842.20	1306.60
842.37	1259.50
842.54	1277.93
842.71	1308.65
842.88	1320.94
843.05	1222.64
843.22	1265.64
843.39	1265.64
843.56	1257.45
843.73	1265.64
843.90	1273.84
844.07	1239.02
844.24	1277.93
844.41	1286.12
844.58	1298.41
844.75	1241.07
844.92	1236.97
845.09	1220.59
845.26	1339.37
845.43	1208.30
845.60	1316.84
845.77	1273.84
845.94	1257.45
846.10	1302.51
846.27	1335.28
846.44	1302.51
846.61	1200.11
846.78	1198.06
846.95	1320.94
847.12	1253.36
847.29	1234.93
847.46	1253.36
847.63	1325.04
847.80	1294.32
847.97	1277.93
848.14	1204.21
848.31	1183.73
848.48	1288.17
848.65	1345.52
848.82	1243.12
848.98	1247.21
849.15	1230.83
849.32	1241.07
849.49	1296.36
849.66	1261.55
849.83	1279.98
850.00	1351.66
850.17	1273.84
850.34	1296.36
850.51	1279.98
850.68	1339.37
850.85	1292.27
851.01	1245.16
851.18	1282.03
851.35	1241.07
851.52	1228.78
851.69	1282.03
851.86	1251.31
852.03	1239.02
852.20	1275.88
852.37	1271.79
852.53	1251.31
852.70	1331.18
852.87	1234.93
853.04	1249.26
853.21	1218.54
853.38	1241.07
853.55	1232.88
853.72	1308.65
853.89	1277.93
854.05	1273.84
854.22	1257.45
854.39	1312.75
854.56	1288.17
854.73	1320.94
854.90	1273.84
855.07	1263.60
855.23	1265.64
855.40	1296.36
855.57	1333.23
855.74	1255.40
855.91	1265.64
856.08	1304.56
856.25	1327.08
856.41	1277.93
856.58	1290.22
856.75	1368.04
856.92	1335.28
857.09	1269.74
857.26	1267.69
857.42	1308.65
857.59	1273.84
857.76	1255.40
857.93	1251.31
858.10	1329.13
858.27	1333.23
858.43	1279.98
858.60	1251.31
858.77	1220.59
858.94	1345.52
859.11	1230.83
859.27	1277.93
859.44	1290.22
859.61	1271.79
859.78	1380.33
859.95	1320.94
860.12	1306.60
860.28	1304.56
860.45	1265.64
860.62	1236.97
860.79	1304.56
860.95	1202.16
861.12	1339.37
861.29	1298.41
861.46	1216.49
861.63	1261.55
861.79	1273.84
861.96	1210.35
862.13	1290.22
862.30	1314.80
862.47	1298.41
862.63	1249.26
862.80	1259.50
862.97	1314.80
863.14	1259.50
863.30	1339.37
863.47	1304.56
863.64	1198.06
863.81	1292.27
863.97	1228.78
864.14	1232.88
864.31	1288.17
864.48	1241.07
864.65	1251.31
864.81	1327.08
864.98	1249.26
865.15	1277.93
865.32	1320.94
865.48	1257.45
865.65	1243.12
865.82	1236.97
865.98	1331.18
866.15	1312.75
866.32	1234.93
866.49	1331.18
866.65	1247.21
866.82	1300.46
866.99	1327.08
867.16	1210.35
867.32	1253.36
867.49	1222.64
867.66	1298.41
867.83	1243.12
867.99	1196.01
868.16	1230.83
868.33	1277.93
868.49	1210.35
868.66	1218.54
868.83	1169.39
868.99	1208.30
869.16	1273.84
869.33	1234.93
869.50	1273.84
869.66	1259.50
869.83	1275.88
870.00	1239.02
870.16	1271.79
870.33	1239.02
870.50	1304.56
870.66	1224.69
870.83	1267.69
871.00	1292.27
871.17	1273.84
871.33	1304.56
871.50	1204.21
871.67	1187.82
871.83	1241.07
872.00	1257.45
872.17	1304.56
872.33	1304.56
872.50	1310.70
872.67	1277.93
872.83	1282.03
873.00	1275.88
873.17	1351.66
873.33	1335.28
873.50	1241.07
873.67	1241.07
873.83	1247.21
874.00	1249.26
874.16	1234.93
874.33	1314.80
874.50	1271.79
874.66	1271.79
874.83	1269.74
875.00	1257.45
875.16	1243.12
875.33	1253.36
875.50	1284.08
875.66	1273.84
875.83	1273.84
875.99	1259.50
876.16	1247.21
876.33	1302.51
876.49	1263.60
876.66	1253.36
876.83	1275.88
876.99	1320.94
877.16	1263.60
877.32	1325.04
877.49	1261.55
877.66	1271.79
877.82	1306.60
877.99	1269.74
878.15	1230.83
878.32	1146.86
878.49	1257.45
878.65	1163.25
878.82	1245.16
878.98	1263.60
879.15	1341.42
879.32	1181.68
879.48	1294.32
879.65	1261.55
879.81	1312.75
879.98	1257.45
880.15	1335.28
880.31	1255.40
880.48	1345.52
880.64	1255.40
880.81	1255.40
880.97	1269.74
881.14	1236.97
881.31	1298.41
881.47	1267.69
881.64	1345.52
881.80	1249.26
881.97	1245.16
882.13	1236.97
882.30	1275.88
882.47	1286.12
882.63	1259.50
882.80	1251.31
882.96	1220.59
883.13	1265.64
883.29	1296.36
883.46	1239.02
883.62	1234.93
883.79	1241.07
883.95	1261.55
884.12	1296.36
884.29	1257.45
884.45	1320.94
884.62	1228.78
884.78	1339.37
884.95	1212.40
885.11	1298.41
885.28	1277.93
885.44	1292.27
885.61	1331.18
885.77	1230.83
885.94	1198.06
886.10	1253.36
886.27	1318.89
886.43	1212.40
886.60	1273.84
886.76	1212.40
886.93	1359.85
887.09	1191.92
887.26	1253.36
887.42	1243.12
887.59	1222.64
887.75	1247.21
887.92	1290.22
888.08	1234.93
888.25	1302.51
888.41	1325.04
888.58	1327.08
888.74	1257.45
888.91	1245.16
>>>>>End Processed Spectral Data<<<<<
