SpectraSuite Data File
++++++++++++++++++++++++++++++++++++
Date: Sun Apr 03 19:55:42 CEST 2016
User: root
Dark Spectrum Present: No
Reference Spectrum Present: No
Number of Sampled Component Spectra: 1
Spectrometers: USB4C02835
Integration Time (usec): 10000 (USB4C02835)
Spectra Averaged: 1 (USB4C02835)
Boxcar Smoothing: 0 (USB4C02835)
Correct for Electrical Dark: No (USB4C02835)
Strobe/Lamp Enabled: No (USB4C02835)
Correct for Detector Non-linearity: No (USB4C02835)
Correct for Stray Light: No (USB4C02835)
Number of Pixels in Processed Spectrum: 3648
>>>>>Begin Processed Spectral Data<<<<<
177.47	1320.94
177.69	1320.94
177.91	1320.94
178.13	1294.32
178.36	1279.98
178.58	1253.36
178.80	1316.84
179.02	1253.36
179.24	1208.30
179.46	1243.12
179.68	1277.93
179.90	1224.69
180.13	1294.32
180.35	1204.21
180.57	1265.64
180.79	1304.56
181.01	1222.64
181.23	1292.27
181.45	1277.93
181.67	1275.88
181.90	1296.36
182.12	1245.16
182.34	1282.03
182.56	1331.18
182.78	1282.03
183.00	1290.22
183.22	1236.97
183.44	1196.01
183.66	1286.12
183.89	1234.93
184.11	1210.35
184.33	1282.03
184.55	1251.31
184.77	1300.46
184.99	1282.03
185.21	1230.83
185.43	1277.93
185.65	1249.26
185.87	1271.79
186.10	1193.97
186.32	1232.88
186.54	1308.65
186.76	1269.74
186.98	1241.07
187.20	1198.06
187.42	1175.53
187.64	1263.60
187.86	1279.98
188.08	1320.94
188.30	1298.41
188.52	1228.78
188.75	1368.04
188.97	1253.36
189.19	1222.64
189.41	1259.50
189.63	1273.84
189.85	1241.07
190.07	1302.51
190.29	1275.88
190.51	1294.32
190.73	1218.54
190.95	1271.79
191.17	1265.64
191.39	1294.32
191.61	1269.74
191.84	1249.26
192.06	1277.93
192.28	1247.21
192.50	1335.28
192.72	1312.75
192.94	1279.98
193.16	1306.60
193.38	1261.55
193.60	1269.74
193.82	1320.94
194.04	1247.21
194.26	1214.45
194.48	1306.60
194.70	1251.31
194.92	1265.64
195.14	1282.03
195.36	1271.79
195.58	1255.40
195.80	1247.21
196.02	1363.95
196.24	1187.82
196.46	1232.88
196.69	1308.65
196.91	1253.36
197.13	1228.78
197.35	1239.02
197.57	1298.41
197.79	1302.51
198.01	1224.69
198.23	1265.64
198.45	1236.97
198.67	1314.80
198.89	1279.98
199.11	1247.21
199.33	1298.41
199.55	1304.56
199.77	1337.32
199.99	1302.51
200.21	1175.53
200.43	1296.36
200.65	1310.70
200.87	1273.84
201.09	1236.97
201.31	1265.64
201.53	1216.49
201.75	1277.93
201.97	1222.64
202.19	1316.84
202.41	1247.21
202.63	1259.50
202.85	1265.64
203.07	1267.69
203.29	1308.65
203.51	1267.69
203.73	1322.99
203.95	1161.20
204.17	1329.13
204.39	1310.70
204.61	1322.99
204.83	1273.84
205.05	1306.60
205.27	1298.41
205.49	1304.56
205.71	1255.40
205.93	1193.97
206.15	1279.98
206.37	1200.11
206.59	1230.83
206.81	1275.88
207.03	1230.83
207.25	1224.69
207.47	1310.70
207.69	1247.21
207.91	1236.97
208.13	1310.70
208.34	1249.26
208.56	1298.41
208.78	1234.93
209.00	1298.41
209.22	1255.40
209.44	1253.36
209.66	1271.79
209.88	1269.74
210.10	1210.35
210.32	1290.22
210.54	1310.70
210.76	1282.03
210.98	1220.59
211.20	1310.70
211.42	1310.70
211.64	1267.69
211.86	1216.49
212.08	1261.55
212.30	1214.45
212.52	1282.03
212.74	1239.02
212.96	1261.55
213.17	1222.64
213.39	1239.02
213.61	1345.52
213.83	1329.13
214.05	1253.36
214.27	1257.45
214.49	1177.58
214.71	1232.88
214.93	1249.26
215.15	1239.02
215.37	1331.18
215.59	1275.88
215.81	1282.03
216.03	1193.97
216.24	1306.60
216.46	1232.88
216.68	1267.69
216.90	1286.12
217.12	1275.88
217.34	1308.65
217.56	1275.88
217.78	1247.21
218.00	1167.34
218.22	1249.26
218.44	1298.41
218.66	1286.12
218.87	1263.60
219.09	1292.27
219.31	1253.36
219.53	1232.88
219.75	1298.41
219.97	1249.26
220.19	1263.60
220.41	1294.32
220.63	1263.60
220.85	1339.37
221.06	1249.26
221.28	1261.55
221.50	1372.14
221.72	1241.07
221.94	1232.88
222.16	1236.97
222.38	1261.55
222.60	1310.70
222.82	1253.36
223.03	1351.66
223.25	1322.99
223.47	1380.33
223.69	1294.32
223.91	1275.88
224.13	1247.21
224.35	1269.74
224.57	1214.45
224.78	1208.30
225.00	1271.79
225.22	1232.88
225.44	1282.03
225.66	1284.08
225.88	1306.60
226.10	1273.84
226.32	1245.16
226.53	1198.06
226.75	1255.40
226.97	1267.69
227.19	1343.47
227.41	1286.12
227.63	1320.94
227.85	1257.45
228.06	1349.61
228.28	1320.94
228.50	1214.45
228.72	1351.66
228.94	1208.30
229.16	1294.32
229.37	1259.50
229.59	1296.36
229.81	1337.32
230.03	1269.74
230.25	1265.64
230.47	1251.31
230.69	1322.99
230.90	1253.36
231.12	1269.74
231.34	1296.36
231.56	1325.04
231.78	1255.40
232.00	1296.36
232.21	1269.74
232.43	1320.94
232.65	1286.12
232.87	1198.06
233.09	1302.51
233.30	1255.40
233.52	1275.88
233.74	1222.64
233.96	1277.93
234.18	1282.03
234.40	1251.31
234.61	1351.66
234.83	1214.45
235.05	1306.60
235.27	1273.84
235.49	1306.60
235.70	1251.31
235.92	1249.26
236.14	1267.69
236.36	1269.74
236.58	1202.16
236.79	1298.41
237.01	1269.74
237.23	1300.46
237.45	1366.00
237.67	1234.93
237.88	1296.36
238.10	1318.89
238.32	1273.84
238.54	1339.37
238.76	1298.41
238.97	1191.92
239.19	1210.35
239.41	1216.49
239.63	1300.46
239.85	1363.95
240.06	1263.60
240.28	1253.36
240.50	1249.26
240.72	1212.40
240.93	1292.27
241.15	1249.26
241.37	1259.50
241.59	1298.41
241.81	1320.94
242.02	1257.45
242.24	1310.70
242.46	1277.93
242.68	1257.45
242.89	1265.64
243.11	1294.32
243.33	1265.64
243.55	1220.59
243.76	1302.51
243.98	1304.56
244.20	1187.82
244.42	1222.64
244.64	1232.88
244.85	1335.28
245.07	1357.80
245.29	1302.51
245.51	1333.23
245.72	1216.49
245.94	1312.75
246.16	1253.36
246.38	1279.98
246.59	1259.50
246.81	1286.12
247.03	1302.51
247.24	1222.64
247.46	1306.60
247.68	1259.50
247.90	1282.03
248.11	1282.03
248.33	1218.54
248.55	1316.84
248.77	1265.64
248.98	1216.49
249.20	1202.16
249.42	1290.22
249.64	1284.08
249.85	1273.84
250.07	1218.54
250.29	1228.78
250.50	1271.79
250.72	1257.45
250.94	1224.69
251.16	1261.55
251.37	1292.27
251.59	1304.56
251.81	1329.13
252.02	1298.41
252.24	1261.55
252.46	1263.60
252.68	1302.51
252.89	1214.45
253.11	1290.22
253.33	1224.69
253.54	1263.60
253.76	1253.36
253.98	1239.02
254.20	1251.31
254.41	1288.17
254.63	1304.56
254.85	1351.66
255.06	1253.36
255.28	1329.13
255.50	1249.26
255.71	1310.70
255.93	1230.83
256.15	1302.51
256.36	1306.60
256.58	1282.03
256.80	1308.65
257.02	1290.22
257.23	1304.56
257.45	1329.13
257.67	1288.17
257.88	1253.36
258.10	1222.64
258.32	1269.74
258.53	1253.36
258.75	1284.08
258.97	1228.78
259.18	1253.36
259.40	1300.46
259.62	1239.02
259.83	1277.93
260.05	1308.65
260.27	1294.32
260.48	1302.51
260.70	1191.92
260.92	1249.26
261.13	1265.64
261.35	1277.93
261.57	1263.60
261.78	1239.02
262.00	1249.26
262.22	1302.51
262.43	1267.69
262.65	1259.50
262.86	1267.69
263.08	1314.80
263.30	1232.88
263.51	1304.56
263.73	1298.41
263.95	1251.31
264.16	1351.66
264.38	1200.11
264.60	1327.08
264.81	1210.35
265.03	1306.60
265.25	1218.54
265.46	1259.50
265.68	1232.88
265.89	1292.27
266.11	1271.79
266.33	1306.60
266.54	1282.03
266.76	1232.88
266.98	1300.46
267.19	1232.88
267.41	1279.98
267.62	1210.35
267.84	1251.31
268.06	1259.50
268.27	1241.07
268.49	1259.50
268.70	1261.55
268.92	1220.59
269.14	1173.49
269.35	1249.26
269.57	1263.60
269.79	1222.64
270.00	1294.32
270.22	1224.69
270.43	1261.55
270.65	1282.03
270.87	1273.84
271.08	1255.40
271.30	1275.88
271.51	1257.45
271.73	1253.36
271.95	1255.40
272.16	1327.08
272.38	1216.49
272.59	1271.79
272.81	1245.16
273.02	1222.64
273.24	1277.93
273.46	1214.45
273.67	1349.61
273.89	1214.45
274.10	1304.56
274.32	1249.26
274.54	1284.08
274.75	1261.55
274.97	1224.69
275.18	1218.54
275.40	1257.45
275.61	1265.64
275.83	1294.32
276.05	1306.60
276.26	1282.03
276.48	1298.41
276.69	1243.12
276.91	1306.60
277.12	1310.70
277.34	1241.07
277.55	1265.64
277.77	1284.08
277.99	1236.97
278.20	1337.32
278.42	1228.78
278.63	1179.63
278.85	1304.56
279.06	1296.36
279.28	1298.41
279.49	1273.84
279.71	1247.21
279.93	1251.31
280.14	1308.65
280.36	1296.36
280.57	1267.69
280.79	1292.27
281.00	1294.32
281.22	1210.35
281.43	1171.44
281.65	1259.50
281.86	1226.73
282.08	1282.03
282.29	1261.55
282.51	1255.40
282.73	1241.07
282.94	1259.50
283.16	1282.03
283.37	1351.66
283.59	1247.21
283.80	1257.45
284.02	1273.84
284.23	1275.88
284.45	1247.21
284.66	1314.80
284.88	1245.16
285.09	1363.95
285.31	1241.07
285.52	1253.36
285.74	1239.02
285.95	1267.69
286.17	1318.89
286.38	1255.40
286.60	1277.93
286.81	1232.88
287.03	1320.94
287.24	1255.40
287.46	1236.97
287.67	1306.60
287.89	1220.59
288.10	1320.94
288.32	1261.55
288.53	1247.21
288.75	1163.25
288.96	1312.75
289.18	1261.55
289.39	1222.64
289.61	1337.32
289.82	1363.95
290.04	1312.75
290.25	1284.08
290.47	1300.46
290.68	1245.16
290.90	1275.88
291.11	1300.46
291.33	1261.55
291.54	1282.03
291.76	1290.22
291.97	1208.30
292.18	1239.02
292.40	1249.26
292.61	1228.78
292.83	1245.16
293.04	1249.26
293.26	1191.92
293.47	1210.35
293.69	1290.22
293.90	1273.84
294.12	1257.45
294.33	1224.69
294.55	1318.89
294.76	1279.98
294.97	1296.36
295.19	1255.40
295.40	1198.06
295.62	1322.99
295.83	1322.99
296.05	1261.55
296.26	1253.36
296.48	1357.80
296.69	1198.06
296.90	1234.93
297.12	1245.16
297.33	1220.59
297.55	1306.60
297.76	1222.64
297.98	1290.22
298.19	1253.36
298.41	1249.26
298.62	1249.26
298.83	1310.70
299.05	1259.50
299.26	1236.97
299.48	1318.89
299.69	1239.02
299.90	1196.01
300.12	1261.55
300.33	1236.97
300.55	1288.17
300.76	1288.17
300.98	1247.21
301.19	1300.46
301.40	1292.27
301.62	1249.26
301.83	1224.69
302.05	1247.21
302.26	1265.64
302.47	1245.16
302.69	1273.84
302.90	1243.12
303.12	1275.88
303.33	1284.08
303.54	1236.97
303.76	1294.32
303.97	1282.03
304.19	1288.17
304.40	1224.69
304.61	1251.31
304.83	1257.45
305.04	1337.32
305.26	1253.36
305.47	1198.06
305.68	1271.79
305.90	1259.50
306.11	1304.56
306.33	1236.97
306.54	1241.07
306.75	1232.88
306.97	1292.27
307.18	1288.17
307.39	1296.36
307.61	1288.17
307.82	1273.84
308.04	1263.60
308.25	1277.93
308.46	1271.79
308.68	1286.12
308.89	1193.97
309.10	1306.60
309.32	1218.54
309.53	1269.74
309.74	1269.74
309.96	1284.08
310.17	1247.21
310.39	1273.84
310.60	1306.60
310.81	1271.79
311.03	1230.83
311.24	1304.56
311.45	1228.78
311.67	1288.17
311.88	1267.69
312.09	1245.16
312.31	1306.60
312.52	1220.59
312.73	1269.74
312.95	1251.31
313.16	1290.22
313.37	1286.12
313.59	1366.00
313.80	1310.70
314.01	1271.79
314.23	1218.54
314.44	1251.31
314.65	1249.26
314.87	1339.37
315.08	1261.55
315.29	1216.49
315.51	1302.51
315.72	1247.21
315.93	1306.60
316.15	1302.51
316.36	1316.84
316.57	1259.50
316.79	1181.68
317.00	1273.84
317.21	1249.26
317.43	1255.40
317.64	1290.22
317.85	1259.50
318.07	1247.21
318.28	1265.64
318.49	1302.51
318.70	1220.59
318.92	1290.22
319.13	1214.45
319.34	1290.22
319.56	1263.60
319.77	1282.03
319.98	1298.41
320.20	1327.08
320.41	1253.36
320.62	1265.64
320.83	1247.21
321.05	1394.67
321.26	1232.88
321.47	1255.40
321.69	1263.60
321.90	1200.11
322.11	1255.40
322.32	1202.16
322.54	1259.50
322.75	1269.74
322.96	1257.45
323.18	1210.35
323.39	1318.89
323.60	1220.59
323.81	1253.36
324.03	1277.93
324.24	1220.59
324.45	1255.40
324.66	1267.69
324.88	1294.32
325.09	1241.07
325.30	1153.01
325.52	1325.04
325.73	1236.97
325.94	1306.60
326.15	1269.74
326.37	1286.12
326.58	1255.40
326.79	1239.02
327.00	1234.93
327.22	1271.79
327.43	1292.27
327.64	1239.02
327.85	1292.27
328.07	1253.36
328.28	1318.89
328.49	1331.18
328.70	1308.65
328.92	1271.79
329.13	1204.21
329.34	1239.02
329.55	1206.25
329.76	1257.45
329.98	1247.21
330.19	1216.49
330.40	1251.31
330.61	1282.03
330.83	1286.12
331.04	1236.97
331.25	1228.78
331.46	1288.17
331.68	1249.26
331.89	1245.16
332.10	1277.93
332.31	1245.16
332.52	1310.70
332.74	1294.32
332.95	1282.03
333.16	1306.60
333.37	1320.94
333.58	1230.83
333.80	1239.02
334.01	1318.89
334.22	1279.98
334.43	1339.37
334.64	1251.31
334.86	1183.73
335.07	1312.75
335.28	1273.84
335.49	1245.16
335.70	1279.98
335.92	1290.22
336.13	1259.50
336.34	1282.03
336.55	1308.65
336.76	1220.59
336.98	1273.84
337.19	1261.55
337.40	1320.94
337.61	1241.07
337.82	1239.02
338.04	1265.64
338.25	1327.08
338.46	1302.51
338.67	1230.83
338.88	1269.74
339.09	1277.93
339.31	1310.70
339.52	1265.64
339.73	1392.62
339.94	1241.07
340.15	1234.93
340.36	1216.49
340.58	1185.77
340.79	1200.11
341.00	1222.64
341.21	1271.79
341.42	1265.64
341.63	1314.80
341.85	1212.40
342.06	1322.99
342.27	1286.12
342.48	1253.36
342.69	1204.21
342.90	1279.98
343.12	1271.79
343.33	1259.50
343.54	1284.08
343.75	1273.84
343.96	1243.12
344.17	1298.41
344.38	1349.61
344.60	1247.21
344.81	1259.50
345.02	1269.74
345.23	1318.89
345.44	1191.92
345.65	1236.97
345.86	1202.16
346.07	1318.89
346.29	1347.56
346.50	1296.36
346.71	1241.07
346.92	1253.36
347.13	1339.37
347.34	1267.69
347.55	1275.88
347.76	1214.45
347.98	1310.70
348.19	1243.12
348.40	1302.51
348.61	1296.36
348.82	1261.55
349.03	1232.88
349.24	1222.64
349.45	1282.03
349.66	1269.74
349.88	1288.17
350.09	1269.74
350.30	1343.47
350.51	1296.36
350.72	1282.03
350.93	1249.26
351.14	1388.52
351.35	1325.04
351.56	1253.36
351.77	1308.65
351.99	1269.74
352.20	1290.22
352.41	1204.21
352.62	1286.12
352.83	1318.89
353.04	1189.87
353.25	1308.65
353.46	1228.78
353.67	1273.84
353.88	1200.11
354.09	1329.13
354.30	1220.59
354.52	1241.07
354.73	1294.32
354.94	1257.45
355.15	1284.08
355.36	1265.64
355.57	1236.97
355.78	1241.07
355.99	1220.59
356.20	1218.54
356.41	1314.80
356.62	1241.07
356.83	1208.30
357.04	1282.03
357.25	1210.35
357.46	1257.45
357.68	1310.70
357.89	1310.70
358.10	1202.16
358.31	1290.22
358.52	1325.04
358.73	1253.36
358.94	1279.98
359.15	1308.65
359.36	1241.07
359.57	1236.97
359.78	1294.32
359.99	1249.26
360.20	1253.36
360.41	1247.21
360.62	1236.97
360.83	1265.64
361.04	1265.64
361.25	1259.50
361.46	1288.17
361.67	1314.80
361.88	1232.88
362.09	1245.16
362.30	1388.52
362.51	1277.93
362.72	1312.75
362.93	1220.59
363.14	1255.40
363.35	1265.64
363.56	1310.70
363.78	1298.41
363.99	1208.30
364.20	1239.02
364.41	1380.33
364.62	1306.60
364.83	1325.04
365.04	1298.41
365.25	1271.79
365.46	1273.84
365.67	1243.12
365.88	1277.93
366.09	1222.64
366.30	1282.03
366.51	1267.69
366.72	1320.94
366.93	1298.41
367.14	1263.60
367.35	1288.17
367.56	1306.60
367.77	1230.83
367.98	1216.49
368.18	1226.73
368.39	1263.60
368.60	1210.35
368.81	1271.79
369.02	1263.60
369.23	1259.50
369.44	1241.07
369.65	1253.36
369.86	1265.64
370.07	1245.16
370.28	1314.80
370.49	1243.12
370.70	1253.36
370.91	1236.97
371.12	1208.30
371.33	1277.93
371.54	1243.12
371.75	1302.51
371.96	1267.69
372.17	1277.93
372.38	1275.88
372.59	1261.55
372.80	1265.64
373.01	1302.51
373.22	1300.46
373.43	1308.65
373.64	1210.35
373.85	1251.31
374.06	1304.56
374.26	1269.74
374.47	1279.98
374.68	1304.56
374.89	1288.17
375.10	1249.26
375.31	1304.56
375.52	1212.40
375.73	1245.16
375.94	1193.97
376.15	1345.52
376.36	1208.30
376.57	1296.36
376.78	1275.88
376.99	1298.41
377.20	1222.64
377.40	1366.00
377.61	1304.56
377.82	1267.69
378.03	1241.07
378.24	1298.41
378.45	1351.66
378.66	1253.36
378.87	1253.36
379.08	1214.45
379.29	1294.32
379.50	1243.12
379.71	1294.32
379.91	1208.30
380.12	1218.54
380.33	1230.83
380.54	1275.88
380.75	1165.29
380.96	1230.83
381.17	1302.51
381.38	1208.30
381.59	1304.56
381.80	1239.02
382.00	1202.16
382.21	1230.83
382.42	1296.36
382.63	1259.50
382.84	1224.69
383.05	1263.60
383.26	1400.81
383.47	1279.98
383.68	1273.84
383.88	1249.26
384.09	1314.80
384.30	1296.36
384.51	1296.36
384.72	1310.70
384.93	1271.79
385.14	1333.23
385.35	1220.59
385.55	1210.35
385.76	1273.84
385.97	1247.21
386.18	1253.36
386.39	1185.77
386.60	1216.49
386.81	1269.74
387.02	1253.36
387.22	1232.88
387.43	1343.47
387.64	1259.50
387.85	1257.45
388.06	1224.69
388.27	1273.84
388.48	1275.88
388.68	1273.84
388.89	1257.45
389.10	1290.22
389.31	1288.17
389.52	1208.30
389.73	1212.40
389.93	1343.47
390.14	1245.16
390.35	1265.64
390.56	1226.73
390.77	1286.12
390.98	1259.50
391.18	1206.25
391.39	1165.29
391.60	1263.60
391.81	1273.84
392.02	1275.88
392.23	1263.60
392.43	1292.27
392.64	1304.56
392.85	1282.03
393.06	1282.03
393.27	1271.79
393.47	1261.55
393.68	1267.69
393.89	1220.59
394.10	1275.88
394.31	1279.98
394.52	1296.36
394.72	1306.60
394.93	1255.40
395.14	1304.56
395.35	1265.64
395.56	1204.21
395.76	1337.32
395.97	1273.84
396.18	1298.41
396.39	1345.52
396.60	1306.60
396.80	1316.84
397.01	1191.92
397.22	1288.17
397.43	1269.74
397.64	1191.92
397.84	1239.02
398.05	1261.55
398.26	1273.84
398.47	1335.28
398.67	1292.27
398.88	1277.93
399.09	1267.69
399.30	1241.07
399.51	1220.59
399.71	1263.60
399.92	1294.32
400.13	1329.13
400.34	1251.31
400.54	1339.37
400.75	1263.60
400.96	1224.69
401.17	1322.99
401.37	1247.21
401.58	1286.12
401.79	1232.88
402.00	1308.65
402.21	1200.11
402.41	1261.55
402.62	1230.83
402.83	1241.07
403.04	1265.64
403.24	1257.45
403.45	1284.08
403.66	1343.47
403.87	1224.69
404.07	1273.84
404.28	1200.11
404.49	1337.32
404.70	1255.40
404.90	1265.64
405.11	1271.79
405.32	1292.27
405.52	1298.41
405.73	1226.73
405.94	1251.31
406.15	1257.45
406.35	1198.06
406.56	1277.93
406.77	1279.98
406.98	1245.16
407.18	1251.31
407.39	1263.60
407.60	1327.08
407.80	1345.52
408.01	1220.59
408.22	1292.27
408.43	1277.93
408.63	1279.98
408.84	1320.94
409.05	1279.98
409.25	1249.26
409.46	1263.60
409.67	1304.56
409.88	1247.21
410.08	1292.27
410.29	1273.84
410.50	1212.40
410.70	1286.12
410.91	1351.66
411.12	1214.45
411.32	1222.64
411.53	1290.22
411.74	1220.59
411.95	1298.41
412.15	1257.45
412.36	1306.60
412.57	1318.89
412.77	1335.28
412.98	1236.97
413.19	1232.88
413.39	1216.49
413.60	1282.03
413.81	1228.78
414.01	1318.89
414.22	1269.74
414.43	1220.59
414.63	1265.64
414.84	1167.34
415.05	1243.12
415.25	1196.01
415.46	1277.93
415.67	1314.80
415.87	1339.37
416.08	1339.37
416.29	1236.97
416.49	1320.94
416.70	1290.22
416.91	1296.36
417.11	1290.22
417.32	1271.79
417.53	1304.56
417.73	1300.46
417.94	1228.78
418.15	1294.32
418.35	1277.93
418.56	1247.21
418.77	1265.64
418.97	1265.64
419.18	1288.17
419.38	1241.07
419.59	1177.58
419.80	1251.31
420.00	1251.31
420.21	1269.74
420.42	1234.93
420.62	1286.12
420.83	1175.53
421.04	1267.69
421.24	1265.64
421.45	1241.07
421.65	1335.28
421.86	1261.55
422.07	1273.84
422.27	1257.45
422.48	1232.88
422.69	1271.79
422.89	1204.21
423.10	1306.60
423.30	1257.45
423.51	1322.99
423.72	1255.40
423.92	1243.12
424.13	1259.50
424.33	1255.40
424.54	1275.88
424.75	1294.32
424.95	1282.03
425.16	1204.21
425.36	1320.94
425.57	1298.41
425.78	1300.46
425.98	1327.08
426.19	1327.08
426.39	1273.84
426.60	1284.08
426.81	1245.16
427.01	1249.26
427.22	1253.36
427.42	1261.55
427.63	1265.64
427.83	1241.07
428.04	1247.21
428.25	1286.12
428.45	1247.21
428.66	1228.78
428.86	1290.22
429.07	1245.16
429.28	1273.84
429.48	1306.60
429.69	1316.84
429.89	1282.03
430.10	1310.70
430.30	1230.83
430.51	1296.36
430.71	1300.46
430.92	1320.94
431.13	1312.75
431.33	1284.08
431.54	1208.30
431.74	1296.36
431.95	1288.17
432.15	1306.60
432.36	1290.22
432.56	1302.51
432.77	1282.03
432.98	1331.18
433.18	1265.64
433.39	1333.23
433.59	1251.31
433.80	1232.88
434.00	1351.66
434.21	1230.83
434.41	1265.64
434.62	1337.32
434.82	1269.74
435.03	1241.07
435.23	1294.32
435.44	1208.30
435.64	1239.02
435.85	1296.36
436.06	1257.45
436.26	1294.32
436.47	1232.88
436.67	1261.55
436.88	1267.69
437.08	1300.46
437.29	1265.64
437.49	1327.08
437.70	1294.32
437.90	1318.89
438.11	1279.98
438.31	1265.64
438.52	1273.84
438.72	1234.93
438.93	1243.12
439.13	1218.54
439.34	1318.89
439.54	1300.46
439.75	1249.26
439.95	1273.84
440.16	1288.17
440.36	1267.69
440.57	1271.79
440.77	1206.25
440.98	1214.45
441.18	1263.60
441.39	1257.45
441.59	1275.88
441.80	1193.97
442.00	1273.84
442.21	1196.01
442.41	1300.46
442.62	1214.45
442.82	1265.64
443.02	1267.69
443.23	1282.03
443.43	1290.22
443.64	1273.84
443.84	1310.70
444.05	1234.93
444.25	1196.01
444.46	1214.45
444.66	1239.02
444.87	1325.04
445.07	1222.64
445.28	1265.64
445.48	1339.37
445.69	1296.36
445.89	1318.89
446.09	1279.98
446.30	1236.97
446.50	1245.16
446.71	1286.12
446.91	1308.65
447.12	1277.93
447.32	1275.88
447.53	1249.26
447.73	1306.60
447.93	1183.73
448.14	1226.73
448.34	1343.47
448.55	1279.98
448.75	1261.55
448.96	1322.99
449.16	1308.65
449.36	1275.88
449.57	1228.78
449.77	1318.89
449.98	1314.80
450.18	1200.11
450.39	1236.97
450.59	1269.74
450.79	1282.03
451.00	1298.41
451.20	1279.98
451.41	1333.23
451.61	1284.08
451.81	1263.60
452.02	1304.56
452.22	1277.93
452.43	1257.45
452.63	1304.56
452.84	1275.88
453.04	1259.50
453.24	1314.80
453.45	1300.46
453.65	1257.45
453.86	1292.27
454.06	1277.93
454.26	1296.36
454.47	1236.97
454.67	1308.65
454.87	1255.40
455.08	1322.99
455.28	1269.74
455.49	1271.79
455.69	1234.93
455.89	1245.16
456.10	1234.93
456.30	1302.51
456.51	1294.32
456.71	1271.79
456.91	1247.21
457.12	1261.55
457.32	1300.46
457.52	1228.78
457.73	1292.27
457.93	1257.45
458.14	1210.35
458.34	1306.60
458.54	1366.00
458.75	1302.51
458.95	1308.65
459.15	1247.21
459.36	1294.32
459.56	1249.26
459.76	1322.99
459.97	1241.07
460.17	1275.88
460.37	1339.37
460.58	1255.40
460.78	1241.07
460.99	1247.21
461.19	1249.26
461.39	1277.93
461.60	1329.13
461.80	1341.42
462.00	1302.51
462.21	1251.31
462.41	1249.26
462.61	1290.22
462.82	1282.03
463.02	1292.27
463.22	1253.36
463.43	1374.19
463.63	1329.13
463.83	1232.88
464.04	1224.69
464.24	1245.16
464.44	1273.84
464.64	1251.31
464.85	1314.80
465.05	1271.79
465.25	1253.36
465.46	1310.70
465.66	1308.65
465.86	1277.93
466.07	1251.31
466.27	1337.32
466.47	1187.82
466.68	1245.16
466.88	1327.08
467.08	1253.36
467.29	1329.13
467.49	1290.22
467.69	1273.84
467.89	1312.75
468.10	1236.97
468.30	1282.03
468.50	1345.52
468.71	1292.27
468.91	1277.93
469.11	1271.79
469.31	1273.84
469.52	1296.36
469.72	1239.02
469.92	1277.93
470.13	1279.98
470.33	1312.75
470.53	1292.27
470.73	1312.75
470.94	1208.30
471.14	1269.74
471.34	1216.49
471.54	1361.90
471.75	1249.26
471.95	1263.60
472.15	1298.41
472.36	1286.12
472.56	1261.55
472.76	1232.88
472.96	1245.16
473.17	1284.08
473.37	1259.50
473.57	1247.21
473.77	1257.45
473.98	1292.27
474.18	1267.69
474.38	1243.12
474.58	1222.64
474.79	1300.46
474.99	1239.02
475.19	1341.42
475.39	1300.46
475.60	1261.55
475.80	1304.56
476.00	1308.65
476.20	1255.40
476.41	1183.73
476.61	1363.95
476.81	1296.36
477.01	1329.13
477.21	1327.08
477.42	1247.21
477.62	1218.54
477.82	1333.23
478.02	1277.93
478.23	1339.37
478.43	1265.64
478.63	1282.03
478.83	1271.79
479.03	1245.16
479.24	1189.87
479.44	1343.47
479.64	1259.50
479.84	1345.52
480.04	1222.64
480.25	1257.45
480.45	1234.93
480.65	1357.80
480.85	1271.79
481.06	1265.64
481.26	1236.97
481.46	1263.60
481.66	1322.99
481.86	1241.07
482.06	1239.02
482.27	1288.17
482.47	1290.22
482.67	1314.80
482.87	1267.69
483.07	1245.16
483.28	1263.60
483.48	1265.64
483.68	1298.41
483.88	1253.36
484.08	1302.51
484.29	1279.98
484.49	1279.98
484.69	1220.59
484.89	1241.07
485.09	1308.65
485.29	1232.88
485.50	1288.17
485.70	1200.11
485.90	1257.45
486.10	1265.64
486.30	1226.73
486.50	1257.45
486.71	1273.84
486.91	1343.47
487.11	1275.88
487.31	1304.56
487.51	1308.65
487.71	1290.22
487.91	1269.74
488.12	1216.49
488.32	1282.03
488.52	1296.36
488.72	1163.25
488.92	1308.65
489.12	1255.40
489.32	1243.12
489.53	1271.79
489.73	1216.49
489.93	1318.89
490.13	1286.12
490.33	1298.41
490.53	1245.16
490.73	1288.17
490.94	1255.40
491.14	1304.56
491.34	1200.11
491.54	1271.79
491.74	1337.32
491.94	1370.09
492.14	1316.84
492.34	1218.54
492.54	1302.51
492.75	1292.27
492.95	1308.65
493.15	1296.36
493.35	1304.56
493.55	1251.31
493.75	1286.12
493.95	1273.84
494.15	1275.88
494.35	1269.74
494.56	1263.60
494.76	1308.65
494.96	1273.84
495.16	1288.17
495.36	1327.08
495.56	1239.02
495.76	1329.13
495.96	1230.83
496.16	1300.46
496.36	1267.69
496.56	1245.16
496.77	1193.97
496.97	1314.80
497.17	1273.84
497.37	1271.79
497.57	1300.46
497.77	1294.32
497.97	1228.78
498.17	1204.21
498.37	1302.51
498.57	1308.65
498.77	1300.46
498.97	1255.40
499.17	1275.88
499.38	1239.02
499.58	1286.12
499.78	1318.89
499.98	1257.45
500.18	1273.84
500.38	1224.69
500.58	1288.17
500.78	1273.84
500.98	1279.98
501.18	1296.36
501.38	1253.36
501.58	1339.37
501.78	1267.69
501.98	1300.46
502.18	1269.74
502.38	1220.59
502.58	1333.23
502.78	1347.56
502.98	1243.12
503.18	1249.26
503.38	1294.32
503.59	1279.98
503.79	1277.93
503.99	1277.93
504.19	1335.28
504.39	1253.36
504.59	1261.55
504.79	1257.45
504.99	1329.13
505.19	1247.21
505.39	1185.77
505.59	1224.69
505.79	1300.46
505.99	1298.41
506.19	1234.93
506.39	1284.08
506.59	1337.32
506.79	1339.37
506.99	1253.36
507.19	1200.11
507.39	1363.95
507.59	1251.31
507.79	1259.50
507.99	1290.22
508.19	1273.84
508.39	1234.93
508.59	1302.51
508.79	1206.25
508.99	1232.88
509.19	1249.26
509.39	1298.41
509.59	1286.12
509.79	1257.45
509.99	1271.79
510.19	1318.89
510.39	1271.79
510.59	1275.88
510.79	1306.60
510.99	1257.45
511.19	1249.26
511.39	1310.70
511.59	1318.89
511.79	1314.80
511.99	1263.60
512.19	1300.46
512.38	1325.04
512.58	1267.69
512.78	1345.52
512.98	1329.13
513.18	1320.94
513.38	1290.22
513.58	1318.89
513.78	1249.26
513.98	1261.55
514.18	1263.60
514.38	1288.17
514.58	1241.07
514.78	1298.41
514.98	1300.46
515.18	1255.40
515.38	1271.79
515.58	1247.21
515.78	1191.92
515.98	1277.93
516.18	1271.79
516.38	1333.23
516.57	1343.47
516.77	1236.97
516.97	1273.84
517.17	1224.69
517.37	1304.56
517.57	1279.98
517.77	1277.93
517.97	1255.40
518.17	1234.93
518.37	1277.93
518.57	1253.36
518.77	1355.76
518.97	1251.31
519.16	1263.60
519.36	1253.36
519.56	1302.51
519.76	1247.21
519.96	1261.55
520.16	1325.04
520.36	1347.56
520.56	1292.27
520.76	1255.40
520.96	1234.93
521.16	1318.89
521.35	1212.40
521.55	1279.98
521.75	1245.16
521.95	1271.79
522.15	1304.56
522.35	1234.93
522.55	1218.54
522.75	1300.46
522.95	1277.93
523.14	1265.64
523.34	1243.12
523.54	1277.93
523.74	1288.17
523.94	1304.56
524.14	1216.49
524.34	1261.55
524.54	1269.74
524.73	1300.46
524.93	1292.27
525.13	1175.53
525.33	1314.80
525.53	1306.60
525.73	1380.33
525.93	1273.84
526.13	1255.40
526.32	1302.51
526.52	1325.04
526.72	1241.07
526.92	1257.45
527.12	1286.12
527.32	1339.37
527.52	1269.74
527.71	1357.80
527.91	1302.51
528.11	1218.54
528.31	1230.83
528.51	1200.11
528.71	1292.27
528.90	1290.22
529.10	1249.26
529.30	1296.36
529.50	1325.04
529.70	1277.93
529.90	1279.98
530.09	1294.32
530.29	1306.60
530.49	1343.47
530.69	1226.73
530.89	1228.78
531.09	1251.31
531.28	1273.84
531.48	1226.73
531.68	1286.12
531.88	1312.75
532.08	1335.28
532.28	1345.52
532.47	1196.01
532.67	1306.60
532.87	1191.92
533.07	1282.03
533.27	1304.56
533.46	1296.36
533.66	1261.55
533.86	1232.88
534.06	1263.60
534.26	1271.79
534.45	1282.03
534.65	1234.93
534.85	1310.70
535.05	1226.73
535.25	1198.06
535.44	1257.45
535.64	1335.28
535.84	1273.84
536.04	1357.80
536.24	1325.04
536.43	1296.36
536.63	1273.84
536.83	1288.17
537.03	1261.55
537.22	1349.61
537.42	1339.37
537.62	1312.75
537.82	1257.45
538.02	1251.31
538.21	1306.60
538.41	1304.56
538.61	1275.88
538.81	1312.75
539.00	1304.56
539.20	1255.40
539.40	1282.03
539.60	1255.40
539.79	1263.60
539.99	1243.12
540.19	1339.37
540.39	1327.08
540.58	1279.98
540.78	1308.65
540.98	1296.36
541.18	1294.32
541.37	1345.52
541.57	1253.36
541.77	1325.04
541.97	1284.08
542.16	1353.71
542.36	1298.41
542.56	1255.40
542.76	1314.80
542.95	1282.03
543.15	1353.71
543.35	1241.07
543.54	1241.07
543.74	1236.97
543.94	1349.61
544.14	1275.88
544.33	1269.74
544.53	1284.08
544.73	1288.17
544.93	1296.36
545.12	1318.89
545.32	1288.17
545.52	1257.45
545.71	1308.65
545.91	1296.36
546.11	1325.04
546.30	1277.93
546.50	1239.02
546.70	1257.45
546.90	1314.80
547.09	1341.42
547.29	1368.04
547.49	1232.88
547.68	1265.64
547.88	1372.14
548.08	1284.08
548.27	1286.12
548.47	1177.58
548.67	1333.23
548.87	1236.97
549.06	1239.02
549.26	1322.99
549.46	1255.40
549.65	1304.56
549.85	1241.07
550.05	1300.46
550.24	1277.93
550.44	1241.07
550.64	1269.74
550.83	1275.88
551.03	1255.40
551.23	1253.36
551.42	1261.55
551.62	1249.26
551.82	1212.40
552.01	1286.12
552.21	1290.22
552.41	1265.64
552.60	1269.74
552.80	1269.74
553.00	1359.85
553.19	1318.89
553.39	1284.08
553.59	1249.26
553.78	1253.36
553.98	1267.69
554.17	1286.12
554.37	1355.76
554.57	1236.97
554.76	1257.45
554.96	1302.51
555.16	1372.14
555.35	1306.60
555.55	1275.88
555.75	1232.88
555.94	1208.30
556.14	1273.84
556.33	1243.12
556.53	1269.74
556.73	1232.88
556.92	1263.60
557.12	1318.89
557.32	1298.41
557.51	1312.75
557.71	1316.84
557.90	1269.74
558.10	1263.60
558.30	1271.79
558.49	1224.69
558.69	1279.98
558.88	1286.12
559.08	1267.69
559.28	1255.40
559.47	1304.56
559.67	1282.03
559.86	1308.65
560.06	1322.99
560.26	1284.08
560.45	1288.17
560.65	1282.03
560.84	1249.26
561.04	1181.68
561.24	1312.75
561.43	1249.26
561.63	1279.98
561.82	1277.93
562.02	1210.35
562.22	1290.22
562.41	1271.79
562.61	1249.26
562.80	1218.54
563.00	1312.75
563.19	1279.98
563.39	1288.17
563.59	1331.18
563.78	1302.51
563.98	1261.55
564.17	1325.04
564.37	1275.88
564.56	1247.21
564.76	1282.03
564.96	1243.12
565.15	1353.71
565.35	1320.94
565.54	1294.32
565.74	1306.60
565.93	1329.13
566.13	1273.84
566.32	1345.52
566.52	1265.64
566.71	1279.98
566.91	1302.51
567.11	1267.69
567.30	1218.54
567.50	1314.80
567.69	1316.84
567.89	1331.18
568.08	1304.56
568.28	1308.65
568.47	1304.56
568.67	1325.04
568.86	1288.17
569.06	1286.12
569.25	1257.45
569.45	1236.97
569.64	1306.60
569.84	1261.55
570.04	1300.46
570.23	1251.31
570.43	1296.36
570.62	1302.51
570.82	1257.45
571.01	1249.26
571.21	1331.18
571.40	1224.69
571.60	1255.40
571.79	1290.22
571.99	1296.36
572.18	1257.45
572.38	1271.79
572.57	1257.45
572.77	1271.79
572.96	1247.21
573.16	1318.89
573.35	1335.28
573.55	1269.74
573.74	1298.41
573.94	1302.51
574.13	1355.76
574.33	1345.52
574.52	1286.12
574.71	1337.32
574.91	1304.56
575.10	1249.26
575.30	1271.79
575.49	1322.99
575.69	1239.02
575.88	1253.36
576.08	1277.93
576.27	1294.32
576.47	1322.99
576.66	1318.89
576.86	1243.12
577.05	1292.27
577.25	1232.88
577.44	1341.42
577.64	1257.45
577.83	1269.74
578.02	1275.88
578.22	1269.74
578.41	1298.41
578.61	1239.02
578.80	1279.98
579.00	1300.46
579.19	1234.93
579.39	1292.27
579.58	1232.88
579.77	1247.21
579.97	1292.27
580.16	1228.78
580.36	1312.75
580.55	1282.03
580.75	1273.84
580.94	1279.98
581.13	1308.65
581.33	1273.84
581.52	1345.52
581.72	1284.08
581.91	1298.41
582.11	1322.99
582.30	1269.74
582.49	1284.08
582.69	1359.85
582.88	1261.55
583.08	1294.32
583.27	1300.46
583.47	1247.21
583.66	1288.17
583.85	1275.88
584.05	1294.32
584.24	1279.98
584.44	1288.17
584.63	1236.97
584.82	1216.49
585.02	1273.84
585.21	1282.03
585.41	1318.89
585.60	1306.60
585.79	1269.74
585.99	1284.08
586.18	1318.89
586.37	1277.93
586.57	1269.74
586.76	1341.42
586.96	1349.61
587.15	1261.55
587.34	1230.83
587.54	1249.26
587.73	1173.49
587.93	1378.28
588.12	1318.89
588.31	1273.84
588.51	1314.80
588.70	1329.13
588.89	1222.64
589.09	1253.36
589.28	1349.61
589.47	1304.56
589.67	1300.46
589.86	1320.94
590.06	1279.98
590.25	1331.18
590.44	1298.41
590.64	1267.69
590.83	1288.17
591.02	1288.17
591.22	1345.52
591.41	1255.40
591.60	1269.74
591.80	1284.08
591.99	1177.58
592.18	1277.93
592.38	1282.03
592.57	1288.17
592.76	1251.31
592.96	1279.98
593.15	1337.32
593.34	1239.02
593.54	1320.94
593.73	1222.64
593.92	1257.45
594.12	1292.27
594.31	1253.36
594.50	1290.22
594.70	1228.78
594.89	1290.22
595.08	1232.88
595.28	1267.69
595.47	1298.41
595.66	1306.60
595.86	1239.02
596.05	1236.97
596.24	1255.40
596.43	1271.79
596.63	1288.17
596.82	1290.22
597.01	1290.22
597.21	1306.60
597.40	1294.32
597.59	1261.55
597.79	1306.60
597.98	1273.84
598.17	1255.40
598.36	1253.36
598.56	1286.12
598.75	1290.22
598.94	1249.26
599.14	1251.31
599.33	1267.69
599.52	1304.56
599.71	1286.12
599.91	1298.41
600.10	1298.41
600.29	1298.41
600.48	1345.52
600.68	1320.94
600.87	1314.80
601.06	1292.27
601.26	1247.21
601.45	1306.60
601.64	1265.64
601.83	1269.74
602.03	1206.25
602.22	1243.12
602.41	1239.02
602.60	1273.84
602.80	1279.98
602.99	1327.08
603.18	1300.46
603.37	1279.98
603.57	1320.94
603.76	1288.17
603.95	1333.23
604.14	1265.64
604.34	1294.32
604.53	1306.60
604.72	1302.51
604.91	1249.26
605.10	1200.11
605.30	1345.52
605.49	1241.07
605.68	1202.16
605.87	1239.02
606.07	1322.99
606.26	1245.16
606.45	1257.45
606.64	1286.12
606.84	1345.52
607.03	1228.78
607.22	1220.59
607.41	1243.12
607.60	1271.79
607.80	1241.07
607.99	1298.41
608.18	1329.13
608.37	1286.12
608.56	1341.42
608.76	1275.88
608.95	1236.97
609.14	1331.18
609.33	1251.31
609.52	1302.51
609.72	1298.41
609.91	1245.16
610.10	1273.84
610.29	1241.07
610.48	1312.75
610.68	1206.25
610.87	1249.26
611.06	1306.60
611.25	1228.78
611.44	1263.60
611.63	1224.69
611.83	1322.99
612.02	1273.84
612.21	1269.74
612.40	1212.40
612.59	1247.21
612.79	1273.84
612.98	1320.94
613.17	1298.41
613.36	1265.64
613.55	1230.83
613.74	1290.22
613.93	1282.03
614.13	1239.02
614.32	1308.65
614.51	1273.84
614.70	1275.88
614.89	1253.36
615.08	1267.69
615.28	1355.76
615.47	1253.36
615.66	1355.76
615.85	1310.70
616.04	1329.13
616.23	1325.04
616.42	1247.21
616.62	1378.28
616.81	1339.37
617.00	1308.65
617.19	1169.39
617.38	1265.64
617.57	1267.69
617.76	1339.37
617.95	1347.56
618.15	1306.60
618.34	1257.45
618.53	1310.70
618.72	1310.70
618.91	1339.37
619.10	1318.89
619.29	1269.74
619.48	1247.21
619.68	1214.45
619.87	1339.37
620.06	1273.84
620.25	1318.89
620.44	1296.36
620.63	1286.12
620.82	1345.52
621.01	1316.84
621.20	1327.08
621.39	1261.55
621.59	1277.93
621.78	1349.61
621.97	1347.56
622.16	1288.17
622.35	1198.06
622.54	1298.41
622.73	1271.79
622.92	1294.32
623.11	1329.13
623.30	1196.01
623.49	1230.83
623.68	1284.08
623.88	1277.93
624.07	1298.41
624.26	1347.56
624.45	1331.18
624.64	1239.02
624.83	1290.22
625.02	1249.26
625.21	1273.84
625.40	1304.56
625.59	1347.56
625.78	1261.55
625.97	1232.88
626.16	1267.69
626.35	1306.60
626.54	1288.17
626.74	1263.60
626.93	1277.93
627.12	1239.02
627.31	1341.42
627.50	1298.41
627.69	1249.26
627.88	1269.74
628.07	1247.21
628.26	1282.03
628.45	1335.28
628.64	1349.61
628.83	1333.23
629.02	1316.84
629.21	1333.23
629.40	1300.46
629.59	1245.16
629.78	1306.60
629.97	1300.46
630.16	1284.08
630.35	1294.32
630.54	1388.52
630.73	1261.55
630.92	1277.93
631.11	1275.88
631.30	1331.18
631.49	1335.28
631.68	1619.94
631.87	4079.55
632.06	15275.80
632.25	31753.76
632.44	23414.43
632.63	14372.64
632.82	12064.58
633.01	3954.63
633.20	2873.30
633.39	2228.19
633.58	2068.45
633.77	1884.13
633.96	1908.71
634.15	1720.29
634.34	1736.68
634.53	1634.28
634.72	1697.77
634.91	1546.22
635.10	1587.18
635.29	1492.97
635.48	1576.94
635.67	1468.39
635.86	1462.25
636.05	1492.97
636.24	1398.76
636.43	1419.24
636.62	1396.71
636.81	1329.13
637.00	1296.36
637.19	1347.56
637.38	1294.32
637.57	1312.75
637.76	1322.99
637.95	1314.80
638.14	1341.42
638.33	1308.65
638.52	1376.24
638.71	1304.56
638.89	1378.28
639.08	1253.36
639.27	1267.69
639.46	1304.56
639.65	1284.08
639.84	1320.94
640.03	1396.71
640.22	1298.41
640.41	1263.60
640.60	1351.66
640.79	1322.99
640.98	1302.51
641.17	1253.36
641.36	1304.56
641.55	1314.80
641.74	1259.50
641.92	1329.13
642.11	1298.41
642.30	1292.27
642.49	1257.45
642.68	1298.41
642.87	1304.56
643.06	1304.56
643.25	1331.18
643.44	1257.45
643.63	1269.74
643.82	1286.12
644.00	1306.60
644.19	1366.00
644.38	1300.46
644.57	1308.65
644.76	1286.12
644.95	1251.31
645.14	1310.70
645.33	1273.84
645.52	1234.93
645.71	1282.03
645.89	1329.13
646.08	1212.40
646.27	1329.13
646.46	1273.84
646.65	1232.88
646.84	1286.12
647.03	1191.92
647.22	1296.36
647.40	1277.93
647.59	1232.88
647.78	1277.93
647.97	1249.26
648.16	1216.49
648.35	1314.80
648.54	1331.18
648.73	1220.59
648.91	1277.93
649.10	1296.36
649.29	1349.61
649.48	1316.84
649.67	1218.54
649.86	1239.02
650.05	1327.08
650.23	1306.60
650.42	1177.58
650.61	1271.79
650.80	1366.00
650.99	1243.12
651.18	1279.98
651.36	1263.60
651.55	1294.32
651.74	1198.06
651.93	1298.41
652.12	1296.36
652.31	1286.12
652.49	1271.79
652.68	1310.70
652.87	1335.28
653.06	1294.32
653.25	1282.03
653.44	1269.74
653.62	1290.22
653.81	1306.60
654.00	1329.13
654.19	1271.79
654.38	1259.50
654.56	1257.45
654.75	1212.40
654.94	1271.79
655.13	1290.22
655.32	1259.50
655.51	1345.52
655.69	1286.12
655.88	1292.27
656.07	1279.98
656.26	1282.03
656.45	1247.21
656.63	1245.16
656.82	1171.44
657.01	1296.36
657.20	1312.75
657.38	1359.85
657.57	1320.94
657.76	1345.52
657.95	1288.17
658.14	1198.06
658.32	1267.69
658.51	1310.70
658.70	1282.03
658.89	1284.08
659.08	1232.88
659.26	1271.79
659.45	1239.02
659.64	1239.02
659.83	1345.52
660.01	1284.08
660.20	1253.36
660.39	1314.80
660.58	1282.03
660.76	1191.92
660.95	1296.36
661.14	1343.47
661.33	1265.64
661.51	1265.64
661.70	1351.66
661.89	1288.17
662.08	1236.97
662.26	1288.17
662.45	1234.93
662.64	1333.23
662.83	1243.12
663.01	1331.18
663.20	1253.36
663.39	1341.42
663.58	1263.60
663.76	1288.17
663.95	1269.74
664.14	1200.11
664.32	1316.84
664.51	1267.69
664.70	1290.22
664.89	1284.08
665.07	1277.93
665.26	1234.93
665.45	1255.40
665.64	1345.52
665.82	1261.55
666.01	1269.74
666.20	1304.56
666.38	1259.50
666.57	1261.55
666.76	1253.36
666.95	1271.79
667.13	1261.55
667.32	1255.40
667.51	1277.93
667.69	1193.97
667.88	1271.79
668.07	1320.94
668.25	1279.98
668.44	1308.65
668.63	1257.45
668.81	1277.93
669.00	1290.22
669.19	1224.69
669.38	1310.70
669.56	1222.64
669.75	1298.41
669.94	1310.70
670.12	1234.93
670.31	1263.60
670.50	1292.27
670.68	1218.54
670.87	1290.22
671.06	1275.88
671.24	1261.55
671.43	1288.17
671.62	1228.78
671.80	1290.22
671.99	1279.98
672.18	1257.45
672.36	1288.17
672.55	1226.73
672.74	1255.40
672.92	1284.08
673.11	1335.28
673.29	1261.55
673.48	1198.06
673.67	1255.40
673.85	1232.88
674.04	1187.82
674.23	1273.84
674.41	1296.36
674.60	1302.51
674.79	1196.01
674.97	1314.80
675.16	1314.80
675.34	1296.36
675.53	1259.50
675.72	1261.55
675.90	1298.41
676.09	1286.12
676.28	1329.13
676.46	1345.52
676.65	1236.97
676.83	1239.02
677.02	1302.51
677.21	1333.23
677.39	1290.22
677.58	1282.03
677.77	1247.21
677.95	1216.49
678.14	1275.88
678.32	1310.70
678.51	1185.77
678.70	1236.97
678.88	1286.12
679.07	1322.99
679.25	1284.08
679.44	1259.50
679.63	1333.23
679.81	1302.51
680.00	1308.65
680.18	1290.22
680.37	1204.21
680.55	1243.12
680.74	1269.74
680.93	1226.73
681.11	1257.45
681.30	1275.88
681.48	1279.98
681.67	1216.49
681.85	1275.88
682.04	1318.89
682.23	1277.93
682.41	1267.69
682.60	1249.26
682.78	1275.88
682.97	1224.69
683.15	1368.04
683.34	1271.79
683.53	1265.64
683.71	1214.45
683.90	1284.08
684.08	1251.31
684.27	1331.18
684.45	1267.69
684.64	1339.37
684.82	1349.61
685.01	1292.27
685.19	1230.83
685.38	1312.75
685.57	1239.02
685.75	1249.26
685.94	1255.40
686.12	1234.93
686.31	1224.69
686.49	1255.40
686.68	1286.12
686.86	1261.55
687.05	1230.83
687.23	1265.64
687.42	1296.36
687.60	1361.90
687.79	1314.80
687.97	1247.21
688.16	1286.12
688.34	1236.97
688.53	1282.03
688.71	1249.26
688.90	1282.03
689.08	1247.21
689.27	1220.59
689.45	1302.51
689.64	1226.73
689.82	1267.69
690.01	1249.26
690.19	1241.07
690.38	1171.44
690.56	1218.54
690.75	1269.74
690.93	1257.45
691.12	1249.26
691.30	1302.51
691.49	1232.88
691.67	1296.36
691.86	1247.21
692.04	1273.84
692.23	1361.90
692.41	1255.40
692.60	1275.88
692.78	1239.02
692.97	1249.26
693.15	1255.40
693.34	1312.75
693.52	1265.64
693.71	1259.50
693.89	1296.36
694.08	1230.83
694.26	1282.03
694.44	1191.92
694.63	1253.36
694.81	1269.74
695.00	1251.31
695.18	1216.49
695.37	1339.37
695.55	1251.31
695.74	1232.88
695.92	1263.60
696.10	1318.89
696.29	1236.97
696.47	1259.50
696.66	1267.69
696.84	1357.80
697.03	1206.25
697.21	1331.18
697.40	1245.16
697.58	1269.74
697.76	1314.80
697.95	1329.13
698.13	1314.80
698.32	1265.64
698.50	1269.74
698.68	1236.97
698.87	1296.36
699.05	1239.02
699.24	1218.54
699.42	1298.41
699.61	1257.45
699.79	1234.93
699.97	1284.08
700.16	1239.02
700.34	1214.45
700.53	1222.64
700.71	1308.65
700.89	1302.51
701.08	1318.89
701.26	1204.21
701.45	1261.55
701.63	1327.08
701.81	1300.46
702.00	1325.04
702.18	1290.22
702.37	1273.84
702.55	1320.94
702.73	1230.83
702.92	1263.60
703.10	1288.17
703.28	1267.69
703.47	1302.51
703.65	1279.98
703.84	1290.22
704.02	1220.59
704.20	1331.18
704.39	1241.07
704.57	1269.74
704.75	1265.64
704.94	1253.36
705.12	1183.73
705.30	1302.51
705.49	1294.32
705.67	1232.88
705.86	1314.80
706.04	1363.95
706.22	1279.98
706.41	1251.31
706.59	1253.36
706.77	1265.64
706.96	1298.41
707.14	1329.13
707.32	1304.56
707.51	1298.41
707.69	1222.64
707.87	1234.93
708.06	1368.04
708.24	1353.71
708.42	1294.32
708.61	1247.21
708.79	1288.17
708.97	1267.69
709.16	1294.32
709.34	1294.32
709.52	1259.50
709.71	1310.70
709.89	1282.03
710.07	1200.11
710.26	1236.97
710.44	1230.83
710.62	1341.42
710.80	1349.61
710.99	1230.83
711.17	1335.28
711.35	1193.97
711.54	1347.56
711.72	1191.92
711.90	1249.26
712.09	1249.26
712.27	1320.94
712.45	1267.69
712.63	1292.27
712.82	1230.83
713.00	1216.49
713.18	1241.07
713.37	1302.51
713.55	1292.27
713.73	1206.25
713.91	1335.28
714.10	1273.84
714.28	1286.12
714.46	1216.49
714.65	1218.54
714.83	1302.51
715.01	1253.36
715.19	1259.50
715.38	1228.78
715.56	1286.12
715.74	1275.88
715.92	1288.17
716.11	1267.69
716.29	1302.51
716.47	1204.21
716.65	1339.37
716.84	1275.88
717.02	1298.41
717.20	1241.07
717.38	1296.36
717.57	1212.40
717.75	1239.02
717.93	1232.88
718.11	1298.41
718.30	1296.36
718.48	1333.23
718.66	1320.94
718.84	1198.06
719.03	1314.80
719.21	1316.84
719.39	1294.32
719.57	1314.80
719.75	1226.73
719.94	1314.80
720.12	1222.64
720.30	1277.93
720.48	1312.75
720.67	1273.84
720.85	1222.64
721.03	1261.55
721.21	1243.12
721.39	1275.88
721.58	1288.17
721.76	1198.06
721.94	1296.36
722.12	1245.16
722.30	1333.23
722.49	1275.88
722.67	1251.31
722.85	1312.75
723.03	1196.01
723.21	1259.50
723.40	1302.51
723.58	1245.16
723.76	1269.74
723.94	1218.54
724.12	1300.46
724.30	1232.88
724.49	1220.59
724.67	1222.64
724.85	1306.60
725.03	1294.32
725.21	1243.12
725.40	1322.99
725.58	1230.83
725.76	1329.13
725.94	1277.93
726.12	1279.98
726.30	1261.55
726.49	1257.45
726.67	1202.16
726.85	1253.36
727.03	1279.98
727.21	1316.84
727.39	1259.50
727.57	1234.93
727.76	1322.99
727.94	1327.08
728.12	1290.22
728.30	1214.45
728.48	1316.84
728.66	1263.60
728.84	1241.07
729.03	1284.08
729.21	1239.02
729.39	1271.79
729.57	1331.18
729.75	1275.88
729.93	1310.70
730.11	1204.21
730.30	1277.93
730.48	1251.31
730.66	1286.12
730.84	1245.16
731.02	1273.84
731.20	1259.50
731.38	1222.64
731.56	1320.94
731.74	1296.36
731.93	1212.40
732.11	1243.12
732.29	1273.84
732.47	1320.94
732.65	1374.19
732.83	1210.35
733.01	1329.13
733.19	1191.92
733.37	1284.08
733.56	1261.55
733.74	1220.59
733.92	1382.38
734.10	1245.16
734.28	1325.04
734.46	1304.56
734.64	1191.92
734.82	1263.60
735.00	1226.73
735.18	1193.97
735.36	1269.74
735.54	1304.56
735.73	1259.50
735.91	1265.64
736.09	1296.36
736.27	1165.29
736.45	1214.45
736.63	1179.63
736.81	1245.16
736.99	1265.64
737.17	1253.36
737.35	1226.73
737.53	1249.26
737.71	1263.60
737.89	1318.89
738.07	1286.12
738.25	1290.22
738.43	1322.99
738.61	1236.97
738.80	1249.26
738.98	1255.40
739.16	1273.84
739.34	1261.55
739.52	1179.63
739.70	1218.54
739.88	1257.45
740.06	1310.70
740.24	1292.27
740.42	1290.22
740.60	1261.55
740.78	1234.93
740.96	1288.17
741.14	1228.78
741.32	1232.88
741.50	1230.83
741.68	1298.41
741.86	1259.50
742.04	1214.45
742.22	1302.51
742.40	1261.55
742.58	1265.64
742.76	1337.32
742.94	1273.84
743.12	1304.56
743.30	1191.92
743.48	1275.88
743.66	1308.65
743.84	1279.98
744.02	1220.59
744.20	1216.49
744.38	1243.12
744.56	1255.40
744.74	1183.73
744.92	1196.01
745.10	1243.12
745.28	1271.79
745.46	1216.49
745.64	1269.74
745.82	1239.02
746.00	1155.05
746.18	1222.64
746.36	1263.60
746.54	1290.22
746.72	1241.07
746.90	1288.17
747.08	1277.93
747.26	1241.07
747.44	1343.47
747.62	1312.75
747.80	1208.30
747.98	1200.11
748.15	1351.66
748.33	1279.98
748.51	1296.36
748.69	1294.32
748.87	1277.93
749.05	1288.17
749.23	1273.84
749.41	1206.25
749.59	1288.17
749.77	1191.92
749.95	1245.16
750.13	1277.93
750.31	1388.52
750.49	1273.84
750.67	1265.64
750.85	1265.64
751.03	1241.07
751.20	1257.45
751.38	1288.17
751.56	1294.32
751.74	1269.74
751.92	1261.55
752.10	1304.56
752.28	1216.49
752.46	1298.41
752.64	1228.78
752.82	1312.75
753.00	1208.30
753.18	1226.73
753.35	1224.69
753.53	1239.02
753.71	1263.60
753.89	1290.22
754.07	1265.64
754.25	1277.93
754.43	1329.13
754.61	1236.97
754.79	1247.21
754.97	1314.80
755.14	1312.75
755.32	1302.51
755.50	1269.74
755.68	1279.98
755.86	1298.41
756.04	1222.64
756.22	1251.31
756.40	1349.61
756.57	1163.25
756.75	1257.45
756.93	1300.46
757.11	1247.21
757.29	1220.59
757.47	1327.08
757.65	1290.22
757.82	1261.55
758.00	1320.94
758.18	1200.11
758.36	1273.84
758.54	1271.79
758.72	1306.60
758.90	1290.22
759.07	1234.93
759.25	1263.60
759.43	1310.70
759.61	1312.75
759.79	1322.99
759.97	1259.50
760.15	1314.80
760.32	1249.26
760.50	1308.65
760.68	1331.18
760.86	1200.11
761.04	1222.64
761.22	1236.97
761.39	1308.65
761.57	1343.47
761.75	1198.06
761.93	1277.93
762.11	1279.98
762.28	1320.94
762.46	1339.37
762.64	1298.41
762.82	1265.64
763.00	1222.64
763.18	1212.40
763.35	1290.22
763.53	1284.08
763.71	1273.84
763.89	1189.87
764.07	1290.22
764.24	1269.74
764.42	1320.94
764.60	1363.95
764.78	1226.73
764.96	1322.99
765.13	1259.50
765.31	1271.79
765.49	1202.16
765.67	1212.40
765.84	1347.56
766.02	1286.12
766.20	1320.94
766.38	1359.85
766.56	1304.56
766.73	1325.04
766.91	1290.22
767.09	1212.40
767.27	1282.03
767.44	1251.31
767.62	1253.36
767.80	1372.14
767.98	1318.89
768.15	1322.99
768.33	1292.27
768.51	1228.78
768.69	1277.93
768.87	1269.74
769.04	1214.45
769.22	1216.49
769.40	1202.16
769.58	1288.17
769.75	1286.12
769.93	1279.98
770.11	1294.32
770.28	1347.56
770.46	1269.74
770.64	1306.60
770.82	1255.40
770.99	1249.26
771.17	1294.32
771.35	1230.83
771.53	1228.78
771.70	1255.40
771.88	1251.31
772.06	1230.83
772.23	1263.60
772.41	1298.41
772.59	1263.60
772.77	1269.74
772.94	1212.40
773.12	1181.68
773.30	1261.55
773.47	1253.36
773.65	1241.07
773.83	1288.17
774.01	1255.40
774.18	1255.40
774.36	1226.73
774.54	1224.69
774.71	1243.12
774.89	1206.25
775.07	1368.04
775.24	1232.88
775.42	1310.70
775.60	1271.79
775.78	1292.27
775.95	1230.83
776.13	1392.62
776.31	1271.79
776.48	1259.50
776.66	1236.97
776.84	1298.41
777.01	1304.56
777.19	1251.31
777.37	1296.36
777.54	1247.21
777.72	1220.59
777.90	1277.93
778.07	1255.40
778.25	1232.88
778.43	1302.51
778.60	1304.56
778.78	1282.03
778.96	1183.73
779.13	1312.75
779.31	1222.64
779.49	1257.45
779.66	1185.77
779.84	1294.32
780.01	1212.40
780.19	1212.40
780.37	1218.54
780.54	1273.84
780.72	1292.27
780.90	1243.12
781.07	1263.60
781.25	1284.08
781.43	1243.12
781.60	1265.64
781.78	1232.88
781.95	1239.02
782.13	1228.78
782.31	1212.40
782.48	1208.30
782.66	1241.07
782.83	1286.12
783.01	1325.04
783.19	1251.31
783.36	1257.45
783.54	1236.97
783.72	1304.56
783.89	1210.35
784.07	1230.83
784.24	1271.79
784.42	1353.71
784.60	1255.40
784.77	1249.26
784.95	1269.74
785.12	1234.93
785.30	1181.68
785.47	1290.22
785.65	1279.98
785.83	1310.70
786.00	1228.78
786.18	1294.32
786.35	1212.40
786.53	1275.88
786.71	1306.60
786.88	1329.13
787.06	1206.25
787.23	1288.17
787.41	1239.02
787.58	1267.69
787.76	1222.64
787.94	1302.51
788.11	1243.12
788.29	1306.60
788.46	1284.08
788.64	1220.59
788.81	1243.12
788.99	1263.60
789.16	1236.97
789.34	1255.40
789.52	1247.21
789.69	1216.49
789.87	1288.17
790.04	1273.84
790.22	1304.56
790.39	1259.50
790.57	1228.78
790.74	1259.50
790.92	1259.50
791.09	1157.10
791.27	1298.41
791.44	1222.64
791.62	1263.60
791.79	1253.36
791.97	1353.71
792.15	1320.94
792.32	1249.26
792.50	1308.65
792.67	1304.56
792.85	1290.22
793.02	1298.41
793.20	1230.83
793.37	1286.12
793.55	1224.69
793.72	1265.64
793.90	1208.30
794.07	1284.08
794.25	1282.03
794.42	1245.16
794.60	1282.03
794.77	1267.69
794.95	1257.45
795.12	1269.74
795.30	1239.02
795.47	1267.69
795.65	1308.65
795.82	1263.60
796.00	1241.07
796.17	1263.60
796.34	1210.35
796.52	1247.21
796.69	1265.64
796.87	1265.64
797.04	1353.71
797.22	1253.36
797.39	1216.49
797.57	1241.07
797.74	1329.13
797.92	1322.99
798.09	1208.30
798.27	1232.88
798.44	1269.74
798.62	1294.32
798.79	1322.99
798.96	1273.84
799.14	1226.73
799.31	1236.97
799.49	1343.47
799.66	1243.12
799.84	1288.17
800.01	1255.40
800.19	1284.08
800.36	1329.13
800.53	1257.45
800.71	1290.22
800.88	1241.07
801.06	1224.69
801.23	1277.93
801.41	1327.08
801.58	1327.08
801.75	1251.31
801.93	1282.03
802.10	1255.40
802.28	1273.84
802.45	1282.03
802.63	1275.88
802.80	1322.99
802.97	1261.55
803.15	1222.64
803.32	1296.36
803.50	1253.36
803.67	1335.28
803.84	1273.84
804.02	1230.83
804.19	1271.79
804.37	1253.36
804.54	1339.37
804.71	1269.74
804.89	1294.32
805.06	1351.66
805.24	1234.93
805.41	1257.45
805.58	1267.69
805.76	1193.97
805.93	1337.32
806.10	1251.31
806.28	1204.21
806.45	1271.79
806.63	1249.26
806.80	1314.80
806.97	1286.12
807.15	1359.85
807.32	1312.75
807.49	1298.41
807.67	1277.93
807.84	1247.21
808.01	1308.65
808.19	1265.64
808.36	1298.41
808.54	1269.74
808.71	1306.60
808.88	1357.80
809.06	1300.46
809.23	1298.41
809.40	1290.22
809.58	1282.03
809.75	1253.36
809.92	1282.03
810.10	1249.26
810.27	1241.07
810.44	1239.02
810.62	1224.69
810.79	1239.02
810.96	1302.51
811.14	1243.12
811.31	1187.82
811.48	1234.93
811.66	1200.11
811.83	1269.74
812.00	1273.84
812.18	1263.60
812.35	1339.37
812.52	1265.64
812.69	1265.64
812.87	1232.88
813.04	1210.35
813.21	1224.69
813.39	1257.45
813.56	1335.28
813.73	1263.60
813.91	1265.64
814.08	1204.21
814.25	1263.60
814.42	1259.50
814.60	1271.79
814.77	1298.41
814.94	1265.64
815.12	1230.83
815.29	1288.17
815.46	1212.40
815.63	1247.21
815.81	1267.69
815.98	1286.12
816.15	1251.31
816.33	1253.36
816.50	1298.41
816.67	1290.22
816.84	1271.79
817.02	1222.64
817.19	1187.82
817.36	1265.64
817.53	1218.54
817.71	1210.35
817.88	1228.78
818.05	1296.36
818.22	1251.31
818.40	1255.40
818.57	1196.01
818.74	1290.22
818.91	1355.76
819.09	1329.13
819.26	1273.84
819.43	1222.64
819.60	1220.59
819.78	1292.27
819.95	1198.06
820.12	1263.60
820.29	1302.51
820.47	1282.03
820.64	1239.02
820.81	1206.25
820.98	1300.46
821.15	1222.64
821.33	1284.08
821.50	1255.40
821.67	1279.98
821.84	1224.69
822.02	1249.26
822.19	1253.36
822.36	1304.56
822.53	1236.97
822.70	1236.97
822.88	1239.02
823.05	1263.60
823.22	1232.88
823.39	1241.07
823.56	1228.78
823.74	1282.03
823.91	1302.51
824.08	1300.46
824.25	1294.32
824.42	1236.97
824.60	1218.54
824.77	1236.97
824.94	1204.21
825.11	1306.60
825.28	1212.40
825.45	1298.41
825.63	1234.93
825.80	1306.60
825.97	1290.22
826.14	1226.73
826.31	1275.88
826.48	1249.26
826.66	1331.18
826.83	1232.88
827.00	1306.60
827.17	1239.02
827.34	1314.80
827.51	1236.97
827.69	1234.93
827.86	1331.18
828.03	1261.55
828.20	1239.02
828.37	1220.59
828.54	1224.69
828.71	1292.27
828.89	1241.07
829.06	1273.84
829.23	1230.83
829.40	1312.75
829.57	1245.16
829.74	1208.30
829.91	1265.64
830.09	1239.02
830.26	1337.32
830.43	1261.55
830.60	1296.36
830.77	1294.32
830.94	1234.93
831.11	1206.25
831.28	1269.74
831.46	1224.69
831.63	1288.17
831.80	1300.46
831.97	1286.12
832.14	1279.98
832.31	1271.79
832.48	1300.46
832.65	1296.36
832.82	1325.04
832.99	1249.26
833.17	1271.79
833.34	1302.51
833.51	1220.59
833.68	1271.79
833.85	1259.50
834.02	1300.46
834.19	1251.31
834.36	1257.45
834.53	1204.21
834.70	1298.41
834.87	1218.54
835.04	1257.45
835.22	1220.59
835.39	1220.59
835.56	1279.98
835.73	1279.98
835.90	1243.12
836.07	1257.45
836.24	1220.59
836.41	1214.45
836.58	1239.02
836.75	1243.12
836.92	1232.88
837.09	1279.98
837.26	1282.03
837.43	1202.16
837.60	1224.69
837.77	1296.36
837.94	1302.51
838.12	1206.25
838.29	1253.36
838.46	1241.07
838.63	1277.93
838.80	1198.06
838.97	1275.88
839.14	1239.02
839.31	1255.40
839.48	1247.21
839.65	1269.74
839.82	1263.60
839.99	1253.36
840.16	1232.88
840.33	1216.49
840.50	1347.56
840.67	1282.03
840.84	1318.89
841.01	1198.06
841.18	1255.40
841.35	1271.79
841.52	1300.46
841.69	1337.32
841.86	1339.37
842.03	1288.17
842.20	1228.78
842.37	1210.35
842.54	1275.88
842.71	1226.73
842.88	1263.60
843.05	1234.93
843.22	1224.69
843.39	1269.74
843.56	1282.03
843.73	1226.73
843.90	1241.07
844.07	1212.40
844.24	1208.30
844.41	1239.02
844.58	1216.49
844.75	1261.55
844.92	1267.69
845.09	1263.60
845.26	1269.74
845.43	1312.75
845.60	1288.17
845.77	1292.27
845.94	1306.60
846.10	1288.17
846.27	1245.16
846.44	1318.89
846.61	1236.97
846.78	1208.30
846.95	1286.12
847.12	1269.74
847.29	1271.79
847.46	1290.22
847.63	1316.84
847.80	1208.30
847.97	1298.41
848.14	1318.89
848.31	1271.79
848.48	1275.88
848.65	1263.60
848.82	1236.97
848.98	1253.36
849.15	1294.32
849.32	1298.41
849.49	1245.16
849.66	1257.45
849.83	1247.21
850.00	1253.36
850.17	1224.69
850.34	1232.88
850.51	1187.82
850.68	1282.03
850.85	1300.46
851.01	1275.88
851.18	1257.45
851.35	1294.32
851.52	1265.64
851.69	1224.69
851.86	1279.98
852.03	1255.40
852.20	1286.12
852.37	1271.79
852.53	1282.03
852.70	1220.59
852.87	1247.21
853.04	1310.70
853.21	1306.60
853.38	1310.70
853.55	1314.80
853.72	1298.41
853.89	1204.21
854.05	1243.12
854.22	1259.50
854.39	1345.52
854.56	1282.03
854.73	1279.98
854.90	1269.74
855.07	1302.51
855.23	1224.69
855.40	1298.41
855.57	1259.50
855.74	1198.06
855.91	1228.78
856.08	1253.36
856.25	1288.17
856.41	1294.32
856.58	1343.47
856.75	1275.88
856.92	1216.49
857.09	1304.56
857.26	1187.82
857.42	1273.84
857.59	1304.56
857.76	1277.93
857.93	1322.99
858.10	1226.73
858.27	1277.93
858.43	1363.95
858.60	1224.69
858.77	1251.31
858.94	1318.89
859.11	1327.08
859.27	1241.07
859.44	1282.03
859.61	1296.36
859.78	1245.16
859.95	1212.40
860.12	1273.84
860.28	1185.77
860.45	1279.98
860.62	1298.41
860.79	1318.89
860.95	1247.21
861.12	1279.98
861.29	1204.21
861.46	1255.40
861.63	1222.64
861.79	1312.75
861.96	1263.60
862.13	1243.12
862.30	1304.56
862.47	1304.56
862.63	1275.88
862.80	1265.64
862.97	1261.55
863.14	1302.51
863.30	1302.51
863.47	1294.32
863.64	1273.84
863.81	1249.26
863.97	1306.60
864.14	1261.55
864.31	1265.64
864.48	1251.31
864.65	1335.28
864.81	1296.36
864.98	1185.77
865.15	1325.04
865.32	1296.36
865.48	1357.80
865.65	1277.93
865.82	1232.88
865.98	1308.65
866.15	1273.84
866.32	1288.17
866.49	1236.97
866.65	1290.22
866.82	1263.60
866.99	1247.21
867.16	1245.16
867.32	1257.45
867.49	1249.26
867.66	1206.25
867.83	1290.22
867.99	1216.49
868.16	1327.08
868.33	1341.42
868.49	1335.28
868.66	1191.92
868.83	1208.30
868.99	1318.89
869.16	1239.02
869.33	1222.64
869.50	1288.17
869.66	1251.31
869.83	1277.93
870.00	1273.84
870.16	1257.45
870.33	1236.97
870.50	1187.82
870.66	1210.35
870.83	1273.84
871.00	1234.93
871.17	1204.21
871.33	1282.03
871.50	1255.40
871.67	1257.45
871.83	1314.80
872.00	1228.78
872.17	1273.84
872.33	1214.45
872.50	1271.79
872.67	1329.13
872.83	1247.21
873.00	1306.60
873.17	1329.13
873.33	1349.61
873.50	1304.56
873.67	1286.12
873.83	1304.56
874.00	1263.60
874.16	1300.46
874.33	1271.79
874.50	1267.69
874.66	1243.12
874.83	1267.69
875.00	1245.16
875.16	1251.31
875.33	1288.17
875.50	1243.12
875.66	1271.79
875.83	1228.78
875.99	1304.56
876.16	1261.55
876.33	1230.83
876.49	1263.60
876.66	1282.03
876.83	1200.11
876.99	1247.21
877.16	1234.93
877.32	1241.07
877.49	1312.75
877.66	1257.45
877.82	1331.18
877.99	1333.23
878.15	1329.13
878.32	1206.25
878.49	1304.56
878.65	1247.21
878.82	1284.08
878.98	1251.31
879.15	1257.45
879.32	1310.70
879.48	1300.46
879.65	1218.54
879.81	1271.79
879.98	1218.54
880.15	1296.36
880.31	1232.88
880.48	1255.40
880.64	1249.26
880.81	1288.17
880.97	1308.65
881.14	1288.17
881.31	1173.49
881.47	1273.84
881.64	1279.98
881.80	1337.32
881.97	1327.08
882.13	1267.69
882.30	1331.18
882.47	1271.79
882.63	1234.93
882.80	1273.84
882.96	1290.22
883.13	1179.63
883.29	1275.88
883.46	1329.13
883.62	1277.93
883.79	1228.78
883.95	1353.71
884.12	1296.36
884.29	1314.80
884.45	1224.69
884.62	1241.07
884.78	1298.41
884.95	1232.88
885.11	1277.93
885.28	1277.93
885.44	1271.79
885.61	1318.89
885.77	1214.45
885.94	1243.12
886.10	1259.50
886.27	1261.55
886.43	1226.73
886.60	1271.79
886.76	1216.49
886.93	1308.65
887.09	1306.60
887.26	1230.83
887.42	1273.84
887.59	1202.16
887.75	1249.26
887.92	1232.88
888.08	1269.74
888.25	1253.36
888.41	1253.36
888.58	1232.88
888.74	1261.55
888.91	1267.69
>>>>>End Processed Spectral Data<<<<<
