SpectraSuite Data File
++++++++++++++++++++++++++++++++++++
Date: Sun Apr 03 19:55:39 CEST 2016
User: root
Dark Spectrum Present: No
Reference Spectrum Present: No
Number of Sampled Component Spectra: 1
Spectrometers: USB4C02835
Integration Time (usec): 10000 (USB4C02835)
Spectra Averaged: 1 (USB4C02835)
Boxcar Smoothing: 0 (USB4C02835)
Correct for Electrical Dark: No (USB4C02835)
Strobe/Lamp Enabled: No (USB4C02835)
Correct for Detector Non-linearity: No (USB4C02835)
Correct for Stray Light: No (USB4C02835)
Number of Pixels in Processed Spectrum: 3648
>>>>>Begin Processed Spectral Data<<<<<
177.47	1255.40
177.69	1255.40
177.91	1255.40
178.13	1241.07
178.36	1216.49
178.58	1277.93
178.80	1284.08
179.02	1300.46
179.24	1255.40
179.46	1298.41
179.68	1296.36
179.90	1284.08
180.13	1183.73
180.35	1275.88
180.57	1216.49
180.79	1204.21
181.01	1255.40
181.23	1257.45
181.45	1187.82
181.67	1292.27
181.90	1345.52
182.12	1247.21
182.34	1271.79
182.56	1220.59
182.78	1312.75
183.00	1273.84
183.22	1308.65
183.44	1288.17
183.66	1222.64
183.89	1224.69
184.11	1198.06
184.33	1257.45
184.55	1290.22
184.77	1204.21
184.99	1286.12
185.21	1316.84
185.43	1292.27
185.65	1292.27
185.87	1273.84
186.10	1220.59
186.32	1200.11
186.54	1267.69
186.76	1271.79
186.98	1218.54
187.20	1224.69
187.42	1148.91
187.64	1239.02
187.86	1269.74
188.08	1300.46
188.30	1325.04
188.52	1296.36
188.75	1245.16
188.97	1290.22
189.19	1224.69
189.41	1271.79
189.63	1282.03
189.85	1210.35
190.07	1210.35
190.29	1255.40
190.51	1296.36
190.73	1333.23
190.95	1243.12
191.17	1220.59
191.39	1273.84
191.61	1220.59
191.84	1251.31
192.06	1269.74
192.28	1224.69
192.50	1308.65
192.72	1218.54
192.94	1202.16
193.16	1304.56
193.38	1282.03
193.60	1247.21
193.82	1265.64
194.04	1253.36
194.26	1275.88
194.48	1279.98
194.70	1351.66
194.92	1249.26
195.14	1218.54
195.36	1126.38
195.58	1279.98
195.80	1284.08
196.02	1239.02
196.24	1292.27
196.46	1279.98
196.69	1275.88
196.91	1284.08
197.13	1261.55
197.35	1294.32
197.57	1267.69
197.79	1224.69
198.01	1275.88
198.23	1216.49
198.45	1247.21
198.67	1279.98
198.89	1255.40
199.11	1310.70
199.33	1271.79
199.55	1208.30
199.77	1241.07
199.99	1241.07
200.21	1277.93
200.43	1306.60
200.65	1263.60
200.87	1296.36
201.09	1273.84
201.31	1226.73
201.53	1304.56
201.75	1218.54
201.97	1239.02
202.19	1236.97
202.41	1298.41
202.63	1329.13
202.85	1241.07
203.07	1269.74
203.29	1288.17
203.51	1239.02
203.73	1179.63
203.95	1300.46
204.17	1269.74
204.39	1271.79
204.61	1234.93
204.83	1210.35
205.05	1269.74
205.27	1312.75
205.49	1239.02
205.71	1218.54
205.93	1222.64
206.15	1273.84
206.37	1310.70
206.59	1331.18
206.81	1298.41
207.03	1247.21
207.25	1273.84
207.47	1370.09
207.69	1230.83
207.91	1322.99
208.13	1331.18
208.34	1230.83
208.56	1243.12
208.78	1290.22
209.00	1255.40
209.22	1277.93
209.44	1196.01
209.66	1259.50
209.88	1232.88
210.10	1296.36
210.32	1300.46
210.54	1306.60
210.76	1316.84
210.98	1257.45
211.20	1257.45
211.42	1253.36
211.64	1292.27
211.86	1277.93
212.08	1251.31
212.30	1230.83
212.52	1255.40
212.74	1314.80
212.96	1279.98
213.17	1331.18
213.39	1310.70
213.61	1304.56
213.83	1345.52
214.05	1302.51
214.27	1255.40
214.49	1206.25
214.71	1333.23
214.93	1216.49
215.15	1302.51
215.37	1296.36
215.59	1277.93
215.81	1269.74
216.03	1224.69
216.24	1175.53
216.46	1241.07
216.68	1247.21
216.90	1236.97
217.12	1234.93
217.34	1265.64
217.56	1263.60
217.78	1251.31
218.00	1245.16
218.22	1230.83
218.44	1265.64
218.66	1322.99
218.87	1320.94
219.09	1310.70
219.31	1255.40
219.53	1214.45
219.75	1146.86
219.97	1271.79
220.19	1247.21
220.41	1218.54
220.63	1273.84
220.85	1310.70
221.06	1329.13
221.28	1333.23
221.50	1271.79
221.72	1335.28
221.94	1351.66
222.16	1198.06
222.38	1284.08
222.60	1304.56
222.82	1277.93
223.03	1288.17
223.25	1212.40
223.47	1253.36
223.69	1308.65
223.91	1304.56
224.13	1220.59
224.35	1239.02
224.57	1329.13
224.78	1284.08
225.00	1282.03
225.22	1253.36
225.44	1210.35
225.66	1314.80
225.88	1314.80
226.10	1189.87
226.32	1261.55
226.53	1239.02
226.75	1279.98
226.97	1302.51
227.19	1312.75
227.41	1253.36
227.63	1247.21
227.85	1284.08
228.06	1206.25
228.28	1282.03
228.50	1234.93
228.72	1273.84
228.94	1269.74
229.16	1243.12
229.37	1314.80
229.59	1279.98
229.81	1265.64
230.03	1261.55
230.25	1271.79
230.47	1277.93
230.69	1306.60
230.90	1294.32
231.12	1253.36
231.34	1267.69
231.56	1273.84
231.78	1245.16
232.00	1286.12
232.21	1292.27
232.43	1263.60
232.65	1208.30
232.87	1261.55
233.09	1208.30
233.30	1288.17
233.52	1230.83
233.74	1206.25
233.96	1353.71
234.18	1269.74
234.40	1277.93
234.61	1284.08
234.83	1284.08
235.05	1300.46
235.27	1288.17
235.49	1290.22
235.70	1310.70
235.92	1202.16
236.14	1314.80
236.36	1202.16
236.58	1218.54
236.79	1234.93
237.01	1275.88
237.23	1327.08
237.45	1277.93
237.67	1241.07
237.88	1333.23
238.10	1239.02
238.32	1208.30
238.54	1298.41
238.76	1312.75
238.97	1357.80
239.19	1241.07
239.41	1259.50
239.63	1228.78
239.85	1306.60
240.06	1185.77
240.28	1318.89
240.50	1265.64
240.72	1271.79
240.93	1257.45
241.15	1288.17
241.37	1296.36
241.59	1304.56
241.81	1314.80
242.02	1294.32
242.24	1247.21
242.46	1282.03
242.68	1255.40
242.89	1316.84
243.11	1290.22
243.33	1236.97
243.55	1273.84
243.76	1220.59
243.98	1329.13
244.20	1347.56
244.42	1273.84
244.64	1382.38
244.85	1261.55
245.07	1294.32
245.29	1298.41
245.51	1226.73
245.72	1241.07
245.94	1257.45
246.16	1253.36
246.38	1239.02
246.59	1308.65
246.81	1251.31
247.03	1275.88
247.24	1224.69
247.46	1253.36
247.68	1320.94
247.90	1181.68
248.11	1306.60
248.33	1329.13
248.55	1263.60
248.77	1255.40
248.98	1271.79
249.20	1296.36
249.42	1294.32
249.64	1247.21
249.85	1304.56
250.07	1189.87
250.29	1294.32
250.50	1263.60
250.72	1232.88
250.94	1189.87
251.16	1239.02
251.37	1300.46
251.59	1347.56
251.81	1300.46
252.02	1234.93
252.24	1322.99
252.46	1212.40
252.68	1290.22
252.89	1232.88
253.11	1255.40
253.33	1243.12
253.54	1224.69
253.76	1224.69
253.98	1292.27
254.20	1255.40
254.41	1265.64
254.63	1277.93
254.85	1230.83
255.06	1249.26
255.28	1249.26
255.50	1277.93
255.71	1243.12
255.93	1290.22
256.15	1265.64
256.36	1279.98
256.58	1273.84
256.80	1314.80
257.02	1298.41
257.23	1253.36
257.45	1269.74
257.67	1271.79
257.88	1310.70
258.10	1290.22
258.32	1241.07
258.53	1314.80
258.75	1263.60
258.97	1261.55
259.18	1314.80
259.40	1253.36
259.62	1282.03
259.83	1333.23
260.05	1232.88
260.27	1312.75
260.48	1288.17
260.70	1257.45
260.92	1255.40
261.13	1261.55
261.35	1208.30
261.57	1253.36
261.78	1304.56
262.00	1230.83
262.22	1249.26
262.43	1267.69
262.65	1226.73
262.86	1210.35
263.08	1230.83
263.30	1298.41
263.51	1259.50
263.73	1216.49
263.95	1232.88
264.16	1282.03
264.38	1271.79
264.60	1296.36
264.81	1294.32
265.03	1214.45
265.25	1228.78
265.46	1267.69
265.68	1329.13
265.89	1257.45
266.11	1304.56
266.33	1259.50
266.54	1290.22
266.76	1320.94
266.98	1261.55
267.19	1310.70
267.41	1271.79
267.62	1261.55
267.84	1265.64
268.06	1271.79
268.27	1255.40
268.49	1316.84
268.70	1253.36
268.92	1349.61
269.14	1327.08
269.35	1243.12
269.57	1271.79
269.79	1288.17
270.00	1253.36
270.22	1210.35
270.43	1218.54
270.65	1296.36
270.87	1257.45
271.08	1339.37
271.30	1286.12
271.51	1277.93
271.73	1220.59
271.95	1259.50
272.16	1294.32
272.38	1249.26
272.59	1282.03
272.81	1290.22
273.02	1279.98
273.24	1277.93
273.46	1292.27
273.67	1255.40
273.89	1265.64
274.10	1255.40
274.32	1284.08
274.54	1261.55
274.75	1263.60
274.97	1312.75
275.18	1206.25
275.40	1296.36
275.61	1265.64
275.83	1181.68
276.05	1288.17
276.26	1263.60
276.48	1236.97
276.69	1191.92
276.91	1279.98
277.12	1284.08
277.34	1247.21
277.55	1259.50
277.77	1296.36
277.99	1232.88
278.20	1269.74
278.42	1341.42
278.63	1134.57
278.85	1198.06
279.06	1208.30
279.28	1298.41
279.49	1277.93
279.71	1267.69
279.93	1259.50
280.14	1245.16
280.36	1282.03
280.57	1230.83
280.79	1296.36
281.00	1239.02
281.22	1257.45
281.43	1353.71
281.65	1265.64
281.86	1288.17
282.08	1245.16
282.29	1243.12
282.51	1189.87
282.73	1220.59
282.94	1310.70
283.16	1339.37
283.37	1302.51
283.59	1243.12
283.80	1236.97
284.02	1241.07
284.23	1306.60
284.45	1259.50
284.66	1300.46
284.88	1302.51
285.09	1337.32
285.31	1277.93
285.52	1267.69
285.74	1290.22
285.95	1290.22
286.17	1241.07
286.38	1228.78
286.60	1228.78
286.81	1239.02
287.03	1302.51
287.24	1253.36
287.46	1288.17
287.67	1212.40
287.89	1267.69
288.10	1179.63
288.32	1220.59
288.53	1333.23
288.75	1251.31
288.96	1251.31
289.18	1249.26
289.39	1253.36
289.61	1339.37
289.82	1306.60
290.04	1249.26
290.25	1214.45
290.47	1279.98
290.68	1333.23
290.90	1212.40
291.11	1245.16
291.33	1253.36
291.54	1294.32
291.76	1322.99
291.97	1269.74
292.18	1304.56
292.40	1218.54
292.61	1243.12
292.83	1165.29
293.04	1150.96
293.26	1304.56
293.47	1249.26
293.69	1296.36
293.90	1198.06
294.12	1265.64
294.33	1318.89
294.55	1288.17
294.76	1288.17
294.97	1236.97
295.19	1257.45
295.40	1296.36
295.62	1200.11
295.83	1265.64
296.05	1355.76
296.26	1251.31
296.48	1306.60
296.69	1343.47
296.90	1288.17
297.12	1210.35
297.33	1282.03
297.55	1232.88
297.76	1189.87
297.98	1333.23
298.19	1222.64
298.41	1366.00
298.62	1302.51
298.83	1253.36
299.05	1241.07
299.26	1249.26
299.48	1230.83
299.69	1222.64
299.90	1241.07
300.12	1245.16
300.33	1343.47
300.55	1290.22
300.76	1286.12
300.98	1290.22
301.19	1245.16
301.40	1259.50
301.62	1247.21
301.83	1298.41
302.05	1210.35
302.26	1296.36
302.47	1253.36
302.69	1226.73
302.90	1273.84
303.12	1241.07
303.33	1277.93
303.54	1171.44
303.76	1241.07
303.97	1329.13
304.19	1333.23
304.40	1241.07
304.61	1306.60
304.83	1322.99
305.04	1269.74
305.26	1243.12
305.47	1251.31
305.68	1269.74
305.90	1308.65
306.11	1263.60
306.33	1304.56
306.54	1261.55
306.75	1308.65
306.97	1296.36
307.18	1239.02
307.39	1253.36
307.61	1290.22
307.82	1318.89
308.04	1345.52
308.25	1279.98
308.46	1224.69
308.68	1255.40
308.89	1251.31
309.10	1247.21
309.32	1230.83
309.53	1300.46
309.74	1245.16
309.96	1271.79
310.17	1269.74
310.39	1257.45
310.60	1302.51
310.81	1302.51
311.03	1298.41
311.24	1212.40
311.45	1232.88
311.67	1251.31
311.88	1243.12
312.09	1355.76
312.31	1193.97
312.52	1206.25
312.73	1298.41
312.95	1282.03
313.16	1212.40
313.37	1232.88
313.59	1279.98
313.80	1222.64
314.01	1245.16
314.23	1294.32
314.44	1314.80
314.65	1275.88
314.87	1243.12
315.08	1267.69
315.29	1286.12
315.51	1273.84
315.72	1198.06
315.93	1230.83
316.15	1257.45
316.36	1249.26
316.57	1294.32
316.79	1304.56
317.00	1245.16
317.21	1302.51
317.43	1329.13
317.64	1284.08
317.85	1288.17
318.07	1288.17
318.28	1265.64
318.49	1228.78
318.70	1263.60
318.92	1200.11
319.13	1275.88
319.34	1236.97
319.56	1206.25
319.77	1273.84
319.98	1243.12
320.20	1230.83
320.41	1288.17
320.62	1251.31
320.83	1263.60
321.05	1265.64
321.26	1247.21
321.47	1269.74
321.69	1296.36
321.90	1179.63
322.11	1271.79
322.32	1273.84
322.54	1288.17
322.75	1298.41
322.96	1347.56
323.18	1212.40
323.39	1304.56
323.60	1259.50
323.81	1273.84
324.03	1245.16
324.24	1314.80
324.45	1304.56
324.66	1259.50
324.88	1269.74
325.09	1331.18
325.30	1310.70
325.52	1206.25
325.73	1337.32
325.94	1212.40
326.15	1253.36
326.37	1277.93
326.58	1220.59
326.79	1249.26
327.00	1263.60
327.22	1241.07
327.43	1239.02
327.64	1277.93
327.85	1263.60
328.07	1306.60
328.28	1267.69
328.49	1241.07
328.70	1159.15
328.92	1306.60
329.13	1300.46
329.34	1279.98
329.55	1290.22
329.76	1314.80
329.98	1271.79
330.19	1228.78
330.40	1224.69
330.61	1298.41
330.83	1224.69
331.04	1206.25
331.25	1226.73
331.46	1294.32
331.68	1282.03
331.89	1277.93
332.10	1257.45
332.31	1255.40
332.52	1316.84
332.74	1341.42
332.95	1288.17
333.16	1259.50
333.37	1320.94
333.58	1322.99
333.80	1261.55
334.01	1368.04
334.22	1243.12
334.43	1277.93
334.64	1198.06
334.86	1198.06
335.07	1306.60
335.28	1286.12
335.49	1271.79
335.70	1269.74
335.92	1271.79
336.13	1296.36
336.34	1265.64
336.55	1341.42
336.76	1286.12
336.98	1298.41
337.19	1294.32
337.40	1288.17
337.61	1249.26
337.82	1282.03
338.04	1232.88
338.25	1234.93
338.46	1239.02
338.67	1241.07
338.88	1265.64
339.09	1322.99
339.31	1206.25
339.52	1198.06
339.73	1191.92
339.94	1292.27
340.15	1294.32
340.36	1267.69
340.58	1282.03
340.79	1249.26
341.00	1263.60
341.21	1236.97
341.42	1243.12
341.63	1220.59
341.85	1249.26
342.06	1228.78
342.27	1257.45
342.48	1241.07
342.69	1253.36
342.90	1263.60
343.12	1193.97
343.33	1290.22
343.54	1263.60
343.75	1290.22
343.96	1253.36
344.17	1236.97
344.38	1331.18
344.60	1320.94
344.81	1220.59
345.02	1230.83
345.23	1271.79
345.44	1228.78
345.65	1282.03
345.86	1320.94
346.07	1255.40
346.29	1302.51
346.50	1249.26
346.71	1302.51
346.92	1298.41
347.13	1312.75
347.34	1210.35
347.55	1302.51
347.76	1290.22
347.98	1296.36
348.19	1271.79
348.40	1296.36
348.61	1275.88
348.82	1345.52
349.03	1224.69
349.24	1236.97
349.45	1290.22
349.66	1222.64
349.88	1265.64
350.09	1302.51
350.30	1257.45
350.51	1290.22
350.72	1339.37
350.93	1200.11
351.14	1292.27
351.35	1253.36
351.56	1267.69
351.77	1306.60
351.99	1257.45
352.20	1355.76
352.41	1257.45
352.62	1261.55
352.83	1255.40
353.04	1247.21
353.25	1234.93
353.46	1314.80
353.67	1247.21
353.88	1351.66
354.09	1255.40
354.30	1261.55
354.52	1200.11
354.73	1196.01
354.94	1200.11
355.15	1310.70
355.36	1224.69
355.57	1314.80
355.78	1302.51
355.99	1273.84
356.20	1331.18
356.41	1247.21
356.62	1253.36
356.83	1279.98
357.04	1306.60
357.25	1239.02
357.46	1269.74
357.68	1228.78
357.89	1263.60
358.10	1239.02
358.31	1232.88
358.52	1267.69
358.73	1247.21
358.94	1296.36
359.15	1265.64
359.36	1218.54
359.57	1206.25
359.78	1304.56
359.99	1273.84
360.20	1273.84
360.41	1198.06
360.62	1288.17
360.83	1236.97
361.04	1204.21
361.25	1220.59
361.46	1288.17
361.67	1214.45
361.88	1255.40
362.09	1245.16
362.30	1228.78
362.51	1191.92
362.72	1296.36
362.93	1216.49
363.14	1284.08
363.35	1271.79
363.56	1259.50
363.78	1320.94
363.99	1279.98
364.20	1286.12
364.41	1306.60
364.62	1341.42
364.83	1261.55
365.04	1263.60
365.25	1288.17
365.46	1273.84
365.67	1253.36
365.88	1277.93
366.09	1327.08
366.30	1282.03
366.51	1224.69
366.72	1286.12
366.93	1230.83
367.14	1255.40
367.35	1296.36
367.56	1290.22
367.77	1259.50
367.98	1312.75
368.18	1298.41
368.39	1214.45
368.60	1331.18
368.81	1253.36
369.02	1269.74
369.23	1261.55
369.44	1271.79
369.65	1228.78
369.86	1269.74
370.07	1206.25
370.28	1243.12
370.49	1239.02
370.70	1327.08
370.91	1261.55
371.12	1310.70
371.33	1243.12
371.54	1302.51
371.75	1300.46
371.96	1314.80
372.17	1181.68
372.38	1253.36
372.59	1198.06
372.80	1314.80
373.01	1273.84
373.22	1279.98
373.43	1255.40
373.64	1265.64
373.85	1210.35
374.06	1331.18
374.26	1296.36
374.47	1288.17
374.68	1241.07
374.89	1325.04
375.10	1198.06
375.31	1279.98
375.52	1292.27
375.73	1236.97
375.94	1234.93
376.15	1294.32
376.36	1304.56
376.57	1259.50
376.78	1269.74
376.99	1302.51
377.20	1204.21
377.40	1292.27
377.61	1349.61
377.82	1327.08
378.03	1343.47
378.24	1257.45
378.45	1331.18
378.66	1239.02
378.87	1288.17
379.08	1267.69
379.29	1329.13
379.50	1359.85
379.71	1251.31
379.91	1226.73
380.12	1247.21
380.33	1267.69
380.54	1288.17
380.75	1296.36
380.96	1245.16
381.17	1298.41
381.38	1284.08
381.59	1251.31
381.80	1241.07
382.00	1279.98
382.21	1273.84
382.42	1251.31
382.63	1284.08
382.84	1226.73
383.05	1339.37
383.26	1206.25
383.47	1220.59
383.68	1275.88
383.88	1239.02
384.09	1241.07
384.30	1265.64
384.51	1263.60
384.72	1226.73
384.93	1222.64
385.14	1290.22
385.35	1304.56
385.55	1185.77
385.76	1279.98
385.97	1236.97
386.18	1230.83
386.39	1290.22
386.60	1296.36
386.81	1273.84
387.02	1218.54
387.22	1239.02
387.43	1200.11
387.64	1200.11
387.85	1286.12
388.06	1228.78
388.27	1304.56
388.48	1273.84
388.68	1345.52
388.89	1226.73
389.10	1253.36
389.31	1275.88
389.52	1267.69
389.73	1263.60
389.93	1302.51
390.14	1306.60
390.35	1290.22
390.56	1265.64
390.77	1296.36
390.98	1249.26
391.18	1222.64
391.39	1257.45
391.60	1220.59
391.81	1239.02
392.02	1208.30
392.23	1196.01
392.43	1239.02
392.64	1351.66
392.85	1214.45
393.06	1292.27
393.27	1265.64
393.47	1288.17
393.68	1245.16
393.89	1288.17
394.10	1277.93
394.31	1243.12
394.52	1239.02
394.72	1337.32
394.93	1325.04
395.14	1243.12
395.35	1304.56
395.56	1265.64
395.76	1220.59
395.97	1265.64
396.18	1267.69
396.39	1257.45
396.60	1318.89
396.80	1271.79
397.01	1216.49
397.22	1224.69
397.43	1290.22
397.64	1322.99
397.84	1269.74
398.05	1206.25
398.26	1226.73
398.47	1265.64
398.67	1271.79
398.88	1251.31
399.09	1249.26
399.30	1290.22
399.51	1239.02
399.71	1265.64
399.92	1204.21
400.13	1202.16
400.34	1267.69
400.54	1316.84
400.75	1241.07
400.96	1277.93
401.17	1349.61
401.37	1269.74
401.58	1241.07
401.79	1236.97
402.00	1255.40
402.21	1265.64
402.41	1277.93
402.62	1175.53
402.83	1275.88
403.04	1302.51
403.24	1345.52
403.45	1275.88
403.66	1300.46
403.87	1279.98
404.07	1370.09
404.28	1210.35
404.49	1298.41
404.70	1273.84
404.90	1220.59
405.11	1243.12
405.32	1290.22
405.52	1251.31
405.73	1261.55
405.94	1214.45
406.15	1198.06
406.35	1304.56
406.56	1269.74
406.77	1290.22
406.98	1296.36
407.18	1341.42
407.39	1314.80
407.60	1259.50
407.80	1261.55
408.01	1267.69
408.22	1220.59
408.43	1198.06
408.63	1239.02
408.84	1230.83
409.05	1302.51
409.25	1247.21
409.46	1286.12
409.67	1222.64
409.88	1265.64
410.08	1267.69
410.29	1351.66
410.50	1206.25
410.70	1267.69
410.91	1243.12
411.12	1218.54
411.32	1269.74
411.53	1249.26
411.74	1265.64
411.95	1239.02
412.15	1300.46
412.36	1277.93
412.57	1247.21
412.77	1265.64
412.98	1277.93
413.19	1306.60
413.39	1284.08
413.60	1245.16
413.81	1282.03
414.01	1296.36
414.22	1212.40
414.43	1290.22
414.63	1200.11
414.84	1239.02
415.05	1300.46
415.25	1251.31
415.46	1267.69
415.67	1220.59
415.87	1275.88
416.08	1284.08
416.29	1310.70
416.49	1284.08
416.70	1298.41
416.91	1220.59
417.11	1269.74
417.32	1271.79
417.53	1249.26
417.73	1300.46
417.94	1277.93
418.15	1333.23
418.35	1345.52
418.56	1261.55
418.77	1239.02
418.97	1277.93
419.18	1230.83
419.38	1308.65
419.59	1263.60
419.80	1261.55
420.00	1296.36
420.21	1265.64
420.42	1286.12
420.62	1296.36
420.83	1241.07
421.04	1343.47
421.24	1288.17
421.45	1288.17
421.65	1300.46
421.86	1214.45
422.07	1286.12
422.27	1304.56
422.48	1304.56
422.69	1224.69
422.89	1282.03
423.10	1249.26
423.30	1288.17
423.51	1294.32
423.72	1302.51
423.92	1239.02
424.13	1273.84
424.33	1288.17
424.54	1343.47
424.75	1247.21
424.95	1279.98
425.16	1271.79
425.36	1269.74
425.57	1288.17
425.78	1325.04
425.98	1247.21
426.19	1341.42
426.39	1218.54
426.60	1282.03
426.81	1257.45
427.01	1239.02
427.22	1322.99
427.42	1298.41
427.63	1255.40
427.83	1308.65
428.04	1247.21
428.25	1269.74
428.45	1212.40
428.66	1318.89
428.86	1255.40
429.07	1269.74
429.28	1347.56
429.48	1255.40
429.69	1329.13
429.89	1353.71
430.10	1253.36
430.30	1329.13
430.51	1230.83
430.71	1253.36
430.92	1302.51
431.13	1292.27
431.33	1187.82
431.54	1269.74
431.74	1306.60
431.95	1261.55
432.15	1230.83
432.36	1259.50
432.56	1273.84
432.77	1288.17
432.98	1290.22
433.18	1257.45
433.39	1247.21
433.59	1273.84
433.80	1214.45
434.00	1341.42
434.21	1286.12
434.41	1228.78
434.62	1300.46
434.82	1267.69
435.03	1298.41
435.23	1228.78
435.44	1339.37
435.64	1308.65
435.85	1318.89
436.06	1230.83
436.26	1279.98
436.47	1312.75
436.67	1259.50
436.88	1267.69
437.08	1183.73
437.29	1269.74
437.49	1366.00
437.70	1304.56
437.90	1243.12
438.11	1331.18
438.31	1255.40
438.52	1241.07
438.72	1279.98
438.93	1273.84
439.13	1279.98
439.34	1257.45
439.54	1257.45
439.75	1275.88
439.95	1222.64
440.16	1292.27
440.36	1247.21
440.57	1245.16
440.77	1279.98
440.98	1310.70
441.18	1290.22
441.39	1259.50
441.59	1306.60
441.80	1339.37
442.00	1257.45
442.21	1234.93
442.41	1290.22
442.62	1189.87
442.82	1290.22
443.02	1284.08
443.23	1232.88
443.43	1208.30
443.64	1296.36
443.84	1292.27
444.05	1165.29
444.25	1234.93
444.46	1279.98
444.66	1216.49
444.87	1308.65
445.07	1277.93
445.28	1253.36
445.48	1275.88
445.69	1316.84
445.89	1308.65
446.09	1222.64
446.30	1292.27
446.50	1308.65
446.71	1210.35
446.91	1329.13
447.12	1286.12
447.32	1267.69
447.53	1378.28
447.73	1331.18
447.93	1275.88
448.14	1277.93
448.34	1298.41
448.55	1306.60
448.75	1230.83
448.96	1292.27
449.16	1290.22
449.36	1241.07
449.57	1259.50
449.77	1257.45
449.98	1314.80
450.18	1224.69
450.39	1286.12
450.59	1302.51
450.79	1212.40
451.00	1320.94
451.20	1273.84
451.41	1243.12
451.61	1239.02
451.81	1273.84
452.02	1296.36
452.22	1316.84
452.43	1218.54
452.63	1257.45
452.84	1294.32
453.04	1282.03
453.24	1212.40
453.45	1228.78
453.65	1308.65
453.86	1325.04
454.06	1296.36
454.26	1230.83
454.47	1232.88
454.67	1282.03
454.87	1206.25
455.08	1273.84
455.28	1271.79
455.49	1296.36
455.69	1298.41
455.89	1351.66
456.10	1296.36
456.30	1269.74
456.51	1269.74
456.71	1232.88
456.91	1294.32
457.12	1236.97
457.32	1314.80
457.52	1310.70
457.73	1300.46
457.93	1286.12
458.14	1298.41
458.34	1255.40
458.54	1236.97
458.75	1267.69
458.95	1296.36
459.15	1314.80
459.36	1253.36
459.56	1345.52
459.76	1335.28
459.97	1255.40
460.17	1275.88
460.37	1341.42
460.58	1255.40
460.78	1370.09
460.99	1255.40
461.19	1181.68
461.39	1179.63
461.60	1306.60
461.80	1290.22
462.00	1284.08
462.21	1347.56
462.41	1265.64
462.61	1275.88
462.82	1251.31
463.02	1282.03
463.22	1255.40
463.43	1265.64
463.63	1298.41
463.83	1245.16
464.04	1236.97
464.24	1259.50
464.44	1290.22
464.64	1277.93
464.85	1300.46
465.05	1290.22
465.25	1255.40
465.46	1232.88
465.66	1271.79
465.86	1228.78
466.07	1279.98
466.27	1216.49
466.47	1255.40
466.68	1267.69
466.88	1273.84
467.08	1308.65
467.29	1312.75
467.49	1222.64
467.69	1296.36
467.89	1212.40
468.10	1269.74
468.30	1243.12
468.50	1347.56
468.71	1255.40
468.91	1234.93
469.11	1245.16
469.31	1220.59
469.52	1228.78
469.72	1277.93
469.92	1290.22
470.13	1322.99
470.33	1277.93
470.53	1206.25
470.73	1243.12
470.94	1296.36
471.14	1331.18
471.34	1335.28
471.54	1284.08
471.75	1345.52
471.95	1335.28
472.15	1363.95
472.36	1214.45
472.56	1290.22
472.76	1251.31
472.96	1208.30
473.17	1304.56
473.37	1267.69
473.57	1296.36
473.77	1298.41
473.98	1370.09
474.18	1212.40
474.38	1316.84
474.58	1265.64
474.79	1241.07
474.99	1253.36
475.19	1257.45
475.39	1249.26
475.60	1222.64
475.80	1288.17
476.00	1243.12
476.20	1286.12
476.41	1361.90
476.61	1261.55
476.81	1314.80
477.01	1259.50
477.21	1331.18
477.42	1271.79
477.62	1296.36
477.82	1191.92
478.02	1216.49
478.23	1196.01
478.43	1187.82
478.63	1288.17
478.83	1314.80
479.03	1216.49
479.24	1327.08
479.44	1318.89
479.64	1249.26
479.84	1218.54
480.04	1253.36
480.25	1290.22
480.45	1200.11
480.65	1288.17
480.85	1294.32
481.06	1251.31
481.26	1306.60
481.46	1220.59
481.66	1247.21
481.86	1288.17
482.06	1279.98
482.27	1224.69
482.47	1286.12
482.67	1247.21
482.87	1257.45
483.07	1320.94
483.28	1275.88
483.48	1228.78
483.68	1298.41
483.88	1304.56
484.08	1286.12
484.29	1271.79
484.49	1196.01
484.69	1277.93
484.89	1277.93
485.09	1167.34
485.29	1290.22
485.50	1249.26
485.70	1228.78
485.90	1249.26
486.10	1257.45
486.30	1239.02
486.50	1159.15
486.71	1273.84
486.91	1269.74
487.11	1239.02
487.31	1329.13
487.51	1243.12
487.71	1241.07
487.91	1308.65
488.12	1216.49
488.32	1263.60
488.52	1257.45
488.72	1247.21
488.92	1234.93
489.12	1265.64
489.32	1214.45
489.53	1298.41
489.73	1292.27
489.93	1265.64
490.13	1296.36
490.33	1255.40
490.53	1263.60
490.73	1247.21
490.94	1275.88
491.14	1353.71
491.34	1220.59
491.54	1320.94
491.74	1249.26
491.94	1206.25
492.14	1265.64
492.34	1259.50
492.54	1239.02
492.75	1214.45
492.95	1224.69
493.15	1292.27
493.35	1267.69
493.55	1220.59
493.75	1271.79
493.95	1294.32
494.15	1333.23
494.35	1212.40
494.56	1290.22
494.76	1263.60
494.96	1290.22
495.16	1189.87
495.36	1261.55
495.56	1300.46
495.76	1279.98
495.96	1232.88
496.16	1241.07
496.36	1271.79
496.56	1290.22
496.77	1271.79
496.97	1165.29
497.17	1308.65
497.37	1368.04
497.57	1259.50
497.77	1343.47
497.97	1292.27
498.17	1298.41
498.37	1171.44
498.57	1228.78
498.77	1296.36
498.97	1318.89
499.17	1265.64
499.38	1224.69
499.58	1271.79
499.78	1284.08
499.98	1212.40
500.18	1300.46
500.38	1253.36
500.58	1167.34
500.78	1333.23
500.98	1329.13
501.18	1269.74
501.38	1275.88
501.58	1294.32
501.78	1300.46
501.98	1286.12
502.18	1220.59
502.38	1232.88
502.58	1292.27
502.78	1312.75
502.98	1273.84
503.18	1255.40
503.38	1284.08
503.59	1327.08
503.79	1296.36
503.99	1302.51
504.19	1200.11
504.39	1232.88
504.59	1247.21
504.79	1230.83
504.99	1236.97
505.19	1216.49
505.39	1302.51
505.59	1241.07
505.79	1222.64
505.99	1253.36
506.19	1263.60
506.39	1284.08
506.59	1224.69
506.79	1372.14
506.99	1322.99
507.19	1241.07
507.39	1257.45
507.59	1226.73
507.79	1247.21
507.99	1296.36
508.19	1220.59
508.39	1279.98
508.59	1189.87
508.79	1314.80
508.99	1304.56
509.19	1220.59
509.39	1222.64
509.59	1273.84
509.79	1228.78
509.99	1279.98
510.19	1304.56
510.39	1294.32
510.59	1282.03
510.79	1310.70
510.99	1318.89
511.19	1257.45
511.39	1275.88
511.59	1234.93
511.79	1273.84
511.99	1234.93
512.19	1259.50
512.38	1337.32
512.58	1236.97
512.78	1261.55
512.98	1282.03
513.18	1253.36
513.38	1292.27
513.58	1241.07
513.78	1279.98
513.98	1247.21
514.18	1243.12
514.38	1277.93
514.58	1327.08
514.78	1290.22
514.98	1269.74
515.18	1339.37
515.38	1273.84
515.58	1337.32
515.78	1294.32
515.98	1298.41
516.18	1206.25
516.38	1279.98
516.57	1263.60
516.77	1230.83
516.97	1312.75
517.17	1333.23
517.37	1279.98
517.57	1241.07
517.77	1214.45
517.97	1284.08
518.17	1253.36
518.37	1282.03
518.57	1310.70
518.77	1282.03
518.97	1390.57
519.16	1349.61
519.36	1249.26
519.56	1241.07
519.76	1265.64
519.96	1243.12
520.16	1249.26
520.36	1259.50
520.56	1232.88
520.76	1245.16
520.96	1210.35
521.16	1271.79
521.35	1236.97
521.55	1284.08
521.75	1402.86
521.95	1298.41
522.15	1202.16
522.35	1343.47
522.55	1267.69
522.75	1247.21
522.95	1310.70
523.14	1265.64
523.34	1275.88
523.54	1179.63
523.74	1277.93
523.94	1351.66
524.14	1243.12
524.34	1189.87
524.54	1236.97
524.73	1218.54
524.93	1325.04
525.13	1288.17
525.33	1282.03
525.53	1320.94
525.73	1310.70
525.93	1314.80
526.13	1224.69
526.32	1249.26
526.52	1247.21
526.72	1290.22
526.92	1275.88
527.12	1343.47
527.32	1300.46
527.52	1247.21
527.71	1302.51
527.91	1286.12
528.11	1261.55
528.31	1277.93
528.51	1296.36
528.71	1298.41
528.90	1214.45
529.10	1376.24
529.30	1269.74
529.50	1292.27
529.70	1247.21
529.90	1273.84
530.09	1279.98
530.29	1239.02
530.49	1269.74
530.69	1271.79
530.89	1193.97
531.09	1279.98
531.28	1239.02
531.48	1202.16
531.68	1245.16
531.88	1271.79
532.08	1298.41
532.28	1236.97
532.47	1273.84
532.67	1212.40
532.87	1214.45
533.07	1257.45
533.27	1294.32
533.46	1263.60
533.66	1261.55
533.86	1288.17
534.06	1345.52
534.26	1318.89
534.45	1245.16
534.65	1363.95
534.85	1292.27
535.05	1220.59
535.25	1306.60
535.44	1257.45
535.64	1245.16
535.84	1249.26
536.04	1232.88
536.24	1292.27
536.43	1269.74
536.63	1290.22
536.83	1331.18
537.03	1277.93
537.22	1279.98
537.42	1284.08
537.62	1337.32
537.82	1284.08
538.02	1212.40
538.21	1271.79
538.41	1300.46
538.61	1271.79
538.81	1191.92
539.00	1331.18
539.20	1273.84
539.40	1284.08
539.60	1261.55
539.79	1277.93
539.99	1298.41
540.19	1290.22
540.39	1277.93
540.58	1273.84
540.78	1320.94
540.98	1230.83
541.18	1306.60
541.37	1306.60
541.57	1331.18
541.77	1226.73
541.97	1224.69
542.16	1239.02
542.36	1308.65
542.56	1335.28
542.76	1288.17
542.95	1261.55
543.15	1306.60
543.35	1300.46
543.54	1269.74
543.74	1312.75
543.94	1288.17
544.14	1265.64
544.33	1241.07
544.53	1341.42
544.73	1234.93
544.93	1277.93
545.12	1218.54
545.32	1318.89
545.52	1234.93
545.71	1200.11
545.91	1302.51
546.11	1290.22
546.30	1239.02
546.50	1222.64
546.70	1222.64
546.90	1228.78
547.09	1196.01
547.29	1288.17
547.49	1300.46
547.68	1232.88
547.88	1304.56
548.08	1355.76
548.27	1210.35
548.47	1343.47
548.67	1275.88
548.87	1378.28
549.06	1296.36
549.26	1277.93
549.46	1314.80
549.65	1241.07
549.85	1314.80
550.05	1296.36
550.24	1318.89
550.44	1322.99
550.64	1259.50
550.83	1314.80
551.03	1187.82
551.23	1300.46
551.42	1269.74
551.62	1275.88
551.82	1308.65
552.01	1333.23
552.21	1277.93
552.41	1286.12
552.60	1290.22
552.80	1257.45
553.00	1304.56
553.19	1316.84
553.39	1290.22
553.59	1290.22
553.78	1298.41
553.98	1273.84
554.17	1257.45
554.37	1353.71
554.57	1368.04
554.76	1298.41
554.96	1302.51
555.16	1275.88
555.35	1355.76
555.55	1271.79
555.75	1298.41
555.94	1312.75
556.14	1347.56
556.33	1327.08
556.53	1245.16
556.73	1304.56
556.92	1275.88
557.12	1259.50
557.32	1261.55
557.51	1279.98
557.71	1259.50
557.90	1198.06
558.10	1275.88
558.30	1298.41
558.49	1279.98
558.69	1310.70
558.88	1306.60
559.08	1275.88
559.28	1298.41
559.47	1277.93
559.67	1339.37
559.86	1286.12
560.06	1269.74
560.26	1347.56
560.45	1230.83
560.65	1345.52
560.84	1294.32
561.04	1284.08
561.24	1247.21
561.43	1253.36
561.63	1236.97
561.82	1275.88
562.02	1253.36
562.22	1325.04
562.41	1243.12
562.61	1249.26
562.80	1210.35
563.00	1290.22
563.19	1320.94
563.39	1413.10
563.59	1259.50
563.78	1284.08
563.98	1298.41
564.17	1273.84
564.37	1224.69
564.56	1353.71
564.76	1253.36
564.96	1257.45
565.15	1230.83
565.35	1263.60
565.54	1239.02
565.74	1259.50
565.93	1333.23
566.13	1306.60
566.32	1210.35
566.52	1265.64
566.71	1353.71
566.91	1259.50
567.11	1294.32
567.30	1302.51
567.50	1331.18
567.69	1298.41
567.89	1294.32
568.08	1265.64
568.28	1279.98
568.47	1277.93
568.67	1368.04
568.86	1302.51
569.06	1284.08
569.25	1273.84
569.45	1288.17
569.64	1353.71
569.84	1314.80
570.04	1306.60
570.23	1218.54
570.43	1312.75
570.62	1257.45
570.82	1347.56
571.01	1327.08
571.21	1263.60
571.40	1312.75
571.60	1239.02
571.79	1230.83
571.99	1234.93
572.18	1259.50
572.38	1245.16
572.57	1314.80
572.77	1296.36
572.96	1212.40
573.16	1300.46
573.35	1290.22
573.55	1247.21
573.74	1253.36
573.94	1253.36
574.13	1282.03
574.33	1312.75
574.52	1243.12
574.71	1322.99
574.91	1288.17
575.10	1241.07
575.30	1216.49
575.49	1232.88
575.69	1298.41
575.88	1275.88
576.08	1308.65
576.27	1241.07
576.47	1234.93
576.66	1265.64
576.86	1224.69
577.05	1349.61
577.25	1277.93
577.44	1259.50
577.64	1306.60
577.83	1304.56
578.02	1286.12
578.22	1347.56
578.41	1347.56
578.61	1284.08
578.80	1290.22
579.00	1294.32
579.19	1288.17
579.39	1302.51
579.58	1349.61
579.77	1294.32
579.97	1318.89
580.16	1241.07
580.36	1351.66
580.55	1335.28
580.75	1353.71
580.94	1292.27
581.13	1372.14
581.33	1267.69
581.52	1277.93
581.72	1302.51
581.91	1288.17
582.11	1253.36
582.30	1329.13
582.49	1339.37
582.69	1347.56
582.88	1325.04
583.08	1224.69
583.27	1290.22
583.47	1253.36
583.66	1288.17
583.85	1245.16
584.05	1259.50
584.24	1263.60
584.44	1200.11
584.63	1251.31
584.82	1265.64
585.02	1236.97
585.21	1302.51
585.41	1312.75
585.60	1284.08
585.79	1294.32
585.99	1269.74
586.18	1222.64
586.37	1273.84
586.57	1288.17
586.76	1273.84
586.96	1294.32
587.15	1298.41
587.34	1249.26
587.54	1218.54
587.73	1232.88
587.93	1357.80
588.12	1304.56
588.31	1318.89
588.51	1304.56
588.70	1388.52
588.89	1322.99
589.09	1337.32
589.28	1284.08
589.47	1259.50
589.67	1271.79
589.86	1269.74
590.06	1230.83
590.25	1320.94
590.44	1226.73
590.64	1232.88
590.83	1310.70
591.02	1214.45
591.22	1224.69
591.41	1236.97
591.60	1282.03
591.80	1282.03
591.99	1273.84
592.18	1300.46
592.38	1247.21
592.57	1253.36
592.76	1312.75
592.96	1292.27
593.15	1269.74
593.34	1325.04
593.54	1228.78
593.73	1222.64
593.92	1251.31
594.12	1304.56
594.31	1296.36
594.50	1347.56
594.70	1271.79
594.89	1228.78
595.08	1325.04
595.28	1243.12
595.47	1275.88
595.66	1302.51
595.86	1277.93
596.05	1245.16
596.24	1351.66
596.43	1241.07
596.63	1257.45
596.82	1320.94
597.01	1310.70
597.21	1333.23
597.40	1288.17
597.59	1232.88
597.79	1288.17
597.98	1265.64
598.17	1300.46
598.36	1263.60
598.56	1296.36
598.75	1198.06
598.94	1265.64
599.14	1261.55
599.33	1359.85
599.52	1261.55
599.71	1286.12
599.91	1325.04
600.10	1314.80
600.29	1320.94
600.48	1253.36
600.68	1312.75
600.87	1251.31
601.06	1241.07
601.26	1187.82
601.45	1298.41
601.64	1310.70
601.83	1316.84
602.03	1314.80
602.22	1363.95
602.41	1320.94
602.60	1232.88
602.80	1275.88
602.99	1275.88
603.18	1273.84
603.37	1279.98
603.57	1290.22
603.76	1282.03
603.95	1294.32
604.14	1302.51
604.34	1331.18
604.53	1292.27
604.72	1230.83
604.91	1290.22
605.10	1255.40
605.30	1232.88
605.49	1372.14
605.68	1347.56
605.87	1298.41
606.07	1331.18
606.26	1243.12
606.45	1239.02
606.64	1273.84
606.84	1255.40
607.03	1265.64
607.22	1296.36
607.41	1228.78
607.60	1318.89
607.80	1279.98
607.99	1286.12
608.18	1302.51
608.37	1267.69
608.56	1265.64
608.76	1298.41
608.95	1353.71
609.14	1292.27
609.33	1333.23
609.52	1288.17
609.72	1302.51
609.91	1284.08
610.10	1267.69
610.29	1273.84
610.48	1302.51
610.68	1220.59
610.87	1290.22
611.06	1273.84
611.25	1314.80
611.44	1263.60
611.63	1302.51
611.83	1245.16
612.02	1206.25
612.21	1247.21
612.40	1347.56
612.59	1304.56
612.79	1296.36
612.98	1310.70
613.17	1331.18
613.36	1329.13
613.55	1325.04
613.74	1275.88
613.93	1331.18
614.13	1243.12
614.32	1325.04
614.51	1249.26
614.70	1284.08
614.89	1224.69
615.08	1243.12
615.28	1339.37
615.47	1282.03
615.66	1261.55
615.85	1234.93
616.04	1370.09
616.23	1200.11
616.42	1255.40
616.62	1279.98
616.81	1267.69
617.00	1279.98
617.19	1212.40
617.38	1294.32
617.57	1269.74
617.76	1359.85
617.95	1269.74
618.15	1236.97
618.34	1327.08
618.53	1275.88
618.72	1290.22
618.91	1302.51
619.10	1325.04
619.29	1247.21
619.48	1314.80
619.68	1355.76
619.87	1292.27
620.06	1200.11
620.25	1292.27
620.44	1302.51
620.63	1269.74
620.82	1290.22
621.01	1308.65
621.20	1292.27
621.39	1208.30
621.59	1325.04
621.78	1259.50
621.97	1255.40
622.16	1243.12
622.35	1214.45
622.54	1257.45
622.73	1378.28
622.92	1300.46
623.11	1261.55
623.30	1318.89
623.49	1253.36
623.68	1312.75
623.88	1239.02
624.07	1265.64
624.26	1228.78
624.45	1304.56
624.64	1224.69
624.83	1310.70
625.02	1296.36
625.21	1224.69
625.40	1298.41
625.59	1249.26
625.78	1388.52
625.97	1320.94
626.16	1255.40
626.35	1316.84
626.54	1318.89
626.74	1265.64
626.93	1249.26
627.12	1325.04
627.31	1277.93
627.50	1243.12
627.69	1288.17
627.88	1304.56
628.07	1325.04
628.26	1368.04
628.45	1359.85
628.64	1294.32
628.83	1316.84
629.02	1357.80
629.21	1282.03
629.40	1325.04
629.59	1310.70
629.78	1304.56
629.97	1185.77
630.16	1359.85
630.35	1288.17
630.54	1265.64
630.73	1341.42
630.92	1294.32
631.11	1247.21
631.30	1370.09
631.49	1325.04
631.68	1310.70
631.87	1339.37
632.06	1556.46
632.25	1540.07
632.44	1443.82
632.63	1439.72
632.82	1640.42
633.01	2037.73
633.20	1796.07
633.39	1810.40
633.58	1796.07
633.77	1802.21
633.96	1642.47
634.15	1855.46
634.34	1986.53
634.53	1923.04
634.72	1697.77
634.91	1566.70
635.10	1544.17
635.29	1525.74
635.48	1482.73
635.67	1468.39
635.86	1470.44
636.05	1431.53
636.24	1357.80
636.43	1335.28
636.62	1343.47
636.81	1267.69
637.00	1392.62
637.19	1286.12
637.38	1363.95
637.57	1314.80
637.76	1343.47
637.95	1320.94
638.14	1370.09
638.33	1327.08
638.52	1339.37
638.71	1275.88
638.89	1337.32
639.08	1304.56
639.27	1316.84
639.46	1310.70
639.65	1294.32
639.84	1368.04
640.03	1347.56
640.22	1343.47
640.41	1255.40
640.60	1298.41
640.79	1314.80
640.98	1261.55
641.17	1282.03
641.36	1261.55
641.55	1290.22
641.74	1316.84
641.92	1337.32
642.11	1259.50
642.30	1294.32
642.49	1345.52
642.68	1239.02
642.87	1302.51
643.06	1249.26
643.25	1241.07
643.44	1257.45
643.63	1253.36
643.82	1218.54
644.00	1277.93
644.19	1150.96
644.38	1245.16
644.57	1292.27
644.76	1318.89
644.95	1288.17
645.14	1308.65
645.33	1355.76
645.52	1228.78
645.71	1175.53
645.89	1267.69
646.08	1271.79
646.27	1366.00
646.46	1269.74
646.65	1279.98
646.84	1279.98
647.03	1216.49
647.22	1288.17
647.40	1302.51
647.59	1279.98
647.78	1234.93
647.97	1271.79
648.16	1257.45
648.35	1331.18
648.54	1325.04
648.73	1337.32
648.91	1296.36
649.10	1370.09
649.29	1249.26
649.48	1312.75
649.67	1230.83
649.86	1306.60
650.05	1253.36
650.23	1325.04
650.42	1310.70
650.61	1302.51
650.80	1275.88
650.99	1288.17
651.18	1255.40
651.36	1302.51
651.55	1259.50
651.74	1306.60
651.93	1275.88
652.12	1304.56
652.31	1277.93
652.49	1275.88
652.68	1296.36
652.87	1253.36
653.06	1298.41
653.25	1327.08
653.44	1214.45
653.62	1267.69
653.81	1230.83
654.00	1277.93
654.19	1355.76
654.38	1249.26
654.56	1239.02
654.75	1275.88
654.94	1263.60
655.13	1353.71
655.32	1204.21
655.51	1236.97
655.69	1273.84
655.88	1214.45
656.07	1296.36
656.26	1308.65
656.45	1191.92
656.63	1222.64
656.82	1277.93
657.01	1306.60
657.20	1314.80
657.38	1212.40
657.57	1259.50
657.76	1300.46
657.95	1247.21
658.14	1224.69
658.32	1292.27
658.51	1302.51
658.70	1318.89
658.89	1347.56
659.08	1218.54
659.26	1263.60
659.45	1312.75
659.64	1265.64
659.83	1212.40
660.01	1236.97
660.20	1226.73
660.39	1243.12
660.58	1236.97
660.76	1230.83
660.95	1265.64
661.14	1308.65
661.33	1298.41
661.51	1263.60
661.70	1212.40
661.89	1282.03
662.08	1253.36
662.26	1216.49
662.45	1273.84
662.64	1214.45
662.83	1269.74
663.01	1290.22
663.20	1282.03
663.39	1271.79
663.58	1239.02
663.76	1241.07
663.95	1300.46
664.14	1335.28
664.32	1277.93
664.51	1259.50
664.70	1327.08
664.89	1259.50
665.07	1288.17
665.26	1249.26
665.45	1241.07
665.64	1316.84
665.82	1312.75
666.01	1312.75
666.20	1331.18
666.38	1290.22
666.57	1210.35
666.76	1257.45
666.95	1232.88
667.13	1257.45
667.32	1245.16
667.51	1220.59
667.69	1261.55
667.88	1284.08
668.07	1263.60
668.25	1196.01
668.44	1245.16
668.63	1265.64
668.81	1243.12
669.00	1183.73
669.19	1257.45
669.38	1314.80
669.56	1339.37
669.75	1320.94
669.94	1251.31
670.12	1308.65
670.31	1310.70
670.50	1302.51
670.68	1316.84
670.87	1275.88
671.06	1298.41
671.24	1265.64
671.43	1269.74
671.62	1269.74
671.80	1273.84
671.99	1314.80
672.18	1206.25
672.36	1273.84
672.55	1329.13
672.74	1308.65
672.92	1306.60
673.11	1292.27
673.29	1279.98
673.48	1265.64
673.67	1322.99
673.85	1255.40
674.04	1261.55
674.23	1265.64
674.41	1226.73
674.60	1200.11
674.79	1257.45
674.97	1269.74
675.16	1257.45
675.34	1212.40
675.53	1261.55
675.72	1306.60
675.90	1236.97
676.09	1208.30
676.28	1247.21
676.46	1232.88
676.65	1169.39
676.83	1198.06
677.02	1308.65
677.21	1249.26
677.39	1212.40
677.58	1310.70
677.77	1230.83
677.95	1236.97
678.14	1259.50
678.32	1343.47
678.51	1255.40
678.70	1214.45
678.88	1263.60
679.07	1273.84
679.25	1267.69
679.44	1191.92
679.63	1263.60
679.81	1273.84
680.00	1212.40
680.18	1320.94
680.37	1320.94
680.55	1275.88
680.74	1288.17
680.93	1302.51
681.11	1341.42
681.30	1263.60
681.48	1216.49
681.67	1282.03
681.85	1316.84
682.04	1214.45
682.23	1267.69
682.41	1249.26
682.60	1218.54
682.78	1269.74
682.97	1243.12
683.15	1216.49
683.34	1275.88
683.53	1255.40
683.71	1284.08
683.90	1327.08
684.08	1232.88
684.27	1261.55
684.45	1226.73
684.64	1290.22
684.82	1261.55
685.01	1220.59
685.19	1255.40
685.38	1179.63
685.57	1282.03
685.75	1300.46
685.94	1275.88
686.12	1261.55
686.31	1279.98
686.49	1327.08
686.68	1228.78
686.86	1269.74
687.05	1294.32
687.23	1279.98
687.42	1275.88
687.60	1183.73
687.79	1265.64
687.97	1314.80
688.16	1273.84
688.34	1306.60
688.53	1167.34
688.71	1294.32
688.90	1310.70
689.08	1279.98
689.27	1255.40
689.45	1251.31
689.64	1245.16
689.82	1263.60
690.01	1239.02
690.19	1269.74
690.38	1325.04
690.56	1286.12
690.75	1245.16
690.93	1308.65
691.12	1247.21
691.30	1230.83
691.49	1290.22
691.67	1239.02
691.86	1251.31
692.04	1302.51
692.23	1273.84
692.41	1363.95
692.60	1273.84
692.78	1329.13
692.97	1271.79
693.15	1312.75
693.34	1263.60
693.52	1259.50
693.71	1224.69
693.89	1282.03
694.08	1294.32
694.26	1271.79
694.44	1222.64
694.63	1310.70
694.81	1204.21
695.00	1259.50
695.18	1290.22
695.37	1337.32
695.55	1261.55
695.74	1298.41
695.92	1269.74
696.10	1224.69
696.29	1202.16
696.47	1282.03
696.66	1282.03
696.84	1269.74
697.03	1265.64
697.21	1269.74
697.40	1284.08
697.58	1339.37
697.76	1271.79
697.95	1255.40
698.13	1302.51
698.32	1259.50
698.50	1269.74
698.68	1239.02
698.87	1292.27
699.05	1314.80
699.24	1206.25
699.42	1329.13
699.61	1249.26
699.79	1243.12
699.97	1243.12
700.16	1314.80
700.34	1216.49
700.53	1234.93
700.71	1236.97
700.89	1263.60
701.08	1265.64
701.26	1294.32
701.45	1298.41
701.63	1275.88
701.81	1271.79
702.00	1241.07
702.18	1300.46
702.37	1253.36
702.55	1183.73
702.73	1296.36
702.92	1210.35
703.10	1263.60
703.28	1189.87
703.47	1294.32
703.65	1275.88
703.84	1232.88
704.02	1228.78
704.20	1259.50
704.39	1222.64
704.57	1208.30
704.75	1236.97
704.94	1261.55
705.12	1230.83
705.30	1253.36
705.49	1290.22
705.67	1271.79
705.86	1220.59
706.04	1294.32
706.22	1298.41
706.41	1208.30
706.59	1247.21
706.77	1257.45
706.96	1222.64
707.14	1282.03
707.32	1245.16
707.51	1339.37
707.69	1218.54
707.87	1288.17
708.06	1331.18
708.24	1296.36
708.42	1267.69
708.61	1294.32
708.79	1232.88
708.97	1331.18
709.16	1239.02
709.34	1374.19
709.52	1247.21
709.71	1345.52
709.89	1267.69
710.07	1255.40
710.26	1279.98
710.44	1261.55
710.62	1247.21
710.80	1273.84
710.99	1228.78
711.17	1241.07
711.35	1206.25
711.54	1193.97
711.72	1257.45
711.90	1218.54
712.09	1318.89
712.27	1306.60
712.45	1327.08
712.63	1251.31
712.82	1294.32
713.00	1243.12
713.18	1331.18
713.37	1273.84
713.55	1249.26
713.73	1294.32
713.91	1271.79
714.10	1210.35
714.28	1288.17
714.46	1310.70
714.65	1239.02
714.83	1282.03
715.01	1341.42
715.19	1196.01
715.38	1302.51
715.56	1220.59
715.74	1187.82
715.92	1290.22
716.11	1296.36
716.29	1255.40
716.47	1304.56
716.65	1331.18
716.84	1185.77
717.02	1230.83
717.20	1255.40
717.38	1329.13
717.57	1273.84
717.75	1288.17
717.93	1261.55
718.11	1232.88
718.30	1210.35
718.48	1351.66
718.66	1318.89
718.84	1259.50
719.03	1253.36
719.21	1298.41
719.39	1308.65
719.57	1202.16
719.75	1255.40
719.94	1302.51
720.12	1353.71
720.30	1296.36
720.48	1306.60
720.67	1271.79
720.85	1273.84
721.03	1308.65
721.21	1300.46
721.39	1279.98
721.58	1294.32
721.76	1251.31
721.94	1277.93
722.12	1224.69
722.30	1300.46
722.49	1216.49
722.67	1255.40
722.85	1271.79
723.03	1282.03
723.21	1294.32
723.40	1292.27
723.58	1247.21
723.76	1187.82
723.94	1245.16
724.12	1322.99
724.30	1249.26
724.49	1245.16
724.67	1286.12
724.85	1300.46
725.03	1339.37
725.21	1316.84
725.40	1304.56
725.58	1257.45
725.76	1298.41
725.94	1267.69
726.12	1304.56
726.30	1296.36
726.49	1261.55
726.67	1267.69
726.85	1308.65
727.03	1200.11
727.21	1214.45
727.39	1243.12
727.57	1277.93
727.76	1257.45
727.94	1271.79
728.12	1253.36
728.30	1251.31
728.48	1282.03
728.66	1253.36
728.84	1251.31
729.03	1341.42
729.21	1292.27
729.39	1343.47
729.57	1253.36
729.75	1275.88
729.93	1294.32
730.11	1249.26
730.30	1218.54
730.48	1249.26
730.66	1181.68
730.84	1243.12
731.02	1288.17
731.20	1279.98
731.38	1224.69
731.56	1286.12
731.74	1279.98
731.93	1265.64
732.11	1220.59
732.29	1222.64
732.47	1284.08
732.65	1236.97
732.83	1290.22
733.01	1245.16
733.19	1296.36
733.37	1318.89
733.56	1304.56
733.74	1286.12
733.92	1245.16
734.10	1288.17
734.28	1243.12
734.46	1253.36
734.64	1226.73
734.82	1239.02
735.00	1296.36
735.18	1214.45
735.36	1267.69
735.54	1322.99
735.73	1257.45
735.91	1302.51
736.09	1296.36
736.27	1273.84
736.45	1222.64
736.63	1259.50
736.81	1286.12
736.99	1292.27
737.17	1298.41
737.35	1296.36
737.53	1200.11
737.71	1236.97
737.89	1339.37
738.07	1247.21
738.25	1247.21
738.43	1228.78
738.61	1200.11
738.80	1279.98
738.98	1292.27
739.16	1261.55
739.34	1304.56
739.52	1265.64
739.70	1286.12
739.88	1277.93
740.06	1208.30
740.24	1273.84
740.42	1232.88
740.60	1259.50
740.78	1249.26
740.96	1265.64
741.14	1267.69
741.32	1273.84
741.50	1273.84
741.68	1259.50
741.86	1245.16
742.04	1273.84
742.22	1308.65
742.40	1249.26
742.58	1249.26
742.76	1277.93
742.94	1249.26
743.12	1279.98
743.30	1251.31
743.48	1290.22
743.66	1241.07
743.84	1220.59
744.02	1292.27
744.20	1284.08
744.38	1224.69
744.56	1286.12
744.74	1247.21
744.92	1243.12
745.10	1296.36
745.28	1249.26
745.46	1339.37
745.64	1304.56
745.82	1222.64
746.00	1226.73
746.18	1243.12
746.36	1198.06
746.54	1183.73
746.72	1339.37
746.90	1239.02
747.08	1259.50
747.26	1243.12
747.44	1337.32
747.62	1196.01
747.80	1230.83
747.98	1202.16
748.15	1232.88
748.33	1265.64
748.51	1288.17
748.69	1261.55
748.87	1206.25
749.05	1247.21
749.23	1310.70
749.41	1245.16
749.59	1249.26
749.77	1277.93
749.95	1284.08
750.13	1304.56
750.31	1232.88
750.49	1284.08
750.67	1282.03
750.85	1243.12
751.03	1298.41
751.20	1310.70
751.38	1189.87
751.56	1257.45
751.74	1181.68
751.92	1361.90
752.10	1282.03
752.28	1331.18
752.46	1271.79
752.64	1191.92
752.82	1247.21
753.00	1337.32
753.18	1290.22
753.35	1257.45
753.53	1228.78
753.71	1286.12
753.89	1312.75
754.07	1298.41
754.25	1265.64
754.43	1257.45
754.61	1279.98
754.79	1245.16
754.97	1310.70
755.14	1282.03
755.32	1212.40
755.50	1257.45
755.68	1282.03
755.86	1271.79
756.04	1230.83
756.22	1185.77
756.40	1282.03
756.57	1288.17
756.75	1316.84
756.93	1206.25
757.11	1259.50
757.29	1263.60
757.47	1304.56
757.65	1189.87
757.82	1243.12
758.00	1263.60
758.18	1163.25
758.36	1232.88
758.54	1265.64
758.72	1247.21
758.90	1196.01
759.07	1345.52
759.25	1271.79
759.43	1314.80
759.61	1257.45
759.79	1232.88
759.97	1359.85
760.15	1230.83
760.32	1343.47
760.50	1255.40
760.68	1308.65
760.86	1251.31
761.04	1312.75
761.22	1236.97
761.39	1296.36
761.57	1239.02
761.75	1230.83
761.93	1224.69
762.11	1290.22
762.28	1302.51
762.46	1198.06
762.64	1259.50
762.82	1286.12
763.00	1198.06
763.18	1239.02
763.35	1187.82
763.53	1236.97
763.71	1243.12
763.89	1271.79
764.07	1193.97
764.24	1269.74
764.42	1275.88
764.60	1159.15
764.78	1341.42
764.96	1292.27
765.13	1239.02
765.31	1292.27
765.49	1239.02
765.67	1277.93
765.84	1318.89
766.02	1234.93
766.20	1255.40
766.38	1282.03
766.56	1228.78
766.73	1290.22
766.91	1253.36
767.09	1245.16
767.27	1279.98
767.44	1273.84
767.62	1275.88
767.80	1316.84
767.98	1314.80
768.15	1288.17
768.33	1306.60
768.51	1243.12
768.69	1243.12
768.87	1277.93
769.04	1202.16
769.22	1292.27
769.40	1296.36
769.58	1277.93
769.75	1261.55
769.93	1247.21
770.11	1243.12
770.28	1298.41
770.46	1292.27
770.64	1255.40
770.82	1265.64
770.99	1298.41
771.17	1271.79
771.35	1239.02
771.53	1228.78
771.70	1284.08
771.88	1306.60
772.06	1214.45
772.23	1257.45
772.41	1298.41
772.59	1282.03
772.77	1290.22
772.94	1230.83
773.12	1300.46
773.30	1251.31
773.47	1294.32
773.65	1263.60
773.83	1214.45
774.01	1277.93
774.18	1253.36
774.36	1271.79
774.54	1290.22
774.71	1239.02
774.89	1288.17
775.07	1322.99
775.24	1347.56
775.42	1269.74
775.60	1359.85
775.78	1271.79
775.95	1292.27
776.13	1222.64
776.31	1310.70
776.48	1183.73
776.66	1239.02
776.84	1210.35
777.01	1316.84
777.19	1314.80
777.37	1279.98
777.54	1239.02
777.72	1273.84
777.90	1284.08
778.07	1304.56
778.25	1267.69
778.43	1292.27
778.60	1251.31
778.78	1322.99
778.96	1308.65
779.13	1339.37
779.31	1257.45
779.49	1282.03
779.66	1249.26
779.84	1239.02
780.01	1245.16
780.19	1304.56
780.37	1275.88
780.54	1284.08
780.72	1255.40
780.90	1286.12
781.07	1251.31
781.25	1304.56
781.43	1273.84
781.60	1271.79
781.78	1300.46
781.95	1277.93
782.13	1236.97
782.31	1226.73
782.48	1277.93
782.66	1241.07
782.83	1241.07
783.01	1259.50
783.19	1232.88
783.36	1275.88
783.54	1218.54
783.72	1259.50
783.89	1318.89
784.07	1292.27
784.24	1210.35
784.42	1302.51
784.60	1253.36
784.77	1251.31
784.95	1245.16
785.12	1243.12
785.30	1257.45
785.47	1263.60
785.65	1288.17
785.83	1257.45
786.00	1253.36
786.18	1282.03
786.35	1257.45
786.53	1294.32
786.71	1282.03
786.88	1269.74
787.06	1343.47
787.23	1267.69
787.41	1269.74
787.58	1220.59
787.76	1314.80
787.94	1366.00
788.11	1273.84
788.29	1265.64
788.46	1284.08
788.64	1247.21
788.81	1267.69
788.99	1269.74
789.16	1239.02
789.34	1286.12
789.52	1230.83
789.69	1257.45
789.87	1290.22
790.04	1239.02
790.22	1294.32
790.39	1267.69
790.57	1296.36
790.74	1257.45
790.92	1183.73
791.09	1214.45
791.27	1357.80
791.44	1312.75
791.62	1302.51
791.79	1257.45
791.97	1251.31
792.15	1218.54
792.32	1337.32
792.50	1226.73
792.67	1208.30
792.85	1320.94
793.02	1253.36
793.20	1286.12
793.37	1318.89
793.55	1273.84
793.72	1232.88
793.90	1230.83
794.07	1239.02
794.25	1263.60
794.42	1261.55
794.60	1271.79
794.77	1269.74
794.95	1304.56
795.12	1279.98
795.30	1210.35
795.47	1294.32
795.65	1292.27
795.82	1259.50
796.00	1241.07
796.17	1259.50
796.34	1214.45
796.52	1255.40
796.69	1277.93
796.87	1255.40
797.04	1267.69
797.22	1239.02
797.39	1198.06
797.57	1343.47
797.74	1271.79
797.92	1191.92
798.09	1234.93
798.27	1265.64
798.44	1230.83
798.62	1290.22
798.79	1337.32
798.96	1282.03
799.14	1224.69
799.31	1255.40
799.49	1253.36
799.66	1279.98
799.84	1325.04
800.01	1271.79
800.19	1208.30
800.36	1241.07
800.53	1306.60
800.71	1234.93
800.88	1208.30
801.06	1181.68
801.23	1273.84
801.41	1306.60
801.58	1218.54
801.75	1271.79
801.93	1247.21
802.10	1325.04
802.28	1298.41
802.45	1241.07
802.63	1304.56
802.80	1257.45
802.97	1279.98
803.15	1277.93
803.32	1222.64
803.50	1300.46
803.67	1327.08
803.84	1228.78
804.02	1241.07
804.19	1265.64
804.37	1292.27
804.54	1243.12
804.71	1279.98
804.89	1300.46
805.06	1198.06
805.24	1230.83
805.41	1265.64
805.58	1292.27
805.76	1239.02
805.93	1232.88
806.10	1224.69
806.28	1249.26
806.45	1247.21
806.63	1255.40
806.80	1253.36
806.97	1269.74
807.15	1255.40
807.32	1204.21
807.49	1273.84
807.67	1267.69
807.84	1249.26
808.01	1245.16
808.19	1241.07
808.36	1241.07
808.54	1282.03
808.71	1298.41
808.88	1239.02
809.06	1261.55
809.23	1183.73
809.40	1269.74
809.58	1273.84
809.75	1267.69
809.92	1290.22
810.10	1265.64
810.27	1232.88
810.44	1267.69
810.62	1216.49
810.79	1228.78
810.96	1320.94
811.14	1251.31
811.31	1267.69
811.48	1249.26
811.66	1226.73
811.83	1261.55
812.00	1216.49
812.18	1282.03
812.35	1273.84
812.52	1337.32
812.69	1259.50
812.87	1284.08
813.04	1236.97
813.21	1251.31
813.39	1296.36
813.56	1261.55
813.73	1265.64
813.91	1300.46
814.08	1253.36
814.25	1243.12
814.42	1296.36
814.60	1292.27
814.77	1277.93
814.94	1171.44
815.12	1247.21
815.29	1259.50
815.46	1263.60
815.63	1234.93
815.81	1265.64
815.98	1202.16
816.15	1263.60
816.33	1234.93
816.50	1304.56
816.67	1292.27
816.84	1304.56
817.02	1232.88
817.19	1265.64
817.36	1253.36
817.53	1284.08
817.71	1247.21
817.88	1261.55
818.05	1228.78
818.22	1322.99
818.40	1220.59
818.57	1249.26
818.74	1335.28
818.91	1294.32
819.09	1232.88
819.26	1292.27
819.43	1279.98
819.60	1265.64
819.78	1277.93
819.95	1294.32
820.12	1265.64
820.29	1269.74
820.47	1318.89
820.64	1314.80
820.81	1265.64
820.98	1230.83
821.15	1286.12
821.33	1329.13
821.50	1279.98
821.67	1222.64
821.84	1243.12
822.02	1257.45
822.19	1277.93
822.36	1279.98
822.53	1273.84
822.70	1329.13
822.88	1277.93
823.05	1273.84
823.22	1265.64
823.39	1318.89
823.56	1282.03
823.74	1249.26
823.91	1224.69
824.08	1267.69
824.25	1273.84
824.42	1263.60
824.60	1286.12
824.77	1300.46
824.94	1257.45
825.11	1265.64
825.28	1218.54
825.45	1247.21
825.63	1370.09
825.80	1304.56
825.97	1232.88
826.14	1255.40
826.31	1288.17
826.48	1226.73
826.66	1218.54
826.83	1282.03
827.00	1310.70
827.17	1206.25
827.34	1210.35
827.51	1261.55
827.69	1290.22
827.86	1239.02
828.03	1269.74
828.20	1298.41
828.37	1343.47
828.54	1249.26
828.71	1273.84
828.89	1239.02
829.06	1247.21
829.23	1290.22
829.40	1228.78
829.57	1247.21
829.74	1253.36
829.91	1296.36
830.09	1310.70
830.26	1226.73
830.43	1294.32
830.60	1228.78
830.77	1234.93
830.94	1204.21
831.11	1228.78
831.28	1259.50
831.46	1234.93
831.63	1314.80
831.80	1206.25
831.97	1222.64
832.14	1337.32
832.31	1286.12
832.48	1214.45
832.65	1265.64
832.82	1239.02
832.99	1282.03
833.17	1255.40
833.34	1329.13
833.51	1308.65
833.68	1267.69
833.85	1222.64
834.02	1265.64
834.19	1239.02
834.36	1208.30
834.53	1263.60
834.70	1269.74
834.87	1282.03
835.04	1325.04
835.22	1183.73
835.39	1226.73
835.56	1288.17
835.73	1261.55
835.90	1226.73
836.07	1288.17
836.24	1263.60
836.41	1234.93
836.58	1296.36
836.75	1271.79
836.92	1290.22
837.09	1271.79
837.26	1290.22
837.43	1257.45
837.60	1329.13
837.77	1189.87
837.94	1261.55
838.12	1265.64
838.29	1140.72
838.46	1320.94
838.63	1208.30
838.80	1312.75
838.97	1277.93
839.14	1255.40
839.31	1314.80
839.48	1204.21
839.65	1325.04
839.82	1277.93
839.99	1318.89
840.16	1277.93
840.33	1245.16
840.50	1304.56
840.67	1251.31
840.84	1249.26
841.01	1243.12
841.18	1200.11
841.35	1269.74
841.52	1216.49
841.69	1263.60
841.86	1269.74
842.03	1263.60
842.20	1230.83
842.37	1208.30
842.54	1243.12
842.71	1316.84
842.88	1265.64
843.05	1206.25
843.22	1245.16
843.39	1265.64
843.56	1261.55
843.73	1234.93
843.90	1261.55
844.07	1316.84
844.24	1249.26
844.41	1265.64
844.58	1279.98
844.75	1292.27
844.92	1243.12
845.09	1288.17
845.26	1236.97
845.43	1255.40
845.60	1314.80
845.77	1222.64
845.94	1257.45
846.10	1269.74
846.27	1320.94
846.44	1273.84
846.61	1241.07
846.78	1269.74
846.95	1261.55
847.12	1214.45
847.29	1318.89
847.46	1296.36
847.63	1308.65
847.80	1282.03
847.97	1257.45
848.14	1298.41
848.31	1228.78
848.48	1269.74
848.65	1232.88
848.82	1255.40
848.98	1320.94
849.15	1322.99
849.32	1255.40
849.49	1222.64
849.66	1263.60
849.83	1216.49
850.00	1282.03
850.17	1286.12
850.34	1322.99
850.51	1263.60
850.68	1208.30
850.85	1259.50
851.01	1314.80
851.18	1322.99
851.35	1243.12
851.52	1273.84
851.69	1312.75
851.86	1308.65
852.03	1226.73
852.20	1249.26
852.37	1230.83
852.53	1253.36
852.70	1261.55
852.87	1267.69
853.04	1425.39
853.21	1259.50
853.38	1200.11
853.55	1275.88
853.72	1286.12
853.89	1298.41
854.05	1245.16
854.22	1339.37
854.39	1257.45
854.56	1198.06
854.73	1275.88
854.90	1251.31
855.07	1275.88
855.23	1218.54
855.40	1171.44
855.57	1198.06
855.74	1263.60
855.91	1298.41
856.08	1247.21
856.25	1265.64
856.41	1275.88
856.58	1259.50
856.75	1265.64
856.92	1230.83
857.09	1224.69
857.26	1298.41
857.42	1290.22
857.59	1288.17
857.76	1296.36
857.93	1200.11
858.10	1277.93
858.27	1255.40
858.43	1294.32
858.60	1175.53
858.77	1251.31
858.94	1290.22
859.11	1302.51
859.27	1236.97
859.44	1277.93
859.61	1228.78
859.78	1308.65
859.95	1257.45
860.12	1253.36
860.28	1232.88
860.45	1273.84
860.62	1226.73
860.79	1175.53
860.95	1261.55
861.12	1243.12
861.29	1294.32
861.46	1310.70
861.63	1271.79
861.79	1284.08
861.96	1253.36
862.13	1279.98
862.30	1253.36
862.47	1339.37
862.63	1302.51
862.80	1224.69
862.97	1259.50
863.14	1243.12
863.30	1247.21
863.47	1279.98
863.64	1183.73
863.81	1271.79
863.97	1306.60
864.14	1249.26
864.31	1255.40
864.48	1206.25
864.65	1275.88
864.81	1265.64
864.98	1263.60
865.15	1298.41
865.32	1275.88
865.48	1226.73
865.65	1169.39
865.82	1239.02
865.98	1286.12
866.15	1251.31
866.32	1284.08
866.49	1257.45
866.65	1261.55
866.82	1318.89
866.99	1277.93
867.16	1251.31
867.32	1259.50
867.49	1247.21
867.66	1284.08
867.83	1249.26
867.99	1288.17
868.16	1226.73
868.33	1265.64
868.49	1255.40
868.66	1224.69
868.83	1245.16
868.99	1255.40
869.16	1335.28
869.33	1296.36
869.50	1282.03
869.66	1279.98
869.83	1224.69
870.00	1253.36
870.16	1269.74
870.33	1257.45
870.50	1277.93
870.66	1245.16
870.83	1302.51
871.00	1249.26
871.17	1273.84
871.33	1185.77
871.50	1241.07
871.67	1310.70
871.83	1265.64
872.00	1286.12
872.17	1310.70
872.33	1329.13
872.50	1218.54
872.67	1277.93
872.83	1214.45
873.00	1212.40
873.17	1282.03
873.33	1222.64
873.50	1239.02
873.67	1296.36
873.83	1349.61
874.00	1247.21
874.16	1277.93
874.33	1261.55
874.50	1288.17
874.66	1267.69
874.83	1282.03
875.00	1304.56
875.16	1288.17
875.33	1263.60
875.50	1271.79
875.66	1298.41
875.83	1314.80
875.99	1331.18
876.16	1292.27
876.33	1312.75
876.49	1249.26
876.66	1261.55
876.83	1298.41
876.99	1187.82
877.16	1331.18
877.32	1224.69
877.49	1304.56
877.66	1236.97
877.82	1312.75
877.99	1185.77
878.15	1277.93
878.32	1191.92
878.49	1304.56
878.65	1243.12
878.82	1206.25
878.98	1243.12
879.15	1236.97
879.32	1243.12
879.48	1241.07
879.65	1304.56
879.81	1232.88
879.98	1241.07
880.15	1273.84
880.31	1236.97
880.48	1304.56
880.64	1271.79
880.81	1286.12
880.97	1243.12
881.14	1239.02
881.31	1204.21
881.47	1318.89
881.64	1306.60
881.80	1257.45
881.97	1279.98
882.13	1341.42
882.30	1189.87
882.47	1304.56
882.63	1275.88
882.80	1277.93
882.96	1284.08
883.13	1282.03
883.29	1318.89
883.46	1204.21
883.62	1247.21
883.79	1206.25
883.95	1204.21
884.12	1269.74
884.29	1245.16
884.45	1290.22
884.62	1261.55
884.78	1294.32
884.95	1292.27
885.11	1226.73
885.28	1298.41
885.44	1216.49
885.61	1239.02
885.77	1310.70
885.94	1273.84
886.10	1261.55
886.27	1255.40
886.43	1263.60
886.60	1253.36
886.76	1241.07
886.93	1202.16
887.09	1257.45
887.26	1202.16
887.42	1230.83
887.59	1284.08
887.75	1273.84
887.92	1298.41
888.08	1331.18
888.25	1298.41
888.41	1232.88
888.58	1230.83
888.74	1269.74
888.91	1140.72
>>>>>End Processed Spectral Data<<<<<
