SpectraSuite Data File
++++++++++++++++++++++++++++++++++++
Date: Sun Apr 03 19:55:41 CEST 2016
User: root
Dark Spectrum Present: No
Reference Spectrum Present: No
Number of Sampled Component Spectra: 1
Spectrometers: USB4C02835
Integration Time (usec): 10000 (USB4C02835)
Spectra Averaged: 1 (USB4C02835)
Boxcar Smoothing: 0 (USB4C02835)
Correct for Electrical Dark: No (USB4C02835)
Strobe/Lamp Enabled: No (USB4C02835)
Correct for Detector Non-linearity: No (USB4C02835)
Correct for Stray Light: No (USB4C02835)
Number of Pixels in Processed Spectrum: 3648
>>>>>Begin Processed Spectral Data<<<<<
177.47	1189.87
177.69	1189.87
177.91	1189.87
178.13	1157.10
178.36	1210.35
178.58	1259.50
178.80	1247.21
179.02	1218.54
179.24	1310.70
179.46	1224.69
179.68	1279.98
179.90	1271.79
180.13	1282.03
180.35	1257.45
180.57	1259.50
180.79	1288.17
181.01	1261.55
181.23	1320.94
181.45	1255.40
181.67	1251.31
181.90	1245.16
182.12	1300.46
182.34	1255.40
182.56	1279.98
182.78	1234.93
183.00	1279.98
183.22	1259.50
183.44	1181.68
183.66	1298.41
183.89	1316.84
184.11	1261.55
184.33	1208.30
184.55	1271.79
184.77	1218.54
184.99	1251.31
185.21	1232.88
185.43	1265.64
185.65	1294.32
185.87	1232.88
186.10	1249.26
186.32	1331.18
186.54	1318.89
186.76	1277.93
186.98	1306.60
187.20	1312.75
187.42	1284.08
187.64	1273.84
187.86	1282.03
188.08	1269.74
188.30	1288.17
188.52	1296.36
188.75	1243.12
188.97	1345.52
189.19	1286.12
189.41	1271.79
189.63	1292.27
189.85	1327.08
190.07	1290.22
190.29	1243.12
190.51	1318.89
190.73	1339.37
190.95	1300.46
191.17	1222.64
191.39	1228.78
191.61	1290.22
191.84	1261.55
192.06	1288.17
192.28	1245.16
192.50	1257.45
192.72	1294.32
192.94	1288.17
193.16	1269.74
193.38	1294.32
193.60	1273.84
193.82	1224.69
194.04	1282.03
194.26	1212.40
194.48	1298.41
194.70	1267.69
194.92	1257.45
195.14	1202.16
195.36	1277.93
195.58	1320.94
195.80	1261.55
196.02	1261.55
196.24	1218.54
196.46	1322.99
196.69	1337.32
196.91	1232.88
197.13	1214.45
197.35	1259.50
197.57	1286.12
197.79	1208.30
198.01	1239.02
198.23	1189.87
198.45	1296.36
198.67	1257.45
198.89	1312.75
199.11	1279.98
199.33	1216.49
199.55	1320.94
199.77	1257.45
199.99	1298.41
200.21	1304.56
200.43	1263.60
200.65	1341.42
200.87	1273.84
201.09	1282.03
201.31	1261.55
201.53	1183.73
201.75	1216.49
201.97	1282.03
202.19	1286.12
202.41	1255.40
202.63	1292.27
202.85	1239.02
203.07	1253.36
203.29	1290.22
203.51	1218.54
203.73	1329.13
203.95	1214.45
204.17	1196.01
204.39	1261.55
204.61	1277.93
204.83	1263.60
205.05	1247.21
205.27	1267.69
205.49	1300.46
205.71	1271.79
205.93	1304.56
206.15	1257.45
206.37	1284.08
206.59	1267.69
206.81	1255.40
207.03	1308.65
207.25	1265.64
207.47	1312.75
207.69	1253.36
207.91	1286.12
208.13	1257.45
208.34	1204.21
208.56	1257.45
208.78	1257.45
209.00	1249.26
209.22	1189.87
209.44	1267.69
209.66	1187.82
209.88	1271.79
210.10	1286.12
210.32	1251.31
210.54	1255.40
210.76	1314.80
210.98	1343.47
211.20	1279.98
211.42	1282.03
211.64	1241.07
211.86	1296.36
212.08	1306.60
212.30	1310.70
212.52	1335.28
212.74	1304.56
212.96	1279.98
213.17	1312.75
213.39	1214.45
213.61	1261.55
213.83	1251.31
214.05	1226.73
214.27	1322.99
214.49	1314.80
214.71	1308.65
214.93	1241.07
215.15	1243.12
215.37	1265.64
215.59	1267.69
215.81	1210.35
216.03	1263.60
216.24	1314.80
216.46	1249.26
216.68	1251.31
216.90	1279.98
217.12	1271.79
217.34	1316.84
217.56	1196.01
217.78	1208.30
218.00	1322.99
218.22	1247.21
218.44	1290.22
218.66	1351.66
218.87	1290.22
219.09	1322.99
219.31	1267.69
219.53	1193.97
219.75	1220.59
219.97	1329.13
220.19	1374.19
220.41	1222.64
220.63	1277.93
220.85	1261.55
221.06	1292.27
221.28	1234.93
221.50	1253.36
221.72	1167.34
221.94	1261.55
222.16	1269.74
222.38	1322.99
222.60	1259.50
222.82	1241.07
223.03	1327.08
223.25	1265.64
223.47	1294.32
223.69	1282.03
223.91	1304.56
224.13	1312.75
224.35	1322.99
224.57	1284.08
224.78	1286.12
225.00	1314.80
225.22	1249.26
225.44	1232.88
225.66	1339.37
225.88	1218.54
226.10	1257.45
226.32	1210.35
226.53	1198.06
226.75	1306.60
226.97	1265.64
227.19	1339.37
227.41	1255.40
227.63	1345.52
227.85	1249.26
228.06	1251.31
228.28	1239.02
228.50	1314.80
228.72	1259.50
228.94	1259.50
229.16	1243.12
229.37	1230.83
229.59	1271.79
229.81	1296.36
230.03	1210.35
230.25	1290.22
230.47	1255.40
230.69	1318.89
230.90	1306.60
231.12	1300.46
231.34	1277.93
231.56	1335.28
231.78	1253.36
232.00	1265.64
232.21	1243.12
232.43	1230.83
232.65	1271.79
232.87	1224.69
233.09	1257.45
233.30	1333.23
233.52	1171.44
233.74	1236.97
233.96	1259.50
234.18	1322.99
234.40	1277.93
234.61	1341.42
234.83	1198.06
235.05	1257.45
235.27	1275.88
235.49	1277.93
235.70	1200.11
235.92	1255.40
236.14	1273.84
236.36	1298.41
236.58	1263.60
236.79	1310.70
237.01	1325.04
237.23	1296.36
237.45	1275.88
237.67	1312.75
237.88	1284.08
238.10	1241.07
238.32	1298.41
238.54	1245.16
238.76	1261.55
238.97	1245.16
239.19	1279.98
239.41	1267.69
239.63	1234.93
239.85	1279.98
240.06	1226.73
240.28	1216.49
240.50	1236.97
240.72	1310.70
240.93	1290.22
241.15	1286.12
241.37	1224.69
241.59	1345.52
241.81	1277.93
242.02	1263.60
242.24	1312.75
242.46	1267.69
242.68	1290.22
242.89	1241.07
243.11	1282.03
243.33	1335.28
243.55	1282.03
243.76	1245.16
243.98	1314.80
244.20	1200.11
244.42	1216.49
244.64	1243.12
244.85	1271.79
245.07	1269.74
245.29	1267.69
245.51	1282.03
245.72	1304.56
245.94	1243.12
246.16	1253.36
246.38	1302.51
246.59	1267.69
246.81	1259.50
247.03	1224.69
247.24	1222.64
247.46	1247.21
247.68	1304.56
247.90	1279.98
248.11	1314.80
248.33	1273.84
248.55	1269.74
248.77	1230.83
248.98	1271.79
249.20	1269.74
249.42	1259.50
249.64	1277.93
249.85	1296.36
250.07	1245.16
250.29	1267.69
250.50	1277.93
250.72	1228.78
250.94	1220.59
251.16	1271.79
251.37	1236.97
251.59	1300.46
251.81	1263.60
252.02	1241.07
252.24	1286.12
252.46	1320.94
252.68	1251.31
252.89	1314.80
253.11	1263.60
253.33	1247.21
253.54	1275.88
253.76	1200.11
253.98	1273.84
254.20	1241.07
254.41	1290.22
254.63	1331.18
254.85	1275.88
255.06	1273.84
255.28	1300.46
255.50	1275.88
255.71	1275.88
255.93	1236.97
256.15	1322.99
256.36	1243.12
256.58	1214.45
256.80	1189.87
257.02	1275.88
257.23	1286.12
257.45	1255.40
257.67	1333.23
257.88	1277.93
258.10	1279.98
258.32	1255.40
258.53	1302.51
258.75	1204.21
258.97	1247.21
259.18	1232.88
259.40	1212.40
259.62	1320.94
259.83	1279.98
260.05	1284.08
260.27	1249.26
260.48	1290.22
260.70	1279.98
260.92	1185.77
261.13	1232.88
261.35	1261.55
261.57	1298.41
261.78	1243.12
262.00	1296.36
262.22	1210.35
262.43	1275.88
262.65	1277.93
262.86	1257.45
263.08	1290.22
263.30	1294.32
263.51	1251.31
263.73	1282.03
263.95	1277.93
264.16	1304.56
264.38	1247.21
264.60	1286.12
264.81	1298.41
265.03	1277.93
265.25	1265.64
265.46	1271.79
265.68	1316.84
265.89	1279.98
266.11	1275.88
266.33	1312.75
266.54	1275.88
266.76	1333.23
266.98	1308.65
267.19	1265.64
267.41	1234.93
267.62	1220.59
267.84	1236.97
268.06	1279.98
268.27	1234.93
268.49	1279.98
268.70	1292.27
268.92	1265.64
269.14	1322.99
269.35	1247.21
269.57	1308.65
269.79	1290.22
270.00	1314.80
270.22	1284.08
270.43	1273.84
270.65	1271.79
270.87	1269.74
271.08	1335.28
271.30	1282.03
271.51	1310.70
271.73	1257.45
271.95	1290.22
272.16	1261.55
272.38	1224.69
272.59	1232.88
272.81	1263.60
273.02	1314.80
273.24	1284.08
273.46	1220.59
273.67	1249.26
273.89	1267.69
274.10	1263.60
274.32	1339.37
274.54	1304.56
274.75	1288.17
274.97	1308.65
275.18	1245.16
275.40	1271.79
275.61	1243.12
275.83	1290.22
276.05	1226.73
276.26	1222.64
276.48	1363.95
276.69	1290.22
276.91	1308.65
277.12	1249.26
277.34	1292.27
277.55	1226.73
277.77	1306.60
277.99	1269.74
278.20	1304.56
278.42	1290.22
278.63	1204.21
278.85	1265.64
279.06	1318.89
279.28	1273.84
279.49	1257.45
279.71	1308.65
279.93	1232.88
280.14	1249.26
280.36	1220.59
280.57	1255.40
280.79	1232.88
281.00	1265.64
281.22	1236.97
281.43	1247.21
281.65	1241.07
281.86	1327.08
282.08	1255.40
282.29	1331.18
282.51	1265.64
282.73	1296.36
282.94	1214.45
283.16	1206.25
283.37	1173.49
283.59	1312.75
283.80	1198.06
284.02	1275.88
284.23	1253.36
284.45	1269.74
284.66	1249.26
284.88	1345.52
285.09	1298.41
285.31	1245.16
285.52	1290.22
285.74	1265.64
285.95	1239.02
286.17	1286.12
286.38	1243.12
286.60	1302.51
286.81	1202.16
287.03	1261.55
287.24	1214.45
287.46	1359.85
287.67	1269.74
287.89	1288.17
288.10	1236.97
288.32	1279.98
288.53	1228.78
288.75	1265.64
288.96	1318.89
289.18	1243.12
289.39	1222.64
289.61	1214.45
289.82	1271.79
290.04	1308.65
290.25	1310.70
290.47	1300.46
290.68	1196.01
290.90	1284.08
291.11	1277.93
291.33	1312.75
291.54	1230.83
291.76	1269.74
291.97	1294.32
292.18	1253.36
292.40	1253.36
292.61	1218.54
292.83	1247.21
293.04	1259.50
293.26	1269.74
293.47	1239.02
293.69	1277.93
293.90	1372.14
294.12	1234.93
294.33	1239.02
294.55	1273.84
294.76	1294.32
294.97	1300.46
295.19	1265.64
295.40	1267.69
295.62	1261.55
295.83	1273.84
296.05	1279.98
296.26	1329.13
296.48	1286.12
296.69	1165.29
296.90	1271.79
297.12	1249.26
297.33	1224.69
297.55	1279.98
297.76	1236.97
297.98	1331.18
298.19	1245.16
298.41	1288.17
298.62	1234.93
298.83	1275.88
299.05	1234.93
299.26	1273.84
299.48	1236.97
299.69	1300.46
299.90	1208.30
300.12	1269.74
300.33	1288.17
300.55	1200.11
300.76	1261.55
300.98	1247.21
301.19	1271.79
301.40	1191.92
301.62	1284.08
301.83	1294.32
302.05	1284.08
302.26	1314.80
302.47	1259.50
302.69	1308.65
302.90	1265.64
303.12	1277.93
303.33	1277.93
303.54	1282.03
303.76	1302.51
303.97	1300.46
304.19	1261.55
304.40	1357.80
304.61	1230.83
304.83	1284.08
305.04	1218.54
305.26	1316.84
305.47	1193.97
305.68	1339.37
305.90	1234.93
306.11	1171.44
306.33	1282.03
306.54	1282.03
306.75	1249.26
306.97	1302.51
307.18	1230.83
307.39	1310.70
307.61	1306.60
307.82	1320.94
308.04	1292.27
308.25	1273.84
308.46	1249.26
308.68	1267.69
308.89	1368.04
309.10	1286.12
309.32	1282.03
309.53	1294.32
309.74	1259.50
309.96	1277.93
310.17	1263.60
310.39	1218.54
310.60	1269.74
310.81	1296.36
311.03	1251.31
311.24	1232.88
311.45	1320.94
311.67	1277.93
311.88	1196.01
312.09	1224.69
312.31	1255.40
312.52	1187.82
312.73	1273.84
312.95	1277.93
313.16	1337.32
313.37	1300.46
313.59	1273.84
313.80	1214.45
314.01	1290.22
314.23	1249.26
314.44	1396.71
314.65	1288.17
314.87	1271.79
315.08	1306.60
315.29	1310.70
315.51	1269.74
315.72	1204.21
315.93	1261.55
316.15	1263.60
316.36	1224.69
316.57	1200.11
316.79	1294.32
317.00	1204.21
317.21	1284.08
317.43	1286.12
317.64	1296.36
317.85	1306.60
318.07	1263.60
318.28	1257.45
318.49	1306.60
318.70	1282.03
318.92	1341.42
319.13	1222.64
319.34	1290.22
319.56	1277.93
319.77	1232.88
319.98	1267.69
320.20	1320.94
320.41	1296.36
320.62	1333.23
320.83	1212.40
321.05	1245.16
321.26	1265.64
321.47	1222.64
321.69	1327.08
321.90	1273.84
322.11	1253.36
322.32	1261.55
322.54	1279.98
322.75	1294.32
322.96	1282.03
323.18	1271.79
323.39	1308.65
323.60	1220.59
323.81	1325.04
324.03	1277.93
324.24	1337.32
324.45	1253.36
324.66	1249.26
324.88	1304.56
325.09	1232.88
325.30	1259.50
325.52	1236.97
325.73	1273.84
325.94	1273.84
326.15	1304.56
326.37	1292.27
326.58	1277.93
326.79	1239.02
327.00	1251.31
327.22	1275.88
327.43	1355.76
327.64	1263.60
327.85	1282.03
328.07	1284.08
328.28	1241.07
328.49	1222.64
328.70	1259.50
328.92	1204.21
329.13	1259.50
329.34	1269.74
329.55	1269.74
329.76	1257.45
329.98	1257.45
330.19	1253.36
330.40	1239.02
330.61	1300.46
330.83	1322.99
331.04	1296.36
331.25	1363.95
331.46	1196.01
331.68	1269.74
331.89	1306.60
332.10	1308.65
332.31	1269.74
332.52	1226.73
332.74	1206.25
332.95	1316.84
333.16	1273.84
333.37	1271.79
333.58	1257.45
333.80	1275.88
334.01	1253.36
334.22	1239.02
334.43	1288.17
334.64	1187.82
334.86	1251.31
335.07	1290.22
335.28	1312.75
335.49	1218.54
335.70	1212.40
335.92	1234.93
336.13	1308.65
336.34	1271.79
336.55	1304.56
336.76	1255.40
336.98	1261.55
337.19	1282.03
337.40	1255.40
337.61	1314.80
337.82	1347.56
338.04	1316.84
338.25	1255.40
338.46	1208.30
338.67	1275.88
338.88	1284.08
339.09	1193.97
339.31	1230.83
339.52	1279.98
339.73	1249.26
339.94	1306.60
340.15	1249.26
340.36	1269.74
340.58	1261.55
340.79	1284.08
341.00	1257.45
341.21	1259.50
341.42	1167.34
341.63	1308.65
341.85	1245.16
342.06	1308.65
342.27	1277.93
342.48	1269.74
342.69	1220.59
342.90	1282.03
343.12	1263.60
343.33	1243.12
343.54	1298.41
343.75	1259.50
343.96	1234.93
344.17	1322.99
344.38	1236.97
344.60	1167.34
344.81	1265.64
345.02	1253.36
345.23	1216.49
345.44	1269.74
345.65	1214.45
345.86	1325.04
346.07	1234.93
346.29	1261.55
346.50	1230.83
346.71	1312.75
346.92	1275.88
347.13	1255.40
347.34	1234.93
347.55	1271.79
347.76	1304.56
347.98	1230.83
348.19	1284.08
348.40	1300.46
348.61	1257.45
348.82	1263.60
349.03	1304.56
349.24	1232.88
349.45	1302.51
349.66	1320.94
349.88	1247.21
350.09	1353.71
350.30	1259.50
350.51	1296.36
350.72	1239.02
350.93	1312.75
351.14	1245.16
351.35	1267.69
351.56	1306.60
351.77	1306.60
351.99	1302.51
352.20	1279.98
352.41	1251.31
352.62	1222.64
352.83	1241.07
353.04	1261.55
353.25	1236.97
353.46	1357.80
353.67	1261.55
353.88	1322.99
354.09	1232.88
354.30	1288.17
354.52	1247.21
354.73	1257.45
354.94	1220.59
355.15	1228.78
355.36	1263.60
355.57	1275.88
355.78	1239.02
355.99	1296.36
356.20	1329.13
356.41	1273.84
356.62	1288.17
356.83	1282.03
357.04	1284.08
357.25	1271.79
357.46	1230.83
357.68	1333.23
357.89	1261.55
358.10	1288.17
358.31	1210.35
358.52	1259.50
358.73	1210.35
358.94	1255.40
359.15	1327.08
359.36	1366.00
359.57	1279.98
359.78	1275.88
359.99	1247.21
360.20	1208.30
360.41	1286.12
360.62	1273.84
360.83	1218.54
361.04	1273.84
361.25	1224.69
361.46	1206.25
361.67	1236.97
361.88	1255.40
362.09	1329.13
362.30	1275.88
362.51	1239.02
362.72	1290.22
362.93	1214.45
363.14	1249.26
363.35	1269.74
363.56	1275.88
363.78	1292.27
363.99	1157.10
364.20	1279.98
364.41	1243.12
364.62	1265.64
364.83	1331.18
365.04	1296.36
365.25	1282.03
365.46	1304.56
365.67	1312.75
365.88	1251.31
366.09	1296.36
366.30	1294.32
366.51	1292.27
366.72	1269.74
366.93	1298.41
367.14	1247.21
367.35	1241.07
367.56	1257.45
367.77	1288.17
367.98	1239.02
368.18	1288.17
368.39	1193.97
368.60	1288.17
368.81	1294.32
369.02	1263.60
369.23	1304.56
369.44	1284.08
369.65	1341.42
369.86	1198.06
370.07	1257.45
370.28	1267.69
370.49	1290.22
370.70	1214.45
370.91	1253.36
371.12	1292.27
371.33	1234.93
371.54	1220.59
371.75	1253.36
371.96	1247.21
372.17	1310.70
372.38	1267.69
372.59	1206.25
372.80	1282.03
373.01	1220.59
373.22	1288.17
373.43	1249.26
373.64	1327.08
373.85	1222.64
374.06	1216.49
374.26	1288.17
374.47	1275.88
374.68	1286.12
374.89	1312.75
375.10	1271.79
375.31	1282.03
375.52	1359.85
375.73	1277.93
375.94	1296.36
376.15	1279.98
376.36	1277.93
376.57	1234.93
376.78	1288.17
376.99	1257.45
377.20	1251.31
377.40	1249.26
377.61	1241.07
377.82	1306.60
378.03	1224.69
378.24	1261.55
378.45	1257.45
378.66	1220.59
378.87	1261.55
379.08	1230.83
379.29	1187.82
379.50	1284.08
379.71	1245.16
379.91	1275.88
380.12	1284.08
380.33	1282.03
380.54	1247.21
380.75	1292.27
380.96	1214.45
381.17	1409.00
381.38	1236.97
381.59	1247.21
381.80	1290.22
382.00	1171.44
382.21	1290.22
382.42	1193.97
382.63	1304.56
382.84	1247.21
383.05	1261.55
383.26	1294.32
383.47	1306.60
383.68	1265.64
383.88	1253.36
384.09	1277.93
384.30	1228.78
384.51	1314.80
384.72	1282.03
384.93	1228.78
385.14	1159.15
385.35	1251.31
385.55	1177.58
385.76	1267.69
385.97	1259.50
386.18	1347.56
386.39	1261.55
386.60	1255.40
386.81	1314.80
387.02	1245.16
387.22	1222.64
387.43	1263.60
387.64	1288.17
387.85	1282.03
388.06	1200.11
388.27	1284.08
388.48	1277.93
388.68	1329.13
388.89	1261.55
389.10	1234.93
389.31	1257.45
389.52	1251.31
389.73	1167.34
389.93	1318.89
390.14	1259.50
390.35	1320.94
390.56	1249.26
390.77	1353.71
390.98	1249.26
391.18	1245.16
391.39	1263.60
391.60	1302.51
391.81	1304.56
392.02	1236.97
392.23	1220.59
392.43	1318.89
392.64	1333.23
392.85	1261.55
393.06	1275.88
393.27	1286.12
393.47	1284.08
393.68	1249.26
393.89	1263.60
394.10	1331.18
394.31	1206.25
394.52	1247.21
394.72	1298.41
394.93	1277.93
395.14	1273.84
395.35	1189.87
395.56	1304.56
395.76	1335.28
395.97	1232.88
396.18	1282.03
396.39	1255.40
396.60	1230.83
396.80	1247.21
397.01	1236.97
397.22	1298.41
397.43	1294.32
397.64	1216.49
397.84	1206.25
398.05	1269.74
398.26	1267.69
398.47	1191.92
398.67	1257.45
398.88	1230.83
399.09	1216.49
399.30	1290.22
399.51	1286.12
399.71	1208.30
399.92	1271.79
400.13	1312.75
400.34	1279.98
400.54	1206.25
400.75	1234.93
400.96	1279.98
401.17	1259.50
401.37	1292.27
401.58	1269.74
401.79	1273.84
402.00	1267.69
402.21	1347.56
402.41	1257.45
402.62	1241.07
402.83	1245.16
403.04	1290.22
403.24	1261.55
403.45	1298.41
403.66	1376.24
403.87	1216.49
404.07	1322.99
404.28	1259.50
404.49	1314.80
404.70	1232.88
404.90	1243.12
405.11	1196.01
405.32	1236.97
405.52	1222.64
405.73	1267.69
405.94	1271.79
406.15	1290.22
406.35	1236.97
406.56	1241.07
406.77	1282.03
406.98	1290.22
407.18	1245.16
407.39	1296.36
407.60	1245.16
407.80	1341.42
408.01	1253.36
408.22	1282.03
408.43	1284.08
408.63	1271.79
408.84	1220.59
409.05	1304.56
409.25	1202.16
409.46	1318.89
409.67	1296.36
409.88	1263.60
410.08	1261.55
410.29	1247.21
410.50	1232.88
410.70	1318.89
410.91	1253.36
411.12	1318.89
411.32	1181.68
411.53	1275.88
411.74	1249.26
411.95	1333.23
412.15	1267.69
412.36	1265.64
412.57	1239.02
412.77	1331.18
412.98	1325.04
413.19	1273.84
413.39	1193.97
413.60	1255.40
413.81	1255.40
414.01	1279.98
414.22	1294.32
414.43	1333.23
414.63	1302.51
414.84	1232.88
415.05	1226.73
415.25	1253.36
415.46	1230.83
415.67	1312.75
415.87	1277.93
416.08	1265.64
416.29	1271.79
416.49	1294.32
416.70	1255.40
416.91	1286.12
417.11	1263.60
417.32	1226.73
417.53	1200.11
417.73	1288.17
417.94	1241.07
418.15	1304.56
418.35	1220.59
418.56	1292.27
418.77	1220.59
418.97	1325.04
419.18	1269.74
419.38	1239.02
419.59	1206.25
419.80	1255.40
420.00	1267.69
420.21	1222.64
420.42	1331.18
420.62	1339.37
420.83	1239.02
421.04	1255.40
421.24	1265.64
421.45	1245.16
421.65	1288.17
421.86	1337.32
422.07	1216.49
422.27	1273.84
422.48	1241.07
422.69	1247.21
422.89	1269.74
423.10	1236.97
423.30	1316.84
423.51	1169.39
423.72	1306.60
423.92	1312.75
424.13	1230.83
424.33	1275.88
424.54	1241.07
424.75	1255.40
424.95	1286.12
425.16	1279.98
425.36	1282.03
425.57	1251.31
425.78	1251.31
425.98	1257.45
426.19	1284.08
426.39	1179.63
426.60	1261.55
426.81	1345.52
427.01	1269.74
427.22	1251.31
427.42	1232.88
427.63	1224.69
427.83	1282.03
428.04	1306.60
428.25	1208.30
428.45	1273.84
428.66	1294.32
428.86	1310.70
429.07	1296.36
429.28	1249.26
429.48	1296.36
429.69	1286.12
429.89	1241.07
430.10	1257.45
430.30	1304.56
430.51	1318.89
430.71	1296.36
430.92	1275.88
431.13	1290.22
431.33	1302.51
431.54	1296.36
431.74	1261.55
431.95	1267.69
432.15	1284.08
432.36	1255.40
432.56	1253.36
432.77	1228.78
432.98	1265.64
433.18	1376.24
433.39	1282.03
433.59	1228.78
433.80	1241.07
434.00	1300.46
434.21	1241.07
434.41	1208.30
434.62	1236.97
434.82	1234.93
435.03	1339.37
435.23	1267.69
435.44	1265.64
435.64	1314.80
435.85	1236.97
436.06	1269.74
436.26	1249.26
436.47	1308.65
436.67	1230.83
436.88	1234.93
437.08	1245.16
437.29	1243.12
437.49	1325.04
437.70	1333.23
437.90	1191.92
438.11	1288.17
438.31	1243.12
438.52	1212.40
438.72	1298.41
438.93	1288.17
439.13	1269.74
439.34	1243.12
439.54	1249.26
439.75	1269.74
439.95	1228.78
440.16	1320.94
440.36	1282.03
440.57	1263.60
440.77	1277.93
440.98	1263.60
441.18	1251.31
441.39	1316.84
441.59	1255.40
441.80	1290.22
442.00	1345.52
442.21	1282.03
442.41	1226.73
442.62	1232.88
442.82	1284.08
443.02	1275.88
443.23	1314.80
443.43	1253.36
443.64	1302.51
443.84	1292.27
444.05	1314.80
444.25	1234.93
444.46	1304.56
444.66	1279.98
444.87	1366.00
445.07	1318.89
445.28	1298.41
445.48	1204.21
445.69	1288.17
445.89	1374.19
446.09	1296.36
446.30	1298.41
446.50	1277.93
446.71	1247.21
446.91	1275.88
447.12	1224.69
447.32	1290.22
447.53	1288.17
447.73	1286.12
447.93	1296.36
448.14	1282.03
448.34	1239.02
448.55	1298.41
448.75	1335.28
448.96	1314.80
449.16	1253.36
449.36	1263.60
449.57	1304.56
449.77	1339.37
449.98	1261.55
450.18	1265.64
450.39	1286.12
450.59	1296.36
450.79	1241.07
451.00	1288.17
451.20	1322.99
451.41	1206.25
451.61	1230.83
451.81	1239.02
452.02	1261.55
452.22	1249.26
452.43	1318.89
452.63	1306.60
452.84	1275.88
453.04	1320.94
453.24	1259.50
453.45	1318.89
453.65	1292.27
453.86	1277.93
454.06	1271.79
454.26	1345.52
454.47	1257.45
454.67	1351.66
454.87	1341.42
455.08	1288.17
455.28	1245.16
455.49	1314.80
455.69	1236.97
455.89	1271.79
456.10	1331.18
456.30	1275.88
456.51	1257.45
456.71	1271.79
456.91	1310.70
457.12	1277.93
457.32	1247.21
457.52	1331.18
457.73	1306.60
457.93	1325.04
458.14	1253.36
458.34	1306.60
458.54	1312.75
458.75	1370.09
458.95	1249.26
459.15	1312.75
459.36	1314.80
459.56	1345.52
459.76	1322.99
459.97	1325.04
460.17	1263.60
460.37	1329.13
460.58	1185.77
460.78	1253.36
460.99	1279.98
461.19	1284.08
461.39	1320.94
461.60	1327.08
461.80	1251.31
462.00	1298.41
462.21	1308.65
462.41	1279.98
462.61	1284.08
462.82	1277.93
463.02	1239.02
463.22	1239.02
463.43	1206.25
463.63	1296.36
463.83	1294.32
464.04	1331.18
464.24	1204.21
464.44	1206.25
464.64	1359.85
464.85	1279.98
465.05	1236.97
465.25	1257.45
465.46	1284.08
465.66	1282.03
465.86	1265.64
466.07	1361.90
466.27	1345.52
466.47	1257.45
466.68	1279.98
466.88	1284.08
467.08	1224.69
467.29	1271.79
467.49	1304.56
467.69	1228.78
467.89	1243.12
468.10	1327.08
468.30	1304.56
468.50	1273.84
468.71	1318.89
468.91	1267.69
469.11	1331.18
469.31	1261.55
469.52	1306.60
469.72	1290.22
469.92	1142.77
470.13	1243.12
470.33	1247.21
470.53	1241.07
470.73	1251.31
470.94	1259.50
471.14	1261.55
471.34	1273.84
471.54	1286.12
471.75	1284.08
471.95	1277.93
472.15	1306.60
472.36	1310.70
472.56	1282.03
472.76	1259.50
472.96	1284.08
473.17	1314.80
473.37	1282.03
473.57	1298.41
473.77	1316.84
473.98	1275.88
474.18	1273.84
474.38	1251.31
474.58	1222.64
474.79	1198.06
474.99	1296.36
475.19	1265.64
475.39	1251.31
475.60	1265.64
475.80	1308.65
476.00	1232.88
476.20	1200.11
476.41	1320.94
476.61	1263.60
476.81	1282.03
477.01	1269.74
477.21	1282.03
477.42	1282.03
477.62	1259.50
477.82	1265.64
478.02	1261.55
478.23	1294.32
478.43	1269.74
478.63	1310.70
478.83	1241.07
479.03	1265.64
479.24	1355.76
479.44	1286.12
479.64	1249.26
479.84	1230.83
480.04	1292.27
480.25	1249.26
480.45	1345.52
480.65	1257.45
480.85	1218.54
481.06	1249.26
481.26	1251.31
481.46	1259.50
481.66	1292.27
481.86	1263.60
482.06	1265.64
482.27	1216.49
482.47	1353.71
482.67	1271.79
482.87	1245.16
483.07	1206.25
483.28	1286.12
483.48	1259.50
483.68	1263.60
483.88	1296.36
484.08	1185.77
484.29	1290.22
484.49	1318.89
484.69	1279.98
484.89	1255.40
485.09	1257.45
485.29	1288.17
485.50	1275.88
485.70	1175.53
485.90	1341.42
486.10	1279.98
486.30	1220.59
486.50	1177.58
486.71	1255.40
486.91	1269.74
487.11	1255.40
487.31	1290.22
487.51	1312.75
487.71	1191.92
487.91	1300.46
488.12	1275.88
488.32	1290.22
488.52	1265.64
488.72	1234.93
488.92	1224.69
489.12	1282.03
489.32	1329.13
489.53	1290.22
489.73	1302.51
489.93	1288.17
490.13	1269.74
490.33	1251.31
490.53	1312.75
490.73	1339.37
490.94	1290.22
491.14	1273.84
491.34	1310.70
491.54	1294.32
491.74	1243.12
491.94	1181.68
492.14	1265.64
492.34	1249.26
492.54	1239.02
492.75	1318.89
492.95	1263.60
493.15	1269.74
493.35	1310.70
493.55	1208.30
493.75	1247.21
493.95	1228.78
494.15	1251.31
494.35	1224.69
494.56	1208.30
494.76	1302.51
494.96	1214.45
495.16	1230.83
495.36	1304.56
495.56	1267.69
495.76	1275.88
495.96	1239.02
496.16	1222.64
496.36	1292.27
496.56	1288.17
496.77	1202.16
496.97	1230.83
497.17	1265.64
497.37	1296.36
497.57	1279.98
497.77	1343.47
497.97	1284.08
498.17	1304.56
498.37	1304.56
498.57	1265.64
498.77	1288.17
498.97	1329.13
499.17	1255.40
499.38	1236.97
499.58	1312.75
499.78	1320.94
499.98	1265.64
500.18	1345.52
500.38	1265.64
500.58	1279.98
500.78	1230.83
500.98	1267.69
501.18	1273.84
501.38	1271.79
501.58	1329.13
501.78	1279.98
501.98	1253.36
502.18	1263.60
502.38	1329.13
502.58	1310.70
502.78	1224.69
502.98	1298.41
503.18	1322.99
503.38	1232.88
503.59	1249.26
503.79	1275.88
503.99	1241.07
504.19	1247.21
504.39	1259.50
504.59	1312.75
504.79	1284.08
504.99	1232.88
505.19	1290.22
505.39	1241.07
505.59	1282.03
505.79	1220.59
505.99	1179.63
506.19	1224.69
506.39	1275.88
506.59	1320.94
506.79	1306.60
506.99	1286.12
507.19	1267.69
507.39	1263.60
507.59	1310.70
507.79	1247.21
507.99	1222.64
508.19	1273.84
508.39	1265.64
508.59	1265.64
508.79	1277.93
508.99	1275.88
509.19	1279.98
509.39	1286.12
509.59	1320.94
509.79	1282.03
509.99	1363.95
510.19	1239.02
510.39	1249.26
510.59	1312.75
510.79	1302.51
510.99	1327.08
511.19	1204.21
511.39	1312.75
511.59	1200.11
511.79	1329.13
511.99	1273.84
512.19	1277.93
512.38	1286.12
512.58	1273.84
512.78	1304.56
512.98	1294.32
513.18	1320.94
513.38	1273.84
513.58	1267.69
513.78	1273.84
513.98	1316.84
514.18	1361.90
514.38	1286.12
514.58	1245.16
514.78	1230.83
514.98	1314.80
515.18	1193.97
515.38	1257.45
515.58	1271.79
515.78	1253.36
515.98	1318.89
516.18	1333.23
516.38	1279.98
516.57	1284.08
516.77	1277.93
516.97	1300.46
517.17	1327.08
517.37	1218.54
517.57	1234.93
517.77	1288.17
517.97	1261.55
518.17	1251.31
518.37	1247.21
518.57	1232.88
518.77	1320.94
518.97	1306.60
519.16	1351.66
519.36	1257.45
519.56	1234.93
519.76	1282.03
519.96	1241.07
520.16	1232.88
520.36	1216.49
520.56	1269.74
520.76	1247.21
520.96	1312.75
521.16	1222.64
521.35	1271.79
521.55	1251.31
521.75	1304.56
521.95	1202.16
522.15	1279.98
522.35	1318.89
522.55	1263.60
522.75	1257.45
522.95	1345.52
523.14	1265.64
523.34	1282.03
523.54	1282.03
523.74	1296.36
523.94	1292.27
524.14	1253.36
524.34	1284.08
524.54	1290.22
524.73	1337.32
524.93	1263.60
525.13	1294.32
525.33	1339.37
525.53	1241.07
525.73	1267.69
525.93	1257.45
526.13	1335.28
526.32	1310.70
526.52	1310.70
526.72	1294.32
526.92	1312.75
527.12	1267.69
527.32	1255.40
527.52	1294.32
527.71	1239.02
527.91	1353.71
528.11	1292.27
528.31	1269.74
528.51	1300.46
528.71	1316.84
528.90	1290.22
529.10	1298.41
529.30	1208.30
529.50	1284.08
529.70	1243.12
529.90	1245.16
530.09	1249.26
530.29	1304.56
530.49	1337.32
530.69	1279.98
530.89	1269.74
531.09	1347.56
531.28	1261.55
531.48	1234.93
531.68	1335.28
531.88	1239.02
532.08	1222.64
532.28	1239.02
532.47	1300.46
532.67	1179.63
532.87	1267.69
533.07	1261.55
533.27	1224.69
533.46	1290.22
533.66	1300.46
533.86	1308.65
534.06	1261.55
534.26	1353.71
534.45	1255.40
534.65	1257.45
534.85	1271.79
535.05	1208.30
535.25	1275.88
535.44	1271.79
535.64	1275.88
535.84	1290.22
536.04	1269.74
536.24	1241.07
536.43	1245.16
536.63	1286.12
536.83	1245.16
537.03	1249.26
537.22	1312.75
537.42	1230.83
537.62	1312.75
537.82	1216.49
538.02	1298.41
538.21	1282.03
538.41	1308.65
538.61	1277.93
538.81	1218.54
539.00	1292.27
539.20	1275.88
539.40	1241.07
539.60	1271.79
539.79	1304.56
539.99	1230.83
540.19	1255.40
540.39	1290.22
540.58	1335.28
540.78	1290.22
540.98	1257.45
541.18	1224.69
541.37	1351.66
541.57	1253.36
541.77	1275.88
541.97	1327.08
542.16	1269.74
542.36	1243.12
542.56	1282.03
542.76	1263.60
542.95	1253.36
543.15	1222.64
543.35	1224.69
543.54	1236.97
543.74	1310.70
543.94	1298.41
544.14	1251.31
544.33	1224.69
544.53	1279.98
544.73	1300.46
544.93	1206.25
545.12	1216.49
545.32	1245.16
545.52	1269.74
545.71	1312.75
545.91	1294.32
546.11	1218.54
546.30	1257.45
546.50	1236.97
546.70	1294.32
546.90	1300.46
547.09	1292.27
547.29	1261.55
547.49	1257.45
547.68	1273.84
547.88	1259.50
548.08	1271.79
548.27	1273.84
548.47	1306.60
548.67	1312.75
548.87	1347.56
549.06	1279.98
549.26	1306.60
549.46	1267.69
549.65	1329.13
549.85	1241.07
550.05	1366.00
550.24	1304.56
550.44	1273.84
550.64	1322.99
550.83	1279.98
551.03	1306.60
551.23	1304.56
551.42	1339.37
551.62	1296.36
551.82	1282.03
552.01	1259.50
552.21	1277.93
552.41	1255.40
552.60	1286.12
552.80	1236.97
553.00	1282.03
553.19	1204.21
553.39	1318.89
553.59	1269.74
553.78	1290.22
553.98	1253.36
554.17	1366.00
554.37	1275.88
554.57	1327.08
554.76	1257.45
554.96	1269.74
555.16	1298.41
555.35	1273.84
555.55	1226.73
555.75	1329.13
555.94	1333.23
556.14	1259.50
556.33	1292.27
556.53	1273.84
556.73	1349.61
556.92	1269.74
557.12	1275.88
557.32	1308.65
557.51	1273.84
557.71	1353.71
557.90	1234.93
558.10	1308.65
558.30	1308.65
558.49	1259.50
558.69	1249.26
558.88	1234.93
559.08	1304.56
559.28	1232.88
559.47	1269.74
559.67	1306.60
559.86	1339.37
560.06	1224.69
560.26	1322.99
560.45	1273.84
560.65	1282.03
560.84	1282.03
561.04	1345.52
561.24	1322.99
561.43	1347.56
561.63	1267.69
561.82	1261.55
562.02	1327.08
562.22	1337.32
562.41	1294.32
562.61	1288.17
562.80	1241.07
563.00	1257.45
563.19	1222.64
563.39	1296.36
563.59	1335.28
563.78	1284.08
563.98	1191.92
564.17	1361.90
564.37	1208.30
564.56	1306.60
564.76	1263.60
564.96	1282.03
565.15	1286.12
565.35	1259.50
565.54	1243.12
565.74	1239.02
565.93	1239.02
566.13	1232.88
566.32	1279.98
566.52	1290.22
566.71	1290.22
566.91	1253.36
567.11	1308.65
567.30	1265.64
567.50	1277.93
567.69	1206.25
567.89	1294.32
568.08	1241.07
568.28	1234.93
568.47	1290.22
568.67	1249.26
568.86	1306.60
569.06	1322.99
569.25	1333.23
569.45	1318.89
569.64	1257.45
569.84	1345.52
570.04	1306.60
570.23	1298.41
570.43	1259.50
570.62	1284.08
570.82	1284.08
571.01	1282.03
571.21	1320.94
571.40	1257.45
571.60	1273.84
571.79	1300.46
571.99	1310.70
572.18	1284.08
572.38	1263.60
572.57	1251.31
572.77	1286.12
572.96	1327.08
573.16	1318.89
573.35	1394.67
573.55	1292.27
573.74	1308.65
573.94	1257.45
574.13	1349.61
574.33	1279.98
574.52	1318.89
574.71	1314.80
574.91	1245.16
575.10	1249.26
575.30	1292.27
575.49	1312.75
575.69	1275.88
575.88	1292.27
576.08	1210.35
576.27	1261.55
576.47	1304.56
576.66	1286.12
576.86	1214.45
577.05	1312.75
577.25	1314.80
577.44	1318.89
577.64	1275.88
577.83	1349.61
578.02	1292.27
578.22	1282.03
578.41	1380.33
578.61	1304.56
578.80	1239.02
579.00	1222.64
579.19	1257.45
579.39	1345.52
579.58	1255.40
579.77	1275.88
579.97	1318.89
580.16	1298.41
580.36	1257.45
580.55	1284.08
580.75	1228.78
580.94	1353.71
581.13	1273.84
581.33	1214.45
581.52	1247.21
581.72	1290.22
581.91	1310.70
582.11	1216.49
582.30	1333.23
582.49	1308.65
582.69	1331.18
582.88	1290.22
583.08	1357.80
583.27	1316.84
583.47	1267.69
583.66	1331.18
583.85	1320.94
584.05	1327.08
584.24	1181.68
584.44	1277.93
584.63	1269.74
584.82	1318.89
585.02	1210.35
585.21	1279.98
585.41	1308.65
585.60	1331.18
585.79	1288.17
585.99	1253.36
586.18	1212.40
586.37	1275.88
586.57	1327.08
586.76	1275.88
586.96	1300.46
587.15	1300.46
587.34	1261.55
587.54	1228.78
587.73	1322.99
587.93	1253.36
588.12	1269.74
588.31	1351.66
588.51	1314.80
588.70	1320.94
588.89	1214.45
589.09	1282.03
589.28	1318.89
589.47	1288.17
589.67	1296.36
589.86	1288.17
590.06	1284.08
590.25	1239.02
590.44	1279.98
590.64	1273.84
590.83	1316.84
591.02	1298.41
591.22	1329.13
591.41	1290.22
591.60	1355.76
591.80	1320.94
591.99	1247.21
592.18	1380.33
592.38	1269.74
592.57	1335.28
592.76	1263.60
592.96	1279.98
593.15	1325.04
593.34	1339.37
593.54	1279.98
593.73	1265.64
593.92	1327.08
594.12	1263.60
594.31	1273.84
594.50	1304.56
594.70	1273.84
594.89	1261.55
595.08	1310.70
595.28	1331.18
595.47	1300.46
595.66	1247.21
595.86	1206.25
596.05	1279.98
596.24	1249.26
596.43	1271.79
596.63	1261.55
596.82	1335.28
597.01	1277.93
597.21	1284.08
597.40	1314.80
597.59	1247.21
597.79	1357.80
597.98	1179.63
598.17	1298.41
598.36	1353.71
598.56	1241.07
598.75	1292.27
598.94	1239.02
599.14	1331.18
599.33	1265.64
599.52	1304.56
599.71	1306.60
599.91	1265.64
600.10	1265.64
600.29	1312.75
600.48	1286.12
600.68	1249.26
600.87	1239.02
601.06	1312.75
601.26	1288.17
601.45	1277.93
601.64	1265.64
601.83	1378.28
602.03	1284.08
602.22	1255.40
602.41	1284.08
602.60	1298.41
602.80	1273.84
602.99	1220.59
603.18	1214.45
603.37	1261.55
603.57	1216.49
603.76	1247.21
603.95	1292.27
604.14	1304.56
604.34	1310.70
604.53	1318.89
604.72	1230.83
604.91	1298.41
605.10	1308.65
605.30	1271.79
605.49	1333.23
605.68	1189.87
605.87	1257.45
606.07	1345.52
606.26	1216.49
606.45	1327.08
606.64	1183.73
606.84	1245.16
607.03	1245.16
607.22	1294.32
607.41	1322.99
607.60	1222.64
607.80	1292.27
607.99	1257.45
608.18	1310.70
608.37	1286.12
608.56	1300.46
608.76	1331.18
608.95	1320.94
609.14	1296.36
609.33	1216.49
609.52	1251.31
609.72	1327.08
609.91	1282.03
610.10	1261.55
610.29	1234.93
610.48	1316.84
610.68	1282.03
610.87	1232.88
611.06	1273.84
611.25	1331.18
611.44	1320.94
611.63	1318.89
611.83	1269.74
612.02	1294.32
612.21	1304.56
612.40	1220.59
612.59	1314.80
612.79	1245.16
612.98	1286.12
613.17	1247.21
613.36	1257.45
613.55	1325.04
613.74	1241.07
613.93	1316.84
614.13	1271.79
614.32	1216.49
614.51	1241.07
614.70	1257.45
614.89	1347.56
615.08	1259.50
615.28	1316.84
615.47	1249.26
615.66	1325.04
615.85	1347.56
616.04	1265.64
616.23	1277.93
616.42	1363.95
616.62	1325.04
616.81	1279.98
617.00	1320.94
617.19	1296.36
617.38	1286.12
617.57	1304.56
617.76	1232.88
617.95	1279.98
618.15	1267.69
618.34	1339.37
618.53	1249.26
618.72	1171.44
618.91	1286.12
619.10	1325.04
619.29	1288.17
619.48	1320.94
619.68	1273.84
619.87	1286.12
620.06	1275.88
620.25	1290.22
620.44	1245.16
620.63	1308.65
620.82	1302.51
621.01	1308.65
621.20	1226.73
621.39	1353.71
621.59	1320.94
621.78	1300.46
621.97	1269.74
622.16	1282.03
622.35	1296.36
622.54	1236.97
622.73	1249.26
622.92	1298.41
623.11	1273.84
623.30	1308.65
623.49	1271.79
623.68	1282.03
623.88	1255.40
624.07	1337.32
624.26	1251.31
624.45	1306.60
624.64	1241.07
624.83	1298.41
625.02	1296.36
625.21	1275.88
625.40	1310.70
625.59	1308.65
625.78	1288.17
625.97	1325.04
626.16	1200.11
626.35	1265.64
626.54	1335.28
626.74	1372.14
626.93	1261.55
627.12	1298.41
627.31	1228.78
627.50	1314.80
627.69	1279.98
627.88	1230.83
628.07	1288.17
628.26	1368.04
628.45	1290.22
628.64	1279.98
628.83	1320.94
629.02	1347.56
629.21	1302.51
629.40	1314.80
629.59	1333.23
629.78	1284.08
629.97	1325.04
630.16	1279.98
630.35	1288.17
630.54	1253.36
630.73	1325.04
630.92	1292.27
631.11	1304.56
631.30	1314.80
631.49	1388.52
631.68	1366.00
631.87	1347.56
632.06	1425.39
632.25	1486.83
632.44	1411.05
632.63	1376.24
632.82	1378.28
633.01	1529.83
633.20	1380.33
633.39	1462.25
633.58	1470.44
633.77	1368.04
633.96	1476.59
634.15	1480.68
634.34	1384.43
634.53	1490.92
634.72	1421.29
634.91	1380.33
635.10	1404.91
635.29	1456.11
635.48	1449.96
635.67	1441.77
635.86	1486.83
636.05	1474.54
636.24	1478.63
636.43	1402.86
636.62	1361.90
636.81	1355.76
637.00	1398.76
637.19	1339.37
637.38	1396.71
637.57	1341.42
637.76	1427.43
637.95	1243.12
638.14	1345.52
638.33	1294.32
638.52	1279.98
638.71	1359.85
638.89	1314.80
639.08	1310.70
639.27	1322.99
639.46	1265.64
639.65	1300.46
639.84	1292.27
640.03	1298.41
640.22	1267.69
640.41	1298.41
640.60	1234.93
640.79	1239.02
640.98	1275.88
641.17	1320.94
641.36	1269.74
641.55	1261.55
641.74	1251.31
641.92	1226.73
642.11	1265.64
642.30	1331.18
642.49	1292.27
642.68	1216.49
642.87	1298.41
643.06	1239.02
643.25	1304.56
643.44	1320.94
643.63	1230.83
643.82	1351.66
644.00	1216.49
644.19	1318.89
644.38	1261.55
644.57	1282.03
644.76	1271.79
644.95	1300.46
645.14	1241.07
645.33	1273.84
645.52	1232.88
645.71	1282.03
645.89	1312.75
646.08	1277.93
646.27	1290.22
646.46	1325.04
646.65	1257.45
646.84	1232.88
647.03	1277.93
647.22	1286.12
647.40	1245.16
647.59	1265.64
647.78	1298.41
647.97	1259.50
648.16	1296.36
648.35	1325.04
648.54	1245.16
648.73	1294.32
648.91	1279.98
649.10	1333.23
649.29	1257.45
649.48	1339.37
649.67	1245.16
649.86	1343.47
650.05	1265.64
650.23	1261.55
650.42	1265.64
650.61	1279.98
650.80	1308.65
650.99	1286.12
651.18	1251.31
651.36	1312.75
651.55	1275.88
651.74	1335.28
651.93	1224.69
652.12	1325.04
652.31	1255.40
652.49	1267.69
652.68	1208.30
652.87	1337.32
653.06	1333.23
653.25	1261.55
653.44	1273.84
653.62	1310.70
653.81	1253.36
654.00	1290.22
654.19	1269.74
654.38	1271.79
654.56	1202.16
654.75	1325.04
654.94	1236.97
655.13	1236.97
655.32	1253.36
655.51	1255.40
655.69	1271.79
655.88	1253.36
656.07	1263.60
656.26	1304.56
656.45	1247.21
656.63	1263.60
656.82	1216.49
657.01	1245.16
657.20	1253.36
657.38	1300.46
657.57	1261.55
657.76	1304.56
657.95	1331.18
658.14	1290.22
658.32	1300.46
658.51	1269.74
658.70	1310.70
658.89	1275.88
659.08	1257.45
659.26	1245.16
659.45	1308.65
659.64	1216.49
659.83	1251.31
660.01	1333.23
660.20	1279.98
660.39	1187.82
660.58	1306.60
660.76	1286.12
660.95	1239.02
661.14	1282.03
661.33	1214.45
661.51	1275.88
661.70	1253.36
661.89	1306.60
662.08	1286.12
662.26	1302.51
662.45	1249.26
662.64	1261.55
662.83	1265.64
663.01	1259.50
663.20	1269.74
663.39	1312.75
663.58	1312.75
663.76	1245.16
663.95	1265.64
664.14	1275.88
664.32	1286.12
664.51	1337.32
664.70	1259.50
664.89	1257.45
665.07	1206.25
665.26	1310.70
665.45	1234.93
665.64	1290.22
665.82	1222.64
666.01	1218.54
666.20	1210.35
666.38	1282.03
666.57	1261.55
666.76	1249.26
666.95	1290.22
667.13	1228.78
667.32	1290.22
667.51	1296.36
667.69	1228.78
667.88	1247.21
668.07	1267.69
668.25	1226.73
668.44	1265.64
668.63	1314.80
668.81	1245.16
669.00	1277.93
669.19	1263.60
669.38	1312.75
669.56	1224.69
669.75	1191.92
669.94	1261.55
670.12	1298.41
670.31	1226.73
670.50	1253.36
670.68	1212.40
670.87	1312.75
671.06	1249.26
671.24	1294.32
671.43	1245.16
671.62	1279.98
671.80	1265.64
671.99	1206.25
672.18	1193.97
672.36	1239.02
672.55	1267.69
672.74	1234.93
672.92	1236.97
673.11	1226.73
673.29	1300.46
673.48	1304.56
673.67	1241.07
673.85	1351.66
674.04	1220.59
674.23	1314.80
674.41	1316.84
674.60	1343.47
674.79	1214.45
674.97	1292.27
675.16	1177.58
675.34	1189.87
675.53	1245.16
675.72	1331.18
675.90	1310.70
676.09	1255.40
676.28	1302.51
676.46	1292.27
676.65	1222.64
676.83	1284.08
677.02	1300.46
677.21	1239.02
677.39	1320.94
677.58	1288.17
677.77	1306.60
677.95	1177.58
678.14	1349.61
678.32	1216.49
678.51	1294.32
678.70	1249.26
678.88	1245.16
679.07	1243.12
679.25	1298.41
679.44	1204.21
679.63	1290.22
679.81	1363.95
680.00	1269.74
680.18	1257.45
680.37	1271.79
680.55	1273.84
680.74	1308.65
680.93	1312.75
681.11	1294.32
681.30	1337.32
681.48	1257.45
681.67	1265.64
681.85	1230.83
682.04	1232.88
682.23	1251.31
682.41	1288.17
682.60	1271.79
682.78	1236.97
682.97	1300.46
683.15	1253.36
683.34	1333.23
683.53	1308.65
683.71	1306.60
683.90	1257.45
684.08	1294.32
684.27	1294.32
684.45	1327.08
684.64	1288.17
684.82	1290.22
685.01	1290.22
685.19	1265.64
685.38	1277.93
685.57	1204.21
685.75	1271.79
685.94	1286.12
686.12	1253.36
686.31	1232.88
686.49	1277.93
686.68	1255.40
686.86	1200.11
687.05	1267.69
687.23	1255.40
687.42	1271.79
687.60	1273.84
687.79	1253.36
687.97	1269.74
688.16	1255.40
688.34	1327.08
688.53	1284.08
688.71	1241.07
688.90	1271.79
689.08	1218.54
689.27	1222.64
689.45	1259.50
689.64	1282.03
689.82	1284.08
690.01	1245.16
690.19	1282.03
690.38	1253.36
690.56	1269.74
690.75	1196.01
690.93	1376.24
691.12	1255.40
691.30	1290.22
691.49	1202.16
691.67	1257.45
691.86	1308.65
692.04	1275.88
692.23	1243.12
692.41	1294.32
692.60	1288.17
692.78	1300.46
692.97	1288.17
693.15	1206.25
693.34	1294.32
693.52	1271.79
693.71	1239.02
693.89	1241.07
694.08	1241.07
694.26	1220.59
694.44	1284.08
694.63	1249.26
694.81	1288.17
695.00	1290.22
695.18	1304.56
695.37	1300.46
695.55	1232.88
695.74	1271.79
695.92	1247.21
696.10	1259.50
696.29	1224.69
696.47	1347.56
696.66	1261.55
696.84	1314.80
697.03	1269.74
697.21	1308.65
697.40	1308.65
697.58	1314.80
697.76	1208.30
697.95	1226.73
698.13	1243.12
698.32	1275.88
698.50	1279.98
698.68	1267.69
698.87	1243.12
699.05	1253.36
699.24	1255.40
699.42	1247.21
699.61	1298.41
699.79	1269.74
699.97	1267.69
700.16	1275.88
700.34	1300.46
700.53	1273.84
700.71	1269.74
700.89	1273.84
701.08	1214.45
701.26	1279.98
701.45	1294.32
701.63	1265.64
701.81	1216.49
702.00	1234.93
702.18	1249.26
702.37	1224.69
702.55	1294.32
702.73	1273.84
702.92	1259.50
703.10	1290.22
703.28	1261.55
703.47	1255.40
703.65	1335.28
703.84	1230.83
704.02	1234.93
704.20	1263.60
704.39	1288.17
704.57	1298.41
704.75	1236.97
704.94	1257.45
705.12	1263.60
705.30	1222.64
705.49	1245.16
705.67	1214.45
705.86	1265.64
706.04	1312.75
706.22	1351.66
706.41	1265.64
706.59	1257.45
706.77	1249.26
706.96	1255.40
707.14	1279.98
707.32	1206.25
707.51	1279.98
707.69	1236.97
707.87	1253.36
708.06	1253.36
708.24	1312.75
708.42	1298.41
708.61	1257.45
708.79	1277.93
708.97	1224.69
709.16	1218.54
709.34	1216.49
709.52	1314.80
709.71	1239.02
709.89	1253.36
710.07	1247.21
710.26	1304.56
710.44	1263.60
710.62	1243.12
710.80	1193.97
710.99	1296.36
711.17	1310.70
711.35	1282.03
711.54	1279.98
711.72	1232.88
711.90	1347.56
712.09	1302.51
712.27	1253.36
712.45	1265.64
712.63	1257.45
712.82	1228.78
713.00	1236.97
713.18	1200.11
713.37	1294.32
713.55	1329.13
713.73	1284.08
713.91	1253.36
714.10	1247.21
714.28	1255.40
714.46	1302.51
714.65	1282.03
714.83	1277.93
715.01	1214.45
715.19	1327.08
715.38	1255.40
715.56	1241.07
715.74	1259.50
715.92	1273.84
716.11	1247.21
716.29	1331.18
716.47	1316.84
716.65	1234.93
716.84	1310.70
717.02	1269.74
717.20	1224.69
717.38	1314.80
717.57	1269.74
717.75	1294.32
717.93	1222.64
718.11	1325.04
718.30	1241.07
718.48	1265.64
718.66	1284.08
718.84	1284.08
719.03	1173.49
719.21	1236.97
719.39	1243.12
719.57	1224.69
719.75	1263.60
719.94	1316.84
720.12	1265.64
720.30	1306.60
720.48	1232.88
720.67	1314.80
720.85	1357.80
721.03	1265.64
721.21	1236.97
721.39	1228.78
721.58	1198.06
721.76	1265.64
721.94	1234.93
722.12	1275.88
722.30	1216.49
722.49	1296.36
722.67	1269.74
722.85	1279.98
723.03	1300.46
723.21	1286.12
723.40	1322.99
723.58	1239.02
723.76	1208.30
723.94	1279.98
724.12	1357.80
724.30	1288.17
724.49	1288.17
724.67	1236.97
724.85	1210.35
725.03	1214.45
725.21	1277.93
725.40	1333.23
725.58	1220.59
725.76	1243.12
725.94	1198.06
726.12	1263.60
726.30	1204.21
726.49	1275.88
726.67	1259.50
726.85	1290.22
727.03	1279.98
727.21	1308.65
727.39	1359.85
727.57	1251.31
727.76	1275.88
727.94	1265.64
728.12	1236.97
728.30	1255.40
728.48	1230.83
728.66	1327.08
728.84	1257.45
729.03	1243.12
729.21	1251.31
729.39	1294.32
729.57	1257.45
729.75	1282.03
729.93	1247.21
730.11	1226.73
730.30	1267.69
730.48	1279.98
730.66	1288.17
730.84	1245.16
731.02	1257.45
731.20	1255.40
731.38	1261.55
731.56	1298.41
731.74	1292.27
731.93	1230.83
732.11	1241.07
732.29	1308.65
732.47	1263.60
732.65	1275.88
732.83	1277.93
733.01	1345.52
733.19	1284.08
733.37	1249.26
733.56	1267.69
733.74	1329.13
733.92	1216.49
734.10	1310.70
734.28	1269.74
734.46	1265.64
734.64	1212.40
734.82	1255.40
735.00	1263.60
735.18	1339.37
735.36	1239.02
735.54	1230.83
735.73	1304.56
735.91	1263.60
736.09	1263.60
736.27	1269.74
736.45	1265.64
736.63	1273.84
736.81	1329.13
736.99	1273.84
737.17	1271.79
737.35	1255.40
737.53	1320.94
737.71	1253.36
737.89	1259.50
738.07	1312.75
738.25	1212.40
738.43	1239.02
738.61	1236.97
738.80	1279.98
738.98	1263.60
739.16	1241.07
739.34	1282.03
739.52	1271.79
739.70	1226.73
739.88	1204.21
740.06	1224.69
740.24	1249.26
740.42	1232.88
740.60	1267.69
740.78	1208.30
740.96	1327.08
741.14	1263.60
741.32	1200.11
741.50	1279.98
741.68	1331.18
741.86	1314.80
742.04	1220.59
742.22	1284.08
742.40	1269.74
742.58	1249.26
742.76	1261.55
742.94	1234.93
743.12	1271.79
743.30	1277.93
743.48	1310.70
743.66	1273.84
743.84	1257.45
744.02	1298.41
744.20	1271.79
744.38	1302.51
744.56	1228.78
744.74	1267.69
744.92	1204.21
745.10	1284.08
745.28	1310.70
745.46	1277.93
745.64	1204.21
745.82	1253.36
746.00	1308.65
746.18	1288.17
746.36	1261.55
746.54	1316.84
746.72	1222.64
746.90	1224.69
747.08	1292.27
747.26	1212.40
747.44	1243.12
747.62	1298.41
747.80	1294.32
747.98	1232.88
748.15	1273.84
748.33	1241.07
748.51	1282.03
748.69	1234.93
748.87	1306.60
749.05	1347.56
749.23	1247.21
749.41	1308.65
749.59	1255.40
749.77	1261.55
749.95	1265.64
750.13	1214.45
750.31	1216.49
750.49	1282.03
750.67	1269.74
750.85	1290.22
751.03	1265.64
751.20	1232.88
751.38	1306.60
751.56	1208.30
751.74	1312.75
751.92	1279.98
752.10	1320.94
752.28	1204.21
752.46	1208.30
752.64	1241.07
752.82	1277.93
753.00	1292.27
753.18	1308.65
753.35	1210.35
753.53	1261.55
753.71	1193.97
753.89	1196.01
754.07	1222.64
754.25	1310.70
754.43	1271.79
754.61	1308.65
754.79	1253.36
754.97	1230.83
755.14	1279.98
755.32	1345.52
755.50	1214.45
755.68	1241.07
755.86	1224.69
756.04	1208.30
756.22	1263.60
756.40	1220.59
756.57	1290.22
756.75	1216.49
756.93	1245.16
757.11	1267.69
757.29	1247.21
757.47	1296.36
757.65	1232.88
757.82	1206.25
758.00	1230.83
758.18	1284.08
758.36	1300.46
758.54	1236.97
758.72	1267.69
758.90	1257.45
759.07	1263.60
759.25	1277.93
759.43	1228.78
759.61	1212.40
759.79	1329.13
759.97	1263.60
760.15	1284.08
760.32	1153.01
760.50	1277.93
760.68	1312.75
760.86	1259.50
761.04	1347.56
761.22	1294.32
761.39	1249.26
761.57	1257.45
761.75	1288.17
761.93	1316.84
762.11	1226.73
762.28	1331.18
762.46	1265.64
762.64	1304.56
762.82	1290.22
763.00	1243.12
763.18	1255.40
763.35	1241.07
763.53	1267.69
763.71	1243.12
763.89	1269.74
764.07	1251.31
764.24	1327.08
764.42	1226.73
764.60	1273.84
764.78	1263.60
764.96	1322.99
765.13	1228.78
765.31	1269.74
765.49	1294.32
765.67	1265.64
765.84	1286.12
766.02	1312.75
766.20	1296.36
766.38	1339.37
766.56	1339.37
766.73	1239.02
766.91	1329.13
767.09	1298.41
767.27	1267.69
767.44	1290.22
767.62	1232.88
767.80	1210.35
767.98	1275.88
768.15	1322.99
768.33	1318.89
768.51	1261.55
768.69	1310.70
768.87	1329.13
769.04	1245.16
769.22	1249.26
769.40	1304.56
769.58	1212.40
769.75	1241.07
769.93	1282.03
770.11	1255.40
770.28	1290.22
770.46	1214.45
770.64	1261.55
770.82	1259.50
770.99	1288.17
771.17	1232.88
771.35	1277.93
771.53	1196.01
771.70	1284.08
771.88	1271.79
772.06	1245.16
772.23	1302.51
772.41	1306.60
772.59	1255.40
772.77	1265.64
772.94	1296.36
773.12	1298.41
773.30	1284.08
773.47	1257.45
773.65	1247.21
773.83	1271.79
774.01	1167.34
774.18	1263.60
774.36	1208.30
774.54	1255.40
774.71	1347.56
774.89	1220.59
775.07	1273.84
775.24	1298.41
775.42	1263.60
775.60	1247.21
775.78	1292.27
775.95	1288.17
776.13	1263.60
776.31	1263.60
776.48	1296.36
776.66	1220.59
776.84	1275.88
777.01	1212.40
777.19	1349.61
777.37	1282.03
777.54	1224.69
777.72	1361.90
777.90	1273.84
778.07	1234.93
778.25	1269.74
778.43	1255.40
778.60	1320.94
778.78	1277.93
778.96	1284.08
779.13	1226.73
779.31	1331.18
779.49	1290.22
779.66	1255.40
779.84	1310.70
780.01	1279.98
780.19	1294.32
780.37	1193.97
780.54	1261.55
780.72	1263.60
780.90	1259.50
781.07	1263.60
781.25	1253.36
781.43	1183.73
781.60	1259.50
781.78	1304.56
781.95	1320.94
782.13	1320.94
782.31	1222.64
782.48	1204.21
782.66	1279.98
782.83	1265.64
783.01	1296.36
783.19	1273.84
783.36	1286.12
783.54	1253.36
783.72	1222.64
783.89	1273.84
784.07	1302.51
784.24	1294.32
784.42	1294.32
784.60	1191.92
784.77	1302.51
784.95	1273.84
785.12	1257.45
785.30	1271.79
785.47	1275.88
785.65	1298.41
785.83	1314.80
786.00	1277.93
786.18	1286.12
786.35	1239.02
786.53	1257.45
786.71	1249.26
786.88	1204.21
787.06	1320.94
787.23	1363.95
787.41	1259.50
787.58	1214.45
787.76	1304.56
787.94	1175.53
788.11	1259.50
788.29	1249.26
788.46	1236.97
788.64	1277.93
788.81	1343.47
788.99	1232.88
789.16	1249.26
789.34	1265.64
789.52	1245.16
789.69	1288.17
789.87	1269.74
790.04	1175.53
790.22	1306.60
790.39	1318.89
790.57	1249.26
790.74	1224.69
790.92	1306.60
791.09	1273.84
791.27	1327.08
791.44	1261.55
791.62	1251.31
791.79	1284.08
791.97	1271.79
792.15	1241.07
792.32	1282.03
792.50	1294.32
792.67	1271.79
792.85	1245.16
793.02	1263.60
793.20	1312.75
793.37	1189.87
793.55	1294.32
793.72	1249.26
793.90	1251.31
794.07	1206.25
794.25	1236.97
794.42	1222.64
794.60	1173.49
794.77	1269.74
794.95	1288.17
795.12	1245.16
795.30	1216.49
795.47	1277.93
795.65	1216.49
795.82	1284.08
796.00	1228.78
796.17	1261.55
796.34	1288.17
796.52	1253.36
796.69	1271.79
796.87	1245.16
797.04	1241.07
797.22	1273.84
797.39	1230.83
797.57	1251.31
797.74	1271.79
797.92	1239.02
798.09	1173.49
798.27	1257.45
798.44	1265.64
798.62	1279.98
798.79	1232.88
798.96	1228.78
799.14	1251.31
799.31	1302.51
799.49	1179.63
799.66	1279.98
799.84	1306.60
800.01	1269.74
800.19	1349.61
800.36	1191.92
800.53	1304.56
800.71	1259.50
800.88	1296.36
801.06	1241.07
801.23	1271.79
801.41	1239.02
801.58	1257.45
801.75	1304.56
801.93	1243.12
802.10	1210.35
802.28	1273.84
802.45	1263.60
802.63	1255.40
802.80	1247.21
802.97	1214.45
803.15	1322.99
803.32	1290.22
803.50	1181.68
803.67	1241.07
803.84	1257.45
804.02	1294.32
804.19	1267.69
804.37	1224.69
804.54	1292.27
804.71	1347.56
804.89	1257.45
805.06	1249.26
805.24	1200.11
805.41	1279.98
805.58	1210.35
805.76	1402.86
805.93	1249.26
806.10	1351.66
806.28	1370.09
806.45	1257.45
806.63	1179.63
806.80	1296.36
806.97	1349.61
807.15	1261.55
807.32	1185.77
807.49	1292.27
807.67	1308.65
807.84	1196.01
808.01	1271.79
808.19	1290.22
808.36	1218.54
808.54	1310.70
808.71	1198.06
808.88	1327.08
809.06	1296.36
809.23	1339.37
809.40	1259.50
809.58	1273.84
809.75	1222.64
809.92	1263.60
810.10	1286.12
810.27	1251.31
810.44	1249.26
810.62	1329.13
810.79	1294.32
810.96	1312.75
811.14	1304.56
811.31	1187.82
811.48	1282.03
811.66	1220.59
811.83	1279.98
812.00	1275.88
812.18	1320.94
812.35	1282.03
812.52	1216.49
812.69	1306.60
812.87	1226.73
813.04	1273.84
813.21	1257.45
813.39	1290.22
813.56	1228.78
813.73	1230.83
813.91	1298.41
814.08	1273.84
814.25	1290.22
814.42	1267.69
814.60	1257.45
814.77	1187.82
814.94	1316.84
815.12	1249.26
815.29	1329.13
815.46	1331.18
815.63	1279.98
815.81	1239.02
815.98	1249.26
816.15	1214.45
816.33	1275.88
816.50	1273.84
816.67	1251.31
816.84	1284.08
817.02	1236.97
817.19	1279.98
817.36	1304.56
817.53	1308.65
817.71	1298.41
817.88	1284.08
818.05	1275.88
818.22	1241.07
818.40	1243.12
818.57	1251.31
818.74	1196.01
818.91	1263.60
819.09	1202.16
819.26	1269.74
819.43	1232.88
819.60	1208.30
819.78	1290.22
819.95	1249.26
820.12	1249.26
820.29	1271.79
820.47	1282.03
820.64	1204.21
820.81	1241.07
820.98	1304.56
821.15	1273.84
821.33	1277.93
821.50	1296.36
821.67	1279.98
821.84	1306.60
822.02	1284.08
822.19	1249.26
822.36	1263.60
822.53	1298.41
822.70	1271.79
822.88	1341.42
823.05	1294.32
823.22	1304.56
823.39	1316.84
823.56	1304.56
823.74	1202.16
823.91	1277.93
824.08	1136.62
824.25	1306.60
824.42	1325.04
824.60	1236.97
824.77	1378.28
824.94	1245.16
825.11	1239.02
825.28	1249.26
825.45	1286.12
825.63	1214.45
825.80	1290.22
825.97	1284.08
826.14	1220.59
826.31	1232.88
826.48	1257.45
826.66	1165.29
826.83	1294.32
827.00	1249.26
827.17	1232.88
827.34	1259.50
827.51	1261.55
827.69	1282.03
827.86	1284.08
828.03	1245.16
828.20	1290.22
828.37	1224.69
828.54	1273.84
828.71	1269.74
828.89	1263.60
829.06	1300.46
829.23	1245.16
829.40	1224.69
829.57	1249.26
829.74	1357.80
829.91	1271.79
830.09	1255.40
830.26	1314.80
830.43	1257.45
830.60	1257.45
830.77	1249.26
830.94	1241.07
831.11	1204.21
831.28	1226.73
831.46	1271.79
831.63	1228.78
831.80	1327.08
831.97	1308.65
832.14	1282.03
832.31	1259.50
832.48	1155.05
832.65	1290.22
832.82	1236.97
832.99	1161.20
833.17	1249.26
833.34	1288.17
833.51	1302.51
833.68	1277.93
833.85	1310.70
834.02	1257.45
834.19	1318.89
834.36	1273.84
834.53	1304.56
834.70	1292.27
834.87	1273.84
835.04	1234.93
835.22	1296.36
835.39	1310.70
835.56	1296.36
835.73	1216.49
835.90	1226.73
836.07	1298.41
836.24	1277.93
836.41	1255.40
836.58	1198.06
836.75	1308.65
836.92	1288.17
837.09	1284.08
837.26	1228.78
837.43	1329.13
837.60	1282.03
837.77	1292.27
837.94	1347.56
838.12	1337.32
838.29	1370.09
838.46	1329.13
838.63	1269.74
838.80	1314.80
838.97	1232.88
839.14	1314.80
839.31	1304.56
839.48	1275.88
839.65	1239.02
839.82	1277.93
839.99	1206.25
840.16	1277.93
840.33	1236.97
840.50	1255.40
840.67	1286.12
840.84	1200.11
841.01	1261.55
841.18	1273.84
841.35	1257.45
841.52	1232.88
841.69	1261.55
841.86	1265.64
842.03	1308.65
842.20	1251.31
842.37	1249.26
842.54	1177.58
842.71	1302.51
842.88	1343.47
843.05	1279.98
843.22	1271.79
843.39	1284.08
843.56	1288.17
843.73	1312.75
843.90	1261.55
844.07	1236.97
844.24	1333.23
844.41	1255.40
844.58	1335.28
844.75	1288.17
844.92	1275.88
845.09	1314.80
845.26	1265.64
845.43	1228.78
845.60	1353.71
845.77	1230.83
845.94	1275.88
846.10	1206.25
846.27	1226.73
846.44	1284.08
846.61	1286.12
846.78	1298.41
846.95	1222.64
847.12	1290.22
847.29	1216.49
847.46	1277.93
847.63	1292.27
847.80	1288.17
847.97	1325.04
848.14	1204.21
848.31	1255.40
848.48	1271.79
848.65	1255.40
848.82	1302.51
848.98	1271.79
849.15	1316.84
849.32	1359.85
849.49	1206.25
849.66	1271.79
849.83	1292.27
850.00	1265.64
850.17	1277.93
850.34	1239.02
850.51	1187.82
850.68	1255.40
850.85	1333.23
851.01	1331.18
851.18	1269.74
851.35	1259.50
851.52	1316.84
851.69	1224.69
851.86	1212.40
852.03	1296.36
852.20	1372.14
852.37	1306.60
852.53	1253.36
852.70	1200.11
852.87	1271.79
853.04	1294.32
853.21	1181.68
853.38	1279.98
853.55	1273.84
853.72	1275.88
853.89	1271.79
854.05	1234.93
854.22	1181.68
854.39	1218.54
854.56	1267.69
854.73	1214.45
854.90	1304.56
855.07	1331.18
855.23	1269.74
855.40	1298.41
855.57	1234.93
855.74	1241.07
855.91	1236.97
856.08	1241.07
856.25	1265.64
856.41	1255.40
856.58	1267.69
856.75	1216.49
856.92	1296.36
857.09	1191.92
857.26	1259.50
857.42	1306.60
857.59	1228.78
857.76	1255.40
857.93	1187.82
858.10	1210.35
858.27	1228.78
858.43	1265.64
858.60	1222.64
858.77	1296.36
858.94	1310.70
859.11	1282.03
859.27	1267.69
859.44	1239.02
859.61	1308.65
859.78	1228.78
859.95	1245.16
860.12	1261.55
860.28	1286.12
860.45	1331.18
860.62	1329.13
860.79	1314.80
860.95	1265.64
861.12	1308.65
861.29	1277.93
861.46	1253.36
861.63	1310.70
861.79	1292.27
861.96	1325.04
862.13	1202.16
862.30	1271.79
862.47	1288.17
862.63	1255.40
862.80	1300.46
862.97	1296.36
863.14	1290.22
863.30	1259.50
863.47	1259.50
863.64	1322.99
863.81	1228.78
863.97	1294.32
864.14	1306.60
864.31	1239.02
864.48	1300.46
864.65	1269.74
864.81	1335.28
864.98	1239.02
865.15	1230.83
865.32	1208.30
865.48	1306.60
865.65	1304.56
865.82	1275.88
865.98	1279.98
866.15	1273.84
866.32	1261.55
866.49	1279.98
866.65	1290.22
866.82	1253.36
866.99	1243.12
867.16	1257.45
867.32	1359.85
867.49	1294.32
867.66	1271.79
867.83	1228.78
867.99	1257.45
868.16	1288.17
868.33	1275.88
868.49	1269.74
868.66	1230.83
868.83	1263.60
868.99	1265.64
869.16	1271.79
869.33	1222.64
869.50	1341.42
869.66	1247.21
869.83	1292.27
870.00	1320.94
870.16	1347.56
870.33	1277.93
870.50	1277.93
870.66	1269.74
870.83	1257.45
871.00	1290.22
871.17	1232.88
871.33	1206.25
871.50	1273.84
871.67	1185.77
871.83	1361.90
872.00	1263.60
872.17	1257.45
872.33	1271.79
872.50	1279.98
872.67	1357.80
872.83	1230.83
873.00	1288.17
873.17	1277.93
873.33	1279.98
873.50	1310.70
873.67	1275.88
873.83	1275.88
874.00	1179.63
874.16	1271.79
874.33	1206.25
874.50	1249.26
874.66	1245.16
874.83	1218.54
875.00	1234.93
875.16	1286.12
875.33	1208.30
875.50	1179.63
875.66	1271.79
875.83	1263.60
875.99	1304.56
876.16	1286.12
876.33	1253.36
876.49	1210.35
876.66	1257.45
876.83	1253.36
876.99	1263.60
877.16	1236.97
877.32	1243.12
877.49	1269.74
877.66	1318.89
877.82	1284.08
877.99	1306.60
878.15	1341.42
878.32	1153.01
878.49	1347.56
878.65	1286.12
878.82	1257.45
878.98	1247.21
879.15	1185.77
879.32	1333.23
879.48	1247.21
879.65	1255.40
879.81	1255.40
879.98	1259.50
880.15	1325.04
880.31	1277.93
880.48	1292.27
880.64	1220.59
880.81	1335.28
880.97	1249.26
881.14	1249.26
881.31	1327.08
881.47	1214.45
881.64	1232.88
881.80	1236.97
881.97	1320.94
882.13	1300.46
882.30	1284.08
882.47	1234.93
882.63	1318.89
882.80	1183.73
882.96	1306.60
883.13	1214.45
883.29	1277.93
883.46	1226.73
883.62	1363.95
883.79	1259.50
883.95	1286.12
884.12	1294.32
884.29	1314.80
884.45	1279.98
884.62	1269.74
884.78	1257.45
884.95	1265.64
885.11	1290.22
885.28	1220.59
885.44	1232.88
885.61	1243.12
885.77	1288.17
885.94	1257.45
886.10	1312.75
886.27	1239.02
886.43	1310.70
886.60	1282.03
886.76	1239.02
886.93	1329.13
887.09	1212.40
887.26	1269.74
887.42	1265.64
887.59	1265.64
887.75	1220.59
887.92	1273.84
888.08	1329.13
888.25	1228.78
888.41	1390.57
888.58	1314.80
888.74	1200.11
888.91	1290.22
>>>>>End Processed Spectral Data<<<<<
