SpectraSuite Data File
++++++++++++++++++++++++++++++++++++
Date: Sun Apr 03 19:55:36 CEST 2016
User: root
Dark Spectrum Present: No
Reference Spectrum Present: No
Number of Sampled Component Spectra: 1
Spectrometers: USB4C02835
Integration Time (usec): 10000 (USB4C02835)
Spectra Averaged: 1 (USB4C02835)
Boxcar Smoothing: 0 (USB4C02835)
Correct for Electrical Dark: No (USB4C02835)
Strobe/Lamp Enabled: No (USB4C02835)
Correct for Detector Non-linearity: No (USB4C02835)
Correct for Stray Light: No (USB4C02835)
Number of Pixels in Processed Spectrum: 3648
>>>>>Begin Processed Spectral Data<<<<<
177.47	1226.73
177.69	1226.73
177.91	1226.73
178.13	1318.89
178.36	1239.02
178.58	1247.21
178.80	1273.84
179.02	1296.36
179.24	1265.64
179.46	1271.79
179.68	1255.40
179.90	1241.07
180.13	1282.03
180.35	1269.74
180.57	1302.51
180.79	1241.07
181.01	1243.12
181.23	1290.22
181.45	1255.40
181.67	1318.89
181.90	1216.49
182.12	1202.16
182.34	1239.02
182.56	1320.94
182.78	1298.41
183.00	1243.12
183.22	1220.59
183.44	1271.79
183.66	1282.03
183.89	1279.98
184.11	1275.88
184.33	1228.78
184.55	1234.93
184.77	1298.41
184.99	1265.64
185.21	1232.88
185.43	1279.98
185.65	1282.03
185.87	1245.16
186.10	1308.65
186.32	1298.41
186.54	1359.85
186.76	1249.26
186.98	1222.64
187.20	1337.32
187.42	1261.55
187.64	1245.16
187.86	1314.80
188.08	1230.83
188.30	1249.26
188.52	1286.12
188.75	1218.54
188.97	1343.47
189.19	1290.22
189.41	1243.12
189.63	1282.03
189.85	1204.21
190.07	1247.21
190.29	1298.41
190.51	1261.55
190.73	1282.03
190.95	1257.45
191.17	1255.40
191.39	1290.22
191.61	1284.08
191.84	1226.73
192.06	1269.74
192.28	1306.60
192.50	1263.60
192.72	1261.55
192.94	1236.97
193.16	1202.16
193.38	1310.70
193.60	1232.88
193.82	1251.31
194.04	1282.03
194.26	1314.80
194.48	1322.99
194.70	1267.69
194.92	1261.55
195.14	1310.70
195.36	1269.74
195.58	1271.79
195.80	1216.49
196.02	1191.92
196.24	1234.93
196.46	1234.93
196.69	1271.79
196.91	1263.60
197.13	1210.35
197.35	1198.06
197.57	1302.51
197.79	1230.83
198.01	1230.83
198.23	1257.45
198.45	1241.07
198.67	1236.97
198.89	1267.69
199.11	1226.73
199.33	1243.12
199.55	1282.03
199.77	1224.69
199.99	1279.98
200.21	1239.02
200.43	1294.32
200.65	1183.73
200.87	1269.74
201.09	1277.93
201.31	1282.03
201.53	1329.13
201.75	1312.75
201.97	1259.50
202.19	1279.98
202.41	1228.78
202.63	1288.17
202.85	1279.98
203.07	1181.68
203.29	1255.40
203.51	1230.83
203.73	1277.93
203.95	1245.16
204.17	1251.31
204.39	1286.12
204.61	1196.01
204.83	1298.41
205.05	1265.64
205.27	1239.02
205.49	1339.37
205.71	1290.22
205.93	1284.08
206.15	1234.93
206.37	1308.65
206.59	1306.60
206.81	1241.07
207.03	1261.55
207.25	1275.88
207.47	1286.12
207.69	1206.25
207.91	1255.40
208.13	1275.88
208.34	1196.01
208.56	1335.28
208.78	1290.22
209.00	1134.57
209.22	1261.55
209.44	1341.42
209.66	1345.52
209.88	1273.84
210.10	1284.08
210.32	1239.02
210.54	1335.28
210.76	1300.46
210.98	1282.03
211.20	1288.17
211.42	1263.60
211.64	1341.42
211.86	1279.98
212.08	1245.16
212.30	1296.36
212.52	1284.08
212.74	1230.83
212.96	1277.93
213.17	1277.93
213.39	1257.45
213.61	1310.70
213.83	1271.79
214.05	1306.60
214.27	1329.13
214.49	1318.89
214.71	1208.30
214.93	1255.40
215.15	1271.79
215.37	1253.36
215.59	1310.70
215.81	1259.50
216.03	1228.78
216.24	1259.50
216.46	1314.80
216.68	1273.84
216.90	1251.31
217.12	1249.26
217.34	1296.36
217.56	1296.36
217.78	1239.02
218.00	1218.54
218.22	1290.22
218.44	1322.99
218.66	1269.74
218.87	1306.60
219.09	1251.31
219.31	1279.98
219.53	1279.98
219.75	1202.16
219.97	1312.75
220.19	1273.84
220.41	1253.36
220.63	1277.93
220.85	1310.70
221.06	1239.02
221.28	1279.98
221.50	1273.84
221.72	1234.93
221.94	1329.13
222.16	1245.16
222.38	1298.41
222.60	1220.59
222.82	1255.40
223.03	1265.64
223.25	1284.08
223.47	1310.70
223.69	1306.60
223.91	1275.88
224.13	1331.18
224.35	1247.21
224.57	1232.88
224.78	1159.15
225.00	1273.84
225.22	1288.17
225.44	1312.75
225.66	1257.45
225.88	1257.45
226.10	1322.99
226.32	1249.26
226.53	1288.17
226.75	1269.74
226.97	1304.56
227.19	1273.84
227.41	1257.45
227.63	1236.97
227.85	1320.94
228.06	1302.51
228.28	1277.93
228.50	1294.32
228.72	1212.40
228.94	1212.40
229.16	1290.22
229.37	1261.55
229.59	1290.22
229.81	1329.13
230.03	1290.22
230.25	1273.84
230.47	1327.08
230.69	1218.54
230.90	1292.27
231.12	1249.26
231.34	1300.46
231.56	1239.02
231.78	1331.18
232.00	1294.32
232.21	1249.26
232.43	1239.02
232.65	1284.08
232.87	1322.99
233.09	1234.93
233.30	1312.75
233.52	1230.83
233.74	1236.97
233.96	1279.98
234.18	1249.26
234.40	1257.45
234.61	1349.61
234.83	1337.32
235.05	1220.59
235.27	1239.02
235.49	1243.12
235.70	1273.84
235.92	1288.17
236.14	1259.50
236.36	1275.88
236.58	1277.93
236.79	1218.54
237.01	1320.94
237.23	1314.80
237.45	1267.69
237.67	1253.36
237.88	1255.40
238.10	1247.21
238.32	1243.12
238.54	1239.02
238.76	1304.56
238.97	1234.93
239.19	1236.97
239.41	1259.50
239.63	1277.93
239.85	1239.02
240.06	1206.25
240.28	1255.40
240.50	1327.08
240.72	1259.50
240.93	1263.60
241.15	1251.31
241.37	1247.21
241.59	1267.69
241.81	1236.97
242.02	1265.64
242.24	1255.40
242.46	1271.79
242.68	1257.45
242.89	1288.17
243.11	1298.41
243.33	1298.41
243.55	1279.98
243.76	1261.55
243.98	1296.36
244.20	1228.78
244.42	1265.64
244.64	1251.31
244.85	1318.89
245.07	1349.61
245.29	1306.60
245.51	1222.64
245.72	1230.83
245.94	1279.98
246.16	1234.93
246.38	1183.73
246.59	1251.31
246.81	1232.88
247.03	1286.12
247.24	1249.26
247.46	1243.12
247.68	1294.32
247.90	1292.27
248.11	1247.21
248.33	1187.82
248.55	1214.45
248.77	1288.17
248.98	1273.84
249.20	1241.07
249.42	1282.03
249.64	1245.16
249.85	1296.36
250.07	1331.18
250.29	1353.71
250.50	1312.75
250.72	1275.88
250.94	1286.12
251.16	1290.22
251.37	1306.60
251.59	1232.88
251.81	1265.64
252.02	1251.31
252.24	1277.93
252.46	1259.50
252.68	1218.54
252.89	1191.92
253.11	1245.16
253.33	1325.04
253.54	1263.60
253.76	1294.32
253.98	1294.32
254.20	1286.12
254.41	1296.36
254.63	1302.51
254.85	1294.32
255.06	1230.83
255.28	1228.78
255.50	1269.74
255.71	1251.31
255.93	1210.35
256.15	1200.11
256.36	1253.36
256.58	1382.38
256.80	1290.22
257.02	1279.98
257.23	1271.79
257.45	1241.07
257.67	1308.65
257.88	1312.75
258.10	1232.88
258.32	1310.70
258.53	1214.45
258.75	1359.85
258.97	1296.36
259.18	1286.12
259.40	1222.64
259.62	1251.31
259.83	1226.73
260.05	1273.84
260.27	1318.89
260.48	1275.88
260.70	1236.97
260.92	1298.41
261.13	1290.22
261.35	1265.64
261.57	1265.64
261.78	1306.60
262.00	1335.28
262.22	1239.02
262.43	1312.75
262.65	1234.93
262.86	1206.25
263.08	1208.30
263.30	1343.47
263.51	1232.88
263.73	1282.03
263.95	1232.88
264.16	1249.26
264.38	1261.55
264.60	1236.97
264.81	1181.68
265.03	1310.70
265.25	1329.13
265.46	1196.01
265.68	1300.46
265.89	1331.18
266.11	1187.82
266.33	1226.73
266.54	1198.06
266.76	1314.80
266.98	1267.69
267.19	1249.26
267.41	1296.36
267.62	1265.64
267.84	1261.55
268.06	1261.55
268.27	1259.50
268.49	1314.80
268.70	1277.93
268.92	1220.59
269.14	1331.18
269.35	1257.45
269.57	1224.69
269.79	1257.45
270.00	1271.79
270.22	1343.47
270.43	1261.55
270.65	1269.74
270.87	1241.07
271.08	1277.93
271.30	1249.26
271.51	1232.88
271.73	1265.64
271.95	1241.07
272.16	1214.45
272.38	1279.98
272.59	1271.79
272.81	1282.03
273.02	1298.41
273.24	1284.08
273.46	1294.32
273.67	1290.22
273.89	1304.56
274.10	1335.28
274.32	1279.98
274.54	1304.56
274.75	1286.12
274.97	1259.50
275.18	1294.32
275.40	1349.61
275.61	1249.26
275.83	1269.74
276.05	1255.40
276.26	1318.89
276.48	1294.32
276.69	1263.60
276.91	1251.31
277.12	1318.89
277.34	1277.93
277.55	1339.37
277.77	1239.02
277.99	1296.36
278.20	1325.04
278.42	1345.52
278.63	1220.59
278.85	1263.60
279.06	1308.65
279.28	1210.35
279.49	1263.60
279.71	1271.79
279.93	1255.40
280.14	1325.04
280.36	1292.27
280.57	1261.55
280.79	1257.45
281.00	1290.22
281.22	1261.55
281.43	1251.31
281.65	1181.68
281.86	1277.93
282.08	1230.83
282.29	1198.06
282.51	1282.03
282.73	1259.50
282.94	1347.56
283.16	1249.26
283.37	1300.46
283.59	1261.55
283.80	1273.84
284.02	1282.03
284.23	1271.79
284.45	1273.84
284.66	1279.98
284.88	1282.03
285.09	1361.90
285.31	1277.93
285.52	1294.32
285.74	1269.74
285.95	1257.45
286.17	1271.79
286.38	1241.07
286.60	1277.93
286.81	1206.25
287.03	1286.12
287.24	1374.19
287.46	1351.66
287.67	1290.22
287.89	1298.41
288.10	1183.73
288.32	1296.36
288.53	1329.13
288.75	1255.40
288.96	1277.93
289.18	1271.79
289.39	1304.56
289.61	1277.93
289.82	1245.16
290.04	1286.12
290.25	1220.59
290.47	1193.97
290.68	1312.75
290.90	1320.94
291.11	1175.53
291.33	1294.32
291.54	1263.60
291.76	1247.21
291.97	1200.11
292.18	1277.93
292.40	1255.40
292.61	1279.98
292.83	1273.84
293.04	1284.08
293.26	1351.66
293.47	1241.07
293.69	1224.69
293.90	1271.79
294.12	1294.32
294.33	1312.75
294.55	1325.04
294.76	1275.88
294.97	1206.25
295.19	1263.60
295.40	1230.83
295.62	1271.79
295.83	1232.88
296.05	1298.41
296.26	1218.54
296.48	1288.17
296.69	1318.89
296.90	1296.36
297.12	1282.03
297.33	1271.79
297.55	1230.83
297.76	1245.16
297.98	1271.79
298.19	1279.98
298.41	1259.50
298.62	1263.60
298.83	1230.83
299.05	1312.75
299.26	1296.36
299.48	1298.41
299.69	1249.26
299.90	1269.74
300.12	1296.36
300.33	1306.60
300.55	1247.21
300.76	1257.45
300.98	1284.08
301.19	1228.78
301.40	1245.16
301.62	1245.16
301.83	1247.21
302.05	1318.89
302.26	1288.17
302.47	1339.37
302.69	1259.50
302.90	1327.08
303.12	1286.12
303.33	1298.41
303.54	1228.78
303.76	1259.50
303.97	1263.60
304.19	1189.87
304.40	1292.27
304.61	1302.51
304.83	1349.61
305.04	1292.27
305.26	1304.56
305.47	1320.94
305.68	1284.08
305.90	1341.42
306.11	1241.07
306.33	1261.55
306.54	1290.22
306.75	1243.12
306.97	1187.82
307.18	1300.46
307.39	1320.94
307.61	1273.84
307.82	1275.88
308.04	1294.32
308.25	1265.64
308.46	1277.93
308.68	1333.23
308.89	1294.32
309.10	1220.59
309.32	1357.80
309.53	1292.27
309.74	1273.84
309.96	1255.40
310.17	1245.16
310.39	1271.79
310.60	1339.37
310.81	1277.93
311.03	1290.22
311.24	1282.03
311.45	1292.27
311.67	1157.10
311.88	1279.98
312.09	1290.22
312.31	1306.60
312.52	1279.98
312.73	1322.99
312.95	1216.49
313.16	1359.85
313.37	1273.84
313.59	1329.13
313.80	1232.88
314.01	1277.93
314.23	1265.64
314.44	1298.41
314.65	1259.50
314.87	1259.50
315.08	1230.83
315.29	1228.78
315.51	1284.08
315.72	1269.74
315.93	1353.71
316.15	1271.79
316.36	1277.93
316.57	1224.69
316.79	1267.69
317.00	1304.56
317.21	1239.02
317.43	1230.83
317.64	1265.64
317.85	1263.60
318.07	1239.02
318.28	1314.80
318.49	1277.93
318.70	1304.56
318.92	1300.46
319.13	1292.27
319.34	1335.28
319.56	1343.47
319.77	1265.64
319.98	1261.55
320.20	1269.74
320.41	1341.42
320.62	1257.45
320.83	1273.84
321.05	1253.36
321.26	1200.11
321.47	1325.04
321.69	1245.16
321.90	1294.32
322.11	1306.60
322.32	1245.16
322.54	1284.08
322.75	1234.93
322.96	1212.40
323.18	1265.64
323.39	1196.01
323.60	1263.60
323.81	1316.84
324.03	1306.60
324.24	1263.60
324.45	1210.35
324.66	1245.16
324.88	1239.02
325.09	1210.35
325.30	1325.04
325.52	1292.27
325.73	1228.78
325.94	1298.41
326.15	1271.79
326.37	1320.94
326.58	1241.07
326.79	1347.56
327.00	1308.65
327.22	1241.07
327.43	1202.16
327.64	1247.21
327.85	1218.54
328.07	1284.08
328.28	1214.45
328.49	1245.16
328.70	1255.40
328.92	1236.97
329.13	1263.60
329.34	1210.35
329.55	1269.74
329.76	1279.98
329.98	1267.69
330.19	1310.70
330.40	1269.74
330.61	1271.79
330.83	1269.74
331.04	1239.02
331.25	1261.55
331.46	1183.73
331.68	1286.12
331.89	1253.36
332.10	1202.16
332.31	1298.41
332.52	1228.78
332.74	1322.99
332.95	1286.12
333.16	1290.22
333.37	1277.93
333.58	1327.08
333.80	1292.27
334.01	1282.03
334.22	1310.70
334.43	1316.84
334.64	1249.26
334.86	1232.88
335.07	1349.61
335.28	1259.50
335.49	1230.83
335.70	1234.93
335.92	1251.31
336.13	1214.45
336.34	1247.21
336.55	1267.69
336.76	1218.54
336.98	1239.02
337.19	1273.84
337.40	1308.65
337.61	1206.25
337.82	1261.55
338.04	1224.69
338.25	1294.32
338.46	1320.94
338.67	1286.12
338.88	1249.26
339.09	1271.79
339.31	1204.21
339.52	1234.93
339.73	1308.65
339.94	1271.79
340.15	1253.36
340.36	1251.31
340.58	1306.60
340.79	1208.30
341.00	1257.45
341.21	1226.73
341.42	1310.70
341.63	1251.31
341.85	1304.56
342.06	1208.30
342.27	1314.80
342.48	1263.60
342.69	1208.30
342.90	1216.49
343.12	1269.74
343.33	1265.64
343.54	1325.04
343.75	1312.75
343.96	1271.79
344.17	1234.93
344.38	1312.75
344.60	1288.17
344.81	1230.83
345.02	1298.41
345.23	1239.02
345.44	1263.60
345.65	1275.88
345.86	1239.02
346.07	1224.69
346.29	1232.88
346.50	1216.49
346.71	1284.08
346.92	1294.32
347.13	1298.41
347.34	1277.93
347.55	1226.73
347.76	1253.36
347.98	1146.86
348.19	1243.12
348.40	1318.89
348.61	1267.69
348.82	1300.46
349.03	1253.36
349.24	1279.98
349.45	1241.07
349.66	1230.83
349.88	1351.66
350.09	1196.01
350.30	1310.70
350.51	1284.08
350.72	1279.98
350.93	1290.22
351.14	1202.16
351.35	1206.25
351.56	1345.52
351.77	1249.26
351.99	1304.56
352.20	1292.27
352.41	1196.01
352.62	1204.21
352.83	1210.35
353.04	1259.50
353.25	1181.68
353.46	1247.21
353.67	1286.12
353.88	1171.44
354.09	1247.21
354.30	1306.60
354.52	1327.08
354.73	1284.08
354.94	1230.83
355.15	1236.97
355.36	1345.52
355.57	1271.79
355.78	1261.55
355.99	1261.55
356.20	1306.60
356.41	1247.21
356.62	1247.21
356.83	1261.55
357.04	1277.93
357.25	1241.07
357.46	1284.08
357.68	1253.36
357.89	1304.56
358.10	1290.22
358.31	1232.88
358.52	1366.00
358.73	1277.93
358.94	1304.56
359.15	1269.74
359.36	1273.84
359.57	1232.88
359.78	1294.32
359.99	1253.36
360.20	1255.40
360.41	1239.02
360.62	1220.59
360.83	1304.56
361.04	1263.60
361.25	1216.49
361.46	1314.80
361.67	1261.55
361.88	1275.88
362.09	1196.01
362.30	1222.64
362.51	1257.45
362.72	1267.69
362.93	1275.88
363.14	1253.36
363.35	1222.64
363.56	1286.12
363.78	1267.69
363.99	1284.08
364.20	1322.99
364.41	1298.41
364.62	1316.84
364.83	1349.61
365.04	1228.78
365.25	1267.69
365.46	1304.56
365.67	1294.32
365.88	1198.06
366.09	1261.55
366.30	1212.40
366.51	1241.07
366.72	1265.64
366.93	1234.93
367.14	1257.45
367.35	1288.17
367.56	1277.93
367.77	1304.56
367.98	1263.60
368.18	1267.69
368.39	1236.97
368.60	1216.49
368.81	1302.51
369.02	1236.97
369.23	1302.51
369.44	1208.30
369.65	1269.74
369.86	1298.41
370.07	1239.02
370.28	1208.30
370.49	1353.71
370.70	1310.70
370.91	1269.74
371.12	1343.47
371.33	1245.16
371.54	1271.79
371.75	1302.51
371.96	1216.49
372.17	1232.88
372.38	1271.79
372.59	1275.88
372.80	1286.12
373.01	1243.12
373.22	1277.93
373.43	1257.45
373.64	1232.88
373.85	1196.01
374.06	1298.41
374.26	1234.93
374.47	1257.45
374.68	1245.16
374.89	1214.45
375.10	1308.65
375.31	1292.27
375.52	1335.28
375.73	1271.79
375.94	1339.37
376.15	1255.40
376.36	1273.84
376.57	1247.21
376.78	1257.45
376.99	1247.21
377.20	1314.80
377.40	1218.54
377.61	1302.51
377.82	1275.88
378.03	1300.46
378.24	1290.22
378.45	1286.12
378.66	1198.06
378.87	1304.56
379.08	1292.27
379.29	1282.03
379.50	1153.01
379.71	1269.74
379.91	1239.02
380.12	1298.41
380.33	1296.36
380.54	1269.74
380.75	1327.08
380.96	1263.60
381.17	1331.18
381.38	1269.74
381.59	1267.69
381.80	1308.65
382.00	1257.45
382.21	1306.60
382.42	1271.79
382.63	1218.54
382.84	1290.22
383.05	1216.49
383.26	1263.60
383.47	1273.84
383.68	1257.45
383.88	1265.64
384.09	1261.55
384.30	1355.76
384.51	1247.21
384.72	1210.35
384.93	1196.01
385.14	1273.84
385.35	1282.03
385.55	1253.36
385.76	1302.51
385.97	1290.22
386.18	1288.17
386.39	1282.03
386.60	1288.17
386.81	1261.55
387.02	1279.98
387.22	1165.29
387.43	1273.84
387.64	1185.77
387.85	1220.59
388.06	1224.69
388.27	1318.89
388.48	1214.45
388.68	1241.07
388.89	1275.88
389.10	1294.32
389.31	1310.70
389.52	1257.45
389.73	1257.45
389.93	1261.55
390.14	1257.45
390.35	1296.36
390.56	1218.54
390.77	1277.93
390.98	1181.68
391.18	1263.60
391.39	1277.93
391.60	1214.45
391.81	1259.50
392.02	1220.59
392.23	1259.50
392.43	1224.69
392.64	1284.08
392.85	1226.73
393.06	1316.84
393.27	1239.02
393.47	1228.78
393.68	1224.69
393.89	1292.27
394.10	1269.74
394.31	1234.93
394.52	1320.94
394.72	1290.22
394.93	1282.03
395.14	1257.45
395.35	1275.88
395.56	1265.64
395.76	1265.64
395.97	1265.64
396.18	1288.17
396.39	1267.69
396.60	1294.32
396.80	1200.11
397.01	1288.17
397.22	1304.56
397.43	1351.66
397.64	1343.47
397.84	1269.74
398.05	1337.32
398.26	1318.89
398.47	1253.36
398.67	1290.22
398.88	1222.64
399.09	1259.50
399.30	1189.87
399.51	1282.03
399.71	1284.08
399.92	1302.51
400.13	1236.97
400.34	1296.36
400.54	1322.99
400.75	1320.94
400.96	1298.41
401.17	1259.50
401.37	1318.89
401.58	1271.79
401.79	1263.60
402.00	1335.28
402.21	1224.69
402.41	1265.64
402.62	1263.60
402.83	1300.46
403.04	1286.12
403.24	1304.56
403.45	1296.36
403.66	1273.84
403.87	1236.97
404.07	1224.69
404.28	1259.50
404.49	1273.84
404.70	1290.22
404.90	1249.26
405.11	1236.97
405.32	1298.41
405.52	1202.16
405.73	1198.06
405.94	1204.21
406.15	1273.84
406.35	1249.26
406.56	1284.08
406.77	1304.56
406.98	1304.56
407.18	1269.74
407.39	1191.92
407.60	1265.64
407.80	1257.45
408.01	1218.54
408.22	1325.04
408.43	1271.79
408.63	1271.79
408.84	1261.55
409.05	1243.12
409.25	1263.60
409.46	1245.16
409.67	1218.54
409.88	1290.22
410.08	1290.22
410.29	1234.93
410.50	1255.40
410.70	1255.40
410.91	1193.97
411.12	1267.69
411.32	1333.23
411.53	1271.79
411.74	1296.36
411.95	1230.83
412.15	1224.69
412.36	1341.42
412.57	1308.65
412.77	1249.26
412.98	1196.01
413.19	1251.31
413.39	1286.12
413.60	1363.95
413.81	1204.21
414.01	1259.50
414.22	1261.55
414.43	1230.83
414.63	1259.50
414.84	1296.36
415.05	1253.36
415.25	1329.13
415.46	1286.12
415.67	1173.49
415.87	1277.93
416.08	1239.02
416.29	1232.88
416.49	1339.37
416.70	1247.21
416.91	1304.56
417.11	1255.40
417.32	1271.79
417.53	1273.84
417.73	1271.79
417.94	1259.50
418.15	1232.88
418.35	1316.84
418.56	1343.47
418.77	1308.65
418.97	1198.06
419.18	1294.32
419.38	1228.78
419.59	1218.54
419.80	1218.54
420.00	1265.64
420.21	1259.50
420.42	1269.74
420.62	1292.27
420.83	1253.36
421.04	1251.31
421.24	1275.88
421.45	1296.36
421.65	1228.78
421.86	1320.94
422.07	1288.17
422.27	1275.88
422.48	1351.66
422.69	1322.99
422.89	1228.78
423.10	1312.75
423.30	1277.93
423.51	1312.75
423.72	1208.30
423.92	1273.84
424.13	1255.40
424.33	1196.01
424.54	1275.88
424.75	1277.93
424.95	1318.89
425.16	1275.88
425.36	1261.55
425.57	1241.07
425.78	1284.08
425.98	1306.60
426.19	1292.27
426.39	1263.60
426.60	1214.45
426.81	1331.18
427.01	1251.31
427.22	1279.98
427.42	1255.40
427.63	1267.69
427.83	1247.21
428.04	1282.03
428.25	1198.06
428.45	1279.98
428.66	1218.54
428.86	1304.56
429.07	1277.93
429.28	1269.74
429.48	1193.97
429.69	1261.55
429.89	1232.88
430.10	1253.36
430.30	1245.16
430.51	1261.55
430.71	1265.64
430.92	1298.41
431.13	1298.41
431.33	1308.65
431.54	1253.36
431.74	1261.55
431.95	1277.93
432.15	1282.03
432.36	1216.49
432.56	1257.45
432.77	1277.93
432.98	1257.45
433.18	1198.06
433.39	1314.80
433.59	1292.27
433.80	1228.78
434.00	1243.12
434.21	1284.08
434.41	1230.83
434.62	1335.28
434.82	1277.93
435.03	1286.12
435.23	1290.22
435.44	1232.88
435.64	1257.45
435.85	1277.93
436.06	1294.32
436.26	1318.89
436.47	1294.32
436.67	1302.51
436.88	1304.56
437.08	1279.98
437.29	1224.69
437.49	1284.08
437.70	1261.55
437.90	1239.02
438.11	1312.75
438.31	1265.64
438.52	1228.78
438.72	1306.60
438.93	1257.45
439.13	1279.98
439.34	1308.65
439.54	1273.84
439.75	1249.26
439.95	1269.74
440.16	1232.88
440.36	1249.26
440.57	1320.94
440.77	1277.93
440.98	1318.89
441.18	1267.69
441.39	1198.06
441.59	1288.17
441.80	1339.37
442.00	1333.23
442.21	1200.11
442.41	1306.60
442.62	1271.79
442.82	1335.28
443.02	1320.94
443.23	1253.36
443.43	1251.31
443.64	1292.27
443.84	1214.45
444.05	1249.26
444.25	1286.12
444.46	1228.78
444.66	1189.87
444.87	1273.84
445.07	1308.65
445.28	1245.16
445.48	1322.99
445.69	1302.51
445.89	1308.65
446.09	1241.07
446.30	1284.08
446.50	1312.75
446.71	1271.79
446.91	1327.08
447.12	1224.69
447.32	1320.94
447.53	1304.56
447.73	1245.16
447.93	1277.93
448.14	1255.40
448.34	1308.65
448.55	1267.69
448.75	1271.79
448.96	1318.89
449.16	1343.47
449.36	1290.22
449.57	1212.40
449.77	1239.02
449.98	1308.65
450.18	1282.03
450.39	1335.28
450.59	1243.12
450.79	1312.75
451.00	1314.80
451.20	1277.93
451.41	1263.60
451.61	1337.32
451.81	1265.64
452.02	1253.36
452.22	1279.98
452.43	1314.80
452.63	1239.02
452.84	1290.22
453.04	1216.49
453.24	1366.00
453.45	1308.65
453.65	1255.40
453.86	1294.32
454.06	1304.56
454.26	1325.04
454.47	1228.78
454.67	1284.08
454.87	1294.32
455.08	1245.16
455.28	1298.41
455.49	1316.84
455.69	1288.17
455.89	1257.45
456.10	1245.16
456.30	1263.60
456.51	1222.64
456.71	1279.98
456.91	1337.32
457.12	1279.98
457.32	1298.41
457.52	1322.99
457.73	1288.17
457.93	1390.57
458.14	1331.18
458.34	1355.76
458.54	1390.57
458.75	1202.16
458.95	1167.34
459.15	1306.60
459.36	1296.36
459.56	1292.27
459.76	1249.26
459.97	1263.60
460.17	1300.46
460.37	1341.42
460.58	1298.41
460.78	1286.12
460.99	1208.30
461.19	1294.32
461.39	1318.89
461.60	1284.08
461.80	1257.45
462.00	1300.46
462.21	1212.40
462.41	1296.36
462.61	1302.51
462.82	1329.13
463.02	1325.04
463.22	1273.84
463.43	1261.55
463.63	1304.56
463.83	1234.93
464.04	1269.74
464.24	1245.16
464.44	1353.71
464.64	1271.79
464.85	1343.47
465.05	1265.64
465.25	1296.36
465.46	1331.18
465.66	1325.04
465.86	1232.88
466.07	1347.56
466.27	1210.35
466.47	1304.56
466.68	1259.50
466.88	1224.69
467.08	1288.17
467.29	1263.60
467.49	1267.69
467.69	1191.92
467.89	1333.23
468.10	1271.79
468.30	1261.55
468.50	1349.61
468.71	1284.08
468.91	1263.60
469.11	1296.36
469.31	1269.74
469.52	1290.22
469.72	1239.02
469.92	1249.26
470.13	1259.50
470.33	1290.22
470.53	1214.45
470.73	1189.87
470.94	1343.47
471.14	1247.21
471.34	1273.84
471.54	1312.75
471.75	1273.84
471.95	1222.64
472.15	1226.73
472.36	1316.84
472.56	1271.79
472.76	1206.25
472.96	1257.45
473.17	1376.24
473.37	1255.40
473.57	1263.60
473.77	1247.21
473.98	1294.32
474.18	1290.22
474.38	1292.27
474.58	1298.41
474.79	1298.41
474.99	1290.22
475.19	1265.64
475.39	1273.84
475.60	1249.26
475.80	1290.22
476.00	1257.45
476.20	1277.93
476.41	1236.97
476.61	1261.55
476.81	1329.13
477.01	1259.50
477.21	1263.60
477.42	1214.45
477.62	1257.45
477.82	1277.93
478.02	1290.22
478.23	1329.13
478.43	1189.87
478.63	1251.31
478.83	1208.30
479.03	1200.11
479.24	1304.56
479.44	1273.84
479.64	1177.58
479.84	1236.97
480.04	1275.88
480.25	1269.74
480.45	1284.08
480.65	1241.07
480.85	1167.34
481.06	1345.52
481.26	1243.12
481.46	1279.98
481.66	1294.32
481.86	1265.64
482.06	1300.46
482.27	1236.97
482.47	1228.78
482.67	1347.56
482.87	1230.83
483.07	1325.04
483.28	1308.65
483.48	1263.60
483.68	1253.36
483.88	1329.13
484.08	1218.54
484.29	1310.70
484.49	1249.26
484.69	1267.69
484.89	1298.41
485.09	1239.02
485.29	1308.65
485.50	1329.13
485.70	1261.55
485.90	1224.69
486.10	1224.69
486.30	1259.50
486.50	1335.28
486.71	1286.12
486.91	1288.17
487.11	1306.60
487.31	1265.64
487.51	1249.26
487.71	1247.21
487.91	1239.02
488.12	1273.84
488.32	1273.84
488.52	1329.13
488.72	1253.36
488.92	1325.04
489.12	1232.88
489.32	1261.55
489.53	1263.60
489.73	1234.93
489.93	1347.56
490.13	1243.12
490.33	1206.25
490.53	1269.74
490.73	1255.40
490.94	1224.69
491.14	1284.08
491.34	1210.35
491.54	1257.45
491.74	1298.41
491.94	1298.41
492.14	1208.30
492.34	1333.23
492.54	1275.88
492.75	1306.60
492.95	1294.32
493.15	1243.12
493.35	1282.03
493.55	1255.40
493.75	1191.92
493.95	1269.74
494.15	1325.04
494.35	1292.27
494.56	1259.50
494.76	1187.82
494.96	1210.35
495.16	1288.17
495.36	1167.34
495.56	1306.60
495.76	1169.39
495.96	1269.74
496.16	1187.82
496.36	1314.80
496.56	1339.37
496.77	1288.17
496.97	1230.83
497.17	1310.70
497.37	1249.26
497.57	1253.36
497.77	1292.27
497.97	1308.65
498.17	1314.80
498.37	1226.73
498.57	1331.18
498.77	1286.12
498.97	1284.08
499.17	1320.94
499.38	1304.56
499.58	1363.95
499.78	1267.69
499.98	1347.56
500.18	1224.69
500.38	1263.60
500.58	1263.60
500.78	1232.88
500.98	1282.03
501.18	1239.02
501.38	1302.51
501.58	1347.56
501.78	1259.50
501.98	1325.04
502.18	1249.26
502.38	1300.46
502.58	1288.17
502.78	1304.56
502.98	1318.89
503.18	1275.88
503.38	1298.41
503.59	1294.32
503.79	1333.23
503.99	1196.01
504.19	1275.88
504.39	1255.40
504.59	1314.80
504.79	1296.36
504.99	1314.80
505.19	1222.64
505.39	1271.79
505.59	1288.17
505.79	1257.45
505.99	1284.08
506.19	1296.36
506.39	1269.74
506.59	1257.45
506.79	1304.56
506.99	1275.88
507.19	1282.03
507.39	1310.70
507.59	1261.55
507.79	1251.31
507.99	1271.79
508.19	1292.27
508.39	1257.45
508.59	1275.88
508.79	1224.69
508.99	1263.60
509.19	1296.36
509.39	1314.80
509.59	1308.65
509.79	1310.70
509.99	1228.78
510.19	1249.26
510.39	1261.55
510.59	1298.41
510.79	1208.30
510.99	1282.03
511.19	1300.46
511.39	1325.04
511.59	1304.56
511.79	1257.45
511.99	1255.40
512.19	1277.93
512.38	1249.26
512.58	1224.69
512.78	1247.21
512.98	1216.49
513.18	1247.21
513.38	1265.64
513.58	1304.56
513.78	1288.17
513.98	1245.16
514.18	1343.47
514.38	1277.93
514.58	1349.61
514.78	1306.60
514.98	1218.54
515.18	1302.51
515.38	1228.78
515.58	1257.45
515.78	1208.30
515.98	1298.41
516.18	1271.79
516.38	1257.45
516.57	1255.40
516.77	1282.03
516.97	1341.42
517.17	1298.41
517.37	1249.26
517.57	1214.45
517.77	1316.84
517.97	1325.04
518.17	1368.04
518.37	1269.74
518.57	1284.08
518.77	1298.41
518.97	1296.36
519.16	1339.37
519.36	1253.36
519.56	1234.93
519.76	1220.59
519.96	1333.23
520.16	1273.84
520.36	1214.45
520.56	1267.69
520.76	1314.80
520.96	1245.16
521.16	1249.26
521.35	1294.32
521.55	1241.07
521.75	1189.87
521.95	1249.26
522.15	1355.76
522.35	1232.88
522.55	1265.64
522.75	1314.80
522.95	1298.41
523.14	1253.36
523.34	1277.93
523.54	1331.18
523.74	1318.89
523.94	1322.99
524.14	1288.17
524.34	1279.98
524.54	1257.45
524.73	1282.03
524.93	1308.65
525.13	1310.70
525.33	1345.52
525.53	1302.51
525.73	1282.03
525.93	1267.69
526.13	1316.84
526.32	1292.27
526.52	1306.60
526.72	1304.56
526.92	1304.56
527.12	1241.07
527.32	1316.84
527.52	1277.93
527.71	1279.98
527.91	1249.26
528.11	1374.19
528.31	1327.08
528.51	1335.28
528.71	1314.80
528.90	1271.79
529.10	1314.80
529.30	1296.36
529.50	1302.51
529.70	1290.22
529.90	1282.03
530.09	1212.40
530.29	1255.40
530.49	1245.16
530.69	1310.70
530.89	1255.40
531.09	1183.73
531.28	1331.18
531.48	1239.02
531.68	1304.56
531.88	1245.16
532.08	1282.03
532.28	1302.51
532.47	1273.84
532.67	1316.84
532.87	1257.45
533.07	1253.36
533.27	1292.27
533.46	1234.93
533.66	1187.82
533.86	1298.41
534.06	1239.02
534.26	1222.64
534.45	1239.02
534.65	1288.17
534.85	1296.36
535.05	1265.64
535.25	1234.93
535.44	1288.17
535.64	1331.18
535.84	1296.36
536.04	1275.88
536.24	1253.36
536.43	1245.16
536.63	1302.51
536.83	1269.74
537.03	1302.51
537.22	1298.41
537.42	1300.46
537.62	1368.04
537.82	1282.03
538.02	1226.73
538.21	1263.60
538.41	1300.46
538.61	1239.02
538.81	1249.26
539.00	1304.56
539.20	1282.03
539.40	1347.56
539.60	1296.36
539.79	1320.94
539.99	1292.27
540.19	1296.36
540.39	1263.60
540.58	1306.60
540.78	1271.79
540.98	1241.07
541.18	1232.88
541.37	1312.75
541.57	1298.41
541.77	1327.08
541.97	1249.26
542.16	1339.37
542.36	1273.84
542.56	1230.83
542.76	1318.89
542.95	1298.41
543.15	1329.13
543.35	1249.26
543.54	1335.28
543.74	1292.27
543.94	1300.46
544.14	1322.99
544.33	1259.50
544.53	1279.98
544.73	1247.21
544.93	1255.40
545.12	1273.84
545.32	1288.17
545.52	1333.23
545.71	1302.51
545.91	1282.03
546.11	1245.16
546.30	1320.94
546.50	1271.79
546.70	1265.64
546.90	1241.07
547.09	1236.97
547.29	1327.08
547.49	1261.55
547.68	1257.45
547.88	1273.84
548.08	1298.41
548.27	1316.84
548.47	1257.45
548.67	1196.01
548.87	1304.56
549.06	1247.21
549.26	1251.31
549.46	1261.55
549.65	1212.40
549.85	1298.41
550.05	1292.27
550.24	1341.42
550.44	1290.22
550.64	1187.82
550.83	1224.69
551.03	1341.42
551.23	1245.16
551.42	1251.31
551.62	1292.27
551.82	1271.79
552.01	1353.71
552.21	1310.70
552.41	1298.41
552.60	1243.12
552.80	1306.60
553.00	1296.36
553.19	1220.59
553.39	1255.40
553.59	1226.73
553.78	1267.69
553.98	1267.69
554.17	1261.55
554.37	1271.79
554.57	1296.36
554.76	1241.07
554.96	1300.46
555.16	1257.45
555.35	1294.32
555.55	1261.55
555.75	1300.46
555.94	1296.36
556.14	1304.56
556.33	1241.07
556.53	1279.98
556.73	1277.93
556.92	1329.13
557.12	1339.37
557.32	1173.49
557.51	1296.36
557.71	1226.73
557.90	1282.03
558.10	1325.04
558.30	1212.40
558.49	1159.15
558.69	1275.88
558.88	1316.84
559.08	1288.17
559.28	1337.32
559.47	1302.51
559.67	1230.83
559.86	1331.18
560.06	1220.59
560.26	1273.84
560.45	1343.47
560.65	1329.13
560.84	1304.56
561.04	1273.84
561.24	1259.50
561.43	1257.45
561.63	1296.36
561.82	1292.27
562.02	1316.84
562.22	1253.36
562.41	1296.36
562.61	1314.80
562.80	1312.75
563.00	1212.40
563.19	1273.84
563.39	1255.40
563.59	1308.65
563.78	1306.60
563.98	1314.80
564.17	1259.50
564.37	1327.08
564.56	1320.94
564.76	1255.40
564.96	1353.71
565.15	1314.80
565.35	1339.37
565.54	1245.16
565.74	1279.98
565.93	1316.84
566.13	1265.64
566.32	1300.46
566.52	1253.36
566.71	1290.22
566.91	1298.41
567.11	1279.98
567.30	1273.84
567.50	1306.60
567.69	1318.89
567.89	1292.27
568.08	1277.93
568.28	1308.65
568.47	1232.88
568.67	1290.22
568.86	1290.22
569.06	1361.90
569.25	1257.45
569.45	1298.41
569.64	1216.49
569.84	1243.12
570.04	1329.13
570.23	1271.79
570.43	1241.07
570.62	1308.65
570.82	1267.69
571.01	1288.17
571.21	1325.04
571.40	1249.26
571.60	1349.61
571.79	1277.93
571.99	1232.88
572.18	1257.45
572.38	1320.94
572.57	1312.75
572.77	1269.74
572.96	1308.65
573.16	1339.37
573.35	1308.65
573.55	1353.71
573.74	1271.79
573.94	1294.32
574.13	1400.81
574.33	1267.69
574.52	1273.84
574.71	1333.23
574.91	1327.08
575.10	1232.88
575.30	1310.70
575.49	1347.56
575.69	1265.64
575.88	1294.32
576.08	1316.84
576.27	1288.17
576.47	1214.45
576.66	1308.65
576.86	1282.03
577.05	1304.56
577.25	1263.60
577.44	1263.60
577.64	1253.36
577.83	1247.21
578.02	1296.36
578.22	1302.51
578.41	1302.51
578.61	1298.41
578.80	1294.32
579.00	1241.07
579.19	1302.51
579.39	1265.64
579.58	1343.47
579.77	1322.99
579.97	1249.26
580.16	1273.84
580.36	1226.73
580.55	1349.61
580.75	1241.07
580.94	1320.94
581.13	1269.74
581.33	1288.17
581.52	1298.41
581.72	1263.60
581.91	1263.60
582.11	1263.60
582.30	1282.03
582.49	1306.60
582.69	1320.94
582.88	1230.83
583.08	1318.89
583.27	1370.09
583.47	1322.99
583.66	1269.74
583.85	1222.64
584.05	1337.32
584.24	1241.07
584.44	1327.08
584.63	1347.56
584.82	1263.60
585.02	1306.60
585.21	1306.60
585.41	1288.17
585.60	1265.64
585.79	1306.60
585.99	1251.31
586.18	1273.84
586.37	1306.60
586.57	1277.93
586.76	1312.75
586.96	1269.74
587.15	1265.64
587.34	1290.22
587.54	1290.22
587.73	1288.17
587.93	1343.47
588.12	1257.45
588.31	1269.74
588.51	1325.04
588.70	1314.80
588.89	1335.28
589.09	1263.60
589.28	1282.03
589.47	1251.31
589.67	1269.74
589.86	1275.88
590.06	1253.36
590.25	1247.21
590.44	1316.84
590.64	1267.69
590.83	1265.64
591.02	1327.08
591.22	1198.06
591.41	1251.31
591.60	1335.28
591.80	1314.80
591.99	1187.82
592.18	1232.88
592.38	1351.66
592.57	1288.17
592.76	1245.16
592.96	1322.99
593.15	1259.50
593.34	1290.22
593.54	1275.88
593.73	1208.30
593.92	1214.45
594.12	1265.64
594.31	1296.36
594.50	1335.28
594.70	1226.73
594.89	1245.16
595.08	1271.79
595.28	1288.17
595.47	1335.28
595.66	1312.75
595.86	1255.40
596.05	1339.37
596.24	1304.56
596.43	1239.02
596.63	1286.12
596.82	1255.40
597.01	1335.28
597.21	1224.69
597.40	1345.52
597.59	1267.69
597.79	1288.17
597.98	1206.25
598.17	1306.60
598.36	1249.26
598.56	1349.61
598.75	1325.04
598.94	1300.46
599.14	1271.79
599.33	1204.21
599.52	1294.32
599.71	1273.84
599.91	1302.51
600.10	1239.02
600.29	1230.83
600.48	1318.89
600.68	1284.08
600.87	1277.93
601.06	1273.84
601.26	1255.40
601.45	1216.49
601.64	1275.88
601.83	1290.22
602.03	1253.36
602.22	1335.28
602.41	1304.56
602.60	1251.31
602.80	1318.89
602.99	1269.74
603.18	1290.22
603.37	1269.74
603.57	1306.60
603.76	1286.12
603.95	1210.35
604.14	1308.65
604.34	1343.47
604.53	1306.60
604.72	1312.75
604.91	1333.23
605.10	1331.18
605.30	1259.50
605.49	1271.79
605.68	1286.12
605.87	1294.32
606.07	1267.69
606.26	1327.08
606.45	1216.49
606.64	1347.56
606.84	1304.56
607.03	1236.97
607.22	1259.50
607.41	1265.64
607.60	1314.80
607.80	1259.50
607.99	1322.99
608.18	1253.36
608.37	1286.12
608.56	1312.75
608.76	1290.22
608.95	1216.49
609.14	1345.52
609.33	1363.95
609.52	1335.28
609.72	1300.46
609.91	1288.17
610.10	1327.08
610.29	1286.12
610.48	1347.56
610.68	1271.79
610.87	1277.93
611.06	1243.12
611.25	1261.55
611.44	1265.64
611.63	1300.46
611.83	1310.70
612.02	1290.22
612.21	1329.13
612.40	1257.45
612.59	1306.60
612.79	1298.41
612.98	1322.99
613.17	1273.84
613.36	1247.21
613.55	1298.41
613.74	1259.50
613.93	1286.12
614.13	1230.83
614.32	1257.45
614.51	1263.60
614.70	1312.75
614.89	1288.17
615.08	1284.08
615.28	1347.56
615.47	1275.88
615.66	1320.94
615.85	1273.84
616.04	1263.60
616.23	1318.89
616.42	1343.47
616.62	1261.55
616.81	1189.87
617.00	1253.36
617.19	1271.79
617.38	1298.41
617.57	1320.94
617.76	1255.40
617.95	1329.13
618.15	1261.55
618.34	1292.27
618.53	1269.74
618.72	1245.16
618.91	1228.78
619.10	1341.42
619.29	1273.84
619.48	1306.60
619.68	1333.23
619.87	1292.27
620.06	1245.16
620.25	1310.70
620.44	1259.50
620.63	1331.18
620.82	1267.69
621.01	1314.80
621.20	1331.18
621.39	1249.26
621.59	1273.84
621.78	1271.79
621.97	1263.60
622.16	1269.74
622.35	1292.27
622.54	1329.13
622.73	1241.07
622.92	1284.08
623.11	1304.56
623.30	1298.41
623.49	1279.98
623.68	1304.56
623.88	1392.62
624.07	1296.36
624.26	1279.98
624.45	1312.75
624.64	1200.11
624.83	1286.12
625.02	1273.84
625.21	1253.36
625.40	1298.41
625.59	1284.08
625.78	1234.93
625.97	1271.79
626.16	1302.51
626.35	1290.22
626.54	1345.52
626.74	1232.88
626.93	1286.12
627.12	1329.13
627.31	1269.74
627.50	1282.03
627.69	1310.70
627.88	1292.27
628.07	1333.23
628.26	1331.18
628.45	1239.02
628.64	1286.12
628.83	1349.61
629.02	1290.22
629.21	1259.50
629.40	1329.13
629.59	1241.07
629.78	1345.52
629.97	1251.31
630.16	1265.64
630.35	1294.32
630.54	1239.02
630.73	1239.02
630.92	1298.41
631.11	1286.12
631.30	1292.27
631.49	1345.52
631.68	1413.10
631.87	1449.96
632.06	1462.25
632.25	1441.77
632.44	1435.63
632.63	1427.43
632.82	1427.43
633.01	1366.00
633.20	1413.10
633.39	1376.24
633.58	1378.28
633.77	1423.34
633.96	1456.11
634.15	1449.96
634.34	1456.11
634.53	1611.75
634.72	1474.54
634.91	1390.57
635.10	1427.43
635.29	1507.30
635.48	1462.25
635.67	1560.55
635.86	1513.45
636.05	1439.72
636.24	1419.24
636.43	1441.77
636.62	1435.63
636.81	1366.00
637.00	1322.99
637.19	1329.13
637.38	1304.56
637.57	1308.65
637.76	1417.19
637.95	1298.41
638.14	1271.79
638.33	1282.03
638.52	1325.04
638.71	1298.41
638.89	1331.18
639.08	1308.65
639.27	1255.40
639.46	1310.70
639.65	1232.88
639.84	1286.12
640.03	1292.27
640.22	1292.27
640.41	1304.56
640.60	1327.08
640.79	1322.99
640.98	1327.08
641.17	1337.32
641.36	1212.40
641.55	1249.26
641.74	1267.69
641.92	1320.94
642.11	1284.08
642.30	1300.46
642.49	1265.64
642.68	1284.08
642.87	1347.56
643.06	1196.01
643.25	1257.45
643.44	1271.79
643.63	1265.64
643.82	1312.75
644.00	1290.22
644.19	1290.22
644.38	1273.84
644.57	1314.80
644.76	1279.98
644.95	1245.16
645.14	1198.06
645.33	1249.26
645.52	1312.75
645.71	1306.60
645.89	1302.51
646.08	1284.08
646.27	1322.99
646.46	1318.89
646.65	1372.14
646.84	1239.02
647.03	1327.08
647.22	1282.03
647.40	1279.98
647.59	1265.64
647.78	1243.12
647.97	1325.04
648.16	1310.70
648.35	1249.26
648.54	1249.26
648.73	1257.45
648.91	1314.80
649.10	1296.36
649.29	1288.17
649.48	1320.94
649.67	1239.02
649.86	1275.88
650.05	1386.47
650.23	1327.08
650.42	1271.79
650.61	1353.71
650.80	1345.52
650.99	1212.40
651.18	1310.70
651.36	1351.66
651.55	1298.41
651.74	1304.56
651.93	1222.64
652.12	1284.08
652.31	1247.21
652.49	1245.16
652.68	1341.42
652.87	1355.76
653.06	1308.65
653.25	1325.04
653.44	1247.21
653.62	1265.64
653.81	1259.50
654.00	1294.32
654.19	1304.56
654.38	1341.42
654.56	1267.69
654.75	1267.69
654.94	1269.74
655.13	1314.80
655.32	1333.23
655.51	1273.84
655.69	1275.88
655.88	1277.93
656.07	1253.36
656.26	1302.51
656.45	1234.93
656.63	1249.26
656.82	1241.07
657.01	1288.17
657.20	1286.12
657.38	1275.88
657.57	1327.08
657.76	1232.88
657.95	1165.29
658.14	1245.16
658.32	1296.36
658.51	1282.03
658.70	1325.04
658.89	1304.56
659.08	1228.78
659.26	1232.88
659.45	1226.73
659.64	1327.08
659.83	1234.93
660.01	1312.75
660.20	1243.12
660.39	1282.03
660.58	1245.16
660.76	1300.46
660.95	1279.98
661.14	1282.03
661.33	1279.98
661.51	1322.99
661.70	1282.03
661.89	1277.93
662.08	1243.12
662.26	1265.64
662.45	1263.60
662.64	1275.88
662.83	1298.41
663.01	1247.21
663.20	1302.51
663.39	1271.79
663.58	1257.45
663.76	1296.36
663.95	1273.84
664.14	1400.81
664.32	1290.22
664.51	1314.80
664.70	1275.88
664.89	1273.84
665.07	1255.40
665.26	1296.36
665.45	1282.03
665.64	1282.03
665.82	1310.70
666.01	1288.17
666.20	1292.27
666.38	1251.31
666.57	1245.16
666.76	1243.12
666.95	1257.45
667.13	1308.65
667.32	1257.45
667.51	1302.51
667.69	1234.93
667.88	1318.89
668.07	1224.69
668.25	1339.37
668.44	1269.74
668.63	1310.70
668.81	1257.45
669.00	1251.31
669.19	1296.36
669.38	1273.84
669.56	1253.36
669.75	1245.16
669.94	1232.88
670.12	1249.26
670.31	1335.28
670.50	1257.45
670.68	1304.56
670.87	1251.31
671.06	1292.27
671.24	1279.98
671.43	1189.87
671.62	1222.64
671.80	1314.80
671.99	1277.93
672.18	1245.16
672.36	1357.80
672.55	1302.51
672.74	1304.56
672.92	1275.88
673.11	1230.83
673.29	1271.79
673.48	1290.22
673.67	1271.79
673.85	1322.99
674.04	1284.08
674.23	1214.45
674.41	1288.17
674.60	1386.47
674.79	1286.12
674.97	1296.36
675.16	1249.26
675.34	1290.22
675.53	1296.36
675.72	1265.64
675.90	1236.97
676.09	1329.13
676.28	1267.69
676.46	1265.64
676.65	1218.54
676.83	1282.03
677.02	1210.35
677.21	1288.17
677.39	1277.93
677.58	1314.80
677.77	1243.12
677.95	1234.93
678.14	1263.60
678.32	1236.97
678.51	1249.26
678.70	1361.90
678.88	1236.97
679.07	1263.60
679.25	1220.59
679.44	1325.04
679.63	1228.78
679.81	1251.31
680.00	1269.74
680.18	1261.55
680.37	1216.49
680.55	1206.25
680.74	1275.88
680.93	1175.53
681.11	1302.51
681.30	1267.69
681.48	1243.12
681.67	1337.32
681.85	1333.23
682.04	1349.61
682.23	1230.83
682.41	1279.98
682.60	1232.88
682.78	1251.31
682.97	1255.40
683.15	1249.26
683.34	1310.70
683.53	1253.36
683.71	1282.03
683.90	1202.16
684.08	1304.56
684.27	1308.65
684.45	1267.69
684.64	1279.98
684.82	1300.46
685.01	1304.56
685.19	1232.88
685.38	1327.08
685.57	1273.84
685.75	1267.69
685.94	1259.50
686.12	1230.83
686.31	1275.88
686.49	1296.36
686.68	1355.76
686.86	1202.16
687.05	1277.93
687.23	1300.46
687.42	1200.11
687.60	1214.45
687.79	1185.77
687.97	1325.04
688.16	1294.32
688.34	1267.69
688.53	1277.93
688.71	1239.02
688.90	1275.88
689.08	1249.26
689.27	1310.70
689.45	1222.64
689.64	1304.56
689.82	1269.74
690.01	1249.26
690.19	1255.40
690.38	1277.93
690.56	1271.79
690.75	1243.12
690.93	1232.88
691.12	1320.94
691.30	1249.26
691.49	1200.11
691.67	1314.80
691.86	1277.93
692.04	1236.97
692.23	1294.32
692.41	1292.27
692.60	1290.22
692.78	1271.79
692.97	1241.07
693.15	1271.79
693.34	1243.12
693.52	1292.27
693.71	1277.93
693.89	1271.79
694.08	1259.50
694.26	1372.14
694.44	1296.36
694.63	1292.27
694.81	1259.50
695.00	1310.70
695.18	1327.08
695.37	1241.07
695.55	1273.84
695.74	1279.98
695.92	1212.40
696.10	1273.84
696.29	1290.22
696.47	1302.51
696.66	1300.46
696.84	1261.55
697.03	1312.75
697.21	1273.84
697.40	1257.45
697.58	1224.69
697.76	1282.03
697.95	1279.98
698.13	1320.94
698.32	1320.94
698.50	1253.36
698.68	1290.22
698.87	1308.65
699.05	1337.32
699.24	1333.23
699.42	1294.32
699.61	1247.21
699.79	1318.89
699.97	1224.69
700.16	1282.03
700.34	1314.80
700.53	1224.69
700.71	1251.31
700.89	1253.36
701.08	1275.88
701.26	1271.79
701.45	1279.98
701.63	1320.94
701.81	1222.64
702.00	1185.77
702.18	1292.27
702.37	1224.69
702.55	1257.45
702.73	1302.51
702.92	1284.08
703.10	1241.07
703.28	1253.36
703.47	1292.27
703.65	1288.17
703.84	1308.65
704.02	1290.22
704.20	1329.13
704.39	1253.36
704.57	1228.78
704.75	1284.08
704.94	1261.55
705.12	1277.93
705.30	1236.97
705.49	1216.49
705.67	1236.97
705.86	1294.32
706.04	1265.64
706.22	1243.12
706.41	1302.51
706.59	1320.94
706.77	1273.84
706.96	1241.07
707.14	1232.88
707.32	1298.41
707.51	1292.27
707.69	1224.69
707.87	1345.52
708.06	1263.60
708.24	1261.55
708.42	1288.17
708.61	1368.04
708.79	1257.45
708.97	1298.41
709.16	1337.32
709.34	1359.85
709.52	1290.22
709.71	1279.98
709.89	1245.16
710.07	1251.31
710.26	1263.60
710.44	1257.45
710.62	1191.92
710.80	1200.11
710.99	1249.26
711.17	1232.88
711.35	1255.40
711.54	1234.93
711.72	1261.55
711.90	1263.60
712.09	1308.65
712.27	1220.59
712.45	1292.27
712.63	1304.56
712.82	1232.88
713.00	1234.93
713.18	1279.98
713.37	1335.28
713.55	1261.55
713.73	1361.90
713.91	1230.83
714.10	1179.63
714.28	1251.31
714.46	1222.64
714.65	1292.27
714.83	1300.46
715.01	1316.84
715.19	1304.56
715.38	1279.98
715.56	1230.83
715.74	1327.08
715.92	1279.98
716.11	1230.83
716.29	1251.31
716.47	1206.25
716.65	1230.83
716.84	1292.27
717.02	1277.93
717.20	1282.03
717.38	1294.32
717.57	1245.16
717.75	1245.16
717.93	1226.73
718.11	1255.40
718.30	1298.41
718.48	1236.97
718.66	1275.88
718.84	1351.66
719.03	1271.79
719.21	1243.12
719.39	1279.98
719.57	1273.84
719.75	1282.03
719.94	1320.94
720.12	1265.64
720.30	1263.60
720.48	1382.38
720.67	1273.84
720.85	1224.69
721.03	1239.02
721.21	1282.03
721.39	1286.12
721.58	1286.12
721.76	1325.04
721.94	1191.92
722.12	1236.97
722.30	1290.22
722.49	1353.71
722.67	1279.98
722.85	1204.21
723.03	1245.16
723.21	1279.98
723.40	1249.26
723.58	1320.94
723.76	1294.32
723.94	1292.27
724.12	1236.97
724.30	1222.64
724.49	1304.56
724.67	1239.02
724.85	1298.41
725.03	1253.36
725.21	1298.41
725.40	1300.46
725.58	1294.32
725.76	1359.85
725.94	1261.55
726.12	1279.98
726.30	1230.83
726.49	1325.04
726.67	1243.12
726.85	1214.45
727.03	1292.27
727.21	1273.84
727.39	1220.59
727.57	1261.55
727.76	1257.45
727.94	1247.21
728.12	1273.84
728.30	1277.93
728.48	1259.50
728.66	1234.93
728.84	1234.93
729.03	1267.69
729.21	1157.10
729.39	1193.97
729.57	1304.56
729.75	1282.03
729.93	1241.07
730.11	1214.45
730.30	1245.16
730.48	1288.17
730.66	1290.22
730.84	1265.64
731.02	1249.26
731.20	1259.50
731.38	1265.64
731.56	1236.97
731.74	1255.40
731.93	1310.70
732.11	1239.02
732.29	1239.02
732.47	1220.59
732.65	1320.94
732.83	1269.74
733.01	1271.79
733.19	1226.73
733.37	1245.16
733.56	1196.01
733.74	1230.83
733.92	1261.55
734.10	1253.36
734.28	1304.56
734.46	1220.59
734.64	1243.12
734.82	1204.21
735.00	1271.79
735.18	1265.64
735.36	1257.45
735.54	1308.65
735.73	1267.69
735.91	1249.26
736.09	1290.22
736.27	1247.21
736.45	1288.17
736.63	1279.98
736.81	1304.56
736.99	1247.21
737.17	1290.22
737.35	1206.25
737.53	1286.12
737.71	1257.45
737.89	1269.74
738.07	1208.30
738.25	1224.69
738.43	1210.35
738.61	1318.89
738.80	1298.41
738.98	1224.69
739.16	1253.36
739.34	1284.08
739.52	1222.64
739.70	1191.92
739.88	1241.07
740.06	1216.49
740.24	1282.03
740.42	1253.36
740.60	1290.22
740.78	1239.02
740.96	1214.45
741.14	1316.84
741.32	1304.56
741.50	1290.22
741.68	1179.63
741.86	1261.55
742.04	1286.12
742.22	1253.36
742.40	1310.70
742.58	1312.75
742.76	1269.74
742.94	1204.21
743.12	1216.49
743.30	1279.98
743.48	1257.45
743.66	1302.51
743.84	1308.65
744.02	1273.84
744.20	1224.69
744.38	1279.98
744.56	1212.40
744.74	1286.12
744.92	1249.26
745.10	1269.74
745.28	1273.84
745.46	1241.07
745.64	1265.64
745.82	1308.65
746.00	1273.84
746.18	1282.03
746.36	1236.97
746.54	1245.16
746.72	1261.55
746.90	1267.69
747.08	1316.84
747.26	1269.74
747.44	1322.99
747.62	1255.40
747.80	1255.40
747.98	1253.36
748.15	1296.36
748.33	1298.41
748.51	1265.64
748.69	1310.70
748.87	1263.60
749.05	1288.17
749.23	1249.26
749.41	1245.16
749.59	1325.04
749.77	1243.12
749.95	1265.64
750.13	1212.40
750.31	1249.26
750.49	1298.41
750.67	1200.11
750.85	1239.02
751.03	1261.55
751.20	1257.45
751.38	1322.99
751.56	1255.40
751.74	1263.60
751.92	1288.17
752.10	1196.01
752.28	1206.25
752.46	1269.74
752.64	1282.03
752.82	1263.60
753.00	1341.42
753.18	1265.64
753.35	1351.66
753.53	1273.84
753.71	1290.22
753.89	1296.36
754.07	1271.79
754.25	1220.59
754.43	1230.83
754.61	1247.21
754.79	1269.74
754.97	1312.75
755.14	1273.84
755.32	1216.49
755.50	1310.70
755.68	1257.45
755.86	1273.84
756.04	1263.60
756.22	1200.11
756.40	1239.02
756.57	1347.56
756.75	1196.01
756.93	1224.69
757.11	1290.22
757.29	1222.64
757.47	1255.40
757.65	1241.07
757.82	1200.11
758.00	1302.51
758.18	1265.64
758.36	1230.83
758.54	1243.12
758.72	1349.61
758.90	1279.98
759.07	1302.51
759.25	1255.40
759.43	1232.88
759.61	1286.12
759.79	1361.90
759.97	1189.87
760.15	1253.36
760.32	1292.27
760.50	1224.69
760.68	1226.73
760.86	1224.69
761.04	1214.45
761.22	1257.45
761.39	1261.55
761.57	1208.30
761.75	1290.22
761.93	1316.84
762.11	1298.41
762.28	1220.59
762.46	1298.41
762.64	1308.65
762.82	1249.26
763.00	1243.12
763.18	1247.21
763.35	1249.26
763.53	1298.41
763.71	1157.10
763.89	1347.56
764.07	1351.66
764.24	1234.93
764.42	1267.69
764.60	1314.80
764.78	1267.69
764.96	1198.06
765.13	1296.36
765.31	1232.88
765.49	1245.16
765.67	1368.04
765.84	1314.80
766.02	1253.36
766.20	1177.58
766.38	1241.07
766.56	1216.49
766.73	1265.64
766.91	1279.98
767.09	1282.03
767.27	1218.54
767.44	1277.93
767.62	1243.12
767.80	1247.21
767.98	1304.56
768.15	1279.98
768.33	1249.26
768.51	1259.50
768.69	1282.03
768.87	1267.69
769.04	1296.36
769.22	1277.93
769.40	1265.64
769.58	1279.98
769.75	1304.56
769.93	1265.64
770.11	1251.31
770.28	1284.08
770.46	1322.99
770.64	1273.84
770.82	1230.83
770.99	1261.55
771.17	1249.26
771.35	1308.65
771.53	1302.51
771.70	1255.40
771.88	1322.99
772.06	1249.26
772.23	1325.04
772.41	1236.97
772.59	1253.36
772.77	1261.55
772.94	1292.27
773.12	1300.46
773.30	1286.12
773.47	1304.56
773.65	1243.12
773.83	1349.61
774.01	1230.83
774.18	1206.25
774.36	1261.55
774.54	1261.55
774.71	1282.03
774.89	1259.50
775.07	1300.46
775.24	1284.08
775.42	1277.93
775.60	1257.45
775.78	1275.88
775.95	1312.75
776.13	1193.97
776.31	1222.64
776.48	1306.60
776.66	1228.78
776.84	1206.25
777.01	1253.36
777.19	1292.27
777.37	1200.11
777.54	1210.35
777.72	1296.36
777.90	1249.26
778.07	1298.41
778.25	1267.69
778.43	1325.04
778.60	1245.16
778.78	1265.64
778.96	1234.93
779.13	1228.78
779.31	1265.64
779.49	1220.59
779.66	1277.93
779.84	1206.25
780.01	1288.17
780.19	1165.29
780.37	1271.79
780.54	1294.32
780.72	1185.77
780.90	1277.93
781.07	1337.32
781.25	1214.45
781.43	1300.46
781.60	1273.84
781.78	1265.64
781.95	1292.27
782.13	1292.27
782.31	1322.99
782.48	1253.36
782.66	1370.09
782.83	1239.02
783.01	1257.45
783.19	1282.03
783.36	1296.36
783.54	1273.84
783.72	1210.35
783.89	1286.12
784.07	1318.89
784.24	1257.45
784.42	1277.93
784.60	1294.32
784.77	1267.69
784.95	1249.26
785.12	1253.36
785.30	1236.97
785.47	1255.40
785.65	1275.88
785.83	1200.11
786.00	1273.84
786.18	1206.25
786.35	1275.88
786.53	1322.99
786.71	1322.99
786.88	1343.47
787.06	1308.65
787.23	1267.69
787.41	1241.07
787.58	1300.46
787.76	1300.46
787.94	1271.79
788.11	1277.93
788.29	1253.36
788.46	1241.07
788.64	1202.16
788.81	1290.22
788.99	1277.93
789.16	1226.73
789.34	1224.69
789.52	1286.12
789.69	1353.71
789.87	1257.45
790.04	1271.79
790.22	1228.78
790.39	1306.60
790.57	1214.45
790.74	1247.21
790.92	1279.98
791.09	1296.36
791.27	1298.41
791.44	1251.31
791.62	1236.97
791.79	1275.88
791.97	1286.12
792.15	1308.65
792.32	1284.08
792.50	1282.03
792.67	1226.73
792.85	1255.40
793.02	1249.26
793.20	1224.69
793.37	1404.91
793.55	1206.25
793.72	1306.60
793.90	1306.60
794.07	1288.17
794.25	1261.55
794.42	1224.69
794.60	1253.36
794.77	1185.77
794.95	1243.12
795.12	1243.12
795.30	1261.55
795.47	1273.84
795.65	1361.90
795.82	1216.49
796.00	1314.80
796.17	1310.70
796.34	1251.31
796.52	1337.32
796.69	1253.36
796.87	1275.88
797.04	1261.55
797.22	1241.07
797.39	1279.98
797.57	1228.78
797.74	1292.27
797.92	1249.26
798.09	1279.98
798.27	1214.45
798.44	1275.88
798.62	1187.82
798.79	1304.56
798.96	1202.16
799.14	1247.21
799.31	1267.69
799.49	1282.03
799.66	1245.16
799.84	1306.60
800.01	1314.80
800.19	1224.69
800.36	1310.70
800.53	1312.75
800.71	1251.31
800.88	1300.46
801.06	1271.79
801.23	1259.50
801.41	1241.07
801.58	1286.12
801.75	1220.59
801.93	1302.51
802.10	1247.21
802.28	1261.55
802.45	1241.07
802.63	1251.31
802.80	1245.16
802.97	1261.55
803.15	1312.75
803.32	1251.31
803.50	1292.27
803.67	1241.07
803.84	1234.93
804.02	1304.56
804.19	1241.07
804.37	1204.21
804.54	1230.83
804.71	1310.70
804.89	1206.25
805.06	1253.36
805.24	1308.65
805.41	1234.93
805.58	1275.88
805.76	1228.78
805.93	1294.32
806.10	1306.60
806.28	1232.88
806.45	1277.93
806.63	1271.79
806.80	1341.42
806.97	1290.22
807.15	1290.22
807.32	1310.70
807.49	1322.99
807.67	1236.97
807.84	1239.02
808.01	1284.08
808.19	1259.50
808.36	1284.08
808.54	1230.83
808.71	1243.12
808.88	1230.83
809.06	1228.78
809.23	1292.27
809.40	1200.11
809.58	1279.98
809.75	1310.70
809.92	1230.83
810.10	1236.97
810.27	1247.21
810.44	1249.26
810.62	1306.60
810.79	1247.21
810.96	1267.69
811.14	1288.17
811.31	1257.45
811.48	1310.70
811.66	1249.26
811.83	1271.79
812.00	1320.94
812.18	1292.27
812.35	1200.11
812.52	1220.59
812.69	1273.84
812.87	1253.36
813.04	1325.04
813.21	1234.93
813.39	1224.69
813.56	1275.88
813.73	1271.79
813.91	1239.02
814.08	1294.32
814.25	1335.28
814.42	1296.36
814.60	1247.21
814.77	1261.55
814.94	1224.69
815.12	1222.64
815.29	1261.55
815.46	1247.21
815.63	1279.98
815.81	1267.69
815.98	1241.07
816.15	1243.12
816.33	1275.88
816.50	1304.56
816.67	1247.21
816.84	1292.27
817.02	1249.26
817.19	1269.74
817.36	1230.83
817.53	1140.72
817.71	1331.18
817.88	1273.84
818.05	1226.73
818.22	1249.26
818.40	1253.36
818.57	1314.80
818.74	1288.17
818.91	1241.07
819.09	1245.16
819.26	1189.87
819.43	1284.08
819.60	1214.45
819.78	1277.93
819.95	1310.70
820.12	1247.21
820.29	1222.64
820.47	1302.51
820.64	1204.21
820.81	1265.64
820.98	1271.79
821.15	1277.93
821.33	1236.97
821.50	1247.21
821.67	1245.16
821.84	1218.54
822.02	1253.36
822.19	1349.61
822.36	1286.12
822.53	1306.60
822.70	1241.07
822.88	1294.32
823.05	1243.12
823.22	1296.36
823.39	1273.84
823.56	1234.93
823.74	1259.50
823.91	1273.84
824.08	1247.21
824.25	1224.69
824.42	1329.13
824.60	1253.36
824.77	1296.36
824.94	1279.98
825.11	1257.45
825.28	1239.02
825.45	1216.49
825.63	1275.88
825.80	1290.22
825.97	1222.64
826.14	1263.60
826.31	1363.95
826.48	1218.54
826.66	1261.55
826.83	1273.84
827.00	1269.74
827.17	1282.03
827.34	1271.79
827.51	1206.25
827.69	1320.94
827.86	1259.50
828.03	1279.98
828.20	1308.65
828.37	1265.64
828.54	1314.80
828.71	1347.56
828.89	1265.64
829.06	1245.16
829.23	1265.64
829.40	1196.01
829.57	1249.26
829.74	1259.50
829.91	1271.79
830.09	1220.59
830.26	1296.36
830.43	1337.32
830.60	1292.27
830.77	1196.01
830.94	1271.79
831.11	1290.22
831.28	1282.03
831.46	1304.56
831.63	1224.69
831.80	1316.84
831.97	1261.55
832.14	1232.88
832.31	1253.36
832.48	1277.93
832.65	1316.84
832.82	1296.36
832.99	1269.74
833.17	1228.78
833.34	1282.03
833.51	1243.12
833.68	1249.26
833.85	1286.12
834.02	1255.40
834.19	1220.59
834.36	1361.90
834.53	1296.36
834.70	1286.12
834.87	1224.69
835.04	1277.93
835.22	1308.65
835.39	1230.83
835.56	1304.56
835.73	1239.02
835.90	1249.26
836.07	1273.84
836.24	1236.97
836.41	1265.64
836.58	1206.25
836.75	1224.69
836.92	1245.16
837.09	1232.88
837.26	1277.93
837.43	1290.22
837.60	1228.78
837.77	1318.89
837.94	1224.69
838.12	1306.60
838.29	1212.40
838.46	1298.41
838.63	1282.03
838.80	1322.99
838.97	1249.26
839.14	1366.00
839.31	1228.78
839.48	1308.65
839.65	1318.89
839.82	1306.60
839.99	1271.79
840.16	1308.65
840.33	1355.76
840.50	1269.74
840.67	1243.12
840.84	1253.36
841.01	1282.03
841.18	1292.27
841.35	1239.02
841.52	1279.98
841.69	1327.08
841.86	1298.41
842.03	1290.22
842.20	1265.64
842.37	1177.58
842.54	1230.83
842.71	1212.40
842.88	1273.84
843.05	1247.21
843.22	1282.03
843.39	1265.64
843.56	1296.36
843.73	1249.26
843.90	1253.36
844.07	1282.03
844.24	1245.16
844.41	1298.41
844.58	1294.32
844.75	1253.36
844.92	1304.56
845.09	1263.60
845.26	1208.30
845.43	1243.12
845.60	1279.98
845.77	1296.36
845.94	1282.03
846.10	1216.49
846.27	1228.78
846.44	1263.60
846.61	1273.84
846.78	1198.06
846.95	1204.21
847.12	1175.53
847.29	1228.78
847.46	1236.97
847.63	1302.51
847.80	1279.98
847.97	1290.22
848.14	1261.55
848.31	1181.68
848.48	1357.80
848.65	1257.45
848.82	1316.84
848.98	1169.39
849.15	1279.98
849.32	1284.08
849.49	1255.40
849.66	1257.45
849.83	1267.69
850.00	1327.08
850.17	1241.07
850.34	1279.98
850.51	1241.07
850.68	1298.41
850.85	1263.60
851.01	1259.50
851.18	1234.93
851.35	1263.60
851.52	1284.08
851.69	1236.97
851.86	1304.56
852.03	1249.26
852.20	1220.59
852.37	1314.80
852.53	1200.11
852.70	1187.82
852.87	1335.28
853.04	1251.31
853.21	1222.64
853.38	1232.88
853.55	1325.04
853.72	1320.94
853.89	1318.89
854.05	1247.21
854.22	1189.87
854.39	1273.84
854.56	1298.41
854.73	1247.21
854.90	1353.71
855.07	1271.79
855.23	1302.51
855.40	1277.93
855.57	1241.07
855.74	1245.16
855.91	1298.41
856.08	1261.55
856.25	1226.73
856.41	1222.64
856.58	1263.60
856.75	1200.11
856.92	1249.26
857.09	1236.97
857.26	1263.60
857.42	1345.52
857.59	1310.70
857.76	1249.26
857.93	1322.99
858.10	1255.40
858.27	1265.64
858.43	1245.16
858.60	1306.60
858.77	1273.84
858.94	1247.21
859.11	1259.50
859.27	1257.45
859.44	1298.41
859.61	1206.25
859.78	1257.45
859.95	1210.35
860.12	1294.32
860.28	1198.06
860.45	1288.17
860.62	1290.22
860.79	1320.94
860.95	1347.56
861.12	1277.93
861.29	1320.94
861.46	1298.41
861.63	1275.88
861.79	1275.88
861.96	1288.17
862.13	1247.21
862.30	1230.83
862.47	1263.60
862.63	1245.16
862.80	1325.04
862.97	1241.07
863.14	1241.07
863.30	1304.56
863.47	1349.61
863.64	1177.58
863.81	1232.88
863.97	1279.98
864.14	1290.22
864.31	1310.70
864.48	1204.21
864.65	1255.40
864.81	1312.75
864.98	1239.02
865.15	1273.84
865.32	1216.49
865.48	1241.07
865.65	1282.03
865.82	1181.68
865.98	1273.84
866.15	1204.21
866.32	1267.69
866.49	1198.06
866.65	1228.78
866.82	1271.79
866.99	1275.88
867.16	1218.54
867.32	1302.51
867.49	1265.64
867.66	1269.74
867.83	1282.03
867.99	1236.97
868.16	1312.75
868.33	1320.94
868.49	1216.49
868.66	1204.21
868.83	1318.89
868.99	1253.36
869.16	1210.35
869.33	1241.07
869.50	1230.83
869.66	1196.01
869.83	1292.27
870.00	1245.16
870.16	1298.41
870.33	1210.35
870.50	1306.60
870.66	1261.55
870.83	1269.74
871.00	1302.51
871.17	1249.26
871.33	1243.12
871.50	1273.84
871.67	1249.26
871.83	1290.22
872.00	1245.16
872.17	1366.00
872.33	1239.02
872.50	1206.25
872.67	1343.47
872.83	1185.77
873.00	1284.08
873.17	1288.17
873.33	1218.54
873.50	1175.53
873.67	1286.12
873.83	1230.83
874.00	1282.03
874.16	1255.40
874.33	1239.02
874.50	1206.25
874.66	1232.88
874.83	1185.77
875.00	1241.07
875.16	1363.95
875.33	1245.16
875.50	1222.64
875.66	1296.36
875.83	1337.32
875.99	1286.12
876.16	1263.60
876.33	1236.97
876.49	1298.41
876.66	1288.17
876.83	1222.64
876.99	1200.11
877.16	1290.22
877.32	1259.50
877.49	1263.60
877.66	1245.16
877.82	1296.36
877.99	1208.30
878.15	1271.79
878.32	1234.93
878.49	1304.56
878.65	1304.56
878.82	1347.56
878.98	1263.60
879.15	1314.80
879.32	1208.30
879.48	1265.64
879.65	1277.93
879.81	1353.71
879.98	1286.12
880.15	1316.84
880.31	1239.02
880.48	1216.49
880.64	1191.92
880.81	1288.17
880.97	1198.06
881.14	1271.79
881.31	1265.64
881.47	1335.28
881.64	1208.30
881.80	1218.54
881.97	1277.93
882.13	1214.45
882.30	1302.51
882.47	1200.11
882.63	1273.84
882.80	1310.70
882.96	1279.98
883.13	1187.82
883.29	1263.60
883.46	1255.40
883.62	1286.12
883.79	1359.85
883.95	1232.88
884.12	1267.69
884.29	1259.50
884.45	1234.93
884.62	1269.74
884.78	1253.36
884.95	1329.13
885.11	1259.50
885.28	1308.65
885.44	1230.83
885.61	1314.80
885.77	1196.01
885.94	1204.21
886.10	1347.56
886.27	1255.40
886.43	1218.54
886.60	1290.22
886.76	1333.23
886.93	1226.73
887.09	1298.41
887.26	1316.84
887.42	1232.88
887.59	1273.84
887.75	1286.12
887.92	1269.74
888.08	1241.07
888.25	1300.46
888.41	1290.22
888.58	1208.30
888.74	1265.64
888.91	1339.37
>>>>>End Processed Spectral Data<<<<<
