SpectraSuite Data File
++++++++++++++++++++++++++++++++++++
Date: Sun Apr 03 19:55:16 CEST 2016
User: root
Dark Spectrum Present: No
Reference Spectrum Present: No
Number of Sampled Component Spectra: 1
Spectrometers: USB4C02835
Integration Time (usec): 10000 (USB4C02835)
Spectra Averaged: 1 (USB4C02835)
Boxcar Smoothing: 0 (USB4C02835)
Correct for Electrical Dark: No (USB4C02835)
Strobe/Lamp Enabled: No (USB4C02835)
Correct for Detector Non-linearity: No (USB4C02835)
Correct for Stray Light: No (USB4C02835)
Number of Pixels in Processed Spectrum: 3648
>>>>>Begin Processed Spectral Data<<<<<
177.47	1273.84
177.69	1273.84
177.91	1273.84
178.13	1273.84
178.36	1175.53
178.58	1249.26
178.80	1239.02
179.02	1251.31
179.24	1271.79
179.46	1249.26
179.68	1247.21
179.90	1263.60
180.13	1173.49
180.35	1298.41
180.57	1277.93
180.79	1316.84
181.01	1320.94
181.23	1353.71
181.45	1304.56
181.67	1265.64
181.90	1282.03
182.12	1318.89
182.34	1308.65
182.56	1325.04
182.78	1245.16
183.00	1265.64
183.22	1251.31
183.44	1230.83
183.66	1222.64
183.89	1302.51
184.11	1288.17
184.33	1277.93
184.55	1255.40
184.77	1253.36
184.99	1251.31
185.21	1275.88
185.43	1298.41
185.65	1239.02
185.87	1288.17
186.10	1320.94
186.32	1298.41
186.54	1292.27
186.76	1290.22
186.98	1300.46
187.20	1269.74
187.42	1189.87
187.64	1249.26
187.86	1181.68
188.08	1320.94
188.30	1183.73
188.52	1306.60
188.75	1333.23
188.97	1257.45
189.19	1251.31
189.41	1251.31
189.63	1198.06
189.85	1271.79
190.07	1224.69
190.29	1200.11
190.51	1275.88
190.73	1236.97
190.95	1265.64
191.17	1275.88
191.39	1232.88
191.61	1259.50
191.84	1232.88
192.06	1292.27
192.28	1241.07
192.50	1335.28
192.72	1249.26
192.94	1265.64
193.16	1273.84
193.38	1298.41
193.60	1257.45
193.82	1241.07
194.04	1263.60
194.26	1204.21
194.48	1277.93
194.70	1210.35
194.92	1325.04
195.14	1187.82
195.36	1236.97
195.58	1267.69
195.80	1167.34
196.02	1247.21
196.24	1271.79
196.46	1259.50
196.69	1304.56
196.91	1353.71
197.13	1310.70
197.35	1230.83
197.57	1273.84
197.79	1245.16
198.01	1331.18
198.23	1275.88
198.45	1269.74
198.67	1220.59
198.89	1239.02
199.11	1208.30
199.33	1267.69
199.55	1243.12
199.77	1232.88
199.99	1196.01
200.21	1255.40
200.43	1353.71
200.65	1245.16
200.87	1218.54
201.09	1325.04
201.31	1267.69
201.53	1302.51
201.75	1230.83
201.97	1212.40
202.19	1275.88
202.41	1341.42
202.63	1234.93
202.85	1312.75
203.07	1279.98
203.29	1247.21
203.51	1277.93
203.73	1247.21
203.95	1251.31
204.17	1329.13
204.39	1320.94
204.61	1351.66
204.83	1222.64
205.05	1234.93
205.27	1282.03
205.49	1298.41
205.71	1298.41
205.93	1269.74
206.15	1245.16
206.37	1290.22
206.59	1234.93
206.81	1279.98
207.03	1286.12
207.25	1224.69
207.47	1251.31
207.69	1298.41
207.91	1204.21
208.13	1296.36
208.34	1284.08
208.56	1306.60
208.78	1263.60
209.00	1232.88
209.22	1271.79
209.44	1243.12
209.66	1187.82
209.88	1265.64
210.10	1306.60
210.32	1245.16
210.54	1292.27
210.76	1222.64
210.98	1298.41
211.20	1302.51
211.42	1249.26
211.64	1247.21
211.86	1253.36
212.08	1325.04
212.30	1413.10
212.52	1243.12
212.74	1232.88
212.96	1292.27
213.17	1255.40
213.39	1294.32
213.61	1253.36
213.83	1257.45
214.05	1255.40
214.27	1232.88
214.49	1310.70
214.71	1273.84
214.93	1210.35
215.15	1282.03
215.37	1243.12
215.59	1300.46
215.81	1329.13
216.03	1290.22
216.24	1298.41
216.46	1273.84
216.68	1214.45
216.90	1310.70
217.12	1267.69
217.34	1292.27
217.56	1198.06
217.78	1275.88
218.00	1296.36
218.22	1312.75
218.44	1306.60
218.66	1288.17
218.87	1271.79
219.09	1251.31
219.31	1275.88
219.53	1220.59
219.75	1277.93
219.97	1292.27
220.19	1308.65
220.41	1230.83
220.63	1308.65
220.85	1310.70
221.06	1351.66
221.28	1224.69
221.50	1286.12
221.72	1271.79
221.94	1261.55
222.16	1298.41
222.38	1251.31
222.60	1253.36
222.82	1318.89
223.03	1290.22
223.25	1275.88
223.47	1363.95
223.69	1298.41
223.91	1269.74
224.13	1263.60
224.35	1243.12
224.57	1245.16
224.78	1288.17
225.00	1288.17
225.22	1241.07
225.44	1304.56
225.66	1263.60
225.88	1302.51
226.10	1345.52
226.32	1267.69
226.53	1296.36
226.75	1282.03
226.97	1294.32
227.19	1316.84
227.41	1204.21
227.63	1249.26
227.85	1193.97
228.06	1298.41
228.28	1361.90
228.50	1302.51
228.72	1265.64
228.94	1292.27
229.16	1292.27
229.37	1302.51
229.59	1296.36
229.81	1337.32
230.03	1265.64
230.25	1298.41
230.47	1349.61
230.69	1312.75
230.90	1273.84
231.12	1296.36
231.34	1226.73
231.56	1277.93
231.78	1218.54
232.00	1300.46
232.21	1273.84
232.43	1308.65
232.65	1249.26
232.87	1318.89
233.09	1222.64
233.30	1257.45
233.52	1171.44
233.74	1234.93
233.96	1204.21
234.18	1290.22
234.40	1232.88
234.61	1288.17
234.83	1232.88
235.05	1282.03
235.27	1273.84
235.49	1224.69
235.70	1277.93
235.92	1271.79
236.14	1234.93
236.36	1279.98
236.58	1214.45
236.79	1271.79
237.01	1222.64
237.23	1187.82
237.45	1267.69
237.67	1284.08
237.88	1261.55
238.10	1302.51
238.32	1267.69
238.54	1212.40
238.76	1284.08
238.97	1325.04
239.19	1320.94
239.41	1271.79
239.63	1284.08
239.85	1286.12
240.06	1245.16
240.28	1263.60
240.50	1273.84
240.72	1282.03
240.93	1284.08
241.15	1292.27
241.37	1302.51
241.59	1208.30
241.81	1236.97
242.02	1232.88
242.24	1236.97
242.46	1320.94
242.68	1216.49
242.89	1255.40
243.11	1267.69
243.33	1351.66
243.55	1263.60
243.76	1255.40
243.98	1189.87
244.20	1279.98
244.42	1320.94
244.64	1187.82
244.85	1302.51
245.07	1255.40
245.29	1255.40
245.51	1306.60
245.72	1236.97
245.94	1247.21
246.16	1193.97
246.38	1288.17
246.59	1259.50
246.81	1230.83
247.03	1327.08
247.24	1290.22
247.46	1327.08
247.68	1263.60
247.90	1165.29
248.11	1302.51
248.33	1279.98
248.55	1284.08
248.77	1243.12
248.98	1347.56
249.20	1273.84
249.42	1318.89
249.64	1288.17
249.85	1292.27
250.07	1265.64
250.29	1216.49
250.50	1331.18
250.72	1282.03
250.94	1265.64
251.16	1208.30
251.37	1275.88
251.59	1253.36
251.81	1230.83
252.02	1279.98
252.24	1243.12
252.46	1241.07
252.68	1245.16
252.89	1204.21
253.11	1226.73
253.33	1253.36
253.54	1249.26
253.76	1269.74
253.98	1261.55
254.20	1206.25
254.41	1259.50
254.63	1277.93
254.85	1257.45
255.06	1288.17
255.28	1296.36
255.50	1298.41
255.71	1322.99
255.93	1267.69
256.15	1243.12
256.36	1279.98
256.58	1273.84
256.80	1255.40
257.02	1239.02
257.23	1232.88
257.45	1169.39
257.67	1214.45
257.88	1279.98
258.10	1255.40
258.32	1288.17
258.53	1277.93
258.75	1318.89
258.97	1314.80
259.18	1259.50
259.40	1218.54
259.62	1255.40
259.83	1261.55
260.05	1243.12
260.27	1314.80
260.48	1284.08
260.70	1212.40
260.92	1355.76
261.13	1255.40
261.35	1236.97
261.57	1310.70
261.78	1277.93
262.00	1226.73
262.22	1273.84
262.43	1265.64
262.65	1261.55
262.86	1232.88
263.08	1312.75
263.30	1214.45
263.51	1284.08
263.73	1273.84
263.95	1216.49
264.16	1308.65
264.38	1243.12
264.60	1294.32
264.81	1273.84
265.03	1257.45
265.25	1296.36
265.46	1275.88
265.68	1282.03
265.89	1265.64
266.11	1277.93
266.33	1314.80
266.54	1288.17
266.76	1212.40
266.98	1232.88
267.19	1253.36
267.41	1257.45
267.62	1341.42
267.84	1257.45
268.06	1312.75
268.27	1269.74
268.49	1376.24
268.70	1316.84
268.92	1335.28
269.14	1255.40
269.35	1269.74
269.57	1290.22
269.79	1228.78
270.00	1239.02
270.22	1214.45
270.43	1265.64
270.65	1255.40
270.87	1253.36
271.08	1255.40
271.30	1265.64
271.51	1263.60
271.73	1267.69
271.95	1282.03
272.16	1241.07
272.38	1228.78
272.59	1306.60
272.81	1284.08
273.02	1279.98
273.24	1257.45
273.46	1212.40
273.67	1224.69
273.89	1263.60
274.10	1271.79
274.32	1218.54
274.54	1269.74
274.75	1239.02
274.97	1196.01
275.18	1363.95
275.40	1241.07
275.61	1241.07
275.83	1267.69
276.05	1296.36
276.26	1318.89
276.48	1265.64
276.69	1261.55
276.91	1261.55
277.12	1165.29
277.34	1257.45
277.55	1273.84
277.77	1214.45
277.99	1282.03
278.20	1302.51
278.42	1292.27
278.63	1265.64
278.85	1251.31
279.06	1228.78
279.28	1230.83
279.49	1234.93
279.71	1322.99
279.93	1257.45
280.14	1228.78
280.36	1286.12
280.57	1284.08
280.79	1277.93
281.00	1212.40
281.22	1378.28
281.43	1243.12
281.65	1245.16
281.86	1239.02
282.08	1300.46
282.29	1243.12
282.51	1220.59
282.73	1298.41
282.94	1218.54
283.16	1253.36
283.37	1282.03
283.59	1257.45
283.80	1232.88
284.02	1257.45
284.23	1271.79
284.45	1261.55
284.66	1290.22
284.88	1222.64
285.09	1239.02
285.31	1300.46
285.52	1243.12
285.74	1224.69
285.95	1257.45
286.17	1243.12
286.38	1275.88
286.60	1243.12
286.81	1122.29
287.03	1314.80
287.24	1265.64
287.46	1282.03
287.67	1261.55
287.89	1314.80
288.10	1216.49
288.32	1271.79
288.53	1308.65
288.75	1253.36
288.96	1261.55
289.18	1314.80
289.39	1222.64
289.61	1181.68
289.82	1245.16
290.04	1292.27
290.25	1253.36
290.47	1269.74
290.68	1265.64
290.90	1290.22
291.11	1327.08
291.33	1306.60
291.54	1304.56
291.76	1198.06
291.97	1343.47
292.18	1261.55
292.40	1259.50
292.61	1247.21
292.83	1312.75
293.04	1322.99
293.26	1310.70
293.47	1257.45
293.69	1316.84
293.90	1294.32
294.12	1306.60
294.33	1308.65
294.55	1239.02
294.76	1263.60
294.97	1292.27
295.19	1269.74
295.40	1292.27
295.62	1261.55
295.83	1310.70
296.05	1198.06
296.26	1253.36
296.48	1316.84
296.69	1271.79
296.90	1269.74
297.12	1267.69
297.33	1282.03
297.55	1269.74
297.76	1302.51
297.98	1267.69
298.19	1232.88
298.41	1282.03
298.62	1265.64
298.83	1355.76
299.05	1236.97
299.26	1253.36
299.48	1333.23
299.69	1267.69
299.90	1249.26
300.12	1308.65
300.33	1271.79
300.55	1193.97
300.76	1234.93
300.98	1249.26
301.19	1312.75
301.40	1259.50
301.62	1247.21
301.83	1214.45
302.05	1296.36
302.26	1302.51
302.47	1296.36
302.69	1249.26
302.90	1298.41
303.12	1277.93
303.33	1333.23
303.54	1245.16
303.76	1216.49
303.97	1286.12
304.19	1308.65
304.40	1185.77
304.61	1261.55
304.83	1243.12
305.04	1286.12
305.26	1265.64
305.47	1208.30
305.68	1183.73
305.90	1312.75
306.11	1183.73
306.33	1372.14
306.54	1228.78
306.75	1318.89
306.97	1232.88
307.18	1230.83
307.39	1265.64
307.61	1247.21
307.82	1259.50
308.04	1226.73
308.25	1265.64
308.46	1257.45
308.68	1249.26
308.89	1357.80
309.10	1222.64
309.32	1232.88
309.53	1216.49
309.74	1167.34
309.96	1255.40
310.17	1230.83
310.39	1265.64
310.60	1271.79
310.81	1247.21
311.03	1284.08
311.24	1200.11
311.45	1200.11
311.67	1265.64
311.88	1292.27
312.09	1329.13
312.31	1249.26
312.52	1286.12
312.73	1216.49
312.95	1316.84
313.16	1255.40
313.37	1189.87
313.59	1255.40
313.80	1304.56
314.01	1257.45
314.23	1279.98
314.44	1269.74
314.65	1286.12
314.87	1296.36
315.08	1306.60
315.29	1263.60
315.51	1253.36
315.72	1167.34
315.93	1226.73
316.15	1271.79
316.36	1329.13
316.57	1282.03
316.79	1318.89
317.00	1241.07
317.21	1206.25
317.43	1234.93
317.64	1206.25
317.85	1220.59
318.07	1208.30
318.28	1273.84
318.49	1208.30
318.70	1339.37
318.92	1269.74
319.13	1308.65
319.34	1308.65
319.56	1200.11
319.77	1284.08
319.98	1265.64
320.20	1282.03
320.41	1310.70
320.62	1222.64
320.83	1275.88
321.05	1298.41
321.26	1275.88
321.47	1269.74
321.69	1239.02
321.90	1247.21
322.11	1273.84
322.32	1243.12
322.54	1318.89
322.75	1265.64
322.96	1232.88
323.18	1253.36
323.39	1286.12
323.60	1277.93
323.81	1241.07
324.03	1249.26
324.24	1314.80
324.45	1320.94
324.66	1263.60
324.88	1275.88
325.09	1222.64
325.30	1261.55
325.52	1322.99
325.73	1236.97
325.94	1257.45
326.15	1308.65
326.37	1214.45
326.58	1333.23
326.79	1245.16
327.00	1306.60
327.22	1294.32
327.43	1226.73
327.64	1331.18
327.85	1241.07
328.07	1269.74
328.28	1208.30
328.49	1343.47
328.70	1329.13
328.92	1290.22
329.13	1290.22
329.34	1204.21
329.55	1314.80
329.76	1335.28
329.98	1279.98
330.19	1267.69
330.40	1193.97
330.61	1226.73
330.83	1241.07
331.04	1320.94
331.25	1243.12
331.46	1249.26
331.68	1310.70
331.89	1257.45
332.10	1224.69
332.31	1216.49
332.52	1345.52
332.74	1253.36
332.95	1288.17
333.16	1183.73
333.37	1277.93
333.58	1230.83
333.80	1269.74
334.01	1329.13
334.22	1271.79
334.43	1255.40
334.64	1257.45
334.86	1247.21
335.07	1249.26
335.28	1300.46
335.49	1345.52
335.70	1161.20
335.92	1306.60
336.13	1298.41
336.34	1290.22
336.55	1288.17
336.76	1302.51
336.98	1263.60
337.19	1255.40
337.40	1314.80
337.61	1300.46
337.82	1228.78
338.04	1271.79
338.25	1298.41
338.46	1273.84
338.67	1304.56
338.88	1230.83
339.09	1216.49
339.31	1265.64
339.52	1200.11
339.73	1275.88
339.94	1322.99
340.15	1251.31
340.36	1327.08
340.58	1322.99
340.79	1279.98
341.00	1347.56
341.21	1232.88
341.42	1257.45
341.63	1273.84
341.85	1294.32
342.06	1277.93
342.27	1247.21
342.48	1273.84
342.69	1304.56
342.90	1232.88
343.12	1261.55
343.33	1265.64
343.54	1288.17
343.75	1263.60
343.96	1284.08
344.17	1257.45
344.38	1275.88
344.60	1220.59
344.81	1265.64
345.02	1306.60
345.23	1275.88
345.44	1312.75
345.65	1294.32
345.86	1239.02
346.07	1290.22
346.29	1279.98
346.50	1245.16
346.71	1243.12
346.92	1255.40
347.13	1267.69
347.34	1253.36
347.55	1265.64
347.76	1230.83
347.98	1263.60
348.19	1282.03
348.40	1284.08
348.61	1257.45
348.82	1216.49
349.03	1181.68
349.24	1296.36
349.45	1306.60
349.66	1314.80
349.88	1292.27
350.09	1286.12
350.30	1253.36
350.51	1294.32
350.72	1267.69
350.93	1263.60
351.14	1271.79
351.35	1263.60
351.56	1320.94
351.77	1247.21
351.99	1241.07
352.20	1282.03
352.41	1247.21
352.62	1259.50
352.83	1304.56
353.04	1339.37
353.25	1316.84
353.46	1216.49
353.67	1366.00
353.88	1253.36
354.09	1288.17
354.30	1202.16
354.52	1241.07
354.73	1284.08
354.94	1191.92
355.15	1329.13
355.36	1271.79
355.57	1288.17
355.78	1273.84
355.99	1302.51
356.20	1298.41
356.41	1253.36
356.62	1232.88
356.83	1245.16
357.04	1218.54
357.25	1316.84
357.46	1249.26
357.68	1271.79
357.89	1265.64
358.10	1349.61
358.31	1249.26
358.52	1269.74
358.73	1304.56
358.94	1288.17
359.15	1261.55
359.36	1271.79
359.57	1210.35
359.78	1353.71
359.99	1273.84
360.20	1265.64
360.41	1282.03
360.62	1257.45
360.83	1232.88
361.04	1277.93
361.25	1341.42
361.46	1308.65
361.67	1263.60
361.88	1277.93
362.09	1232.88
362.30	1212.40
362.51	1245.16
362.72	1261.55
362.93	1243.12
363.14	1239.02
363.35	1314.80
363.56	1294.32
363.78	1306.60
363.99	1206.25
364.20	1282.03
364.41	1273.84
364.62	1196.01
364.83	1251.31
365.04	1277.93
365.25	1216.49
365.46	1308.65
365.67	1241.07
365.88	1310.70
366.09	1298.41
366.30	1368.04
366.51	1263.60
366.72	1169.39
366.93	1267.69
367.14	1265.64
367.35	1300.46
367.56	1257.45
367.77	1312.75
367.98	1247.21
368.18	1234.93
368.39	1290.22
368.60	1218.54
368.81	1347.56
369.02	1259.50
369.23	1288.17
369.44	1245.16
369.65	1236.97
369.86	1241.07
370.07	1361.90
370.28	1290.22
370.49	1279.98
370.70	1255.40
370.91	1183.73
371.12	1370.09
371.33	1273.84
371.54	1255.40
371.75	1302.51
371.96	1247.21
372.17	1245.16
372.38	1275.88
372.59	1249.26
372.80	1314.80
373.01	1185.77
373.22	1284.08
373.43	1300.46
373.64	1290.22
373.85	1294.32
374.06	1284.08
374.26	1294.32
374.47	1292.27
374.68	1261.55
374.89	1271.79
375.10	1267.69
375.31	1241.07
375.52	1271.79
375.73	1290.22
375.94	1298.41
376.15	1312.75
376.36	1290.22
376.57	1277.93
376.78	1234.93
376.99	1193.97
377.20	1183.73
377.40	1284.08
377.61	1249.26
377.82	1310.70
378.03	1298.41
378.24	1296.36
378.45	1269.74
378.66	1275.88
378.87	1329.13
379.08	1308.65
379.29	1259.50
379.50	1277.93
379.71	1261.55
379.91	1249.26
380.12	1325.04
380.33	1267.69
380.54	1312.75
380.75	1265.64
380.96	1243.12
381.17	1322.99
381.38	1241.07
381.59	1241.07
381.80	1263.60
382.00	1277.93
382.21	1279.98
382.42	1212.40
382.63	1310.70
382.84	1259.50
383.05	1304.56
383.26	1249.26
383.47	1222.64
383.68	1263.60
383.88	1273.84
384.09	1292.27
384.30	1224.69
384.51	1232.88
384.72	1294.32
384.93	1206.25
385.14	1218.54
385.35	1204.21
385.55	1189.87
385.76	1232.88
385.97	1132.53
386.18	1351.66
386.39	1314.80
386.60	1239.02
386.81	1253.36
387.02	1314.80
387.22	1230.83
387.43	1200.11
387.64	1288.17
387.85	1273.84
388.06	1275.88
388.27	1241.07
388.48	1206.25
388.68	1286.12
388.89	1259.50
389.10	1239.02
389.31	1269.74
389.52	1277.93
389.73	1292.27
389.93	1255.40
390.14	1314.80
390.35	1273.84
390.56	1277.93
390.77	1314.80
390.98	1273.84
391.18	1243.12
391.39	1253.36
391.60	1245.16
391.81	1161.20
392.02	1292.27
392.23	1257.45
392.43	1261.55
392.64	1306.60
392.85	1191.92
393.06	1257.45
393.27	1269.74
393.47	1224.69
393.68	1361.90
393.89	1265.64
394.10	1267.69
394.31	1253.36
394.52	1329.13
394.72	1282.03
394.93	1273.84
395.14	1265.64
395.35	1302.51
395.56	1279.98
395.76	1218.54
395.97	1277.93
396.18	1257.45
396.39	1269.74
396.60	1282.03
396.80	1230.83
397.01	1277.93
397.22	1150.96
397.43	1286.12
397.64	1271.79
397.84	1341.42
398.05	1206.25
398.26	1273.84
398.47	1368.04
398.67	1288.17
398.88	1265.64
399.09	1236.97
399.30	1296.36
399.51	1294.32
399.71	1230.83
399.92	1245.16
400.13	1290.22
400.34	1204.21
400.54	1273.84
400.75	1294.32
400.96	1267.69
401.17	1208.30
401.37	1333.23
401.58	1255.40
401.79	1267.69
402.00	1296.36
402.21	1220.59
402.41	1214.45
402.62	1220.59
402.83	1259.50
403.04	1245.16
403.24	1290.22
403.45	1232.88
403.66	1259.50
403.87	1261.55
404.07	1265.64
404.28	1282.03
404.49	1320.94
404.70	1318.89
404.90	1257.45
405.11	1341.42
405.32	1257.45
405.52	1257.45
405.73	1210.35
405.94	1306.60
406.15	1255.40
406.35	1290.22
406.56	1359.85
406.77	1206.25
406.98	1290.22
407.18	1228.78
407.39	1189.87
407.60	1255.40
407.80	1210.35
408.01	1243.12
408.22	1204.21
408.43	1204.21
408.63	1241.07
408.84	1290.22
409.05	1363.95
409.25	1255.40
409.46	1298.41
409.67	1263.60
409.88	1269.74
410.08	1220.59
410.29	1232.88
410.50	1261.55
410.70	1329.13
410.91	1361.90
411.12	1236.97
411.32	1267.69
411.53	1200.11
411.74	1294.32
411.95	1185.77
412.15	1304.56
412.36	1234.93
412.57	1288.17
412.77	1290.22
412.98	1216.49
413.19	1267.69
413.39	1282.03
413.60	1210.35
413.81	1304.56
414.01	1296.36
414.22	1314.80
414.43	1212.40
414.63	1239.02
414.84	1236.97
415.05	1224.69
415.25	1236.97
415.46	1290.22
415.67	1249.26
415.87	1269.74
416.08	1304.56
416.29	1251.31
416.49	1273.84
416.70	1263.60
416.91	1271.79
417.11	1310.70
417.32	1251.31
417.53	1286.12
417.73	1312.75
417.94	1245.16
418.15	1320.94
418.35	1230.83
418.56	1169.39
418.77	1300.46
418.97	1269.74
419.18	1292.27
419.38	1261.55
419.59	1206.25
419.80	1302.51
420.00	1318.89
420.21	1271.79
420.42	1206.25
420.62	1308.65
420.83	1331.18
421.04	1290.22
421.24	1216.49
421.45	1241.07
421.65	1255.40
421.86	1167.34
422.07	1273.84
422.27	1316.84
422.48	1279.98
422.69	1232.88
422.89	1310.70
423.10	1294.32
423.30	1302.51
423.51	1310.70
423.72	1253.36
423.92	1271.79
424.13	1239.02
424.33	1220.59
424.54	1187.82
424.75	1228.78
424.95	1298.41
425.16	1230.83
425.36	1314.80
425.57	1271.79
425.78	1245.16
425.98	1327.08
426.19	1275.88
426.39	1245.16
426.60	1259.50
426.81	1263.60
427.01	1232.88
427.22	1249.26
427.42	1239.02
427.63	1288.17
427.83	1208.30
428.04	1216.49
428.25	1302.51
428.45	1302.51
428.66	1294.32
428.86	1296.36
429.07	1253.36
429.28	1282.03
429.48	1277.93
429.69	1259.50
429.89	1232.88
430.10	1312.75
430.30	1298.41
430.51	1257.45
430.71	1351.66
430.92	1230.83
431.13	1310.70
431.33	1257.45
431.54	1224.69
431.74	1310.70
431.95	1193.97
432.15	1234.93
432.36	1204.21
432.56	1243.12
432.77	1329.13
432.98	1374.19
433.18	1232.88
433.39	1257.45
433.59	1249.26
433.80	1257.45
434.00	1247.21
434.21	1191.92
434.41	1249.26
434.62	1308.65
434.82	1257.45
435.03	1239.02
435.23	1265.64
435.44	1302.51
435.64	1222.64
435.85	1189.87
436.06	1261.55
436.26	1277.93
436.47	1255.40
436.67	1279.98
436.88	1325.04
437.08	1282.03
437.29	1218.54
437.49	1298.41
437.70	1249.26
437.90	1253.36
438.11	1271.79
438.31	1259.50
438.52	1263.60
438.72	1296.36
438.93	1279.98
439.13	1296.36
439.34	1304.56
439.54	1251.31
439.75	1251.31
439.95	1284.08
440.16	1216.49
440.36	1306.60
440.57	1196.01
440.77	1234.93
440.98	1275.88
441.18	1259.50
441.39	1284.08
441.59	1273.84
441.80	1290.22
442.00	1253.36
442.21	1298.41
442.41	1322.99
442.62	1269.74
442.82	1267.69
443.02	1298.41
443.23	1269.74
443.43	1304.56
443.64	1234.93
443.84	1245.16
444.05	1327.08
444.25	1239.02
444.46	1279.98
444.66	1300.46
444.87	1333.23
445.07	1253.36
445.28	1265.64
445.48	1251.31
445.69	1300.46
445.89	1275.88
446.09	1263.60
446.30	1269.74
446.50	1310.70
446.71	1234.93
446.91	1222.64
447.12	1322.99
447.32	1271.79
447.53	1271.79
447.73	1275.88
447.93	1277.93
448.14	1288.17
448.34	1308.65
448.55	1265.64
448.75	1247.21
448.96	1208.30
449.16	1296.36
449.36	1329.13
449.57	1290.22
449.77	1318.89
449.98	1239.02
450.18	1255.40
450.39	1249.26
450.59	1308.65
450.79	1298.41
451.00	1273.84
451.20	1296.36
451.41	1243.12
451.61	1271.79
451.81	1239.02
452.02	1288.17
452.22	1255.40
452.43	1286.12
452.63	1226.73
452.84	1241.07
453.04	1304.56
453.24	1204.21
453.45	1304.56
453.65	1298.41
453.86	1249.26
454.06	1312.75
454.26	1325.04
454.47	1243.12
454.67	1298.41
454.87	1255.40
455.08	1257.45
455.28	1265.64
455.49	1251.31
455.69	1300.46
455.89	1277.93
456.10	1269.74
456.30	1343.47
456.51	1284.08
456.71	1312.75
456.91	1241.07
457.12	1236.97
457.32	1290.22
457.52	1277.93
457.73	1269.74
457.93	1284.08
458.14	1236.97
458.34	1286.12
458.54	1255.40
458.75	1296.36
458.95	1359.85
459.15	1220.59
459.36	1310.70
459.56	1263.60
459.76	1329.13
459.97	1261.55
460.17	1292.27
460.37	1316.84
460.58	1210.35
460.78	1277.93
460.99	1273.84
461.19	1277.93
461.39	1269.74
461.60	1300.46
461.80	1239.02
462.00	1298.41
462.21	1302.51
462.41	1230.83
462.61	1320.94
462.82	1208.30
463.02	1353.71
463.22	1253.36
463.43	1275.88
463.63	1226.73
463.83	1347.56
464.04	1327.08
464.24	1314.80
464.44	1263.60
464.64	1304.56
464.85	1241.07
465.05	1251.31
465.25	1329.13
465.46	1275.88
465.66	1282.03
465.86	1384.43
466.07	1353.71
466.27	1212.40
466.47	1265.64
466.68	1304.56
466.88	1400.81
467.08	1312.75
467.29	1255.40
467.49	1245.16
467.69	1286.12
467.89	1263.60
468.10	1208.30
468.30	1265.64
468.50	1263.60
468.71	1290.22
468.91	1292.27
469.11	1322.99
469.31	1325.04
469.52	1247.21
469.72	1294.32
469.92	1300.46
470.13	1253.36
470.33	1275.88
470.53	1349.61
470.73	1320.94
470.94	1228.78
471.14	1310.70
471.34	1247.21
471.54	1298.41
471.75	1282.03
471.95	1226.73
472.15	1275.88
472.36	1279.98
472.56	1245.16
472.76	1220.59
472.96	1286.12
473.17	1265.64
473.37	1277.93
473.57	1288.17
473.77	1372.14
473.98	1220.59
474.18	1310.70
474.38	1292.27
474.58	1279.98
474.79	1271.79
474.99	1216.49
475.19	1257.45
475.39	1302.51
475.60	1220.59
475.80	1228.78
476.00	1230.83
476.20	1265.64
476.41	1267.69
476.61	1271.79
476.81	1304.56
477.01	1257.45
477.21	1331.18
477.42	1314.80
477.62	1279.98
477.82	1253.36
478.02	1202.16
478.23	1230.83
478.43	1306.60
478.63	1279.98
478.83	1255.40
479.03	1243.12
479.24	1288.17
479.44	1239.02
479.64	1179.63
479.84	1292.27
480.04	1196.01
480.25	1298.41
480.45	1196.01
480.65	1300.46
480.85	1314.80
481.06	1337.32
481.26	1253.36
481.46	1292.27
481.66	1224.69
481.86	1265.64
482.06	1255.40
482.27	1329.13
482.47	1298.41
482.67	1306.60
482.87	1255.40
483.07	1232.88
483.28	1331.18
483.48	1241.07
483.68	1191.92
483.88	1316.84
484.08	1263.60
484.29	1282.03
484.49	1259.50
484.69	1239.02
484.89	1306.60
485.09	1255.40
485.29	1255.40
485.50	1288.17
485.70	1226.73
485.90	1327.08
486.10	1275.88
486.30	1232.88
486.50	1290.22
486.71	1296.36
486.91	1318.89
487.11	1142.77
487.31	1224.69
487.51	1247.21
487.71	1191.92
487.91	1271.79
488.12	1314.80
488.32	1327.08
488.52	1292.27
488.72	1183.73
488.92	1296.36
489.12	1261.55
489.32	1267.69
489.53	1226.73
489.73	1296.36
489.93	1187.82
490.13	1218.54
490.33	1277.93
490.53	1206.25
490.73	1202.16
490.94	1310.70
491.14	1296.36
491.34	1267.69
491.54	1273.84
491.74	1275.88
491.94	1265.64
492.14	1296.36
492.34	1243.12
492.54	1306.60
492.75	1290.22
492.95	1183.73
493.15	1218.54
493.35	1325.04
493.55	1322.99
493.75	1267.69
493.95	1306.60
494.15	1263.60
494.35	1279.98
494.56	1298.41
494.76	1228.78
494.96	1241.07
495.16	1265.64
495.36	1302.51
495.56	1269.74
495.76	1306.60
495.96	1290.22
496.16	1247.21
496.36	1249.26
496.56	1300.46
496.77	1267.69
496.97	1212.40
497.17	1284.08
497.37	1261.55
497.57	1284.08
497.77	1302.51
497.97	1335.28
498.17	1275.88
498.37	1298.41
498.57	1204.21
498.77	1232.88
498.97	1200.11
499.17	1294.32
499.38	1279.98
499.58	1318.89
499.78	1296.36
499.98	1204.21
500.18	1316.84
500.38	1292.27
500.58	1265.64
500.78	1269.74
500.98	1257.45
501.18	1335.28
501.38	1284.08
501.58	1316.84
501.78	1241.07
501.98	1236.97
502.18	1196.01
502.38	1304.56
502.58	1269.74
502.78	1304.56
502.98	1239.02
503.18	1282.03
503.38	1310.70
503.59	1232.88
503.79	1279.98
503.99	1298.41
504.19	1251.31
504.39	1320.94
504.59	1284.08
504.79	1251.31
504.99	1304.56
505.19	1261.55
505.39	1269.74
505.59	1306.60
505.79	1261.55
505.99	1298.41
506.19	1251.31
506.39	1247.21
506.59	1239.02
506.79	1239.02
506.99	1284.08
507.19	1255.40
507.39	1288.17
507.59	1296.36
507.79	1206.25
507.99	1284.08
508.19	1245.16
508.39	1288.17
508.59	1300.46
508.79	1304.56
508.99	1236.97
509.19	1263.60
509.39	1259.50
509.59	1302.51
509.79	1304.56
509.99	1243.12
510.19	1226.73
510.39	1273.84
510.59	1279.98
510.79	1239.02
510.99	1230.83
511.19	1255.40
511.39	1398.76
511.59	1296.36
511.79	1267.69
511.99	1271.79
512.19	1247.21
512.38	1329.13
512.58	1247.21
512.78	1314.80
512.98	1210.35
513.18	1249.26
513.38	1337.32
513.58	1228.78
513.78	1228.78
513.98	1226.73
514.18	1255.40
514.38	1374.19
514.58	1243.12
514.78	1290.22
514.98	1351.66
515.18	1357.80
515.38	1290.22
515.58	1284.08
515.78	1312.75
515.98	1343.47
516.18	1286.12
516.38	1296.36
516.57	1232.88
516.77	1249.26
516.97	1353.71
517.17	1296.36
517.37	1210.35
517.57	1353.71
517.77	1327.08
517.97	1261.55
518.17	1279.98
518.37	1308.65
518.57	1290.22
518.77	1290.22
518.97	1286.12
519.16	1279.98
519.36	1175.53
519.56	1298.41
519.76	1308.65
519.96	1275.88
520.16	1316.84
520.36	1212.40
520.56	1269.74
520.76	1200.11
520.96	1320.94
521.16	1253.36
521.35	1275.88
521.55	1341.42
521.75	1265.64
521.95	1355.76
522.15	1232.88
522.35	1304.56
522.55	1298.41
522.75	1306.60
522.95	1329.13
523.14	1263.60
523.34	1355.76
523.54	1251.31
523.74	1298.41
523.94	1296.36
524.14	1279.98
524.34	1265.64
524.54	1316.84
524.73	1218.54
524.93	1241.07
525.13	1312.75
525.33	1255.40
525.53	1288.17
525.73	1271.79
525.93	1327.08
526.13	1329.13
526.32	1273.84
526.52	1267.69
526.72	1361.90
526.92	1271.79
527.12	1218.54
527.32	1265.64
527.52	1355.76
527.71	1261.55
527.91	1247.21
528.11	1300.46
528.31	1329.13
528.51	1236.97
528.71	1300.46
528.90	1232.88
529.10	1265.64
529.30	1337.32
529.50	1257.45
529.70	1279.98
529.90	1376.24
530.09	1335.28
530.29	1263.60
530.49	1300.46
530.69	1325.04
530.89	1267.69
531.09	1269.74
531.28	1286.12
531.48	1339.37
531.68	1214.45
531.88	1220.59
532.08	1292.27
532.28	1245.16
532.47	1294.32
532.67	1294.32
532.87	1257.45
533.07	1259.50
533.27	1257.45
533.46	1261.55
533.66	1304.56
533.86	1271.79
534.06	1298.41
534.26	1298.41
534.45	1210.35
534.65	1316.84
534.85	1269.74
535.05	1298.41
535.25	1255.40
535.44	1292.27
535.64	1267.69
535.84	1359.85
536.04	1308.65
536.24	1279.98
536.43	1247.21
536.63	1255.40
536.83	1255.40
537.03	1249.26
537.22	1241.07
537.42	1286.12
537.62	1253.36
537.82	1284.08
538.02	1294.32
538.21	1259.50
538.41	1255.40
538.61	1204.21
538.81	1234.93
539.00	1296.36
539.20	1253.36
539.40	1257.45
539.60	1253.36
539.79	1316.84
539.99	1261.55
540.19	1329.13
540.39	1263.60
540.58	1269.74
540.78	1302.51
540.98	1228.78
541.18	1236.97
541.37	1269.74
541.57	1290.22
541.77	1210.35
541.97	1247.21
542.16	1292.27
542.36	1247.21
542.56	1206.25
542.76	1304.56
542.95	1277.93
543.15	1261.55
543.35	1316.84
543.54	1245.16
543.74	1345.52
543.94	1282.03
544.14	1245.16
544.33	1306.60
544.53	1267.69
544.73	1273.84
544.93	1245.16
545.12	1331.18
545.32	1267.69
545.52	1224.69
545.71	1419.24
545.91	1292.27
546.11	1271.79
546.30	1253.36
546.50	1265.64
546.70	1335.28
546.90	1273.84
547.09	1222.64
547.29	1265.64
547.49	1265.64
547.68	1316.84
547.88	1216.49
548.08	1331.18
548.27	1306.60
548.47	1241.07
548.67	1284.08
548.87	1241.07
549.06	1282.03
549.26	1314.80
549.46	1202.16
549.65	1269.74
549.85	1282.03
550.05	1347.56
550.24	1294.32
550.44	1282.03
550.64	1245.16
550.83	1312.75
551.03	1284.08
551.23	1253.36
551.42	1241.07
551.62	1245.16
551.82	1308.65
552.01	1214.45
552.21	1335.28
552.41	1247.21
552.60	1298.41
552.80	1325.04
553.00	1279.98
553.19	1273.84
553.39	1298.41
553.59	1263.60
553.78	1234.93
553.98	1310.70
554.17	1288.17
554.37	1347.56
554.57	1349.61
554.76	1292.27
554.96	1220.59
555.16	1302.51
555.35	1224.69
555.55	1271.79
555.75	1196.01
555.94	1298.41
556.14	1230.83
556.33	1257.45
556.53	1310.70
556.73	1343.47
556.92	1327.08
557.12	1370.09
557.32	1277.93
557.51	1310.70
557.71	1288.17
557.90	1216.49
558.10	1269.74
558.30	1263.60
558.49	1226.73
558.69	1316.84
558.88	1304.56
559.08	1255.40
559.28	1361.90
559.47	1261.55
559.67	1267.69
559.86	1296.36
560.06	1331.18
560.26	1292.27
560.45	1349.61
560.65	1220.59
560.84	1322.99
561.04	1279.98
561.24	1255.40
561.43	1206.25
561.63	1296.36
561.82	1380.33
562.02	1282.03
562.22	1343.47
562.41	1282.03
562.61	1308.65
562.80	1282.03
563.00	1263.60
563.19	1322.99
563.39	1275.88
563.59	1318.89
563.78	1312.75
563.98	1261.55
564.17	1277.93
564.37	1253.36
564.56	1316.84
564.76	1335.28
564.96	1249.26
565.15	1277.93
565.35	1253.36
565.54	1329.13
565.74	1314.80
565.93	1288.17
566.13	1294.32
566.32	1241.07
566.52	1271.79
566.71	1245.16
566.91	1320.94
567.11	1327.08
567.30	1271.79
567.50	1327.08
567.69	1320.94
567.89	1335.28
568.08	1294.32
568.28	1294.32
568.47	1273.84
568.67	1206.25
568.86	1288.17
569.06	1357.80
569.25	1298.41
569.45	1275.88
569.64	1241.07
569.84	1286.12
570.04	1300.46
570.23	1212.40
570.43	1298.41
570.62	1261.55
570.82	1320.94
571.01	1269.74
571.21	1335.28
571.40	1202.16
571.60	1355.76
571.79	1263.60
571.99	1304.56
572.18	1308.65
572.38	1216.49
572.57	1353.71
572.77	1259.50
572.96	1306.60
573.16	1265.64
573.35	1232.88
573.55	1279.98
573.74	1314.80
573.94	1347.56
574.13	1259.50
574.33	1359.85
574.52	1306.60
574.71	1298.41
574.91	1232.88
575.10	1304.56
575.30	1206.25
575.49	1282.03
575.69	1296.36
575.88	1275.88
576.08	1382.38
576.27	1277.93
576.47	1261.55
576.66	1359.85
576.86	1304.56
577.05	1306.60
577.25	1265.64
577.44	1351.66
577.64	1347.56
577.83	1275.88
578.02	1345.52
578.22	1245.16
578.41	1261.55
578.61	1318.89
578.80	1179.63
579.00	1292.27
579.19	1277.93
579.39	1310.70
579.58	1333.23
579.77	1257.45
579.97	1236.97
580.16	1345.52
580.36	1271.79
580.55	1325.04
580.75	1267.69
580.94	1226.73
581.13	1314.80
581.33	1322.99
581.52	1318.89
581.72	1269.74
581.91	1257.45
582.11	1271.79
582.30	1302.51
582.49	1193.97
582.69	1343.47
582.88	1306.60
583.08	1247.21
583.27	1243.12
583.47	1298.41
583.66	1271.79
583.85	1290.22
584.05	1327.08
584.24	1314.80
584.44	1257.45
584.63	1259.50
584.82	1361.90
585.02	1302.51
585.21	1275.88
585.41	1286.12
585.60	1298.41
585.79	1302.51
585.99	1339.37
586.18	1343.47
586.37	1239.02
586.57	1314.80
586.76	1322.99
586.96	1253.36
587.15	1290.22
587.34	1304.56
587.54	1275.88
587.73	1322.99
587.93	1271.79
588.12	1208.30
588.31	1243.12
588.51	1236.97
588.70	1327.08
588.89	1253.36
589.09	1257.45
589.28	1263.60
589.47	1290.22
589.67	1253.36
589.86	1327.08
590.06	1302.51
590.25	1277.93
590.44	1343.47
590.64	1255.40
590.83	1267.69
591.02	1243.12
591.22	1265.64
591.41	1290.22
591.60	1302.51
591.80	1341.42
591.99	1273.84
592.18	1302.51
592.38	1265.64
592.57	1269.74
592.76	1288.17
592.96	1251.31
593.15	1316.84
593.34	1316.84
593.54	1314.80
593.73	1275.88
593.92	1286.12
594.12	1337.32
594.31	1322.99
594.50	1290.22
594.70	1243.12
594.89	1279.98
595.08	1282.03
595.28	1275.88
595.47	1304.56
595.66	1298.41
595.86	1253.36
596.05	1265.64
596.24	1329.13
596.43	1232.88
596.63	1292.27
596.82	1302.51
597.01	1222.64
597.21	1304.56
597.40	1253.36
597.59	1257.45
597.79	1286.12
597.98	1298.41
598.17	1261.55
598.36	1271.79
598.56	1251.31
598.75	1187.82
598.94	1255.40
599.14	1284.08
599.33	1236.97
599.52	1314.80
599.71	1200.11
599.91	1361.90
600.10	1284.08
600.29	1290.22
600.48	1341.42
600.68	1310.70
600.87	1277.93
601.06	1288.17
601.26	1286.12
601.45	1275.88
601.64	1292.27
601.83	1277.93
602.03	1241.07
602.22	1275.88
602.41	1228.78
602.60	1228.78
602.80	1277.93
602.99	1314.80
603.18	1380.33
603.37	1286.12
603.57	1310.70
603.76	1228.78
603.95	1331.18
604.14	1316.84
604.34	1304.56
604.53	1269.74
604.72	1243.12
604.91	1314.80
605.10	1277.93
605.30	1261.55
605.49	1288.17
605.68	1310.70
605.87	1304.56
606.07	1361.90
606.26	1322.99
606.45	1339.37
606.64	1284.08
606.84	1271.79
607.03	1206.25
607.22	1284.08
607.41	1290.22
607.60	1339.37
607.80	1286.12
607.99	1290.22
608.18	1308.65
608.37	1329.13
608.56	1318.89
608.76	1370.09
608.95	1279.98
609.14	1314.80
609.33	1314.80
609.52	1312.75
609.72	1253.36
609.91	1269.74
610.10	1359.85
610.29	1275.88
610.48	1279.98
610.68	1310.70
610.87	1327.08
611.06	1288.17
611.25	1310.70
611.44	1273.84
611.63	1224.69
611.83	1239.02
612.02	1220.59
612.21	1304.56
612.40	1284.08
612.59	1251.31
612.79	1273.84
612.98	1241.07
613.17	1314.80
613.36	1331.18
613.55	1269.74
613.74	1312.75
613.93	1343.47
614.13	1218.54
614.32	1232.88
614.51	1288.17
614.70	1216.49
614.89	1304.56
615.08	1318.89
615.28	1275.88
615.47	1294.32
615.66	1296.36
615.85	1288.17
616.04	1296.36
616.23	1351.66
616.42	1243.12
616.62	1345.52
616.81	1282.03
617.00	1310.70
617.19	1339.37
617.38	1335.28
617.57	1355.76
617.76	1308.65
617.95	1232.88
618.15	1243.12
618.34	1267.69
618.53	1253.36
618.72	1306.60
618.91	1251.31
619.10	1329.13
619.29	1275.88
619.48	1263.60
619.68	1304.56
619.87	1218.54
620.06	1282.03
620.25	1267.69
620.44	1284.08
620.63	1306.60
620.82	1259.50
621.01	1253.36
621.20	1271.79
621.39	1304.56
621.59	1218.54
621.78	1325.04
621.97	1292.27
622.16	1325.04
622.35	1304.56
622.54	1241.07
622.73	1212.40
622.92	1333.23
623.11	1357.80
623.30	1296.36
623.49	1368.04
623.68	1296.36
623.88	1304.56
624.07	1312.75
624.26	1226.73
624.45	1206.25
624.64	1312.75
624.83	1257.45
625.02	1298.41
625.21	1320.94
625.40	1269.74
625.59	1265.64
625.78	1306.60
625.97	1337.32
626.16	1316.84
626.35	1275.88
626.54	1282.03
626.74	1335.28
626.93	1232.88
627.12	1296.36
627.31	1335.28
627.50	1292.27
627.69	1275.88
627.88	1255.40
628.07	1267.69
628.26	1306.60
628.45	1249.26
628.64	1230.83
628.83	1263.60
629.02	1255.40
629.21	1255.40
629.40	1288.17
629.59	1298.41
629.78	1310.70
629.97	1327.08
630.16	1357.80
630.35	1310.70
630.54	1284.08
630.73	1230.83
630.92	1361.90
631.11	1259.50
631.30	1296.36
631.49	1308.65
631.68	1286.12
631.87	1396.71
632.06	1462.25
632.25	1433.58
632.44	1386.47
632.63	1419.24
632.82	1388.52
633.01	1437.67
633.20	1452.01
633.39	1384.43
633.58	1515.50
633.77	1378.28
633.96	1509.35
634.15	1581.03
634.34	1873.89
634.53	2172.89
634.72	1734.63
634.91	1417.19
635.10	1636.33
635.29	2039.78
635.48	2330.59
635.67	2412.51
635.86	2107.36
636.05	1902.56
636.24	1730.53
636.43	1556.46
636.62	1542.12
636.81	1445.87
637.00	1458.15
637.19	1409.00
637.38	1353.71
637.57	1314.80
637.76	1282.03
637.95	1320.94
638.14	1275.88
638.33	1282.03
638.52	1341.42
638.71	1312.75
638.89	1331.18
639.08	1349.61
639.27	1298.41
639.46	1253.36
639.65	1265.64
639.84	1353.71
640.03	1302.51
640.22	1308.65
640.41	1322.99
640.60	1282.03
640.79	1337.32
640.98	1288.17
641.17	1261.55
641.36	1277.93
641.55	1327.08
641.74	1318.89
641.92	1294.32
642.11	1286.12
642.30	1304.56
642.49	1298.41
642.68	1304.56
642.87	1255.40
643.06	1290.22
643.25	1298.41
643.44	1372.14
643.63	1220.59
643.82	1273.84
644.00	1298.41
644.19	1273.84
644.38	1232.88
644.57	1234.93
644.76	1275.88
644.95	1259.50
645.14	1300.46
645.33	1314.80
645.52	1267.69
645.71	1261.55
645.89	1249.26
646.08	1275.88
646.27	1263.60
646.46	1214.45
646.65	1282.03
646.84	1314.80
647.03	1310.70
647.22	1304.56
647.40	1304.56
647.59	1261.55
647.78	1302.51
647.97	1249.26
648.16	1308.65
648.35	1296.36
648.54	1269.74
648.73	1239.02
648.91	1325.04
649.10	1347.56
649.29	1322.99
649.48	1300.46
649.67	1226.73
649.86	1216.49
650.05	1259.50
650.23	1239.02
650.42	1267.69
650.61	1335.28
650.80	1277.93
650.99	1304.56
651.18	1279.98
651.36	1245.16
651.55	1212.40
651.74	1241.07
651.93	1306.60
652.12	1249.26
652.31	1300.46
652.49	1312.75
652.68	1300.46
652.87	1200.11
653.06	1306.60
653.25	1265.64
653.44	1277.93
653.62	1292.27
653.81	1230.83
654.00	1290.22
654.19	1329.13
654.38	1212.40
654.56	1249.26
654.75	1290.22
654.94	1271.79
655.13	1267.69
655.32	1212.40
655.51	1241.07
655.69	1236.97
655.88	1241.07
656.07	1189.87
656.26	1261.55
656.45	1265.64
656.63	1228.78
656.82	1253.36
657.01	1310.70
657.20	1267.69
657.38	1282.03
657.57	1290.22
657.76	1251.31
657.95	1220.59
658.14	1241.07
658.32	1286.12
658.51	1273.84
658.70	1239.02
658.89	1261.55
659.08	1296.36
659.26	1331.18
659.45	1212.40
659.64	1314.80
659.83	1382.38
660.01	1255.40
660.20	1239.02
660.39	1308.65
660.58	1359.85
660.76	1251.31
660.95	1255.40
661.14	1224.69
661.33	1322.99
661.51	1298.41
661.70	1193.97
661.89	1247.21
662.08	1337.32
662.26	1306.60
662.45	1273.84
662.64	1175.53
662.83	1239.02
663.01	1271.79
663.20	1241.07
663.39	1239.02
663.58	1282.03
663.76	1273.84
663.95	1236.97
664.14	1265.64
664.32	1292.27
664.51	1241.07
664.70	1261.55
664.89	1290.22
665.07	1234.93
665.26	1265.64
665.45	1259.50
665.64	1292.27
665.82	1304.56
666.01	1271.79
666.20	1230.83
666.38	1273.84
666.57	1277.93
666.76	1282.03
666.95	1294.32
667.13	1275.88
667.32	1322.99
667.51	1302.51
667.69	1277.93
667.88	1269.74
668.07	1273.84
668.25	1247.21
668.44	1316.84
668.63	1290.22
668.81	1302.51
669.00	1277.93
669.19	1206.25
669.38	1271.79
669.56	1255.40
669.75	1204.21
669.94	1286.12
670.12	1216.49
670.31	1347.56
670.50	1273.84
670.68	1300.46
670.87	1232.88
671.06	1265.64
671.24	1216.49
671.43	1236.97
671.62	1265.64
671.80	1257.45
671.99	1363.95
672.18	1255.40
672.36	1294.32
672.55	1224.69
672.74	1290.22
672.92	1286.12
673.11	1275.88
673.29	1298.41
673.48	1322.99
673.67	1304.56
673.85	1277.93
674.04	1275.88
674.23	1257.45
674.41	1243.12
674.60	1306.60
674.79	1286.12
674.97	1212.40
675.16	1224.69
675.34	1208.30
675.53	1294.32
675.72	1296.36
675.90	1296.36
676.09	1306.60
676.28	1261.55
676.46	1239.02
676.65	1257.45
676.83	1329.13
677.02	1230.83
677.21	1341.42
677.39	1245.16
677.58	1218.54
677.77	1277.93
677.95	1204.21
678.14	1196.01
678.32	1257.45
678.51	1290.22
678.70	1263.60
678.88	1302.51
679.07	1284.08
679.25	1290.22
679.44	1273.84
679.63	1241.07
679.81	1359.85
680.00	1228.78
680.18	1335.28
680.37	1269.74
680.55	1245.16
680.74	1271.79
680.93	1304.56
681.11	1284.08
681.30	1282.03
681.48	1277.93
681.67	1331.18
681.85	1249.26
682.04	1251.31
682.23	1234.93
682.41	1273.84
682.60	1298.41
682.78	1290.22
682.97	1300.46
683.15	1163.25
683.34	1286.12
683.53	1316.84
683.71	1200.11
683.90	1363.95
684.08	1259.50
684.27	1245.16
684.45	1308.65
684.64	1228.78
684.82	1296.36
685.01	1269.74
685.19	1290.22
685.38	1230.83
685.57	1236.97
685.75	1351.66
685.94	1286.12
686.12	1239.02
686.31	1294.32
686.49	1345.52
686.68	1273.84
686.86	1200.11
687.05	1224.69
687.23	1200.11
687.42	1277.93
687.60	1230.83
687.79	1271.79
687.97	1210.35
688.16	1243.12
688.34	1220.59
688.53	1265.64
688.71	1310.70
688.90	1261.55
689.08	1267.69
689.27	1265.64
689.45	1308.65
689.64	1271.79
689.82	1265.64
690.01	1263.60
690.19	1241.07
690.38	1241.07
690.56	1286.12
690.75	1308.65
690.93	1247.21
691.12	1234.93
691.30	1316.84
691.49	1263.60
691.67	1314.80
691.86	1337.32
692.04	1265.64
692.23	1206.25
692.41	1306.60
692.60	1333.23
692.78	1318.89
692.97	1255.40
693.15	1253.36
693.34	1222.64
693.52	1284.08
693.71	1204.21
693.89	1257.45
694.08	1263.60
694.26	1286.12
694.44	1241.07
694.63	1271.79
694.81	1298.41
695.00	1216.49
695.18	1306.60
695.37	1241.07
695.55	1251.31
695.74	1224.69
695.92	1216.49
696.10	1236.97
696.29	1331.18
696.47	1318.89
696.66	1183.73
696.84	1329.13
697.03	1290.22
697.21	1275.88
697.40	1302.51
697.58	1208.30
697.76	1288.17
697.95	1306.60
698.13	1198.06
698.32	1236.97
698.50	1226.73
698.68	1300.46
698.87	1249.26
699.05	1251.31
699.24	1282.03
699.42	1304.56
699.61	1314.80
699.79	1210.35
699.97	1241.07
700.16	1245.16
700.34	1273.84
700.53	1284.08
700.71	1292.27
700.89	1282.03
701.08	1286.12
701.26	1298.41
701.45	1267.69
701.63	1282.03
701.81	1308.65
702.00	1241.07
702.18	1257.45
702.37	1241.07
702.55	1208.30
702.73	1269.74
702.92	1304.56
703.10	1208.30
703.28	1304.56
703.47	1282.03
703.65	1279.98
703.84	1335.28
704.02	1296.36
704.20	1234.93
704.39	1247.21
704.57	1327.08
704.75	1269.74
704.94	1253.36
705.12	1232.88
705.30	1257.45
705.49	1249.26
705.67	1251.31
705.86	1222.64
706.04	1343.47
706.22	1322.99
706.41	1226.73
706.59	1329.13
706.77	1239.02
706.96	1251.31
707.14	1271.79
707.32	1247.21
707.51	1331.18
707.69	1292.27
707.87	1374.19
708.06	1275.88
708.24	1245.16
708.42	1335.28
708.61	1286.12
708.79	1265.64
708.97	1288.17
709.16	1294.32
709.34	1189.87
709.52	1239.02
709.71	1294.32
709.89	1331.18
710.07	1259.50
710.26	1310.70
710.44	1306.60
710.62	1310.70
710.80	1224.69
710.99	1224.69
711.17	1359.85
711.35	1265.64
711.54	1273.84
711.72	1253.36
711.90	1265.64
712.09	1286.12
712.27	1253.36
712.45	1325.04
712.63	1208.30
712.82	1226.73
713.00	1255.40
713.18	1226.73
713.37	1292.27
713.55	1253.36
713.73	1292.27
713.91	1214.45
714.10	1320.94
714.28	1257.45
714.46	1187.82
714.65	1249.26
714.83	1263.60
715.01	1232.88
715.19	1320.94
715.38	1261.55
715.56	1224.69
715.74	1261.55
715.92	1255.40
716.11	1257.45
716.29	1249.26
716.47	1271.79
716.65	1331.18
716.84	1204.21
717.02	1241.07
717.20	1265.64
717.38	1304.56
717.57	1353.71
717.75	1216.49
717.93	1300.46
718.11	1306.60
718.30	1206.25
718.48	1273.84
718.66	1312.75
718.84	1329.13
719.03	1196.01
719.21	1306.60
719.39	1245.16
719.57	1247.21
719.75	1265.64
719.94	1361.90
720.12	1304.56
720.30	1245.16
720.48	1271.79
720.67	1290.22
720.85	1314.80
721.03	1183.73
721.21	1273.84
721.39	1361.90
721.58	1261.55
721.76	1279.98
721.94	1257.45
722.12	1312.75
722.30	1349.61
722.49	1277.93
722.67	1255.40
722.85	1230.83
723.03	1208.30
723.21	1234.93
723.40	1226.73
723.58	1228.78
723.76	1245.16
723.94	1294.32
724.12	1269.74
724.30	1259.50
724.49	1236.97
724.67	1320.94
724.85	1267.69
725.03	1302.51
725.21	1239.02
725.40	1277.93
725.58	1290.22
725.76	1241.07
725.94	1243.12
726.12	1294.32
726.30	1271.79
726.49	1206.25
726.67	1331.18
726.85	1257.45
727.03	1288.17
727.21	1267.69
727.39	1304.56
727.57	1304.56
727.76	1339.37
727.94	1304.56
728.12	1298.41
728.30	1286.12
728.48	1265.64
728.66	1243.12
728.84	1218.54
729.03	1273.84
729.21	1243.12
729.39	1308.65
729.57	1339.37
729.75	1282.03
729.93	1302.51
730.11	1357.80
730.30	1339.37
730.48	1296.36
730.66	1214.45
730.84	1267.69
731.02	1239.02
731.20	1322.99
731.38	1214.45
731.56	1271.79
731.74	1294.32
731.93	1228.78
732.11	1269.74
732.29	1339.37
732.47	1273.84
732.65	1308.65
732.83	1257.45
733.01	1230.83
733.19	1185.77
733.37	1273.84
733.56	1267.69
733.74	1263.60
733.92	1292.27
734.10	1337.32
734.28	1236.97
734.46	1232.88
734.64	1241.07
734.82	1314.80
735.00	1294.32
735.18	1284.08
735.36	1314.80
735.54	1185.77
735.73	1296.36
735.91	1241.07
736.09	1302.51
736.27	1204.21
736.45	1161.20
736.63	1269.74
736.81	1288.17
736.99	1269.74
737.17	1241.07
737.35	1224.69
737.53	1327.08
737.71	1206.25
737.89	1216.49
738.07	1279.98
738.25	1232.88
738.43	1347.56
738.61	1243.12
738.80	1302.51
738.98	1253.36
739.16	1288.17
739.34	1257.45
739.52	1345.52
739.70	1236.97
739.88	1302.51
740.06	1243.12
740.24	1259.50
740.42	1296.36
740.60	1288.17
740.78	1288.17
740.96	1306.60
741.14	1331.18
741.32	1220.59
741.50	1261.55
741.68	1290.22
741.86	1208.30
742.04	1329.13
742.22	1265.64
742.40	1228.78
742.58	1224.69
742.76	1290.22
742.94	1208.30
743.12	1269.74
743.30	1239.02
743.48	1222.64
743.66	1284.08
743.84	1284.08
744.02	1218.54
744.20	1298.41
744.38	1253.36
744.56	1327.08
744.74	1339.37
744.92	1241.07
745.10	1325.04
745.28	1263.60
745.46	1257.45
745.64	1216.49
745.82	1322.99
746.00	1296.36
746.18	1251.31
746.36	1304.56
746.54	1286.12
746.72	1253.36
746.90	1241.07
747.08	1296.36
747.26	1241.07
747.44	1259.50
747.62	1224.69
747.80	1253.36
747.98	1185.77
748.15	1245.16
748.33	1269.74
748.51	1267.69
748.69	1241.07
748.87	1273.84
749.05	1220.59
749.23	1275.88
749.41	1335.28
749.59	1257.45
749.77	1234.93
749.95	1275.88
750.13	1290.22
750.31	1314.80
750.49	1257.45
750.67	1284.08
750.85	1279.98
751.03	1200.11
751.20	1257.45
751.38	1312.75
751.56	1282.03
751.74	1310.70
751.92	1273.84
752.10	1251.31
752.28	1304.56
752.46	1243.12
752.64	1300.46
752.82	1286.12
753.00	1269.74
753.18	1271.79
753.35	1234.93
753.53	1271.79
753.71	1204.21
753.89	1267.69
754.07	1335.28
754.25	1331.18
754.43	1290.22
754.61	1282.03
754.79	1249.26
754.97	1255.40
755.14	1249.26
755.32	1249.26
755.50	1275.88
755.68	1271.79
755.86	1261.55
756.04	1284.08
756.22	1335.28
756.40	1290.22
756.57	1277.93
756.75	1263.60
756.93	1282.03
757.11	1239.02
757.29	1261.55
757.47	1220.59
757.65	1269.74
757.82	1204.21
758.00	1257.45
758.18	1243.12
758.36	1206.25
758.54	1239.02
758.72	1255.40
758.90	1308.65
759.07	1245.16
759.25	1300.46
759.43	1294.32
759.61	1253.36
759.79	1298.41
759.97	1329.13
760.15	1228.78
760.32	1308.65
760.50	1308.65
760.68	1226.73
760.86	1249.26
761.04	1259.50
761.22	1257.45
761.39	1232.88
761.57	1245.16
761.75	1282.03
761.93	1343.47
762.11	1255.40
762.28	1279.98
762.46	1269.74
762.64	1275.88
762.82	1226.73
763.00	1257.45
763.18	1314.80
763.35	1239.02
763.53	1290.22
763.71	1310.70
763.89	1247.21
764.07	1345.52
764.24	1181.68
764.42	1245.16
764.60	1253.36
764.78	1263.60
764.96	1290.22
765.13	1218.54
765.31	1318.89
765.49	1314.80
765.67	1298.41
765.84	1265.64
766.02	1310.70
766.20	1263.60
766.38	1304.56
766.56	1318.89
766.73	1198.06
766.91	1288.17
767.09	1273.84
767.27	1269.74
767.44	1331.18
767.62	1286.12
767.80	1228.78
767.98	1163.25
768.15	1257.45
768.33	1257.45
768.51	1286.12
768.69	1226.73
768.87	1269.74
769.04	1222.64
769.22	1327.08
769.40	1257.45
769.58	1292.27
769.75	1288.17
769.93	1273.84
770.11	1302.51
770.28	1282.03
770.46	1318.89
770.64	1239.02
770.82	1245.16
770.99	1222.64
771.17	1331.18
771.35	1290.22
771.53	1222.64
771.70	1212.40
771.88	1245.16
772.06	1255.40
772.23	1226.73
772.41	1284.08
772.59	1265.64
772.77	1228.78
772.94	1275.88
773.12	1312.75
773.30	1255.40
773.47	1241.07
773.65	1267.69
773.83	1279.98
774.01	1230.83
774.18	1300.46
774.36	1253.36
774.54	1259.50
774.71	1318.89
774.89	1271.79
775.07	1239.02
775.24	1359.85
775.42	1273.84
775.60	1292.27
775.78	1298.41
775.95	1253.36
776.13	1224.69
776.31	1153.01
776.48	1257.45
776.66	1226.73
776.84	1279.98
777.01	1284.08
777.19	1234.93
777.37	1269.74
777.54	1304.56
777.72	1232.88
777.90	1327.08
778.07	1257.45
778.25	1312.75
778.43	1296.36
778.60	1230.83
778.78	1331.18
778.96	1347.56
779.13	1202.16
779.31	1294.32
779.49	1298.41
779.66	1251.31
779.84	1263.60
780.01	1271.79
780.19	1228.78
780.37	1247.21
780.54	1251.31
780.72	1239.02
780.90	1241.07
781.07	1273.84
781.25	1251.31
781.43	1322.99
781.60	1273.84
781.78	1269.74
781.95	1232.88
782.13	1189.87
782.31	1267.69
782.48	1290.22
782.66	1288.17
782.83	1318.89
783.01	1292.27
783.19	1312.75
783.36	1234.93
783.54	1247.21
783.72	1300.46
783.89	1236.97
784.07	1222.64
784.24	1228.78
784.42	1271.79
784.60	1259.50
784.77	1230.83
784.95	1181.68
785.12	1253.36
785.30	1265.64
785.47	1208.30
785.65	1282.03
785.83	1325.04
786.00	1224.69
786.18	1282.03
786.35	1302.51
786.53	1253.36
786.71	1228.78
786.88	1243.12
787.06	1259.50
787.23	1271.79
787.41	1314.80
787.58	1257.45
787.76	1243.12
787.94	1245.16
788.11	1171.44
788.29	1253.36
788.46	1196.01
788.64	1322.99
788.81	1163.25
788.99	1347.56
789.16	1253.36
789.34	1370.09
789.52	1251.31
789.69	1292.27
789.87	1249.26
790.04	1304.56
790.22	1290.22
790.39	1320.94
790.57	1322.99
790.74	1198.06
790.92	1255.40
791.09	1298.41
791.27	1286.12
791.44	1292.27
791.62	1312.75
791.79	1271.79
791.97	1257.45
792.15	1329.13
792.32	1329.13
792.50	1228.78
792.67	1282.03
792.85	1236.97
793.02	1173.49
793.20	1296.36
793.37	1226.73
793.55	1261.55
793.72	1261.55
793.90	1247.21
794.07	1288.17
794.25	1353.71
794.42	1265.64
794.60	1255.40
794.77	1279.98
794.95	1208.30
795.12	1193.97
795.30	1312.75
795.47	1161.20
795.65	1204.21
795.82	1200.11
796.00	1265.64
796.17	1294.32
796.34	1345.52
796.52	1239.02
796.69	1306.60
796.87	1224.69
797.04	1292.27
797.22	1214.45
797.39	1308.65
797.57	1339.37
797.74	1320.94
797.92	1306.60
798.09	1222.64
798.27	1243.12
798.44	1325.04
798.62	1316.84
798.79	1322.99
798.96	1255.40
799.14	1243.12
799.31	1255.40
799.49	1259.50
799.66	1288.17
799.84	1249.26
800.01	1228.78
800.19	1234.93
800.36	1249.26
800.53	1236.97
800.71	1273.84
800.88	1239.02
801.06	1239.02
801.23	1288.17
801.41	1218.54
801.58	1282.03
801.75	1253.36
801.93	1191.92
802.10	1368.04
802.28	1212.40
802.45	1236.97
802.63	1284.08
802.80	1261.55
802.97	1267.69
803.15	1273.84
803.32	1298.41
803.50	1253.36
803.67	1378.28
803.84	1300.46
804.02	1247.21
804.19	1234.93
804.37	1261.55
804.54	1253.36
804.71	1228.78
804.89	1204.21
805.06	1255.40
805.24	1253.36
805.41	1226.73
805.58	1247.21
805.76	1257.45
805.93	1255.40
806.10	1208.30
806.28	1320.94
806.45	1288.17
806.63	1185.77
806.80	1306.60
806.97	1257.45
807.15	1210.35
807.32	1279.98
807.49	1263.60
807.67	1279.98
807.84	1230.83
808.01	1232.88
808.19	1222.64
808.36	1245.16
808.54	1273.84
808.71	1218.54
808.88	1239.02
809.06	1257.45
809.23	1327.08
809.40	1302.51
809.58	1290.22
809.75	1298.41
809.92	1257.45
810.10	1261.55
810.27	1304.56
810.44	1282.03
810.62	1300.46
810.79	1224.69
810.96	1290.22
811.14	1279.98
811.31	1247.21
811.48	1208.30
811.66	1261.55
811.83	1282.03
812.00	1249.26
812.18	1255.40
812.35	1298.41
812.52	1226.73
812.69	1228.78
812.87	1329.13
813.04	1249.26
813.21	1325.04
813.39	1245.16
813.56	1359.85
813.73	1312.75
813.91	1273.84
814.08	1226.73
814.25	1210.35
814.42	1271.79
814.60	1310.70
814.77	1222.64
814.94	1216.49
815.12	1290.22
815.29	1226.73
815.46	1320.94
815.63	1282.03
815.81	1212.40
815.98	1294.32
816.15	1214.45
816.33	1275.88
816.50	1200.11
816.67	1236.97
816.84	1220.59
817.02	1310.70
817.19	1327.08
817.36	1236.97
817.53	1296.36
817.71	1259.50
817.88	1253.36
818.05	1220.59
818.22	1257.45
818.40	1255.40
818.57	1273.84
818.74	1275.88
818.91	1243.12
819.09	1279.98
819.26	1279.98
819.43	1269.74
819.60	1241.07
819.78	1232.88
819.95	1265.64
820.12	1286.12
820.29	1236.97
820.47	1239.02
820.64	1302.51
820.81	1261.55
820.98	1257.45
821.15	1187.82
821.33	1282.03
821.50	1230.83
821.67	1308.65
821.84	1216.49
822.02	1345.52
822.19	1239.02
822.36	1247.21
822.53	1245.16
822.70	1304.56
822.88	1259.50
823.05	1249.26
823.22	1269.74
823.39	1222.64
823.56	1257.45
823.74	1228.78
823.91	1234.93
824.08	1271.79
824.25	1261.55
824.42	1333.23
824.60	1279.98
824.77	1329.13
824.94	1312.75
825.11	1294.32
825.28	1249.26
825.45	1322.99
825.63	1269.74
825.80	1273.84
825.97	1187.82
826.14	1296.36
826.31	1363.95
826.48	1236.97
826.66	1187.82
826.83	1249.26
827.00	1368.04
827.17	1216.49
827.34	1304.56
827.51	1247.21
827.69	1222.64
827.86	1218.54
828.03	1239.02
828.20	1263.60
828.37	1288.17
828.54	1236.97
828.71	1320.94
828.89	1243.12
829.06	1230.83
829.23	1259.50
829.40	1269.74
829.57	1314.80
829.74	1265.64
829.91	1253.36
830.09	1292.27
830.26	1245.16
830.43	1249.26
830.60	1245.16
830.77	1255.40
830.94	1228.78
831.11	1269.74
831.28	1368.04
831.46	1267.69
831.63	1290.22
831.80	1271.79
831.97	1286.12
832.14	1241.07
832.31	1249.26
832.48	1296.36
832.65	1243.12
832.82	1282.03
832.99	1343.47
833.17	1224.69
833.34	1228.78
833.51	1245.16
833.68	1236.97
833.85	1173.49
834.02	1236.97
834.19	1251.31
834.36	1255.40
834.53	1218.54
834.70	1312.75
834.87	1271.79
835.04	1271.79
835.22	1212.40
835.39	1366.00
835.56	1300.46
835.73	1216.49
835.90	1337.32
836.07	1322.99
836.24	1245.16
836.41	1249.26
836.58	1308.65
836.75	1259.50
836.92	1273.84
837.09	1245.16
837.26	1208.30
837.43	1263.60
837.60	1273.84
837.77	1228.78
837.94	1216.49
838.12	1310.70
838.29	1288.17
838.46	1320.94
838.63	1269.74
838.80	1275.88
838.97	1300.46
839.14	1284.08
839.31	1165.29
839.48	1255.40
839.65	1198.06
839.82	1279.98
839.99	1279.98
840.16	1218.54
840.33	1251.31
840.50	1265.64
840.67	1261.55
840.84	1226.73
841.01	1273.84
841.18	1327.08
841.35	1310.70
841.52	1249.26
841.69	1300.46
841.86	1253.36
842.03	1226.73
842.20	1257.45
842.37	1282.03
842.54	1331.18
842.71	1236.97
842.88	1271.79
843.05	1247.21
843.22	1187.82
843.39	1251.31
843.56	1263.60
843.73	1277.93
843.90	1245.16
844.07	1263.60
844.24	1239.02
844.41	1257.45
844.58	1312.75
844.75	1282.03
844.92	1269.74
845.09	1261.55
845.26	1384.43
845.43	1234.93
845.60	1286.12
845.77	1259.50
845.94	1265.64
846.10	1261.55
846.27	1226.73
846.44	1279.98
846.61	1271.79
846.78	1308.65
846.95	1222.64
847.12	1241.07
847.29	1265.64
847.46	1124.33
847.63	1267.69
847.80	1249.26
847.97	1257.45
848.14	1236.97
848.31	1245.16
848.48	1279.98
848.65	1263.60
848.82	1345.52
848.98	1298.41
849.15	1282.03
849.32	1333.23
849.49	1294.32
849.66	1234.93
849.83	1265.64
850.00	1331.18
850.17	1318.89
850.34	1271.79
850.51	1245.16
850.68	1230.83
850.85	1279.98
851.01	1275.88
851.18	1316.84
851.35	1206.25
851.52	1310.70
851.69	1329.13
851.86	1208.30
852.03	1298.41
852.20	1277.93
852.37	1273.84
852.53	1290.22
852.70	1232.88
852.87	1265.64
853.04	1271.79
853.21	1302.51
853.38	1308.65
853.55	1290.22
853.72	1279.98
853.89	1316.84
854.05	1245.16
854.22	1212.40
854.39	1322.99
854.56	1341.42
854.73	1314.80
854.90	1279.98
855.07	1212.40
855.23	1282.03
855.40	1331.18
855.57	1249.26
855.74	1279.98
855.91	1282.03
856.08	1269.74
856.25	1273.84
856.41	1181.68
856.58	1228.78
856.75	1222.64
856.92	1273.84
857.09	1265.64
857.26	1249.26
857.42	1230.83
857.59	1224.69
857.76	1220.59
857.93	1210.35
858.10	1169.39
858.27	1294.32
858.43	1306.60
858.60	1255.40
858.77	1277.93
858.94	1161.20
859.11	1306.60
859.27	1185.77
859.44	1251.31
859.61	1302.51
859.78	1214.45
859.95	1251.31
860.12	1263.60
860.28	1202.16
860.45	1298.41
860.62	1187.82
860.79	1269.74
860.95	1259.50
861.12	1261.55
861.29	1245.16
861.46	1357.80
861.63	1318.89
861.79	1261.55
861.96	1214.45
862.13	1288.17
862.30	1228.78
862.47	1290.22
862.63	1267.69
862.80	1286.12
862.97	1320.94
863.14	1251.31
863.30	1275.88
863.47	1294.32
863.64	1290.22
863.81	1269.74
863.97	1249.26
864.14	1339.37
864.31	1308.65
864.48	1255.40
864.65	1239.02
864.81	1257.45
864.98	1202.16
865.15	1263.60
865.32	1310.70
865.48	1265.64
865.65	1304.56
865.82	1290.22
865.98	1206.25
866.15	1259.50
866.32	1302.51
866.49	1257.45
866.65	1288.17
866.82	1294.32
866.99	1318.89
867.16	1243.12
867.32	1257.45
867.49	1316.84
867.66	1230.83
867.83	1288.17
867.99	1265.64
868.16	1335.28
868.33	1271.79
868.49	1253.36
868.66	1249.26
868.83	1249.26
868.99	1292.27
869.16	1243.12
869.33	1261.55
869.50	1263.60
869.66	1247.21
869.83	1259.50
870.00	1167.34
870.16	1329.13
870.33	1249.26
870.50	1275.88
870.66	1247.21
870.83	1230.83
871.00	1259.50
871.17	1259.50
871.33	1271.79
871.50	1236.97
871.67	1193.97
871.83	1284.08
872.00	1329.13
872.17	1282.03
872.33	1298.41
872.50	1245.16
872.67	1206.25
872.83	1247.21
873.00	1308.65
873.17	1316.84
873.33	1222.64
873.50	1239.02
873.67	1312.75
873.83	1216.49
874.00	1308.65
874.16	1325.04
874.33	1216.49
874.50	1292.27
874.66	1273.84
874.83	1263.60
875.00	1255.40
875.16	1255.40
875.33	1230.83
875.50	1304.56
875.66	1255.40
875.83	1284.08
875.99	1208.30
876.16	1249.26
876.33	1218.54
876.49	1187.82
876.66	1337.32
876.83	1337.32
876.99	1226.73
877.16	1290.22
877.32	1275.88
877.49	1273.84
877.66	1220.59
877.82	1257.45
877.99	1284.08
878.15	1241.07
878.32	1322.99
878.49	1247.21
878.65	1247.21
878.82	1259.50
878.98	1247.21
879.15	1331.18
879.32	1298.41
879.48	1212.40
879.65	1279.98
879.81	1265.64
879.98	1239.02
880.15	1224.69
880.31	1304.56
880.48	1331.18
880.64	1318.89
880.81	1320.94
880.97	1296.36
881.14	1259.50
881.31	1269.74
881.47	1273.84
881.64	1206.25
881.80	1247.21
881.97	1224.69
882.13	1263.60
882.30	1279.98
882.47	1271.79
882.63	1300.46
882.80	1292.27
882.96	1230.83
883.13	1189.87
883.29	1302.51
883.46	1257.45
883.62	1241.07
883.79	1232.88
883.95	1288.17
884.12	1282.03
884.29	1239.02
884.45	1247.21
884.62	1288.17
884.78	1292.27
884.95	1314.80
885.11	1284.08
885.28	1255.40
885.44	1222.64
885.61	1267.69
885.77	1269.74
885.94	1204.21
886.10	1239.02
886.27	1288.17
886.43	1300.46
886.60	1339.37
886.76	1249.26
886.93	1284.08
887.09	1345.52
887.26	1310.70
887.42	1306.60
887.59	1298.41
887.75	1234.93
887.92	1191.92
888.08	1249.26
888.25	1232.88
888.41	1308.65
888.58	1236.97
888.74	1368.04
888.91	1316.84
>>>>>End Processed Spectral Data<<<<<
