SpectraSuite Data File
++++++++++++++++++++++++++++++++++++
Date: Sun Apr 03 19:55:24 CEST 2016
User: root
Dark Spectrum Present: No
Reference Spectrum Present: No
Number of Sampled Component Spectra: 1
Spectrometers: USB4C02835
Integration Time (usec): 10000 (USB4C02835)
Spectra Averaged: 1 (USB4C02835)
Boxcar Smoothing: 0 (USB4C02835)
Correct for Electrical Dark: No (USB4C02835)
Strobe/Lamp Enabled: No (USB4C02835)
Correct for Detector Non-linearity: No (USB4C02835)
Correct for Stray Light: No (USB4C02835)
Number of Pixels in Processed Spectrum: 3648
>>>>>Begin Processed Spectral Data<<<<<
177.47	1232.88
177.69	1232.88
177.91	1232.88
178.13	1275.88
178.36	1257.45
178.58	1239.02
178.80	1294.32
179.02	1292.27
179.24	1214.45
179.46	1316.84
179.68	1249.26
179.90	1239.02
180.13	1284.08
180.35	1275.88
180.57	1255.40
180.79	1241.07
181.01	1251.31
181.23	1331.18
181.45	1230.83
181.67	1222.64
181.90	1228.78
182.12	1277.93
182.34	1241.07
182.56	1261.55
182.78	1253.36
183.00	1286.12
183.22	1265.64
183.44	1302.51
183.66	1261.55
183.89	1275.88
184.11	1277.93
184.33	1245.16
184.55	1265.64
184.77	1327.08
184.99	1275.88
185.21	1271.79
185.43	1206.25
185.65	1273.84
185.87	1322.99
186.10	1265.64
186.32	1253.36
186.54	1298.41
186.76	1259.50
186.98	1241.07
187.20	1263.60
187.42	1236.97
187.64	1343.47
187.86	1290.22
188.08	1306.60
188.30	1236.97
188.52	1325.04
188.75	1243.12
188.97	1329.13
189.19	1318.89
189.41	1288.17
189.63	1218.54
189.85	1306.60
190.07	1181.68
190.29	1296.36
190.51	1275.88
190.73	1277.93
190.95	1316.84
191.17	1335.28
191.39	1331.18
191.61	1236.97
191.84	1241.07
192.06	1277.93
192.28	1282.03
192.50	1245.16
192.72	1294.32
192.94	1249.26
193.16	1275.88
193.38	1226.73
193.60	1286.12
193.82	1339.37
194.04	1322.99
194.26	1331.18
194.48	1261.55
194.70	1286.12
194.92	1322.99
195.14	1224.69
195.36	1306.60
195.58	1322.99
195.80	1322.99
196.02	1265.64
196.24	1265.64
196.46	1325.04
196.69	1249.26
196.91	1277.93
197.13	1308.65
197.35	1210.35
197.57	1294.32
197.79	1327.08
198.01	1236.97
198.23	1208.30
198.45	1257.45
198.67	1259.50
198.89	1298.41
199.11	1251.31
199.33	1265.64
199.55	1243.12
199.77	1288.17
199.99	1267.69
200.21	1300.46
200.43	1273.84
200.65	1275.88
200.87	1218.54
201.09	1316.84
201.31	1232.88
201.53	1267.69
201.75	1296.36
201.97	1230.83
202.19	1294.32
202.41	1294.32
202.63	1259.50
202.85	1257.45
203.07	1298.41
203.29	1282.03
203.51	1222.64
203.73	1275.88
203.95	1277.93
204.17	1290.22
204.39	1308.65
204.61	1206.25
204.83	1279.98
205.05	1236.97
205.27	1310.70
205.49	1226.73
205.71	1257.45
205.93	1298.41
206.15	1318.89
206.37	1257.45
206.59	1269.74
206.81	1241.07
207.03	1228.78
207.25	1251.31
207.47	1202.16
207.69	1230.83
207.91	1310.70
208.13	1263.60
208.34	1167.34
208.56	1329.13
208.78	1175.53
209.00	1214.45
209.22	1282.03
209.44	1290.22
209.66	1322.99
209.88	1249.26
210.10	1243.12
210.32	1263.60
210.54	1267.69
210.76	1206.25
210.98	1261.55
211.20	1282.03
211.42	1290.22
211.64	1236.97
211.86	1241.07
212.08	1325.04
212.30	1259.50
212.52	1292.27
212.74	1249.26
212.96	1296.36
213.17	1261.55
213.39	1265.64
213.61	1243.12
213.83	1306.60
214.05	1187.82
214.27	1245.16
214.49	1234.93
214.71	1288.17
214.93	1290.22
215.15	1226.73
215.37	1298.41
215.59	1261.55
215.81	1265.64
216.03	1236.97
216.24	1292.27
216.46	1183.73
216.68	1277.93
216.90	1306.60
217.12	1304.56
217.34	1241.07
217.56	1226.73
217.78	1196.01
218.00	1236.97
218.22	1251.31
218.44	1302.51
218.66	1284.08
218.87	1181.68
219.09	1261.55
219.31	1304.56
219.53	1232.88
219.75	1337.32
219.97	1224.69
220.19	1257.45
220.41	1232.88
220.63	1204.21
220.85	1236.97
221.06	1292.27
221.28	1230.83
221.50	1202.16
221.72	1284.08
221.94	1290.22
222.16	1269.74
222.38	1234.93
222.60	1286.12
222.82	1273.84
223.03	1214.45
223.25	1257.45
223.47	1271.79
223.69	1218.54
223.91	1282.03
224.13	1322.99
224.35	1243.12
224.57	1241.07
224.78	1267.69
225.00	1288.17
225.22	1208.30
225.44	1300.46
225.66	1253.36
225.88	1249.26
226.10	1294.32
226.32	1249.26
226.53	1290.22
226.75	1294.32
226.97	1335.28
227.19	1255.40
227.41	1261.55
227.63	1241.07
227.85	1267.69
228.06	1282.03
228.28	1275.88
228.50	1247.21
228.72	1306.60
228.94	1298.41
229.16	1220.59
229.37	1279.98
229.59	1265.64
229.81	1259.50
230.03	1286.12
230.25	1316.84
230.47	1230.83
230.69	1279.98
230.90	1286.12
231.12	1239.02
231.34	1292.27
231.56	1300.46
231.78	1269.74
232.00	1310.70
232.21	1224.69
232.43	1282.03
232.65	1243.12
232.87	1224.69
233.09	1234.93
233.30	1241.07
233.52	1222.64
233.74	1269.74
233.96	1257.45
234.18	1232.88
234.40	1284.08
234.61	1263.60
234.83	1224.69
235.05	1261.55
235.27	1282.03
235.49	1265.64
235.70	1251.31
235.92	1259.50
236.14	1185.77
236.36	1259.50
236.58	1257.45
236.79	1232.88
237.01	1226.73
237.23	1214.45
237.45	1212.40
237.67	1249.26
237.88	1249.26
238.10	1329.13
238.32	1286.12
238.54	1220.59
238.76	1226.73
238.97	1271.79
239.19	1259.50
239.41	1300.46
239.63	1208.30
239.85	1241.07
240.06	1245.16
240.28	1269.74
240.50	1294.32
240.72	1222.64
240.93	1290.22
241.15	1343.47
241.37	1245.16
241.59	1208.30
241.81	1236.97
242.02	1335.28
242.24	1357.80
242.46	1210.35
242.68	1288.17
242.89	1337.32
243.11	1239.02
243.33	1224.69
243.55	1259.50
243.76	1261.55
243.98	1300.46
244.20	1228.78
244.42	1247.21
244.64	1296.36
244.85	1290.22
245.07	1304.56
245.29	1286.12
245.51	1294.32
245.72	1157.10
245.94	1263.60
246.16	1253.36
246.38	1271.79
246.59	1255.40
246.81	1275.88
247.03	1224.69
247.24	1292.27
247.46	1333.23
247.68	1241.07
247.90	1265.64
248.11	1228.78
248.33	1234.93
248.55	1255.40
248.77	1335.28
248.98	1210.35
249.20	1200.11
249.42	1236.97
249.64	1263.60
249.85	1263.60
250.07	1259.50
250.29	1247.21
250.50	1286.12
250.72	1318.89
250.94	1251.31
251.16	1339.37
251.37	1275.88
251.59	1245.16
251.81	1265.64
252.02	1277.93
252.24	1206.25
252.46	1263.60
252.68	1200.11
252.89	1273.84
253.11	1167.34
253.33	1230.83
253.54	1220.59
253.76	1241.07
253.98	1308.65
254.20	1232.88
254.41	1271.79
254.63	1247.21
254.85	1284.08
255.06	1263.60
255.28	1226.73
255.50	1269.74
255.71	1263.60
255.93	1255.40
256.15	1234.93
256.36	1255.40
256.58	1279.98
256.80	1306.60
257.02	1329.13
257.23	1241.07
257.45	1212.40
257.67	1204.21
257.88	1284.08
258.10	1314.80
258.32	1275.88
258.53	1253.36
258.75	1261.55
258.97	1318.89
259.18	1261.55
259.40	1232.88
259.62	1257.45
259.83	1259.50
260.05	1296.36
260.27	1277.93
260.48	1261.55
260.70	1232.88
260.92	1335.28
261.13	1298.41
261.35	1185.77
261.57	1228.78
261.78	1241.07
262.00	1273.84
262.22	1284.08
262.43	1277.93
262.65	1263.60
262.86	1329.13
263.08	1239.02
263.30	1273.84
263.51	1163.25
263.73	1310.70
263.95	1314.80
264.16	1226.73
264.38	1265.64
264.60	1318.89
264.81	1247.21
265.03	1314.80
265.25	1265.64
265.46	1302.51
265.68	1241.07
265.89	1191.92
266.11	1255.40
266.33	1331.18
266.54	1241.07
266.76	1202.16
266.98	1304.56
267.19	1322.99
267.41	1310.70
267.62	1247.21
267.84	1236.97
268.06	1239.02
268.27	1239.02
268.49	1265.64
268.70	1255.40
268.92	1277.93
269.14	1273.84
269.35	1222.64
269.57	1230.83
269.79	1341.42
270.00	1271.79
270.22	1263.60
270.43	1204.21
270.65	1294.32
270.87	1263.60
271.08	1312.75
271.30	1296.36
271.51	1282.03
271.73	1302.51
271.95	1228.78
272.16	1243.12
272.38	1366.00
272.59	1247.21
272.81	1310.70
273.02	1263.60
273.24	1294.32
273.46	1261.55
273.67	1333.23
273.89	1249.26
274.10	1306.60
274.32	1277.93
274.54	1218.54
274.75	1269.74
274.97	1298.41
275.18	1255.40
275.40	1327.08
275.61	1329.13
275.83	1198.06
276.05	1200.11
276.26	1247.21
276.48	1247.21
276.69	1247.21
276.91	1234.93
277.12	1320.94
277.34	1271.79
277.55	1234.93
277.77	1196.01
277.99	1292.27
278.20	1269.74
278.42	1193.97
278.63	1271.79
278.85	1361.90
279.06	1226.73
279.28	1316.84
279.49	1296.36
279.71	1236.97
279.93	1259.50
280.14	1312.75
280.36	1249.26
280.57	1257.45
280.79	1257.45
281.00	1241.07
281.22	1273.84
281.43	1314.80
281.65	1277.93
281.86	1314.80
282.08	1273.84
282.29	1269.74
282.51	1257.45
282.73	1286.12
282.94	1308.65
283.16	1302.51
283.37	1214.45
283.59	1239.02
283.80	1243.12
284.02	1226.73
284.23	1298.41
284.45	1257.45
284.66	1236.97
284.88	1253.36
285.09	1241.07
285.31	1290.22
285.52	1298.41
285.74	1322.99
285.95	1243.12
286.17	1230.83
286.38	1236.97
286.60	1259.50
286.81	1275.88
287.03	1282.03
287.24	1261.55
287.46	1292.27
287.67	1308.65
287.89	1259.50
288.10	1300.46
288.32	1261.55
288.53	1200.11
288.75	1232.88
288.96	1243.12
289.18	1251.31
289.39	1273.84
289.61	1333.23
289.82	1214.45
290.04	1150.96
290.25	1279.98
290.47	1294.32
290.68	1304.56
290.90	1308.65
291.11	1265.64
291.33	1241.07
291.54	1218.54
291.76	1232.88
291.97	1271.79
292.18	1261.55
292.40	1175.53
292.61	1239.02
292.83	1300.46
293.04	1273.84
293.26	1208.30
293.47	1290.22
293.69	1224.69
293.90	1284.08
294.12	1294.32
294.33	1222.64
294.55	1322.99
294.76	1292.27
294.97	1298.41
295.19	1251.31
295.40	1275.88
295.62	1335.28
295.83	1296.36
296.05	1306.60
296.26	1263.60
296.48	1247.21
296.69	1241.07
296.90	1288.17
297.12	1220.59
297.33	1275.88
297.55	1265.64
297.76	1286.12
297.98	1271.79
298.19	1286.12
298.41	1241.07
298.62	1243.12
298.83	1234.93
299.05	1279.98
299.26	1261.55
299.48	1288.17
299.69	1267.69
299.90	1370.09
300.12	1322.99
300.33	1218.54
300.55	1265.64
300.76	1341.42
300.98	1292.27
301.19	1327.08
301.40	1175.53
301.62	1279.98
301.83	1265.64
302.05	1230.83
302.26	1316.84
302.47	1306.60
302.69	1292.27
302.90	1267.69
303.12	1247.21
303.33	1322.99
303.54	1306.60
303.76	1239.02
303.97	1251.31
304.19	1296.36
304.40	1261.55
304.61	1236.97
304.83	1331.18
305.04	1189.87
305.26	1294.32
305.47	1296.36
305.68	1220.59
305.90	1267.69
306.11	1290.22
306.33	1265.64
306.54	1263.60
306.75	1296.36
306.97	1224.69
307.18	1261.55
307.39	1310.70
307.61	1261.55
307.82	1271.79
308.04	1208.30
308.25	1257.45
308.46	1288.17
308.68	1243.12
308.89	1265.64
309.10	1204.21
309.32	1310.70
309.53	1230.83
309.74	1273.84
309.96	1263.60
310.17	1296.36
310.39	1298.41
310.60	1216.49
310.81	1277.93
311.03	1339.37
311.24	1232.88
311.45	1255.40
311.67	1245.16
311.88	1232.88
312.09	1331.18
312.31	1253.36
312.52	1239.02
312.73	1296.36
312.95	1267.69
313.16	1222.64
313.37	1265.64
313.59	1243.12
313.80	1288.17
314.01	1216.49
314.23	1327.08
314.44	1255.40
314.65	1273.84
314.87	1271.79
315.08	1261.55
315.29	1236.97
315.51	1286.12
315.72	1234.93
315.93	1247.21
316.15	1249.26
316.36	1279.98
316.57	1216.49
316.79	1245.16
317.00	1230.83
317.21	1216.49
317.43	1249.26
317.64	1257.45
317.85	1308.65
318.07	1275.88
318.28	1282.03
318.49	1214.45
318.70	1253.36
318.92	1277.93
319.13	1245.16
319.34	1241.07
319.56	1288.17
319.77	1185.77
319.98	1300.46
320.20	1257.45
320.41	1300.46
320.62	1271.79
320.83	1310.70
321.05	1284.08
321.26	1251.31
321.47	1263.60
321.69	1312.75
321.90	1243.12
322.11	1230.83
322.32	1308.65
322.54	1255.40
322.75	1222.64
322.96	1306.60
323.18	1279.98
323.39	1277.93
323.60	1163.25
323.81	1290.22
324.03	1263.60
324.24	1236.97
324.45	1185.77
324.66	1322.99
324.88	1243.12
325.09	1249.26
325.30	1222.64
325.52	1241.07
325.73	1200.11
325.94	1222.64
326.15	1277.93
326.37	1226.73
326.58	1296.36
326.79	1294.32
327.00	1226.73
327.22	1284.08
327.43	1214.45
327.64	1239.02
327.85	1380.33
328.07	1279.98
328.28	1294.32
328.49	1282.03
328.70	1288.17
328.92	1216.49
329.13	1279.98
329.34	1220.59
329.55	1275.88
329.76	1261.55
329.98	1222.64
330.19	1232.88
330.40	1290.22
330.61	1316.84
330.83	1271.79
331.04	1296.36
331.25	1263.60
331.46	1263.60
331.68	1204.21
331.89	1251.31
332.10	1210.35
332.31	1306.60
332.52	1318.89
332.74	1290.22
332.95	1214.45
333.16	1232.88
333.37	1261.55
333.58	1282.03
333.80	1308.65
334.01	1308.65
334.22	1263.60
334.43	1282.03
334.64	1232.88
334.86	1312.75
335.07	1269.74
335.28	1263.60
335.49	1236.97
335.70	1210.35
335.92	1320.94
336.13	1189.87
336.34	1247.21
336.55	1337.32
336.76	1341.42
336.98	1269.74
337.19	1304.56
337.40	1335.28
337.61	1241.07
337.82	1304.56
338.04	1245.16
338.25	1296.36
338.46	1322.99
338.67	1284.08
338.88	1173.49
339.09	1232.88
339.31	1251.31
339.52	1273.84
339.73	1316.84
339.94	1273.84
340.15	1290.22
340.36	1310.70
340.58	1282.03
340.79	1302.51
341.00	1300.46
341.21	1298.41
341.42	1265.64
341.63	1271.79
341.85	1249.26
342.06	1214.45
342.27	1234.93
342.48	1208.30
342.69	1234.93
342.90	1314.80
343.12	1298.41
343.33	1228.78
343.54	1267.69
343.75	1189.87
343.96	1265.64
344.17	1310.70
344.38	1236.97
344.60	1257.45
344.81	1245.16
345.02	1265.64
345.23	1308.65
345.44	1292.27
345.65	1243.12
345.86	1259.50
346.07	1249.26
346.29	1279.98
346.50	1294.32
346.71	1316.84
346.92	1251.31
347.13	1222.64
347.34	1200.11
347.55	1269.74
347.76	1196.01
347.98	1212.40
348.19	1212.40
348.40	1325.04
348.61	1257.45
348.82	1290.22
349.03	1255.40
349.24	1263.60
349.45	1286.12
349.66	1277.93
349.88	1314.80
350.09	1259.50
350.30	1290.22
350.51	1253.36
350.72	1341.42
350.93	1265.64
351.14	1306.60
351.35	1259.50
351.56	1308.65
351.77	1232.88
351.99	1253.36
352.20	1273.84
352.41	1284.08
352.62	1230.83
352.83	1206.25
353.04	1216.49
353.25	1218.54
353.46	1259.50
353.67	1228.78
353.88	1269.74
354.09	1263.60
354.30	1222.64
354.52	1279.98
354.73	1337.32
354.94	1247.21
355.15	1304.56
355.36	1193.97
355.57	1210.35
355.78	1155.05
355.99	1249.26
356.20	1271.79
356.41	1271.79
356.62	1279.98
356.83	1226.73
357.04	1247.21
357.25	1296.36
357.46	1259.50
357.68	1263.60
357.89	1230.83
358.10	1267.69
358.31	1273.84
358.52	1277.93
358.73	1232.88
358.94	1267.69
359.15	1253.36
359.36	1286.12
359.57	1271.79
359.78	1271.79
359.99	1212.40
360.20	1298.41
360.41	1236.97
360.62	1196.01
360.83	1271.79
361.04	1284.08
361.25	1247.21
361.46	1273.84
361.67	1288.17
361.88	1247.21
362.09	1314.80
362.30	1273.84
362.51	1249.26
362.72	1251.31
362.93	1279.98
363.14	1277.93
363.35	1255.40
363.56	1253.36
363.78	1294.32
363.99	1257.45
364.20	1269.74
364.41	1239.02
364.62	1298.41
364.83	1271.79
365.04	1339.37
365.25	1298.41
365.46	1286.12
365.67	1216.49
365.88	1294.32
366.09	1271.79
366.30	1247.21
366.51	1314.80
366.72	1255.40
366.93	1241.07
367.14	1284.08
367.35	1279.98
367.56	1239.02
367.77	1331.18
367.98	1255.40
368.18	1306.60
368.39	1312.75
368.60	1320.94
368.81	1241.07
369.02	1263.60
369.23	1265.64
369.44	1267.69
369.65	1200.11
369.86	1234.93
370.07	1239.02
370.28	1271.79
370.49	1206.25
370.70	1218.54
370.91	1282.03
371.12	1234.93
371.33	1212.40
371.54	1253.36
371.75	1329.13
371.96	1257.45
372.17	1222.64
372.38	1327.08
372.59	1185.77
372.80	1243.12
373.01	1271.79
373.22	1282.03
373.43	1294.32
373.64	1318.89
373.85	1286.12
374.06	1273.84
374.26	1306.60
374.47	1351.66
374.68	1314.80
374.89	1282.03
375.10	1298.41
375.31	1292.27
375.52	1167.34
375.73	1247.21
375.94	1241.07
376.15	1347.56
376.36	1257.45
376.57	1251.31
376.78	1269.74
376.99	1284.08
377.20	1220.59
377.40	1298.41
377.61	1298.41
377.82	1327.08
378.03	1261.55
378.24	1302.51
378.45	1304.56
378.66	1253.36
378.87	1306.60
379.08	1222.64
379.29	1277.93
379.50	1253.36
379.71	1314.80
379.91	1275.88
380.12	1320.94
380.33	1167.34
380.54	1234.93
380.75	1263.60
380.96	1265.64
381.17	1400.81
381.38	1236.97
381.59	1271.79
381.80	1361.90
382.00	1265.64
382.21	1294.32
382.42	1177.58
382.63	1249.26
382.84	1294.32
383.05	1292.27
383.26	1243.12
383.47	1241.07
383.68	1243.12
383.88	1273.84
384.09	1292.27
384.30	1216.49
384.51	1292.27
384.72	1204.21
384.93	1263.60
385.14	1345.52
385.35	1226.73
385.55	1222.64
385.76	1208.30
385.97	1261.55
386.18	1269.74
386.39	1284.08
386.60	1282.03
386.81	1279.98
387.02	1241.07
387.22	1243.12
387.43	1222.64
387.64	1302.51
387.85	1265.64
388.06	1298.41
388.27	1290.22
388.48	1255.40
388.68	1290.22
388.89	1218.54
389.10	1277.93
389.31	1249.26
389.52	1236.97
389.73	1298.41
389.93	1222.64
390.14	1304.56
390.35	1296.36
390.56	1251.31
390.77	1329.13
390.98	1269.74
391.18	1310.70
391.39	1249.26
391.60	1331.18
391.81	1322.99
392.02	1208.30
392.23	1347.56
392.43	1249.26
392.64	1228.78
392.85	1208.30
393.06	1279.98
393.27	1214.45
393.47	1232.88
393.68	1273.84
393.89	1208.30
394.10	1294.32
394.31	1275.88
394.52	1153.01
394.72	1204.21
394.93	1302.51
395.14	1236.97
395.35	1277.93
395.56	1271.79
395.76	1241.07
395.97	1286.12
396.18	1265.64
396.39	1300.46
396.60	1261.55
396.80	1226.73
397.01	1261.55
397.22	1245.16
397.43	1322.99
397.64	1218.54
397.84	1271.79
398.05	1282.03
398.26	1226.73
398.47	1273.84
398.67	1286.12
398.88	1214.45
399.09	1216.49
399.30	1314.80
399.51	1284.08
399.71	1257.45
399.92	1277.93
400.13	1261.55
400.34	1286.12
400.54	1241.07
400.75	1288.17
400.96	1300.46
401.17	1279.98
401.37	1216.49
401.58	1200.11
401.79	1253.36
402.00	1193.97
402.21	1282.03
402.41	1232.88
402.62	1251.31
402.83	1224.69
403.04	1232.88
403.24	1236.97
403.45	1224.69
403.66	1228.78
403.87	1259.50
404.07	1282.03
404.28	1249.26
404.49	1218.54
404.70	1263.60
404.90	1224.69
405.11	1163.25
405.32	1224.69
405.52	1255.40
405.73	1306.60
405.94	1277.93
406.15	1271.79
406.35	1263.60
406.56	1277.93
406.77	1236.97
406.98	1288.17
407.18	1288.17
407.39	1298.41
407.60	1306.60
407.80	1288.17
408.01	1255.40
408.22	1273.84
408.43	1230.83
408.63	1284.08
408.84	1265.64
409.05	1273.84
409.25	1228.78
409.46	1290.22
409.67	1277.93
409.88	1220.59
410.08	1198.06
410.29	1239.02
410.50	1269.74
410.70	1331.18
410.91	1265.64
411.12	1257.45
411.32	1232.88
411.53	1255.40
411.74	1232.88
411.95	1308.65
412.15	1273.84
412.36	1300.46
412.57	1355.76
412.77	1288.17
412.98	1198.06
413.19	1234.93
413.39	1216.49
413.60	1181.68
413.81	1284.08
414.01	1279.98
414.22	1265.64
414.43	1271.79
414.63	1292.27
414.84	1347.56
415.05	1239.02
415.25	1226.73
415.46	1273.84
415.67	1222.64
415.87	1302.51
416.08	1218.54
416.29	1292.27
416.49	1232.88
416.70	1261.55
416.91	1294.32
417.11	1273.84
417.32	1208.30
417.53	1255.40
417.73	1263.60
417.94	1216.49
418.15	1273.84
418.35	1255.40
418.56	1253.36
418.77	1234.93
418.97	1284.08
419.18	1241.07
419.38	1296.36
419.59	1236.97
419.80	1290.22
420.00	1279.98
420.21	1355.76
420.42	1302.51
420.62	1218.54
420.83	1193.97
421.04	1275.88
421.24	1306.60
421.45	1325.04
421.65	1257.45
421.86	1292.27
422.07	1275.88
422.27	1294.32
422.48	1265.64
422.69	1259.50
422.89	1222.64
423.10	1271.79
423.30	1247.21
423.51	1282.03
423.72	1243.12
423.92	1288.17
424.13	1269.74
424.33	1243.12
424.54	1284.08
424.75	1214.45
424.95	1298.41
425.16	1214.45
425.36	1284.08
425.57	1267.69
425.78	1312.75
425.98	1284.08
426.19	1224.69
426.39	1232.88
426.60	1265.64
426.81	1247.21
427.01	1298.41
427.22	1265.64
427.42	1292.27
427.63	1243.12
427.83	1255.40
428.04	1236.97
428.25	1318.89
428.45	1333.23
428.66	1300.46
428.86	1306.60
429.07	1341.42
429.28	1245.16
429.48	1247.21
429.69	1282.03
429.89	1277.93
430.10	1251.31
430.30	1314.80
430.51	1290.22
430.71	1259.50
430.92	1288.17
431.13	1245.16
431.33	1263.60
431.54	1253.36
431.74	1290.22
431.95	1265.64
432.15	1212.40
432.36	1263.60
432.56	1255.40
432.77	1329.13
432.98	1282.03
433.18	1267.69
433.39	1294.32
433.59	1327.08
433.80	1239.02
434.00	1269.74
434.21	1206.25
434.41	1271.79
434.62	1249.26
434.82	1296.36
435.03	1294.32
435.23	1290.22
435.44	1310.70
435.64	1230.83
435.85	1198.06
436.06	1273.84
436.26	1288.17
436.47	1228.78
436.67	1255.40
436.88	1253.36
437.08	1230.83
437.29	1304.56
437.49	1161.20
437.70	1284.08
437.90	1327.08
438.11	1349.61
438.31	1273.84
438.52	1273.84
438.72	1277.93
438.93	1249.26
439.13	1273.84
439.34	1253.36
439.54	1314.80
439.75	1284.08
439.95	1218.54
440.16	1220.59
440.36	1331.18
440.57	1275.88
440.77	1198.06
440.98	1224.69
441.18	1306.60
441.39	1257.45
441.59	1271.79
441.80	1196.01
442.00	1243.12
442.21	1296.36
442.41	1261.55
442.62	1290.22
442.82	1255.40
443.02	1243.12
443.23	1318.89
443.43	1316.84
443.64	1259.50
443.84	1259.50
444.05	1290.22
444.25	1243.12
444.46	1249.26
444.66	1286.12
444.87	1267.69
445.07	1314.80
445.28	1236.97
445.48	1253.36
445.69	1298.41
445.89	1253.36
446.09	1282.03
446.30	1325.04
446.50	1247.21
446.71	1245.16
446.91	1228.78
447.12	1230.83
447.32	1304.56
447.53	1261.55
447.73	1251.31
447.93	1253.36
448.14	1327.08
448.34	1241.07
448.55	1325.04
448.75	1269.74
448.96	1255.40
449.16	1245.16
449.36	1239.02
449.57	1257.45
449.77	1222.64
449.98	1310.70
450.18	1300.46
450.39	1220.59
450.59	1257.45
450.79	1232.88
451.00	1273.84
451.20	1245.16
451.41	1269.74
451.61	1193.97
451.81	1304.56
452.02	1249.26
452.22	1222.64
452.43	1286.12
452.63	1279.98
452.84	1220.59
453.04	1263.60
453.24	1263.60
453.45	1224.69
453.65	1292.27
453.86	1261.55
454.06	1286.12
454.26	1265.64
454.47	1279.98
454.67	1269.74
454.87	1357.80
455.08	1312.75
455.28	1306.60
455.49	1277.93
455.69	1269.74
455.89	1224.69
456.10	1210.35
456.30	1196.01
456.51	1296.36
456.71	1292.27
456.91	1316.84
457.12	1306.60
457.32	1308.65
457.52	1282.03
457.73	1241.07
457.93	1318.89
458.14	1290.22
458.34	1234.93
458.54	1196.01
458.75	1306.60
458.95	1294.32
459.15	1345.52
459.36	1279.98
459.56	1304.56
459.76	1284.08
459.97	1269.74
460.17	1249.26
460.37	1388.52
460.58	1265.64
460.78	1228.78
460.99	1222.64
461.19	1288.17
461.39	1320.94
461.60	1261.55
461.80	1286.12
462.00	1253.36
462.21	1302.51
462.41	1279.98
462.61	1239.02
462.82	1247.21
463.02	1265.64
463.22	1322.99
463.43	1273.84
463.63	1214.45
463.83	1249.26
464.04	1267.69
464.24	1273.84
464.44	1302.51
464.64	1316.84
464.85	1255.40
465.05	1261.55
465.25	1337.32
465.46	1284.08
465.66	1253.36
465.86	1218.54
466.07	1259.50
466.27	1218.54
466.47	1267.69
466.68	1300.46
466.88	1267.69
467.08	1318.89
467.29	1322.99
467.49	1290.22
467.69	1220.59
467.89	1298.41
468.10	1304.56
468.30	1247.21
468.50	1322.99
468.71	1269.74
468.91	1286.12
469.11	1267.69
469.31	1265.64
469.52	1308.65
469.72	1275.88
469.92	1257.45
470.13	1304.56
470.33	1271.79
470.53	1261.55
470.73	1249.26
470.94	1337.32
471.14	1351.66
471.34	1218.54
471.54	1234.93
471.75	1226.73
471.95	1216.49
472.15	1310.70
472.36	1228.78
472.56	1290.22
472.76	1314.80
472.96	1206.25
473.17	1331.18
473.37	1210.35
473.57	1228.78
473.77	1298.41
473.98	1271.79
474.18	1286.12
474.38	1226.73
474.58	1325.04
474.79	1263.60
474.99	1273.84
475.19	1337.32
475.39	1271.79
475.60	1245.16
475.80	1304.56
476.00	1294.32
476.20	1269.74
476.41	1257.45
476.61	1275.88
476.81	1271.79
477.01	1314.80
477.21	1331.18
477.42	1241.07
477.62	1282.03
477.82	1302.51
478.02	1306.60
478.23	1159.15
478.43	1255.40
478.63	1228.78
478.83	1224.69
479.03	1292.27
479.24	1222.64
479.44	1333.23
479.64	1318.89
479.84	1290.22
480.04	1284.08
480.25	1236.97
480.45	1331.18
480.65	1255.40
480.85	1273.84
481.06	1325.04
481.26	1314.80
481.46	1202.16
481.66	1249.26
481.86	1265.64
482.06	1196.01
482.27	1263.60
482.47	1327.08
482.67	1275.88
482.87	1267.69
483.07	1224.69
483.28	1236.97
483.48	1249.26
483.68	1294.32
483.88	1202.16
484.08	1218.54
484.29	1241.07
484.49	1300.46
484.69	1351.66
484.89	1245.16
485.09	1202.16
485.29	1298.41
485.50	1339.37
485.70	1253.36
485.90	1232.88
486.10	1167.34
486.30	1306.60
486.50	1208.30
486.71	1343.47
486.91	1267.69
487.11	1318.89
487.31	1300.46
487.51	1286.12
487.71	1286.12
487.91	1318.89
488.12	1277.93
488.32	1279.98
488.52	1230.83
488.72	1277.93
488.92	1224.69
489.12	1265.64
489.32	1304.56
489.53	1308.65
489.73	1275.88
489.93	1306.60
490.13	1251.31
490.33	1298.41
490.53	1257.45
490.73	1230.83
490.94	1239.02
491.14	1322.99
491.34	1271.79
491.54	1310.70
491.74	1382.38
491.94	1279.98
492.14	1331.18
492.34	1253.36
492.54	1234.93
492.75	1265.64
492.95	1308.65
493.15	1257.45
493.35	1265.64
493.55	1282.03
493.75	1214.45
493.95	1351.66
494.15	1277.93
494.35	1218.54
494.56	1218.54
494.76	1249.26
494.96	1275.88
495.16	1294.32
495.36	1249.26
495.56	1294.32
495.76	1232.88
495.96	1241.07
496.16	1357.80
496.36	1296.36
496.56	1322.99
496.77	1247.21
496.97	1243.12
497.17	1314.80
497.37	1245.16
497.57	1230.83
497.77	1288.17
497.97	1302.51
498.17	1249.26
498.37	1357.80
498.57	1265.64
498.77	1284.08
498.97	1214.45
499.17	1318.89
499.38	1310.70
499.58	1257.45
499.78	1232.88
499.98	1257.45
500.18	1263.60
500.38	1241.07
500.58	1337.32
500.78	1222.64
500.98	1294.32
501.18	1345.52
501.38	1267.69
501.58	1277.93
501.78	1304.56
501.98	1310.70
502.18	1271.79
502.38	1322.99
502.58	1247.21
502.78	1372.14
502.98	1296.36
503.18	1325.04
503.38	1304.56
503.59	1257.45
503.79	1341.42
503.99	1325.04
504.19	1232.88
504.39	1216.49
504.59	1286.12
504.79	1273.84
504.99	1286.12
505.19	1267.69
505.39	1249.26
505.59	1298.41
505.79	1298.41
505.99	1284.08
506.19	1275.88
506.39	1236.97
506.59	1279.98
506.79	1288.17
506.99	1335.28
507.19	1316.84
507.39	1257.45
507.59	1296.36
507.79	1273.84
507.99	1220.59
508.19	1282.03
508.39	1226.73
508.59	1271.79
508.79	1230.83
508.99	1267.69
509.19	1257.45
509.39	1220.59
509.59	1392.62
509.79	1292.27
509.99	1343.47
510.19	1304.56
510.39	1353.71
510.59	1185.77
510.79	1265.64
510.99	1210.35
511.19	1316.84
511.39	1306.60
511.59	1239.02
511.79	1304.56
511.99	1298.41
512.19	1290.22
512.38	1306.60
512.58	1372.14
512.78	1318.89
512.98	1200.11
513.18	1322.99
513.38	1271.79
513.58	1255.40
513.78	1333.23
513.98	1302.51
514.18	1236.97
514.38	1292.27
514.58	1175.53
514.78	1259.50
514.98	1269.74
515.18	1298.41
515.38	1298.41
515.58	1347.56
515.78	1273.84
515.98	1216.49
516.18	1265.64
516.38	1302.51
516.57	1259.50
516.77	1304.56
516.97	1298.41
517.17	1302.51
517.37	1290.22
517.57	1339.37
517.77	1277.93
517.97	1296.36
518.17	1265.64
518.37	1335.28
518.57	1308.65
518.77	1257.45
518.97	1286.12
519.16	1279.98
519.36	1239.02
519.56	1320.94
519.76	1333.23
519.96	1282.03
520.16	1271.79
520.36	1181.68
520.56	1286.12
520.76	1261.55
520.96	1224.69
521.16	1310.70
521.35	1214.45
521.55	1310.70
521.75	1273.84
521.95	1296.36
522.15	1290.22
522.35	1306.60
522.55	1304.56
522.75	1304.56
522.95	1234.93
523.14	1198.06
523.34	1306.60
523.54	1253.36
523.74	1243.12
523.94	1247.21
524.14	1308.65
524.34	1232.88
524.54	1357.80
524.73	1245.16
524.93	1185.77
525.13	1255.40
525.33	1308.65
525.53	1208.30
525.73	1224.69
525.93	1333.23
526.13	1216.49
526.32	1269.74
526.52	1261.55
526.72	1236.97
526.92	1222.64
527.12	1304.56
527.32	1216.49
527.52	1247.21
527.71	1327.08
527.91	1318.89
528.11	1302.51
528.31	1302.51
528.51	1245.16
528.71	1255.40
528.90	1314.80
529.10	1269.74
529.30	1310.70
529.50	1241.07
529.70	1234.93
529.90	1220.59
530.09	1288.17
530.29	1331.18
530.49	1312.75
530.69	1251.31
530.89	1302.51
531.09	1282.03
531.28	1241.07
531.48	1279.98
531.68	1261.55
531.88	1298.41
532.08	1327.08
532.28	1310.70
532.47	1261.55
532.67	1245.16
532.87	1288.17
533.07	1243.12
533.27	1327.08
533.46	1284.08
533.66	1259.50
533.86	1294.32
534.06	1296.36
534.26	1284.08
534.45	1275.88
534.65	1335.28
534.85	1310.70
535.05	1200.11
535.25	1228.78
535.44	1273.84
535.64	1245.16
535.84	1296.36
536.04	1298.41
536.24	1257.45
536.43	1279.98
536.63	1253.36
536.83	1296.36
537.03	1357.80
537.22	1294.32
537.42	1290.22
537.62	1374.19
537.82	1271.79
538.02	1292.27
538.21	1179.63
538.41	1275.88
538.61	1245.16
538.81	1282.03
539.00	1286.12
539.20	1312.75
539.40	1279.98
539.60	1263.60
539.79	1304.56
539.99	1275.88
540.19	1302.51
540.39	1228.78
540.58	1269.74
540.78	1304.56
540.98	1286.12
541.18	1275.88
541.37	1286.12
541.57	1249.26
541.77	1269.74
541.97	1298.41
542.16	1253.36
542.36	1222.64
542.56	1312.75
542.76	1296.36
542.95	1339.37
543.15	1247.21
543.35	1269.74
543.54	1302.51
543.74	1284.08
543.94	1253.36
544.14	1200.11
544.33	1267.69
544.53	1263.60
544.73	1279.98
544.93	1265.64
545.12	1294.32
545.32	1284.08
545.52	1310.70
545.71	1222.64
545.91	1214.45
546.11	1269.74
546.30	1304.56
546.50	1294.32
546.70	1302.51
546.90	1232.88
547.09	1304.56
547.29	1306.60
547.49	1286.12
547.68	1316.84
547.88	1249.26
548.08	1329.13
548.27	1357.80
548.47	1296.36
548.67	1277.93
548.87	1296.36
549.06	1288.17
549.26	1236.97
549.46	1261.55
549.65	1257.45
549.85	1273.84
550.05	1320.94
550.24	1239.02
550.44	1284.08
550.64	1314.80
550.83	1259.50
551.03	1232.88
551.23	1271.79
551.42	1267.69
551.62	1257.45
551.82	1335.28
552.01	1257.45
552.21	1277.93
552.41	1232.88
552.60	1279.98
552.80	1304.56
553.00	1257.45
553.19	1337.32
553.39	1243.12
553.59	1206.25
553.78	1345.52
553.98	1310.70
554.17	1257.45
554.37	1341.42
554.57	1232.88
554.76	1361.90
554.96	1267.69
555.16	1310.70
555.35	1277.93
555.55	1257.45
555.75	1263.60
555.94	1298.41
556.14	1284.08
556.33	1261.55
556.53	1322.99
556.73	1245.16
556.92	1325.04
557.12	1275.88
557.32	1247.21
557.51	1312.75
557.71	1302.51
557.90	1277.93
558.10	1292.27
558.30	1331.18
558.49	1282.03
558.69	1267.69
558.88	1298.41
559.08	1253.36
559.28	1306.60
559.47	1249.26
559.67	1370.09
559.86	1177.58
560.06	1304.56
560.26	1198.06
560.45	1267.69
560.65	1288.17
560.84	1263.60
561.04	1269.74
561.24	1232.88
561.43	1271.79
561.63	1257.45
561.82	1341.42
562.02	1302.51
562.22	1234.93
562.41	1304.56
562.61	1241.07
562.80	1259.50
563.00	1251.31
563.19	1284.08
563.39	1339.37
563.59	1247.21
563.78	1325.04
563.98	1206.25
564.17	1302.51
564.37	1296.36
564.56	1282.03
564.76	1290.22
564.96	1255.40
565.15	1222.64
565.35	1345.52
565.54	1306.60
565.74	1271.79
565.93	1228.78
566.13	1255.40
566.32	1316.84
566.52	1267.69
566.71	1318.89
566.91	1245.16
567.11	1284.08
567.30	1226.73
567.50	1306.60
567.69	1275.88
567.89	1310.70
568.08	1247.21
568.28	1245.16
568.47	1331.18
568.67	1271.79
568.86	1253.36
569.06	1314.80
569.25	1306.60
569.45	1292.27
569.64	1316.84
569.84	1290.22
570.04	1273.84
570.23	1234.93
570.43	1277.93
570.62	1300.46
570.82	1265.64
571.01	1351.66
571.21	1247.21
571.40	1206.25
571.60	1255.40
571.79	1290.22
571.99	1331.18
572.18	1308.65
572.38	1263.60
572.57	1271.79
572.77	1265.64
572.96	1261.55
573.16	1312.75
573.35	1257.45
573.55	1337.32
573.74	1253.36
573.94	1214.45
574.13	1202.16
574.33	1337.32
574.52	1298.41
574.71	1220.59
574.91	1290.22
575.10	1279.98
575.30	1363.95
575.49	1271.79
575.69	1181.68
575.88	1251.31
576.08	1300.46
576.27	1214.45
576.47	1298.41
576.66	1226.73
576.86	1329.13
577.05	1265.64
577.25	1312.75
577.44	1296.36
577.64	1325.04
577.83	1341.42
578.02	1228.78
578.22	1312.75
578.41	1261.55
578.61	1267.69
578.80	1308.65
579.00	1267.69
579.19	1320.94
579.39	1228.78
579.58	1200.11
579.77	1265.64
579.97	1294.32
580.16	1269.74
580.36	1310.70
580.55	1347.56
580.75	1224.69
580.94	1322.99
581.13	1271.79
581.33	1232.88
581.52	1294.32
581.72	1208.30
581.91	1286.12
582.11	1191.92
582.30	1335.28
582.49	1230.83
582.69	1310.70
582.88	1320.94
583.08	1361.90
583.27	1261.55
583.47	1265.64
583.66	1282.03
583.85	1306.60
584.05	1271.79
584.24	1282.03
584.44	1247.21
584.63	1318.89
584.82	1267.69
585.02	1232.88
585.21	1318.89
585.41	1200.11
585.60	1284.08
585.79	1269.74
585.99	1243.12
586.18	1384.43
586.37	1245.16
586.57	1308.65
586.76	1279.98
586.96	1269.74
587.15	1234.93
587.34	1257.45
587.54	1288.17
587.73	1261.55
587.93	1318.89
588.12	1277.93
588.31	1267.69
588.51	1269.74
588.70	1257.45
588.89	1304.56
589.09	1253.36
589.28	1226.73
589.47	1327.08
589.67	1308.65
589.86	1339.37
590.06	1314.80
590.25	1273.84
590.44	1265.64
590.64	1302.51
590.83	1271.79
591.02	1290.22
591.22	1339.37
591.41	1220.59
591.60	1312.75
591.80	1261.55
591.99	1329.13
592.18	1347.56
592.38	1290.22
592.57	1282.03
592.76	1331.18
592.96	1310.70
593.15	1243.12
593.34	1239.02
593.54	1286.12
593.73	1306.60
593.92	1292.27
594.12	1275.88
594.31	1306.60
594.50	1259.50
594.70	1249.26
594.89	1273.84
595.08	1267.69
595.28	1257.45
595.47	1232.88
595.66	1265.64
595.86	1230.83
596.05	1316.84
596.24	1275.88
596.43	1269.74
596.63	1282.03
596.82	1257.45
597.01	1298.41
597.21	1312.75
597.40	1271.79
597.59	1265.64
597.79	1210.35
597.98	1208.30
598.17	1366.00
598.36	1279.98
598.56	1282.03
598.75	1298.41
598.94	1269.74
599.14	1290.22
599.33	1331.18
599.52	1304.56
599.71	1220.59
599.91	1265.64
600.10	1282.03
600.29	1277.93
600.48	1353.71
600.68	1243.12
600.87	1325.04
601.06	1267.69
601.26	1318.89
601.45	1331.18
601.64	1310.70
601.83	1294.32
602.03	1187.82
602.22	1259.50
602.41	1210.35
602.60	1267.69
602.80	1232.88
602.99	1236.97
603.18	1191.92
603.37	1320.94
603.57	1232.88
603.76	1282.03
603.95	1212.40
604.14	1275.88
604.34	1257.45
604.53	1261.55
604.72	1300.46
604.91	1298.41
605.10	1286.12
605.30	1222.64
605.49	1265.64
605.68	1372.14
605.87	1331.18
606.07	1337.32
606.26	1220.59
606.45	1298.41
606.64	1267.69
606.84	1351.66
607.03	1232.88
607.22	1269.74
607.41	1241.07
607.60	1335.28
607.80	1259.50
607.99	1327.08
608.18	1312.75
608.37	1257.45
608.56	1245.16
608.76	1263.60
608.95	1308.65
609.14	1331.18
609.33	1327.08
609.52	1314.80
609.72	1267.69
609.91	1277.93
610.10	1234.93
610.29	1269.74
610.48	1275.88
610.68	1263.60
610.87	1349.61
611.06	1232.88
611.25	1261.55
611.44	1294.32
611.63	1304.56
611.83	1288.17
612.02	1333.23
612.21	1265.64
612.40	1298.41
612.59	1349.61
612.79	1277.93
612.98	1257.45
613.17	1277.93
613.36	1327.08
613.55	1302.51
613.74	1273.84
613.93	1337.32
614.13	1273.84
614.32	1318.89
614.51	1316.84
614.70	1273.84
614.89	1349.61
615.08	1290.22
615.28	1298.41
615.47	1363.95
615.66	1198.06
615.85	1294.32
616.04	1249.26
616.23	1257.45
616.42	1327.08
616.62	1314.80
616.81	1302.51
617.00	1308.65
617.19	1263.60
617.38	1306.60
617.57	1277.93
617.76	1302.51
617.95	1228.78
618.15	1251.31
618.34	1257.45
618.53	1300.46
618.72	1288.17
618.91	1306.60
619.10	1300.46
619.29	1261.55
619.48	1222.64
619.68	1322.99
619.87	1279.98
620.06	1302.51
620.25	1294.32
620.44	1316.84
620.63	1263.60
620.82	1282.03
621.01	1265.64
621.20	1273.84
621.39	1241.07
621.59	1206.25
621.78	1269.74
621.97	1275.88
622.16	1234.93
622.35	1236.97
622.54	1335.28
622.73	1234.93
622.92	1271.79
623.11	1277.93
623.30	1282.03
623.49	1255.40
623.68	1329.13
623.88	1290.22
624.07	1343.47
624.26	1325.04
624.45	1288.17
624.64	1290.22
624.83	1216.49
625.02	1253.36
625.21	1325.04
625.40	1224.69
625.59	1335.28
625.78	1286.12
625.97	1314.80
626.16	1255.40
626.35	1312.75
626.54	1308.65
626.74	1259.50
626.93	1255.40
627.12	1284.08
627.31	1347.56
627.50	1335.28
627.69	1259.50
627.88	1284.08
628.07	1327.08
628.26	1226.73
628.45	1306.60
628.64	1343.47
628.83	1327.08
629.02	1314.80
629.21	1304.56
629.40	1265.64
629.59	1335.28
629.78	1245.16
629.97	1357.80
630.16	1269.74
630.35	1298.41
630.54	1361.90
630.73	1243.12
630.92	1331.18
631.11	1349.61
631.30	1343.47
631.49	1454.06
631.68	1523.69
631.87	1925.09
632.06	3090.38
632.25	2512.86
632.44	2766.81
632.63	2676.70
632.82	2742.23
633.01	3559.37
633.20	5164.98
633.39	6928.28
633.58	7178.13
633.77	11767.63
633.96	25153.15
634.15	46851.38
634.34	61858.90
634.53	59176.06
634.72	44836.18
634.91	27942.49
635.10	16326.41
635.29	9211.76
635.48	5339.05
635.67	3241.93
635.86	2230.24
636.05	1671.14
636.24	1542.12
636.43	1413.10
636.62	1343.47
636.81	1304.56
637.00	1286.12
637.19	1370.09
637.38	1378.28
637.57	1394.67
637.76	1380.33
637.95	1292.27
638.14	1361.90
638.33	1302.51
638.52	1308.65
638.71	1312.75
638.89	1222.64
639.08	1257.45
639.27	1286.12
639.46	1265.64
639.65	1298.41
639.84	1277.93
640.03	1241.07
640.22	1325.04
640.41	1370.09
640.60	1255.40
640.79	1234.93
640.98	1269.74
641.17	1230.83
641.36	1230.83
641.55	1320.94
641.74	1302.51
641.92	1255.40
642.11	1298.41
642.30	1322.99
642.49	1261.55
642.68	1372.14
642.87	1298.41
643.06	1273.84
643.25	1267.69
643.44	1232.88
643.63	1286.12
643.82	1306.60
644.00	1232.88
644.19	1314.80
644.38	1267.69
644.57	1241.07
644.76	1294.32
644.95	1353.71
645.14	1339.37
645.33	1286.12
645.52	1298.41
645.71	1372.14
645.89	1284.08
646.08	1320.94
646.27	1273.84
646.46	1316.84
646.65	1232.88
646.84	1275.88
647.03	1214.45
647.22	1286.12
647.40	1224.69
647.59	1265.64
647.78	1284.08
647.97	1273.84
648.16	1251.31
648.35	1247.21
648.54	1279.98
648.73	1322.99
648.91	1261.55
649.10	1288.17
649.29	1300.46
649.48	1310.70
649.67	1275.88
649.86	1269.74
650.05	1253.36
650.23	1345.52
650.42	1249.26
650.61	1314.80
650.80	1314.80
650.99	1273.84
651.18	1265.64
651.36	1247.21
651.55	1302.51
651.74	1314.80
651.93	1277.93
652.12	1314.80
652.31	1284.08
652.49	1337.32
652.68	1249.26
652.87	1322.99
653.06	1296.36
653.25	1302.51
653.44	1296.36
653.62	1273.84
653.81	1327.08
654.00	1308.65
654.19	1216.49
654.38	1200.11
654.56	1363.95
654.75	1261.55
654.94	1228.78
655.13	1327.08
655.32	1241.07
655.51	1304.56
655.69	1214.45
655.88	1282.03
656.07	1296.36
656.26	1312.75
656.45	1243.12
656.63	1263.60
656.82	1251.31
657.01	1245.16
657.20	1288.17
657.38	1222.64
657.57	1222.64
657.76	1273.84
657.95	1236.97
658.14	1265.64
658.32	1259.50
658.51	1288.17
658.70	1296.36
658.89	1329.13
659.08	1382.38
659.26	1347.56
659.45	1275.88
659.64	1241.07
659.83	1241.07
660.01	1363.95
660.20	1247.21
660.39	1298.41
660.58	1277.93
660.76	1284.08
660.95	1228.78
661.14	1218.54
661.33	1208.30
661.51	1286.12
661.70	1259.50
661.89	1189.87
662.08	1257.45
662.26	1253.36
662.45	1247.21
662.64	1310.70
662.83	1267.69
663.01	1329.13
663.20	1339.37
663.39	1267.69
663.58	1296.36
663.76	1218.54
663.95	1318.89
664.14	1236.97
664.32	1249.26
664.51	1304.56
664.70	1249.26
664.89	1294.32
665.07	1210.35
665.26	1363.95
665.45	1261.55
665.64	1247.21
665.82	1230.83
666.01	1284.08
666.20	1216.49
666.38	1226.73
666.57	1277.93
666.76	1273.84
666.95	1249.26
667.13	1226.73
667.32	1257.45
667.51	1245.16
667.69	1267.69
667.88	1331.18
668.07	1286.12
668.25	1347.56
668.44	1380.33
668.63	1241.07
668.81	1243.12
669.00	1273.84
669.19	1198.06
669.38	1302.51
669.56	1247.21
669.75	1333.23
669.94	1245.16
670.12	1232.88
670.31	1239.02
670.50	1259.50
670.68	1275.88
670.87	1312.75
671.06	1259.50
671.24	1269.74
671.43	1255.40
671.62	1366.00
671.80	1279.98
671.99	1308.65
672.18	1300.46
672.36	1298.41
672.55	1226.73
672.74	1161.20
672.92	1284.08
673.11	1255.40
673.29	1253.36
673.48	1292.27
673.67	1271.79
673.85	1306.60
674.04	1290.22
674.23	1245.16
674.41	1304.56
674.60	1316.84
674.79	1230.83
674.97	1234.93
675.16	1279.98
675.34	1265.64
675.53	1189.87
675.72	1279.98
675.90	1259.50
676.09	1249.26
676.28	1239.02
676.46	1314.80
676.65	1320.94
676.83	1236.97
677.02	1271.79
677.21	1200.11
677.39	1273.84
677.58	1304.56
677.77	1239.02
677.95	1275.88
678.14	1279.98
678.32	1224.69
678.51	1255.40
678.70	1310.70
678.88	1259.50
679.07	1288.17
679.25	1269.74
679.44	1284.08
679.63	1263.60
679.81	1230.83
680.00	1222.64
680.18	1304.56
680.37	1347.56
680.55	1304.56
680.74	1329.13
680.93	1306.60
681.11	1218.54
681.30	1257.45
681.48	1202.16
681.67	1232.88
681.85	1202.16
682.04	1282.03
682.23	1263.60
682.41	1253.36
682.60	1343.47
682.78	1243.12
682.97	1316.84
683.15	1308.65
683.34	1306.60
683.53	1224.69
683.71	1261.55
683.90	1298.41
684.08	1298.41
684.27	1298.41
684.45	1253.36
684.64	1232.88
684.82	1200.11
685.01	1325.04
685.19	1275.88
685.38	1345.52
685.57	1308.65
685.75	1286.12
685.94	1241.07
686.12	1228.78
686.31	1206.25
686.49	1290.22
686.68	1267.69
686.86	1282.03
687.05	1265.64
687.23	1263.60
687.42	1308.65
687.60	1265.64
687.79	1306.60
687.97	1306.60
688.16	1222.64
688.34	1179.63
688.53	1286.12
688.71	1277.93
688.90	1282.03
689.08	1316.84
689.27	1234.93
689.45	1286.12
689.64	1376.24
689.82	1286.12
690.01	1288.17
690.19	1232.88
690.38	1265.64
690.56	1277.93
690.75	1243.12
690.93	1273.84
691.12	1210.35
691.30	1265.64
691.49	1335.28
691.67	1228.78
691.86	1226.73
692.04	1269.74
692.23	1210.35
692.41	1259.50
692.60	1226.73
692.78	1261.55
692.97	1267.69
693.15	1322.99
693.34	1232.88
693.52	1288.17
693.71	1214.45
693.89	1298.41
694.08	1216.49
694.26	1212.40
694.44	1269.74
694.63	1322.99
694.81	1290.22
695.00	1294.32
695.18	1318.89
695.37	1284.08
695.55	1343.47
695.74	1310.70
695.92	1282.03
696.10	1286.12
696.29	1157.10
696.47	1322.99
696.66	1320.94
696.84	1261.55
697.03	1290.22
697.21	1257.45
697.40	1333.23
697.58	1335.28
697.76	1230.83
697.95	1189.87
698.13	1230.83
698.32	1333.23
698.50	1277.93
698.68	1304.56
698.87	1353.71
699.05	1296.36
699.24	1257.45
699.42	1286.12
699.61	1222.64
699.79	1265.64
699.97	1234.93
700.16	1310.70
700.34	1230.83
700.53	1339.37
700.71	1277.93
700.89	1284.08
701.08	1275.88
701.26	1314.80
701.45	1310.70
701.63	1222.64
701.81	1257.45
702.00	1253.36
702.18	1255.40
702.37	1263.60
702.55	1275.88
702.73	1333.23
702.92	1202.16
703.10	1273.84
703.28	1288.17
703.47	1261.55
703.65	1277.93
703.84	1314.80
704.02	1277.93
704.20	1314.80
704.39	1220.59
704.57	1306.60
704.75	1212.40
704.94	1263.60
705.12	1304.56
705.30	1294.32
705.49	1286.12
705.67	1269.74
705.86	1294.32
706.04	1355.76
706.22	1392.62
706.41	1292.27
706.59	1333.23
706.77	1253.36
706.96	1271.79
707.14	1269.74
707.32	1300.46
707.51	1247.21
707.69	1288.17
707.87	1241.07
708.06	1259.50
708.24	1302.51
708.42	1277.93
708.61	1296.36
708.79	1234.93
708.97	1290.22
709.16	1243.12
709.34	1243.12
709.52	1183.73
709.71	1341.42
709.89	1277.93
710.07	1298.41
710.26	1273.84
710.44	1259.50
710.62	1267.69
710.80	1269.74
710.99	1316.84
711.17	1247.21
711.35	1286.12
711.54	1316.84
711.72	1253.36
711.90	1353.71
712.09	1282.03
712.27	1296.36
712.45	1210.35
712.63	1265.64
712.82	1236.97
713.00	1222.64
713.18	1279.98
713.37	1294.32
713.55	1255.40
713.73	1290.22
713.91	1228.78
714.10	1239.02
714.28	1251.31
714.46	1257.45
714.65	1226.73
714.83	1239.02
715.01	1222.64
715.19	1277.93
715.38	1273.84
715.56	1226.73
715.74	1290.22
715.92	1230.83
716.11	1308.65
716.29	1210.35
716.47	1275.88
716.65	1302.51
716.84	1249.26
717.02	1286.12
717.20	1308.65
717.38	1308.65
717.57	1265.64
717.75	1320.94
717.93	1210.35
718.11	1265.64
718.30	1286.12
718.48	1183.73
718.66	1239.02
718.84	1292.27
719.03	1249.26
719.21	1234.93
719.39	1296.36
719.57	1181.68
719.75	1185.77
719.94	1263.60
720.12	1284.08
720.30	1183.73
720.48	1292.27
720.67	1212.40
720.85	1210.35
721.03	1257.45
721.21	1327.08
721.39	1302.51
721.58	1273.84
721.76	1286.12
721.94	1314.80
722.12	1212.40
722.30	1216.49
722.49	1327.08
722.67	1249.26
722.85	1331.18
723.03	1302.51
723.21	1337.32
723.40	1282.03
723.58	1320.94
723.76	1187.82
723.94	1294.32
724.12	1292.27
724.30	1230.83
724.49	1269.74
724.67	1298.41
724.85	1300.46
725.03	1251.31
725.21	1247.21
725.40	1292.27
725.58	1200.11
725.76	1298.41
725.94	1177.58
726.12	1232.88
726.30	1320.94
726.49	1273.84
726.67	1269.74
726.85	1341.42
727.03	1267.69
727.21	1329.13
727.39	1282.03
727.57	1271.79
727.76	1249.26
727.94	1263.60
728.12	1251.31
728.30	1224.69
728.48	1239.02
728.66	1253.36
728.84	1230.83
729.03	1290.22
729.21	1222.64
729.39	1271.79
729.57	1290.22
729.75	1314.80
729.93	1288.17
730.11	1232.88
730.30	1273.84
730.48	1241.07
730.66	1275.88
730.84	1230.83
731.02	1355.76
731.20	1251.31
731.38	1232.88
731.56	1243.12
731.74	1296.36
731.93	1245.16
732.11	1230.83
732.29	1214.45
732.47	1327.08
732.65	1290.22
732.83	1212.40
733.01	1353.71
733.19	1300.46
733.37	1290.22
733.56	1216.49
733.74	1331.18
733.92	1239.02
734.10	1277.93
734.28	1251.31
734.46	1308.65
734.64	1269.74
734.82	1204.21
735.00	1284.08
735.18	1226.73
735.36	1245.16
735.54	1279.98
735.73	1253.36
735.91	1288.17
736.09	1284.08
736.27	1243.12
736.45	1232.88
736.63	1232.88
736.81	1224.69
736.99	1288.17
737.17	1249.26
737.35	1279.98
737.53	1245.16
737.71	1265.64
737.89	1271.79
738.07	1339.37
738.25	1228.78
738.43	1263.60
738.61	1277.93
738.80	1300.46
738.98	1189.87
739.16	1230.83
739.34	1232.88
739.52	1187.82
739.70	1282.03
739.88	1273.84
740.06	1206.25
740.24	1257.45
740.42	1232.88
740.60	1216.49
740.78	1191.92
740.96	1355.76
741.14	1251.31
741.32	1290.22
741.50	1259.50
741.68	1320.94
741.86	1196.01
742.04	1232.88
742.22	1202.16
742.40	1247.21
742.58	1183.73
742.76	1265.64
742.94	1282.03
743.12	1243.12
743.30	1286.12
743.48	1251.31
743.66	1247.21
743.84	1327.08
744.02	1292.27
744.20	1179.63
744.38	1269.74
744.56	1208.30
744.74	1208.30
744.92	1265.64
745.10	1329.13
745.28	1245.16
745.46	1282.03
745.64	1282.03
745.82	1179.63
746.00	1220.59
746.18	1255.40
746.36	1247.21
746.54	1277.93
746.72	1288.17
746.90	1320.94
747.08	1241.07
747.26	1239.02
747.44	1263.60
747.62	1259.50
747.80	1282.03
747.98	1282.03
748.15	1179.63
748.33	1255.40
748.51	1263.60
748.69	1222.64
748.87	1275.88
749.05	1239.02
749.23	1267.69
749.41	1271.79
749.59	1232.88
749.77	1218.54
749.95	1179.63
750.13	1282.03
750.31	1304.56
750.49	1247.21
750.67	1279.98
750.85	1269.74
751.03	1318.89
751.20	1292.27
751.38	1214.45
751.56	1263.60
751.74	1288.17
751.92	1232.88
752.10	1243.12
752.28	1200.11
752.46	1232.88
752.64	1251.31
752.82	1275.88
753.00	1327.08
753.18	1306.60
753.35	1333.23
753.53	1294.32
753.71	1284.08
753.89	1275.88
754.07	1243.12
754.25	1245.16
754.43	1273.84
754.61	1349.61
754.79	1333.23
754.97	1255.40
755.14	1265.64
755.32	1216.49
755.50	1277.93
755.68	1239.02
755.86	1247.21
756.04	1263.60
756.22	1232.88
756.40	1222.64
756.57	1249.26
756.75	1200.11
756.93	1277.93
757.11	1247.21
757.29	1196.01
757.47	1271.79
757.65	1351.66
757.82	1255.40
758.00	1261.55
758.18	1279.98
758.36	1300.46
758.54	1310.70
758.72	1241.07
758.90	1263.60
759.07	1282.03
759.25	1286.12
759.43	1308.65
759.61	1251.31
759.79	1308.65
759.97	1236.97
760.15	1261.55
760.32	1335.28
760.50	1189.87
760.68	1245.16
760.86	1239.02
761.04	1257.45
761.22	1310.70
761.39	1273.84
761.57	1327.08
761.75	1290.22
761.93	1234.93
762.11	1265.64
762.28	1275.88
762.46	1236.97
762.64	1253.36
762.82	1251.31
763.00	1261.55
763.18	1216.49
763.35	1294.32
763.53	1232.88
763.71	1320.94
763.89	1253.36
764.07	1234.93
764.24	1165.29
764.42	1300.46
764.60	1253.36
764.78	1286.12
764.96	1331.18
765.13	1263.60
765.31	1249.26
765.49	1318.89
765.67	1206.25
765.84	1288.17
766.02	1251.31
766.20	1239.02
766.38	1282.03
766.56	1298.41
766.73	1288.17
766.91	1279.98
767.09	1267.69
767.27	1343.47
767.44	1302.51
767.62	1216.49
767.80	1241.07
767.98	1196.01
768.15	1247.21
768.33	1220.59
768.51	1273.84
768.69	1302.51
768.87	1316.84
769.04	1314.80
769.22	1294.32
769.40	1208.30
769.58	1329.13
769.75	1200.11
769.93	1253.36
770.11	1257.45
770.28	1230.83
770.46	1277.93
770.64	1271.79
770.82	1255.40
770.99	1245.16
771.17	1304.56
771.35	1247.21
771.53	1218.54
771.70	1298.41
771.88	1245.16
772.06	1294.32
772.23	1249.26
772.41	1193.97
772.59	1241.07
772.77	1226.73
772.94	1245.16
773.12	1232.88
773.30	1279.98
773.47	1261.55
773.65	1275.88
773.83	1271.79
774.01	1306.60
774.18	1339.37
774.36	1222.64
774.54	1304.56
774.71	1304.56
774.89	1265.64
775.07	1282.03
775.24	1284.08
775.42	1290.22
775.60	1251.31
775.78	1228.78
775.95	1261.55
776.13	1253.36
776.31	1325.04
776.48	1232.88
776.66	1220.59
776.84	1210.35
777.01	1267.69
777.19	1302.51
777.37	1269.74
777.54	1277.93
777.72	1263.60
777.90	1212.40
778.07	1239.02
778.25	1204.21
778.43	1124.33
778.60	1273.84
778.78	1302.51
778.96	1310.70
779.13	1286.12
779.31	1196.01
779.49	1169.39
779.66	1228.78
779.84	1249.26
780.01	1279.98
780.19	1243.12
780.37	1294.32
780.54	1320.94
780.72	1236.97
780.90	1279.98
781.07	1282.03
781.25	1245.16
781.43	1273.84
781.60	1269.74
781.78	1288.17
781.95	1239.02
782.13	1214.45
782.31	1251.31
782.48	1273.84
782.66	1290.22
782.83	1296.36
783.01	1249.26
783.19	1261.55
783.36	1255.40
783.54	1187.82
783.72	1306.60
783.89	1267.69
784.07	1320.94
784.24	1251.31
784.42	1384.43
784.60	1224.69
784.77	1314.80
784.95	1224.69
785.12	1304.56
785.30	1259.50
785.47	1304.56
785.65	1273.84
785.83	1288.17
786.00	1269.74
786.18	1226.73
786.35	1306.60
786.53	1286.12
786.71	1202.16
786.88	1284.08
787.06	1271.79
787.23	1275.88
787.41	1316.84
787.58	1265.64
787.76	1241.07
787.94	1251.31
788.11	1284.08
788.29	1245.16
788.46	1273.84
788.64	1247.21
788.81	1304.56
788.99	1271.79
789.16	1245.16
789.34	1296.36
789.52	1163.25
789.69	1269.74
789.87	1310.70
790.04	1277.93
790.22	1220.59
790.39	1312.75
790.57	1249.26
790.74	1300.46
790.92	1224.69
791.09	1232.88
791.27	1193.97
791.44	1279.98
791.62	1288.17
791.79	1345.52
791.97	1222.64
792.15	1296.36
792.32	1257.45
792.50	1335.28
792.67	1228.78
792.85	1257.45
793.02	1239.02
793.20	1316.84
793.37	1320.94
793.55	1243.12
793.72	1177.58
793.90	1279.98
794.07	1228.78
794.25	1204.21
794.42	1189.87
794.60	1259.50
794.77	1224.69
794.95	1200.11
795.12	1243.12
795.30	1277.93
795.47	1226.73
795.65	1298.41
795.82	1234.93
796.00	1241.07
796.17	1277.93
796.34	1253.36
796.52	1282.03
796.69	1212.40
796.87	1241.07
797.04	1220.59
797.22	1251.31
797.39	1273.84
797.57	1296.36
797.74	1263.60
797.92	1279.98
798.09	1220.59
798.27	1263.60
798.44	1296.36
798.62	1277.93
798.79	1277.93
798.96	1249.26
799.14	1275.88
799.31	1140.72
799.49	1273.84
799.66	1339.37
799.84	1269.74
800.01	1261.55
800.19	1314.80
800.36	1245.16
800.53	1286.12
800.71	1267.69
800.88	1255.40
801.06	1320.94
801.23	1339.37
801.41	1271.79
801.58	1216.49
801.75	1208.30
801.93	1241.07
802.10	1263.60
802.28	1275.88
802.45	1243.12
802.63	1284.08
802.80	1306.60
802.97	1282.03
803.15	1249.26
803.32	1247.21
803.50	1230.83
803.67	1304.56
803.84	1245.16
804.02	1198.06
804.19	1224.69
804.37	1337.32
804.54	1296.36
804.71	1265.64
804.89	1245.16
805.06	1304.56
805.24	1277.93
805.41	1257.45
805.58	1200.11
805.76	1257.45
805.93	1241.07
806.10	1327.08
806.28	1230.83
806.45	1218.54
806.63	1298.41
806.80	1335.28
806.97	1224.69
807.15	1277.93
807.32	1234.93
807.49	1241.07
807.67	1236.97
807.84	1251.31
808.01	1322.99
808.19	1300.46
808.36	1247.21
808.54	1304.56
808.71	1253.36
808.88	1298.41
809.06	1279.98
809.23	1312.75
809.40	1265.64
809.58	1273.84
809.75	1220.59
809.92	1251.31
810.10	1169.39
810.27	1296.36
810.44	1271.79
810.62	1292.27
810.79	1232.88
810.96	1310.70
811.14	1255.40
811.31	1263.60
811.48	1273.84
811.66	1286.12
811.83	1312.75
812.00	1394.67
812.18	1290.22
812.35	1286.12
812.52	1290.22
812.69	1347.56
812.87	1265.64
813.04	1300.46
813.21	1249.26
813.39	1279.98
813.56	1249.26
813.73	1314.80
813.91	1214.45
814.08	1333.23
814.25	1191.92
814.42	1204.21
814.60	1267.69
814.77	1273.84
814.94	1249.26
815.12	1302.51
815.29	1177.58
815.46	1265.64
815.63	1193.97
815.81	1312.75
815.98	1255.40
816.15	1275.88
816.33	1279.98
816.50	1253.36
816.67	1236.97
816.84	1232.88
817.02	1320.94
817.19	1265.64
817.36	1265.64
817.53	1196.01
817.71	1230.83
817.88	1251.31
818.05	1253.36
818.22	1251.31
818.40	1257.45
818.57	1228.78
818.74	1245.16
818.91	1239.02
819.09	1212.40
819.26	1265.64
819.43	1302.51
819.60	1322.99
819.78	1241.07
819.95	1245.16
820.12	1245.16
820.29	1316.84
820.47	1243.12
820.64	1249.26
820.81	1157.10
820.98	1310.70
821.15	1198.06
821.33	1247.21
821.50	1300.46
821.67	1325.04
821.84	1253.36
822.02	1255.40
822.19	1310.70
822.36	1290.22
822.53	1279.98
822.70	1288.17
822.88	1253.36
823.05	1259.50
823.22	1253.36
823.39	1290.22
823.56	1243.12
823.74	1279.98
823.91	1216.49
824.08	1255.40
824.25	1306.60
824.42	1282.03
824.60	1243.12
824.77	1288.17
824.94	1196.01
825.11	1222.64
825.28	1296.36
825.45	1175.53
825.63	1167.34
825.80	1279.98
825.97	1306.60
826.14	1308.65
826.31	1243.12
826.48	1296.36
826.66	1261.55
826.83	1298.41
827.00	1279.98
827.17	1253.36
827.34	1269.74
827.51	1275.88
827.69	1292.27
827.86	1263.60
828.03	1273.84
828.20	1214.45
828.37	1310.70
828.54	1288.17
828.71	1331.18
828.89	1327.08
829.06	1230.83
829.23	1288.17
829.40	1243.12
829.57	1269.74
829.74	1277.93
829.91	1265.64
830.09	1271.79
830.26	1279.98
830.43	1212.40
830.60	1214.45
830.77	1273.84
830.94	1236.97
831.11	1218.54
831.28	1288.17
831.46	1255.40
831.63	1304.56
831.80	1273.84
831.97	1204.21
832.14	1261.55
832.31	1239.02
832.48	1269.74
832.65	1331.18
832.82	1257.45
832.99	1241.07
833.17	1208.30
833.34	1257.45
833.51	1312.75
833.68	1214.45
833.85	1234.93
834.02	1341.42
834.19	1341.42
834.36	1353.71
834.53	1251.31
834.70	1218.54
834.87	1331.18
835.04	1218.54
835.22	1185.77
835.39	1259.50
835.56	1292.27
835.73	1316.84
835.90	1249.26
836.07	1329.13
836.24	1312.75
836.41	1261.55
836.58	1296.36
836.75	1257.45
836.92	1243.12
837.09	1206.25
837.26	1212.40
837.43	1263.60
837.60	1169.39
837.77	1320.94
837.94	1200.11
838.12	1265.64
838.29	1259.50
838.46	1239.02
838.63	1269.74
838.80	1267.69
838.97	1271.79
839.14	1261.55
839.31	1204.21
839.48	1282.03
839.65	1271.79
839.82	1273.84
839.99	1173.49
840.16	1282.03
840.33	1282.03
840.50	1234.93
840.67	1290.22
840.84	1335.28
841.01	1245.16
841.18	1306.60
841.35	1216.49
841.52	1241.07
841.69	1251.31
841.86	1271.79
842.03	1302.51
842.20	1226.73
842.37	1230.83
842.54	1249.26
842.71	1302.51
842.88	1327.08
843.05	1304.56
843.22	1212.40
843.39	1257.45
843.56	1249.26
843.73	1279.98
843.90	1304.56
844.07	1236.97
844.24	1288.17
844.41	1288.17
844.58	1232.88
844.75	1275.88
844.92	1224.69
845.09	1210.35
845.26	1302.51
845.43	1269.74
845.60	1282.03
845.77	1279.98
845.94	1279.98
846.10	1230.83
846.27	1191.92
846.44	1304.56
846.61	1269.74
846.78	1239.02
846.95	1282.03
847.12	1316.84
847.29	1253.36
847.46	1251.31
847.63	1284.08
847.80	1302.51
847.97	1259.50
848.14	1269.74
848.31	1263.60
848.48	1271.79
848.65	1288.17
848.82	1239.02
848.98	1288.17
849.15	1267.69
849.32	1269.74
849.49	1271.79
849.66	1206.25
849.83	1275.88
850.00	1241.07
850.17	1271.79
850.34	1290.22
850.51	1257.45
850.68	1329.13
850.85	1220.59
851.01	1308.65
851.18	1171.44
851.35	1239.02
851.52	1263.60
851.69	1331.18
851.86	1206.25
852.03	1261.55
852.20	1300.46
852.37	1279.98
852.53	1247.21
852.70	1206.25
852.87	1267.69
853.04	1320.94
853.21	1259.50
853.38	1263.60
853.55	1284.08
853.72	1290.22
853.89	1308.65
854.05	1267.69
854.22	1288.17
854.39	1241.07
854.56	1304.56
854.73	1259.50
854.90	1300.46
855.07	1279.98
855.23	1304.56
855.40	1232.88
855.57	1331.18
855.74	1265.64
855.91	1273.84
856.08	1251.31
856.25	1234.93
856.41	1279.98
856.58	1261.55
856.75	1249.26
856.92	1273.84
857.09	1286.12
857.26	1273.84
857.42	1300.46
857.59	1275.88
857.76	1249.26
857.93	1210.35
858.10	1232.88
858.27	1202.16
858.43	1359.85
858.60	1302.51
858.77	1279.98
858.94	1292.27
859.11	1265.64
859.27	1261.55
859.44	1271.79
859.61	1292.27
859.78	1290.22
859.95	1286.12
860.12	1306.60
860.28	1259.50
860.45	1249.26
860.62	1296.36
860.79	1163.25
860.95	1239.02
861.12	1288.17
861.29	1212.40
861.46	1241.07
861.63	1273.84
861.79	1279.98
861.96	1236.97
862.13	1286.12
862.30	1286.12
862.47	1290.22
862.63	1271.79
862.80	1255.40
862.97	1214.45
863.14	1224.69
863.30	1236.97
863.47	1269.74
863.64	1249.26
863.81	1249.26
863.97	1296.36
864.14	1290.22
864.31	1343.47
864.48	1325.04
864.65	1251.31
864.81	1312.75
864.98	1265.64
865.15	1206.25
865.32	1275.88
865.48	1232.88
865.65	1294.32
865.82	1316.84
865.98	1306.60
866.15	1253.36
866.32	1230.83
866.49	1249.26
866.65	1253.36
866.82	1269.74
866.99	1208.30
867.16	1296.36
867.32	1247.21
867.49	1320.94
867.66	1198.06
867.83	1290.22
867.99	1243.12
868.16	1322.99
868.33	1265.64
868.49	1384.43
868.66	1290.22
868.83	1198.06
868.99	1232.88
869.16	1294.32
869.33	1310.70
869.50	1241.07
869.66	1288.17
869.83	1261.55
870.00	1302.51
870.16	1277.93
870.33	1247.21
870.50	1277.93
870.66	1245.16
870.83	1196.01
871.00	1296.36
871.17	1290.22
871.33	1251.31
871.50	1255.40
871.67	1236.97
871.83	1286.12
872.00	1275.88
872.17	1204.21
872.33	1261.55
872.50	1296.36
872.67	1251.31
872.83	1345.52
873.00	1187.82
873.17	1249.26
873.33	1249.26
873.50	1259.50
873.67	1249.26
873.83	1339.37
874.00	1306.60
874.16	1249.26
874.33	1302.51
874.50	1284.08
874.66	1249.26
874.83	1224.69
875.00	1185.77
875.16	1251.31
875.33	1322.99
875.50	1261.55
875.66	1206.25
875.83	1263.60
875.99	1202.16
876.16	1302.51
876.33	1284.08
876.49	1239.02
876.66	1314.80
876.83	1189.87
876.99	1247.21
877.16	1306.60
877.32	1273.84
877.49	1294.32
877.66	1243.12
877.82	1282.03
877.99	1212.40
878.15	1257.45
878.32	1327.08
878.49	1245.16
878.65	1259.50
878.82	1247.21
878.98	1312.75
879.15	1290.22
879.32	1298.41
879.48	1282.03
879.65	1249.26
879.81	1263.60
879.98	1239.02
880.15	1232.88
880.31	1284.08
880.48	1187.82
880.64	1255.40
880.81	1263.60
880.97	1273.84
881.14	1304.56
881.31	1282.03
881.47	1294.32
881.64	1245.16
881.80	1271.79
881.97	1327.08
882.13	1236.97
882.30	1251.31
882.47	1282.03
882.63	1296.36
882.80	1230.83
882.96	1206.25
883.13	1304.56
883.29	1226.73
883.46	1232.88
883.62	1214.45
883.79	1200.11
883.95	1284.08
884.12	1271.79
884.29	1282.03
884.45	1279.98
884.62	1292.27
884.78	1286.12
884.95	1300.46
885.11	1257.45
885.28	1284.08
885.44	1290.22
885.61	1265.64
885.77	1335.28
885.94	1284.08
886.10	1296.36
886.27	1228.78
886.43	1267.69
886.60	1243.12
886.76	1259.50
886.93	1193.97
887.09	1257.45
887.26	1288.17
887.42	1282.03
887.59	1306.60
887.75	1325.04
887.92	1308.65
888.08	1292.27
888.25	1339.37
888.41	1198.06
888.58	1275.88
888.74	1216.49
888.91	1241.07
>>>>>End Processed Spectral Data<<<<<
