SpectraSuite Data File
++++++++++++++++++++++++++++++++++++
Date: Sun Apr 03 19:55:16 CEST 2016
User: root
Dark Spectrum Present: No
Reference Spectrum Present: No
Number of Sampled Component Spectra: 1
Spectrometers: USB4C02835
Integration Time (usec): 10000 (USB4C02835)
Spectra Averaged: 1 (USB4C02835)
Boxcar Smoothing: 0 (USB4C02835)
Correct for Electrical Dark: No (USB4C02835)
Strobe/Lamp Enabled: No (USB4C02835)
Correct for Detector Non-linearity: No (USB4C02835)
Correct for Stray Light: No (USB4C02835)
Number of Pixels in Processed Spectrum: 3648
>>>>>Begin Processed Spectral Data<<<<<
177.47	1249.26
177.69	1249.26
177.91	1249.26
178.13	1212.40
178.36	1214.45
178.58	1308.65
178.80	1247.21
179.02	1327.08
179.24	1271.79
179.46	1224.69
179.68	1347.56
179.90	1253.36
180.13	1241.07
180.35	1243.12
180.57	1298.41
180.79	1290.22
181.01	1318.89
181.23	1347.56
181.45	1263.60
181.67	1234.93
181.90	1316.84
182.12	1249.26
182.34	1222.64
182.56	1267.69
182.78	1187.82
183.00	1263.60
183.22	1222.64
183.44	1261.55
183.66	1226.73
183.89	1247.21
184.11	1282.03
184.33	1275.88
184.55	1173.49
184.77	1236.97
184.99	1288.17
185.21	1279.98
185.43	1282.03
185.65	1261.55
185.87	1296.36
186.10	1308.65
186.32	1271.79
186.54	1327.08
186.76	1275.88
186.98	1275.88
187.20	1306.60
187.42	1282.03
187.64	1363.95
187.86	1273.84
188.08	1290.22
188.30	1224.69
188.52	1333.23
188.75	1265.64
188.97	1314.80
189.19	1296.36
189.41	1318.89
189.63	1218.54
189.85	1169.39
190.07	1273.84
190.29	1331.18
190.51	1273.84
190.73	1263.60
190.95	1288.17
191.17	1251.31
191.39	1275.88
191.61	1310.70
191.84	1290.22
192.06	1292.27
192.28	1222.64
192.50	1282.03
192.72	1232.88
192.94	1243.12
193.16	1327.08
193.38	1284.08
193.60	1255.40
193.82	1259.50
194.04	1279.98
194.26	1208.30
194.48	1286.12
194.70	1230.83
194.92	1249.26
195.14	1189.87
195.36	1335.28
195.58	1236.97
195.80	1185.77
196.02	1222.64
196.24	1257.45
196.46	1298.41
196.69	1243.12
196.91	1234.93
197.13	1263.60
197.35	1224.69
197.57	1261.55
197.79	1265.64
198.01	1253.36
198.23	1251.31
198.45	1263.60
198.67	1267.69
198.89	1269.74
199.11	1241.07
199.33	1251.31
199.55	1224.69
199.77	1255.40
199.99	1284.08
200.21	1241.07
200.43	1259.50
200.65	1296.36
200.87	1314.80
201.09	1253.36
201.31	1253.36
201.53	1269.74
201.75	1241.07
201.97	1191.92
202.19	1249.26
202.41	1239.02
202.63	1277.93
202.85	1239.02
203.07	1234.93
203.29	1290.22
203.51	1251.31
203.73	1241.07
203.95	1284.08
204.17	1208.30
204.39	1314.80
204.61	1241.07
204.83	1329.13
205.05	1337.32
205.27	1236.97
205.49	1241.07
205.71	1257.45
205.93	1243.12
206.15	1345.52
206.37	1288.17
206.59	1275.88
206.81	1153.01
207.03	1333.23
207.25	1273.84
207.47	1308.65
207.69	1288.17
207.91	1304.56
208.13	1210.35
208.34	1294.32
208.56	1316.84
208.78	1241.07
209.00	1255.40
209.22	1232.88
209.44	1263.60
209.66	1282.03
209.88	1249.26
210.10	1277.93
210.32	1265.64
210.54	1308.65
210.76	1224.69
210.98	1230.83
211.20	1255.40
211.42	1247.21
211.64	1275.88
211.86	1277.93
212.08	1216.49
212.30	1273.84
212.52	1292.27
212.74	1249.26
212.96	1294.32
213.17	1249.26
213.39	1173.49
213.61	1259.50
213.83	1220.59
214.05	1282.03
214.27	1279.98
214.49	1202.16
214.71	1271.79
214.93	1290.22
215.15	1347.56
215.37	1290.22
215.59	1206.25
215.81	1247.21
216.03	1314.80
216.24	1333.23
216.46	1273.84
216.68	1314.80
216.90	1247.21
217.12	1243.12
217.34	1245.16
217.56	1265.64
217.78	1253.36
218.00	1298.41
218.22	1284.08
218.44	1247.21
218.66	1257.45
218.87	1245.16
219.09	1269.74
219.31	1267.69
219.53	1286.12
219.75	1286.12
219.97	1226.73
220.19	1257.45
220.41	1222.64
220.63	1263.60
220.85	1236.97
221.06	1265.64
221.28	1314.80
221.50	1288.17
221.72	1284.08
221.94	1259.50
222.16	1259.50
222.38	1255.40
222.60	1251.31
222.82	1269.74
223.03	1273.84
223.25	1269.74
223.47	1298.41
223.69	1187.82
223.91	1261.55
224.13	1228.78
224.35	1271.79
224.57	1265.64
224.78	1257.45
225.00	1282.03
225.22	1230.83
225.44	1259.50
225.66	1282.03
225.88	1257.45
226.10	1236.97
226.32	1275.88
226.53	1257.45
226.75	1298.41
226.97	1314.80
227.19	1212.40
227.41	1288.17
227.63	1286.12
227.85	1236.97
228.06	1236.97
228.28	1216.49
228.50	1269.74
228.72	1288.17
228.94	1241.07
229.16	1290.22
229.37	1341.42
229.59	1255.40
229.81	1290.22
230.03	1257.45
230.25	1298.41
230.47	1218.54
230.69	1198.06
230.90	1296.36
231.12	1234.93
231.34	1271.79
231.56	1247.21
231.78	1294.32
232.00	1339.37
232.21	1308.65
232.43	1296.36
232.65	1316.84
232.87	1253.36
233.09	1226.73
233.30	1263.60
233.52	1257.45
233.74	1282.03
233.96	1243.12
234.18	1269.74
234.40	1300.46
234.61	1236.97
234.83	1263.60
235.05	1247.21
235.27	1269.74
235.49	1265.64
235.70	1257.45
235.92	1261.55
236.14	1247.21
236.36	1265.64
236.58	1185.77
236.79	1212.40
237.01	1157.10
237.23	1273.84
237.45	1232.88
237.67	1230.83
237.88	1214.45
238.10	1288.17
238.32	1263.60
238.54	1316.84
238.76	1239.02
238.97	1253.36
239.19	1296.36
239.41	1298.41
239.63	1255.40
239.85	1245.16
240.06	1255.40
240.28	1314.80
240.50	1325.04
240.72	1288.17
240.93	1304.56
241.15	1243.12
241.37	1249.26
241.59	1302.51
241.81	1193.97
242.02	1265.64
242.24	1249.26
242.46	1263.60
242.68	1249.26
242.89	1296.36
243.11	1298.41
243.33	1265.64
243.55	1279.98
243.76	1312.75
243.98	1271.79
244.20	1290.22
244.42	1269.74
244.64	1277.93
244.85	1320.94
245.07	1273.84
245.29	1157.10
245.51	1284.08
245.72	1265.64
245.94	1331.18
246.16	1292.27
246.38	1306.60
246.59	1255.40
246.81	1206.25
247.03	1308.65
247.24	1310.70
247.46	1173.49
247.68	1257.45
247.90	1300.46
248.11	1226.73
248.33	1228.78
248.55	1296.36
248.77	1322.99
248.98	1316.84
249.20	1335.28
249.42	1284.08
249.64	1269.74
249.85	1212.40
250.07	1269.74
250.29	1314.80
250.50	1253.36
250.72	1208.30
250.94	1306.60
251.16	1273.84
251.37	1275.88
251.59	1241.07
251.81	1220.59
252.02	1298.41
252.24	1312.75
252.46	1236.97
252.68	1253.36
252.89	1290.22
253.11	1286.12
253.33	1249.26
253.54	1222.64
253.76	1259.50
253.98	1337.32
254.20	1259.50
254.41	1210.35
254.63	1296.36
254.85	1212.40
255.06	1226.73
255.28	1298.41
255.50	1271.79
255.71	1279.98
255.93	1247.21
256.15	1249.26
256.36	1230.83
256.58	1245.16
256.80	1206.25
257.02	1322.99
257.23	1234.93
257.45	1181.68
257.67	1228.78
257.88	1216.49
258.10	1193.97
258.32	1196.01
258.53	1290.22
258.75	1263.60
258.97	1329.13
259.18	1177.58
259.40	1312.75
259.62	1298.41
259.83	1265.64
260.05	1282.03
260.27	1255.40
260.48	1236.97
260.70	1306.60
260.92	1312.75
261.13	1312.75
261.35	1204.21
261.57	1206.25
261.78	1322.99
262.00	1275.88
262.22	1279.98
262.43	1290.22
262.65	1331.18
262.86	1206.25
263.08	1337.32
263.30	1306.60
263.51	1282.03
263.73	1277.93
263.95	1265.64
264.16	1232.88
264.38	1290.22
264.60	1275.88
264.81	1331.18
265.03	1310.70
265.25	1292.27
265.46	1290.22
265.68	1296.36
265.89	1300.46
266.11	1202.16
266.33	1294.32
266.54	1314.80
266.76	1288.17
266.98	1322.99
267.19	1265.64
267.41	1277.93
267.62	1259.50
267.84	1220.59
268.06	1218.54
268.27	1316.84
268.49	1347.56
268.70	1261.55
268.92	1288.17
269.14	1284.08
269.35	1200.11
269.57	1386.47
269.79	1245.16
270.00	1265.64
270.22	1224.69
270.43	1275.88
270.65	1333.23
270.87	1302.51
271.08	1263.60
271.30	1279.98
271.51	1165.29
271.73	1290.22
271.95	1239.02
272.16	1216.49
272.38	1243.12
272.59	1267.69
272.81	1271.79
273.02	1284.08
273.24	1290.22
273.46	1277.93
273.67	1273.84
273.89	1241.07
274.10	1273.84
274.32	1222.64
274.54	1255.40
274.75	1206.25
274.97	1226.73
275.18	1312.75
275.40	1245.16
275.61	1294.32
275.83	1218.54
276.05	1239.02
276.26	1208.30
276.48	1298.41
276.69	1296.36
276.91	1230.83
277.12	1255.40
277.34	1292.27
277.55	1257.45
277.77	1333.23
277.99	1265.64
278.20	1259.50
278.42	1277.93
278.63	1294.32
278.85	1322.99
279.06	1230.83
279.28	1284.08
279.49	1288.17
279.71	1290.22
279.93	1196.01
280.14	1261.55
280.36	1277.93
280.57	1230.83
280.79	1210.35
281.00	1241.07
281.22	1286.12
281.43	1226.73
281.65	1212.40
281.86	1282.03
282.08	1298.41
282.29	1294.32
282.51	1208.30
282.73	1308.65
282.94	1353.71
283.16	1318.89
283.37	1218.54
283.59	1279.98
283.80	1241.07
284.02	1286.12
284.23	1282.03
284.45	1286.12
284.66	1288.17
284.88	1261.55
285.09	1279.98
285.31	1189.87
285.52	1255.40
285.74	1277.93
285.95	1275.88
286.17	1269.74
286.38	1208.30
286.60	1247.21
286.81	1249.26
287.03	1263.60
287.24	1302.51
287.46	1183.73
287.67	1279.98
287.89	1247.21
288.10	1179.63
288.32	1269.74
288.53	1165.29
288.75	1302.51
288.96	1247.21
289.18	1236.97
289.39	1282.03
289.61	1261.55
289.82	1212.40
290.04	1345.52
290.25	1263.60
290.47	1325.04
290.68	1236.97
290.90	1218.54
291.11	1282.03
291.33	1232.88
291.54	1255.40
291.76	1294.32
291.97	1263.60
292.18	1251.31
292.40	1259.50
292.61	1322.99
292.83	1228.78
293.04	1277.93
293.26	1300.46
293.47	1232.88
293.69	1277.93
293.90	1286.12
294.12	1232.88
294.33	1261.55
294.55	1245.16
294.76	1308.65
294.97	1282.03
295.19	1288.17
295.40	1257.45
295.62	1245.16
295.83	1255.40
296.05	1247.21
296.26	1271.79
296.48	1296.36
296.69	1279.98
296.90	1249.26
297.12	1304.56
297.33	1226.73
297.55	1265.64
297.76	1226.73
297.98	1210.35
298.19	1243.12
298.41	1259.50
298.62	1290.22
298.83	1230.83
299.05	1279.98
299.26	1275.88
299.48	1241.07
299.69	1302.51
299.90	1310.70
300.12	1138.67
300.33	1327.08
300.55	1255.40
300.76	1239.02
300.98	1312.75
301.19	1191.92
301.40	1234.93
301.62	1261.55
301.83	1263.60
302.05	1306.60
302.26	1216.49
302.47	1318.89
302.69	1261.55
302.90	1216.49
303.12	1255.40
303.33	1214.45
303.54	1214.45
303.76	1177.58
303.97	1302.51
304.19	1320.94
304.40	1282.03
304.61	1226.73
304.83	1282.03
305.04	1284.08
305.26	1265.64
305.47	1239.02
305.68	1284.08
305.90	1241.07
306.11	1304.56
306.33	1269.74
306.54	1245.16
306.75	1249.26
306.97	1290.22
307.18	1220.59
307.39	1277.93
307.61	1290.22
307.82	1279.98
308.04	1290.22
308.25	1308.65
308.46	1304.56
308.68	1228.78
308.89	1271.79
309.10	1275.88
309.32	1267.69
309.53	1249.26
309.74	1263.60
309.96	1277.93
310.17	1359.85
310.39	1302.51
310.60	1234.93
310.81	1218.54
311.03	1232.88
311.24	1259.50
311.45	1277.93
311.67	1230.83
311.88	1288.17
312.09	1253.36
312.31	1222.64
312.52	1189.87
312.73	1306.60
312.95	1200.11
313.16	1314.80
313.37	1275.88
313.59	1222.64
313.80	1220.59
314.01	1310.70
314.23	1265.64
314.44	1310.70
314.65	1230.83
314.87	1271.79
315.08	1279.98
315.29	1325.04
315.51	1284.08
315.72	1306.60
315.93	1261.55
316.15	1302.51
316.36	1249.26
316.57	1265.64
316.79	1310.70
317.00	1277.93
317.21	1212.40
317.43	1226.73
317.64	1275.88
317.85	1247.21
318.07	1239.02
318.28	1239.02
318.49	1224.69
318.70	1249.26
318.92	1230.83
319.13	1290.22
319.34	1282.03
319.56	1290.22
319.77	1232.88
319.98	1251.31
320.20	1261.55
320.41	1277.93
320.62	1296.36
320.83	1206.25
321.05	1247.21
321.26	1318.89
321.47	1320.94
321.69	1265.64
321.90	1249.26
322.11	1282.03
322.32	1249.26
322.54	1294.32
322.75	1218.54
322.96	1255.40
323.18	1279.98
323.39	1304.56
323.60	1236.97
323.81	1333.23
324.03	1267.69
324.24	1275.88
324.45	1249.26
324.66	1251.31
324.88	1329.13
325.09	1292.27
325.30	1325.04
325.52	1302.51
325.73	1249.26
325.94	1288.17
326.15	1249.26
326.37	1239.02
326.58	1316.84
326.79	1292.27
327.00	1312.75
327.22	1241.07
327.43	1294.32
327.64	1333.23
327.85	1241.07
328.07	1265.64
328.28	1271.79
328.49	1298.41
328.70	1284.08
328.92	1204.21
329.13	1314.80
329.34	1312.75
329.55	1337.32
329.76	1267.69
329.98	1325.04
330.19	1247.21
330.40	1345.52
330.61	1208.30
330.83	1279.98
331.04	1298.41
331.25	1255.40
331.46	1236.97
331.68	1259.50
331.89	1347.56
332.10	1263.60
332.31	1327.08
332.52	1302.51
332.74	1271.79
332.95	1222.64
333.16	1288.17
333.37	1271.79
333.58	1243.12
333.80	1306.60
334.01	1245.16
334.22	1288.17
334.43	1271.79
334.64	1167.34
334.86	1267.69
335.07	1310.70
335.28	1300.46
335.49	1263.60
335.70	1255.40
335.92	1286.12
336.13	1288.17
336.34	1267.69
336.55	1226.73
336.76	1296.36
336.98	1390.57
337.19	1290.22
337.40	1185.77
337.61	1212.40
337.82	1228.78
338.04	1263.60
338.25	1222.64
338.46	1228.78
338.67	1245.16
338.88	1271.79
339.09	1273.84
339.31	1245.16
339.52	1288.17
339.73	1243.12
339.94	1273.84
340.15	1275.88
340.36	1247.21
340.58	1347.56
340.79	1288.17
341.00	1269.74
341.21	1296.36
341.42	1200.11
341.63	1302.51
341.85	1232.88
342.06	1263.60
342.27	1249.26
342.48	1306.60
342.69	1271.79
342.90	1247.21
343.12	1294.32
343.33	1331.18
343.54	1228.78
343.75	1251.31
343.96	1290.22
344.17	1200.11
344.38	1273.84
344.60	1308.65
344.81	1290.22
345.02	1212.40
345.23	1214.45
345.44	1314.80
345.65	1232.88
345.86	1286.12
346.07	1247.21
346.29	1261.55
346.50	1253.36
346.71	1292.27
346.92	1245.16
347.13	1304.56
347.34	1247.21
347.55	1314.80
347.76	1318.89
347.98	1304.56
348.19	1226.73
348.40	1265.64
348.61	1310.70
348.82	1255.40
349.03	1236.97
349.24	1275.88
349.45	1277.93
349.66	1265.64
349.88	1247.21
350.09	1329.13
350.30	1263.60
350.51	1198.06
350.72	1292.27
350.93	1263.60
351.14	1294.32
351.35	1245.16
351.56	1265.64
351.77	1288.17
351.99	1243.12
352.20	1288.17
352.41	1312.75
352.62	1253.36
352.83	1187.82
353.04	1265.64
353.25	1243.12
353.46	1275.88
353.67	1214.45
353.88	1304.56
354.09	1261.55
354.30	1284.08
354.52	1304.56
354.73	1310.70
354.94	1224.69
355.15	1282.03
355.36	1214.45
355.57	1265.64
355.78	1273.84
355.99	1253.36
356.20	1236.97
356.41	1259.50
356.62	1249.26
356.83	1259.50
357.04	1236.97
357.25	1345.52
357.46	1296.36
357.68	1259.50
357.89	1273.84
358.10	1279.98
358.31	1325.04
358.52	1298.41
358.73	1286.12
358.94	1269.74
359.15	1282.03
359.36	1251.31
359.57	1175.53
359.78	1284.08
359.99	1234.93
360.20	1255.40
360.41	1208.30
360.62	1230.83
360.83	1251.31
361.04	1257.45
361.25	1220.59
361.46	1271.79
361.67	1230.83
361.88	1296.36
362.09	1226.73
362.30	1300.46
362.51	1206.25
362.72	1279.98
362.93	1206.25
363.14	1263.60
363.35	1271.79
363.56	1292.27
363.78	1206.25
363.99	1210.35
364.20	1236.97
364.41	1292.27
364.62	1269.74
364.83	1290.22
365.04	1286.12
365.25	1310.70
365.46	1318.89
365.67	1239.02
365.88	1249.26
366.09	1300.46
366.30	1267.69
366.51	1284.08
366.72	1290.22
366.93	1171.44
367.14	1232.88
367.35	1265.64
367.56	1224.69
367.77	1312.75
367.98	1318.89
368.18	1318.89
368.39	1150.96
368.60	1234.93
368.81	1259.50
369.02	1331.18
369.23	1187.82
369.44	1234.93
369.65	1249.26
369.86	1304.56
370.07	1255.40
370.28	1255.40
370.49	1318.89
370.70	1292.27
370.91	1269.74
371.12	1347.56
371.33	1212.40
371.54	1284.08
371.75	1259.50
371.96	1271.79
372.17	1312.75
372.38	1273.84
372.59	1212.40
372.80	1193.97
373.01	1284.08
373.22	1275.88
373.43	1329.13
373.64	1282.03
373.85	1345.52
374.06	1331.18
374.26	1290.22
374.47	1263.60
374.68	1282.03
374.89	1308.65
375.10	1290.22
375.31	1277.93
375.52	1251.31
375.73	1212.40
375.94	1265.64
376.15	1300.46
376.36	1245.16
376.57	1288.17
376.78	1284.08
376.99	1191.92
377.20	1206.25
377.40	1284.08
377.61	1236.97
377.82	1306.60
378.03	1292.27
378.24	1337.32
378.45	1282.03
378.66	1314.80
378.87	1245.16
379.08	1290.22
379.29	1259.50
379.50	1263.60
379.71	1331.18
379.91	1234.93
380.12	1265.64
380.33	1247.21
380.54	1181.68
380.75	1232.88
380.96	1212.40
381.17	1269.74
381.38	1310.70
381.59	1261.55
381.80	1212.40
382.00	1316.84
382.21	1327.08
382.42	1335.28
382.63	1267.69
382.84	1214.45
383.05	1292.27
383.26	1320.94
383.47	1206.25
383.68	1337.32
383.88	1271.79
384.09	1216.49
384.30	1269.74
384.51	1249.26
384.72	1322.99
384.93	1249.26
385.14	1259.50
385.35	1300.46
385.55	1255.40
385.76	1196.01
385.97	1277.93
386.18	1345.52
386.39	1175.53
386.60	1245.16
386.81	1202.16
387.02	1236.97
387.22	1325.04
387.43	1300.46
387.64	1304.56
387.85	1218.54
388.06	1255.40
388.27	1179.63
388.48	1273.84
388.68	1228.78
388.89	1294.32
389.10	1304.56
389.31	1245.16
389.52	1286.12
389.73	1292.27
389.93	1284.08
390.14	1284.08
390.35	1275.88
390.56	1267.69
390.77	1267.69
390.98	1222.64
391.18	1228.78
391.39	1253.36
391.60	1279.98
391.81	1282.03
392.02	1290.22
392.23	1226.73
392.43	1294.32
392.64	1284.08
392.85	1251.31
393.06	1251.31
393.27	1282.03
393.47	1169.39
393.68	1339.37
393.89	1253.36
394.10	1320.94
394.31	1234.93
394.52	1159.15
394.72	1224.69
394.93	1224.69
395.14	1322.99
395.35	1245.16
395.56	1361.90
395.76	1208.30
395.97	1257.45
396.18	1298.41
396.39	1265.64
396.60	1279.98
396.80	1277.93
397.01	1243.12
397.22	1253.36
397.43	1343.47
397.64	1284.08
397.84	1222.64
398.05	1269.74
398.26	1253.36
398.47	1255.40
398.67	1263.60
398.88	1304.56
399.09	1306.60
399.30	1210.35
399.51	1290.22
399.71	1245.16
399.92	1269.74
400.13	1269.74
400.34	1314.80
400.54	1259.50
400.75	1228.78
400.96	1259.50
401.17	1247.21
401.37	1273.84
401.58	1316.84
401.79	1263.60
402.00	1282.03
402.21	1304.56
402.41	1249.26
402.62	1275.88
402.83	1222.64
403.04	1257.45
403.24	1331.18
403.45	1230.83
403.66	1300.46
403.87	1245.16
404.07	1257.45
404.28	1351.66
404.49	1288.17
404.70	1228.78
404.90	1255.40
405.11	1224.69
405.32	1294.32
405.52	1249.26
405.73	1263.60
405.94	1312.75
406.15	1290.22
406.35	1220.59
406.56	1322.99
406.77	1196.01
406.98	1259.50
407.18	1216.49
407.39	1302.51
407.60	1302.51
407.80	1271.79
408.01	1355.76
408.22	1298.41
408.43	1212.40
408.63	1255.40
408.84	1335.28
409.05	1259.50
409.25	1380.33
409.46	1257.45
409.67	1310.70
409.88	1304.56
410.08	1255.40
410.29	1265.64
410.50	1245.16
410.70	1216.49
410.91	1230.83
411.12	1169.39
411.32	1263.60
411.53	1267.69
411.74	1236.97
411.95	1288.17
412.15	1206.25
412.36	1263.60
412.57	1298.41
412.77	1247.21
412.98	1220.59
413.19	1341.42
413.39	1255.40
413.60	1306.60
413.81	1210.35
414.01	1214.45
414.22	1296.36
414.43	1200.11
414.63	1220.59
414.84	1263.60
415.05	1228.78
415.25	1259.50
415.46	1329.13
415.67	1226.73
415.87	1282.03
416.08	1253.36
416.29	1286.12
416.49	1320.94
416.70	1335.28
416.91	1271.79
417.11	1232.88
417.32	1292.27
417.53	1290.22
417.73	1257.45
417.94	1286.12
418.15	1282.03
418.35	1255.40
418.56	1306.60
418.77	1288.17
418.97	1298.41
419.18	1277.93
419.38	1290.22
419.59	1320.94
419.80	1333.23
420.00	1220.59
420.21	1271.79
420.42	1234.93
420.62	1331.18
420.83	1343.47
421.04	1249.26
421.24	1306.60
421.45	1261.55
421.65	1202.16
421.86	1327.08
422.07	1318.89
422.27	1167.34
422.48	1249.26
422.69	1267.69
422.89	1257.45
423.10	1275.88
423.30	1247.21
423.51	1220.59
423.72	1294.32
423.92	1189.87
424.13	1253.36
424.33	1236.97
424.54	1232.88
424.75	1296.36
424.95	1331.18
425.16	1345.52
425.36	1267.69
425.57	1290.22
425.78	1212.40
425.98	1282.03
426.19	1292.27
426.39	1265.64
426.60	1265.64
426.81	1247.21
427.01	1310.70
427.22	1247.21
427.42	1294.32
427.63	1298.41
427.83	1255.40
428.04	1298.41
428.25	1253.36
428.45	1208.30
428.66	1277.93
428.86	1189.87
429.07	1269.74
429.28	1296.36
429.48	1273.84
429.69	1353.71
429.89	1294.32
430.10	1257.45
430.30	1282.03
430.51	1245.16
430.71	1271.79
430.92	1269.74
431.13	1241.07
431.33	1312.75
431.54	1277.93
431.74	1271.79
431.95	1318.89
432.15	1282.03
432.36	1224.69
432.56	1296.36
432.77	1212.40
432.98	1216.49
433.18	1165.29
433.39	1333.23
433.59	1261.55
433.80	1247.21
434.00	1261.55
434.21	1251.31
434.41	1294.32
434.62	1265.64
434.82	1200.11
435.03	1269.74
435.23	1271.79
435.44	1386.47
435.64	1247.21
435.85	1296.36
436.06	1253.36
436.26	1288.17
436.47	1269.74
436.67	1337.32
436.88	1249.26
437.08	1232.88
437.29	1284.08
437.49	1269.74
437.70	1189.87
437.90	1261.55
438.11	1261.55
438.31	1275.88
438.52	1279.98
438.72	1239.02
438.93	1267.69
439.13	1265.64
439.34	1210.35
439.54	1265.64
439.75	1257.45
439.95	1302.51
440.16	1275.88
440.36	1232.88
440.57	1220.59
440.77	1269.74
440.98	1318.89
441.18	1335.28
441.39	1253.36
441.59	1284.08
441.80	1222.64
442.00	1306.60
442.21	1314.80
442.41	1261.55
442.62	1210.35
442.82	1298.41
443.02	1236.97
443.23	1290.22
443.43	1329.13
443.64	1335.28
443.84	1226.73
444.05	1322.99
444.25	1370.09
444.46	1257.45
444.66	1261.55
444.87	1222.64
445.07	1267.69
445.28	1382.38
445.48	1275.88
445.69	1304.56
445.89	1236.97
446.09	1294.32
446.30	1202.16
446.50	1314.80
446.71	1218.54
446.91	1234.93
447.12	1224.69
447.32	1386.47
447.53	1304.56
447.73	1251.31
447.93	1302.51
448.14	1253.36
448.34	1325.04
448.55	1288.17
448.75	1253.36
448.96	1228.78
449.16	1279.98
449.36	1275.88
449.57	1304.56
449.77	1232.88
449.98	1267.69
450.18	1230.83
450.39	1329.13
450.59	1302.51
450.79	1249.26
451.00	1269.74
451.20	1331.18
451.41	1310.70
451.61	1230.83
451.81	1343.47
452.02	1247.21
452.22	1302.51
452.43	1267.69
452.63	1191.92
452.84	1275.88
453.04	1304.56
453.24	1337.32
453.45	1261.55
453.65	1234.93
453.86	1232.88
454.06	1329.13
454.26	1279.98
454.47	1286.12
454.67	1294.32
454.87	1284.08
455.08	1269.74
455.28	1253.36
455.49	1249.26
455.69	1224.69
455.89	1265.64
456.10	1335.28
456.30	1314.80
456.51	1257.45
456.71	1282.03
456.91	1236.97
457.12	1271.79
457.32	1294.32
457.52	1290.22
457.73	1261.55
457.93	1300.46
458.14	1308.65
458.34	1271.79
458.54	1302.51
458.75	1306.60
458.95	1327.08
459.15	1193.97
459.36	1306.60
459.56	1232.88
459.76	1226.73
459.97	1277.93
460.17	1312.75
460.37	1316.84
460.58	1265.64
460.78	1335.28
460.99	1322.99
461.19	1314.80
461.39	1263.60
461.60	1251.31
461.80	1234.93
462.00	1234.93
462.21	1331.18
462.41	1265.64
462.61	1265.64
462.82	1286.12
463.02	1347.56
463.22	1226.73
463.43	1282.03
463.63	1288.17
463.83	1196.01
464.04	1249.26
464.24	1265.64
464.44	1267.69
464.64	1290.22
464.85	1320.94
465.05	1247.21
465.25	1202.16
465.46	1345.52
465.66	1282.03
465.86	1265.64
466.07	1226.73
466.27	1234.93
466.47	1271.79
466.68	1277.93
466.88	1259.50
467.08	1224.69
467.29	1298.41
467.49	1228.78
467.69	1282.03
467.89	1339.37
468.10	1241.07
468.30	1271.79
468.50	1304.56
468.71	1288.17
468.91	1327.08
469.11	1245.16
469.31	1265.64
469.52	1335.28
469.72	1355.76
469.92	1265.64
470.13	1249.26
470.33	1241.07
470.53	1333.23
470.73	1232.88
470.94	1277.93
471.14	1314.80
471.34	1206.25
471.54	1251.31
471.75	1296.36
471.95	1320.94
472.15	1290.22
472.36	1269.74
472.56	1273.84
472.76	1279.98
472.96	1288.17
473.17	1247.21
473.37	1286.12
473.57	1257.45
473.77	1294.32
473.98	1243.12
474.18	1314.80
474.38	1267.69
474.58	1329.13
474.79	1271.79
474.99	1224.69
475.19	1277.93
475.39	1290.22
475.60	1247.21
475.80	1302.51
476.00	1331.18
476.20	1279.98
476.41	1226.73
476.61	1263.60
476.81	1286.12
477.01	1296.36
477.21	1265.64
477.42	1263.60
477.62	1282.03
477.82	1181.68
478.02	1320.94
478.23	1366.00
478.43	1255.40
478.63	1220.59
478.83	1259.50
479.03	1306.60
479.24	1300.46
479.44	1273.84
479.64	1255.40
479.84	1275.88
480.04	1339.37
480.25	1339.37
480.45	1261.55
480.65	1216.49
480.85	1296.36
481.06	1308.65
481.26	1228.78
481.46	1247.21
481.66	1302.51
481.86	1310.70
482.06	1198.06
482.27	1273.84
482.47	1183.73
482.67	1271.79
482.87	1267.69
483.07	1318.89
483.28	1196.01
483.48	1284.08
483.68	1329.13
483.88	1337.32
484.08	1249.26
484.29	1306.60
484.49	1224.69
484.69	1282.03
484.89	1286.12
485.09	1284.08
485.29	1236.97
485.50	1314.80
485.70	1204.21
485.90	1275.88
486.10	1316.84
486.30	1316.84
486.50	1273.84
486.71	1255.40
486.91	1265.64
487.11	1255.40
487.31	1243.12
487.51	1304.56
487.71	1239.02
487.91	1249.26
488.12	1312.75
488.32	1273.84
488.52	1263.60
488.72	1255.40
488.92	1290.22
489.12	1263.60
489.32	1273.84
489.53	1341.42
489.73	1282.03
489.93	1337.32
490.13	1234.93
490.33	1232.88
490.53	1304.56
490.73	1288.17
490.94	1277.93
491.14	1271.79
491.34	1265.64
491.54	1347.56
491.74	1282.03
491.94	1230.83
492.14	1247.21
492.34	1212.40
492.54	1351.66
492.75	1255.40
492.95	1277.93
493.15	1226.73
493.35	1271.79
493.55	1282.03
493.75	1251.31
493.95	1251.31
494.15	1220.59
494.35	1308.65
494.56	1296.36
494.76	1251.31
494.96	1228.78
495.16	1224.69
495.36	1241.07
495.56	1343.47
495.76	1279.98
495.96	1302.51
496.16	1269.74
496.36	1292.27
496.56	1282.03
496.77	1245.16
496.97	1206.25
497.17	1343.47
497.37	1337.32
497.57	1224.69
497.77	1329.13
497.97	1310.70
498.17	1339.37
498.37	1222.64
498.57	1298.41
498.77	1290.22
498.97	1294.32
499.17	1277.93
499.38	1239.02
499.58	1239.02
499.78	1259.50
499.98	1294.32
500.18	1232.88
500.38	1284.08
500.58	1200.11
500.78	1273.84
500.98	1298.41
501.18	1257.45
501.38	1196.01
501.58	1345.52
501.78	1300.46
501.98	1232.88
502.18	1339.37
502.38	1314.80
502.58	1282.03
502.78	1288.17
502.98	1298.41
503.18	1331.18
503.38	1275.88
503.59	1255.40
503.79	1308.65
503.99	1312.75
504.19	1265.64
504.39	1290.22
504.59	1282.03
504.79	1273.84
504.99	1333.23
505.19	1329.13
505.39	1257.45
505.59	1206.25
505.79	1265.64
505.99	1216.49
506.19	1316.84
506.39	1310.70
506.59	1269.74
506.79	1214.45
506.99	1245.16
507.19	1339.37
507.39	1265.64
507.59	1322.99
507.79	1298.41
507.99	1273.84
508.19	1314.80
508.39	1337.32
508.59	1304.56
508.79	1245.16
508.99	1251.31
509.19	1275.88
509.39	1279.98
509.59	1310.70
509.79	1304.56
509.99	1189.87
510.19	1300.46
510.39	1257.45
510.59	1230.83
510.79	1349.61
510.99	1265.64
511.19	1282.03
511.39	1318.89
511.59	1253.36
511.79	1302.51
511.99	1277.93
512.19	1308.65
512.38	1318.89
512.58	1312.75
512.78	1339.37
512.98	1290.22
513.18	1306.60
513.38	1279.98
513.58	1257.45
513.78	1339.37
513.98	1314.80
514.18	1247.21
514.38	1265.64
514.58	1302.51
514.78	1214.45
514.98	1214.45
515.18	1277.93
515.38	1257.45
515.58	1239.02
515.78	1216.49
515.98	1327.08
516.18	1316.84
516.38	1331.18
516.57	1243.12
516.77	1290.22
516.97	1259.50
517.17	1325.04
517.37	1196.01
517.57	1347.56
517.77	1277.93
517.97	1275.88
518.17	1253.36
518.37	1296.36
518.57	1247.21
518.77	1320.94
518.97	1292.27
519.16	1271.79
519.36	1263.60
519.56	1277.93
519.76	1232.88
519.96	1155.05
520.16	1245.16
520.36	1249.26
520.56	1257.45
520.76	1269.74
520.96	1288.17
521.16	1308.65
521.35	1329.13
521.55	1284.08
521.75	1306.60
521.95	1173.49
522.15	1329.13
522.35	1261.55
522.55	1331.18
522.75	1255.40
522.95	1267.69
523.14	1263.60
523.34	1284.08
523.54	1294.32
523.74	1314.80
523.94	1263.60
524.14	1245.16
524.34	1273.84
524.54	1247.21
524.73	1277.93
524.93	1290.22
525.13	1304.56
525.33	1314.80
525.53	1232.88
525.73	1308.65
525.93	1327.08
526.13	1310.70
526.32	1312.75
526.52	1269.74
526.72	1249.26
526.92	1257.45
527.12	1294.32
527.32	1286.12
527.52	1284.08
527.71	1269.74
527.91	1277.93
528.11	1284.08
528.31	1253.36
528.51	1296.36
528.71	1273.84
528.90	1210.35
529.10	1269.74
529.30	1300.46
529.50	1277.93
529.70	1271.79
529.90	1288.17
530.09	1234.93
530.29	1269.74
530.49	1249.26
530.69	1292.27
530.89	1318.89
531.09	1302.51
531.28	1232.88
531.48	1267.69
531.68	1327.08
531.88	1275.88
532.08	1294.32
532.28	1259.50
532.47	1308.65
532.67	1390.57
532.87	1257.45
533.07	1304.56
533.27	1298.41
533.46	1279.98
533.66	1218.54
533.86	1241.07
534.06	1292.27
534.26	1316.84
534.45	1279.98
534.65	1255.40
534.85	1308.65
535.05	1273.84
535.25	1286.12
535.44	1243.12
535.64	1304.56
535.84	1288.17
536.04	1302.51
536.24	1302.51
536.43	1247.21
536.63	1325.04
536.83	1253.36
537.03	1288.17
537.22	1269.74
537.42	1259.50
537.62	1234.93
537.82	1257.45
538.02	1269.74
538.21	1189.87
538.41	1329.13
538.61	1306.60
538.81	1206.25
539.00	1368.04
539.20	1226.73
539.40	1290.22
539.60	1269.74
539.79	1191.92
539.99	1304.56
540.19	1341.42
540.39	1312.75
540.58	1318.89
540.78	1298.41
540.98	1198.06
541.18	1300.46
541.37	1337.32
541.57	1286.12
541.77	1261.55
541.97	1269.74
542.16	1220.59
542.36	1322.99
542.56	1294.32
542.76	1249.26
542.95	1308.65
543.15	1318.89
543.35	1263.60
543.54	1331.18
543.74	1351.66
543.94	1282.03
544.14	1216.49
544.33	1255.40
544.53	1228.78
544.73	1288.17
544.93	1275.88
545.12	1390.57
545.32	1257.45
545.52	1306.60
545.71	1234.93
545.91	1267.69
546.11	1267.69
546.30	1300.46
546.50	1282.03
546.70	1320.94
546.90	1241.07
547.09	1372.14
547.29	1265.64
547.49	1241.07
547.68	1265.64
547.88	1284.08
548.08	1284.08
548.27	1292.27
548.47	1312.75
548.67	1277.93
548.87	1224.69
549.06	1325.04
549.26	1327.08
549.46	1284.08
549.65	1265.64
549.85	1216.49
550.05	1329.13
550.24	1284.08
550.44	1318.89
550.64	1200.11
550.83	1300.46
551.03	1234.93
551.23	1306.60
551.42	1292.27
551.62	1255.40
551.82	1214.45
552.01	1273.84
552.21	1345.52
552.41	1329.13
552.60	1249.26
552.80	1331.18
553.00	1265.64
553.19	1220.59
553.39	1374.19
553.59	1255.40
553.78	1302.51
553.98	1306.60
554.17	1263.60
554.37	1316.84
554.57	1290.22
554.76	1220.59
554.96	1345.52
555.16	1339.37
555.35	1267.69
555.55	1288.17
555.75	1286.12
555.94	1269.74
556.14	1220.59
556.33	1304.56
556.53	1259.50
556.73	1271.79
556.92	1310.70
557.12	1271.79
557.32	1296.36
557.51	1366.00
557.71	1327.08
557.90	1243.12
558.10	1290.22
558.30	1320.94
558.49	1259.50
558.69	1304.56
558.88	1310.70
559.08	1314.80
559.28	1234.93
559.47	1290.22
559.67	1292.27
559.86	1245.16
560.06	1241.07
560.26	1275.88
560.45	1357.80
560.65	1230.83
560.84	1251.31
561.04	1265.64
561.24	1288.17
561.43	1329.13
561.63	1322.99
561.82	1294.32
562.02	1267.69
562.22	1337.32
562.41	1284.08
562.61	1273.84
562.80	1275.88
563.00	1329.13
563.19	1271.79
563.39	1271.79
563.59	1279.98
563.78	1292.27
563.98	1308.65
564.17	1359.85
564.37	1351.66
564.56	1298.41
564.76	1286.12
564.96	1327.08
565.15	1294.32
565.35	1331.18
565.54	1202.16
565.74	1282.03
565.93	1204.21
566.13	1284.08
566.32	1306.60
566.52	1249.26
566.71	1247.21
566.91	1316.84
567.11	1290.22
567.30	1247.21
567.50	1271.79
567.69	1253.36
567.89	1286.12
568.08	1314.80
568.28	1218.54
568.47	1331.18
568.67	1357.80
568.86	1251.31
569.06	1290.22
569.25	1316.84
569.45	1265.64
569.64	1267.69
569.84	1284.08
570.04	1308.65
570.23	1255.40
570.43	1294.32
570.62	1251.31
570.82	1275.88
571.01	1277.93
571.21	1249.26
571.40	1349.61
571.60	1230.83
571.79	1198.06
571.99	1279.98
572.18	1290.22
572.38	1277.93
572.57	1263.60
572.77	1277.93
572.96	1261.55
573.16	1302.51
573.35	1308.65
573.55	1337.32
573.74	1294.32
573.94	1245.16
574.13	1259.50
574.33	1261.55
574.52	1325.04
574.71	1265.64
574.91	1306.60
575.10	1251.31
575.30	1261.55
575.49	1329.13
575.69	1234.93
575.88	1253.36
576.08	1294.32
576.27	1306.60
576.47	1265.64
576.66	1275.88
576.86	1329.13
577.05	1292.27
577.25	1171.44
577.44	1286.12
577.64	1316.84
577.83	1296.36
578.02	1232.88
578.22	1302.51
578.41	1243.12
578.61	1282.03
578.80	1245.16
579.00	1249.26
579.19	1236.97
579.39	1277.93
579.58	1282.03
579.77	1339.37
579.97	1361.90
580.16	1308.65
580.36	1284.08
580.55	1249.26
580.75	1296.36
580.94	1251.31
581.13	1320.94
581.33	1325.04
581.52	1312.75
581.72	1318.89
581.91	1318.89
582.11	1357.80
582.30	1269.74
582.49	1292.27
582.69	1267.69
582.88	1331.18
583.08	1279.98
583.27	1294.32
583.47	1318.89
583.66	1243.12
583.85	1298.41
584.05	1269.74
584.24	1245.16
584.44	1300.46
584.63	1275.88
584.82	1228.78
585.02	1333.23
585.21	1296.36
585.41	1320.94
585.60	1282.03
585.79	1298.41
585.99	1304.56
586.18	1263.60
586.37	1286.12
586.57	1294.32
586.76	1345.52
586.96	1257.45
587.15	1267.69
587.34	1386.47
587.54	1275.88
587.73	1314.80
587.93	1296.36
588.12	1255.40
588.31	1296.36
588.51	1286.12
588.70	1300.46
588.89	1267.69
589.09	1290.22
589.28	1308.65
589.47	1355.76
589.67	1267.69
589.86	1300.46
590.06	1204.21
590.25	1255.40
590.44	1284.08
590.64	1282.03
590.83	1277.93
591.02	1339.37
591.22	1351.66
591.41	1290.22
591.60	1257.45
591.80	1265.64
591.99	1259.50
592.18	1273.84
592.38	1263.60
592.57	1298.41
592.76	1282.03
592.96	1322.99
593.15	1284.08
593.34	1376.24
593.54	1302.51
593.73	1306.60
593.92	1222.64
594.12	1312.75
594.31	1329.13
594.50	1282.03
594.70	1310.70
594.89	1232.88
595.08	1267.69
595.28	1263.60
595.47	1296.36
595.66	1253.36
595.86	1269.74
596.05	1363.95
596.24	1386.47
596.43	1216.49
596.63	1302.51
596.82	1277.93
597.01	1314.80
597.21	1202.16
597.40	1265.64
597.59	1261.55
597.79	1228.78
597.98	1222.64
598.17	1257.45
598.36	1290.22
598.56	1290.22
598.75	1259.50
598.94	1187.82
599.14	1286.12
599.33	1331.18
599.52	1275.88
599.71	1359.85
599.91	1284.08
600.10	1300.46
600.29	1255.40
600.48	1282.03
600.68	1284.08
600.87	1316.84
601.06	1279.98
601.26	1349.61
601.45	1228.78
601.64	1339.37
601.83	1310.70
602.03	1255.40
602.22	1308.65
602.41	1337.32
602.60	1265.64
602.80	1269.74
602.99	1251.31
603.18	1271.79
603.37	1349.61
603.57	1261.55
603.76	1265.64
603.95	1226.73
604.14	1284.08
604.34	1277.93
604.53	1236.97
604.72	1271.79
604.91	1329.13
605.10	1261.55
605.30	1275.88
605.49	1277.93
605.68	1249.26
605.87	1277.93
606.07	1282.03
606.26	1265.64
606.45	1318.89
606.64	1273.84
606.84	1275.88
607.03	1353.71
607.22	1282.03
607.41	1267.69
607.60	1275.88
607.80	1202.16
607.99	1306.60
608.18	1282.03
608.37	1265.64
608.56	1277.93
608.76	1308.65
608.95	1251.31
609.14	1241.07
609.33	1277.93
609.52	1306.60
609.72	1337.32
609.91	1271.79
610.10	1306.60
610.29	1304.56
610.48	1349.61
610.68	1245.16
610.87	1337.32
611.06	1304.56
611.25	1239.02
611.44	1279.98
611.63	1279.98
611.83	1282.03
612.02	1257.45
612.21	1288.17
612.40	1329.13
612.59	1208.30
612.79	1249.26
612.98	1294.32
613.17	1273.84
613.36	1204.21
613.55	1308.65
613.74	1277.93
613.93	1288.17
614.13	1300.46
614.32	1271.79
614.51	1306.60
614.70	1271.79
614.89	1298.41
615.08	1320.94
615.28	1290.22
615.47	1265.64
615.66	1312.75
615.85	1271.79
616.04	1300.46
616.23	1269.74
616.42	1282.03
616.62	1265.64
616.81	1333.23
617.00	1265.64
617.19	1282.03
617.38	1292.27
617.57	1247.21
617.76	1277.93
617.95	1273.84
618.15	1318.89
618.34	1277.93
618.53	1224.69
618.72	1329.13
618.91	1267.69
619.10	1288.17
619.29	1329.13
619.48	1279.98
619.68	1265.64
619.87	1249.26
620.06	1255.40
620.25	1239.02
620.44	1312.75
620.63	1288.17
620.82	1249.26
621.01	1304.56
621.20	1247.21
621.39	1327.08
621.59	1282.03
621.78	1269.74
621.97	1322.99
622.16	1322.99
622.35	1275.88
622.54	1361.90
622.73	1312.75
622.92	1282.03
623.11	1300.46
623.30	1292.27
623.49	1304.56
623.68	1202.16
623.88	1286.12
624.07	1271.79
624.26	1345.52
624.45	1224.69
624.64	1253.36
624.83	1253.36
625.02	1327.08
625.21	1333.23
625.40	1236.97
625.59	1355.76
625.78	1343.47
625.97	1359.85
626.16	1316.84
626.35	1335.28
626.54	1312.75
626.74	1339.37
626.93	1251.31
627.12	1349.61
627.31	1247.21
627.50	1341.42
627.69	1259.50
627.88	1236.97
628.07	1294.32
628.26	1335.28
628.45	1343.47
628.64	1341.42
628.83	1239.02
629.02	1302.51
629.21	1230.83
629.40	1320.94
629.59	1241.07
629.78	1308.65
629.97	1255.40
630.16	1318.89
630.35	1288.17
630.54	1353.71
630.73	1302.51
630.92	1294.32
631.11	1243.12
631.30	1363.95
631.49	1351.66
631.68	1466.35
631.87	2459.61
632.06	5722.02
632.25	8879.99
632.44	16799.49
632.63	27498.08
632.82	42028.41
633.01	33177.09
633.20	13104.95
633.39	6152.10
633.58	3852.23
633.77	3022.80
633.96	2654.17
634.15	2283.49
634.34	2144.22
634.53	2172.89
634.72	2023.39
634.91	1845.22
635.10	1800.16
635.29	1826.79
635.48	1705.96
635.67	1718.25
635.86	1691.62
636.05	1558.50
636.24	1501.16
636.43	1425.39
636.62	1515.50
636.81	1419.24
637.00	1427.43
637.19	1470.44
637.38	1478.63
637.57	1433.58
637.76	1398.76
637.95	1394.67
638.14	1284.08
638.33	1333.23
638.52	1314.80
638.71	1271.79
638.89	1265.64
639.08	1286.12
639.27	1329.13
639.46	1298.41
639.65	1263.60
639.84	1325.04
640.03	1273.84
640.22	1271.79
640.41	1337.32
640.60	1288.17
640.79	1314.80
640.98	1261.55
641.17	1288.17
641.36	1273.84
641.55	1298.41
641.74	1310.70
641.92	1329.13
642.11	1286.12
642.30	1304.56
642.49	1245.16
642.68	1329.13
642.87	1259.50
643.06	1288.17
643.25	1277.93
643.44	1265.64
643.63	1269.74
643.82	1339.37
644.00	1325.04
644.19	1329.13
644.38	1275.88
644.57	1363.95
644.76	1269.74
644.95	1312.75
645.14	1255.40
645.33	1296.36
645.52	1265.64
645.71	1273.84
645.89	1259.50
646.08	1316.84
646.27	1245.16
646.46	1329.13
646.65	1314.80
646.84	1275.88
647.03	1249.26
647.22	1218.54
647.40	1216.49
647.59	1284.08
647.78	1249.26
647.97	1327.08
648.16	1216.49
648.35	1310.70
648.54	1263.60
648.73	1288.17
648.91	1298.41
649.10	1255.40
649.29	1298.41
649.48	1314.80
649.67	1253.36
649.86	1277.93
650.05	1327.08
650.23	1277.93
650.42	1322.99
650.61	1298.41
650.80	1273.84
650.99	1290.22
651.18	1329.13
651.36	1353.71
651.55	1234.93
651.74	1292.27
651.93	1255.40
652.12	1259.50
652.31	1249.26
652.49	1339.37
652.68	1247.21
652.87	1259.50
653.06	1257.45
653.25	1234.93
653.44	1212.40
653.62	1341.42
653.81	1322.99
654.00	1267.69
654.19	1284.08
654.38	1279.98
654.56	1253.36
654.75	1292.27
654.94	1259.50
655.13	1220.59
655.32	1202.16
655.51	1241.07
655.69	1255.40
655.88	1261.55
656.07	1269.74
656.26	1232.88
656.45	1243.12
656.63	1273.84
656.82	1220.59
657.01	1353.71
657.20	1228.78
657.38	1282.03
657.57	1355.76
657.76	1314.80
657.95	1198.06
658.14	1302.51
658.32	1310.70
658.51	1279.98
658.70	1275.88
658.89	1255.40
659.08	1329.13
659.26	1335.28
659.45	1347.56
659.64	1263.60
659.83	1290.22
660.01	1298.41
660.20	1218.54
660.39	1320.94
660.58	1320.94
660.76	1257.45
660.95	1243.12
661.14	1259.50
661.33	1265.64
661.51	1302.51
661.70	1255.40
661.89	1216.49
662.08	1275.88
662.26	1288.17
662.45	1261.55
662.64	1253.36
662.83	1312.75
663.01	1357.80
663.20	1259.50
663.39	1251.31
663.58	1341.42
663.76	1284.08
663.95	1308.65
664.14	1279.98
664.32	1236.97
664.51	1269.74
664.70	1234.93
664.89	1306.60
665.07	1331.18
665.26	1255.40
665.45	1306.60
665.64	1220.59
665.82	1179.63
666.01	1329.13
666.20	1271.79
666.38	1337.32
666.57	1320.94
666.76	1290.22
666.95	1322.99
667.13	1335.28
667.32	1265.64
667.51	1269.74
667.69	1277.93
667.88	1300.46
668.07	1247.21
668.25	1271.79
668.44	1249.26
668.63	1208.30
668.81	1310.70
669.00	1259.50
669.19	1267.69
669.38	1310.70
669.56	1341.42
669.75	1306.60
669.94	1228.78
670.12	1275.88
670.31	1300.46
670.50	1279.98
670.68	1273.84
670.87	1279.98
671.06	1298.41
671.24	1322.99
671.43	1279.98
671.62	1224.69
671.80	1263.60
671.99	1257.45
672.18	1275.88
672.36	1214.45
672.55	1277.93
672.74	1277.93
672.92	1290.22
673.11	1286.12
673.29	1243.12
673.48	1261.55
673.67	1261.55
673.85	1259.50
674.04	1257.45
674.23	1322.99
674.41	1306.60
674.60	1224.69
674.79	1279.98
674.97	1247.21
675.16	1361.90
675.34	1255.40
675.53	1341.42
675.72	1236.97
675.90	1290.22
676.09	1290.22
676.28	1265.64
676.46	1298.41
676.65	1241.07
676.83	1312.75
677.02	1275.88
677.21	1286.12
677.39	1261.55
677.58	1286.12
677.77	1210.35
677.95	1216.49
678.14	1236.97
678.32	1273.84
678.51	1271.79
678.70	1296.36
678.88	1271.79
679.07	1243.12
679.25	1249.26
679.44	1306.60
679.63	1267.69
679.81	1271.79
680.00	1271.79
680.18	1251.31
680.37	1241.07
680.55	1300.46
680.74	1294.32
680.93	1243.12
681.11	1259.50
681.30	1298.41
681.48	1259.50
681.67	1314.80
681.85	1204.21
682.04	1314.80
682.23	1284.08
682.41	1269.74
682.60	1265.64
682.78	1290.22
682.97	1212.40
683.15	1241.07
683.34	1253.36
683.53	1368.04
683.71	1204.21
683.90	1339.37
684.08	1255.40
684.27	1245.16
684.45	1284.08
684.64	1341.42
684.82	1282.03
685.01	1214.45
685.19	1220.59
685.38	1271.79
685.57	1202.16
685.75	1247.21
685.94	1294.32
686.12	1306.60
686.31	1304.56
686.49	1247.21
686.68	1234.93
686.86	1259.50
687.05	1263.60
687.23	1286.12
687.42	1327.08
687.60	1273.84
687.79	1247.21
687.97	1271.79
688.16	1347.56
688.34	1304.56
688.53	1271.79
688.71	1282.03
688.90	1255.40
689.08	1302.51
689.27	1259.50
689.45	1224.69
689.64	1259.50
689.82	1230.83
690.01	1257.45
690.19	1277.93
690.38	1284.08
690.56	1300.46
690.75	1327.08
690.93	1296.36
691.12	1261.55
691.30	1275.88
691.49	1214.45
691.67	1275.88
691.86	1265.64
692.04	1245.16
692.23	1273.84
692.41	1269.74
692.60	1228.78
692.78	1300.46
692.97	1275.88
693.15	1181.68
693.34	1286.12
693.52	1273.84
693.71	1187.82
693.89	1175.53
694.08	1228.78
694.26	1322.99
694.44	1247.21
694.63	1300.46
694.81	1267.69
695.00	1230.83
695.18	1228.78
695.37	1232.88
695.55	1310.70
695.74	1351.66
695.92	1314.80
696.10	1296.36
696.29	1288.17
696.47	1220.59
696.66	1218.54
696.84	1230.83
697.03	1265.64
697.21	1316.84
697.40	1351.66
697.58	1304.56
697.76	1273.84
697.95	1292.27
698.13	1247.21
698.32	1308.65
698.50	1273.84
698.68	1230.83
698.87	1284.08
699.05	1234.93
699.24	1220.59
699.42	1320.94
699.61	1273.84
699.79	1255.40
699.97	1259.50
700.16	1314.80
700.34	1230.83
700.53	1241.07
700.71	1314.80
700.89	1292.27
701.08	1306.60
701.26	1290.22
701.45	1277.93
701.63	1189.87
701.81	1333.23
702.00	1206.25
702.18	1277.93
702.37	1263.60
702.55	1185.77
702.73	1325.04
702.92	1290.22
703.10	1286.12
703.28	1279.98
703.47	1275.88
703.65	1257.45
703.84	1308.65
704.02	1306.60
704.20	1267.69
704.39	1220.59
704.57	1318.89
704.75	1271.79
704.94	1265.64
705.12	1261.55
705.30	1294.32
705.49	1261.55
705.67	1226.73
705.86	1249.26
706.04	1167.34
706.22	1296.36
706.41	1247.21
706.59	1234.93
706.77	1343.47
706.96	1298.41
707.14	1265.64
707.32	1241.07
707.51	1267.69
707.69	1243.12
707.87	1255.40
708.06	1298.41
708.24	1312.75
708.42	1253.36
708.61	1241.07
708.79	1327.08
708.97	1277.93
709.16	1255.40
709.34	1279.98
709.52	1275.88
709.71	1290.22
709.89	1341.42
710.07	1306.60
710.26	1314.80
710.44	1251.31
710.62	1245.16
710.80	1306.60
710.99	1279.98
711.17	1161.20
711.35	1286.12
711.54	1263.60
711.72	1288.17
711.90	1259.50
712.09	1267.69
712.27	1255.40
712.45	1210.35
712.63	1230.83
712.82	1204.21
713.00	1263.60
713.18	1224.69
713.37	1243.12
713.55	1259.50
713.73	1222.64
713.91	1189.87
714.10	1329.13
714.28	1304.56
714.46	1273.84
714.65	1200.11
714.83	1294.32
715.01	1290.22
715.19	1286.12
715.38	1239.02
715.56	1245.16
715.74	1302.51
715.92	1277.93
716.11	1257.45
716.29	1228.78
716.47	1202.16
716.65	1306.60
716.84	1329.13
717.02	1306.60
717.20	1300.46
717.38	1247.21
717.57	1220.59
717.75	1247.21
717.93	1253.36
718.11	1265.64
718.30	1271.79
718.48	1265.64
718.66	1275.88
718.84	1255.40
719.03	1292.27
719.21	1253.36
719.39	1236.97
719.57	1282.03
719.75	1259.50
719.94	1189.87
720.12	1261.55
720.30	1279.98
720.48	1265.64
720.67	1241.07
720.85	1236.97
721.03	1279.98
721.21	1249.26
721.39	1228.78
721.58	1357.80
721.76	1273.84
721.94	1282.03
722.12	1322.99
722.30	1277.93
722.49	1282.03
722.67	1228.78
722.85	1339.37
723.03	1251.31
723.21	1247.21
723.40	1273.84
723.58	1314.80
723.76	1253.36
723.94	1341.42
724.12	1282.03
724.30	1232.88
724.49	1269.74
724.67	1302.51
724.85	1226.73
725.03	1312.75
725.21	1212.40
725.40	1302.51
725.58	1249.26
725.76	1294.32
725.94	1345.52
726.12	1306.60
726.30	1247.21
726.49	1230.83
726.67	1267.69
726.85	1322.99
727.03	1236.97
727.21	1290.22
727.39	1185.77
727.57	1325.04
727.76	1269.74
727.94	1269.74
728.12	1296.36
728.30	1329.13
728.48	1353.71
728.66	1265.64
728.84	1269.74
729.03	1302.51
729.21	1304.56
729.39	1347.56
729.57	1228.78
729.75	1308.65
729.93	1339.37
730.11	1273.84
730.30	1271.79
730.48	1255.40
730.66	1212.40
730.84	1288.17
731.02	1257.45
731.20	1269.74
731.38	1277.93
731.56	1296.36
731.74	1286.12
731.93	1275.88
732.11	1304.56
732.29	1273.84
732.47	1241.07
732.65	1292.27
732.83	1257.45
733.01	1212.40
733.19	1259.50
733.37	1232.88
733.56	1345.52
733.74	1279.98
733.92	1273.84
734.10	1322.99
734.28	1202.16
734.46	1230.83
734.64	1224.69
734.82	1243.12
735.00	1241.07
735.18	1222.64
735.36	1296.36
735.54	1273.84
735.73	1282.03
735.91	1296.36
736.09	1290.22
736.27	1294.32
736.45	1212.40
736.63	1263.60
736.81	1349.61
736.99	1265.64
737.17	1245.16
737.35	1191.92
737.53	1282.03
737.71	1282.03
737.89	1316.84
738.07	1257.45
738.25	1273.84
738.43	1236.97
738.61	1277.93
738.80	1394.67
738.98	1294.32
739.16	1290.22
739.34	1187.82
739.52	1288.17
739.70	1267.69
739.88	1304.56
740.06	1265.64
740.24	1265.64
740.42	1251.31
740.60	1259.50
740.78	1314.80
740.96	1267.69
741.14	1271.79
741.32	1263.60
741.50	1249.26
741.68	1282.03
741.86	1239.02
742.04	1318.89
742.22	1302.51
742.40	1335.28
742.58	1310.70
742.76	1279.98
742.94	1261.55
743.12	1253.36
743.30	1232.88
743.48	1288.17
743.66	1296.36
743.84	1243.12
744.02	1193.97
744.20	1208.30
744.38	1251.31
744.56	1228.78
744.74	1284.08
744.92	1247.21
745.10	1243.12
745.28	1228.78
745.46	1202.16
745.64	1347.56
745.82	1320.94
746.00	1234.93
746.18	1273.84
746.36	1273.84
746.54	1257.45
746.72	1269.74
746.90	1263.60
747.08	1257.45
747.26	1282.03
747.44	1271.79
747.62	1277.93
747.80	1277.93
747.98	1294.32
748.15	1255.40
748.33	1249.26
748.51	1286.12
748.69	1269.74
748.87	1316.84
749.05	1200.11
749.23	1239.02
749.41	1284.08
749.59	1253.36
749.77	1220.59
749.95	1206.25
750.13	1337.32
750.31	1284.08
750.49	1251.31
750.67	1253.36
750.85	1302.51
751.03	1224.69
751.20	1265.64
751.38	1261.55
751.56	1210.35
751.74	1271.79
751.92	1165.29
752.10	1255.40
752.28	1282.03
752.46	1243.12
752.64	1292.27
752.82	1265.64
753.00	1214.45
753.18	1269.74
753.35	1253.36
753.53	1331.18
753.71	1302.51
753.89	1263.60
754.07	1239.02
754.25	1224.69
754.43	1234.93
754.61	1191.92
754.79	1208.30
754.97	1239.02
755.14	1253.36
755.32	1284.08
755.50	1292.27
755.68	1259.50
755.86	1304.56
756.04	1273.84
756.22	1189.87
756.40	1298.41
756.57	1277.93
756.75	1249.26
756.93	1198.06
757.11	1263.60
757.29	1271.79
757.47	1228.78
757.65	1200.11
757.82	1273.84
758.00	1267.69
758.18	1279.98
758.36	1179.63
758.54	1247.21
758.72	1232.88
758.90	1253.36
759.07	1275.88
759.25	1204.21
759.43	1329.13
759.61	1306.60
759.79	1226.73
759.97	1253.36
760.15	1241.07
760.32	1273.84
760.50	1245.16
760.68	1200.11
760.86	1269.74
761.04	1351.66
761.22	1376.24
761.39	1290.22
761.57	1294.32
761.75	1236.97
761.93	1247.21
762.11	1284.08
762.28	1316.84
762.46	1239.02
762.64	1228.78
762.82	1282.03
763.00	1275.88
763.18	1241.07
763.35	1286.12
763.53	1290.22
763.71	1306.60
763.89	1286.12
764.07	1339.37
764.24	1314.80
764.42	1308.65
764.60	1296.36
764.78	1304.56
764.96	1337.32
765.13	1302.51
765.31	1279.98
765.49	1255.40
765.67	1271.79
765.84	1204.21
766.02	1196.01
766.20	1251.31
766.38	1378.28
766.56	1236.97
766.73	1296.36
766.91	1245.16
767.09	1232.88
767.27	1288.17
767.44	1304.56
767.62	1314.80
767.80	1267.69
767.98	1279.98
768.15	1314.80
768.33	1253.36
768.51	1331.18
768.69	1255.40
768.87	1269.74
769.04	1245.16
769.22	1304.56
769.40	1308.65
769.58	1361.90
769.75	1224.69
769.93	1290.22
770.11	1308.65
770.28	1279.98
770.46	1286.12
770.64	1265.64
770.82	1298.41
770.99	1193.97
771.17	1275.88
771.35	1282.03
771.53	1253.36
771.70	1230.83
771.88	1241.07
772.06	1345.52
772.23	1267.69
772.41	1296.36
772.59	1255.40
772.77	1257.45
772.94	1196.01
773.12	1306.60
773.30	1271.79
773.47	1331.18
773.65	1257.45
773.83	1310.70
774.01	1249.26
774.18	1273.84
774.36	1279.98
774.54	1265.64
774.71	1306.60
774.89	1251.31
775.07	1216.49
775.24	1218.54
775.42	1298.41
775.60	1318.89
775.78	1249.26
775.95	1294.32
776.13	1269.74
776.31	1296.36
776.48	1290.22
776.66	1282.03
776.84	1279.98
777.01	1202.16
777.19	1302.51
777.37	1193.97
777.54	1241.07
777.72	1241.07
777.90	1208.30
778.07	1214.45
778.25	1255.40
778.43	1208.30
778.60	1286.12
778.78	1290.22
778.96	1265.64
779.13	1241.07
779.31	1249.26
779.49	1183.73
779.66	1234.93
779.84	1259.50
780.01	1259.50
780.19	1255.40
780.37	1247.21
780.54	1241.07
780.72	1224.69
780.90	1239.02
781.07	1273.84
781.25	1290.22
781.43	1200.11
781.60	1265.64
781.78	1304.56
781.95	1279.98
782.13	1263.60
782.31	1222.64
782.48	1265.64
782.66	1208.30
782.83	1265.64
783.01	1224.69
783.19	1296.36
783.36	1257.45
783.54	1212.40
783.72	1234.93
783.89	1245.16
784.07	1294.32
784.24	1298.41
784.42	1273.84
784.60	1222.64
784.77	1265.64
784.95	1277.93
785.12	1304.56
785.30	1314.80
785.47	1251.31
785.65	1320.94
785.83	1292.27
786.00	1314.80
786.18	1249.26
786.35	1214.45
786.53	1249.26
786.71	1282.03
786.88	1204.21
787.06	1361.90
787.23	1228.78
787.41	1279.98
787.58	1290.22
787.76	1273.84
787.94	1347.56
788.11	1232.88
788.29	1245.16
788.46	1271.79
788.64	1282.03
788.81	1292.27
788.99	1249.26
789.16	1239.02
789.34	1329.13
789.52	1284.08
789.69	1220.59
789.87	1282.03
790.04	1257.45
790.22	1230.83
790.39	1306.60
790.57	1290.22
790.74	1302.51
790.92	1249.26
791.09	1343.47
791.27	1228.78
791.44	1226.73
791.62	1312.75
791.79	1228.78
791.97	1288.17
792.15	1239.02
792.32	1220.59
792.50	1224.69
792.67	1261.55
792.85	1265.64
793.02	1316.84
793.20	1216.49
793.37	1255.40
793.55	1296.36
793.72	1306.60
793.90	1216.49
794.07	1247.21
794.25	1308.65
794.42	1251.31
794.60	1282.03
794.77	1259.50
794.95	1245.16
795.12	1241.07
795.30	1239.02
795.47	1261.55
795.65	1251.31
795.82	1241.07
796.00	1218.54
796.17	1279.98
796.34	1214.45
796.52	1304.56
796.69	1210.35
796.87	1271.79
797.04	1275.88
797.22	1331.18
797.39	1241.07
797.57	1273.84
797.74	1273.84
797.92	1267.69
798.09	1273.84
798.27	1259.50
798.44	1208.30
798.62	1193.97
798.79	1296.36
798.96	1329.13
799.14	1288.17
799.31	1294.32
799.49	1314.80
799.66	1290.22
799.84	1232.88
800.01	1245.16
800.19	1177.58
800.36	1212.40
800.53	1243.12
800.71	1257.45
800.88	1288.17
801.06	1261.55
801.23	1216.49
801.41	1310.70
801.58	1284.08
801.75	1304.56
801.93	1277.93
802.10	1249.26
802.28	1339.37
802.45	1337.32
802.63	1263.60
802.80	1251.31
802.97	1282.03
803.15	1302.51
803.32	1288.17
803.50	1302.51
803.67	1181.68
803.84	1277.93
804.02	1271.79
804.19	1265.64
804.37	1273.84
804.54	1349.61
804.71	1261.55
804.89	1257.45
805.06	1263.60
805.24	1259.50
805.41	1222.64
805.58	1275.88
805.76	1259.50
805.93	1277.93
806.10	1298.41
806.28	1292.27
806.45	1208.30
806.63	1200.11
806.80	1277.93
806.97	1239.02
807.15	1273.84
807.32	1245.16
807.49	1247.21
807.67	1251.31
807.84	1259.50
808.01	1337.32
808.19	1284.08
808.36	1273.84
808.54	1239.02
808.71	1191.92
808.88	1263.60
809.06	1318.89
809.23	1312.75
809.40	1279.98
809.58	1222.64
809.75	1288.17
809.92	1241.07
810.10	1253.36
810.27	1259.50
810.44	1228.78
810.62	1277.93
810.79	1253.36
810.96	1322.99
811.14	1284.08
811.31	1298.41
811.48	1232.88
811.66	1183.73
811.83	1294.32
812.00	1322.99
812.18	1327.08
812.35	1372.14
812.52	1230.83
812.69	1286.12
812.87	1288.17
813.04	1304.56
813.21	1286.12
813.39	1329.13
813.56	1226.73
813.73	1222.64
813.91	1277.93
814.08	1265.64
814.25	1286.12
814.42	1249.26
814.60	1267.69
814.77	1290.22
814.94	1265.64
815.12	1271.79
815.29	1327.08
815.46	1308.65
815.63	1232.88
815.81	1312.75
815.98	1325.04
816.15	1232.88
816.33	1304.56
816.50	1275.88
816.67	1232.88
816.84	1218.54
817.02	1271.79
817.19	1333.23
817.36	1214.45
817.53	1284.08
817.71	1322.99
817.88	1230.83
818.05	1296.36
818.22	1259.50
818.40	1226.73
818.57	1325.04
818.74	1290.22
818.91	1322.99
819.09	1294.32
819.26	1196.01
819.43	1236.97
819.60	1302.51
819.78	1202.16
819.95	1253.36
820.12	1294.32
820.29	1275.88
820.47	1243.12
820.64	1269.74
820.81	1275.88
820.98	1232.88
821.15	1216.49
821.33	1222.64
821.50	1261.55
821.67	1261.55
821.84	1222.64
822.02	1230.83
822.19	1257.45
822.36	1320.94
822.53	1310.70
822.70	1277.93
822.88	1275.88
823.05	1306.60
823.22	1210.35
823.39	1230.83
823.56	1220.59
823.74	1245.16
823.91	1224.69
824.08	1257.45
824.25	1259.50
824.42	1279.98
824.60	1288.17
824.77	1273.84
824.94	1249.26
825.11	1304.56
825.28	1292.27
825.45	1200.11
825.63	1130.48
825.80	1279.98
825.97	1267.69
826.14	1265.64
826.31	1269.74
826.48	1273.84
826.66	1261.55
826.83	1279.98
827.00	1239.02
827.17	1265.64
827.34	1265.64
827.51	1312.75
827.69	1251.31
827.86	1232.88
828.03	1243.12
828.20	1222.64
828.37	1243.12
828.54	1357.80
828.71	1294.32
828.89	1261.55
829.06	1257.45
829.23	1251.31
829.40	1282.03
829.57	1230.83
829.74	1232.88
829.91	1296.36
830.09	1230.83
830.26	1277.93
830.43	1241.07
830.60	1196.01
830.77	1247.21
830.94	1265.64
831.11	1200.11
831.28	1265.64
831.46	1290.22
831.63	1329.13
831.80	1318.89
831.97	1277.93
832.14	1292.27
832.31	1316.84
832.48	1183.73
832.65	1282.03
832.82	1247.21
832.99	1263.60
833.17	1329.13
833.34	1290.22
833.51	1320.94
833.68	1193.97
833.85	1249.26
834.02	1282.03
834.19	1306.60
834.36	1224.69
834.53	1298.41
834.70	1189.87
834.87	1282.03
835.04	1236.97
835.22	1290.22
835.39	1247.21
835.56	1204.21
835.73	1261.55
835.90	1251.31
836.07	1279.98
836.24	1284.08
836.41	1171.44
836.58	1294.32
836.75	1300.46
836.92	1298.41
837.09	1271.79
837.26	1230.83
837.43	1275.88
837.60	1253.36
837.77	1198.06
837.94	1298.41
838.12	1273.84
838.29	1216.49
838.46	1316.84
838.63	1230.83
838.80	1284.08
838.97	1251.31
839.14	1226.73
839.31	1159.15
839.48	1249.26
839.65	1253.36
839.82	1239.02
839.99	1282.03
840.16	1241.07
840.33	1232.88
840.50	1288.17
840.67	1304.56
840.84	1241.07
841.01	1236.97
841.18	1277.93
841.35	1251.31
841.52	1263.60
841.69	1234.93
841.86	1370.09
842.03	1320.94
842.20	1290.22
842.37	1322.99
842.54	1275.88
842.71	1236.97
842.88	1296.36
843.05	1241.07
843.22	1267.69
843.39	1302.51
843.56	1259.50
843.73	1212.40
843.90	1265.64
844.07	1210.35
844.24	1179.63
844.41	1320.94
844.58	1300.46
844.75	1228.78
844.92	1263.60
845.09	1267.69
845.26	1259.50
845.43	1210.35
845.60	1232.88
845.77	1241.07
845.94	1306.60
846.10	1249.26
846.27	1288.17
846.44	1243.12
846.61	1232.88
846.78	1224.69
846.95	1271.79
847.12	1329.13
847.29	1185.77
847.46	1228.78
847.63	1282.03
847.80	1290.22
847.97	1290.22
848.14	1269.74
848.31	1290.22
848.48	1263.60
848.65	1232.88
848.82	1218.54
848.98	1247.21
849.15	1263.60
849.32	1222.64
849.49	1279.98
849.66	1277.93
849.83	1241.07
850.00	1286.12
850.17	1271.79
850.34	1253.36
850.51	1247.21
850.68	1306.60
850.85	1294.32
851.01	1269.74
851.18	1275.88
851.35	1292.27
851.52	1222.64
851.69	1322.99
851.86	1243.12
852.03	1296.36
852.20	1273.84
852.37	1320.94
852.53	1255.40
852.70	1259.50
852.87	1308.65
853.04	1296.36
853.21	1290.22
853.38	1216.49
853.55	1259.50
853.72	1253.36
853.89	1212.40
854.05	1226.73
854.22	1179.63
854.39	1222.64
854.56	1298.41
854.73	1253.36
854.90	1277.93
855.07	1259.50
855.23	1175.53
855.40	1224.69
855.57	1245.16
855.74	1261.55
855.91	1286.12
856.08	1269.74
856.25	1214.45
856.41	1267.69
856.58	1267.69
856.75	1247.21
856.92	1261.55
857.09	1214.45
857.26	1306.60
857.42	1325.04
857.59	1251.31
857.76	1306.60
857.93	1255.40
858.10	1310.70
858.27	1179.63
858.43	1296.36
858.60	1314.80
858.77	1243.12
858.94	1249.26
859.11	1288.17
859.27	1312.75
859.44	1288.17
859.61	1322.99
859.78	1257.45
859.95	1249.26
860.12	1243.12
860.28	1259.50
860.45	1343.47
860.62	1322.99
860.79	1212.40
860.95	1329.13
861.12	1232.88
861.29	1191.92
861.46	1345.52
861.63	1318.89
861.79	1294.32
861.96	1372.14
862.13	1273.84
862.30	1210.35
862.47	1267.69
862.63	1265.64
862.80	1249.26
862.97	1314.80
863.14	1251.31
863.30	1208.30
863.47	1306.60
863.64	1269.74
863.81	1232.88
863.97	1343.47
864.14	1298.41
864.31	1294.32
864.48	1259.50
864.65	1210.35
864.81	1271.79
864.98	1282.03
865.15	1245.16
865.32	1290.22
865.48	1271.79
865.65	1257.45
865.82	1304.56
865.98	1304.56
866.15	1255.40
866.32	1226.73
866.49	1196.01
866.65	1257.45
866.82	1265.64
866.99	1263.60
867.16	1282.03
867.32	1351.66
867.49	1286.12
867.66	1273.84
867.83	1277.93
867.99	1208.30
868.16	1275.88
868.33	1257.45
868.49	1253.36
868.66	1320.94
868.83	1282.03
868.99	1212.40
869.16	1228.78
869.33	1239.02
869.50	1304.56
869.66	1271.79
869.83	1234.93
870.00	1249.26
870.16	1251.31
870.33	1206.25
870.50	1273.84
870.66	1255.40
870.83	1241.07
871.00	1241.07
871.17	1245.16
871.33	1286.12
871.50	1273.84
871.67	1298.41
871.83	1294.32
872.00	1218.54
872.17	1202.16
872.33	1284.08
872.50	1286.12
872.67	1312.75
872.83	1259.50
873.00	1284.08
873.17	1234.93
873.33	1288.17
873.50	1241.07
873.67	1247.21
873.83	1216.49
874.00	1198.06
874.16	1232.88
874.33	1265.64
874.50	1290.22
874.66	1267.69
874.83	1269.74
875.00	1236.97
875.16	1277.93
875.33	1316.84
875.50	1282.03
875.66	1298.41
875.83	1251.31
875.99	1275.88
876.16	1333.23
876.33	1236.97
876.49	1253.36
876.66	1263.60
876.83	1200.11
876.99	1249.26
877.16	1251.31
877.32	1269.74
877.49	1263.60
877.66	1288.17
877.82	1327.08
877.99	1232.88
878.15	1312.75
878.32	1279.98
878.49	1296.36
878.65	1251.31
878.82	1241.07
878.98	1208.30
879.15	1218.54
879.32	1308.65
879.48	1257.45
879.65	1347.56
879.81	1220.59
879.98	1292.27
880.15	1343.47
880.31	1247.21
880.48	1257.45
880.64	1294.32
880.81	1288.17
880.97	1247.21
881.14	1304.56
881.31	1255.40
881.47	1265.64
881.64	1200.11
881.80	1239.02
881.97	1298.41
882.13	1320.94
882.30	1333.23
882.47	1304.56
882.63	1333.23
882.80	1263.60
882.96	1273.84
883.13	1261.55
883.29	1292.27
883.46	1232.88
883.62	1208.30
883.79	1296.36
883.95	1241.07
884.12	1308.65
884.29	1288.17
884.45	1232.88
884.62	1241.07
884.78	1210.35
884.95	1282.03
885.11	1284.08
885.28	1224.69
885.44	1259.50
885.61	1331.18
885.77	1263.60
885.94	1257.45
886.10	1292.27
886.27	1239.02
886.43	1335.28
886.60	1259.50
886.76	1298.41
886.93	1216.49
887.09	1251.31
887.26	1265.64
887.42	1314.80
887.59	1236.97
887.75	1345.52
887.92	1261.55
888.08	1335.28
888.25	1302.51
888.41	1304.56
888.58	1185.77
888.74	1286.12
888.91	1294.32
>>>>>End Processed Spectral Data<<<<<
