SpectraSuite Data File
++++++++++++++++++++++++++++++++++++
Date: Sun Apr 03 19:55:53 CEST 2016
User: root
Dark Spectrum Present: No
Reference Spectrum Present: No
Number of Sampled Component Spectra: 1
Spectrometers: USB4C02835
Integration Time (usec): 10000 (USB4C02835)
Spectra Averaged: 1 (USB4C02835)
Boxcar Smoothing: 0 (USB4C02835)
Correct for Electrical Dark: No (USB4C02835)
Strobe/Lamp Enabled: No (USB4C02835)
Correct for Detector Non-linearity: No (USB4C02835)
Correct for Stray Light: No (USB4C02835)
Number of Pixels in Processed Spectrum: 3648
>>>>>Begin Processed Spectral Data<<<<<
177.47	1155.05
177.69	1155.05
177.91	1155.05
178.13	1271.79
178.36	1282.03
178.58	1263.60
178.80	1247.21
179.02	1230.83
179.24	1218.54
179.46	1198.06
179.68	1271.79
179.90	1202.16
180.13	1275.88
180.35	1198.06
180.57	1290.22
180.79	1243.12
181.01	1228.78
181.23	1312.75
181.45	1239.02
181.67	1290.22
181.90	1222.64
182.12	1288.17
182.34	1257.45
182.56	1275.88
182.78	1232.88
183.00	1279.98
183.22	1279.98
183.44	1265.64
183.66	1282.03
183.89	1298.41
184.11	1269.74
184.33	1189.87
184.55	1314.80
184.77	1339.37
184.99	1167.34
185.21	1267.69
185.43	1290.22
185.65	1251.31
185.87	1232.88
186.10	1239.02
186.32	1232.88
186.54	1316.84
186.76	1236.97
186.98	1257.45
187.20	1261.55
187.42	1277.93
187.64	1310.70
187.86	1220.59
188.08	1298.41
188.30	1290.22
188.52	1232.88
188.75	1286.12
188.97	1241.07
189.19	1282.03
189.41	1204.21
189.63	1267.69
189.85	1286.12
190.07	1320.94
190.29	1253.36
190.51	1224.69
190.73	1212.40
190.95	1230.83
191.17	1279.98
191.39	1302.51
191.61	1253.36
191.84	1224.69
192.06	1357.80
192.28	1224.69
192.50	1269.74
192.72	1228.78
192.94	1241.07
193.16	1216.49
193.38	1222.64
193.60	1193.97
193.82	1327.08
194.04	1296.36
194.26	1214.45
194.48	1277.93
194.70	1245.16
194.92	1185.77
195.14	1196.01
195.36	1257.45
195.58	1224.69
195.80	1279.98
196.02	1271.79
196.24	1247.21
196.46	1265.64
196.69	1239.02
196.91	1234.93
197.13	1273.84
197.35	1275.88
197.57	1282.03
197.79	1300.46
198.01	1222.64
198.23	1294.32
198.45	1236.97
198.67	1273.84
198.89	1290.22
199.11	1257.45
199.33	1202.16
199.55	1239.02
199.77	1204.21
199.99	1298.41
200.21	1249.26
200.43	1232.88
200.65	1253.36
200.87	1243.12
201.09	1314.80
201.31	1232.88
201.53	1302.51
201.75	1196.01
201.97	1189.87
202.19	1259.50
202.41	1273.84
202.63	1298.41
202.85	1275.88
203.07	1232.88
203.29	1349.61
203.51	1314.80
203.73	1286.12
203.95	1222.64
204.17	1333.23
204.39	1314.80
204.61	1179.63
204.83	1331.18
205.05	1251.31
205.27	1363.95
205.49	1226.73
205.71	1255.40
205.93	1269.74
206.15	1169.39
206.37	1312.75
206.59	1292.27
206.81	1222.64
207.03	1236.97
207.25	1316.84
207.47	1298.41
207.69	1232.88
207.91	1269.74
208.13	1253.36
208.34	1247.21
208.56	1269.74
208.78	1230.83
209.00	1345.52
209.22	1243.12
209.44	1267.69
209.66	1320.94
209.88	1236.97
210.10	1279.98
210.32	1226.73
210.54	1251.31
210.76	1204.21
210.98	1193.97
211.20	1271.79
211.42	1269.74
211.64	1228.78
211.86	1249.26
212.08	1257.45
212.30	1284.08
212.52	1239.02
212.74	1198.06
212.96	1290.22
213.17	1263.60
213.39	1232.88
213.61	1263.60
213.83	1226.73
214.05	1259.50
214.27	1290.22
214.49	1312.75
214.71	1308.65
214.93	1232.88
215.15	1263.60
215.37	1234.93
215.59	1257.45
215.81	1325.04
216.03	1228.78
216.24	1251.31
216.46	1196.01
216.68	1198.06
216.90	1277.93
217.12	1296.36
217.34	1304.56
217.56	1210.35
217.78	1208.30
218.00	1314.80
218.22	1245.16
218.44	1302.51
218.66	1226.73
218.87	1320.94
219.09	1202.16
219.31	1282.03
219.53	1339.37
219.75	1314.80
219.97	1265.64
220.19	1251.31
220.41	1230.83
220.63	1314.80
220.85	1292.27
221.06	1253.36
221.28	1230.83
221.50	1275.88
221.72	1245.16
221.94	1239.02
222.16	1234.93
222.38	1269.74
222.60	1294.32
222.82	1222.64
223.03	1232.88
223.25	1288.17
223.47	1193.97
223.69	1271.79
223.91	1239.02
224.13	1282.03
224.35	1339.37
224.57	1263.60
224.78	1220.59
225.00	1294.32
225.22	1257.45
225.44	1255.40
225.66	1234.93
225.88	1255.40
226.10	1304.56
226.32	1300.46
226.53	1247.21
226.75	1282.03
226.97	1257.45
227.19	1232.88
227.41	1226.73
227.63	1318.89
227.85	1232.88
228.06	1316.84
228.28	1243.12
228.50	1257.45
228.72	1204.21
228.94	1228.78
229.16	1224.69
229.37	1288.17
229.59	1212.40
229.81	1267.69
230.03	1271.79
230.25	1275.88
230.47	1224.69
230.69	1234.93
230.90	1234.93
231.12	1259.50
231.34	1269.74
231.56	1306.60
231.78	1306.60
232.00	1243.12
232.21	1249.26
232.43	1241.07
232.65	1267.69
232.87	1284.08
233.09	1273.84
233.30	1226.73
233.52	1187.82
233.74	1224.69
233.96	1259.50
234.18	1253.36
234.40	1198.06
234.61	1353.71
234.83	1249.26
235.05	1224.69
235.27	1282.03
235.49	1325.04
235.70	1210.35
235.92	1263.60
236.14	1234.93
236.36	1290.22
236.58	1306.60
236.79	1216.49
237.01	1310.70
237.23	1259.50
237.45	1243.12
237.67	1259.50
237.88	1290.22
238.10	1292.27
238.32	1261.55
238.54	1267.69
238.76	1228.78
238.97	1263.60
239.19	1232.88
239.41	1245.16
239.63	1200.11
239.85	1279.98
240.06	1277.93
240.28	1247.21
240.50	1284.08
240.72	1275.88
240.93	1177.58
241.15	1273.84
241.37	1288.17
241.59	1279.98
241.81	1269.74
242.02	1263.60
242.24	1255.40
242.46	1273.84
242.68	1273.84
242.89	1304.56
243.11	1306.60
243.33	1288.17
243.55	1251.31
243.76	1273.84
243.98	1245.16
244.20	1273.84
244.42	1224.69
244.64	1206.25
244.85	1241.07
245.07	1245.16
245.29	1255.40
245.51	1259.50
245.72	1253.36
245.94	1314.80
246.16	1220.59
246.38	1234.93
246.59	1286.12
246.81	1241.07
247.03	1294.32
247.24	1255.40
247.46	1333.23
247.68	1261.55
247.90	1255.40
248.11	1226.73
248.33	1247.21
248.55	1208.30
248.77	1210.35
248.98	1304.56
249.20	1226.73
249.42	1249.26
249.64	1239.02
249.85	1318.89
250.07	1249.26
250.29	1259.50
250.50	1279.98
250.72	1337.32
250.94	1300.46
251.16	1312.75
251.37	1261.55
251.59	1198.06
251.81	1306.60
252.02	1269.74
252.24	1222.64
252.46	1241.07
252.68	1230.83
252.89	1341.42
253.11	1220.59
253.33	1294.32
253.54	1236.97
253.76	1222.64
253.98	1302.51
254.20	1251.31
254.41	1298.41
254.63	1341.42
254.85	1257.45
255.06	1249.26
255.28	1253.36
255.50	1343.47
255.71	1257.45
255.93	1196.01
256.15	1269.74
256.36	1257.45
256.58	1302.51
256.80	1298.41
257.02	1216.49
257.23	1251.31
257.45	1226.73
257.67	1288.17
257.88	1202.16
258.10	1249.26
258.32	1296.36
258.53	1257.45
258.75	1198.06
258.97	1261.55
259.18	1265.64
259.40	1279.98
259.62	1314.80
259.83	1292.27
260.05	1259.50
260.27	1353.71
260.48	1220.59
260.70	1265.64
260.92	1325.04
261.13	1257.45
261.35	1302.51
261.57	1269.74
261.78	1302.51
262.00	1298.41
262.22	1198.06
262.43	1241.07
262.65	1218.54
262.86	1279.98
263.08	1300.46
263.30	1251.31
263.51	1218.54
263.73	1208.30
263.95	1325.04
264.16	1191.92
264.38	1253.36
264.60	1322.99
264.81	1284.08
265.03	1292.27
265.25	1218.54
265.46	1177.58
265.68	1261.55
265.89	1253.36
266.11	1230.83
266.33	1302.51
266.54	1253.36
266.76	1302.51
266.98	1302.51
267.19	1259.50
267.41	1273.84
267.62	1257.45
267.84	1286.12
268.06	1282.03
268.27	1279.98
268.49	1208.30
268.70	1245.16
268.92	1239.02
269.14	1261.55
269.35	1239.02
269.57	1265.64
269.79	1189.87
270.00	1343.47
270.22	1273.84
270.43	1273.84
270.65	1222.64
270.87	1247.21
271.08	1320.94
271.30	1210.35
271.51	1257.45
271.73	1200.11
271.95	1255.40
272.16	1236.97
272.38	1200.11
272.59	1226.73
272.81	1279.98
273.02	1253.36
273.24	1249.26
273.46	1316.84
273.67	1257.45
273.89	1216.49
274.10	1234.93
274.32	1224.69
274.54	1263.60
274.75	1298.41
274.97	1275.88
275.18	1259.50
275.40	1290.22
275.61	1224.69
275.83	1224.69
276.05	1189.87
276.26	1239.02
276.48	1208.30
276.69	1263.60
276.91	1316.84
277.12	1230.83
277.34	1292.27
277.55	1308.65
277.77	1239.02
277.99	1282.03
278.20	1282.03
278.42	1263.60
278.63	1234.93
278.85	1214.45
279.06	1327.08
279.28	1284.08
279.49	1290.22
279.71	1255.40
279.93	1230.83
280.14	1224.69
280.36	1259.50
280.57	1290.22
280.79	1263.60
281.00	1286.12
281.22	1193.97
281.43	1273.84
281.65	1300.46
281.86	1292.27
282.08	1277.93
282.29	1249.26
282.51	1304.56
282.73	1263.60
282.94	1140.72
283.16	1210.35
283.37	1253.36
283.59	1214.45
283.80	1239.02
284.02	1198.06
284.23	1329.13
284.45	1196.01
284.66	1183.73
284.88	1218.54
285.09	1286.12
285.31	1351.66
285.52	1318.89
285.74	1228.78
285.95	1218.54
286.17	1279.98
286.38	1265.64
286.60	1257.45
286.81	1234.93
287.03	1290.22
287.24	1261.55
287.46	1241.07
287.67	1355.76
287.89	1208.30
288.10	1245.16
288.32	1253.36
288.53	1226.73
288.75	1216.49
288.96	1277.93
289.18	1243.12
289.39	1230.83
289.61	1275.88
289.82	1322.99
290.04	1255.40
290.25	1290.22
290.47	1329.13
290.68	1202.16
290.90	1286.12
291.11	1239.02
291.33	1292.27
291.54	1239.02
291.76	1284.08
291.97	1288.17
292.18	1271.79
292.40	1232.88
292.61	1253.36
292.83	1312.75
293.04	1261.55
293.26	1310.70
293.47	1267.69
293.69	1236.97
293.90	1304.56
294.12	1286.12
294.33	1196.01
294.55	1224.69
294.76	1226.73
294.97	1249.26
295.19	1267.69
295.40	1292.27
295.62	1261.55
295.83	1279.98
296.05	1327.08
296.26	1224.69
296.48	1269.74
296.69	1198.06
296.90	1222.64
297.12	1349.61
297.33	1234.93
297.55	1212.40
297.76	1208.30
297.98	1206.25
298.19	1277.93
298.41	1253.36
298.62	1153.01
298.83	1222.64
299.05	1193.97
299.26	1257.45
299.48	1265.64
299.69	1232.88
299.90	1222.64
300.12	1220.59
300.33	1265.64
300.55	1232.88
300.76	1288.17
300.98	1322.99
301.19	1241.07
301.40	1241.07
301.62	1247.21
301.83	1214.45
302.05	1245.16
302.26	1253.36
302.47	1261.55
302.69	1265.64
302.90	1329.13
303.12	1277.93
303.33	1282.03
303.54	1245.16
303.76	1251.31
303.97	1189.87
304.19	1259.50
304.40	1282.03
304.61	1335.28
304.83	1279.98
305.04	1325.04
305.26	1267.69
305.47	1286.12
305.68	1335.28
305.90	1241.07
306.11	1259.50
306.33	1245.16
306.54	1327.08
306.75	1318.89
306.97	1263.60
307.18	1232.88
307.39	1255.40
307.61	1273.84
307.82	1312.75
308.04	1243.12
308.25	1228.78
308.46	1296.36
308.68	1267.69
308.89	1214.45
309.10	1187.82
309.32	1230.83
309.53	1249.26
309.74	1271.79
309.96	1202.16
310.17	1222.64
310.39	1300.46
310.60	1347.56
310.81	1298.41
311.03	1314.80
311.24	1335.28
311.45	1224.69
311.67	1241.07
311.88	1224.69
312.09	1267.69
312.31	1298.41
312.52	1286.12
312.73	1339.37
312.95	1261.55
313.16	1292.27
313.37	1239.02
313.59	1193.97
313.80	1282.03
314.01	1290.22
314.23	1322.99
314.44	1245.16
314.65	1290.22
314.87	1269.74
315.08	1286.12
315.29	1282.03
315.51	1226.73
315.72	1302.51
315.93	1259.50
316.15	1296.36
316.36	1230.83
316.57	1312.75
316.79	1339.37
317.00	1286.12
317.21	1306.60
317.43	1249.26
317.64	1288.17
317.85	1224.69
318.07	1261.55
318.28	1327.08
318.49	1224.69
318.70	1245.16
318.92	1292.27
319.13	1290.22
319.34	1208.30
319.56	1208.30
319.77	1206.25
319.98	1288.17
320.20	1259.50
320.41	1277.93
320.62	1196.01
320.83	1275.88
321.05	1277.93
321.26	1304.56
321.47	1236.97
321.69	1298.41
321.90	1224.69
322.11	1320.94
322.32	1308.65
322.54	1259.50
322.75	1224.69
322.96	1247.21
323.18	1271.79
323.39	1306.60
323.60	1267.69
323.81	1239.02
324.03	1255.40
324.24	1216.49
324.45	1263.60
324.66	1224.69
324.88	1259.50
325.09	1335.28
325.30	1300.46
325.52	1224.69
325.73	1218.54
325.94	1275.88
326.15	1267.69
326.37	1245.16
326.58	1255.40
326.79	1288.17
327.00	1220.59
327.22	1216.49
327.43	1308.65
327.64	1286.12
327.85	1277.93
328.07	1322.99
328.28	1251.31
328.49	1298.41
328.70	1282.03
328.92	1282.03
329.13	1255.40
329.34	1292.27
329.55	1308.65
329.76	1322.99
329.98	1232.88
330.19	1226.73
330.40	1251.31
330.61	1294.32
330.83	1259.50
331.04	1243.12
331.25	1220.59
331.46	1230.83
331.68	1245.16
331.89	1286.12
332.10	1288.17
332.31	1239.02
332.52	1234.93
332.74	1232.88
332.95	1310.70
333.16	1282.03
333.37	1304.56
333.58	1269.74
333.80	1286.12
334.01	1284.08
334.22	1232.88
334.43	1296.36
334.64	1206.25
334.86	1234.93
335.07	1277.93
335.28	1259.50
335.49	1329.13
335.70	1282.03
335.92	1179.63
336.13	1284.08
336.34	1325.04
336.55	1322.99
336.76	1294.32
336.98	1257.45
337.19	1331.18
337.40	1222.64
337.61	1273.84
337.82	1239.02
338.04	1243.12
338.25	1269.74
338.46	1202.16
338.67	1230.83
338.88	1253.36
339.09	1337.32
339.31	1257.45
339.52	1187.82
339.73	1284.08
339.94	1329.13
340.15	1216.49
340.36	1310.70
340.58	1204.21
340.79	1290.22
341.00	1308.65
341.21	1200.11
341.42	1232.88
341.63	1282.03
341.85	1257.45
342.06	1282.03
342.27	1255.40
342.48	1343.47
342.69	1273.84
342.90	1155.05
343.12	1300.46
343.33	1325.04
343.54	1292.27
343.75	1308.65
343.96	1284.08
344.17	1214.45
344.38	1318.89
344.60	1265.64
344.81	1226.73
345.02	1241.07
345.23	1314.80
345.44	1318.89
345.65	1224.69
345.86	1279.98
346.07	1218.54
346.29	1257.45
346.50	1273.84
346.71	1214.45
346.92	1224.69
347.13	1232.88
347.34	1204.21
347.55	1298.41
347.76	1212.40
347.98	1302.51
348.19	1239.02
348.40	1302.51
348.61	1257.45
348.82	1271.79
349.03	1312.75
349.24	1282.03
349.45	1261.55
349.66	1259.50
349.88	1279.98
350.09	1236.97
350.30	1267.69
350.51	1249.26
350.72	1273.84
350.93	1198.06
351.14	1302.51
351.35	1245.16
351.56	1275.88
351.77	1284.08
351.99	1294.32
352.20	1267.69
352.41	1236.97
352.62	1243.12
352.83	1222.64
353.04	1257.45
353.25	1269.74
353.46	1241.07
353.67	1275.88
353.88	1263.60
354.09	1261.55
354.30	1234.93
354.52	1286.12
354.73	1216.49
354.94	1277.93
355.15	1269.74
355.36	1294.32
355.57	1255.40
355.78	1241.07
355.99	1273.84
356.20	1257.45
356.41	1261.55
356.62	1269.74
356.83	1370.09
357.04	1255.40
357.25	1243.12
357.46	1224.69
357.68	1234.93
357.89	1286.12
358.10	1234.93
358.31	1308.65
358.52	1314.80
358.73	1259.50
358.94	1245.16
359.15	1243.12
359.36	1165.29
359.57	1226.73
359.78	1265.64
359.99	1257.45
360.20	1241.07
360.41	1265.64
360.62	1273.84
360.83	1288.17
361.04	1271.79
361.25	1286.12
361.46	1333.23
361.67	1259.50
361.88	1322.99
362.09	1261.55
362.30	1290.22
362.51	1300.46
362.72	1275.88
362.93	1290.22
363.14	1288.17
363.35	1269.74
363.56	1251.31
363.78	1257.45
363.99	1243.12
364.20	1282.03
364.41	1251.31
364.62	1245.16
364.83	1206.25
365.04	1271.79
365.25	1302.51
365.46	1376.24
365.67	1294.32
365.88	1294.32
366.09	1267.69
366.30	1312.75
366.51	1339.37
366.72	1218.54
366.93	1351.66
367.14	1245.16
367.35	1228.78
367.56	1257.45
367.77	1310.70
367.98	1337.32
368.18	1220.59
368.39	1292.27
368.60	1247.21
368.81	1327.08
369.02	1310.70
369.23	1273.84
369.44	1204.21
369.65	1298.41
369.86	1296.36
370.07	1230.83
370.28	1193.97
370.49	1232.88
370.70	1269.74
370.91	1247.21
371.12	1245.16
371.33	1187.82
371.54	1271.79
371.75	1296.36
371.96	1284.08
372.17	1292.27
372.38	1251.31
372.59	1271.79
372.80	1279.98
373.01	1253.36
373.22	1298.41
373.43	1296.36
373.64	1224.69
373.85	1230.83
374.06	1261.55
374.26	1251.31
374.47	1214.45
374.68	1294.32
374.89	1292.27
375.10	1265.64
375.31	1243.12
375.52	1271.79
375.73	1288.17
375.94	1251.31
376.15	1312.75
376.36	1273.84
376.57	1253.36
376.78	1290.22
376.99	1175.53
377.20	1249.26
377.40	1232.88
377.61	1269.74
377.82	1267.69
378.03	1243.12
378.24	1298.41
378.45	1267.69
378.66	1304.56
378.87	1239.02
379.08	1292.27
379.29	1232.88
379.50	1279.98
379.71	1304.56
379.91	1216.49
380.12	1269.74
380.33	1222.64
380.54	1267.69
380.75	1310.70
380.96	1224.69
381.17	1241.07
381.38	1275.88
381.59	1304.56
381.80	1279.98
382.00	1279.98
382.21	1181.68
382.42	1292.27
382.63	1282.03
382.84	1296.36
383.05	1380.33
383.26	1296.36
383.47	1288.17
383.68	1259.50
383.88	1228.78
384.09	1288.17
384.30	1327.08
384.51	1298.41
384.72	1304.56
384.93	1294.32
385.14	1304.56
385.35	1327.08
385.55	1218.54
385.76	1298.41
385.97	1204.21
386.18	1241.07
386.39	1263.60
386.60	1312.75
386.81	1261.55
387.02	1284.08
387.22	1279.98
387.43	1310.70
387.64	1269.74
387.85	1331.18
388.06	1241.07
388.27	1249.26
388.48	1310.70
388.68	1226.73
388.89	1226.73
389.10	1259.50
389.31	1241.07
389.52	1243.12
389.73	1236.97
389.93	1249.26
390.14	1253.36
390.35	1206.25
390.56	1267.69
390.77	1290.22
390.98	1230.83
391.18	1277.93
391.39	1294.32
391.60	1236.97
391.81	1251.31
392.02	1271.79
392.23	1310.70
392.43	1322.99
392.64	1269.74
392.85	1277.93
393.06	1247.21
393.27	1171.44
393.47	1218.54
393.68	1267.69
393.89	1236.97
394.10	1257.45
394.31	1298.41
394.52	1282.03
394.72	1214.45
394.93	1241.07
395.14	1181.68
395.35	1220.59
395.56	1267.69
395.76	1308.65
395.97	1218.54
396.18	1296.36
396.39	1253.36
396.60	1357.80
396.80	1263.60
397.01	1279.98
397.22	1216.49
397.43	1302.51
397.64	1232.88
397.84	1290.22
398.05	1286.12
398.26	1327.08
398.47	1245.16
398.67	1236.97
398.88	1273.84
399.09	1243.12
399.30	1232.88
399.51	1216.49
399.71	1204.21
399.92	1259.50
400.13	1288.17
400.34	1183.73
400.54	1216.49
400.75	1214.45
400.96	1232.88
401.17	1249.26
401.37	1310.70
401.58	1292.27
401.79	1232.88
402.00	1239.02
402.21	1191.92
402.41	1271.79
402.62	1286.12
402.83	1265.64
403.04	1277.93
403.24	1214.45
403.45	1294.32
403.66	1320.94
403.87	1271.79
404.07	1322.99
404.28	1322.99
404.49	1224.69
404.70	1271.79
404.90	1247.21
405.11	1290.22
405.32	1263.60
405.52	1253.36
405.73	1218.54
405.94	1322.99
406.15	1247.21
406.35	1243.12
406.56	1234.93
406.77	1302.51
406.98	1175.53
407.18	1265.64
407.39	1279.98
407.60	1308.65
407.80	1257.45
408.01	1271.79
408.22	1314.80
408.43	1306.60
408.63	1255.40
408.84	1239.02
409.05	1257.45
409.25	1218.54
409.46	1331.18
409.67	1196.01
409.88	1193.97
410.08	1304.56
410.29	1220.59
410.50	1263.60
410.70	1241.07
410.91	1292.27
411.12	1230.83
411.32	1267.69
411.53	1212.40
411.74	1279.98
411.95	1261.55
412.15	1333.23
412.36	1302.51
412.57	1296.36
412.77	1251.31
412.98	1236.97
413.19	1165.29
413.39	1273.84
413.60	1259.50
413.81	1282.03
414.01	1306.60
414.22	1187.82
414.43	1318.89
414.63	1202.16
414.84	1273.84
415.05	1224.69
415.25	1271.79
415.46	1245.16
415.67	1284.08
415.87	1236.97
416.08	1249.26
416.29	1288.17
416.49	1314.80
416.70	1239.02
416.91	1275.88
417.11	1279.98
417.32	1310.70
417.53	1247.21
417.73	1259.50
417.94	1212.40
418.15	1290.22
418.35	1269.74
418.56	1302.51
418.77	1282.03
418.97	1273.84
419.18	1302.51
419.38	1288.17
419.59	1257.45
419.80	1269.74
420.00	1208.30
420.21	1214.45
420.42	1230.83
420.62	1279.98
420.83	1220.59
421.04	1333.23
421.24	1249.26
421.45	1269.74
421.65	1279.98
421.86	1257.45
422.07	1191.92
422.27	1257.45
422.48	1239.02
422.69	1239.02
422.89	1308.65
423.10	1316.84
423.30	1218.54
423.51	1263.60
423.72	1366.00
423.92	1187.82
424.13	1269.74
424.33	1286.12
424.54	1214.45
424.75	1290.22
424.95	1200.11
425.16	1327.08
425.36	1277.93
425.57	1302.51
425.78	1267.69
425.98	1269.74
426.19	1265.64
426.39	1271.79
426.60	1271.79
426.81	1224.69
427.01	1222.64
427.22	1261.55
427.42	1214.45
427.63	1249.26
427.83	1259.50
428.04	1304.56
428.25	1296.36
428.45	1284.08
428.66	1273.84
428.86	1232.88
429.07	1210.35
429.28	1288.17
429.48	1257.45
429.69	1275.88
429.89	1296.36
430.10	1232.88
430.30	1282.03
430.51	1304.56
430.71	1232.88
430.92	1329.13
431.13	1198.06
431.33	1239.02
431.54	1286.12
431.74	1273.84
431.95	1257.45
432.15	1327.08
432.36	1333.23
432.56	1259.50
432.77	1155.05
432.98	1202.16
433.18	1335.28
433.39	1298.41
433.59	1247.21
433.80	1277.93
434.00	1255.40
434.21	1288.17
434.41	1216.49
434.62	1304.56
434.82	1271.79
435.03	1282.03
435.23	1292.27
435.44	1210.35
435.64	1239.02
435.85	1294.32
436.06	1253.36
436.26	1294.32
436.47	1286.12
436.67	1251.31
436.88	1239.02
437.08	1269.74
437.29	1257.45
437.49	1282.03
437.70	1269.74
437.90	1226.73
438.11	1279.98
438.31	1333.23
438.52	1241.07
438.72	1208.30
438.93	1302.51
439.13	1277.93
439.34	1259.50
439.54	1208.30
439.75	1308.65
439.95	1300.46
440.16	1206.25
440.36	1234.93
440.57	1282.03
440.77	1269.74
440.98	1284.08
441.18	1282.03
441.39	1216.49
441.59	1273.84
441.80	1282.03
442.00	1292.27
442.21	1239.02
442.41	1236.97
442.62	1314.80
442.82	1259.50
443.02	1224.69
443.23	1325.04
443.43	1228.78
443.64	1257.45
443.84	1277.93
444.05	1218.54
444.25	1241.07
444.46	1241.07
444.66	1314.80
444.87	1277.93
445.07	1232.88
445.28	1181.68
445.48	1284.08
445.69	1320.94
445.89	1298.41
446.09	1249.26
446.30	1335.28
446.50	1239.02
446.71	1245.16
446.91	1275.88
447.12	1312.75
447.32	1271.79
447.53	1337.32
447.73	1282.03
447.93	1320.94
448.14	1286.12
448.34	1308.65
448.55	1265.64
448.75	1318.89
448.96	1294.32
449.16	1273.84
449.36	1257.45
449.57	1257.45
449.77	1271.79
449.98	1341.42
450.18	1327.08
450.39	1349.61
450.59	1308.65
450.79	1216.49
451.00	1322.99
451.20	1288.17
451.41	1322.99
451.61	1286.12
451.81	1316.84
452.02	1277.93
452.22	1271.79
452.43	1320.94
452.63	1234.93
452.84	1308.65
453.04	1312.75
453.24	1294.32
453.45	1253.36
453.65	1269.74
453.86	1275.88
454.06	1279.98
454.26	1282.03
454.47	1300.46
454.67	1286.12
454.87	1239.02
455.08	1290.22
455.28	1316.84
455.49	1302.51
455.69	1345.52
455.89	1296.36
456.10	1269.74
456.30	1245.16
456.51	1257.45
456.71	1306.60
456.91	1300.46
457.12	1255.40
457.32	1310.70
457.52	1236.97
457.73	1304.56
457.93	1218.54
458.14	1322.99
458.34	1249.26
458.54	1325.04
458.75	1279.98
458.95	1286.12
459.15	1230.83
459.36	1245.16
459.56	1308.65
459.76	1230.83
459.97	1294.32
460.17	1302.51
460.37	1304.56
460.58	1320.94
460.78	1226.73
460.99	1277.93
461.19	1271.79
461.39	1314.80
461.60	1275.88
461.80	1243.12
462.00	1269.74
462.21	1259.50
462.41	1374.19
462.61	1179.63
462.82	1286.12
463.02	1290.22
463.22	1296.36
463.43	1265.64
463.63	1236.97
463.83	1257.45
464.04	1275.88
464.24	1366.00
464.44	1296.36
464.64	1261.55
464.85	1279.98
465.05	1234.93
465.25	1359.85
465.46	1273.84
465.66	1273.84
465.86	1318.89
466.07	1310.70
466.27	1277.93
466.47	1243.12
466.68	1271.79
466.88	1183.73
467.08	1259.50
467.29	1249.26
467.49	1249.26
467.69	1279.98
467.89	1226.73
468.10	1251.31
468.30	1314.80
468.50	1253.36
468.71	1353.71
468.91	1343.47
469.11	1331.18
469.31	1222.64
469.52	1222.64
469.72	1337.32
469.92	1308.65
470.13	1296.36
470.33	1290.22
470.53	1236.97
470.73	1251.31
470.94	1275.88
471.14	1251.31
471.34	1345.52
471.54	1259.50
471.75	1368.04
471.95	1193.97
472.15	1265.64
472.36	1218.54
472.56	1249.26
472.76	1296.36
472.96	1265.64
473.17	1290.22
473.37	1247.21
473.57	1282.03
473.77	1228.78
473.98	1236.97
474.18	1232.88
474.38	1302.51
474.58	1232.88
474.79	1224.69
474.99	1318.89
475.19	1243.12
475.39	1247.21
475.60	1277.93
475.80	1271.79
476.00	1300.46
476.20	1247.21
476.41	1239.02
476.61	1265.64
476.81	1265.64
477.01	1333.23
477.21	1279.98
477.42	1206.25
477.62	1279.98
477.82	1269.74
478.02	1257.45
478.23	1327.08
478.43	1245.16
478.63	1267.69
478.83	1261.55
479.03	1302.51
479.24	1251.31
479.44	1241.07
479.64	1302.51
479.84	1277.93
480.04	1339.37
480.25	1271.79
480.45	1230.83
480.65	1296.36
480.85	1302.51
481.06	1257.45
481.26	1257.45
481.46	1200.11
481.66	1294.32
481.86	1284.08
482.06	1216.49
482.27	1329.13
482.47	1214.45
482.67	1320.94
482.87	1304.56
483.07	1282.03
483.28	1271.79
483.48	1318.89
483.68	1261.55
483.88	1183.73
484.08	1191.92
484.29	1259.50
484.49	1247.21
484.69	1327.08
484.89	1320.94
485.09	1308.65
485.29	1327.08
485.50	1275.88
485.70	1294.32
485.90	1257.45
486.10	1255.40
486.30	1216.49
486.50	1284.08
486.71	1218.54
486.91	1243.12
487.11	1361.90
487.31	1236.97
487.51	1200.11
487.71	1269.74
487.91	1236.97
488.12	1202.16
488.32	1288.17
488.52	1247.21
488.72	1232.88
488.92	1196.01
489.12	1279.98
489.32	1116.14
489.53	1267.69
489.73	1273.84
489.93	1230.83
490.13	1230.83
490.33	1214.45
490.53	1265.64
490.73	1308.65
490.94	1263.60
491.14	1339.37
491.34	1312.75
491.54	1296.36
491.74	1249.26
491.94	1314.80
492.14	1218.54
492.34	1259.50
492.54	1298.41
492.75	1251.31
492.95	1312.75
493.15	1269.74
493.35	1273.84
493.55	1222.64
493.75	1327.08
493.95	1298.41
494.15	1208.30
494.35	1312.75
494.56	1279.98
494.76	1294.32
494.96	1263.60
495.16	1134.57
495.36	1193.97
495.56	1347.56
495.76	1146.86
495.96	1306.60
496.16	1277.93
496.36	1286.12
496.56	1296.36
496.77	1257.45
496.97	1263.60
497.17	1302.51
497.37	1339.37
497.57	1208.30
497.77	1265.64
497.97	1351.66
498.17	1298.41
498.37	1216.49
498.57	1263.60
498.77	1220.59
498.97	1257.45
499.17	1343.47
499.38	1206.25
499.58	1273.84
499.78	1236.97
499.98	1275.88
500.18	1327.08
500.38	1255.40
500.58	1284.08
500.78	1322.99
500.98	1325.04
501.18	1214.45
501.38	1327.08
501.58	1320.94
501.78	1255.40
501.98	1220.59
502.18	1265.64
502.38	1269.74
502.58	1210.35
502.78	1361.90
502.98	1245.16
503.18	1273.84
503.38	1366.00
503.59	1292.27
503.79	1222.64
503.99	1322.99
504.19	1259.50
504.39	1282.03
504.59	1241.07
504.79	1310.70
504.99	1298.41
505.19	1259.50
505.39	1261.55
505.59	1261.55
505.79	1255.40
505.99	1245.16
506.19	1329.13
506.39	1310.70
506.59	1239.02
506.79	1257.45
506.99	1263.60
507.19	1277.93
507.39	1269.74
507.59	1265.64
507.79	1271.79
507.99	1245.16
508.19	1249.26
508.39	1269.74
508.59	1259.50
508.79	1263.60
508.99	1243.12
509.19	1296.36
509.39	1322.99
509.59	1247.21
509.79	1282.03
509.99	1279.98
510.19	1298.41
510.39	1226.73
510.59	1267.69
510.79	1304.56
510.99	1298.41
511.19	1341.42
511.39	1255.40
511.59	1282.03
511.79	1277.93
511.99	1224.69
512.19	1249.26
512.38	1284.08
512.58	1292.27
512.78	1331.18
512.98	1316.84
513.18	1312.75
513.38	1251.31
513.58	1232.88
513.78	1218.54
513.98	1261.55
514.18	1306.60
514.38	1273.84
514.58	1331.18
514.78	1370.09
514.98	1261.55
515.18	1376.24
515.38	1243.12
515.58	1337.32
515.78	1220.59
515.98	1265.64
516.18	1259.50
516.38	1322.99
516.57	1259.50
516.77	1228.78
516.97	1329.13
517.17	1253.36
517.37	1265.64
517.57	1269.74
517.77	1263.60
517.97	1335.28
518.17	1265.64
518.37	1228.78
518.57	1255.40
518.77	1222.64
518.97	1296.36
519.16	1296.36
519.36	1275.88
519.56	1298.41
519.76	1320.94
519.96	1347.56
520.16	1191.92
520.36	1320.94
520.56	1261.55
520.76	1277.93
520.96	1251.31
521.16	1312.75
521.35	1247.21
521.55	1259.50
521.75	1239.02
521.95	1249.26
522.15	1198.06
522.35	1269.74
522.55	1222.64
522.75	1327.08
522.95	1245.16
523.14	1304.56
523.34	1251.31
523.54	1277.93
523.74	1275.88
523.94	1257.45
524.14	1288.17
524.34	1267.69
524.54	1275.88
524.73	1263.60
524.93	1298.41
525.13	1347.56
525.33	1265.64
525.53	1353.71
525.73	1361.90
525.93	1292.27
526.13	1189.87
526.32	1249.26
526.52	1257.45
526.72	1228.78
526.92	1230.83
527.12	1210.35
527.32	1310.70
527.52	1290.22
527.71	1296.36
527.91	1290.22
528.11	1206.25
528.31	1286.12
528.51	1325.04
528.71	1288.17
528.90	1341.42
529.10	1232.88
529.30	1306.60
529.50	1308.65
529.70	1271.79
529.90	1259.50
530.09	1267.69
530.29	1243.12
530.49	1286.12
530.69	1296.36
530.89	1261.55
531.09	1310.70
531.28	1292.27
531.48	1304.56
531.68	1241.07
531.88	1282.03
532.08	1292.27
532.28	1355.76
532.47	1257.45
532.67	1239.02
532.87	1314.80
533.07	1320.94
533.27	1306.60
533.46	1263.60
533.66	1310.70
533.86	1245.16
534.06	1218.54
534.26	1263.60
534.45	1234.93
534.65	1220.59
534.85	1306.60
535.05	1304.56
535.25	1253.36
535.44	1220.59
535.64	1259.50
535.84	1347.56
536.04	1337.32
536.24	1273.84
536.43	1322.99
536.63	1245.16
536.83	1204.21
537.03	1310.70
537.22	1370.09
537.42	1257.45
537.62	1255.40
537.82	1275.88
538.02	1333.23
538.21	1269.74
538.41	1302.51
538.61	1329.13
538.81	1253.36
539.00	1277.93
539.20	1261.55
539.40	1206.25
539.60	1228.78
539.79	1196.01
539.99	1286.12
540.19	1279.98
540.39	1228.78
540.58	1247.21
540.78	1239.02
540.98	1232.88
541.18	1251.31
541.37	1226.73
541.57	1312.75
541.77	1329.13
541.97	1230.83
542.16	1300.46
542.36	1236.97
542.56	1316.84
542.76	1273.84
542.95	1249.26
543.15	1306.60
543.35	1267.69
543.54	1245.16
543.74	1300.46
543.94	1271.79
544.14	1306.60
544.33	1247.21
544.53	1298.41
544.73	1292.27
544.93	1253.36
545.12	1255.40
545.32	1228.78
545.52	1249.26
545.71	1316.84
545.91	1222.64
546.11	1253.36
546.30	1224.69
546.50	1271.79
546.70	1230.83
546.90	1302.51
547.09	1290.22
547.29	1234.93
547.49	1304.56
547.68	1312.75
547.88	1247.21
548.08	1232.88
548.27	1298.41
548.47	1269.74
548.67	1339.37
548.87	1294.32
549.06	1286.12
549.26	1345.52
549.46	1269.74
549.65	1320.94
549.85	1255.40
550.05	1263.60
550.24	1257.45
550.44	1277.93
550.64	1302.51
550.83	1320.94
551.03	1288.17
551.23	1259.50
551.42	1234.93
551.62	1210.35
551.82	1286.12
552.01	1325.04
552.21	1245.16
552.41	1282.03
552.60	1275.88
552.80	1288.17
553.00	1253.36
553.19	1361.90
553.39	1282.03
553.59	1316.84
553.78	1286.12
553.98	1271.79
554.17	1331.18
554.37	1357.80
554.57	1308.65
554.76	1333.23
554.96	1200.11
555.16	1300.46
555.35	1220.59
555.55	1247.21
555.75	1316.84
555.94	1218.54
556.14	1230.83
556.33	1175.53
556.53	1255.40
556.73	1320.94
556.92	1265.64
557.12	1333.23
557.32	1249.26
557.51	1255.40
557.71	1253.36
557.90	1304.56
558.10	1279.98
558.30	1253.36
558.49	1253.36
558.69	1261.55
558.88	1320.94
559.08	1202.16
559.28	1226.73
559.47	1347.56
559.67	1282.03
559.86	1308.65
560.06	1296.36
560.26	1306.60
560.45	1298.41
560.65	1302.51
560.84	1337.32
561.04	1214.45
561.24	1314.80
561.43	1296.36
561.63	1318.89
561.82	1273.84
562.02	1318.89
562.22	1306.60
562.41	1241.07
562.61	1257.45
562.80	1331.18
563.00	1302.51
563.19	1236.97
563.39	1282.03
563.59	1228.78
563.78	1298.41
563.98	1279.98
564.17	1339.37
564.37	1320.94
564.56	1228.78
564.76	1257.45
564.96	1314.80
565.15	1312.75
565.35	1296.36
565.54	1269.74
565.74	1339.37
565.93	1228.78
566.13	1241.07
566.32	1275.88
566.52	1241.07
566.71	1345.52
566.91	1269.74
567.11	1271.79
567.30	1312.75
567.50	1296.36
567.69	1345.52
567.89	1279.98
568.08	1294.32
568.28	1265.64
568.47	1271.79
568.67	1269.74
568.86	1296.36
569.06	1277.93
569.25	1294.32
569.45	1232.88
569.64	1290.22
569.84	1286.12
570.04	1335.28
570.23	1322.99
570.43	1308.65
570.62	1298.41
570.82	1306.60
571.01	1212.40
571.21	1294.32
571.40	1228.78
571.60	1234.93
571.79	1245.16
571.99	1312.75
572.18	1286.12
572.38	1259.50
572.57	1314.80
572.77	1263.60
572.96	1269.74
573.16	1329.13
573.35	1232.88
573.55	1273.84
573.74	1392.62
573.94	1251.31
574.13	1284.08
574.33	1314.80
574.52	1306.60
574.71	1343.47
574.91	1263.60
575.10	1230.83
575.30	1239.02
575.49	1331.18
575.69	1316.84
575.88	1230.83
576.08	1292.27
576.27	1267.69
576.47	1327.08
576.66	1265.64
576.86	1331.18
577.05	1210.35
577.25	1265.64
577.44	1298.41
577.64	1230.83
577.83	1310.70
578.02	1247.21
578.22	1380.33
578.41	1282.03
578.61	1273.84
578.80	1286.12
579.00	1265.64
579.19	1279.98
579.39	1288.17
579.58	1386.47
579.77	1247.21
579.97	1288.17
580.16	1386.47
580.36	1310.70
580.55	1230.83
580.75	1286.12
580.94	1310.70
581.13	1304.56
581.33	1269.74
581.52	1273.84
581.72	1282.03
581.91	1271.79
582.11	1312.75
582.30	1304.56
582.49	1298.41
582.69	1230.83
582.88	1298.41
583.08	1196.01
583.27	1327.08
583.47	1318.89
583.66	1245.16
583.85	1271.79
584.05	1302.51
584.24	1265.64
584.44	1298.41
584.63	1351.66
584.82	1230.83
585.02	1261.55
585.21	1267.69
585.41	1257.45
585.60	1292.27
585.79	1226.73
585.99	1325.04
586.18	1232.88
586.37	1275.88
586.57	1255.40
586.76	1263.60
586.96	1273.84
587.15	1271.79
587.34	1234.93
587.54	1251.31
587.73	1267.69
587.93	1239.02
588.12	1345.52
588.31	1294.32
588.51	1298.41
588.70	1286.12
588.89	1343.47
589.09	1353.71
589.28	1253.36
589.47	1316.84
589.67	1245.16
589.86	1300.46
590.06	1318.89
590.25	1230.83
590.44	1257.45
590.64	1318.89
590.83	1263.60
591.02	1341.42
591.22	1298.41
591.41	1359.85
591.60	1253.36
591.80	1290.22
591.99	1277.93
592.18	1306.60
592.38	1261.55
592.57	1257.45
592.76	1251.31
592.96	1296.36
593.15	1273.84
593.34	1249.26
593.54	1273.84
593.73	1224.69
593.92	1290.22
594.12	1298.41
594.31	1241.07
594.50	1292.27
594.70	1247.21
594.89	1269.74
595.08	1193.97
595.28	1277.93
595.47	1284.08
595.66	1277.93
595.86	1294.32
596.05	1282.03
596.24	1306.60
596.43	1314.80
596.63	1273.84
596.82	1339.37
597.01	1249.26
597.21	1304.56
597.40	1226.73
597.59	1298.41
597.79	1300.46
597.98	1320.94
598.17	1261.55
598.36	1312.75
598.56	1241.07
598.75	1241.07
598.94	1284.08
599.14	1271.79
599.33	1318.89
599.52	1212.40
599.71	1220.59
599.91	1349.61
600.10	1290.22
600.29	1282.03
600.48	1370.09
600.68	1259.50
600.87	1257.45
601.06	1263.60
601.26	1306.60
601.45	1337.32
601.64	1288.17
601.83	1306.60
602.03	1357.80
602.22	1269.74
602.41	1259.50
602.60	1261.55
602.80	1294.32
602.99	1290.22
603.18	1224.69
603.37	1347.56
603.57	1302.51
603.76	1339.37
603.95	1249.26
604.14	1247.21
604.34	1337.32
604.53	1314.80
604.72	1239.02
604.91	1302.51
605.10	1325.04
605.30	1279.98
605.49	1288.17
605.68	1189.87
605.87	1253.36
606.07	1212.40
606.26	1327.08
606.45	1255.40
606.64	1241.07
606.84	1318.89
607.03	1318.89
607.22	1263.60
607.41	1312.75
607.60	1267.69
607.80	1298.41
607.99	1370.09
608.18	1306.60
608.37	1306.60
608.56	1273.84
608.76	1296.36
608.95	1265.64
609.14	1275.88
609.33	1286.12
609.52	1290.22
609.72	1327.08
609.91	1279.98
610.10	1236.97
610.29	1255.40
610.48	1263.60
610.68	1245.16
610.87	1243.12
611.06	1316.84
611.25	1251.31
611.44	1277.93
611.63	1298.41
611.83	1286.12
612.02	1271.79
612.21	1230.83
612.40	1279.98
612.59	1320.94
612.79	1314.80
612.98	1286.12
613.17	1234.93
613.36	1226.73
613.55	1294.32
613.74	1322.99
613.93	1300.46
614.13	1230.83
614.32	1302.51
614.51	1339.37
614.70	1261.55
614.89	1277.93
615.08	1298.41
615.28	1302.51
615.47	1271.79
615.66	1314.80
615.85	1259.50
616.04	1292.27
616.23	1306.60
616.42	1277.93
616.62	1228.78
616.81	1292.27
617.00	1249.26
617.19	1253.36
617.38	1226.73
617.57	1312.75
617.76	1249.26
617.95	1236.97
618.15	1306.60
618.34	1241.07
618.53	1339.37
618.72	1298.41
618.91	1335.28
619.10	1277.93
619.29	1261.55
619.48	1288.17
619.68	1366.00
619.87	1312.75
620.06	1290.22
620.25	1232.88
620.44	1251.31
620.63	1259.50
620.82	1308.65
621.01	1282.03
621.20	1368.04
621.39	1224.69
621.59	1314.80
621.78	1245.16
621.97	1288.17
622.16	1325.04
622.35	1212.40
622.54	1288.17
622.73	1331.18
622.92	1275.88
623.11	1269.74
623.30	1279.98
623.49	1279.98
623.68	1255.40
623.88	1247.21
624.07	1316.84
624.26	1327.08
624.45	1310.70
624.64	1239.02
624.83	1296.36
625.02	1306.60
625.21	1353.71
625.40	1245.16
625.59	1390.57
625.78	1277.93
625.97	1349.61
626.16	1302.51
626.35	1298.41
626.54	1284.08
626.74	1228.78
626.93	1366.00
627.12	1409.00
627.31	1273.84
627.50	1314.80
627.69	1185.77
627.88	1298.41
628.07	1320.94
628.26	1261.55
628.45	1304.56
628.64	1304.56
628.83	1322.99
629.02	1245.16
629.21	1263.60
629.40	1322.99
629.59	1322.99
629.78	1267.69
629.97	1292.27
630.16	1298.41
630.35	1263.60
630.54	1282.03
630.73	1333.23
630.92	1380.33
631.11	1341.42
631.30	1374.19
631.49	1380.33
631.68	1312.75
631.87	1454.06
632.06	1431.53
632.25	1437.67
632.44	1425.39
632.63	1441.77
632.82	1454.06
633.01	1452.01
633.20	1478.63
633.39	1454.06
633.58	1505.26
633.77	1452.01
633.96	1445.87
634.15	1472.49
634.34	1525.74
634.53	1505.26
634.72	1474.54
634.91	1454.06
635.10	1454.06
635.29	1568.74
635.48	1515.50
635.67	1441.77
635.86	1452.01
636.05	1470.44
636.24	1503.21
636.43	1464.30
636.62	1456.11
636.81	1390.57
637.00	1445.87
637.19	1347.56
637.38	1386.47
637.57	1417.19
637.76	1337.32
637.95	1333.23
638.14	1310.70
638.33	1345.52
638.52	1302.51
638.71	1314.80
638.89	1226.73
639.08	1343.47
639.27	1259.50
639.46	1318.89
639.65	1300.46
639.84	1318.89
640.03	1343.47
640.22	1257.45
640.41	1284.08
640.60	1275.88
640.79	1290.22
640.98	1257.45
641.17	1308.65
641.36	1191.92
641.55	1306.60
641.74	1314.80
641.92	1275.88
642.11	1173.49
642.30	1302.51
642.49	1253.36
642.68	1232.88
642.87	1359.85
643.06	1257.45
643.25	1265.64
643.44	1232.88
643.63	1282.03
643.82	1302.51
644.00	1292.27
644.19	1255.40
644.38	1333.23
644.57	1325.04
644.76	1198.06
644.95	1263.60
645.14	1269.74
645.33	1206.25
645.52	1284.08
645.71	1310.70
645.89	1312.75
646.08	1206.25
646.27	1314.80
646.46	1296.36
646.65	1249.26
646.84	1265.64
647.03	1243.12
647.22	1230.83
647.40	1294.32
647.59	1298.41
647.78	1314.80
647.97	1261.55
648.16	1273.84
648.35	1275.88
648.54	1200.11
648.73	1241.07
648.91	1292.27
649.10	1337.32
649.29	1298.41
649.48	1222.64
649.67	1290.22
649.86	1236.97
650.05	1290.22
650.23	1208.30
650.42	1316.84
650.61	1239.02
650.80	1232.88
650.99	1308.65
651.18	1251.31
651.36	1292.27
651.55	1316.84
651.74	1226.73
651.93	1277.93
652.12	1247.21
652.31	1275.88
652.49	1245.16
652.68	1189.87
652.87	1302.51
653.06	1234.93
653.25	1298.41
653.44	1329.13
653.62	1302.51
653.81	1290.22
654.00	1282.03
654.19	1290.22
654.38	1275.88
654.56	1263.60
654.75	1277.93
654.94	1259.50
655.13	1267.69
655.32	1275.88
655.51	1290.22
655.69	1226.73
655.88	1298.41
656.07	1263.60
656.26	1247.21
656.45	1277.93
656.63	1226.73
656.82	1296.36
657.01	1253.36
657.20	1236.97
657.38	1257.45
657.57	1239.02
657.76	1279.98
657.95	1191.92
658.14	1277.93
658.32	1269.74
658.51	1325.04
658.70	1261.55
658.89	1306.60
659.08	1306.60
659.26	1241.07
659.45	1239.02
659.64	1269.74
659.83	1249.26
660.01	1253.36
660.20	1333.23
660.39	1310.70
660.58	1288.17
660.76	1228.78
660.95	1306.60
661.14	1222.64
661.33	1216.49
661.51	1273.84
661.70	1277.93
661.89	1282.03
662.08	1304.56
662.26	1249.26
662.45	1302.51
662.64	1316.84
662.83	1298.41
663.01	1239.02
663.20	1304.56
663.39	1300.46
663.58	1245.16
663.76	1306.60
663.95	1271.79
664.14	1386.47
664.32	1253.36
664.51	1263.60
664.70	1251.31
664.89	1296.36
665.07	1277.93
665.26	1294.32
665.45	1236.97
665.64	1267.69
665.82	1378.28
666.01	1253.36
666.20	1277.93
666.38	1282.03
666.57	1306.60
666.76	1292.27
666.95	1271.79
667.13	1267.69
667.32	1265.64
667.51	1269.74
667.69	1308.65
667.88	1288.17
668.07	1232.88
668.25	1335.28
668.44	1245.16
668.63	1271.79
668.81	1200.11
669.00	1247.21
669.19	1263.60
669.38	1296.36
669.56	1302.51
669.75	1290.22
669.94	1273.84
670.12	1296.36
670.31	1288.17
670.50	1282.03
670.68	1220.59
670.87	1247.21
671.06	1206.25
671.24	1220.59
671.43	1245.16
671.62	1228.78
671.80	1232.88
671.99	1318.89
672.18	1236.97
672.36	1325.04
672.55	1349.61
672.74	1273.84
672.92	1277.93
673.11	1251.31
673.29	1241.07
673.48	1265.64
673.67	1304.56
673.85	1282.03
674.04	1314.80
674.23	1333.23
674.41	1222.64
674.60	1329.13
674.79	1320.94
674.97	1257.45
675.16	1245.16
675.34	1218.54
675.53	1325.04
675.72	1325.04
675.90	1261.55
676.09	1286.12
676.28	1228.78
676.46	1318.89
676.65	1296.36
676.83	1249.26
677.02	1296.36
677.21	1208.30
677.39	1277.93
677.58	1257.45
677.77	1261.55
677.95	1202.16
678.14	1249.26
678.32	1296.36
678.51	1261.55
678.70	1279.98
678.88	1312.75
679.07	1210.35
679.25	1247.21
679.44	1306.60
679.63	1308.65
679.81	1271.79
680.00	1265.64
680.18	1316.84
680.37	1306.60
680.55	1284.08
680.74	1245.16
680.93	1255.40
681.11	1245.16
681.30	1239.02
681.48	1243.12
681.67	1333.23
681.85	1286.12
682.04	1304.56
682.23	1218.54
682.41	1251.31
682.60	1196.01
682.78	1212.40
682.97	1247.21
683.15	1265.64
683.34	1296.36
683.53	1255.40
683.71	1284.08
683.90	1296.36
684.08	1241.07
684.27	1255.40
684.45	1282.03
684.64	1292.27
684.82	1345.52
685.01	1196.01
685.19	1329.13
685.38	1241.07
685.57	1241.07
685.75	1259.50
685.94	1239.02
686.12	1259.50
686.31	1247.21
686.49	1200.11
686.68	1265.64
686.86	1279.98
687.05	1304.56
687.23	1261.55
687.42	1226.73
687.60	1298.41
687.79	1206.25
687.97	1277.93
688.16	1249.26
688.34	1253.36
688.53	1232.88
688.71	1329.13
688.90	1245.16
689.08	1259.50
689.27	1269.74
689.45	1337.32
689.64	1247.21
689.82	1224.69
690.01	1198.06
690.19	1218.54
690.38	1279.98
690.56	1279.98
690.75	1212.40
690.93	1339.37
691.12	1320.94
691.30	1236.97
691.49	1310.70
691.67	1265.64
691.86	1277.93
692.04	1296.36
692.23	1292.27
692.41	1255.40
692.60	1279.98
692.78	1273.84
692.97	1282.03
693.15	1298.41
693.34	1189.87
693.52	1204.21
693.71	1251.31
693.89	1314.80
694.08	1257.45
694.26	1302.51
694.44	1255.40
694.63	1267.69
694.81	1220.59
695.00	1222.64
695.18	1339.37
695.37	1349.61
695.55	1314.80
695.74	1265.64
695.92	1251.31
696.10	1277.93
696.29	1300.46
696.47	1310.70
696.66	1239.02
696.84	1306.60
697.03	1265.64
697.21	1359.85
697.40	1333.23
697.58	1275.88
697.76	1212.40
697.95	1271.79
698.13	1267.69
698.32	1245.16
698.50	1265.64
698.68	1298.41
698.87	1273.84
699.05	1220.59
699.24	1241.07
699.42	1230.83
699.61	1232.88
699.79	1232.88
699.97	1183.73
700.16	1239.02
700.34	1277.93
700.53	1230.83
700.71	1306.60
700.89	1337.32
701.08	1222.64
701.26	1277.93
701.45	1261.55
701.63	1339.37
701.81	1247.21
702.00	1245.16
702.18	1337.32
702.37	1277.93
702.55	1327.08
702.73	1351.66
702.92	1374.19
703.10	1206.25
703.28	1322.99
703.47	1316.84
703.65	1282.03
703.84	1271.79
704.02	1253.36
704.20	1269.74
704.39	1263.60
704.57	1304.56
704.75	1204.21
704.94	1316.84
705.12	1230.83
705.30	1290.22
705.49	1316.84
705.67	1150.96
705.86	1232.88
706.04	1259.50
706.22	1226.73
706.41	1241.07
706.59	1304.56
706.77	1331.18
706.96	1245.16
707.14	1310.70
707.32	1271.79
707.51	1314.80
707.69	1292.27
707.87	1294.32
708.06	1327.08
708.24	1208.30
708.42	1228.78
708.61	1286.12
708.79	1263.60
708.97	1327.08
709.16	1316.84
709.34	1279.98
709.52	1232.88
709.71	1216.49
709.89	1302.51
710.07	1282.03
710.26	1204.21
710.44	1345.52
710.62	1269.74
710.80	1290.22
710.99	1310.70
711.17	1279.98
711.35	1169.39
711.54	1245.16
711.72	1269.74
711.90	1318.89
712.09	1259.50
712.27	1179.63
712.45	1282.03
712.63	1282.03
712.82	1277.93
713.00	1302.51
713.18	1296.36
713.37	1189.87
713.55	1322.99
713.73	1222.64
713.91	1320.94
714.10	1228.78
714.28	1261.55
714.46	1290.22
714.65	1298.41
714.83	1247.21
715.01	1314.80
715.19	1282.03
715.38	1327.08
715.56	1234.93
715.74	1294.32
715.92	1318.89
716.11	1302.51
716.29	1312.75
716.47	1290.22
716.65	1296.36
716.84	1202.16
717.02	1224.69
717.20	1243.12
717.38	1300.46
717.57	1292.27
717.75	1275.88
717.93	1212.40
718.11	1322.99
718.30	1230.83
718.48	1239.02
718.66	1288.17
718.84	1232.88
719.03	1257.45
719.21	1210.35
719.39	1314.80
719.57	1341.42
719.75	1275.88
719.94	1286.12
720.12	1196.01
720.30	1200.11
720.48	1298.41
720.67	1222.64
720.85	1249.26
721.03	1245.16
721.21	1320.94
721.39	1261.55
721.58	1292.27
721.76	1286.12
721.94	1185.77
722.12	1255.40
722.30	1292.27
722.49	1279.98
722.67	1239.02
722.85	1300.46
723.03	1298.41
723.21	1226.73
723.40	1343.47
723.58	1249.26
723.76	1308.65
723.94	1267.69
724.12	1273.84
724.30	1318.89
724.49	1282.03
724.67	1279.98
724.85	1257.45
725.03	1296.36
725.21	1284.08
725.40	1265.64
725.58	1296.36
725.76	1257.45
725.94	1294.32
726.12	1277.93
726.30	1255.40
726.49	1224.69
726.67	1204.21
726.85	1249.26
727.03	1292.27
727.21	1198.06
727.39	1275.88
727.57	1304.56
727.76	1239.02
727.94	1263.60
728.12	1277.93
728.30	1167.34
728.48	1220.59
728.66	1275.88
728.84	1249.26
729.03	1275.88
729.21	1255.40
729.39	1239.02
729.57	1288.17
729.75	1230.83
729.93	1294.32
730.11	1148.91
730.30	1343.47
730.48	1220.59
730.66	1279.98
730.84	1351.66
731.02	1259.50
731.20	1304.56
731.38	1251.31
731.56	1236.97
731.74	1191.92
731.93	1212.40
732.11	1288.17
732.29	1290.22
732.47	1282.03
732.65	1259.50
732.83	1286.12
733.01	1224.69
733.19	1271.79
733.37	1308.65
733.56	1308.65
733.74	1279.98
733.92	1314.80
734.10	1226.73
734.28	1271.79
734.46	1255.40
734.64	1259.50
734.82	1255.40
735.00	1306.60
735.18	1265.64
735.36	1306.60
735.54	1224.69
735.73	1296.36
735.91	1224.69
736.09	1216.49
736.27	1249.26
736.45	1253.36
736.63	1284.08
736.81	1257.45
736.99	1269.74
737.17	1253.36
737.35	1267.69
737.53	1294.32
737.71	1232.88
737.89	1286.12
738.07	1230.83
738.25	1224.69
738.43	1220.59
738.61	1257.45
738.80	1206.25
738.98	1261.55
739.16	1257.45
739.34	1255.40
739.52	1327.08
739.70	1325.04
739.88	1284.08
740.06	1298.41
740.24	1210.35
740.42	1279.98
740.60	1288.17
740.78	1239.02
740.96	1265.64
741.14	1263.60
741.32	1273.84
741.50	1273.84
741.68	1247.21
741.86	1214.45
742.04	1249.26
742.22	1234.93
742.40	1261.55
742.58	1234.93
742.76	1294.32
742.94	1277.93
743.12	1343.47
743.30	1282.03
743.48	1275.88
743.66	1294.32
743.84	1265.64
744.02	1191.92
744.20	1300.46
744.38	1251.31
744.56	1261.55
744.74	1273.84
744.92	1288.17
745.10	1228.78
745.28	1263.60
745.46	1279.98
745.64	1304.56
745.82	1230.83
746.00	1253.36
746.18	1255.40
746.36	1271.79
746.54	1329.13
746.72	1279.98
746.90	1316.84
747.08	1284.08
747.26	1271.79
747.44	1316.84
747.62	1247.21
747.80	1253.36
747.98	1224.69
748.15	1216.49
748.33	1314.80
748.51	1245.16
748.69	1284.08
748.87	1200.11
749.05	1206.25
749.23	1265.64
749.41	1257.45
749.59	1282.03
749.77	1300.46
749.95	1241.07
750.13	1259.50
750.31	1218.54
750.49	1320.94
750.67	1304.56
750.85	1210.35
751.03	1325.04
751.20	1255.40
751.38	1288.17
751.56	1251.31
751.74	1277.93
751.92	1302.51
752.10	1253.36
752.28	1294.32
752.46	1304.56
752.64	1288.17
752.82	1253.36
753.00	1261.55
753.18	1304.56
753.35	1220.59
753.53	1290.22
753.71	1222.64
753.89	1202.16
754.07	1306.60
754.25	1220.59
754.43	1243.12
754.61	1210.35
754.79	1226.73
754.97	1232.88
755.14	1308.65
755.32	1318.89
755.50	1316.84
755.68	1304.56
755.86	1247.21
756.04	1255.40
756.22	1251.31
756.40	1279.98
756.57	1212.40
756.75	1269.74
756.93	1267.69
757.11	1216.49
757.29	1265.64
757.47	1282.03
757.65	1191.92
757.82	1298.41
758.00	1269.74
758.18	1232.88
758.36	1251.31
758.54	1249.26
758.72	1208.30
758.90	1208.30
759.07	1284.08
759.25	1222.64
759.43	1355.76
759.61	1263.60
759.79	1249.26
759.97	1230.83
760.15	1247.21
760.32	1239.02
760.50	1202.16
760.68	1216.49
760.86	1218.54
761.04	1292.27
761.22	1206.25
761.39	1329.13
761.57	1263.60
761.75	1306.60
761.93	1230.83
762.11	1310.70
762.28	1308.65
762.46	1263.60
762.64	1253.36
762.82	1232.88
763.00	1206.25
763.18	1265.64
763.35	1261.55
763.53	1255.40
763.71	1245.16
763.89	1267.69
764.07	1200.11
764.24	1310.70
764.42	1236.97
764.60	1347.56
764.78	1320.94
764.96	1300.46
765.13	1263.60
765.31	1212.40
765.49	1255.40
765.67	1279.98
765.84	1353.71
766.02	1322.99
766.20	1310.70
766.38	1296.36
766.56	1306.60
766.73	1253.36
766.91	1292.27
767.09	1241.07
767.27	1304.56
767.44	1314.80
767.62	1212.40
767.80	1251.31
767.98	1257.45
768.15	1247.21
768.33	1214.45
768.51	1288.17
768.69	1361.90
768.87	1259.50
769.04	1271.79
769.22	1230.83
769.40	1230.83
769.58	1277.93
769.75	1249.26
769.93	1234.93
770.11	1275.88
770.28	1343.47
770.46	1337.32
770.64	1363.95
770.82	1241.07
770.99	1234.93
771.17	1376.24
771.35	1255.40
771.53	1247.21
771.70	1183.73
771.88	1282.03
772.06	1193.97
772.23	1236.97
772.41	1255.40
772.59	1263.60
772.77	1255.40
772.94	1181.68
773.12	1220.59
773.30	1222.64
773.47	1306.60
773.65	1259.50
773.83	1226.73
774.01	1322.99
774.18	1279.98
774.36	1236.97
774.54	1292.27
774.71	1247.21
774.89	1150.96
775.07	1284.08
775.24	1359.85
775.42	1273.84
775.60	1218.54
775.78	1228.78
775.95	1261.55
776.13	1259.50
776.31	1312.75
776.48	1273.84
776.66	1218.54
776.84	1286.12
777.01	1296.36
777.19	1279.98
777.37	1318.89
777.54	1363.95
777.72	1294.32
777.90	1241.07
778.07	1224.69
778.25	1290.22
778.43	1372.14
778.60	1308.65
778.78	1275.88
778.96	1312.75
779.13	1316.84
779.31	1210.35
779.49	1298.41
779.66	1267.69
779.84	1273.84
780.01	1220.59
780.19	1273.84
780.37	1216.49
780.54	1253.36
780.72	1310.70
780.90	1204.21
781.07	1253.36
781.25	1167.34
781.43	1232.88
781.60	1243.12
781.78	1214.45
781.95	1216.49
782.13	1253.36
782.31	1255.40
782.48	1286.12
782.66	1290.22
782.83	1263.60
783.01	1249.26
783.19	1218.54
783.36	1206.25
783.54	1277.93
783.72	1247.21
783.89	1247.21
784.07	1312.75
784.24	1322.99
784.42	1314.80
784.60	1218.54
784.77	1286.12
784.95	1263.60
785.12	1232.88
785.30	1271.79
785.47	1290.22
785.65	1327.08
785.83	1286.12
786.00	1265.64
786.18	1304.56
786.35	1257.45
786.53	1288.17
786.71	1224.69
786.88	1261.55
787.06	1210.35
787.23	1255.40
787.41	1198.06
787.58	1265.64
787.76	1234.93
787.94	1245.16
788.11	1294.32
788.29	1282.03
788.46	1298.41
788.64	1247.21
788.81	1286.12
788.99	1308.65
789.16	1306.60
789.34	1300.46
789.52	1200.11
789.69	1310.70
789.87	1247.21
790.04	1216.49
790.22	1282.03
790.39	1279.98
790.57	1279.98
790.74	1236.97
790.92	1335.28
791.09	1206.25
791.27	1261.55
791.44	1292.27
791.62	1286.12
791.79	1286.12
791.97	1275.88
792.15	1304.56
792.32	1263.60
792.50	1236.97
792.67	1294.32
792.85	1284.08
793.02	1247.21
793.20	1247.21
793.37	1208.30
793.55	1296.36
793.72	1257.45
793.90	1327.08
794.07	1243.12
794.25	1304.56
794.42	1224.69
794.60	1241.07
794.77	1236.97
794.95	1261.55
795.12	1277.93
795.30	1216.49
795.47	1261.55
795.65	1316.84
795.82	1325.04
796.00	1267.69
796.17	1245.16
796.34	1249.26
796.52	1218.54
796.69	1251.31
796.87	1243.12
797.04	1263.60
797.22	1288.17
797.39	1226.73
797.57	1279.98
797.74	1267.69
797.92	1282.03
798.09	1265.64
798.27	1267.69
798.44	1216.49
798.62	1232.88
798.79	1320.94
798.96	1239.02
799.14	1322.99
799.31	1339.37
799.49	1282.03
799.66	1214.45
799.84	1236.97
800.01	1230.83
800.19	1202.16
800.36	1224.69
800.53	1230.83
800.71	1286.12
800.88	1271.79
801.06	1230.83
801.23	1249.26
801.41	1265.64
801.58	1245.16
801.75	1208.30
801.93	1329.13
802.10	1202.16
802.28	1247.21
802.45	1234.93
802.63	1259.50
802.80	1304.56
802.97	1380.33
803.15	1222.64
803.32	1243.12
803.50	1228.78
803.67	1245.16
803.84	1191.92
804.02	1284.08
804.19	1255.40
804.37	1263.60
804.54	1257.45
804.71	1253.36
804.89	1273.84
805.06	1355.76
805.24	1275.88
805.41	1241.07
805.58	1277.93
805.76	1294.32
805.93	1292.27
806.10	1316.84
806.28	1343.47
806.45	1282.03
806.63	1269.74
806.80	1286.12
806.97	1257.45
807.15	1335.28
807.32	1284.08
807.49	1288.17
807.67	1271.79
807.84	1294.32
808.01	1263.60
808.19	1236.97
808.36	1257.45
808.54	1273.84
808.71	1267.69
808.88	1249.26
809.06	1310.70
809.23	1241.07
809.40	1279.98
809.58	1249.26
809.75	1337.32
809.92	1243.12
810.10	1243.12
810.27	1312.75
810.44	1290.22
810.62	1279.98
810.79	1230.83
810.96	1286.12
811.14	1304.56
811.31	1185.77
811.48	1322.99
811.66	1247.21
811.83	1261.55
812.00	1341.42
812.18	1312.75
812.35	1302.51
812.52	1286.12
812.69	1288.17
812.87	1228.78
813.04	1267.69
813.21	1253.36
813.39	1236.97
813.56	1288.17
813.73	1193.97
813.91	1224.69
814.08	1245.16
814.25	1253.36
814.42	1275.88
814.60	1245.16
814.77	1304.56
814.94	1292.27
815.12	1243.12
815.29	1273.84
815.46	1312.75
815.63	1290.22
815.81	1214.45
815.98	1261.55
816.15	1277.93
816.33	1349.61
816.50	1333.23
816.67	1220.59
816.84	1284.08
817.02	1212.40
817.19	1224.69
817.36	1255.40
817.53	1316.84
817.71	1265.64
817.88	1265.64
818.05	1253.36
818.22	1312.75
818.40	1253.36
818.57	1304.56
818.74	1230.83
818.91	1275.88
819.09	1228.78
819.26	1257.45
819.43	1333.23
819.60	1282.03
819.78	1312.75
819.95	1271.79
820.12	1218.54
820.29	1245.16
820.47	1185.77
820.64	1259.50
820.81	1234.93
820.98	1198.06
821.15	1282.03
821.33	1302.51
821.50	1273.84
821.67	1337.32
821.84	1224.69
822.02	1273.84
822.19	1308.65
822.36	1234.93
822.53	1292.27
822.70	1247.21
822.88	1263.60
823.05	1249.26
823.22	1335.28
823.39	1200.11
823.56	1298.41
823.74	1296.36
823.91	1220.59
824.08	1284.08
824.25	1290.22
824.42	1308.65
824.60	1253.36
824.77	1261.55
824.94	1265.64
825.11	1236.97
825.28	1236.97
825.45	1306.60
825.63	1243.12
825.80	1253.36
825.97	1245.16
826.14	1232.88
826.31	1271.79
826.48	1292.27
826.66	1355.76
826.83	1275.88
827.00	1206.25
827.17	1292.27
827.34	1345.52
827.51	1228.78
827.69	1230.83
827.86	1273.84
828.03	1251.31
828.20	1300.46
828.37	1226.73
828.54	1302.51
828.71	1306.60
828.89	1263.60
829.06	1275.88
829.23	1322.99
829.40	1366.00
829.57	1265.64
829.74	1241.07
829.91	1253.36
830.09	1232.88
830.26	1331.18
830.43	1351.66
830.60	1189.87
830.77	1310.70
830.94	1306.60
831.11	1269.74
831.28	1265.64
831.46	1298.41
831.63	1169.39
831.80	1249.26
831.97	1374.19
832.14	1208.30
832.31	1304.56
832.48	1232.88
832.65	1249.26
832.82	1288.17
832.99	1267.69
833.17	1263.60
833.34	1279.98
833.51	1286.12
833.68	1347.56
833.85	1222.64
834.02	1218.54
834.19	1318.89
834.36	1214.45
834.53	1347.56
834.70	1273.84
834.87	1224.69
835.04	1183.73
835.22	1232.88
835.39	1241.07
835.56	1185.77
835.73	1265.64
835.90	1265.64
836.07	1314.80
836.24	1310.70
836.41	1249.26
836.58	1218.54
836.75	1312.75
836.92	1175.53
837.09	1241.07
837.26	1302.51
837.43	1302.51
837.60	1208.30
837.77	1310.70
837.94	1271.79
838.12	1239.02
838.29	1286.12
838.46	1249.26
838.63	1273.84
838.80	1316.84
838.97	1284.08
839.14	1263.60
839.31	1269.74
839.48	1255.40
839.65	1335.28
839.82	1314.80
839.99	1306.60
840.16	1275.88
840.33	1249.26
840.50	1333.23
840.67	1247.21
840.84	1292.27
841.01	1220.59
841.18	1298.41
841.35	1310.70
841.52	1298.41
841.69	1234.93
841.86	1275.88
842.03	1277.93
842.20	1331.18
842.37	1302.51
842.54	1251.31
842.71	1247.21
842.88	1181.68
843.05	1267.69
843.22	1316.84
843.39	1286.12
843.56	1271.79
843.73	1279.98
843.90	1282.03
844.07	1230.83
844.24	1263.60
844.41	1265.64
844.58	1279.98
844.75	1286.12
844.92	1302.51
845.09	1286.12
845.26	1296.36
845.43	1329.13
845.60	1279.98
845.77	1290.22
845.94	1267.69
846.10	1275.88
846.27	1308.65
846.44	1249.26
846.61	1230.83
846.78	1284.08
846.95	1279.98
847.12	1269.74
847.29	1261.55
847.46	1243.12
847.63	1304.56
847.80	1191.92
847.97	1273.84
848.14	1234.93
848.31	1179.63
848.48	1249.26
848.65	1204.21
848.82	1185.77
848.98	1333.23
849.15	1173.49
849.32	1310.70
849.49	1339.37
849.66	1290.22
849.83	1243.12
850.00	1288.17
850.17	1284.08
850.34	1275.88
850.51	1216.49
850.68	1275.88
850.85	1290.22
851.01	1200.11
851.18	1257.45
851.35	1329.13
851.52	1284.08
851.69	1284.08
851.86	1300.46
852.03	1251.31
852.20	1269.74
852.37	1204.21
852.53	1325.04
852.70	1376.24
852.87	1224.69
853.04	1193.97
853.21	1286.12
853.38	1191.92
853.55	1212.40
853.72	1267.69
853.89	1243.12
854.05	1212.40
854.22	1202.16
854.39	1243.12
854.56	1224.69
854.73	1230.83
854.90	1327.08
855.07	1261.55
855.23	1212.40
855.40	1308.65
855.57	1284.08
855.74	1206.25
855.91	1255.40
856.08	1310.70
856.25	1255.40
856.41	1382.38
856.58	1271.79
856.75	1185.77
856.92	1228.78
857.09	1279.98
857.26	1241.07
857.42	1296.36
857.59	1210.35
857.76	1230.83
857.93	1331.18
858.10	1220.59
858.27	1298.41
858.43	1275.88
858.60	1304.56
858.77	1263.60
858.94	1239.02
859.11	1253.36
859.27	1271.79
859.44	1279.98
859.61	1300.46
859.78	1296.36
859.95	1239.02
860.12	1255.40
860.28	1294.32
860.45	1251.31
860.62	1212.40
860.79	1263.60
860.95	1247.21
861.12	1302.51
861.29	1335.28
861.46	1306.60
861.63	1239.02
861.79	1249.26
861.96	1282.03
862.13	1255.40
862.30	1327.08
862.47	1232.88
862.63	1232.88
862.80	1234.93
862.97	1255.40
863.14	1255.40
863.30	1249.26
863.47	1298.41
863.64	1298.41
863.81	1253.36
863.97	1290.22
864.14	1331.18
864.31	1241.07
864.48	1220.59
864.65	1220.59
864.81	1300.46
864.98	1294.32
865.15	1243.12
865.32	1212.40
865.48	1239.02
865.65	1290.22
865.82	1247.21
865.98	1171.44
866.15	1314.80
866.32	1296.36
866.49	1284.08
866.65	1286.12
866.82	1226.73
866.99	1253.36
867.16	1318.89
867.32	1263.60
867.49	1206.25
867.66	1234.93
867.83	1181.68
867.99	1284.08
868.16	1251.31
868.33	1263.60
868.49	1239.02
868.66	1226.73
868.83	1253.36
868.99	1267.69
869.16	1234.93
869.33	1224.69
869.50	1300.46
869.66	1327.08
869.83	1312.75
870.00	1302.51
870.16	1284.08
870.33	1226.73
870.50	1302.51
870.66	1230.83
870.83	1273.84
871.00	1251.31
871.17	1263.60
871.33	1259.50
871.50	1216.49
871.67	1322.99
871.83	1345.52
872.00	1279.98
872.17	1261.55
872.33	1290.22
872.50	1224.69
872.67	1234.93
872.83	1273.84
873.00	1282.03
873.17	1198.06
873.33	1206.25
873.50	1224.69
873.67	1208.30
873.83	1310.70
874.00	1239.02
874.16	1277.93
874.33	1236.97
874.50	1191.92
874.66	1282.03
874.83	1335.28
875.00	1286.12
875.16	1306.60
875.33	1200.11
875.50	1282.03
875.66	1277.93
875.83	1259.50
875.99	1306.60
876.16	1183.73
876.33	1318.89
876.49	1216.49
876.66	1210.35
876.83	1288.17
876.99	1296.36
877.16	1306.60
877.32	1228.78
877.49	1245.16
877.66	1288.17
877.82	1286.12
877.99	1247.21
878.15	1279.98
878.32	1253.36
878.49	1249.26
878.65	1282.03
878.82	1230.83
878.98	1308.65
879.15	1277.93
879.32	1277.93
879.48	1306.60
879.65	1310.70
879.81	1292.27
879.98	1335.28
880.15	1269.74
880.31	1312.75
880.48	1271.79
880.64	1232.88
880.81	1255.40
880.97	1245.16
881.14	1220.59
881.31	1349.61
881.47	1247.21
881.64	1214.45
881.80	1226.73
881.97	1255.40
882.13	1230.83
882.30	1216.49
882.47	1216.49
882.63	1282.03
882.80	1316.84
882.96	1269.74
883.13	1327.08
883.29	1226.73
883.46	1318.89
883.62	1298.41
883.79	1210.35
883.95	1232.88
884.12	1265.64
884.29	1232.88
884.45	1296.36
884.62	1271.79
884.78	1282.03
884.95	1218.54
885.11	1279.98
885.28	1316.84
885.44	1300.46
885.61	1228.78
885.77	1267.69
885.94	1263.60
886.10	1288.17
886.27	1257.45
886.43	1302.51
886.60	1173.49
886.76	1261.55
886.93	1277.93
887.09	1212.40
887.26	1236.97
887.42	1224.69
887.59	1255.40
887.75	1337.32
887.92	1263.60
888.08	1273.84
888.25	1296.36
888.41	1230.83
888.58	1322.99
888.74	1370.09
888.91	1271.79
>>>>>End Processed Spectral Data<<<<<
