SpectraSuite Data File
++++++++++++++++++++++++++++++++++++
Date: Sun Apr 03 19:55:20 CEST 2016
User: root
Dark Spectrum Present: No
Reference Spectrum Present: No
Number of Sampled Component Spectra: 1
Spectrometers: USB4C02835
Integration Time (usec): 10000 (USB4C02835)
Spectra Averaged: 1 (USB4C02835)
Boxcar Smoothing: 0 (USB4C02835)
Correct for Electrical Dark: No (USB4C02835)
Strobe/Lamp Enabled: No (USB4C02835)
Correct for Detector Non-linearity: No (USB4C02835)
Correct for Stray Light: No (USB4C02835)
Number of Pixels in Processed Spectrum: 3648
>>>>>Begin Processed Spectral Data<<<<<
177.47	1265.64
177.69	1265.64
177.91	1265.64
178.13	1208.30
178.36	1282.03
178.58	1282.03
178.80	1269.74
179.02	1327.08
179.24	1304.56
179.46	1282.03
179.68	1241.07
179.90	1226.73
180.13	1236.97
180.35	1257.45
180.57	1271.79
180.79	1273.84
181.01	1230.83
181.23	1228.78
181.45	1249.26
181.67	1210.35
181.90	1298.41
182.12	1245.16
182.34	1220.59
182.56	1239.02
182.78	1282.03
183.00	1284.08
183.22	1263.60
183.44	1226.73
183.66	1286.12
183.89	1218.54
184.11	1298.41
184.33	1339.37
184.55	1306.60
184.77	1306.60
184.99	1282.03
185.21	1234.93
185.43	1306.60
185.65	1253.36
185.87	1288.17
186.10	1294.32
186.32	1253.36
186.54	1204.21
186.76	1284.08
186.98	1282.03
187.20	1241.07
187.42	1224.69
187.64	1247.21
187.86	1286.12
188.08	1284.08
188.30	1257.45
188.52	1228.78
188.75	1259.50
188.97	1257.45
189.19	1257.45
189.41	1263.60
189.63	1267.69
189.85	1318.89
190.07	1261.55
190.29	1259.50
190.51	1251.31
190.73	1290.22
190.95	1282.03
191.17	1267.69
191.39	1255.40
191.61	1333.23
191.84	1232.88
192.06	1255.40
192.28	1218.54
192.50	1267.69
192.72	1290.22
192.94	1282.03
193.16	1298.41
193.38	1202.16
193.60	1253.36
193.82	1277.93
194.04	1290.22
194.26	1290.22
194.48	1230.83
194.70	1257.45
194.92	1271.79
195.14	1228.78
195.36	1218.54
195.58	1320.94
195.80	1224.69
196.02	1267.69
196.24	1251.31
196.46	1239.02
196.69	1255.40
196.91	1277.93
197.13	1286.12
197.35	1251.31
197.57	1355.76
197.79	1296.36
198.01	1255.40
198.23	1220.59
198.45	1312.75
198.67	1249.26
198.89	1261.55
199.11	1257.45
199.33	1275.88
199.55	1218.54
199.77	1234.93
199.99	1255.40
200.21	1320.94
200.43	1253.36
200.65	1271.79
200.87	1247.21
201.09	1220.59
201.31	1282.03
201.53	1333.23
201.75	1202.16
201.97	1257.45
202.19	1327.08
202.41	1220.59
202.63	1261.55
202.85	1241.07
203.07	1275.88
203.29	1222.64
203.51	1243.12
203.73	1331.18
203.95	1306.60
204.17	1226.73
204.39	1253.36
204.61	1243.12
204.83	1294.32
205.05	1245.16
205.27	1253.36
205.49	1304.56
205.71	1259.50
205.93	1255.40
206.15	1243.12
206.37	1245.16
206.59	1286.12
206.81	1228.78
207.03	1224.69
207.25	1308.65
207.47	1230.83
207.69	1247.21
207.91	1312.75
208.13	1290.22
208.34	1296.36
208.56	1292.27
208.78	1275.88
209.00	1312.75
209.22	1259.50
209.44	1300.46
209.66	1261.55
209.88	1279.98
210.10	1196.01
210.32	1279.98
210.54	1257.45
210.76	1329.13
210.98	1284.08
211.20	1277.93
211.42	1320.94
211.64	1232.88
211.86	1255.40
212.08	1349.61
212.30	1292.27
212.52	1310.70
212.74	1269.74
212.96	1312.75
213.17	1284.08
213.39	1232.88
213.61	1236.97
213.83	1296.36
214.05	1263.60
214.27	1302.51
214.49	1275.88
214.71	1257.45
214.93	1181.68
215.15	1271.79
215.37	1273.84
215.59	1304.56
215.81	1288.17
216.03	1214.45
216.24	1296.36
216.46	1288.17
216.68	1290.22
216.90	1273.84
217.12	1329.13
217.34	1286.12
217.56	1322.99
217.78	1212.40
218.00	1259.50
218.22	1243.12
218.44	1290.22
218.66	1210.35
218.87	1322.99
219.09	1308.65
219.31	1253.36
219.53	1331.18
219.75	1210.35
219.97	1316.84
220.19	1298.41
220.41	1253.36
220.63	1300.46
220.85	1269.74
221.06	1312.75
221.28	1314.80
221.50	1245.16
221.72	1275.88
221.94	1294.32
222.16	1232.88
222.38	1343.47
222.60	1259.50
222.82	1253.36
223.03	1327.08
223.25	1294.32
223.47	1288.17
223.69	1290.22
223.91	1198.06
224.13	1259.50
224.35	1247.21
224.57	1236.97
224.78	1277.93
225.00	1294.32
225.22	1267.69
225.44	1216.49
225.66	1279.98
225.88	1239.02
226.10	1294.32
226.32	1253.36
226.53	1302.51
226.75	1296.36
226.97	1218.54
227.19	1239.02
227.41	1296.36
227.63	1357.80
227.85	1251.31
228.06	1306.60
228.28	1279.98
228.50	1193.97
228.72	1175.53
228.94	1306.60
229.16	1253.36
229.37	1224.69
229.59	1243.12
229.81	1249.26
230.03	1312.75
230.25	1286.12
230.47	1284.08
230.69	1251.31
230.90	1232.88
231.12	1282.03
231.34	1298.41
231.56	1263.60
231.78	1294.32
232.00	1308.65
232.21	1173.49
232.43	1327.08
232.65	1241.07
232.87	1226.73
233.09	1210.35
233.30	1232.88
233.52	1224.69
233.74	1355.76
233.96	1243.12
234.18	1218.54
234.40	1271.79
234.61	1275.88
234.83	1325.04
235.05	1224.69
235.27	1251.31
235.49	1300.46
235.70	1263.60
235.92	1263.60
236.14	1284.08
236.36	1277.93
236.58	1284.08
236.79	1257.45
237.01	1257.45
237.23	1263.60
237.45	1196.01
237.67	1339.37
237.88	1302.51
238.10	1255.40
238.32	1179.63
238.54	1325.04
238.76	1216.49
238.97	1273.84
239.19	1282.03
239.41	1226.73
239.63	1292.27
239.85	1234.93
240.06	1279.98
240.28	1218.54
240.50	1284.08
240.72	1296.36
240.93	1279.98
241.15	1257.45
241.37	1329.13
241.59	1314.80
241.81	1298.41
242.02	1318.89
242.24	1288.17
242.46	1247.21
242.68	1282.03
242.89	1288.17
243.11	1277.93
243.33	1322.99
243.55	1279.98
243.76	1277.93
243.98	1239.02
244.20	1279.98
244.42	1286.12
244.64	1325.04
244.85	1220.59
245.07	1257.45
245.29	1245.16
245.51	1306.60
245.72	1277.93
245.94	1310.70
246.16	1204.21
246.38	1322.99
246.59	1241.07
246.81	1232.88
247.03	1232.88
247.24	1210.35
247.46	1263.60
247.68	1337.32
247.90	1224.69
248.11	1249.26
248.33	1273.84
248.55	1214.45
248.77	1325.04
248.98	1198.06
249.20	1263.60
249.42	1286.12
249.64	1234.93
249.85	1228.78
250.07	1351.66
250.29	1290.22
250.50	1279.98
250.72	1288.17
250.94	1239.02
251.16	1267.69
251.37	1335.28
251.59	1259.50
251.81	1302.51
252.02	1279.98
252.24	1255.40
252.46	1282.03
252.68	1196.01
252.89	1267.69
253.11	1335.28
253.33	1257.45
253.54	1216.49
253.76	1269.74
253.98	1273.84
254.20	1216.49
254.41	1257.45
254.63	1300.46
254.85	1286.12
255.06	1249.26
255.28	1322.99
255.50	1245.16
255.71	1245.16
255.93	1269.74
256.15	1271.79
256.36	1216.49
256.58	1296.36
256.80	1320.94
257.02	1290.22
257.23	1273.84
257.45	1304.56
257.67	1202.16
257.88	1253.36
258.10	1239.02
258.32	1230.83
258.53	1257.45
258.75	1208.30
258.97	1271.79
259.18	1249.26
259.40	1275.88
259.62	1249.26
259.83	1232.88
260.05	1277.93
260.27	1275.88
260.48	1343.47
260.70	1306.60
260.92	1267.69
261.13	1271.79
261.35	1224.69
261.57	1234.93
261.78	1189.87
262.00	1253.36
262.22	1236.97
262.43	1255.40
262.65	1271.79
262.86	1241.07
263.08	1322.99
263.30	1247.21
263.51	1349.61
263.73	1222.64
263.95	1286.12
264.16	1288.17
264.38	1302.51
264.60	1300.46
264.81	1261.55
265.03	1257.45
265.25	1314.80
265.46	1193.97
265.68	1259.50
265.89	1257.45
266.11	1210.35
266.33	1263.60
266.54	1286.12
266.76	1306.60
266.98	1282.03
267.19	1337.32
267.41	1230.83
267.62	1255.40
267.84	1247.21
268.06	1329.13
268.27	1298.41
268.49	1259.50
268.70	1224.69
268.92	1239.02
269.14	1318.89
269.35	1259.50
269.57	1314.80
269.79	1298.41
270.00	1265.64
270.22	1279.98
270.43	1198.06
270.65	1200.11
270.87	1212.40
271.08	1253.36
271.30	1273.84
271.51	1302.51
271.73	1269.74
271.95	1245.16
272.16	1257.45
272.38	1279.98
272.59	1269.74
272.81	1286.12
273.02	1251.31
273.24	1306.60
273.46	1310.70
273.67	1265.64
273.89	1341.42
274.10	1337.32
274.32	1257.45
274.54	1374.19
274.75	1363.95
274.97	1396.71
275.18	1251.31
275.40	1306.60
275.61	1230.83
275.83	1232.88
276.05	1230.83
276.26	1366.00
276.48	1269.74
276.69	1241.07
276.91	1318.89
277.12	1345.52
277.34	1273.84
277.55	1214.45
277.77	1210.35
277.99	1210.35
278.20	1230.83
278.42	1214.45
278.63	1298.41
278.85	1222.64
279.06	1216.49
279.28	1337.32
279.49	1255.40
279.71	1198.06
279.93	1232.88
280.14	1282.03
280.36	1265.64
280.57	1255.40
280.79	1284.08
281.00	1220.59
281.22	1236.97
281.43	1300.46
281.65	1261.55
281.86	1298.41
282.08	1314.80
282.29	1243.12
282.51	1239.02
282.73	1353.71
282.94	1255.40
283.16	1310.70
283.37	1277.93
283.59	1232.88
283.80	1241.07
284.02	1279.98
284.23	1316.84
284.45	1261.55
284.66	1230.83
284.88	1230.83
285.09	1253.36
285.31	1314.80
285.52	1241.07
285.74	1241.07
285.95	1255.40
286.17	1306.60
286.38	1339.37
286.60	1247.21
286.81	1265.64
287.03	1349.61
287.24	1239.02
287.46	1343.47
287.67	1267.69
287.89	1261.55
288.10	1277.93
288.32	1306.60
288.53	1261.55
288.75	1253.36
288.96	1263.60
289.18	1245.16
289.39	1220.59
289.61	1267.69
289.82	1234.93
290.04	1275.88
290.25	1308.65
290.47	1298.41
290.68	1263.60
290.90	1304.56
291.11	1234.93
291.33	1329.13
291.54	1218.54
291.76	1265.64
291.97	1273.84
292.18	1290.22
292.40	1247.21
292.61	1232.88
292.83	1249.26
293.04	1269.74
293.26	1257.45
293.47	1357.80
293.69	1341.42
293.90	1296.36
294.12	1304.56
294.33	1265.64
294.55	1265.64
294.76	1279.98
294.97	1314.80
295.19	1308.65
295.40	1202.16
295.62	1308.65
295.83	1251.31
296.05	1259.50
296.26	1261.55
296.48	1265.64
296.69	1329.13
296.90	1230.83
297.12	1265.64
297.33	1292.27
297.55	1259.50
297.76	1273.84
297.98	1263.60
298.19	1292.27
298.41	1269.74
298.62	1282.03
298.83	1236.97
299.05	1234.93
299.26	1261.55
299.48	1322.99
299.69	1228.78
299.90	1277.93
300.12	1279.98
300.33	1300.46
300.55	1228.78
300.76	1327.08
300.98	1320.94
301.19	1277.93
301.40	1282.03
301.62	1275.88
301.83	1253.36
302.05	1284.08
302.26	1271.79
302.47	1302.51
302.69	1294.32
302.90	1259.50
303.12	1304.56
303.33	1286.12
303.54	1286.12
303.76	1185.77
303.97	1314.80
304.19	1273.84
304.40	1232.88
304.61	1277.93
304.83	1265.64
305.04	1286.12
305.26	1325.04
305.47	1331.18
305.68	1239.02
305.90	1259.50
306.11	1314.80
306.33	1298.41
306.54	1253.36
306.75	1214.45
306.97	1210.35
307.18	1208.30
307.39	1333.23
307.61	1265.64
307.82	1212.40
308.04	1245.16
308.25	1146.86
308.46	1296.36
308.68	1331.18
308.89	1239.02
309.10	1212.40
309.32	1196.01
309.53	1277.93
309.74	1189.87
309.96	1241.07
310.17	1298.41
310.39	1232.88
310.60	1308.65
310.81	1347.56
311.03	1259.50
311.24	1284.08
311.45	1226.73
311.67	1273.84
311.88	1286.12
312.09	1269.74
312.31	1292.27
312.52	1310.70
312.73	1265.64
312.95	1304.56
313.16	1325.04
313.37	1265.64
313.59	1257.45
313.80	1294.32
314.01	1288.17
314.23	1226.73
314.44	1267.69
314.65	1302.51
314.87	1216.49
315.08	1214.45
315.29	1253.36
315.51	1298.41
315.72	1226.73
315.93	1259.50
316.15	1306.60
316.36	1267.69
316.57	1253.36
316.79	1257.45
317.00	1239.02
317.21	1308.65
317.43	1228.78
317.64	1243.12
317.85	1251.31
318.07	1243.12
318.28	1257.45
318.49	1273.84
318.70	1249.26
318.92	1183.73
319.13	1288.17
319.34	1253.36
319.56	1236.97
319.77	1230.83
319.98	1339.37
320.20	1337.32
320.41	1249.26
320.62	1200.11
320.83	1249.26
321.05	1312.75
321.26	1249.26
321.47	1177.58
321.69	1273.84
321.90	1286.12
322.11	1265.64
322.32	1337.32
322.54	1247.21
322.75	1292.27
322.96	1196.01
323.18	1296.36
323.39	1273.84
323.60	1181.68
323.81	1220.59
324.03	1273.84
324.24	1255.40
324.45	1241.07
324.66	1241.07
324.88	1181.68
325.09	1282.03
325.30	1257.45
325.52	1249.26
325.73	1245.16
325.94	1255.40
326.15	1241.07
326.37	1269.74
326.58	1243.12
326.79	1202.16
327.00	1212.40
327.22	1310.70
327.43	1325.04
327.64	1222.64
327.85	1230.83
328.07	1249.26
328.28	1279.98
328.49	1304.56
328.70	1243.12
328.92	1249.26
329.13	1226.73
329.34	1380.33
329.55	1298.41
329.76	1216.49
329.98	1259.50
330.19	1339.37
330.40	1249.26
330.61	1196.01
330.83	1273.84
331.04	1310.70
331.25	1208.30
331.46	1263.60
331.68	1269.74
331.89	1208.30
332.10	1234.93
332.31	1325.04
332.52	1198.06
332.74	1206.25
332.95	1275.88
333.16	1314.80
333.37	1232.88
333.58	1271.79
333.80	1263.60
334.01	1263.60
334.22	1282.03
334.43	1275.88
334.64	1296.36
334.86	1257.45
335.07	1273.84
335.28	1212.40
335.49	1267.69
335.70	1267.69
335.92	1333.23
336.13	1312.75
336.34	1198.06
336.55	1253.36
336.76	1255.40
336.98	1245.16
337.19	1300.46
337.40	1329.13
337.61	1304.56
337.82	1234.93
338.04	1277.93
338.25	1241.07
338.46	1257.45
338.67	1183.73
338.88	1294.32
339.09	1249.26
339.31	1253.36
339.52	1279.98
339.73	1179.63
339.94	1296.36
340.15	1267.69
340.36	1234.93
340.58	1312.75
340.79	1269.74
341.00	1241.07
341.21	1341.42
341.42	1214.45
341.63	1273.84
341.85	1249.26
342.06	1140.72
342.27	1271.79
342.48	1259.50
342.69	1308.65
342.90	1259.50
343.12	1304.56
343.33	1306.60
343.54	1275.88
343.75	1292.27
343.96	1230.83
344.17	1269.74
344.38	1222.64
344.60	1239.02
344.81	1269.74
345.02	1308.65
345.23	1312.75
345.44	1271.79
345.65	1296.36
345.86	1228.78
346.07	1298.41
346.29	1298.41
346.50	1267.69
346.71	1329.13
346.92	1286.12
347.13	1239.02
347.34	1288.17
347.55	1228.78
347.76	1261.55
347.98	1298.41
348.19	1304.56
348.40	1271.79
348.61	1288.17
348.82	1275.88
349.03	1249.26
349.24	1282.03
349.45	1232.88
349.66	1320.94
349.88	1292.27
350.09	1239.02
350.30	1206.25
350.51	1271.79
350.72	1275.88
350.93	1202.16
351.14	1226.73
351.35	1294.32
351.56	1294.32
351.77	1232.88
351.99	1279.98
352.20	1277.93
352.41	1288.17
352.62	1335.28
352.83	1333.23
353.04	1251.31
353.25	1267.69
353.46	1314.80
353.67	1355.76
353.88	1273.84
354.09	1363.95
354.30	1322.99
354.52	1214.45
354.73	1214.45
354.94	1206.25
355.15	1310.70
355.36	1296.36
355.57	1265.64
355.78	1232.88
355.99	1249.26
356.20	1275.88
356.41	1267.69
356.62	1308.65
356.83	1298.41
357.04	1259.50
357.25	1296.36
357.46	1226.73
357.68	1243.12
357.89	1189.87
358.10	1208.30
358.31	1282.03
358.52	1259.50
358.73	1216.49
358.94	1290.22
359.15	1181.68
359.36	1245.16
359.57	1236.97
359.78	1355.76
359.99	1212.40
360.20	1273.84
360.41	1290.22
360.62	1275.88
360.83	1265.64
361.04	1218.54
361.25	1259.50
361.46	1226.73
361.67	1282.03
361.88	1263.60
362.09	1234.93
362.30	1255.40
362.51	1226.73
362.72	1206.25
362.93	1265.64
363.14	1222.64
363.35	1224.69
363.56	1273.84
363.78	1284.08
363.99	1257.45
364.20	1316.84
364.41	1251.31
364.62	1224.69
364.83	1302.51
365.04	1290.22
365.25	1294.32
365.46	1212.40
365.67	1165.29
365.88	1234.93
366.09	1294.32
366.30	1298.41
366.51	1210.35
366.72	1265.64
366.93	1349.61
367.14	1232.88
367.35	1253.36
367.56	1228.78
367.77	1282.03
367.98	1306.60
368.18	1234.93
368.39	1204.21
368.60	1259.50
368.81	1245.16
369.02	1230.83
369.23	1191.92
369.44	1243.12
369.65	1263.60
369.86	1204.21
370.07	1282.03
370.28	1226.73
370.49	1259.50
370.70	1253.36
370.91	1269.74
371.12	1269.74
371.33	1320.94
371.54	1236.97
371.75	1312.75
371.96	1304.56
372.17	1212.40
372.38	1288.17
372.59	1273.84
372.80	1253.36
373.01	1341.42
373.22	1259.50
373.43	1259.50
373.64	1245.16
373.85	1374.19
374.06	1327.08
374.26	1269.74
374.47	1327.08
374.68	1245.16
374.89	1214.45
375.10	1245.16
375.31	1267.69
375.52	1243.12
375.73	1288.17
375.94	1241.07
376.15	1247.21
376.36	1294.32
376.57	1286.12
376.78	1296.36
376.99	1249.26
377.20	1253.36
377.40	1220.59
377.61	1308.65
377.82	1261.55
378.03	1282.03
378.24	1257.45
378.45	1275.88
378.66	1241.07
378.87	1277.93
379.08	1269.74
379.29	1181.68
379.50	1304.56
379.71	1273.84
379.91	1259.50
380.12	1312.75
380.33	1306.60
380.54	1275.88
380.75	1290.22
380.96	1251.31
381.17	1277.93
381.38	1187.82
381.59	1325.04
381.80	1243.12
382.00	1294.32
382.21	1335.28
382.42	1243.12
382.63	1230.83
382.84	1353.71
383.05	1296.36
383.26	1298.41
383.47	1304.56
383.68	1245.16
383.88	1308.65
384.09	1351.66
384.30	1284.08
384.51	1269.74
384.72	1288.17
384.93	1228.78
385.14	1322.99
385.35	1343.47
385.55	1257.45
385.76	1273.84
385.97	1175.53
386.18	1200.11
386.39	1331.18
386.60	1282.03
386.81	1224.69
387.02	1286.12
387.22	1292.27
387.43	1308.65
387.64	1253.36
387.85	1282.03
388.06	1273.84
388.27	1335.28
388.48	1232.88
388.68	1267.69
388.89	1294.32
389.10	1302.51
389.31	1247.21
389.52	1345.52
389.73	1243.12
389.93	1304.56
390.14	1214.45
390.35	1265.64
390.56	1220.59
390.77	1212.40
390.98	1214.45
391.18	1263.60
391.39	1335.28
391.60	1234.93
391.81	1263.60
392.02	1245.16
392.23	1304.56
392.43	1329.13
392.64	1304.56
392.85	1241.07
393.06	1236.97
393.27	1218.54
393.47	1251.31
393.68	1284.08
393.89	1300.46
394.10	1273.84
394.31	1304.56
394.52	1251.31
394.72	1286.12
394.93	1284.08
395.14	1165.29
395.35	1263.60
395.56	1279.98
395.76	1271.79
395.97	1277.93
396.18	1255.40
396.39	1259.50
396.60	1304.56
396.80	1249.26
397.01	1286.12
397.22	1279.98
397.43	1292.27
397.64	1257.45
397.84	1263.60
398.05	1261.55
398.26	1294.32
398.47	1245.16
398.67	1241.07
398.88	1212.40
399.09	1304.56
399.30	1294.32
399.51	1318.89
399.71	1249.26
399.92	1243.12
400.13	1277.93
400.34	1290.22
400.54	1249.26
400.75	1306.60
400.96	1269.74
401.17	1298.41
401.37	1261.55
401.58	1200.11
401.79	1290.22
402.00	1271.79
402.21	1296.36
402.41	1314.80
402.62	1189.87
402.83	1308.65
403.04	1263.60
403.24	1318.89
403.45	1269.74
403.66	1284.08
403.87	1210.35
404.07	1279.98
404.28	1273.84
404.49	1257.45
404.70	1275.88
404.90	1316.84
405.11	1243.12
405.32	1222.64
405.52	1290.22
405.73	1239.02
405.94	1212.40
406.15	1255.40
406.35	1239.02
406.56	1261.55
406.77	1255.40
406.98	1226.73
407.18	1228.78
407.39	1259.50
407.60	1224.69
407.80	1290.22
408.01	1241.07
408.22	1284.08
408.43	1322.99
408.63	1263.60
408.84	1310.70
409.05	1241.07
409.25	1308.65
409.46	1220.59
409.67	1345.52
409.88	1224.69
410.08	1259.50
410.29	1284.08
410.50	1255.40
410.70	1294.32
410.91	1273.84
411.12	1316.84
411.32	1302.51
411.53	1204.21
411.74	1253.36
411.95	1243.12
412.15	1241.07
412.36	1341.42
412.57	1224.69
412.77	1290.22
412.98	1245.16
413.19	1249.26
413.39	1218.54
413.60	1259.50
413.81	1286.12
414.01	1337.32
414.22	1206.25
414.43	1220.59
414.63	1392.62
414.84	1255.40
415.05	1273.84
415.25	1218.54
415.46	1257.45
415.67	1327.08
415.87	1241.07
416.08	1292.27
416.29	1253.36
416.49	1300.46
416.70	1308.65
416.91	1232.88
417.11	1214.45
417.32	1275.88
417.53	1222.64
417.73	1234.93
417.94	1234.93
418.15	1249.26
418.35	1247.21
418.56	1306.60
418.77	1335.28
418.97	1196.01
419.18	1177.58
419.38	1259.50
419.59	1337.32
419.80	1273.84
420.00	1187.82
420.21	1273.84
420.42	1239.02
420.62	1351.66
420.83	1286.12
421.04	1247.21
421.24	1273.84
421.45	1230.83
421.65	1284.08
421.86	1275.88
422.07	1304.56
422.27	1222.64
422.48	1286.12
422.69	1247.21
422.89	1253.36
423.10	1253.36
423.30	1294.32
423.51	1236.97
423.72	1271.79
423.92	1290.22
424.13	1271.79
424.33	1265.64
424.54	1271.79
424.75	1282.03
424.95	1220.59
425.16	1234.93
425.36	1265.64
425.57	1288.17
425.78	1253.36
425.98	1339.37
426.19	1208.30
426.39	1183.73
426.60	1230.83
426.81	1253.36
427.01	1306.60
427.22	1236.97
427.42	1247.21
427.63	1200.11
427.83	1232.88
428.04	1257.45
428.25	1300.46
428.45	1343.47
428.66	1185.77
428.86	1255.40
429.07	1196.01
429.28	1298.41
429.48	1243.12
429.69	1286.12
429.89	1304.56
430.10	1239.02
430.30	1298.41
430.51	1206.25
430.71	1279.98
430.92	1193.97
431.13	1245.16
431.33	1296.36
431.54	1296.36
431.74	1306.60
431.95	1298.41
432.15	1255.40
432.36	1292.27
432.56	1275.88
432.77	1320.94
432.98	1351.66
433.18	1259.50
433.39	1247.21
433.59	1292.27
433.80	1234.93
434.00	1275.88
434.21	1277.93
434.41	1212.40
434.62	1277.93
434.82	1224.69
435.03	1282.03
435.23	1247.21
435.44	1218.54
435.64	1245.16
435.85	1298.41
436.06	1290.22
436.26	1282.03
436.47	1232.88
436.67	1210.35
436.88	1292.27
437.08	1380.33
437.29	1241.07
437.49	1302.51
437.70	1269.74
437.90	1208.30
438.11	1353.71
438.31	1351.66
438.52	1216.49
438.72	1265.64
438.93	1218.54
439.13	1239.02
439.34	1308.65
439.54	1228.78
439.75	1286.12
439.95	1312.75
440.16	1243.12
440.36	1265.64
440.57	1232.88
440.77	1296.36
440.98	1232.88
441.18	1253.36
441.39	1267.69
441.59	1140.72
441.80	1282.03
442.00	1292.27
442.21	1277.93
442.41	1236.97
442.62	1263.60
442.82	1208.30
443.02	1173.49
443.23	1286.12
443.43	1290.22
443.64	1255.40
443.84	1210.35
444.05	1282.03
444.25	1302.51
444.46	1318.89
444.66	1355.76
444.87	1345.52
445.07	1245.16
445.28	1232.88
445.48	1255.40
445.69	1261.55
445.89	1267.69
446.09	1329.13
446.30	1202.16
446.50	1232.88
446.71	1277.93
446.91	1261.55
447.12	1327.08
447.32	1306.60
447.53	1193.97
447.73	1286.12
447.93	1269.74
448.14	1306.60
448.34	1269.74
448.55	1300.46
448.75	1290.22
448.96	1279.98
449.16	1286.12
449.36	1232.88
449.57	1277.93
449.77	1341.42
449.98	1243.12
450.18	1243.12
450.39	1261.55
450.59	1263.60
450.79	1298.41
451.00	1331.18
451.20	1290.22
451.41	1292.27
451.61	1298.41
451.81	1279.98
452.02	1351.66
452.22	1263.60
452.43	1302.51
452.63	1245.16
452.84	1366.00
453.04	1288.17
453.24	1191.92
453.45	1322.99
453.65	1226.73
453.86	1279.98
454.06	1269.74
454.26	1302.51
454.47	1253.36
454.67	1179.63
454.87	1284.08
455.08	1279.98
455.28	1314.80
455.49	1230.83
455.69	1345.52
455.89	1310.70
456.10	1290.22
456.30	1263.60
456.51	1277.93
456.71	1337.32
456.91	1275.88
457.12	1318.89
457.32	1230.83
457.52	1294.32
457.73	1273.84
457.93	1212.40
458.14	1292.27
458.34	1267.69
458.54	1234.93
458.75	1304.56
458.95	1298.41
459.15	1378.28
459.36	1294.32
459.56	1279.98
459.76	1255.40
459.97	1411.05
460.17	1320.94
460.37	1275.88
460.58	1179.63
460.78	1269.74
460.99	1251.31
461.19	1339.37
461.39	1261.55
461.60	1296.36
461.80	1298.41
462.00	1206.25
462.21	1286.12
462.41	1247.21
462.61	1273.84
462.82	1284.08
463.02	1263.60
463.22	1214.45
463.43	1200.11
463.63	1314.80
463.83	1239.02
464.04	1306.60
464.24	1290.22
464.44	1234.93
464.64	1241.07
464.85	1392.62
465.05	1239.02
465.25	1249.26
465.46	1306.60
465.66	1275.88
465.86	1249.26
466.07	1275.88
466.27	1335.28
466.47	1255.40
466.68	1265.64
466.88	1282.03
467.08	1267.69
467.29	1292.27
467.49	1224.69
467.69	1275.88
467.89	1308.65
468.10	1282.03
468.30	1318.89
468.50	1288.17
468.71	1267.69
468.91	1224.69
469.11	1320.94
469.31	1214.45
469.52	1355.76
469.72	1298.41
469.92	1257.45
470.13	1255.40
470.33	1292.27
470.53	1318.89
470.73	1288.17
470.94	1234.93
471.14	1226.73
471.34	1343.47
471.54	1290.22
471.75	1314.80
471.95	1234.93
472.15	1282.03
472.36	1243.12
472.56	1216.49
472.76	1257.45
472.96	1320.94
473.17	1222.64
473.37	1282.03
473.57	1228.78
473.77	1312.75
473.98	1292.27
474.18	1232.88
474.38	1243.12
474.58	1286.12
474.79	1222.64
474.99	1325.04
475.19	1300.46
475.39	1222.64
475.60	1290.22
475.80	1298.41
476.00	1249.26
476.20	1253.36
476.41	1259.50
476.61	1320.94
476.81	1214.45
477.01	1265.64
477.21	1312.75
477.42	1288.17
477.62	1275.88
477.82	1257.45
478.02	1202.16
478.23	1353.71
478.43	1273.84
478.63	1239.02
478.83	1200.11
479.03	1255.40
479.24	1253.36
479.44	1247.21
479.64	1173.49
479.84	1269.74
480.04	1277.93
480.25	1304.56
480.45	1255.40
480.65	1286.12
480.85	1290.22
481.06	1265.64
481.26	1320.94
481.46	1288.17
481.66	1282.03
481.86	1261.55
482.06	1255.40
482.27	1234.93
482.47	1329.13
482.67	1351.66
482.87	1200.11
483.07	1316.84
483.28	1347.56
483.48	1206.25
483.68	1288.17
483.88	1300.46
484.08	1271.79
484.29	1294.32
484.49	1202.16
484.69	1212.40
484.89	1224.69
485.09	1253.36
485.29	1271.79
485.50	1226.73
485.70	1314.80
485.90	1284.08
486.10	1292.27
486.30	1316.84
486.50	1300.46
486.71	1263.60
486.91	1314.80
487.11	1284.08
487.31	1316.84
487.51	1249.26
487.71	1294.32
487.91	1327.08
488.12	1288.17
488.32	1220.59
488.52	1230.83
488.72	1257.45
488.92	1263.60
489.12	1290.22
489.32	1286.12
489.53	1298.41
489.73	1294.32
489.93	1251.31
490.13	1335.28
490.33	1290.22
490.53	1339.37
490.73	1300.46
490.94	1239.02
491.14	1329.13
491.34	1228.78
491.54	1282.03
491.74	1267.69
491.94	1320.94
492.14	1363.95
492.34	1249.26
492.54	1218.54
492.75	1320.94
492.95	1343.47
493.15	1183.73
493.35	1275.88
493.55	1308.65
493.75	1318.89
493.95	1290.22
494.15	1277.93
494.35	1327.08
494.56	1206.25
494.76	1230.83
494.96	1329.13
495.16	1247.21
495.36	1290.22
495.56	1241.07
495.76	1263.60
495.96	1261.55
496.16	1298.41
496.36	1282.03
496.56	1318.89
496.77	1333.23
496.97	1247.21
497.17	1269.74
497.37	1253.36
497.57	1216.49
497.77	1314.80
497.97	1265.64
498.17	1193.97
498.37	1222.64
498.57	1249.26
498.77	1255.40
498.97	1316.84
499.17	1304.56
499.38	1286.12
499.58	1312.75
499.78	1241.07
499.98	1288.17
500.18	1288.17
500.38	1232.88
500.58	1320.94
500.78	1261.55
500.98	1200.11
501.18	1245.16
501.38	1253.36
501.58	1343.47
501.78	1282.03
501.98	1304.56
502.18	1282.03
502.38	1216.49
502.58	1271.79
502.78	1284.08
502.98	1318.89
503.18	1306.60
503.38	1265.64
503.59	1308.65
503.79	1267.69
503.99	1277.93
504.19	1300.46
504.39	1302.51
504.59	1290.22
504.79	1263.60
504.99	1255.40
505.19	1259.50
505.39	1318.89
505.59	1298.41
505.79	1249.26
505.99	1288.17
506.19	1200.11
506.39	1322.99
506.59	1269.74
506.79	1325.04
506.99	1300.46
507.19	1228.78
507.39	1314.80
507.59	1304.56
507.79	1204.21
507.99	1214.45
508.19	1236.97
508.39	1298.41
508.59	1316.84
508.79	1290.22
508.99	1263.60
509.19	1259.50
509.39	1275.88
509.59	1308.65
509.79	1232.88
509.99	1331.18
510.19	1286.12
510.39	1245.16
510.59	1292.27
510.79	1306.60
510.99	1269.74
511.19	1290.22
511.39	1302.51
511.59	1327.08
511.79	1310.70
511.99	1294.32
512.19	1257.45
512.38	1277.93
512.58	1349.61
512.78	1302.51
512.98	1271.79
513.18	1306.60
513.38	1269.74
513.58	1273.84
513.78	1243.12
513.98	1279.98
514.18	1325.04
514.38	1279.98
514.58	1306.60
514.78	1253.36
514.98	1257.45
515.18	1292.27
515.38	1202.16
515.58	1302.51
515.78	1208.30
515.98	1273.84
516.18	1257.45
516.38	1292.27
516.57	1304.56
516.77	1347.56
516.97	1251.31
517.17	1257.45
517.37	1310.70
517.57	1316.84
517.77	1261.55
517.97	1322.99
518.17	1249.26
518.37	1318.89
518.57	1212.40
518.77	1232.88
518.97	1290.22
519.16	1249.26
519.36	1292.27
519.56	1306.60
519.76	1214.45
519.96	1220.59
520.16	1241.07
520.36	1277.93
520.56	1255.40
520.76	1298.41
520.96	1271.79
521.16	1304.56
521.35	1288.17
521.55	1265.64
521.75	1210.35
521.95	1247.21
522.15	1300.46
522.35	1325.04
522.55	1275.88
522.75	1282.03
522.95	1331.18
523.14	1261.55
523.34	1279.98
523.54	1308.65
523.74	1234.93
523.94	1271.79
524.14	1308.65
524.34	1239.02
524.54	1308.65
524.73	1279.98
524.93	1292.27
525.13	1361.90
525.33	1234.93
525.53	1282.03
525.73	1267.69
525.93	1265.64
526.13	1286.12
526.32	1282.03
526.52	1257.45
526.72	1241.07
526.92	1239.02
527.12	1331.18
527.32	1236.97
527.52	1261.55
527.71	1243.12
527.91	1247.21
528.11	1308.65
528.31	1329.13
528.51	1265.64
528.71	1316.84
528.90	1271.79
529.10	1314.80
529.30	1232.88
529.50	1277.93
529.70	1239.02
529.90	1269.74
530.09	1257.45
530.29	1337.32
530.49	1265.64
530.69	1300.46
530.89	1296.36
531.09	1204.21
531.28	1257.45
531.48	1298.41
531.68	1318.89
531.88	1277.93
532.08	1292.27
532.28	1290.22
532.47	1282.03
532.67	1318.89
532.87	1275.88
533.07	1236.97
533.27	1302.51
533.46	1220.59
533.66	1257.45
533.86	1198.06
534.06	1259.50
534.26	1261.55
534.45	1255.40
534.65	1312.75
534.85	1288.17
535.05	1273.84
535.25	1239.02
535.44	1292.27
535.64	1271.79
535.84	1361.90
536.04	1247.21
536.24	1265.64
536.43	1300.46
536.63	1300.46
536.83	1228.78
537.03	1243.12
537.22	1294.32
537.42	1308.65
537.62	1245.16
537.82	1413.10
538.02	1335.28
538.21	1347.56
538.41	1284.08
538.61	1304.56
538.81	1322.99
539.00	1239.02
539.20	1214.45
539.40	1273.84
539.60	1304.56
539.79	1322.99
539.99	1245.16
540.19	1333.23
540.39	1372.14
540.58	1249.26
540.78	1265.64
540.98	1290.22
541.18	1294.32
541.37	1312.75
541.57	1304.56
541.77	1263.60
541.97	1216.49
542.16	1273.84
542.36	1222.64
542.56	1343.47
542.76	1318.89
542.95	1267.69
543.15	1282.03
543.35	1255.40
543.54	1259.50
543.74	1288.17
543.94	1322.99
544.14	1325.04
544.33	1202.16
544.53	1236.97
544.73	1286.12
544.93	1378.28
545.12	1263.60
545.32	1298.41
545.52	1275.88
545.71	1249.26
545.91	1224.69
546.11	1302.51
546.30	1261.55
546.50	1257.45
546.70	1261.55
546.90	1265.64
547.09	1322.99
547.29	1271.79
547.49	1236.97
547.68	1292.27
547.88	1267.69
548.08	1298.41
548.27	1282.03
548.47	1316.84
548.67	1269.74
548.87	1298.41
549.06	1288.17
549.26	1239.02
549.46	1212.40
549.65	1349.61
549.85	1234.93
550.05	1298.41
550.24	1316.84
550.44	1349.61
550.64	1304.56
550.83	1370.09
551.03	1273.84
551.23	1335.28
551.42	1277.93
551.62	1316.84
551.82	1224.69
552.01	1273.84
552.21	1286.12
552.41	1329.13
552.60	1296.36
552.80	1208.30
553.00	1343.47
553.19	1347.56
553.39	1294.32
553.59	1273.84
553.78	1220.59
553.98	1279.98
554.17	1257.45
554.37	1282.03
554.57	1275.88
554.76	1333.23
554.96	1247.21
555.16	1304.56
555.35	1265.64
555.55	1337.32
555.75	1318.89
555.94	1265.64
556.14	1314.80
556.33	1228.78
556.53	1306.60
556.73	1294.32
556.92	1304.56
557.12	1282.03
557.32	1251.31
557.51	1243.12
557.71	1210.35
557.90	1320.94
558.10	1208.30
558.30	1337.32
558.49	1366.00
558.69	1216.49
558.88	1343.47
559.08	1279.98
559.28	1282.03
559.47	1265.64
559.67	1220.59
559.86	1331.18
560.06	1294.32
560.26	1327.08
560.45	1290.22
560.65	1243.12
560.84	1245.16
561.04	1239.02
561.24	1273.84
561.43	1306.60
561.63	1275.88
561.82	1259.50
562.02	1275.88
562.22	1310.70
562.41	1279.98
562.61	1298.41
562.80	1249.26
563.00	1232.88
563.19	1224.69
563.39	1255.40
563.59	1267.69
563.78	1249.26
563.98	1282.03
564.17	1316.84
564.37	1314.80
564.56	1294.32
564.76	1347.56
564.96	1284.08
565.15	1308.65
565.35	1263.60
565.54	1284.08
565.74	1267.69
565.93	1253.36
566.13	1247.21
566.32	1191.92
566.52	1265.64
566.71	1220.59
566.91	1353.71
567.11	1306.60
567.30	1277.93
567.50	1257.45
567.69	1306.60
567.89	1302.51
568.08	1220.59
568.28	1286.12
568.47	1329.13
568.67	1243.12
568.86	1241.07
569.06	1279.98
569.25	1322.99
569.45	1236.97
569.64	1245.16
569.84	1251.31
570.04	1224.69
570.23	1275.88
570.43	1341.42
570.62	1294.32
570.82	1370.09
571.01	1257.45
571.21	1290.22
571.40	1331.18
571.60	1286.12
571.79	1290.22
571.99	1257.45
572.18	1224.69
572.38	1228.78
572.57	1347.56
572.77	1290.22
572.96	1275.88
573.16	1241.07
573.35	1206.25
573.55	1282.03
573.74	1267.69
573.94	1259.50
574.13	1243.12
574.33	1282.03
574.52	1279.98
574.71	1265.64
574.91	1263.60
575.10	1298.41
575.30	1286.12
575.49	1210.35
575.69	1249.26
575.88	1306.60
576.08	1271.79
576.27	1314.80
576.47	1347.56
576.66	1316.84
576.86	1339.37
577.05	1288.17
577.25	1284.08
577.44	1265.64
577.64	1228.78
577.83	1259.50
578.02	1320.94
578.22	1253.36
578.41	1239.02
578.61	1232.88
578.80	1239.02
579.00	1359.85
579.19	1302.51
579.39	1255.40
579.58	1304.56
579.77	1273.84
579.97	1232.88
580.16	1378.28
580.36	1333.23
580.55	1279.98
580.75	1284.08
580.94	1277.93
581.13	1263.60
581.33	1286.12
581.52	1181.68
581.72	1300.46
581.91	1306.60
582.11	1255.40
582.30	1277.93
582.49	1312.75
582.69	1312.75
582.88	1296.36
583.08	1187.82
583.27	1181.68
583.47	1310.70
583.66	1343.47
583.85	1284.08
584.05	1232.88
584.24	1294.32
584.44	1259.50
584.63	1234.93
584.82	1234.93
585.02	1273.84
585.21	1310.70
585.41	1255.40
585.60	1306.60
585.79	1247.21
585.99	1247.21
586.18	1245.16
586.37	1232.88
586.57	1265.64
586.76	1271.79
586.96	1275.88
587.15	1290.22
587.34	1282.03
587.54	1286.12
587.73	1318.89
587.93	1255.40
588.12	1294.32
588.31	1265.64
588.51	1191.92
588.70	1296.36
588.89	1304.56
589.09	1259.50
589.28	1251.31
589.47	1304.56
589.67	1296.36
589.86	1349.61
590.06	1294.32
590.25	1316.84
590.44	1290.22
590.64	1327.08
590.83	1277.93
591.02	1275.88
591.22	1320.94
591.41	1286.12
591.60	1253.36
591.80	1298.41
591.99	1304.56
592.18	1322.99
592.38	1286.12
592.57	1243.12
592.76	1267.69
592.96	1304.56
593.15	1314.80
593.34	1261.55
593.54	1320.94
593.73	1366.00
593.92	1249.26
594.12	1325.04
594.31	1322.99
594.50	1239.02
594.70	1343.47
594.89	1290.22
595.08	1292.27
595.28	1239.02
595.47	1271.79
595.66	1224.69
595.86	1296.36
596.05	1259.50
596.24	1245.16
596.43	1308.65
596.63	1320.94
596.82	1298.41
597.01	1316.84
597.21	1239.02
597.40	1236.97
597.59	1304.56
597.79	1267.69
597.98	1335.28
598.17	1282.03
598.36	1200.11
598.56	1247.21
598.75	1335.28
598.94	1267.69
599.14	1277.93
599.33	1261.55
599.52	1331.18
599.71	1271.79
599.91	1263.60
600.10	1216.49
600.29	1351.66
600.48	1230.83
600.68	1327.08
600.87	1298.41
601.06	1241.07
601.26	1257.45
601.45	1333.23
601.64	1306.60
601.83	1216.49
602.03	1273.84
602.22	1183.73
602.41	1288.17
602.60	1265.64
602.80	1257.45
602.99	1261.55
603.18	1241.07
603.37	1363.95
603.57	1320.94
603.76	1322.99
603.95	1269.74
604.14	1366.00
604.34	1314.80
604.53	1302.51
604.72	1310.70
604.91	1261.55
605.10	1230.83
605.30	1275.88
605.49	1306.60
605.68	1230.83
605.87	1253.36
606.07	1249.26
606.26	1273.84
606.45	1277.93
606.64	1337.32
606.84	1277.93
607.03	1239.02
607.22	1296.36
607.41	1302.51
607.60	1302.51
607.80	1306.60
607.99	1327.08
608.18	1239.02
608.37	1322.99
608.56	1282.03
608.76	1298.41
608.95	1269.74
609.14	1275.88
609.33	1275.88
609.52	1329.13
609.72	1292.27
609.91	1337.32
610.10	1341.42
610.29	1325.04
610.48	1224.69
610.68	1263.60
610.87	1269.74
611.06	1372.14
611.25	1257.45
611.44	1288.17
611.63	1265.64
611.83	1316.84
612.02	1269.74
612.21	1273.84
612.40	1294.32
612.59	1302.51
612.79	1325.04
612.98	1261.55
613.17	1206.25
613.36	1339.37
613.55	1243.12
613.74	1279.98
613.93	1241.07
614.13	1279.98
614.32	1359.85
614.51	1271.79
614.70	1316.84
614.89	1241.07
615.08	1239.02
615.28	1247.21
615.47	1185.77
615.66	1273.84
615.85	1273.84
616.04	1273.84
616.23	1284.08
616.42	1337.32
616.62	1292.27
616.81	1322.99
617.00	1290.22
617.19	1218.54
617.38	1265.64
617.57	1298.41
617.76	1284.08
617.95	1292.27
618.15	1253.36
618.34	1325.04
618.53	1228.78
618.72	1327.08
618.91	1212.40
619.10	1257.45
619.29	1355.76
619.48	1329.13
619.68	1322.99
619.87	1273.84
620.06	1224.69
620.25	1368.04
620.44	1357.80
620.63	1290.22
620.82	1329.13
621.01	1282.03
621.20	1288.17
621.39	1263.60
621.59	1333.23
621.78	1343.47
621.97	1333.23
622.16	1339.37
622.35	1353.71
622.54	1206.25
622.73	1275.88
622.92	1277.93
623.11	1322.99
623.30	1306.60
623.49	1304.56
623.68	1337.32
623.88	1239.02
624.07	1253.36
624.26	1234.93
624.45	1316.84
624.64	1284.08
624.83	1228.78
625.02	1275.88
625.21	1306.60
625.40	1380.33
625.59	1271.79
625.78	1310.70
625.97	1275.88
626.16	1265.64
626.35	1294.32
626.54	1320.94
626.74	1296.36
626.93	1255.40
627.12	1259.50
627.31	1277.93
627.50	1298.41
627.69	1304.56
627.88	1318.89
628.07	1325.04
628.26	1277.93
628.45	1206.25
628.64	1359.85
628.83	1277.93
629.02	1284.08
629.21	1333.23
629.40	1316.84
629.59	1310.70
629.78	1232.88
629.97	1292.27
630.16	1347.56
630.35	1308.65
630.54	1263.60
630.73	1327.08
630.92	1310.70
631.11	1265.64
631.30	1361.90
631.49	1363.95
631.68	1329.13
631.87	1775.59
632.06	2844.63
632.25	2494.43
632.44	3055.57
632.63	3946.44
632.82	5400.49
633.01	9535.34
633.20	21077.69
633.39	30037.56
633.58	28182.10
633.77	20729.54
633.96	12830.52
634.15	7589.77
634.34	5058.48
634.53	3723.21
634.72	2705.37
634.91	2246.62
635.10	2232.29
635.29	2152.42
635.48	2109.41
635.67	1931.23
635.86	1804.26
636.05	1804.26
636.24	1763.30
636.43	1624.04
636.62	1638.38
636.81	1507.30
637.00	1529.83
637.19	1423.34
637.38	1466.35
637.57	1511.40
637.76	1482.73
637.95	1388.52
638.14	1386.47
638.33	1347.56
638.52	1304.56
638.71	1333.23
638.89	1284.08
639.08	1318.89
639.27	1279.98
639.46	1292.27
639.65	1214.45
639.84	1290.22
640.03	1284.08
640.22	1282.03
640.41	1296.36
640.60	1355.76
640.79	1288.17
640.98	1339.37
641.17	1263.60
641.36	1282.03
641.55	1253.36
641.74	1284.08
641.92	1353.71
642.11	1290.22
642.30	1308.65
642.49	1234.93
642.68	1277.93
642.87	1259.50
643.06	1345.52
643.25	1304.56
643.44	1314.80
643.63	1320.94
643.82	1304.56
644.00	1275.88
644.19	1288.17
644.38	1245.16
644.57	1249.26
644.76	1208.30
644.95	1269.74
645.14	1263.60
645.33	1298.41
645.52	1339.37
645.71	1355.76
645.89	1277.93
646.08	1294.32
646.27	1372.14
646.46	1306.60
646.65	1202.16
646.84	1277.93
647.03	1343.47
647.22	1284.08
647.40	1277.93
647.59	1320.94
647.78	1277.93
647.97	1181.68
648.16	1288.17
648.35	1345.52
648.54	1277.93
648.73	1277.93
648.91	1368.04
649.10	1259.50
649.29	1316.84
649.48	1255.40
649.67	1277.93
649.86	1284.08
650.05	1329.13
650.23	1251.31
650.42	1290.22
650.61	1226.73
650.80	1310.70
650.99	1306.60
651.18	1257.45
651.36	1259.50
651.55	1241.07
651.74	1269.74
651.93	1245.16
652.12	1308.65
652.31	1241.07
652.49	1239.02
652.68	1243.12
652.87	1273.84
653.06	1306.60
653.25	1290.22
653.44	1239.02
653.62	1275.88
653.81	1247.21
654.00	1265.64
654.19	1294.32
654.38	1251.31
654.56	1206.25
654.75	1282.03
654.94	1312.75
655.13	1236.97
655.32	1212.40
655.51	1282.03
655.69	1267.69
655.88	1292.27
656.07	1409.00
656.26	1306.60
656.45	1241.07
656.63	1310.70
656.82	1251.31
657.01	1296.36
657.20	1241.07
657.38	1308.65
657.57	1247.21
657.76	1226.73
657.95	1282.03
658.14	1247.21
658.32	1232.88
658.51	1314.80
658.70	1249.26
658.89	1282.03
659.08	1230.83
659.26	1245.16
659.45	1259.50
659.64	1298.41
659.83	1269.74
660.01	1275.88
660.20	1271.79
660.39	1243.12
660.58	1265.64
660.76	1251.31
660.95	1310.70
661.14	1249.26
661.33	1226.73
661.51	1271.79
661.70	1310.70
661.89	1294.32
662.08	1261.55
662.26	1257.45
662.45	1249.26
662.64	1331.18
662.83	1312.75
663.01	1210.35
663.20	1249.26
663.39	1298.41
663.58	1300.46
663.76	1263.60
663.95	1282.03
664.14	1251.31
664.32	1210.35
664.51	1300.46
664.70	1200.11
664.89	1232.88
665.07	1247.21
665.26	1304.56
665.45	1277.93
665.64	1271.79
665.82	1267.69
666.01	1314.80
666.20	1230.83
666.38	1312.75
666.57	1277.93
666.76	1318.89
666.95	1263.60
667.13	1259.50
667.32	1271.79
667.51	1298.41
667.69	1202.16
667.88	1257.45
668.07	1288.17
668.25	1288.17
668.44	1216.49
668.63	1239.02
668.81	1245.16
669.00	1251.31
669.19	1306.60
669.38	1351.66
669.56	1310.70
669.75	1232.88
669.94	1224.69
670.12	1329.13
670.31	1320.94
670.50	1282.03
670.68	1290.22
670.87	1294.32
671.06	1245.16
671.24	1290.22
671.43	1261.55
671.62	1249.26
671.80	1224.69
671.99	1294.32
672.18	1226.73
672.36	1316.84
672.55	1269.74
672.74	1249.26
672.92	1304.56
673.11	1273.84
673.29	1351.66
673.48	1275.88
673.67	1290.22
673.85	1322.99
674.04	1263.60
674.23	1282.03
674.41	1273.84
674.60	1320.94
674.79	1273.84
674.97	1279.98
675.16	1277.93
675.34	1314.80
675.53	1337.32
675.72	1269.74
675.90	1290.22
676.09	1253.36
676.28	1314.80
676.46	1296.36
676.65	1232.88
676.83	1206.25
677.02	1259.50
677.21	1263.60
677.39	1288.17
677.58	1316.84
677.77	1218.54
677.95	1193.97
678.14	1296.36
678.32	1230.83
678.51	1294.32
678.70	1292.27
678.88	1263.60
679.07	1296.36
679.25	1218.54
679.44	1222.64
679.63	1259.50
679.81	1286.12
680.00	1304.56
680.18	1263.60
680.37	1239.02
680.55	1298.41
680.74	1232.88
680.93	1230.83
681.11	1269.74
681.30	1200.11
681.48	1308.65
681.67	1302.51
681.85	1296.36
682.04	1292.27
682.23	1265.64
682.41	1245.16
682.60	1226.73
682.78	1267.69
682.97	1345.52
683.15	1257.45
683.34	1277.93
683.53	1314.80
683.71	1177.58
683.90	1318.89
684.08	1306.60
684.27	1284.08
684.45	1306.60
684.64	1269.74
684.82	1210.35
685.01	1261.55
685.19	1320.94
685.38	1296.36
685.57	1189.87
685.75	1224.69
685.94	1255.40
686.12	1228.78
686.31	1234.93
686.49	1265.64
686.68	1316.84
686.86	1304.56
687.05	1239.02
687.23	1253.36
687.42	1232.88
687.60	1222.64
687.79	1220.59
687.97	1224.69
688.16	1243.12
688.34	1294.32
688.53	1265.64
688.71	1241.07
688.90	1257.45
689.08	1288.17
689.27	1296.36
689.45	1206.25
689.64	1226.73
689.82	1292.27
690.01	1370.09
690.19	1351.66
690.38	1247.21
690.56	1236.97
690.75	1214.45
690.93	1251.31
691.12	1279.98
691.30	1216.49
691.49	1159.15
691.67	1208.30
691.86	1296.36
692.04	1239.02
692.23	1236.97
692.41	1267.69
692.60	1279.98
692.78	1273.84
692.97	1284.08
693.15	1163.25
693.34	1249.26
693.52	1267.69
693.71	1296.36
693.89	1327.08
694.08	1239.02
694.26	1298.41
694.44	1230.83
694.63	1271.79
694.81	1241.07
695.00	1302.51
695.18	1294.32
695.37	1300.46
695.55	1337.32
695.74	1306.60
695.92	1218.54
696.10	1218.54
696.29	1290.22
696.47	1279.98
696.66	1312.75
696.84	1196.01
697.03	1345.52
697.21	1314.80
697.40	1351.66
697.58	1183.73
697.76	1249.26
697.95	1314.80
698.13	1343.47
698.32	1253.36
698.50	1318.89
698.68	1296.36
698.87	1220.59
699.05	1224.69
699.24	1306.60
699.42	1257.45
699.61	1243.12
699.79	1282.03
699.97	1224.69
700.16	1298.41
700.34	1230.83
700.53	1196.01
700.71	1318.89
700.89	1310.70
701.08	1298.41
701.26	1296.36
701.45	1259.50
701.63	1232.88
701.81	1263.60
702.00	1329.13
702.18	1196.01
702.37	1327.08
702.55	1288.17
702.73	1275.88
702.92	1329.13
703.10	1200.11
703.28	1288.17
703.47	1296.36
703.65	1310.70
703.84	1298.41
704.02	1243.12
704.20	1271.79
704.39	1284.08
704.57	1224.69
704.75	1273.84
704.94	1275.88
705.12	1187.82
705.30	1286.12
705.49	1253.36
705.67	1300.46
705.86	1271.79
706.04	1265.64
706.22	1228.78
706.41	1347.56
706.59	1249.26
706.77	1241.07
706.96	1241.07
707.14	1288.17
707.32	1249.26
707.51	1316.84
707.69	1265.64
707.87	1300.46
708.06	1290.22
708.24	1312.75
708.42	1282.03
708.61	1411.05
708.79	1261.55
708.97	1216.49
709.16	1290.22
709.34	1292.27
709.52	1288.17
709.71	1282.03
709.89	1290.22
710.07	1312.75
710.26	1236.97
710.44	1236.97
710.62	1255.40
710.80	1275.88
710.99	1288.17
711.17	1241.07
711.35	1277.93
711.54	1243.12
711.72	1292.27
711.90	1253.36
712.09	1241.07
712.27	1279.98
712.45	1284.08
712.63	1265.64
712.82	1253.36
713.00	1247.21
713.18	1312.75
713.37	1279.98
713.55	1230.83
713.73	1337.32
713.91	1333.23
714.10	1232.88
714.28	1263.60
714.46	1337.32
714.65	1259.50
714.83	1245.16
715.01	1320.94
715.19	1222.64
715.38	1306.60
715.56	1236.97
715.74	1216.49
715.92	1239.02
716.11	1226.73
716.29	1228.78
716.47	1292.27
716.65	1214.45
716.84	1275.88
717.02	1269.74
717.20	1296.36
717.38	1310.70
717.57	1249.26
717.75	1269.74
717.93	1290.22
718.11	1249.26
718.30	1243.12
718.48	1222.64
718.66	1226.73
718.84	1288.17
719.03	1263.60
719.21	1269.74
719.39	1308.65
719.57	1372.14
719.75	1230.83
719.94	1288.17
720.12	1249.26
720.30	1284.08
720.48	1271.79
720.67	1282.03
720.85	1212.40
721.03	1304.56
721.21	1269.74
721.39	1245.16
721.58	1185.77
721.76	1343.47
721.94	1253.36
722.12	1216.49
722.30	1277.93
722.49	1257.45
722.67	1327.08
722.85	1269.74
723.03	1318.89
723.21	1388.52
723.40	1265.64
723.58	1245.16
723.76	1308.65
723.94	1267.69
724.12	1257.45
724.30	1230.83
724.49	1308.65
724.67	1251.31
724.85	1271.79
725.03	1314.80
725.21	1271.79
725.40	1232.88
725.58	1236.97
725.76	1216.49
725.94	1296.36
726.12	1318.89
726.30	1308.65
726.49	1257.45
726.67	1187.82
726.85	1327.08
727.03	1230.83
727.21	1261.55
727.39	1236.97
727.57	1181.68
727.76	1226.73
727.94	1263.60
728.12	1265.64
728.30	1236.97
728.48	1263.60
728.66	1329.13
728.84	1288.17
729.03	1271.79
729.21	1306.60
729.39	1288.17
729.57	1255.40
729.75	1290.22
729.93	1253.36
730.11	1277.93
730.30	1226.73
730.48	1273.84
730.66	1296.36
730.84	1181.68
731.02	1294.32
731.20	1271.79
731.38	1228.78
731.56	1202.16
731.74	1314.80
731.93	1298.41
732.11	1187.82
732.29	1253.36
732.47	1286.12
732.65	1320.94
732.83	1306.60
733.01	1298.41
733.19	1296.36
733.37	1255.40
733.56	1259.50
733.74	1263.60
733.92	1224.69
734.10	1267.69
734.28	1294.32
734.46	1224.69
734.64	1306.60
734.82	1232.88
735.00	1302.51
735.18	1261.55
735.36	1212.40
735.54	1286.12
735.73	1243.12
735.91	1249.26
736.09	1290.22
736.27	1314.80
736.45	1261.55
736.63	1312.75
736.81	1302.51
736.99	1322.99
737.17	1198.06
737.35	1279.98
737.53	1167.34
737.71	1318.89
737.89	1224.69
738.07	1302.51
738.25	1271.79
738.43	1267.69
738.61	1232.88
738.80	1247.21
738.98	1282.03
739.16	1273.84
739.34	1302.51
739.52	1251.31
739.70	1284.08
739.88	1351.66
740.06	1312.75
740.24	1255.40
740.42	1308.65
740.60	1298.41
740.78	1290.22
740.96	1230.83
741.14	1277.93
741.32	1292.27
741.50	1288.17
741.68	1263.60
741.86	1249.26
742.04	1251.31
742.22	1259.50
742.40	1230.83
742.58	1314.80
742.76	1304.56
742.94	1322.99
743.12	1265.64
743.30	1294.32
743.48	1249.26
743.66	1249.26
743.84	1304.56
744.02	1239.02
744.20	1279.98
744.38	1349.61
744.56	1288.17
744.74	1275.88
744.92	1282.03
745.10	1298.41
745.28	1273.84
745.46	1208.30
745.64	1286.12
745.82	1282.03
746.00	1277.93
746.18	1282.03
746.36	1214.45
746.54	1226.73
746.72	1302.51
746.90	1212.40
747.08	1263.60
747.26	1290.22
747.44	1261.55
747.62	1302.51
747.80	1222.64
747.98	1337.32
748.15	1216.49
748.33	1286.12
748.51	1288.17
748.69	1288.17
748.87	1296.36
749.05	1202.16
749.23	1382.38
749.41	1259.50
749.59	1269.74
749.77	1273.84
749.95	1224.69
750.13	1282.03
750.31	1249.26
750.49	1318.89
750.67	1257.45
750.85	1261.55
751.03	1351.66
751.20	1288.17
751.38	1279.98
751.56	1267.69
751.74	1279.98
751.92	1277.93
752.10	1263.60
752.28	1181.68
752.46	1232.88
752.64	1290.22
752.82	1273.84
753.00	1294.32
753.18	1234.93
753.35	1290.22
753.53	1329.13
753.71	1220.59
753.89	1318.89
754.07	1308.65
754.25	1277.93
754.43	1224.69
754.61	1292.27
754.79	1259.50
754.97	1300.46
755.14	1261.55
755.32	1282.03
755.50	1249.26
755.68	1267.69
755.86	1239.02
756.04	1208.30
756.22	1234.93
756.40	1212.40
756.57	1341.42
756.75	1226.73
756.93	1347.56
757.11	1259.50
757.29	1286.12
757.47	1322.99
757.65	1300.46
757.82	1249.26
758.00	1302.51
758.18	1277.93
758.36	1288.17
758.54	1206.25
758.72	1253.36
758.90	1308.65
759.07	1288.17
759.25	1275.88
759.43	1290.22
759.61	1232.88
759.79	1316.84
759.97	1228.78
760.15	1253.36
760.32	1380.33
760.50	1196.01
760.68	1271.79
760.86	1253.36
761.04	1171.44
761.22	1286.12
761.39	1296.36
761.57	1273.84
761.75	1222.64
761.93	1306.60
762.11	1243.12
762.28	1277.93
762.46	1273.84
762.64	1284.08
762.82	1275.88
763.00	1253.36
763.18	1198.06
763.35	1298.41
763.53	1282.03
763.71	1175.53
763.89	1312.75
764.07	1306.60
764.24	1296.36
764.42	1263.60
764.60	1239.02
764.78	1300.46
764.96	1265.64
765.13	1269.74
765.31	1296.36
765.49	1224.69
765.67	1255.40
765.84	1253.36
766.02	1282.03
766.20	1253.36
766.38	1259.50
766.56	1265.64
766.73	1241.07
766.91	1331.18
767.09	1257.45
767.27	1269.74
767.44	1320.94
767.62	1310.70
767.80	1245.16
767.98	1273.84
768.15	1288.17
768.33	1243.12
768.51	1314.80
768.69	1277.93
768.87	1282.03
769.04	1241.07
769.22	1308.65
769.40	1298.41
769.58	1288.17
769.75	1273.84
769.93	1302.51
770.11	1259.50
770.28	1206.25
770.46	1277.93
770.64	1288.17
770.82	1202.16
770.99	1255.40
771.17	1247.21
771.35	1216.49
771.53	1236.97
771.70	1230.83
771.88	1234.93
772.06	1255.40
772.23	1275.88
772.41	1265.64
772.59	1257.45
772.77	1259.50
772.94	1269.74
773.12	1275.88
773.30	1239.02
773.47	1267.69
773.65	1314.80
773.83	1322.99
774.01	1294.32
774.18	1198.06
774.36	1265.64
774.54	1247.21
774.71	1241.07
774.89	1298.41
775.07	1290.22
775.24	1368.04
775.42	1206.25
775.60	1232.88
775.78	1277.93
775.95	1267.69
776.13	1292.27
776.31	1255.40
776.48	1269.74
776.66	1218.54
776.84	1247.21
777.01	1243.12
777.19	1265.64
777.37	1275.88
777.54	1226.73
777.72	1273.84
777.90	1275.88
778.07	1249.26
778.25	1273.84
778.43	1308.65
778.60	1245.16
778.78	1193.97
778.96	1249.26
779.13	1230.83
779.31	1259.50
779.49	1316.84
779.66	1290.22
779.84	1241.07
780.01	1304.56
780.19	1275.88
780.37	1294.32
780.54	1247.21
780.72	1302.51
780.90	1341.42
781.07	1247.21
781.25	1302.51
781.43	1220.59
781.60	1296.36
781.78	1286.12
781.95	1255.40
782.13	1306.60
782.31	1257.45
782.48	1257.45
782.66	1247.21
782.83	1279.98
783.01	1341.42
783.19	1230.83
783.36	1236.97
783.54	1224.69
783.72	1247.21
783.89	1320.94
784.07	1271.79
784.24	1245.16
784.42	1349.61
784.60	1234.93
784.77	1312.75
784.95	1282.03
785.12	1241.07
785.30	1259.50
785.47	1284.08
785.65	1259.50
785.83	1318.89
786.00	1277.93
786.18	1279.98
786.35	1216.49
786.53	1255.40
786.71	1243.12
786.88	1290.22
787.06	1316.84
787.23	1241.07
787.41	1241.07
787.58	1249.26
787.76	1232.88
787.94	1220.59
788.11	1269.74
788.29	1224.69
788.46	1200.11
788.64	1218.54
788.81	1257.45
788.99	1273.84
789.16	1286.12
789.34	1241.07
789.52	1298.41
789.69	1273.84
789.87	1196.01
790.04	1292.27
790.22	1261.55
790.39	1220.59
790.57	1245.16
790.74	1236.97
790.92	1208.30
791.09	1263.60
791.27	1318.89
791.44	1304.56
791.62	1263.60
791.79	1241.07
791.97	1226.73
792.15	1318.89
792.32	1251.31
792.50	1282.03
792.67	1257.45
792.85	1259.50
793.02	1222.64
793.20	1284.08
793.37	1273.84
793.55	1245.16
793.72	1228.78
793.90	1253.36
794.07	1253.36
794.25	1222.64
794.42	1241.07
794.60	1302.51
794.77	1273.84
794.95	1179.63
795.12	1249.26
795.30	1249.26
795.47	1255.40
795.65	1273.84
795.82	1273.84
796.00	1296.36
796.17	1236.97
796.34	1230.83
796.52	1247.21
796.69	1306.60
796.87	1380.33
797.04	1298.41
797.22	1275.88
797.39	1298.41
797.57	1306.60
797.74	1298.41
797.92	1282.03
798.09	1320.94
798.27	1275.88
798.44	1200.11
798.62	1167.34
798.79	1257.45
798.96	1298.41
799.14	1308.65
799.31	1286.12
799.49	1226.73
799.66	1318.89
799.84	1249.26
800.01	1239.02
800.19	1279.98
800.36	1253.36
800.53	1296.36
800.71	1261.55
800.88	1300.46
801.06	1275.88
801.23	1255.40
801.41	1200.11
801.58	1214.45
801.75	1275.88
801.93	1300.46
802.10	1216.49
802.28	1318.89
802.45	1243.12
802.63	1312.75
802.80	1308.65
802.97	1214.45
803.15	1277.93
803.32	1253.36
803.50	1343.47
803.67	1312.75
803.84	1257.45
804.02	1259.50
804.19	1263.60
804.37	1284.08
804.54	1255.40
804.71	1263.60
804.89	1277.93
805.06	1341.42
805.24	1232.88
805.41	1267.69
805.58	1290.22
805.76	1370.09
805.93	1314.80
806.10	1261.55
806.28	1222.64
806.45	1304.56
806.63	1228.78
806.80	1273.84
806.97	1331.18
807.15	1306.60
807.32	1232.88
807.49	1232.88
807.67	1220.59
807.84	1271.79
808.01	1316.84
808.19	1239.02
808.36	1269.74
808.54	1273.84
808.71	1253.36
808.88	1218.54
809.06	1191.92
809.23	1282.03
809.40	1241.07
809.58	1216.49
809.75	1247.21
809.92	1234.93
810.10	1322.99
810.27	1263.60
810.44	1247.21
810.62	1239.02
810.79	1267.69
810.96	1222.64
811.14	1261.55
811.31	1241.07
811.48	1273.84
811.66	1247.21
811.83	1286.12
812.00	1314.80
812.18	1290.22
812.35	1267.69
812.52	1265.64
812.69	1308.65
812.87	1292.27
813.04	1212.40
813.21	1327.08
813.39	1241.07
813.56	1234.93
813.73	1251.31
813.91	1177.58
814.08	1263.60
814.25	1255.40
814.42	1279.98
814.60	1327.08
814.77	1331.18
814.94	1204.21
815.12	1241.07
815.29	1290.22
815.46	1253.36
815.63	1361.90
815.81	1265.64
815.98	1263.60
816.15	1247.21
816.33	1251.31
816.50	1314.80
816.67	1267.69
816.84	1222.64
817.02	1239.02
817.19	1253.36
817.36	1230.83
817.53	1284.08
817.71	1265.64
817.88	1279.98
818.05	1275.88
818.22	1298.41
818.40	1314.80
818.57	1183.73
818.74	1302.51
818.91	1249.26
819.09	1286.12
819.26	1259.50
819.43	1212.40
819.60	1279.98
819.78	1349.61
819.95	1245.16
820.12	1247.21
820.29	1261.55
820.47	1349.61
820.64	1257.45
820.81	1245.16
820.98	1277.93
821.15	1322.99
821.33	1228.78
821.50	1282.03
821.67	1216.49
821.84	1265.64
822.02	1290.22
822.19	1259.50
822.36	1251.31
822.53	1314.80
822.70	1308.65
822.88	1247.21
823.05	1263.60
823.22	1247.21
823.39	1224.69
823.56	1259.50
823.74	1294.32
823.91	1251.31
824.08	1306.60
824.25	1263.60
824.42	1257.45
824.60	1234.93
824.77	1294.32
824.94	1251.31
825.11	1210.35
825.28	1263.60
825.45	1271.79
825.63	1239.02
825.80	1294.32
825.97	1255.40
826.14	1288.17
826.31	1263.60
826.48	1265.64
826.66	1347.56
826.83	1273.84
827.00	1239.02
827.17	1288.17
827.34	1259.50
827.51	1316.84
827.69	1251.31
827.86	1294.32
828.03	1284.08
828.20	1239.02
828.37	1249.26
828.54	1290.22
828.71	1329.13
828.89	1347.56
829.06	1322.99
829.23	1288.17
829.40	1282.03
829.57	1322.99
829.74	1288.17
829.91	1298.41
830.09	1261.55
830.26	1234.93
830.43	1243.12
830.60	1314.80
830.77	1304.56
830.94	1275.88
831.11	1314.80
831.28	1257.45
831.46	1269.74
831.63	1251.31
831.80	1255.40
831.97	1253.36
832.14	1304.56
832.31	1286.12
832.48	1302.51
832.65	1302.51
832.82	1224.69
832.99	1282.03
833.17	1314.80
833.34	1279.98
833.51	1253.36
833.68	1255.40
833.85	1269.74
834.02	1232.88
834.19	1204.21
834.36	1196.01
834.53	1314.80
834.70	1279.98
834.87	1214.45
835.04	1261.55
835.22	1243.12
835.39	1226.73
835.56	1236.97
835.73	1243.12
835.90	1249.26
836.07	1255.40
836.24	1265.64
836.41	1265.64
836.58	1230.83
836.75	1284.08
836.92	1294.32
837.09	1247.21
837.26	1236.97
837.43	1288.17
837.60	1241.07
837.77	1277.93
837.94	1288.17
838.12	1206.25
838.29	1226.73
838.46	1257.45
838.63	1284.08
838.80	1337.32
838.97	1261.55
839.14	1232.88
839.31	1228.78
839.48	1257.45
839.65	1234.93
839.82	1275.88
839.99	1269.74
840.16	1275.88
840.33	1220.59
840.50	1279.98
840.67	1314.80
840.84	1302.51
841.01	1234.93
841.18	1259.50
841.35	1220.59
841.52	1249.26
841.69	1292.27
841.86	1253.36
842.03	1239.02
842.20	1273.84
842.37	1191.92
842.54	1269.74
842.71	1306.60
842.88	1245.16
843.05	1222.64
843.22	1273.84
843.39	1292.27
843.56	1208.30
843.73	1257.45
843.90	1302.51
844.07	1267.69
844.24	1310.70
844.41	1286.12
844.58	1255.40
844.75	1261.55
844.92	1269.74
845.09	1261.55
845.26	1230.83
845.43	1318.89
845.60	1298.41
845.77	1277.93
845.94	1255.40
846.10	1226.73
846.27	1273.84
846.44	1247.21
846.61	1230.83
846.78	1261.55
846.95	1265.64
847.12	1220.59
847.29	1253.36
847.46	1304.56
847.63	1226.73
847.80	1239.02
847.97	1206.25
848.14	1300.46
848.31	1327.08
848.48	1253.36
848.65	1288.17
848.82	1202.16
848.98	1236.97
849.15	1308.65
849.32	1261.55
849.49	1306.60
849.66	1269.74
849.83	1284.08
850.00	1173.49
850.17	1339.37
850.34	1296.36
850.51	1247.21
850.68	1314.80
850.85	1269.74
851.01	1331.18
851.18	1259.50
851.35	1259.50
851.52	1232.88
851.69	1312.75
851.86	1245.16
852.03	1282.03
852.20	1210.35
852.37	1300.46
852.53	1308.65
852.70	1269.74
852.87	1241.07
853.04	1273.84
853.21	1294.32
853.38	1263.60
853.55	1210.35
853.72	1304.56
853.89	1222.64
854.05	1245.16
854.22	1273.84
854.39	1253.36
854.56	1400.81
854.73	1329.13
854.90	1279.98
855.07	1224.69
855.23	1212.40
855.40	1224.69
855.57	1253.36
855.74	1333.23
855.91	1239.02
856.08	1243.12
856.25	1271.79
856.41	1259.50
856.58	1300.46
856.75	1200.11
856.92	1271.79
857.09	1300.46
857.26	1155.05
857.42	1249.26
857.59	1200.11
857.76	1216.49
857.93	1263.60
858.10	1292.27
858.27	1232.88
858.43	1292.27
858.60	1310.70
858.77	1282.03
858.94	1232.88
859.11	1253.36
859.27	1191.92
859.44	1320.94
859.61	1253.36
859.78	1333.23
859.95	1267.69
860.12	1288.17
860.28	1271.79
860.45	1308.65
860.62	1306.60
860.79	1206.25
860.95	1282.03
861.12	1193.97
861.29	1234.93
861.46	1292.27
861.63	1245.16
861.79	1210.35
861.96	1269.74
862.13	1292.27
862.30	1282.03
862.47	1284.08
862.63	1204.21
862.80	1298.41
862.97	1247.21
863.14	1269.74
863.30	1257.45
863.47	1286.12
863.64	1273.84
863.81	1339.37
863.97	1216.49
864.14	1292.27
864.31	1224.69
864.48	1329.13
864.65	1257.45
864.81	1265.64
864.98	1269.74
865.15	1206.25
865.32	1249.26
865.48	1296.36
865.65	1290.22
865.82	1277.93
865.98	1222.64
866.15	1335.28
866.32	1247.21
866.49	1249.26
866.65	1296.36
866.82	1249.26
866.99	1343.47
867.16	1234.93
867.32	1320.94
867.49	1286.12
867.66	1282.03
867.83	1247.21
867.99	1234.93
868.16	1337.32
868.33	1263.60
868.49	1279.98
868.66	1196.01
868.83	1302.51
868.99	1247.21
869.16	1216.49
869.33	1247.21
869.50	1306.60
869.66	1294.32
869.83	1212.40
870.00	1331.18
870.16	1306.60
870.33	1243.12
870.50	1361.90
870.66	1265.64
870.83	1249.26
871.00	1234.93
871.17	1253.36
871.33	1236.97
871.50	1339.37
871.67	1263.60
871.83	1296.36
872.00	1265.64
872.17	1267.69
872.33	1290.22
872.50	1247.21
872.67	1224.69
872.83	1304.56
873.00	1239.02
873.17	1269.74
873.33	1314.80
873.50	1271.79
873.67	1222.64
873.83	1263.60
874.00	1218.54
874.16	1275.88
874.33	1247.21
874.50	1273.84
874.66	1286.12
874.83	1314.80
875.00	1208.30
875.16	1273.84
875.33	1275.88
875.50	1259.50
875.66	1325.04
875.83	1269.74
875.99	1261.55
876.16	1239.02
876.33	1312.75
876.49	1241.07
876.66	1331.18
876.83	1216.49
876.99	1212.40
877.16	1273.84
877.32	1243.12
877.49	1261.55
877.66	1279.98
877.82	1241.07
877.99	1286.12
878.15	1247.21
878.32	1253.36
878.49	1279.98
878.65	1265.64
878.82	1271.79
878.98	1241.07
879.15	1277.93
879.32	1284.08
879.48	1243.12
879.65	1232.88
879.81	1232.88
879.98	1304.56
880.15	1279.98
880.31	1253.36
880.48	1296.36
880.64	1257.45
880.81	1331.18
880.97	1318.89
881.14	1253.36
881.31	1226.73
881.47	1259.50
881.64	1308.65
881.80	1298.41
881.97	1308.65
882.13	1310.70
882.30	1253.36
882.47	1218.54
882.63	1212.40
882.80	1382.38
882.96	1230.83
883.13	1275.88
883.29	1265.64
883.46	1284.08
883.62	1273.84
883.79	1296.36
883.95	1320.94
884.12	1333.23
884.29	1239.02
884.45	1257.45
884.62	1302.51
884.78	1308.65
884.95	1245.16
885.11	1327.08
885.28	1290.22
885.44	1249.26
885.61	1320.94
885.77	1173.49
885.94	1236.97
886.10	1241.07
886.27	1232.88
886.43	1325.04
886.60	1300.46
886.76	1204.21
886.93	1259.50
887.09	1306.60
887.26	1282.03
887.42	1271.79
887.59	1253.36
887.75	1236.97
887.92	1322.99
888.08	1175.53
888.25	1279.98
888.41	1241.07
888.58	1288.17
888.74	1243.12
888.91	1245.16
>>>>>End Processed Spectral Data<<<<<
