SpectraSuite Data File
++++++++++++++++++++++++++++++++++++
Date: Sun Apr 03 19:55:29 CEST 2016
User: root
Dark Spectrum Present: No
Reference Spectrum Present: No
Number of Sampled Component Spectra: 1
Spectrometers: USB4C02835
Integration Time (usec): 10000 (USB4C02835)
Spectra Averaged: 1 (USB4C02835)
Boxcar Smoothing: 0 (USB4C02835)
Correct for Electrical Dark: No (USB4C02835)
Strobe/Lamp Enabled: No (USB4C02835)
Correct for Detector Non-linearity: No (USB4C02835)
Correct for Stray Light: No (USB4C02835)
Number of Pixels in Processed Spectrum: 3648
>>>>>Begin Processed Spectral Data<<<<<
177.47	1228.78
177.69	1228.78
177.91	1228.78
178.13	1245.16
178.36	1316.84
178.58	1325.04
178.80	1224.69
179.02	1290.22
179.24	1247.21
179.46	1216.49
179.68	1265.64
179.90	1271.79
180.13	1304.56
180.35	1245.16
180.57	1263.60
180.79	1241.07
181.01	1247.21
181.23	1290.22
181.45	1304.56
181.67	1245.16
181.90	1316.84
182.12	1228.78
182.34	1193.97
182.56	1230.83
182.78	1173.49
183.00	1220.59
183.22	1259.50
183.44	1234.93
183.66	1245.16
183.89	1251.31
184.11	1196.01
184.33	1273.84
184.55	1329.13
184.77	1320.94
184.99	1214.45
185.21	1265.64
185.43	1341.42
185.65	1243.12
185.87	1300.46
186.10	1228.78
186.32	1263.60
186.54	1284.08
186.76	1279.98
186.98	1310.70
187.20	1290.22
187.42	1302.51
187.64	1263.60
187.86	1245.16
188.08	1337.32
188.30	1255.40
188.52	1279.98
188.75	1210.35
188.97	1241.07
189.19	1273.84
189.41	1294.32
189.63	1236.97
189.85	1329.13
190.07	1232.88
190.29	1257.45
190.51	1286.12
190.73	1271.79
190.95	1288.17
191.17	1265.64
191.39	1331.18
191.61	1220.59
191.84	1222.64
192.06	1296.36
192.28	1177.58
192.50	1245.16
192.72	1310.70
192.94	1247.21
193.16	1253.36
193.38	1208.30
193.60	1255.40
193.82	1222.64
194.04	1279.98
194.26	1212.40
194.48	1275.88
194.70	1196.01
194.92	1331.18
195.14	1322.99
195.36	1314.80
195.58	1269.74
195.80	1271.79
196.02	1265.64
196.24	1296.36
196.46	1214.45
196.69	1308.65
196.91	1257.45
197.13	1232.88
197.35	1196.01
197.57	1282.03
197.79	1218.54
198.01	1224.69
198.23	1296.36
198.45	1284.08
198.67	1284.08
198.89	1226.73
199.11	1296.36
199.33	1253.36
199.55	1253.36
199.77	1312.75
199.99	1271.79
200.21	1245.16
200.43	1232.88
200.65	1208.30
200.87	1261.55
201.09	1265.64
201.31	1216.49
201.53	1234.93
201.75	1292.27
201.97	1206.25
202.19	1253.36
202.41	1308.65
202.63	1300.46
202.85	1300.46
203.07	1239.02
203.29	1247.21
203.51	1269.74
203.73	1271.79
203.95	1216.49
204.17	1288.17
204.39	1277.93
204.61	1232.88
204.83	1304.56
205.05	1220.59
205.27	1236.97
205.49	1261.55
205.71	1259.50
205.93	1257.45
206.15	1265.64
206.37	1312.75
206.59	1263.60
206.81	1306.60
207.03	1288.17
207.25	1292.27
207.47	1271.79
207.69	1218.54
207.91	1234.93
208.13	1273.84
208.34	1310.70
208.56	1265.64
208.78	1265.64
209.00	1284.08
209.22	1245.16
209.44	1234.93
209.66	1196.01
209.88	1302.51
210.10	1257.45
210.32	1275.88
210.54	1347.56
210.76	1325.04
210.98	1312.75
211.20	1259.50
211.42	1339.37
211.64	1296.36
211.86	1290.22
212.08	1230.83
212.30	1253.36
212.52	1249.26
212.74	1292.27
212.96	1261.55
213.17	1210.35
213.39	1220.59
213.61	1279.98
213.83	1306.60
214.05	1165.29
214.27	1310.70
214.49	1298.41
214.71	1298.41
214.93	1255.40
215.15	1320.94
215.37	1306.60
215.59	1269.74
215.81	1294.32
216.03	1275.88
216.24	1222.64
216.46	1298.41
216.68	1253.36
216.90	1306.60
217.12	1239.02
217.34	1193.97
217.56	1265.64
217.78	1302.51
218.00	1249.26
218.22	1216.49
218.44	1236.97
218.66	1275.88
218.87	1304.56
219.09	1224.69
219.31	1253.36
219.53	1300.46
219.75	1339.37
219.97	1251.31
220.19	1257.45
220.41	1196.01
220.63	1275.88
220.85	1257.45
221.06	1296.36
221.28	1185.77
221.50	1236.97
221.72	1296.36
221.94	1259.50
222.16	1298.41
222.38	1316.84
222.60	1300.46
222.82	1294.32
223.03	1312.75
223.25	1288.17
223.47	1271.79
223.69	1253.36
223.91	1241.07
224.13	1241.07
224.35	1331.18
224.57	1304.56
224.78	1200.11
225.00	1279.98
225.22	1284.08
225.44	1282.03
225.66	1277.93
225.88	1277.93
226.10	1279.98
226.32	1279.98
226.53	1347.56
226.75	1273.84
226.97	1265.64
227.19	1273.84
227.41	1208.30
227.63	1232.88
227.85	1273.84
228.06	1226.73
228.28	1314.80
228.50	1249.26
228.72	1253.36
228.94	1325.04
229.16	1269.74
229.37	1255.40
229.59	1286.12
229.81	1304.56
230.03	1273.84
230.25	1249.26
230.47	1261.55
230.69	1251.31
230.90	1290.22
231.12	1277.93
231.34	1267.69
231.56	1339.37
231.78	1282.03
232.00	1282.03
232.21	1261.55
232.43	1273.84
232.65	1363.95
232.87	1249.26
233.09	1245.16
233.30	1333.23
233.52	1333.23
233.74	1279.98
233.96	1288.17
234.18	1210.35
234.40	1271.79
234.61	1220.59
234.83	1245.16
235.05	1206.25
235.27	1271.79
235.49	1271.79
235.70	1308.65
235.92	1265.64
236.14	1265.64
236.36	1284.08
236.58	1312.75
236.79	1255.40
237.01	1257.45
237.23	1222.64
237.45	1302.51
237.67	1312.75
237.88	1255.40
238.10	1218.54
238.32	1189.87
238.54	1273.84
238.76	1277.93
238.97	1290.22
239.19	1249.26
239.41	1265.64
239.63	1220.59
239.85	1316.84
240.06	1282.03
240.28	1216.49
240.50	1327.08
240.72	1218.54
240.93	1304.56
241.15	1255.40
241.37	1214.45
241.59	1271.79
241.81	1234.93
242.02	1288.17
242.24	1193.97
242.46	1232.88
242.68	1294.32
242.89	1288.17
243.11	1296.36
243.33	1249.26
243.55	1314.80
243.76	1308.65
243.98	1261.55
244.20	1290.22
244.42	1273.84
244.64	1290.22
244.85	1329.13
245.07	1220.59
245.29	1257.45
245.51	1335.28
245.72	1322.99
245.94	1279.98
246.16	1263.60
246.38	1261.55
246.59	1245.16
246.81	1284.08
247.03	1253.36
247.24	1284.08
247.46	1247.21
247.68	1187.82
247.90	1288.17
248.11	1245.16
248.33	1271.79
248.55	1282.03
248.77	1267.69
248.98	1273.84
249.20	1277.93
249.42	1245.16
249.64	1282.03
249.85	1208.30
250.07	1245.16
250.29	1255.40
250.50	1249.26
250.72	1327.08
250.94	1273.84
251.16	1251.31
251.37	1302.51
251.59	1277.93
251.81	1265.64
252.02	1300.46
252.24	1208.30
252.46	1255.40
252.68	1232.88
252.89	1306.60
253.11	1239.02
253.33	1263.60
253.54	1329.13
253.76	1243.12
253.98	1259.50
254.20	1167.34
254.41	1222.64
254.63	1296.36
254.85	1200.11
255.06	1232.88
255.28	1329.13
255.50	1208.30
255.71	1294.32
255.93	1294.32
256.15	1259.50
256.36	1277.93
256.58	1253.36
256.80	1310.70
257.02	1191.92
257.23	1288.17
257.45	1351.66
257.67	1308.65
257.88	1255.40
258.10	1275.88
258.32	1279.98
258.53	1394.67
258.75	1222.64
258.97	1267.69
259.18	1341.42
259.40	1245.16
259.62	1251.31
259.83	1212.40
260.05	1247.21
260.27	1267.69
260.48	1286.12
260.70	1236.97
260.92	1216.49
261.13	1265.64
261.35	1277.93
261.57	1333.23
261.78	1193.97
262.00	1230.83
262.22	1230.83
262.43	1275.88
262.65	1308.65
262.86	1208.30
263.08	1183.73
263.30	1196.01
263.51	1177.58
263.73	1279.98
263.95	1241.07
264.16	1302.51
264.38	1249.26
264.60	1318.89
264.81	1304.56
265.03	1251.31
265.25	1296.36
265.46	1269.74
265.68	1327.08
265.89	1286.12
266.11	1177.58
266.33	1230.83
266.54	1341.42
266.76	1277.93
266.98	1271.79
267.19	1216.49
267.41	1273.84
267.62	1255.40
267.84	1263.60
268.06	1286.12
268.27	1277.93
268.49	1316.84
268.70	1271.79
268.92	1302.51
269.14	1290.22
269.35	1290.22
269.57	1208.30
269.79	1271.79
270.00	1230.83
270.22	1275.88
270.43	1263.60
270.65	1247.21
270.87	1314.80
271.08	1261.55
271.30	1251.31
271.51	1325.04
271.73	1298.41
271.95	1261.55
272.16	1273.84
272.38	1347.56
272.59	1267.69
272.81	1269.74
273.02	1226.73
273.24	1253.36
273.46	1224.69
273.67	1239.02
273.89	1251.31
274.10	1279.98
274.32	1200.11
274.54	1261.55
274.75	1200.11
274.97	1263.60
275.18	1243.12
275.40	1243.12
275.61	1275.88
275.83	1343.47
276.05	1314.80
276.26	1320.94
276.48	1239.02
276.69	1232.88
276.91	1318.89
277.12	1269.74
277.34	1249.26
277.55	1259.50
277.77	1239.02
277.99	1245.16
278.20	1255.40
278.42	1298.41
278.63	1298.41
278.85	1255.40
279.06	1267.69
279.28	1310.70
279.49	1216.49
279.71	1232.88
279.93	1300.46
280.14	1357.80
280.36	1314.80
280.57	1279.98
280.79	1300.46
281.00	1251.31
281.22	1279.98
281.43	1230.83
281.65	1234.93
281.86	1286.12
282.08	1273.84
282.29	1314.80
282.51	1251.31
282.73	1298.41
282.94	1265.64
283.16	1241.07
283.37	1310.70
283.59	1277.93
283.80	1300.46
284.02	1200.11
284.23	1263.60
284.45	1245.16
284.66	1284.08
284.88	1292.27
285.09	1351.66
285.31	1243.12
285.52	1273.84
285.74	1214.45
285.95	1282.03
286.17	1255.40
286.38	1322.99
286.60	1271.79
286.81	1273.84
287.03	1247.21
287.24	1265.64
287.46	1245.16
287.67	1251.31
287.89	1253.36
288.10	1249.26
288.32	1265.64
288.53	1288.17
288.75	1189.87
288.96	1292.27
289.18	1222.64
289.39	1318.89
289.61	1236.97
289.82	1243.12
290.04	1339.37
290.25	1292.27
290.47	1253.36
290.68	1257.45
290.90	1271.79
291.11	1214.45
291.33	1314.80
291.54	1267.69
291.76	1255.40
291.97	1273.84
292.18	1282.03
292.40	1296.36
292.61	1308.65
292.83	1245.16
293.04	1292.27
293.26	1245.16
293.47	1292.27
293.69	1232.88
293.90	1312.75
294.12	1284.08
294.33	1331.18
294.55	1304.56
294.76	1265.64
294.97	1234.93
295.19	1265.64
295.40	1243.12
295.62	1269.74
295.83	1198.06
296.05	1249.26
296.26	1257.45
296.48	1279.98
296.69	1228.78
296.90	1284.08
297.12	1335.28
297.33	1263.60
297.55	1253.36
297.76	1206.25
297.98	1204.21
298.19	1306.60
298.41	1286.12
298.62	1275.88
298.83	1255.40
299.05	1320.94
299.26	1204.21
299.48	1249.26
299.69	1282.03
299.90	1257.45
300.12	1279.98
300.33	1257.45
300.55	1300.46
300.76	1296.36
300.98	1327.08
301.19	1239.02
301.40	1304.56
301.62	1204.21
301.83	1189.87
302.05	1187.82
302.26	1234.93
302.47	1226.73
302.69	1312.75
302.90	1259.50
303.12	1368.04
303.33	1234.93
303.54	1226.73
303.76	1325.04
303.97	1316.84
304.19	1288.17
304.40	1241.07
304.61	1290.22
304.83	1277.93
305.04	1249.26
305.26	1282.03
305.47	1236.97
305.68	1298.41
305.90	1312.75
306.11	1302.51
306.33	1310.70
306.54	1304.56
306.75	1353.71
306.97	1247.21
307.18	1198.06
307.39	1247.21
307.61	1216.49
307.82	1308.65
308.04	1296.36
308.25	1230.83
308.46	1271.79
308.68	1263.60
308.89	1318.89
309.10	1284.08
309.32	1286.12
309.53	1249.26
309.74	1363.95
309.96	1288.17
310.17	1271.79
310.39	1214.45
310.60	1279.98
310.81	1359.85
311.03	1241.07
311.24	1267.69
311.45	1261.55
311.67	1294.32
311.88	1327.08
312.09	1249.26
312.31	1224.69
312.52	1277.93
312.73	1239.02
312.95	1322.99
313.16	1200.11
313.37	1243.12
313.59	1302.51
313.80	1226.73
314.01	1279.98
314.23	1253.36
314.44	1269.74
314.65	1288.17
314.87	1277.93
315.08	1298.41
315.29	1241.07
315.51	1259.50
315.72	1245.16
315.93	1302.51
316.15	1271.79
316.36	1206.25
316.57	1247.21
316.79	1257.45
317.00	1253.36
317.21	1286.12
317.43	1255.40
317.64	1224.69
317.85	1316.84
318.07	1243.12
318.28	1236.97
318.49	1263.60
318.70	1249.26
318.92	1347.56
319.13	1261.55
319.34	1204.21
319.56	1253.36
319.77	1191.92
319.98	1296.36
320.20	1263.60
320.41	1282.03
320.62	1161.20
320.83	1277.93
321.05	1228.78
321.26	1232.88
321.47	1298.41
321.69	1245.16
321.90	1290.22
322.11	1300.46
322.32	1316.84
322.54	1302.51
322.75	1302.51
322.96	1249.26
323.18	1298.41
323.39	1249.26
323.60	1247.21
323.81	1173.49
324.03	1277.93
324.24	1210.35
324.45	1306.60
324.66	1345.52
324.88	1253.36
325.09	1255.40
325.30	1279.98
325.52	1224.69
325.73	1314.80
325.94	1273.84
326.15	1320.94
326.37	1271.79
326.58	1220.59
326.79	1236.97
327.00	1263.60
327.22	1255.40
327.43	1261.55
327.64	1271.79
327.85	1239.02
328.07	1298.41
328.28	1275.88
328.49	1247.21
328.70	1273.84
328.92	1288.17
329.13	1329.13
329.34	1245.16
329.55	1247.21
329.76	1298.41
329.98	1249.26
330.19	1263.60
330.40	1230.83
330.61	1247.21
330.83	1292.27
331.04	1282.03
331.25	1224.69
331.46	1284.08
331.68	1251.31
331.89	1249.26
332.10	1206.25
332.31	1325.04
332.52	1339.37
332.74	1267.69
332.95	1255.40
333.16	1232.88
333.37	1277.93
333.58	1193.97
333.80	1290.22
334.01	1232.88
334.22	1292.27
334.43	1239.02
334.64	1228.78
334.86	1259.50
335.07	1245.16
335.28	1322.99
335.49	1259.50
335.70	1290.22
335.92	1314.80
336.13	1206.25
336.34	1245.16
336.55	1236.97
336.76	1257.45
336.98	1239.02
337.19	1320.94
337.40	1345.52
337.61	1284.08
337.82	1279.98
338.04	1267.69
338.25	1286.12
338.46	1277.93
338.67	1306.60
338.88	1214.45
339.09	1259.50
339.31	1255.40
339.52	1161.20
339.73	1282.03
339.94	1310.70
340.15	1339.37
340.36	1318.89
340.58	1226.73
340.79	1224.69
341.00	1255.40
341.21	1347.56
341.42	1302.51
341.63	1222.64
341.85	1322.99
342.06	1247.21
342.27	1279.98
342.48	1216.49
342.69	1304.56
342.90	1269.74
343.12	1253.36
343.33	1306.60
343.54	1273.84
343.75	1339.37
343.96	1298.41
344.17	1359.85
344.38	1269.74
344.60	1286.12
344.81	1286.12
345.02	1249.26
345.23	1236.97
345.44	1284.08
345.65	1249.26
345.86	1216.49
346.07	1245.16
346.29	1232.88
346.50	1247.21
346.71	1265.64
346.92	1210.35
347.13	1298.41
347.34	1234.93
347.55	1232.88
347.76	1271.79
347.98	1310.70
348.19	1265.64
348.40	1234.93
348.61	1273.84
348.82	1269.74
349.03	1216.49
349.24	1255.40
349.45	1224.69
349.66	1277.93
349.88	1255.40
350.09	1265.64
350.30	1263.60
350.51	1277.93
350.72	1265.64
350.93	1312.75
351.14	1269.74
351.35	1241.07
351.56	1282.03
351.77	1241.07
351.99	1288.17
352.20	1224.69
352.41	1241.07
352.62	1193.97
352.83	1300.46
353.04	1269.74
353.25	1312.75
353.46	1347.56
353.67	1243.12
353.88	1216.49
354.09	1290.22
354.30	1263.60
354.52	1292.27
354.73	1265.64
354.94	1228.78
355.15	1279.98
355.36	1284.08
355.57	1224.69
355.78	1243.12
355.99	1282.03
356.20	1169.39
356.41	1247.21
356.62	1290.22
356.83	1279.98
357.04	1226.73
357.25	1216.49
357.46	1316.84
357.68	1249.26
357.89	1286.12
358.10	1294.32
358.31	1239.02
358.52	1257.45
358.73	1222.64
358.94	1296.36
359.15	1226.73
359.36	1245.16
359.57	1243.12
359.78	1230.83
359.99	1261.55
360.20	1259.50
360.41	1214.45
360.62	1247.21
360.83	1261.55
361.04	1216.49
361.25	1269.74
361.46	1267.69
361.67	1257.45
361.88	1339.37
362.09	1236.97
362.30	1396.71
362.51	1261.55
362.72	1273.84
362.93	1349.61
363.14	1277.93
363.35	1267.69
363.56	1269.74
363.78	1300.46
363.99	1288.17
364.20	1267.69
364.41	1298.41
364.62	1331.18
364.83	1259.50
365.04	1279.98
365.25	1298.41
365.46	1269.74
365.67	1257.45
365.88	1290.22
366.09	1220.59
366.30	1312.75
366.51	1222.64
366.72	1253.36
366.93	1322.99
367.14	1224.69
367.35	1290.22
367.56	1216.49
367.77	1224.69
367.98	1210.35
368.18	1220.59
368.39	1247.21
368.60	1308.65
368.81	1247.21
369.02	1245.16
369.23	1247.21
369.44	1257.45
369.65	1259.50
369.86	1236.97
370.07	1232.88
370.28	1224.69
370.49	1243.12
370.70	1320.94
370.91	1296.36
371.12	1308.65
371.33	1318.89
371.54	1312.75
371.75	1177.58
371.96	1251.31
372.17	1224.69
372.38	1230.83
372.59	1269.74
372.80	1218.54
373.01	1263.60
373.22	1298.41
373.43	1236.97
373.64	1269.74
373.85	1294.32
374.06	1302.51
374.26	1265.64
374.47	1310.70
374.68	1206.25
374.89	1269.74
375.10	1255.40
375.31	1294.32
375.52	1200.11
375.73	1322.99
375.94	1257.45
376.15	1320.94
376.36	1273.84
376.57	1234.93
376.78	1224.69
376.99	1290.22
377.20	1273.84
377.40	1273.84
377.61	1261.55
377.82	1290.22
378.03	1310.70
378.24	1263.60
378.45	1210.35
378.66	1222.64
378.87	1206.25
379.08	1251.31
379.29	1282.03
379.50	1271.79
379.71	1214.45
379.91	1239.02
380.12	1232.88
380.33	1208.30
380.54	1267.69
380.75	1277.93
380.96	1177.58
381.17	1222.64
381.38	1214.45
381.59	1302.51
381.80	1222.64
382.00	1359.85
382.21	1265.64
382.42	1222.64
382.63	1253.36
382.84	1259.50
383.05	1200.11
383.26	1286.12
383.47	1277.93
383.68	1253.36
383.88	1302.51
384.09	1298.41
384.30	1232.88
384.51	1359.85
384.72	1216.49
384.93	1304.56
385.14	1173.49
385.35	1325.04
385.55	1196.01
385.76	1282.03
385.97	1245.16
386.18	1286.12
386.39	1249.26
386.60	1302.51
386.81	1304.56
387.02	1210.35
387.22	1249.26
387.43	1304.56
387.64	1232.88
387.85	1247.21
388.06	1257.45
388.27	1245.16
388.48	1251.31
388.68	1255.40
388.89	1249.26
389.10	1263.60
389.31	1290.22
389.52	1265.64
389.73	1236.97
389.93	1290.22
390.14	1255.40
390.35	1226.73
390.56	1275.88
390.77	1253.36
390.98	1325.04
391.18	1304.56
391.39	1279.98
391.60	1290.22
391.81	1331.18
392.02	1257.45
392.23	1232.88
392.43	1298.41
392.64	1277.93
392.85	1279.98
393.06	1247.21
393.27	1263.60
393.47	1261.55
393.68	1261.55
393.89	1214.45
394.10	1329.13
394.31	1230.83
394.52	1282.03
394.72	1210.35
394.93	1247.21
395.14	1269.74
395.35	1210.35
395.56	1218.54
395.76	1335.28
395.97	1220.59
396.18	1265.64
396.39	1273.84
396.60	1243.12
396.80	1218.54
397.01	1265.64
397.22	1316.84
397.43	1251.31
397.64	1247.21
397.84	1277.93
398.05	1316.84
398.26	1257.45
398.47	1275.88
398.67	1228.78
398.88	1275.88
399.09	1290.22
399.30	1275.88
399.51	1296.36
399.71	1306.60
399.92	1232.88
400.13	1218.54
400.34	1322.99
400.54	1320.94
400.75	1314.80
400.96	1306.60
401.17	1249.26
401.37	1265.64
401.58	1224.69
401.79	1318.89
402.00	1296.36
402.21	1234.93
402.41	1230.83
402.62	1300.46
402.83	1265.64
403.04	1267.69
403.24	1241.07
403.45	1245.16
403.66	1284.08
403.87	1241.07
404.07	1273.84
404.28	1253.36
404.49	1325.04
404.70	1241.07
404.90	1130.48
405.11	1349.61
405.32	1282.03
405.52	1275.88
405.73	1257.45
405.94	1355.76
406.15	1275.88
406.35	1232.88
406.56	1298.41
406.77	1275.88
406.98	1298.41
407.18	1222.64
407.39	1292.27
407.60	1263.60
407.80	1265.64
408.01	1277.93
408.22	1284.08
408.43	1298.41
408.63	1275.88
408.84	1251.31
409.05	1304.56
409.25	1255.40
409.46	1288.17
409.67	1245.16
409.88	1232.88
410.08	1228.78
410.29	1216.49
410.50	1322.99
410.70	1259.50
410.91	1296.36
411.12	1294.32
411.32	1265.64
411.53	1267.69
411.74	1279.98
411.95	1288.17
412.15	1216.49
412.36	1298.41
412.57	1282.03
412.77	1269.74
412.98	1273.84
413.19	1277.93
413.39	1259.50
413.60	1277.93
413.81	1175.53
414.01	1220.59
414.22	1271.79
414.43	1196.01
414.63	1212.40
414.84	1232.88
415.05	1251.31
415.25	1267.69
415.46	1228.78
415.67	1206.25
415.87	1216.49
416.08	1273.84
416.29	1247.21
416.49	1257.45
416.70	1255.40
416.91	1308.65
417.11	1265.64
417.32	1341.42
417.53	1239.02
417.73	1282.03
417.94	1312.75
418.15	1245.16
418.35	1218.54
418.56	1251.31
418.77	1298.41
418.97	1314.80
419.18	1257.45
419.38	1263.60
419.59	1318.89
419.80	1322.99
420.00	1298.41
420.21	1208.30
420.42	1185.77
420.62	1261.55
420.83	1271.79
421.04	1247.21
421.24	1261.55
421.45	1259.50
421.65	1267.69
421.86	1206.25
422.07	1296.36
422.27	1275.88
422.48	1226.73
422.69	1292.27
422.89	1259.50
423.10	1177.58
423.30	1249.26
423.51	1282.03
423.72	1300.46
423.92	1245.16
424.13	1316.84
424.33	1304.56
424.54	1253.36
424.75	1257.45
424.95	1273.84
425.16	1284.08
425.36	1273.84
425.57	1275.88
425.78	1322.99
425.98	1265.64
426.19	1243.12
426.39	1200.11
426.60	1259.50
426.81	1314.80
427.01	1290.22
427.22	1247.21
427.42	1271.79
427.63	1243.12
427.83	1210.35
428.04	1290.22
428.25	1261.55
428.45	1306.60
428.66	1325.04
428.86	1206.25
429.07	1216.49
429.28	1312.75
429.48	1247.21
429.69	1306.60
429.89	1196.01
430.10	1241.07
430.30	1277.93
430.51	1263.60
430.71	1226.73
430.92	1224.69
431.13	1294.32
431.33	1331.18
431.54	1296.36
431.74	1210.35
431.95	1290.22
432.15	1304.56
432.36	1312.75
432.56	1271.79
432.77	1257.45
432.98	1257.45
433.18	1210.35
433.39	1261.55
433.59	1218.54
433.80	1300.46
434.00	1261.55
434.21	1257.45
434.41	1292.27
434.62	1271.79
434.82	1263.60
435.03	1306.60
435.23	1222.64
435.44	1249.26
435.64	1277.93
435.85	1296.36
436.06	1232.88
436.26	1253.36
436.47	1179.63
436.67	1216.49
436.88	1249.26
437.08	1304.56
437.29	1286.12
437.49	1279.98
437.70	1218.54
437.90	1341.42
438.11	1261.55
438.31	1216.49
438.52	1208.30
438.72	1275.88
438.93	1257.45
439.13	1282.03
439.34	1306.60
439.54	1288.17
439.75	1210.35
439.95	1341.42
440.16	1259.50
440.36	1329.13
440.57	1249.26
440.77	1302.51
440.98	1263.60
441.18	1277.93
441.39	1294.32
441.59	1275.88
441.80	1265.64
442.00	1333.23
442.21	1304.56
442.41	1263.60
442.62	1263.60
442.82	1257.45
443.02	1224.69
443.23	1318.89
443.43	1282.03
443.64	1310.70
443.84	1337.32
444.05	1228.78
444.25	1189.87
444.46	1263.60
444.66	1249.26
444.87	1298.41
445.07	1363.95
445.28	1269.74
445.48	1247.21
445.69	1257.45
445.89	1363.95
446.09	1306.60
446.30	1316.84
446.50	1212.40
446.71	1247.21
446.91	1247.21
447.12	1273.84
447.32	1265.64
447.53	1331.18
447.73	1298.41
447.93	1279.98
448.14	1232.88
448.34	1249.26
448.55	1302.51
448.75	1243.12
448.96	1279.98
449.16	1259.50
449.36	1288.17
449.57	1304.56
449.77	1226.73
449.98	1302.51
450.18	1298.41
450.39	1292.27
450.59	1312.75
450.79	1318.89
451.00	1224.69
451.20	1226.73
451.41	1257.45
451.61	1343.47
451.81	1304.56
452.02	1290.22
452.22	1257.45
452.43	1273.84
452.63	1239.02
452.84	1294.32
453.04	1200.11
453.24	1249.26
453.45	1284.08
453.65	1206.25
453.86	1298.41
454.06	1247.21
454.26	1257.45
454.47	1343.47
454.67	1279.98
454.87	1232.88
455.08	1265.64
455.28	1284.08
455.49	1320.94
455.69	1241.07
455.89	1308.65
456.10	1312.75
456.30	1263.60
456.51	1292.27
456.71	1306.60
456.91	1314.80
457.12	1279.98
457.32	1263.60
457.52	1353.71
457.73	1298.41
457.93	1302.51
458.14	1265.64
458.34	1265.64
458.54	1333.23
458.75	1251.31
458.95	1269.74
459.15	1349.61
459.36	1316.84
459.56	1357.80
459.76	1267.69
459.97	1345.52
460.17	1273.84
460.37	1245.16
460.58	1251.31
460.78	1267.69
460.99	1273.84
461.19	1204.21
461.39	1310.70
461.60	1253.36
461.80	1288.17
462.00	1277.93
462.21	1286.12
462.41	1243.12
462.61	1286.12
462.82	1308.65
463.02	1253.36
463.22	1267.69
463.43	1249.26
463.63	1275.88
463.83	1239.02
464.04	1308.65
464.24	1269.74
464.44	1175.53
464.64	1257.45
464.85	1265.64
465.05	1316.84
465.25	1187.82
465.46	1269.74
465.66	1282.03
465.86	1247.21
466.07	1286.12
466.27	1255.40
466.47	1243.12
466.68	1222.64
466.88	1191.92
467.08	1298.41
467.29	1261.55
467.49	1220.59
467.69	1312.75
467.89	1265.64
468.10	1347.56
468.30	1351.66
468.50	1370.09
468.71	1306.60
468.91	1259.50
469.11	1232.88
469.31	1267.69
469.52	1355.76
469.72	1290.22
469.92	1290.22
470.13	1253.36
470.33	1279.98
470.53	1208.30
470.73	1314.80
470.94	1302.51
471.14	1265.64
471.34	1198.06
471.54	1265.64
471.75	1255.40
471.95	1275.88
472.15	1224.69
472.36	1273.84
472.56	1171.44
472.76	1284.08
472.96	1232.88
473.17	1214.45
473.37	1269.74
473.57	1232.88
473.77	1298.41
473.98	1288.17
474.18	1216.49
474.38	1261.55
474.58	1318.89
474.79	1277.93
474.99	1175.53
475.19	1331.18
475.39	1216.49
475.60	1304.56
475.80	1290.22
476.00	1251.31
476.20	1232.88
476.41	1218.54
476.61	1179.63
476.81	1228.78
477.01	1288.17
477.21	1306.60
477.42	1306.60
477.62	1249.26
477.82	1277.93
478.02	1245.16
478.23	1296.36
478.43	1288.17
478.63	1253.36
478.83	1253.36
479.03	1282.03
479.24	1251.31
479.44	1265.64
479.64	1226.73
479.84	1275.88
480.04	1273.84
480.25	1310.70
480.45	1312.75
480.65	1243.12
480.85	1284.08
481.06	1263.60
481.26	1236.97
481.46	1286.12
481.66	1239.02
481.86	1355.76
482.06	1345.52
482.27	1284.08
482.47	1310.70
482.67	1265.64
482.87	1310.70
483.07	1273.84
483.28	1290.22
483.48	1239.02
483.68	1314.80
483.88	1265.64
484.08	1327.08
484.29	1230.83
484.49	1327.08
484.69	1220.59
484.89	1273.84
485.09	1284.08
485.29	1284.08
485.50	1232.88
485.70	1302.51
485.90	1325.04
486.10	1222.64
486.30	1320.94
486.50	1279.98
486.71	1249.26
486.91	1275.88
487.11	1363.95
487.31	1263.60
487.51	1296.36
487.71	1224.69
487.91	1241.07
488.12	1259.50
488.32	1253.36
488.52	1216.49
488.72	1282.03
488.92	1220.59
489.12	1325.04
489.32	1337.32
489.53	1288.17
489.73	1232.88
489.93	1298.41
490.13	1275.88
490.33	1224.69
490.53	1271.79
490.73	1286.12
490.94	1261.55
491.14	1292.27
491.34	1322.99
491.54	1306.60
491.74	1306.60
491.94	1273.84
492.14	1294.32
492.34	1243.12
492.54	1253.36
492.75	1273.84
492.95	1259.50
493.15	1255.40
493.35	1259.50
493.55	1296.36
493.75	1292.27
493.95	1298.41
494.15	1302.51
494.35	1273.84
494.56	1275.88
494.76	1261.55
494.96	1263.60
495.16	1392.62
495.36	1243.12
495.56	1298.41
495.76	1298.41
495.96	1282.03
496.16	1265.64
496.36	1302.51
496.56	1236.97
496.77	1234.93
496.97	1249.26
497.17	1220.59
497.37	1236.97
497.57	1271.79
497.77	1249.26
497.97	1265.64
498.17	1253.36
498.37	1224.69
498.57	1316.84
498.77	1257.45
498.97	1275.88
499.17	1167.34
499.38	1257.45
499.58	1247.21
499.78	1212.40
499.98	1306.60
500.18	1247.21
500.38	1312.75
500.58	1187.82
500.78	1288.17
500.98	1228.78
501.18	1271.79
501.38	1318.89
501.58	1357.80
501.78	1173.49
501.98	1228.78
502.18	1327.08
502.38	1263.60
502.58	1239.02
502.78	1269.74
502.98	1183.73
503.18	1318.89
503.38	1284.08
503.59	1210.35
503.79	1196.01
503.99	1292.27
504.19	1279.98
504.39	1314.80
504.59	1257.45
504.79	1298.41
504.99	1314.80
505.19	1279.98
505.39	1290.22
505.59	1249.26
505.79	1284.08
505.99	1296.36
506.19	1300.46
506.39	1224.69
506.59	1249.26
506.79	1310.70
506.99	1212.40
507.19	1298.41
507.39	1247.21
507.59	1282.03
507.79	1300.46
507.99	1294.32
508.19	1210.35
508.39	1251.31
508.59	1271.79
508.79	1286.12
508.99	1292.27
509.19	1308.65
509.39	1308.65
509.59	1286.12
509.79	1368.04
509.99	1306.60
510.19	1294.32
510.39	1290.22
510.59	1302.51
510.79	1351.66
510.99	1353.71
511.19	1288.17
511.39	1292.27
511.59	1265.64
511.79	1355.76
511.99	1273.84
512.19	1220.59
512.38	1294.32
512.58	1284.08
512.78	1312.75
512.98	1349.61
513.18	1284.08
513.38	1302.51
513.58	1241.07
513.78	1257.45
513.98	1325.04
514.18	1316.84
514.38	1255.40
514.58	1322.99
514.78	1320.94
514.98	1298.41
515.18	1245.16
515.38	1325.04
515.58	1312.75
515.78	1257.45
515.98	1337.32
516.18	1277.93
516.38	1349.61
516.57	1243.12
516.77	1288.17
516.97	1333.23
517.17	1259.50
517.37	1318.89
517.57	1288.17
517.77	1251.31
517.97	1290.22
518.17	1241.07
518.37	1277.93
518.57	1216.49
518.77	1230.83
518.97	1288.17
519.16	1339.37
519.36	1290.22
519.56	1241.07
519.76	1298.41
519.96	1269.74
520.16	1236.97
520.36	1265.64
520.56	1335.28
520.76	1314.80
520.96	1253.36
521.16	1316.84
521.35	1236.97
521.55	1339.37
521.75	1308.65
521.95	1296.36
522.15	1302.51
522.35	1290.22
522.55	1284.08
522.75	1347.56
522.95	1314.80
523.14	1282.03
523.34	1275.88
523.54	1320.94
523.74	1200.11
523.94	1265.64
524.14	1150.96
524.34	1247.21
524.54	1302.51
524.73	1304.56
524.93	1261.55
525.13	1298.41
525.33	1318.89
525.53	1333.23
525.73	1318.89
525.93	1308.65
526.13	1263.60
526.32	1261.55
526.52	1216.49
526.72	1296.36
526.92	1196.01
527.12	1249.26
527.32	1257.45
527.52	1286.12
527.71	1300.46
527.91	1292.27
528.11	1222.64
528.31	1218.54
528.51	1232.88
528.71	1239.02
528.90	1282.03
529.10	1218.54
529.30	1257.45
529.50	1241.07
529.70	1349.61
529.90	1333.23
530.09	1232.88
530.29	1232.88
530.49	1271.79
530.69	1318.89
530.89	1271.79
531.09	1331.18
531.28	1243.12
531.48	1269.74
531.68	1308.65
531.88	1363.95
532.08	1279.98
532.28	1372.14
532.47	1271.79
532.67	1343.47
532.87	1294.32
533.07	1277.93
533.27	1228.78
533.46	1290.22
533.66	1292.27
533.86	1247.21
534.06	1263.60
534.26	1286.12
534.45	1333.23
534.65	1345.52
534.85	1306.60
535.05	1300.46
535.25	1249.26
535.44	1310.70
535.64	1234.93
535.84	1257.45
536.04	1290.22
536.24	1245.16
536.43	1331.18
536.63	1255.40
536.83	1257.45
537.03	1228.78
537.22	1320.94
537.42	1282.03
537.62	1288.17
537.82	1314.80
538.02	1302.51
538.21	1243.12
538.41	1304.56
538.61	1294.32
538.81	1263.60
539.00	1288.17
539.20	1286.12
539.40	1232.88
539.60	1296.36
539.79	1263.60
539.99	1216.49
540.19	1382.38
540.39	1247.21
540.58	1288.17
540.78	1181.68
540.98	1282.03
541.18	1261.55
541.37	1263.60
541.57	1290.22
541.77	1263.60
541.97	1255.40
542.16	1265.64
542.36	1253.36
542.56	1267.69
542.76	1312.75
542.95	1224.69
543.15	1230.83
543.35	1245.16
543.54	1382.38
543.74	1253.36
543.94	1253.36
544.14	1214.45
544.33	1271.79
544.53	1257.45
544.73	1269.74
544.93	1208.30
545.12	1331.18
545.32	1288.17
545.52	1212.40
545.71	1286.12
545.91	1263.60
546.11	1310.70
546.30	1294.32
546.50	1214.45
546.70	1234.93
546.90	1279.98
547.09	1310.70
547.29	1251.31
547.49	1271.79
547.68	1327.08
547.88	1277.93
548.08	1253.36
548.27	1372.14
548.47	1267.69
548.67	1263.60
548.87	1298.41
549.06	1261.55
549.26	1275.88
549.46	1318.89
549.65	1325.04
549.85	1339.37
550.05	1339.37
550.24	1249.26
550.44	1226.73
550.64	1243.12
550.83	1259.50
551.03	1236.97
551.23	1245.16
551.42	1302.51
551.62	1259.50
551.82	1363.95
552.01	1318.89
552.21	1279.98
552.41	1308.65
552.60	1343.47
552.80	1320.94
553.00	1208.30
553.19	1339.37
553.39	1308.65
553.59	1318.89
553.78	1275.88
553.98	1253.36
554.17	1239.02
554.37	1329.13
554.57	1220.59
554.76	1370.09
554.96	1277.93
555.16	1251.31
555.35	1261.55
555.55	1304.56
555.75	1243.12
555.94	1290.22
556.14	1316.84
556.33	1290.22
556.53	1253.36
556.73	1277.93
556.92	1269.74
557.12	1269.74
557.32	1300.46
557.51	1339.37
557.71	1329.13
557.90	1243.12
558.10	1306.60
558.30	1327.08
558.49	1251.31
558.69	1251.31
558.88	1310.70
559.08	1308.65
559.28	1271.79
559.47	1241.07
559.67	1300.46
559.86	1284.08
560.06	1296.36
560.26	1275.88
560.45	1339.37
560.65	1322.99
560.84	1241.07
561.04	1208.30
561.24	1216.49
561.43	1273.84
561.63	1275.88
561.82	1271.79
562.02	1318.89
562.22	1302.51
562.41	1353.71
562.61	1286.12
562.80	1316.84
563.00	1304.56
563.19	1312.75
563.39	1349.61
563.59	1363.95
563.78	1247.21
563.98	1294.32
564.17	1290.22
564.37	1220.59
564.56	1298.41
564.76	1351.66
564.96	1261.55
565.15	1282.03
565.35	1243.12
565.54	1216.49
565.74	1284.08
565.93	1308.65
566.13	1302.51
566.32	1284.08
566.52	1232.88
566.71	1273.84
566.91	1267.69
567.11	1277.93
567.30	1320.94
567.50	1290.22
567.69	1306.60
567.89	1284.08
568.08	1351.66
568.28	1320.94
568.47	1368.04
568.67	1284.08
568.86	1263.60
569.06	1255.40
569.25	1300.46
569.45	1294.32
569.64	1331.18
569.84	1259.50
570.04	1277.93
570.23	1294.32
570.43	1294.32
570.62	1228.78
570.82	1298.41
571.01	1279.98
571.21	1286.12
571.40	1220.59
571.60	1304.56
571.79	1333.23
571.99	1253.36
572.18	1298.41
572.38	1271.79
572.57	1271.79
572.77	1288.17
572.96	1247.21
573.16	1282.03
573.35	1259.50
573.55	1314.80
573.74	1247.21
573.94	1380.33
574.13	1226.73
574.33	1286.12
574.52	1247.21
574.71	1374.19
574.91	1333.23
575.10	1286.12
575.30	1298.41
575.49	1216.49
575.69	1277.93
575.88	1275.88
576.08	1275.88
576.27	1220.59
576.47	1218.54
576.66	1343.47
576.86	1318.89
577.05	1298.41
577.25	1263.60
577.44	1316.84
577.64	1282.03
577.83	1347.56
578.02	1288.17
578.22	1210.35
578.41	1318.89
578.61	1320.94
578.80	1267.69
579.00	1316.84
579.19	1277.93
579.39	1241.07
579.58	1282.03
579.77	1294.32
579.97	1267.69
580.16	1300.46
580.36	1320.94
580.55	1306.60
580.75	1310.70
580.94	1296.36
581.13	1265.64
581.33	1306.60
581.52	1288.17
581.72	1331.18
581.91	1226.73
582.11	1286.12
582.30	1294.32
582.49	1234.93
582.69	1206.25
582.88	1380.33
583.08	1241.07
583.27	1282.03
583.47	1320.94
583.66	1255.40
583.85	1300.46
584.05	1245.16
584.24	1257.45
584.44	1257.45
584.63	1185.77
584.82	1306.60
585.02	1245.16
585.21	1386.47
585.41	1282.03
585.60	1241.07
585.79	1306.60
585.99	1298.41
586.18	1298.41
586.37	1228.78
586.57	1253.36
586.76	1322.99
586.96	1277.93
587.15	1343.47
587.34	1298.41
587.54	1298.41
587.73	1284.08
587.93	1255.40
588.12	1322.99
588.31	1257.45
588.51	1243.12
588.70	1265.64
588.89	1228.78
589.09	1265.64
589.28	1275.88
589.47	1329.13
589.67	1288.17
589.86	1314.80
590.06	1249.26
590.25	1282.03
590.44	1239.02
590.64	1329.13
590.83	1368.04
591.02	1296.36
591.22	1351.66
591.41	1320.94
591.60	1273.84
591.80	1282.03
591.99	1241.07
592.18	1339.37
592.38	1282.03
592.57	1333.23
592.76	1251.31
592.96	1265.64
593.15	1236.97
593.34	1275.88
593.54	1329.13
593.73	1241.07
593.92	1230.83
594.12	1300.46
594.31	1343.47
594.50	1239.02
594.70	1257.45
594.89	1259.50
595.08	1249.26
595.28	1249.26
595.47	1255.40
595.66	1349.61
595.86	1261.55
596.05	1224.69
596.24	1331.18
596.43	1265.64
596.63	1222.64
596.82	1337.32
597.01	1286.12
597.21	1259.50
597.40	1306.60
597.59	1243.12
597.79	1306.60
597.98	1232.88
598.17	1335.28
598.36	1337.32
598.56	1316.84
598.75	1325.04
598.94	1263.60
599.14	1247.21
599.33	1282.03
599.52	1339.37
599.71	1308.65
599.91	1279.98
600.10	1259.50
600.29	1312.75
600.48	1304.56
600.68	1400.81
600.87	1265.64
601.06	1314.80
601.26	1343.47
601.45	1302.51
601.64	1288.17
601.83	1329.13
602.03	1251.31
602.22	1245.16
602.41	1298.41
602.60	1290.22
602.80	1279.98
602.99	1279.98
603.18	1304.56
603.37	1294.32
603.57	1265.64
603.76	1263.60
603.95	1243.12
604.14	1247.21
604.34	1292.27
604.53	1253.36
604.72	1259.50
604.91	1228.78
605.10	1284.08
605.30	1288.17
605.49	1355.76
605.68	1322.99
605.87	1263.60
606.07	1269.74
606.26	1345.52
606.45	1298.41
606.64	1320.94
606.84	1292.27
607.03	1304.56
607.22	1273.84
607.41	1314.80
607.60	1255.40
607.80	1191.92
607.99	1322.99
608.18	1294.32
608.37	1253.36
608.56	1298.41
608.76	1292.27
608.95	1257.45
609.14	1265.64
609.33	1306.60
609.52	1273.84
609.72	1253.36
609.91	1296.36
610.10	1290.22
610.29	1269.74
610.48	1181.68
610.68	1288.17
610.87	1273.84
611.06	1247.21
611.25	1202.16
611.44	1282.03
611.63	1310.70
611.83	1273.84
612.02	1314.80
612.21	1277.93
612.40	1241.07
612.59	1271.79
612.79	1284.08
612.98	1255.40
613.17	1265.64
613.36	1292.27
613.55	1259.50
613.74	1304.56
613.93	1273.84
614.13	1255.40
614.32	1318.89
614.51	1241.07
614.70	1255.40
614.89	1239.02
615.08	1257.45
615.28	1339.37
615.47	1226.73
615.66	1239.02
615.85	1275.88
616.04	1310.70
616.23	1259.50
616.42	1220.59
616.62	1269.74
616.81	1282.03
617.00	1279.98
617.19	1333.23
617.38	1249.26
617.57	1296.36
617.76	1306.60
617.95	1288.17
618.15	1257.45
618.34	1296.36
618.53	1234.93
618.72	1273.84
618.91	1296.36
619.10	1265.64
619.29	1312.75
619.48	1292.27
619.68	1331.18
619.87	1271.79
620.06	1286.12
620.25	1343.47
620.44	1267.69
620.63	1255.40
620.82	1216.49
621.01	1368.04
621.20	1345.52
621.39	1245.16
621.59	1318.89
621.78	1193.97
621.97	1316.84
622.16	1290.22
622.35	1284.08
622.54	1294.32
622.73	1234.93
622.92	1302.51
623.11	1247.21
623.30	1218.54
623.49	1286.12
623.68	1325.04
623.88	1312.75
624.07	1267.69
624.26	1245.16
624.45	1380.33
624.64	1302.51
624.83	1255.40
625.02	1308.65
625.21	1292.27
625.40	1306.60
625.59	1306.60
625.78	1288.17
625.97	1271.79
626.16	1292.27
626.35	1341.42
626.54	1253.36
626.74	1318.89
626.93	1312.75
627.12	1322.99
627.31	1265.64
627.50	1327.08
627.69	1310.70
627.88	1273.84
628.07	1271.79
628.26	1384.43
628.45	1210.35
628.64	1306.60
628.83	1251.31
629.02	1286.12
629.21	1298.41
629.40	1236.97
629.59	1292.27
629.78	1302.51
629.97	1271.79
630.16	1253.36
630.35	1331.18
630.54	1267.69
630.73	1312.75
630.92	1288.17
631.11	1374.19
631.30	1337.32
631.49	1304.56
631.68	1392.62
631.87	1349.61
632.06	1433.58
632.25	1398.76
632.44	1396.71
632.63	1400.81
632.82	1409.00
633.01	1392.62
633.20	1400.81
633.39	1409.00
633.58	1429.48
633.77	1429.48
633.96	1515.50
634.15	1517.54
634.34	1886.18
634.53	2117.60
634.72	1699.81
634.91	1406.95
635.10	1626.09
635.29	1947.62
635.48	2183.13
635.67	2162.66
635.86	2086.88
636.05	1865.70
636.24	1632.23
636.43	1540.07
636.62	1433.58
636.81	1378.28
637.00	1359.85
637.19	1366.00
637.38	1347.56
637.57	1357.80
637.76	1402.86
637.95	1386.47
638.14	1349.61
638.33	1396.71
638.52	1390.57
638.71	1314.80
638.89	1376.24
639.08	1282.03
639.27	1329.13
639.46	1267.69
639.65	1255.40
639.84	1318.89
640.03	1253.36
640.22	1286.12
640.41	1298.41
640.60	1277.93
640.79	1214.45
640.98	1290.22
641.17	1290.22
641.36	1345.52
641.55	1273.84
641.74	1265.64
641.92	1220.59
642.11	1279.98
642.30	1314.80
642.49	1200.11
642.68	1304.56
642.87	1273.84
643.06	1292.27
643.25	1306.60
643.44	1306.60
643.63	1232.88
643.82	1331.18
644.00	1314.80
644.19	1277.93
644.38	1279.98
644.57	1314.80
644.76	1282.03
644.95	1310.70
645.14	1247.21
645.33	1322.99
645.52	1230.83
645.71	1282.03
645.89	1269.74
646.08	1245.16
646.27	1247.21
646.46	1306.60
646.65	1302.51
646.84	1247.21
647.03	1275.88
647.22	1331.18
647.40	1282.03
647.59	1337.32
647.78	1269.74
647.97	1302.51
648.16	1239.02
648.35	1214.45
648.54	1279.98
648.73	1243.12
648.91	1220.59
649.10	1322.99
649.29	1302.51
649.48	1269.74
649.67	1271.79
649.86	1230.83
650.05	1265.64
650.23	1249.26
650.42	1198.06
650.61	1300.46
650.80	1265.64
650.99	1263.60
651.18	1304.56
651.36	1339.37
651.55	1253.36
651.74	1228.78
651.93	1320.94
652.12	1245.16
652.31	1296.36
652.49	1306.60
652.68	1290.22
652.87	1271.79
653.06	1275.88
653.25	1265.64
653.44	1251.31
653.62	1222.64
653.81	1290.22
654.00	1214.45
654.19	1335.28
654.38	1353.71
654.56	1322.99
654.75	1255.40
654.94	1222.64
655.13	1275.88
655.32	1275.88
655.51	1312.75
655.69	1251.31
655.88	1255.40
656.07	1310.70
656.26	1363.95
656.45	1216.49
656.63	1310.70
656.82	1218.54
657.01	1275.88
657.20	1224.69
657.38	1306.60
657.57	1333.23
657.76	1263.60
657.95	1275.88
658.14	1255.40
658.32	1292.27
658.51	1292.27
658.70	1277.93
658.89	1249.26
659.08	1263.60
659.26	1273.84
659.45	1239.02
659.64	1257.45
659.83	1343.47
660.01	1298.41
660.20	1253.36
660.39	1361.90
660.58	1259.50
660.76	1304.56
660.95	1306.60
661.14	1239.02
661.33	1310.70
661.51	1322.99
661.70	1210.35
661.89	1202.16
662.08	1222.64
662.26	1282.03
662.45	1347.56
662.64	1304.56
662.83	1185.77
663.01	1322.99
663.20	1288.17
663.39	1271.79
663.58	1187.82
663.76	1314.80
663.95	1193.97
664.14	1200.11
664.32	1282.03
664.51	1294.32
664.70	1320.94
664.89	1216.49
665.07	1265.64
665.26	1232.88
665.45	1312.75
665.64	1273.84
665.82	1286.12
666.01	1271.79
666.20	1257.45
666.38	1241.07
666.57	1251.31
666.76	1249.26
666.95	1263.60
667.13	1302.51
667.32	1288.17
667.51	1282.03
667.69	1257.45
667.88	1294.32
668.07	1259.50
668.25	1265.64
668.44	1253.36
668.63	1282.03
668.81	1304.56
669.00	1279.98
669.19	1228.78
669.38	1247.21
669.56	1288.17
669.75	1316.84
669.94	1263.60
670.12	1236.97
670.31	1355.76
670.50	1288.17
670.68	1308.65
670.87	1271.79
671.06	1259.50
671.24	1259.50
671.43	1218.54
671.62	1288.17
671.80	1222.64
671.99	1296.36
672.18	1271.79
672.36	1314.80
672.55	1261.55
672.74	1302.51
672.92	1273.84
673.11	1263.60
673.29	1263.60
673.48	1306.60
673.67	1165.29
673.85	1269.74
674.04	1304.56
674.23	1228.78
674.41	1277.93
674.60	1232.88
674.79	1253.36
674.97	1267.69
675.16	1247.21
675.34	1294.32
675.53	1234.93
675.72	1333.23
675.90	1314.80
676.09	1200.11
676.28	1208.30
676.46	1306.60
676.65	1265.64
676.83	1267.69
677.02	1220.59
677.21	1271.79
677.39	1261.55
677.58	1228.78
677.77	1265.64
677.95	1298.41
678.14	1269.74
678.32	1275.88
678.51	1275.88
678.70	1259.50
678.88	1183.73
679.07	1284.08
679.25	1251.31
679.44	1202.16
679.63	1308.65
679.81	1279.98
680.00	1214.45
680.18	1239.02
680.37	1308.65
680.55	1261.55
680.74	1249.26
680.93	1322.99
681.11	1255.40
681.30	1226.73
681.48	1333.23
681.67	1255.40
681.85	1304.56
682.04	1302.51
682.23	1265.64
682.41	1257.45
682.60	1273.84
682.78	1312.75
682.97	1245.16
683.15	1339.37
683.34	1265.64
683.53	1202.16
683.71	1288.17
683.90	1214.45
684.08	1257.45
684.27	1296.36
684.45	1322.99
684.64	1314.80
684.82	1257.45
685.01	1265.64
685.19	1261.55
685.38	1275.88
685.57	1318.89
685.75	1241.07
685.94	1247.21
686.12	1261.55
686.31	1230.83
686.49	1308.65
686.68	1318.89
686.86	1265.64
687.05	1230.83
687.23	1310.70
687.42	1290.22
687.60	1279.98
687.79	1249.26
687.97	1316.84
688.16	1249.26
688.34	1271.79
688.53	1275.88
688.71	1308.65
688.90	1277.93
689.08	1263.60
689.27	1284.08
689.45	1368.04
689.64	1259.50
689.82	1306.60
690.01	1232.88
690.19	1257.45
690.38	1282.03
690.56	1355.76
690.75	1251.31
690.93	1257.45
691.12	1193.97
691.30	1261.55
691.49	1193.97
691.67	1255.40
691.86	1253.36
692.04	1294.32
692.23	1206.25
692.41	1300.46
692.60	1230.83
692.78	1247.21
692.97	1277.93
693.15	1253.36
693.34	1261.55
693.52	1206.25
693.71	1249.26
693.89	1279.98
694.08	1263.60
694.26	1318.89
694.44	1277.93
694.63	1310.70
694.81	1292.27
695.00	1306.60
695.18	1232.88
695.37	1253.36
695.55	1308.65
695.74	1368.04
695.92	1228.78
696.10	1298.41
696.29	1245.16
696.47	1259.50
696.66	1339.37
696.84	1316.84
697.03	1230.83
697.21	1298.41
697.40	1267.69
697.58	1232.88
697.76	1269.74
697.95	1155.05
698.13	1279.98
698.32	1216.49
698.50	1353.71
698.68	1220.59
698.87	1212.40
699.05	1204.21
699.24	1267.69
699.42	1325.04
699.61	1329.13
699.79	1214.45
699.97	1300.46
700.16	1339.37
700.34	1277.93
700.53	1245.16
700.71	1277.93
700.89	1320.94
701.08	1279.98
701.26	1306.60
701.45	1316.84
701.63	1322.99
701.81	1308.65
702.00	1304.56
702.18	1384.43
702.37	1298.41
702.55	1216.49
702.73	1222.64
702.92	1275.88
703.10	1234.93
703.28	1220.59
703.47	1247.21
703.65	1279.98
703.84	1355.76
704.02	1265.64
704.20	1296.36
704.39	1259.50
704.57	1253.36
704.75	1198.06
704.94	1247.21
705.12	1257.45
705.30	1224.69
705.49	1228.78
705.67	1331.18
705.86	1288.17
706.04	1247.21
706.22	1310.70
706.41	1255.40
706.59	1259.50
706.77	1302.51
706.96	1265.64
707.14	1210.35
707.32	1273.84
707.51	1296.36
707.69	1300.46
707.87	1222.64
708.06	1325.04
708.24	1261.55
708.42	1296.36
708.61	1249.26
708.79	1259.50
708.97	1230.83
709.16	1220.59
709.34	1265.64
709.52	1265.64
709.71	1232.88
709.89	1241.07
710.07	1257.45
710.26	1298.41
710.44	1308.65
710.62	1241.07
710.80	1302.51
710.99	1284.08
711.17	1255.40
711.35	1279.98
711.54	1255.40
711.72	1257.45
711.90	1286.12
712.09	1284.08
712.27	1226.73
712.45	1314.80
712.63	1279.98
712.82	1224.69
713.00	1253.36
713.18	1253.36
713.37	1226.73
713.55	1179.63
713.73	1253.36
713.91	1189.87
714.10	1267.69
714.28	1296.36
714.46	1263.60
714.65	1329.13
714.83	1263.60
715.01	1306.60
715.19	1191.92
715.38	1239.02
715.56	1200.11
715.74	1306.60
715.92	1189.87
716.11	1220.59
716.29	1343.47
716.47	1226.73
716.65	1224.69
716.84	1290.22
717.02	1261.55
717.20	1255.40
717.38	1263.60
717.57	1279.98
717.75	1279.98
717.93	1316.84
718.11	1198.06
718.30	1239.02
718.48	1267.69
718.66	1222.64
718.84	1234.93
719.03	1279.98
719.21	1392.62
719.39	1310.70
719.57	1249.26
719.75	1302.51
719.94	1200.11
720.12	1249.26
720.30	1247.21
720.48	1331.18
720.67	1247.21
720.85	1232.88
721.03	1277.93
721.21	1228.78
721.39	1282.03
721.58	1206.25
721.76	1224.69
721.94	1255.40
722.12	1179.63
722.30	1284.08
722.49	1279.98
722.67	1241.07
722.85	1257.45
723.03	1222.64
723.21	1249.26
723.40	1191.92
723.58	1212.40
723.76	1294.32
723.94	1243.12
724.12	1255.40
724.30	1267.69
724.49	1267.69
724.67	1294.32
724.85	1296.36
725.03	1310.70
725.21	1292.27
725.40	1279.98
725.58	1175.53
725.76	1306.60
725.94	1232.88
726.12	1275.88
726.30	1298.41
726.49	1269.74
726.67	1271.79
726.85	1257.45
727.03	1265.64
727.21	1308.65
727.39	1327.08
727.57	1273.84
727.76	1251.31
727.94	1271.79
728.12	1239.02
728.30	1234.93
728.48	1218.54
728.66	1247.21
728.84	1290.22
729.03	1236.97
729.21	1271.79
729.39	1255.40
729.57	1294.32
729.75	1288.17
729.93	1202.16
730.11	1298.41
730.30	1187.82
730.48	1308.65
730.66	1284.08
730.84	1314.80
731.02	1273.84
731.20	1269.74
731.38	1191.92
731.56	1298.41
731.74	1245.16
731.93	1243.12
732.11	1224.69
732.29	1228.78
732.47	1277.93
732.65	1261.55
732.83	1224.69
733.01	1257.45
733.19	1239.02
733.37	1224.69
733.56	1265.64
733.74	1257.45
733.92	1253.36
734.10	1302.51
734.28	1302.51
734.46	1322.99
734.64	1267.69
734.82	1226.73
735.00	1253.36
735.18	1316.84
735.36	1234.93
735.54	1241.07
735.73	1308.65
735.91	1288.17
736.09	1239.02
736.27	1155.05
736.45	1269.74
736.63	1226.73
736.81	1279.98
736.99	1228.78
737.17	1230.83
737.35	1384.43
737.53	1282.03
737.71	1292.27
737.89	1333.23
738.07	1286.12
738.25	1241.07
738.43	1282.03
738.61	1257.45
738.80	1222.64
738.98	1239.02
739.16	1298.41
739.34	1257.45
739.52	1273.84
739.70	1316.84
739.88	1245.16
740.06	1378.28
740.24	1173.49
740.42	1277.93
740.60	1331.18
740.78	1277.93
740.96	1304.56
741.14	1239.02
741.32	1230.83
741.50	1265.64
741.68	1247.21
741.86	1286.12
742.04	1230.83
742.22	1226.73
742.40	1277.93
742.58	1339.37
742.76	1316.84
742.94	1275.88
743.12	1255.40
743.30	1222.64
743.48	1312.75
743.66	1337.32
743.84	1245.16
744.02	1259.50
744.20	1267.69
744.38	1236.97
744.56	1234.93
744.74	1288.17
744.92	1286.12
745.10	1257.45
745.28	1247.21
745.46	1279.98
745.64	1255.40
745.82	1378.28
746.00	1218.54
746.18	1261.55
746.36	1300.46
746.54	1208.30
746.72	1284.08
746.90	1302.51
747.08	1189.87
747.26	1265.64
747.44	1271.79
747.62	1220.59
747.80	1298.41
747.98	1302.51
748.15	1214.45
748.33	1204.21
748.51	1279.98
748.69	1300.46
748.87	1216.49
749.05	1284.08
749.23	1329.13
749.41	1296.36
749.59	1273.84
749.77	1337.32
749.95	1282.03
750.13	1241.07
750.31	1282.03
750.49	1277.93
750.67	1298.41
750.85	1275.88
751.03	1339.37
751.20	1255.40
751.38	1204.21
751.56	1222.64
751.74	1251.31
751.92	1247.21
752.10	1206.25
752.28	1241.07
752.46	1282.03
752.64	1150.96
752.82	1273.84
753.00	1255.40
753.18	1296.36
753.35	1241.07
753.53	1204.21
753.71	1302.51
753.89	1259.50
754.07	1249.26
754.25	1263.60
754.43	1316.84
754.61	1241.07
754.79	1241.07
754.97	1198.06
755.14	1331.18
755.32	1265.64
755.50	1218.54
755.68	1249.26
755.86	1204.21
756.04	1185.77
756.22	1249.26
756.40	1269.74
756.57	1325.04
756.75	1302.51
756.93	1255.40
757.11	1335.28
757.29	1269.74
757.47	1279.98
757.65	1275.88
757.82	1210.35
758.00	1198.06
758.18	1216.49
758.36	1273.84
758.54	1294.32
758.72	1189.87
758.90	1245.16
759.07	1329.13
759.25	1261.55
759.43	1261.55
759.61	1304.56
759.79	1318.89
759.97	1267.69
760.15	1241.07
760.32	1388.52
760.50	1212.40
760.68	1294.32
760.86	1269.74
761.04	1214.45
761.22	1308.65
761.39	1234.93
761.57	1255.40
761.75	1355.76
761.93	1204.21
762.11	1327.08
762.28	1253.36
762.46	1271.79
762.64	1226.73
762.82	1282.03
763.00	1302.51
763.18	1239.02
763.35	1234.93
763.53	1228.78
763.71	1294.32
763.89	1312.75
764.07	1255.40
764.24	1282.03
764.42	1257.45
764.60	1318.89
764.78	1261.55
764.96	1320.94
765.13	1286.12
765.31	1265.64
765.49	1206.25
765.67	1218.54
765.84	1374.19
766.02	1230.83
766.20	1296.36
766.38	1277.93
766.56	1327.08
766.73	1292.27
766.91	1257.45
767.09	1230.83
767.27	1316.84
767.44	1306.60
767.62	1236.97
767.80	1263.60
767.98	1239.02
768.15	1267.69
768.33	1261.55
768.51	1265.64
768.69	1210.35
768.87	1298.41
769.04	1208.30
769.22	1257.45
769.40	1288.17
769.58	1296.36
769.75	1267.69
769.93	1304.56
770.11	1236.97
770.28	1286.12
770.46	1298.41
770.64	1208.30
770.82	1249.26
770.99	1251.31
771.17	1234.93
771.35	1327.08
771.53	1257.45
771.70	1228.78
771.88	1259.50
772.06	1259.50
772.23	1261.55
772.41	1259.50
772.59	1202.16
772.77	1239.02
772.94	1210.35
773.12	1247.21
773.30	1232.88
773.47	1216.49
773.65	1200.11
773.83	1265.64
774.01	1245.16
774.18	1333.23
774.36	1269.74
774.54	1308.65
774.71	1310.70
774.89	1288.17
775.07	1251.31
775.24	1269.74
775.42	1284.08
775.60	1310.70
775.78	1265.64
775.95	1218.54
776.13	1273.84
776.31	1265.64
776.48	1236.97
776.66	1271.79
776.84	1232.88
777.01	1277.93
777.19	1200.11
777.37	1196.01
777.54	1255.40
777.72	1284.08
777.90	1228.78
778.07	1290.22
778.25	1282.03
778.43	1259.50
778.60	1255.40
778.78	1269.74
778.96	1351.66
779.13	1212.40
779.31	1261.55
779.49	1210.35
779.66	1286.12
779.84	1204.21
780.01	1273.84
780.19	1261.55
780.37	1275.88
780.54	1306.60
780.72	1300.46
780.90	1216.49
781.07	1239.02
781.25	1177.58
781.43	1339.37
781.60	1277.93
781.78	1286.12
781.95	1251.31
782.13	1294.32
782.31	1290.22
782.48	1241.07
782.66	1273.84
782.83	1322.99
783.01	1306.60
783.19	1331.18
783.36	1218.54
783.54	1198.06
783.72	1271.79
783.89	1247.21
784.07	1325.04
784.24	1271.79
784.42	1277.93
784.60	1245.16
784.77	1261.55
784.95	1253.36
785.12	1298.41
785.30	1284.08
785.47	1251.31
785.65	1243.12
785.83	1220.59
786.00	1288.17
786.18	1306.60
786.35	1257.45
786.53	1269.74
786.71	1243.12
786.88	1304.56
787.06	1302.51
787.23	1239.02
787.41	1259.50
787.58	1265.64
787.76	1277.93
787.94	1277.93
788.11	1273.84
788.29	1277.93
788.46	1269.74
788.64	1251.31
788.81	1298.41
788.99	1271.79
789.16	1277.93
789.34	1222.64
789.52	1267.69
789.69	1253.36
789.87	1251.31
790.04	1288.17
790.22	1243.12
790.39	1306.60
790.57	1263.60
790.74	1261.55
790.92	1202.16
791.09	1269.74
791.27	1222.64
791.44	1232.88
791.62	1290.22
791.79	1288.17
791.97	1314.80
792.15	1304.56
792.32	1302.51
792.50	1224.69
792.67	1243.12
792.85	1296.36
793.02	1179.63
793.20	1314.80
793.37	1241.07
793.55	1308.65
793.72	1282.03
793.90	1271.79
794.07	1292.27
794.25	1333.23
794.42	1222.64
794.60	1230.83
794.77	1273.84
794.95	1243.12
795.12	1243.12
795.30	1312.75
795.47	1224.69
795.65	1275.88
795.82	1275.88
796.00	1226.73
796.17	1257.45
796.34	1304.56
796.52	1298.41
796.69	1210.35
796.87	1300.46
797.04	1271.79
797.22	1282.03
797.39	1208.30
797.57	1312.75
797.74	1271.79
797.92	1257.45
798.09	1230.83
798.27	1267.69
798.44	1357.80
798.62	1210.35
798.79	1279.98
798.96	1327.08
799.14	1255.40
799.31	1269.74
799.49	1249.26
799.66	1249.26
799.84	1292.27
800.01	1236.97
800.19	1345.52
800.36	1253.36
800.53	1284.08
800.71	1265.64
800.88	1265.64
801.06	1310.70
801.23	1304.56
801.41	1277.93
801.58	1279.98
801.75	1249.26
801.93	1271.79
802.10	1243.12
802.28	1253.36
802.45	1343.47
802.63	1249.26
802.80	1269.74
802.97	1230.83
803.15	1222.64
803.32	1265.64
803.50	1208.30
803.67	1204.21
803.84	1286.12
804.02	1210.35
804.19	1210.35
804.37	1198.06
804.54	1277.93
804.71	1294.32
804.89	1263.60
805.06	1273.84
805.24	1222.64
805.41	1261.55
805.58	1232.88
805.76	1241.07
805.93	1251.31
806.10	1361.90
806.28	1341.42
806.45	1279.98
806.63	1357.80
806.80	1255.40
806.97	1259.50
807.15	1230.83
807.32	1177.58
807.49	1243.12
807.67	1275.88
807.84	1263.60
808.01	1273.84
808.19	1226.73
808.36	1284.08
808.54	1263.60
808.71	1249.26
808.88	1351.66
809.06	1306.60
809.23	1310.70
809.40	1214.45
809.58	1314.80
809.75	1292.27
809.92	1267.69
810.10	1314.80
810.27	1277.93
810.44	1370.09
810.62	1310.70
810.79	1284.08
810.96	1304.56
811.14	1245.16
811.31	1273.84
811.48	1243.12
811.66	1267.69
811.83	1253.36
812.00	1234.93
812.18	1282.03
812.35	1241.07
812.52	1286.12
812.69	1251.31
812.87	1206.25
813.04	1251.31
813.21	1261.55
813.39	1236.97
813.56	1296.36
813.73	1222.64
813.91	1247.21
814.08	1200.11
814.25	1236.97
814.42	1232.88
814.60	1239.02
814.77	1216.49
814.94	1331.18
815.12	1249.26
815.29	1279.98
815.46	1286.12
815.63	1335.28
815.81	1275.88
815.98	1269.74
816.15	1232.88
816.33	1241.07
816.50	1267.69
816.67	1245.16
816.84	1333.23
817.02	1253.36
817.19	1296.36
817.36	1288.17
817.53	1306.60
817.71	1345.52
817.88	1282.03
818.05	1239.02
818.22	1146.86
818.40	1275.88
818.57	1290.22
818.74	1279.98
818.91	1349.61
819.09	1239.02
819.26	1273.84
819.43	1230.83
819.60	1290.22
819.78	1245.16
819.95	1284.08
820.12	1275.88
820.29	1271.79
820.47	1249.26
820.64	1277.93
820.81	1232.88
820.98	1343.47
821.15	1353.71
821.33	1259.50
821.50	1263.60
821.67	1294.32
821.84	1249.26
822.02	1275.88
822.19	1265.64
822.36	1292.27
822.53	1189.87
822.70	1320.94
822.88	1282.03
823.05	1255.40
823.22	1277.93
823.39	1212.40
823.56	1212.40
823.74	1269.74
823.91	1259.50
824.08	1333.23
824.25	1232.88
824.42	1423.34
824.60	1200.11
824.77	1282.03
824.94	1263.60
825.11	1296.36
825.28	1255.40
825.45	1234.93
825.63	1279.98
825.80	1247.21
825.97	1200.11
826.14	1232.88
826.31	1220.59
826.48	1253.36
826.66	1265.64
826.83	1294.32
827.00	1263.60
827.17	1310.70
827.34	1198.06
827.51	1208.30
827.69	1228.78
827.86	1265.64
828.03	1253.36
828.20	1320.94
828.37	1234.93
828.54	1212.40
828.71	1273.84
828.89	1269.74
829.06	1261.55
829.23	1269.74
829.40	1263.60
829.57	1259.50
829.74	1331.18
829.91	1282.03
830.09	1234.93
830.26	1216.49
830.43	1294.32
830.60	1253.36
830.77	1200.11
830.94	1300.46
831.11	1261.55
831.28	1214.45
831.46	1286.12
831.63	1347.56
831.80	1251.31
831.97	1161.20
832.14	1359.85
832.31	1265.64
832.48	1255.40
832.65	1282.03
832.82	1245.16
832.99	1331.18
833.17	1288.17
833.34	1308.65
833.51	1177.58
833.68	1288.17
833.85	1247.21
834.02	1249.26
834.19	1173.49
834.36	1208.30
834.53	1310.70
834.70	1214.45
834.87	1228.78
835.04	1214.45
835.22	1292.27
835.39	1296.36
835.56	1228.78
835.73	1232.88
835.90	1241.07
836.07	1284.08
836.24	1241.07
836.41	1239.02
836.58	1185.77
836.75	1253.36
836.92	1251.31
837.09	1314.80
837.26	1286.12
837.43	1234.93
837.60	1267.69
837.77	1288.17
837.94	1275.88
838.12	1318.89
838.29	1261.55
838.46	1241.07
838.63	1212.40
838.80	1347.56
838.97	1325.04
839.14	1230.83
839.31	1263.60
839.48	1253.36
839.65	1175.53
839.82	1255.40
839.99	1284.08
840.16	1232.88
840.33	1191.92
840.50	1255.40
840.67	1296.36
840.84	1333.23
841.01	1322.99
841.18	1279.98
841.35	1265.64
841.52	1286.12
841.69	1286.12
841.86	1265.64
842.03	1241.07
842.20	1292.27
842.37	1218.54
842.54	1230.83
842.71	1290.22
842.88	1228.78
843.05	1212.40
843.22	1241.07
843.39	1177.58
843.56	1253.36
843.73	1210.35
843.90	1224.69
844.07	1232.88
844.24	1232.88
844.41	1263.60
844.58	1255.40
844.75	1277.93
844.92	1286.12
845.09	1241.07
845.26	1243.12
845.43	1363.95
845.60	1261.55
845.77	1322.99
845.94	1239.02
846.10	1261.55
846.27	1216.49
846.44	1298.41
846.61	1296.36
846.78	1255.40
846.95	1179.63
847.12	1245.16
847.29	1263.60
847.46	1232.88
847.63	1318.89
847.80	1224.69
847.97	1257.45
848.14	1265.64
848.31	1277.93
848.48	1267.69
848.65	1259.50
848.82	1224.69
848.98	1279.98
849.15	1294.32
849.32	1314.80
849.49	1314.80
849.66	1261.55
849.83	1316.84
850.00	1296.36
850.17	1290.22
850.34	1185.77
850.51	1253.36
850.68	1325.04
850.85	1312.75
851.01	1288.17
851.18	1279.98
851.35	1265.64
851.52	1196.01
851.69	1316.84
851.86	1234.93
852.03	1255.40
852.20	1275.88
852.37	1230.83
852.53	1271.79
852.70	1282.03
852.87	1232.88
853.04	1255.40
853.21	1265.64
853.38	1273.84
853.55	1210.35
853.72	1261.55
853.89	1263.60
854.05	1318.89
854.22	1230.83
854.39	1257.45
854.56	1269.74
854.73	1327.08
854.90	1286.12
855.07	1292.27
855.23	1239.02
855.40	1228.78
855.57	1187.82
855.74	1286.12
855.91	1230.83
856.08	1265.64
856.25	1228.78
856.41	1263.60
856.58	1339.37
856.75	1325.04
856.92	1257.45
857.09	1249.26
857.26	1218.54
857.42	1251.31
857.59	1279.98
857.76	1306.60
857.93	1316.84
858.10	1300.46
858.27	1245.16
858.43	1314.80
858.60	1296.36
858.77	1243.12
858.94	1269.74
859.11	1210.35
859.27	1271.79
859.44	1249.26
859.61	1167.34
859.78	1220.59
859.95	1302.51
860.12	1251.31
860.28	1292.27
860.45	1253.36
860.62	1251.31
860.79	1277.93
860.95	1239.02
861.12	1277.93
861.29	1284.08
861.46	1286.12
861.63	1249.26
861.79	1271.79
861.96	1247.21
862.13	1251.31
862.30	1296.36
862.47	1224.69
862.63	1296.36
862.80	1306.60
862.97	1245.16
863.14	1245.16
863.30	1333.23
863.47	1304.56
863.64	1294.32
863.81	1282.03
863.97	1261.55
864.14	1193.97
864.31	1206.25
864.48	1253.36
864.65	1277.93
864.81	1314.80
864.98	1257.45
865.15	1343.47
865.32	1230.83
865.48	1288.17
865.65	1292.27
865.82	1304.56
865.98	1206.25
866.15	1232.88
866.32	1224.69
866.49	1318.89
866.65	1228.78
866.82	1245.16
866.99	1355.76
867.16	1318.89
867.32	1306.60
867.49	1333.23
867.66	1253.36
867.83	1298.41
867.99	1193.97
868.16	1322.99
868.33	1193.97
868.49	1202.16
868.66	1200.11
868.83	1355.76
868.99	1263.60
869.16	1249.26
869.33	1286.12
869.50	1261.55
869.66	1302.51
869.83	1282.03
870.00	1308.65
870.16	1228.78
870.33	1267.69
870.50	1236.97
870.66	1234.93
870.83	1271.79
871.00	1224.69
871.17	1216.49
871.33	1273.84
871.50	1245.16
871.67	1275.88
871.83	1288.17
872.00	1251.31
872.17	1296.36
872.33	1239.02
872.50	1173.49
872.67	1282.03
872.83	1179.63
873.00	1222.64
873.17	1273.84
873.33	1241.07
873.50	1286.12
873.67	1253.36
873.83	1267.69
874.00	1236.97
874.16	1241.07
874.33	1265.64
874.50	1271.79
874.66	1286.12
874.83	1241.07
875.00	1220.59
875.16	1298.41
875.33	1269.74
875.50	1216.49
875.66	1337.32
875.83	1243.12
875.99	1234.93
876.16	1228.78
876.33	1263.60
876.49	1243.12
876.66	1232.88
876.83	1249.26
876.99	1263.60
877.16	1273.84
877.32	1279.98
877.49	1308.65
877.66	1261.55
877.82	1310.70
877.99	1290.22
878.15	1267.69
878.32	1218.54
878.49	1230.83
878.65	1267.69
878.82	1275.88
878.98	1306.60
879.15	1269.74
879.32	1232.88
879.48	1269.74
879.65	1282.03
879.81	1230.83
879.98	1220.59
880.15	1185.77
880.31	1265.64
880.48	1290.22
880.64	1230.83
880.81	1257.45
880.97	1253.36
881.14	1298.41
881.31	1316.84
881.47	1257.45
881.64	1277.93
881.80	1314.80
881.97	1322.99
882.13	1232.88
882.30	1279.98
882.47	1224.69
882.63	1296.36
882.80	1255.40
882.96	1220.59
883.13	1253.36
883.29	1200.11
883.46	1314.80
883.62	1169.39
883.79	1277.93
883.95	1208.30
884.12	1288.17
884.29	1277.93
884.45	1331.18
884.62	1232.88
884.78	1294.32
884.95	1226.73
885.11	1267.69
885.28	1243.12
885.44	1224.69
885.61	1232.88
885.77	1228.78
885.94	1284.08
886.10	1253.36
886.27	1218.54
886.43	1279.98
886.60	1304.56
886.76	1322.99
886.93	1257.45
887.09	1251.31
887.26	1271.79
887.42	1269.74
887.59	1298.41
887.75	1298.41
887.92	1265.64
888.08	1259.50
888.25	1222.64
888.41	1206.25
888.58	1312.75
888.74	1236.97
888.91	1253.36
>>>>>End Processed Spectral Data<<<<<
