SpectraSuite Data File
++++++++++++++++++++++++++++++++++++
Date: Sun Apr 03 19:55:47 CEST 2016
User: root
Dark Spectrum Present: No
Reference Spectrum Present: No
Number of Sampled Component Spectra: 1
Spectrometers: USB4C02835
Integration Time (usec): 10000 (USB4C02835)
Spectra Averaged: 1 (USB4C02835)
Boxcar Smoothing: 0 (USB4C02835)
Correct for Electrical Dark: No (USB4C02835)
Strobe/Lamp Enabled: No (USB4C02835)
Correct for Detector Non-linearity: No (USB4C02835)
Correct for Stray Light: No (USB4C02835)
Number of Pixels in Processed Spectrum: 3648
>>>>>Begin Processed Spectral Data<<<<<
177.47	1200.11
177.69	1200.11
177.91	1200.11
178.13	1236.97
178.36	1245.16
178.58	1193.97
178.80	1167.34
179.02	1298.41
179.24	1267.69
179.46	1228.78
179.68	1193.97
179.90	1243.12
180.13	1259.50
180.35	1286.12
180.57	1304.56
180.79	1249.26
181.01	1306.60
181.23	1284.08
181.45	1255.40
181.67	1304.56
181.90	1277.93
182.12	1261.55
182.34	1286.12
182.56	1267.69
182.78	1320.94
183.00	1216.49
183.22	1232.88
183.44	1282.03
183.66	1329.13
183.89	1284.08
184.11	1331.18
184.33	1286.12
184.55	1329.13
184.77	1279.98
184.99	1226.73
185.21	1224.69
185.43	1241.07
185.65	1239.02
185.87	1314.80
186.10	1325.04
186.32	1302.51
186.54	1251.31
186.76	1226.73
186.98	1351.66
187.20	1236.97
187.42	1269.74
187.64	1253.36
187.86	1226.73
188.08	1247.21
188.30	1269.74
188.52	1255.40
188.75	1251.31
188.97	1259.50
189.19	1226.73
189.41	1308.65
189.63	1259.50
189.85	1273.84
190.07	1255.40
190.29	1277.93
190.51	1169.39
190.73	1282.03
190.95	1302.51
191.17	1226.73
191.39	1271.79
191.61	1275.88
191.84	1279.98
192.06	1210.35
192.28	1288.17
192.50	1306.60
192.72	1282.03
192.94	1257.45
193.16	1312.75
193.38	1177.58
193.60	1257.45
193.82	1255.40
194.04	1302.51
194.26	1247.21
194.48	1271.79
194.70	1212.40
194.92	1273.84
195.14	1239.02
195.36	1292.27
195.58	1298.41
195.80	1193.97
196.02	1241.07
196.24	1222.64
196.46	1290.22
196.69	1286.12
196.91	1267.69
197.13	1259.50
197.35	1296.36
197.57	1296.36
197.79	1218.54
198.01	1245.16
198.23	1304.56
198.45	1249.26
198.67	1124.33
198.89	1243.12
199.11	1300.46
199.33	1247.21
199.55	1210.35
199.77	1302.51
199.99	1327.08
200.21	1159.15
200.43	1310.70
200.65	1241.07
200.87	1257.45
201.09	1263.60
201.31	1257.45
201.53	1239.02
201.75	1181.68
201.97	1269.74
202.19	1304.56
202.41	1196.01
202.63	1265.64
202.85	1279.98
203.07	1282.03
203.29	1265.64
203.51	1277.93
203.73	1243.12
203.95	1224.69
204.17	1239.02
204.39	1263.60
204.61	1279.98
204.83	1314.80
205.05	1193.97
205.27	1273.84
205.49	1247.21
205.71	1263.60
205.93	1327.08
206.15	1228.78
206.37	1318.89
206.59	1247.21
206.81	1232.88
207.03	1247.21
207.25	1288.17
207.47	1226.73
207.69	1210.35
207.91	1286.12
208.13	1286.12
208.34	1275.88
208.56	1220.59
208.78	1210.35
209.00	1347.56
209.22	1320.94
209.44	1327.08
209.66	1325.04
209.88	1236.97
210.10	1290.22
210.32	1208.30
210.54	1198.06
210.76	1261.55
210.98	1288.17
211.20	1253.36
211.42	1228.78
211.64	1411.05
211.86	1230.83
212.08	1263.60
212.30	1314.80
212.52	1200.11
212.74	1214.45
212.96	1282.03
213.17	1304.56
213.39	1347.56
213.61	1265.64
213.83	1206.25
214.05	1236.97
214.27	1232.88
214.49	1298.41
214.71	1269.74
214.93	1263.60
215.15	1341.42
215.37	1239.02
215.59	1331.18
215.81	1222.64
216.03	1320.94
216.24	1232.88
216.46	1288.17
216.68	1288.17
216.90	1224.69
217.12	1189.87
217.34	1349.61
217.56	1253.36
217.78	1236.97
218.00	1202.16
218.22	1261.55
218.44	1341.42
218.66	1271.79
218.87	1282.03
219.09	1189.87
219.31	1306.60
219.53	1322.99
219.75	1212.40
219.97	1185.77
220.19	1273.84
220.41	1304.56
220.63	1300.46
220.85	1247.21
221.06	1306.60
221.28	1269.74
221.50	1302.51
221.72	1267.69
221.94	1308.65
222.16	1271.79
222.38	1298.41
222.60	1245.16
222.82	1277.93
223.03	1210.35
223.25	1251.31
223.47	1286.12
223.69	1327.08
223.91	1275.88
224.13	1312.75
224.35	1198.06
224.57	1253.36
224.78	1286.12
225.00	1316.84
225.22	1304.56
225.44	1279.98
225.66	1159.15
225.88	1243.12
226.10	1277.93
226.32	1298.41
226.53	1294.32
226.75	1236.97
226.97	1167.34
227.19	1306.60
227.41	1236.97
227.63	1331.18
227.85	1306.60
228.06	1228.78
228.28	1341.42
228.50	1284.08
228.72	1286.12
228.94	1265.64
229.16	1179.63
229.37	1263.60
229.59	1320.94
229.81	1273.84
230.03	1341.42
230.25	1241.07
230.47	1230.83
230.69	1273.84
230.90	1216.49
231.12	1206.25
231.34	1279.98
231.56	1269.74
231.78	1247.21
232.00	1306.60
232.21	1253.36
232.43	1282.03
232.65	1279.98
232.87	1374.19
233.09	1171.44
233.30	1222.64
233.52	1257.45
233.74	1290.22
233.96	1261.55
234.18	1232.88
234.40	1257.45
234.61	1269.74
234.83	1322.99
235.05	1210.35
235.27	1224.69
235.49	1292.27
235.70	1206.25
235.92	1320.94
236.14	1310.70
236.36	1259.50
236.58	1331.18
236.79	1318.89
237.01	1294.32
237.23	1290.22
237.45	1245.16
237.67	1275.88
237.88	1288.17
238.10	1282.03
238.32	1296.36
238.54	1304.56
238.76	1241.07
238.97	1222.64
239.19	1216.49
239.41	1368.04
239.63	1251.31
239.85	1218.54
240.06	1284.08
240.28	1267.69
240.50	1214.45
240.72	1232.88
240.93	1220.59
241.15	1275.88
241.37	1261.55
241.59	1251.31
241.81	1202.16
242.02	1277.93
242.24	1288.17
242.46	1251.31
242.68	1269.74
242.89	1232.88
243.11	1243.12
243.33	1290.22
243.55	1318.89
243.76	1255.40
243.98	1212.40
244.20	1249.26
244.42	1198.06
244.64	1271.79
244.85	1263.60
245.07	1368.04
245.29	1241.07
245.51	1351.66
245.72	1249.26
245.94	1204.21
246.16	1265.64
246.38	1265.64
246.59	1247.21
246.81	1279.98
247.03	1269.74
247.24	1282.03
247.46	1253.36
247.68	1253.36
247.90	1261.55
248.11	1308.65
248.33	1177.58
248.55	1337.32
248.77	1302.51
248.98	1316.84
249.20	1157.10
249.42	1292.27
249.64	1271.79
249.85	1277.93
250.07	1314.80
250.29	1327.08
250.50	1234.93
250.72	1265.64
250.94	1300.46
251.16	1310.70
251.37	1339.37
251.59	1279.98
251.81	1257.45
252.02	1300.46
252.24	1327.08
252.46	1239.02
252.68	1222.64
252.89	1224.69
253.11	1181.68
253.33	1269.74
253.54	1339.37
253.76	1265.64
253.98	1265.64
254.20	1296.36
254.41	1249.26
254.63	1290.22
254.85	1263.60
255.06	1343.47
255.28	1290.22
255.50	1275.88
255.71	1271.79
255.93	1255.40
256.15	1232.88
256.36	1265.64
256.58	1277.93
256.80	1259.50
257.02	1372.14
257.23	1253.36
257.45	1216.49
257.67	1265.64
257.88	1308.65
258.10	1300.46
258.32	1253.36
258.53	1282.03
258.75	1308.65
258.97	1275.88
259.18	1341.42
259.40	1234.93
259.62	1239.02
259.83	1331.18
260.05	1247.21
260.27	1290.22
260.48	1308.65
260.70	1351.66
260.92	1263.60
261.13	1325.04
261.35	1275.88
261.57	1298.41
261.78	1279.98
262.00	1232.88
262.22	1339.37
262.43	1261.55
262.65	1251.31
262.86	1253.36
263.08	1232.88
263.30	1314.80
263.51	1198.06
263.73	1286.12
263.95	1290.22
264.16	1341.42
264.38	1257.45
264.60	1200.11
264.81	1253.36
265.03	1253.36
265.25	1298.41
265.46	1249.26
265.68	1198.06
265.89	1351.66
266.11	1230.83
266.33	1298.41
266.54	1255.40
266.76	1222.64
266.98	1265.64
267.19	1179.63
267.41	1286.12
267.62	1271.79
267.84	1216.49
268.06	1171.44
268.27	1288.17
268.49	1273.84
268.70	1306.60
268.92	1292.27
269.14	1261.55
269.35	1222.64
269.57	1263.60
269.79	1224.69
270.00	1224.69
270.22	1247.21
270.43	1339.37
270.65	1290.22
270.87	1224.69
271.08	1316.84
271.30	1267.69
271.51	1249.26
271.73	1271.79
271.95	1325.04
272.16	1236.97
272.38	1232.88
272.59	1265.64
272.81	1269.74
273.02	1302.51
273.24	1290.22
273.46	1204.21
273.67	1226.73
273.89	1267.69
274.10	1267.69
274.32	1255.40
274.54	1337.32
274.75	1196.01
274.97	1314.80
275.18	1273.84
275.40	1187.82
275.61	1247.21
275.83	1241.07
276.05	1257.45
276.26	1331.18
276.48	1228.78
276.69	1298.41
276.91	1261.55
277.12	1290.22
277.34	1253.36
277.55	1183.73
277.77	1271.79
277.99	1228.78
278.20	1230.83
278.42	1273.84
278.63	1292.27
278.85	1261.55
279.06	1279.98
279.28	1232.88
279.49	1275.88
279.71	1269.74
279.93	1191.92
280.14	1286.12
280.36	1257.45
280.57	1296.36
280.79	1155.05
281.00	1333.23
281.22	1290.22
281.43	1296.36
281.65	1253.36
281.86	1351.66
282.08	1208.30
282.29	1255.40
282.51	1302.51
282.73	1183.73
282.94	1265.64
283.16	1267.69
283.37	1183.73
283.59	1282.03
283.80	1279.98
284.02	1308.65
284.23	1241.07
284.45	1226.73
284.66	1267.69
284.88	1304.56
285.09	1363.95
285.31	1329.13
285.52	1259.50
285.74	1271.79
285.95	1269.74
286.17	1277.93
286.38	1257.45
286.60	1292.27
286.81	1339.37
287.03	1232.88
287.24	1249.26
287.46	1212.40
287.67	1259.50
287.89	1349.61
288.10	1277.93
288.32	1327.08
288.53	1269.74
288.75	1273.84
288.96	1265.64
289.18	1253.36
289.39	1294.32
289.61	1316.84
289.82	1314.80
290.04	1273.84
290.25	1222.64
290.47	1284.08
290.68	1263.60
290.90	1245.16
291.11	1210.35
291.33	1331.18
291.54	1198.06
291.76	1286.12
291.97	1304.56
292.18	1320.94
292.40	1236.97
292.61	1290.22
292.83	1306.60
293.04	1304.56
293.26	1220.59
293.47	1257.45
293.69	1171.44
293.90	1302.51
294.12	1279.98
294.33	1198.06
294.55	1247.21
294.76	1314.80
294.97	1253.36
295.19	1282.03
295.40	1191.92
295.62	1206.25
295.83	1296.36
296.05	1228.78
296.26	1304.56
296.48	1271.79
296.69	1241.07
296.90	1236.97
297.12	1296.36
297.33	1329.13
297.55	1222.64
297.76	1288.17
297.98	1306.60
298.19	1243.12
298.41	1228.78
298.62	1306.60
298.83	1304.56
299.05	1306.60
299.26	1335.28
299.48	1255.40
299.69	1212.40
299.90	1277.93
300.12	1265.64
300.33	1288.17
300.55	1282.03
300.76	1275.88
300.98	1261.55
301.19	1239.02
301.40	1249.26
301.62	1239.02
301.83	1273.84
302.05	1257.45
302.26	1300.46
302.47	1271.79
302.69	1251.31
302.90	1296.36
303.12	1253.36
303.33	1269.74
303.54	1294.32
303.76	1290.22
303.97	1269.74
304.19	1288.17
304.40	1290.22
304.61	1241.07
304.83	1279.98
305.04	1204.21
305.26	1275.88
305.47	1249.26
305.68	1298.41
305.90	1228.78
306.11	1312.75
306.33	1243.12
306.54	1282.03
306.75	1259.50
306.97	1228.78
307.18	1343.47
307.39	1298.41
307.61	1208.30
307.82	1218.54
308.04	1261.55
308.25	1368.04
308.46	1275.88
308.68	1243.12
308.89	1298.41
309.10	1241.07
309.32	1331.18
309.53	1236.97
309.74	1329.13
309.96	1288.17
310.17	1245.16
310.39	1226.73
310.60	1228.78
310.81	1265.64
311.03	1259.50
311.24	1282.03
311.45	1267.69
311.67	1329.13
311.88	1269.74
312.09	1247.21
312.31	1243.12
312.52	1273.84
312.73	1247.21
312.95	1312.75
313.16	1322.99
313.37	1286.12
313.59	1245.16
313.80	1277.93
314.01	1282.03
314.23	1298.41
314.44	1288.17
314.65	1263.60
314.87	1261.55
315.08	1218.54
315.29	1273.84
315.51	1282.03
315.72	1279.98
315.93	1322.99
316.15	1320.94
316.36	1263.60
316.57	1282.03
316.79	1210.35
317.00	1251.31
317.21	1247.21
317.43	1175.53
317.64	1210.35
317.85	1351.66
318.07	1316.84
318.28	1265.64
318.49	1288.17
318.70	1239.02
318.92	1247.21
319.13	1286.12
319.34	1298.41
319.56	1275.88
319.77	1269.74
319.98	1292.27
320.20	1179.63
320.41	1320.94
320.62	1308.65
320.83	1243.12
321.05	1241.07
321.26	1327.08
321.47	1236.97
321.69	1275.88
321.90	1267.69
322.11	1298.41
322.32	1214.45
322.54	1189.87
322.75	1273.84
322.96	1232.88
323.18	1290.22
323.39	1249.26
323.60	1294.32
323.81	1263.60
324.03	1228.78
324.24	1327.08
324.45	1282.03
324.66	1241.07
324.88	1271.79
325.09	1265.64
325.30	1255.40
325.52	1247.21
325.73	1187.82
325.94	1333.23
326.15	1259.50
326.37	1271.79
326.58	1245.16
326.79	1279.98
327.00	1214.45
327.22	1220.59
327.43	1302.51
327.64	1216.49
327.85	1251.31
328.07	1216.49
328.28	1343.47
328.49	1273.84
328.70	1304.56
328.92	1239.02
329.13	1212.40
329.34	1282.03
329.55	1277.93
329.76	1253.36
329.98	1269.74
330.19	1255.40
330.40	1251.31
330.61	1284.08
330.83	1345.52
331.04	1226.73
331.25	1255.40
331.46	1267.69
331.68	1202.16
331.89	1288.17
332.10	1259.50
332.31	1300.46
332.52	1304.56
332.74	1263.60
332.95	1304.56
333.16	1236.97
333.37	1294.32
333.58	1327.08
333.80	1245.16
334.01	1259.50
334.22	1206.25
334.43	1277.93
334.64	1200.11
334.86	1288.17
335.07	1202.16
335.28	1210.35
335.49	1300.46
335.70	1226.73
335.92	1220.59
336.13	1212.40
336.34	1208.30
336.55	1232.88
336.76	1304.56
336.98	1183.73
337.19	1206.25
337.40	1271.79
337.61	1302.51
337.82	1259.50
338.04	1329.13
338.25	1241.07
338.46	1380.33
338.67	1263.60
338.88	1296.36
339.09	1318.89
339.31	1312.75
339.52	1298.41
339.73	1312.75
339.94	1308.65
340.15	1363.95
340.36	1263.60
340.58	1288.17
340.79	1241.07
341.00	1253.36
341.21	1349.61
341.42	1306.60
341.63	1255.40
341.85	1306.60
342.06	1345.52
342.27	1296.36
342.48	1294.32
342.69	1173.49
342.90	1243.12
343.12	1255.40
343.33	1202.16
343.54	1314.80
343.75	1339.37
343.96	1230.83
344.17	1247.21
344.38	1337.32
344.60	1249.26
344.81	1304.56
345.02	1273.84
345.23	1282.03
345.44	1288.17
345.65	1279.98
345.86	1243.12
346.07	1300.46
346.29	1349.61
346.50	1241.07
346.71	1236.97
346.92	1249.26
347.13	1296.36
347.34	1269.74
347.55	1198.06
347.76	1232.88
347.98	1279.98
348.19	1333.23
348.40	1226.73
348.61	1320.94
348.82	1271.79
349.03	1286.12
349.24	1329.13
349.45	1271.79
349.66	1329.13
349.88	1275.88
350.09	1277.93
350.30	1241.07
350.51	1214.45
350.72	1292.27
350.93	1271.79
351.14	1255.40
351.35	1273.84
351.56	1255.40
351.77	1339.37
351.99	1345.52
352.20	1314.80
352.41	1290.22
352.62	1181.68
352.83	1292.27
353.04	1267.69
353.25	1298.41
353.46	1220.59
353.67	1214.45
353.88	1257.45
354.09	1277.93
354.30	1312.75
354.52	1267.69
354.73	1312.75
354.94	1261.55
355.15	1269.74
355.36	1263.60
355.57	1298.41
355.78	1292.27
355.99	1286.12
356.20	1239.02
356.41	1279.98
356.62	1183.73
356.83	1253.36
357.04	1261.55
357.25	1271.79
357.46	1273.84
357.68	1284.08
357.89	1271.79
358.10	1273.84
358.31	1265.64
358.52	1329.13
358.73	1288.17
358.94	1251.31
359.15	1232.88
359.36	1298.41
359.57	1271.79
359.78	1292.27
359.99	1189.87
360.20	1298.41
360.41	1271.79
360.62	1263.60
360.83	1259.50
361.04	1294.32
361.25	1257.45
361.46	1288.17
361.67	1251.31
361.88	1267.69
362.09	1263.60
362.30	1294.32
362.51	1189.87
362.72	1271.79
362.93	1275.88
363.14	1261.55
363.35	1265.64
363.56	1181.68
363.78	1206.25
363.99	1267.69
364.20	1339.37
364.41	1163.25
364.62	1259.50
364.83	1298.41
365.04	1228.78
365.25	1243.12
365.46	1271.79
365.67	1298.41
365.88	1212.40
366.09	1304.56
366.30	1249.26
366.51	1320.94
366.72	1241.07
366.93	1273.84
367.14	1275.88
367.35	1269.74
367.56	1181.68
367.77	1265.64
367.98	1208.30
368.18	1265.64
368.39	1353.71
368.60	1267.69
368.81	1310.70
369.02	1271.79
369.23	1239.02
369.44	1234.93
369.65	1288.17
369.86	1204.21
370.07	1249.26
370.28	1222.64
370.49	1257.45
370.70	1261.55
370.91	1265.64
371.12	1239.02
371.33	1298.41
371.54	1263.60
371.75	1271.79
371.96	1230.83
372.17	1216.49
372.38	1320.94
372.59	1279.98
372.80	1277.93
373.01	1177.58
373.22	1347.56
373.43	1318.89
373.64	1239.02
373.85	1277.93
374.06	1245.16
374.26	1282.03
374.47	1255.40
374.68	1204.21
374.89	1271.79
375.10	1243.12
375.31	1265.64
375.52	1249.26
375.73	1286.12
375.94	1288.17
376.15	1284.08
376.36	1236.97
376.57	1306.60
376.78	1277.93
376.99	1320.94
377.20	1230.83
377.40	1288.17
377.61	1267.69
377.82	1249.26
378.03	1292.27
378.24	1306.60
378.45	1259.50
378.66	1183.73
378.87	1269.74
379.08	1222.64
379.29	1277.93
379.50	1300.46
379.71	1261.55
379.91	1304.56
380.12	1355.76
380.33	1263.60
380.54	1202.16
380.75	1232.88
380.96	1292.27
381.17	1261.55
381.38	1245.16
381.59	1279.98
381.80	1245.16
382.00	1216.49
382.21	1255.40
382.42	1263.60
382.63	1333.23
382.84	1193.97
383.05	1345.52
383.26	1263.60
383.47	1247.21
383.68	1275.88
383.88	1239.02
384.09	1263.60
384.30	1247.21
384.51	1306.60
384.72	1320.94
384.93	1265.64
385.14	1204.21
385.35	1202.16
385.55	1306.60
385.76	1351.66
385.97	1279.98
386.18	1255.40
386.39	1296.36
386.60	1271.79
386.81	1230.83
387.02	1212.40
387.22	1261.55
387.43	1241.07
387.64	1296.36
387.85	1267.69
388.06	1210.35
388.27	1241.07
388.48	1251.31
388.68	1288.17
388.89	1247.21
389.10	1245.16
389.31	1185.77
389.52	1312.75
389.73	1306.60
389.93	1218.54
390.14	1220.59
390.35	1298.41
390.56	1314.80
390.77	1265.64
390.98	1310.70
391.18	1329.13
391.39	1290.22
391.60	1216.49
391.81	1247.21
392.02	1310.70
392.23	1288.17
392.43	1232.88
392.64	1306.60
392.85	1271.79
393.06	1284.08
393.27	1282.03
393.47	1269.74
393.68	1251.31
393.89	1247.21
394.10	1230.83
394.31	1247.21
394.52	1292.27
394.72	1284.08
394.93	1294.32
395.14	1202.16
395.35	1279.98
395.56	1228.78
395.76	1261.55
395.97	1269.74
396.18	1265.64
396.39	1216.49
396.60	1282.03
396.80	1247.21
397.01	1292.27
397.22	1320.94
397.43	1279.98
397.64	1286.12
397.84	1304.56
398.05	1273.84
398.26	1292.27
398.47	1286.12
398.67	1298.41
398.88	1236.97
399.09	1279.98
399.30	1261.55
399.51	1292.27
399.71	1271.79
399.92	1228.78
400.13	1257.45
400.34	1296.36
400.54	1245.16
400.75	1275.88
400.96	1308.65
401.17	1320.94
401.37	1322.99
401.58	1290.22
401.79	1271.79
402.00	1329.13
402.21	1239.02
402.41	1304.56
402.62	1300.46
402.83	1296.36
403.04	1279.98
403.24	1310.70
403.45	1288.17
403.66	1210.35
403.87	1288.17
404.07	1318.89
404.28	1249.26
404.49	1318.89
404.70	1302.51
404.90	1306.60
405.11	1257.45
405.32	1312.75
405.52	1296.36
405.73	1241.07
405.94	1279.98
406.15	1226.73
406.35	1320.94
406.56	1243.12
406.77	1325.04
406.98	1298.41
407.18	1208.30
407.39	1277.93
407.60	1282.03
407.80	1318.89
408.01	1269.74
408.22	1310.70
408.43	1222.64
408.63	1232.88
408.84	1206.25
409.05	1310.70
409.25	1239.02
409.46	1265.64
409.67	1304.56
409.88	1261.55
410.08	1247.21
410.29	1294.32
410.50	1245.16
410.70	1255.40
410.91	1239.02
411.12	1261.55
411.32	1208.30
411.53	1263.60
411.74	1198.06
411.95	1273.84
412.15	1271.79
412.36	1277.93
412.57	1253.36
412.77	1249.26
412.98	1288.17
413.19	1316.84
413.39	1179.63
413.60	1261.55
413.81	1269.74
414.01	1239.02
414.22	1277.93
414.43	1318.89
414.63	1267.69
414.84	1286.12
415.05	1282.03
415.25	1222.64
415.46	1298.41
415.67	1236.97
415.87	1245.16
416.08	1245.16
416.29	1243.12
416.49	1249.26
416.70	1253.36
416.91	1271.79
417.11	1331.18
417.32	1265.64
417.53	1314.80
417.73	1286.12
417.94	1234.93
418.15	1236.97
418.35	1257.45
418.56	1265.64
418.77	1245.16
418.97	1286.12
419.18	1296.36
419.38	1198.06
419.59	1335.28
419.80	1284.08
420.00	1249.26
420.21	1200.11
420.42	1294.32
420.62	1175.53
420.83	1282.03
421.04	1302.51
421.24	1314.80
421.45	1226.73
421.65	1263.60
421.86	1261.55
422.07	1327.08
422.27	1290.22
422.48	1271.79
422.69	1257.45
422.89	1273.84
423.10	1273.84
423.30	1314.80
423.51	1204.21
423.72	1189.87
423.92	1304.56
424.13	1302.51
424.33	1296.36
424.54	1263.60
424.75	1150.96
424.95	1275.88
425.16	1236.97
425.36	1222.64
425.57	1269.74
425.78	1255.40
425.98	1228.78
426.19	1269.74
426.39	1273.84
426.60	1316.84
426.81	1302.51
427.01	1239.02
427.22	1316.84
427.42	1243.12
427.63	1310.70
427.83	1306.60
428.04	1230.83
428.25	1265.64
428.45	1359.85
428.66	1232.88
428.86	1255.40
429.07	1208.30
429.28	1249.26
429.48	1239.02
429.69	1282.03
429.89	1331.18
430.10	1265.64
430.30	1288.17
430.51	1310.70
430.71	1269.74
430.92	1327.08
431.13	1292.27
431.33	1222.64
431.54	1306.60
431.74	1263.60
431.95	1183.73
432.15	1220.59
432.36	1277.93
432.56	1292.27
432.77	1243.12
432.98	1304.56
433.18	1273.84
433.39	1296.36
433.59	1267.69
433.80	1341.42
434.00	1302.51
434.21	1239.02
434.41	1290.22
434.62	1247.21
434.82	1300.46
435.03	1239.02
435.23	1206.25
435.44	1267.69
435.64	1284.08
435.85	1230.83
436.06	1232.88
436.26	1290.22
436.47	1208.30
436.67	1282.03
436.88	1279.98
437.08	1269.74
437.29	1261.55
437.49	1273.84
437.70	1216.49
437.90	1261.55
438.11	1279.98
438.31	1290.22
438.52	1232.88
438.72	1345.52
438.93	1308.65
439.13	1269.74
439.34	1249.26
439.54	1198.06
439.75	1300.46
439.95	1279.98
440.16	1288.17
440.36	1230.83
440.57	1290.22
440.77	1298.41
440.98	1290.22
441.18	1228.78
441.39	1239.02
441.59	1298.41
441.80	1277.93
442.00	1200.11
442.21	1298.41
442.41	1296.36
442.62	1310.70
442.82	1257.45
443.02	1222.64
443.23	1288.17
443.43	1294.32
443.64	1265.64
443.84	1302.51
444.05	1288.17
444.25	1265.64
444.46	1331.18
444.66	1279.98
444.87	1300.46
445.07	1290.22
445.28	1304.56
445.48	1267.69
445.69	1271.79
445.89	1163.25
446.09	1265.64
446.30	1245.16
446.50	1261.55
446.71	1282.03
446.91	1284.08
447.12	1304.56
447.32	1273.84
447.53	1255.40
447.73	1355.76
447.93	1263.60
448.14	1341.42
448.34	1306.60
448.55	1331.18
448.75	1298.41
448.96	1318.89
449.16	1290.22
449.36	1255.40
449.57	1388.52
449.77	1273.84
449.98	1236.97
450.18	1263.60
450.39	1292.27
450.59	1279.98
450.79	1277.93
451.00	1257.45
451.20	1269.74
451.41	1267.69
451.61	1314.80
451.81	1298.41
452.02	1265.64
452.22	1294.32
452.43	1327.08
452.63	1282.03
452.84	1277.93
453.04	1343.47
453.24	1310.70
453.45	1325.04
453.65	1230.83
453.86	1257.45
454.06	1273.84
454.26	1263.60
454.47	1318.89
454.67	1314.80
454.87	1372.14
455.08	1267.69
455.28	1206.25
455.49	1220.59
455.69	1253.36
455.89	1292.27
456.10	1271.79
456.30	1290.22
456.51	1216.49
456.71	1275.88
456.91	1396.71
457.12	1310.70
457.32	1236.97
457.52	1316.84
457.73	1259.50
457.93	1314.80
458.14	1290.22
458.34	1263.60
458.54	1243.12
458.75	1249.26
458.95	1286.12
459.15	1288.17
459.36	1288.17
459.56	1265.64
459.76	1271.79
459.97	1296.36
460.17	1253.36
460.37	1292.27
460.58	1239.02
460.78	1361.90
460.99	1298.41
461.19	1271.79
461.39	1300.46
461.60	1271.79
461.80	1333.23
462.00	1239.02
462.21	1249.26
462.41	1310.70
462.61	1251.31
462.82	1253.36
463.02	1269.74
463.22	1296.36
463.43	1265.64
463.63	1286.12
463.83	1308.65
464.04	1249.26
464.24	1218.54
464.44	1331.18
464.64	1273.84
464.85	1271.79
465.05	1298.41
465.25	1353.71
465.46	1249.26
465.66	1271.79
465.86	1337.32
466.07	1361.90
466.27	1286.12
466.47	1286.12
466.68	1230.83
466.88	1224.69
467.08	1204.21
467.29	1247.21
467.49	1368.04
467.69	1331.18
467.89	1232.88
468.10	1347.56
468.30	1269.74
468.50	1253.36
468.71	1343.47
468.91	1234.93
469.11	1232.88
469.31	1273.84
469.52	1275.88
469.72	1243.12
469.92	1312.75
470.13	1267.69
470.33	1298.41
470.53	1232.88
470.73	1267.69
470.94	1257.45
471.14	1282.03
471.34	1296.36
471.54	1306.60
471.75	1232.88
471.95	1306.60
472.15	1286.12
472.36	1316.84
472.56	1318.89
472.76	1271.79
472.96	1290.22
473.17	1312.75
473.37	1249.26
473.57	1269.74
473.77	1347.56
473.98	1206.25
474.18	1298.41
474.38	1257.45
474.58	1306.60
474.79	1241.07
474.99	1208.30
475.19	1259.50
475.39	1263.60
475.60	1292.27
475.80	1247.21
476.00	1202.16
476.20	1241.07
476.41	1273.84
476.61	1273.84
476.81	1284.08
477.01	1294.32
477.21	1269.74
477.42	1257.45
477.62	1214.45
477.82	1329.13
478.02	1191.92
478.23	1284.08
478.43	1282.03
478.63	1259.50
478.83	1220.59
479.03	1298.41
479.24	1239.02
479.44	1337.32
479.64	1257.45
479.84	1292.27
480.04	1218.54
480.25	1267.69
480.45	1310.70
480.65	1402.86
480.85	1204.21
481.06	1320.94
481.26	1267.69
481.46	1314.80
481.66	1339.37
481.86	1273.84
482.06	1261.55
482.27	1245.16
482.47	1257.45
482.67	1263.60
482.87	1261.55
483.07	1277.93
483.28	1310.70
483.48	1257.45
483.68	1294.32
483.88	1284.08
484.08	1277.93
484.29	1245.16
484.49	1249.26
484.69	1277.93
484.89	1261.55
485.09	1269.74
485.29	1318.89
485.50	1277.93
485.70	1265.64
485.90	1296.36
486.10	1243.12
486.30	1265.64
486.50	1288.17
486.71	1261.55
486.91	1282.03
487.11	1282.03
487.31	1216.49
487.51	1290.22
487.71	1284.08
487.91	1325.04
488.12	1183.73
488.32	1257.45
488.52	1204.21
488.72	1200.11
488.92	1222.64
489.12	1277.93
489.32	1224.69
489.53	1232.88
489.73	1267.69
489.93	1304.56
490.13	1236.97
490.33	1179.63
490.53	1271.79
490.73	1298.41
490.94	1271.79
491.14	1255.40
491.34	1286.12
491.54	1269.74
491.74	1333.23
491.94	1296.36
492.14	1302.51
492.34	1257.45
492.54	1279.98
492.75	1290.22
492.95	1279.98
493.15	1296.36
493.35	1271.79
493.55	1322.99
493.75	1249.26
493.95	1210.35
494.15	1226.73
494.35	1206.25
494.56	1218.54
494.76	1245.16
494.96	1298.41
495.16	1249.26
495.36	1259.50
495.56	1222.64
495.76	1314.80
495.96	1279.98
496.16	1249.26
496.36	1228.78
496.56	1239.02
496.77	1320.94
496.97	1269.74
497.17	1298.41
497.37	1255.40
497.57	1245.16
497.77	1257.45
497.97	1288.17
498.17	1220.59
498.37	1288.17
498.57	1329.13
498.77	1279.98
498.97	1265.64
499.17	1292.27
499.38	1267.69
499.58	1263.60
499.78	1220.59
499.98	1247.21
500.18	1292.27
500.38	1247.21
500.58	1300.46
500.78	1343.47
500.98	1277.93
501.18	1294.32
501.38	1290.22
501.58	1243.12
501.78	1269.74
501.98	1292.27
502.18	1273.84
502.38	1232.88
502.58	1249.26
502.78	1341.42
502.98	1265.64
503.18	1232.88
503.38	1363.95
503.59	1335.28
503.79	1228.78
503.99	1220.59
504.19	1241.07
504.39	1290.22
504.59	1255.40
504.79	1267.69
504.99	1277.93
505.19	1284.08
505.39	1226.73
505.59	1298.41
505.79	1300.46
505.99	1255.40
506.19	1265.64
506.39	1296.36
506.59	1306.60
506.79	1296.36
506.99	1251.31
507.19	1314.80
507.39	1216.49
507.59	1290.22
507.79	1310.70
507.99	1265.64
508.19	1277.93
508.39	1255.40
508.59	1271.79
508.79	1257.45
508.99	1294.32
509.19	1275.88
509.39	1275.88
509.59	1302.51
509.79	1224.69
509.99	1347.56
510.19	1282.03
510.39	1290.22
510.59	1325.04
510.79	1279.98
510.99	1279.98
511.19	1320.94
511.39	1288.17
511.59	1288.17
511.79	1329.13
511.99	1255.40
512.19	1267.69
512.38	1343.47
512.58	1255.40
512.78	1245.16
512.98	1265.64
513.18	1279.98
513.38	1175.53
513.58	1236.97
513.78	1284.08
513.98	1249.26
514.18	1273.84
514.38	1255.40
514.58	1224.69
514.78	1300.46
514.98	1292.27
515.18	1257.45
515.38	1269.74
515.58	1304.56
515.78	1345.52
515.98	1279.98
516.18	1282.03
516.38	1226.73
516.57	1331.18
516.77	1296.36
516.97	1286.12
517.17	1259.50
517.37	1335.28
517.57	1306.60
517.77	1222.64
517.97	1234.93
518.17	1249.26
518.37	1232.88
518.57	1298.41
518.77	1282.03
518.97	1230.83
519.16	1273.84
519.36	1284.08
519.56	1318.89
519.76	1282.03
519.96	1308.65
520.16	1255.40
520.36	1325.04
520.56	1318.89
520.76	1345.52
520.96	1267.69
521.16	1310.70
521.35	1370.09
521.55	1351.66
521.75	1253.36
521.95	1241.07
522.15	1376.24
522.35	1269.74
522.55	1296.36
522.75	1259.50
522.95	1271.79
523.14	1234.93
523.34	1349.61
523.54	1267.69
523.74	1341.42
523.94	1277.93
524.14	1288.17
524.34	1251.31
524.54	1255.40
524.73	1290.22
524.93	1239.02
525.13	1263.60
525.33	1273.84
525.53	1331.18
525.73	1277.93
525.93	1216.49
526.13	1298.41
526.32	1284.08
526.52	1222.64
526.72	1265.64
526.92	1253.36
527.12	1236.97
527.32	1275.88
527.52	1265.64
527.71	1269.74
527.91	1255.40
528.11	1204.21
528.31	1347.56
528.51	1304.56
528.71	1370.09
528.90	1316.84
529.10	1314.80
529.30	1335.28
529.50	1273.84
529.70	1312.75
529.90	1300.46
530.09	1306.60
530.29	1279.98
530.49	1306.60
530.69	1316.84
530.89	1216.49
531.09	1302.51
531.28	1265.64
531.48	1239.02
531.68	1261.55
531.88	1284.08
532.08	1241.07
532.28	1320.94
532.47	1292.27
532.67	1316.84
532.87	1292.27
533.07	1322.99
533.27	1282.03
533.46	1304.56
533.66	1257.45
533.86	1253.36
534.06	1275.88
534.26	1232.88
534.45	1251.31
534.65	1288.17
534.85	1286.12
535.05	1282.03
535.25	1322.99
535.44	1312.75
535.64	1288.17
535.84	1255.40
536.04	1253.36
536.24	1263.60
536.43	1288.17
536.63	1282.03
536.83	1273.84
537.03	1310.70
537.22	1259.50
537.42	1247.21
537.62	1282.03
537.82	1245.16
538.02	1273.84
538.21	1318.89
538.41	1331.18
538.61	1327.08
538.81	1265.64
539.00	1220.59
539.20	1204.21
539.40	1306.60
539.60	1249.26
539.79	1298.41
539.99	1308.65
540.19	1253.36
540.39	1249.26
540.58	1269.74
540.78	1220.59
540.98	1253.36
541.18	1310.70
541.37	1284.08
541.57	1187.82
541.77	1263.60
541.97	1298.41
542.16	1306.60
542.36	1298.41
542.56	1314.80
542.76	1306.60
542.95	1222.64
543.15	1230.83
543.35	1196.01
543.54	1310.70
543.74	1288.17
543.94	1343.47
544.14	1288.17
544.33	1294.32
544.53	1273.84
544.73	1218.54
544.93	1296.36
545.12	1261.55
545.32	1306.60
545.52	1284.08
545.71	1220.59
545.91	1284.08
546.11	1290.22
546.30	1282.03
546.50	1286.12
546.70	1255.40
546.90	1341.42
547.09	1259.50
547.29	1331.18
547.49	1304.56
547.68	1236.97
547.88	1234.93
548.08	1230.83
548.27	1327.08
548.47	1300.46
548.67	1230.83
548.87	1292.27
549.06	1241.07
549.26	1267.69
549.46	1298.41
549.65	1279.98
549.85	1320.94
550.05	1320.94
550.24	1347.56
550.44	1329.13
550.64	1228.78
550.83	1304.56
551.03	1243.12
551.23	1257.45
551.42	1402.86
551.62	1275.88
551.82	1353.71
552.01	1183.73
552.21	1284.08
552.41	1302.51
552.60	1251.31
552.80	1302.51
553.00	1298.41
553.19	1243.12
553.39	1239.02
553.59	1271.79
553.78	1277.93
553.98	1349.61
554.17	1271.79
554.37	1288.17
554.57	1359.85
554.76	1327.08
554.96	1284.08
555.16	1296.36
555.35	1253.36
555.55	1290.22
555.75	1220.59
555.94	1277.93
556.14	1271.79
556.33	1282.03
556.53	1247.21
556.73	1298.41
556.92	1284.08
557.12	1273.84
557.32	1312.75
557.51	1282.03
557.71	1208.30
557.90	1345.52
558.10	1300.46
558.30	1290.22
558.49	1290.22
558.69	1294.32
558.88	1290.22
559.08	1304.56
559.28	1316.84
559.47	1200.11
559.67	1267.69
559.86	1249.26
560.06	1292.27
560.26	1267.69
560.45	1308.65
560.65	1300.46
560.84	1282.03
561.04	1206.25
561.24	1269.74
561.43	1298.41
561.63	1185.77
561.82	1298.41
562.02	1263.60
562.22	1294.32
562.41	1347.56
562.61	1255.40
562.80	1230.83
563.00	1218.54
563.19	1228.78
563.39	1245.16
563.59	1261.55
563.78	1286.12
563.98	1288.17
564.17	1279.98
564.37	1302.51
564.56	1300.46
564.76	1220.59
564.96	1308.65
565.15	1228.78
565.35	1329.13
565.54	1325.04
565.74	1300.46
565.93	1284.08
566.13	1206.25
566.32	1255.40
566.52	1257.45
566.71	1232.88
566.91	1312.75
567.11	1333.23
567.30	1310.70
567.50	1269.74
567.69	1347.56
567.89	1298.41
568.08	1255.40
568.28	1292.27
568.47	1204.21
568.67	1331.18
568.86	1300.46
569.06	1372.14
569.25	1279.98
569.45	1189.87
569.64	1275.88
569.84	1302.51
570.04	1234.93
570.23	1236.97
570.43	1263.60
570.62	1290.22
570.82	1312.75
571.01	1312.75
571.21	1249.26
571.40	1279.98
571.60	1232.88
571.79	1275.88
571.99	1345.52
572.18	1314.80
572.38	1273.84
572.57	1337.32
572.77	1239.02
572.96	1259.50
573.16	1320.94
573.35	1247.21
573.55	1306.60
573.74	1308.65
573.94	1239.02
574.13	1286.12
574.33	1298.41
574.52	1302.51
574.71	1214.45
574.91	1292.27
575.10	1279.98
575.30	1249.26
575.49	1230.83
575.69	1261.55
575.88	1273.84
576.08	1331.18
576.27	1304.56
576.47	1224.69
576.66	1271.79
576.86	1337.32
577.05	1331.18
577.25	1304.56
577.44	1298.41
577.64	1251.31
577.83	1279.98
578.02	1329.13
578.22	1245.16
578.41	1236.97
578.61	1255.40
578.80	1247.21
579.00	1218.54
579.19	1341.42
579.39	1296.36
579.58	1327.08
579.77	1325.04
579.97	1282.03
580.16	1286.12
580.36	1286.12
580.55	1331.18
580.75	1312.75
580.94	1296.36
581.13	1298.41
581.33	1286.12
581.52	1265.64
581.72	1288.17
581.91	1273.84
582.11	1335.28
582.30	1282.03
582.49	1345.52
582.69	1206.25
582.88	1265.64
583.08	1314.80
583.27	1298.41
583.47	1261.55
583.66	1267.69
583.85	1249.26
584.05	1226.73
584.24	1308.65
584.44	1271.79
584.63	1290.22
584.82	1353.71
585.02	1224.69
585.21	1282.03
585.41	1322.99
585.60	1292.27
585.79	1327.08
585.99	1306.60
586.18	1320.94
586.37	1292.27
586.57	1290.22
586.76	1290.22
586.96	1310.70
587.15	1345.52
587.34	1327.08
587.54	1290.22
587.73	1249.26
587.93	1288.17
588.12	1200.11
588.31	1255.40
588.51	1329.13
588.70	1296.36
588.89	1265.64
589.09	1263.60
589.28	1329.13
589.47	1228.78
589.67	1290.22
589.86	1298.41
590.06	1243.12
590.25	1286.12
590.44	1314.80
590.64	1269.74
590.83	1345.52
591.02	1271.79
591.22	1247.21
591.41	1265.64
591.60	1294.32
591.80	1363.95
591.99	1249.26
592.18	1236.97
592.38	1263.60
592.57	1322.99
592.76	1271.79
592.96	1314.80
593.15	1220.59
593.34	1216.49
593.54	1300.46
593.73	1228.78
593.92	1388.52
594.12	1263.60
594.31	1245.16
594.50	1265.64
594.70	1226.73
594.89	1208.30
595.08	1368.04
595.28	1327.08
595.47	1277.93
595.66	1286.12
595.86	1202.16
596.05	1277.93
596.24	1253.36
596.43	1318.89
596.63	1363.95
596.82	1290.22
597.01	1341.42
597.21	1316.84
597.40	1271.79
597.59	1232.88
597.79	1279.98
597.98	1380.33
598.17	1349.61
598.36	1284.08
598.56	1288.17
598.75	1269.74
598.94	1347.56
599.14	1361.90
599.33	1267.69
599.52	1357.80
599.71	1333.23
599.91	1275.88
600.10	1298.41
600.29	1312.75
600.48	1304.56
600.68	1212.40
600.87	1234.93
601.06	1318.89
601.26	1288.17
601.45	1288.17
601.64	1286.12
601.83	1265.64
602.03	1259.50
602.22	1290.22
602.41	1361.90
602.60	1279.98
602.80	1257.45
602.99	1308.65
603.18	1314.80
603.37	1253.36
603.57	1273.84
603.76	1374.19
603.95	1275.88
604.14	1200.11
604.34	1353.71
604.53	1236.97
604.72	1220.59
604.91	1351.66
605.10	1302.51
605.30	1263.60
605.49	1253.36
605.68	1243.12
605.87	1353.71
606.07	1239.02
606.26	1355.76
606.45	1271.79
606.64	1189.87
606.84	1282.03
607.03	1265.64
607.22	1261.55
607.41	1275.88
607.60	1318.89
607.80	1202.16
607.99	1257.45
608.18	1320.94
608.37	1232.88
608.56	1253.36
608.76	1251.31
608.95	1251.31
609.14	1320.94
609.33	1286.12
609.52	1241.07
609.72	1298.41
609.91	1277.93
610.10	1312.75
610.29	1296.36
610.48	1271.79
610.68	1302.51
610.87	1304.56
611.06	1245.16
611.25	1279.98
611.44	1308.65
611.63	1368.04
611.83	1259.50
612.02	1282.03
612.21	1322.99
612.40	1267.69
612.59	1269.74
612.79	1259.50
612.98	1294.32
613.17	1269.74
613.36	1224.69
613.55	1343.47
613.74	1273.84
613.93	1292.27
614.13	1327.08
614.32	1261.55
614.51	1288.17
614.70	1273.84
614.89	1304.56
615.08	1200.11
615.28	1249.26
615.47	1282.03
615.66	1312.75
615.85	1306.60
616.04	1230.83
616.23	1288.17
616.42	1275.88
616.62	1259.50
616.81	1222.64
617.00	1284.08
617.19	1224.69
617.38	1327.08
617.57	1357.80
617.76	1282.03
617.95	1232.88
618.15	1189.87
618.34	1345.52
618.53	1282.03
618.72	1318.89
618.91	1290.22
619.10	1339.37
619.29	1288.17
619.48	1310.70
619.68	1284.08
619.87	1329.13
620.06	1255.40
620.25	1216.49
620.44	1308.65
620.63	1288.17
620.82	1200.11
621.01	1279.98
621.20	1204.21
621.39	1245.16
621.59	1255.40
621.78	1271.79
621.97	1206.25
622.16	1288.17
622.35	1335.28
622.54	1269.74
622.73	1243.12
622.92	1224.69
623.11	1359.85
623.30	1335.28
623.49	1284.08
623.68	1249.26
623.88	1372.14
624.07	1245.16
624.26	1234.93
624.45	1273.84
624.64	1329.13
624.83	1282.03
625.02	1298.41
625.21	1288.17
625.40	1347.56
625.59	1259.50
625.78	1257.45
625.97	1320.94
626.16	1329.13
626.35	1277.93
626.54	1304.56
626.74	1296.36
626.93	1288.17
627.12	1271.79
627.31	1359.85
627.50	1337.32
627.69	1347.56
627.88	1265.64
628.07	1316.84
628.26	1302.51
628.45	1230.83
628.64	1282.03
628.83	1269.74
629.02	1304.56
629.21	1241.07
629.40	1288.17
629.59	1308.65
629.78	1316.84
629.97	1366.00
630.16	1269.74
630.35	1312.75
630.54	1304.56
630.73	1286.12
630.92	1318.89
631.11	1304.56
631.30	1320.94
631.49	1337.32
631.68	1370.09
631.87	1331.18
632.06	1503.21
632.25	1449.96
632.44	1525.74
632.63	1441.77
632.82	1687.53
633.01	1923.04
633.20	1681.38
633.39	1589.22
633.58	1710.05
633.77	1695.72
633.96	1638.38
634.15	1619.94
634.34	1574.89
634.53	1669.09
634.72	1525.74
634.91	1601.51
635.10	1495.02
635.29	1486.83
635.48	1497.07
635.67	1357.80
635.86	1509.35
636.05	1435.63
636.24	1433.58
636.43	1355.76
636.62	1322.99
636.81	1279.98
637.00	1435.63
637.19	1353.71
637.38	1355.76
637.57	1335.28
637.76	1343.47
637.95	1378.28
638.14	1337.32
638.33	1284.08
638.52	1257.45
638.71	1331.18
638.89	1224.69
639.08	1298.41
639.27	1363.95
639.46	1310.70
639.65	1298.41
639.84	1284.08
640.03	1245.16
640.22	1249.26
640.41	1314.80
640.60	1222.64
640.79	1259.50
640.98	1302.51
641.17	1261.55
641.36	1277.93
641.55	1265.64
641.74	1253.36
641.92	1173.49
642.11	1345.52
642.30	1306.60
642.49	1310.70
642.68	1308.65
642.87	1249.26
643.06	1275.88
643.25	1320.94
643.44	1267.69
643.63	1234.93
643.82	1222.64
644.00	1275.88
644.19	1339.37
644.38	1279.98
644.57	1310.70
644.76	1175.53
644.95	1304.56
645.14	1286.12
645.33	1329.13
645.52	1302.51
645.71	1275.88
645.89	1292.27
646.08	1279.98
646.27	1329.13
646.46	1263.60
646.65	1300.46
646.84	1298.41
647.03	1347.56
647.22	1302.51
647.40	1335.28
647.59	1275.88
647.78	1290.22
647.97	1198.06
648.16	1290.22
648.35	1290.22
648.54	1275.88
648.73	1331.18
648.91	1322.99
649.10	1236.97
649.29	1288.17
649.48	1282.03
649.67	1226.73
649.86	1269.74
650.05	1308.65
650.23	1247.21
650.42	1249.26
650.61	1212.40
650.80	1298.41
650.99	1296.36
651.18	1216.49
651.36	1216.49
651.55	1294.32
651.74	1306.60
651.93	1294.32
652.12	1273.84
652.31	1366.00
652.49	1245.16
652.68	1271.79
652.87	1255.40
653.06	1290.22
653.25	1273.84
653.44	1318.89
653.62	1288.17
653.81	1314.80
654.00	1265.64
654.19	1234.93
654.38	1273.84
654.56	1335.28
654.75	1322.99
654.94	1234.93
655.13	1312.75
655.32	1302.51
655.51	1290.22
655.69	1300.46
655.88	1298.41
656.07	1298.41
656.26	1234.93
656.45	1234.93
656.63	1300.46
656.82	1257.45
657.01	1277.93
657.20	1296.36
657.38	1228.78
657.57	1343.47
657.76	1308.65
657.95	1257.45
658.14	1312.75
658.32	1325.04
658.51	1257.45
658.70	1220.59
658.89	1259.50
659.08	1247.21
659.26	1267.69
659.45	1273.84
659.64	1310.70
659.83	1243.12
660.01	1359.85
660.20	1333.23
660.39	1331.18
660.58	1247.21
660.76	1263.60
660.95	1273.84
661.14	1243.12
661.33	1335.28
661.51	1329.13
661.70	1308.65
661.89	1251.31
662.08	1263.60
662.26	1284.08
662.45	1216.49
662.64	1310.70
662.83	1357.80
663.01	1210.35
663.20	1208.30
663.39	1222.64
663.58	1279.98
663.76	1279.98
663.95	1296.36
664.14	1200.11
664.32	1284.08
664.51	1228.78
664.70	1214.45
664.89	1263.60
665.07	1325.04
665.26	1218.54
665.45	1331.18
665.64	1322.99
665.82	1200.11
666.01	1296.36
666.20	1327.08
666.38	1284.08
666.57	1282.03
666.76	1339.37
666.95	1325.04
667.13	1247.21
667.32	1275.88
667.51	1292.27
667.69	1234.93
667.88	1294.32
668.07	1271.79
668.25	1310.70
668.44	1337.32
668.63	1294.32
668.81	1290.22
669.00	1222.64
669.19	1267.69
669.38	1232.88
669.56	1267.69
669.75	1296.36
669.94	1306.60
670.12	1337.32
670.31	1279.98
670.50	1333.23
670.68	1282.03
670.87	1286.12
671.06	1236.97
671.24	1290.22
671.43	1318.89
671.62	1345.52
671.80	1198.06
671.99	1251.31
672.18	1331.18
672.36	1261.55
672.55	1298.41
672.74	1320.94
672.92	1259.50
673.11	1310.70
673.29	1275.88
673.48	1232.88
673.67	1257.45
673.85	1339.37
674.04	1296.36
674.23	1331.18
674.41	1286.12
674.60	1208.30
674.79	1232.88
674.97	1228.78
675.16	1282.03
675.34	1275.88
675.53	1275.88
675.72	1183.73
675.90	1253.36
676.09	1273.84
676.28	1236.97
676.46	1306.60
676.65	1222.64
676.83	1271.79
677.02	1298.41
677.21	1243.12
677.39	1261.55
677.58	1337.32
677.77	1320.94
677.95	1312.75
678.14	1310.70
678.32	1263.60
678.51	1269.74
678.70	1296.36
678.88	1234.93
679.07	1239.02
679.25	1290.22
679.44	1271.79
679.63	1230.83
679.81	1230.83
680.00	1257.45
680.18	1269.74
680.37	1271.79
680.55	1243.12
680.74	1245.16
680.93	1269.74
681.11	1269.74
681.30	1273.84
681.48	1253.36
681.67	1386.47
681.85	1302.51
682.04	1175.53
682.23	1265.64
682.41	1265.64
682.60	1239.02
682.78	1275.88
682.97	1294.32
683.15	1279.98
683.34	1243.12
683.53	1239.02
683.71	1282.03
683.90	1333.23
684.08	1230.83
684.27	1312.75
684.45	1236.97
684.64	1216.49
684.82	1255.40
685.01	1318.89
685.19	1261.55
685.38	1300.46
685.57	1290.22
685.75	1247.21
685.94	1243.12
686.12	1271.79
686.31	1251.31
686.49	1316.84
686.68	1218.54
686.86	1232.88
687.05	1286.12
687.23	1271.79
687.42	1361.90
687.60	1222.64
687.79	1212.40
687.97	1286.12
688.16	1277.93
688.34	1222.64
688.53	1275.88
688.71	1329.13
688.90	1261.55
689.08	1312.75
689.27	1234.93
689.45	1284.08
689.64	1249.26
689.82	1290.22
690.01	1241.07
690.19	1257.45
690.38	1220.59
690.56	1247.21
690.75	1282.03
690.93	1191.92
691.12	1308.65
691.30	1279.98
691.49	1222.64
691.67	1316.84
691.86	1294.32
692.04	1239.02
692.23	1255.40
692.41	1273.84
692.60	1245.16
692.78	1210.35
692.97	1325.04
693.15	1275.88
693.34	1286.12
693.52	1212.40
693.71	1302.51
693.89	1353.71
694.08	1288.17
694.26	1193.97
694.44	1318.89
694.63	1216.49
694.81	1267.69
695.00	1337.32
695.18	1277.93
695.37	1286.12
695.55	1261.55
695.74	1288.17
695.92	1267.69
696.10	1329.13
696.29	1167.34
696.47	1279.98
696.66	1282.03
696.84	1253.36
697.03	1232.88
697.21	1273.84
697.40	1341.42
697.58	1275.88
697.76	1241.07
697.95	1230.83
698.13	1247.21
698.32	1273.84
698.50	1304.56
698.68	1234.93
698.87	1243.12
699.05	1343.47
699.24	1257.45
699.42	1329.13
699.61	1300.46
699.79	1212.40
699.97	1290.22
700.16	1304.56
700.34	1232.88
700.53	1232.88
700.71	1249.26
700.89	1294.32
701.08	1222.64
701.26	1222.64
701.45	1236.97
701.63	1296.36
701.81	1173.49
702.00	1236.97
702.18	1267.69
702.37	1200.11
702.55	1273.84
702.73	1314.80
702.92	1259.50
703.10	1314.80
703.28	1257.45
703.47	1200.11
703.65	1275.88
703.84	1161.20
704.02	1261.55
704.20	1202.16
704.39	1243.12
704.57	1292.27
704.75	1210.35
704.94	1255.40
705.12	1296.36
705.30	1214.45
705.49	1277.93
705.67	1318.89
705.86	1236.97
706.04	1247.21
706.22	1253.36
706.41	1236.97
706.59	1294.32
706.77	1296.36
706.96	1265.64
707.14	1236.97
707.32	1302.51
707.51	1230.83
707.69	1282.03
707.87	1306.60
708.06	1255.40
708.24	1210.35
708.42	1193.97
708.61	1290.22
708.79	1251.31
708.97	1316.84
709.16	1257.45
709.34	1269.74
709.52	1232.88
709.71	1300.46
709.89	1370.09
710.07	1282.03
710.26	1277.93
710.44	1247.21
710.62	1216.49
710.80	1259.50
710.99	1206.25
711.17	1226.73
711.35	1177.58
711.54	1224.69
711.72	1271.79
711.90	1337.32
712.09	1224.69
712.27	1347.56
712.45	1269.74
712.63	1292.27
712.82	1310.70
713.00	1265.64
713.18	1210.35
713.37	1216.49
713.55	1273.84
713.73	1255.40
713.91	1236.97
714.10	1273.84
714.28	1310.70
714.46	1302.51
714.65	1314.80
714.83	1288.17
715.01	1247.21
715.19	1236.97
715.38	1286.12
715.56	1296.36
715.74	1241.07
715.92	1263.60
716.11	1314.80
716.29	1243.12
716.47	1261.55
716.65	1329.13
716.84	1236.97
717.02	1271.79
717.20	1259.50
717.38	1320.94
717.57	1282.03
717.75	1241.07
717.93	1249.26
718.11	1302.51
718.30	1267.69
718.48	1253.36
718.66	1236.97
718.84	1282.03
719.03	1265.64
719.21	1277.93
719.39	1318.89
719.57	1306.60
719.75	1263.60
719.94	1257.45
720.12	1220.59
720.30	1318.89
720.48	1288.17
720.67	1294.32
720.85	1286.12
721.03	1288.17
721.21	1271.79
721.39	1247.21
721.58	1228.78
721.76	1230.83
721.94	1271.79
722.12	1249.26
722.30	1216.49
722.49	1329.13
722.67	1290.22
722.85	1329.13
723.03	1290.22
723.21	1198.06
723.40	1277.93
723.58	1302.51
723.76	1374.19
723.94	1343.47
724.12	1224.69
724.30	1247.21
724.49	1271.79
724.67	1290.22
724.85	1224.69
725.03	1206.25
725.21	1308.65
725.40	1236.97
725.58	1212.40
725.76	1255.40
725.94	1273.84
726.12	1273.84
726.30	1294.32
726.49	1212.40
726.67	1277.93
726.85	1372.14
727.03	1314.80
727.21	1294.32
727.39	1298.41
727.57	1234.93
727.76	1271.79
727.94	1265.64
728.12	1263.60
728.30	1245.16
728.48	1202.16
728.66	1247.21
728.84	1325.04
729.03	1273.84
729.21	1298.41
729.39	1277.93
729.57	1255.40
729.75	1224.69
729.93	1282.03
730.11	1273.84
730.30	1337.32
730.48	1261.55
730.66	1271.79
730.84	1288.17
731.02	1333.23
731.20	1294.32
731.38	1286.12
731.56	1284.08
731.74	1234.93
731.93	1239.02
732.11	1275.88
732.29	1247.21
732.47	1273.84
732.65	1288.17
732.83	1269.74
733.01	1239.02
733.19	1269.74
733.37	1212.40
733.56	1212.40
733.74	1308.65
733.92	1263.60
734.10	1271.79
734.28	1253.36
734.46	1257.45
734.64	1230.83
734.82	1257.45
735.00	1249.26
735.18	1265.64
735.36	1245.16
735.54	1273.84
735.73	1265.64
735.91	1261.55
736.09	1316.84
736.27	1230.83
736.45	1245.16
736.63	1306.60
736.81	1269.74
736.99	1273.84
737.17	1241.07
737.35	1224.69
737.53	1228.78
737.71	1239.02
737.89	1185.77
738.07	1241.07
738.25	1273.84
738.43	1253.36
738.61	1251.31
738.80	1239.02
738.98	1232.88
739.16	1302.51
739.34	1318.89
739.52	1251.31
739.70	1241.07
739.88	1202.16
740.06	1296.36
740.24	1255.40
740.42	1337.32
740.60	1230.83
740.78	1210.35
740.96	1335.28
741.14	1239.02
741.32	1230.83
741.50	1247.21
741.68	1263.60
741.86	1302.51
742.04	1306.60
742.22	1255.40
742.40	1208.30
742.58	1257.45
742.76	1306.60
742.94	1308.65
743.12	1288.17
743.30	1310.70
743.48	1247.21
743.66	1198.06
743.84	1292.27
744.02	1236.97
744.20	1191.92
744.38	1247.21
744.56	1243.12
744.74	1329.13
744.92	1275.88
745.10	1310.70
745.28	1245.16
745.46	1230.83
745.64	1292.27
745.82	1294.32
746.00	1351.66
746.18	1218.54
746.36	1234.93
746.54	1292.27
746.72	1277.93
746.90	1265.64
747.08	1257.45
747.26	1269.74
747.44	1257.45
747.62	1239.02
747.80	1263.60
747.98	1320.94
748.15	1294.32
748.33	1222.64
748.51	1241.07
748.69	1255.40
748.87	1271.79
749.05	1251.31
749.23	1239.02
749.41	1269.74
749.59	1296.36
749.77	1214.45
749.95	1282.03
750.13	1222.64
750.31	1288.17
750.49	1261.55
750.67	1331.18
750.85	1234.93
751.03	1306.60
751.20	1312.75
751.38	1271.79
751.56	1284.08
751.74	1349.61
751.92	1325.04
752.10	1271.79
752.28	1241.07
752.46	1247.21
752.64	1288.17
752.82	1239.02
753.00	1294.32
753.18	1239.02
753.35	1282.03
753.53	1189.87
753.71	1236.97
753.89	1222.64
754.07	1275.88
754.25	1306.60
754.43	1282.03
754.61	1265.64
754.79	1286.12
754.97	1214.45
755.14	1263.60
755.32	1253.36
755.50	1310.70
755.68	1259.50
755.86	1245.16
756.04	1329.13
756.22	1288.17
756.40	1220.59
756.57	1402.86
756.75	1245.16
756.93	1322.99
757.11	1282.03
757.29	1286.12
757.47	1296.36
757.65	1263.60
757.82	1273.84
758.00	1302.51
758.18	1249.26
758.36	1247.21
758.54	1226.73
758.72	1269.74
758.90	1230.83
759.07	1273.84
759.25	1304.56
759.43	1208.30
759.61	1292.27
759.79	1345.52
759.97	1245.16
760.15	1234.93
760.32	1222.64
760.50	1286.12
760.68	1306.60
760.86	1269.74
761.04	1265.64
761.22	1263.60
761.39	1253.36
761.57	1277.93
761.75	1216.49
761.93	1230.83
762.11	1284.08
762.28	1322.99
762.46	1271.79
762.64	1275.88
762.82	1273.84
763.00	1222.64
763.18	1306.60
763.35	1239.02
763.53	1247.21
763.71	1257.45
763.89	1273.84
764.07	1314.80
764.24	1255.40
764.42	1329.13
764.60	1245.16
764.78	1273.84
764.96	1267.69
765.13	1230.83
765.31	1220.59
765.49	1232.88
765.67	1251.31
765.84	1175.53
766.02	1222.64
766.20	1275.88
766.38	1257.45
766.56	1306.60
766.73	1222.64
766.91	1331.18
767.09	1290.22
767.27	1208.30
767.44	1253.36
767.62	1282.03
767.80	1265.64
767.98	1259.50
768.15	1294.32
768.33	1298.41
768.51	1282.03
768.69	1200.11
768.87	1239.02
769.04	1286.12
769.22	1277.93
769.40	1253.36
769.58	1284.08
769.75	1193.97
769.93	1277.93
770.11	1290.22
770.28	1275.88
770.46	1220.59
770.64	1347.56
770.82	1261.55
770.99	1318.89
771.17	1220.59
771.35	1220.59
771.53	1271.79
771.70	1222.64
771.88	1196.01
772.06	1241.07
772.23	1263.60
772.41	1282.03
772.59	1269.74
772.77	1322.99
772.94	1263.60
773.12	1263.60
773.30	1210.35
773.47	1368.04
773.65	1298.41
773.83	1327.08
774.01	1271.79
774.18	1298.41
774.36	1230.83
774.54	1265.64
774.71	1214.45
774.89	1314.80
775.07	1263.60
775.24	1259.50
775.42	1212.40
775.60	1253.36
775.78	1329.13
775.95	1243.12
776.13	1243.12
776.31	1249.26
776.48	1236.97
776.66	1243.12
776.84	1273.84
777.01	1232.88
777.19	1318.89
777.37	1288.17
777.54	1302.51
777.72	1325.04
777.90	1263.60
778.07	1337.32
778.25	1275.88
778.43	1312.75
778.60	1314.80
778.78	1271.79
778.96	1232.88
779.13	1222.64
779.31	1277.93
779.49	1302.51
779.66	1224.69
779.84	1290.22
780.01	1282.03
780.19	1292.27
780.37	1316.84
780.54	1236.97
780.72	1189.87
780.90	1286.12
781.07	1243.12
781.25	1292.27
781.43	1243.12
781.60	1224.69
781.78	1193.97
781.95	1314.80
782.13	1239.02
782.31	1263.60
782.48	1210.35
782.66	1296.36
782.83	1220.59
783.01	1220.59
783.19	1191.92
783.36	1261.55
783.54	1331.18
783.72	1314.80
783.89	1347.56
784.07	1312.75
784.24	1329.13
784.42	1279.98
784.60	1263.60
784.77	1275.88
784.95	1279.98
785.12	1241.07
785.30	1247.21
785.47	1253.36
785.65	1232.88
785.83	1271.79
786.00	1243.12
786.18	1302.51
786.35	1308.65
786.53	1259.50
786.71	1247.21
786.88	1286.12
787.06	1271.79
787.23	1253.36
787.41	1275.88
787.58	1253.36
787.76	1267.69
787.94	1271.79
788.11	1296.36
788.29	1296.36
788.46	1263.60
788.64	1298.41
788.81	1294.32
788.99	1259.50
789.16	1241.07
789.34	1277.93
789.52	1331.18
789.69	1347.56
789.87	1300.46
790.04	1204.21
790.22	1239.02
790.39	1263.60
790.57	1269.74
790.74	1259.50
790.92	1239.02
791.09	1216.49
791.27	1331.18
791.44	1247.21
791.62	1251.31
791.79	1322.99
791.97	1279.98
792.15	1306.60
792.32	1335.28
792.50	1245.16
792.67	1265.64
792.85	1339.37
793.02	1318.89
793.20	1251.31
793.37	1290.22
793.55	1288.17
793.72	1269.74
793.90	1310.70
794.07	1245.16
794.25	1304.56
794.42	1222.64
794.60	1339.37
794.77	1191.92
794.95	1200.11
795.12	1259.50
795.30	1236.97
795.47	1230.83
795.65	1288.17
795.82	1189.87
796.00	1282.03
796.17	1347.56
796.34	1288.17
796.52	1288.17
796.69	1271.79
796.87	1271.79
797.04	1271.79
797.22	1267.69
797.39	1271.79
797.57	1271.79
797.74	1282.03
797.92	1306.60
798.09	1290.22
798.27	1241.07
798.44	1216.49
798.62	1347.56
798.79	1290.22
798.96	1239.02
799.14	1259.50
799.31	1204.21
799.49	1271.79
799.66	1304.56
799.84	1277.93
800.01	1236.97
800.19	1312.75
800.36	1292.27
800.53	1253.36
800.71	1271.79
800.88	1286.12
801.06	1359.85
801.23	1232.88
801.41	1222.64
801.58	1279.98
801.75	1284.08
801.93	1290.22
802.10	1179.63
802.28	1286.12
802.45	1282.03
802.63	1335.28
802.80	1296.36
802.97	1300.46
803.15	1239.02
803.32	1273.84
803.50	1308.65
803.67	1300.46
803.84	1257.45
804.02	1271.79
804.19	1247.21
804.37	1271.79
804.54	1327.08
804.71	1284.08
804.89	1296.36
805.06	1228.78
805.24	1247.21
805.41	1155.05
805.58	1177.58
805.76	1277.93
805.93	1320.94
806.10	1337.32
806.28	1275.88
806.45	1208.30
806.63	1312.75
806.80	1294.32
806.97	1349.61
807.15	1255.40
807.32	1310.70
807.49	1331.18
807.67	1243.12
807.84	1286.12
808.01	1226.73
808.19	1247.21
808.36	1220.59
808.54	1249.26
808.71	1277.93
808.88	1320.94
809.06	1292.27
809.23	1232.88
809.40	1302.51
809.58	1234.93
809.75	1261.55
809.92	1257.45
810.10	1269.74
810.27	1267.69
810.44	1212.40
810.62	1282.03
810.79	1236.97
810.96	1304.56
811.14	1220.59
811.31	1218.54
811.48	1267.69
811.66	1187.82
811.83	1347.56
812.00	1206.25
812.18	1259.50
812.35	1310.70
812.52	1292.27
812.69	1279.98
812.87	1277.93
813.04	1216.49
813.21	1302.51
813.39	1277.93
813.56	1236.97
813.73	1331.18
813.91	1234.93
814.08	1232.88
814.25	1265.64
814.42	1265.64
814.60	1239.02
814.77	1269.74
814.94	1202.16
815.12	1249.26
815.29	1294.32
815.46	1345.52
815.63	1245.16
815.81	1263.60
815.98	1331.18
816.15	1265.64
816.33	1269.74
816.50	1230.83
816.67	1191.92
816.84	1271.79
817.02	1210.35
817.19	1282.03
817.36	1243.12
817.53	1300.46
817.71	1257.45
817.88	1308.65
818.05	1200.11
818.22	1245.16
818.40	1288.17
818.57	1249.26
818.74	1253.36
818.91	1257.45
819.09	1304.56
819.26	1312.75
819.43	1239.02
819.60	1275.88
819.78	1372.14
819.95	1292.27
820.12	1308.65
820.29	1286.12
820.47	1249.26
820.64	1320.94
820.81	1218.54
820.98	1253.36
821.15	1277.93
821.33	1224.69
821.50	1269.74
821.67	1337.32
821.84	1230.83
822.02	1222.64
822.19	1370.09
822.36	1257.45
822.53	1245.16
822.70	1261.55
822.88	1306.60
823.05	1249.26
823.22	1310.70
823.39	1216.49
823.56	1214.45
823.74	1282.03
823.91	1300.46
824.08	1279.98
824.25	1306.60
824.42	1288.17
824.60	1255.40
824.77	1284.08
824.94	1271.79
825.11	1294.32
825.28	1292.27
825.45	1239.02
825.63	1245.16
825.80	1331.18
825.97	1253.36
826.14	1302.51
826.31	1259.50
826.48	1241.07
826.66	1298.41
826.83	1269.74
827.00	1312.75
827.17	1300.46
827.34	1312.75
827.51	1279.98
827.69	1214.45
827.86	1245.16
828.03	1294.32
828.20	1277.93
828.37	1314.80
828.54	1288.17
828.71	1239.02
828.89	1251.31
829.06	1279.98
829.23	1273.84
829.40	1202.16
829.57	1304.56
829.74	1282.03
829.91	1255.40
830.09	1304.56
830.26	1243.12
830.43	1267.69
830.60	1292.27
830.77	1163.25
830.94	1245.16
831.11	1284.08
831.28	1331.18
831.46	1193.97
831.63	1179.63
831.80	1189.87
831.97	1320.94
832.14	1257.45
832.31	1261.55
832.48	1341.42
832.65	1288.17
832.82	1224.69
832.99	1304.56
833.17	1243.12
833.34	1261.55
833.51	1312.75
833.68	1282.03
833.85	1298.41
834.02	1220.59
834.19	1261.55
834.36	1220.59
834.53	1269.74
834.70	1331.18
834.87	1302.51
835.04	1249.26
835.22	1273.84
835.39	1275.88
835.56	1232.88
835.73	1259.50
835.90	1306.60
836.07	1257.45
836.24	1300.46
836.41	1271.79
836.58	1284.08
836.75	1241.07
836.92	1275.88
837.09	1263.60
837.26	1322.99
837.43	1210.35
837.60	1226.73
837.77	1236.97
837.94	1269.74
838.12	1284.08
838.29	1282.03
838.46	1228.78
838.63	1218.54
838.80	1296.36
838.97	1304.56
839.14	1277.93
839.31	1288.17
839.48	1247.21
839.65	1302.51
839.82	1316.84
839.99	1316.84
840.16	1294.32
840.33	1185.77
840.50	1257.45
840.67	1269.74
840.84	1232.88
841.01	1249.26
841.18	1279.98
841.35	1255.40
841.52	1279.98
841.69	1337.32
841.86	1300.46
842.03	1245.16
842.20	1228.78
842.37	1269.74
842.54	1341.42
842.71	1294.32
842.88	1273.84
843.05	1273.84
843.22	1263.60
843.39	1312.75
843.56	1296.36
843.73	1269.74
843.90	1273.84
844.07	1275.88
844.24	1167.34
844.41	1282.03
844.58	1284.08
844.75	1290.22
844.92	1296.36
845.09	1234.93
845.26	1267.69
845.43	1282.03
845.60	1304.56
845.77	1216.49
845.94	1257.45
846.10	1306.60
846.27	1306.60
846.44	1255.40
846.61	1259.50
846.78	1347.56
846.95	1320.94
847.12	1236.97
847.29	1300.46
847.46	1282.03
847.63	1329.13
847.80	1234.93
847.97	1286.12
848.14	1173.49
848.31	1245.16
848.48	1269.74
848.65	1251.31
848.82	1261.55
848.98	1265.64
849.15	1314.80
849.32	1226.73
849.49	1259.50
849.66	1259.50
849.83	1294.32
850.00	1245.16
850.17	1222.64
850.34	1206.25
850.51	1247.21
850.68	1282.03
850.85	1271.79
851.01	1325.04
851.18	1361.90
851.35	1271.79
851.52	1249.26
851.69	1255.40
851.86	1249.26
852.03	1355.76
852.20	1253.36
852.37	1277.93
852.53	1329.13
852.70	1257.45
852.87	1304.56
853.04	1251.31
853.21	1261.55
853.38	1290.22
853.55	1251.31
853.72	1302.51
853.89	1239.02
854.05	1232.88
854.22	1251.31
854.39	1327.08
854.56	1249.26
854.73	1222.64
854.90	1341.42
855.07	1230.83
855.23	1341.42
855.40	1245.16
855.57	1286.12
855.74	1271.79
855.91	1314.80
856.08	1284.08
856.25	1271.79
856.41	1247.21
856.58	1277.93
856.75	1251.31
856.92	1282.03
857.09	1292.27
857.26	1275.88
857.42	1241.07
857.59	1269.74
857.76	1337.32
857.93	1265.64
858.10	1239.02
858.27	1265.64
858.43	1241.07
858.60	1273.84
858.77	1335.28
858.94	1220.59
859.11	1275.88
859.27	1312.75
859.44	1269.74
859.61	1196.01
859.78	1271.79
859.95	1363.95
860.12	1312.75
860.28	1222.64
860.45	1320.94
860.62	1304.56
860.79	1247.21
860.95	1259.50
861.12	1277.93
861.29	1249.26
861.46	1236.97
861.63	1267.69
861.79	1304.56
861.96	1200.11
862.13	1290.22
862.30	1232.88
862.47	1282.03
862.63	1236.97
862.80	1255.40
862.97	1251.31
863.14	1245.16
863.30	1288.17
863.47	1224.69
863.64	1243.12
863.81	1265.64
863.97	1200.11
864.14	1253.36
864.31	1236.97
864.48	1288.17
864.65	1210.35
864.81	1335.28
864.98	1230.83
865.15	1251.31
865.32	1277.93
865.48	1222.64
865.65	1302.51
865.82	1292.27
865.98	1232.88
866.15	1290.22
866.32	1228.78
866.49	1314.80
866.65	1314.80
866.82	1298.41
866.99	1249.26
867.16	1230.83
867.32	1232.88
867.49	1271.79
867.66	1263.60
867.83	1206.25
867.99	1159.15
868.16	1286.12
868.33	1243.12
868.49	1269.74
868.66	1308.65
868.83	1222.64
868.99	1210.35
869.16	1259.50
869.33	1329.13
869.50	1372.14
869.66	1204.21
869.83	1298.41
870.00	1245.16
870.16	1273.84
870.33	1236.97
870.50	1286.12
870.66	1241.07
870.83	1279.98
871.00	1259.50
871.17	1294.32
871.33	1343.47
871.50	1269.74
871.67	1257.45
871.83	1241.07
872.00	1290.22
872.17	1329.13
872.33	1273.84
872.50	1298.41
872.67	1222.64
872.83	1337.32
873.00	1257.45
873.17	1290.22
873.33	1265.64
873.50	1261.55
873.67	1230.83
873.83	1339.37
874.00	1263.60
874.16	1290.22
874.33	1247.21
874.50	1265.64
874.66	1253.36
874.83	1208.30
875.00	1259.50
875.16	1279.98
875.33	1245.16
875.50	1290.22
875.66	1296.36
875.83	1277.93
875.99	1292.27
876.16	1271.79
876.33	1249.26
876.49	1257.45
876.66	1308.65
876.83	1249.26
876.99	1245.16
877.16	1263.60
877.32	1267.69
877.49	1226.73
877.66	1218.54
877.82	1257.45
877.99	1282.03
878.15	1288.17
878.32	1288.17
878.49	1253.36
878.65	1269.74
878.82	1331.18
878.98	1261.55
879.15	1251.31
879.32	1282.03
879.48	1277.93
879.65	1196.01
879.81	1230.83
879.98	1300.46
880.15	1286.12
880.31	1302.51
880.48	1265.64
880.64	1261.55
880.81	1257.45
880.97	1249.26
881.14	1214.45
881.31	1218.54
881.47	1302.51
881.64	1308.65
881.80	1320.94
881.97	1255.40
882.13	1298.41
882.30	1292.27
882.47	1265.64
882.63	1253.36
882.80	1304.56
882.96	1267.69
883.13	1298.41
883.29	1331.18
883.46	1298.41
883.62	1273.84
883.79	1279.98
883.95	1232.88
884.12	1208.30
884.29	1249.26
884.45	1228.78
884.62	1236.97
884.78	1310.70
884.95	1255.40
885.11	1249.26
885.28	1239.02
885.44	1210.35
885.61	1290.22
885.77	1312.75
885.94	1353.71
886.10	1282.03
886.27	1304.56
886.43	1259.50
886.60	1263.60
886.76	1206.25
886.93	1298.41
887.09	1208.30
887.26	1325.04
887.42	1271.79
887.59	1304.56
887.75	1273.84
887.92	1288.17
888.08	1349.61
888.25	1333.23
888.41	1273.84
888.58	1312.75
888.74	1284.08
888.91	1212.40
>>>>>End Processed Spectral Data<<<<<
