SpectraSuite Data File
++++++++++++++++++++++++++++++++++++
Date: Sun Apr 03 19:55:19 CEST 2016
User: root
Dark Spectrum Present: No
Reference Spectrum Present: No
Number of Sampled Component Spectra: 1
Spectrometers: USB4C02835
Integration Time (usec): 10000 (USB4C02835)
Spectra Averaged: 1 (USB4C02835)
Boxcar Smoothing: 0 (USB4C02835)
Correct for Electrical Dark: No (USB4C02835)
Strobe/Lamp Enabled: No (USB4C02835)
Correct for Detector Non-linearity: No (USB4C02835)
Correct for Stray Light: No (USB4C02835)
Number of Pixels in Processed Spectrum: 3648
>>>>>Begin Processed Spectral Data<<<<<
177.47	1198.06
177.69	1198.06
177.91	1198.06
178.13	1284.08
178.36	1259.50
178.58	1218.54
178.80	1286.12
179.02	1245.16
179.24	1232.88
179.46	1290.22
179.68	1208.30
179.90	1255.40
180.13	1284.08
180.35	1267.69
180.57	1210.35
180.79	1234.93
181.01	1218.54
181.23	1243.12
181.45	1208.30
181.67	1228.78
181.90	1177.58
182.12	1306.60
182.34	1183.73
182.56	1306.60
182.78	1284.08
183.00	1259.50
183.22	1322.99
183.44	1216.49
183.66	1341.42
183.89	1282.03
184.11	1273.84
184.33	1263.60
184.55	1239.02
184.77	1312.75
184.99	1222.64
185.21	1198.06
185.43	1296.36
185.65	1236.97
185.87	1298.41
186.10	1284.08
186.32	1304.56
186.54	1277.93
186.76	1312.75
186.98	1271.79
187.20	1228.78
187.42	1249.26
187.64	1253.36
187.86	1261.55
188.08	1284.08
188.30	1263.60
188.52	1243.12
188.75	1312.75
188.97	1288.17
189.19	1298.41
189.41	1222.64
189.63	1220.59
189.85	1286.12
190.07	1230.83
190.29	1239.02
190.51	1241.07
190.73	1288.17
190.95	1322.99
191.17	1288.17
191.39	1239.02
191.61	1269.74
191.84	1286.12
192.06	1257.45
192.28	1308.65
192.50	1302.51
192.72	1286.12
192.94	1273.84
193.16	1263.60
193.38	1273.84
193.60	1232.88
193.82	1210.35
194.04	1298.41
194.26	1247.21
194.48	1273.84
194.70	1234.93
194.92	1331.18
195.14	1271.79
195.36	1165.29
195.58	1271.79
195.80	1247.21
196.02	1329.13
196.24	1243.12
196.46	1257.45
196.69	1228.78
196.91	1288.17
197.13	1224.69
197.35	1282.03
197.57	1255.40
197.79	1310.70
198.01	1257.45
198.23	1296.36
198.45	1339.37
198.67	1310.70
198.89	1226.73
199.11	1230.83
199.33	1257.45
199.55	1286.12
199.77	1218.54
199.99	1236.97
200.21	1206.25
200.43	1286.12
200.65	1230.83
200.87	1251.31
201.09	1247.21
201.31	1302.51
201.53	1232.88
201.75	1249.26
201.97	1259.50
202.19	1279.98
202.41	1220.59
202.63	1218.54
202.85	1314.80
203.07	1294.32
203.29	1275.88
203.51	1288.17
203.73	1306.60
203.95	1241.07
204.17	1267.69
204.39	1288.17
204.61	1210.35
204.83	1294.32
205.05	1259.50
205.27	1314.80
205.49	1257.45
205.71	1165.29
205.93	1277.93
206.15	1286.12
206.37	1251.31
206.59	1302.51
206.81	1290.22
207.03	1263.60
207.25	1318.89
207.47	1312.75
207.69	1312.75
207.91	1279.98
208.13	1325.04
208.34	1284.08
208.56	1245.16
208.78	1187.82
209.00	1255.40
209.22	1308.65
209.44	1206.25
209.66	1312.75
209.88	1302.51
210.10	1296.36
210.32	1210.35
210.54	1325.04
210.76	1232.88
210.98	1263.60
211.20	1288.17
211.42	1306.60
211.64	1222.64
211.86	1368.04
212.08	1275.88
212.30	1316.84
212.52	1273.84
212.74	1253.36
212.96	1251.31
213.17	1261.55
213.39	1214.45
213.61	1189.87
213.83	1335.28
214.05	1230.83
214.27	1239.02
214.49	1279.98
214.71	1239.02
214.93	1294.32
215.15	1247.21
215.37	1337.32
215.59	1267.69
215.81	1230.83
216.03	1263.60
216.24	1290.22
216.46	1228.78
216.68	1224.69
216.90	1267.69
217.12	1239.02
217.34	1286.12
217.56	1271.79
217.78	1269.74
218.00	1294.32
218.22	1212.40
218.44	1257.45
218.66	1306.60
218.87	1322.99
219.09	1234.93
219.31	1325.04
219.53	1257.45
219.75	1263.60
219.97	1253.36
220.19	1316.84
220.41	1261.55
220.63	1259.50
220.85	1208.30
221.06	1193.97
221.28	1179.63
221.50	1259.50
221.72	1255.40
221.94	1241.07
222.16	1191.92
222.38	1247.21
222.60	1310.70
222.82	1271.79
223.03	1232.88
223.25	1271.79
223.47	1284.08
223.69	1337.32
223.91	1288.17
224.13	1257.45
224.35	1202.16
224.57	1314.80
224.78	1294.32
225.00	1271.79
225.22	1269.74
225.44	1300.46
225.66	1232.88
225.88	1306.60
226.10	1288.17
226.32	1271.79
226.53	1302.51
226.75	1259.50
226.97	1247.21
227.19	1308.65
227.41	1304.56
227.63	1282.03
227.85	1239.02
228.06	1241.07
228.28	1298.41
228.50	1267.69
228.72	1255.40
228.94	1273.84
229.16	1269.74
229.37	1230.83
229.59	1230.83
229.81	1230.83
230.03	1228.78
230.25	1222.64
230.47	1239.02
230.69	1249.26
230.90	1353.71
231.12	1269.74
231.34	1204.21
231.56	1267.69
231.78	1216.49
232.00	1175.53
232.21	1279.98
232.43	1271.79
232.65	1226.73
232.87	1279.98
233.09	1187.82
233.30	1290.22
233.52	1284.08
233.74	1296.36
233.96	1261.55
234.18	1370.09
234.40	1259.50
234.61	1243.12
234.83	1298.41
235.05	1308.65
235.27	1290.22
235.49	1277.93
235.70	1253.36
235.92	1337.32
236.14	1253.36
236.36	1310.70
236.58	1271.79
236.79	1292.27
237.01	1220.59
237.23	1275.88
237.45	1306.60
237.67	1282.03
237.88	1265.64
238.10	1236.97
238.32	1290.22
238.54	1306.60
238.76	1236.97
238.97	1255.40
239.19	1361.90
239.41	1212.40
239.63	1290.22
239.85	1259.50
240.06	1279.98
240.28	1282.03
240.50	1257.45
240.72	1294.32
240.93	1273.84
241.15	1320.94
241.37	1255.40
241.59	1282.03
241.81	1216.49
242.02	1273.84
242.24	1263.60
242.46	1247.21
242.68	1265.64
242.89	1230.83
243.11	1273.84
243.33	1243.12
243.55	1279.98
243.76	1261.55
243.98	1243.12
244.20	1261.55
244.42	1249.26
244.64	1253.36
244.85	1236.97
245.07	1288.17
245.29	1236.97
245.51	1316.84
245.72	1279.98
245.94	1302.51
246.16	1214.45
246.38	1212.40
246.59	1247.21
246.81	1202.16
247.03	1196.01
247.24	1286.12
247.46	1304.56
247.68	1286.12
247.90	1259.50
248.11	1230.83
248.33	1304.56
248.55	1228.78
248.77	1255.40
248.98	1271.79
249.20	1304.56
249.42	1271.79
249.64	1265.64
249.85	1302.51
250.07	1279.98
250.29	1288.17
250.50	1298.41
250.72	1304.56
250.94	1284.08
251.16	1251.31
251.37	1282.03
251.59	1347.56
251.81	1277.93
252.02	1279.98
252.24	1302.51
252.46	1322.99
252.68	1255.40
252.89	1255.40
253.11	1236.97
253.33	1208.30
253.54	1224.69
253.76	1222.64
253.98	1312.75
254.20	1263.60
254.41	1253.36
254.63	1257.45
254.85	1230.83
255.06	1284.08
255.28	1257.45
255.50	1357.80
255.71	1273.84
255.93	1218.54
256.15	1288.17
256.36	1261.55
256.58	1322.99
256.80	1230.83
257.02	1257.45
257.23	1320.94
257.45	1247.21
257.67	1241.07
257.88	1275.88
258.10	1234.93
258.32	1296.36
258.53	1271.79
258.75	1255.40
258.97	1241.07
259.18	1282.03
259.40	1335.28
259.62	1236.97
259.83	1331.18
260.05	1253.36
260.27	1277.93
260.48	1255.40
260.70	1292.27
260.92	1320.94
261.13	1263.60
261.35	1239.02
261.57	1218.54
261.78	1253.36
262.00	1322.99
262.22	1216.49
262.43	1228.78
262.65	1275.88
262.86	1230.83
263.08	1290.22
263.30	1292.27
263.51	1245.16
263.73	1226.73
263.95	1257.45
264.16	1265.64
264.38	1290.22
264.60	1259.50
264.81	1251.31
265.03	1300.46
265.25	1314.80
265.46	1279.98
265.68	1282.03
265.89	1275.88
266.11	1288.17
266.33	1290.22
266.54	1302.51
266.76	1249.26
266.98	1265.64
267.19	1306.60
267.41	1275.88
267.62	1228.78
267.84	1267.69
268.06	1298.41
268.27	1292.27
268.49	1271.79
268.70	1255.40
268.92	1263.60
269.14	1271.79
269.35	1224.69
269.57	1320.94
269.79	1279.98
270.00	1269.74
270.22	1282.03
270.43	1222.64
270.65	1216.49
270.87	1300.46
271.08	1202.16
271.30	1232.88
271.51	1308.65
271.73	1220.59
271.95	1191.92
272.16	1220.59
272.38	1368.04
272.59	1255.40
272.81	1298.41
273.02	1269.74
273.24	1257.45
273.46	1259.50
273.67	1282.03
273.89	1224.69
274.10	1198.06
274.32	1294.32
274.54	1230.83
274.75	1290.22
274.97	1261.55
275.18	1255.40
275.40	1298.41
275.61	1263.60
275.83	1288.17
276.05	1249.26
276.26	1251.31
276.48	1263.60
276.69	1282.03
276.91	1247.21
277.12	1214.45
277.34	1214.45
277.55	1255.40
277.77	1263.60
277.99	1263.60
278.20	1249.26
278.42	1306.60
278.63	1259.50
278.85	1271.79
279.06	1243.12
279.28	1234.93
279.49	1306.60
279.71	1286.12
279.93	1253.36
280.14	1306.60
280.36	1222.64
280.57	1331.18
280.79	1277.93
281.00	1253.36
281.22	1306.60
281.43	1292.27
281.65	1226.73
281.86	1277.93
282.08	1273.84
282.29	1245.16
282.51	1236.97
282.73	1216.49
282.94	1275.88
283.16	1275.88
283.37	1271.79
283.59	1282.03
283.80	1263.60
284.02	1302.51
284.23	1232.88
284.45	1249.26
284.66	1224.69
284.88	1288.17
285.09	1284.08
285.31	1263.60
285.52	1294.32
285.74	1191.92
285.95	1288.17
286.17	1206.25
286.38	1241.07
286.60	1286.12
286.81	1302.51
287.03	1284.08
287.24	1269.74
287.46	1263.60
287.67	1304.56
287.89	1288.17
288.10	1251.31
288.32	1322.99
288.53	1288.17
288.75	1259.50
288.96	1132.53
289.18	1282.03
289.39	1255.40
289.61	1214.45
289.82	1226.73
290.04	1294.32
290.25	1298.41
290.47	1249.26
290.68	1277.93
290.90	1253.36
291.11	1337.32
291.33	1282.03
291.54	1302.51
291.76	1257.45
291.97	1261.55
292.18	1296.36
292.40	1183.73
292.61	1226.73
292.83	1279.98
293.04	1310.70
293.26	1284.08
293.47	1234.93
293.69	1308.65
293.90	1271.79
294.12	1265.64
294.33	1239.02
294.55	1314.80
294.76	1294.32
294.97	1257.45
295.19	1255.40
295.40	1245.16
295.62	1255.40
295.83	1288.17
296.05	1214.45
296.26	1241.07
296.48	1226.73
296.69	1253.36
296.90	1222.64
297.12	1339.37
297.33	1271.79
297.55	1304.56
297.76	1234.93
297.98	1257.45
298.19	1322.99
298.41	1282.03
298.62	1337.32
298.83	1259.50
299.05	1259.50
299.26	1230.83
299.48	1228.78
299.69	1316.84
299.90	1306.60
300.12	1232.88
300.33	1282.03
300.55	1253.36
300.76	1255.40
300.98	1226.73
301.19	1249.26
301.40	1331.18
301.62	1269.74
301.83	1300.46
302.05	1255.40
302.26	1265.64
302.47	1327.08
302.69	1236.97
302.90	1234.93
303.12	1292.27
303.33	1306.60
303.54	1279.98
303.76	1224.69
303.97	1181.68
304.19	1312.75
304.40	1310.70
304.61	1204.21
304.83	1298.41
305.04	1269.74
305.26	1241.07
305.47	1245.16
305.68	1269.74
305.90	1257.45
306.11	1261.55
306.33	1257.45
306.54	1320.94
306.75	1222.64
306.97	1251.31
307.18	1239.02
307.39	1247.21
307.61	1290.22
307.82	1236.97
308.04	1296.36
308.25	1236.97
308.46	1255.40
308.68	1261.55
308.89	1310.70
309.10	1218.54
309.32	1257.45
309.53	1253.36
309.74	1214.45
309.96	1245.16
310.17	1243.12
310.39	1251.31
310.60	1271.79
310.81	1267.69
311.03	1210.35
311.24	1255.40
311.45	1290.22
311.67	1224.69
311.88	1206.25
312.09	1290.22
312.31	1284.08
312.52	1269.74
312.73	1284.08
312.95	1204.21
313.16	1306.60
313.37	1306.60
313.59	1294.32
313.80	1216.49
314.01	1241.07
314.23	1220.59
314.44	1208.30
314.65	1245.16
314.87	1253.36
315.08	1253.36
315.29	1335.28
315.51	1257.45
315.72	1267.69
315.93	1372.14
316.15	1220.59
316.36	1277.93
316.57	1232.88
316.79	1282.03
317.00	1300.46
317.21	1253.36
317.43	1228.78
317.64	1257.45
317.85	1290.22
318.07	1198.06
318.28	1245.16
318.49	1214.45
318.70	1267.69
318.92	1284.08
319.13	1273.84
319.34	1310.70
319.56	1232.88
319.77	1316.84
319.98	1304.56
320.20	1275.88
320.41	1271.79
320.62	1257.45
320.83	1273.84
321.05	1257.45
321.26	1259.50
321.47	1298.41
321.69	1239.02
321.90	1318.89
322.11	1292.27
322.32	1271.79
322.54	1275.88
322.75	1282.03
322.96	1318.89
323.18	1249.26
323.39	1224.69
323.60	1288.17
323.81	1251.31
324.03	1222.64
324.24	1318.89
324.45	1286.12
324.66	1273.84
324.88	1224.69
325.09	1298.41
325.30	1255.40
325.52	1247.21
325.73	1277.93
325.94	1277.93
326.15	1261.55
326.37	1249.26
326.58	1265.64
326.79	1318.89
327.00	1214.45
327.22	1257.45
327.43	1302.51
327.64	1257.45
327.85	1247.21
328.07	1282.03
328.28	1239.02
328.49	1353.71
328.70	1253.36
328.92	1257.45
329.13	1322.99
329.34	1288.17
329.55	1286.12
329.76	1261.55
329.98	1286.12
330.19	1306.60
330.40	1294.32
330.61	1241.07
330.83	1282.03
331.04	1230.83
331.25	1300.46
331.46	1230.83
331.68	1216.49
331.89	1353.71
332.10	1286.12
332.31	1282.03
332.52	1241.07
332.74	1200.11
332.95	1247.21
333.16	1234.93
333.37	1193.97
333.58	1294.32
333.80	1253.36
334.01	1253.36
334.22	1257.45
334.43	1208.30
334.64	1249.26
334.86	1189.87
335.07	1228.78
335.28	1245.16
335.49	1218.54
335.70	1310.70
335.92	1222.64
336.13	1380.33
336.34	1284.08
336.55	1245.16
336.76	1294.32
336.98	1165.29
337.19	1236.97
337.40	1286.12
337.61	1216.49
337.82	1239.02
338.04	1245.16
338.25	1304.56
338.46	1261.55
338.67	1271.79
338.88	1269.74
339.09	1232.88
339.31	1210.35
339.52	1226.73
339.73	1228.78
339.94	1343.47
340.15	1173.49
340.36	1206.25
340.58	1239.02
340.79	1224.69
341.00	1316.84
341.21	1279.98
341.42	1267.69
341.63	1329.13
341.85	1247.21
342.06	1228.78
342.27	1216.49
342.48	1214.45
342.69	1267.69
342.90	1296.36
343.12	1294.32
343.33	1302.51
343.54	1288.17
343.75	1275.88
343.96	1224.69
344.17	1232.88
344.38	1282.03
344.60	1230.83
344.81	1284.08
345.02	1343.47
345.23	1279.98
345.44	1300.46
345.65	1269.74
345.86	1282.03
346.07	1277.93
346.29	1288.17
346.50	1220.59
346.71	1232.88
346.92	1314.80
347.13	1279.98
347.34	1226.73
347.55	1259.50
347.76	1261.55
347.98	1226.73
348.19	1243.12
348.40	1279.98
348.61	1259.50
348.82	1249.26
349.03	1247.21
349.24	1306.60
349.45	1277.93
349.66	1236.97
349.88	1216.49
350.09	1249.26
350.30	1286.12
350.51	1189.87
350.72	1294.32
350.93	1267.69
351.14	1236.97
351.35	1292.27
351.56	1259.50
351.77	1206.25
351.99	1245.16
352.20	1257.45
352.41	1306.60
352.62	1265.64
352.83	1298.41
353.04	1187.82
353.25	1212.40
353.46	1255.40
353.67	1259.50
353.88	1277.93
354.09	1263.60
354.30	1191.92
354.52	1277.93
354.73	1271.79
354.94	1267.69
355.15	1239.02
355.36	1312.75
355.57	1271.79
355.78	1341.42
355.99	1302.51
356.20	1177.58
356.41	1304.56
356.62	1279.98
356.83	1251.31
357.04	1245.16
357.25	1249.26
357.46	1282.03
357.68	1253.36
357.89	1314.80
358.10	1269.74
358.31	1253.36
358.52	1308.65
358.73	1263.60
358.94	1312.75
359.15	1273.84
359.36	1306.60
359.57	1296.36
359.78	1292.27
359.99	1251.31
360.20	1245.16
360.41	1234.93
360.62	1267.69
360.83	1282.03
361.04	1306.60
361.25	1259.50
361.46	1251.31
361.67	1351.66
361.88	1263.60
362.09	1282.03
362.30	1284.08
362.51	1314.80
362.72	1355.76
362.93	1310.70
363.14	1288.17
363.35	1249.26
363.56	1232.88
363.78	1239.02
363.99	1290.22
364.20	1331.18
364.41	1288.17
364.62	1290.22
364.83	1277.93
365.04	1212.40
365.25	1355.76
365.46	1261.55
365.67	1290.22
365.88	1290.22
366.09	1322.99
366.30	1296.36
366.51	1241.07
366.72	1212.40
366.93	1189.87
367.14	1249.26
367.35	1282.03
367.56	1306.60
367.77	1263.60
367.98	1247.21
368.18	1275.88
368.39	1161.20
368.60	1282.03
368.81	1306.60
369.02	1304.56
369.23	1300.46
369.44	1298.41
369.65	1322.99
369.86	1347.56
370.07	1322.99
370.28	1249.26
370.49	1247.21
370.70	1257.45
370.91	1300.46
371.12	1257.45
371.33	1257.45
371.54	1202.16
371.75	1243.12
371.96	1251.31
372.17	1265.64
372.38	1296.36
372.59	1359.85
372.80	1261.55
373.01	1282.03
373.22	1259.50
373.43	1318.89
373.64	1320.94
373.85	1320.94
374.06	1206.25
374.26	1230.83
374.47	1337.32
374.68	1214.45
374.89	1279.98
375.10	1216.49
375.31	1322.99
375.52	1222.64
375.73	1261.55
375.94	1214.45
376.15	1183.73
376.36	1259.50
376.57	1218.54
376.78	1265.64
376.99	1318.89
377.20	1302.51
377.40	1255.40
377.61	1239.02
377.82	1288.17
378.03	1271.79
378.24	1288.17
378.45	1310.70
378.66	1341.42
378.87	1259.50
379.08	1228.78
379.29	1228.78
379.50	1241.07
379.71	1236.97
379.91	1282.03
380.12	1275.88
380.33	1271.79
380.54	1234.93
380.75	1267.69
380.96	1257.45
381.17	1392.62
381.38	1312.75
381.59	1224.69
381.80	1247.21
382.00	1247.21
382.21	1306.60
382.42	1296.36
382.63	1359.85
382.84	1218.54
383.05	1257.45
383.26	1267.69
383.47	1294.32
383.68	1189.87
383.88	1206.25
384.09	1314.80
384.30	1294.32
384.51	1351.66
384.72	1302.51
384.93	1200.11
385.14	1318.89
385.35	1259.50
385.55	1259.50
385.76	1196.01
385.97	1234.93
386.18	1228.78
386.39	1302.51
386.60	1288.17
386.81	1224.69
387.02	1306.60
387.22	1259.50
387.43	1308.65
387.64	1236.97
387.85	1329.13
388.06	1288.17
388.27	1273.84
388.48	1187.82
388.68	1273.84
388.89	1269.74
389.10	1261.55
389.31	1243.12
389.52	1259.50
389.73	1294.32
389.93	1253.36
390.14	1294.32
390.35	1300.46
390.56	1286.12
390.77	1290.22
390.98	1261.55
391.18	1304.56
391.39	1265.64
391.60	1382.38
391.81	1320.94
392.02	1228.78
392.23	1296.36
392.43	1271.79
392.64	1294.32
392.85	1230.83
393.06	1275.88
393.27	1290.22
393.47	1243.12
393.68	1243.12
393.89	1284.08
394.10	1247.21
394.31	1222.64
394.52	1245.16
394.72	1290.22
394.93	1314.80
395.14	1263.60
395.35	1288.17
395.56	1249.26
395.76	1300.46
395.97	1318.89
396.18	1277.93
396.39	1226.73
396.60	1300.46
396.80	1200.11
397.01	1257.45
397.22	1304.56
397.43	1271.79
397.64	1300.46
397.84	1353.71
398.05	1273.84
398.26	1245.16
398.47	1286.12
398.67	1241.07
398.88	1269.74
399.09	1355.76
399.30	1204.21
399.51	1347.56
399.71	1286.12
399.92	1304.56
400.13	1257.45
400.34	1224.69
400.54	1236.97
400.75	1314.80
400.96	1253.36
401.17	1247.21
401.37	1304.56
401.58	1288.17
401.79	1275.88
402.00	1312.75
402.21	1273.84
402.41	1273.84
402.62	1269.74
402.83	1263.60
403.04	1322.99
403.24	1261.55
403.45	1222.64
403.66	1236.97
403.87	1265.64
404.07	1290.22
404.28	1224.69
404.49	1216.49
404.70	1277.93
404.90	1279.98
405.11	1243.12
405.32	1204.21
405.52	1290.22
405.73	1224.69
405.94	1245.16
406.15	1267.69
406.35	1220.59
406.56	1290.22
406.77	1288.17
406.98	1339.37
407.18	1267.69
407.39	1325.04
407.60	1290.22
407.80	1282.03
408.01	1263.60
408.22	1241.07
408.43	1306.60
408.63	1259.50
408.84	1189.87
409.05	1271.79
409.25	1243.12
409.46	1226.73
409.67	1277.93
409.88	1284.08
410.08	1253.36
410.29	1224.69
410.50	1337.32
410.70	1271.79
410.91	1234.93
411.12	1239.02
411.32	1216.49
411.53	1257.45
411.74	1249.26
411.95	1224.69
412.15	1216.49
412.36	1245.16
412.57	1273.84
412.77	1271.79
412.98	1220.59
413.19	1320.94
413.39	1255.40
413.60	1261.55
413.81	1243.12
414.01	1224.69
414.22	1310.70
414.43	1245.16
414.63	1343.47
414.84	1204.21
415.05	1253.36
415.25	1232.88
415.46	1208.30
415.67	1230.83
415.87	1273.84
416.08	1267.69
416.29	1210.35
416.49	1288.17
416.70	1296.36
416.91	1212.40
417.11	1284.08
417.32	1294.32
417.53	1275.88
417.73	1241.07
417.94	1302.51
418.15	1277.93
418.35	1243.12
418.56	1212.40
418.77	1251.31
418.97	1251.31
419.18	1282.03
419.38	1290.22
419.59	1355.76
419.80	1263.60
420.00	1337.32
420.21	1279.98
420.42	1259.50
420.62	1249.26
420.83	1282.03
421.04	1267.69
421.24	1214.45
421.45	1290.22
421.65	1253.36
421.86	1232.88
422.07	1390.57
422.27	1302.51
422.48	1269.74
422.69	1290.22
422.89	1257.45
423.10	1284.08
423.30	1269.74
423.51	1245.16
423.72	1243.12
423.92	1271.79
424.13	1265.64
424.33	1198.06
424.54	1255.40
424.75	1198.06
424.95	1241.07
425.16	1304.56
425.36	1304.56
425.57	1249.26
425.78	1255.40
425.98	1282.03
426.19	1245.16
426.39	1294.32
426.60	1302.51
426.81	1308.65
427.01	1255.40
427.22	1253.36
427.42	1277.93
427.63	1312.75
427.83	1261.55
428.04	1265.64
428.25	1267.69
428.45	1279.98
428.66	1236.97
428.86	1263.60
429.07	1306.60
429.28	1282.03
429.48	1243.12
429.69	1300.46
429.89	1224.69
430.10	1290.22
430.30	1267.69
430.51	1257.45
430.71	1316.84
430.92	1308.65
431.13	1341.42
431.33	1267.69
431.54	1257.45
431.74	1257.45
431.95	1300.46
432.15	1183.73
432.36	1253.36
432.56	1257.45
432.77	1265.64
432.98	1263.60
433.18	1222.64
433.39	1247.21
433.59	1259.50
433.80	1265.64
434.00	1290.22
434.21	1275.88
434.41	1265.64
434.62	1269.74
434.82	1232.88
435.03	1224.69
435.23	1245.16
435.44	1349.61
435.64	1230.83
435.85	1236.97
436.06	1269.74
436.26	1228.78
436.47	1292.27
436.67	1267.69
436.88	1292.27
437.08	1230.83
437.29	1333.23
437.49	1302.51
437.70	1279.98
437.90	1239.02
438.11	1243.12
438.31	1269.74
438.52	1284.08
438.72	1300.46
438.93	1187.82
439.13	1263.60
439.34	1269.74
439.54	1239.02
439.75	1275.88
439.95	1298.41
440.16	1263.60
440.36	1257.45
440.57	1275.88
440.77	1261.55
440.98	1284.08
441.18	1269.74
441.39	1257.45
441.59	1290.22
441.80	1247.21
442.00	1306.60
442.21	1277.93
442.41	1247.21
442.62	1331.18
442.82	1271.79
443.02	1241.07
443.23	1251.31
443.43	1265.64
443.64	1273.84
443.84	1286.12
444.05	1263.60
444.25	1249.26
444.46	1269.74
444.66	1322.99
444.87	1314.80
445.07	1382.38
445.28	1265.64
445.48	1284.08
445.69	1277.93
445.89	1298.41
446.09	1345.52
446.30	1275.88
446.50	1208.30
446.71	1228.78
446.91	1224.69
447.12	1288.17
447.32	1318.89
447.53	1200.11
447.73	1212.40
447.93	1277.93
448.14	1247.21
448.34	1302.51
448.55	1300.46
448.75	1232.88
448.96	1300.46
449.16	1239.02
449.36	1210.35
449.57	1331.18
449.77	1329.13
449.98	1200.11
450.18	1333.23
450.39	1286.12
450.59	1277.93
450.79	1333.23
451.00	1318.89
451.20	1265.64
451.41	1236.97
451.61	1325.04
451.81	1245.16
452.02	1241.07
452.22	1265.64
452.43	1247.21
452.63	1232.88
452.84	1214.45
453.04	1277.93
453.24	1265.64
453.45	1310.70
453.65	1271.79
453.86	1304.56
454.06	1320.94
454.26	1263.60
454.47	1257.45
454.67	1298.41
454.87	1253.36
455.08	1310.70
455.28	1304.56
455.49	1265.64
455.69	1230.83
455.89	1245.16
456.10	1282.03
456.30	1286.12
456.51	1298.41
456.71	1312.75
456.91	1267.69
457.12	1267.69
457.32	1220.59
457.52	1222.64
457.73	1277.93
457.93	1257.45
458.14	1286.12
458.34	1257.45
458.54	1318.89
458.75	1179.63
458.95	1200.11
459.15	1359.85
459.36	1216.49
459.56	1253.36
459.76	1314.80
459.97	1279.98
460.17	1185.77
460.37	1265.64
460.58	1298.41
460.78	1261.55
460.99	1273.84
461.19	1271.79
461.39	1243.12
461.60	1230.83
461.80	1255.40
462.00	1290.22
462.21	1273.84
462.41	1257.45
462.61	1271.79
462.82	1257.45
463.02	1292.27
463.22	1288.17
463.43	1290.22
463.63	1255.40
463.83	1288.17
464.04	1214.45
464.24	1282.03
464.44	1241.07
464.64	1265.64
464.85	1327.08
465.05	1261.55
465.25	1310.70
465.46	1267.69
465.66	1273.84
465.86	1273.84
466.07	1306.60
466.27	1318.89
466.47	1322.99
466.68	1327.08
466.88	1216.49
467.08	1277.93
467.29	1236.97
467.49	1191.92
467.69	1304.56
467.89	1298.41
468.10	1185.77
468.30	1269.74
468.50	1265.64
468.71	1269.74
468.91	1329.13
469.11	1228.78
469.31	1228.78
469.52	1204.21
469.72	1300.46
469.92	1284.08
470.13	1314.80
470.33	1304.56
470.53	1290.22
470.73	1308.65
470.94	1265.64
471.14	1247.21
471.34	1292.27
471.54	1288.17
471.75	1302.51
471.95	1288.17
472.15	1314.80
472.36	1282.03
472.56	1226.73
472.76	1333.23
472.96	1265.64
473.17	1234.93
473.37	1351.66
473.57	1257.45
473.77	1292.27
473.98	1279.98
474.18	1191.92
474.38	1286.12
474.58	1263.60
474.79	1298.41
474.99	1277.93
475.19	1271.79
475.39	1214.45
475.60	1259.50
475.80	1277.93
476.00	1228.78
476.20	1251.31
476.41	1279.98
476.61	1271.79
476.81	1357.80
477.01	1269.74
477.21	1255.40
477.42	1253.36
477.62	1218.54
477.82	1277.93
478.02	1304.56
478.23	1269.74
478.43	1257.45
478.63	1271.79
478.83	1261.55
479.03	1290.22
479.24	1187.82
479.44	1263.60
479.64	1214.45
479.84	1296.36
480.04	1265.64
480.25	1322.99
480.45	1220.59
480.65	1208.30
480.85	1159.15
481.06	1333.23
481.26	1247.21
481.46	1236.97
481.66	1304.56
481.86	1296.36
482.06	1206.25
482.27	1347.56
482.47	1267.69
482.67	1241.07
482.87	1255.40
483.07	1259.50
483.28	1236.97
483.48	1359.85
483.68	1337.32
483.88	1294.32
484.08	1288.17
484.29	1304.56
484.49	1279.98
484.69	1265.64
484.89	1234.93
485.09	1224.69
485.29	1222.64
485.50	1255.40
485.70	1273.84
485.90	1255.40
486.10	1249.26
486.30	1284.08
486.50	1279.98
486.71	1263.60
486.91	1218.54
487.11	1312.75
487.31	1193.97
487.51	1345.52
487.71	1314.80
487.91	1255.40
488.12	1279.98
488.32	1236.97
488.52	1236.97
488.72	1306.60
488.92	1216.49
489.12	1251.31
489.32	1257.45
489.53	1236.97
489.73	1329.13
489.93	1304.56
490.13	1259.50
490.33	1228.78
490.53	1271.79
490.73	1314.80
490.94	1273.84
491.14	1273.84
491.34	1253.36
491.54	1255.40
491.74	1247.21
491.94	1269.74
492.14	1306.60
492.34	1415.15
492.54	1243.12
492.75	1271.79
492.95	1204.21
493.15	1271.79
493.35	1191.92
493.55	1263.60
493.75	1236.97
493.95	1325.04
494.15	1298.41
494.35	1308.65
494.56	1273.84
494.76	1310.70
494.96	1294.32
495.16	1247.21
495.36	1275.88
495.56	1306.60
495.76	1234.93
495.96	1335.28
496.16	1226.73
496.36	1247.21
496.56	1255.40
496.77	1282.03
496.97	1282.03
497.17	1298.41
497.37	1261.55
497.57	1228.78
497.77	1230.83
497.97	1370.09
498.17	1355.76
498.37	1284.08
498.57	1363.95
498.77	1222.64
498.97	1306.60
499.17	1275.88
499.38	1275.88
499.58	1239.02
499.78	1265.64
499.98	1288.17
500.18	1253.36
500.38	1298.41
500.58	1236.97
500.78	1288.17
500.98	1294.32
501.18	1245.16
501.38	1241.07
501.58	1343.47
501.78	1245.16
501.98	1308.65
502.18	1290.22
502.38	1279.98
502.58	1298.41
502.78	1277.93
502.98	1273.84
503.18	1298.41
503.38	1279.98
503.59	1279.98
503.79	1294.32
503.99	1257.45
504.19	1249.26
504.39	1232.88
504.59	1249.26
504.79	1347.56
504.99	1257.45
505.19	1286.12
505.39	1261.55
505.59	1296.36
505.79	1288.17
505.99	1275.88
506.19	1316.84
506.39	1388.52
506.59	1345.52
506.79	1275.88
506.99	1259.50
507.19	1298.41
507.39	1314.80
507.59	1198.06
507.79	1294.32
507.99	1304.56
508.19	1273.84
508.39	1263.60
508.59	1288.17
508.79	1292.27
508.99	1290.22
509.19	1273.84
509.39	1277.93
509.59	1273.84
509.79	1216.49
509.99	1261.55
510.19	1277.93
510.39	1316.84
510.59	1271.79
510.79	1259.50
510.99	1288.17
511.19	1277.93
511.39	1279.98
511.59	1251.31
511.79	1325.04
511.99	1347.56
512.19	1249.26
512.38	1277.93
512.58	1251.31
512.78	1267.69
512.98	1261.55
513.18	1271.79
513.38	1249.26
513.58	1271.79
513.78	1269.74
513.98	1232.88
514.18	1279.98
514.38	1249.26
514.58	1243.12
514.78	1290.22
514.98	1232.88
515.18	1325.04
515.38	1230.83
515.58	1304.56
515.78	1288.17
515.98	1290.22
516.18	1306.60
516.38	1239.02
516.57	1308.65
516.77	1298.41
516.97	1247.21
517.17	1300.46
517.37	1302.51
517.57	1236.97
517.77	1275.88
517.97	1234.93
518.17	1159.15
518.37	1304.56
518.57	1304.56
518.77	1339.37
518.97	1277.93
519.16	1325.04
519.36	1310.70
519.56	1261.55
519.76	1234.93
519.96	1269.74
520.16	1284.08
520.36	1263.60
520.56	1230.83
520.76	1288.17
520.96	1267.69
521.16	1331.18
521.35	1316.84
521.55	1298.41
521.75	1310.70
521.95	1271.79
522.15	1310.70
522.35	1189.87
522.55	1214.45
522.75	1290.22
522.95	1286.12
523.14	1314.80
523.34	1284.08
523.54	1271.79
523.74	1333.23
523.94	1277.93
524.14	1257.45
524.34	1347.56
524.54	1239.02
524.73	1347.56
524.93	1277.93
525.13	1259.50
525.33	1282.03
525.53	1320.94
525.73	1259.50
525.93	1290.22
526.13	1333.23
526.32	1349.61
526.52	1269.74
526.72	1232.88
526.92	1261.55
527.12	1216.49
527.32	1290.22
527.52	1273.84
527.71	1224.69
527.91	1269.74
528.11	1206.25
528.31	1241.07
528.51	1304.56
528.71	1282.03
528.90	1257.45
529.10	1286.12
529.30	1320.94
529.50	1294.32
529.70	1267.69
529.90	1230.83
530.09	1298.41
530.29	1279.98
530.49	1302.51
530.69	1257.45
530.89	1253.36
531.09	1288.17
531.28	1253.36
531.48	1290.22
531.68	1279.98
531.88	1249.26
532.08	1279.98
532.28	1177.58
532.47	1234.93
532.67	1222.64
532.87	1312.75
533.07	1277.93
533.27	1196.01
533.46	1316.84
533.66	1251.31
533.86	1359.85
534.06	1241.07
534.26	1273.84
534.45	1234.93
534.65	1249.26
534.85	1282.03
535.05	1261.55
535.25	1277.93
535.44	1239.02
535.64	1220.59
535.84	1273.84
536.04	1335.28
536.24	1296.36
536.43	1193.97
536.63	1265.64
536.83	1230.83
537.03	1320.94
537.22	1216.49
537.42	1322.99
537.62	1263.60
537.82	1302.51
538.02	1232.88
538.21	1357.80
538.41	1273.84
538.61	1312.75
538.81	1318.89
539.00	1232.88
539.20	1316.84
539.40	1325.04
539.60	1296.36
539.79	1249.26
539.99	1267.69
540.19	1263.60
540.39	1263.60
540.58	1275.88
540.78	1279.98
540.98	1306.60
541.18	1286.12
541.37	1318.89
541.57	1325.04
541.77	1273.84
541.97	1236.97
542.16	1249.26
542.36	1271.79
542.56	1239.02
542.76	1294.32
542.95	1329.13
543.15	1210.35
543.35	1284.08
543.54	1241.07
543.74	1337.32
543.94	1271.79
544.14	1191.92
544.33	1253.36
544.53	1329.13
544.73	1286.12
544.93	1255.40
545.12	1273.84
545.32	1318.89
545.52	1282.03
545.71	1282.03
545.91	1214.45
546.11	1279.98
546.30	1259.50
546.50	1302.51
546.70	1271.79
546.90	1300.46
547.09	1290.22
547.29	1239.02
547.49	1310.70
547.68	1273.84
547.88	1318.89
548.08	1218.54
548.27	1343.47
548.47	1261.55
548.67	1271.79
548.87	1259.50
549.06	1292.27
549.26	1255.40
549.46	1202.16
549.65	1265.64
549.85	1304.56
550.05	1261.55
550.24	1333.23
550.44	1204.21
550.64	1286.12
550.83	1390.57
551.03	1175.53
551.23	1247.21
551.42	1241.07
551.62	1269.74
551.82	1261.55
552.01	1241.07
552.21	1290.22
552.41	1263.60
552.60	1304.56
552.80	1351.66
553.00	1333.23
553.19	1312.75
553.39	1277.93
553.59	1282.03
553.78	1224.69
553.98	1310.70
554.17	1296.36
554.37	1279.98
554.57	1329.13
554.76	1275.88
554.96	1257.45
555.16	1288.17
555.35	1302.51
555.55	1239.02
555.75	1288.17
555.94	1306.60
556.14	1325.04
556.33	1241.07
556.53	1218.54
556.73	1271.79
556.92	1308.65
557.12	1386.47
557.32	1320.94
557.51	1279.98
557.71	1322.99
557.90	1288.17
558.10	1318.89
558.30	1314.80
558.49	1259.50
558.69	1249.26
558.88	1257.45
559.08	1273.84
559.28	1316.84
559.47	1245.16
559.67	1273.84
559.86	1333.23
560.06	1230.83
560.26	1314.80
560.45	1261.55
560.65	1302.51
560.84	1296.36
561.04	1351.66
561.24	1273.84
561.43	1226.73
561.63	1236.97
561.82	1292.27
562.02	1273.84
562.22	1200.11
562.41	1277.93
562.61	1355.76
562.80	1292.27
563.00	1267.69
563.19	1316.84
563.39	1341.42
563.59	1288.17
563.78	1345.52
563.98	1249.26
564.17	1241.07
564.37	1282.03
564.56	1282.03
564.76	1320.94
564.96	1329.13
565.15	1322.99
565.35	1284.08
565.54	1228.78
565.74	1232.88
565.93	1322.99
566.13	1265.64
566.32	1247.21
566.52	1241.07
566.71	1296.36
566.91	1335.28
567.11	1292.27
567.30	1314.80
567.50	1333.23
567.69	1290.22
567.89	1277.93
568.08	1284.08
568.28	1335.28
568.47	1253.36
568.67	1247.21
568.86	1306.60
569.06	1279.98
569.25	1288.17
569.45	1296.36
569.64	1286.12
569.84	1273.84
570.04	1288.17
570.23	1210.35
570.43	1310.70
570.62	1335.28
570.82	1259.50
571.01	1232.88
571.21	1314.80
571.40	1331.18
571.60	1255.40
571.79	1222.64
571.99	1327.08
572.18	1273.84
572.38	1232.88
572.57	1212.40
572.77	1185.77
572.96	1312.75
573.16	1335.28
573.35	1226.73
573.55	1247.21
573.74	1304.56
573.94	1329.13
574.13	1312.75
574.33	1208.30
574.52	1347.56
574.71	1339.37
574.91	1232.88
575.10	1302.51
575.30	1257.45
575.49	1273.84
575.69	1249.26
575.88	1312.75
576.08	1226.73
576.27	1245.16
576.47	1286.12
576.66	1325.04
576.86	1271.79
577.05	1257.45
577.25	1374.19
577.44	1279.98
577.64	1296.36
577.83	1200.11
578.02	1236.97
578.22	1347.56
578.41	1218.54
578.61	1265.64
578.80	1275.88
579.00	1269.74
579.19	1308.65
579.39	1339.37
579.58	1282.03
579.77	1353.71
579.97	1275.88
580.16	1263.60
580.36	1337.32
580.55	1257.45
580.75	1302.51
580.94	1251.31
581.13	1308.65
581.33	1335.28
581.52	1333.23
581.72	1290.22
581.91	1269.74
582.11	1306.60
582.30	1259.50
582.49	1308.65
582.69	1304.56
582.88	1253.36
583.08	1230.83
583.27	1306.60
583.47	1304.56
583.66	1361.90
583.85	1196.01
584.05	1292.27
584.24	1320.94
584.44	1304.56
584.63	1316.84
584.82	1304.56
585.02	1273.84
585.21	1320.94
585.41	1284.08
585.60	1275.88
585.79	1404.91
585.99	1294.32
586.18	1218.54
586.37	1327.08
586.57	1298.41
586.76	1228.78
586.96	1290.22
587.15	1329.13
587.34	1275.88
587.54	1282.03
587.73	1290.22
587.93	1353.71
588.12	1232.88
588.31	1265.64
588.51	1255.40
588.70	1269.74
588.89	1210.35
589.09	1277.93
589.28	1265.64
589.47	1306.60
589.67	1337.32
589.86	1226.73
590.06	1253.36
590.25	1306.60
590.44	1294.32
590.64	1329.13
590.83	1259.50
591.02	1310.70
591.22	1277.93
591.41	1298.41
591.60	1269.74
591.80	1292.27
591.99	1284.08
592.18	1198.06
592.38	1349.61
592.57	1267.69
592.76	1308.65
592.96	1265.64
593.15	1241.07
593.34	1290.22
593.54	1277.93
593.73	1255.40
593.92	1202.16
594.12	1296.36
594.31	1277.93
594.50	1294.32
594.70	1249.26
594.89	1243.12
595.08	1304.56
595.28	1279.98
595.47	1259.50
595.66	1288.17
595.86	1333.23
596.05	1249.26
596.24	1224.69
596.43	1269.74
596.63	1363.95
596.82	1269.74
597.01	1265.64
597.21	1314.80
597.40	1312.75
597.59	1312.75
597.79	1288.17
597.98	1322.99
598.17	1286.12
598.36	1306.60
598.56	1306.60
598.75	1210.35
598.94	1292.27
599.14	1249.26
599.33	1306.60
599.52	1308.65
599.71	1333.23
599.91	1279.98
600.10	1296.36
600.29	1271.79
600.48	1314.80
600.68	1232.88
600.87	1310.70
601.06	1302.51
601.26	1288.17
601.45	1355.76
601.64	1337.32
601.83	1249.26
602.03	1243.12
602.22	1331.18
602.41	1277.93
602.60	1341.42
602.80	1253.36
602.99	1316.84
603.18	1353.71
603.37	1288.17
603.57	1355.76
603.76	1288.17
603.95	1251.31
604.14	1279.98
604.34	1236.97
604.53	1318.89
604.72	1337.32
604.91	1341.42
605.10	1302.51
605.30	1306.60
605.49	1261.55
605.68	1214.45
605.87	1255.40
606.07	1241.07
606.26	1218.54
606.45	1255.40
606.64	1273.84
606.84	1331.18
607.03	1292.27
607.22	1292.27
607.41	1273.84
607.60	1363.95
607.80	1239.02
607.99	1265.64
608.18	1271.79
608.37	1288.17
608.56	1284.08
608.76	1259.50
608.95	1245.16
609.14	1318.89
609.33	1253.36
609.52	1208.30
609.72	1253.36
609.91	1282.03
610.10	1257.45
610.29	1263.60
610.48	1335.28
610.68	1308.65
610.87	1322.99
611.06	1257.45
611.25	1288.17
611.44	1292.27
611.63	1302.51
611.83	1253.36
612.02	1302.51
612.21	1308.65
612.40	1218.54
612.59	1251.31
612.79	1220.59
612.98	1279.98
613.17	1325.04
613.36	1290.22
613.55	1304.56
613.74	1273.84
613.93	1282.03
614.13	1273.84
614.32	1263.60
614.51	1294.32
614.70	1273.84
614.89	1384.43
615.08	1234.93
615.28	1329.13
615.47	1322.99
615.66	1351.66
615.85	1310.70
616.04	1271.79
616.23	1349.61
616.42	1331.18
616.62	1333.23
616.81	1286.12
617.00	1226.73
617.19	1292.27
617.38	1290.22
617.57	1327.08
617.76	1298.41
617.95	1359.85
618.15	1294.32
618.34	1259.50
618.53	1269.74
618.72	1265.64
618.91	1224.69
619.10	1275.88
619.29	1220.59
619.48	1275.88
619.68	1261.55
619.87	1286.12
620.06	1265.64
620.25	1349.61
620.44	1241.07
620.63	1239.02
620.82	1290.22
621.01	1298.41
621.20	1300.46
621.39	1286.12
621.59	1304.56
621.78	1329.13
621.97	1320.94
622.16	1275.88
622.35	1236.97
622.54	1284.08
622.73	1263.60
622.92	1290.22
623.11	1230.83
623.30	1304.56
623.49	1273.84
623.68	1253.36
623.88	1269.74
624.07	1353.71
624.26	1241.07
624.45	1329.13
624.64	1306.60
624.83	1353.71
625.02	1370.09
625.21	1257.45
625.40	1269.74
625.59	1310.70
625.78	1300.46
625.97	1296.36
626.16	1337.32
626.35	1290.22
626.54	1296.36
626.74	1318.89
626.93	1277.93
627.12	1325.04
627.31	1361.90
627.50	1325.04
627.69	1331.18
627.88	1277.93
628.07	1255.40
628.26	1316.84
628.45	1306.60
628.64	1304.56
628.83	1286.12
629.02	1337.32
629.21	1282.03
629.40	1251.31
629.59	1282.03
629.78	1329.13
629.97	1302.51
630.16	1277.93
630.35	1363.95
630.54	1357.80
630.73	1355.76
630.92	1345.52
631.11	1341.42
631.30	1261.55
631.49	1333.23
631.68	1363.95
631.87	1480.68
632.06	1486.83
632.25	1406.95
632.44	1447.91
632.63	1499.11
632.82	1466.35
633.01	1419.24
633.20	1460.20
633.39	1474.54
633.58	1464.30
633.77	1495.02
633.96	1509.35
634.15	1472.49
634.34	1548.26
634.53	1406.95
634.72	1462.25
634.91	1462.25
635.10	1486.83
635.29	1495.02
635.48	1488.87
635.67	1511.40
635.86	1497.07
636.05	1501.16
636.24	1484.78
636.43	1497.07
636.62	1488.87
636.81	1460.20
637.00	1456.11
637.19	1435.63
637.38	1374.19
637.57	1382.38
637.76	1306.60
637.95	1347.56
638.14	1337.32
638.33	1327.08
638.52	1277.93
638.71	1279.98
638.89	1292.27
639.08	1236.97
639.27	1243.12
639.46	1331.18
639.65	1380.33
639.84	1277.93
640.03	1277.93
640.22	1228.78
640.41	1290.22
640.60	1275.88
640.79	1290.22
640.98	1245.16
641.17	1271.79
641.36	1277.93
641.55	1255.40
641.74	1253.36
641.92	1253.36
642.11	1255.40
642.30	1331.18
642.49	1296.36
642.68	1300.46
642.87	1347.56
643.06	1320.94
643.25	1200.11
643.44	1224.69
643.63	1290.22
643.82	1230.83
644.00	1327.08
644.19	1296.36
644.38	1269.74
644.57	1329.13
644.76	1322.99
644.95	1271.79
645.14	1271.79
645.33	1282.03
645.52	1279.98
645.71	1308.65
645.89	1298.41
646.08	1312.75
646.27	1247.21
646.46	1228.78
646.65	1267.69
646.84	1286.12
647.03	1308.65
647.22	1277.93
647.40	1251.31
647.59	1306.60
647.78	1339.37
647.97	1337.32
648.16	1259.50
648.35	1265.64
648.54	1247.21
648.73	1263.60
648.91	1286.12
649.10	1359.85
649.29	1296.36
649.48	1300.46
649.67	1337.32
649.86	1271.79
650.05	1308.65
650.23	1226.73
650.42	1191.92
650.61	1312.75
650.80	1271.79
650.99	1286.12
651.18	1249.26
651.36	1275.88
651.55	1279.98
651.74	1310.70
651.93	1222.64
652.12	1300.46
652.31	1322.99
652.49	1265.64
652.68	1282.03
652.87	1226.73
653.06	1294.32
653.25	1249.26
653.44	1290.22
653.62	1312.75
653.81	1236.97
654.00	1263.60
654.19	1288.17
654.38	1277.93
654.56	1310.70
654.75	1282.03
654.94	1275.88
655.13	1255.40
655.32	1279.98
655.51	1150.96
655.69	1273.84
655.88	1296.36
656.07	1310.70
656.26	1277.93
656.45	1277.93
656.63	1236.97
656.82	1265.64
657.01	1347.56
657.20	1239.02
657.38	1255.40
657.57	1255.40
657.76	1259.50
657.95	1200.11
658.14	1222.64
658.32	1312.75
658.51	1210.35
658.70	1322.99
658.89	1296.36
659.08	1275.88
659.26	1316.84
659.45	1228.78
659.64	1296.36
659.83	1200.11
660.01	1247.21
660.20	1273.84
660.39	1392.62
660.58	1206.25
660.76	1224.69
660.95	1245.16
661.14	1310.70
661.33	1284.08
661.51	1325.04
661.70	1312.75
661.89	1273.84
662.08	1318.89
662.26	1259.50
662.45	1318.89
662.64	1265.64
662.83	1325.04
663.01	1288.17
663.20	1277.93
663.39	1292.27
663.58	1259.50
663.76	1294.32
663.95	1255.40
664.14	1255.40
664.32	1146.86
664.51	1286.12
664.70	1232.88
664.89	1249.26
665.07	1277.93
665.26	1298.41
665.45	1216.49
665.64	1232.88
665.82	1263.60
666.01	1224.69
666.20	1165.29
666.38	1288.17
666.57	1298.41
666.76	1320.94
666.95	1269.74
667.13	1277.93
667.32	1312.75
667.51	1222.64
667.69	1320.94
667.88	1296.36
668.07	1286.12
668.25	1191.92
668.44	1263.60
668.63	1312.75
668.81	1236.97
669.00	1279.98
669.19	1204.21
669.38	1259.50
669.56	1306.60
669.75	1236.97
669.94	1269.74
670.12	1259.50
670.31	1191.92
670.50	1288.17
670.68	1296.36
670.87	1284.08
671.06	1318.89
671.24	1243.12
671.43	1243.12
671.62	1185.77
671.80	1220.59
671.99	1304.56
672.18	1296.36
672.36	1273.84
672.55	1292.27
672.74	1279.98
672.92	1368.04
673.11	1359.85
673.29	1290.22
673.48	1277.93
673.67	1255.40
673.85	1327.08
674.04	1185.77
674.23	1259.50
674.41	1312.75
674.60	1333.23
674.79	1286.12
674.97	1265.64
675.16	1259.50
675.34	1232.88
675.53	1279.98
675.72	1193.97
675.90	1271.79
676.09	1216.49
676.28	1284.08
676.46	1372.14
676.65	1294.32
676.83	1355.76
677.02	1302.51
677.21	1306.60
677.39	1232.88
677.58	1218.54
677.77	1284.08
677.95	1302.51
678.14	1222.64
678.32	1302.51
678.51	1298.41
678.70	1259.50
678.88	1288.17
679.07	1251.31
679.25	1290.22
679.44	1214.45
679.63	1277.93
679.81	1271.79
680.00	1292.27
680.18	1320.94
680.37	1220.59
680.55	1282.03
680.74	1255.40
680.93	1288.17
681.11	1261.55
681.30	1277.93
681.48	1236.97
681.67	1257.45
681.85	1230.83
682.04	1259.50
682.23	1318.89
682.41	1302.51
682.60	1298.41
682.78	1208.30
682.97	1257.45
683.15	1277.93
683.34	1308.65
683.53	1150.96
683.71	1265.64
683.90	1290.22
684.08	1261.55
684.27	1198.06
684.45	1202.16
684.64	1269.74
684.82	1239.02
685.01	1337.32
685.19	1257.45
685.38	1247.21
685.57	1300.46
685.75	1251.31
685.94	1284.08
686.12	1325.04
686.31	1314.80
686.49	1228.78
686.68	1191.92
686.86	1269.74
687.05	1220.59
687.23	1304.56
687.42	1275.88
687.60	1228.78
687.79	1261.55
687.97	1282.03
688.16	1267.69
688.34	1282.03
688.53	1220.59
688.71	1249.26
688.90	1239.02
689.08	1222.64
689.27	1261.55
689.45	1257.45
689.64	1208.30
689.82	1222.64
690.01	1273.84
690.19	1327.08
690.38	1224.69
690.56	1284.08
690.75	1282.03
690.93	1265.64
691.12	1273.84
691.30	1251.31
691.49	1310.70
691.67	1292.27
691.86	1288.17
692.04	1228.78
692.23	1298.41
692.41	1300.46
692.60	1290.22
692.78	1253.36
692.97	1271.79
693.15	1286.12
693.34	1216.49
693.52	1220.59
693.71	1200.11
693.89	1206.25
694.08	1310.70
694.26	1267.69
694.44	1259.50
694.63	1249.26
694.81	1204.21
695.00	1234.93
695.18	1269.74
695.37	1306.60
695.55	1251.31
695.74	1193.97
695.92	1279.98
696.10	1245.16
696.29	1236.97
696.47	1267.69
696.66	1173.49
696.84	1263.60
697.03	1138.67
697.21	1308.65
697.40	1243.12
697.58	1286.12
697.76	1218.54
697.95	1271.79
698.13	1327.08
698.32	1288.17
698.50	1320.94
698.68	1333.23
698.87	1230.83
699.05	1296.36
699.24	1263.60
699.42	1239.02
699.61	1337.32
699.79	1290.22
699.97	1257.45
700.16	1294.32
700.34	1263.60
700.53	1263.60
700.71	1296.36
700.89	1267.69
701.08	1259.50
701.26	1294.32
701.45	1304.56
701.63	1308.65
701.81	1204.21
702.00	1306.60
702.18	1228.78
702.37	1249.26
702.55	1239.02
702.73	1239.02
702.92	1243.12
703.10	1245.16
703.28	1325.04
703.47	1306.60
703.65	1191.92
703.84	1300.46
704.02	1200.11
704.20	1318.89
704.39	1282.03
704.57	1308.65
704.75	1273.84
704.94	1368.04
705.12	1282.03
705.30	1202.16
705.49	1196.01
705.67	1279.98
705.86	1259.50
706.04	1220.59
706.22	1255.40
706.41	1214.45
706.59	1243.12
706.77	1249.26
706.96	1290.22
707.14	1269.74
707.32	1224.69
707.51	1316.84
707.69	1239.02
707.87	1282.03
708.06	1222.64
708.24	1292.27
708.42	1155.05
708.61	1325.04
708.79	1249.26
708.97	1232.88
709.16	1343.47
709.34	1292.27
709.52	1226.73
709.71	1263.60
709.89	1265.64
710.07	1279.98
710.26	1302.51
710.44	1245.16
710.62	1239.02
710.80	1220.59
710.99	1253.36
711.17	1312.75
711.35	1257.45
711.54	1263.60
711.72	1275.88
711.90	1257.45
712.09	1263.60
712.27	1282.03
712.45	1275.88
712.63	1302.51
712.82	1308.65
713.00	1265.64
713.18	1286.12
713.37	1308.65
713.55	1310.70
713.73	1249.26
713.91	1357.80
714.10	1294.32
714.28	1265.64
714.46	1277.93
714.65	1249.26
714.83	1224.69
715.01	1230.83
715.19	1265.64
715.38	1239.02
715.56	1322.99
715.74	1243.12
715.92	1275.88
716.11	1243.12
716.29	1267.69
716.47	1216.49
716.65	1320.94
716.84	1208.30
717.02	1310.70
717.20	1277.93
717.38	1282.03
717.57	1288.17
717.75	1269.74
717.93	1314.80
718.11	1222.64
718.30	1290.22
718.48	1179.63
718.66	1220.59
718.84	1251.31
719.03	1253.36
719.21	1275.88
719.39	1185.77
719.57	1234.93
719.75	1232.88
719.94	1294.32
720.12	1251.31
720.30	1220.59
720.48	1234.93
720.67	1247.21
720.85	1265.64
721.03	1239.02
721.21	1271.79
721.39	1304.56
721.58	1226.73
721.76	1296.36
721.94	1269.74
722.12	1306.60
722.30	1316.84
722.49	1255.40
722.67	1253.36
722.85	1267.69
723.03	1243.12
723.21	1261.55
723.40	1261.55
723.58	1312.75
723.76	1312.75
723.94	1175.53
724.12	1261.55
724.30	1269.74
724.49	1249.26
724.67	1226.73
724.85	1206.25
725.03	1284.08
725.21	1265.64
725.40	1292.27
725.58	1249.26
725.76	1337.32
725.94	1282.03
726.12	1275.88
726.30	1200.11
726.49	1279.98
726.67	1263.60
726.85	1259.50
727.03	1224.69
727.21	1279.98
727.39	1243.12
727.57	1292.27
727.76	1304.56
727.94	1275.88
728.12	1261.55
728.30	1296.36
728.48	1261.55
728.66	1296.36
728.84	1179.63
729.03	1232.88
729.21	1288.17
729.39	1267.69
729.57	1288.17
729.75	1257.45
729.93	1253.36
730.11	1275.88
730.30	1316.84
730.48	1265.64
730.66	1294.32
730.84	1208.30
731.02	1263.60
731.20	1265.64
731.38	1296.36
731.56	1230.83
731.74	1312.75
731.93	1302.51
732.11	1251.31
732.29	1251.31
732.47	1263.60
732.65	1298.41
732.83	1269.74
733.01	1216.49
733.19	1243.12
733.37	1243.12
733.56	1318.89
733.74	1333.23
733.92	1286.12
734.10	1265.64
734.28	1255.40
734.46	1257.45
734.64	1257.45
734.82	1286.12
735.00	1228.78
735.18	1222.64
735.36	1249.26
735.54	1247.21
735.73	1310.70
735.91	1265.64
736.09	1245.16
736.27	1322.99
736.45	1257.45
736.63	1271.79
736.81	1279.98
736.99	1224.69
737.17	1314.80
737.35	1314.80
737.53	1290.22
737.71	1288.17
737.89	1226.73
738.07	1241.07
738.25	1277.93
738.43	1351.66
738.61	1257.45
738.80	1302.51
738.98	1253.36
739.16	1226.73
739.34	1175.53
739.52	1310.70
739.70	1257.45
739.88	1314.80
740.06	1288.17
740.24	1288.17
740.42	1322.99
740.60	1206.25
740.78	1288.17
740.96	1286.12
741.14	1265.64
741.32	1228.78
741.50	1312.75
741.68	1228.78
741.86	1183.73
742.04	1241.07
742.22	1325.04
742.40	1251.31
742.58	1275.88
742.76	1191.92
742.94	1306.60
743.12	1308.65
743.30	1290.22
743.48	1320.94
743.66	1322.99
743.84	1320.94
744.02	1257.45
744.20	1273.84
744.38	1261.55
744.56	1243.12
744.74	1286.12
744.92	1357.80
745.10	1339.37
745.28	1202.16
745.46	1265.64
745.64	1232.88
745.82	1294.32
746.00	1220.59
746.18	1292.27
746.36	1318.89
746.54	1249.26
746.72	1257.45
746.90	1288.17
747.08	1271.79
747.26	1302.51
747.44	1312.75
747.62	1296.36
747.80	1306.60
747.98	1259.50
748.15	1216.49
748.33	1286.12
748.51	1341.42
748.69	1226.73
748.87	1306.60
749.05	1271.79
749.23	1269.74
749.41	1284.08
749.59	1232.88
749.77	1234.93
749.95	1265.64
750.13	1304.56
750.31	1251.31
750.49	1310.70
750.67	1224.69
750.85	1310.70
751.03	1271.79
751.20	1316.84
751.38	1308.65
751.56	1249.26
751.74	1282.03
751.92	1202.16
752.10	1245.16
752.28	1253.36
752.46	1310.70
752.64	1222.64
752.82	1294.32
753.00	1261.55
753.18	1214.45
753.35	1241.07
753.53	1314.80
753.71	1318.89
753.89	1265.64
754.07	1298.41
754.25	1308.65
754.43	1241.07
754.61	1259.50
754.79	1191.92
754.97	1255.40
755.14	1347.56
755.32	1214.45
755.50	1222.64
755.68	1265.64
755.86	1214.45
756.04	1245.16
756.22	1277.93
756.40	1251.31
756.57	1302.51
756.75	1322.99
756.93	1271.79
757.11	1318.89
757.29	1230.83
757.47	1247.21
757.65	1263.60
757.82	1302.51
758.00	1222.64
758.18	1279.98
758.36	1290.22
758.54	1282.03
758.72	1251.31
758.90	1241.07
759.07	1241.07
759.25	1245.16
759.43	1318.89
759.61	1208.30
759.79	1279.98
759.97	1245.16
760.15	1239.02
760.32	1255.40
760.50	1222.64
760.68	1234.93
760.86	1261.55
761.04	1224.69
761.22	1310.70
761.39	1296.36
761.57	1310.70
761.75	1261.55
761.93	1208.30
762.11	1261.55
762.28	1228.78
762.46	1308.65
762.64	1243.12
762.82	1263.60
763.00	1298.41
763.18	1263.60
763.35	1232.88
763.53	1253.36
763.71	1249.26
763.89	1298.41
764.07	1282.03
764.24	1363.95
764.42	1185.77
764.60	1249.26
764.78	1302.51
764.96	1247.21
765.13	1298.41
765.31	1368.04
765.49	1279.98
765.67	1337.32
765.84	1257.45
766.02	1232.88
766.20	1269.74
766.38	1265.64
766.56	1230.83
766.73	1304.56
766.91	1296.36
767.09	1257.45
767.27	1308.65
767.44	1245.16
767.62	1275.88
767.80	1251.31
767.98	1257.45
768.15	1245.16
768.33	1228.78
768.51	1282.03
768.69	1302.51
768.87	1222.64
769.04	1253.36
769.22	1286.12
769.40	1265.64
769.58	1339.37
769.75	1269.74
769.93	1286.12
770.11	1245.16
770.28	1288.17
770.46	1214.45
770.64	1263.60
770.82	1251.31
770.99	1261.55
771.17	1308.65
771.35	1236.97
771.53	1318.89
771.70	1333.23
771.88	1327.08
772.06	1294.32
772.23	1304.56
772.41	1288.17
772.59	1239.02
772.77	1298.41
772.94	1236.97
773.12	1206.25
773.30	1236.97
773.47	1239.02
773.65	1234.93
773.83	1249.26
774.01	1255.40
774.18	1224.69
774.36	1310.70
774.54	1265.64
774.71	1251.31
774.89	1222.64
775.07	1261.55
775.24	1245.16
775.42	1230.83
775.60	1214.45
775.78	1263.60
775.95	1251.31
776.13	1286.12
776.31	1234.93
776.48	1261.55
776.66	1296.36
776.84	1138.67
777.01	1216.49
777.19	1210.35
777.37	1282.03
777.54	1292.27
777.72	1232.88
777.90	1304.56
778.07	1290.22
778.25	1206.25
778.43	1249.26
778.60	1224.69
778.78	1196.01
778.96	1181.68
779.13	1228.78
779.31	1282.03
779.49	1290.22
779.66	1290.22
779.84	1339.37
780.01	1249.26
780.19	1232.88
780.37	1220.59
780.54	1306.60
780.72	1292.27
780.90	1302.51
781.07	1269.74
781.25	1304.56
781.43	1298.41
781.60	1265.64
781.78	1245.16
781.95	1310.70
782.13	1273.84
782.31	1345.52
782.48	1310.70
782.66	1259.50
782.83	1294.32
783.01	1325.04
783.19	1261.55
783.36	1282.03
783.54	1236.97
783.72	1279.98
783.89	1228.78
784.07	1216.49
784.24	1279.98
784.42	1298.41
784.60	1263.60
784.77	1230.83
784.95	1318.89
785.12	1277.93
785.30	1298.41
785.47	1234.93
785.65	1308.65
785.83	1257.45
786.00	1193.97
786.18	1286.12
786.35	1247.21
786.53	1236.97
786.71	1249.26
786.88	1277.93
787.06	1255.40
787.23	1239.02
787.41	1224.69
787.58	1206.25
787.76	1216.49
787.94	1269.74
788.11	1294.32
788.29	1298.41
788.46	1261.55
788.64	1302.51
788.81	1261.55
788.99	1216.49
789.16	1257.45
789.34	1261.55
789.52	1318.89
789.69	1253.36
789.87	1269.74
790.04	1245.16
790.22	1232.88
790.39	1232.88
790.57	1273.84
790.74	1126.38
790.92	1251.31
791.09	1265.64
791.27	1216.49
791.44	1236.97
791.62	1249.26
791.79	1310.70
791.97	1316.84
792.15	1267.69
792.32	1253.36
792.50	1294.32
792.67	1329.13
792.85	1263.60
793.02	1230.83
793.20	1290.22
793.37	1296.36
793.55	1314.80
793.72	1212.40
793.90	1273.84
794.07	1290.22
794.25	1265.64
794.42	1271.79
794.60	1253.36
794.77	1239.02
794.95	1269.74
795.12	1279.98
795.30	1177.58
795.47	1224.69
795.65	1253.36
795.82	1198.06
796.00	1216.49
796.17	1263.60
796.34	1339.37
796.52	1333.23
796.69	1286.12
796.87	1273.84
797.04	1310.70
797.22	1230.83
797.39	1290.22
797.57	1251.31
797.74	1232.88
797.92	1294.32
798.09	1216.49
798.27	1204.21
798.44	1228.78
798.62	1255.40
798.79	1206.25
798.96	1251.31
799.14	1308.65
799.31	1327.08
799.49	1247.21
799.66	1277.93
799.84	1196.01
800.01	1267.69
800.19	1296.36
800.36	1255.40
800.53	1333.23
800.71	1222.64
800.88	1300.46
801.06	1310.70
801.23	1224.69
801.41	1296.36
801.58	1292.27
801.75	1300.46
801.93	1286.12
802.10	1320.94
802.28	1212.40
802.45	1298.41
802.63	1261.55
802.80	1263.60
802.97	1304.56
803.15	1253.36
803.32	1253.36
803.50	1279.98
803.67	1230.83
803.84	1200.11
804.02	1257.45
804.19	1230.83
804.37	1310.70
804.54	1294.32
804.71	1279.98
804.89	1224.69
805.06	1325.04
805.24	1277.93
805.41	1232.88
805.58	1298.41
805.76	1353.71
805.93	1320.94
806.10	1259.50
806.28	1224.69
806.45	1216.49
806.63	1273.84
806.80	1282.03
806.97	1294.32
807.15	1255.40
807.32	1220.59
807.49	1290.22
807.67	1255.40
807.84	1294.32
808.01	1310.70
808.19	1310.70
808.36	1220.59
808.54	1257.45
808.71	1290.22
808.88	1279.98
809.06	1241.07
809.23	1263.60
809.40	1241.07
809.58	1257.45
809.75	1304.56
809.92	1286.12
810.10	1374.19
810.27	1294.32
810.44	1259.50
810.62	1241.07
810.79	1322.99
810.96	1261.55
811.14	1245.16
811.31	1355.76
811.48	1253.36
811.66	1249.26
811.83	1263.60
812.00	1245.16
812.18	1294.32
812.35	1341.42
812.52	1210.35
812.69	1269.74
812.87	1241.07
813.04	1298.41
813.21	1325.04
813.39	1222.64
813.56	1263.60
813.73	1288.17
813.91	1216.49
814.08	1284.08
814.25	1216.49
814.42	1353.71
814.60	1255.40
814.77	1216.49
814.94	1236.97
815.12	1234.93
815.29	1218.54
815.46	1306.60
815.63	1144.81
815.81	1273.84
815.98	1253.36
816.15	1230.83
816.33	1208.30
816.50	1241.07
816.67	1310.70
816.84	1269.74
817.02	1230.83
817.19	1298.41
817.36	1275.88
817.53	1259.50
817.71	1296.36
817.88	1292.27
818.05	1259.50
818.22	1253.36
818.40	1273.84
818.57	1267.69
818.74	1265.64
818.91	1255.40
819.09	1247.21
819.26	1298.41
819.43	1277.93
819.60	1220.59
819.78	1275.88
819.95	1263.60
820.12	1335.28
820.29	1241.07
820.47	1310.70
820.64	1255.40
820.81	1251.31
820.98	1292.27
821.15	1241.07
821.33	1259.50
821.50	1241.07
821.67	1261.55
821.84	1200.11
822.02	1263.60
822.19	1263.60
822.36	1339.37
822.53	1261.55
822.70	1241.07
822.88	1284.08
823.05	1249.26
823.22	1284.08
823.39	1257.45
823.56	1294.32
823.74	1249.26
823.91	1261.55
824.08	1191.92
824.25	1232.88
824.42	1241.07
824.60	1273.84
824.77	1206.25
824.94	1265.64
825.11	1290.22
825.28	1257.45
825.45	1318.89
825.63	1273.84
825.80	1292.27
825.97	1214.45
826.14	1292.27
826.31	1322.99
826.48	1255.40
826.66	1296.36
826.83	1208.30
827.00	1251.31
827.17	1282.03
827.34	1191.92
827.51	1316.84
827.69	1241.07
827.86	1304.56
828.03	1304.56
828.20	1255.40
828.37	1218.54
828.54	1308.65
828.71	1286.12
828.89	1220.59
829.06	1302.51
829.23	1363.95
829.40	1279.98
829.57	1261.55
829.74	1310.70
829.91	1247.21
830.09	1187.82
830.26	1312.75
830.43	1314.80
830.60	1236.97
830.77	1234.93
830.94	1306.60
831.11	1290.22
831.28	1230.83
831.46	1206.25
831.63	1239.02
831.80	1200.11
831.97	1249.26
832.14	1200.11
832.31	1275.88
832.48	1247.21
832.65	1206.25
832.82	1232.88
832.99	1257.45
833.17	1275.88
833.34	1214.45
833.51	1355.76
833.68	1275.88
833.85	1226.73
834.02	1288.17
834.19	1226.73
834.36	1273.84
834.53	1241.07
834.70	1230.83
834.87	1271.79
835.04	1273.84
835.22	1271.79
835.39	1286.12
835.56	1267.69
835.73	1331.18
835.90	1316.84
836.07	1304.56
836.24	1245.16
836.41	1302.51
836.58	1261.55
836.75	1236.97
836.92	1259.50
837.09	1230.83
837.26	1243.12
837.43	1271.79
837.60	1288.17
837.77	1300.46
837.94	1320.94
838.12	1239.02
838.29	1282.03
838.46	1316.84
838.63	1288.17
838.80	1236.97
838.97	1329.13
839.14	1261.55
839.31	1306.60
839.48	1277.93
839.65	1286.12
839.82	1263.60
839.99	1302.51
840.16	1310.70
840.33	1310.70
840.50	1269.74
840.67	1288.17
840.84	1327.08
841.01	1265.64
841.18	1306.60
841.35	1236.97
841.52	1255.40
841.69	1316.84
841.86	1247.21
842.03	1267.69
842.20	1343.47
842.37	1251.31
842.54	1290.22
842.71	1337.32
842.88	1257.45
843.05	1243.12
843.22	1263.60
843.39	1298.41
843.56	1224.69
843.73	1234.93
843.90	1265.64
844.07	1224.69
844.24	1243.12
844.41	1290.22
844.58	1288.17
844.75	1249.26
844.92	1191.92
845.09	1273.84
845.26	1314.80
845.43	1286.12
845.60	1302.51
845.77	1271.79
845.94	1263.60
846.10	1320.94
846.27	1259.50
846.44	1249.26
846.61	1257.45
846.78	1314.80
846.95	1282.03
847.12	1322.99
847.29	1286.12
847.46	1288.17
847.63	1282.03
847.80	1269.74
847.97	1259.50
848.14	1230.83
848.31	1212.40
848.48	1314.80
848.65	1257.45
848.82	1292.27
848.98	1247.21
849.15	1286.12
849.32	1239.02
849.49	1263.60
849.66	1357.80
849.83	1298.41
850.00	1261.55
850.17	1169.39
850.34	1232.88
850.51	1329.13
850.68	1294.32
850.85	1277.93
851.01	1273.84
851.18	1232.88
851.35	1251.31
851.52	1329.13
851.69	1300.46
851.86	1206.25
852.03	1257.45
852.20	1304.56
852.37	1226.73
852.53	1277.93
852.70	1243.12
852.87	1310.70
853.04	1234.93
853.21	1224.69
853.38	1226.73
853.55	1230.83
853.72	1218.54
853.89	1265.64
854.05	1325.04
854.22	1257.45
854.39	1259.50
854.56	1251.31
854.73	1296.36
854.90	1296.36
855.07	1318.89
855.23	1294.32
855.40	1306.60
855.57	1216.49
855.74	1236.97
855.91	1255.40
856.08	1257.45
856.25	1208.30
856.41	1249.26
856.58	1273.84
856.75	1290.22
856.92	1245.16
857.09	1155.05
857.26	1255.40
857.42	1232.88
857.59	1257.45
857.76	1208.30
857.93	1267.69
858.10	1273.84
858.27	1210.35
858.43	1239.02
858.60	1255.40
858.77	1335.28
858.94	1284.08
859.11	1255.40
859.27	1273.84
859.44	1296.36
859.61	1230.83
859.78	1347.56
859.95	1302.51
860.12	1304.56
860.28	1279.98
860.45	1290.22
860.62	1200.11
860.79	1265.64
860.95	1318.89
861.12	1306.60
861.29	1214.45
861.46	1286.12
861.63	1308.65
861.79	1245.16
861.96	1236.97
862.13	1214.45
862.30	1236.97
862.47	1273.84
862.63	1265.64
862.80	1247.21
862.97	1288.17
863.14	1202.16
863.30	1308.65
863.47	1300.46
863.64	1159.15
863.81	1300.46
863.97	1277.93
864.14	1198.06
864.31	1306.60
864.48	1298.41
864.65	1243.12
864.81	1251.31
864.98	1185.77
865.15	1239.02
865.32	1245.16
865.48	1245.16
865.65	1232.88
865.82	1282.03
865.98	1255.40
866.15	1298.41
866.32	1275.88
866.49	1239.02
866.65	1257.45
866.82	1312.75
866.99	1257.45
867.16	1214.45
867.32	1257.45
867.49	1259.50
867.66	1275.88
867.83	1267.69
867.99	1191.92
868.16	1228.78
868.33	1329.13
868.49	1269.74
868.66	1275.88
868.83	1288.17
868.99	1196.01
869.16	1239.02
869.33	1245.16
869.50	1314.80
869.66	1245.16
869.83	1228.78
870.00	1245.16
870.16	1294.32
870.33	1345.52
870.50	1228.78
870.66	1247.21
870.83	1300.46
871.00	1208.30
871.17	1234.93
871.33	1204.21
871.50	1286.12
871.67	1208.30
871.83	1304.56
872.00	1234.93
872.17	1220.59
872.33	1226.73
872.50	1245.16
872.67	1314.80
872.83	1296.36
873.00	1200.11
873.17	1239.02
873.33	1288.17
873.50	1279.98
873.67	1300.46
873.83	1253.36
874.00	1322.99
874.16	1277.93
874.33	1296.36
874.50	1277.93
874.66	1277.93
874.83	1245.16
875.00	1265.64
875.16	1347.56
875.33	1384.43
875.50	1322.99
875.66	1257.45
875.83	1259.50
875.99	1296.36
876.16	1241.07
876.33	1263.60
876.49	1261.55
876.66	1204.21
876.83	1308.65
876.99	1261.55
877.16	1263.60
877.32	1320.94
877.49	1247.21
877.66	1343.47
877.82	1214.45
877.99	1298.41
878.15	1241.07
878.32	1277.93
878.49	1288.17
878.65	1251.31
878.82	1253.36
878.98	1300.46
879.15	1271.79
879.32	1241.07
879.48	1228.78
879.65	1251.31
879.81	1273.84
879.98	1234.93
880.15	1255.40
880.31	1327.08
880.48	1288.17
880.64	1282.03
880.81	1292.27
880.97	1265.64
881.14	1216.49
881.31	1208.30
881.47	1255.40
881.64	1310.70
881.80	1241.07
881.97	1306.60
882.13	1310.70
882.30	1241.07
882.47	1239.02
882.63	1241.07
882.80	1155.05
882.96	1300.46
883.13	1275.88
883.29	1196.01
883.46	1273.84
883.62	1206.25
883.79	1331.18
883.95	1333.23
884.12	1249.26
884.29	1204.21
884.45	1361.90
884.62	1204.21
884.78	1302.51
884.95	1253.36
885.11	1261.55
885.28	1230.83
885.44	1298.41
885.61	1314.80
885.77	1300.46
885.94	1275.88
886.10	1251.31
886.27	1370.09
886.43	1261.55
886.60	1261.55
886.76	1294.32
886.93	1222.64
887.09	1355.76
887.26	1224.69
887.42	1277.93
887.59	1335.28
887.75	1279.98
887.92	1318.89
888.08	1189.87
888.25	1314.80
888.41	1318.89
888.58	1187.82
888.74	1298.41
888.91	1322.99
>>>>>End Processed Spectral Data<<<<<
