SpectraSuite Data File
++++++++++++++++++++++++++++++++++++
Date: Sun Apr 03 19:55:21 CEST 2016
User: root
Dark Spectrum Present: No
Reference Spectrum Present: No
Number of Sampled Component Spectra: 1
Spectrometers: USB4C02835
Integration Time (usec): 10000 (USB4C02835)
Spectra Averaged: 1 (USB4C02835)
Boxcar Smoothing: 0 (USB4C02835)
Correct for Electrical Dark: No (USB4C02835)
Strobe/Lamp Enabled: No (USB4C02835)
Correct for Detector Non-linearity: No (USB4C02835)
Correct for Stray Light: No (USB4C02835)
Number of Pixels in Processed Spectrum: 3648
>>>>>Begin Processed Spectral Data<<<<<
177.47	1265.64
177.69	1265.64
177.91	1265.64
178.13	1273.84
178.36	1261.55
178.58	1189.87
178.80	1255.40
179.02	1284.08
179.24	1214.45
179.46	1234.93
179.68	1284.08
179.90	1200.11
180.13	1253.36
180.35	1337.32
180.57	1275.88
180.79	1290.22
181.01	1261.55
181.23	1261.55
181.45	1322.99
181.67	1271.79
181.90	1300.46
182.12	1249.26
182.34	1239.02
182.56	1255.40
182.78	1265.64
183.00	1273.84
183.22	1253.36
183.44	1243.12
183.66	1322.99
183.89	1302.51
184.11	1279.98
184.33	1335.28
184.55	1249.26
184.77	1210.35
184.99	1282.03
185.21	1273.84
185.43	1300.46
185.65	1296.36
185.87	1298.41
186.10	1243.12
186.32	1329.13
186.54	1224.69
186.76	1136.62
186.98	1312.75
187.20	1181.68
187.42	1245.16
187.64	1302.51
187.86	1282.03
188.08	1232.88
188.30	1255.40
188.52	1243.12
188.75	1257.45
188.97	1306.60
189.19	1302.51
189.41	1296.36
189.63	1302.51
189.85	1304.56
190.07	1175.53
190.29	1198.06
190.51	1320.94
190.73	1249.26
190.95	1275.88
191.17	1257.45
191.39	1251.31
191.61	1279.98
191.84	1308.65
192.06	1292.27
192.28	1224.69
192.50	1277.93
192.72	1198.06
192.94	1255.40
193.16	1198.06
193.38	1304.56
193.60	1232.88
193.82	1261.55
194.04	1255.40
194.26	1259.50
194.48	1202.16
194.70	1318.89
194.92	1253.36
195.14	1286.12
195.36	1171.44
195.58	1322.99
195.80	1232.88
196.02	1292.27
196.24	1277.93
196.46	1290.22
196.69	1349.61
196.91	1302.51
197.13	1269.74
197.35	1294.32
197.57	1286.12
197.79	1241.07
198.01	1214.45
198.23	1220.59
198.45	1265.64
198.67	1263.60
198.89	1224.69
199.11	1267.69
199.33	1236.97
199.55	1255.40
199.77	1228.78
199.99	1314.80
200.21	1273.84
200.43	1282.03
200.65	1265.64
200.87	1222.64
201.09	1265.64
201.31	1247.21
201.53	1314.80
201.75	1284.08
201.97	1251.31
202.19	1316.84
202.41	1265.64
202.63	1255.40
202.85	1314.80
203.07	1265.64
203.29	1212.40
203.51	1257.45
203.73	1257.45
203.95	1290.22
204.17	1267.69
204.39	1292.27
204.61	1249.26
204.83	1253.36
205.05	1273.84
205.27	1284.08
205.49	1224.69
205.71	1245.16
205.93	1228.78
206.15	1265.64
206.37	1179.63
206.59	1271.79
206.81	1333.23
207.03	1259.50
207.25	1245.16
207.47	1300.46
207.69	1181.68
207.91	1308.65
208.13	1224.69
208.34	1257.45
208.56	1331.18
208.78	1294.32
209.00	1267.69
209.22	1241.07
209.44	1298.41
209.66	1275.88
209.88	1343.47
210.10	1263.60
210.32	1275.88
210.54	1232.88
210.76	1310.70
210.98	1384.43
211.20	1239.02
211.42	1271.79
211.64	1220.59
211.86	1298.41
212.08	1298.41
212.30	1247.21
212.52	1294.32
212.74	1234.93
212.96	1226.73
213.17	1296.36
213.39	1298.41
213.61	1290.22
213.83	1304.56
214.05	1198.06
214.27	1224.69
214.49	1259.50
214.71	1193.97
214.93	1277.93
215.15	1296.36
215.37	1243.12
215.59	1218.54
215.81	1304.56
216.03	1261.55
216.24	1251.31
216.46	1300.46
216.68	1243.12
216.90	1269.74
217.12	1282.03
217.34	1282.03
217.56	1275.88
217.78	1290.22
218.00	1271.79
218.22	1255.40
218.44	1304.56
218.66	1279.98
218.87	1275.88
219.09	1290.22
219.31	1261.55
219.53	1230.83
219.75	1245.16
219.97	1292.27
220.19	1257.45
220.41	1302.51
220.63	1284.08
220.85	1232.88
221.06	1255.40
221.28	1275.88
221.50	1253.36
221.72	1312.75
221.94	1318.89
222.16	1232.88
222.38	1308.65
222.60	1271.79
222.82	1282.03
223.03	1335.28
223.25	1335.28
223.47	1230.83
223.69	1298.41
223.91	1251.31
224.13	1308.65
224.35	1253.36
224.57	1239.02
224.78	1325.04
225.00	1269.74
225.22	1267.69
225.44	1200.11
225.66	1257.45
225.88	1208.30
226.10	1232.88
226.32	1263.60
226.53	1318.89
226.75	1269.74
226.97	1304.56
227.19	1198.06
227.41	1239.02
227.63	1263.60
227.85	1239.02
228.06	1216.49
228.28	1335.28
228.50	1302.51
228.72	1255.40
228.94	1226.73
229.16	1234.93
229.37	1320.94
229.59	1251.31
229.81	1279.98
230.03	1247.21
230.25	1312.75
230.47	1169.39
230.69	1224.69
230.90	1304.56
231.12	1255.40
231.34	1296.36
231.56	1333.23
231.78	1243.12
232.00	1249.26
232.21	1308.65
232.43	1265.64
232.65	1245.16
232.87	1236.97
233.09	1226.73
233.30	1179.63
233.52	1290.22
233.74	1206.25
233.96	1230.83
234.18	1263.60
234.40	1220.59
234.61	1273.84
234.83	1181.68
235.05	1284.08
235.27	1296.36
235.49	1232.88
235.70	1234.93
235.92	1296.36
236.14	1243.12
236.36	1267.69
236.58	1273.84
236.79	1216.49
237.01	1224.69
237.23	1214.45
237.45	1230.83
237.67	1269.74
237.88	1159.15
238.10	1189.87
238.32	1286.12
238.54	1320.94
238.76	1322.99
238.97	1284.08
239.19	1308.65
239.41	1257.45
239.63	1243.12
239.85	1257.45
240.06	1232.88
240.28	1333.23
240.50	1374.19
240.72	1277.93
240.93	1296.36
241.15	1253.36
241.37	1290.22
241.59	1294.32
241.81	1196.01
242.02	1243.12
242.24	1286.12
242.46	1249.26
242.68	1273.84
242.89	1277.93
243.11	1341.42
243.33	1234.93
243.55	1216.49
243.76	1263.60
243.98	1230.83
244.20	1253.36
244.42	1234.93
244.64	1202.16
244.85	1224.69
245.07	1241.07
245.29	1216.49
245.51	1310.70
245.72	1210.35
245.94	1181.68
246.16	1286.12
246.38	1296.36
246.59	1273.84
246.81	1286.12
247.03	1249.26
247.24	1265.64
247.46	1191.92
247.68	1282.03
247.90	1253.36
248.11	1236.97
248.33	1273.84
248.55	1251.31
248.77	1284.08
248.98	1275.88
249.20	1265.64
249.42	1259.50
249.64	1253.36
249.85	1359.85
250.07	1306.60
250.29	1226.73
250.50	1275.88
250.72	1306.60
250.94	1261.55
251.16	1230.83
251.37	1265.64
251.59	1239.02
251.81	1243.12
252.02	1236.97
252.24	1259.50
252.46	1286.12
252.68	1353.71
252.89	1294.32
253.11	1214.45
253.33	1245.16
253.54	1304.56
253.76	1255.40
253.98	1241.07
254.20	1310.70
254.41	1218.54
254.63	1255.40
254.85	1286.12
255.06	1181.68
255.28	1296.36
255.50	1306.60
255.71	1243.12
255.93	1259.50
256.15	1347.56
256.36	1251.31
256.58	1312.75
256.80	1265.64
257.02	1288.17
257.23	1230.83
257.45	1265.64
257.67	1304.56
257.88	1155.05
258.10	1259.50
258.32	1259.50
258.53	1196.01
258.75	1298.41
258.97	1230.83
259.18	1290.22
259.40	1322.99
259.62	1269.74
259.83	1241.07
260.05	1271.79
260.27	1245.16
260.48	1279.98
260.70	1247.21
260.92	1220.59
261.13	1251.31
261.35	1243.12
261.57	1228.78
261.78	1273.84
262.00	1288.17
262.22	1236.97
262.43	1351.66
262.65	1300.46
262.86	1239.02
263.08	1251.31
263.30	1232.88
263.51	1159.15
263.73	1298.41
263.95	1318.89
264.16	1239.02
264.38	1243.12
264.60	1226.73
264.81	1284.08
265.03	1345.52
265.25	1222.64
265.46	1249.26
265.68	1331.18
265.89	1284.08
266.11	1153.01
266.33	1337.32
266.54	1206.25
266.76	1222.64
266.98	1269.74
267.19	1224.69
267.41	1294.32
267.62	1228.78
267.84	1263.60
268.06	1273.84
268.27	1261.55
268.49	1253.36
268.70	1292.27
268.92	1245.16
269.14	1329.13
269.35	1318.89
269.57	1220.59
269.79	1290.22
270.00	1286.12
270.22	1294.32
270.43	1273.84
270.65	1212.40
270.87	1257.45
271.08	1273.84
271.30	1318.89
271.51	1269.74
271.73	1327.08
271.95	1261.55
272.16	1183.73
272.38	1290.22
272.59	1269.74
272.81	1288.17
273.02	1273.84
273.24	1212.40
273.46	1294.32
273.67	1247.21
273.89	1249.26
274.10	1279.98
274.32	1298.41
274.54	1241.07
274.75	1255.40
274.97	1279.98
275.18	1218.54
275.40	1304.56
275.61	1236.97
275.83	1255.40
276.05	1316.84
276.26	1279.98
276.48	1179.63
276.69	1216.49
276.91	1279.98
277.12	1292.27
277.34	1255.40
277.55	1279.98
277.77	1269.74
277.99	1157.10
278.20	1300.46
278.42	1241.07
278.63	1282.03
278.85	1347.56
279.06	1347.56
279.28	1181.68
279.49	1255.40
279.71	1269.74
279.93	1298.41
280.14	1296.36
280.36	1249.26
280.57	1247.21
280.79	1243.12
281.00	1241.07
281.22	1271.79
281.43	1269.74
281.65	1253.36
281.86	1282.03
282.08	1335.28
282.29	1290.22
282.51	1224.69
282.73	1259.50
282.94	1288.17
283.16	1208.30
283.37	1296.36
283.59	1265.64
283.80	1286.12
284.02	1320.94
284.23	1310.70
284.45	1257.45
284.66	1210.35
284.88	1204.21
285.09	1267.69
285.31	1322.99
285.52	1253.36
285.74	1286.12
285.95	1230.83
286.17	1241.07
286.38	1249.26
286.60	1282.03
286.81	1320.94
287.03	1361.90
287.24	1247.21
287.46	1308.65
287.67	1292.27
287.89	1259.50
288.10	1298.41
288.32	1243.12
288.53	1265.64
288.75	1327.08
288.96	1216.49
289.18	1275.88
289.39	1271.79
289.61	1329.13
289.82	1273.84
290.04	1288.17
290.25	1325.04
290.47	1279.98
290.68	1294.32
290.90	1226.73
291.11	1247.21
291.33	1277.93
291.54	1277.93
291.76	1259.50
291.97	1239.02
292.18	1249.26
292.40	1206.25
292.61	1150.96
292.83	1296.36
293.04	1376.24
293.26	1259.50
293.47	1259.50
293.69	1263.60
293.90	1302.51
294.12	1310.70
294.33	1302.51
294.55	1251.31
294.76	1267.69
294.97	1275.88
295.19	1402.86
295.40	1236.97
295.62	1312.75
295.83	1265.64
296.05	1292.27
296.26	1265.64
296.48	1261.55
296.69	1208.30
296.90	1265.64
297.12	1286.12
297.33	1282.03
297.55	1339.37
297.76	1193.97
297.98	1214.45
298.19	1279.98
298.41	1304.56
298.62	1232.88
298.83	1232.88
299.05	1259.50
299.26	1353.71
299.48	1189.87
299.69	1314.80
299.90	1216.49
300.12	1218.54
300.33	1294.32
300.55	1349.61
300.76	1267.69
300.98	1310.70
301.19	1290.22
301.40	1228.78
301.62	1220.59
301.83	1247.21
302.05	1302.51
302.26	1343.47
302.47	1314.80
302.69	1374.19
302.90	1282.03
303.12	1277.93
303.33	1292.27
303.54	1198.06
303.76	1216.49
303.97	1271.79
304.19	1310.70
304.40	1298.41
304.61	1300.46
304.83	1257.45
305.04	1331.18
305.26	1236.97
305.47	1288.17
305.68	1249.26
305.90	1273.84
306.11	1249.26
306.33	1282.03
306.54	1331.18
306.75	1263.60
306.97	1228.78
307.18	1214.45
307.39	1220.59
307.61	1306.60
307.82	1343.47
308.04	1202.16
308.25	1275.88
308.46	1206.25
308.68	1226.73
308.89	1228.78
309.10	1255.40
309.32	1329.13
309.53	1263.60
309.74	1263.60
309.96	1241.07
310.17	1288.17
310.39	1265.64
310.60	1284.08
310.81	1282.03
311.03	1239.02
311.24	1228.78
311.45	1279.98
311.67	1279.98
311.88	1255.40
312.09	1247.21
312.31	1261.55
312.52	1288.17
312.73	1284.08
312.95	1247.21
313.16	1253.36
313.37	1247.21
313.59	1224.69
313.80	1359.85
314.01	1282.03
314.23	1343.47
314.44	1261.55
314.65	1251.31
314.87	1253.36
315.08	1249.26
315.29	1212.40
315.51	1230.83
315.72	1253.36
315.93	1261.55
316.15	1273.84
316.36	1222.64
316.57	1335.28
316.79	1282.03
317.00	1261.55
317.21	1247.21
317.43	1196.01
317.64	1273.84
317.85	1265.64
318.07	1236.97
318.28	1263.60
318.49	1234.93
318.70	1249.26
318.92	1269.74
319.13	1198.06
319.34	1249.26
319.56	1282.03
319.77	1353.71
319.98	1265.64
320.20	1318.89
320.41	1261.55
320.62	1259.50
320.83	1273.84
321.05	1236.97
321.26	1257.45
321.47	1216.49
321.69	1345.52
321.90	1327.08
322.11	1255.40
322.32	1259.50
322.54	1249.26
322.75	1247.21
322.96	1230.83
323.18	1212.40
323.39	1290.22
323.60	1245.16
323.81	1294.32
324.03	1275.88
324.24	1239.02
324.45	1249.26
324.66	1228.78
324.88	1271.79
325.09	1210.35
325.30	1247.21
325.52	1251.31
325.73	1284.08
325.94	1189.87
326.15	1243.12
326.37	1277.93
326.58	1329.13
326.79	1263.60
327.00	1294.32
327.22	1279.98
327.43	1269.74
327.64	1257.45
327.85	1316.84
328.07	1275.88
328.28	1290.22
328.49	1314.80
328.70	1322.99
328.92	1216.49
329.13	1226.73
329.34	1259.50
329.55	1277.93
329.76	1335.28
329.98	1249.26
330.19	1261.55
330.40	1286.12
330.61	1290.22
330.83	1243.12
331.04	1255.40
331.25	1277.93
331.46	1259.50
331.68	1312.75
331.89	1282.03
332.10	1236.97
332.31	1181.68
332.52	1314.80
332.74	1251.31
332.95	1239.02
333.16	1292.27
333.37	1220.59
333.58	1302.51
333.80	1288.17
334.01	1298.41
334.22	1236.97
334.43	1247.21
334.64	1267.69
334.86	1191.92
335.07	1286.12
335.28	1333.23
335.49	1298.41
335.70	1349.61
335.92	1277.93
336.13	1265.64
336.34	1226.73
336.55	1234.93
336.76	1253.36
336.98	1243.12
337.19	1232.88
337.40	1310.70
337.61	1273.84
337.82	1241.07
338.04	1222.64
338.25	1257.45
338.46	1234.93
338.67	1277.93
338.88	1222.64
339.09	1329.13
339.31	1236.97
339.52	1212.40
339.73	1351.66
339.94	1273.84
340.15	1339.37
340.36	1290.22
340.58	1331.18
340.79	1312.75
341.00	1347.56
341.21	1294.32
341.42	1314.80
341.63	1314.80
341.85	1269.74
342.06	1312.75
342.27	1187.82
342.48	1239.02
342.69	1236.97
342.90	1271.79
343.12	1239.02
343.33	1255.40
343.54	1335.28
343.75	1277.93
343.96	1204.21
344.17	1282.03
344.38	1294.32
344.60	1236.97
344.81	1247.21
345.02	1304.56
345.23	1212.40
345.44	1304.56
345.65	1234.93
345.86	1228.78
346.07	1300.46
346.29	1296.36
346.50	1208.30
346.71	1296.36
346.92	1302.51
347.13	1302.51
347.34	1228.78
347.55	1302.51
347.76	1257.45
347.98	1294.32
348.19	1298.41
348.40	1296.36
348.61	1214.45
348.82	1220.59
349.03	1263.60
349.24	1243.12
349.45	1286.12
349.66	1243.12
349.88	1273.84
350.09	1245.16
350.30	1257.45
350.51	1288.17
350.72	1247.21
350.93	1173.49
351.14	1232.88
351.35	1298.41
351.56	1263.60
351.77	1241.07
351.99	1288.17
352.20	1345.52
352.41	1183.73
352.62	1216.49
352.83	1230.83
353.04	1247.21
353.25	1204.21
353.46	1193.97
353.67	1335.28
353.88	1232.88
354.09	1243.12
354.30	1179.63
354.52	1208.30
354.73	1318.89
354.94	1212.40
355.15	1263.60
355.36	1230.83
355.57	1232.88
355.78	1212.40
355.99	1265.64
356.20	1132.53
356.41	1345.52
356.62	1292.27
356.83	1267.69
357.04	1226.73
357.25	1320.94
357.46	1191.92
357.68	1239.02
357.89	1284.08
358.10	1333.23
358.31	1200.11
358.52	1214.45
358.73	1288.17
358.94	1277.93
359.15	1257.45
359.36	1312.75
359.57	1304.56
359.78	1304.56
359.99	1277.93
360.20	1288.17
360.41	1337.32
360.62	1228.78
360.83	1239.02
361.04	1259.50
361.25	1286.12
361.46	1277.93
361.67	1290.22
361.88	1302.51
362.09	1275.88
362.30	1181.68
362.51	1222.64
362.72	1273.84
362.93	1255.40
363.14	1257.45
363.35	1214.45
363.56	1327.08
363.78	1294.32
363.99	1259.50
364.20	1241.07
364.41	1277.93
364.62	1322.99
364.83	1288.17
365.04	1284.08
365.25	1329.13
365.46	1214.45
365.67	1300.46
365.88	1214.45
366.09	1282.03
366.30	1284.08
366.51	1243.12
366.72	1253.36
366.93	1275.88
367.14	1247.21
367.35	1234.93
367.56	1322.99
367.77	1241.07
367.98	1275.88
368.18	1265.64
368.39	1210.35
368.60	1269.74
368.81	1277.93
369.02	1232.88
369.23	1239.02
369.44	1304.56
369.65	1271.79
369.86	1255.40
370.07	1325.04
370.28	1282.03
370.49	1292.27
370.70	1292.27
370.91	1228.78
371.12	1239.02
371.33	1228.78
371.54	1241.07
371.75	1341.42
371.96	1255.40
372.17	1331.18
372.38	1273.84
372.59	1232.88
372.80	1187.82
373.01	1294.32
373.22	1245.16
373.43	1253.36
373.64	1339.37
373.85	1253.36
374.06	1294.32
374.26	1298.41
374.47	1269.74
374.68	1312.75
374.89	1226.73
375.10	1298.41
375.31	1288.17
375.52	1263.60
375.73	1306.60
375.94	1292.27
376.15	1241.07
376.36	1249.26
376.57	1208.30
376.78	1183.73
376.99	1357.80
377.20	1302.51
377.40	1298.41
377.61	1282.03
377.82	1273.84
378.03	1234.93
378.24	1224.69
378.45	1251.31
378.66	1206.25
378.87	1335.28
379.08	1294.32
379.29	1191.92
379.50	1232.88
379.71	1218.54
379.91	1314.80
380.12	1310.70
380.33	1322.99
380.54	1298.41
380.75	1230.83
380.96	1230.83
381.17	1306.60
381.38	1204.21
381.59	1288.17
381.80	1249.26
382.00	1220.59
382.21	1255.40
382.42	1316.84
382.63	1230.83
382.84	1282.03
383.05	1286.12
383.26	1269.74
383.47	1253.36
383.68	1271.79
383.88	1275.88
384.09	1288.17
384.30	1306.60
384.51	1257.45
384.72	1232.88
384.93	1253.36
385.14	1226.73
385.35	1253.36
385.55	1196.01
385.76	1212.40
385.97	1300.46
386.18	1308.65
386.39	1263.60
386.60	1269.74
386.81	1288.17
387.02	1329.13
387.22	1206.25
387.43	1241.07
387.64	1269.74
387.85	1331.18
388.06	1202.16
388.27	1277.93
388.48	1368.04
388.68	1259.50
388.89	1288.17
389.10	1253.36
389.31	1261.55
389.52	1302.51
389.73	1247.21
389.93	1286.12
390.14	1277.93
390.35	1271.79
390.56	1318.89
390.77	1232.88
390.98	1216.49
391.18	1314.80
391.39	1286.12
391.60	1302.51
391.81	1251.31
392.02	1306.60
392.23	1261.55
392.43	1388.52
392.64	1279.98
392.85	1216.49
393.06	1226.73
393.27	1232.88
393.47	1245.16
393.68	1343.47
393.89	1294.32
394.10	1241.07
394.31	1269.74
394.52	1298.41
394.72	1226.73
394.93	1228.78
395.14	1232.88
395.35	1304.56
395.56	1265.64
395.76	1243.12
395.97	1247.21
396.18	1210.35
396.39	1331.18
396.60	1308.65
396.80	1230.83
397.01	1200.11
397.22	1288.17
397.43	1294.32
397.64	1300.46
397.84	1263.60
398.05	1259.50
398.26	1294.32
398.47	1286.12
398.67	1265.64
398.88	1255.40
399.09	1226.73
399.30	1286.12
399.51	1288.17
399.71	1296.36
399.92	1282.03
400.13	1181.68
400.34	1241.07
400.54	1220.59
400.75	1249.26
400.96	1302.51
401.17	1259.50
401.37	1232.88
401.58	1183.73
401.79	1339.37
402.00	1273.84
402.21	1239.02
402.41	1232.88
402.62	1284.08
402.83	1279.98
403.04	1222.64
403.24	1298.41
403.45	1239.02
403.66	1265.64
403.87	1302.51
404.07	1357.80
404.28	1265.64
404.49	1263.60
404.70	1230.83
404.90	1234.93
405.11	1275.88
405.32	1353.71
405.52	1292.27
405.73	1275.88
405.94	1247.21
406.15	1316.84
406.35	1310.70
406.56	1241.07
406.77	1355.76
406.98	1284.08
407.18	1263.60
407.39	1243.12
407.60	1183.73
407.80	1253.36
408.01	1218.54
408.22	1300.46
408.43	1302.51
408.63	1273.84
408.84	1251.31
409.05	1273.84
409.25	1310.70
409.46	1277.93
409.67	1267.69
409.88	1214.45
410.08	1200.11
410.29	1322.99
410.50	1249.26
410.70	1245.16
410.91	1282.03
411.12	1275.88
411.32	1304.56
411.53	1255.40
411.74	1222.64
411.95	1329.13
412.15	1322.99
412.36	1265.64
412.57	1273.84
412.77	1353.71
412.98	1159.15
413.19	1257.45
413.39	1329.13
413.60	1314.80
413.81	1259.50
414.01	1230.83
414.22	1282.03
414.43	1304.56
414.63	1290.22
414.84	1245.16
415.05	1286.12
415.25	1288.17
415.46	1243.12
415.67	1247.21
415.87	1232.88
416.08	1218.54
416.29	1318.89
416.49	1228.78
416.70	1243.12
416.91	1265.64
417.11	1294.32
417.32	1318.89
417.53	1218.54
417.73	1202.16
417.94	1304.56
418.15	1271.79
418.35	1255.40
418.56	1269.74
418.77	1288.17
418.97	1318.89
419.18	1259.50
419.38	1306.60
419.59	1251.31
419.80	1312.75
420.00	1277.93
420.21	1269.74
420.42	1339.37
420.62	1327.08
420.83	1288.17
421.04	1247.21
421.24	1234.93
421.45	1261.55
421.65	1245.16
421.86	1290.22
422.07	1294.32
422.27	1234.93
422.48	1226.73
422.69	1288.17
422.89	1279.98
423.10	1310.70
423.30	1255.40
423.51	1241.07
423.72	1279.98
423.92	1247.21
424.13	1232.88
424.33	1265.64
424.54	1306.60
424.75	1224.69
424.95	1314.80
425.16	1282.03
425.36	1255.40
425.57	1361.90
425.78	1333.23
425.98	1253.36
426.19	1277.93
426.39	1314.80
426.60	1345.52
426.81	1181.68
427.01	1318.89
427.22	1222.64
427.42	1206.25
427.63	1249.26
427.83	1245.16
428.04	1239.02
428.25	1212.40
428.45	1314.80
428.66	1191.92
428.86	1308.65
429.07	1222.64
429.28	1312.75
429.48	1327.08
429.69	1255.40
429.89	1271.79
430.10	1271.79
430.30	1234.93
430.51	1331.18
430.71	1191.92
430.92	1255.40
431.13	1279.98
431.33	1273.84
431.54	1312.75
431.74	1193.97
431.95	1249.26
432.15	1304.56
432.36	1286.12
432.56	1279.98
432.77	1288.17
432.98	1282.03
433.18	1269.74
433.39	1263.60
433.59	1253.36
433.80	1312.75
434.00	1300.46
434.21	1290.22
434.41	1249.26
434.62	1247.21
434.82	1296.36
435.03	1312.75
435.23	1286.12
435.44	1236.97
435.64	1243.12
435.85	1200.11
436.06	1265.64
436.26	1273.84
436.47	1202.16
436.67	1255.40
436.88	1294.32
437.08	1216.49
437.29	1236.97
437.49	1298.41
437.70	1318.89
437.90	1308.65
438.11	1275.88
438.31	1277.93
438.52	1288.17
438.72	1267.69
438.93	1183.73
439.13	1253.36
439.34	1257.45
439.54	1279.98
439.75	1308.65
439.95	1279.98
440.16	1241.07
440.36	1275.88
440.57	1284.08
440.77	1331.18
440.98	1294.32
441.18	1316.84
441.39	1292.27
441.59	1304.56
441.80	1277.93
442.00	1220.59
442.21	1226.73
442.41	1298.41
442.62	1271.79
442.82	1249.26
443.02	1265.64
443.23	1329.13
443.43	1279.98
443.64	1230.83
443.84	1226.73
444.05	1286.12
444.25	1216.49
444.46	1304.56
444.66	1224.69
444.87	1286.12
445.07	1296.36
445.28	1306.60
445.48	1296.36
445.69	1335.28
445.89	1308.65
446.09	1273.84
446.30	1267.69
446.50	1261.55
446.71	1202.16
446.91	1273.84
447.12	1247.21
447.32	1310.70
447.53	1245.16
447.73	1351.66
447.93	1288.17
448.14	1226.73
448.34	1224.69
448.55	1359.85
448.75	1214.45
448.96	1261.55
449.16	1282.03
449.36	1263.60
449.57	1304.56
449.77	1230.83
449.98	1259.50
450.18	1279.98
450.39	1306.60
450.59	1257.45
450.79	1275.88
451.00	1247.21
451.20	1273.84
451.41	1255.40
451.61	1224.69
451.81	1267.69
452.02	1230.83
452.22	1384.43
452.43	1304.56
452.63	1271.79
452.84	1304.56
453.04	1290.22
453.24	1298.41
453.45	1359.85
453.65	1249.26
453.86	1259.50
454.06	1312.75
454.26	1261.55
454.47	1296.36
454.67	1239.02
454.87	1312.75
455.08	1298.41
455.28	1327.08
455.49	1222.64
455.69	1204.21
455.89	1312.75
456.10	1253.36
456.30	1294.32
456.51	1282.03
456.71	1300.46
456.91	1269.74
457.12	1282.03
457.32	1234.93
457.52	1370.09
457.73	1224.69
457.93	1220.59
458.14	1218.54
458.34	1325.04
458.54	1220.59
458.75	1232.88
458.95	1300.46
459.15	1224.69
459.36	1232.88
459.56	1277.93
459.76	1247.21
459.97	1271.79
460.17	1234.93
460.37	1294.32
460.58	1288.17
460.78	1263.60
460.99	1292.27
461.19	1263.60
461.39	1202.16
461.60	1267.69
461.80	1333.23
462.00	1296.36
462.21	1245.16
462.41	1267.69
462.61	1312.75
462.82	1286.12
463.02	1279.98
463.22	1279.98
463.43	1265.64
463.63	1349.61
463.83	1251.31
464.04	1255.40
464.24	1263.60
464.44	1302.51
464.64	1355.76
464.85	1298.41
465.05	1247.21
465.25	1193.97
465.46	1290.22
465.66	1208.30
465.86	1245.16
466.07	1288.17
466.27	1218.54
466.47	1269.74
466.68	1193.97
466.88	1300.46
467.08	1282.03
467.29	1351.66
467.49	1245.16
467.69	1232.88
467.89	1327.08
468.10	1314.80
468.30	1200.11
468.50	1277.93
468.71	1275.88
468.91	1259.50
469.11	1222.64
469.31	1259.50
469.52	1267.69
469.72	1243.12
469.92	1333.23
470.13	1310.70
470.33	1322.99
470.53	1279.98
470.73	1294.32
470.94	1273.84
471.14	1277.93
471.34	1302.51
471.54	1263.60
471.75	1306.60
471.95	1296.36
472.15	1257.45
472.36	1228.78
472.56	1304.56
472.76	1261.55
472.96	1294.32
473.17	1241.07
473.37	1273.84
473.57	1298.41
473.77	1265.64
473.98	1286.12
474.18	1251.31
474.38	1232.88
474.58	1245.16
474.79	1300.46
474.99	1349.61
475.19	1245.16
475.39	1310.70
475.60	1273.84
475.80	1294.32
476.00	1249.26
476.20	1263.60
476.41	1251.31
476.61	1259.50
476.81	1263.60
477.01	1339.37
477.21	1251.31
477.42	1253.36
477.62	1310.70
477.82	1239.02
478.02	1261.55
478.23	1189.87
478.43	1193.97
478.63	1300.46
478.83	1292.27
479.03	1282.03
479.24	1277.93
479.44	1255.40
479.64	1335.28
479.84	1294.32
480.04	1269.74
480.25	1212.40
480.45	1277.93
480.65	1312.75
480.85	1230.83
481.06	1282.03
481.26	1327.08
481.46	1257.45
481.66	1263.60
481.86	1296.36
482.06	1298.41
482.27	1249.26
482.47	1290.22
482.67	1261.55
482.87	1269.74
483.07	1208.30
483.28	1236.97
483.48	1271.79
483.68	1255.40
483.88	1265.64
484.08	1310.70
484.29	1351.66
484.49	1265.64
484.69	1337.32
484.89	1306.60
485.09	1220.59
485.29	1284.08
485.50	1279.98
485.70	1251.31
485.90	1279.98
486.10	1189.87
486.30	1259.50
486.50	1257.45
486.71	1251.31
486.91	1304.56
487.11	1322.99
487.31	1273.84
487.51	1300.46
487.71	1269.74
487.91	1200.11
488.12	1331.18
488.32	1249.26
488.52	1253.36
488.72	1294.32
488.92	1245.16
489.12	1257.45
489.32	1300.46
489.53	1230.83
489.73	1265.64
489.93	1294.32
490.13	1214.45
490.33	1288.17
490.53	1255.40
490.73	1329.13
490.94	1257.45
491.14	1325.04
491.34	1228.78
491.54	1263.60
491.74	1277.93
491.94	1269.74
492.14	1218.54
492.34	1271.79
492.54	1304.56
492.75	1275.88
492.95	1232.88
493.15	1220.59
493.35	1310.70
493.55	1331.18
493.75	1318.89
493.95	1310.70
494.15	1247.21
494.35	1345.52
494.56	1275.88
494.76	1255.40
494.96	1265.64
495.16	1234.93
495.36	1306.60
495.56	1282.03
495.76	1239.02
495.96	1257.45
496.16	1279.98
496.36	1284.08
496.56	1286.12
496.77	1261.55
496.97	1302.51
497.17	1267.69
497.37	1282.03
497.57	1327.08
497.77	1322.99
497.97	1224.69
498.17	1273.84
498.37	1267.69
498.57	1253.36
498.77	1265.64
498.97	1259.50
499.17	1249.26
499.38	1255.40
499.58	1296.36
499.78	1351.66
499.98	1247.21
500.18	1257.45
500.38	1279.98
500.58	1314.80
500.78	1304.56
500.98	1290.22
501.18	1210.35
501.38	1241.07
501.58	1273.84
501.78	1269.74
501.98	1247.21
502.18	1271.79
502.38	1257.45
502.58	1296.36
502.78	1286.12
502.98	1273.84
503.18	1265.64
503.38	1271.79
503.59	1265.64
503.79	1234.93
503.99	1247.21
504.19	1210.35
504.39	1308.65
504.59	1329.13
504.79	1247.21
504.99	1232.88
505.19	1325.04
505.39	1290.22
505.59	1257.45
505.79	1261.55
505.99	1298.41
506.19	1312.75
506.39	1304.56
506.59	1236.97
506.79	1273.84
506.99	1329.13
507.19	1222.64
507.39	1314.80
507.59	1286.12
507.79	1310.70
507.99	1247.21
508.19	1251.31
508.39	1251.31
508.59	1282.03
508.79	1279.98
508.99	1253.36
509.19	1304.56
509.39	1257.45
509.59	1288.17
509.79	1322.99
509.99	1271.79
510.19	1341.42
510.39	1236.97
510.59	1263.60
510.79	1243.12
510.99	1320.94
511.19	1267.69
511.39	1271.79
511.59	1263.60
511.79	1290.22
511.99	1224.69
512.19	1277.93
512.38	1298.41
512.58	1189.87
512.78	1245.16
512.98	1251.31
513.18	1335.28
513.38	1224.69
513.58	1304.56
513.78	1318.89
513.98	1263.60
514.18	1273.84
514.38	1226.73
514.58	1335.28
514.78	1191.92
514.98	1245.16
515.18	1325.04
515.38	1304.56
515.58	1322.99
515.78	1306.60
515.98	1187.82
516.18	1296.36
516.38	1277.93
516.57	1265.64
516.77	1271.79
516.97	1153.01
517.17	1275.88
517.37	1376.24
517.57	1202.16
517.77	1273.84
517.97	1277.93
518.17	1277.93
518.37	1308.65
518.57	1259.50
518.77	1320.94
518.97	1275.88
519.16	1265.64
519.36	1255.40
519.56	1302.51
519.76	1298.41
519.96	1241.07
520.16	1337.32
520.36	1263.60
520.56	1314.80
520.76	1296.36
520.96	1335.28
521.16	1308.65
521.35	1265.64
521.55	1214.45
521.75	1191.92
521.95	1329.13
522.15	1241.07
522.35	1241.07
522.55	1261.55
522.75	1222.64
522.95	1267.69
523.14	1308.65
523.34	1290.22
523.54	1255.40
523.74	1275.88
523.94	1263.60
524.14	1187.82
524.34	1267.69
524.54	1308.65
524.73	1279.98
524.93	1314.80
525.13	1284.08
525.33	1335.28
525.53	1314.80
525.73	1255.40
525.93	1282.03
526.13	1269.74
526.32	1222.64
526.52	1312.75
526.72	1279.98
526.92	1232.88
527.12	1261.55
527.32	1259.50
527.52	1273.84
527.71	1232.88
527.91	1263.60
528.11	1243.12
528.31	1316.84
528.51	1241.07
528.71	1234.93
528.90	1239.02
529.10	1290.22
529.30	1288.17
529.50	1363.95
529.70	1218.54
529.90	1230.83
530.09	1300.46
530.29	1304.56
530.49	1314.80
530.69	1320.94
530.89	1306.60
531.09	1306.60
531.28	1294.32
531.48	1239.02
531.68	1290.22
531.88	1327.08
532.08	1189.87
532.28	1247.21
532.47	1245.16
532.67	1363.95
532.87	1249.26
533.07	1277.93
533.27	1236.97
533.46	1247.21
533.66	1296.36
533.86	1279.98
534.06	1269.74
534.26	1290.22
534.45	1249.26
534.65	1288.17
534.85	1251.31
535.05	1337.32
535.25	1286.12
535.44	1290.22
535.64	1236.97
535.84	1208.30
536.04	1230.83
536.24	1249.26
536.43	1290.22
536.63	1259.50
536.83	1294.32
537.03	1239.02
537.22	1271.79
537.42	1230.83
537.62	1245.16
537.82	1267.69
538.02	1214.45
538.21	1302.51
538.41	1243.12
538.61	1296.36
538.81	1249.26
539.00	1273.84
539.20	1245.16
539.40	1314.80
539.60	1265.64
539.79	1292.27
539.99	1288.17
540.19	1312.75
540.39	1257.45
540.58	1261.55
540.78	1290.22
540.98	1273.84
541.18	1261.55
541.37	1204.21
541.57	1294.32
541.77	1333.23
541.97	1345.52
542.16	1306.60
542.36	1247.21
542.56	1255.40
542.76	1257.45
542.95	1308.65
543.15	1269.74
543.35	1265.64
543.54	1298.41
543.74	1290.22
543.94	1284.08
544.14	1296.36
544.33	1308.65
544.53	1255.40
544.73	1243.12
544.93	1314.80
545.12	1228.78
545.32	1347.56
545.52	1191.92
545.71	1269.74
545.91	1265.64
546.11	1222.64
546.30	1249.26
546.50	1255.40
546.70	1290.22
546.90	1265.64
547.09	1241.07
547.29	1247.21
547.49	1251.31
547.68	1318.89
547.88	1243.12
548.08	1298.41
548.27	1310.70
548.47	1189.87
548.67	1316.84
548.87	1282.03
549.06	1318.89
549.26	1196.01
549.46	1255.40
549.65	1302.51
549.85	1306.60
550.05	1232.88
550.24	1286.12
550.44	1296.36
550.64	1294.32
550.83	1277.93
551.03	1265.64
551.23	1271.79
551.42	1239.02
551.62	1183.73
551.82	1220.59
552.01	1271.79
552.21	1245.16
552.41	1345.52
552.60	1193.97
552.80	1282.03
553.00	1290.22
553.19	1279.98
553.39	1198.06
553.59	1253.36
553.78	1292.27
553.98	1304.56
554.17	1265.64
554.37	1310.70
554.57	1333.23
554.76	1259.50
554.96	1310.70
555.16	1312.75
555.35	1335.28
555.55	1279.98
555.75	1261.55
555.94	1329.13
556.14	1286.12
556.33	1288.17
556.53	1220.59
556.73	1273.84
556.92	1304.56
557.12	1353.71
557.32	1310.70
557.51	1304.56
557.71	1288.17
557.90	1335.28
558.10	1259.50
558.30	1282.03
558.49	1263.60
558.69	1185.77
558.88	1347.56
559.08	1329.13
559.28	1282.03
559.47	1286.12
559.67	1304.56
559.86	1210.35
560.06	1275.88
560.26	1292.27
560.45	1355.76
560.65	1290.22
560.84	1306.60
561.04	1267.69
561.24	1304.56
561.43	1300.46
561.63	1169.39
561.82	1306.60
562.02	1322.99
562.22	1282.03
562.41	1249.26
562.61	1300.46
562.80	1292.27
563.00	1300.46
563.19	1255.40
563.39	1288.17
563.59	1331.18
563.78	1259.50
563.98	1249.26
564.17	1343.47
564.37	1259.50
564.56	1275.88
564.76	1255.40
564.96	1239.02
565.15	1306.60
565.35	1314.80
565.54	1271.79
565.74	1279.98
565.93	1261.55
566.13	1298.41
566.32	1341.42
566.52	1306.60
566.71	1257.45
566.91	1363.95
567.11	1343.47
567.30	1226.73
567.50	1361.90
567.69	1247.21
567.89	1314.80
568.08	1318.89
568.28	1294.32
568.47	1304.56
568.67	1318.89
568.86	1259.50
569.06	1239.02
569.25	1339.37
569.45	1282.03
569.64	1265.64
569.84	1331.18
570.04	1318.89
570.23	1302.51
570.43	1261.55
570.62	1341.42
570.82	1304.56
571.01	1304.56
571.21	1245.16
571.40	1296.36
571.60	1322.99
571.79	1279.98
571.99	1288.17
572.18	1271.79
572.38	1269.74
572.57	1331.18
572.77	1368.04
572.96	1335.28
573.16	1286.12
573.35	1263.60
573.55	1269.74
573.74	1327.08
573.94	1329.13
574.13	1275.88
574.33	1249.26
574.52	1279.98
574.71	1210.35
574.91	1353.71
575.10	1245.16
575.30	1306.60
575.49	1222.64
575.69	1241.07
575.88	1259.50
576.08	1314.80
576.27	1273.84
576.47	1304.56
576.66	1239.02
576.86	1261.55
577.05	1294.32
577.25	1241.07
577.44	1331.18
577.64	1249.26
577.83	1308.65
578.02	1234.93
578.22	1239.02
578.41	1294.32
578.61	1232.88
578.80	1196.01
579.00	1337.32
579.19	1255.40
579.39	1361.90
579.58	1236.97
579.77	1277.93
579.97	1282.03
580.16	1288.17
580.36	1310.70
580.55	1306.60
580.75	1265.64
580.94	1345.52
581.13	1267.69
581.33	1288.17
581.52	1347.56
581.72	1261.55
581.91	1361.90
582.11	1306.60
582.30	1284.08
582.49	1292.27
582.69	1353.71
582.88	1335.28
583.08	1318.89
583.27	1253.36
583.47	1353.71
583.66	1273.84
583.85	1290.22
584.05	1267.69
584.24	1374.19
584.44	1298.41
584.63	1275.88
584.82	1306.60
585.02	1308.65
585.21	1271.79
585.41	1279.98
585.60	1310.70
585.79	1290.22
585.99	1236.97
586.18	1255.40
586.37	1343.47
586.57	1310.70
586.76	1259.50
586.96	1257.45
587.15	1189.87
587.34	1277.93
587.54	1296.36
587.73	1335.28
587.93	1343.47
588.12	1259.50
588.31	1236.97
588.51	1275.88
588.70	1218.54
588.89	1290.22
589.09	1290.22
589.28	1318.89
589.47	1257.45
589.67	1245.16
589.86	1302.51
590.06	1282.03
590.25	1286.12
590.44	1275.88
590.64	1312.75
590.83	1269.74
591.02	1282.03
591.22	1331.18
591.41	1337.32
591.60	1302.51
591.80	1259.50
591.99	1282.03
592.18	1261.55
592.38	1271.79
592.57	1257.45
592.76	1290.22
592.96	1292.27
593.15	1253.36
593.34	1249.26
593.54	1353.71
593.73	1312.75
593.92	1255.40
594.12	1257.45
594.31	1302.51
594.50	1249.26
594.70	1257.45
594.89	1290.22
595.08	1322.99
595.28	1298.41
595.47	1300.46
595.66	1294.32
595.86	1308.65
596.05	1296.36
596.24	1282.03
596.43	1257.45
596.63	1226.73
596.82	1265.64
597.01	1366.00
597.21	1347.56
597.40	1228.78
597.59	1312.75
597.79	1261.55
597.98	1322.99
598.17	1302.51
598.36	1198.06
598.56	1302.51
598.75	1261.55
598.94	1329.13
599.14	1261.55
599.33	1251.31
599.52	1265.64
599.71	1374.19
599.91	1275.88
600.10	1302.51
600.29	1296.36
600.48	1333.23
600.68	1325.04
600.87	1247.21
601.06	1298.41
601.26	1255.40
601.45	1273.84
601.64	1196.01
601.83	1288.17
602.03	1308.65
602.22	1304.56
602.41	1374.19
602.60	1284.08
602.80	1245.16
602.99	1259.50
603.18	1320.94
603.37	1320.94
603.57	1269.74
603.76	1259.50
603.95	1263.60
604.14	1341.42
604.34	1320.94
604.53	1253.36
604.72	1294.32
604.91	1314.80
605.10	1386.47
605.30	1214.45
605.49	1216.49
605.68	1314.80
605.87	1220.59
606.07	1292.27
606.26	1286.12
606.45	1286.12
606.64	1249.26
606.84	1261.55
607.03	1277.93
607.22	1396.71
607.41	1251.31
607.60	1298.41
607.80	1361.90
607.99	1265.64
608.18	1249.26
608.37	1243.12
608.56	1269.74
608.76	1333.23
608.95	1304.56
609.14	1322.99
609.33	1296.36
609.52	1331.18
609.72	1255.40
609.91	1273.84
610.10	1296.36
610.29	1200.11
610.48	1273.84
610.68	1259.50
610.87	1230.83
611.06	1255.40
611.25	1271.79
611.44	1318.89
611.63	1206.25
611.83	1366.00
612.02	1253.36
612.21	1279.98
612.40	1308.65
612.59	1226.73
612.79	1269.74
612.98	1232.88
613.17	1241.07
613.36	1335.28
613.55	1288.17
613.74	1255.40
613.93	1341.42
614.13	1259.50
614.32	1228.78
614.51	1255.40
614.70	1296.36
614.89	1288.17
615.08	1308.65
615.28	1316.84
615.47	1255.40
615.66	1318.89
615.85	1308.65
616.04	1204.21
616.23	1275.88
616.42	1320.94
616.62	1243.12
616.81	1286.12
617.00	1241.07
617.19	1296.36
617.38	1263.60
617.57	1284.08
617.76	1306.60
617.95	1271.79
618.15	1284.08
618.34	1325.04
618.53	1165.29
618.72	1308.65
618.91	1361.90
619.10	1279.98
619.29	1284.08
619.48	1273.84
619.68	1265.64
619.87	1345.52
620.06	1288.17
620.25	1282.03
620.44	1202.16
620.63	1345.52
620.82	1310.70
621.01	1337.32
621.20	1261.55
621.39	1249.26
621.59	1265.64
621.78	1341.42
621.97	1347.56
622.16	1314.80
622.35	1253.36
622.54	1290.22
622.73	1251.31
622.92	1273.84
623.11	1306.60
623.30	1306.60
623.49	1275.88
623.68	1310.70
623.88	1322.99
624.07	1257.45
624.26	1255.40
624.45	1232.88
624.64	1277.93
624.83	1200.11
625.02	1300.46
625.21	1269.74
625.40	1286.12
625.59	1275.88
625.78	1279.98
625.97	1279.98
626.16	1249.26
626.35	1302.51
626.54	1300.46
626.74	1282.03
626.93	1267.69
627.12	1298.41
627.31	1230.83
627.50	1271.79
627.69	1269.74
627.88	1314.80
628.07	1259.50
628.26	1249.26
628.45	1284.08
628.64	1222.64
628.83	1245.16
629.02	1251.31
629.21	1325.04
629.40	1269.74
629.59	1302.51
629.78	1302.51
629.97	1316.84
630.16	1361.90
630.35	1294.32
630.54	1249.26
630.73	1318.89
630.92	1271.79
631.11	1306.60
631.30	1411.05
631.49	1396.71
631.68	1505.26
631.87	1769.44
632.06	2228.19
632.25	1863.65
632.44	2066.40
632.63	2101.22
632.82	2570.20
633.01	4661.18
633.20	3723.21
633.39	3223.50
633.58	2504.67
633.77	3706.82
633.96	4865.97
634.15	4868.02
634.34	3870.66
634.53	3205.07
634.72	2693.08
634.91	2246.62
635.10	2195.42
635.29	2074.59
635.48	2074.59
635.67	1996.77
635.86	1814.50
636.05	1728.49
636.24	1566.70
636.43	1402.86
636.62	1443.82
636.81	1372.14
637.00	1398.76
637.19	1366.00
637.38	1378.28
637.57	1331.18
637.76	1357.80
637.95	1304.56
638.14	1306.60
638.33	1335.28
638.52	1341.42
638.71	1372.14
638.89	1288.17
639.08	1316.84
639.27	1236.97
639.46	1263.60
639.65	1292.27
639.84	1230.83
640.03	1333.23
640.22	1306.60
640.41	1234.93
640.60	1288.17
640.79	1234.93
640.98	1249.26
641.17	1329.13
641.36	1243.12
641.55	1267.69
641.74	1312.75
641.92	1304.56
642.11	1310.70
642.30	1253.36
642.49	1247.21
642.68	1359.85
642.87	1277.93
643.06	1251.31
643.25	1325.04
643.44	1296.36
643.63	1298.41
643.82	1290.22
644.00	1314.80
644.19	1296.36
644.38	1275.88
644.57	1206.25
644.76	1222.64
644.95	1298.41
645.14	1292.27
645.33	1341.42
645.52	1261.55
645.71	1286.12
645.89	1220.59
646.08	1241.07
646.27	1261.55
646.46	1296.36
646.65	1245.16
646.84	1236.97
647.03	1257.45
647.22	1275.88
647.40	1261.55
647.59	1310.70
647.78	1325.04
647.97	1296.36
648.16	1273.84
648.35	1275.88
648.54	1294.32
648.73	1327.08
648.91	1361.90
649.10	1290.22
649.29	1302.51
649.48	1259.50
649.67	1275.88
649.86	1320.94
650.05	1226.73
650.23	1271.79
650.42	1218.54
650.61	1296.36
650.80	1257.45
650.99	1282.03
651.18	1261.55
651.36	1329.13
651.55	1261.55
651.74	1228.78
651.93	1341.42
652.12	1226.73
652.31	1312.75
652.49	1273.84
652.68	1296.36
652.87	1320.94
653.06	1189.87
653.25	1255.40
653.44	1277.93
653.62	1282.03
653.81	1222.64
654.00	1318.89
654.19	1345.52
654.38	1216.49
654.56	1298.41
654.75	1243.12
654.94	1339.37
655.13	1275.88
655.32	1294.32
655.51	1282.03
655.69	1308.65
655.88	1320.94
656.07	1236.97
656.26	1230.83
656.45	1247.21
656.63	1333.23
656.82	1243.12
657.01	1251.31
657.20	1261.55
657.38	1234.93
657.57	1308.65
657.76	1331.18
657.95	1271.79
658.14	1255.40
658.32	1273.84
658.51	1224.69
658.70	1253.36
658.89	1378.28
659.08	1314.80
659.26	1232.88
659.45	1275.88
659.64	1249.26
659.83	1265.64
660.01	1314.80
660.20	1279.98
660.39	1357.80
660.58	1316.84
660.76	1173.49
660.95	1243.12
661.14	1241.07
661.33	1269.74
661.51	1259.50
661.70	1261.55
661.89	1261.55
662.08	1222.64
662.26	1251.31
662.45	1265.64
662.64	1202.16
662.83	1304.56
663.01	1306.60
663.20	1218.54
663.39	1228.78
663.58	1267.69
663.76	1239.02
663.95	1214.45
664.14	1294.32
664.32	1255.40
664.51	1318.89
664.70	1302.51
664.89	1265.64
665.07	1277.93
665.26	1331.18
665.45	1251.31
665.64	1279.98
665.82	1220.59
666.01	1239.02
666.20	1236.97
666.38	1239.02
666.57	1292.27
666.76	1226.73
666.95	1220.59
667.13	1249.26
667.32	1322.99
667.51	1271.79
667.69	1243.12
667.88	1253.36
668.07	1304.56
668.25	1265.64
668.44	1269.74
668.63	1251.31
668.81	1308.65
669.00	1298.41
669.19	1298.41
669.38	1271.79
669.56	1292.27
669.75	1277.93
669.94	1271.79
670.12	1234.93
670.31	1259.50
670.50	1253.36
670.68	1361.90
670.87	1247.21
671.06	1198.06
671.24	1263.60
671.43	1288.17
671.62	1198.06
671.80	1259.50
671.99	1234.93
672.18	1331.18
672.36	1294.32
672.55	1310.70
672.74	1261.55
672.92	1261.55
673.11	1249.26
673.29	1314.80
673.48	1232.88
673.67	1259.50
673.85	1347.56
674.04	1273.84
674.23	1296.36
674.41	1259.50
674.60	1273.84
674.79	1185.77
674.97	1279.98
675.16	1273.84
675.34	1363.95
675.53	1308.65
675.72	1269.74
675.90	1292.27
676.09	1314.80
676.28	1277.93
676.46	1320.94
676.65	1224.69
676.83	1269.74
677.02	1273.84
677.21	1259.50
677.39	1279.98
677.58	1308.65
677.77	1357.80
677.95	1251.31
678.14	1222.64
678.32	1216.49
678.51	1247.21
678.70	1298.41
678.88	1212.40
679.07	1288.17
679.25	1279.98
679.44	1271.79
679.63	1275.88
679.81	1294.32
680.00	1339.37
680.18	1226.73
680.37	1230.83
680.55	1273.84
680.74	1267.69
680.93	1239.02
681.11	1196.01
681.30	1226.73
681.48	1251.31
681.67	1273.84
681.85	1312.75
682.04	1241.07
682.23	1298.41
682.41	1290.22
682.60	1316.84
682.78	1232.88
682.97	1214.45
683.15	1263.60
683.34	1241.07
683.53	1210.35
683.71	1294.32
683.90	1271.79
684.08	1183.73
684.27	1163.25
684.45	1290.22
684.64	1271.79
684.82	1282.03
685.01	1304.56
685.19	1261.55
685.38	1222.64
685.57	1175.53
685.75	1269.74
685.94	1253.36
686.12	1222.64
686.31	1284.08
686.49	1263.60
686.68	1261.55
686.86	1249.26
687.05	1236.97
687.23	1304.56
687.42	1239.02
687.60	1298.41
687.79	1259.50
687.97	1230.83
688.16	1241.07
688.34	1304.56
688.53	1298.41
688.71	1255.40
688.90	1271.79
689.08	1304.56
689.27	1212.40
689.45	1337.32
689.64	1300.46
689.82	1241.07
690.01	1239.02
690.19	1230.83
690.38	1251.31
690.56	1214.45
690.75	1216.49
690.93	1267.69
691.12	1247.21
691.30	1273.84
691.49	1275.88
691.67	1185.77
691.86	1320.94
692.04	1310.70
692.23	1290.22
692.41	1236.97
692.60	1247.21
692.78	1277.93
692.97	1202.16
693.15	1335.28
693.34	1331.18
693.52	1212.40
693.71	1267.69
693.89	1216.49
694.08	1298.41
694.26	1241.07
694.44	1302.51
694.63	1298.41
694.81	1253.36
695.00	1236.97
695.18	1267.69
695.37	1247.21
695.55	1261.55
695.74	1337.32
695.92	1267.69
696.10	1241.07
696.29	1277.93
696.47	1306.60
696.66	1312.75
696.84	1296.36
697.03	1257.45
697.21	1239.02
697.40	1302.51
697.58	1239.02
697.76	1247.21
697.95	1222.64
698.13	1314.80
698.32	1230.83
698.50	1339.37
698.68	1347.56
698.87	1191.92
699.05	1298.41
699.24	1241.07
699.42	1302.51
699.61	1284.08
699.79	1222.64
699.97	1288.17
700.16	1216.49
700.34	1241.07
700.53	1271.79
700.71	1220.59
700.89	1284.08
701.08	1253.36
701.26	1183.73
701.45	1366.00
701.63	1284.08
701.81	1183.73
702.00	1212.40
702.18	1245.16
702.37	1255.40
702.55	1310.70
702.73	1275.88
702.92	1273.84
703.10	1298.41
703.28	1224.69
703.47	1302.51
703.65	1226.73
703.84	1282.03
704.02	1275.88
704.20	1247.21
704.39	1302.51
704.57	1255.40
704.75	1263.60
704.94	1210.35
705.12	1288.17
705.30	1214.45
705.49	1273.84
705.67	1273.84
705.86	1275.88
706.04	1189.87
706.22	1288.17
706.41	1241.07
706.59	1234.93
706.77	1347.56
706.96	1275.88
707.14	1220.59
707.32	1333.23
707.51	1251.31
707.69	1230.83
707.87	1282.03
708.06	1263.60
708.24	1277.93
708.42	1263.60
708.61	1302.51
708.79	1179.63
708.97	1247.21
709.16	1284.08
709.34	1343.47
709.52	1286.12
709.71	1200.11
709.89	1308.65
710.07	1288.17
710.26	1226.73
710.44	1257.45
710.62	1296.36
710.80	1267.69
710.99	1202.16
711.17	1355.76
711.35	1234.93
711.54	1327.08
711.72	1269.74
711.90	1224.69
712.09	1257.45
712.27	1212.40
712.45	1277.93
712.63	1220.59
712.82	1200.11
713.00	1183.73
713.18	1269.74
713.37	1284.08
713.55	1247.21
713.73	1257.45
713.91	1341.42
714.10	1277.93
714.28	1302.51
714.46	1230.83
714.65	1300.46
714.83	1288.17
715.01	1212.40
715.19	1200.11
715.38	1265.64
715.56	1206.25
715.74	1357.80
715.92	1241.07
716.11	1269.74
716.29	1298.41
716.47	1359.85
716.65	1236.97
716.84	1300.46
717.02	1251.31
717.20	1292.27
717.38	1257.45
717.57	1265.64
717.75	1175.53
717.93	1247.21
718.11	1339.37
718.30	1288.17
718.48	1284.08
718.66	1259.50
718.84	1320.94
719.03	1341.42
719.21	1273.84
719.39	1245.16
719.57	1322.99
719.75	1224.69
719.94	1261.55
720.12	1290.22
720.30	1292.27
720.48	1179.63
720.67	1279.98
720.85	1267.69
721.03	1245.16
721.21	1251.31
721.39	1308.65
721.58	1261.55
721.76	1247.21
721.94	1218.54
722.12	1257.45
722.30	1265.64
722.49	1216.49
722.67	1294.32
722.85	1306.60
723.03	1185.77
723.21	1236.97
723.40	1314.80
723.58	1267.69
723.76	1234.93
723.94	1251.31
724.12	1372.14
724.30	1267.69
724.49	1306.60
724.67	1259.50
724.85	1245.16
725.03	1228.78
725.21	1208.30
725.40	1290.22
725.58	1300.46
725.76	1218.54
725.94	1253.36
726.12	1251.31
726.30	1263.60
726.49	1265.64
726.67	1216.49
726.85	1243.12
727.03	1261.55
727.21	1259.50
727.39	1257.45
727.57	1292.27
727.76	1259.50
727.94	1198.06
728.12	1212.40
728.30	1271.79
728.48	1239.02
728.66	1214.45
728.84	1222.64
729.03	1245.16
729.21	1249.26
729.39	1290.22
729.57	1220.59
729.75	1218.54
729.93	1331.18
730.11	1171.44
730.30	1271.79
730.48	1310.70
730.66	1298.41
730.84	1292.27
731.02	1259.50
731.20	1232.88
731.38	1286.12
731.56	1288.17
731.74	1239.02
731.93	1288.17
732.11	1243.12
732.29	1273.84
732.47	1239.02
732.65	1230.83
732.83	1304.56
733.01	1249.26
733.19	1284.08
733.37	1273.84
733.56	1257.45
733.74	1263.60
733.92	1261.55
734.10	1263.60
734.28	1191.92
734.46	1224.69
734.64	1200.11
734.82	1265.64
735.00	1306.60
735.18	1327.08
735.36	1224.69
735.54	1265.64
735.73	1251.31
735.91	1304.56
736.09	1239.02
736.27	1249.26
736.45	1277.93
736.63	1269.74
736.81	1306.60
736.99	1267.69
737.17	1279.98
737.35	1304.56
737.53	1234.93
737.71	1279.98
737.89	1275.88
738.07	1263.60
738.25	1279.98
738.43	1343.47
738.61	1271.79
738.80	1259.50
738.98	1333.23
739.16	1282.03
739.34	1265.64
739.52	1265.64
739.70	1249.26
739.88	1273.84
740.06	1331.18
740.24	1271.79
740.42	1282.03
740.60	1230.83
740.78	1288.17
740.96	1214.45
741.14	1288.17
741.32	1282.03
741.50	1312.75
741.68	1224.69
741.86	1241.07
742.04	1265.64
742.22	1216.49
742.40	1241.07
742.58	1228.78
742.76	1228.78
742.94	1261.55
743.12	1329.13
743.30	1269.74
743.48	1286.12
743.66	1304.56
743.84	1351.66
744.02	1216.49
744.20	1259.50
744.38	1314.80
744.56	1261.55
744.74	1316.84
744.92	1294.32
745.10	1218.54
745.28	1224.69
745.46	1308.65
745.64	1241.07
745.82	1290.22
746.00	1259.50
746.18	1216.49
746.36	1247.21
746.54	1206.25
746.72	1263.60
746.90	1251.31
747.08	1271.79
747.26	1300.46
747.44	1234.93
747.62	1288.17
747.80	1234.93
747.98	1269.74
748.15	1228.78
748.33	1193.97
748.51	1277.93
748.69	1257.45
748.87	1347.56
749.05	1208.30
749.23	1263.60
749.41	1230.83
749.59	1359.85
749.77	1343.47
749.95	1269.74
750.13	1251.31
750.31	1288.17
750.49	1249.26
750.67	1269.74
750.85	1296.36
751.03	1222.64
751.20	1275.88
751.38	1294.32
751.56	1243.12
751.74	1265.64
751.92	1275.88
752.10	1243.12
752.28	1288.17
752.46	1265.64
752.64	1261.55
752.82	1271.79
753.00	1249.26
753.18	1196.01
753.35	1282.03
753.53	1312.75
753.71	1265.64
753.89	1241.07
754.07	1198.06
754.25	1306.60
754.43	1273.84
754.61	1255.40
754.79	1339.37
754.97	1316.84
755.14	1249.26
755.32	1241.07
755.50	1247.21
755.68	1325.04
755.86	1200.11
756.04	1232.88
756.22	1259.50
756.40	1275.88
756.57	1316.84
756.75	1302.51
756.93	1273.84
757.11	1265.64
757.29	1222.64
757.47	1257.45
757.65	1230.83
757.82	1241.07
758.00	1275.88
758.18	1277.93
758.36	1269.74
758.54	1224.69
758.72	1308.65
758.90	1220.59
759.07	1290.22
759.25	1327.08
759.43	1277.93
759.61	1239.02
759.79	1267.69
759.97	1220.59
760.15	1234.93
760.32	1259.50
760.50	1259.50
760.68	1247.21
760.86	1245.16
761.04	1226.73
761.22	1198.06
761.39	1269.74
761.57	1286.12
761.75	1249.26
761.93	1263.60
762.11	1300.46
762.28	1277.93
762.46	1288.17
762.64	1271.79
762.82	1284.08
763.00	1273.84
763.18	1181.68
763.35	1239.02
763.53	1312.75
763.71	1286.12
763.89	1251.31
764.07	1206.25
764.24	1265.64
764.42	1286.12
764.60	1261.55
764.78	1302.51
764.96	1263.60
765.13	1245.16
765.31	1273.84
765.49	1267.69
765.67	1257.45
765.84	1245.16
766.02	1208.30
766.20	1255.40
766.38	1253.36
766.56	1216.49
766.73	1284.08
766.91	1316.84
767.09	1300.46
767.27	1257.45
767.44	1218.54
767.62	1259.50
767.80	1312.75
767.98	1265.64
768.15	1265.64
768.33	1218.54
768.51	1251.31
768.69	1298.41
768.87	1296.36
769.04	1239.02
769.22	1216.49
769.40	1257.45
769.58	1294.32
769.75	1267.69
769.93	1253.36
770.11	1249.26
770.28	1224.69
770.46	1277.93
770.64	1234.93
770.82	1271.79
770.99	1234.93
771.17	1232.88
771.35	1273.84
771.53	1234.93
771.70	1277.93
771.88	1173.49
772.06	1261.55
772.23	1243.12
772.41	1171.44
772.59	1239.02
772.77	1322.99
772.94	1257.45
773.12	1163.25
773.30	1243.12
773.47	1304.56
773.65	1300.46
773.83	1282.03
774.01	1216.49
774.18	1312.75
774.36	1279.98
774.54	1236.97
774.71	1279.98
774.89	1212.40
775.07	1306.60
775.24	1271.79
775.42	1191.92
775.60	1335.28
775.78	1275.88
775.95	1304.56
776.13	1218.54
776.31	1269.74
776.48	1265.64
776.66	1202.16
776.84	1284.08
777.01	1277.93
777.19	1300.46
777.37	1290.22
777.54	1241.07
777.72	1255.40
777.90	1257.45
778.07	1257.45
778.25	1310.70
778.43	1179.63
778.60	1273.84
778.78	1269.74
778.96	1290.22
779.13	1302.51
779.31	1214.45
779.49	1263.60
779.66	1286.12
779.84	1306.60
780.01	1259.50
780.19	1243.12
780.37	1241.07
780.54	1318.89
780.72	1243.12
780.90	1284.08
781.07	1251.31
781.25	1271.79
781.43	1310.70
781.60	1304.56
781.78	1265.64
781.95	1265.64
782.13	1232.88
782.31	1279.98
782.48	1312.75
782.66	1200.11
782.83	1267.69
783.01	1298.41
783.19	1267.69
783.36	1255.40
783.54	1251.31
783.72	1196.01
783.89	1331.18
784.07	1222.64
784.24	1292.27
784.42	1259.50
784.60	1243.12
784.77	1279.98
784.95	1208.30
785.12	1228.78
785.30	1368.04
785.47	1263.60
785.65	1279.98
785.83	1296.36
786.00	1216.49
786.18	1312.75
786.35	1175.53
786.53	1239.02
786.71	1275.88
786.88	1277.93
787.06	1294.32
787.23	1214.45
787.41	1275.88
787.58	1331.18
787.76	1236.97
787.94	1312.75
788.11	1257.45
788.29	1224.69
788.46	1282.03
788.64	1214.45
788.81	1243.12
788.99	1296.36
789.16	1312.75
789.34	1294.32
789.52	1243.12
789.69	1232.88
789.87	1189.87
790.04	1320.94
790.22	1247.21
790.39	1275.88
790.57	1236.97
790.74	1241.07
790.92	1294.32
791.09	1298.41
791.27	1322.99
791.44	1290.22
791.62	1271.79
791.79	1288.17
791.97	1263.60
792.15	1286.12
792.32	1265.64
792.50	1234.93
792.67	1298.41
792.85	1347.56
793.02	1282.03
793.20	1249.26
793.37	1212.40
793.55	1277.93
793.72	1216.49
793.90	1249.26
794.07	1316.84
794.25	1234.93
794.42	1257.45
794.60	1271.79
794.77	1257.45
794.95	1255.40
795.12	1269.74
795.30	1232.88
795.47	1230.83
795.65	1279.98
795.82	1275.88
796.00	1314.80
796.17	1290.22
796.34	1243.12
796.52	1236.97
796.69	1247.21
796.87	1300.46
797.04	1273.84
797.22	1304.56
797.39	1222.64
797.57	1261.55
797.74	1271.79
797.92	1302.51
798.09	1284.08
798.27	1267.69
798.44	1245.16
798.62	1247.21
798.79	1214.45
798.96	1300.46
799.14	1255.40
799.31	1298.41
799.49	1304.56
799.66	1202.16
799.84	1265.64
800.01	1222.64
800.19	1277.93
800.36	1216.49
800.53	1290.22
800.71	1288.17
800.88	1255.40
801.06	1226.73
801.23	1241.07
801.41	1279.98
801.58	1214.45
801.75	1275.88
801.93	1181.68
802.10	1282.03
802.28	1267.69
802.45	1288.17
802.63	1247.21
802.80	1243.12
802.97	1265.64
803.15	1271.79
803.32	1224.69
803.50	1284.08
803.67	1290.22
803.84	1263.60
804.02	1310.70
804.19	1202.16
804.37	1247.21
804.54	1212.40
804.71	1232.88
804.89	1322.99
805.06	1273.84
805.24	1263.60
805.41	1265.64
805.58	1230.83
805.76	1218.54
805.93	1210.35
806.10	1236.97
806.28	1282.03
806.45	1290.22
806.63	1267.69
806.80	1318.89
806.97	1239.02
807.15	1314.80
807.32	1275.88
807.49	1304.56
807.67	1265.64
807.84	1239.02
808.01	1275.88
808.19	1269.74
808.36	1265.64
808.54	1279.98
808.71	1224.69
808.88	1277.93
809.06	1298.41
809.23	1327.08
809.40	1290.22
809.58	1273.84
809.75	1265.64
809.92	1265.64
810.10	1304.56
810.27	1286.12
810.44	1198.06
810.62	1234.93
810.79	1273.84
810.96	1320.94
811.14	1290.22
811.31	1318.89
811.48	1273.84
811.66	1296.36
811.83	1312.75
812.00	1288.17
812.18	1243.12
812.35	1255.40
812.52	1224.69
812.69	1325.04
812.87	1288.17
813.04	1245.16
813.21	1339.37
813.39	1239.02
813.56	1241.07
813.73	1218.54
813.91	1249.26
814.08	1187.82
814.25	1224.69
814.42	1273.84
814.60	1228.78
814.77	1296.36
814.94	1241.07
815.12	1294.32
815.29	1210.35
815.46	1226.73
815.63	1247.21
815.81	1187.82
815.98	1234.93
816.15	1245.16
816.33	1279.98
816.50	1222.64
816.67	1265.64
816.84	1286.12
817.02	1243.12
817.19	1249.26
817.36	1271.79
817.53	1273.84
817.71	1198.06
817.88	1232.88
818.05	1232.88
818.22	1259.50
818.40	1345.52
818.57	1249.26
818.74	1216.49
818.91	1337.32
819.09	1196.01
819.26	1314.80
819.43	1265.64
819.60	1275.88
819.78	1251.31
819.95	1271.79
820.12	1224.69
820.29	1273.84
820.47	1245.16
820.64	1282.03
820.81	1236.97
820.98	1284.08
821.15	1224.69
821.33	1247.21
821.50	1230.83
821.67	1181.68
821.84	1253.36
822.02	1300.46
822.19	1202.16
822.36	1216.49
822.53	1282.03
822.70	1230.83
822.88	1294.32
823.05	1265.64
823.22	1275.88
823.39	1239.02
823.56	1355.76
823.74	1290.22
823.91	1341.42
824.08	1282.03
824.25	1263.60
824.42	1263.60
824.60	1288.17
824.77	1253.36
824.94	1226.73
825.11	1312.75
825.28	1282.03
825.45	1304.56
825.63	1239.02
825.80	1230.83
825.97	1234.93
826.14	1208.30
826.31	1298.41
826.48	1216.49
826.66	1312.75
826.83	1288.17
827.00	1185.77
827.17	1208.30
827.34	1392.62
827.51	1304.56
827.69	1249.26
827.86	1214.45
828.03	1175.53
828.20	1286.12
828.37	1216.49
828.54	1286.12
828.71	1241.07
828.89	1282.03
829.06	1282.03
829.23	1353.71
829.40	1279.98
829.57	1267.69
829.74	1234.93
829.91	1300.46
830.09	1169.39
830.26	1327.08
830.43	1271.79
830.60	1273.84
830.77	1304.56
830.94	1267.69
831.11	1273.84
831.28	1263.60
831.46	1292.27
831.63	1222.64
831.80	1282.03
831.97	1316.84
832.14	1296.36
832.31	1282.03
832.48	1208.30
832.65	1282.03
832.82	1265.64
832.99	1298.41
833.17	1251.31
833.34	1353.71
833.51	1249.26
833.68	1273.84
833.85	1312.75
834.02	1259.50
834.19	1224.69
834.36	1318.89
834.53	1261.55
834.70	1263.60
834.87	1351.66
835.04	1310.70
835.22	1286.12
835.39	1306.60
835.56	1234.93
835.73	1269.74
835.90	1282.03
836.07	1239.02
836.24	1105.90
836.41	1314.80
836.58	1255.40
836.75	1228.78
836.92	1236.97
837.09	1191.92
837.26	1239.02
837.43	1275.88
837.60	1277.93
837.77	1239.02
837.94	1245.16
838.12	1253.36
838.29	1333.23
838.46	1296.36
838.63	1294.32
838.80	1241.07
838.97	1284.08
839.14	1263.60
839.31	1245.16
839.48	1286.12
839.65	1255.40
839.82	1275.88
839.99	1241.07
840.16	1310.70
840.33	1239.02
840.50	1310.70
840.67	1277.93
840.84	1183.73
841.01	1230.83
841.18	1265.64
841.35	1228.78
841.52	1279.98
841.69	1302.51
841.86	1277.93
842.03	1249.26
842.20	1241.07
842.37	1208.30
842.54	1234.93
842.71	1275.88
842.88	1282.03
843.05	1302.51
843.22	1247.21
843.39	1267.69
843.56	1282.03
843.73	1234.93
843.90	1284.08
844.07	1243.12
844.24	1327.08
844.41	1220.59
844.58	1282.03
844.75	1290.22
844.92	1214.45
845.09	1286.12
845.26	1333.23
845.43	1275.88
845.60	1239.02
845.77	1279.98
845.94	1261.55
846.10	1255.40
846.27	1179.63
846.44	1189.87
846.61	1249.26
846.78	1232.88
846.95	1220.59
847.12	1239.02
847.29	1214.45
847.46	1239.02
847.63	1241.07
847.80	1251.31
847.97	1282.03
848.14	1220.59
848.31	1265.64
848.48	1216.49
848.65	1282.03
848.82	1230.83
848.98	1284.08
849.15	1277.93
849.32	1292.27
849.49	1226.73
849.66	1261.55
849.83	1290.22
850.00	1355.76
850.17	1292.27
850.34	1177.58
850.51	1251.31
850.68	1222.64
850.85	1279.98
851.01	1263.60
851.18	1347.56
851.35	1269.74
851.52	1267.69
851.69	1259.50
851.86	1189.87
852.03	1320.94
852.20	1228.78
852.37	1247.21
852.53	1306.60
852.70	1265.64
852.87	1265.64
853.04	1183.73
853.21	1236.97
853.38	1304.56
853.55	1284.08
853.72	1253.36
853.89	1282.03
854.05	1300.46
854.22	1290.22
854.39	1300.46
854.56	1245.16
854.73	1261.55
854.90	1232.88
855.07	1294.32
855.23	1249.26
855.40	1220.59
855.57	1247.21
855.74	1286.12
855.91	1277.93
856.08	1290.22
856.25	1216.49
856.41	1261.55
856.58	1304.56
856.75	1273.84
856.92	1261.55
857.09	1273.84
857.26	1251.31
857.42	1271.79
857.59	1253.36
857.76	1263.60
857.93	1187.82
858.10	1298.41
858.27	1302.51
858.43	1314.80
858.60	1300.46
858.77	1353.71
858.94	1234.93
859.11	1224.69
859.27	1175.53
859.44	1273.84
859.61	1318.89
859.78	1298.41
859.95	1275.88
860.12	1286.12
860.28	1329.13
860.45	1214.45
860.62	1236.97
860.79	1316.84
860.95	1255.40
861.12	1216.49
861.29	1284.08
861.46	1208.30
861.63	1263.60
861.79	1275.88
861.96	1206.25
862.13	1290.22
862.30	1277.93
862.47	1343.47
862.63	1253.36
862.80	1245.16
862.97	1335.28
863.14	1247.21
863.30	1220.59
863.47	1306.60
863.64	1300.46
863.81	1267.69
863.97	1275.88
864.14	1247.21
864.31	1277.93
864.48	1288.17
864.65	1339.37
864.81	1193.97
864.98	1347.56
865.15	1279.98
865.32	1296.36
865.48	1273.84
865.65	1253.36
865.82	1220.59
865.98	1255.40
866.15	1259.50
866.32	1282.03
866.49	1269.74
866.65	1249.26
866.82	1220.59
866.99	1214.45
867.16	1277.93
867.32	1300.46
867.49	1345.52
867.66	1136.62
867.83	1232.88
867.99	1163.25
868.16	1236.97
868.33	1245.16
868.49	1234.93
868.66	1216.49
868.83	1214.45
868.99	1286.12
869.16	1331.18
869.33	1284.08
869.50	1191.92
869.66	1298.41
869.83	1265.64
870.00	1316.84
870.16	1251.31
870.33	1236.97
870.50	1228.78
870.66	1243.12
870.83	1327.08
871.00	1290.22
871.17	1288.17
871.33	1255.40
871.50	1263.60
871.67	1183.73
871.83	1314.80
872.00	1236.97
872.17	1257.45
872.33	1210.35
872.50	1322.99
872.67	1327.08
872.83	1265.64
873.00	1191.92
873.17	1234.93
873.33	1304.56
873.50	1257.45
873.67	1243.12
873.83	1232.88
874.00	1228.78
874.16	1208.30
874.33	1310.70
874.50	1351.66
874.66	1236.97
874.83	1279.98
875.00	1288.17
875.16	1298.41
875.33	1269.74
875.50	1327.08
875.66	1279.98
875.83	1279.98
875.99	1210.35
876.16	1261.55
876.33	1245.16
876.49	1284.08
876.66	1333.23
876.83	1282.03
876.99	1255.40
877.16	1253.36
877.32	1263.60
877.49	1300.46
877.66	1224.69
877.82	1222.64
877.99	1279.98
878.15	1179.63
878.32	1277.93
878.49	1339.37
878.65	1249.26
878.82	1263.60
878.98	1245.16
879.15	1228.78
879.32	1253.36
879.48	1234.93
879.65	1290.22
879.81	1312.75
879.98	1308.65
880.15	1226.73
880.31	1279.98
880.48	1226.73
880.64	1277.93
880.81	1269.74
880.97	1200.11
881.14	1232.88
881.31	1286.12
881.47	1257.45
881.64	1296.36
881.80	1279.98
881.97	1243.12
882.13	1241.07
882.30	1177.58
882.47	1394.67
882.63	1271.79
882.80	1298.41
882.96	1273.84
883.13	1261.55
883.29	1241.07
883.46	1310.70
883.62	1249.26
883.79	1286.12
883.95	1251.31
884.12	1257.45
884.29	1226.73
884.45	1292.27
884.62	1224.69
884.78	1214.45
884.95	1265.64
885.11	1230.83
885.28	1236.97
885.44	1259.50
885.61	1232.88
885.77	1245.16
885.94	1298.41
886.10	1241.07
886.27	1222.64
886.43	1284.08
886.60	1284.08
886.76	1314.80
886.93	1171.44
887.09	1306.60
887.26	1243.12
887.42	1284.08
887.59	1282.03
887.75	1247.21
887.92	1169.39
888.08	1298.41
888.25	1224.69
888.41	1175.53
888.58	1347.56
888.74	1261.55
888.91	1282.03
>>>>>End Processed Spectral Data<<<<<
