SpectraSuite Data File
++++++++++++++++++++++++++++++++++++
Date: Sun Apr 03 19:55:53 CEST 2016
User: root
Dark Spectrum Present: No
Reference Spectrum Present: No
Number of Sampled Component Spectra: 1
Spectrometers: USB4C02835
Integration Time (usec): 10000 (USB4C02835)
Spectra Averaged: 1 (USB4C02835)
Boxcar Smoothing: 0 (USB4C02835)
Correct for Electrical Dark: No (USB4C02835)
Strobe/Lamp Enabled: No (USB4C02835)
Correct for Detector Non-linearity: No (USB4C02835)
Correct for Stray Light: No (USB4C02835)
Number of Pixels in Processed Spectrum: 3648
>>>>>Begin Processed Spectral Data<<<<<
177.47	1210.35
177.69	1210.35
177.91	1210.35
178.13	1232.88
178.36	1228.78
178.58	1298.41
178.80	1282.03
179.02	1198.06
179.24	1239.02
179.46	1251.31
179.68	1355.76
179.90	1331.18
180.13	1263.60
180.35	1277.93
180.57	1239.02
180.79	1310.70
181.01	1290.22
181.23	1296.36
181.45	1257.45
181.67	1226.73
181.90	1282.03
182.12	1327.08
182.34	1275.88
182.56	1196.01
182.78	1304.56
183.00	1335.28
183.22	1273.84
183.44	1267.69
183.66	1251.31
183.89	1241.07
184.11	1269.74
184.33	1296.36
184.55	1308.65
184.77	1327.08
184.99	1306.60
185.21	1218.54
185.43	1279.98
185.65	1286.12
185.87	1271.79
186.10	1288.17
186.32	1261.55
186.54	1302.51
186.76	1279.98
186.98	1263.60
187.20	1322.99
187.42	1220.59
187.64	1290.22
187.86	1306.60
188.08	1263.60
188.30	1200.11
188.52	1302.51
188.75	1208.30
188.97	1234.93
189.19	1196.01
189.41	1304.56
189.63	1343.47
189.85	1241.07
190.07	1208.30
190.29	1318.89
190.51	1251.31
190.73	1286.12
190.95	1290.22
191.17	1253.36
191.39	1228.78
191.61	1249.26
191.84	1263.60
192.06	1351.66
192.28	1249.26
192.50	1255.40
192.72	1267.69
192.94	1232.88
193.16	1224.69
193.38	1261.55
193.60	1247.21
193.82	1245.16
194.04	1302.51
194.26	1255.40
194.48	1255.40
194.70	1282.03
194.92	1345.52
195.14	1271.79
195.36	1306.60
195.58	1239.02
195.80	1269.74
196.02	1298.41
196.24	1212.40
196.46	1247.21
196.69	1179.63
196.91	1296.36
197.13	1314.80
197.35	1261.55
197.57	1314.80
197.79	1243.12
198.01	1251.31
198.23	1353.71
198.45	1331.18
198.67	1232.88
198.89	1294.32
199.11	1282.03
199.33	1251.31
199.55	1310.70
199.77	1286.12
199.99	1300.46
200.21	1236.97
200.43	1212.40
200.65	1257.45
200.87	1249.26
201.09	1265.64
201.31	1273.84
201.53	1269.74
201.75	1290.22
201.97	1345.52
202.19	1312.75
202.41	1335.28
202.63	1320.94
202.85	1253.36
203.07	1296.36
203.29	1273.84
203.51	1302.51
203.73	1298.41
203.95	1198.06
204.17	1257.45
204.39	1314.80
204.61	1304.56
204.83	1269.74
205.05	1247.21
205.27	1208.30
205.49	1277.93
205.71	1292.27
205.93	1318.89
206.15	1257.45
206.37	1286.12
206.59	1322.99
206.81	1212.40
207.03	1284.08
207.25	1290.22
207.47	1273.84
207.69	1277.93
207.91	1263.60
208.13	1261.55
208.34	1286.12
208.56	1257.45
208.78	1300.46
209.00	1316.84
209.22	1269.74
209.44	1322.99
209.66	1265.64
209.88	1349.61
210.10	1290.22
210.32	1259.50
210.54	1269.74
210.76	1236.97
210.98	1279.98
211.20	1245.16
211.42	1320.94
211.64	1298.41
211.86	1306.60
212.08	1273.84
212.30	1275.88
212.52	1259.50
212.74	1222.64
212.96	1314.80
213.17	1284.08
213.39	1279.98
213.61	1247.21
213.83	1232.88
214.05	1257.45
214.27	1298.41
214.49	1232.88
214.71	1259.50
214.93	1322.99
215.15	1263.60
215.37	1320.94
215.59	1271.79
215.81	1271.79
216.03	1224.69
216.24	1275.88
216.46	1314.80
216.68	1329.13
216.90	1269.74
217.12	1314.80
217.34	1224.69
217.56	1282.03
217.78	1292.27
218.00	1232.88
218.22	1314.80
218.44	1322.99
218.66	1312.75
218.87	1341.42
219.09	1273.84
219.31	1206.25
219.53	1294.32
219.75	1292.27
219.97	1327.08
220.19	1314.80
220.41	1265.64
220.63	1234.93
220.85	1296.36
221.06	1277.93
221.28	1236.97
221.50	1265.64
221.72	1181.68
221.94	1216.49
222.16	1218.54
222.38	1269.74
222.60	1267.69
222.82	1282.03
223.03	1267.69
223.25	1261.55
223.47	1253.36
223.69	1259.50
223.91	1269.74
224.13	1288.17
224.35	1257.45
224.57	1314.80
224.78	1282.03
225.00	1214.45
225.22	1185.77
225.44	1265.64
225.66	1253.36
225.88	1271.79
226.10	1247.21
226.32	1212.40
226.53	1335.28
226.75	1218.54
226.97	1243.12
227.19	1269.74
227.41	1261.55
227.63	1290.22
227.85	1222.64
228.06	1329.13
228.28	1300.46
228.50	1308.65
228.72	1284.08
228.94	1220.59
229.16	1286.12
229.37	1251.31
229.59	1314.80
229.81	1353.71
230.03	1196.01
230.25	1224.69
230.47	1267.69
230.69	1273.84
230.90	1200.11
231.12	1298.41
231.34	1232.88
231.56	1263.60
231.78	1177.58
232.00	1279.98
232.21	1302.51
232.43	1230.83
232.65	1224.69
232.87	1210.35
233.09	1302.51
233.30	1312.75
233.52	1265.64
233.74	1277.93
233.96	1290.22
234.18	1357.80
234.40	1271.79
234.61	1218.54
234.83	1286.12
235.05	1236.97
235.27	1320.94
235.49	1277.93
235.70	1271.79
235.92	1329.13
236.14	1232.88
236.36	1288.17
236.58	1224.69
236.79	1271.79
237.01	1290.22
237.23	1253.36
237.45	1265.64
237.67	1273.84
237.88	1232.88
238.10	1263.60
238.32	1314.80
238.54	1284.08
238.76	1253.36
238.97	1218.54
239.19	1302.51
239.41	1331.18
239.63	1286.12
239.85	1222.64
240.06	1249.26
240.28	1257.45
240.50	1187.82
240.72	1173.49
240.93	1245.16
241.15	1325.04
241.37	1310.70
241.59	1243.12
241.81	1193.97
242.02	1261.55
242.24	1220.59
242.46	1249.26
242.68	1196.01
242.89	1232.88
243.11	1314.80
243.33	1269.74
243.55	1214.45
243.76	1257.45
243.98	1234.93
244.20	1296.36
244.42	1304.56
244.64	1386.47
244.85	1308.65
245.07	1251.31
245.29	1249.26
245.51	1292.27
245.72	1191.92
245.94	1288.17
246.16	1228.78
246.38	1251.31
246.59	1288.17
246.81	1216.49
247.03	1245.16
247.24	1257.45
247.46	1347.56
247.68	1327.08
247.90	1296.36
248.11	1228.78
248.33	1298.41
248.55	1253.36
248.77	1282.03
248.98	1224.69
249.20	1257.45
249.42	1239.02
249.64	1241.07
249.85	1263.60
250.07	1273.84
250.29	1224.69
250.50	1259.50
250.72	1261.55
250.94	1261.55
251.16	1253.36
251.37	1271.79
251.59	1279.98
251.81	1220.59
252.02	1245.16
252.24	1228.78
252.46	1277.93
252.68	1302.51
252.89	1279.98
253.11	1249.26
253.33	1284.08
253.54	1310.70
253.76	1263.60
253.98	1245.16
254.20	1263.60
254.41	1241.07
254.63	1204.21
254.85	1249.26
255.06	1206.25
255.28	1282.03
255.50	1335.28
255.71	1327.08
255.93	1175.53
256.15	1239.02
256.36	1333.23
256.58	1257.45
256.80	1302.51
257.02	1339.37
257.23	1300.46
257.45	1259.50
257.67	1263.60
257.88	1316.84
258.10	1247.21
258.32	1234.93
258.53	1228.78
258.75	1302.51
258.97	1288.17
259.18	1259.50
259.40	1290.22
259.62	1304.56
259.83	1316.84
260.05	1327.08
260.27	1314.80
260.48	1308.65
260.70	1263.60
260.92	1263.60
261.13	1269.74
261.35	1222.64
261.57	1331.18
261.78	1279.98
262.00	1198.06
262.22	1300.46
262.43	1308.65
262.65	1339.37
262.86	1249.26
263.08	1292.27
263.30	1247.21
263.51	1263.60
263.73	1335.28
263.95	1239.02
264.16	1249.26
264.38	1265.64
264.60	1257.45
264.81	1265.64
265.03	1208.30
265.25	1294.32
265.46	1271.79
265.68	1257.45
265.89	1296.36
266.11	1314.80
266.33	1220.59
266.54	1318.89
266.76	1265.64
266.98	1327.08
267.19	1230.83
267.41	1292.27
267.62	1204.21
267.84	1206.25
268.06	1279.98
268.27	1167.34
268.49	1292.27
268.70	1273.84
268.92	1327.08
269.14	1118.19
269.35	1245.16
269.57	1286.12
269.79	1290.22
270.00	1247.21
270.22	1327.08
270.43	1296.36
270.65	1284.08
270.87	1222.64
271.08	1257.45
271.30	1279.98
271.51	1327.08
271.73	1265.64
271.95	1284.08
272.16	1310.70
272.38	1224.69
272.59	1298.41
272.81	1286.12
273.02	1273.84
273.24	1171.44
273.46	1259.50
273.67	1257.45
273.89	1185.77
274.10	1202.16
274.32	1343.47
274.54	1273.84
274.75	1327.08
274.97	1253.36
275.18	1271.79
275.40	1222.64
275.61	1271.79
275.83	1259.50
276.05	1218.54
276.26	1224.69
276.48	1257.45
276.69	1253.36
276.91	1277.93
277.12	1308.65
277.34	1320.94
277.55	1284.08
277.77	1363.95
277.99	1241.07
278.20	1181.68
278.42	1243.12
278.63	1318.89
278.85	1265.64
279.06	1210.35
279.28	1294.32
279.49	1294.32
279.71	1216.49
279.93	1296.36
280.14	1267.69
280.36	1200.11
280.57	1224.69
280.79	1220.59
281.00	1314.80
281.22	1277.93
281.43	1345.52
281.65	1273.84
281.86	1259.50
282.08	1198.06
282.29	1214.45
282.51	1273.84
282.73	1247.21
282.94	1230.83
283.16	1251.31
283.37	1294.32
283.59	1279.98
283.80	1296.36
284.02	1296.36
284.23	1241.07
284.45	1232.88
284.66	1236.97
284.88	1204.21
285.09	1241.07
285.31	1263.60
285.52	1271.79
285.74	1245.16
285.95	1316.84
286.17	1282.03
286.38	1220.59
286.60	1234.93
286.81	1296.36
287.03	1296.36
287.24	1220.59
287.46	1239.02
287.67	1226.73
287.89	1290.22
288.10	1290.22
288.32	1331.18
288.53	1253.36
288.75	1318.89
288.96	1222.64
289.18	1296.36
289.39	1173.49
289.61	1290.22
289.82	1249.26
290.04	1306.60
290.25	1247.21
290.47	1214.45
290.68	1220.59
290.90	1167.34
291.11	1298.41
291.33	1245.16
291.54	1177.58
291.76	1224.69
291.97	1226.73
292.18	1298.41
292.40	1337.32
292.61	1261.55
292.83	1253.36
293.04	1208.30
293.26	1234.93
293.47	1288.17
293.69	1273.84
293.90	1214.45
294.12	1335.28
294.33	1277.93
294.55	1335.28
294.76	1251.31
294.97	1230.83
295.19	1239.02
295.40	1284.08
295.62	1200.11
295.83	1255.40
296.05	1239.02
296.26	1322.99
296.48	1298.41
296.69	1261.55
296.90	1306.60
297.12	1222.64
297.33	1300.46
297.55	1204.21
297.76	1339.37
297.98	1267.69
298.19	1277.93
298.41	1277.93
298.62	1312.75
298.83	1314.80
299.05	1325.04
299.26	1267.69
299.48	1241.07
299.69	1193.97
299.90	1275.88
300.12	1226.73
300.33	1232.88
300.55	1271.79
300.76	1306.60
300.98	1243.12
301.19	1234.93
301.40	1308.65
301.62	1282.03
301.83	1251.31
302.05	1314.80
302.26	1345.52
302.47	1267.69
302.69	1308.65
302.90	1316.84
303.12	1245.16
303.33	1310.70
303.54	1337.32
303.76	1265.64
303.97	1245.16
304.19	1228.78
304.40	1222.64
304.61	1232.88
304.83	1263.60
305.04	1261.55
305.26	1327.08
305.47	1394.67
305.68	1296.36
305.90	1296.36
306.11	1282.03
306.33	1239.02
306.54	1249.26
306.75	1261.55
306.97	1271.79
307.18	1249.26
307.39	1277.93
307.61	1302.51
307.82	1243.12
308.04	1257.45
308.25	1288.17
308.46	1267.69
308.68	1284.08
308.89	1271.79
309.10	1253.36
309.32	1259.50
309.53	1306.60
309.74	1214.45
309.96	1316.84
310.17	1310.70
310.39	1245.16
310.60	1200.11
310.81	1286.12
311.03	1339.37
311.24	1277.93
311.45	1302.51
311.67	1265.64
311.88	1296.36
312.09	1249.26
312.31	1236.97
312.52	1314.80
312.73	1312.75
312.95	1284.08
313.16	1267.69
313.37	1288.17
313.59	1284.08
313.80	1241.07
314.01	1304.56
314.23	1318.89
314.44	1265.64
314.65	1275.88
314.87	1263.60
315.08	1265.64
315.29	1310.70
315.51	1304.56
315.72	1306.60
315.93	1247.21
316.15	1310.70
316.36	1298.41
316.57	1253.36
316.79	1322.99
317.00	1339.37
317.21	1335.28
317.43	1294.32
317.64	1296.36
317.85	1263.60
318.07	1284.08
318.28	1218.54
318.49	1228.78
318.70	1314.80
318.92	1273.84
319.13	1279.98
319.34	1294.32
319.56	1261.55
319.77	1306.60
319.98	1259.50
320.20	1226.73
320.41	1357.80
320.62	1302.51
320.83	1282.03
321.05	1236.97
321.26	1296.36
321.47	1265.64
321.69	1329.13
321.90	1335.28
322.11	1247.21
322.32	1284.08
322.54	1249.26
322.75	1288.17
322.96	1214.45
323.18	1243.12
323.39	1230.83
323.60	1284.08
323.81	1277.93
324.03	1243.12
324.24	1282.03
324.45	1308.65
324.66	1286.12
324.88	1302.51
325.09	1286.12
325.30	1318.89
325.52	1279.98
325.73	1228.78
325.94	1232.88
326.15	1234.93
326.37	1292.27
326.58	1259.50
326.79	1273.84
327.00	1284.08
327.22	1304.56
327.43	1261.55
327.64	1292.27
327.85	1286.12
328.07	1257.45
328.28	1236.97
328.49	1327.08
328.70	1234.93
328.92	1331.18
329.13	1273.84
329.34	1210.35
329.55	1220.59
329.76	1277.93
329.98	1232.88
330.19	1232.88
330.40	1259.50
330.61	1298.41
330.83	1284.08
331.04	1267.69
331.25	1228.78
331.46	1257.45
331.68	1327.08
331.89	1200.11
332.10	1269.74
332.31	1249.26
332.52	1310.70
332.74	1331.18
332.95	1288.17
333.16	1222.64
333.37	1308.65
333.58	1271.79
333.80	1249.26
334.01	1290.22
334.22	1296.36
334.43	1325.04
334.64	1306.60
334.86	1257.45
335.07	1230.83
335.28	1282.03
335.49	1329.13
335.70	1286.12
335.92	1288.17
336.13	1277.93
336.34	1277.93
336.55	1259.50
336.76	1275.88
336.98	1222.64
337.19	1282.03
337.40	1279.98
337.61	1296.36
337.82	1210.35
338.04	1208.30
338.25	1259.50
338.46	1253.36
338.67	1269.74
338.88	1275.88
339.09	1230.83
339.31	1263.60
339.52	1230.83
339.73	1255.40
339.94	1249.26
340.15	1232.88
340.36	1290.22
340.58	1267.69
340.79	1312.75
341.00	1312.75
341.21	1284.08
341.42	1243.12
341.63	1253.36
341.85	1155.05
342.06	1314.80
342.27	1271.79
342.48	1306.60
342.69	1312.75
342.90	1284.08
343.12	1198.06
343.33	1302.51
343.54	1341.42
343.75	1196.01
343.96	1275.88
344.17	1271.79
344.38	1251.31
344.60	1271.79
344.81	1212.40
345.02	1214.45
345.23	1284.08
345.44	1296.36
345.65	1234.93
345.86	1241.07
346.07	1236.97
346.29	1312.75
346.50	1312.75
346.71	1314.80
346.92	1261.55
347.13	1263.60
347.34	1263.60
347.55	1265.64
347.76	1236.97
347.98	1304.56
348.19	1241.07
348.40	1310.70
348.61	1243.12
348.82	1265.64
349.03	1277.93
349.24	1255.40
349.45	1232.88
349.66	1241.07
349.88	1257.45
350.09	1314.80
350.30	1296.36
350.51	1269.74
350.72	1284.08
350.93	1249.26
351.14	1296.36
351.35	1339.37
351.56	1265.64
351.77	1232.88
351.99	1253.36
352.20	1292.27
352.41	1271.79
352.62	1320.94
352.83	1269.74
353.04	1208.30
353.25	1245.16
353.46	1241.07
353.67	1236.97
353.88	1224.69
354.09	1269.74
354.30	1310.70
354.52	1284.08
354.73	1304.56
354.94	1267.69
355.15	1347.56
355.36	1304.56
355.57	1218.54
355.78	1271.79
355.99	1292.27
356.20	1228.78
356.41	1290.22
356.62	1298.41
356.83	1267.69
357.04	1282.03
357.25	1263.60
357.46	1304.56
357.68	1298.41
357.89	1290.22
358.10	1185.77
358.31	1243.12
358.52	1282.03
358.73	1366.00
358.94	1189.87
359.15	1234.93
359.36	1257.45
359.57	1216.49
359.78	1263.60
359.99	1277.93
360.20	1269.74
360.41	1247.21
360.62	1282.03
360.83	1277.93
361.04	1196.01
361.25	1351.66
361.46	1263.60
361.67	1273.84
361.88	1273.84
362.09	1329.13
362.30	1286.12
362.51	1320.94
362.72	1241.07
362.93	1230.83
363.14	1265.64
363.35	1271.79
363.56	1249.26
363.78	1187.82
363.99	1253.36
364.20	1212.40
364.41	1204.21
364.62	1277.93
364.83	1322.99
365.04	1271.79
365.25	1294.32
365.46	1239.02
365.67	1267.69
365.88	1357.80
366.09	1271.79
366.30	1265.64
366.51	1298.41
366.72	1251.31
366.93	1296.36
367.14	1300.46
367.35	1288.17
367.56	1273.84
367.77	1322.99
367.98	1296.36
368.18	1267.69
368.39	1273.84
368.60	1277.93
368.81	1265.64
369.02	1241.07
369.23	1275.88
369.44	1288.17
369.65	1218.54
369.86	1339.37
370.07	1228.78
370.28	1312.75
370.49	1318.89
370.70	1322.99
370.91	1282.03
371.12	1284.08
371.33	1327.08
371.54	1216.49
371.75	1271.79
371.96	1245.16
372.17	1314.80
372.38	1253.36
372.59	1196.01
372.80	1288.17
373.01	1265.64
373.22	1222.64
373.43	1275.88
373.64	1265.64
373.85	1357.80
374.06	1378.28
374.26	1331.18
374.47	1228.78
374.68	1284.08
374.89	1206.25
375.10	1310.70
375.31	1298.41
375.52	1351.66
375.73	1282.03
375.94	1267.69
376.15	1263.60
376.36	1263.60
376.57	1306.60
376.78	1222.64
376.99	1282.03
377.20	1245.16
377.40	1196.01
377.61	1284.08
377.82	1273.84
378.03	1239.02
378.24	1239.02
378.45	1232.88
378.66	1269.74
378.87	1249.26
379.08	1288.17
379.29	1263.60
379.50	1316.84
379.71	1261.55
379.91	1310.70
380.12	1271.79
380.33	1273.84
380.54	1290.22
380.75	1247.21
380.96	1298.41
381.17	1224.69
381.38	1353.71
381.59	1230.83
381.80	1200.11
382.00	1306.60
382.21	1243.12
382.42	1232.88
382.63	1243.12
382.84	1275.88
383.05	1294.32
383.26	1310.70
383.47	1331.18
383.68	1222.64
383.88	1265.64
384.09	1275.88
384.30	1290.22
384.51	1228.78
384.72	1294.32
384.93	1239.02
385.14	1265.64
385.35	1296.36
385.55	1267.69
385.76	1304.56
385.97	1294.32
386.18	1271.79
386.39	1284.08
386.60	1228.78
386.81	1304.56
387.02	1304.56
387.22	1247.21
387.43	1271.79
387.64	1222.64
387.85	1255.40
388.06	1253.36
388.27	1290.22
388.48	1345.52
388.68	1216.49
388.89	1265.64
389.10	1210.35
389.31	1327.08
389.52	1290.22
389.73	1251.31
389.93	1318.89
390.14	1267.69
390.35	1298.41
390.56	1193.97
390.77	1308.65
390.98	1271.79
391.18	1288.17
391.39	1284.08
391.60	1316.84
391.81	1193.97
392.02	1249.26
392.23	1265.64
392.43	1247.21
392.64	1251.31
392.85	1208.30
393.06	1239.02
393.27	1279.98
393.47	1257.45
393.68	1275.88
393.89	1302.51
394.10	1296.36
394.31	1253.36
394.52	1239.02
394.72	1185.77
394.93	1347.56
395.14	1273.84
395.35	1316.84
395.56	1253.36
395.76	1290.22
395.97	1249.26
396.18	1269.74
396.39	1245.16
396.60	1273.84
396.80	1292.27
397.01	1277.93
397.22	1222.64
397.43	1279.98
397.64	1304.56
397.84	1259.50
398.05	1253.36
398.26	1251.31
398.47	1239.02
398.67	1302.51
398.88	1222.64
399.09	1245.16
399.30	1314.80
399.51	1241.07
399.71	1271.79
399.92	1279.98
400.13	1273.84
400.34	1372.14
400.54	1339.37
400.75	1322.99
400.96	1271.79
401.17	1298.41
401.37	1179.63
401.58	1265.64
401.79	1228.78
402.00	1241.07
402.21	1216.49
402.41	1282.03
402.62	1288.17
402.83	1228.78
403.04	1282.03
403.24	1288.17
403.45	1290.22
403.66	1277.93
403.87	1247.21
404.07	1269.74
404.28	1279.98
404.49	1292.27
404.70	1310.70
404.90	1282.03
405.11	1251.31
405.32	1245.16
405.52	1251.31
405.73	1263.60
405.94	1247.21
406.15	1251.31
406.35	1263.60
406.56	1271.79
406.77	1355.76
406.98	1228.78
407.18	1253.36
407.39	1265.64
407.60	1294.32
407.80	1257.45
408.01	1284.08
408.22	1290.22
408.43	1269.74
408.63	1239.02
408.84	1277.93
409.05	1249.26
409.25	1267.69
409.46	1269.74
409.67	1294.32
409.88	1232.88
410.08	1279.98
410.29	1325.04
410.50	1257.45
410.70	1349.61
410.91	1263.60
411.12	1298.41
411.32	1282.03
411.53	1273.84
411.74	1236.97
411.95	1288.17
412.15	1251.31
412.36	1312.75
412.57	1298.41
412.77	1279.98
412.98	1261.55
413.19	1302.51
413.39	1247.21
413.60	1290.22
413.81	1290.22
414.01	1253.36
414.22	1271.79
414.43	1290.22
414.63	1329.13
414.84	1337.32
415.05	1286.12
415.25	1243.12
415.46	1232.88
415.67	1267.69
415.87	1265.64
416.08	1298.41
416.29	1175.53
416.49	1322.99
416.70	1236.97
416.91	1312.75
417.11	1288.17
417.32	1310.70
417.53	1302.51
417.73	1296.36
417.94	1257.45
418.15	1239.02
418.35	1267.69
418.56	1245.16
418.77	1306.60
418.97	1294.32
419.18	1239.02
419.38	1263.60
419.59	1257.45
419.80	1259.50
420.00	1191.92
420.21	1269.74
420.42	1271.79
420.62	1288.17
420.83	1234.93
421.04	1304.56
421.24	1302.51
421.45	1236.97
421.65	1179.63
421.86	1282.03
422.07	1306.60
422.27	1251.31
422.48	1273.84
422.69	1230.83
422.89	1243.12
423.10	1269.74
423.30	1224.69
423.51	1230.83
423.72	1191.92
423.92	1298.41
424.13	1269.74
424.33	1288.17
424.54	1275.88
424.75	1325.04
424.95	1185.77
425.16	1277.93
425.36	1243.12
425.57	1296.36
425.78	1245.16
425.98	1253.36
426.19	1220.59
426.39	1249.26
426.60	1269.74
426.81	1263.60
427.01	1273.84
427.22	1222.64
427.42	1159.15
427.63	1279.98
427.83	1267.69
428.04	1255.40
428.25	1253.36
428.45	1269.74
428.66	1261.55
428.86	1257.45
429.07	1163.25
429.28	1163.25
429.48	1273.84
429.69	1255.40
429.89	1261.55
430.10	1322.99
430.30	1249.26
430.51	1185.77
430.71	1275.88
430.92	1284.08
431.13	1200.11
431.33	1273.84
431.54	1216.49
431.74	1310.70
431.95	1243.12
432.15	1249.26
432.36	1189.87
432.56	1300.46
432.77	1267.69
432.98	1370.09
433.18	1214.45
433.39	1286.12
433.59	1257.45
433.80	1273.84
434.00	1253.36
434.21	1343.47
434.41	1288.17
434.62	1269.74
434.82	1239.02
435.03	1253.36
435.23	1267.69
435.44	1241.07
435.64	1304.56
435.85	1224.69
436.06	1261.55
436.26	1300.46
436.47	1241.07
436.67	1214.45
436.88	1327.08
437.08	1318.89
437.29	1318.89
437.49	1261.55
437.70	1322.99
437.90	1257.45
438.11	1290.22
438.31	1175.53
438.52	1314.80
438.72	1335.28
438.93	1226.73
439.13	1310.70
439.34	1259.50
439.54	1210.35
439.75	1290.22
439.95	1290.22
440.16	1232.88
440.36	1351.66
440.57	1261.55
440.77	1284.08
440.98	1249.26
441.18	1261.55
441.39	1241.07
441.59	1331.18
441.80	1314.80
442.00	1275.88
442.21	1249.26
442.41	1247.21
442.62	1333.23
442.82	1255.40
443.02	1300.46
443.23	1236.97
443.43	1273.84
443.64	1234.93
443.84	1271.79
444.05	1304.56
444.25	1294.32
444.46	1253.36
444.66	1216.49
444.87	1345.52
445.07	1296.36
445.28	1308.65
445.48	1298.41
445.69	1232.88
445.89	1282.03
446.09	1277.93
446.30	1218.54
446.50	1275.88
446.71	1343.47
446.91	1265.64
447.12	1253.36
447.32	1236.97
447.53	1239.02
447.73	1247.21
447.93	1308.65
448.14	1282.03
448.34	1163.25
448.55	1257.45
448.75	1300.46
448.96	1275.88
449.16	1241.07
449.36	1263.60
449.57	1247.21
449.77	1300.46
449.98	1230.83
450.18	1263.60
450.39	1265.64
450.59	1361.90
450.79	1234.93
451.00	1261.55
451.20	1230.83
451.41	1284.08
451.61	1234.93
451.81	1347.56
452.02	1232.88
452.22	1239.02
452.43	1298.41
452.63	1306.60
452.84	1286.12
453.04	1247.21
453.24	1259.50
453.45	1265.64
453.65	1290.22
453.86	1337.32
454.06	1300.46
454.26	1314.80
454.47	1304.56
454.67	1284.08
454.87	1222.64
455.08	1249.26
455.28	1226.73
455.49	1329.13
455.69	1251.31
455.89	1265.64
456.10	1255.40
456.30	1290.22
456.51	1320.94
456.71	1261.55
456.91	1320.94
457.12	1320.94
457.32	1249.26
457.52	1236.97
457.73	1339.37
457.93	1327.08
458.14	1265.64
458.34	1320.94
458.54	1269.74
458.75	1312.75
458.95	1296.36
459.15	1286.12
459.36	1220.59
459.56	1267.69
459.76	1265.64
459.97	1302.51
460.17	1159.15
460.37	1271.79
460.58	1257.45
460.78	1312.75
460.99	1224.69
461.19	1261.55
461.39	1298.41
461.60	1200.11
461.80	1165.29
462.00	1273.84
462.21	1273.84
462.41	1234.93
462.61	1310.70
462.82	1306.60
463.02	1292.27
463.22	1228.78
463.43	1263.60
463.63	1333.23
463.83	1300.46
464.04	1241.07
464.24	1318.89
464.44	1304.56
464.64	1279.98
464.85	1290.22
465.05	1218.54
465.25	1273.84
465.46	1263.60
465.66	1298.41
465.86	1239.02
466.07	1308.65
466.27	1249.26
466.47	1284.08
466.68	1224.69
466.88	1331.18
467.08	1312.75
467.29	1288.17
467.49	1249.26
467.69	1232.88
467.89	1220.59
468.10	1236.97
468.30	1279.98
468.50	1269.74
468.71	1269.74
468.91	1279.98
469.11	1282.03
469.31	1265.64
469.52	1294.32
469.72	1302.51
469.92	1265.64
470.13	1310.70
470.33	1261.55
470.53	1314.80
470.73	1267.69
470.94	1208.30
471.14	1288.17
471.34	1222.64
471.54	1292.27
471.75	1320.94
471.95	1247.21
472.15	1314.80
472.36	1267.69
472.56	1376.24
472.76	1259.50
472.96	1306.60
473.17	1189.87
473.37	1355.76
473.57	1306.60
473.77	1273.84
473.98	1279.98
474.18	1312.75
474.38	1249.26
474.58	1224.69
474.79	1308.65
474.99	1222.64
475.19	1253.36
475.39	1304.56
475.60	1257.45
475.80	1302.51
476.00	1294.32
476.20	1337.32
476.41	1308.65
476.61	1284.08
476.81	1316.84
477.01	1191.92
477.21	1300.46
477.42	1292.27
477.62	1292.27
477.82	1277.93
478.02	1292.27
478.23	1232.88
478.43	1247.21
478.63	1331.18
478.83	1322.99
479.03	1263.60
479.24	1245.16
479.44	1316.84
479.64	1302.51
479.84	1189.87
480.04	1239.02
480.25	1273.84
480.45	1327.08
480.65	1300.46
480.85	1282.03
481.06	1228.78
481.26	1269.74
481.46	1251.31
481.66	1263.60
481.86	1282.03
482.06	1302.51
482.27	1241.07
482.47	1267.69
482.67	1253.36
482.87	1304.56
483.07	1279.98
483.28	1288.17
483.48	1259.50
483.68	1208.30
483.88	1306.60
484.08	1251.31
484.29	1314.80
484.49	1265.64
484.69	1341.42
484.89	1312.75
485.09	1183.73
485.29	1226.73
485.50	1279.98
485.70	1290.22
485.90	1284.08
486.10	1273.84
486.30	1277.93
486.50	1249.26
486.71	1267.69
486.91	1347.56
487.11	1220.59
487.31	1155.05
487.51	1275.88
487.71	1263.60
487.91	1304.56
488.12	1198.06
488.32	1218.54
488.52	1230.83
488.72	1245.16
488.92	1288.17
489.12	1277.93
489.32	1335.28
489.53	1337.32
489.73	1286.12
489.93	1286.12
490.13	1273.84
490.33	1236.97
490.53	1302.51
490.73	1322.99
490.94	1243.12
491.14	1282.03
491.34	1245.16
491.54	1265.64
491.74	1394.67
491.94	1236.97
492.14	1341.42
492.34	1239.02
492.54	1275.88
492.75	1288.17
492.95	1282.03
493.15	1255.40
493.35	1298.41
493.55	1288.17
493.75	1251.31
493.95	1300.46
494.15	1302.51
494.35	1290.22
494.56	1239.02
494.76	1282.03
494.96	1251.31
495.16	1271.79
495.36	1230.83
495.56	1327.08
495.76	1259.50
495.96	1230.83
496.16	1220.59
496.36	1222.64
496.56	1304.56
496.77	1296.36
496.97	1257.45
497.17	1279.98
497.37	1216.49
497.57	1310.70
497.77	1257.45
497.97	1271.79
498.17	1277.93
498.37	1255.40
498.57	1361.90
498.77	1355.76
498.97	1220.59
499.17	1306.60
499.38	1275.88
499.58	1243.12
499.78	1351.66
499.98	1282.03
500.18	1249.26
500.38	1292.27
500.58	1279.98
500.78	1247.21
500.98	1247.21
501.18	1220.59
501.38	1265.64
501.58	1318.89
501.78	1322.99
501.98	1290.22
502.18	1247.21
502.38	1279.98
502.58	1263.60
502.78	1269.74
502.98	1243.12
503.18	1263.60
503.38	1298.41
503.59	1239.02
503.79	1325.04
503.99	1265.64
504.19	1339.37
504.39	1239.02
504.59	1310.70
504.79	1318.89
504.99	1241.07
505.19	1320.94
505.39	1302.51
505.59	1226.73
505.79	1277.93
505.99	1292.27
506.19	1279.98
506.39	1232.88
506.59	1265.64
506.79	1212.40
506.99	1279.98
507.19	1253.36
507.39	1292.27
507.59	1228.78
507.79	1279.98
507.99	1228.78
508.19	1243.12
508.39	1222.64
508.59	1265.64
508.79	1300.46
508.99	1320.94
509.19	1290.22
509.39	1259.50
509.59	1298.41
509.79	1224.69
509.99	1277.93
510.19	1300.46
510.39	1306.60
510.59	1296.36
510.79	1306.60
510.99	1245.16
511.19	1232.88
511.39	1267.69
511.59	1306.60
511.79	1296.36
511.99	1273.84
512.19	1312.75
512.38	1310.70
512.58	1296.36
512.78	1320.94
512.98	1271.79
513.18	1322.99
513.38	1236.97
513.58	1304.56
513.78	1368.04
513.98	1265.64
514.18	1368.04
514.38	1361.90
514.58	1288.17
514.78	1349.61
514.98	1259.50
515.18	1249.26
515.38	1239.02
515.58	1243.12
515.78	1292.27
515.98	1282.03
516.18	1275.88
516.38	1263.60
516.57	1226.73
516.77	1251.31
516.97	1245.16
517.17	1372.14
517.37	1253.36
517.57	1228.78
517.77	1200.11
517.97	1322.99
518.17	1318.89
518.37	1288.17
518.57	1310.70
518.77	1314.80
518.97	1294.32
519.16	1269.74
519.36	1230.83
519.56	1239.02
519.76	1198.06
519.96	1263.60
520.16	1341.42
520.36	1193.97
520.56	1265.64
520.76	1257.45
520.96	1208.30
521.16	1413.10
521.35	1279.98
521.55	1325.04
521.75	1298.41
521.95	1306.60
522.15	1204.21
522.35	1259.50
522.55	1253.36
522.75	1294.32
522.95	1302.51
523.14	1271.79
523.34	1290.22
523.54	1214.45
523.74	1245.16
523.94	1273.84
524.14	1275.88
524.34	1251.31
524.54	1290.22
524.73	1386.47
524.93	1343.47
525.13	1290.22
525.33	1230.83
525.53	1288.17
525.73	1306.60
525.93	1335.28
526.13	1302.51
526.32	1292.27
526.52	1288.17
526.72	1222.64
526.92	1294.32
527.12	1212.40
527.32	1224.69
527.52	1273.84
527.71	1314.80
527.91	1288.17
528.11	1232.88
528.31	1261.55
528.51	1325.04
528.71	1269.74
528.90	1255.40
529.10	1243.12
529.30	1236.97
529.50	1216.49
529.70	1263.60
529.90	1337.32
530.09	1224.69
530.29	1314.80
530.49	1322.99
530.69	1275.88
530.89	1282.03
531.09	1296.36
531.28	1290.22
531.48	1271.79
531.68	1300.46
531.88	1269.74
532.08	1247.21
532.28	1220.59
532.47	1245.16
532.67	1255.40
532.87	1327.08
533.07	1241.07
533.27	1288.17
533.46	1257.45
533.66	1318.89
533.86	1296.36
534.06	1300.46
534.26	1236.97
534.45	1282.03
534.65	1273.84
534.85	1298.41
535.05	1372.14
535.25	1284.08
535.44	1243.12
535.64	1294.32
535.84	1273.84
536.04	1218.54
536.24	1318.89
536.43	1253.36
536.63	1294.32
536.83	1247.21
537.03	1292.27
537.22	1290.22
537.42	1335.28
537.62	1339.37
537.82	1251.31
538.02	1249.26
538.21	1263.60
538.41	1226.73
538.61	1349.61
538.81	1249.26
539.00	1271.79
539.20	1398.76
539.40	1306.60
539.60	1294.32
539.79	1300.46
539.99	1300.46
540.19	1310.70
540.39	1292.27
540.58	1298.41
540.78	1331.18
540.98	1361.90
541.18	1249.26
541.37	1218.54
541.57	1224.69
541.77	1288.17
541.97	1302.51
542.16	1257.45
542.36	1284.08
542.56	1232.88
542.76	1302.51
542.95	1288.17
543.15	1236.97
543.35	1296.36
543.54	1335.28
543.74	1282.03
543.94	1322.99
544.14	1279.98
544.33	1331.18
544.53	1241.07
544.73	1282.03
544.93	1253.36
545.12	1263.60
545.32	1226.73
545.52	1404.91
545.71	1290.22
545.91	1284.08
546.11	1290.22
546.30	1327.08
546.50	1300.46
546.70	1273.84
546.90	1249.26
547.09	1296.36
547.29	1316.84
547.49	1241.07
547.68	1218.54
547.88	1265.64
548.08	1296.36
548.27	1288.17
548.47	1232.88
548.67	1249.26
548.87	1279.98
549.06	1247.21
549.26	1355.76
549.46	1253.36
549.65	1288.17
549.85	1273.84
550.05	1304.56
550.24	1191.92
550.44	1306.60
550.64	1335.28
550.83	1298.41
551.03	1261.55
551.23	1327.08
551.42	1271.79
551.62	1306.60
551.82	1296.36
552.01	1310.70
552.21	1206.25
552.41	1179.63
552.60	1310.70
552.80	1249.26
553.00	1271.79
553.19	1296.36
553.39	1345.52
553.59	1337.32
553.78	1312.75
553.98	1279.98
554.17	1245.16
554.37	1290.22
554.57	1279.98
554.76	1304.56
554.96	1296.36
555.16	1273.84
555.35	1298.41
555.55	1267.69
555.75	1277.93
555.94	1275.88
556.14	1239.02
556.33	1222.64
556.53	1241.07
556.73	1388.52
556.92	1288.17
557.12	1294.32
557.32	1222.64
557.51	1257.45
557.71	1298.41
557.90	1335.28
558.10	1366.00
558.30	1220.59
558.49	1232.88
558.69	1251.31
558.88	1294.32
559.08	1327.08
559.28	1224.69
559.47	1239.02
559.67	1263.60
559.86	1249.26
560.06	1214.45
560.26	1318.89
560.45	1277.93
560.65	1306.60
560.84	1300.46
561.04	1271.79
561.24	1267.69
561.43	1259.50
561.63	1347.56
561.82	1337.32
562.02	1273.84
562.22	1294.32
562.41	1224.69
562.61	1284.08
562.80	1212.40
563.00	1304.56
563.19	1226.73
563.39	1191.92
563.59	1191.92
563.78	1257.45
563.98	1241.07
564.17	1322.99
564.37	1277.93
564.56	1329.13
564.76	1296.36
564.96	1304.56
565.15	1275.88
565.35	1282.03
565.54	1284.08
565.74	1236.97
565.93	1236.97
566.13	1300.46
566.32	1232.88
566.52	1349.61
566.71	1218.54
566.91	1304.56
567.11	1265.64
567.30	1294.32
567.50	1290.22
567.69	1320.94
567.89	1183.73
568.08	1306.60
568.28	1232.88
568.47	1310.70
568.67	1282.03
568.86	1220.59
569.06	1294.32
569.25	1298.41
569.45	1277.93
569.64	1357.80
569.84	1249.26
570.04	1277.93
570.23	1335.28
570.43	1271.79
570.62	1230.83
570.82	1253.36
571.01	1284.08
571.21	1273.84
571.40	1255.40
571.60	1308.65
571.79	1310.70
571.99	1175.53
572.18	1216.49
572.38	1327.08
572.57	1241.07
572.77	1282.03
572.96	1343.47
573.16	1335.28
573.35	1269.74
573.55	1226.73
573.74	1228.78
573.94	1306.60
574.13	1370.09
574.33	1339.37
574.52	1253.36
574.71	1294.32
574.91	1349.61
575.10	1284.08
575.30	1296.36
575.49	1247.21
575.69	1292.27
575.88	1335.28
576.08	1294.32
576.27	1269.74
576.47	1308.65
576.66	1247.21
576.86	1284.08
577.05	1245.16
577.25	1232.88
577.44	1327.08
577.64	1236.97
577.83	1284.08
578.02	1333.23
578.22	1286.12
578.41	1253.36
578.61	1259.50
578.80	1265.64
579.00	1282.03
579.19	1310.70
579.39	1308.65
579.58	1257.45
579.77	1306.60
579.97	1249.26
580.16	1179.63
580.36	1282.03
580.55	1302.51
580.75	1349.61
580.94	1345.52
581.13	1263.60
581.33	1255.40
581.52	1236.97
581.72	1232.88
581.91	1241.07
582.11	1253.36
582.30	1292.27
582.49	1257.45
582.69	1322.99
582.88	1302.51
583.08	1298.41
583.27	1241.07
583.47	1273.84
583.66	1327.08
583.85	1259.50
584.05	1226.73
584.24	1282.03
584.44	1304.56
584.63	1329.13
584.82	1292.27
585.02	1251.31
585.21	1228.78
585.41	1284.08
585.60	1257.45
585.79	1306.60
585.99	1277.93
586.18	1261.55
586.37	1261.55
586.57	1282.03
586.76	1329.13
586.96	1322.99
587.15	1331.18
587.34	1247.21
587.54	1222.64
587.73	1251.31
587.93	1265.64
588.12	1298.41
588.31	1296.36
588.51	1259.50
588.70	1198.06
588.89	1290.22
589.09	1359.85
589.28	1286.12
589.47	1277.93
589.67	1318.89
589.86	1300.46
590.06	1290.22
590.25	1232.88
590.44	1290.22
590.64	1271.79
590.83	1310.70
591.02	1220.59
591.22	1310.70
591.41	1290.22
591.60	1214.45
591.80	1310.70
591.99	1302.51
592.18	1210.35
592.38	1298.41
592.57	1169.39
592.76	1331.18
592.96	1269.74
593.15	1236.97
593.34	1288.17
593.54	1243.12
593.73	1339.37
593.92	1259.50
594.12	1261.55
594.31	1304.56
594.50	1234.93
594.70	1308.65
594.89	1243.12
595.08	1282.03
595.28	1284.08
595.47	1337.32
595.66	1273.84
595.86	1236.97
596.05	1306.60
596.24	1304.56
596.43	1327.08
596.63	1251.31
596.82	1271.79
597.01	1374.19
597.21	1282.03
597.40	1302.51
597.59	1224.69
597.79	1263.60
597.98	1290.22
598.17	1314.80
598.36	1255.40
598.56	1282.03
598.75	1267.69
598.94	1239.02
599.14	1275.88
599.33	1353.71
599.52	1224.69
599.71	1241.07
599.91	1212.40
600.10	1232.88
600.29	1224.69
600.48	1249.26
600.68	1267.69
600.87	1304.56
601.06	1265.64
601.26	1226.73
601.45	1316.84
601.64	1347.56
601.83	1353.71
602.03	1267.69
602.22	1230.83
602.41	1308.65
602.60	1294.32
602.80	1349.61
602.99	1347.56
603.18	1249.26
603.37	1312.75
603.57	1259.50
603.76	1226.73
603.95	1300.46
604.14	1185.77
604.34	1325.04
604.53	1300.46
604.72	1265.64
604.91	1257.45
605.10	1257.45
605.30	1247.21
605.49	1320.94
605.68	1312.75
605.87	1261.55
606.07	1267.69
606.26	1247.21
606.45	1253.36
606.64	1349.61
606.84	1271.79
607.03	1259.50
607.22	1267.69
607.41	1259.50
607.60	1275.88
607.80	1265.64
607.99	1325.04
608.18	1247.21
608.37	1290.22
608.56	1286.12
608.76	1271.79
608.95	1267.69
609.14	1355.76
609.33	1275.88
609.52	1327.08
609.72	1273.84
609.91	1288.17
610.10	1282.03
610.29	1269.74
610.48	1273.84
610.68	1318.89
610.87	1257.45
611.06	1300.46
611.25	1368.04
611.44	1351.66
611.63	1282.03
611.83	1259.50
612.02	1279.98
612.21	1351.66
612.40	1314.80
612.59	1419.24
612.79	1236.97
612.98	1322.99
613.17	1267.69
613.36	1288.17
613.55	1351.66
613.74	1288.17
613.93	1318.89
614.13	1247.21
614.32	1368.04
614.51	1318.89
614.70	1269.74
614.89	1288.17
615.08	1308.65
615.28	1382.38
615.47	1273.84
615.66	1304.56
615.85	1179.63
616.04	1259.50
616.23	1275.88
616.42	1300.46
616.62	1306.60
616.81	1265.64
617.00	1257.45
617.19	1282.03
617.38	1290.22
617.57	1337.32
617.76	1241.07
617.95	1312.75
618.15	1310.70
618.34	1347.56
618.53	1275.88
618.72	1286.12
618.91	1345.52
619.10	1335.28
619.29	1245.16
619.48	1298.41
619.68	1269.74
619.87	1370.09
620.06	1345.52
620.25	1322.99
620.44	1372.14
620.63	1341.42
620.82	1296.36
621.01	1312.75
621.20	1253.36
621.39	1271.79
621.59	1279.98
621.78	1298.41
621.97	1269.74
622.16	1265.64
622.35	1236.97
622.54	1298.41
622.73	1320.94
622.92	1306.60
623.11	1331.18
623.30	1335.28
623.49	1241.07
623.68	1261.55
623.88	1290.22
624.07	1243.12
624.26	1206.25
624.45	1286.12
624.64	1257.45
624.83	1286.12
625.02	1318.89
625.21	1271.79
625.40	1290.22
625.59	1339.37
625.78	1302.51
625.97	1298.41
626.16	1329.13
626.35	1380.33
626.54	1296.36
626.74	1261.55
626.93	1271.79
627.12	1349.61
627.31	1318.89
627.50	1318.89
627.69	1388.52
627.88	1322.99
628.07	1376.24
628.26	1279.98
628.45	1292.27
628.64	1189.87
628.83	1302.51
629.02	1290.22
629.21	1265.64
629.40	1241.07
629.59	1296.36
629.78	1388.52
629.97	1327.08
630.16	1353.71
630.35	1261.55
630.54	1353.71
630.73	1306.60
630.92	1271.79
631.11	1277.93
631.30	1404.91
631.49	1386.47
631.68	1454.06
631.87	3856.33
632.06	11585.36
632.25	20895.43
632.44	36931.02
632.63	55891.12
632.82	50908.41
633.01	22240.94
633.20	9977.70
633.39	6096.80
633.58	3688.39
633.77	2650.07
633.96	2402.27
634.15	2365.40
634.34	2146.27
634.53	1834.98
634.72	1853.41
634.91	1673.19
635.10	1724.39
635.29	1644.52
635.48	1626.09
635.67	1644.52
635.86	1488.87
636.05	1431.53
636.24	1484.78
636.43	1462.25
636.62	1460.20
636.81	1435.63
637.00	1423.34
637.19	1402.86
637.38	1402.86
637.57	1355.76
637.76	1396.71
637.95	1296.36
638.14	1363.95
638.33	1380.33
638.52	1370.09
638.71	1286.12
638.89	1402.86
639.08	1265.64
639.27	1292.27
639.46	1322.99
639.65	1327.08
639.84	1230.83
640.03	1294.32
640.22	1273.84
640.41	1255.40
640.60	1294.32
640.79	1226.73
640.98	1296.36
641.17	1337.32
641.36	1267.69
641.55	1370.09
641.74	1208.30
641.92	1275.88
642.11	1191.92
642.30	1265.64
642.49	1249.26
642.68	1214.45
642.87	1245.16
643.06	1302.51
643.25	1300.46
643.44	1300.46
643.63	1327.08
643.82	1239.02
644.00	1245.16
644.19	1298.41
644.38	1267.69
644.57	1245.16
644.76	1220.59
644.95	1331.18
645.14	1275.88
645.33	1241.07
645.52	1275.88
645.71	1288.17
645.89	1380.33
646.08	1259.50
646.27	1196.01
646.46	1273.84
646.65	1261.55
646.84	1271.79
647.03	1212.40
647.22	1271.79
647.40	1310.70
647.59	1275.88
647.78	1239.02
647.97	1345.52
648.16	1187.82
648.35	1304.56
648.54	1335.28
648.73	1277.93
648.91	1249.26
649.10	1300.46
649.29	1302.51
649.48	1296.36
649.67	1269.74
649.86	1243.12
650.05	1306.60
650.23	1210.35
650.42	1292.27
650.61	1257.45
650.80	1269.74
650.99	1333.23
651.18	1191.92
651.36	1249.26
651.55	1271.79
651.74	1202.16
651.93	1198.06
652.12	1304.56
652.31	1294.32
652.49	1277.93
652.68	1279.98
652.87	1263.60
653.06	1265.64
653.25	1275.88
653.44	1271.79
653.62	1222.64
653.81	1273.84
654.00	1226.73
654.19	1230.83
654.38	1298.41
654.56	1232.88
654.75	1277.93
654.94	1343.47
655.13	1265.64
655.32	1298.41
655.51	1249.26
655.69	1325.04
655.88	1339.37
656.07	1239.02
656.26	1308.65
656.45	1284.08
656.63	1279.98
656.82	1193.97
657.01	1286.12
657.20	1263.60
657.38	1210.35
657.57	1306.60
657.76	1279.98
657.95	1275.88
658.14	1284.08
658.32	1282.03
658.51	1200.11
658.70	1224.69
658.89	1247.21
659.08	1284.08
659.26	1300.46
659.45	1282.03
659.64	1296.36
659.83	1261.55
660.01	1325.04
660.20	1251.31
660.39	1236.97
660.58	1294.32
660.76	1318.89
660.95	1247.21
661.14	1308.65
661.33	1255.40
661.51	1175.53
661.70	1294.32
661.89	1286.12
662.08	1349.61
662.26	1273.84
662.45	1251.31
662.64	1286.12
662.83	1306.60
663.01	1239.02
663.20	1236.97
663.39	1249.26
663.58	1296.36
663.76	1255.40
663.95	1302.51
664.14	1185.77
664.32	1325.04
664.51	1255.40
664.70	1314.80
664.89	1271.79
665.07	1277.93
665.26	1329.13
665.45	1312.75
665.64	1339.37
665.82	1310.70
666.01	1273.84
666.20	1224.69
666.38	1335.28
666.57	1304.56
666.76	1277.93
666.95	1312.75
667.13	1200.11
667.32	1345.52
667.51	1269.74
667.69	1208.30
667.88	1243.12
668.07	1241.07
668.25	1251.31
668.44	1294.32
668.63	1279.98
668.81	1208.30
669.00	1277.93
669.19	1253.36
669.38	1290.22
669.56	1298.41
669.75	1261.55
669.94	1296.36
670.12	1300.46
670.31	1265.64
670.50	1261.55
670.68	1243.12
670.87	1296.36
671.06	1292.27
671.24	1253.36
671.43	1175.53
671.62	1294.32
671.80	1298.41
671.99	1269.74
672.18	1257.45
672.36	1318.89
672.55	1241.07
672.74	1370.09
672.92	1327.08
673.11	1257.45
673.29	1245.16
673.48	1327.08
673.67	1263.60
673.85	1249.26
674.04	1263.60
674.23	1269.74
674.41	1216.49
674.60	1251.31
674.79	1318.89
674.97	1245.16
675.16	1253.36
675.34	1296.36
675.53	1212.40
675.72	1206.25
675.90	1265.64
676.09	1279.98
676.28	1228.78
676.46	1279.98
676.65	1294.32
676.83	1304.56
677.02	1296.36
677.21	1228.78
677.39	1304.56
677.58	1282.03
677.77	1331.18
677.95	1239.02
678.14	1269.74
678.32	1273.84
678.51	1351.66
678.70	1296.36
678.88	1327.08
679.07	1239.02
679.25	1265.64
679.44	1249.26
679.63	1189.87
679.81	1318.89
680.00	1347.56
680.18	1247.21
680.37	1337.32
680.55	1316.84
680.74	1331.18
680.93	1279.98
681.11	1249.26
681.30	1308.65
681.48	1208.30
681.67	1236.97
681.85	1218.54
682.04	1273.84
682.23	1337.32
682.41	1284.08
682.60	1292.27
682.78	1271.79
682.97	1189.87
683.15	1300.46
683.34	1302.51
683.53	1370.09
683.71	1308.65
683.90	1263.60
684.08	1228.78
684.27	1206.25
684.45	1216.49
684.64	1253.36
684.82	1331.18
685.01	1247.21
685.19	1271.79
685.38	1245.16
685.57	1277.93
685.75	1241.07
685.94	1241.07
686.12	1273.84
686.31	1245.16
686.49	1216.49
686.68	1267.69
686.86	1251.31
687.05	1284.08
687.23	1314.80
687.42	1277.93
687.60	1230.83
687.79	1185.77
687.97	1337.32
688.16	1261.55
688.34	1279.98
688.53	1253.36
688.71	1284.08
688.90	1204.21
689.08	1224.69
689.27	1253.36
689.45	1318.89
689.64	1228.78
689.82	1347.56
690.01	1245.16
690.19	1306.60
690.38	1267.69
690.56	1366.00
690.75	1284.08
690.93	1224.69
691.12	1294.32
691.30	1298.41
691.49	1247.21
691.67	1214.45
691.86	1208.30
692.04	1277.93
692.23	1331.18
692.41	1142.77
692.60	1259.50
692.78	1325.04
692.97	1298.41
693.15	1298.41
693.34	1228.78
693.52	1351.66
693.71	1292.27
693.89	1247.21
694.08	1273.84
694.26	1232.88
694.44	1228.78
694.63	1271.79
694.81	1341.42
695.00	1247.21
695.18	1241.07
695.37	1255.40
695.55	1271.79
695.74	1277.93
695.92	1212.40
696.10	1284.08
696.29	1228.78
696.47	1263.60
696.66	1279.98
696.84	1306.60
697.03	1239.02
697.21	1273.84
697.40	1298.41
697.58	1241.07
697.76	1265.64
697.95	1341.42
698.13	1284.08
698.32	1161.20
698.50	1263.60
698.68	1279.98
698.87	1261.55
699.05	1331.18
699.24	1253.36
699.42	1304.56
699.61	1226.73
699.79	1310.70
699.97	1228.78
700.16	1347.56
700.34	1191.92
700.53	1333.23
700.71	1273.84
700.89	1255.40
701.08	1271.79
701.26	1232.88
701.45	1277.93
701.63	1226.73
701.81	1224.69
702.00	1292.27
702.18	1316.84
702.37	1284.08
702.55	1228.78
702.73	1296.36
702.92	1212.40
703.10	1300.46
703.28	1253.36
703.47	1265.64
703.65	1208.30
703.84	1222.64
704.02	1269.74
704.20	1208.30
704.39	1275.88
704.57	1245.16
704.75	1327.08
704.94	1222.64
705.12	1230.83
705.30	1259.50
705.49	1335.28
705.67	1318.89
705.86	1298.41
706.04	1257.45
706.22	1337.32
706.41	1271.79
706.59	1298.41
706.77	1247.21
706.96	1265.64
707.14	1329.13
707.32	1302.51
707.51	1245.16
707.69	1275.88
707.87	1140.72
708.06	1193.97
708.24	1216.49
708.42	1286.12
708.61	1304.56
708.79	1202.16
708.97	1286.12
709.16	1200.11
709.34	1236.97
709.52	1316.84
709.71	1275.88
709.89	1288.17
710.07	1255.40
710.26	1312.75
710.44	1282.03
710.62	1228.78
710.80	1220.59
710.99	1298.41
711.17	1304.56
711.35	1228.78
711.54	1320.94
711.72	1349.61
711.90	1327.08
712.09	1187.82
712.27	1253.36
712.45	1251.31
712.63	1310.70
712.82	1275.88
713.00	1249.26
713.18	1320.94
713.37	1290.22
713.55	1210.35
713.73	1286.12
713.91	1282.03
714.10	1288.17
714.28	1304.56
714.46	1265.64
714.65	1282.03
714.83	1226.73
715.01	1224.69
715.19	1232.88
715.38	1261.55
715.56	1292.27
715.74	1245.16
715.92	1263.60
716.11	1329.13
716.29	1224.69
716.47	1261.55
716.65	1347.56
716.84	1294.32
717.02	1273.84
717.20	1314.80
717.38	1257.45
717.57	1288.17
717.75	1310.70
717.93	1257.45
718.11	1331.18
718.30	1265.64
718.48	1261.55
718.66	1204.21
718.84	1314.80
719.03	1236.97
719.21	1290.22
719.39	1236.97
719.57	1247.21
719.75	1251.31
719.94	1257.45
720.12	1331.18
720.30	1304.56
720.48	1322.99
720.67	1249.26
720.85	1224.69
721.03	1181.68
721.21	1251.31
721.39	1234.93
721.58	1210.35
721.76	1279.98
721.94	1251.31
722.12	1245.16
722.30	1253.36
722.49	1259.50
722.67	1220.59
722.85	1267.69
723.03	1261.55
723.21	1247.21
723.40	1255.40
723.58	1253.36
723.76	1273.84
723.94	1236.97
724.12	1322.99
724.30	1249.26
724.49	1316.84
724.67	1214.45
724.85	1251.31
725.03	1234.93
725.21	1288.17
725.40	1255.40
725.58	1312.75
725.76	1247.21
725.94	1259.50
726.12	1208.30
726.30	1247.21
726.49	1251.31
726.67	1273.84
726.85	1314.80
727.03	1247.21
727.21	1304.56
727.39	1247.21
727.57	1228.78
727.76	1372.14
727.94	1198.06
728.12	1302.51
728.30	1208.30
728.48	1232.88
728.66	1273.84
728.84	1253.36
729.03	1271.79
729.21	1185.77
729.39	1222.64
729.57	1191.92
729.75	1255.40
729.93	1267.69
730.11	1214.45
730.30	1294.32
730.48	1198.06
730.66	1277.93
730.84	1263.60
731.02	1232.88
731.20	1267.69
731.38	1232.88
731.56	1208.30
731.74	1255.40
731.93	1189.87
732.11	1245.16
732.29	1236.97
732.47	1224.69
732.65	1290.22
732.83	1302.51
733.01	1267.69
733.19	1269.74
733.37	1230.83
733.56	1255.40
733.74	1292.27
733.92	1247.21
734.10	1259.50
734.28	1277.93
734.46	1306.60
734.64	1255.40
734.82	1249.26
735.00	1179.63
735.18	1286.12
735.36	1222.64
735.54	1308.65
735.73	1277.93
735.91	1269.74
736.09	1230.83
736.27	1202.16
736.45	1224.69
736.63	1191.92
736.81	1298.41
736.99	1318.89
737.17	1267.69
737.35	1208.30
737.53	1228.78
737.71	1261.55
737.89	1228.78
738.07	1247.21
738.25	1239.02
738.43	1183.73
738.61	1232.88
738.80	1296.36
738.98	1271.79
739.16	1265.64
739.34	1273.84
739.52	1357.80
739.70	1214.45
739.88	1312.75
740.06	1282.03
740.24	1316.84
740.42	1267.69
740.60	1271.79
740.78	1286.12
740.96	1275.88
741.14	1308.65
741.32	1228.78
741.50	1189.87
741.68	1294.32
741.86	1271.79
742.04	1284.08
742.22	1331.18
742.40	1263.60
742.58	1322.99
742.76	1224.69
742.94	1251.31
743.12	1259.50
743.30	1351.66
743.48	1374.19
743.66	1271.79
743.84	1265.64
744.02	1267.69
744.20	1241.07
744.38	1318.89
744.56	1232.88
744.74	1331.18
744.92	1253.36
745.10	1253.36
745.28	1322.99
745.46	1282.03
745.64	1228.78
745.82	1189.87
746.00	1265.64
746.18	1294.32
746.36	1306.60
746.54	1239.02
746.72	1333.23
746.90	1265.64
747.08	1279.98
747.26	1257.45
747.44	1374.19
747.62	1230.83
747.80	1247.21
747.98	1232.88
748.15	1304.56
748.33	1325.04
748.51	1277.93
748.69	1308.65
748.87	1333.23
749.05	1222.64
749.23	1249.26
749.41	1279.98
749.59	1302.51
749.77	1279.98
749.95	1265.64
750.13	1273.84
750.31	1263.60
750.49	1339.37
750.67	1247.21
750.85	1294.32
751.03	1271.79
751.20	1288.17
751.38	1269.74
751.56	1171.44
751.74	1259.50
751.92	1286.12
752.10	1296.36
752.28	1279.98
752.46	1284.08
752.64	1300.46
752.82	1310.70
753.00	1300.46
753.18	1296.36
753.35	1179.63
753.53	1286.12
753.71	1302.51
753.89	1310.70
754.07	1253.36
754.25	1284.08
754.43	1339.37
754.61	1239.02
754.79	1216.49
754.97	1208.30
755.14	1269.74
755.32	1292.27
755.50	1345.52
755.68	1234.93
755.86	1263.60
756.04	1236.97
756.22	1220.59
756.40	1273.84
756.57	1318.89
756.75	1193.97
756.93	1275.88
757.11	1267.69
757.29	1279.98
757.47	1253.36
757.65	1279.98
757.82	1273.84
758.00	1257.45
758.18	1239.02
758.36	1251.31
758.54	1259.50
758.72	1224.69
758.90	1257.45
759.07	1277.93
759.25	1265.64
759.43	1249.26
759.61	1267.69
759.79	1382.38
759.97	1265.64
760.15	1298.41
760.32	1216.49
760.50	1224.69
760.68	1230.83
760.86	1288.17
761.04	1222.64
761.22	1282.03
761.39	1279.98
761.57	1306.60
761.75	1304.56
761.93	1304.56
762.11	1290.22
762.28	1210.35
762.46	1292.27
762.64	1230.83
762.82	1239.02
763.00	1214.45
763.18	1284.08
763.35	1261.55
763.53	1232.88
763.71	1284.08
763.89	1243.12
764.07	1265.64
764.24	1279.98
764.42	1302.51
764.60	1245.16
764.78	1312.75
764.96	1267.69
765.13	1245.16
765.31	1241.07
765.49	1247.21
765.67	1300.46
765.84	1251.31
766.02	1236.97
766.20	1329.13
766.38	1249.26
766.56	1312.75
766.73	1241.07
766.91	1277.93
767.09	1314.80
767.27	1298.41
767.44	1273.84
767.62	1234.93
767.80	1322.99
767.98	1230.83
768.15	1273.84
768.33	1298.41
768.51	1306.60
768.69	1300.46
768.87	1279.98
769.04	1271.79
769.22	1271.79
769.40	1259.50
769.58	1257.45
769.75	1263.60
769.93	1275.88
770.11	1275.88
770.28	1204.21
770.46	1282.03
770.64	1212.40
770.82	1243.12
770.99	1296.36
771.17	1286.12
771.35	1312.75
771.53	1249.26
771.70	1171.44
771.88	1288.17
772.06	1206.25
772.23	1228.78
772.41	1314.80
772.59	1236.97
772.77	1306.60
772.94	1226.73
773.12	1245.16
773.30	1245.16
773.47	1296.36
773.65	1220.59
773.83	1193.97
774.01	1325.04
774.18	1302.51
774.36	1271.79
774.54	1279.98
774.71	1214.45
774.89	1247.21
775.07	1230.83
775.24	1220.59
775.42	1257.45
775.60	1251.31
775.78	1187.82
775.95	1226.73
776.13	1236.97
776.31	1329.13
776.48	1257.45
776.66	1318.89
776.84	1261.55
777.01	1349.61
777.19	1243.12
777.37	1239.02
777.54	1243.12
777.72	1316.84
777.90	1298.41
778.07	1255.40
778.25	1255.40
778.43	1296.36
778.60	1249.26
778.78	1310.70
778.96	1312.75
779.13	1247.21
779.31	1257.45
779.49	1259.50
779.66	1279.98
779.84	1255.40
780.01	1251.31
780.19	1292.27
780.37	1320.94
780.54	1327.08
780.72	1191.92
780.90	1298.41
781.07	1196.01
781.25	1345.52
781.43	1290.22
781.60	1322.99
781.78	1255.40
781.95	1306.60
782.13	1243.12
782.31	1279.98
782.48	1327.08
782.66	1275.88
782.83	1292.27
783.01	1245.16
783.19	1290.22
783.36	1265.64
783.54	1298.41
783.72	1331.18
783.89	1261.55
784.07	1296.36
784.24	1255.40
784.42	1245.16
784.60	1257.45
784.77	1286.12
784.95	1265.64
785.12	1265.64
785.30	1310.70
785.47	1306.60
785.65	1253.36
785.83	1302.51
786.00	1339.37
786.18	1318.89
786.35	1267.69
786.53	1243.12
786.71	1279.98
786.88	1277.93
787.06	1314.80
787.23	1290.22
787.41	1198.06
787.58	1284.08
787.76	1257.45
787.94	1273.84
788.11	1271.79
788.29	1251.31
788.46	1286.12
788.64	1202.16
788.81	1290.22
788.99	1212.40
789.16	1322.99
789.34	1226.73
789.52	1347.56
789.69	1322.99
789.87	1228.78
790.04	1236.97
790.22	1234.93
790.39	1277.93
790.57	1286.12
790.74	1251.31
790.92	1228.78
791.09	1318.89
791.27	1232.88
791.44	1308.65
791.62	1275.88
791.79	1310.70
791.97	1232.88
792.15	1294.32
792.32	1255.40
792.50	1329.13
792.67	1296.36
792.85	1234.93
793.02	1226.73
793.20	1314.80
793.37	1271.79
793.55	1288.17
793.72	1267.69
793.90	1275.88
794.07	1224.69
794.25	1298.41
794.42	1290.22
794.60	1253.36
794.77	1329.13
794.95	1304.56
795.12	1292.27
795.30	1271.79
795.47	1263.60
795.65	1247.21
795.82	1290.22
796.00	1259.50
796.17	1277.93
796.34	1286.12
796.52	1329.13
796.69	1265.64
796.87	1302.51
797.04	1290.22
797.22	1333.23
797.39	1243.12
797.57	1220.59
797.74	1263.60
797.92	1249.26
798.09	1251.31
798.27	1175.53
798.44	1255.40
798.62	1331.18
798.79	1263.60
798.96	1275.88
799.14	1277.93
799.31	1230.83
799.49	1255.40
799.66	1241.07
799.84	1255.40
800.01	1286.12
800.19	1320.94
800.36	1236.97
800.53	1366.00
800.71	1228.78
800.88	1282.03
801.06	1269.74
801.23	1282.03
801.41	1325.04
801.58	1198.06
801.75	1292.27
801.93	1243.12
802.10	1322.99
802.28	1175.53
802.45	1269.74
802.63	1296.36
802.80	1312.75
802.97	1277.93
803.15	1288.17
803.32	1255.40
803.50	1267.69
803.67	1271.79
803.84	1265.64
804.02	1304.56
804.19	1181.68
804.37	1302.51
804.54	1349.61
804.71	1273.84
804.89	1257.45
805.06	1357.80
805.24	1286.12
805.41	1247.21
805.58	1288.17
805.76	1222.64
805.93	1255.40
806.10	1232.88
806.28	1236.97
806.45	1322.99
806.63	1257.45
806.80	1253.36
806.97	1243.12
807.15	1273.84
807.32	1263.60
807.49	1230.83
807.67	1263.60
807.84	1316.84
808.01	1230.83
808.19	1259.50
808.36	1206.25
808.54	1288.17
808.71	1206.25
808.88	1208.30
809.06	1292.27
809.23	1279.98
809.40	1232.88
809.58	1267.69
809.75	1306.60
809.92	1296.36
810.10	1269.74
810.27	1363.95
810.44	1263.60
810.62	1220.59
810.79	1249.26
810.96	1325.04
811.14	1339.37
811.31	1255.40
811.48	1255.40
811.66	1216.49
811.83	1345.52
812.00	1279.98
812.18	1243.12
812.35	1267.69
812.52	1255.40
812.69	1273.84
812.87	1230.83
813.04	1282.03
813.21	1257.45
813.39	1292.27
813.56	1294.32
813.73	1286.12
813.91	1265.64
814.08	1232.88
814.25	1282.03
814.42	1259.50
814.60	1310.70
814.77	1216.49
814.94	1347.56
815.12	1224.69
815.29	1271.79
815.46	1335.28
815.63	1275.88
815.81	1208.30
815.98	1263.60
816.15	1286.12
816.33	1267.69
816.50	1249.26
816.67	1290.22
816.84	1290.22
817.02	1292.27
817.19	1259.50
817.36	1302.51
817.53	1322.99
817.71	1216.49
817.88	1177.58
818.05	1263.60
818.22	1245.16
818.40	1259.50
818.57	1255.40
818.74	1314.80
818.91	1267.69
819.09	1263.60
819.26	1282.03
819.43	1212.40
819.60	1218.54
819.78	1300.46
819.95	1261.55
820.12	1271.79
820.29	1294.32
820.47	1263.60
820.64	1286.12
820.81	1271.79
820.98	1210.35
821.15	1277.93
821.33	1279.98
821.50	1282.03
821.67	1298.41
821.84	1265.64
822.02	1259.50
822.19	1257.45
822.36	1269.74
822.53	1265.64
822.70	1257.45
822.88	1259.50
823.05	1269.74
823.22	1310.70
823.39	1286.12
823.56	1298.41
823.74	1306.60
823.91	1306.60
824.08	1261.55
824.25	1265.64
824.42	1310.70
824.60	1249.26
824.77	1302.51
824.94	1284.08
825.11	1335.28
825.28	1185.77
825.45	1302.51
825.63	1269.74
825.80	1310.70
825.97	1298.41
826.14	1294.32
826.31	1259.50
826.48	1263.60
826.66	1273.84
826.83	1288.17
827.00	1255.40
827.17	1359.85
827.34	1214.45
827.51	1277.93
827.69	1241.07
827.86	1257.45
828.03	1239.02
828.20	1204.21
828.37	1206.25
828.54	1273.84
828.71	1343.47
828.89	1308.65
829.06	1234.93
829.23	1214.45
829.40	1263.60
829.57	1218.54
829.74	1224.69
829.91	1226.73
830.09	1263.60
830.26	1206.25
830.43	1210.35
830.60	1257.45
830.77	1269.74
830.94	1329.13
831.11	1308.65
831.28	1353.71
831.46	1277.93
831.63	1333.23
831.80	1257.45
831.97	1269.74
832.14	1239.02
832.31	1271.79
832.48	1265.64
832.65	1265.64
832.82	1263.60
832.99	1245.16
833.17	1269.74
833.34	1255.40
833.51	1243.12
833.68	1202.16
833.85	1318.89
834.02	1282.03
834.19	1214.45
834.36	1185.77
834.53	1279.98
834.70	1331.18
834.87	1320.94
835.04	1314.80
835.22	1298.41
835.39	1314.80
835.56	1218.54
835.73	1277.93
835.90	1236.97
836.07	1269.74
836.24	1290.22
836.41	1279.98
836.58	1236.97
836.75	1241.07
836.92	1241.07
837.09	1263.60
837.26	1245.16
837.43	1279.98
837.60	1257.45
837.77	1265.64
837.94	1269.74
838.12	1310.70
838.29	1275.88
838.46	1220.59
838.63	1310.70
838.80	1239.02
838.97	1263.60
839.14	1210.35
839.31	1284.08
839.48	1245.16
839.65	1259.50
839.82	1200.11
839.99	1288.17
840.16	1241.07
840.33	1226.73
840.50	1288.17
840.67	1228.78
840.84	1312.75
841.01	1253.36
841.18	1224.69
841.35	1234.93
841.52	1294.32
841.69	1279.98
841.86	1251.31
842.03	1228.78
842.20	1290.22
842.37	1288.17
842.54	1304.56
842.71	1193.97
842.88	1224.69
843.05	1224.69
843.22	1310.70
843.39	1300.46
843.56	1312.75
843.73	1216.49
843.90	1245.16
844.07	1282.03
844.24	1267.69
844.41	1277.93
844.58	1202.16
844.75	1265.64
844.92	1308.65
845.09	1296.36
845.26	1261.55
845.43	1257.45
845.60	1230.83
845.77	1294.32
845.94	1296.36
846.10	1253.36
846.27	1292.27
846.44	1345.52
846.61	1198.06
846.78	1243.12
846.95	1320.94
847.12	1263.60
847.29	1253.36
847.46	1269.74
847.63	1302.51
847.80	1243.12
847.97	1304.56
848.14	1300.46
848.31	1239.02
848.48	1296.36
848.65	1294.32
848.82	1255.40
848.98	1265.64
849.15	1282.03
849.32	1263.60
849.49	1302.51
849.66	1337.32
849.83	1249.26
850.00	1210.35
850.17	1218.54
850.34	1255.40
850.51	1222.64
850.68	1341.42
850.85	1337.32
851.01	1247.21
851.18	1310.70
851.35	1255.40
851.52	1282.03
851.69	1245.16
851.86	1212.40
852.03	1259.50
852.20	1261.55
852.37	1259.50
852.53	1251.31
852.70	1253.36
852.87	1314.80
853.04	1189.87
853.21	1271.79
853.38	1300.46
853.55	1316.84
853.72	1275.88
853.89	1243.12
854.05	1302.51
854.22	1275.88
854.39	1259.50
854.56	1255.40
854.73	1249.26
854.90	1277.93
855.07	1208.30
855.23	1181.68
855.40	1249.26
855.57	1245.16
855.74	1251.31
855.91	1308.65
856.08	1157.10
856.25	1245.16
856.41	1241.07
856.58	1290.22
856.75	1271.79
856.92	1288.17
857.09	1249.26
857.26	1271.79
857.42	1277.93
857.59	1230.83
857.76	1216.49
857.93	1247.21
858.10	1222.64
858.27	1333.23
858.43	1185.77
858.60	1265.64
858.77	1345.52
858.94	1245.16
859.11	1263.60
859.27	1198.06
859.44	1230.83
859.61	1224.69
859.78	1294.32
859.95	1191.92
860.12	1251.31
860.28	1249.26
860.45	1359.85
860.62	1261.55
860.79	1245.16
860.95	1224.69
861.12	1232.88
861.29	1234.93
861.46	1300.46
861.63	1261.55
861.79	1241.07
861.96	1228.78
862.13	1279.98
862.30	1249.26
862.47	1263.60
862.63	1282.03
862.80	1255.40
862.97	1298.41
863.14	1214.45
863.30	1273.84
863.47	1228.78
863.64	1243.12
863.81	1298.41
863.97	1243.12
864.14	1306.60
864.31	1327.08
864.48	1208.30
864.65	1208.30
864.81	1298.41
864.98	1296.36
865.15	1288.17
865.32	1306.60
865.48	1216.49
865.65	1271.79
865.82	1208.30
865.98	1239.02
866.15	1277.93
866.32	1230.83
866.49	1251.31
866.65	1265.64
866.82	1226.73
866.99	1263.60
867.16	1239.02
867.32	1251.31
867.49	1282.03
867.66	1296.36
867.83	1288.17
867.99	1232.88
868.16	1320.94
868.33	1282.03
868.49	1263.60
868.66	1267.69
868.83	1243.12
868.99	1288.17
869.16	1249.26
869.33	1257.45
869.50	1249.26
869.66	1204.21
869.83	1318.89
870.00	1339.37
870.16	1224.69
870.33	1255.40
870.50	1261.55
870.66	1316.84
870.83	1298.41
871.00	1189.87
871.17	1253.36
871.33	1288.17
871.50	1322.99
871.67	1255.40
871.83	1230.83
872.00	1228.78
872.17	1222.64
872.33	1253.36
872.50	1210.35
872.67	1286.12
872.83	1249.26
873.00	1196.01
873.17	1329.13
873.33	1259.50
873.50	1255.40
873.67	1249.26
873.83	1325.04
874.00	1245.16
874.16	1302.51
874.33	1210.35
874.50	1284.08
874.66	1284.08
874.83	1226.73
875.00	1269.74
875.16	1279.98
875.33	1255.40
875.50	1236.97
875.66	1232.88
875.83	1351.66
875.99	1257.45
876.16	1247.21
876.33	1269.74
876.49	1236.97
876.66	1230.83
876.83	1255.40
876.99	1345.52
877.16	1249.26
877.32	1239.02
877.49	1198.06
877.66	1282.03
877.82	1306.60
877.99	1243.12
878.15	1322.99
878.32	1269.74
878.49	1267.69
878.65	1294.32
878.82	1290.22
878.98	1304.56
879.15	1306.60
879.32	1298.41
879.48	1275.88
879.65	1249.26
879.81	1218.54
879.98	1191.92
880.15	1265.64
880.31	1271.79
880.48	1275.88
880.64	1257.45
880.81	1259.50
880.97	1300.46
881.14	1247.21
881.31	1239.02
881.47	1306.60
881.64	1296.36
881.80	1269.74
881.97	1300.46
882.13	1279.98
882.30	1220.59
882.47	1241.07
882.63	1298.41
882.80	1271.79
882.96	1384.43
883.13	1230.83
883.29	1286.12
883.46	1236.97
883.62	1273.84
883.79	1327.08
883.95	1267.69
884.12	1282.03
884.29	1277.93
884.45	1222.64
884.62	1316.84
884.78	1273.84
884.95	1261.55
885.11	1208.30
885.28	1198.06
885.44	1292.27
885.61	1290.22
885.77	1193.97
885.94	1255.40
886.10	1304.56
886.27	1191.92
886.43	1255.40
886.60	1277.93
886.76	1316.84
886.93	1228.78
887.09	1292.27
887.26	1245.16
887.42	1263.60
887.59	1302.51
887.75	1314.80
887.92	1298.41
888.08	1296.36
888.25	1218.54
888.41	1216.49
888.58	1296.36
888.74	1234.93
888.91	1232.88
>>>>>End Processed Spectral Data<<<<<
