SpectraSuite Data File
++++++++++++++++++++++++++++++++++++
Date: Sun Apr 03 19:55:54 CEST 2016
User: root
Dark Spectrum Present: No
Reference Spectrum Present: No
Number of Sampled Component Spectra: 1
Spectrometers: USB4C02835
Integration Time (usec): 10000 (USB4C02835)
Spectra Averaged: 1 (USB4C02835)
Boxcar Smoothing: 0 (USB4C02835)
Correct for Electrical Dark: No (USB4C02835)
Strobe/Lamp Enabled: No (USB4C02835)
Correct for Detector Non-linearity: No (USB4C02835)
Correct for Stray Light: No (USB4C02835)
Number of Pixels in Processed Spectrum: 3648
>>>>>Begin Processed Spectral Data<<<<<
177.47	1230.83
177.69	1230.83
177.91	1230.83
178.13	1220.59
178.36	1239.02
178.58	1259.50
178.80	1298.41
179.02	1304.56
179.24	1284.08
179.46	1273.84
179.68	1302.51
179.90	1245.16
180.13	1269.74
180.35	1253.36
180.57	1259.50
180.79	1282.03
181.01	1277.93
181.23	1337.32
181.45	1290.22
181.67	1320.94
181.90	1275.88
182.12	1277.93
182.34	1239.02
182.56	1296.36
182.78	1259.50
183.00	1263.60
183.22	1279.98
183.44	1236.97
183.66	1234.93
183.89	1259.50
184.11	1271.79
184.33	1312.75
184.55	1259.50
184.77	1189.87
184.99	1171.44
185.21	1269.74
185.43	1290.22
185.65	1308.65
185.87	1255.40
186.10	1212.40
186.32	1241.07
186.54	1247.21
186.76	1249.26
186.98	1300.46
187.20	1275.88
187.42	1257.45
187.64	1224.69
187.86	1189.87
188.08	1292.27
188.30	1206.25
188.52	1290.22
188.75	1294.32
188.97	1243.12
189.19	1269.74
189.41	1292.27
189.63	1325.04
189.85	1175.53
190.07	1253.36
190.29	1253.36
190.51	1273.84
190.73	1294.32
190.95	1210.35
191.17	1269.74
191.39	1214.45
191.61	1267.69
191.84	1236.97
192.06	1292.27
192.28	1302.51
192.50	1228.78
192.72	1232.88
192.94	1253.36
193.16	1261.55
193.38	1216.49
193.60	1224.69
193.82	1294.32
194.04	1257.45
194.26	1253.36
194.48	1339.37
194.70	1261.55
194.92	1308.65
195.14	1279.98
195.36	1312.75
195.58	1374.19
195.80	1263.60
196.02	1277.93
196.24	1366.00
196.46	1241.07
196.69	1304.56
196.91	1318.89
197.13	1279.98
197.35	1241.07
197.57	1181.68
197.79	1298.41
198.01	1331.18
198.23	1245.16
198.45	1232.88
198.67	1286.12
198.89	1189.87
199.11	1222.64
199.33	1187.82
199.55	1286.12
199.77	1175.53
199.99	1228.78
200.21	1343.47
200.43	1314.80
200.65	1257.45
200.87	1206.25
201.09	1191.92
201.31	1253.36
201.53	1206.25
201.75	1228.78
201.97	1304.56
202.19	1275.88
202.41	1245.16
202.63	1300.46
202.85	1325.04
203.07	1183.73
203.29	1265.64
203.51	1325.04
203.73	1292.27
203.95	1271.79
204.17	1241.07
204.39	1187.82
204.61	1259.50
204.83	1187.82
205.05	1308.65
205.27	1251.31
205.49	1279.98
205.71	1292.27
205.93	1269.74
206.15	1251.31
206.37	1277.93
206.59	1187.82
206.81	1255.40
207.03	1290.22
207.25	1300.46
207.47	1255.40
207.69	1232.88
207.91	1279.98
208.13	1290.22
208.34	1296.36
208.56	1234.93
208.78	1263.60
209.00	1218.54
209.22	1300.46
209.44	1249.26
209.66	1263.60
209.88	1269.74
210.10	1181.68
210.32	1245.16
210.54	1212.40
210.76	1179.63
210.98	1263.60
211.20	1257.45
211.42	1216.49
211.64	1220.59
211.86	1275.88
212.08	1261.55
212.30	1265.64
212.52	1245.16
212.74	1300.46
212.96	1204.21
213.17	1271.79
213.39	1243.12
213.61	1257.45
213.83	1279.98
214.05	1279.98
214.27	1257.45
214.49	1230.83
214.71	1249.26
214.93	1210.35
215.15	1185.77
215.37	1294.32
215.59	1294.32
215.81	1308.65
216.03	1259.50
216.24	1279.98
216.46	1236.97
216.68	1322.99
216.90	1279.98
217.12	1273.84
217.34	1247.21
217.56	1222.64
217.78	1290.22
218.00	1273.84
218.22	1230.83
218.44	1277.93
218.66	1263.60
218.87	1275.88
219.09	1239.02
219.31	1302.51
219.53	1259.50
219.75	1175.53
219.97	1273.84
220.19	1265.64
220.41	1198.06
220.63	1249.26
220.85	1282.03
221.06	1290.22
221.28	1294.32
221.50	1251.31
221.72	1236.97
221.94	1255.40
222.16	1206.25
222.38	1128.43
222.60	1236.97
222.82	1243.12
223.03	1243.12
223.25	1243.12
223.47	1292.27
223.69	1275.88
223.91	1253.36
224.13	1263.60
224.35	1288.17
224.57	1245.16
224.78	1226.73
225.00	1288.17
225.22	1275.88
225.44	1226.73
225.66	1206.25
225.88	1273.84
226.10	1226.73
226.32	1312.75
226.53	1282.03
226.75	1304.56
226.97	1290.22
227.19	1241.07
227.41	1322.99
227.63	1298.41
227.85	1222.64
228.06	1249.26
228.28	1232.88
228.50	1212.40
228.72	1210.35
228.94	1241.07
229.16	1290.22
229.37	1243.12
229.59	1294.32
229.81	1322.99
230.03	1320.94
230.25	1302.51
230.47	1288.17
230.69	1277.93
230.90	1234.93
231.12	1249.26
231.34	1277.93
231.56	1322.99
231.78	1279.98
232.00	1355.76
232.21	1329.13
232.43	1196.01
232.65	1255.40
232.87	1279.98
233.09	1304.56
233.30	1284.08
233.52	1257.45
233.74	1286.12
233.96	1288.17
234.18	1284.08
234.40	1218.54
234.61	1286.12
234.83	1261.55
235.05	1261.55
235.27	1200.11
235.49	1286.12
235.70	1265.64
235.92	1288.17
236.14	1222.64
236.36	1357.80
236.58	1271.79
236.79	1206.25
237.01	1245.16
237.23	1282.03
237.45	1318.89
237.67	1191.92
237.88	1308.65
238.10	1380.33
238.32	1220.59
238.54	1296.36
238.76	1204.21
238.97	1341.42
239.19	1230.83
239.41	1243.12
239.63	1241.07
239.85	1245.16
240.06	1318.89
240.28	1245.16
240.50	1273.84
240.72	1230.83
240.93	1286.12
241.15	1296.36
241.37	1337.32
241.59	1247.21
241.81	1273.84
242.02	1275.88
242.24	1318.89
242.46	1282.03
242.68	1269.74
242.89	1239.02
243.11	1273.84
243.33	1279.98
243.55	1282.03
243.76	1200.11
243.98	1253.36
244.20	1255.40
244.42	1236.97
244.64	1273.84
244.85	1257.45
245.07	1271.79
245.29	1265.64
245.51	1333.23
245.72	1304.56
245.94	1271.79
246.16	1265.64
246.38	1320.94
246.59	1214.45
246.81	1318.89
247.03	1263.60
247.24	1294.32
247.46	1275.88
247.68	1214.45
247.90	1267.69
248.11	1224.69
248.33	1236.97
248.55	1318.89
248.77	1306.60
248.98	1234.93
249.20	1249.26
249.42	1363.95
249.64	1351.66
249.85	1296.36
250.07	1269.74
250.29	1318.89
250.50	1198.06
250.72	1286.12
250.94	1249.26
251.16	1329.13
251.37	1218.54
251.59	1228.78
251.81	1253.36
252.02	1253.36
252.24	1333.23
252.46	1257.45
252.68	1200.11
252.89	1282.03
253.11	1228.78
253.33	1304.56
253.54	1296.36
253.76	1222.64
253.98	1331.18
254.20	1232.88
254.41	1255.40
254.63	1290.22
254.85	1245.16
255.06	1239.02
255.28	1290.22
255.50	1251.31
255.71	1247.21
255.93	1292.27
256.15	1288.17
256.36	1257.45
256.58	1271.79
256.80	1322.99
257.02	1292.27
257.23	1318.89
257.45	1232.88
257.67	1239.02
257.88	1282.03
258.10	1236.97
258.32	1269.74
258.53	1263.60
258.75	1189.87
258.97	1318.89
259.18	1282.03
259.40	1308.65
259.62	1284.08
259.83	1279.98
260.05	1249.26
260.27	1263.60
260.48	1257.45
260.70	1302.51
260.92	1292.27
261.13	1181.68
261.35	1269.74
261.57	1253.36
261.78	1214.45
262.00	1314.80
262.22	1230.83
262.43	1271.79
262.65	1284.08
262.86	1206.25
263.08	1277.93
263.30	1259.50
263.51	1314.80
263.73	1255.40
263.95	1290.22
264.16	1206.25
264.38	1312.75
264.60	1241.07
264.81	1218.54
265.03	1230.83
265.25	1241.07
265.46	1257.45
265.68	1339.37
265.89	1273.84
266.11	1322.99
266.33	1261.55
266.54	1269.74
266.76	1239.02
266.98	1290.22
267.19	1247.21
267.41	1277.93
267.62	1241.07
267.84	1222.64
268.06	1325.04
268.27	1261.55
268.49	1230.83
268.70	1300.46
268.92	1288.17
269.14	1200.11
269.35	1288.17
269.57	1253.36
269.79	1296.36
270.00	1331.18
270.22	1245.16
270.43	1241.07
270.65	1292.27
270.87	1294.32
271.08	1322.99
271.30	1222.64
271.51	1284.08
271.73	1277.93
271.95	1277.93
272.16	1271.79
272.38	1279.98
272.59	1253.36
272.81	1282.03
273.02	1243.12
273.24	1247.21
273.46	1300.46
273.67	1380.33
273.89	1245.16
274.10	1228.78
274.32	1335.28
274.54	1282.03
274.75	1329.13
274.97	1259.50
275.18	1286.12
275.40	1325.04
275.61	1259.50
275.83	1282.03
276.05	1251.31
276.26	1271.79
276.48	1243.12
276.69	1380.33
276.91	1241.07
277.12	1265.64
277.34	1212.40
277.55	1310.70
277.77	1294.32
277.99	1249.26
278.20	1206.25
278.42	1337.32
278.63	1251.31
278.85	1251.31
279.06	1302.51
279.28	1226.73
279.49	1302.51
279.71	1271.79
279.93	1329.13
280.14	1169.39
280.36	1286.12
280.57	1234.93
280.79	1282.03
281.00	1263.60
281.22	1214.45
281.43	1294.32
281.65	1210.35
281.86	1290.22
282.08	1347.56
282.29	1243.12
282.51	1239.02
282.73	1198.06
282.94	1255.40
283.16	1288.17
283.37	1255.40
283.59	1245.16
283.80	1249.26
284.02	1251.31
284.23	1247.21
284.45	1220.59
284.66	1255.40
284.88	1257.45
285.09	1294.32
285.31	1337.32
285.52	1200.11
285.74	1208.30
285.95	1204.21
286.17	1279.98
286.38	1253.36
286.60	1271.79
286.81	1220.59
287.03	1271.79
287.24	1345.52
287.46	1263.60
287.67	1329.13
287.89	1265.64
288.10	1310.70
288.32	1279.98
288.53	1177.58
288.75	1181.68
288.96	1249.26
289.18	1216.49
289.39	1284.08
289.61	1310.70
289.82	1294.32
290.04	1228.78
290.25	1273.84
290.47	1245.16
290.68	1224.69
290.90	1361.90
291.11	1308.65
291.33	1290.22
291.54	1310.70
291.76	1296.36
291.97	1290.22
292.18	1253.36
292.40	1294.32
292.61	1200.11
292.83	1216.49
293.04	1267.69
293.26	1261.55
293.47	1308.65
293.69	1239.02
293.90	1263.60
294.12	1265.64
294.33	1202.16
294.55	1263.60
294.76	1310.70
294.97	1245.16
295.19	1200.11
295.40	1296.36
295.62	1286.12
295.83	1253.36
296.05	1202.16
296.26	1249.26
296.48	1218.54
296.69	1343.47
296.90	1251.31
297.12	1261.55
297.33	1327.08
297.55	1320.94
297.76	1232.88
297.98	1222.64
298.19	1273.84
298.41	1257.45
298.62	1300.46
298.83	1288.17
299.05	1228.78
299.26	1275.88
299.48	1304.56
299.69	1247.21
299.90	1275.88
300.12	1239.02
300.33	1284.08
300.55	1329.13
300.76	1308.65
300.98	1196.01
301.19	1333.23
301.40	1265.64
301.62	1208.30
301.83	1232.88
302.05	1263.60
302.26	1273.84
302.47	1282.03
302.69	1191.92
302.90	1224.69
303.12	1220.59
303.33	1257.45
303.54	1253.36
303.76	1228.78
303.97	1253.36
304.19	1239.02
304.40	1259.50
304.61	1298.41
304.83	1327.08
305.04	1265.64
305.26	1263.60
305.47	1325.04
305.68	1243.12
305.90	1181.68
306.11	1290.22
306.33	1247.21
306.54	1236.97
306.75	1251.31
306.97	1265.64
307.18	1271.79
307.39	1351.66
307.61	1218.54
307.82	1261.55
308.04	1298.41
308.25	1189.87
308.46	1200.11
308.68	1157.10
308.89	1304.56
309.10	1296.36
309.32	1275.88
309.53	1298.41
309.74	1263.60
309.96	1318.89
310.17	1208.30
310.39	1288.17
310.60	1220.59
310.81	1247.21
311.03	1239.02
311.24	1212.40
311.45	1275.88
311.67	1269.74
311.88	1234.93
312.09	1243.12
312.31	1232.88
312.52	1282.03
312.73	1298.41
312.95	1275.88
313.16	1202.16
313.37	1234.93
313.59	1263.60
313.80	1300.46
314.01	1347.56
314.23	1320.94
314.44	1249.26
314.65	1277.93
314.87	1228.78
315.08	1306.60
315.29	1282.03
315.51	1284.08
315.72	1251.31
315.93	1308.65
316.15	1290.22
316.36	1275.88
316.57	1288.17
316.79	1243.12
317.00	1230.83
317.21	1273.84
317.43	1257.45
317.64	1275.88
317.85	1253.36
318.07	1222.64
318.28	1312.75
318.49	1312.75
318.70	1290.22
318.92	1294.32
319.13	1267.69
319.34	1294.32
319.56	1255.40
319.77	1251.31
319.98	1271.79
320.20	1226.73
320.41	1302.51
320.62	1249.26
320.83	1234.93
321.05	1271.79
321.26	1339.37
321.47	1216.49
321.69	1273.84
321.90	1302.51
322.11	1210.35
322.32	1288.17
322.54	1308.65
322.75	1298.41
322.96	1298.41
323.18	1322.99
323.39	1331.18
323.60	1357.80
323.81	1279.98
324.03	1239.02
324.24	1247.21
324.45	1282.03
324.66	1279.98
324.88	1255.40
325.09	1302.51
325.30	1277.93
325.52	1290.22
325.73	1228.78
325.94	1284.08
326.15	1234.93
326.37	1277.93
326.58	1245.16
326.79	1318.89
327.00	1220.59
327.22	1288.17
327.43	1107.95
327.64	1269.74
327.85	1288.17
328.07	1263.60
328.28	1241.07
328.49	1314.80
328.70	1343.47
328.92	1247.21
329.13	1310.70
329.34	1224.69
329.55	1288.17
329.76	1269.74
329.98	1232.88
330.19	1236.97
330.40	1208.30
330.61	1247.21
330.83	1212.40
331.04	1236.97
331.25	1269.74
331.46	1288.17
331.68	1255.40
331.89	1275.88
332.10	1228.78
332.31	1290.22
332.52	1277.93
332.74	1286.12
332.95	1234.93
333.16	1312.75
333.37	1296.36
333.58	1327.08
333.80	1249.26
334.01	1292.27
334.22	1331.18
334.43	1271.79
334.64	1277.93
334.86	1282.03
335.07	1257.45
335.28	1208.30
335.49	1247.21
335.70	1247.21
335.92	1247.21
336.13	1294.32
336.34	1322.99
336.55	1363.95
336.76	1234.93
336.98	1320.94
337.19	1243.12
337.40	1200.11
337.61	1257.45
337.82	1318.89
338.04	1222.64
338.25	1202.16
338.46	1275.88
338.67	1232.88
338.88	1239.02
339.09	1318.89
339.31	1232.88
339.52	1206.25
339.73	1232.88
339.94	1347.56
340.15	1222.64
340.36	1273.84
340.58	1302.51
340.79	1263.60
341.00	1241.07
341.21	1202.16
341.42	1288.17
341.63	1161.20
341.85	1249.26
342.06	1148.91
342.27	1300.46
342.48	1312.75
342.69	1222.64
342.90	1253.36
343.12	1204.21
343.33	1302.51
343.54	1255.40
343.75	1282.03
343.96	1288.17
344.17	1224.69
344.38	1314.80
344.60	1271.79
344.81	1304.56
345.02	1259.50
345.23	1206.25
345.44	1212.40
345.65	1333.23
345.86	1247.21
346.07	1257.45
346.29	1236.97
346.50	1284.08
346.71	1263.60
346.92	1243.12
347.13	1265.64
347.34	1232.88
347.55	1236.97
347.76	1277.93
347.98	1269.74
348.19	1171.44
348.40	1304.56
348.61	1261.55
348.82	1296.36
349.03	1310.70
349.24	1226.73
349.45	1234.93
349.66	1286.12
349.88	1218.54
350.09	1249.26
350.30	1224.69
350.51	1265.64
350.72	1243.12
350.93	1245.16
351.14	1216.49
351.35	1247.21
351.56	1212.40
351.77	1261.55
351.99	1265.64
352.20	1355.76
352.41	1333.23
352.62	1288.17
352.83	1296.36
353.04	1292.27
353.25	1296.36
353.46	1226.73
353.67	1191.92
353.88	1257.45
354.09	1216.49
354.30	1257.45
354.52	1239.02
354.73	1292.27
354.94	1273.84
355.15	1255.40
355.36	1234.93
355.57	1265.64
355.78	1298.41
355.99	1286.12
356.20	1243.12
356.41	1249.26
356.62	1267.69
356.83	1263.60
357.04	1306.60
357.25	1339.37
357.46	1290.22
357.68	1245.16
357.89	1249.26
358.10	1247.21
358.31	1241.07
358.52	1368.04
358.73	1255.40
358.94	1208.30
359.15	1290.22
359.36	1288.17
359.57	1234.93
359.78	1257.45
359.99	1282.03
360.20	1220.59
360.41	1212.40
360.62	1241.07
360.83	1286.12
361.04	1177.58
361.25	1255.40
361.46	1236.97
361.67	1251.31
361.88	1294.32
362.09	1222.64
362.30	1193.97
362.51	1286.12
362.72	1279.98
362.93	1288.17
363.14	1284.08
363.35	1273.84
363.56	1257.45
363.78	1241.07
363.99	1294.32
364.20	1177.58
364.41	1208.30
364.62	1277.93
364.83	1243.12
365.04	1249.26
365.25	1306.60
365.46	1249.26
365.67	1249.26
365.88	1331.18
366.09	1284.08
366.30	1304.56
366.51	1253.36
366.72	1273.84
366.93	1208.30
367.14	1193.97
367.35	1271.79
367.56	1318.89
367.77	1259.50
367.98	1275.88
368.18	1275.88
368.39	1183.73
368.60	1202.16
368.81	1261.55
369.02	1253.36
369.23	1294.32
369.44	1251.31
369.65	1282.03
369.86	1269.74
370.07	1265.64
370.28	1277.93
370.49	1302.51
370.70	1263.60
370.91	1187.82
371.12	1224.69
371.33	1286.12
371.54	1239.02
371.75	1212.40
371.96	1271.79
372.17	1329.13
372.38	1320.94
372.59	1253.36
372.80	1234.93
373.01	1284.08
373.22	1302.51
373.43	1275.88
373.64	1245.16
373.85	1175.53
374.06	1279.98
374.26	1310.70
374.47	1343.47
374.68	1286.12
374.89	1263.60
375.10	1234.93
375.31	1269.74
375.52	1265.64
375.73	1327.08
375.94	1245.16
376.15	1255.40
376.36	1226.73
376.57	1255.40
376.78	1308.65
376.99	1320.94
377.20	1261.55
377.40	1269.74
377.61	1290.22
377.82	1273.84
378.03	1234.93
378.24	1279.98
378.45	1253.36
378.66	1368.04
378.87	1263.60
379.08	1249.26
379.29	1286.12
379.50	1296.36
379.71	1247.21
379.91	1265.64
380.12	1300.46
380.33	1339.37
380.54	1228.78
380.75	1378.28
380.96	1167.34
381.17	1337.32
381.38	1257.45
381.59	1290.22
381.80	1241.07
382.00	1208.30
382.21	1263.60
382.42	1290.22
382.63	1296.36
382.84	1263.60
383.05	1284.08
383.26	1271.79
383.47	1224.69
383.68	1249.26
383.88	1253.36
384.09	1284.08
384.30	1202.16
384.51	1349.61
384.72	1220.59
384.93	1245.16
385.14	1222.64
385.35	1306.60
385.55	1234.93
385.76	1265.64
385.97	1206.25
386.18	1271.79
386.39	1333.23
386.60	1183.73
386.81	1345.52
387.02	1253.36
387.22	1298.41
387.43	1329.13
387.64	1294.32
387.85	1251.31
388.06	1200.11
388.27	1343.47
388.48	1210.35
388.68	1239.02
388.89	1284.08
389.10	1271.79
389.31	1282.03
389.52	1282.03
389.73	1253.36
389.93	1253.36
390.14	1232.88
390.35	1267.69
390.56	1279.98
390.77	1257.45
390.98	1234.93
391.18	1269.74
391.39	1290.22
391.60	1181.68
391.81	1331.18
392.02	1255.40
392.23	1191.92
392.43	1337.32
392.64	1269.74
392.85	1325.04
393.06	1275.88
393.27	1282.03
393.47	1279.98
393.68	1273.84
393.89	1220.59
394.10	1302.51
394.31	1257.45
394.52	1263.60
394.72	1277.93
394.93	1191.92
395.14	1228.78
395.35	1263.60
395.56	1239.02
395.76	1282.03
395.97	1279.98
396.18	1265.64
396.39	1224.69
396.60	1271.79
396.80	1314.80
397.01	1232.88
397.22	1210.35
397.43	1236.97
397.64	1298.41
397.84	1339.37
398.05	1279.98
398.26	1208.30
398.47	1165.29
398.67	1286.12
398.88	1236.97
399.09	1263.60
399.30	1316.84
399.51	1298.41
399.71	1263.60
399.92	1220.59
400.13	1224.69
400.34	1310.70
400.54	1247.21
400.75	1267.69
400.96	1226.73
401.17	1251.31
401.37	1343.47
401.58	1306.60
401.79	1230.83
402.00	1247.21
402.21	1273.84
402.41	1329.13
402.62	1322.99
402.83	1294.32
403.04	1249.26
403.24	1288.17
403.45	1196.01
403.66	1269.74
403.87	1265.64
404.07	1325.04
404.28	1249.26
404.49	1249.26
404.70	1318.89
404.90	1345.52
405.11	1267.69
405.32	1196.01
405.52	1271.79
405.73	1271.79
405.94	1218.54
406.15	1308.65
406.35	1259.50
406.56	1224.69
406.77	1292.27
406.98	1275.88
407.18	1241.07
407.39	1288.17
407.60	1232.88
407.80	1236.97
408.01	1261.55
408.22	1230.83
408.43	1353.71
408.63	1269.74
408.84	1286.12
409.05	1261.55
409.25	1286.12
409.46	1208.30
409.67	1290.22
409.88	1196.01
410.08	1320.94
410.29	1269.74
410.50	1196.01
410.70	1255.40
410.91	1296.36
411.12	1224.69
411.32	1292.27
411.53	1247.21
411.74	1275.88
411.95	1239.02
412.15	1300.46
412.36	1312.75
412.57	1253.36
412.77	1198.06
412.98	1220.59
413.19	1277.93
413.39	1245.16
413.60	1267.69
413.81	1239.02
414.01	1308.65
414.22	1279.98
414.43	1257.45
414.63	1230.83
414.84	1255.40
415.05	1259.50
415.25	1265.64
415.46	1306.60
415.67	1298.41
415.87	1341.42
416.08	1228.78
416.29	1226.73
416.49	1200.11
416.70	1255.40
416.91	1275.88
417.11	1200.11
417.32	1241.07
417.53	1300.46
417.73	1282.03
417.94	1181.68
418.15	1263.60
418.35	1228.78
418.56	1279.98
418.77	1273.84
418.97	1218.54
419.18	1228.78
419.38	1290.22
419.59	1220.59
419.80	1322.99
420.00	1265.64
420.21	1288.17
420.42	1306.60
420.62	1265.64
420.83	1308.65
421.04	1279.98
421.24	1300.46
421.45	1271.79
421.65	1337.32
421.86	1300.46
422.07	1308.65
422.27	1255.40
422.48	1286.12
422.69	1288.17
422.89	1314.80
423.10	1228.78
423.30	1275.88
423.51	1245.16
423.72	1255.40
423.92	1339.37
424.13	1265.64
424.33	1314.80
424.54	1337.32
424.75	1277.93
424.95	1279.98
425.16	1304.56
425.36	1269.74
425.57	1347.56
425.78	1275.88
425.98	1318.89
426.19	1239.02
426.39	1310.70
426.60	1232.88
426.81	1308.65
427.01	1253.36
427.22	1300.46
427.42	1245.16
427.63	1304.56
427.83	1275.88
428.04	1318.89
428.25	1206.25
428.45	1236.97
428.66	1230.83
428.86	1314.80
429.07	1245.16
429.28	1314.80
429.48	1288.17
429.69	1198.06
429.89	1271.79
430.10	1234.93
430.30	1294.32
430.51	1234.93
430.71	1261.55
430.92	1314.80
431.13	1255.40
431.33	1286.12
431.54	1302.51
431.74	1306.60
431.95	1304.56
432.15	1306.60
432.36	1271.79
432.56	1318.89
432.77	1269.74
432.98	1279.98
433.18	1234.93
433.39	1251.31
433.59	1345.52
433.80	1306.60
434.00	1187.82
434.21	1224.69
434.41	1259.50
434.62	1251.31
434.82	1234.93
435.03	1257.45
435.23	1257.45
435.44	1279.98
435.64	1247.21
435.85	1241.07
436.06	1230.83
436.26	1298.41
436.47	1202.16
436.67	1279.98
436.88	1253.36
437.08	1320.94
437.29	1300.46
437.49	1214.45
437.70	1273.84
437.90	1363.95
438.11	1294.32
438.31	1257.45
438.52	1284.08
438.72	1241.07
438.93	1255.40
439.13	1251.31
439.34	1347.56
439.54	1251.31
439.75	1329.13
439.95	1304.56
440.16	1253.36
440.36	1310.70
440.57	1306.60
440.77	1214.45
440.98	1279.98
441.18	1357.80
441.39	1243.12
441.59	1183.73
441.80	1296.36
442.00	1318.89
442.21	1314.80
442.41	1282.03
442.62	1259.50
442.82	1187.82
443.02	1255.40
443.23	1228.78
443.43	1243.12
443.64	1322.99
443.84	1277.93
444.05	1273.84
444.25	1255.40
444.46	1314.80
444.66	1251.31
444.87	1290.22
445.07	1185.77
445.28	1232.88
445.48	1234.93
445.69	1306.60
445.89	1269.74
446.09	1347.56
446.30	1277.93
446.50	1210.35
446.71	1329.13
446.91	1263.60
447.12	1306.60
447.32	1267.69
447.53	1361.90
447.73	1249.26
447.93	1230.83
448.14	1267.69
448.34	1294.32
448.55	1214.45
448.75	1318.89
448.96	1298.41
449.16	1296.36
449.36	1222.64
449.57	1273.84
449.77	1343.47
449.98	1220.59
450.18	1202.16
450.39	1247.21
450.59	1310.70
450.79	1302.51
451.00	1337.32
451.20	1353.71
451.41	1312.75
451.61	1279.98
451.81	1245.16
452.02	1292.27
452.22	1275.88
452.43	1273.84
452.63	1292.27
452.84	1267.69
453.04	1302.51
453.24	1306.60
453.45	1345.52
453.65	1265.64
453.86	1247.21
454.06	1345.52
454.26	1275.88
454.47	1312.75
454.67	1269.74
454.87	1284.08
455.08	1329.13
455.28	1378.28
455.49	1308.65
455.69	1277.93
455.89	1216.49
456.10	1282.03
456.30	1271.79
456.51	1245.16
456.71	1331.18
456.91	1249.26
457.12	1298.41
457.32	1327.08
457.52	1308.65
457.73	1257.45
457.93	1275.88
458.14	1304.56
458.34	1271.79
458.54	1224.69
458.75	1325.04
458.95	1345.52
459.15	1230.83
459.36	1189.87
459.56	1228.78
459.76	1318.89
459.97	1275.88
460.17	1277.93
460.37	1273.84
460.58	1300.46
460.78	1267.69
460.99	1173.49
461.19	1284.08
461.39	1269.74
461.60	1249.26
461.80	1271.79
462.00	1277.93
462.21	1298.41
462.41	1273.84
462.61	1263.60
462.82	1236.97
463.02	1277.93
463.22	1259.50
463.43	1267.69
463.63	1300.46
463.83	1245.16
464.04	1306.60
464.24	1275.88
464.44	1279.98
464.64	1269.74
464.85	1271.79
465.05	1312.75
465.25	1208.30
465.46	1290.22
465.66	1310.70
465.86	1275.88
466.07	1277.93
466.27	1290.22
466.47	1290.22
466.68	1273.84
466.88	1214.45
467.08	1296.36
467.29	1339.37
467.49	1261.55
467.69	1296.36
467.89	1275.88
468.10	1290.22
468.30	1288.17
468.50	1255.40
468.71	1288.17
468.91	1290.22
469.11	1282.03
469.31	1304.56
469.52	1243.12
469.72	1282.03
469.92	1298.41
470.13	1312.75
470.33	1267.69
470.53	1296.36
470.73	1322.99
470.94	1290.22
471.14	1341.42
471.34	1306.60
471.54	1279.98
471.75	1345.52
471.95	1275.88
472.15	1363.95
472.36	1304.56
472.56	1271.79
472.76	1290.22
472.96	1234.93
473.17	1255.40
473.37	1245.16
473.57	1288.17
473.77	1239.02
473.98	1282.03
474.18	1241.07
474.38	1316.84
474.58	1318.89
474.79	1271.79
474.99	1249.26
475.19	1263.60
475.39	1255.40
475.60	1294.32
475.80	1232.88
476.00	1279.98
476.20	1202.16
476.41	1239.02
476.61	1228.78
476.81	1308.65
477.01	1277.93
477.21	1220.59
477.42	1224.69
477.62	1290.22
477.82	1214.45
478.02	1286.12
478.23	1236.97
478.43	1236.97
478.63	1261.55
478.83	1290.22
479.03	1239.02
479.24	1228.78
479.44	1318.89
479.64	1318.89
479.84	1224.69
480.04	1314.80
480.25	1335.28
480.45	1306.60
480.65	1300.46
480.85	1247.21
481.06	1263.60
481.26	1236.97
481.46	1337.32
481.66	1220.59
481.86	1220.59
482.06	1286.12
482.27	1282.03
482.47	1216.49
482.67	1286.12
482.87	1327.08
483.07	1325.04
483.28	1282.03
483.48	1251.31
483.68	1308.65
483.88	1214.45
484.08	1243.12
484.29	1294.32
484.49	1308.65
484.69	1284.08
484.89	1294.32
485.09	1234.93
485.29	1257.45
485.50	1253.36
485.70	1298.41
485.90	1243.12
486.10	1224.69
486.30	1320.94
486.50	1333.23
486.71	1269.74
486.91	1263.60
487.11	1261.55
487.31	1267.69
487.51	1257.45
487.71	1310.70
487.91	1304.56
488.12	1296.36
488.32	1257.45
488.52	1370.09
488.72	1329.13
488.92	1288.17
489.12	1279.98
489.32	1279.98
489.53	1292.27
489.73	1282.03
489.93	1232.88
490.13	1288.17
490.33	1314.80
490.53	1269.74
490.73	1318.89
490.94	1284.08
491.14	1304.56
491.34	1222.64
491.54	1337.32
491.74	1267.69
491.94	1183.73
492.14	1279.98
492.34	1251.31
492.54	1236.97
492.75	1282.03
492.95	1286.12
493.15	1239.02
493.35	1277.93
493.55	1284.08
493.75	1200.11
493.95	1302.51
494.15	1290.22
494.35	1259.50
494.56	1243.12
494.76	1243.12
494.96	1304.56
495.16	1279.98
495.36	1316.84
495.56	1230.83
495.76	1232.88
495.96	1292.27
496.16	1290.22
496.36	1288.17
496.56	1300.46
496.77	1273.84
496.97	1263.60
497.17	1282.03
497.37	1314.80
497.57	1282.03
497.77	1320.94
497.97	1286.12
498.17	1288.17
498.37	1255.40
498.57	1273.84
498.77	1275.88
498.97	1249.26
499.17	1345.52
499.38	1282.03
499.58	1220.59
499.78	1290.22
499.98	1247.21
500.18	1267.69
500.38	1224.69
500.58	1232.88
500.78	1261.55
500.98	1265.64
501.18	1273.84
501.38	1300.46
501.58	1232.88
501.78	1226.73
501.98	1294.32
502.18	1322.99
502.38	1288.17
502.58	1191.92
502.78	1300.46
502.98	1290.22
503.18	1212.40
503.38	1308.65
503.59	1210.35
503.79	1222.64
503.99	1308.65
504.19	1265.64
504.39	1302.51
504.59	1265.64
504.79	1306.60
504.99	1277.93
505.19	1316.84
505.39	1222.64
505.59	1296.36
505.79	1294.32
505.99	1271.79
506.19	1290.22
506.39	1239.02
506.59	1232.88
506.79	1282.03
506.99	1290.22
507.19	1239.02
507.39	1245.16
507.59	1282.03
507.79	1337.32
507.99	1298.41
508.19	1329.13
508.39	1265.64
508.59	1298.41
508.79	1325.04
508.99	1306.60
509.19	1284.08
509.39	1263.60
509.59	1263.60
509.79	1298.41
509.99	1247.21
510.19	1263.60
510.39	1263.60
510.59	1304.56
510.79	1249.26
510.99	1234.93
511.19	1247.21
511.39	1259.50
511.59	1312.75
511.79	1341.42
511.99	1359.85
512.19	1234.93
512.38	1255.40
512.58	1218.54
512.78	1263.60
512.98	1290.22
513.18	1257.45
513.38	1327.08
513.58	1325.04
513.78	1265.64
513.98	1359.85
514.18	1255.40
514.38	1290.22
514.58	1282.03
514.78	1333.23
514.98	1234.93
515.18	1304.56
515.38	1294.32
515.58	1261.55
515.78	1261.55
515.98	1292.27
516.18	1310.70
516.38	1261.55
516.57	1343.47
516.77	1329.13
516.97	1204.21
517.17	1306.60
517.37	1247.21
517.57	1224.69
517.77	1290.22
517.97	1267.69
518.17	1279.98
518.37	1224.69
518.57	1247.21
518.77	1269.74
518.97	1257.45
519.16	1339.37
519.36	1341.42
519.56	1343.47
519.76	1261.55
519.96	1282.03
520.16	1294.32
520.36	1304.56
520.56	1239.02
520.76	1265.64
520.96	1290.22
521.16	1372.14
521.35	1288.17
521.55	1312.75
521.75	1296.36
521.95	1251.31
522.15	1294.32
522.35	1251.31
522.55	1249.26
522.75	1267.69
522.95	1224.69
523.14	1284.08
523.34	1337.32
523.54	1290.22
523.74	1355.76
523.94	1322.99
524.14	1304.56
524.34	1312.75
524.54	1271.79
524.73	1349.61
524.93	1282.03
525.13	1234.93
525.33	1282.03
525.53	1312.75
525.73	1353.71
525.93	1236.97
526.13	1232.88
526.32	1343.47
526.52	1277.93
526.72	1304.56
526.92	1361.90
527.12	1322.99
527.32	1306.60
527.52	1355.76
527.71	1378.28
527.91	1310.70
528.11	1304.56
528.31	1230.83
528.51	1314.80
528.71	1282.03
528.90	1316.84
529.10	1224.69
529.30	1304.56
529.50	1175.53
529.70	1300.46
529.90	1302.51
530.09	1290.22
530.29	1282.03
530.49	1241.07
530.69	1198.06
530.89	1275.88
531.09	1273.84
531.28	1247.21
531.48	1345.52
531.68	1232.88
531.88	1378.28
532.08	1241.07
532.28	1320.94
532.47	1310.70
532.67	1288.17
532.87	1298.41
533.07	1263.60
533.27	1308.65
533.46	1322.99
533.66	1249.26
533.86	1347.56
534.06	1255.40
534.26	1228.78
534.45	1222.64
534.65	1257.45
534.85	1239.02
535.05	1265.64
535.25	1267.69
535.44	1304.56
535.64	1312.75
535.84	1339.37
536.04	1282.03
536.24	1310.70
536.43	1282.03
536.63	1329.13
536.83	1290.22
537.03	1212.40
537.22	1290.22
537.42	1271.79
537.62	1214.45
537.82	1308.65
538.02	1277.93
538.21	1333.23
538.41	1226.73
538.61	1265.64
538.81	1339.37
539.00	1298.41
539.20	1275.88
539.40	1298.41
539.60	1333.23
539.79	1269.74
539.99	1290.22
540.19	1269.74
540.39	1271.79
540.58	1298.41
540.78	1228.78
540.98	1341.42
541.18	1282.03
541.37	1320.94
541.57	1243.12
541.77	1308.65
541.97	1265.64
542.16	1345.52
542.36	1232.88
542.56	1308.65
542.76	1259.50
542.95	1273.84
543.15	1290.22
543.35	1312.75
543.54	1279.98
543.74	1339.37
543.94	1271.79
544.14	1298.41
544.33	1253.36
544.53	1208.30
544.73	1275.88
544.93	1261.55
545.12	1261.55
545.32	1327.08
545.52	1273.84
545.71	1271.79
545.91	1232.88
546.11	1347.56
546.30	1312.75
546.50	1304.56
546.70	1267.69
546.90	1331.18
547.09	1226.73
547.29	1292.27
547.49	1339.37
547.68	1232.88
547.88	1253.36
548.08	1329.13
548.27	1251.31
548.47	1290.22
548.67	1224.69
548.87	1282.03
549.06	1279.98
549.26	1282.03
549.46	1232.88
549.65	1273.84
549.85	1232.88
550.05	1302.51
550.24	1343.47
550.44	1236.97
550.64	1265.64
550.83	1265.64
551.03	1277.93
551.23	1232.88
551.42	1249.26
551.62	1296.36
551.82	1273.84
552.01	1320.94
552.21	1243.12
552.41	1335.28
552.60	1245.16
552.80	1345.52
553.00	1255.40
553.19	1263.60
553.39	1204.21
553.59	1304.56
553.78	1263.60
553.98	1345.52
554.17	1255.40
554.37	1273.84
554.57	1198.06
554.76	1259.50
554.96	1277.93
555.16	1347.56
555.35	1290.22
555.55	1257.45
555.75	1249.26
555.94	1296.36
556.14	1282.03
556.33	1304.56
556.53	1249.26
556.73	1255.40
556.92	1269.74
557.12	1290.22
557.32	1269.74
557.51	1284.08
557.71	1245.16
557.90	1263.60
558.10	1249.26
558.30	1290.22
558.49	1257.45
558.69	1392.62
558.88	1288.17
559.08	1247.21
559.28	1257.45
559.47	1302.51
559.67	1290.22
559.86	1196.01
560.06	1308.65
560.26	1294.32
560.45	1247.21
560.65	1316.84
560.84	1290.22
561.04	1320.94
561.24	1257.45
561.43	1257.45
561.63	1335.28
561.82	1230.83
562.02	1249.26
562.22	1206.25
562.41	1349.61
562.61	1298.41
562.80	1259.50
563.00	1331.18
563.19	1277.93
563.39	1329.13
563.59	1243.12
563.78	1314.80
563.98	1304.56
564.17	1284.08
564.37	1292.27
564.56	1331.18
564.76	1265.64
564.96	1292.27
565.15	1267.69
565.35	1277.93
565.54	1310.70
565.74	1282.03
565.93	1226.73
566.13	1263.60
566.32	1247.21
566.52	1370.09
566.71	1261.55
566.91	1345.52
567.11	1212.40
567.30	1269.74
567.50	1345.52
567.69	1251.31
567.89	1294.32
568.08	1282.03
568.28	1376.24
568.47	1261.55
568.67	1361.90
568.86	1273.84
569.06	1322.99
569.25	1269.74
569.45	1273.84
569.64	1363.95
569.84	1322.99
570.04	1214.45
570.23	1316.84
570.43	1232.88
570.62	1277.93
570.82	1247.21
571.01	1279.98
571.21	1351.66
571.40	1241.07
571.60	1224.69
571.79	1220.59
571.99	1198.06
572.18	1198.06
572.38	1372.14
572.57	1253.36
572.77	1322.99
572.96	1314.80
573.16	1320.94
573.35	1298.41
573.55	1271.79
573.74	1298.41
573.94	1267.69
574.13	1228.78
574.33	1277.93
574.52	1284.08
574.71	1310.70
574.91	1251.31
575.10	1294.32
575.30	1230.83
575.49	1273.84
575.69	1241.07
575.88	1318.89
576.08	1308.65
576.27	1241.07
576.47	1163.25
576.66	1304.56
576.86	1247.21
577.05	1220.59
577.25	1296.36
577.44	1265.64
577.64	1316.84
577.83	1279.98
578.02	1288.17
578.22	1261.55
578.41	1265.64
578.61	1239.02
578.80	1288.17
579.00	1271.79
579.19	1255.40
579.39	1286.12
579.58	1279.98
579.77	1261.55
579.97	1308.65
580.16	1216.49
580.36	1247.21
580.55	1322.99
580.75	1271.79
580.94	1265.64
581.13	1318.89
581.33	1267.69
581.52	1286.12
581.72	1310.70
581.91	1341.42
582.11	1325.04
582.30	1230.83
582.49	1302.51
582.69	1318.89
582.88	1251.31
583.08	1206.25
583.27	1261.55
583.47	1331.18
583.66	1282.03
583.85	1282.03
584.05	1388.52
584.24	1255.40
584.44	1306.60
584.63	1265.64
584.82	1357.80
585.02	1261.55
585.21	1316.84
585.41	1253.36
585.60	1224.69
585.79	1224.69
585.99	1298.41
586.18	1282.03
586.37	1275.88
586.57	1249.26
586.76	1265.64
586.96	1355.76
587.15	1337.32
587.34	1316.84
587.54	1333.23
587.73	1253.36
587.93	1279.98
588.12	1271.79
588.31	1349.61
588.51	1247.21
588.70	1325.04
588.89	1314.80
589.09	1298.41
589.28	1226.73
589.47	1343.47
589.67	1253.36
589.86	1316.84
590.06	1296.36
590.25	1259.50
590.44	1271.79
590.64	1257.45
590.83	1277.93
591.02	1273.84
591.22	1206.25
591.41	1312.75
591.60	1312.75
591.80	1243.12
591.99	1275.88
592.18	1290.22
592.38	1314.80
592.57	1271.79
592.76	1290.22
592.96	1259.50
593.15	1234.93
593.34	1271.79
593.54	1245.16
593.73	1245.16
593.92	1335.28
594.12	1306.60
594.31	1294.32
594.50	1208.30
594.70	1253.36
594.89	1284.08
595.08	1320.94
595.28	1318.89
595.47	1341.42
595.66	1288.17
595.86	1257.45
596.05	1296.36
596.24	1232.88
596.43	1296.36
596.63	1273.84
596.82	1298.41
597.01	1247.21
597.21	1236.97
597.40	1273.84
597.59	1312.75
597.79	1234.93
597.98	1239.02
598.17	1316.84
598.36	1312.75
598.56	1253.36
598.75	1220.59
598.94	1322.99
599.14	1378.28
599.33	1288.17
599.52	1318.89
599.71	1290.22
599.91	1208.30
600.10	1335.28
600.29	1265.64
600.48	1232.88
600.68	1286.12
600.87	1312.75
601.06	1337.32
601.26	1224.69
601.45	1290.22
601.64	1359.85
601.83	1308.65
602.03	1310.70
602.22	1312.75
602.41	1308.65
602.60	1294.32
602.80	1290.22
602.99	1230.83
603.18	1298.41
603.37	1329.13
603.57	1300.46
603.76	1304.56
603.95	1361.90
604.14	1279.98
604.34	1210.35
604.53	1279.98
604.72	1282.03
604.91	1230.83
605.10	1243.12
605.30	1191.92
605.49	1282.03
605.68	1275.88
605.87	1341.42
606.07	1241.07
606.26	1273.84
606.45	1304.56
606.64	1273.84
606.84	1257.45
607.03	1245.16
607.22	1327.08
607.41	1277.93
607.60	1253.36
607.80	1277.93
607.99	1314.80
608.18	1204.21
608.37	1298.41
608.56	1349.61
608.76	1259.50
608.95	1275.88
609.14	1253.36
609.33	1322.99
609.52	1345.52
609.72	1255.40
609.91	1181.68
610.10	1265.64
610.29	1279.98
610.48	1279.98
610.68	1316.84
610.87	1259.50
611.06	1300.46
611.25	1308.65
611.44	1265.64
611.63	1255.40
611.83	1368.04
612.02	1327.08
612.21	1335.28
612.40	1251.31
612.59	1294.32
612.79	1263.60
612.98	1239.02
613.17	1372.14
613.36	1308.65
613.55	1310.70
613.74	1247.21
613.93	1269.74
614.13	1263.60
614.32	1294.32
614.51	1308.65
614.70	1304.56
614.89	1310.70
615.08	1294.32
615.28	1398.76
615.47	1316.84
615.66	1320.94
615.85	1284.08
616.04	1308.65
616.23	1204.21
616.42	1271.79
616.62	1239.02
616.81	1306.60
617.00	1255.40
617.19	1296.36
617.38	1249.26
617.57	1320.94
617.76	1259.50
617.95	1275.88
618.15	1322.99
618.34	1265.64
618.53	1265.64
618.72	1230.83
618.91	1171.44
619.10	1308.65
619.29	1349.61
619.48	1259.50
619.68	1296.36
619.87	1257.45
620.06	1224.69
620.25	1271.79
620.44	1253.36
620.63	1255.40
620.82	1347.56
621.01	1308.65
621.20	1275.88
621.39	1310.70
621.59	1292.27
621.78	1247.21
621.97	1308.65
622.16	1263.60
622.35	1306.60
622.54	1318.89
622.73	1277.93
622.92	1245.16
623.11	1261.55
623.30	1263.60
623.49	1224.69
623.68	1310.70
623.88	1271.79
624.07	1239.02
624.26	1298.41
624.45	1230.83
624.64	1296.36
624.83	1372.14
625.02	1325.04
625.21	1327.08
625.40	1286.12
625.59	1294.32
625.78	1255.40
625.97	1351.66
626.16	1265.64
626.35	1337.32
626.54	1306.60
626.74	1294.32
626.93	1294.32
627.12	1255.40
627.31	1314.80
627.50	1290.22
627.69	1275.88
627.88	1279.98
628.07	1290.22
628.26	1314.80
628.45	1232.88
628.64	1357.80
628.83	1265.64
629.02	1337.32
629.21	1253.36
629.40	1263.60
629.59	1304.56
629.78	1310.70
629.97	1259.50
630.16	1277.93
630.35	1296.36
630.54	1314.80
630.73	1325.04
630.92	1335.28
631.11	1345.52
631.30	1357.80
631.49	1411.05
631.68	1822.69
631.87	3368.91
632.06	11206.48
632.25	22826.66
632.44	16486.15
632.63	10432.35
632.82	9516.91
633.01	3139.54
633.20	2430.94
633.39	2080.74
633.58	1964.00
633.77	1931.23
633.96	1761.25
634.15	1675.24
634.34	1673.19
634.53	1595.37
634.72	1576.94
634.91	1540.07
635.10	1560.55
635.29	1413.10
635.48	1511.40
635.67	1472.49
635.86	1544.17
636.05	1423.34
636.24	1427.43
636.43	1423.34
636.62	1392.62
636.81	1366.00
637.00	1361.90
637.19	1404.91
637.38	1392.62
637.57	1249.26
637.76	1345.52
637.95	1374.19
638.14	1331.18
638.33	1226.73
638.52	1339.37
638.71	1304.56
638.89	1325.04
639.08	1404.91
639.27	1263.60
639.46	1245.16
639.65	1304.56
639.84	1292.27
640.03	1236.97
640.22	1236.97
640.41	1286.12
640.60	1218.54
640.79	1310.70
640.98	1347.56
641.17	1304.56
641.36	1220.59
641.55	1329.13
641.74	1302.51
641.92	1292.27
642.11	1298.41
642.30	1359.85
642.49	1263.60
642.68	1265.64
642.87	1249.26
643.06	1288.17
643.25	1247.21
643.44	1308.65
643.63	1300.46
643.82	1226.73
644.00	1259.50
644.19	1255.40
644.38	1249.26
644.57	1249.26
644.76	1196.01
644.95	1347.56
645.14	1292.27
645.33	1339.37
645.52	1191.92
645.71	1312.75
645.89	1265.64
646.08	1243.12
646.27	1241.07
646.46	1251.31
646.65	1306.60
646.84	1290.22
647.03	1322.99
647.22	1298.41
647.40	1312.75
647.59	1284.08
647.78	1255.40
647.97	1331.18
648.16	1296.36
648.35	1314.80
648.54	1327.08
648.73	1286.12
648.91	1282.03
649.10	1304.56
649.29	1259.50
649.48	1294.32
649.67	1288.17
649.86	1277.93
650.05	1290.22
650.23	1212.40
650.42	1271.79
650.61	1232.88
650.80	1279.98
650.99	1185.77
651.18	1308.65
651.36	1282.03
651.55	1245.16
651.74	1329.13
651.93	1259.50
652.12	1335.28
652.31	1341.42
652.49	1339.37
652.68	1259.50
652.87	1241.07
653.06	1247.21
653.25	1230.83
653.44	1273.84
653.62	1234.93
653.81	1220.59
654.00	1200.11
654.19	1282.03
654.38	1191.92
654.56	1228.78
654.75	1320.94
654.94	1265.64
655.13	1290.22
655.32	1286.12
655.51	1320.94
655.69	1230.83
655.88	1257.45
656.07	1224.69
656.26	1349.61
656.45	1310.70
656.63	1243.12
656.82	1306.60
657.01	1282.03
657.20	1230.83
657.38	1214.45
657.57	1325.04
657.76	1337.32
657.95	1294.32
658.14	1271.79
658.32	1208.30
658.51	1257.45
658.70	1232.88
658.89	1284.08
659.08	1204.21
659.26	1298.41
659.45	1245.16
659.64	1292.27
659.83	1282.03
660.01	1298.41
660.20	1288.17
660.39	1243.12
660.58	1191.92
660.76	1314.80
660.95	1327.08
661.14	1243.12
661.33	1316.84
661.51	1269.74
661.70	1273.84
661.89	1200.11
662.08	1189.87
662.26	1325.04
662.45	1243.12
662.64	1347.56
662.83	1267.69
663.01	1241.07
663.20	1257.45
663.39	1273.84
663.58	1306.60
663.76	1253.36
663.95	1189.87
664.14	1257.45
664.32	1273.84
664.51	1263.60
664.70	1210.35
664.89	1198.06
665.07	1273.84
665.26	1300.46
665.45	1175.53
665.64	1286.12
665.82	1232.88
666.01	1255.40
666.20	1267.69
666.38	1202.16
666.57	1249.26
666.76	1279.98
666.95	1368.04
667.13	1251.31
667.32	1257.45
667.51	1263.60
667.69	1286.12
667.88	1316.84
668.07	1286.12
668.25	1212.40
668.44	1241.07
668.63	1277.93
668.81	1259.50
669.00	1282.03
669.19	1202.16
669.38	1243.12
669.56	1218.54
669.75	1316.84
669.94	1275.88
670.12	1173.49
670.31	1247.21
670.50	1226.73
670.68	1247.21
670.87	1335.28
671.06	1322.99
671.24	1271.79
671.43	1286.12
671.62	1259.50
671.80	1290.22
671.99	1259.50
672.18	1232.88
672.36	1255.40
672.55	1228.78
672.74	1320.94
672.92	1236.97
673.11	1279.98
673.29	1251.31
673.48	1263.60
673.67	1210.35
673.85	1267.69
674.04	1308.65
674.23	1196.01
674.41	1298.41
674.60	1333.23
674.79	1257.45
674.97	1271.79
675.16	1320.94
675.34	1224.69
675.53	1257.45
675.72	1308.65
675.90	1292.27
676.09	1261.55
676.28	1198.06
676.46	1249.26
676.65	1282.03
676.83	1351.66
677.02	1298.41
677.21	1253.36
677.39	1241.07
677.58	1306.60
677.77	1282.03
677.95	1288.17
678.14	1273.84
678.32	1294.32
678.51	1196.01
678.70	1314.80
678.88	1234.93
679.07	1263.60
679.25	1259.50
679.44	1273.84
679.63	1261.55
679.81	1218.54
680.00	1230.83
680.18	1277.93
680.37	1241.07
680.55	1286.12
680.74	1265.64
680.93	1230.83
681.11	1251.31
681.30	1249.26
681.48	1337.32
681.67	1306.60
681.85	1228.78
682.04	1226.73
682.23	1349.61
682.41	1288.17
682.60	1284.08
682.78	1282.03
682.97	1349.61
683.15	1331.18
683.34	1282.03
683.53	1286.12
683.71	1269.74
683.90	1263.60
684.08	1198.06
684.27	1228.78
684.45	1284.08
684.64	1284.08
684.82	1230.83
685.01	1353.71
685.19	1372.14
685.38	1286.12
685.57	1259.50
685.75	1279.98
685.94	1251.31
686.12	1236.97
686.31	1343.47
686.49	1273.84
686.68	1216.49
686.86	1331.18
687.05	1302.51
687.23	1284.08
687.42	1288.17
687.60	1290.22
687.79	1335.28
687.97	1290.22
688.16	1355.76
688.34	1282.03
688.53	1267.69
688.71	1333.23
688.90	1282.03
689.08	1241.07
689.27	1302.51
689.45	1316.84
689.64	1263.60
689.82	1257.45
690.01	1265.64
690.19	1253.36
690.38	1261.55
690.56	1255.40
690.75	1243.12
690.93	1263.60
691.12	1214.45
691.30	1218.54
691.49	1306.60
691.67	1253.36
691.86	1261.55
692.04	1296.36
692.23	1275.88
692.41	1310.70
692.60	1222.64
692.78	1243.12
692.97	1200.11
693.15	1298.41
693.34	1288.17
693.52	1271.79
693.71	1288.17
693.89	1243.12
694.08	1277.93
694.26	1275.88
694.44	1288.17
694.63	1370.09
694.81	1243.12
695.00	1247.21
695.18	1230.83
695.37	1306.60
695.55	1247.21
695.74	1243.12
695.92	1267.69
696.10	1353.71
696.29	1341.42
696.47	1308.65
696.66	1284.08
696.84	1304.56
697.03	1243.12
697.21	1294.32
697.40	1290.22
697.58	1220.59
697.76	1308.65
697.95	1216.49
698.13	1196.01
698.32	1337.32
698.50	1261.55
698.68	1316.84
698.87	1230.83
699.05	1282.03
699.24	1259.50
699.42	1249.26
699.61	1247.21
699.79	1255.40
699.97	1259.50
700.16	1353.71
700.34	1239.02
700.53	1355.76
700.71	1322.99
700.89	1290.22
701.08	1214.45
701.26	1204.21
701.45	1343.47
701.63	1312.75
701.81	1208.30
702.00	1366.00
702.18	1251.31
702.37	1189.87
702.55	1253.36
702.73	1234.93
702.92	1282.03
703.10	1320.94
703.28	1249.26
703.47	1288.17
703.65	1282.03
703.84	1294.32
704.02	1310.70
704.20	1208.30
704.39	1312.75
704.57	1261.55
704.75	1220.59
704.94	1222.64
705.12	1265.64
705.30	1228.78
705.49	1261.55
705.67	1236.97
705.86	1261.55
706.04	1267.69
706.22	1243.12
706.41	1239.02
706.59	1226.73
706.77	1322.99
706.96	1277.93
707.14	1249.26
707.32	1232.88
707.51	1243.12
707.69	1294.32
707.87	1284.08
708.06	1236.97
708.24	1216.49
708.42	1322.99
708.61	1284.08
708.79	1318.89
708.97	1316.84
709.16	1251.31
709.34	1282.03
709.52	1259.50
709.71	1304.56
709.89	1269.74
710.07	1322.99
710.26	1322.99
710.44	1263.60
710.62	1251.31
710.80	1239.02
710.99	1263.60
711.17	1226.73
711.35	1310.70
711.54	1300.46
711.72	1228.78
711.90	1382.38
712.09	1279.98
712.27	1372.14
712.45	1363.95
712.63	1202.16
712.82	1294.32
713.00	1282.03
713.18	1269.74
713.37	1349.61
713.55	1241.07
713.73	1257.45
713.91	1249.26
714.10	1220.59
714.28	1243.12
714.46	1298.41
714.65	1259.50
714.83	1257.45
715.01	1304.56
715.19	1286.12
715.38	1181.68
715.56	1269.74
715.74	1314.80
715.92	1230.83
716.11	1296.36
716.29	1263.60
716.47	1279.98
716.65	1204.21
716.84	1298.41
717.02	1253.36
717.20	1265.64
717.38	1279.98
717.57	1241.07
717.75	1273.84
717.93	1230.83
718.11	1239.02
718.30	1263.60
718.48	1263.60
718.66	1294.32
718.84	1288.17
719.03	1312.75
719.21	1298.41
719.39	1214.45
719.57	1327.08
719.75	1251.31
719.94	1218.54
720.12	1218.54
720.30	1325.04
720.48	1257.45
720.67	1259.50
720.85	1337.32
721.03	1298.41
721.21	1294.32
721.39	1300.46
721.58	1290.22
721.76	1279.98
721.94	1296.36
722.12	1331.18
722.30	1312.75
722.49	1255.40
722.67	1249.26
722.85	1224.69
723.03	1247.21
723.21	1269.74
723.40	1251.31
723.58	1267.69
723.76	1290.22
723.94	1253.36
724.12	1241.07
724.30	1222.64
724.49	1294.32
724.67	1271.79
724.85	1247.21
725.03	1226.73
725.21	1277.93
725.40	1298.41
725.58	1275.88
725.76	1314.80
725.94	1210.35
726.12	1218.54
726.30	1202.16
726.49	1349.61
726.67	1284.08
726.85	1273.84
727.03	1273.84
727.21	1269.74
727.39	1183.73
727.57	1306.60
727.76	1263.60
727.94	1226.73
728.12	1282.03
728.30	1224.69
728.48	1320.94
728.66	1290.22
728.84	1224.69
729.03	1306.60
729.21	1243.12
729.39	1312.75
729.57	1228.78
729.75	1267.69
729.93	1191.92
730.11	1257.45
730.30	1318.89
730.48	1288.17
730.66	1251.31
730.84	1286.12
731.02	1302.51
731.20	1255.40
731.38	1366.00
731.56	1255.40
731.74	1251.31
731.93	1288.17
732.11	1275.88
732.29	1290.22
732.47	1183.73
732.65	1277.93
732.83	1259.50
733.01	1253.36
733.19	1286.12
733.37	1220.59
733.56	1230.83
733.74	1302.51
733.92	1310.70
734.10	1253.36
734.28	1263.60
734.46	1286.12
734.64	1220.59
734.82	1310.70
735.00	1226.73
735.18	1300.46
735.36	1275.88
735.54	1320.94
735.73	1247.21
735.91	1269.74
736.09	1245.16
736.27	1257.45
736.45	1320.94
736.63	1239.02
736.81	1265.64
736.99	1220.59
737.17	1300.46
737.35	1294.32
737.53	1255.40
737.71	1263.60
737.89	1261.55
738.07	1261.55
738.25	1265.64
738.43	1288.17
738.61	1220.59
738.80	1349.61
738.98	1265.64
739.16	1267.69
739.34	1370.09
739.52	1284.08
739.70	1198.06
739.88	1320.94
740.06	1279.98
740.24	1198.06
740.42	1251.31
740.60	1191.92
740.78	1294.32
740.96	1222.64
741.14	1243.12
741.32	1212.40
741.50	1267.69
741.68	1200.11
741.86	1269.74
742.04	1294.32
742.22	1247.21
742.40	1177.58
742.58	1275.88
742.76	1265.64
742.94	1228.78
743.12	1275.88
743.30	1331.18
743.48	1249.26
743.66	1239.02
743.84	1318.89
744.02	1294.32
744.20	1269.74
744.38	1271.79
744.56	1249.26
744.74	1333.23
744.92	1234.93
745.10	1191.92
745.28	1318.89
745.46	1302.51
745.64	1204.21
745.82	1318.89
746.00	1288.17
746.18	1298.41
746.36	1304.56
746.54	1306.60
746.72	1273.84
746.90	1269.74
747.08	1265.64
747.26	1282.03
747.44	1251.31
747.62	1279.98
747.80	1275.88
747.98	1220.59
748.15	1259.50
748.33	1275.88
748.51	1271.79
748.69	1259.50
748.87	1306.60
749.05	1263.60
749.23	1298.41
749.41	1245.16
749.59	1271.79
749.77	1267.69
749.95	1316.84
750.13	1243.12
750.31	1257.45
750.49	1239.02
750.67	1243.12
750.85	1243.12
751.03	1228.78
751.20	1265.64
751.38	1331.18
751.56	1247.21
751.74	1193.97
751.92	1236.97
752.10	1255.40
752.28	1318.89
752.46	1245.16
752.64	1214.45
752.82	1265.64
753.00	1204.21
753.18	1322.99
753.35	1224.69
753.53	1341.42
753.71	1294.32
753.89	1249.26
754.07	1288.17
754.25	1204.21
754.43	1245.16
754.61	1245.16
754.79	1279.98
754.97	1249.26
755.14	1331.18
755.32	1234.93
755.50	1273.84
755.68	1249.26
755.86	1236.97
756.04	1279.98
756.22	1339.37
756.40	1320.94
756.57	1288.17
756.75	1318.89
756.93	1296.36
757.11	1214.45
757.29	1232.88
757.47	1267.69
757.65	1286.12
757.82	1218.54
758.00	1183.73
758.18	1261.55
758.36	1245.16
758.54	1308.65
758.72	1257.45
758.90	1222.64
759.07	1320.94
759.25	1241.07
759.43	1239.02
759.61	1308.65
759.79	1286.12
759.97	1275.88
760.15	1282.03
760.32	1294.32
760.50	1232.88
760.68	1245.16
760.86	1224.69
761.04	1236.97
761.22	1247.21
761.39	1224.69
761.57	1286.12
761.75	1259.50
761.93	1239.02
762.11	1286.12
762.28	1261.55
762.46	1247.21
762.64	1257.45
762.82	1275.88
763.00	1263.60
763.18	1255.40
763.35	1298.41
763.53	1271.79
763.71	1282.03
763.89	1335.28
764.07	1257.45
764.24	1243.12
764.42	1337.32
764.60	1288.17
764.78	1331.18
764.96	1288.17
765.13	1275.88
765.31	1316.84
765.49	1263.60
765.67	1284.08
765.84	1220.59
766.02	1249.26
766.20	1245.16
766.38	1284.08
766.56	1359.85
766.73	1249.26
766.91	1288.17
767.09	1267.69
767.27	1247.21
767.44	1308.65
767.62	1245.16
767.80	1220.59
767.98	1279.98
768.15	1318.89
768.33	1263.60
768.51	1222.64
768.69	1220.59
768.87	1271.79
769.04	1247.21
769.22	1241.07
769.40	1304.56
769.58	1263.60
769.75	1214.45
769.93	1351.66
770.11	1255.40
770.28	1296.36
770.46	1282.03
770.64	1294.32
770.82	1269.74
770.99	1302.51
771.17	1267.69
771.35	1298.41
771.53	1372.14
771.70	1290.22
771.88	1204.21
772.06	1294.32
772.23	1273.84
772.41	1220.59
772.59	1271.79
772.77	1279.98
772.94	1275.88
773.12	1210.35
773.30	1257.45
773.47	1308.65
773.65	1277.93
773.83	1288.17
774.01	1191.92
774.18	1259.50
774.36	1282.03
774.54	1230.83
774.71	1255.40
774.89	1347.56
775.07	1230.83
775.24	1255.40
775.42	1218.54
775.60	1259.50
775.78	1230.83
775.95	1202.16
776.13	1232.88
776.31	1236.97
776.48	1216.49
776.66	1279.98
776.84	1232.88
777.01	1239.02
777.19	1253.36
777.37	1300.46
777.54	1259.50
777.72	1312.75
777.90	1245.16
778.07	1204.21
778.25	1290.22
778.43	1191.92
778.60	1327.08
778.78	1302.51
778.96	1282.03
779.13	1304.56
779.31	1243.12
779.49	1249.26
779.66	1282.03
779.84	1247.21
780.01	1257.45
780.19	1349.61
780.37	1200.11
780.54	1206.25
780.72	1286.12
780.90	1329.13
781.07	1169.39
781.25	1314.80
781.43	1265.64
781.60	1290.22
781.78	1241.07
781.95	1230.83
782.13	1284.08
782.31	1298.41
782.48	1218.54
782.66	1218.54
782.83	1310.70
783.01	1296.36
783.19	1341.42
783.36	1208.30
783.54	1208.30
783.72	1245.16
783.89	1239.02
784.07	1214.45
784.24	1292.27
784.42	1247.21
784.60	1230.83
784.77	1310.70
784.95	1265.64
785.12	1282.03
785.30	1251.31
785.47	1206.25
785.65	1261.55
785.83	1339.37
786.00	1257.45
786.18	1296.36
786.35	1275.88
786.53	1193.97
786.71	1204.21
786.88	1259.50
787.06	1243.12
787.23	1173.49
787.41	1292.27
787.58	1288.17
787.76	1257.45
787.94	1363.95
788.11	1230.83
788.29	1312.75
788.46	1253.36
788.64	1279.98
788.81	1302.51
788.99	1261.55
789.16	1265.64
789.34	1212.40
789.52	1288.17
789.69	1267.69
789.87	1267.69
790.04	1181.68
790.22	1234.93
790.39	1290.22
790.57	1224.69
790.74	1279.98
790.92	1183.73
791.09	1286.12
791.27	1261.55
791.44	1230.83
791.62	1243.12
791.79	1249.26
791.97	1232.88
792.15	1251.31
792.32	1200.11
792.50	1249.26
792.67	1318.89
792.85	1202.16
793.02	1288.17
793.20	1249.26
793.37	1282.03
793.55	1232.88
793.72	1257.45
793.90	1300.46
794.07	1241.07
794.25	1230.83
794.42	1251.31
794.60	1257.45
794.77	1220.59
794.95	1249.26
795.12	1241.07
795.30	1239.02
795.47	1265.64
795.65	1259.50
795.82	1335.28
796.00	1259.50
796.17	1232.88
796.34	1265.64
796.52	1218.54
796.69	1275.88
796.87	1224.69
797.04	1306.60
797.22	1234.93
797.39	1263.60
797.57	1318.89
797.74	1296.36
797.92	1329.13
798.09	1261.55
798.27	1243.12
798.44	1220.59
798.62	1230.83
798.79	1263.60
798.96	1269.74
799.14	1322.99
799.31	1286.12
799.49	1230.83
799.66	1273.84
799.84	1275.88
800.01	1267.69
800.19	1261.55
800.36	1273.84
800.53	1296.36
800.71	1253.36
800.88	1271.79
801.06	1282.03
801.23	1241.07
801.41	1173.49
801.58	1247.21
801.75	1253.36
801.93	1265.64
802.10	1236.97
802.28	1353.71
802.45	1275.88
802.63	1179.63
802.80	1218.54
802.97	1259.50
803.15	1288.17
803.32	1226.73
803.50	1263.60
803.67	1261.55
803.84	1187.82
804.02	1331.18
804.19	1245.16
804.37	1265.64
804.54	1288.17
804.71	1214.45
804.89	1230.83
805.06	1267.69
805.24	1239.02
805.41	1269.74
805.58	1282.03
805.76	1189.87
805.93	1243.12
806.10	1275.88
806.28	1282.03
806.45	1273.84
806.63	1273.84
806.80	1380.33
806.97	1292.27
807.15	1294.32
807.32	1267.69
807.49	1259.50
807.67	1288.17
807.84	1296.36
808.01	1327.08
808.19	1279.98
808.36	1247.21
808.54	1286.12
808.71	1257.45
808.88	1312.75
809.06	1282.03
809.23	1327.08
809.40	1279.98
809.58	1249.26
809.75	1251.31
809.92	1314.80
810.10	1261.55
810.27	1232.88
810.44	1259.50
810.62	1275.88
810.79	1329.13
810.96	1351.66
811.14	1187.82
811.31	1232.88
811.48	1306.60
811.66	1327.08
811.83	1284.08
812.00	1339.37
812.18	1300.46
812.35	1306.60
812.52	1275.88
812.69	1275.88
812.87	1290.22
813.04	1257.45
813.21	1320.94
813.39	1290.22
813.56	1253.36
813.73	1220.59
813.91	1290.22
814.08	1253.36
814.25	1322.99
814.42	1306.60
814.60	1335.28
814.77	1296.36
814.94	1263.60
815.12	1236.97
815.29	1214.45
815.46	1286.12
815.63	1275.88
815.81	1269.74
815.98	1292.27
816.15	1263.60
816.33	1290.22
816.50	1325.04
816.67	1253.36
816.84	1316.84
817.02	1236.97
817.19	1222.64
817.36	1322.99
817.53	1331.18
817.71	1263.60
817.88	1265.64
818.05	1236.97
818.22	1261.55
818.40	1193.97
818.57	1314.80
818.74	1239.02
818.91	1288.17
819.09	1314.80
819.26	1290.22
819.43	1271.79
819.60	1228.78
819.78	1214.45
819.95	1310.70
820.12	1228.78
820.29	1304.56
820.47	1279.98
820.64	1265.64
820.81	1296.36
820.98	1257.45
821.15	1288.17
821.33	1277.93
821.50	1208.30
821.67	1236.97
821.84	1257.45
822.02	1296.36
822.19	1243.12
822.36	1206.25
822.53	1245.16
822.70	1304.56
822.88	1232.88
823.05	1232.88
823.22	1271.79
823.39	1267.69
823.56	1273.84
823.74	1241.07
823.91	1288.17
824.08	1292.27
824.25	1292.27
824.42	1239.02
824.60	1245.16
824.77	1277.93
824.94	1187.82
825.11	1316.84
825.28	1282.03
825.45	1296.36
825.63	1247.21
825.80	1279.98
825.97	1302.51
826.14	1314.80
826.31	1267.69
826.48	1228.78
826.66	1320.94
826.83	1236.97
827.00	1320.94
827.17	1271.79
827.34	1247.21
827.51	1257.45
827.69	1243.12
827.86	1257.45
828.03	1333.23
828.20	1226.73
828.37	1191.92
828.54	1230.83
828.71	1288.17
828.89	1277.93
829.06	1204.21
829.23	1228.78
829.40	1273.84
829.57	1230.83
829.74	1259.50
829.91	1273.84
830.09	1275.88
830.26	1249.26
830.43	1228.78
830.60	1310.70
830.77	1220.59
830.94	1288.17
831.11	1339.37
831.28	1249.26
831.46	1294.32
831.63	1275.88
831.80	1279.98
831.97	1333.23
832.14	1234.93
832.31	1263.60
832.48	1296.36
832.65	1288.17
832.82	1265.64
832.99	1249.26
833.17	1202.16
833.34	1249.26
833.51	1234.93
833.68	1308.65
833.85	1251.31
834.02	1288.17
834.19	1300.46
834.36	1306.60
834.53	1273.84
834.70	1284.08
834.87	1249.26
835.04	1345.52
835.22	1279.98
835.39	1259.50
835.56	1275.88
835.73	1261.55
835.90	1243.12
836.07	1249.26
836.24	1255.40
836.41	1267.69
836.58	1224.69
836.75	1210.35
836.92	1329.13
837.09	1236.97
837.26	1253.36
837.43	1226.73
837.60	1247.21
837.77	1314.80
837.94	1243.12
838.12	1277.93
838.29	1226.73
838.46	1259.50
838.63	1179.63
838.80	1249.26
838.97	1224.69
839.14	1343.47
839.31	1263.60
839.48	1275.88
839.65	1265.64
839.82	1275.88
839.99	1308.65
840.16	1294.32
840.33	1282.03
840.50	1322.99
840.67	1259.50
840.84	1282.03
841.01	1300.46
841.18	1224.69
841.35	1247.21
841.52	1279.98
841.69	1275.88
841.86	1290.22
842.03	1243.12
842.20	1275.88
842.37	1267.69
842.54	1230.83
842.71	1230.83
842.88	1296.36
843.05	1253.36
843.22	1271.79
843.39	1228.78
843.56	1267.69
843.73	1265.64
843.90	1255.40
844.07	1218.54
844.24	1263.60
844.41	1265.64
844.58	1288.17
844.75	1249.26
844.92	1228.78
845.09	1257.45
845.26	1206.25
845.43	1241.07
845.60	1282.03
845.77	1282.03
845.94	1165.29
846.10	1300.46
846.27	1253.36
846.44	1251.31
846.61	1288.17
846.78	1177.58
846.95	1236.97
847.12	1230.83
847.29	1290.22
847.46	1210.35
847.63	1302.51
847.80	1282.03
847.97	1310.70
848.14	1329.13
848.31	1277.93
848.48	1257.45
848.65	1279.98
848.82	1273.84
848.98	1273.84
849.15	1306.60
849.32	1255.40
849.49	1271.79
849.66	1331.18
849.83	1337.32
850.00	1298.41
850.17	1230.83
850.34	1222.64
850.51	1259.50
850.68	1245.16
850.85	1372.14
851.01	1269.74
851.18	1306.60
851.35	1243.12
851.52	1257.45
851.69	1310.70
851.86	1202.16
852.03	1273.84
852.20	1251.31
852.37	1279.98
852.53	1304.56
852.70	1228.78
852.87	1288.17
853.04	1234.93
853.21	1222.64
853.38	1267.69
853.55	1222.64
853.72	1275.88
853.89	1220.59
854.05	1251.31
854.22	1224.69
854.39	1234.93
854.56	1253.36
854.73	1243.12
854.90	1322.99
855.07	1302.51
855.23	1267.69
855.40	1259.50
855.57	1290.22
855.74	1239.02
855.91	1265.64
856.08	1216.49
856.25	1294.32
856.41	1277.93
856.58	1298.41
856.75	1257.45
856.92	1212.40
857.09	1279.98
857.26	1216.49
857.42	1306.60
857.59	1193.97
857.76	1288.17
857.93	1239.02
858.10	1322.99
858.27	1265.64
858.43	1216.49
858.60	1222.64
858.77	1255.40
858.94	1257.45
859.11	1196.01
859.27	1298.41
859.44	1255.40
859.61	1241.07
859.78	1325.04
859.95	1161.20
860.12	1316.84
860.28	1259.50
860.45	1236.97
860.62	1329.13
860.79	1247.21
860.95	1222.64
861.12	1255.40
861.29	1265.64
861.46	1302.51
861.63	1253.36
861.79	1253.36
861.96	1263.60
862.13	1232.88
862.30	1286.12
862.47	1222.64
862.63	1251.31
862.80	1279.98
862.97	1320.94
863.14	1318.89
863.30	1288.17
863.47	1245.16
863.64	1341.42
863.81	1257.45
863.97	1226.73
864.14	1247.21
864.31	1247.21
864.48	1255.40
864.65	1253.36
864.81	1300.46
864.98	1316.84
865.15	1202.16
865.32	1228.78
865.48	1296.36
865.65	1265.64
865.82	1298.41
865.98	1292.27
866.15	1292.27
866.32	1265.64
866.49	1279.98
866.65	1271.79
866.82	1267.69
866.99	1222.64
867.16	1329.13
867.32	1212.40
867.49	1249.26
867.66	1263.60
867.83	1282.03
867.99	1230.83
868.16	1265.64
868.33	1206.25
868.49	1257.45
868.66	1269.74
868.83	1271.79
868.99	1224.69
869.16	1263.60
869.33	1277.93
869.50	1284.08
869.66	1249.26
869.83	1236.97
870.00	1261.55
870.16	1273.84
870.33	1286.12
870.50	1290.22
870.66	1333.23
870.83	1292.27
871.00	1271.79
871.17	1273.84
871.33	1222.64
871.50	1329.13
871.67	1296.36
871.83	1271.79
872.00	1269.74
872.17	1243.12
872.33	1277.93
872.50	1329.13
872.67	1198.06
872.83	1259.50
873.00	1267.69
873.17	1241.07
873.33	1263.60
873.50	1259.50
873.67	1275.88
873.83	1261.55
874.00	1279.98
874.16	1286.12
874.33	1222.64
874.50	1216.49
874.66	1263.60
874.83	1245.16
875.00	1265.64
875.16	1273.84
875.33	1290.22
875.50	1265.64
875.66	1325.04
875.83	1288.17
875.99	1267.69
876.16	1288.17
876.33	1271.79
876.49	1243.12
876.66	1259.50
876.83	1247.21
876.99	1200.11
877.16	1390.57
877.32	1245.16
877.49	1345.52
877.66	1247.21
877.82	1290.22
877.99	1286.12
878.15	1306.60
878.32	1241.07
878.49	1206.25
878.65	1239.02
878.82	1298.41
878.98	1243.12
879.15	1265.64
879.32	1216.49
879.48	1232.88
879.65	1290.22
879.81	1245.16
879.98	1320.94
880.15	1273.84
880.31	1275.88
880.48	1253.36
880.64	1269.74
880.81	1234.93
880.97	1222.64
881.14	1290.22
881.31	1306.60
881.47	1341.42
881.64	1224.69
881.80	1249.26
881.97	1249.26
882.13	1232.88
882.30	1290.22
882.47	1234.93
882.63	1265.64
882.80	1198.06
882.96	1247.21
883.13	1271.79
883.29	1232.88
883.46	1249.26
883.62	1269.74
883.79	1265.64
883.95	1230.83
884.12	1327.08
884.29	1322.99
884.45	1265.64
884.62	1316.84
884.78	1222.64
884.95	1212.40
885.11	1269.74
885.28	1279.98
885.44	1214.45
885.61	1296.36
885.77	1282.03
885.94	1212.40
886.10	1282.03
886.27	1241.07
886.43	1241.07
886.60	1187.82
886.76	1245.16
886.93	1257.45
887.09	1243.12
887.26	1251.31
887.42	1308.65
887.59	1298.41
887.75	1294.32
887.92	1261.55
888.08	1175.53
888.25	1261.55
888.41	1304.56
888.58	1261.55
888.74	1212.40
888.91	1275.88
>>>>>End Processed Spectral Data<<<<<
