SpectraSuite Data File
++++++++++++++++++++++++++++++++++++
Date: Sun Apr 03 19:55:31 CEST 2016
User: root
Dark Spectrum Present: No
Reference Spectrum Present: No
Number of Sampled Component Spectra: 1
Spectrometers: USB4C02835
Integration Time (usec): 10000 (USB4C02835)
Spectra Averaged: 1 (USB4C02835)
Boxcar Smoothing: 0 (USB4C02835)
Correct for Electrical Dark: No (USB4C02835)
Strobe/Lamp Enabled: No (USB4C02835)
Correct for Detector Non-linearity: No (USB4C02835)
Correct for Stray Light: No (USB4C02835)
Number of Pixels in Processed Spectrum: 3648
>>>>>Begin Processed Spectral Data<<<<<
177.47	1232.88
177.69	1232.88
177.91	1232.88
178.13	1259.50
178.36	1273.84
178.58	1212.40
178.80	1245.16
179.02	1253.36
179.24	1224.69
179.46	1265.64
179.68	1296.36
179.90	1345.52
180.13	1216.49
180.35	1296.36
180.57	1253.36
180.79	1210.35
181.01	1263.60
181.23	1243.12
181.45	1257.45
181.67	1290.22
181.90	1239.02
182.12	1202.16
182.34	1212.40
182.56	1339.37
182.78	1282.03
183.00	1349.61
183.22	1259.50
183.44	1263.60
183.66	1288.17
183.89	1306.60
184.11	1214.45
184.33	1304.56
184.55	1304.56
184.77	1251.31
184.99	1259.50
185.21	1241.07
185.43	1343.47
185.65	1277.93
185.87	1204.21
186.10	1206.25
186.32	1286.12
186.54	1286.12
186.76	1206.25
186.98	1312.75
187.20	1288.17
187.42	1271.79
187.64	1236.97
187.86	1275.88
188.08	1214.45
188.30	1220.59
188.52	1236.97
188.75	1224.69
188.97	1255.40
189.19	1220.59
189.41	1314.80
189.63	1200.11
189.85	1329.13
190.07	1249.26
190.29	1300.46
190.51	1202.16
190.73	1290.22
190.95	1212.40
191.17	1318.89
191.39	1251.31
191.61	1265.64
191.84	1300.46
192.06	1302.51
192.28	1214.45
192.50	1290.22
192.72	1193.97
192.94	1288.17
193.16	1226.73
193.38	1255.40
193.60	1308.65
193.82	1243.12
194.04	1353.71
194.26	1275.88
194.48	1255.40
194.70	1271.79
194.92	1251.31
195.14	1306.60
195.36	1286.12
195.58	1284.08
195.80	1253.36
196.02	1275.88
196.24	1370.09
196.46	1210.35
196.69	1306.60
196.91	1320.94
197.13	1288.17
197.35	1247.21
197.57	1210.35
197.79	1245.16
198.01	1191.92
198.23	1306.60
198.45	1261.55
198.67	1341.42
198.89	1296.36
199.11	1245.16
199.33	1288.17
199.55	1273.84
199.77	1218.54
199.99	1300.46
200.21	1243.12
200.43	1292.27
200.65	1234.93
200.87	1218.54
201.09	1261.55
201.31	1236.97
201.53	1236.97
201.75	1308.65
201.97	1204.21
202.19	1282.03
202.41	1249.26
202.63	1249.26
202.85	1216.49
203.07	1294.32
203.29	1277.93
203.51	1284.08
203.73	1316.84
203.95	1277.93
204.17	1187.82
204.39	1269.74
204.61	1196.01
204.83	1300.46
205.05	1298.41
205.27	1228.78
205.49	1228.78
205.71	1255.40
205.93	1208.30
206.15	1189.87
206.37	1230.83
206.59	1282.03
206.81	1290.22
207.03	1337.32
207.25	1284.08
207.47	1249.26
207.69	1265.64
207.91	1265.64
208.13	1269.74
208.34	1286.12
208.56	1288.17
208.78	1216.49
209.00	1259.50
209.22	1320.94
209.44	1249.26
209.66	1312.75
209.88	1304.56
210.10	1214.45
210.32	1279.98
210.54	1284.08
210.76	1269.74
210.98	1279.98
211.20	1243.12
211.42	1318.89
211.64	1325.04
211.86	1269.74
212.08	1226.73
212.30	1286.12
212.52	1331.18
212.74	1259.50
212.96	1251.31
213.17	1284.08
213.39	1273.84
213.61	1247.21
213.83	1314.80
214.05	1267.69
214.27	1253.36
214.49	1214.45
214.71	1212.40
214.93	1279.98
215.15	1226.73
215.37	1214.45
215.59	1288.17
215.81	1245.16
216.03	1255.40
216.24	1261.55
216.46	1206.25
216.68	1279.98
216.90	1284.08
217.12	1286.12
217.34	1224.69
217.56	1292.27
217.78	1253.36
218.00	1306.60
218.22	1267.69
218.44	1265.64
218.66	1232.88
218.87	1300.46
219.09	1302.51
219.31	1288.17
219.53	1191.92
219.75	1259.50
219.97	1294.32
220.19	1337.32
220.41	1224.69
220.63	1275.88
220.85	1290.22
221.06	1269.74
221.28	1318.89
221.50	1273.84
221.72	1277.93
221.94	1304.56
222.16	1228.78
222.38	1267.69
222.60	1325.04
222.82	1263.60
223.03	1253.36
223.25	1239.02
223.47	1290.22
223.69	1269.74
223.91	1292.27
224.13	1269.74
224.35	1204.21
224.57	1263.60
224.78	1282.03
225.00	1271.79
225.22	1347.56
225.44	1255.40
225.66	1261.55
225.88	1249.26
226.10	1249.26
226.32	1243.12
226.53	1265.64
226.75	1230.83
226.97	1249.26
227.19	1271.79
227.41	1271.79
227.63	1288.17
227.85	1269.74
228.06	1329.13
228.28	1316.84
228.50	1314.80
228.72	1204.21
228.94	1259.50
229.16	1196.01
229.37	1284.08
229.59	1228.78
229.81	1282.03
230.03	1243.12
230.25	1241.07
230.47	1288.17
230.69	1191.92
230.90	1202.16
231.12	1228.78
231.34	1337.32
231.56	1245.16
231.78	1298.41
232.00	1349.61
232.21	1290.22
232.43	1271.79
232.65	1245.16
232.87	1279.98
233.09	1298.41
233.30	1284.08
233.52	1193.97
233.74	1167.34
233.96	1318.89
234.18	1310.70
234.40	1208.30
234.61	1243.12
234.83	1327.08
235.05	1290.22
235.27	1294.32
235.49	1181.68
235.70	1304.56
235.92	1304.56
236.14	1347.56
236.36	1232.88
236.58	1322.99
236.79	1273.84
237.01	1290.22
237.23	1208.30
237.45	1298.41
237.67	1284.08
237.88	1228.78
238.10	1247.21
238.32	1232.88
238.54	1263.60
238.76	1277.93
238.97	1226.73
239.19	1263.60
239.41	1230.83
239.63	1236.97
239.85	1255.40
240.06	1230.83
240.28	1269.74
240.50	1322.99
240.72	1269.74
240.93	1282.03
241.15	1306.60
241.37	1304.56
241.59	1300.46
241.81	1298.41
242.02	1206.25
242.24	1228.78
242.46	1271.79
242.68	1355.76
242.89	1312.75
243.11	1302.51
243.33	1220.59
243.55	1200.11
243.76	1261.55
243.98	1318.89
244.20	1279.98
244.42	1335.28
244.64	1257.45
244.85	1230.83
245.07	1216.49
245.29	1318.89
245.51	1236.97
245.72	1263.60
245.94	1224.69
246.16	1269.74
246.38	1298.41
246.59	1224.69
246.81	1296.36
247.03	1353.71
247.24	1257.45
247.46	1296.36
247.68	1277.93
247.90	1261.55
248.11	1191.92
248.33	1279.98
248.55	1273.84
248.77	1275.88
248.98	1286.12
249.20	1259.50
249.42	1251.31
249.64	1243.12
249.85	1327.08
250.07	1312.75
250.29	1306.60
250.50	1222.64
250.72	1247.21
250.94	1271.79
251.16	1302.51
251.37	1298.41
251.59	1224.69
251.81	1216.49
252.02	1175.53
252.24	1259.50
252.46	1210.35
252.68	1327.08
252.89	1249.26
253.11	1257.45
253.33	1372.14
253.54	1247.21
253.76	1263.60
253.98	1212.40
254.20	1306.60
254.41	1277.93
254.63	1329.13
254.85	1216.49
255.06	1316.84
255.28	1249.26
255.50	1257.45
255.71	1282.03
255.93	1282.03
256.15	1247.21
256.36	1220.59
256.58	1247.21
256.80	1316.84
257.02	1290.22
257.23	1300.46
257.45	1261.55
257.67	1249.26
257.88	1243.12
258.10	1290.22
258.32	1314.80
258.53	1245.16
258.75	1286.12
258.97	1259.50
259.18	1239.02
259.40	1298.41
259.62	1241.07
259.83	1247.21
260.05	1288.17
260.27	1243.12
260.48	1224.69
260.70	1314.80
260.92	1257.45
261.13	1265.64
261.35	1312.75
261.57	1251.31
261.78	1216.49
262.00	1253.36
262.22	1239.02
262.43	1306.60
262.65	1339.37
262.86	1218.54
263.08	1322.99
263.30	1292.27
263.51	1294.32
263.73	1279.98
263.95	1243.12
264.16	1320.94
264.38	1277.93
264.60	1175.53
264.81	1390.57
265.03	1296.36
265.25	1288.17
265.46	1288.17
265.68	1257.45
265.89	1265.64
266.11	1200.11
266.33	1312.75
266.54	1230.83
266.76	1273.84
266.98	1343.47
267.19	1275.88
267.41	1261.55
267.62	1245.16
267.84	1259.50
268.06	1282.03
268.27	1306.60
268.49	1257.45
268.70	1286.12
268.92	1300.46
269.14	1267.69
269.35	1312.75
269.57	1273.84
269.79	1251.31
270.00	1206.25
270.22	1230.83
270.43	1308.65
270.65	1273.84
270.87	1279.98
271.08	1355.76
271.30	1273.84
271.51	1279.98
271.73	1298.41
271.95	1308.65
272.16	1304.56
272.38	1249.26
272.59	1243.12
272.81	1296.36
273.02	1251.31
273.24	1232.88
273.46	1273.84
273.67	1269.74
273.89	1257.45
274.10	1292.27
274.32	1261.55
274.54	1241.07
274.75	1271.79
274.97	1200.11
275.18	1314.80
275.40	1290.22
275.61	1298.41
275.83	1253.36
276.05	1271.79
276.26	1257.45
276.48	1226.73
276.69	1232.88
276.91	1232.88
277.12	1251.31
277.34	1187.82
277.55	1341.42
277.77	1249.26
277.99	1273.84
278.20	1284.08
278.42	1255.40
278.63	1198.06
278.85	1314.80
279.06	1277.93
279.28	1279.98
279.49	1318.89
279.71	1267.69
279.93	1290.22
280.14	1322.99
280.36	1230.83
280.57	1282.03
280.79	1310.70
281.00	1236.97
281.22	1284.08
281.43	1277.93
281.65	1193.97
281.86	1294.32
282.08	1249.26
282.29	1304.56
282.51	1253.36
282.73	1208.30
282.94	1282.03
283.16	1320.94
283.37	1261.55
283.59	1230.83
283.80	1236.97
284.02	1165.29
284.23	1243.12
284.45	1255.40
284.66	1253.36
284.88	1251.31
285.09	1290.22
285.31	1269.74
285.52	1275.88
285.74	1265.64
285.95	1228.78
286.17	1333.23
286.38	1286.12
286.60	1224.69
286.81	1261.55
287.03	1236.97
287.24	1290.22
287.46	1296.36
287.67	1341.42
287.89	1269.74
288.10	1269.74
288.32	1329.13
288.53	1224.69
288.75	1273.84
288.96	1269.74
289.18	1271.79
289.39	1314.80
289.61	1239.02
289.82	1331.18
290.04	1306.60
290.25	1304.56
290.47	1261.55
290.68	1312.75
290.90	1374.19
291.11	1308.65
291.33	1347.56
291.54	1247.21
291.76	1267.69
291.97	1279.98
292.18	1239.02
292.40	1208.30
292.61	1253.36
292.83	1253.36
293.04	1236.97
293.26	1169.39
293.47	1249.26
293.69	1353.71
293.90	1255.40
294.12	1255.40
294.33	1290.22
294.55	1282.03
294.76	1306.60
294.97	1284.08
295.19	1269.74
295.40	1279.98
295.62	1253.36
295.83	1279.98
296.05	1228.78
296.26	1265.64
296.48	1282.03
296.69	1257.45
296.90	1279.98
297.12	1259.50
297.33	1282.03
297.55	1263.60
297.76	1320.94
297.98	1286.12
298.19	1314.80
298.41	1331.18
298.62	1241.07
298.83	1245.16
299.05	1259.50
299.26	1247.21
299.48	1265.64
299.69	1232.88
299.90	1251.31
300.12	1310.70
300.33	1265.64
300.55	1261.55
300.76	1222.64
300.98	1265.64
301.19	1290.22
301.40	1222.64
301.62	1312.75
301.83	1314.80
302.05	1298.41
302.26	1267.69
302.47	1245.16
302.69	1206.25
302.90	1267.69
303.12	1290.22
303.33	1292.27
303.54	1239.02
303.76	1302.51
303.97	1239.02
304.19	1290.22
304.40	1318.89
304.61	1308.65
304.83	1232.88
305.04	1230.83
305.26	1298.41
305.47	1251.31
305.68	1255.40
305.90	1263.60
306.11	1247.21
306.33	1247.21
306.54	1341.42
306.75	1302.51
306.97	1273.84
307.18	1302.51
307.39	1191.92
307.61	1255.40
307.82	1302.51
308.04	1259.50
308.25	1286.12
308.46	1224.69
308.68	1277.93
308.89	1269.74
309.10	1257.45
309.32	1228.78
309.53	1249.26
309.74	1282.03
309.96	1239.02
310.17	1361.90
310.39	1232.88
310.60	1208.30
310.81	1214.45
311.03	1269.74
311.24	1302.51
311.45	1282.03
311.67	1245.16
311.88	1255.40
312.09	1206.25
312.31	1337.32
312.52	1308.65
312.73	1245.16
312.95	1310.70
313.16	1234.93
313.37	1331.18
313.59	1316.84
313.80	1267.69
314.01	1241.07
314.23	1216.49
314.44	1212.40
314.65	1312.75
314.87	1306.60
315.08	1228.78
315.29	1161.20
315.51	1218.54
315.72	1282.03
315.93	1265.64
316.15	1222.64
316.36	1236.97
316.57	1247.21
316.79	1314.80
317.00	1314.80
317.21	1251.31
317.43	1243.12
317.64	1304.56
317.85	1255.40
318.07	1245.16
318.28	1234.93
318.49	1269.74
318.70	1228.78
318.92	1265.64
319.13	1300.46
319.34	1275.88
319.56	1263.60
319.77	1216.49
319.98	1247.21
320.20	1249.26
320.41	1269.74
320.62	1269.74
320.83	1253.36
321.05	1247.21
321.26	1224.69
321.47	1275.88
321.69	1292.27
321.90	1196.01
322.11	1316.84
322.32	1204.21
322.54	1163.25
322.75	1290.22
322.96	1255.40
323.18	1255.40
323.39	1265.64
323.60	1267.69
323.81	1267.69
324.03	1245.16
324.24	1224.69
324.45	1243.12
324.66	1259.50
324.88	1282.03
325.09	1241.07
325.30	1279.98
325.52	1290.22
325.73	1292.27
325.94	1241.07
326.15	1234.93
326.37	1318.89
326.58	1257.45
326.79	1234.93
327.00	1265.64
327.22	1265.64
327.43	1191.92
327.64	1271.79
327.85	1198.06
328.07	1202.16
328.28	1243.12
328.49	1290.22
328.70	1265.64
328.92	1310.70
329.13	1304.56
329.34	1294.32
329.55	1169.39
329.76	1306.60
329.98	1202.16
330.19	1273.84
330.40	1230.83
330.61	1241.07
330.83	1263.60
331.04	1249.26
331.25	1243.12
331.46	1253.36
331.68	1333.23
331.89	1304.56
332.10	1263.60
332.31	1249.26
332.52	1245.16
332.74	1228.78
332.95	1222.64
333.16	1173.49
333.37	1261.55
333.58	1243.12
333.80	1300.46
334.01	1261.55
334.22	1239.02
334.43	1318.89
334.64	1271.79
334.86	1286.12
335.07	1230.83
335.28	1288.17
335.49	1261.55
335.70	1198.06
335.92	1306.60
336.13	1269.74
336.34	1302.51
336.55	1288.17
336.76	1265.64
336.98	1214.45
337.19	1277.93
337.40	1224.69
337.61	1329.13
337.82	1290.22
338.04	1245.16
338.25	1273.84
338.46	1339.37
338.67	1200.11
338.88	1210.35
339.09	1255.40
339.31	1251.31
339.52	1239.02
339.73	1294.32
339.94	1279.98
340.15	1251.31
340.36	1204.21
340.58	1300.46
340.79	1257.45
341.00	1306.60
341.21	1224.69
341.42	1277.93
341.63	1245.16
341.85	1322.99
342.06	1357.80
342.27	1261.55
342.48	1306.60
342.69	1259.50
342.90	1277.93
343.12	1296.36
343.33	1304.56
343.54	1310.70
343.75	1329.13
343.96	1230.83
344.17	1277.93
344.38	1257.45
344.60	1177.58
344.81	1222.64
345.02	1265.64
345.23	1220.59
345.44	1253.36
345.65	1312.75
345.86	1245.16
346.07	1253.36
346.29	1263.60
346.50	1271.79
346.71	1245.16
346.92	1298.41
347.13	1322.99
347.34	1175.53
347.55	1310.70
347.76	1245.16
347.98	1282.03
348.19	1286.12
348.40	1341.42
348.61	1236.97
348.82	1273.84
349.03	1294.32
349.24	1257.45
349.45	1320.94
349.66	1359.85
349.88	1247.21
350.09	1269.74
350.30	1257.45
350.51	1265.64
350.72	1363.95
350.93	1304.56
351.14	1255.40
351.35	1263.60
351.56	1304.56
351.77	1304.56
351.99	1226.73
352.20	1279.98
352.41	1228.78
352.62	1206.25
352.83	1216.49
353.04	1222.64
353.25	1341.42
353.46	1198.06
353.67	1304.56
353.88	1175.53
354.09	1216.49
354.30	1230.83
354.52	1239.02
354.73	1228.78
354.94	1275.88
355.15	1275.88
355.36	1288.17
355.57	1298.41
355.78	1292.27
355.99	1269.74
356.20	1247.21
356.41	1304.56
356.62	1282.03
356.83	1224.69
357.04	1286.12
357.25	1273.84
357.46	1294.32
357.68	1304.56
357.89	1277.93
358.10	1316.84
358.31	1249.26
358.52	1292.27
358.73	1327.08
358.94	1302.51
359.15	1251.31
359.36	1296.36
359.57	1257.45
359.78	1245.16
359.99	1245.16
360.20	1247.21
360.41	1236.97
360.62	1341.42
360.83	1214.45
361.04	1232.88
361.25	1300.46
361.46	1216.49
361.67	1257.45
361.88	1241.07
362.09	1253.36
362.30	1224.69
362.51	1200.11
362.72	1325.04
362.93	1255.40
363.14	1255.40
363.35	1249.26
363.56	1243.12
363.78	1155.05
363.99	1228.78
364.20	1290.22
364.41	1279.98
364.62	1335.28
364.83	1261.55
365.04	1290.22
365.25	1296.36
365.46	1255.40
365.67	1275.88
365.88	1271.79
366.09	1253.36
366.30	1255.40
366.51	1277.93
366.72	1247.21
366.93	1247.21
367.14	1277.93
367.35	1282.03
367.56	1265.64
367.77	1222.64
367.98	1251.31
368.18	1220.59
368.39	1243.12
368.60	1298.41
368.81	1318.89
369.02	1296.36
369.23	1267.69
369.44	1200.11
369.65	1267.69
369.86	1298.41
370.07	1265.64
370.28	1224.69
370.49	1228.78
370.70	1255.40
370.91	1265.64
371.12	1200.11
371.33	1243.12
371.54	1253.36
371.75	1290.22
371.96	1200.11
372.17	1218.54
372.38	1232.88
372.59	1306.60
372.80	1298.41
373.01	1290.22
373.22	1187.82
373.43	1218.54
373.64	1271.79
373.85	1284.08
374.06	1263.60
374.26	1269.74
374.47	1204.21
374.68	1247.21
374.89	1298.41
375.10	1294.32
375.31	1212.40
375.52	1282.03
375.73	1294.32
375.94	1247.21
376.15	1249.26
376.36	1224.69
376.57	1239.02
376.78	1251.31
376.99	1206.25
377.20	1236.97
377.40	1327.08
377.61	1212.40
377.82	1198.06
378.03	1247.21
378.24	1296.36
378.45	1234.93
378.66	1306.60
378.87	1249.26
379.08	1288.17
379.29	1220.59
379.50	1282.03
379.71	1261.55
379.91	1226.73
380.12	1308.65
380.33	1214.45
380.54	1279.98
380.75	1361.90
380.96	1267.69
381.17	1247.21
381.38	1261.55
381.59	1228.78
381.80	1255.40
382.00	1261.55
382.21	1277.93
382.42	1288.17
382.63	1200.11
382.84	1333.23
383.05	1275.88
383.26	1320.94
383.47	1300.46
383.68	1308.65
383.88	1292.27
384.09	1236.97
384.30	1220.59
384.51	1290.22
384.72	1224.69
384.93	1306.60
385.14	1269.74
385.35	1298.41
385.55	1294.32
385.76	1239.02
385.97	1304.56
386.18	1271.79
386.39	1294.32
386.60	1275.88
386.81	1230.83
387.02	1216.49
387.22	1230.83
387.43	1325.04
387.64	1263.60
387.85	1220.59
388.06	1308.65
388.27	1249.26
388.48	1222.64
388.68	1224.69
388.89	1210.35
389.10	1300.46
389.31	1239.02
389.52	1247.21
389.73	1257.45
389.93	1267.69
390.14	1245.16
390.35	1271.79
390.56	1302.51
390.77	1263.60
390.98	1255.40
391.18	1286.12
391.39	1255.40
391.60	1316.84
391.81	1290.22
392.02	1282.03
392.23	1265.64
392.43	1263.60
392.64	1292.27
392.85	1277.93
393.06	1253.36
393.27	1232.88
393.47	1241.07
393.68	1294.32
393.89	1329.13
394.10	1333.23
394.31	1239.02
394.52	1241.07
394.72	1247.21
394.93	1286.12
395.14	1251.31
395.35	1304.56
395.56	1310.70
395.76	1236.97
395.97	1189.87
396.18	1355.76
396.39	1220.59
396.60	1269.74
396.80	1261.55
397.01	1382.38
397.22	1259.50
397.43	1296.36
397.64	1257.45
397.84	1345.52
398.05	1247.21
398.26	1304.56
398.47	1173.49
398.67	1255.40
398.88	1243.12
399.09	1273.84
399.30	1273.84
399.51	1245.16
399.71	1306.60
399.92	1208.30
400.13	1224.69
400.34	1216.49
400.54	1230.83
400.75	1193.97
400.96	1294.32
401.17	1253.36
401.37	1273.84
401.58	1275.88
401.79	1402.86
402.00	1363.95
402.21	1253.36
402.41	1343.47
402.62	1267.69
402.83	1290.22
403.04	1263.60
403.24	1255.40
403.45	1224.69
403.66	1255.40
403.87	1251.31
404.07	1255.40
404.28	1251.31
404.49	1298.41
404.70	1271.79
404.90	1284.08
405.11	1292.27
405.32	1249.26
405.52	1243.12
405.73	1228.78
405.94	1230.83
406.15	1228.78
406.35	1259.50
406.56	1308.65
406.77	1245.16
406.98	1298.41
407.18	1296.36
407.39	1245.16
407.60	1290.22
407.80	1236.97
408.01	1251.31
408.22	1304.56
408.43	1302.51
408.63	1306.60
408.84	1230.83
409.05	1236.97
409.25	1236.97
409.46	1222.64
409.67	1298.41
409.88	1196.01
410.08	1208.30
410.29	1304.56
410.50	1284.08
410.70	1345.52
410.91	1218.54
411.12	1302.51
411.32	1298.41
411.53	1294.32
411.74	1279.98
411.95	1257.45
412.15	1261.55
412.36	1302.51
412.57	1232.88
412.77	1271.79
412.98	1245.16
413.19	1325.04
413.39	1277.93
413.60	1222.64
413.81	1282.03
414.01	1230.83
414.22	1191.92
414.43	1275.88
414.63	1232.88
414.84	1220.59
415.05	1218.54
415.25	1241.07
415.46	1239.02
415.67	1261.55
415.87	1290.22
416.08	1294.32
416.29	1288.17
416.49	1306.60
416.70	1347.56
416.91	1271.79
417.11	1261.55
417.32	1255.40
417.53	1243.12
417.73	1220.59
417.94	1284.08
418.15	1292.27
418.35	1245.16
418.56	1243.12
418.77	1267.69
418.97	1279.98
419.18	1220.59
419.38	1163.25
419.59	1271.79
419.80	1273.84
420.00	1230.83
420.21	1261.55
420.42	1257.45
420.62	1232.88
420.83	1284.08
421.04	1243.12
421.24	1232.88
421.45	1257.45
421.65	1306.60
421.86	1282.03
422.07	1282.03
422.27	1282.03
422.48	1261.55
422.69	1243.12
422.89	1255.40
423.10	1275.88
423.30	1239.02
423.51	1314.80
423.72	1193.97
423.92	1265.64
424.13	1241.07
424.33	1312.75
424.54	1226.73
424.75	1353.71
424.95	1298.41
425.16	1308.65
425.36	1245.16
425.57	1308.65
425.78	1306.60
425.98	1253.36
426.19	1275.88
426.39	1327.08
426.60	1312.75
426.81	1263.60
427.01	1212.40
427.22	1222.64
427.42	1296.36
427.63	1241.07
427.83	1224.69
428.04	1210.35
428.25	1261.55
428.45	1304.56
428.66	1284.08
428.86	1230.83
429.07	1230.83
429.28	1257.45
429.48	1241.07
429.69	1251.31
429.89	1259.50
430.10	1306.60
430.30	1251.31
430.51	1345.52
430.71	1347.56
430.92	1288.17
431.13	1204.21
431.33	1380.33
431.54	1298.41
431.74	1355.76
431.95	1337.32
432.15	1277.93
432.36	1243.12
432.56	1255.40
432.77	1263.60
432.98	1298.41
433.18	1286.12
433.39	1232.88
433.59	1282.03
433.80	1331.18
434.00	1316.84
434.21	1288.17
434.41	1261.55
434.62	1282.03
434.82	1310.70
435.03	1298.41
435.23	1189.87
435.44	1273.84
435.64	1216.49
435.85	1265.64
436.06	1239.02
436.26	1257.45
436.47	1271.79
436.67	1388.52
436.88	1310.70
437.08	1255.40
437.29	1341.42
437.49	1177.58
437.70	1226.73
437.90	1341.42
438.11	1310.70
438.31	1271.79
438.52	1265.64
438.72	1222.64
438.93	1318.89
439.13	1273.84
439.34	1298.41
439.54	1275.88
439.75	1251.31
439.95	1286.12
440.16	1304.56
440.36	1257.45
440.57	1234.93
440.77	1241.07
440.98	1249.26
441.18	1247.21
441.39	1257.45
441.59	1265.64
441.80	1230.83
442.00	1304.56
442.21	1282.03
442.41	1290.22
442.62	1306.60
442.82	1306.60
443.02	1296.36
443.23	1277.93
443.43	1329.13
443.64	1296.36
443.84	1282.03
444.05	1265.64
444.25	1243.12
444.46	1277.93
444.66	1320.94
444.87	1294.32
445.07	1366.00
445.28	1275.88
445.48	1294.32
445.69	1236.97
445.89	1263.60
446.09	1277.93
446.30	1212.40
446.50	1288.17
446.71	1308.65
446.91	1271.79
447.12	1282.03
447.32	1269.74
447.53	1320.94
447.73	1275.88
447.93	1366.00
448.14	1241.07
448.34	1322.99
448.55	1300.46
448.75	1302.51
448.96	1290.22
449.16	1265.64
449.36	1355.76
449.57	1312.75
449.77	1251.31
449.98	1290.22
450.18	1257.45
450.39	1288.17
450.59	1183.73
450.79	1239.02
451.00	1239.02
451.20	1277.93
451.41	1331.18
451.61	1294.32
451.81	1282.03
452.02	1263.60
452.22	1271.79
452.43	1249.26
452.63	1335.28
452.84	1257.45
453.04	1279.98
453.24	1228.78
453.45	1261.55
453.65	1234.93
453.86	1294.32
454.06	1263.60
454.26	1294.32
454.47	1314.80
454.67	1255.40
454.87	1212.40
455.08	1279.98
455.28	1241.07
455.49	1265.64
455.69	1175.53
455.89	1247.21
456.10	1376.24
456.30	1259.50
456.51	1300.46
456.71	1257.45
456.91	1314.80
457.12	1288.17
457.32	1247.21
457.52	1279.98
457.73	1253.36
457.93	1271.79
458.14	1300.46
458.34	1286.12
458.54	1222.64
458.75	1247.21
458.95	1245.16
459.15	1339.37
459.36	1232.88
459.56	1159.15
459.76	1273.84
459.97	1288.17
460.17	1277.93
460.37	1196.01
460.58	1218.54
460.78	1279.98
460.99	1322.99
461.19	1273.84
461.39	1329.13
461.60	1263.60
461.80	1271.79
462.00	1312.75
462.21	1290.22
462.41	1277.93
462.61	1220.59
462.82	1255.40
463.02	1228.78
463.22	1308.65
463.43	1249.26
463.63	1239.02
463.83	1261.55
464.04	1243.12
464.24	1288.17
464.44	1329.13
464.64	1228.78
464.85	1298.41
465.05	1269.74
465.25	1230.83
465.46	1306.60
465.66	1284.08
465.86	1249.26
466.07	1325.04
466.27	1202.16
466.47	1298.41
466.68	1249.26
466.88	1284.08
467.08	1253.36
467.29	1243.12
467.49	1282.03
467.69	1288.17
467.89	1253.36
468.10	1310.70
468.30	1294.32
468.50	1300.46
468.71	1322.99
468.91	1308.65
469.11	1253.36
469.31	1255.40
469.52	1310.70
469.72	1282.03
469.92	1310.70
470.13	1320.94
470.33	1306.60
470.53	1294.32
470.73	1339.37
470.94	1228.78
471.14	1337.32
471.34	1310.70
471.54	1325.04
471.75	1312.75
471.95	1290.22
472.15	1216.49
472.36	1282.03
472.56	1208.30
472.76	1302.51
472.96	1286.12
473.17	1359.85
473.37	1277.93
473.57	1265.64
473.77	1212.40
473.98	1275.88
474.18	1198.06
474.38	1298.41
474.58	1302.51
474.79	1308.65
474.99	1284.08
475.19	1267.69
475.39	1230.83
475.60	1220.59
475.80	1271.79
476.00	1306.60
476.20	1279.98
476.41	1236.97
476.61	1294.32
476.81	1271.79
477.01	1198.06
477.21	1304.56
477.42	1273.84
477.62	1257.45
477.82	1208.30
478.02	1296.36
478.23	1259.50
478.43	1288.17
478.63	1241.07
478.83	1206.25
479.03	1347.56
479.24	1239.02
479.44	1292.27
479.64	1247.21
479.84	1259.50
480.04	1273.84
480.25	1294.32
480.45	1304.56
480.65	1241.07
480.85	1273.84
481.06	1298.41
481.26	1284.08
481.46	1206.25
481.66	1241.07
481.86	1288.17
482.06	1234.93
482.27	1366.00
482.47	1265.64
482.67	1255.40
482.87	1286.12
483.07	1298.41
483.28	1290.22
483.48	1232.88
483.68	1282.03
483.88	1329.13
484.08	1267.69
484.29	1193.97
484.49	1302.51
484.69	1218.54
484.89	1302.51
485.09	1355.76
485.29	1259.50
485.50	1257.45
485.70	1230.83
485.90	1357.80
486.10	1335.28
486.30	1316.84
486.50	1316.84
486.71	1263.60
486.91	1296.36
487.11	1239.02
487.31	1208.30
487.51	1292.27
487.71	1220.59
487.91	1353.71
488.12	1239.02
488.32	1257.45
488.52	1228.78
488.72	1265.64
488.92	1247.21
489.12	1306.60
489.32	1269.74
489.53	1292.27
489.73	1236.97
489.93	1208.30
490.13	1222.64
490.33	1247.21
490.53	1239.02
490.73	1290.22
490.94	1284.08
491.14	1288.17
491.34	1325.04
491.54	1290.22
491.74	1214.45
491.94	1204.21
492.14	1288.17
492.34	1304.56
492.54	1355.76
492.75	1226.73
492.95	1253.36
493.15	1202.16
493.35	1284.08
493.55	1222.64
493.75	1333.23
493.95	1312.75
494.15	1230.83
494.35	1308.65
494.56	1308.65
494.76	1236.97
494.96	1359.85
495.16	1263.60
495.36	1288.17
495.56	1232.88
495.76	1282.03
495.96	1210.35
496.16	1306.60
496.36	1273.84
496.56	1277.93
496.77	1265.64
496.97	1288.17
497.17	1353.71
497.37	1236.97
497.57	1271.79
497.77	1224.69
497.97	1327.08
498.17	1290.22
498.37	1271.79
498.57	1314.80
498.77	1226.73
498.97	1314.80
499.17	1292.27
499.38	1234.93
499.58	1279.98
499.78	1261.55
499.98	1245.16
500.18	1314.80
500.38	1351.66
500.58	1282.03
500.78	1366.00
500.98	1232.88
501.18	1263.60
501.38	1214.45
501.58	1251.31
501.78	1316.84
501.98	1259.50
502.18	1312.75
502.38	1308.65
502.58	1257.45
502.78	1292.27
502.98	1298.41
503.18	1314.80
503.38	1210.35
503.59	1245.16
503.79	1279.98
503.99	1288.17
504.19	1294.32
504.39	1304.56
504.59	1249.26
504.79	1279.98
504.99	1310.70
505.19	1261.55
505.39	1269.74
505.59	1314.80
505.79	1322.99
505.99	1325.04
506.19	1261.55
506.39	1337.32
506.59	1214.45
506.79	1331.18
506.99	1329.13
507.19	1173.49
507.39	1290.22
507.59	1282.03
507.79	1294.32
507.99	1279.98
508.19	1331.18
508.39	1208.30
508.59	1230.83
508.79	1277.93
508.99	1325.04
509.19	1239.02
509.39	1269.74
509.59	1343.47
509.79	1232.88
509.99	1269.74
510.19	1279.98
510.39	1288.17
510.59	1302.51
510.79	1343.47
510.99	1298.41
511.19	1273.84
511.39	1257.45
511.59	1255.40
511.79	1318.89
511.99	1155.05
512.19	1349.61
512.38	1261.55
512.58	1327.08
512.78	1337.32
512.98	1290.22
513.18	1232.88
513.38	1273.84
513.58	1318.89
513.78	1239.02
513.98	1279.98
514.18	1249.26
514.38	1296.36
514.58	1239.02
514.78	1247.21
514.98	1259.50
515.18	1288.17
515.38	1241.07
515.58	1275.88
515.78	1286.12
515.98	1347.56
516.18	1245.16
516.38	1234.93
516.57	1300.46
516.77	1284.08
516.97	1327.08
517.17	1267.69
517.37	1302.51
517.57	1306.60
517.77	1296.36
517.97	1361.90
518.17	1318.89
518.37	1282.03
518.57	1255.40
518.77	1337.32
518.97	1271.79
519.16	1271.79
519.36	1232.88
519.56	1247.21
519.76	1329.13
519.96	1265.64
520.16	1341.42
520.36	1345.52
520.56	1304.56
520.76	1279.98
520.96	1226.73
521.16	1279.98
521.35	1282.03
521.55	1306.60
521.75	1284.08
521.95	1277.93
522.15	1308.65
522.35	1249.26
522.55	1320.94
522.75	1327.08
522.95	1337.32
523.14	1329.13
523.34	1267.69
523.54	1320.94
523.74	1273.84
523.94	1312.75
524.14	1251.31
524.34	1224.69
524.54	1279.98
524.73	1341.42
524.93	1241.07
525.13	1261.55
525.33	1208.30
525.53	1224.69
525.73	1271.79
525.93	1282.03
526.13	1273.84
526.32	1298.41
526.52	1335.28
526.72	1269.74
526.92	1245.16
527.12	1302.51
527.32	1210.35
527.52	1265.64
527.71	1314.80
527.91	1212.40
528.11	1308.65
528.31	1329.13
528.51	1279.98
528.71	1241.07
528.90	1318.89
529.10	1273.84
529.30	1257.45
529.50	1224.69
529.70	1216.49
529.90	1296.36
530.09	1259.50
530.29	1282.03
530.49	1296.36
530.69	1310.70
530.89	1284.08
531.09	1322.99
531.28	1331.18
531.48	1273.84
531.68	1296.36
531.88	1245.16
532.08	1196.01
532.28	1255.40
532.47	1386.47
532.67	1302.51
532.87	1230.83
533.07	1222.64
533.27	1243.12
533.46	1249.26
533.66	1341.42
533.86	1339.37
534.06	1320.94
534.26	1329.13
534.45	1275.88
534.65	1265.64
534.85	1325.04
535.05	1308.65
535.25	1251.31
535.44	1290.22
535.64	1306.60
535.84	1267.69
536.04	1181.68
536.24	1304.56
536.43	1359.85
536.63	1275.88
536.83	1304.56
537.03	1259.50
537.22	1286.12
537.42	1394.67
537.62	1298.41
537.82	1261.55
538.02	1218.54
538.21	1333.23
538.41	1263.60
538.61	1312.75
538.81	1310.70
539.00	1265.64
539.20	1337.32
539.40	1214.45
539.60	1271.79
539.79	1296.36
539.99	1275.88
540.19	1298.41
540.39	1222.64
540.58	1396.71
540.78	1329.13
540.98	1304.56
541.18	1282.03
541.37	1296.36
541.57	1296.36
541.77	1329.13
541.97	1382.38
542.16	1294.32
542.36	1331.18
542.56	1347.56
542.76	1261.55
542.95	1255.40
543.15	1312.75
543.35	1269.74
543.54	1239.02
543.74	1253.36
543.94	1286.12
544.14	1357.80
544.33	1216.49
544.53	1333.23
544.73	1275.88
544.93	1251.31
545.12	1263.60
545.32	1275.88
545.52	1261.55
545.71	1290.22
545.91	1294.32
546.11	1288.17
546.30	1318.89
546.50	1247.21
546.70	1290.22
546.90	1322.99
547.09	1314.80
547.29	1241.07
547.49	1282.03
547.68	1341.42
547.88	1337.32
548.08	1239.02
548.27	1320.94
548.47	1247.21
548.67	1331.18
548.87	1286.12
549.06	1357.80
549.26	1349.61
549.46	1294.32
549.65	1294.32
549.85	1275.88
550.05	1329.13
550.24	1343.47
550.44	1265.64
550.64	1263.60
550.83	1273.84
551.03	1243.12
551.23	1224.69
551.42	1339.37
551.62	1284.08
551.82	1279.98
552.01	1208.30
552.21	1241.07
552.41	1320.94
552.60	1286.12
552.80	1255.40
553.00	1255.40
553.19	1288.17
553.39	1220.59
553.59	1187.82
553.78	1277.93
553.98	1314.80
554.17	1241.07
554.37	1304.56
554.57	1341.42
554.76	1296.36
554.96	1275.88
555.16	1259.50
555.35	1306.60
555.55	1259.50
555.75	1331.18
555.94	1345.52
556.14	1329.13
556.33	1232.88
556.53	1255.40
556.73	1300.46
556.92	1327.08
557.12	1333.23
557.32	1222.64
557.51	1300.46
557.71	1279.98
557.90	1296.36
558.10	1314.80
558.30	1286.12
558.49	1277.93
558.69	1257.45
558.88	1232.88
559.08	1312.75
559.28	1253.36
559.47	1273.84
559.67	1277.93
559.86	1241.07
560.06	1284.08
560.26	1284.08
560.45	1296.36
560.65	1282.03
560.84	1320.94
561.04	1255.40
561.24	1329.13
561.43	1239.02
561.63	1277.93
561.82	1191.92
562.02	1316.84
562.22	1339.37
562.41	1220.59
562.61	1257.45
562.80	1257.45
563.00	1239.02
563.19	1318.89
563.39	1312.75
563.59	1318.89
563.78	1322.99
563.98	1243.12
564.17	1208.30
564.37	1275.88
564.56	1251.31
564.76	1241.07
564.96	1327.08
565.15	1294.32
565.35	1329.13
565.54	1277.93
565.74	1302.51
565.93	1239.02
566.13	1257.45
566.32	1335.28
566.52	1277.93
566.71	1327.08
566.91	1329.13
567.11	1243.12
567.30	1214.45
567.50	1249.26
567.69	1261.55
567.89	1247.21
568.08	1314.80
568.28	1249.26
568.47	1241.07
568.67	1265.64
568.86	1286.12
569.06	1267.69
569.25	1261.55
569.45	1265.64
569.64	1298.41
569.84	1312.75
570.04	1251.31
570.23	1277.93
570.43	1255.40
570.62	1273.84
570.82	1253.36
571.01	1282.03
571.21	1380.33
571.40	1310.70
571.60	1320.94
571.79	1292.27
571.99	1251.31
572.18	1247.21
572.38	1298.41
572.57	1267.69
572.77	1331.18
572.96	1304.56
573.16	1310.70
573.35	1277.93
573.55	1296.36
573.74	1306.60
573.94	1236.97
574.13	1259.50
574.33	1327.08
574.52	1247.21
574.71	1273.84
574.91	1292.27
575.10	1337.32
575.30	1279.98
575.49	1247.21
575.69	1302.51
575.88	1275.88
576.08	1288.17
576.27	1216.49
576.47	1325.04
576.66	1273.84
576.86	1300.46
577.05	1257.45
577.25	1284.08
577.44	1322.99
577.64	1232.88
577.83	1275.88
578.02	1341.42
578.22	1257.45
578.41	1314.80
578.61	1243.12
578.80	1298.41
579.00	1286.12
579.19	1318.89
579.39	1247.21
579.58	1380.33
579.77	1308.65
579.97	1269.74
580.16	1282.03
580.36	1314.80
580.55	1275.88
580.75	1320.94
580.94	1259.50
581.13	1294.32
581.33	1277.93
581.52	1302.51
581.72	1279.98
581.91	1325.04
582.11	1198.06
582.30	1312.75
582.49	1228.78
582.69	1206.25
582.88	1296.36
583.08	1331.18
583.27	1331.18
583.47	1316.84
583.66	1277.93
583.85	1341.42
584.05	1310.70
584.24	1282.03
584.44	1372.14
584.63	1325.04
584.82	1384.43
585.02	1249.26
585.21	1284.08
585.41	1282.03
585.60	1298.41
585.79	1275.88
585.99	1257.45
586.18	1316.84
586.37	1265.64
586.57	1220.59
586.76	1263.60
586.96	1368.04
587.15	1322.99
587.34	1300.46
587.54	1296.36
587.73	1318.89
587.93	1296.36
588.12	1279.98
588.31	1255.40
588.51	1220.59
588.70	1296.36
588.89	1284.08
589.09	1314.80
589.28	1302.51
589.47	1288.17
589.67	1282.03
589.86	1273.84
590.06	1253.36
590.25	1263.60
590.44	1290.22
590.64	1275.88
590.83	1245.16
591.02	1288.17
591.22	1265.64
591.41	1384.43
591.60	1312.75
591.80	1290.22
591.99	1232.88
592.18	1193.97
592.38	1253.36
592.57	1296.36
592.76	1220.59
592.96	1245.16
593.15	1273.84
593.34	1282.03
593.54	1261.55
593.73	1310.70
593.92	1322.99
594.12	1374.19
594.31	1253.36
594.50	1290.22
594.70	1310.70
594.89	1306.60
595.08	1253.36
595.28	1341.42
595.47	1329.13
595.66	1263.60
595.86	1222.64
596.05	1300.46
596.24	1230.83
596.43	1298.41
596.63	1271.79
596.82	1300.46
597.01	1204.21
597.21	1310.70
597.40	1236.97
597.59	1255.40
597.79	1310.70
597.98	1306.60
598.17	1331.18
598.36	1273.84
598.56	1298.41
598.75	1232.88
598.94	1288.17
599.14	1277.93
599.33	1329.13
599.52	1271.79
599.71	1286.12
599.91	1290.22
600.10	1357.80
600.29	1277.93
600.48	1265.64
600.68	1337.32
600.87	1304.56
601.06	1316.84
601.26	1296.36
601.45	1263.60
601.64	1253.36
601.83	1253.36
602.03	1206.25
602.22	1279.98
602.41	1259.50
602.60	1253.36
602.80	1304.56
602.99	1306.60
603.18	1298.41
603.37	1239.02
603.57	1255.40
603.76	1284.08
603.95	1234.93
604.14	1318.89
604.34	1269.74
604.53	1335.28
604.72	1415.15
604.91	1304.56
605.10	1251.31
605.30	1288.17
605.49	1312.75
605.68	1239.02
605.87	1308.65
606.07	1296.36
606.26	1210.35
606.45	1253.36
606.64	1292.27
606.84	1210.35
607.03	1300.46
607.22	1275.88
607.41	1249.26
607.60	1300.46
607.80	1265.64
607.99	1310.70
608.18	1267.69
608.37	1273.84
608.56	1366.00
608.76	1271.79
608.95	1337.32
609.14	1247.21
609.33	1255.40
609.52	1247.21
609.72	1302.51
609.91	1255.40
610.10	1228.78
610.29	1249.26
610.48	1275.88
610.68	1236.97
610.87	1277.93
611.06	1292.27
611.25	1337.32
611.44	1271.79
611.63	1275.88
611.83	1300.46
612.02	1234.93
612.21	1337.32
612.40	1277.93
612.59	1363.95
612.79	1308.65
612.98	1275.88
613.17	1312.75
613.36	1255.40
613.55	1249.26
613.74	1204.21
613.93	1298.41
614.13	1269.74
614.32	1363.95
614.51	1243.12
614.70	1232.88
614.89	1298.41
615.08	1312.75
615.28	1331.18
615.47	1279.98
615.66	1279.98
615.85	1255.40
616.04	1241.07
616.23	1234.93
616.42	1249.26
616.62	1257.45
616.81	1308.65
617.00	1257.45
617.19	1314.80
617.38	1304.56
617.57	1372.14
617.76	1249.26
617.95	1234.93
618.15	1214.45
618.34	1290.22
618.53	1228.78
618.72	1363.95
618.91	1306.60
619.10	1212.40
619.29	1243.12
619.48	1302.51
619.68	1249.26
619.87	1292.27
620.06	1284.08
620.25	1304.56
620.44	1355.76
620.63	1290.22
620.82	1306.60
621.01	1282.03
621.20	1368.04
621.39	1314.80
621.59	1257.45
621.78	1329.13
621.97	1329.13
622.16	1286.12
622.35	1249.26
622.54	1318.89
622.73	1294.32
622.92	1335.28
623.11	1271.79
623.30	1292.27
623.49	1292.27
623.68	1359.85
623.88	1296.36
624.07	1306.60
624.26	1263.60
624.45	1234.93
624.64	1288.17
624.83	1331.18
625.02	1339.37
625.21	1224.69
625.40	1308.65
625.59	1292.27
625.78	1337.32
625.97	1345.52
626.16	1325.04
626.35	1329.13
626.54	1316.84
626.74	1322.99
626.93	1251.31
627.12	1388.52
627.31	1241.07
627.50	1249.26
627.69	1204.21
627.88	1267.69
628.07	1275.88
628.26	1341.42
628.45	1263.60
628.64	1343.47
628.83	1374.19
629.02	1339.37
629.21	1275.88
629.40	1384.43
629.59	1314.80
629.78	1224.69
629.97	1228.78
630.16	1255.40
630.35	1341.42
630.54	1353.71
630.73	1347.56
630.92	1333.23
631.11	1298.41
631.30	1339.37
631.49	1310.70
631.68	1411.05
631.87	1546.22
632.06	1665.00
632.25	1556.46
632.44	1576.94
632.63	1519.59
632.82	1462.25
633.01	1619.94
633.20	1495.02
633.39	1587.18
633.58	1578.98
633.77	1533.93
633.96	1581.03
634.15	1593.32
634.34	1681.38
634.53	1619.94
634.72	1640.42
634.91	1640.42
635.10	1697.77
635.29	1701.86
635.48	1644.52
635.67	1640.42
635.86	1703.91
636.05	1535.98
636.24	1597.42
636.43	1576.94
636.62	1587.18
636.81	1533.93
637.00	1533.93
637.19	1392.62
637.38	1372.14
637.57	1464.30
637.76	1476.59
637.95	1329.13
638.14	1339.37
638.33	1286.12
638.52	1296.36
638.71	1378.28
638.89	1257.45
639.08	1347.56
639.27	1310.70
639.46	1290.22
639.65	1333.23
639.84	1255.40
640.03	1241.07
640.22	1277.93
640.41	1304.56
640.60	1282.03
640.79	1224.69
640.98	1286.12
641.17	1318.89
641.36	1247.21
641.55	1267.69
641.74	1279.98
641.92	1294.32
642.11	1329.13
642.30	1296.36
642.49	1261.55
642.68	1269.74
642.87	1263.60
643.06	1261.55
643.25	1310.70
643.44	1269.74
643.63	1322.99
643.82	1316.84
644.00	1249.26
644.19	1277.93
644.38	1265.64
644.57	1318.89
644.76	1292.27
644.95	1316.84
645.14	1269.74
645.33	1322.99
645.52	1226.73
645.71	1249.26
645.89	1331.18
646.08	1368.04
646.27	1218.54
646.46	1247.21
646.65	1298.41
646.84	1261.55
647.03	1253.36
647.22	1189.87
647.40	1302.51
647.59	1279.98
647.78	1263.60
647.97	1296.36
648.16	1298.41
648.35	1320.94
648.54	1228.78
648.73	1247.21
648.91	1218.54
649.10	1314.80
649.29	1288.17
649.48	1335.28
649.67	1331.18
649.86	1296.36
650.05	1271.79
650.23	1286.12
650.42	1226.73
650.61	1286.12
650.80	1239.02
650.99	1279.98
651.18	1249.26
651.36	1243.12
651.55	1290.22
651.74	1288.17
651.93	1308.65
652.12	1290.22
652.31	1298.41
652.49	1273.84
652.68	1220.59
652.87	1265.64
653.06	1267.69
653.25	1302.51
653.44	1200.11
653.62	1230.83
653.81	1261.55
654.00	1282.03
654.19	1261.55
654.38	1302.51
654.56	1249.26
654.75	1257.45
654.94	1284.08
655.13	1267.69
655.32	1206.25
655.51	1284.08
655.69	1234.93
655.88	1296.36
656.07	1327.08
656.26	1234.93
656.45	1273.84
656.63	1284.08
656.82	1288.17
657.01	1282.03
657.20	1251.31
657.38	1277.93
657.57	1275.88
657.76	1253.36
657.95	1243.12
658.14	1273.84
658.32	1322.99
658.51	1269.74
658.70	1210.35
658.89	1269.74
659.08	1269.74
659.26	1279.98
659.45	1312.75
659.64	1300.46
659.83	1183.73
660.01	1247.21
660.20	1347.56
660.39	1249.26
660.58	1273.84
660.76	1282.03
660.95	1253.36
661.14	1230.83
661.33	1316.84
661.51	1329.13
661.70	1234.93
661.89	1251.31
662.08	1296.36
662.26	1259.50
662.45	1310.70
662.64	1327.08
662.83	1247.21
663.01	1241.07
663.20	1284.08
663.39	1304.56
663.58	1322.99
663.76	1251.31
663.95	1249.26
664.14	1255.40
664.32	1261.55
664.51	1294.32
664.70	1265.64
664.89	1249.26
665.07	1259.50
665.26	1247.21
665.45	1269.74
665.64	1196.01
665.82	1294.32
666.01	1288.17
666.20	1234.93
666.38	1271.79
666.57	1261.55
666.76	1269.74
666.95	1277.93
667.13	1259.50
667.32	1261.55
667.51	1228.78
667.69	1239.02
667.88	1277.93
668.07	1316.84
668.25	1286.12
668.44	1292.27
668.63	1263.60
668.81	1290.22
669.00	1251.31
669.19	1279.98
669.38	1273.84
669.56	1232.88
669.75	1236.97
669.94	1310.70
670.12	1265.64
670.31	1294.32
670.50	1294.32
670.68	1298.41
670.87	1263.60
671.06	1282.03
671.24	1224.69
671.43	1277.93
671.62	1306.60
671.80	1265.64
671.99	1239.02
672.18	1312.75
672.36	1312.75
672.55	1255.40
672.74	1296.36
672.92	1257.45
673.11	1239.02
673.29	1273.84
673.48	1263.60
673.67	1171.44
673.85	1208.30
674.04	1243.12
674.23	1275.88
674.41	1318.89
674.60	1253.36
674.79	1263.60
674.97	1261.55
675.16	1208.30
675.34	1282.03
675.53	1257.45
675.72	1159.15
675.90	1277.93
676.09	1312.75
676.28	1294.32
676.46	1187.82
676.65	1273.84
676.83	1322.99
677.02	1310.70
677.21	1245.16
677.39	1216.49
677.58	1292.27
677.77	1243.12
677.95	1279.98
678.14	1308.65
678.32	1234.93
678.51	1249.26
678.70	1265.64
678.88	1273.84
679.07	1200.11
679.25	1320.94
679.44	1257.45
679.63	1277.93
679.81	1312.75
680.00	1273.84
680.18	1222.64
680.37	1325.04
680.55	1267.69
680.74	1265.64
680.93	1263.60
681.11	1243.12
681.30	1282.03
681.48	1290.22
681.67	1290.22
681.85	1277.93
682.04	1204.21
682.23	1288.17
682.41	1259.50
682.60	1335.28
682.78	1261.55
682.97	1210.35
683.15	1243.12
683.34	1279.98
683.53	1271.79
683.71	1271.79
683.90	1314.80
684.08	1255.40
684.27	1261.55
684.45	1245.16
684.64	1279.98
684.82	1202.16
685.01	1224.69
685.19	1228.78
685.38	1269.74
685.57	1239.02
685.75	1302.51
685.94	1320.94
686.12	1239.02
686.31	1206.25
686.49	1306.60
686.68	1261.55
686.86	1296.36
687.05	1333.23
687.23	1292.27
687.42	1198.06
687.60	1279.98
687.79	1263.60
687.97	1310.70
688.16	1296.36
688.34	1325.04
688.53	1253.36
688.71	1253.36
688.90	1230.83
689.08	1288.17
689.27	1271.79
689.45	1273.84
689.64	1275.88
689.82	1249.26
690.01	1300.46
690.19	1314.80
690.38	1282.03
690.56	1314.80
690.75	1236.97
690.93	1296.36
691.12	1290.22
691.30	1251.31
691.49	1273.84
691.67	1230.83
691.86	1298.41
692.04	1282.03
692.23	1284.08
692.41	1269.74
692.60	1288.17
692.78	1290.22
692.97	1355.76
693.15	1249.26
693.34	1290.22
693.52	1265.64
693.71	1304.56
693.89	1306.60
694.08	1294.32
694.26	1236.97
694.44	1327.08
694.63	1349.61
694.81	1247.21
695.00	1308.65
695.18	1284.08
695.37	1302.51
695.55	1351.66
695.74	1286.12
695.92	1226.73
696.10	1261.55
696.29	1261.55
696.47	1308.65
696.66	1251.31
696.84	1279.98
697.03	1271.79
697.21	1320.94
697.40	1363.95
697.58	1265.64
697.76	1269.74
697.95	1222.64
698.13	1204.21
698.32	1249.26
698.50	1271.79
698.68	1282.03
698.87	1335.28
699.05	1284.08
699.24	1228.78
699.42	1322.99
699.61	1257.45
699.79	1253.36
699.97	1218.54
700.16	1292.27
700.34	1245.16
700.53	1236.97
700.71	1243.12
700.89	1247.21
701.08	1269.74
701.26	1298.41
701.45	1318.89
701.63	1306.60
701.81	1241.07
702.00	1208.30
702.18	1282.03
702.37	1279.98
702.55	1316.84
702.73	1290.22
702.92	1255.40
703.10	1282.03
703.28	1245.16
703.47	1277.93
703.65	1279.98
703.84	1284.08
704.02	1245.16
704.20	1249.26
704.39	1236.97
704.57	1243.12
704.75	1255.40
704.94	1222.64
705.12	1288.17
705.30	1343.47
705.49	1206.25
705.67	1279.98
705.86	1224.69
706.04	1261.55
706.22	1265.64
706.41	1269.74
706.59	1286.12
706.77	1288.17
706.96	1300.46
707.14	1312.75
707.32	1298.41
707.51	1275.88
707.69	1261.55
707.87	1247.21
708.06	1247.21
708.24	1230.83
708.42	1275.88
708.61	1298.41
708.79	1245.16
708.97	1298.41
709.16	1351.66
709.34	1265.64
709.52	1230.83
709.71	1181.68
709.89	1208.30
710.07	1269.74
710.26	1286.12
710.44	1257.45
710.62	1308.65
710.80	1298.41
710.99	1345.52
711.17	1259.50
711.35	1241.07
711.54	1210.35
711.72	1296.36
711.90	1263.60
712.09	1275.88
712.27	1189.87
712.45	1355.76
712.63	1269.74
712.82	1249.26
713.00	1267.69
713.18	1247.21
713.37	1273.84
713.55	1241.07
713.73	1251.31
713.91	1257.45
714.10	1294.32
714.28	1249.26
714.46	1286.12
714.65	1245.16
714.83	1320.94
715.01	1265.64
715.19	1241.07
715.38	1220.59
715.56	1277.93
715.74	1372.14
715.92	1253.36
716.11	1257.45
716.29	1271.79
716.47	1245.16
716.65	1245.16
716.84	1294.32
717.02	1249.26
717.20	1308.65
717.38	1265.64
717.57	1335.28
717.75	1292.27
717.93	1277.93
718.11	1421.29
718.30	1249.26
718.48	1318.89
718.66	1249.26
718.84	1302.51
719.03	1267.69
719.21	1224.69
719.39	1249.26
719.57	1325.04
719.75	1259.50
719.94	1298.41
720.12	1265.64
720.30	1245.16
720.48	1312.75
720.67	1269.74
720.85	1267.69
721.03	1298.41
721.21	1267.69
721.39	1271.79
721.58	1314.80
721.76	1273.84
721.94	1263.60
722.12	1306.60
722.30	1275.88
722.49	1255.40
722.67	1273.84
722.85	1191.92
723.03	1279.98
723.21	1232.88
723.40	1267.69
723.58	1243.12
723.76	1269.74
723.94	1292.27
724.12	1300.46
724.30	1232.88
724.49	1284.08
724.67	1339.37
724.85	1298.41
725.03	1269.74
725.21	1300.46
725.40	1232.88
725.58	1296.36
725.76	1251.31
725.94	1288.17
726.12	1271.79
726.30	1288.17
726.49	1275.88
726.67	1236.97
726.85	1255.40
727.03	1265.64
727.21	1261.55
727.39	1343.47
727.57	1236.97
727.76	1265.64
727.94	1269.74
728.12	1253.36
728.30	1253.36
728.48	1370.09
728.66	1214.45
728.84	1245.16
729.03	1259.50
729.21	1288.17
729.39	1310.70
729.57	1249.26
729.75	1206.25
729.93	1253.36
730.11	1265.64
730.30	1245.16
730.48	1310.70
730.66	1288.17
730.84	1282.03
731.02	1294.32
731.20	1273.84
731.38	1183.73
731.56	1284.08
731.74	1259.50
731.93	1263.60
732.11	1241.07
732.29	1296.36
732.47	1304.56
732.65	1239.02
732.83	1263.60
733.01	1255.40
733.19	1216.49
733.37	1292.27
733.56	1290.22
733.74	1296.36
733.92	1247.21
734.10	1277.93
734.28	1292.27
734.46	1273.84
734.64	1236.97
734.82	1294.32
735.00	1306.60
735.18	1251.31
735.36	1275.88
735.54	1298.41
735.73	1236.97
735.91	1314.80
736.09	1269.74
736.27	1308.65
736.45	1306.60
736.63	1277.93
736.81	1267.69
736.99	1279.98
737.17	1265.64
737.35	1277.93
737.53	1288.17
737.71	1269.74
737.89	1282.03
738.07	1275.88
738.25	1257.45
738.43	1243.12
738.61	1269.74
738.80	1267.69
738.98	1230.83
739.16	1296.36
739.34	1269.74
739.52	1294.32
739.70	1247.21
739.88	1232.88
740.06	1253.36
740.24	1232.88
740.42	1302.51
740.60	1259.50
740.78	1251.31
740.96	1265.64
741.14	1282.03
741.32	1239.02
741.50	1267.69
741.68	1232.88
741.86	1214.45
742.04	1222.64
742.22	1263.60
742.40	1263.60
742.58	1273.84
742.76	1245.16
742.94	1294.32
743.12	1247.21
743.30	1286.12
743.48	1273.84
743.66	1228.78
743.84	1282.03
744.02	1284.08
744.20	1232.88
744.38	1241.07
744.56	1206.25
744.74	1310.70
744.92	1253.36
745.10	1263.60
745.28	1189.87
745.46	1271.79
745.64	1263.60
745.82	1265.64
746.00	1236.97
746.18	1183.73
746.36	1265.64
746.54	1226.73
746.72	1298.41
746.90	1296.36
747.08	1304.56
747.26	1355.76
747.44	1267.69
747.62	1325.04
747.80	1247.21
747.98	1290.22
748.15	1265.64
748.33	1282.03
748.51	1314.80
748.69	1255.40
748.87	1286.12
749.05	1302.51
749.23	1220.59
749.41	1218.54
749.59	1261.55
749.77	1351.66
749.95	1279.98
750.13	1290.22
750.31	1222.64
750.49	1282.03
750.67	1284.08
750.85	1282.03
751.03	1290.22
751.20	1312.75
751.38	1253.36
751.56	1275.88
751.74	1294.32
751.92	1245.16
752.10	1255.40
752.28	1257.45
752.46	1277.93
752.64	1290.22
752.82	1294.32
753.00	1261.55
753.18	1259.50
753.35	1273.84
753.53	1220.59
753.71	1249.26
753.89	1290.22
754.07	1292.27
754.25	1224.69
754.43	1263.60
754.61	1306.60
754.79	1232.88
754.97	1243.12
755.14	1308.65
755.32	1331.18
755.50	1259.50
755.68	1304.56
755.86	1271.79
756.04	1306.60
756.22	1271.79
756.40	1263.60
756.57	1265.64
756.75	1171.44
756.93	1263.60
757.11	1257.45
757.29	1257.45
757.47	1224.69
757.65	1312.75
757.82	1196.01
758.00	1312.75
758.18	1245.16
758.36	1273.84
758.54	1263.60
758.72	1265.64
758.90	1279.98
759.07	1245.16
759.25	1228.78
759.43	1279.98
759.61	1304.56
759.79	1288.17
759.97	1275.88
760.15	1298.41
760.32	1284.08
760.50	1286.12
760.68	1269.74
760.86	1327.08
761.04	1222.64
761.22	1243.12
761.39	1216.49
761.57	1300.46
761.75	1234.93
761.93	1273.84
762.11	1255.40
762.28	1224.69
762.46	1236.97
762.64	1310.70
762.82	1329.13
763.00	1259.50
763.18	1271.79
763.35	1343.47
763.53	1277.93
763.71	1224.69
763.89	1282.03
764.07	1292.27
764.24	1282.03
764.42	1298.41
764.60	1218.54
764.78	1265.64
764.96	1263.60
765.13	1234.93
765.31	1271.79
765.49	1296.36
765.67	1286.12
765.84	1308.65
766.02	1292.27
766.20	1290.22
766.38	1302.51
766.56	1320.94
766.73	1300.46
766.91	1267.69
767.09	1339.37
767.27	1253.36
767.44	1200.11
767.62	1226.73
767.80	1331.18
767.98	1277.93
768.15	1257.45
768.33	1232.88
768.51	1312.75
768.69	1245.16
768.87	1222.64
769.04	1261.55
769.22	1298.41
769.40	1234.93
769.58	1263.60
769.75	1298.41
769.93	1308.65
770.11	1236.97
770.28	1265.64
770.46	1222.64
770.64	1279.98
770.82	1230.83
770.99	1312.75
771.17	1249.26
771.35	1261.55
771.53	1300.46
771.70	1234.93
771.88	1239.02
772.06	1267.69
772.23	1249.26
772.41	1304.56
772.59	1273.84
772.77	1292.27
772.94	1273.84
773.12	1257.45
773.30	1337.32
773.47	1265.64
773.65	1279.98
773.83	1284.08
774.01	1292.27
774.18	1282.03
774.36	1271.79
774.54	1284.08
774.71	1224.69
774.89	1296.36
775.07	1251.31
775.24	1236.97
775.42	1234.93
775.60	1279.98
775.78	1210.35
775.95	1300.46
776.13	1304.56
776.31	1282.03
776.48	1236.97
776.66	1294.32
776.84	1337.32
777.01	1304.56
777.19	1275.88
777.37	1245.16
777.54	1171.44
777.72	1249.26
777.90	1277.93
778.07	1255.40
778.25	1220.59
778.43	1263.60
778.60	1257.45
778.78	1273.84
778.96	1339.37
779.13	1284.08
779.31	1232.88
779.49	1230.83
779.66	1286.12
779.84	1230.83
780.01	1271.79
780.19	1230.83
780.37	1261.55
780.54	1296.36
780.72	1284.08
780.90	1335.28
781.07	1255.40
781.25	1263.60
781.43	1312.75
781.60	1279.98
781.78	1331.18
781.95	1329.13
782.13	1230.83
782.31	1265.64
782.48	1245.16
782.66	1312.75
782.83	1304.56
783.01	1261.55
783.19	1273.84
783.36	1288.17
783.54	1259.50
783.72	1310.70
783.89	1218.54
784.07	1263.60
784.24	1277.93
784.42	1208.30
784.60	1267.69
784.77	1241.07
784.95	1282.03
785.12	1298.41
785.30	1320.94
785.47	1202.16
785.65	1282.03
785.83	1306.60
786.00	1310.70
786.18	1335.28
786.35	1275.88
786.53	1257.45
786.71	1241.07
786.88	1312.75
787.06	1355.76
787.23	1320.94
787.41	1284.08
787.58	1228.78
787.76	1257.45
787.94	1263.60
788.11	1243.12
788.29	1273.84
788.46	1300.46
788.64	1298.41
788.81	1236.97
788.99	1331.18
789.16	1202.16
789.34	1310.70
789.52	1232.88
789.69	1267.69
789.87	1239.02
790.04	1345.52
790.22	1247.21
790.39	1304.56
790.57	1263.60
790.74	1236.97
790.92	1304.56
791.09	1288.17
791.27	1308.65
791.44	1331.18
791.62	1222.64
791.79	1216.49
791.97	1312.75
792.15	1245.16
792.32	1275.88
792.50	1298.41
792.67	1284.08
792.85	1290.22
793.02	1316.84
793.20	1247.21
793.37	1282.03
793.55	1247.21
793.72	1261.55
793.90	1220.59
794.07	1271.79
794.25	1329.13
794.42	1284.08
794.60	1273.84
794.77	1284.08
794.95	1261.55
795.12	1261.55
795.30	1300.46
795.47	1275.88
795.65	1282.03
795.82	1257.45
796.00	1185.77
796.17	1214.45
796.34	1216.49
796.52	1169.39
796.69	1267.69
796.87	1243.12
797.04	1214.45
797.22	1306.60
797.39	1288.17
797.57	1306.60
797.74	1304.56
797.92	1236.97
798.09	1198.06
798.27	1255.40
798.44	1239.02
798.62	1271.79
798.79	1288.17
798.96	1253.36
799.14	1224.69
799.31	1265.64
799.49	1308.65
799.66	1191.92
799.84	1210.35
800.01	1224.69
800.19	1273.84
800.36	1296.36
800.53	1226.73
800.71	1232.88
800.88	1208.30
801.06	1236.97
801.23	1304.56
801.41	1271.79
801.58	1318.89
801.75	1292.27
801.93	1322.99
802.10	1196.01
802.28	1226.73
802.45	1228.78
802.63	1290.22
802.80	1263.60
802.97	1290.22
803.15	1200.11
803.32	1243.12
803.50	1322.99
803.67	1241.07
803.84	1226.73
804.02	1204.21
804.19	1271.79
804.37	1288.17
804.54	1325.04
804.71	1288.17
804.89	1269.74
805.06	1298.41
805.24	1269.74
805.41	1322.99
805.58	1300.46
805.76	1337.32
805.93	1261.55
806.10	1249.26
806.28	1314.80
806.45	1290.22
806.63	1302.51
806.80	1312.75
806.97	1294.32
807.15	1357.80
807.32	1288.17
807.49	1288.17
807.67	1314.80
807.84	1298.41
808.01	1298.41
808.19	1249.26
808.36	1302.51
808.54	1198.06
808.71	1277.93
808.88	1226.73
809.06	1259.50
809.23	1304.56
809.40	1222.64
809.58	1279.98
809.75	1298.41
809.92	1269.74
810.10	1335.28
810.27	1241.07
810.44	1322.99
810.62	1273.84
810.79	1255.40
810.96	1261.55
811.14	1222.64
811.31	1263.60
811.48	1300.46
811.66	1245.16
811.83	1296.36
812.00	1239.02
812.18	1243.12
812.35	1275.88
812.52	1304.56
812.69	1288.17
812.87	1251.31
813.04	1241.07
813.21	1294.32
813.39	1214.45
813.56	1265.64
813.73	1298.41
813.91	1255.40
814.08	1290.22
814.25	1265.64
814.42	1325.04
814.60	1312.75
814.77	1292.27
814.94	1257.45
815.12	1267.69
815.29	1247.21
815.46	1275.88
815.63	1228.78
815.81	1198.06
815.98	1279.98
816.15	1257.45
816.33	1228.78
816.50	1282.03
816.67	1255.40
816.84	1320.94
817.02	1271.79
817.19	1286.12
817.36	1267.69
817.53	1284.08
817.71	1253.36
817.88	1290.22
818.05	1325.04
818.22	1290.22
818.40	1247.21
818.57	1288.17
818.74	1259.50
818.91	1267.69
819.09	1279.98
819.26	1273.84
819.43	1232.88
819.60	1292.27
819.78	1230.83
819.95	1241.07
820.12	1320.94
820.29	1316.84
820.47	1284.08
820.64	1304.56
820.81	1200.11
820.98	1298.41
821.15	1300.46
821.33	1249.26
821.50	1253.36
821.67	1249.26
821.84	1222.64
822.02	1300.46
822.19	1267.69
822.36	1232.88
822.53	1277.93
822.70	1286.12
822.88	1271.79
823.05	1228.78
823.22	1263.60
823.39	1212.40
823.56	1329.13
823.74	1331.18
823.91	1202.16
824.08	1261.55
824.25	1241.07
824.42	1191.92
824.60	1300.46
824.77	1273.84
824.94	1275.88
825.11	1128.43
825.28	1353.71
825.45	1230.83
825.63	1259.50
825.80	1253.36
825.97	1251.31
826.14	1292.27
826.31	1212.40
826.48	1259.50
826.66	1253.36
826.83	1275.88
827.00	1191.92
827.17	1243.12
827.34	1241.07
827.51	1306.60
827.69	1269.74
827.86	1204.21
828.03	1220.59
828.20	1265.64
828.37	1249.26
828.54	1304.56
828.71	1271.79
828.89	1259.50
829.06	1259.50
829.23	1277.93
829.40	1294.32
829.57	1245.16
829.74	1239.02
829.91	1282.03
830.09	1300.46
830.26	1241.07
830.43	1320.94
830.60	1284.08
830.77	1265.64
830.94	1329.13
831.11	1300.46
831.28	1306.60
831.46	1161.20
831.63	1279.98
831.80	1103.86
831.97	1247.21
832.14	1263.60
832.31	1224.69
832.48	1310.70
832.65	1310.70
832.82	1279.98
832.99	1275.88
833.17	1322.99
833.34	1286.12
833.51	1257.45
833.68	1279.98
833.85	1345.52
834.02	1271.79
834.19	1255.40
834.36	1226.73
834.53	1226.73
834.70	1292.27
834.87	1331.18
835.04	1218.54
835.22	1249.26
835.39	1249.26
835.56	1173.49
835.73	1232.88
835.90	1255.40
836.07	1316.84
836.24	1243.12
836.41	1277.93
836.58	1200.11
836.75	1327.08
836.92	1333.23
837.09	1179.63
837.26	1263.60
837.43	1279.98
837.60	1279.98
837.77	1263.60
837.94	1224.69
838.12	1279.98
838.29	1290.22
838.46	1269.74
838.63	1220.59
838.80	1216.49
838.97	1249.26
839.14	1255.40
839.31	1263.60
839.48	1257.45
839.65	1234.93
839.82	1265.64
839.99	1282.03
840.16	1282.03
840.33	1290.22
840.50	1261.55
840.67	1249.26
840.84	1216.49
841.01	1269.74
841.18	1259.50
841.35	1243.12
841.52	1263.60
841.69	1220.59
841.86	1298.41
842.03	1230.83
842.20	1273.84
842.37	1181.68
842.54	1193.97
842.71	1210.35
842.88	1269.74
843.05	1232.88
843.22	1273.84
843.39	1298.41
843.56	1269.74
843.73	1232.88
843.90	1218.54
844.07	1316.84
844.24	1191.92
844.41	1265.64
844.58	1263.60
844.75	1316.84
844.92	1349.61
845.09	1288.17
845.26	1224.69
845.43	1255.40
845.60	1263.60
845.77	1288.17
845.94	1306.60
846.10	1224.69
846.27	1224.69
846.44	1265.64
846.61	1333.23
846.78	1337.32
846.95	1292.27
847.12	1263.60
847.29	1220.59
847.46	1265.64
847.63	1261.55
847.80	1171.44
847.97	1288.17
848.14	1306.60
848.31	1322.99
848.48	1181.68
848.65	1290.22
848.82	1232.88
848.98	1210.35
849.15	1224.69
849.32	1298.41
849.49	1316.84
849.66	1286.12
849.83	1275.88
850.00	1257.45
850.17	1271.79
850.34	1322.99
850.51	1267.69
850.68	1275.88
850.85	1337.32
851.01	1255.40
851.18	1253.36
851.35	1288.17
851.52	1312.75
851.69	1306.60
851.86	1329.13
852.03	1185.77
852.20	1230.83
852.37	1269.74
852.53	1314.80
852.70	1327.08
852.87	1210.35
853.04	1282.03
853.21	1284.08
853.38	1279.98
853.55	1318.89
853.72	1253.36
853.89	1339.37
854.05	1320.94
854.22	1257.45
854.39	1286.12
854.56	1253.36
854.73	1275.88
854.90	1312.75
855.07	1271.79
855.23	1177.58
855.40	1310.70
855.57	1234.93
855.74	1275.88
855.91	1245.16
856.08	1265.64
856.25	1228.78
856.41	1273.84
856.58	1257.45
856.75	1286.12
856.92	1222.64
857.09	1325.04
857.26	1325.04
857.42	1304.56
857.59	1216.49
857.76	1247.21
857.93	1230.83
858.10	1253.36
858.27	1204.21
858.43	1277.93
858.60	1257.45
858.77	1232.88
858.94	1263.60
859.11	1269.74
859.27	1306.60
859.44	1292.27
859.61	1277.93
859.78	1173.49
859.95	1253.36
860.12	1292.27
860.28	1310.70
860.45	1253.36
860.62	1277.93
860.79	1279.98
860.95	1366.00
861.12	1288.17
861.29	1257.45
861.46	1214.45
861.63	1218.54
861.79	1271.79
861.96	1290.22
862.13	1312.75
862.30	1206.25
862.47	1300.46
862.63	1286.12
862.80	1288.17
862.97	1312.75
863.14	1306.60
863.30	1329.13
863.47	1239.02
863.64	1273.84
863.81	1241.07
863.97	1279.98
864.14	1318.89
864.31	1325.04
864.48	1261.55
864.65	1255.40
864.81	1241.07
864.98	1337.32
865.15	1314.80
865.32	1232.88
865.48	1290.22
865.65	1277.93
865.82	1247.21
865.98	1247.21
866.15	1279.98
866.32	1191.92
866.49	1273.84
866.65	1198.06
866.82	1191.92
866.99	1236.97
867.16	1249.26
867.32	1263.60
867.49	1290.22
867.66	1282.03
867.83	1294.32
867.99	1273.84
868.16	1249.26
868.33	1284.08
868.49	1241.07
868.66	1300.46
868.83	1253.36
868.99	1214.45
869.16	1259.50
869.33	1341.42
869.50	1298.41
869.66	1261.55
869.83	1226.73
870.00	1257.45
870.16	1325.04
870.33	1202.16
870.50	1247.21
870.66	1273.84
870.83	1220.59
871.00	1257.45
871.17	1253.36
871.33	1257.45
871.50	1282.03
871.67	1212.40
871.83	1286.12
872.00	1224.69
872.17	1286.12
872.33	1294.32
872.50	1347.56
872.67	1247.21
872.83	1179.63
873.00	1210.35
873.17	1247.21
873.33	1300.46
873.50	1286.12
873.67	1331.18
873.83	1314.80
874.00	1220.59
874.16	1269.74
874.33	1298.41
874.50	1265.64
874.66	1263.60
874.83	1318.89
875.00	1224.69
875.16	1208.30
875.33	1189.87
875.50	1322.99
875.66	1183.73
875.83	1302.51
875.99	1257.45
876.16	1310.70
876.33	1290.22
876.49	1179.63
876.66	1288.17
876.83	1261.55
876.99	1263.60
877.16	1282.03
877.32	1253.36
877.49	1327.08
877.66	1224.69
877.82	1271.79
877.99	1316.84
878.15	1226.73
878.32	1257.45
878.49	1300.46
878.65	1265.64
878.82	1273.84
878.98	1331.18
879.15	1206.25
879.32	1265.64
879.48	1269.74
879.65	1255.40
879.81	1329.13
879.98	1310.70
880.15	1279.98
880.31	1279.98
880.48	1261.55
880.64	1325.04
880.81	1263.60
880.97	1296.36
881.14	1282.03
881.31	1249.26
881.47	1277.93
881.64	1290.22
881.80	1228.78
881.97	1261.55
882.13	1255.40
882.30	1279.98
882.47	1245.16
882.63	1210.35
882.80	1290.22
882.96	1263.60
883.13	1247.21
883.29	1253.36
883.46	1314.80
883.62	1249.26
883.79	1224.69
883.95	1247.21
884.12	1239.02
884.29	1318.89
884.45	1220.59
884.62	1277.93
884.78	1255.40
884.95	1247.21
885.11	1257.45
885.28	1279.98
885.44	1241.07
885.61	1243.12
885.77	1249.26
885.94	1277.93
886.10	1277.93
886.27	1304.56
886.43	1259.50
886.60	1265.64
886.76	1337.32
886.93	1273.84
887.09	1320.94
887.26	1275.88
887.42	1269.74
887.59	1226.73
887.75	1234.93
887.92	1251.31
888.08	1306.60
888.25	1296.36
888.41	1314.80
888.58	1312.75
888.74	1271.79
888.91	1200.11
>>>>>End Processed Spectral Data<<<<<
