SpectraSuite Data File
++++++++++++++++++++++++++++++++++++
Date: Sun Apr 03 19:55:19 CEST 2016
User: root
Dark Spectrum Present: No
Reference Spectrum Present: No
Number of Sampled Component Spectra: 1
Spectrometers: USB4C02835
Integration Time (usec): 10000 (USB4C02835)
Spectra Averaged: 1 (USB4C02835)
Boxcar Smoothing: 0 (USB4C02835)
Correct for Electrical Dark: No (USB4C02835)
Strobe/Lamp Enabled: No (USB4C02835)
Correct for Detector Non-linearity: No (USB4C02835)
Correct for Stray Light: No (USB4C02835)
Number of Pixels in Processed Spectrum: 3648
>>>>>Begin Processed Spectral Data<<<<<
177.47	1179.63
177.69	1179.63
177.91	1179.63
178.13	1269.74
178.36	1236.97
178.58	1294.32
178.80	1284.08
179.02	1265.64
179.24	1189.87
179.46	1204.21
179.68	1261.55
179.90	1294.32
180.13	1228.78
180.35	1230.83
180.57	1191.92
180.79	1339.37
181.01	1267.69
181.23	1265.64
181.45	1339.37
181.67	1259.50
181.90	1318.89
182.12	1175.53
182.34	1232.88
182.56	1267.69
182.78	1277.93
183.00	1335.28
183.22	1273.84
183.44	1273.84
183.66	1253.36
183.89	1271.79
184.11	1167.34
184.33	1249.26
184.55	1269.74
184.77	1282.03
184.99	1261.55
185.21	1222.64
185.43	1325.04
185.65	1331.18
185.87	1294.32
186.10	1296.36
186.32	1263.60
186.54	1210.35
186.76	1208.30
186.98	1247.21
187.20	1261.55
187.42	1239.02
187.64	1257.45
187.86	1234.93
188.08	1245.16
188.30	1269.74
188.52	1304.56
188.75	1224.69
188.97	1288.17
189.19	1183.73
189.41	1298.41
189.63	1300.46
189.85	1212.40
190.07	1288.17
190.29	1157.10
190.51	1265.64
190.73	1216.49
190.95	1316.84
191.17	1241.07
191.39	1259.50
191.61	1298.41
191.84	1316.84
192.06	1269.74
192.28	1226.73
192.50	1353.71
192.72	1216.49
192.94	1273.84
193.16	1322.99
193.38	1312.75
193.60	1228.78
193.82	1224.69
194.04	1277.93
194.26	1198.06
194.48	1286.12
194.70	1290.22
194.92	1261.55
195.14	1316.84
195.36	1259.50
195.58	1290.22
195.80	1241.07
196.02	1314.80
196.24	1239.02
196.46	1232.88
196.69	1263.60
196.91	1267.69
197.13	1271.79
197.35	1251.31
197.57	1255.40
197.79	1312.75
198.01	1275.88
198.23	1185.77
198.45	1318.89
198.67	1241.07
198.89	1312.75
199.11	1232.88
199.33	1292.27
199.55	1304.56
199.77	1200.11
199.99	1298.41
200.21	1294.32
200.43	1302.51
200.65	1273.84
200.87	1269.74
201.09	1292.27
201.31	1279.98
201.53	1296.36
201.75	1216.49
201.97	1298.41
202.19	1218.54
202.41	1208.30
202.63	1265.64
202.85	1265.64
203.07	1290.22
203.29	1279.98
203.51	1175.53
203.73	1253.36
203.95	1263.60
204.17	1206.25
204.39	1228.78
204.61	1220.59
204.83	1232.88
205.05	1282.03
205.27	1239.02
205.49	1228.78
205.71	1351.66
205.93	1226.73
206.15	1253.36
206.37	1269.74
206.59	1349.61
206.81	1210.35
207.03	1245.16
207.25	1214.45
207.47	1282.03
207.69	1251.31
207.91	1286.12
208.13	1288.17
208.34	1267.69
208.56	1245.16
208.78	1290.22
209.00	1159.15
209.22	1247.21
209.44	1251.31
209.66	1202.16
209.88	1288.17
210.10	1185.77
210.32	1290.22
210.54	1267.69
210.76	1279.98
210.98	1282.03
211.20	1247.21
211.42	1202.16
211.64	1339.37
211.86	1331.18
212.08	1261.55
212.30	1318.89
212.52	1357.80
212.74	1208.30
212.96	1277.93
213.17	1306.60
213.39	1193.97
213.61	1263.60
213.83	1314.80
214.05	1282.03
214.27	1255.40
214.49	1269.74
214.71	1279.98
214.93	1312.75
215.15	1239.02
215.37	1292.27
215.59	1198.06
215.81	1282.03
216.03	1255.40
216.24	1277.93
216.46	1265.64
216.68	1322.99
216.90	1298.41
217.12	1175.53
217.34	1279.98
217.56	1236.97
217.78	1282.03
218.00	1222.64
218.22	1232.88
218.44	1265.64
218.66	1206.25
218.87	1243.12
219.09	1269.74
219.31	1226.73
219.53	1298.41
219.75	1228.78
219.97	1206.25
220.19	1298.41
220.41	1312.75
220.63	1259.50
220.85	1277.93
221.06	1230.83
221.28	1234.93
221.50	1347.56
221.72	1286.12
221.94	1245.16
222.16	1273.84
222.38	1239.02
222.60	1318.89
222.82	1247.21
223.03	1279.98
223.25	1267.69
223.47	1239.02
223.69	1212.40
223.91	1226.73
224.13	1208.30
224.35	1310.70
224.57	1271.79
224.78	1243.12
225.00	1275.88
225.22	1320.94
225.44	1273.84
225.66	1239.02
225.88	1310.70
226.10	1265.64
226.32	1249.26
226.53	1279.98
226.75	1355.76
226.97	1241.07
227.19	1310.70
227.41	1261.55
227.63	1314.80
227.85	1267.69
228.06	1325.04
228.28	1284.08
228.50	1179.63
228.72	1267.69
228.94	1298.41
229.16	1282.03
229.37	1310.70
229.59	1202.16
229.81	1214.45
230.03	1304.56
230.25	1232.88
230.47	1282.03
230.69	1372.14
230.90	1249.26
231.12	1253.36
231.34	1243.12
231.56	1255.40
231.78	1257.45
232.00	1277.93
232.21	1241.07
232.43	1230.83
232.65	1257.45
232.87	1234.93
233.09	1232.88
233.30	1226.73
233.52	1306.60
233.74	1273.84
233.96	1366.00
234.18	1296.36
234.40	1251.31
234.61	1333.23
234.83	1251.31
235.05	1177.58
235.27	1296.36
235.49	1265.64
235.70	1222.64
235.92	1288.17
236.14	1277.93
236.36	1322.99
236.58	1304.56
236.79	1265.64
237.01	1222.64
237.23	1304.56
237.45	1304.56
237.67	1257.45
237.88	1263.60
238.10	1335.28
238.32	1210.35
238.54	1247.21
238.76	1265.64
238.97	1273.84
239.19	1198.06
239.41	1314.80
239.63	1230.83
239.85	1232.88
240.06	1228.78
240.28	1345.52
240.50	1255.40
240.72	1302.51
240.93	1228.78
241.15	1255.40
241.37	1232.88
241.59	1339.37
241.81	1267.69
242.02	1331.18
242.24	1296.36
242.46	1322.99
242.68	1275.88
242.89	1286.12
243.11	1187.82
243.33	1222.64
243.55	1239.02
243.76	1271.79
243.98	1298.41
244.20	1279.98
244.42	1253.36
244.64	1298.41
244.85	1284.08
245.07	1253.36
245.29	1347.56
245.51	1304.56
245.72	1306.60
245.94	1236.97
246.16	1253.36
246.38	1245.16
246.59	1286.12
246.81	1286.12
247.03	1185.77
247.24	1259.50
247.46	1255.40
247.68	1251.31
247.90	1261.55
248.11	1243.12
248.33	1339.37
248.55	1312.75
248.77	1292.27
248.98	1247.21
249.20	1304.56
249.42	1269.74
249.64	1310.70
249.85	1290.22
250.07	1265.64
250.29	1286.12
250.50	1243.12
250.72	1224.69
250.94	1304.56
251.16	1265.64
251.37	1255.40
251.59	1253.36
251.81	1247.21
252.02	1275.88
252.24	1304.56
252.46	1288.17
252.68	1222.64
252.89	1294.32
253.11	1273.84
253.33	1298.41
253.54	1251.31
253.76	1236.97
253.98	1216.49
254.20	1339.37
254.41	1257.45
254.63	1251.31
254.85	1251.31
255.06	1230.83
255.28	1261.55
255.50	1236.97
255.71	1243.12
255.93	1273.84
256.15	1232.88
256.36	1296.36
256.58	1239.02
256.80	1232.88
257.02	1275.88
257.23	1220.59
257.45	1234.93
257.67	1261.55
257.88	1228.78
258.10	1306.60
258.32	1249.26
258.53	1263.60
258.75	1228.78
258.97	1232.88
259.18	1241.07
259.40	1298.41
259.62	1243.12
259.83	1310.70
260.05	1288.17
260.27	1318.89
260.48	1224.69
260.70	1232.88
260.92	1239.02
261.13	1339.37
261.35	1298.41
261.57	1216.49
261.78	1263.60
262.00	1255.40
262.22	1292.27
262.43	1273.84
262.65	1294.32
262.86	1288.17
263.08	1232.88
263.30	1239.02
263.51	1261.55
263.73	1247.21
263.95	1279.98
264.16	1245.16
264.38	1204.21
264.60	1255.40
264.81	1265.64
265.03	1249.26
265.25	1269.74
265.46	1265.64
265.68	1308.65
265.89	1282.03
266.11	1241.07
266.33	1277.93
266.54	1179.63
266.76	1310.70
266.98	1275.88
267.19	1308.65
267.41	1232.88
267.62	1216.49
267.84	1275.88
268.06	1296.36
268.27	1286.12
268.49	1269.74
268.70	1243.12
268.92	1232.88
269.14	1275.88
269.35	1277.93
269.57	1292.27
269.79	1329.13
270.00	1302.51
270.22	1255.40
270.43	1275.88
270.65	1234.93
270.87	1343.47
271.08	1310.70
271.30	1351.66
271.51	1230.83
271.73	1282.03
271.95	1208.30
272.16	1282.03
272.38	1284.08
272.59	1267.69
272.81	1325.04
273.02	1247.21
273.24	1261.55
273.46	1249.26
273.67	1322.99
273.89	1247.21
274.10	1259.50
274.32	1261.55
274.54	1253.36
274.75	1243.12
274.97	1239.02
275.18	1228.78
275.40	1273.84
275.61	1249.26
275.83	1288.17
276.05	1255.40
276.26	1288.17
276.48	1261.55
276.69	1269.74
276.91	1292.27
277.12	1277.93
277.34	1273.84
277.55	1314.80
277.77	1255.40
277.99	1271.79
278.20	1218.54
278.42	1236.97
278.63	1255.40
278.85	1206.25
279.06	1241.07
279.28	1279.98
279.49	1290.22
279.71	1239.02
279.93	1275.88
280.14	1255.40
280.36	1300.46
280.57	1216.49
280.79	1327.08
281.00	1236.97
281.22	1224.69
281.43	1282.03
281.65	1236.97
281.86	1273.84
282.08	1206.25
282.29	1347.56
282.51	1296.36
282.73	1298.41
282.94	1288.17
283.16	1226.73
283.37	1265.64
283.59	1249.26
283.80	1253.36
284.02	1265.64
284.23	1329.13
284.45	1279.98
284.66	1257.45
284.88	1155.05
285.09	1300.46
285.31	1306.60
285.52	1279.98
285.74	1263.60
285.95	1216.49
286.17	1282.03
286.38	1318.89
286.60	1279.98
286.81	1261.55
287.03	1308.65
287.24	1261.55
287.46	1200.11
287.67	1284.08
287.89	1265.64
288.10	1232.88
288.32	1204.21
288.53	1302.51
288.75	1228.78
288.96	1267.69
289.18	1314.80
289.39	1290.22
289.61	1275.88
289.82	1294.32
290.04	1325.04
290.25	1349.61
290.47	1230.83
290.68	1222.64
290.90	1267.69
291.11	1239.02
291.33	1290.22
291.54	1294.32
291.76	1314.80
291.97	1306.60
292.18	1308.65
292.40	1286.12
292.61	1282.03
292.83	1267.69
293.04	1259.50
293.26	1316.84
293.47	1298.41
293.69	1253.36
293.90	1294.32
294.12	1261.55
294.33	1261.55
294.55	1253.36
294.76	1333.23
294.97	1249.26
295.19	1273.84
295.40	1275.88
295.62	1271.79
295.83	1267.69
296.05	1290.22
296.26	1347.56
296.48	1214.45
296.69	1230.83
296.90	1239.02
297.12	1224.69
297.33	1282.03
297.55	1220.59
297.76	1345.52
297.98	1243.12
298.19	1292.27
298.41	1218.54
298.62	1255.40
298.83	1316.84
299.05	1267.69
299.26	1226.73
299.48	1298.41
299.69	1286.12
299.90	1259.50
300.12	1171.44
300.33	1284.08
300.55	1286.12
300.76	1255.40
300.98	1259.50
301.19	1316.84
301.40	1341.42
301.62	1239.02
301.83	1257.45
302.05	1306.60
302.26	1191.92
302.47	1273.84
302.69	1296.36
302.90	1292.27
303.12	1249.26
303.33	1206.25
303.54	1263.60
303.76	1228.78
303.97	1236.97
304.19	1271.79
304.40	1288.17
304.61	1257.45
304.83	1361.90
305.04	1216.49
305.26	1228.78
305.47	1310.70
305.68	1251.31
305.90	1239.02
306.11	1284.08
306.33	1290.22
306.54	1304.56
306.75	1267.69
306.97	1290.22
307.18	1226.73
307.39	1230.83
307.61	1316.84
307.82	1290.22
308.04	1212.40
308.25	1294.32
308.46	1232.88
308.68	1187.82
308.89	1269.74
309.10	1269.74
309.32	1300.46
309.53	1304.56
309.74	1296.36
309.96	1265.64
310.17	1273.84
310.39	1279.98
310.60	1228.78
310.81	1261.55
311.03	1314.80
311.24	1247.21
311.45	1314.80
311.67	1179.63
311.88	1290.22
312.09	1228.78
312.31	1357.80
312.52	1269.74
312.73	1282.03
312.95	1296.36
313.16	1347.56
313.37	1230.83
313.59	1308.65
313.80	1245.16
314.01	1320.94
314.23	1187.82
314.44	1269.74
314.65	1279.98
314.87	1253.36
315.08	1267.69
315.29	1279.98
315.51	1222.64
315.72	1345.52
315.93	1279.98
316.15	1294.32
316.36	1331.18
316.57	1228.78
316.79	1288.17
317.00	1296.36
317.21	1234.93
317.43	1224.69
317.64	1249.26
317.85	1249.26
318.07	1271.79
318.28	1290.22
318.49	1296.36
318.70	1277.93
318.92	1290.22
319.13	1230.83
319.34	1251.31
319.56	1308.65
319.77	1273.84
319.98	1234.93
320.20	1165.29
320.41	1222.64
320.62	1302.51
320.83	1259.50
321.05	1306.60
321.26	1253.36
321.47	1206.25
321.69	1222.64
321.90	1169.39
322.11	1202.16
322.32	1284.08
322.54	1306.60
322.75	1304.56
322.96	1257.45
323.18	1224.69
323.39	1322.99
323.60	1298.41
323.81	1255.40
324.03	1308.65
324.24	1196.01
324.45	1267.69
324.66	1253.36
324.88	1277.93
325.09	1271.79
325.30	1347.56
325.52	1304.56
325.73	1206.25
325.94	1288.17
326.15	1261.55
326.37	1167.34
326.58	1267.69
326.79	1269.74
327.00	1273.84
327.22	1302.51
327.43	1271.79
327.64	1284.08
327.85	1263.60
328.07	1204.21
328.28	1259.50
328.49	1286.12
328.70	1263.60
328.92	1245.16
329.13	1322.99
329.34	1343.47
329.55	1263.60
329.76	1253.36
329.98	1247.21
330.19	1259.50
330.40	1296.36
330.61	1265.64
330.83	1298.41
331.04	1286.12
331.25	1265.64
331.46	1257.45
331.68	1277.93
331.89	1300.46
332.10	1239.02
332.31	1292.27
332.52	1322.99
332.74	1224.69
332.95	1273.84
333.16	1302.51
333.37	1312.75
333.58	1255.40
333.80	1247.21
334.01	1228.78
334.22	1247.21
334.43	1204.21
334.64	1212.40
334.86	1269.74
335.07	1290.22
335.28	1288.17
335.49	1282.03
335.70	1259.50
335.92	1249.26
336.13	1320.94
336.34	1302.51
336.55	1255.40
336.76	1212.40
336.98	1288.17
337.19	1277.93
337.40	1200.11
337.61	1273.84
337.82	1331.18
338.04	1314.80
338.25	1249.26
338.46	1241.07
338.67	1208.30
338.88	1247.21
339.09	1320.94
339.31	1312.75
339.52	1230.83
339.73	1236.97
339.94	1310.70
340.15	1245.16
340.36	1292.27
340.58	1224.69
340.79	1296.36
341.00	1316.84
341.21	1294.32
341.42	1288.17
341.63	1302.51
341.85	1210.35
342.06	1302.51
342.27	1271.79
342.48	1288.17
342.69	1288.17
342.90	1269.74
343.12	1218.54
343.33	1204.21
343.54	1341.42
343.75	1271.79
343.96	1208.30
344.17	1267.69
344.38	1302.51
344.60	1249.26
344.81	1327.08
345.02	1284.08
345.23	1288.17
345.44	1316.84
345.65	1314.80
345.86	1245.16
346.07	1200.11
346.29	1222.64
346.50	1314.80
346.71	1269.74
346.92	1300.46
347.13	1277.93
347.34	1210.35
347.55	1230.83
347.76	1282.03
347.98	1320.94
348.19	1265.64
348.40	1341.42
348.61	1224.69
348.82	1212.40
349.03	1347.56
349.24	1275.88
349.45	1335.28
349.66	1255.40
349.88	1282.03
350.09	1290.22
350.30	1269.74
350.51	1294.32
350.72	1318.89
350.93	1179.63
351.14	1273.84
351.35	1273.84
351.56	1241.07
351.77	1212.40
351.99	1210.35
352.20	1251.31
352.41	1220.59
352.62	1304.56
352.83	1304.56
353.04	1275.88
353.25	1251.31
353.46	1196.01
353.67	1271.79
353.88	1265.64
354.09	1261.55
354.30	1312.75
354.52	1230.83
354.73	1257.45
354.94	1267.69
355.15	1249.26
355.36	1257.45
355.57	1320.94
355.78	1286.12
355.99	1306.60
356.20	1261.55
356.41	1253.36
356.62	1275.88
356.83	1267.69
357.04	1290.22
357.25	1302.51
357.46	1261.55
357.68	1247.21
357.89	1218.54
358.10	1232.88
358.31	1271.79
358.52	1337.32
358.73	1253.36
358.94	1214.45
359.15	1234.93
359.36	1294.32
359.57	1298.41
359.78	1337.32
359.99	1247.21
360.20	1267.69
360.41	1322.99
360.62	1282.03
360.83	1234.93
361.04	1228.78
361.25	1308.65
361.46	1288.17
361.67	1273.84
361.88	1257.45
362.09	1245.16
362.30	1279.98
362.51	1202.16
362.72	1241.07
362.93	1224.69
363.14	1312.75
363.35	1236.97
363.56	1253.36
363.78	1267.69
363.99	1333.23
364.20	1257.45
364.41	1275.88
364.62	1327.08
364.83	1290.22
365.04	1257.45
365.25	1200.11
365.46	1271.79
365.67	1290.22
365.88	1261.55
366.09	1236.97
366.30	1267.69
366.51	1275.88
366.72	1290.22
366.93	1230.83
367.14	1302.51
367.35	1277.93
367.56	1261.55
367.77	1279.98
367.98	1226.73
368.18	1265.64
368.39	1308.65
368.60	1263.60
368.81	1271.79
369.02	1234.93
369.23	1279.98
369.44	1245.16
369.65	1210.35
369.86	1310.70
370.07	1292.27
370.28	1236.97
370.49	1216.49
370.70	1296.36
370.91	1230.83
371.12	1263.60
371.33	1228.78
371.54	1226.73
371.75	1200.11
371.96	1228.78
372.17	1310.70
372.38	1263.60
372.59	1302.51
372.80	1208.30
373.01	1271.79
373.22	1318.89
373.43	1337.32
373.64	1331.18
373.85	1277.93
374.06	1243.12
374.26	1247.21
374.47	1335.28
374.68	1290.22
374.89	1228.78
375.10	1230.83
375.31	1245.16
375.52	1312.75
375.73	1290.22
375.94	1265.64
376.15	1232.88
376.36	1265.64
376.57	1325.04
376.78	1175.53
376.99	1318.89
377.20	1185.77
377.40	1214.45
377.61	1312.75
377.82	1290.22
378.03	1277.93
378.24	1335.28
378.45	1322.99
378.66	1232.88
378.87	1224.69
379.08	1288.17
379.29	1273.84
379.50	1226.73
379.71	1294.32
379.91	1284.08
380.12	1271.79
380.33	1306.60
380.54	1327.08
380.75	1232.88
380.96	1277.93
381.17	1294.32
381.38	1296.36
381.59	1255.40
381.80	1226.73
382.00	1265.64
382.21	1232.88
382.42	1333.23
382.63	1228.78
382.84	1306.60
383.05	1284.08
383.26	1265.64
383.47	1243.12
383.68	1265.64
383.88	1224.69
384.09	1284.08
384.30	1253.36
384.51	1249.26
384.72	1259.50
384.93	1267.69
385.14	1255.40
385.35	1306.60
385.55	1273.84
385.76	1304.56
385.97	1193.97
386.18	1300.46
386.39	1267.69
386.60	1286.12
386.81	1261.55
387.02	1273.84
387.22	1257.45
387.43	1318.89
387.64	1224.69
387.85	1300.46
388.06	1243.12
388.27	1279.98
388.48	1232.88
388.68	1312.75
388.89	1253.36
389.10	1236.97
389.31	1269.74
389.52	1243.12
389.73	1161.20
389.93	1296.36
390.14	1279.98
390.35	1253.36
390.56	1292.27
390.77	1255.40
390.98	1300.46
391.18	1214.45
391.39	1216.49
391.60	1263.60
391.81	1261.55
392.02	1228.78
392.23	1228.78
392.43	1290.22
392.64	1265.64
392.85	1316.84
393.06	1214.45
393.27	1202.16
393.47	1255.40
393.68	1306.60
393.89	1189.87
394.10	1247.21
394.31	1222.64
394.52	1247.21
394.72	1265.64
394.93	1263.60
395.14	1257.45
395.35	1331.18
395.56	1257.45
395.76	1296.36
395.97	1304.56
396.18	1241.07
396.39	1236.97
396.60	1251.31
396.80	1298.41
397.01	1282.03
397.22	1341.42
397.43	1226.73
397.64	1308.65
397.84	1249.26
398.05	1253.36
398.26	1206.25
398.47	1263.60
398.67	1288.17
398.88	1232.88
399.09	1267.69
399.30	1267.69
399.51	1249.26
399.71	1224.69
399.92	1282.03
400.13	1269.74
400.34	1210.35
400.54	1226.73
400.75	1277.93
400.96	1269.74
401.17	1255.40
401.37	1306.60
401.58	1222.64
401.79	1267.69
402.00	1273.84
402.21	1241.07
402.41	1218.54
402.62	1247.21
402.83	1263.60
403.04	1318.89
403.24	1294.32
403.45	1290.22
403.66	1273.84
403.87	1200.11
404.07	1286.12
404.28	1239.02
404.49	1306.60
404.70	1253.36
404.90	1275.88
405.11	1247.21
405.32	1222.64
405.52	1277.93
405.73	1312.75
405.94	1337.32
406.15	1331.18
406.35	1243.12
406.56	1222.64
406.77	1282.03
406.98	1228.78
407.18	1255.40
407.39	1302.51
407.60	1214.45
407.80	1228.78
408.01	1216.49
408.22	1267.69
408.43	1325.04
408.63	1314.80
408.84	1316.84
409.05	1267.69
409.25	1245.16
409.46	1314.80
409.67	1239.02
409.88	1306.60
410.08	1216.49
410.29	1263.60
410.50	1300.46
410.70	1374.19
410.91	1191.92
411.12	1245.16
411.32	1251.31
411.53	1255.40
411.74	1302.51
411.95	1222.64
412.15	1183.73
412.36	1257.45
412.57	1249.26
412.77	1251.31
412.98	1263.60
413.19	1322.99
413.39	1273.84
413.60	1263.60
413.81	1277.93
414.01	1304.56
414.22	1208.30
414.43	1265.64
414.63	1208.30
414.84	1255.40
415.05	1288.17
415.25	1259.50
415.46	1255.40
415.67	1255.40
415.87	1339.37
416.08	1232.88
416.29	1306.60
416.49	1251.31
416.70	1277.93
416.91	1222.64
417.11	1245.16
417.32	1257.45
417.53	1210.35
417.73	1271.79
417.94	1300.46
418.15	1279.98
418.35	1220.59
418.56	1288.17
418.77	1226.73
418.97	1300.46
419.18	1251.31
419.38	1294.32
419.59	1306.60
419.80	1259.50
420.00	1253.36
420.21	1265.64
420.42	1241.07
420.62	1345.52
420.83	1284.08
421.04	1304.56
421.24	1255.40
421.45	1228.78
421.65	1298.41
421.86	1267.69
422.07	1245.16
422.27	1279.98
422.48	1271.79
422.69	1273.84
422.89	1181.68
423.10	1241.07
423.30	1236.97
423.51	1255.40
423.72	1253.36
423.92	1243.12
424.13	1269.74
424.33	1228.78
424.54	1259.50
424.75	1241.07
424.95	1286.12
425.16	1310.70
425.36	1257.45
425.57	1316.84
425.78	1245.16
425.98	1273.84
426.19	1241.07
426.39	1312.75
426.60	1196.01
426.81	1292.27
427.01	1245.16
427.22	1263.60
427.42	1234.93
427.63	1282.03
427.83	1165.29
428.04	1269.74
428.25	1214.45
428.45	1286.12
428.66	1253.36
428.86	1249.26
429.07	1253.36
429.28	1292.27
429.48	1245.16
429.69	1220.59
429.89	1214.45
430.10	1187.82
430.30	1335.28
430.51	1269.74
430.71	1263.60
430.92	1279.98
431.13	1384.43
431.33	1286.12
431.54	1255.40
431.74	1279.98
431.95	1265.64
432.15	1261.55
432.36	1196.01
432.56	1290.22
432.77	1228.78
432.98	1232.88
433.18	1286.12
433.39	1339.37
433.59	1198.06
433.80	1251.31
434.00	1300.46
434.21	1325.04
434.41	1226.73
434.62	1271.79
434.82	1230.83
435.03	1255.40
435.23	1239.02
435.44	1220.59
435.64	1239.02
435.85	1327.08
436.06	1257.45
436.26	1269.74
436.47	1341.42
436.67	1290.22
436.88	1212.40
437.08	1222.64
437.29	1314.80
437.49	1243.12
437.70	1331.18
437.90	1306.60
438.11	1329.13
438.31	1234.93
438.52	1333.23
438.72	1259.50
438.93	1228.78
439.13	1247.21
439.34	1245.16
439.54	1253.36
439.75	1294.32
439.95	1259.50
440.16	1267.69
440.36	1296.36
440.57	1265.64
440.77	1279.98
440.98	1308.65
441.18	1312.75
441.39	1314.80
441.59	1361.90
441.80	1275.88
442.00	1259.50
442.21	1265.64
442.41	1261.55
442.62	1304.56
442.82	1331.18
443.02	1345.52
443.23	1318.89
443.43	1265.64
443.64	1300.46
443.84	1318.89
444.05	1310.70
444.25	1226.73
444.46	1228.78
444.66	1294.32
444.87	1263.60
445.07	1216.49
445.28	1269.74
445.48	1261.55
445.69	1286.12
445.89	1284.08
446.09	1261.55
446.30	1263.60
446.50	1255.40
446.71	1232.88
446.91	1187.82
447.12	1265.64
447.32	1316.84
447.53	1222.64
447.73	1302.51
447.93	1320.94
448.14	1267.69
448.34	1312.75
448.55	1304.56
448.75	1218.54
448.96	1366.00
449.16	1232.88
449.36	1267.69
449.57	1314.80
449.77	1193.97
449.98	1279.98
450.18	1249.26
450.39	1298.41
450.59	1273.84
450.79	1218.54
451.00	1275.88
451.20	1263.60
451.41	1198.06
451.61	1249.26
451.81	1320.94
452.02	1249.26
452.22	1247.21
452.43	1294.32
452.63	1273.84
452.84	1261.55
453.04	1329.13
453.24	1292.27
453.45	1302.51
453.65	1206.25
453.86	1243.12
454.06	1284.08
454.26	1239.02
454.47	1183.73
454.67	1298.41
454.87	1290.22
455.08	1257.45
455.28	1245.16
455.49	1216.49
455.69	1224.69
455.89	1318.89
456.10	1286.12
456.30	1329.13
456.51	1284.08
456.71	1284.08
456.91	1310.70
457.12	1265.64
457.32	1277.93
457.52	1232.88
457.73	1306.60
457.93	1292.27
458.14	1247.21
458.34	1249.26
458.54	1255.40
458.75	1259.50
458.95	1304.56
459.15	1263.60
459.36	1236.97
459.56	1296.36
459.76	1290.22
459.97	1263.60
460.17	1290.22
460.37	1314.80
460.58	1232.88
460.78	1292.27
460.99	1259.50
461.19	1300.46
461.39	1286.12
461.60	1243.12
461.80	1300.46
462.00	1333.23
462.21	1335.28
462.41	1243.12
462.61	1269.74
462.82	1271.79
463.02	1302.51
463.22	1279.98
463.43	1294.32
463.63	1282.03
463.83	1310.70
464.04	1320.94
464.24	1302.51
464.44	1345.52
464.64	1257.45
464.85	1212.40
465.05	1241.07
465.25	1282.03
465.46	1282.03
465.66	1284.08
465.86	1163.25
466.07	1269.74
466.27	1255.40
466.47	1310.70
466.68	1310.70
466.88	1314.80
467.08	1228.78
467.29	1331.18
467.49	1300.46
467.69	1228.78
467.89	1308.65
468.10	1306.60
468.30	1222.64
468.50	1271.79
468.71	1366.00
468.91	1298.41
469.11	1318.89
469.31	1298.41
469.52	1318.89
469.72	1249.26
469.92	1189.87
470.13	1271.79
470.33	1193.97
470.53	1234.93
470.73	1220.59
470.94	1218.54
471.14	1200.11
471.34	1304.56
471.54	1228.78
471.75	1216.49
471.95	1290.22
472.15	1306.60
472.36	1273.84
472.56	1298.41
472.76	1271.79
472.96	1341.42
473.17	1325.04
473.37	1286.12
473.57	1259.50
473.77	1230.83
473.98	1253.36
474.18	1320.94
474.38	1288.17
474.58	1210.35
474.79	1230.83
474.99	1316.84
475.19	1298.41
475.39	1261.55
475.60	1228.78
475.80	1290.22
476.00	1257.45
476.20	1245.16
476.41	1232.88
476.61	1253.36
476.81	1300.46
477.01	1304.56
477.21	1322.99
477.42	1273.84
477.62	1169.39
477.82	1245.16
478.02	1181.68
478.23	1327.08
478.43	1292.27
478.63	1300.46
478.83	1304.56
479.03	1220.59
479.24	1308.65
479.44	1318.89
479.64	1271.79
479.84	1263.60
480.04	1298.41
480.25	1200.11
480.45	1261.55
480.65	1253.36
480.85	1341.42
481.06	1296.36
481.26	1220.59
481.46	1298.41
481.66	1275.88
481.86	1198.06
482.06	1320.94
482.27	1275.88
482.47	1279.98
482.67	1257.45
482.87	1210.35
483.07	1232.88
483.28	1284.08
483.48	1284.08
483.68	1302.51
483.88	1288.17
484.08	1314.80
484.29	1259.50
484.49	1234.93
484.69	1308.65
484.89	1206.25
485.09	1247.21
485.29	1308.65
485.50	1322.99
485.70	1232.88
485.90	1236.97
486.10	1263.60
486.30	1275.88
486.50	1327.08
486.71	1251.31
486.91	1257.45
487.11	1267.69
487.31	1304.56
487.51	1292.27
487.71	1220.59
487.91	1253.36
488.12	1325.04
488.32	1300.46
488.52	1236.97
488.72	1304.56
488.92	1277.93
489.12	1279.98
489.32	1325.04
489.53	1234.93
489.73	1290.22
489.93	1361.90
490.13	1253.36
490.33	1220.59
490.53	1320.94
490.73	1255.40
490.94	1286.12
491.14	1206.25
491.34	1253.36
491.54	1322.99
491.74	1275.88
491.94	1243.12
492.14	1220.59
492.34	1286.12
492.54	1183.73
492.75	1298.41
492.95	1329.13
493.15	1312.75
493.35	1298.41
493.55	1310.70
493.75	1253.36
493.95	1216.49
494.15	1284.08
494.35	1263.60
494.56	1220.59
494.76	1253.36
494.96	1294.32
495.16	1314.80
495.36	1327.08
495.56	1284.08
495.76	1259.50
495.96	1273.84
496.16	1255.40
496.36	1271.79
496.56	1239.02
496.77	1271.79
496.97	1234.93
497.17	1239.02
497.37	1290.22
497.57	1290.22
497.77	1255.40
497.97	1279.98
498.17	1236.97
498.37	1212.40
498.57	1284.08
498.77	1310.70
498.97	1263.60
499.17	1267.69
499.38	1265.64
499.58	1282.03
499.78	1308.65
499.98	1306.60
500.18	1232.88
500.38	1261.55
500.58	1261.55
500.78	1241.07
500.98	1243.12
501.18	1239.02
501.38	1296.36
501.58	1286.12
501.78	1204.21
501.98	1279.98
502.18	1290.22
502.38	1327.08
502.58	1335.28
502.78	1228.78
502.98	1249.26
503.18	1284.08
503.38	1335.28
503.59	1318.89
503.79	1249.26
503.99	1239.02
504.19	1257.45
504.39	1312.75
504.59	1325.04
504.79	1255.40
504.99	1298.41
505.19	1312.75
505.39	1267.69
505.59	1302.51
505.79	1265.64
505.99	1247.21
506.19	1273.84
506.39	1290.22
506.59	1189.87
506.79	1292.27
506.99	1318.89
507.19	1191.92
507.39	1204.21
507.59	1271.79
507.79	1331.18
507.99	1312.75
508.19	1306.60
508.39	1228.78
508.59	1290.22
508.79	1286.12
508.99	1275.88
509.19	1243.12
509.39	1273.84
509.59	1351.66
509.79	1284.08
509.99	1368.04
510.19	1306.60
510.39	1292.27
510.59	1265.64
510.79	1368.04
510.99	1216.49
511.19	1253.36
511.39	1183.73
511.59	1327.08
511.79	1355.76
511.99	1263.60
512.19	1220.59
512.38	1314.80
512.58	1318.89
512.78	1308.65
512.98	1265.64
513.18	1222.64
513.38	1251.31
513.58	1212.40
513.78	1236.97
513.98	1290.22
514.18	1239.02
514.38	1277.93
514.58	1275.88
514.78	1222.64
514.98	1251.31
515.18	1300.46
515.38	1216.49
515.58	1279.98
515.78	1257.45
515.98	1249.26
516.18	1290.22
516.38	1247.21
516.57	1314.80
516.77	1329.13
516.97	1284.08
517.17	1314.80
517.37	1200.11
517.57	1226.73
517.77	1257.45
517.97	1259.50
518.17	1273.84
518.37	1204.21
518.57	1314.80
518.77	1314.80
518.97	1275.88
519.16	1286.12
519.36	1255.40
519.56	1318.89
519.76	1312.75
519.96	1269.74
520.16	1339.37
520.36	1279.98
520.56	1279.98
520.76	1265.64
520.96	1253.36
521.16	1265.64
521.35	1245.16
521.55	1277.93
521.75	1288.17
521.95	1279.98
522.15	1304.56
522.35	1273.84
522.55	1239.02
522.75	1290.22
522.95	1267.69
523.14	1273.84
523.34	1267.69
523.54	1239.02
523.74	1206.25
523.94	1304.56
524.14	1239.02
524.34	1308.65
524.54	1296.36
524.73	1292.27
524.93	1279.98
525.13	1263.60
525.33	1245.16
525.53	1265.64
525.73	1325.04
525.93	1267.69
526.13	1314.80
526.32	1279.98
526.52	1400.81
526.72	1284.08
526.92	1265.64
527.12	1282.03
527.32	1253.36
527.52	1239.02
527.71	1245.16
527.91	1312.75
528.11	1257.45
528.31	1314.80
528.51	1214.45
528.71	1265.64
528.90	1263.60
529.10	1339.37
529.30	1304.56
529.50	1335.28
529.70	1310.70
529.90	1273.84
530.09	1298.41
530.29	1251.31
530.49	1234.93
530.69	1284.08
530.89	1271.79
531.09	1318.89
531.28	1318.89
531.48	1226.73
531.68	1241.07
531.88	1222.64
532.08	1208.30
532.28	1249.26
532.47	1304.56
532.67	1335.28
532.87	1290.22
533.07	1339.37
533.27	1286.12
533.46	1259.50
533.66	1253.36
533.86	1206.25
534.06	1259.50
534.26	1288.17
534.45	1253.36
534.65	1247.21
534.85	1335.28
535.05	1273.84
535.25	1284.08
535.44	1245.16
535.64	1292.27
535.84	1316.84
536.04	1277.93
536.24	1214.45
536.43	1245.16
536.63	1279.98
536.83	1372.14
537.03	1327.08
537.22	1210.35
537.42	1267.69
537.62	1298.41
537.82	1269.74
538.02	1308.65
538.21	1255.40
538.41	1273.84
538.61	1275.88
538.81	1267.69
539.00	1284.08
539.20	1331.18
539.40	1214.45
539.60	1243.12
539.79	1279.98
539.99	1296.36
540.19	1230.83
540.39	1284.08
540.58	1298.41
540.78	1296.36
540.98	1333.23
541.18	1316.84
541.37	1312.75
541.57	1191.92
541.77	1316.84
541.97	1267.69
542.16	1208.30
542.36	1247.21
542.56	1294.32
542.76	1239.02
542.95	1290.22
543.15	1259.50
543.35	1302.51
543.54	1302.51
543.74	1265.64
543.94	1355.76
544.14	1279.98
544.33	1347.56
544.53	1292.27
544.73	1282.03
544.93	1222.64
545.12	1327.08
545.32	1275.88
545.52	1259.50
545.71	1292.27
545.91	1269.74
546.11	1273.84
546.30	1277.93
546.50	1259.50
546.70	1212.40
546.90	1222.64
547.09	1220.59
547.29	1333.23
547.49	1239.02
547.68	1300.46
547.88	1247.21
548.08	1331.18
548.27	1333.23
548.47	1310.70
548.67	1265.64
548.87	1267.69
549.06	1271.79
549.26	1282.03
549.46	1353.71
549.65	1239.02
549.85	1226.73
550.05	1339.37
550.24	1284.08
550.44	1251.31
550.64	1218.54
550.83	1282.03
551.03	1261.55
551.23	1226.73
551.42	1298.41
551.62	1189.87
551.82	1234.93
552.01	1304.56
552.21	1257.45
552.41	1314.80
552.60	1255.40
552.80	1304.56
553.00	1304.56
553.19	1261.55
553.39	1320.94
553.59	1325.04
553.78	1196.01
553.98	1259.50
554.17	1232.88
554.37	1243.12
554.57	1298.41
554.76	1304.56
554.96	1310.70
555.16	1271.79
555.35	1263.60
555.55	1279.98
555.75	1253.36
555.94	1267.69
556.14	1333.23
556.33	1282.03
556.53	1273.84
556.73	1304.56
556.92	1243.12
557.12	1232.88
557.32	1312.75
557.51	1290.22
557.71	1396.71
557.90	1267.69
558.10	1257.45
558.30	1296.36
558.49	1286.12
558.69	1222.64
558.88	1239.02
559.08	1239.02
559.28	1294.32
559.47	1277.93
559.67	1269.74
559.86	1230.83
560.06	1304.56
560.26	1284.08
560.45	1325.04
560.65	1271.79
560.84	1257.45
561.04	1245.16
561.24	1277.93
561.43	1318.89
561.63	1275.88
561.82	1279.98
562.02	1259.50
562.22	1241.07
562.41	1212.40
562.61	1257.45
562.80	1306.60
563.00	1271.79
563.19	1269.74
563.39	1339.37
563.59	1312.75
563.78	1337.32
563.98	1261.55
564.17	1327.08
564.37	1273.84
564.56	1296.36
564.76	1284.08
564.96	1286.12
565.15	1331.18
565.35	1322.99
565.54	1339.37
565.74	1288.17
565.93	1292.27
566.13	1398.76
566.32	1290.22
566.52	1241.07
566.71	1325.04
566.91	1308.65
567.11	1224.69
567.30	1300.46
567.50	1310.70
567.69	1251.31
567.89	1302.51
568.08	1265.64
568.28	1236.97
568.47	1327.08
568.67	1269.74
568.86	1366.00
569.06	1249.26
569.25	1316.84
569.45	1347.56
569.64	1331.18
569.84	1216.49
570.04	1267.69
570.23	1333.23
570.43	1318.89
570.62	1306.60
570.82	1298.41
571.01	1355.76
571.21	1265.64
571.40	1312.75
571.60	1198.06
571.79	1292.27
571.99	1273.84
572.18	1284.08
572.38	1298.41
572.57	1302.51
572.77	1232.88
572.96	1239.02
573.16	1353.71
573.35	1282.03
573.55	1333.23
573.74	1277.93
573.94	1343.47
574.13	1253.36
574.33	1241.07
574.52	1294.32
574.71	1261.55
574.91	1275.88
575.10	1322.99
575.30	1288.17
575.49	1300.46
575.69	1294.32
575.88	1411.05
576.08	1282.03
576.27	1230.83
576.47	1288.17
576.66	1314.80
576.86	1275.88
577.05	1275.88
577.25	1269.74
577.44	1331.18
577.64	1257.45
577.83	1282.03
578.02	1245.16
578.22	1359.85
578.41	1255.40
578.61	1214.45
578.80	1294.32
579.00	1304.56
579.19	1282.03
579.39	1269.74
579.58	1271.79
579.77	1241.07
579.97	1247.21
580.16	1288.17
580.36	1308.65
580.55	1351.66
580.75	1302.51
580.94	1279.98
581.13	1236.97
581.33	1263.60
581.52	1296.36
581.72	1294.32
581.91	1273.84
582.11	1267.69
582.30	1284.08
582.49	1320.94
582.69	1322.99
582.88	1302.51
583.08	1234.93
583.27	1310.70
583.47	1296.36
583.66	1234.93
583.85	1247.21
584.05	1228.78
584.24	1241.07
584.44	1339.37
584.63	1318.89
584.82	1306.60
585.02	1265.64
585.21	1216.49
585.41	1298.41
585.60	1228.78
585.79	1288.17
585.99	1191.92
586.18	1329.13
586.37	1349.61
586.57	1212.40
586.76	1267.69
586.96	1251.31
587.15	1191.92
587.34	1282.03
587.54	1288.17
587.73	1261.55
587.93	1269.74
588.12	1282.03
588.31	1208.30
588.51	1236.97
588.70	1243.12
588.89	1247.21
589.09	1335.28
589.28	1273.84
589.47	1300.46
589.67	1327.08
589.86	1380.33
590.06	1212.40
590.25	1370.09
590.44	1269.74
590.64	1322.99
590.83	1304.56
591.02	1236.97
591.22	1302.51
591.41	1327.08
591.60	1200.11
591.80	1273.84
591.99	1243.12
592.18	1351.66
592.38	1249.26
592.57	1325.04
592.76	1351.66
592.96	1331.18
593.15	1300.46
593.34	1327.08
593.54	1304.56
593.73	1271.79
593.92	1300.46
594.12	1314.80
594.31	1300.46
594.50	1257.45
594.70	1294.32
594.89	1318.89
595.08	1234.93
595.28	1320.94
595.47	1243.12
595.66	1153.01
595.86	1273.84
596.05	1251.31
596.24	1277.93
596.43	1363.95
596.63	1308.65
596.82	1306.60
597.01	1310.70
597.21	1241.07
597.40	1230.83
597.59	1316.84
597.79	1261.55
597.98	1257.45
598.17	1294.32
598.36	1249.26
598.56	1314.80
598.75	1361.90
598.94	1294.32
599.14	1271.79
599.33	1286.12
599.52	1316.84
599.71	1345.52
599.91	1245.16
600.10	1210.35
600.29	1269.74
600.48	1314.80
600.68	1341.42
600.87	1255.40
601.06	1284.08
601.26	1316.84
601.45	1275.88
601.64	1279.98
601.83	1290.22
602.03	1292.27
602.22	1214.45
602.41	1267.69
602.60	1239.02
602.80	1257.45
602.99	1296.36
603.18	1284.08
603.37	1325.04
603.57	1279.98
603.76	1263.60
603.95	1314.80
604.14	1169.39
604.34	1257.45
604.53	1372.14
604.72	1296.36
604.91	1282.03
605.10	1273.84
605.30	1359.85
605.49	1259.50
605.68	1267.69
605.87	1261.55
606.07	1265.64
606.26	1263.60
606.45	1300.46
606.64	1277.93
606.84	1261.55
607.03	1249.26
607.22	1302.51
607.41	1251.31
607.60	1411.05
607.80	1259.50
607.99	1273.84
608.18	1282.03
608.37	1300.46
608.56	1214.45
608.76	1232.88
608.95	1206.25
609.14	1304.56
609.33	1292.27
609.52	1316.84
609.72	1300.46
609.91	1335.28
610.10	1286.12
610.29	1243.12
610.48	1343.47
610.68	1302.51
610.87	1232.88
611.06	1257.45
611.25	1251.31
611.44	1306.60
611.63	1343.47
611.83	1290.22
612.02	1267.69
612.21	1318.89
612.40	1314.80
612.59	1277.93
612.79	1290.22
612.98	1273.84
613.17	1329.13
613.36	1306.60
613.55	1259.50
613.74	1290.22
613.93	1286.12
614.13	1218.54
614.32	1232.88
614.51	1288.17
614.70	1275.88
614.89	1247.21
615.08	1212.40
615.28	1339.37
615.47	1284.08
615.66	1331.18
615.85	1269.74
616.04	1329.13
616.23	1222.64
616.42	1255.40
616.62	1308.65
616.81	1316.84
617.00	1222.64
617.19	1288.17
617.38	1290.22
617.57	1312.75
617.76	1284.08
617.95	1286.12
618.15	1251.31
618.34	1294.32
618.53	1226.73
618.72	1318.89
618.91	1296.36
619.10	1335.28
619.29	1347.56
619.48	1357.80
619.68	1325.04
619.87	1294.32
620.06	1234.93
620.25	1327.08
620.44	1277.93
620.63	1288.17
620.82	1277.93
621.01	1273.84
621.20	1255.40
621.39	1175.53
621.59	1296.36
621.78	1312.75
621.97	1216.49
622.16	1273.84
622.35	1279.98
622.54	1292.27
622.73	1284.08
622.92	1265.64
623.11	1310.70
623.30	1302.51
623.49	1286.12
623.68	1300.46
623.88	1290.22
624.07	1202.16
624.26	1286.12
624.45	1275.88
624.64	1239.02
624.83	1341.42
625.02	1273.84
625.21	1306.60
625.40	1241.07
625.59	1310.70
625.78	1322.99
625.97	1306.60
626.16	1306.60
626.35	1357.80
626.54	1251.31
626.74	1290.22
626.93	1337.32
627.12	1300.46
627.31	1347.56
627.50	1296.36
627.69	1279.98
627.88	1351.66
628.07	1230.83
628.26	1271.79
628.45	1255.40
628.64	1267.69
628.83	1275.88
629.02	1304.56
629.21	1263.60
629.40	1306.60
629.59	1318.89
629.78	1318.89
629.97	1320.94
630.16	1277.93
630.35	1306.60
630.54	1296.36
630.73	1251.31
630.92	1282.03
631.11	1376.24
631.30	1423.34
631.49	1341.42
631.68	1443.82
631.87	1863.65
632.06	2684.89
632.25	2279.39
632.44	2486.23
632.63	2234.33
632.82	2506.71
633.01	3080.14
633.20	3506.12
633.39	5281.71
633.58	5437.36
633.77	6440.86
633.96	13379.38
634.15	28694.09
634.34	44346.72
634.53	47928.61
634.72	39876.00
634.91	27563.61
635.10	16951.04
635.29	9654.12
635.48	5679.02
635.67	3446.73
635.86	2260.96
636.05	1808.36
636.24	1535.98
636.43	1404.91
636.62	1363.95
636.81	1322.99
637.00	1310.70
637.19	1331.18
637.38	1279.98
637.57	1341.42
637.76	1325.04
637.95	1228.78
638.14	1263.60
638.33	1275.88
638.52	1337.32
638.71	1335.28
638.89	1255.40
639.08	1349.61
639.27	1302.51
639.46	1302.51
639.65	1370.09
639.84	1341.42
640.03	1290.22
640.22	1265.64
640.41	1374.19
640.60	1292.27
640.79	1318.89
640.98	1345.52
641.17	1239.02
641.36	1263.60
641.55	1312.75
641.74	1314.80
641.92	1271.79
642.11	1327.08
642.30	1206.25
642.49	1290.22
642.68	1263.60
642.87	1357.80
643.06	1239.02
643.25	1310.70
643.44	1339.37
643.63	1257.45
643.82	1339.37
644.00	1284.08
644.19	1290.22
644.38	1241.07
644.57	1325.04
644.76	1273.84
644.95	1306.60
645.14	1239.02
645.33	1345.52
645.52	1284.08
645.71	1298.41
645.89	1298.41
646.08	1271.79
646.27	1257.45
646.46	1327.08
646.65	1290.22
646.84	1333.23
647.03	1286.12
647.22	1312.75
647.40	1282.03
647.59	1218.54
647.78	1290.22
647.97	1331.18
648.16	1271.79
648.35	1292.27
648.54	1269.74
648.73	1290.22
648.91	1331.18
649.10	1255.40
649.29	1284.08
649.48	1347.56
649.67	1286.12
649.86	1312.75
650.05	1267.69
650.23	1265.64
650.42	1255.40
650.61	1196.01
650.80	1300.46
650.99	1263.60
651.18	1282.03
651.36	1339.37
651.55	1185.77
651.74	1282.03
651.93	1314.80
652.12	1349.61
652.31	1241.07
652.49	1263.60
652.68	1316.84
652.87	1296.36
653.06	1269.74
653.25	1282.03
653.44	1292.27
653.62	1269.74
653.81	1257.45
654.00	1224.69
654.19	1359.85
654.38	1320.94
654.56	1335.28
654.75	1318.89
654.94	1255.40
655.13	1241.07
655.32	1239.02
655.51	1259.50
655.69	1320.94
655.88	1353.71
656.07	1257.45
656.26	1284.08
656.45	1243.12
656.63	1241.07
656.82	1214.45
657.01	1337.32
657.20	1271.79
657.38	1292.27
657.57	1210.35
657.76	1269.74
657.95	1302.51
658.14	1175.53
658.32	1267.69
658.51	1275.88
658.70	1335.28
658.89	1220.59
659.08	1277.93
659.26	1298.41
659.45	1327.08
659.64	1261.55
659.83	1265.64
660.01	1277.93
660.20	1226.73
660.39	1353.71
660.58	1241.07
660.76	1335.28
660.95	1271.79
661.14	1347.56
661.33	1288.17
661.51	1306.60
661.70	1329.13
661.89	1279.98
662.08	1253.36
662.26	1234.93
662.45	1228.78
662.64	1265.64
662.83	1249.26
663.01	1310.70
663.20	1245.16
663.39	1351.66
663.58	1277.93
663.76	1279.98
663.95	1236.97
664.14	1368.04
664.32	1228.78
664.51	1220.59
664.70	1290.22
664.89	1271.79
665.07	1247.21
665.26	1245.16
665.45	1222.64
665.64	1331.18
665.82	1273.84
666.01	1230.83
666.20	1292.27
666.38	1243.12
666.57	1214.45
666.76	1251.31
666.95	1296.36
667.13	1310.70
667.32	1216.49
667.51	1282.03
667.69	1372.14
667.88	1314.80
668.07	1306.60
668.25	1292.27
668.44	1277.93
668.63	1351.66
668.81	1318.89
669.00	1259.50
669.19	1306.60
669.38	1239.02
669.56	1263.60
669.75	1325.04
669.94	1277.93
670.12	1273.84
670.31	1275.88
670.50	1257.45
670.68	1228.78
670.87	1259.50
671.06	1210.35
671.24	1335.28
671.43	1277.93
671.62	1255.40
671.80	1343.47
671.99	1325.04
672.18	1228.78
672.36	1363.95
672.55	1277.93
672.74	1200.11
672.92	1300.46
673.11	1247.21
673.29	1277.93
673.48	1271.79
673.67	1263.60
673.85	1263.60
674.04	1263.60
674.23	1224.69
674.41	1239.02
674.60	1294.32
674.79	1290.22
674.97	1310.70
675.16	1296.36
675.34	1279.98
675.53	1318.89
675.72	1218.54
675.90	1306.60
676.09	1239.02
676.28	1296.36
676.46	1337.32
676.65	1306.60
676.83	1282.03
677.02	1255.40
677.21	1304.56
677.39	1331.18
677.58	1220.59
677.77	1218.54
677.95	1239.02
678.14	1273.84
678.32	1187.82
678.51	1239.02
678.70	1347.56
678.88	1290.22
679.07	1275.88
679.25	1277.93
679.44	1212.40
679.63	1292.27
679.81	1325.04
680.00	1271.79
680.18	1302.51
680.37	1296.36
680.55	1300.46
680.74	1314.80
680.93	1265.64
681.11	1208.30
681.30	1216.49
681.48	1232.88
681.67	1214.45
681.85	1284.08
682.04	1216.49
682.23	1265.64
682.41	1351.66
682.60	1396.71
682.78	1247.21
682.97	1251.31
683.15	1279.98
683.34	1302.51
683.53	1273.84
683.71	1253.36
683.90	1257.45
684.08	1241.07
684.27	1271.79
684.45	1286.12
684.64	1286.12
684.82	1245.16
685.01	1304.56
685.19	1269.74
685.38	1351.66
685.57	1310.70
685.75	1345.52
685.94	1236.97
686.12	1249.26
686.31	1210.35
686.49	1232.88
686.68	1259.50
686.86	1273.84
687.05	1333.23
687.23	1214.45
687.42	1261.55
687.60	1314.80
687.79	1239.02
687.97	1314.80
688.16	1247.21
688.34	1275.88
688.53	1191.92
688.71	1306.60
688.90	1279.98
689.08	1212.40
689.27	1327.08
689.45	1216.49
689.64	1167.34
689.82	1228.78
690.01	1282.03
690.19	1263.60
690.38	1202.16
690.56	1294.32
690.75	1298.41
690.93	1288.17
691.12	1292.27
691.30	1333.23
691.49	1284.08
691.67	1226.73
691.86	1218.54
692.04	1243.12
692.23	1255.40
692.41	1275.88
692.60	1277.93
692.78	1302.51
692.97	1333.23
693.15	1269.74
693.34	1259.50
693.52	1239.02
693.71	1214.45
693.89	1286.12
694.08	1247.21
694.26	1253.36
694.44	1296.36
694.63	1286.12
694.81	1269.74
695.00	1275.88
695.18	1374.19
695.37	1366.00
695.55	1255.40
695.74	1234.93
695.92	1310.70
696.10	1269.74
696.29	1277.93
696.47	1204.21
696.66	1325.04
696.84	1331.18
697.03	1224.69
697.21	1263.60
697.40	1318.89
697.58	1306.60
697.76	1157.10
697.95	1247.21
698.13	1202.16
698.32	1277.93
698.50	1253.36
698.68	1206.25
698.87	1245.16
699.05	1261.55
699.24	1271.79
699.42	1200.11
699.61	1308.65
699.79	1230.83
699.97	1294.32
700.16	1273.84
700.34	1222.64
700.53	1263.60
700.71	1286.12
700.89	1271.79
701.08	1269.74
701.26	1306.60
701.45	1314.80
701.63	1265.64
701.81	1296.36
702.00	1138.67
702.18	1263.60
702.37	1230.83
702.55	1224.69
702.73	1335.28
702.92	1212.40
703.10	1277.93
703.28	1308.65
703.47	1284.08
703.65	1239.02
703.84	1314.80
704.02	1345.52
704.20	1265.64
704.39	1290.22
704.57	1286.12
704.75	1337.32
704.94	1279.98
705.12	1253.36
705.30	1241.07
705.49	1306.60
705.67	1224.69
705.86	1239.02
706.04	1355.76
706.22	1290.22
706.41	1333.23
706.59	1210.35
706.77	1296.36
706.96	1320.94
707.14	1269.74
707.32	1239.02
707.51	1290.22
707.69	1226.73
707.87	1306.60
708.06	1318.89
708.24	1247.21
708.42	1286.12
708.61	1333.23
708.79	1275.88
708.97	1216.49
709.16	1202.16
709.34	1279.98
709.52	1261.55
709.71	1241.07
709.89	1255.40
710.07	1255.40
710.26	1275.88
710.44	1316.84
710.62	1277.93
710.80	1284.08
710.99	1314.80
711.17	1232.88
711.35	1191.92
711.54	1234.93
711.72	1298.41
711.90	1298.41
712.09	1249.26
712.27	1277.93
712.45	1267.69
712.63	1241.07
712.82	1249.26
713.00	1253.36
713.18	1284.08
713.37	1273.84
713.55	1255.40
713.73	1277.93
713.91	1294.32
714.10	1251.31
714.28	1236.97
714.46	1331.18
714.65	1306.60
714.83	1320.94
715.01	1310.70
715.19	1273.84
715.38	1273.84
715.56	1359.85
715.74	1249.26
715.92	1232.88
716.11	1249.26
716.29	1257.45
716.47	1269.74
716.65	1286.12
716.84	1279.98
717.02	1224.69
717.20	1255.40
717.38	1275.88
717.57	1183.73
717.75	1312.75
717.93	1277.93
718.11	1273.84
718.30	1304.56
718.48	1322.99
718.66	1212.40
718.84	1331.18
719.03	1296.36
719.21	1230.83
719.39	1241.07
719.57	1245.16
719.75	1333.23
719.94	1247.21
720.12	1234.93
720.30	1239.02
720.48	1322.99
720.67	1282.03
720.85	1236.97
721.03	1232.88
721.21	1200.11
721.39	1232.88
721.58	1249.26
721.76	1265.64
721.94	1245.16
722.12	1249.26
722.30	1255.40
722.49	1181.68
722.67	1302.51
722.85	1232.88
723.03	1234.93
723.21	1318.89
723.40	1249.26
723.58	1253.36
723.76	1214.45
723.94	1249.26
724.12	1247.21
724.30	1325.04
724.49	1271.79
724.67	1302.51
724.85	1347.56
725.03	1255.40
725.21	1310.70
725.40	1255.40
725.58	1218.54
725.76	1273.84
725.94	1316.84
726.12	1304.56
726.30	1294.32
726.49	1284.08
726.67	1310.70
726.85	1320.94
727.03	1243.12
727.21	1241.07
727.39	1294.32
727.57	1220.59
727.76	1253.36
727.94	1239.02
728.12	1294.32
728.30	1265.64
728.48	1271.79
728.66	1259.50
728.84	1257.45
729.03	1306.60
729.21	1294.32
729.39	1316.84
729.57	1290.22
729.75	1267.69
729.93	1259.50
730.11	1193.97
730.30	1249.26
730.48	1263.60
730.66	1232.88
730.84	1322.99
731.02	1345.52
731.20	1263.60
731.38	1310.70
731.56	1185.77
731.74	1234.93
731.93	1196.01
732.11	1255.40
732.29	1277.93
732.47	1253.36
732.65	1200.11
732.83	1204.21
733.01	1339.37
733.19	1241.07
733.37	1296.36
733.56	1351.66
733.74	1236.97
733.92	1257.45
734.10	1232.88
734.28	1226.73
734.46	1277.93
734.64	1312.75
734.82	1314.80
735.00	1206.25
735.18	1265.64
735.36	1261.55
735.54	1290.22
735.73	1292.27
735.91	1308.65
736.09	1357.80
736.27	1226.73
736.45	1239.02
736.63	1292.27
736.81	1218.54
736.99	1159.15
737.17	1306.60
737.35	1292.27
737.53	1329.13
737.71	1253.36
737.89	1277.93
738.07	1294.32
738.25	1286.12
738.43	1298.41
738.61	1263.60
738.80	1232.88
738.98	1210.35
739.16	1290.22
739.34	1204.21
739.52	1249.26
739.70	1247.21
739.88	1273.84
740.06	1316.84
740.24	1282.03
740.42	1310.70
740.60	1257.45
740.78	1241.07
740.96	1279.98
741.14	1347.56
741.32	1277.93
741.50	1226.73
741.68	1282.03
741.86	1257.45
742.04	1271.79
742.22	1284.08
742.40	1267.69
742.58	1288.17
742.76	1249.26
742.94	1294.32
743.12	1288.17
743.30	1193.97
743.48	1273.84
743.66	1296.36
743.84	1325.04
744.02	1308.65
744.20	1228.78
744.38	1251.31
744.56	1263.60
744.74	1284.08
744.92	1247.21
745.10	1249.26
745.28	1265.64
745.46	1273.84
745.64	1218.54
745.82	1187.82
746.00	1271.79
746.18	1255.40
746.36	1245.16
746.54	1286.12
746.72	1261.55
746.90	1282.03
747.08	1204.21
747.26	1271.79
747.44	1302.51
747.62	1212.40
747.80	1279.98
747.98	1353.71
748.15	1220.59
748.33	1290.22
748.51	1265.64
748.69	1329.13
748.87	1339.37
749.05	1275.88
749.23	1290.22
749.41	1251.31
749.59	1251.31
749.77	1320.94
749.95	1320.94
750.13	1284.08
750.31	1339.37
750.49	1275.88
750.67	1212.40
750.85	1300.46
751.03	1273.84
751.20	1257.45
751.38	1312.75
751.56	1279.98
751.74	1208.30
751.92	1314.80
752.10	1306.60
752.28	1273.84
752.46	1200.11
752.64	1318.89
752.82	1273.84
753.00	1298.41
753.18	1255.40
753.35	1310.70
753.53	1245.16
753.71	1230.83
753.89	1181.68
754.07	1224.69
754.25	1263.60
754.43	1263.60
754.61	1345.52
754.79	1286.12
754.97	1167.34
755.14	1286.12
755.32	1224.69
755.50	1269.74
755.68	1314.80
755.86	1253.36
756.04	1249.26
756.22	1363.95
756.40	1345.52
756.57	1239.02
756.75	1228.78
756.93	1267.69
757.11	1230.83
757.29	1273.84
757.47	1286.12
757.65	1312.75
757.82	1269.74
758.00	1306.60
758.18	1255.40
758.36	1298.41
758.54	1265.64
758.72	1269.74
758.90	1314.80
759.07	1216.49
759.25	1257.45
759.43	1251.31
759.61	1247.21
759.79	1265.64
759.97	1265.64
760.15	1251.31
760.32	1185.77
760.50	1200.11
760.68	1243.12
760.86	1220.59
761.04	1267.69
761.22	1247.21
761.39	1236.97
761.57	1247.21
761.75	1257.45
761.93	1288.17
762.11	1275.88
762.28	1226.73
762.46	1284.08
762.64	1236.97
762.82	1282.03
763.00	1247.21
763.18	1310.70
763.35	1222.64
763.53	1292.27
763.71	1247.21
763.89	1273.84
764.07	1273.84
764.24	1275.88
764.42	1245.16
764.60	1290.22
764.78	1245.16
764.96	1234.93
765.13	1296.36
765.31	1302.51
765.49	1243.12
765.67	1304.56
765.84	1310.70
766.02	1288.17
766.20	1284.08
766.38	1316.84
766.56	1273.84
766.73	1224.69
766.91	1296.36
767.09	1290.22
767.27	1273.84
767.44	1294.32
767.62	1261.55
767.80	1212.40
767.98	1331.18
768.15	1271.79
768.33	1247.21
768.51	1271.79
768.69	1208.30
768.87	1339.37
769.04	1167.34
769.22	1255.40
769.40	1314.80
769.58	1259.50
769.75	1218.54
769.93	1253.36
770.11	1245.16
770.28	1263.60
770.46	1277.93
770.64	1232.88
770.82	1290.22
770.99	1232.88
771.17	1368.04
771.35	1212.40
771.53	1339.37
771.70	1339.37
771.88	1243.12
772.06	1304.56
772.23	1279.98
772.41	1302.51
772.59	1296.36
772.77	1249.26
772.94	1239.02
773.12	1308.65
773.30	1236.97
773.47	1189.87
773.65	1298.41
773.83	1269.74
774.01	1261.55
774.18	1261.55
774.36	1290.22
774.54	1257.45
774.71	1339.37
774.89	1322.99
775.07	1275.88
775.24	1241.07
775.42	1282.03
775.60	1259.50
775.78	1269.74
775.95	1249.26
776.13	1279.98
776.31	1216.49
776.48	1243.12
776.66	1257.45
776.84	1273.84
777.01	1249.26
777.19	1275.88
777.37	1179.63
777.54	1282.03
777.72	1234.93
777.90	1298.41
778.07	1269.74
778.25	1243.12
778.43	1224.69
778.60	1265.64
778.78	1273.84
778.96	1290.22
779.13	1265.64
779.31	1239.02
779.49	1239.02
779.66	1236.97
779.84	1255.40
780.01	1232.88
780.19	1286.12
780.37	1206.25
780.54	1228.78
780.72	1279.98
780.90	1288.17
781.07	1302.51
781.25	1234.93
781.43	1155.05
781.60	1282.03
781.78	1269.74
781.95	1298.41
782.13	1335.28
782.31	1279.98
782.48	1279.98
782.66	1161.20
782.83	1286.12
783.01	1282.03
783.19	1239.02
783.36	1331.18
783.54	1247.21
783.72	1263.60
783.89	1259.50
784.07	1339.37
784.24	1316.84
784.42	1343.47
784.60	1331.18
784.77	1249.26
784.95	1275.88
785.12	1286.12
785.30	1230.83
785.47	1282.03
785.65	1312.75
785.83	1245.16
786.00	1202.16
786.18	1261.55
786.35	1259.50
786.53	1230.83
786.71	1279.98
786.88	1269.74
787.06	1335.28
787.23	1241.07
787.41	1310.70
787.58	1263.60
787.76	1230.83
787.94	1259.50
788.11	1294.32
788.29	1304.56
788.46	1298.41
788.64	1249.26
788.81	1296.36
788.99	1253.36
789.16	1191.92
789.34	1329.13
789.52	1234.93
789.69	1314.80
789.87	1257.45
790.04	1251.31
790.22	1243.12
790.39	1243.12
790.57	1253.36
790.74	1245.16
790.92	1185.77
791.09	1232.88
791.27	1228.78
791.44	1257.45
791.62	1290.22
791.79	1298.41
791.97	1304.56
792.15	1286.12
792.32	1292.27
792.50	1261.55
792.67	1271.79
792.85	1300.46
793.02	1236.97
793.20	1298.41
793.37	1259.50
793.55	1271.79
793.72	1302.51
793.90	1329.13
794.07	1230.83
794.25	1302.51
794.42	1331.18
794.60	1271.79
794.77	1282.03
794.95	1376.24
795.12	1245.16
795.30	1298.41
795.47	1284.08
795.65	1341.42
795.82	1271.79
796.00	1286.12
796.17	1257.45
796.34	1302.51
796.52	1249.26
796.69	1218.54
796.87	1208.30
797.04	1191.92
797.22	1249.26
797.39	1275.88
797.57	1277.93
797.74	1306.60
797.92	1245.16
798.09	1331.18
798.27	1308.65
798.44	1251.31
798.62	1236.97
798.79	1271.79
798.96	1271.79
799.14	1347.56
799.31	1304.56
799.49	1269.74
799.66	1286.12
799.84	1181.68
800.01	1245.16
800.19	1353.71
800.36	1228.78
800.53	1294.32
800.71	1236.97
800.88	1304.56
801.06	1222.64
801.23	1288.17
801.41	1239.02
801.58	1265.64
801.75	1251.31
801.93	1292.27
802.10	1239.02
802.28	1153.01
802.45	1292.27
802.63	1284.08
802.80	1304.56
802.97	1271.79
803.15	1243.12
803.32	1206.25
803.50	1222.64
803.67	1273.84
803.84	1269.74
804.02	1320.94
804.19	1322.99
804.37	1363.95
804.54	1318.89
804.71	1259.50
804.89	1284.08
805.06	1218.54
805.24	1218.54
805.41	1222.64
805.58	1267.69
805.76	1228.78
805.93	1255.40
806.10	1261.55
806.28	1265.64
806.45	1257.45
806.63	1263.60
806.80	1230.83
806.97	1263.60
807.15	1331.18
807.32	1294.32
807.49	1273.84
807.67	1247.21
807.84	1292.27
808.01	1296.36
808.19	1269.74
808.36	1284.08
808.54	1294.32
808.71	1341.42
808.88	1275.88
809.06	1325.04
809.23	1269.74
809.40	1187.82
809.58	1298.41
809.75	1216.49
809.92	1288.17
810.10	1253.36
810.27	1286.12
810.44	1198.06
810.62	1265.64
810.79	1269.74
810.96	1230.83
811.14	1247.21
811.31	1337.32
811.48	1202.16
811.66	1294.32
811.83	1271.79
812.00	1265.64
812.18	1304.56
812.35	1193.97
812.52	1234.93
812.69	1249.26
812.87	1216.49
813.04	1351.66
813.21	1247.21
813.39	1245.16
813.56	1163.25
813.73	1255.40
813.91	1275.88
814.08	1255.40
814.25	1292.27
814.42	1325.04
814.60	1222.64
814.77	1257.45
814.94	1345.52
815.12	1298.41
815.29	1292.27
815.46	1282.03
815.63	1286.12
815.81	1308.65
815.98	1173.49
816.15	1316.84
816.33	1200.11
816.50	1298.41
816.67	1320.94
816.84	1204.21
817.02	1273.84
817.19	1249.26
817.36	1300.46
817.53	1290.22
817.71	1306.60
817.88	1241.07
818.05	1312.75
818.22	1292.27
818.40	1245.16
818.57	1261.55
818.74	1241.07
818.91	1234.93
819.09	1220.59
819.26	1351.66
819.43	1234.93
819.60	1220.59
819.78	1239.02
819.95	1286.12
820.12	1300.46
820.29	1259.50
820.47	1351.66
820.64	1269.74
820.81	1273.84
820.98	1265.64
821.15	1243.12
821.33	1308.65
821.50	1329.13
821.67	1247.21
821.84	1265.64
822.02	1277.93
822.19	1191.92
822.36	1206.25
822.53	1243.12
822.70	1259.50
822.88	1302.51
823.05	1275.88
823.22	1179.63
823.39	1335.28
823.56	1277.93
823.74	1300.46
823.91	1234.93
824.08	1312.75
824.25	1273.84
824.42	1241.07
824.60	1314.80
824.77	1253.36
824.94	1216.49
825.11	1265.64
825.28	1310.70
825.45	1216.49
825.63	1304.56
825.80	1167.34
825.97	1189.87
826.14	1189.87
826.31	1239.02
826.48	1288.17
826.66	1253.36
826.83	1300.46
827.00	1257.45
827.17	1316.84
827.34	1277.93
827.51	1239.02
827.69	1322.99
827.86	1249.26
828.03	1228.78
828.20	1290.22
828.37	1255.40
828.54	1271.79
828.71	1255.40
828.89	1255.40
829.06	1312.75
829.23	1327.08
829.40	1257.45
829.57	1267.69
829.74	1249.26
829.91	1282.03
830.09	1198.06
830.26	1230.83
830.43	1241.07
830.60	1306.60
830.77	1327.08
830.94	1269.74
831.11	1271.79
831.28	1265.64
831.46	1271.79
831.63	1271.79
831.80	1312.75
831.97	1251.31
832.14	1273.84
832.31	1277.93
832.48	1218.54
832.65	1286.12
832.82	1273.84
832.99	1288.17
833.17	1214.45
833.34	1247.21
833.51	1224.69
833.68	1224.69
833.85	1263.60
834.02	1265.64
834.19	1204.21
834.36	1341.42
834.53	1300.46
834.70	1255.40
834.87	1200.11
835.04	1288.17
835.22	1236.97
835.39	1220.59
835.56	1294.32
835.73	1273.84
835.90	1251.31
836.07	1294.32
836.24	1288.17
836.41	1269.74
836.58	1224.69
836.75	1273.84
836.92	1294.32
837.09	1228.78
837.26	1214.45
837.43	1269.74
837.60	1314.80
837.77	1294.32
837.94	1220.59
838.12	1325.04
838.29	1290.22
838.46	1282.03
838.63	1271.79
838.80	1296.36
838.97	1230.83
839.14	1261.55
839.31	1253.36
839.48	1279.98
839.65	1216.49
839.82	1241.07
839.99	1286.12
840.16	1255.40
840.33	1255.40
840.50	1298.41
840.67	1253.36
840.84	1290.22
841.01	1290.22
841.18	1308.65
841.35	1304.56
841.52	1226.73
841.69	1290.22
841.86	1239.02
842.03	1261.55
842.20	1236.97
842.37	1226.73
842.54	1331.18
842.71	1189.87
842.88	1243.12
843.05	1228.78
843.22	1265.64
843.39	1282.03
843.56	1216.49
843.73	1175.53
843.90	1214.45
844.07	1308.65
844.24	1265.64
844.41	1269.74
844.58	1259.50
844.75	1255.40
844.92	1339.37
845.09	1298.41
845.26	1273.84
845.43	1271.79
845.60	1296.36
845.77	1296.36
845.94	1200.11
846.10	1241.07
846.27	1253.36
846.44	1318.89
846.61	1265.64
846.78	1290.22
846.95	1269.74
847.12	1157.10
847.29	1253.36
847.46	1265.64
847.63	1216.49
847.80	1249.26
847.97	1282.03
848.14	1257.45
848.31	1218.54
848.48	1263.60
848.65	1298.41
848.82	1253.36
848.98	1204.21
849.15	1253.36
849.32	1304.56
849.49	1273.84
849.66	1279.98
849.83	1257.45
850.00	1325.04
850.17	1253.36
850.34	1296.36
850.51	1273.84
850.68	1286.12
850.85	1259.50
851.01	1208.30
851.18	1249.26
851.35	1322.99
851.52	1282.03
851.69	1294.32
851.86	1279.98
852.03	1273.84
852.20	1263.60
852.37	1292.27
852.53	1239.02
852.70	1282.03
852.87	1259.50
853.04	1316.84
853.21	1202.16
853.38	1259.50
853.55	1277.93
853.72	1218.54
853.89	1304.56
854.05	1249.26
854.22	1232.88
854.39	1226.73
854.56	1288.17
854.73	1232.88
854.90	1316.84
855.07	1298.41
855.23	1376.24
855.40	1331.18
855.57	1261.55
855.74	1279.98
855.91	1267.69
856.08	1296.36
856.25	1222.64
856.41	1263.60
856.58	1265.64
856.75	1331.18
856.92	1259.50
857.09	1277.93
857.26	1282.03
857.42	1284.08
857.59	1294.32
857.76	1275.88
857.93	1228.78
858.10	1265.64
858.27	1222.64
858.43	1282.03
858.60	1279.98
858.77	1275.88
858.94	1230.83
859.11	1282.03
859.27	1230.83
859.44	1294.32
859.61	1232.88
859.78	1298.41
859.95	1224.69
860.12	1245.16
860.28	1232.88
860.45	1220.59
860.62	1261.55
860.79	1282.03
860.95	1232.88
861.12	1286.12
861.29	1298.41
861.46	1208.30
861.63	1230.83
861.79	1314.80
861.96	1333.23
862.13	1230.83
862.30	1230.83
862.47	1232.88
862.63	1286.12
862.80	1234.93
862.97	1220.59
863.14	1271.79
863.30	1216.49
863.47	1228.78
863.64	1245.16
863.81	1304.56
863.97	1253.36
864.14	1257.45
864.31	1290.22
864.48	1318.89
864.65	1288.17
864.81	1210.35
864.98	1294.32
865.15	1325.04
865.32	1222.64
865.48	1341.42
865.65	1257.45
865.82	1257.45
865.98	1294.32
866.15	1267.69
866.32	1296.36
866.49	1312.75
866.65	1282.03
866.82	1345.52
866.99	1257.45
867.16	1228.78
867.32	1236.97
867.49	1200.11
867.66	1265.64
867.83	1275.88
867.99	1288.17
868.16	1273.84
868.33	1296.36
868.49	1249.26
868.66	1224.69
868.83	1226.73
868.99	1230.83
869.16	1224.69
869.33	1257.45
869.50	1257.45
869.66	1245.16
869.83	1306.60
870.00	1200.11
870.16	1302.51
870.33	1245.16
870.50	1259.50
870.66	1214.45
870.83	1343.47
871.00	1247.21
871.17	1265.64
871.33	1341.42
871.50	1236.97
871.67	1196.01
871.83	1249.26
872.00	1261.55
872.17	1306.60
872.33	1267.69
872.50	1263.60
872.67	1241.07
872.83	1271.79
873.00	1269.74
873.17	1310.70
873.33	1204.21
873.50	1200.11
873.67	1212.40
873.83	1292.27
874.00	1282.03
874.16	1347.56
874.33	1267.69
874.50	1269.74
874.66	1230.83
874.83	1277.93
875.00	1298.41
875.16	1265.64
875.33	1329.13
875.50	1263.60
875.66	1257.45
875.83	1318.89
875.99	1294.32
876.16	1290.22
876.33	1185.77
876.49	1210.35
876.66	1253.36
876.83	1333.23
876.99	1255.40
877.16	1292.27
877.32	1208.30
877.49	1265.64
877.66	1294.32
877.82	1261.55
877.99	1314.80
878.15	1255.40
878.32	1314.80
878.49	1294.32
878.65	1247.21
878.82	1259.50
878.98	1232.88
879.15	1259.50
879.32	1228.78
879.48	1230.83
879.65	1292.27
879.81	1196.01
879.98	1236.97
880.15	1232.88
880.31	1284.08
880.48	1265.64
880.64	1294.32
880.81	1314.80
880.97	1236.97
881.14	1288.17
881.31	1304.56
881.47	1232.88
881.64	1284.08
881.80	1216.49
881.97	1292.27
882.13	1314.80
882.30	1263.60
882.47	1302.51
882.63	1169.39
882.80	1187.82
882.96	1294.32
883.13	1245.16
883.29	1261.55
883.46	1241.07
883.62	1345.52
883.79	1327.08
883.95	1249.26
884.12	1255.40
884.29	1290.22
884.45	1210.35
884.62	1279.98
884.78	1257.45
884.95	1298.41
885.11	1234.93
885.28	1312.75
885.44	1265.64
885.61	1286.12
885.77	1218.54
885.94	1298.41
886.10	1216.49
886.27	1275.88
886.43	1257.45
886.60	1232.88
886.76	1243.12
886.93	1232.88
887.09	1339.37
887.26	1265.64
887.42	1249.26
887.59	1288.17
887.75	1288.17
887.92	1265.64
888.08	1320.94
888.25	1216.49
888.41	1296.36
888.58	1208.30
888.74	1234.93
888.91	1234.93
>>>>>End Processed Spectral Data<<<<<
