SpectraSuite Data File
++++++++++++++++++++++++++++++++++++
Date: Sun Apr 03 19:55:52 CEST 2016
User: root
Dark Spectrum Present: No
Reference Spectrum Present: No
Number of Sampled Component Spectra: 1
Spectrometers: USB4C02835
Integration Time (usec): 10000 (USB4C02835)
Spectra Averaged: 1 (USB4C02835)
Boxcar Smoothing: 0 (USB4C02835)
Correct for Electrical Dark: No (USB4C02835)
Strobe/Lamp Enabled: No (USB4C02835)
Correct for Detector Non-linearity: No (USB4C02835)
Correct for Stray Light: No (USB4C02835)
Number of Pixels in Processed Spectrum: 3648
>>>>>Begin Processed Spectral Data<<<<<
177.47	1239.02
177.69	1239.02
177.91	1239.02
178.13	1294.32
178.36	1234.93
178.58	1230.83
178.80	1261.55
179.02	1206.25
179.24	1292.27
179.46	1306.60
179.68	1273.84
179.90	1251.31
180.13	1322.99
180.35	1282.03
180.57	1316.84
180.79	1200.11
181.01	1255.40
181.23	1265.64
181.45	1269.74
181.67	1261.55
181.90	1273.84
182.12	1247.21
182.34	1224.69
182.56	1265.64
182.78	1234.93
183.00	1265.64
183.22	1286.12
183.44	1198.06
183.66	1200.11
183.89	1259.50
184.11	1296.36
184.33	1327.08
184.55	1282.03
184.77	1245.16
184.99	1290.22
185.21	1220.59
185.43	1316.84
185.65	1284.08
185.87	1222.64
186.10	1331.18
186.32	1179.63
186.54	1253.36
186.76	1304.56
186.98	1279.98
187.20	1298.41
187.42	1253.36
187.64	1279.98
187.86	1269.74
188.08	1269.74
188.30	1341.42
188.52	1306.60
188.75	1247.21
188.97	1251.31
189.19	1249.26
189.41	1347.56
189.63	1284.08
189.85	1251.31
190.07	1282.03
190.29	1234.93
190.51	1239.02
190.73	1298.41
190.95	1216.49
191.17	1347.56
191.39	1273.84
191.61	1241.07
191.84	1255.40
192.06	1222.64
192.28	1269.74
192.50	1224.69
192.72	1279.98
192.94	1327.08
193.16	1232.88
193.38	1308.65
193.60	1212.40
193.82	1216.49
194.04	1257.45
194.26	1339.37
194.48	1296.36
194.70	1218.54
194.92	1310.70
195.14	1294.32
195.36	1269.74
195.58	1275.88
195.80	1271.79
196.02	1279.98
196.24	1277.93
196.46	1230.83
196.69	1298.41
196.91	1261.55
197.13	1273.84
197.35	1214.45
197.57	1306.60
197.79	1302.51
198.01	1218.54
198.23	1253.36
198.45	1269.74
198.67	1294.32
198.89	1228.78
199.11	1230.83
199.33	1337.32
199.55	1277.93
199.77	1298.41
199.99	1265.64
200.21	1302.51
200.43	1236.97
200.65	1282.03
200.87	1247.21
201.09	1273.84
201.31	1380.33
201.53	1279.98
201.75	1366.00
201.97	1296.36
202.19	1249.26
202.41	1212.40
202.63	1302.51
202.85	1294.32
203.07	1312.75
203.29	1232.88
203.51	1279.98
203.73	1320.94
203.95	1277.93
204.17	1284.08
204.39	1261.55
204.61	1322.99
204.83	1222.64
205.05	1249.26
205.27	1314.80
205.49	1226.73
205.71	1247.21
205.93	1257.45
206.15	1253.36
206.37	1257.45
206.59	1310.70
206.81	1286.12
207.03	1275.88
207.25	1339.37
207.47	1206.25
207.69	1271.79
207.91	1306.60
208.13	1196.01
208.34	1298.41
208.56	1255.40
208.78	1249.26
209.00	1277.93
209.22	1279.98
209.44	1267.69
209.66	1222.64
209.88	1261.55
210.10	1273.84
210.32	1269.74
210.54	1294.32
210.76	1224.69
210.98	1245.16
211.20	1249.26
211.42	1234.93
211.64	1198.06
211.86	1239.02
212.08	1232.88
212.30	1279.98
212.52	1241.07
212.74	1304.56
212.96	1187.82
213.17	1298.41
213.39	1226.73
213.61	1216.49
213.83	1277.93
214.05	1304.56
214.27	1288.17
214.49	1222.64
214.71	1249.26
214.93	1277.93
215.15	1261.55
215.37	1286.12
215.59	1236.97
215.81	1292.27
216.03	1239.02
216.24	1267.69
216.46	1357.80
216.68	1232.88
216.90	1277.93
217.12	1220.59
217.34	1253.36
217.56	1251.31
217.78	1261.55
218.00	1253.36
218.22	1198.06
218.44	1267.69
218.66	1202.16
218.87	1302.51
219.09	1265.64
219.31	1269.74
219.53	1255.40
219.75	1261.55
219.97	1261.55
220.19	1288.17
220.41	1208.30
220.63	1257.45
220.85	1282.03
221.06	1267.69
221.28	1290.22
221.50	1234.93
221.72	1265.64
221.94	1220.59
222.16	1316.84
222.38	1349.61
222.60	1216.49
222.82	1255.40
223.03	1239.02
223.25	1224.69
223.47	1282.03
223.69	1282.03
223.91	1216.49
224.13	1243.12
224.35	1292.27
224.57	1216.49
224.78	1304.56
225.00	1275.88
225.22	1282.03
225.44	1279.98
225.66	1247.21
225.88	1298.41
226.10	1273.84
226.32	1196.01
226.53	1245.16
226.75	1306.60
226.97	1279.98
227.19	1294.32
227.41	1284.08
227.63	1232.88
227.85	1312.75
228.06	1300.46
228.28	1273.84
228.50	1275.88
228.72	1259.50
228.94	1230.83
229.16	1243.12
229.37	1339.37
229.59	1255.40
229.81	1322.99
230.03	1253.36
230.25	1261.55
230.47	1271.79
230.69	1226.73
230.90	1241.07
231.12	1263.60
231.34	1189.87
231.56	1273.84
231.78	1308.65
232.00	1288.17
232.21	1234.93
232.43	1239.02
232.65	1200.11
232.87	1288.17
233.09	1265.64
233.30	1267.69
233.52	1310.70
233.74	1306.60
233.96	1263.60
234.18	1304.56
234.40	1241.07
234.61	1275.88
234.83	1257.45
235.05	1288.17
235.27	1257.45
235.49	1208.30
235.70	1214.45
235.92	1255.40
236.14	1271.79
236.36	1273.84
236.58	1312.75
236.79	1271.79
237.01	1261.55
237.23	1282.03
237.45	1286.12
237.67	1290.22
237.88	1232.88
238.10	1294.32
238.32	1243.12
238.54	1279.98
238.76	1259.50
238.97	1331.18
239.19	1220.59
239.41	1306.60
239.63	1284.08
239.85	1257.45
240.06	1265.64
240.28	1259.50
240.50	1247.21
240.72	1230.83
240.93	1296.36
241.15	1320.94
241.37	1257.45
241.59	1296.36
241.81	1273.84
242.02	1335.28
242.24	1239.02
242.46	1196.01
242.68	1251.31
242.89	1282.03
243.11	1282.03
243.33	1200.11
243.55	1286.12
243.76	1222.64
243.98	1267.69
244.20	1322.99
244.42	1277.93
244.64	1353.71
244.85	1257.45
245.07	1275.88
245.29	1265.64
245.51	1292.27
245.72	1249.26
245.94	1239.02
246.16	1261.55
246.38	1320.94
246.59	1255.40
246.81	1249.26
247.03	1288.17
247.24	1241.07
247.46	1153.01
247.68	1345.52
247.90	1224.69
248.11	1181.68
248.33	1282.03
248.55	1288.17
248.77	1277.93
248.98	1284.08
249.20	1286.12
249.42	1273.84
249.64	1249.26
249.85	1322.99
250.07	1294.32
250.29	1273.84
250.50	1251.31
250.72	1224.69
250.94	1251.31
251.16	1339.37
251.37	1265.64
251.59	1255.40
251.81	1298.41
252.02	1167.34
252.24	1196.01
252.46	1214.45
252.68	1222.64
252.89	1302.51
253.11	1298.41
253.33	1255.40
253.54	1169.39
253.76	1325.04
253.98	1286.12
254.20	1245.16
254.41	1273.84
254.63	1290.22
254.85	1269.74
255.06	1198.06
255.28	1271.79
255.50	1271.79
255.71	1183.73
255.93	1198.06
256.15	1294.32
256.36	1216.49
256.58	1277.93
256.80	1327.08
257.02	1298.41
257.23	1187.82
257.45	1253.36
257.67	1290.22
257.88	1245.16
258.10	1249.26
258.32	1257.45
258.53	1310.70
258.75	1261.55
258.97	1236.97
259.18	1322.99
259.40	1282.03
259.62	1316.84
259.83	1222.64
260.05	1306.60
260.27	1288.17
260.48	1277.93
260.70	1243.12
260.92	1325.04
261.13	1337.32
261.35	1304.56
261.57	1245.16
261.78	1304.56
262.00	1320.94
262.22	1222.64
262.43	1302.51
262.65	1316.84
262.86	1259.50
263.08	1286.12
263.30	1214.45
263.51	1255.40
263.73	1267.69
263.95	1300.46
264.16	1304.56
264.38	1239.02
264.60	1294.32
264.81	1277.93
265.03	1316.84
265.25	1253.36
265.46	1220.59
265.68	1282.03
265.89	1286.12
266.11	1224.69
266.33	1304.56
266.54	1296.36
266.76	1265.64
266.98	1335.28
267.19	1320.94
267.41	1255.40
267.62	1247.21
267.84	1228.78
268.06	1224.69
268.27	1282.03
268.49	1308.65
268.70	1286.12
268.92	1218.54
269.14	1300.46
269.35	1222.64
269.57	1257.45
269.79	1290.22
270.00	1284.08
270.22	1335.28
270.43	1302.51
270.65	1265.64
270.87	1206.25
271.08	1265.64
271.30	1243.12
271.51	1245.16
271.73	1239.02
271.95	1298.41
272.16	1220.59
272.38	1310.70
272.59	1327.08
272.81	1282.03
273.02	1259.50
273.24	1277.93
273.46	1222.64
273.67	1234.93
273.89	1224.69
274.10	1257.45
274.32	1343.47
274.54	1273.84
274.75	1277.93
274.97	1251.31
275.18	1333.23
275.40	1355.76
275.61	1312.75
275.83	1298.41
276.05	1269.74
276.26	1230.83
276.48	1245.16
276.69	1302.51
276.91	1282.03
277.12	1284.08
277.34	1269.74
277.55	1249.26
277.77	1275.88
277.99	1239.02
278.20	1232.88
278.42	1226.73
278.63	1253.36
278.85	1284.08
279.06	1296.36
279.28	1284.08
279.49	1282.03
279.71	1271.79
279.93	1230.83
280.14	1253.36
280.36	1251.31
280.57	1253.36
280.79	1216.49
281.00	1275.88
281.22	1273.84
281.43	1282.03
281.65	1251.31
281.86	1245.16
282.08	1298.41
282.29	1212.40
282.51	1234.93
282.73	1298.41
282.94	1241.07
283.16	1300.46
283.37	1335.28
283.59	1200.11
283.80	1255.40
284.02	1271.79
284.23	1261.55
284.45	1275.88
284.66	1286.12
284.88	1241.07
285.09	1239.02
285.31	1241.07
285.52	1294.32
285.74	1304.56
285.95	1206.25
286.17	1253.36
286.38	1282.03
286.60	1288.17
286.81	1265.64
287.03	1222.64
287.24	1351.66
287.46	1318.89
287.67	1306.60
287.89	1271.79
288.10	1275.88
288.32	1271.79
288.53	1314.80
288.75	1239.02
288.96	1284.08
289.18	1216.49
289.39	1275.88
289.61	1245.16
289.82	1263.60
290.04	1226.73
290.25	1279.98
290.47	1292.27
290.68	1298.41
290.90	1277.93
291.11	1269.74
291.33	1271.79
291.54	1310.70
291.76	1286.12
291.97	1269.74
292.18	1263.60
292.40	1245.16
292.61	1202.16
292.83	1191.92
293.04	1245.16
293.26	1216.49
293.47	1286.12
293.69	1282.03
293.90	1226.73
294.12	1325.04
294.33	1308.65
294.55	1265.64
294.76	1263.60
294.97	1306.60
295.19	1300.46
295.40	1218.54
295.62	1282.03
295.83	1312.75
296.05	1259.50
296.26	1198.06
296.48	1200.11
296.69	1216.49
296.90	1277.93
297.12	1228.78
297.33	1271.79
297.55	1224.69
297.76	1288.17
297.98	1241.07
298.19	1249.26
298.41	1269.74
298.62	1245.16
298.83	1210.35
299.05	1245.16
299.26	1230.83
299.48	1282.03
299.69	1251.31
299.90	1320.94
300.12	1277.93
300.33	1202.16
300.55	1249.26
300.76	1282.03
300.98	1265.64
301.19	1284.08
301.40	1165.29
301.62	1224.69
301.83	1239.02
302.05	1316.84
302.26	1208.30
302.47	1261.55
302.69	1247.21
302.90	1353.71
303.12	1212.40
303.33	1314.80
303.54	1322.99
303.76	1249.26
303.97	1277.93
304.19	1370.09
304.40	1314.80
304.61	1261.55
304.83	1212.40
305.04	1232.88
305.26	1251.31
305.47	1245.16
305.68	1220.59
305.90	1187.82
306.11	1228.78
306.33	1263.60
306.54	1236.97
306.75	1331.18
306.97	1318.89
307.18	1363.95
307.39	1269.74
307.61	1300.46
307.82	1212.40
308.04	1277.93
308.25	1253.36
308.46	1322.99
308.68	1259.50
308.89	1298.41
309.10	1241.07
309.32	1275.88
309.53	1288.17
309.74	1271.79
309.96	1171.44
310.17	1228.78
310.39	1279.98
310.60	1314.80
310.81	1261.55
311.03	1261.55
311.24	1224.69
311.45	1288.17
311.67	1247.21
311.88	1236.97
312.09	1286.12
312.31	1277.93
312.52	1239.02
312.73	1261.55
312.95	1351.66
313.16	1175.53
313.37	1241.07
313.59	1294.32
313.80	1296.36
314.01	1282.03
314.23	1187.82
314.44	1228.78
314.65	1265.64
314.87	1290.22
315.08	1300.46
315.29	1212.40
315.51	1261.55
315.72	1249.26
315.93	1251.31
316.15	1320.94
316.36	1245.16
316.57	1337.32
316.79	1325.04
317.00	1208.30
317.21	1308.65
317.43	1265.64
317.64	1226.73
317.85	1261.55
318.07	1269.74
318.28	1228.78
318.49	1241.07
318.70	1298.41
318.92	1269.74
319.13	1314.80
319.34	1216.49
319.56	1222.64
319.77	1284.08
319.98	1251.31
320.20	1263.60
320.41	1222.64
320.62	1265.64
320.83	1351.66
321.05	1331.18
321.26	1245.16
321.47	1353.71
321.69	1310.70
321.90	1300.46
322.11	1263.60
322.32	1318.89
322.54	1353.71
322.75	1353.71
322.96	1298.41
323.18	1208.30
323.39	1263.60
323.60	1284.08
323.81	1292.27
324.03	1292.27
324.24	1327.08
324.45	1245.16
324.66	1241.07
324.88	1193.97
325.09	1247.21
325.30	1228.78
325.52	1290.22
325.73	1214.45
325.94	1312.75
326.15	1273.84
326.37	1257.45
326.58	1304.56
326.79	1257.45
327.00	1257.45
327.22	1279.98
327.43	1292.27
327.64	1288.17
327.85	1277.93
328.07	1202.16
328.28	1286.12
328.49	1320.94
328.70	1239.02
328.92	1255.40
329.13	1210.35
329.34	1269.74
329.55	1312.75
329.76	1216.49
329.98	1214.45
330.19	1265.64
330.40	1234.93
330.61	1202.16
330.83	1290.22
331.04	1247.21
331.25	1253.36
331.46	1306.60
331.68	1327.08
331.89	1222.64
332.10	1261.55
332.31	1230.83
332.52	1318.89
332.74	1290.22
332.95	1288.17
333.16	1282.03
333.37	1265.64
333.58	1200.11
333.80	1230.83
334.01	1157.10
334.22	1292.27
334.43	1253.36
334.64	1257.45
334.86	1343.47
335.07	1288.17
335.28	1247.21
335.49	1275.88
335.70	1300.46
335.92	1243.12
336.13	1208.30
336.34	1239.02
336.55	1316.84
336.76	1224.69
336.98	1267.69
337.19	1327.08
337.40	1290.22
337.61	1189.87
337.82	1239.02
338.04	1220.59
338.25	1320.94
338.46	1239.02
338.67	1290.22
338.88	1306.60
339.09	1339.37
339.31	1253.36
339.52	1247.21
339.73	1259.50
339.94	1298.41
340.15	1290.22
340.36	1247.21
340.58	1320.94
340.79	1267.69
341.00	1212.40
341.21	1255.40
341.42	1167.34
341.63	1279.98
341.85	1269.74
342.06	1279.98
342.27	1314.80
342.48	1269.74
342.69	1214.45
342.90	1226.73
343.12	1277.93
343.33	1259.50
343.54	1232.88
343.75	1261.55
343.96	1234.93
344.17	1325.04
344.38	1269.74
344.60	1239.02
344.81	1275.88
345.02	1265.64
345.23	1374.19
345.44	1284.08
345.65	1304.56
345.86	1269.74
346.07	1185.77
346.29	1210.35
346.50	1384.43
346.71	1232.88
346.92	1316.84
347.13	1294.32
347.34	1253.36
347.55	1271.79
347.76	1343.47
347.98	1325.04
348.19	1230.83
348.40	1261.55
348.61	1175.53
348.82	1320.94
349.03	1265.64
349.24	1249.26
349.45	1333.23
349.66	1298.41
349.88	1255.40
350.09	1337.32
350.30	1263.60
350.51	1279.98
350.72	1341.42
350.93	1286.12
351.14	1298.41
351.35	1300.46
351.56	1286.12
351.77	1294.32
351.99	1279.98
352.20	1345.52
352.41	1310.70
352.62	1247.21
352.83	1273.84
353.04	1232.88
353.25	1284.08
353.46	1294.32
353.67	1308.65
353.88	1273.84
354.09	1196.01
354.30	1224.69
354.52	1290.22
354.73	1322.99
354.94	1253.36
355.15	1230.83
355.36	1226.73
355.57	1208.30
355.78	1300.46
355.99	1300.46
356.20	1275.88
356.41	1286.12
356.62	1298.41
356.83	1198.06
357.04	1245.16
357.25	1265.64
357.46	1273.84
357.68	1193.97
357.89	1304.56
358.10	1200.11
358.31	1247.21
358.52	1189.87
358.73	1239.02
358.94	1288.17
359.15	1241.07
359.36	1302.51
359.57	1269.74
359.78	1290.22
359.99	1243.12
360.20	1310.70
360.41	1216.49
360.62	1239.02
360.83	1329.13
361.04	1273.84
361.25	1230.83
361.46	1230.83
361.67	1271.79
361.88	1263.60
362.09	1243.12
362.30	1292.27
362.51	1224.69
362.72	1243.12
362.93	1257.45
363.14	1255.40
363.35	1288.17
363.56	1275.88
363.78	1183.73
363.99	1236.97
364.20	1253.36
364.41	1265.64
364.62	1251.31
364.83	1294.32
365.04	1245.16
365.25	1247.21
365.46	1359.85
365.67	1355.76
365.88	1210.35
366.09	1298.41
366.30	1300.46
366.51	1265.64
366.72	1200.11
366.93	1279.98
367.14	1275.88
367.35	1236.97
367.56	1243.12
367.77	1325.04
367.98	1228.78
368.18	1257.45
368.39	1304.56
368.60	1304.56
368.81	1300.46
369.02	1263.60
369.23	1273.84
369.44	1255.40
369.65	1239.02
369.86	1310.70
370.07	1234.93
370.28	1298.41
370.49	1228.78
370.70	1249.26
370.91	1284.08
371.12	1230.83
371.33	1232.88
371.54	1234.93
371.75	1265.64
371.96	1249.26
372.17	1253.36
372.38	1273.84
372.59	1302.51
372.80	1230.83
373.01	1296.36
373.22	1216.49
373.43	1292.27
373.64	1259.50
373.85	1263.60
374.06	1175.53
374.26	1282.03
374.47	1228.78
374.68	1279.98
374.89	1282.03
375.10	1239.02
375.31	1241.07
375.52	1220.59
375.73	1232.88
375.94	1263.60
376.15	1220.59
376.36	1214.45
376.57	1224.69
376.78	1302.51
376.99	1253.36
377.20	1265.64
377.40	1279.98
377.61	1267.69
377.82	1265.64
378.03	1255.40
378.24	1290.22
378.45	1279.98
378.66	1208.30
378.87	1269.74
379.08	1292.27
379.29	1304.56
379.50	1306.60
379.71	1300.46
379.91	1306.60
380.12	1325.04
380.33	1282.03
380.54	1286.12
380.75	1349.61
380.96	1279.98
381.17	1294.32
381.38	1308.65
381.59	1261.55
381.80	1255.40
382.00	1265.64
382.21	1277.93
382.42	1261.55
382.63	1271.79
382.84	1210.35
383.05	1243.12
383.26	1241.07
383.47	1298.41
383.68	1273.84
383.88	1267.69
384.09	1269.74
384.30	1366.00
384.51	1236.97
384.72	1234.93
384.93	1282.03
385.14	1288.17
385.35	1202.16
385.55	1257.45
385.76	1277.93
385.97	1302.51
386.18	1255.40
386.39	1275.88
386.60	1185.77
386.81	1279.98
387.02	1212.40
387.22	1255.40
387.43	1294.32
387.64	1296.36
387.85	1296.36
388.06	1232.88
388.27	1273.84
388.48	1232.88
388.68	1273.84
388.89	1273.84
389.10	1222.64
389.31	1251.31
389.52	1247.21
389.73	1232.88
389.93	1140.72
390.14	1208.30
390.35	1273.84
390.56	1269.74
390.77	1314.80
390.98	1318.89
391.18	1212.40
391.39	1331.18
391.60	1263.60
391.81	1308.65
392.02	1312.75
392.23	1298.41
392.43	1243.12
392.64	1304.56
392.85	1220.59
393.06	1263.60
393.27	1243.12
393.47	1208.30
393.68	1239.02
393.89	1263.60
394.10	1325.04
394.31	1282.03
394.52	1282.03
394.72	1288.17
394.93	1298.41
395.14	1232.88
395.35	1286.12
395.56	1259.50
395.76	1241.07
395.97	1306.60
396.18	1294.32
396.39	1269.74
396.60	1187.82
396.80	1269.74
397.01	1267.69
397.22	1247.21
397.43	1290.22
397.64	1236.97
397.84	1290.22
398.05	1273.84
398.26	1206.25
398.47	1265.64
398.67	1239.02
398.88	1226.73
399.09	1259.50
399.30	1257.45
399.51	1343.47
399.71	1251.31
399.92	1232.88
400.13	1318.89
400.34	1232.88
400.54	1304.56
400.75	1200.11
400.96	1296.36
401.17	1245.16
401.37	1265.64
401.58	1339.37
401.79	1226.73
402.00	1347.56
402.21	1318.89
402.41	1327.08
402.62	1308.65
402.83	1263.60
403.04	1214.45
403.24	1263.60
403.45	1224.69
403.66	1255.40
403.87	1273.84
404.07	1222.64
404.28	1261.55
404.49	1298.41
404.70	1310.70
404.90	1288.17
405.11	1277.93
405.32	1273.84
405.52	1261.55
405.73	1290.22
405.94	1243.12
406.15	1294.32
406.35	1288.17
406.56	1314.80
406.77	1298.41
406.98	1245.16
407.18	1282.03
407.39	1314.80
407.60	1290.22
407.80	1277.93
408.01	1282.03
408.22	1216.49
408.43	1298.41
408.63	1224.69
408.84	1275.88
409.05	1232.88
409.25	1206.25
409.46	1322.99
409.67	1288.17
409.88	1279.98
410.08	1284.08
410.29	1290.22
410.50	1284.08
410.70	1333.23
410.91	1241.07
411.12	1292.27
411.32	1345.52
411.53	1216.49
411.74	1191.92
411.95	1298.41
412.15	1267.69
412.36	1292.27
412.57	1277.93
412.77	1312.75
412.98	1296.36
413.19	1230.83
413.39	1300.46
413.60	1329.13
413.81	1255.40
414.01	1308.65
414.22	1290.22
414.43	1243.12
414.63	1267.69
414.84	1288.17
415.05	1247.21
415.25	1312.75
415.46	1288.17
415.67	1316.84
415.87	1269.74
416.08	1294.32
416.29	1322.99
416.49	1247.21
416.70	1296.36
416.91	1261.55
417.11	1298.41
417.32	1230.83
417.53	1239.02
417.73	1208.30
417.94	1228.78
418.15	1322.99
418.35	1239.02
418.56	1200.11
418.77	1251.31
418.97	1288.17
419.18	1210.35
419.38	1239.02
419.59	1239.02
419.80	1304.56
420.00	1306.60
420.21	1255.40
420.42	1234.93
420.62	1314.80
420.83	1296.36
421.04	1277.93
421.24	1290.22
421.45	1226.73
421.65	1298.41
421.86	1204.21
422.07	1269.74
422.27	1284.08
422.48	1322.99
422.69	1222.64
422.89	1243.12
423.10	1218.54
423.30	1232.88
423.51	1374.19
423.72	1241.07
423.92	1210.35
424.13	1261.55
424.33	1273.84
424.54	1226.73
424.75	1247.21
424.95	1226.73
425.16	1279.98
425.36	1239.02
425.57	1245.16
425.78	1263.60
425.98	1208.30
426.19	1175.53
426.39	1177.58
426.60	1239.02
426.81	1292.27
427.01	1284.08
427.22	1325.04
427.42	1241.07
427.63	1263.60
427.83	1234.93
428.04	1273.84
428.25	1335.28
428.45	1269.74
428.66	1304.56
428.86	1282.03
429.07	1236.97
429.28	1343.47
429.48	1296.36
429.69	1298.41
429.89	1318.89
430.10	1239.02
430.30	1265.64
430.51	1282.03
430.71	1239.02
430.92	1316.84
431.13	1243.12
431.33	1134.57
431.54	1212.40
431.74	1316.84
431.95	1306.60
432.15	1290.22
432.36	1253.36
432.56	1263.60
432.77	1208.30
432.98	1243.12
433.18	1345.52
433.39	1292.27
433.59	1249.26
433.80	1288.17
434.00	1245.16
434.21	1341.42
434.41	1290.22
434.62	1359.85
434.82	1271.79
435.03	1337.32
435.23	1255.40
435.44	1261.55
435.64	1288.17
435.85	1249.26
436.06	1234.93
436.26	1282.03
436.47	1234.93
436.67	1224.69
436.88	1271.79
437.08	1329.13
437.29	1353.71
437.49	1214.45
437.70	1267.69
437.90	1277.93
438.11	1343.47
438.31	1275.88
438.52	1245.16
438.72	1279.98
438.93	1306.60
439.13	1230.83
439.34	1255.40
439.54	1282.03
439.75	1267.69
439.95	1329.13
440.16	1261.55
440.36	1224.69
440.57	1253.36
440.77	1257.45
440.98	1292.27
441.18	1302.51
441.39	1251.31
441.59	1296.36
441.80	1234.93
442.00	1208.30
442.21	1341.42
442.41	1296.36
442.62	1265.64
442.82	1253.36
443.02	1325.04
443.23	1267.69
443.43	1239.02
443.64	1249.26
443.84	1208.30
444.05	1249.26
444.25	1263.60
444.46	1343.47
444.66	1296.36
444.87	1300.46
445.07	1294.32
445.28	1308.65
445.48	1282.03
445.69	1230.83
445.89	1318.89
446.09	1318.89
446.30	1284.08
446.50	1271.79
446.71	1245.16
446.91	1234.93
447.12	1325.04
447.32	1273.84
447.53	1253.36
447.73	1249.26
447.93	1327.08
448.14	1210.35
448.34	1322.99
448.55	1216.49
448.75	1341.42
448.96	1220.59
449.16	1318.89
449.36	1241.07
449.57	1257.45
449.77	1282.03
449.98	1187.82
450.18	1241.07
450.39	1259.50
450.59	1316.84
450.79	1228.78
451.00	1193.97
451.20	1308.65
451.41	1277.93
451.61	1279.98
451.81	1212.40
452.02	1191.92
452.22	1243.12
452.43	1273.84
452.63	1320.94
452.84	1286.12
453.04	1265.64
453.24	1263.60
453.45	1243.12
453.65	1284.08
453.86	1257.45
454.06	1263.60
454.26	1241.07
454.47	1302.51
454.67	1228.78
454.87	1234.93
455.08	1167.34
455.28	1331.18
455.49	1363.95
455.69	1247.21
455.89	1286.12
456.10	1294.32
456.30	1273.84
456.51	1282.03
456.71	1329.13
456.91	1282.03
457.12	1288.17
457.32	1304.56
457.52	1298.41
457.73	1210.35
457.93	1257.45
458.14	1308.65
458.34	1273.84
458.54	1253.36
458.75	1208.30
458.95	1320.94
459.15	1284.08
459.36	1302.51
459.56	1263.60
459.76	1253.36
459.97	1198.06
460.17	1216.49
460.37	1269.74
460.58	1265.64
460.78	1318.89
460.99	1300.46
461.19	1275.88
461.39	1337.32
461.60	1343.47
461.80	1292.27
462.00	1263.60
462.21	1322.99
462.41	1290.22
462.61	1253.36
462.82	1236.97
463.02	1267.69
463.22	1247.21
463.43	1243.12
463.63	1288.17
463.83	1243.12
464.04	1331.18
464.24	1308.65
464.44	1263.60
464.64	1241.07
464.85	1247.21
465.05	1241.07
465.25	1337.32
465.46	1251.31
465.66	1308.65
465.86	1308.65
466.07	1241.07
466.27	1263.60
466.47	1302.51
466.68	1298.41
466.88	1288.17
467.08	1318.89
467.29	1282.03
467.49	1300.46
467.69	1220.59
467.89	1271.79
468.10	1222.64
468.30	1322.99
468.50	1269.74
468.71	1253.36
468.91	1275.88
469.11	1322.99
469.31	1296.36
469.52	1261.55
469.72	1275.88
469.92	1316.84
470.13	1292.27
470.33	1300.46
470.53	1298.41
470.73	1279.98
470.94	1267.69
471.14	1269.74
471.34	1245.16
471.54	1228.78
471.75	1265.64
471.95	1261.55
472.15	1292.27
472.36	1257.45
472.56	1243.12
472.76	1294.32
472.96	1253.36
473.17	1288.17
473.37	1279.98
473.57	1271.79
473.77	1251.31
473.98	1243.12
474.18	1255.40
474.38	1316.84
474.58	1271.79
474.79	1202.16
474.99	1290.22
475.19	1269.74
475.39	1302.51
475.60	1187.82
475.80	1300.46
476.00	1288.17
476.20	1218.54
476.41	1236.97
476.61	1245.16
476.81	1302.51
477.01	1308.65
477.21	1259.50
477.42	1304.56
477.62	1228.78
477.82	1284.08
478.02	1169.39
478.23	1212.40
478.43	1314.80
478.63	1273.84
478.83	1288.17
479.03	1247.21
479.24	1236.97
479.44	1345.52
479.64	1214.45
479.84	1277.93
480.04	1290.22
480.25	1247.21
480.45	1222.64
480.65	1314.80
480.85	1224.69
481.06	1271.79
481.26	1249.26
481.46	1271.79
481.66	1325.04
481.86	1279.98
482.06	1232.88
482.27	1236.97
482.47	1253.36
482.67	1267.69
482.87	1249.26
483.07	1273.84
483.28	1322.99
483.48	1239.02
483.68	1322.99
483.88	1286.12
484.08	1275.88
484.29	1271.79
484.49	1243.12
484.69	1261.55
484.89	1263.60
485.09	1261.55
485.29	1222.64
485.50	1271.79
485.70	1259.50
485.90	1306.60
486.10	1241.07
486.30	1290.22
486.50	1288.17
486.71	1294.32
486.91	1253.36
487.11	1290.22
487.31	1253.36
487.51	1232.88
487.71	1345.52
487.91	1273.84
488.12	1220.59
488.32	1255.40
488.52	1249.26
488.72	1241.07
488.92	1269.74
489.12	1265.64
489.32	1265.64
489.53	1263.60
489.73	1220.59
489.93	1284.08
490.13	1210.35
490.33	1210.35
490.53	1171.44
490.73	1271.79
490.94	1210.35
491.14	1249.26
491.34	1335.28
491.54	1273.84
491.74	1200.11
491.94	1265.64
492.14	1284.08
492.34	1345.52
492.54	1239.02
492.75	1247.21
492.95	1275.88
493.15	1259.50
493.35	1298.41
493.55	1259.50
493.75	1302.51
493.95	1329.13
494.15	1220.59
494.35	1273.84
494.56	1279.98
494.76	1269.74
494.96	1191.92
495.16	1310.70
495.36	1275.88
495.56	1292.27
495.76	1349.61
495.96	1226.73
496.16	1239.02
496.36	1234.93
496.56	1310.70
496.77	1296.36
496.97	1243.12
497.17	1253.36
497.37	1304.56
497.57	1290.22
497.77	1273.84
497.97	1316.84
498.17	1245.16
498.37	1236.97
498.57	1243.12
498.77	1277.93
498.97	1327.08
499.17	1251.31
499.38	1241.07
499.58	1239.02
499.78	1294.32
499.98	1335.28
500.18	1257.45
500.38	1222.64
500.58	1267.69
500.78	1327.08
500.98	1269.74
501.18	1222.64
501.38	1290.22
501.58	1296.36
501.78	1234.93
501.98	1277.93
502.18	1325.04
502.38	1241.07
502.58	1249.26
502.78	1298.41
502.98	1284.08
503.18	1314.80
503.38	1282.03
503.59	1257.45
503.79	1241.07
503.99	1282.03
504.19	1308.65
504.39	1273.84
504.59	1316.84
504.79	1226.73
504.99	1177.58
505.19	1372.14
505.39	1245.16
505.59	1236.97
505.79	1253.36
505.99	1279.98
506.19	1241.07
506.39	1294.32
506.59	1341.42
506.79	1249.26
506.99	1212.40
507.19	1310.70
507.39	1322.99
507.59	1277.93
507.79	1259.50
507.99	1314.80
508.19	1304.56
508.39	1261.55
508.59	1249.26
508.79	1269.74
508.99	1302.51
509.19	1259.50
509.39	1236.97
509.59	1267.69
509.79	1288.17
509.99	1320.94
510.19	1253.36
510.39	1296.36
510.59	1304.56
510.79	1249.26
510.99	1306.60
511.19	1361.90
511.39	1296.36
511.59	1286.12
511.79	1306.60
511.99	1304.56
512.19	1316.84
512.38	1320.94
512.58	1304.56
512.78	1302.51
512.98	1226.73
513.18	1341.42
513.38	1216.49
513.58	1257.45
513.78	1347.56
513.98	1208.30
514.18	1310.70
514.38	1327.08
514.58	1239.02
514.78	1329.13
514.98	1271.79
515.18	1325.04
515.38	1316.84
515.58	1284.08
515.78	1263.60
515.98	1296.36
516.18	1243.12
516.38	1216.49
516.57	1239.02
516.77	1263.60
516.97	1329.13
517.17	1253.36
517.37	1187.82
517.57	1314.80
517.77	1236.97
517.97	1279.98
518.17	1329.13
518.37	1247.21
518.57	1298.41
518.77	1277.93
518.97	1300.46
519.16	1271.79
519.36	1239.02
519.56	1253.36
519.76	1284.08
519.96	1198.06
520.16	1290.22
520.36	1333.23
520.56	1312.75
520.76	1230.83
520.96	1253.36
521.16	1304.56
521.35	1232.88
521.55	1322.99
521.75	1253.36
521.95	1339.37
522.15	1304.56
522.35	1284.08
522.55	1253.36
522.75	1325.04
522.95	1306.60
523.14	1236.97
523.34	1296.36
523.54	1241.07
523.74	1327.08
523.94	1363.95
524.14	1177.58
524.34	1251.31
524.54	1298.41
524.73	1361.90
524.93	1245.16
525.13	1322.99
525.33	1308.65
525.53	1269.74
525.73	1327.08
525.93	1290.22
526.13	1302.51
526.32	1296.36
526.52	1380.33
526.72	1345.52
526.92	1259.50
527.12	1302.51
527.32	1298.41
527.52	1232.88
527.71	1255.40
527.91	1261.55
528.11	1228.78
528.31	1314.80
528.51	1155.05
528.71	1234.93
528.90	1300.46
529.10	1277.93
529.30	1282.03
529.50	1232.88
529.70	1304.56
529.90	1359.85
530.09	1282.03
530.29	1288.17
530.49	1308.65
530.69	1265.64
530.89	1239.02
531.09	1292.27
531.28	1331.18
531.48	1282.03
531.68	1224.69
531.88	1294.32
532.08	1259.50
532.28	1243.12
532.47	1196.01
532.67	1271.79
532.87	1228.78
533.07	1222.64
533.27	1234.93
533.46	1331.18
533.66	1288.17
533.86	1255.40
534.06	1167.34
534.26	1273.84
534.45	1298.41
534.65	1261.55
534.85	1277.93
535.05	1275.88
535.25	1222.64
535.44	1275.88
535.64	1290.22
535.84	1261.55
536.04	1239.02
536.24	1325.04
536.43	1359.85
536.63	1288.17
536.83	1239.02
537.03	1275.88
537.22	1288.17
537.42	1271.79
537.62	1255.40
537.82	1343.47
538.02	1277.93
538.21	1196.01
538.41	1247.21
538.61	1347.56
538.81	1298.41
539.00	1284.08
539.20	1335.28
539.40	1296.36
539.60	1269.74
539.79	1314.80
539.99	1224.69
540.19	1257.45
540.39	1288.17
540.58	1298.41
540.78	1269.74
540.98	1335.28
541.18	1329.13
541.37	1288.17
541.57	1318.89
541.77	1316.84
541.97	1257.45
542.16	1243.12
542.36	1243.12
542.56	1222.64
542.76	1286.12
542.95	1312.75
543.15	1288.17
543.35	1290.22
543.54	1361.90
543.74	1239.02
543.94	1327.08
544.14	1265.64
544.33	1257.45
544.53	1255.40
544.73	1249.26
544.93	1239.02
545.12	1331.18
545.32	1308.65
545.52	1304.56
545.71	1269.74
545.91	1320.94
546.11	1234.93
546.30	1327.08
546.50	1277.93
546.70	1228.78
546.90	1204.21
547.09	1208.30
547.29	1306.60
547.49	1372.14
547.68	1243.12
547.88	1325.04
548.08	1255.40
548.27	1347.56
548.47	1341.42
548.67	1318.89
548.87	1265.64
549.06	1312.75
549.26	1279.98
549.46	1302.51
549.65	1296.36
549.85	1277.93
550.05	1359.85
550.24	1306.60
550.44	1347.56
550.64	1284.08
550.83	1361.90
551.03	1296.36
551.23	1263.60
551.42	1296.36
551.62	1322.99
551.82	1279.98
552.01	1251.31
552.21	1304.56
552.41	1269.74
552.60	1286.12
552.80	1241.07
553.00	1284.08
553.19	1239.02
553.39	1345.52
553.59	1277.93
553.78	1247.21
553.98	1292.27
554.17	1308.65
554.37	1218.54
554.57	1327.08
554.76	1294.32
554.96	1335.28
555.16	1282.03
555.35	1322.99
555.55	1322.99
555.75	1234.93
555.94	1273.84
556.14	1253.36
556.33	1298.41
556.53	1241.07
556.73	1298.41
556.92	1284.08
557.12	1294.32
557.32	1341.42
557.51	1304.56
557.71	1259.50
557.90	1300.46
558.10	1282.03
558.30	1265.64
558.49	1196.01
558.69	1312.75
558.88	1292.27
559.08	1282.03
559.28	1341.42
559.47	1316.84
559.67	1349.61
559.86	1320.94
560.06	1234.93
560.26	1363.95
560.45	1257.45
560.65	1318.89
560.84	1271.79
561.04	1257.45
561.24	1253.36
561.43	1265.64
561.63	1296.36
561.82	1292.27
562.02	1316.84
562.22	1310.70
562.41	1279.98
562.61	1245.16
562.80	1318.89
563.00	1232.88
563.19	1331.18
563.39	1273.84
563.59	1255.40
563.78	1284.08
563.98	1310.70
564.17	1265.64
564.37	1294.32
564.56	1312.75
564.76	1290.22
564.96	1322.99
565.15	1333.23
565.35	1314.80
565.54	1265.64
565.74	1290.22
565.93	1241.07
566.13	1257.45
566.32	1359.85
566.52	1292.27
566.71	1347.56
566.91	1286.12
567.11	1273.84
567.30	1267.69
567.50	1232.88
567.69	1279.98
567.89	1300.46
568.08	1353.71
568.28	1189.87
568.47	1282.03
568.67	1333.23
568.86	1230.83
569.06	1349.61
569.25	1267.69
569.45	1263.60
569.64	1284.08
569.84	1261.55
570.04	1300.46
570.23	1232.88
570.43	1337.32
570.62	1196.01
570.82	1306.60
571.01	1298.41
571.21	1312.75
571.40	1308.65
571.60	1241.07
571.79	1314.80
571.99	1310.70
572.18	1269.74
572.38	1241.07
572.57	1271.79
572.77	1267.69
572.96	1236.97
573.16	1249.26
573.35	1298.41
573.55	1370.09
573.74	1314.80
573.94	1255.40
574.13	1286.12
574.33	1220.59
574.52	1312.75
574.71	1294.32
574.91	1279.98
575.10	1312.75
575.30	1247.21
575.49	1265.64
575.69	1294.32
575.88	1300.46
576.08	1302.51
576.27	1304.56
576.47	1271.79
576.66	1347.56
576.86	1306.60
577.05	1218.54
577.25	1329.13
577.44	1306.60
577.64	1241.07
577.83	1333.23
578.02	1269.74
578.22	1284.08
578.41	1265.64
578.61	1314.80
578.80	1261.55
579.00	1273.84
579.19	1282.03
579.39	1296.36
579.58	1290.22
579.77	1343.47
579.97	1259.50
580.16	1333.23
580.36	1179.63
580.55	1304.56
580.75	1306.60
580.94	1273.84
581.13	1318.89
581.33	1277.93
581.52	1226.73
581.72	1234.93
581.91	1327.08
582.11	1224.69
582.30	1327.08
582.49	1331.18
582.69	1261.55
582.88	1263.60
583.08	1267.69
583.27	1343.47
583.47	1314.80
583.66	1310.70
583.85	1189.87
584.05	1284.08
584.24	1271.79
584.44	1245.16
584.63	1306.60
584.82	1298.41
585.02	1271.79
585.21	1320.94
585.41	1304.56
585.60	1314.80
585.79	1316.84
585.99	1261.55
586.18	1216.49
586.37	1308.65
586.57	1210.35
586.76	1265.64
586.96	1292.27
587.15	1275.88
587.34	1298.41
587.54	1247.21
587.73	1296.36
587.93	1277.93
588.12	1279.98
588.31	1247.21
588.51	1220.59
588.70	1292.27
588.89	1325.04
589.09	1271.79
589.28	1409.00
589.47	1255.40
589.67	1314.80
589.86	1345.52
590.06	1212.40
590.25	1198.06
590.44	1259.50
590.64	1337.32
590.83	1374.19
591.02	1355.76
591.22	1331.18
591.41	1284.08
591.60	1341.42
591.80	1310.70
591.99	1282.03
592.18	1273.84
592.38	1271.79
592.57	1257.45
592.76	1331.18
592.96	1222.64
593.15	1249.26
593.34	1318.89
593.54	1175.53
593.73	1249.26
593.92	1322.99
594.12	1306.60
594.31	1253.36
594.50	1245.16
594.70	1273.84
594.89	1275.88
595.08	1269.74
595.28	1263.60
595.47	1224.69
595.66	1232.88
595.86	1257.45
596.05	1312.75
596.24	1212.40
596.43	1277.93
596.63	1284.08
596.82	1302.51
597.01	1282.03
597.21	1306.60
597.40	1271.79
597.59	1290.22
597.79	1277.93
597.98	1308.65
598.17	1224.69
598.36	1208.30
598.56	1288.17
598.75	1290.22
598.94	1290.22
599.14	1247.21
599.33	1337.32
599.52	1263.60
599.71	1312.75
599.91	1288.17
600.10	1279.98
600.29	1253.36
600.48	1241.07
600.68	1265.64
600.87	1269.74
601.06	1247.21
601.26	1302.51
601.45	1277.93
601.64	1296.36
601.83	1327.08
602.03	1214.45
602.22	1363.95
602.41	1259.50
602.60	1298.41
602.80	1284.08
602.99	1298.41
603.18	1232.88
603.37	1320.94
603.57	1316.84
603.76	1290.22
603.95	1239.02
604.14	1314.80
604.34	1335.28
604.53	1345.52
604.72	1257.45
604.91	1288.17
605.10	1245.16
605.30	1277.93
605.49	1294.32
605.68	1286.12
605.87	1390.57
606.07	1212.40
606.26	1267.69
606.45	1304.56
606.64	1331.18
606.84	1257.45
607.03	1312.75
607.22	1296.36
607.41	1220.59
607.60	1329.13
607.80	1298.41
607.99	1275.88
608.18	1239.02
608.37	1261.55
608.56	1247.21
608.76	1253.36
608.95	1259.50
609.14	1337.32
609.33	1290.22
609.52	1282.03
609.72	1245.16
609.91	1255.40
610.10	1294.32
610.29	1234.93
610.48	1308.65
610.68	1312.75
610.87	1339.37
611.06	1368.04
611.25	1302.51
611.44	1361.90
611.63	1222.64
611.83	1374.19
612.02	1226.73
612.21	1279.98
612.40	1265.64
612.59	1308.65
612.79	1273.84
612.98	1329.13
613.17	1271.79
613.36	1312.75
613.55	1294.32
613.74	1331.18
613.93	1257.45
614.13	1288.17
614.32	1247.21
614.51	1306.60
614.70	1247.21
614.89	1308.65
615.08	1327.08
615.28	1298.41
615.47	1261.55
615.66	1296.36
615.85	1333.23
616.04	1310.70
616.23	1234.93
616.42	1294.32
616.62	1292.27
616.81	1333.23
617.00	1290.22
617.19	1261.55
617.38	1312.75
617.57	1325.04
617.76	1312.75
617.95	1257.45
618.15	1269.74
618.34	1275.88
618.53	1312.75
618.72	1288.17
618.91	1320.94
619.10	1230.83
619.29	1247.21
619.48	1288.17
619.68	1204.21
619.87	1265.64
620.06	1345.52
620.25	1288.17
620.44	1269.74
620.63	1220.59
620.82	1243.12
621.01	1261.55
621.20	1298.41
621.39	1349.61
621.59	1279.98
621.78	1249.26
621.97	1275.88
622.16	1337.32
622.35	1347.56
622.54	1230.83
622.73	1331.18
622.92	1327.08
623.11	1302.51
623.30	1318.89
623.49	1302.51
623.68	1290.22
623.88	1347.56
624.07	1288.17
624.26	1294.32
624.45	1308.65
624.64	1243.12
624.83	1329.13
625.02	1265.64
625.21	1335.28
625.40	1331.18
625.59	1245.16
625.78	1333.23
625.97	1304.56
626.16	1269.74
626.35	1333.23
626.54	1325.04
626.74	1302.51
626.93	1310.70
627.12	1314.80
627.31	1253.36
627.50	1325.04
627.69	1306.60
627.88	1290.22
628.07	1257.45
628.26	1290.22
628.45	1312.75
628.64	1249.26
628.83	1329.13
629.02	1306.60
629.21	1333.23
629.40	1277.93
629.59	1269.74
629.78	1341.42
629.97	1316.84
630.16	1310.70
630.35	1290.22
630.54	1353.71
630.73	1298.41
630.92	1271.79
631.11	1310.70
631.30	1314.80
631.49	1400.81
631.68	1368.04
631.87	1427.43
632.06	1427.43
632.25	1376.24
632.44	1425.39
632.63	1355.76
632.82	1470.44
633.01	1390.57
633.20	1368.04
633.39	1378.28
633.58	1445.87
633.77	1445.87
633.96	1359.85
634.15	1413.10
634.34	1466.35
634.53	1374.19
634.72	1388.52
634.91	1454.06
635.10	1423.34
635.29	1454.06
635.48	1437.67
635.67	1464.30
635.86	1443.82
636.05	1478.63
636.24	1423.34
636.43	1404.91
636.62	1456.11
636.81	1368.04
637.00	1437.67
637.19	1331.18
637.38	1376.24
637.57	1320.94
637.76	1339.37
637.95	1351.66
638.14	1341.42
638.33	1277.93
638.52	1316.84
638.71	1327.08
638.89	1298.41
639.08	1345.52
639.27	1257.45
639.46	1337.32
639.65	1339.37
639.84	1271.79
640.03	1196.01
640.22	1304.56
640.41	1351.66
640.60	1273.84
640.79	1269.74
640.98	1259.50
641.17	1279.98
641.36	1263.60
641.55	1327.08
641.74	1275.88
641.92	1337.32
642.11	1282.03
642.30	1249.26
642.49	1294.32
642.68	1222.64
642.87	1263.60
643.06	1349.61
643.25	1243.12
643.44	1193.97
643.63	1224.69
643.82	1253.36
644.00	1257.45
644.19	1269.74
644.38	1277.93
644.57	1314.80
644.76	1294.32
644.95	1210.35
645.14	1269.74
645.33	1310.70
645.52	1368.04
645.71	1241.07
645.89	1306.60
646.08	1267.69
646.27	1345.52
646.46	1304.56
646.65	1275.88
646.84	1290.22
647.03	1239.02
647.22	1257.45
647.40	1282.03
647.59	1290.22
647.78	1251.31
647.97	1322.99
648.16	1294.32
648.35	1261.55
648.54	1247.21
648.73	1265.64
648.91	1286.12
649.10	1306.60
649.29	1300.46
649.48	1296.36
649.67	1286.12
649.86	1316.84
650.05	1210.35
650.23	1263.60
650.42	1249.26
650.61	1337.32
650.80	1243.12
650.99	1306.60
651.18	1243.12
651.36	1230.83
651.55	1275.88
651.74	1273.84
651.93	1245.16
652.12	1273.84
652.31	1245.16
652.49	1265.64
652.68	1320.94
652.87	1265.64
653.06	1345.52
653.25	1351.66
653.44	1261.55
653.62	1304.56
653.81	1269.74
654.00	1208.30
654.19	1239.02
654.38	1343.47
654.56	1196.01
654.75	1247.21
654.94	1247.21
655.13	1273.84
655.32	1255.40
655.51	1226.73
655.69	1198.06
655.88	1249.26
656.07	1249.26
656.26	1308.65
656.45	1243.12
656.63	1239.02
656.82	1341.42
657.01	1255.40
657.20	1286.12
657.38	1290.22
657.57	1228.78
657.76	1314.80
657.95	1349.61
658.14	1269.74
658.32	1277.93
658.51	1302.51
658.70	1253.36
658.89	1306.60
659.08	1257.45
659.26	1241.07
659.45	1241.07
659.64	1241.07
659.83	1279.98
660.01	1337.32
660.20	1212.40
660.39	1335.28
660.58	1320.94
660.76	1234.93
660.95	1294.32
661.14	1279.98
661.33	1269.74
661.51	1228.78
661.70	1269.74
661.89	1290.22
662.08	1239.02
662.26	1241.07
662.45	1228.78
662.64	1275.88
662.83	1273.84
663.01	1275.88
663.20	1273.84
663.39	1269.74
663.58	1245.16
663.76	1208.30
663.95	1355.76
664.14	1277.93
664.32	1322.99
664.51	1320.94
664.70	1298.41
664.89	1265.64
665.07	1243.12
665.26	1290.22
665.45	1255.40
665.64	1284.08
665.82	1288.17
666.01	1191.92
666.20	1327.08
666.38	1243.12
666.57	1282.03
666.76	1316.84
666.95	1277.93
667.13	1308.65
667.32	1206.25
667.51	1298.41
667.69	1290.22
667.88	1300.46
668.07	1316.84
668.25	1382.38
668.44	1277.93
668.63	1279.98
668.81	1314.80
669.00	1261.55
669.19	1275.88
669.38	1314.80
669.56	1257.45
669.75	1282.03
669.94	1318.89
670.12	1308.65
670.31	1253.36
670.50	1290.22
670.68	1273.84
670.87	1329.13
671.06	1265.64
671.24	1212.40
671.43	1279.98
671.62	1273.84
671.80	1241.07
671.99	1284.08
672.18	1251.31
672.36	1269.74
672.55	1214.45
672.74	1251.31
672.92	1277.93
673.11	1300.46
673.29	1290.22
673.48	1267.69
673.67	1257.45
673.85	1329.13
674.04	1247.21
674.23	1282.03
674.41	1290.22
674.60	1241.07
674.79	1298.41
674.97	1267.69
675.16	1273.84
675.34	1298.41
675.53	1279.98
675.72	1312.75
675.90	1380.33
676.09	1255.40
676.28	1304.56
676.46	1259.50
676.65	1224.69
676.83	1247.21
677.02	1296.36
677.21	1261.55
677.39	1314.80
677.58	1273.84
677.77	1259.50
677.95	1288.17
678.14	1269.74
678.32	1175.53
678.51	1234.93
678.70	1288.17
678.88	1294.32
679.07	1286.12
679.25	1220.59
679.44	1284.08
679.63	1273.84
679.81	1357.80
680.00	1277.93
680.18	1269.74
680.37	1200.11
680.55	1249.26
680.74	1249.26
680.93	1251.31
681.11	1273.84
681.30	1396.71
681.48	1279.98
681.67	1193.97
681.85	1236.97
682.04	1251.31
682.23	1275.88
682.41	1216.49
682.60	1304.56
682.78	1232.88
682.97	1320.94
683.15	1361.90
683.34	1292.27
683.53	1271.79
683.71	1239.02
683.90	1257.45
684.08	1267.69
684.27	1236.97
684.45	1243.12
684.64	1292.27
684.82	1257.45
685.01	1265.64
685.19	1271.79
685.38	1320.94
685.57	1226.73
685.75	1320.94
685.94	1273.84
686.12	1277.93
686.31	1234.93
686.49	1247.21
686.68	1253.36
686.86	1236.97
687.05	1245.16
687.23	1200.11
687.42	1261.55
687.60	1296.36
687.79	1239.02
687.97	1304.56
688.16	1245.16
688.34	1306.60
688.53	1232.88
688.71	1269.74
688.90	1284.08
689.08	1241.07
689.27	1298.41
689.45	1284.08
689.64	1277.93
689.82	1320.94
690.01	1302.51
690.19	1267.69
690.38	1279.98
690.56	1306.60
690.75	1222.64
690.93	1275.88
691.12	1228.78
691.30	1327.08
691.49	1306.60
691.67	1175.53
691.86	1263.60
692.04	1245.16
692.23	1265.64
692.41	1282.03
692.60	1249.26
692.78	1286.12
692.97	1300.46
693.15	1288.17
693.34	1234.93
693.52	1300.46
693.71	1230.83
693.89	1284.08
694.08	1222.64
694.26	1296.36
694.44	1269.74
694.63	1265.64
694.81	1196.01
695.00	1275.88
695.18	1312.75
695.37	1288.17
695.55	1196.01
695.74	1230.83
695.92	1298.41
696.10	1232.88
696.29	1322.99
696.47	1273.84
696.66	1261.55
696.84	1269.74
697.03	1290.22
697.21	1292.27
697.40	1263.60
697.58	1245.16
697.76	1245.16
697.95	1157.10
698.13	1216.49
698.32	1243.12
698.50	1320.94
698.68	1282.03
698.87	1271.79
699.05	1318.89
699.24	1257.45
699.42	1320.94
699.61	1316.84
699.79	1224.69
699.97	1226.73
700.16	1290.22
700.34	1259.50
700.53	1306.60
700.71	1318.89
700.89	1269.74
701.08	1308.65
701.26	1359.85
701.45	1249.26
701.63	1255.40
701.81	1294.32
702.00	1251.31
702.18	1234.93
702.37	1308.65
702.55	1212.40
702.73	1279.98
702.92	1216.49
703.10	1228.78
703.28	1169.39
703.47	1249.26
703.65	1304.56
703.84	1294.32
704.02	1239.02
704.20	1341.42
704.39	1398.76
704.57	1279.98
704.75	1279.98
704.94	1220.59
705.12	1239.02
705.30	1290.22
705.49	1308.65
705.67	1249.26
705.86	1320.94
706.04	1314.80
706.22	1257.45
706.41	1300.46
706.59	1198.06
706.77	1353.71
706.96	1275.88
707.14	1249.26
707.32	1275.88
707.51	1263.60
707.69	1191.92
707.87	1304.56
708.06	1322.99
708.24	1284.08
708.42	1144.81
708.61	1339.37
708.79	1253.36
708.97	1296.36
709.16	1337.32
709.34	1257.45
709.52	1232.88
709.71	1269.74
709.89	1267.69
710.07	1271.79
710.26	1236.97
710.44	1296.36
710.62	1249.26
710.80	1282.03
710.99	1306.60
711.17	1298.41
711.35	1265.64
711.54	1312.75
711.72	1222.64
711.90	1327.08
712.09	1271.79
712.27	1241.07
712.45	1263.60
712.63	1273.84
712.82	1257.45
713.00	1300.46
713.18	1314.80
713.37	1298.41
713.55	1265.64
713.73	1265.64
713.91	1226.73
714.10	1265.64
714.28	1296.36
714.46	1228.78
714.65	1236.97
714.83	1300.46
715.01	1232.88
715.19	1345.52
715.38	1322.99
715.56	1243.12
715.74	1277.93
715.92	1249.26
716.11	1206.25
716.29	1329.13
716.47	1294.32
716.65	1249.26
716.84	1253.36
717.02	1204.21
717.20	1288.17
717.38	1245.16
717.57	1282.03
717.75	1247.21
717.93	1288.17
718.11	1333.23
718.30	1255.40
718.48	1316.84
718.66	1216.49
718.84	1220.59
719.03	1241.07
719.21	1312.75
719.39	1200.11
719.57	1265.64
719.75	1236.97
719.94	1327.08
720.12	1275.88
720.30	1157.10
720.48	1239.02
720.67	1277.93
720.85	1329.13
721.03	1290.22
721.21	1222.64
721.39	1322.99
721.58	1251.31
721.76	1294.32
721.94	1279.98
722.12	1222.64
722.30	1245.16
722.49	1265.64
722.67	1253.36
722.85	1198.06
723.03	1290.22
723.21	1347.56
723.40	1304.56
723.58	1267.69
723.76	1226.73
723.94	1261.55
724.12	1200.11
724.30	1282.03
724.49	1302.51
724.67	1343.47
724.85	1249.26
725.03	1249.26
725.21	1279.98
725.40	1239.02
725.58	1202.16
725.76	1269.74
725.94	1273.84
726.12	1294.32
726.30	1251.31
726.49	1271.79
726.67	1232.88
726.85	1298.41
727.03	1310.70
727.21	1212.40
727.39	1251.31
727.57	1253.36
727.76	1275.88
727.94	1288.17
728.12	1294.32
728.30	1290.22
728.48	1255.40
728.66	1265.64
728.84	1179.63
729.03	1277.93
729.21	1200.11
729.39	1259.50
729.57	1202.16
729.75	1265.64
729.93	1275.88
730.11	1310.70
730.30	1232.88
730.48	1269.74
730.66	1269.74
730.84	1257.45
731.02	1255.40
731.20	1329.13
731.38	1284.08
731.56	1357.80
731.74	1320.94
731.93	1271.79
732.11	1253.36
732.29	1241.07
732.47	1279.98
732.65	1224.69
732.83	1269.74
733.01	1277.93
733.19	1212.40
733.37	1271.79
733.56	1314.80
733.74	1294.32
733.92	1271.79
734.10	1337.32
734.28	1232.88
734.46	1286.12
734.64	1265.64
734.82	1316.84
735.00	1294.32
735.18	1261.55
735.36	1288.17
735.54	1239.02
735.73	1359.85
735.91	1239.02
736.09	1277.93
736.27	1226.73
736.45	1255.40
736.63	1320.94
736.81	1236.97
736.99	1294.32
737.17	1284.08
737.35	1263.60
737.53	1300.46
737.71	1265.64
737.89	1179.63
738.07	1279.98
738.25	1255.40
738.43	1245.16
738.61	1261.55
738.80	1224.69
738.98	1187.82
739.16	1298.41
739.34	1249.26
739.52	1290.22
739.70	1187.82
739.88	1212.40
740.06	1288.17
740.24	1294.32
740.42	1218.54
740.60	1247.21
740.78	1249.26
740.96	1269.74
741.14	1259.50
741.32	1263.60
741.50	1208.30
741.68	1257.45
741.86	1251.31
742.04	1271.79
742.22	1161.20
742.40	1298.41
742.58	1146.86
742.76	1282.03
742.94	1282.03
743.12	1284.08
743.30	1288.17
743.48	1286.12
743.66	1247.21
743.84	1243.12
744.02	1298.41
744.20	1296.36
744.38	1212.40
744.56	1236.97
744.74	1175.53
744.92	1261.55
745.10	1308.65
745.28	1269.74
745.46	1304.56
745.64	1224.69
745.82	1271.79
746.00	1302.51
746.18	1243.12
746.36	1249.26
746.54	1273.84
746.72	1253.36
746.90	1294.32
747.08	1243.12
747.26	1261.55
747.44	1314.80
747.62	1290.22
747.80	1228.78
747.98	1267.69
748.15	1288.17
748.33	1263.60
748.51	1259.50
748.69	1277.93
748.87	1239.02
749.05	1263.60
749.23	1304.56
749.41	1298.41
749.59	1232.88
749.77	1265.64
749.95	1224.69
750.13	1204.21
750.31	1271.79
750.49	1308.65
750.67	1298.41
750.85	1335.28
751.03	1294.32
751.20	1288.17
751.38	1249.26
751.56	1267.69
751.74	1245.16
751.92	1296.36
752.10	1230.83
752.28	1314.80
752.46	1222.64
752.64	1255.40
752.82	1275.88
753.00	1263.60
753.18	1320.94
753.35	1243.12
753.53	1269.74
753.71	1208.30
753.89	1257.45
754.07	1263.60
754.25	1310.70
754.43	1314.80
754.61	1318.89
754.79	1255.40
754.97	1351.66
755.14	1255.40
755.32	1224.69
755.50	1308.65
755.68	1200.11
755.86	1277.93
756.04	1249.26
756.22	1224.69
756.40	1245.16
756.57	1241.07
756.75	1239.02
756.93	1230.83
757.11	1306.60
757.29	1325.04
757.47	1333.23
757.65	1239.02
757.82	1263.60
758.00	1277.93
758.18	1267.69
758.36	1282.03
758.54	1288.17
758.72	1296.36
758.90	1243.12
759.07	1327.08
759.25	1241.07
759.43	1314.80
759.61	1345.52
759.79	1261.55
759.97	1282.03
760.15	1251.31
760.32	1249.26
760.50	1249.26
760.68	1279.98
760.86	1259.50
761.04	1220.59
761.22	1279.98
761.39	1271.79
761.57	1245.16
761.75	1234.93
761.93	1200.11
762.11	1271.79
762.28	1220.59
762.46	1253.36
762.64	1257.45
762.82	1232.88
763.00	1234.93
763.18	1279.98
763.35	1290.22
763.53	1224.69
763.71	1290.22
763.89	1212.40
764.07	1261.55
764.24	1290.22
764.42	1220.59
764.60	1257.45
764.78	1306.60
764.96	1230.83
765.13	1204.21
765.31	1206.25
765.49	1308.65
765.67	1327.08
765.84	1290.22
766.02	1142.77
766.20	1257.45
766.38	1271.79
766.56	1322.99
766.73	1316.84
766.91	1255.40
767.09	1296.36
767.27	1234.93
767.44	1243.12
767.62	1253.36
767.80	1304.56
767.98	1224.69
768.15	1286.12
768.33	1298.41
768.51	1294.32
768.69	1290.22
768.87	1288.17
769.04	1228.78
769.22	1267.69
769.40	1257.45
769.58	1331.18
769.75	1255.40
769.93	1189.87
770.11	1216.49
770.28	1296.36
770.46	1306.60
770.64	1273.84
770.82	1208.30
770.99	1216.49
771.17	1261.55
771.35	1255.40
771.53	1257.45
771.70	1296.36
771.88	1259.50
772.06	1224.69
772.23	1347.56
772.41	1286.12
772.59	1232.88
772.77	1288.17
772.94	1247.21
773.12	1261.55
773.30	1298.41
773.47	1290.22
773.65	1273.84
773.83	1298.41
774.01	1277.93
774.18	1288.17
774.36	1239.02
774.54	1226.73
774.71	1304.56
774.89	1239.02
775.07	1275.88
775.24	1241.07
775.42	1232.88
775.60	1282.03
775.78	1196.01
775.95	1247.21
776.13	1282.03
776.31	1230.83
776.48	1177.58
776.66	1261.55
776.84	1208.30
777.01	1322.99
777.19	1181.68
777.37	1304.56
777.54	1224.69
777.72	1277.93
777.90	1277.93
778.07	1284.08
778.25	1216.49
778.43	1314.80
778.60	1191.92
778.78	1234.93
778.96	1300.46
779.13	1282.03
779.31	1269.74
779.49	1279.98
779.66	1296.36
779.84	1279.98
780.01	1339.37
780.19	1277.93
780.37	1243.12
780.54	1335.28
780.72	1292.27
780.90	1208.30
781.07	1296.36
781.25	1292.27
781.43	1259.50
781.60	1273.84
781.78	1298.41
781.95	1282.03
782.13	1257.45
782.31	1253.36
782.48	1230.83
782.66	1241.07
782.83	1218.54
783.01	1282.03
783.19	1302.51
783.36	1376.24
783.54	1216.49
783.72	1265.64
783.89	1357.80
784.07	1261.55
784.24	1302.51
784.42	1271.79
784.60	1249.26
784.77	1316.84
784.95	1259.50
785.12	1241.07
785.30	1263.60
785.47	1298.41
785.65	1282.03
785.83	1275.88
786.00	1288.17
786.18	1308.65
786.35	1271.79
786.53	1257.45
786.71	1234.93
786.88	1325.04
787.06	1314.80
787.23	1269.74
787.41	1224.69
787.58	1247.21
787.76	1216.49
787.94	1206.25
788.11	1282.03
788.29	1282.03
788.46	1296.36
788.64	1255.40
788.81	1228.78
788.99	1290.22
789.16	1314.80
789.34	1251.31
789.52	1249.26
789.69	1236.97
789.87	1251.31
790.04	1290.22
790.22	1279.98
790.39	1322.99
790.57	1251.31
790.74	1187.82
790.92	1349.61
791.09	1378.28
791.27	1284.08
791.44	1292.27
791.62	1196.01
791.79	1288.17
791.97	1300.46
792.15	1355.76
792.32	1314.80
792.50	1263.60
792.67	1249.26
792.85	1314.80
793.02	1294.32
793.20	1245.16
793.37	1300.46
793.55	1320.94
793.72	1288.17
793.90	1189.87
794.07	1271.79
794.25	1284.08
794.42	1261.55
794.60	1255.40
794.77	1249.26
794.95	1269.74
795.12	1236.97
795.30	1247.21
795.47	1261.55
795.65	1288.17
795.82	1312.75
796.00	1232.88
796.17	1261.55
796.34	1318.89
796.52	1212.40
796.69	1241.07
796.87	1245.16
797.04	1239.02
797.22	1353.71
797.39	1208.30
797.57	1259.50
797.74	1255.40
797.92	1345.52
798.09	1220.59
798.27	1298.41
798.44	1265.64
798.62	1261.55
798.79	1212.40
798.96	1308.65
799.14	1259.50
799.31	1294.32
799.49	1290.22
799.66	1261.55
799.84	1249.26
800.01	1230.83
800.19	1261.55
800.36	1224.69
800.53	1232.88
800.71	1277.93
800.88	1263.60
801.06	1198.06
801.23	1251.31
801.41	1247.21
801.58	1198.06
801.75	1284.08
801.93	1310.70
802.10	1308.65
802.28	1216.49
802.45	1267.69
802.63	1222.64
802.80	1255.40
802.97	1261.55
803.15	1363.95
803.32	1286.12
803.50	1284.08
803.67	1298.41
803.84	1255.40
804.02	1261.55
804.19	1257.45
804.37	1249.26
804.54	1175.53
804.71	1322.99
804.89	1327.08
805.06	1318.89
805.24	1292.27
805.41	1263.60
805.58	1290.22
805.76	1241.07
805.93	1210.35
806.10	1253.36
806.28	1181.68
806.45	1257.45
806.63	1216.49
806.80	1296.36
806.97	1241.07
807.15	1230.83
807.32	1220.59
807.49	1265.64
807.67	1196.01
807.84	1263.60
808.01	1347.56
808.19	1269.74
808.36	1261.55
808.54	1310.70
808.71	1249.26
808.88	1298.41
809.06	1236.97
809.23	1222.64
809.40	1216.49
809.58	1241.07
809.75	1286.12
809.92	1261.55
810.10	1247.21
810.27	1314.80
810.44	1355.76
810.62	1306.60
810.79	1304.56
810.96	1292.27
811.14	1269.74
811.31	1279.98
811.48	1224.69
811.66	1200.11
811.83	1247.21
812.00	1314.80
812.18	1277.93
812.35	1329.13
812.52	1269.74
812.69	1314.80
812.87	1257.45
813.04	1232.88
813.21	1292.27
813.39	1296.36
813.56	1282.03
813.73	1247.21
813.91	1218.54
814.08	1292.27
814.25	1261.55
814.42	1224.69
814.60	1241.07
814.77	1314.80
814.94	1232.88
815.12	1273.84
815.29	1292.27
815.46	1288.17
815.63	1302.51
815.81	1243.12
815.98	1257.45
816.15	1245.16
816.33	1306.60
816.50	1212.40
816.67	1314.80
816.84	1263.60
817.02	1259.50
817.19	1279.98
817.36	1265.64
817.53	1259.50
817.71	1230.83
817.88	1288.17
818.05	1228.78
818.22	1279.98
818.40	1306.60
818.57	1257.45
818.74	1290.22
818.91	1298.41
819.09	1288.17
819.26	1222.64
819.43	1255.40
819.60	1257.45
819.78	1259.50
819.95	1251.31
820.12	1243.12
820.29	1314.80
820.47	1220.59
820.64	1302.51
820.81	1236.97
820.98	1247.21
821.15	1232.88
821.33	1353.71
821.50	1239.02
821.67	1216.49
821.84	1255.40
822.02	1320.94
822.19	1259.50
822.36	1224.69
822.53	1218.54
822.70	1302.51
822.88	1271.79
823.05	1290.22
823.22	1204.21
823.39	1306.60
823.56	1214.45
823.74	1230.83
823.91	1236.97
824.08	1284.08
824.25	1220.59
824.42	1232.88
824.60	1269.74
824.77	1183.73
824.94	1292.27
825.11	1245.16
825.28	1243.12
825.45	1279.98
825.63	1306.60
825.80	1298.41
825.97	1267.69
826.14	1177.58
826.31	1257.45
826.48	1224.69
826.66	1273.84
826.83	1222.64
827.00	1277.93
827.17	1296.36
827.34	1304.56
827.51	1288.17
827.69	1255.40
827.86	1157.10
828.03	1269.74
828.20	1212.40
828.37	1253.36
828.54	1261.55
828.71	1298.41
828.89	1304.56
829.06	1296.36
829.23	1341.42
829.40	1234.93
829.57	1236.97
829.74	1290.22
829.91	1216.49
830.09	1206.25
830.26	1329.13
830.43	1220.59
830.60	1245.16
830.77	1247.21
830.94	1253.36
831.11	1253.36
831.28	1222.64
831.46	1304.56
831.63	1251.31
831.80	1226.73
831.97	1220.59
832.14	1277.93
832.31	1292.27
832.48	1284.08
832.65	1298.41
832.82	1265.64
832.99	1288.17
833.17	1243.12
833.34	1226.73
833.51	1284.08
833.68	1277.93
833.85	1259.50
834.02	1282.03
834.19	1327.08
834.36	1339.37
834.53	1290.22
834.70	1232.88
834.87	1290.22
835.04	1288.17
835.22	1245.16
835.39	1269.74
835.56	1284.08
835.73	1243.12
835.90	1206.25
836.07	1228.78
836.24	1220.59
836.41	1253.36
836.58	1263.60
836.75	1255.40
836.92	1269.74
837.09	1265.64
837.26	1218.54
837.43	1302.51
837.60	1191.92
837.77	1304.56
837.94	1236.97
838.12	1290.22
838.29	1202.16
838.46	1257.45
838.63	1196.01
838.80	1249.26
838.97	1265.64
839.14	1368.04
839.31	1294.32
839.48	1327.08
839.65	1218.54
839.82	1259.50
839.99	1210.35
840.16	1253.36
840.33	1206.25
840.50	1302.51
840.67	1249.26
840.84	1282.03
841.01	1198.06
841.18	1267.69
841.35	1282.03
841.52	1351.66
841.69	1216.49
841.86	1236.97
842.03	1277.93
842.20	1257.45
842.37	1284.08
842.54	1175.53
842.71	1251.31
842.88	1271.79
843.05	1361.90
843.22	1322.99
843.39	1200.11
843.56	1198.06
843.73	1255.40
843.90	1257.45
844.07	1271.79
844.24	1275.88
844.41	1318.89
844.58	1292.27
844.75	1234.93
844.92	1265.64
845.09	1263.60
845.26	1224.69
845.43	1302.51
845.60	1288.17
845.77	1222.64
845.94	1226.73
846.10	1271.79
846.27	1302.51
846.44	1261.55
846.61	1245.16
846.78	1220.59
846.95	1316.84
847.12	1302.51
847.29	1142.77
847.46	1255.40
847.63	1259.50
847.80	1279.98
847.97	1249.26
848.14	1286.12
848.31	1267.69
848.48	1210.35
848.65	1226.73
848.82	1312.75
848.98	1372.14
849.15	1327.08
849.32	1226.73
849.49	1327.08
849.66	1263.60
849.83	1296.36
850.00	1273.84
850.17	1288.17
850.34	1275.88
850.51	1275.88
850.68	1198.06
850.85	1206.25
851.01	1230.83
851.18	1318.89
851.35	1277.93
851.52	1243.12
851.69	1265.64
851.86	1271.79
852.03	1239.02
852.20	1279.98
852.37	1304.56
852.53	1253.36
852.70	1257.45
852.87	1300.46
853.04	1253.36
853.21	1214.45
853.38	1333.23
853.55	1183.73
853.72	1275.88
853.89	1243.12
854.05	1269.74
854.22	1294.32
854.39	1279.98
854.56	1288.17
854.73	1279.98
854.90	1320.94
855.07	1310.70
855.23	1234.93
855.40	1189.87
855.57	1275.88
855.74	1204.21
855.91	1253.36
856.08	1282.03
856.25	1284.08
856.41	1325.04
856.58	1216.49
856.75	1347.56
856.92	1230.83
857.09	1226.73
857.26	1306.60
857.42	1261.55
857.59	1273.84
857.76	1290.22
857.93	1296.36
858.10	1236.97
858.27	1245.16
858.43	1269.74
858.60	1298.41
858.77	1259.50
858.94	1271.79
859.11	1282.03
859.27	1226.73
859.44	1316.84
859.61	1243.12
859.78	1245.16
859.95	1230.83
860.12	1292.27
860.28	1298.41
860.45	1329.13
860.62	1294.32
860.79	1261.55
860.95	1265.64
861.12	1298.41
861.29	1245.16
861.46	1279.98
861.63	1255.40
861.79	1288.17
861.96	1234.93
862.13	1302.51
862.30	1265.64
862.47	1263.60
862.63	1253.36
862.80	1314.80
862.97	1236.97
863.14	1226.73
863.30	1308.65
863.47	1241.07
863.64	1314.80
863.81	1202.16
863.97	1245.16
864.14	1245.16
864.31	1308.65
864.48	1251.31
864.65	1183.73
864.81	1337.32
864.98	1269.74
865.15	1193.97
865.32	1292.27
865.48	1302.51
865.65	1308.65
865.82	1269.74
865.98	1224.69
866.15	1220.59
866.32	1226.73
866.49	1345.52
866.65	1255.40
866.82	1279.98
866.99	1226.73
867.16	1286.12
867.32	1300.46
867.49	1282.03
867.66	1220.59
867.83	1261.55
867.99	1265.64
868.16	1200.11
868.33	1261.55
868.49	1314.80
868.66	1187.82
868.83	1333.23
868.99	1220.59
869.16	1232.88
869.33	1294.32
869.50	1210.35
869.66	1271.79
869.83	1290.22
870.00	1251.31
870.16	1277.93
870.33	1282.03
870.50	1310.70
870.66	1267.69
870.83	1224.69
871.00	1310.70
871.17	1253.36
871.33	1282.03
871.50	1279.98
871.67	1296.36
871.83	1279.98
872.00	1224.69
872.17	1200.11
872.33	1302.51
872.50	1327.08
872.67	1265.64
872.83	1302.51
873.00	1277.93
873.17	1210.35
873.33	1279.98
873.50	1245.16
873.67	1239.02
873.83	1298.41
874.00	1243.12
874.16	1331.18
874.33	1243.12
874.50	1282.03
874.66	1257.45
874.83	1267.69
875.00	1210.35
875.16	1368.04
875.33	1294.32
875.50	1257.45
875.66	1290.22
875.83	1267.69
875.99	1302.51
876.16	1277.93
876.33	1271.79
876.49	1304.56
876.66	1253.36
876.83	1306.60
876.99	1257.45
877.16	1294.32
877.32	1337.32
877.49	1292.27
877.66	1241.07
877.82	1314.80
877.99	1310.70
878.15	1222.64
878.32	1314.80
878.49	1239.02
878.65	1204.21
878.82	1320.94
878.98	1261.55
879.15	1185.77
879.32	1302.51
879.48	1273.84
879.65	1292.27
879.81	1314.80
879.98	1230.83
880.15	1230.83
880.31	1257.45
880.48	1265.64
880.64	1187.82
880.81	1159.15
880.97	1245.16
881.14	1333.23
881.31	1263.60
881.47	1263.60
881.64	1236.97
881.80	1255.40
881.97	1265.64
882.13	1273.84
882.30	1218.54
882.47	1232.88
882.63	1253.36
882.80	1249.26
882.96	1300.46
883.13	1214.45
883.29	1302.51
883.46	1245.16
883.62	1265.64
883.79	1230.83
883.95	1214.45
884.12	1261.55
884.29	1282.03
884.45	1230.83
884.62	1191.92
884.78	1279.98
884.95	1325.04
885.11	1308.65
885.28	1271.79
885.44	1243.12
885.61	1245.16
885.77	1308.65
885.94	1269.74
886.10	1292.27
886.27	1202.16
886.43	1335.28
886.60	1265.64
886.76	1251.31
886.93	1275.88
887.09	1224.69
887.26	1275.88
887.42	1216.49
887.59	1251.31
887.75	1271.79
887.92	1222.64
888.08	1249.26
888.25	1271.79
888.41	1222.64
888.58	1216.49
888.74	1249.26
888.91	1275.88
>>>>>End Processed Spectral Data<<<<<
