SpectraSuite Data File
++++++++++++++++++++++++++++++++++++
Date: Sun Apr 03 19:55:40 CEST 2016
User: root
Dark Spectrum Present: No
Reference Spectrum Present: No
Number of Sampled Component Spectra: 1
Spectrometers: USB4C02835
Integration Time (usec): 10000 (USB4C02835)
Spectra Averaged: 1 (USB4C02835)
Boxcar Smoothing: 0 (USB4C02835)
Correct for Electrical Dark: No (USB4C02835)
Strobe/Lamp Enabled: No (USB4C02835)
Correct for Detector Non-linearity: No (USB4C02835)
Correct for Stray Light: No (USB4C02835)
Number of Pixels in Processed Spectrum: 3648
>>>>>Begin Processed Spectral Data<<<<<
177.47	1245.16
177.69	1245.16
177.91	1245.16
178.13	1222.64
178.36	1193.97
178.58	1282.03
178.80	1243.12
179.02	1169.39
179.24	1228.78
179.46	1247.21
179.68	1282.03
179.90	1185.77
180.13	1232.88
180.35	1296.36
180.57	1300.46
180.79	1265.64
181.01	1249.26
181.23	1329.13
181.45	1284.08
181.67	1253.36
181.90	1277.93
182.12	1322.99
182.34	1243.12
182.56	1275.88
182.78	1290.22
183.00	1226.73
183.22	1331.18
183.44	1292.27
183.66	1241.07
183.89	1253.36
184.11	1249.26
184.33	1245.16
184.55	1314.80
184.77	1253.36
184.99	1249.26
185.21	1185.77
185.43	1298.41
185.65	1230.83
185.87	1200.11
186.10	1228.78
186.32	1275.88
186.54	1339.37
186.76	1277.93
186.98	1275.88
187.20	1277.93
187.42	1298.41
187.64	1249.26
187.86	1243.12
188.08	1239.02
188.30	1232.88
188.52	1265.64
188.75	1294.32
188.97	1200.11
189.19	1312.75
189.41	1277.93
189.63	1279.98
189.85	1247.21
190.07	1288.17
190.29	1253.36
190.51	1218.54
190.73	1249.26
190.95	1185.77
191.17	1187.82
191.39	1267.69
191.61	1288.17
191.84	1325.04
192.06	1189.87
192.28	1193.97
192.50	1337.32
192.72	1263.60
192.94	1232.88
193.16	1228.78
193.38	1204.21
193.60	1253.36
193.82	1271.79
194.04	1271.79
194.26	1222.64
194.48	1236.97
194.70	1282.03
194.92	1257.45
195.14	1312.75
195.36	1251.31
195.58	1296.36
195.80	1253.36
196.02	1204.21
196.24	1214.45
196.46	1282.03
196.69	1322.99
196.91	1372.14
197.13	1273.84
197.35	1271.79
197.57	1273.84
197.79	1300.46
198.01	1187.82
198.23	1267.69
198.45	1275.88
198.67	1249.26
198.89	1257.45
199.11	1316.84
199.33	1259.50
199.55	1222.64
199.77	1216.49
199.99	1208.30
200.21	1245.16
200.43	1286.12
200.65	1292.27
200.87	1277.93
201.09	1226.73
201.31	1210.35
201.53	1308.65
201.75	1247.21
201.97	1234.93
202.19	1198.06
202.41	1279.98
202.63	1261.55
202.85	1298.41
203.07	1314.80
203.29	1294.32
203.51	1304.56
203.73	1261.55
203.95	1257.45
204.17	1261.55
204.39	1277.93
204.61	1333.23
204.83	1282.03
205.05	1241.07
205.27	1253.36
205.49	1261.55
205.71	1273.84
205.93	1208.30
206.15	1320.94
206.37	1245.16
206.59	1310.70
206.81	1267.69
207.03	1257.45
207.25	1269.74
207.47	1259.50
207.69	1222.64
207.91	1257.45
208.13	1265.64
208.34	1212.40
208.56	1271.79
208.78	1216.49
209.00	1314.80
209.22	1257.45
209.44	1247.21
209.66	1273.84
209.88	1322.99
210.10	1259.50
210.32	1200.11
210.54	1292.27
210.76	1247.21
210.98	1306.60
211.20	1339.37
211.42	1253.36
211.64	1282.03
211.86	1183.73
212.08	1249.26
212.30	1304.56
212.52	1288.17
212.74	1314.80
212.96	1222.64
213.17	1243.12
213.39	1187.82
213.61	1196.01
213.83	1189.87
214.05	1251.31
214.27	1279.98
214.49	1279.98
214.71	1210.35
214.93	1206.25
215.15	1247.21
215.37	1161.20
215.59	1271.79
215.81	1320.94
216.03	1259.50
216.24	1335.28
216.46	1253.36
216.68	1226.73
216.90	1218.54
217.12	1265.64
217.34	1310.70
217.56	1183.73
217.78	1249.26
218.00	1292.27
218.22	1200.11
218.44	1255.40
218.66	1294.32
218.87	1296.36
219.09	1243.12
219.31	1193.97
219.53	1193.97
219.75	1290.22
219.97	1253.36
220.19	1314.80
220.41	1232.88
220.63	1234.93
220.85	1290.22
221.06	1275.88
221.28	1314.80
221.50	1251.31
221.72	1222.64
221.94	1314.80
222.16	1273.84
222.38	1304.56
222.60	1253.36
222.82	1239.02
223.03	1247.21
223.25	1228.78
223.47	1294.32
223.69	1290.22
223.91	1277.93
224.13	1212.40
224.35	1290.22
224.57	1263.60
224.78	1247.21
225.00	1271.79
225.22	1236.97
225.44	1169.39
225.66	1265.64
225.88	1261.55
226.10	1245.16
226.32	1265.64
226.53	1228.78
226.75	1294.32
226.97	1286.12
227.19	1290.22
227.41	1263.60
227.63	1294.32
227.85	1243.12
228.06	1220.59
228.28	1239.02
228.50	1288.17
228.72	1181.68
228.94	1239.02
229.16	1257.45
229.37	1341.42
229.59	1216.49
229.81	1218.54
230.03	1234.93
230.25	1249.26
230.47	1312.75
230.69	1271.79
230.90	1208.30
231.12	1286.12
231.34	1167.34
231.56	1247.21
231.78	1224.69
232.00	1329.13
232.21	1273.84
232.43	1292.27
232.65	1277.93
232.87	1257.45
233.09	1269.74
233.30	1224.69
233.52	1339.37
233.74	1271.79
233.96	1253.36
234.18	1275.88
234.40	1265.64
234.61	1224.69
234.83	1277.93
235.05	1245.16
235.27	1282.03
235.49	1257.45
235.70	1331.18
235.92	1314.80
236.14	1331.18
236.36	1216.49
236.58	1236.97
236.79	1253.36
237.01	1306.60
237.23	1343.47
237.45	1249.26
237.67	1214.45
237.88	1279.98
238.10	1300.46
238.32	1279.98
238.54	1220.59
238.76	1275.88
238.97	1241.07
239.19	1261.55
239.41	1284.08
239.63	1261.55
239.85	1288.17
240.06	1232.88
240.28	1181.68
240.50	1224.69
240.72	1249.26
240.93	1193.97
241.15	1220.59
241.37	1277.93
241.59	1277.93
241.81	1239.02
242.02	1218.54
242.24	1253.36
242.46	1306.60
242.68	1239.02
242.89	1314.80
243.11	1322.99
243.33	1271.79
243.55	1275.88
243.76	1308.65
243.98	1312.75
244.20	1290.22
244.42	1277.93
244.64	1239.02
244.85	1304.56
245.07	1298.41
245.29	1304.56
245.51	1177.58
245.72	1212.40
245.94	1277.93
246.16	1146.86
246.38	1271.79
246.59	1247.21
246.81	1310.70
247.03	1304.56
247.24	1134.57
247.46	1218.54
247.68	1257.45
247.90	1288.17
248.11	1212.40
248.33	1286.12
248.55	1288.17
248.77	1363.95
248.98	1306.60
249.20	1261.55
249.42	1327.08
249.64	1224.69
249.85	1271.79
250.07	1325.04
250.29	1234.93
250.50	1208.30
250.72	1298.41
250.94	1255.40
251.16	1310.70
251.37	1257.45
251.59	1294.32
251.81	1257.45
252.02	1284.08
252.24	1273.84
252.46	1286.12
252.68	1224.69
252.89	1200.11
253.11	1345.52
253.33	1271.79
253.54	1302.51
253.76	1249.26
253.98	1245.16
254.20	1234.93
254.41	1224.69
254.63	1282.03
254.85	1282.03
255.06	1302.51
255.28	1261.55
255.50	1273.84
255.71	1245.16
255.93	1234.93
256.15	1251.31
256.36	1337.32
256.58	1206.25
256.80	1294.32
257.02	1294.32
257.23	1193.97
257.45	1286.12
257.67	1191.92
257.88	1320.94
258.10	1232.88
258.32	1279.98
258.53	1277.93
258.75	1273.84
258.97	1212.40
259.18	1320.94
259.40	1282.03
259.62	1294.32
259.83	1359.85
260.05	1257.45
260.27	1263.60
260.48	1253.36
260.70	1265.64
260.92	1290.22
261.13	1312.75
261.35	1208.30
261.57	1322.99
261.78	1286.12
262.00	1271.79
262.22	1259.50
262.43	1318.89
262.65	1241.07
262.86	1236.97
263.08	1275.88
263.30	1228.78
263.51	1206.25
263.73	1267.69
263.95	1222.64
264.16	1263.60
264.38	1292.27
264.60	1290.22
264.81	1222.64
265.03	1290.22
265.25	1275.88
265.46	1247.21
265.68	1282.03
265.89	1251.31
266.11	1265.64
266.33	1282.03
266.54	1249.26
266.76	1263.60
266.98	1284.08
267.19	1228.78
267.41	1271.79
267.62	1259.50
267.84	1247.21
268.06	1257.45
268.27	1284.08
268.49	1310.70
268.70	1318.89
268.92	1316.84
269.14	1310.70
269.35	1261.55
269.57	1239.02
269.79	1286.12
270.00	1290.22
270.22	1249.26
270.43	1257.45
270.65	1290.22
270.87	1247.21
271.08	1290.22
271.30	1294.32
271.51	1294.32
271.73	1253.36
271.95	1267.69
272.16	1245.16
272.38	1253.36
272.59	1200.11
272.81	1296.36
273.02	1261.55
273.24	1245.16
273.46	1318.89
273.67	1279.98
273.89	1228.78
274.10	1226.73
274.32	1292.27
274.54	1249.26
274.75	1245.16
274.97	1243.12
275.18	1204.21
275.40	1255.40
275.61	1265.64
275.83	1329.13
276.05	1296.36
276.26	1296.36
276.48	1279.98
276.69	1304.56
276.91	1263.60
277.12	1226.73
277.34	1214.45
277.55	1320.94
277.77	1325.04
277.99	1271.79
278.20	1239.02
278.42	1218.54
278.63	1282.03
278.85	1257.45
279.06	1294.32
279.28	1271.79
279.49	1222.64
279.71	1300.46
279.93	1339.37
280.14	1290.22
280.36	1292.27
280.57	1259.50
280.79	1220.59
281.00	1267.69
281.22	1216.49
281.43	1239.02
281.65	1224.69
281.86	1241.07
282.08	1312.75
282.29	1249.26
282.51	1249.26
282.73	1355.76
282.94	1245.16
283.16	1230.83
283.37	1241.07
283.59	1265.64
283.80	1259.50
284.02	1304.56
284.23	1236.97
284.45	1222.64
284.66	1261.55
284.88	1230.83
285.09	1241.07
285.31	1259.50
285.52	1271.79
285.74	1279.98
285.95	1290.22
286.17	1216.49
286.38	1263.60
286.60	1239.02
286.81	1241.07
287.03	1263.60
287.24	1181.68
287.46	1198.06
287.67	1255.40
287.89	1271.79
288.10	1222.64
288.32	1288.17
288.53	1191.92
288.75	1273.84
288.96	1325.04
289.18	1202.16
289.39	1296.36
289.61	1286.12
289.82	1230.83
290.04	1277.93
290.25	1251.31
290.47	1261.55
290.68	1230.83
290.90	1284.08
291.11	1257.45
291.33	1296.36
291.54	1292.27
291.76	1257.45
291.97	1345.52
292.18	1308.65
292.40	1273.84
292.61	1224.69
292.83	1318.89
293.04	1308.65
293.26	1273.84
293.47	1282.03
293.69	1288.17
293.90	1247.21
294.12	1296.36
294.33	1265.64
294.55	1261.55
294.76	1265.64
294.97	1327.08
295.19	1282.03
295.40	1247.21
295.62	1294.32
295.83	1251.31
296.05	1282.03
296.26	1271.79
296.48	1239.02
296.69	1259.50
296.90	1259.50
297.12	1257.45
297.33	1325.04
297.55	1228.78
297.76	1308.65
297.98	1288.17
298.19	1263.60
298.41	1288.17
298.62	1265.64
298.83	1263.60
299.05	1263.60
299.26	1277.93
299.48	1230.83
299.69	1259.50
299.90	1314.80
300.12	1212.40
300.33	1296.36
300.55	1249.26
300.76	1265.64
300.98	1302.51
301.19	1286.12
301.40	1267.69
301.62	1257.45
301.83	1302.51
302.05	1263.60
302.26	1300.46
302.47	1325.04
302.69	1247.21
302.90	1255.40
303.12	1257.45
303.33	1263.60
303.54	1296.36
303.76	1284.08
303.97	1302.51
304.19	1241.07
304.40	1241.07
304.61	1296.36
304.83	1224.69
305.04	1243.12
305.26	1196.01
305.47	1204.21
305.68	1331.18
305.90	1314.80
306.11	1200.11
306.33	1288.17
306.54	1294.32
306.75	1257.45
306.97	1206.25
307.18	1208.30
307.39	1308.65
307.61	1218.54
307.82	1255.40
308.04	1271.79
308.25	1288.17
308.46	1206.25
308.68	1265.64
308.89	1284.08
309.10	1236.97
309.32	1325.04
309.53	1308.65
309.74	1257.45
309.96	1222.64
310.17	1271.79
310.39	1337.32
310.60	1273.84
310.81	1243.12
311.03	1204.21
311.24	1208.30
311.45	1292.27
311.67	1265.64
311.88	1232.88
312.09	1296.36
312.31	1351.66
312.52	1329.13
312.73	1304.56
312.95	1277.93
313.16	1267.69
313.37	1361.90
313.59	1267.69
313.80	1259.50
314.01	1224.69
314.23	1277.93
314.44	1249.26
314.65	1269.74
314.87	1239.02
315.08	1265.64
315.29	1255.40
315.51	1261.55
315.72	1298.41
315.93	1277.93
316.15	1310.70
316.36	1339.37
316.57	1245.16
316.79	1257.45
317.00	1228.78
317.21	1302.51
317.43	1220.59
317.64	1294.32
317.85	1320.94
318.07	1306.60
318.28	1255.40
318.49	1296.36
318.70	1290.22
318.92	1353.71
319.13	1245.16
319.34	1265.64
319.56	1255.40
319.77	1251.31
319.98	1208.30
320.20	1230.83
320.41	1331.18
320.62	1277.93
320.83	1236.97
321.05	1196.01
321.26	1216.49
321.47	1193.97
321.69	1261.55
321.90	1204.21
322.11	1224.69
322.32	1265.64
322.54	1263.60
322.75	1216.49
322.96	1331.18
323.18	1290.22
323.39	1167.34
323.60	1214.45
323.81	1298.41
324.03	1265.64
324.24	1224.69
324.45	1325.04
324.66	1232.88
324.88	1312.75
325.09	1245.16
325.30	1290.22
325.52	1257.45
325.73	1230.83
325.94	1247.21
326.15	1308.65
326.37	1312.75
326.58	1335.28
326.79	1216.49
327.00	1277.93
327.22	1222.64
327.43	1290.22
327.64	1228.78
327.85	1202.16
328.07	1335.28
328.28	1290.22
328.49	1228.78
328.70	1282.03
328.92	1263.60
329.13	1279.98
329.34	1286.12
329.55	1284.08
329.76	1206.25
329.98	1294.32
330.19	1275.88
330.40	1269.74
330.61	1310.70
330.83	1224.69
331.04	1224.69
331.25	1249.26
331.46	1314.80
331.68	1269.74
331.89	1286.12
332.10	1232.88
332.31	1290.22
332.52	1279.98
332.74	1349.61
332.95	1267.69
333.16	1247.21
333.37	1333.23
333.58	1267.69
333.80	1277.93
334.01	1288.17
334.22	1265.64
334.43	1239.02
334.64	1253.36
334.86	1279.98
335.07	1212.40
335.28	1304.56
335.49	1310.70
335.70	1273.84
335.92	1296.36
336.13	1259.50
336.34	1335.28
336.55	1277.93
336.76	1312.75
336.98	1230.83
337.19	1282.03
337.40	1298.41
337.61	1308.65
337.82	1257.45
338.04	1259.50
338.25	1286.12
338.46	1312.75
338.67	1241.07
338.88	1261.55
339.09	1263.60
339.31	1257.45
339.52	1239.02
339.73	1224.69
339.94	1216.49
340.15	1241.07
340.36	1249.26
340.58	1263.60
340.79	1236.97
341.00	1302.51
341.21	1282.03
341.42	1232.88
341.63	1239.02
341.85	1232.88
342.06	1275.88
342.27	1226.73
342.48	1214.45
342.69	1216.49
342.90	1236.97
343.12	1269.74
343.33	1265.64
343.54	1290.22
343.75	1347.56
343.96	1316.84
344.17	1236.97
344.38	1257.45
344.60	1216.49
344.81	1214.45
345.02	1234.93
345.23	1302.51
345.44	1257.45
345.65	1304.56
345.86	1277.93
346.07	1234.93
346.29	1292.27
346.50	1327.08
346.71	1298.41
346.92	1236.97
347.13	1275.88
347.34	1271.79
347.55	1251.31
347.76	1239.02
347.98	1308.65
348.19	1267.69
348.40	1263.60
348.61	1204.21
348.82	1198.06
349.03	1269.74
349.24	1341.42
349.45	1302.51
349.66	1220.59
349.88	1325.04
350.09	1306.60
350.30	1234.93
350.51	1247.21
350.72	1282.03
350.93	1273.84
351.14	1220.59
351.35	1298.41
351.56	1212.40
351.77	1271.79
351.99	1298.41
352.20	1282.03
352.41	1273.84
352.62	1298.41
352.83	1230.83
353.04	1236.97
353.25	1263.60
353.46	1318.89
353.67	1253.36
353.88	1259.50
354.09	1290.22
354.30	1306.60
354.52	1282.03
354.73	1306.60
354.94	1261.55
355.15	1214.45
355.36	1218.54
355.57	1259.50
355.78	1232.88
355.99	1277.93
356.20	1253.36
356.41	1269.74
356.62	1282.03
356.83	1277.93
357.04	1292.27
357.25	1236.97
357.46	1322.99
357.68	1243.12
357.89	1247.21
358.10	1269.74
358.31	1294.32
358.52	1263.60
358.73	1236.97
358.94	1208.30
359.15	1208.30
359.36	1269.74
359.57	1294.32
359.78	1288.17
359.99	1261.55
360.20	1298.41
360.41	1263.60
360.62	1265.64
360.83	1204.21
361.04	1304.56
361.25	1173.49
361.46	1300.46
361.67	1214.45
361.88	1282.03
362.09	1279.98
362.30	1210.35
362.51	1257.45
362.72	1251.31
362.93	1263.60
363.14	1282.03
363.35	1325.04
363.56	1298.41
363.78	1245.16
363.99	1320.94
364.20	1277.93
364.41	1312.75
364.62	1329.13
364.83	1249.26
365.04	1241.07
365.25	1243.12
365.46	1282.03
365.67	1218.54
365.88	1279.98
366.09	1292.27
366.30	1298.41
366.51	1265.64
366.72	1370.09
366.93	1310.70
367.14	1253.36
367.35	1351.66
367.56	1273.84
367.77	1312.75
367.98	1245.16
368.18	1269.74
368.39	1275.88
368.60	1263.60
368.81	1345.52
369.02	1200.11
369.23	1224.69
369.44	1298.41
369.65	1298.41
369.86	1220.59
370.07	1202.16
370.28	1277.93
370.49	1302.51
370.70	1228.78
370.91	1214.45
371.12	1318.89
371.33	1228.78
371.54	1298.41
371.75	1243.12
371.96	1300.46
372.17	1193.97
372.38	1218.54
372.59	1275.88
372.80	1267.69
373.01	1351.66
373.22	1298.41
373.43	1257.45
373.64	1265.64
373.85	1228.78
374.06	1304.56
374.26	1318.89
374.47	1263.60
374.68	1275.88
374.89	1241.07
375.10	1220.59
375.31	1339.37
375.52	1234.93
375.73	1249.26
375.94	1275.88
376.15	1312.75
376.36	1230.83
376.57	1251.31
376.78	1343.47
376.99	1249.26
377.20	1355.76
377.40	1345.52
377.61	1318.89
377.82	1251.31
378.03	1282.03
378.24	1294.32
378.45	1245.16
378.66	1286.12
378.87	1173.49
379.08	1253.36
379.29	1202.16
379.50	1288.17
379.71	1245.16
379.91	1275.88
380.12	1327.08
380.33	1267.69
380.54	1245.16
380.75	1277.93
380.96	1214.45
381.17	1298.41
381.38	1271.79
381.59	1292.27
381.80	1181.68
382.00	1208.30
382.21	1259.50
382.42	1282.03
382.63	1306.60
382.84	1247.21
383.05	1279.98
383.26	1290.22
383.47	1155.05
383.68	1236.97
383.88	1325.04
384.09	1269.74
384.30	1257.45
384.51	1179.63
384.72	1302.51
384.93	1241.07
385.14	1294.32
385.35	1320.94
385.55	1322.99
385.76	1265.64
385.97	1294.32
386.18	1308.65
386.39	1208.30
386.60	1247.21
386.81	1290.22
387.02	1236.97
387.22	1236.97
387.43	1206.25
387.64	1265.64
387.85	1372.14
388.06	1249.26
388.27	1282.03
388.48	1329.13
388.68	1282.03
388.89	1241.07
389.10	1251.31
389.31	1296.36
389.52	1308.65
389.73	1310.70
389.93	1329.13
390.14	1284.08
390.35	1320.94
390.56	1232.88
390.77	1261.55
390.98	1239.02
391.18	1331.18
391.39	1261.55
391.60	1269.74
391.81	1306.60
392.02	1282.03
392.23	1279.98
392.43	1232.88
392.64	1277.93
392.85	1275.88
393.06	1157.10
393.27	1243.12
393.47	1247.21
393.68	1214.45
393.89	1263.60
394.10	1302.51
394.31	1243.12
394.52	1247.21
394.72	1343.47
394.93	1169.39
395.14	1222.64
395.35	1230.83
395.56	1277.93
395.76	1183.73
395.97	1245.16
396.18	1294.32
396.39	1294.32
396.60	1337.32
396.80	1290.22
397.01	1218.54
397.22	1347.56
397.43	1212.40
397.64	1222.64
397.84	1255.40
398.05	1290.22
398.26	1263.60
398.47	1208.30
398.67	1255.40
398.88	1288.17
399.09	1177.58
399.30	1275.88
399.51	1253.36
399.71	1277.93
399.92	1220.59
400.13	1261.55
400.34	1257.45
400.54	1259.50
400.75	1290.22
400.96	1357.80
401.17	1263.60
401.37	1335.28
401.58	1226.73
401.79	1257.45
402.00	1279.98
402.21	1296.36
402.41	1273.84
402.62	1243.12
402.83	1175.53
403.04	1216.49
403.24	1243.12
403.45	1273.84
403.66	1257.45
403.87	1257.45
404.07	1249.26
404.28	1263.60
404.49	1253.36
404.70	1210.35
404.90	1263.60
405.11	1249.26
405.32	1279.98
405.52	1241.07
405.73	1257.45
405.94	1288.17
406.15	1273.84
406.35	1282.03
406.56	1222.64
406.77	1222.64
406.98	1222.64
407.18	1224.69
407.39	1314.80
407.60	1265.64
407.80	1357.80
408.01	1259.50
408.22	1249.26
408.43	1306.60
408.63	1212.40
408.84	1277.93
409.05	1331.18
409.25	1308.65
409.46	1236.97
409.67	1325.04
409.88	1269.74
410.08	1255.40
410.29	1263.60
410.50	1306.60
410.70	1253.36
410.91	1243.12
411.12	1333.23
411.32	1296.36
411.53	1312.75
411.74	1232.88
411.95	1198.06
412.15	1234.93
412.36	1228.78
412.57	1245.16
412.77	1255.40
412.98	1259.50
413.19	1251.31
413.39	1290.22
413.60	1249.26
413.81	1273.84
414.01	1282.03
414.22	1216.49
414.43	1325.04
414.63	1243.12
414.84	1265.64
415.05	1241.07
415.25	1228.78
415.46	1257.45
415.67	1304.56
415.87	1208.30
416.08	1288.17
416.29	1185.77
416.49	1310.70
416.70	1247.21
416.91	1228.78
417.11	1339.37
417.32	1253.36
417.53	1318.89
417.73	1251.31
417.94	1261.55
418.15	1243.12
418.35	1294.32
418.56	1310.70
418.77	1267.69
418.97	1216.49
419.18	1267.69
419.38	1282.03
419.59	1249.26
419.80	1320.94
420.00	1271.79
420.21	1292.27
420.42	1265.64
420.62	1294.32
420.83	1234.93
421.04	1196.01
421.24	1120.24
421.45	1306.60
421.65	1273.84
421.86	1343.47
422.07	1236.97
422.27	1265.64
422.48	1214.45
422.69	1259.50
422.89	1263.60
423.10	1255.40
423.30	1241.07
423.51	1247.21
423.72	1300.46
423.92	1241.07
424.13	1236.97
424.33	1322.99
424.54	1251.31
424.75	1193.97
424.95	1322.99
425.16	1282.03
425.36	1279.98
425.57	1345.52
425.78	1241.07
425.98	1314.80
426.19	1300.46
426.39	1331.18
426.60	1232.88
426.81	1288.17
427.01	1255.40
427.22	1271.79
427.42	1314.80
427.63	1263.60
427.83	1261.55
428.04	1241.07
428.25	1243.12
428.45	1337.32
428.66	1216.49
428.86	1204.21
429.07	1263.60
429.28	1253.36
429.48	1288.17
429.69	1308.65
429.89	1239.02
430.10	1357.80
430.30	1302.51
430.51	1226.73
430.71	1214.45
430.92	1290.22
431.13	1292.27
431.33	1249.26
431.54	1282.03
431.74	1265.64
431.95	1230.83
432.15	1253.36
432.36	1255.40
432.56	1230.83
432.77	1273.84
432.98	1282.03
433.18	1259.50
433.39	1255.40
433.59	1232.88
433.80	1271.79
434.00	1216.49
434.21	1298.41
434.41	1257.45
434.62	1273.84
434.82	1220.59
435.03	1239.02
435.23	1294.32
435.44	1273.84
435.64	1269.74
435.85	1261.55
436.06	1302.51
436.26	1218.54
436.47	1206.25
436.67	1325.04
436.88	1249.26
437.08	1193.97
437.29	1265.64
437.49	1249.26
437.70	1271.79
437.90	1255.40
438.11	1271.79
438.31	1392.62
438.52	1247.21
438.72	1296.36
438.93	1245.16
439.13	1286.12
439.34	1333.23
439.54	1261.55
439.75	1337.32
439.95	1284.08
440.16	1339.37
440.36	1269.74
440.57	1300.46
440.77	1296.36
440.98	1368.04
441.18	1316.84
441.39	1298.41
441.59	1251.31
441.80	1306.60
442.00	1322.99
442.21	1232.88
442.41	1279.98
442.62	1275.88
442.82	1282.03
443.02	1312.75
443.23	1230.83
443.43	1234.93
443.64	1200.11
443.84	1282.03
444.05	1282.03
444.25	1300.46
444.46	1200.11
444.66	1245.16
444.87	1327.08
445.07	1267.69
445.28	1288.17
445.48	1265.64
445.69	1261.55
445.89	1255.40
446.09	1327.08
446.30	1288.17
446.50	1310.70
446.71	1175.53
446.91	1282.03
447.12	1150.96
447.32	1306.60
447.53	1286.12
447.73	1271.79
447.93	1335.28
448.14	1243.12
448.34	1318.89
448.55	1259.50
448.75	1286.12
448.96	1294.32
449.16	1327.08
449.36	1366.00
449.57	1282.03
449.77	1345.52
449.98	1349.61
450.18	1296.36
450.39	1290.22
450.59	1341.42
450.79	1279.98
451.00	1259.50
451.20	1304.56
451.41	1277.93
451.61	1269.74
451.81	1296.36
452.02	1249.26
452.22	1263.60
452.43	1263.60
452.63	1212.40
452.84	1271.79
453.04	1226.73
453.24	1269.74
453.45	1284.08
453.65	1325.04
453.86	1322.99
454.06	1273.84
454.26	1298.41
454.47	1245.16
454.67	1265.64
454.87	1288.17
455.08	1230.83
455.28	1236.97
455.49	1298.41
455.69	1286.12
455.89	1224.69
456.10	1265.64
456.30	1253.36
456.51	1251.31
456.71	1251.31
456.91	1245.16
457.12	1325.04
457.32	1290.22
457.52	1228.78
457.73	1228.78
457.93	1290.22
458.14	1243.12
458.34	1271.79
458.54	1253.36
458.75	1298.41
458.95	1255.40
459.15	1288.17
459.36	1249.26
459.56	1239.02
459.76	1239.02
459.97	1304.56
460.17	1284.08
460.37	1339.37
460.58	1245.16
460.78	1327.08
460.99	1230.83
461.19	1234.93
461.39	1232.88
461.60	1220.59
461.80	1263.60
462.00	1329.13
462.21	1298.41
462.41	1257.45
462.61	1259.50
462.82	1263.60
463.02	1232.88
463.22	1304.56
463.43	1300.46
463.63	1343.47
463.83	1236.97
464.04	1224.69
464.24	1279.98
464.44	1298.41
464.64	1290.22
464.85	1325.04
465.05	1349.61
465.25	1261.55
465.46	1277.93
465.66	1327.08
465.86	1249.26
466.07	1304.56
466.27	1275.88
466.47	1298.41
466.68	1296.36
466.88	1273.84
467.08	1230.83
467.29	1302.51
467.49	1234.93
467.69	1286.12
467.89	1306.60
468.10	1257.45
468.30	1314.80
468.50	1245.16
468.71	1251.31
468.91	1187.82
469.11	1298.41
469.31	1288.17
469.52	1314.80
469.72	1286.12
469.92	1277.93
470.13	1232.88
470.33	1306.60
470.53	1320.94
470.73	1253.36
470.94	1277.93
471.14	1249.26
471.34	1267.69
471.54	1228.78
471.75	1249.26
471.95	1300.46
472.15	1300.46
472.36	1216.49
472.56	1302.51
472.76	1226.73
472.96	1308.65
473.17	1300.46
473.37	1331.18
473.57	1322.99
473.77	1304.56
473.98	1220.59
474.18	1316.84
474.38	1232.88
474.58	1279.98
474.79	1277.93
474.99	1257.45
475.19	1245.16
475.39	1216.49
475.60	1261.55
475.80	1298.41
476.00	1165.29
476.20	1282.03
476.41	1279.98
476.61	1339.37
476.81	1249.26
477.01	1277.93
477.21	1261.55
477.42	1228.78
477.62	1216.49
477.82	1224.69
478.02	1212.40
478.23	1214.45
478.43	1302.51
478.63	1241.07
478.83	1269.74
479.03	1279.98
479.24	1257.45
479.44	1277.93
479.64	1216.49
479.84	1212.40
480.04	1251.31
480.25	1277.93
480.45	1259.50
480.65	1263.60
480.85	1304.56
481.06	1177.58
481.26	1261.55
481.46	1232.88
481.66	1271.79
481.86	1294.32
482.06	1273.84
482.27	1224.69
482.47	1271.79
482.67	1249.26
482.87	1275.88
483.07	1241.07
483.28	1247.21
483.48	1290.22
483.68	1282.03
483.88	1253.36
484.08	1249.26
484.29	1259.50
484.49	1318.89
484.69	1241.07
484.89	1294.32
485.09	1292.27
485.29	1230.83
485.50	1196.01
485.70	1265.64
485.90	1224.69
486.10	1294.32
486.30	1261.55
486.50	1257.45
486.71	1230.83
486.91	1222.64
487.11	1261.55
487.31	1296.36
487.51	1249.26
487.71	1265.64
487.91	1165.29
488.12	1292.27
488.32	1214.45
488.52	1247.21
488.72	1228.78
488.92	1265.64
489.12	1251.31
489.32	1204.21
489.53	1279.98
489.73	1284.08
489.93	1304.56
490.13	1265.64
490.33	1241.07
490.53	1296.36
490.73	1277.93
490.94	1275.88
491.14	1312.75
491.34	1259.50
491.54	1329.13
491.74	1298.41
491.94	1294.32
492.14	1304.56
492.34	1269.74
492.54	1331.18
492.75	1271.79
492.95	1316.84
493.15	1304.56
493.35	1296.36
493.55	1239.02
493.75	1257.45
493.95	1265.64
494.15	1277.93
494.35	1292.27
494.56	1302.51
494.76	1224.69
494.96	1224.69
495.16	1247.21
495.36	1251.31
495.56	1249.26
495.76	1277.93
495.96	1232.88
496.16	1302.51
496.36	1208.30
496.56	1325.04
496.77	1228.78
496.97	1296.36
497.17	1255.40
497.37	1275.88
497.57	1236.97
497.77	1265.64
497.97	1253.36
498.17	1345.52
498.37	1271.79
498.57	1208.30
498.77	1267.69
498.97	1329.13
499.17	1308.65
499.38	1312.75
499.58	1216.49
499.78	1331.18
499.98	1277.93
500.18	1298.41
500.38	1255.40
500.58	1286.12
500.78	1218.54
500.98	1255.40
501.18	1241.07
501.38	1193.97
501.58	1320.94
501.78	1296.36
501.98	1279.98
502.18	1275.88
502.38	1327.08
502.58	1320.94
502.78	1284.08
502.98	1265.64
503.18	1271.79
503.38	1318.89
503.59	1269.74
503.79	1310.70
503.99	1279.98
504.19	1241.07
504.39	1245.16
504.59	1325.04
504.79	1314.80
504.99	1288.17
505.19	1243.12
505.39	1316.84
505.59	1277.93
505.79	1271.79
505.99	1277.93
506.19	1253.36
506.39	1320.94
506.59	1224.69
506.79	1271.79
506.99	1316.84
507.19	1216.49
507.39	1249.26
507.59	1310.70
507.79	1302.51
507.99	1267.69
508.19	1247.21
508.39	1249.26
508.59	1251.31
508.79	1306.60
508.99	1290.22
509.19	1310.70
509.39	1275.88
509.59	1277.93
509.79	1290.22
509.99	1304.56
510.19	1378.28
510.39	1339.37
510.59	1294.32
510.79	1312.75
510.99	1212.40
511.19	1273.84
511.39	1300.46
511.59	1312.75
511.79	1265.64
511.99	1236.97
512.19	1265.64
512.38	1310.70
512.58	1306.60
512.78	1296.36
512.98	1232.88
513.18	1333.23
513.38	1247.21
513.58	1302.51
513.78	1271.79
513.98	1290.22
514.18	1310.70
514.38	1191.92
514.58	1312.75
514.78	1269.74
514.98	1292.27
515.18	1341.42
515.38	1265.64
515.58	1275.88
515.78	1224.69
515.98	1318.89
516.18	1273.84
516.38	1308.65
516.57	1167.34
516.77	1331.18
516.97	1286.12
517.17	1320.94
517.37	1312.75
517.57	1372.14
517.77	1251.31
517.97	1239.02
518.17	1292.27
518.37	1230.83
518.57	1232.88
518.77	1314.80
518.97	1294.32
519.16	1304.56
519.36	1306.60
519.56	1310.70
519.76	1269.74
519.96	1236.97
520.16	1327.08
520.36	1265.64
520.56	1175.53
520.76	1265.64
520.96	1230.83
521.16	1288.17
521.35	1339.37
521.55	1320.94
521.75	1294.32
521.95	1273.84
522.15	1290.22
522.35	1261.55
522.55	1290.22
522.75	1263.60
522.95	1296.36
523.14	1363.95
523.34	1277.93
523.54	1257.45
523.74	1310.70
523.94	1310.70
524.14	1300.46
524.34	1271.79
524.54	1310.70
524.73	1325.04
524.93	1302.51
525.13	1259.50
525.33	1349.61
525.53	1347.56
525.73	1265.64
525.93	1241.07
526.13	1286.12
526.32	1312.75
526.52	1271.79
526.72	1370.09
526.92	1275.88
527.12	1257.45
527.32	1249.26
527.52	1282.03
527.71	1282.03
527.91	1296.36
528.11	1220.59
528.31	1304.56
528.51	1253.36
528.71	1196.01
528.90	1273.84
529.10	1267.69
529.30	1206.25
529.50	1282.03
529.70	1314.80
529.90	1241.07
530.09	1284.08
530.29	1263.60
530.49	1230.83
530.69	1253.36
530.89	1239.02
531.09	1249.26
531.28	1275.88
531.48	1314.80
531.68	1298.41
531.88	1312.75
532.08	1288.17
532.28	1267.69
532.47	1308.65
532.67	1290.22
532.87	1314.80
533.07	1316.84
533.27	1288.17
533.46	1363.95
533.66	1245.16
533.86	1359.85
534.06	1275.88
534.26	1290.22
534.45	1245.16
534.65	1257.45
534.85	1187.82
535.05	1273.84
535.25	1261.55
535.44	1210.35
535.64	1239.02
535.84	1236.97
536.04	1255.40
536.24	1302.51
536.43	1312.75
536.63	1294.32
536.83	1243.12
537.03	1263.60
537.22	1284.08
537.42	1265.64
537.62	1273.84
537.82	1214.45
538.02	1327.08
538.21	1306.60
538.41	1296.36
538.61	1232.88
538.81	1294.32
539.00	1341.42
539.20	1300.46
539.40	1263.60
539.60	1312.75
539.79	1345.52
539.99	1275.88
540.19	1302.51
540.39	1335.28
540.58	1286.12
540.78	1249.26
540.98	1331.18
541.18	1273.84
541.37	1279.98
541.57	1345.52
541.77	1353.71
541.97	1255.40
542.16	1161.20
542.36	1247.21
542.56	1271.79
542.76	1282.03
542.95	1359.85
543.15	1282.03
543.35	1257.45
543.54	1308.65
543.74	1277.93
543.94	1302.51
544.14	1372.14
544.33	1292.27
544.53	1230.83
544.73	1310.70
544.93	1265.64
545.12	1347.56
545.32	1212.40
545.52	1261.55
545.71	1292.27
545.91	1261.55
546.11	1265.64
546.30	1212.40
546.50	1241.07
546.70	1353.71
546.90	1314.80
547.09	1286.12
547.29	1234.93
547.49	1339.37
547.68	1279.98
547.88	1310.70
548.08	1249.26
548.27	1292.27
548.47	1271.79
548.67	1353.71
548.87	1304.56
549.06	1347.56
549.26	1325.04
549.46	1292.27
549.65	1329.13
549.85	1257.45
550.05	1273.84
550.24	1265.64
550.44	1296.36
550.64	1282.03
550.83	1210.35
551.03	1282.03
551.23	1273.84
551.42	1296.36
551.62	1302.51
551.82	1212.40
552.01	1277.93
552.21	1294.32
552.41	1239.02
552.60	1302.51
552.80	1263.60
553.00	1253.36
553.19	1294.32
553.39	1284.08
553.59	1355.76
553.78	1257.45
553.98	1320.94
554.17	1228.78
554.37	1200.11
554.57	1269.74
554.76	1277.93
554.96	1329.13
555.16	1322.99
555.35	1327.08
555.55	1263.60
555.75	1249.26
555.94	1290.22
556.14	1304.56
556.33	1355.76
556.53	1269.74
556.73	1249.26
556.92	1259.50
557.12	1181.68
557.32	1363.95
557.51	1224.69
557.71	1269.74
557.90	1318.89
558.10	1288.17
558.30	1271.79
558.49	1243.12
558.69	1273.84
558.88	1275.88
559.08	1257.45
559.28	1310.70
559.47	1271.79
559.67	1279.98
559.86	1288.17
560.06	1273.84
560.26	1327.08
560.45	1277.93
560.65	1343.47
560.84	1245.16
561.04	1279.98
561.24	1300.46
561.43	1294.32
561.63	1310.70
561.82	1304.56
562.02	1306.60
562.22	1290.22
562.41	1329.13
562.61	1314.80
562.80	1222.64
563.00	1230.83
563.19	1261.55
563.39	1329.13
563.59	1265.64
563.78	1259.50
563.98	1298.41
564.17	1259.50
564.37	1245.16
564.56	1275.88
564.76	1292.27
564.96	1312.75
565.15	1335.28
565.35	1316.84
565.54	1343.47
565.74	1249.26
565.93	1329.13
566.13	1251.31
566.32	1322.99
566.52	1308.65
566.71	1234.93
566.91	1241.07
567.11	1257.45
567.30	1386.47
567.50	1298.41
567.69	1300.46
567.89	1304.56
568.08	1163.25
568.28	1236.97
568.47	1310.70
568.67	1284.08
568.86	1325.04
569.06	1239.02
569.25	1361.90
569.45	1298.41
569.64	1406.95
569.84	1284.08
570.04	1247.21
570.23	1286.12
570.43	1290.22
570.62	1253.36
570.82	1341.42
571.01	1282.03
571.21	1277.93
571.40	1208.30
571.60	1312.75
571.79	1333.23
571.99	1294.32
572.18	1271.79
572.38	1306.60
572.57	1282.03
572.77	1288.17
572.96	1263.60
573.16	1265.64
573.35	1198.06
573.55	1349.61
573.74	1308.65
573.94	1337.32
574.13	1300.46
574.33	1253.36
574.52	1247.21
574.71	1314.80
574.91	1222.64
575.10	1308.65
575.30	1245.16
575.49	1253.36
575.69	1298.41
575.88	1271.79
576.08	1306.60
576.27	1329.13
576.47	1310.70
576.66	1294.32
576.86	1306.60
577.05	1292.27
577.25	1279.98
577.44	1273.84
577.64	1335.28
577.83	1314.80
578.02	1196.01
578.22	1310.70
578.41	1284.08
578.61	1269.74
578.80	1267.69
579.00	1259.50
579.19	1382.38
579.39	1370.09
579.58	1310.70
579.77	1241.07
579.97	1247.21
580.16	1308.65
580.36	1282.03
580.55	1329.13
580.75	1320.94
580.94	1224.69
581.13	1200.11
581.33	1279.98
581.52	1232.88
581.72	1239.02
581.91	1204.21
582.11	1290.22
582.30	1259.50
582.49	1286.12
582.69	1212.40
582.88	1312.75
583.08	1288.17
583.27	1325.04
583.47	1304.56
583.66	1314.80
583.85	1232.88
584.05	1239.02
584.24	1290.22
584.44	1286.12
584.63	1232.88
584.82	1347.56
585.02	1333.23
585.21	1271.79
585.41	1286.12
585.60	1331.18
585.79	1253.36
585.99	1345.52
586.18	1265.64
586.37	1308.65
586.57	1282.03
586.76	1249.26
586.96	1277.93
587.15	1271.79
587.34	1308.65
587.54	1304.56
587.73	1265.64
587.93	1253.36
588.12	1267.69
588.31	1298.41
588.51	1290.22
588.70	1288.17
588.89	1294.32
589.09	1320.94
589.28	1271.79
589.47	1306.60
589.67	1286.12
589.86	1288.17
590.06	1259.50
590.25	1228.78
590.44	1222.64
590.64	1302.51
590.83	1255.40
591.02	1304.56
591.22	1284.08
591.41	1288.17
591.60	1257.45
591.80	1277.93
591.99	1277.93
592.18	1284.08
592.38	1255.40
592.57	1306.60
592.76	1286.12
592.96	1255.40
593.15	1282.03
593.34	1318.89
593.54	1261.55
593.73	1300.46
593.92	1298.41
594.12	1273.84
594.31	1234.93
594.50	1302.51
594.70	1300.46
594.89	1245.16
595.08	1302.51
595.28	1320.94
595.47	1257.45
595.66	1255.40
595.86	1251.31
596.05	1402.86
596.24	1290.22
596.43	1228.78
596.63	1230.83
596.82	1335.28
597.01	1277.93
597.21	1290.22
597.40	1277.93
597.59	1259.50
597.79	1312.75
597.98	1314.80
598.17	1210.35
598.36	1279.98
598.56	1275.88
598.75	1322.99
598.94	1298.41
599.14	1372.14
599.33	1318.89
599.52	1261.55
599.71	1339.37
599.91	1224.69
600.10	1200.11
600.29	1216.49
600.48	1288.17
600.68	1216.49
600.87	1245.16
601.06	1357.80
601.26	1304.56
601.45	1247.21
601.64	1263.60
601.83	1261.55
602.03	1245.16
602.22	1249.26
602.41	1273.84
602.60	1253.36
602.80	1265.64
602.99	1300.46
603.18	1273.84
603.37	1261.55
603.57	1239.02
603.76	1296.36
603.95	1257.45
604.14	1306.60
604.34	1288.17
604.53	1271.79
604.72	1263.60
604.91	1329.13
605.10	1257.45
605.30	1265.64
605.49	1361.90
605.68	1294.32
605.87	1351.66
606.07	1286.12
606.26	1302.51
606.45	1269.74
606.64	1286.12
606.84	1236.97
607.03	1251.31
607.22	1236.97
607.41	1290.22
607.60	1275.88
607.80	1204.21
607.99	1327.08
608.18	1232.88
608.37	1275.88
608.56	1320.94
608.76	1345.52
608.95	1322.99
609.14	1265.64
609.33	1269.74
609.52	1316.84
609.72	1247.21
609.91	1298.41
610.10	1241.07
610.29	1267.69
610.48	1267.69
610.68	1284.08
610.87	1236.97
611.06	1263.60
611.25	1245.16
611.44	1263.60
611.63	1312.75
611.83	1310.70
612.02	1249.26
612.21	1286.12
612.40	1208.30
612.59	1282.03
612.79	1265.64
612.98	1257.45
613.17	1265.64
613.36	1286.12
613.55	1249.26
613.74	1296.36
613.93	1339.37
614.13	1236.97
614.32	1320.94
614.51	1273.84
614.70	1214.45
614.89	1279.98
615.08	1325.04
615.28	1265.64
615.47	1335.28
615.66	1296.36
615.85	1314.80
616.04	1253.36
616.23	1275.88
616.42	1357.80
616.62	1255.40
616.81	1292.27
617.00	1273.84
617.19	1251.31
617.38	1259.50
617.57	1187.82
617.76	1286.12
617.95	1265.64
618.15	1249.26
618.34	1296.36
618.53	1286.12
618.72	1306.60
618.91	1320.94
619.10	1304.56
619.29	1253.36
619.48	1298.41
619.68	1214.45
619.87	1335.28
620.06	1273.84
620.25	1304.56
620.44	1230.83
620.63	1284.08
620.82	1325.04
621.01	1300.46
621.20	1298.41
621.39	1304.56
621.59	1265.64
621.78	1249.26
621.97	1298.41
622.16	1296.36
622.35	1210.35
622.54	1263.60
622.73	1273.84
622.92	1253.36
623.11	1255.40
623.30	1357.80
623.49	1333.23
623.68	1292.27
623.88	1316.84
624.07	1259.50
624.26	1314.80
624.45	1327.08
624.64	1257.45
624.83	1357.80
625.02	1314.80
625.21	1239.02
625.40	1349.61
625.59	1228.78
625.78	1335.28
625.97	1335.28
626.16	1286.12
626.35	1269.74
626.54	1361.90
626.74	1294.32
626.93	1304.56
627.12	1347.56
627.31	1269.74
627.50	1322.99
627.69	1335.28
627.88	1304.56
628.07	1265.64
628.26	1273.84
628.45	1234.93
628.64	1277.93
628.83	1239.02
629.02	1277.93
629.21	1277.93
629.40	1357.80
629.59	1234.93
629.78	1333.23
629.97	1275.88
630.16	1316.84
630.35	1214.45
630.54	1288.17
630.73	1316.84
630.92	1302.51
631.11	1273.84
631.30	1247.21
631.49	1320.94
631.68	1374.19
631.87	1470.44
632.06	1660.90
632.25	1499.11
632.44	1591.27
632.63	1673.19
632.82	2138.08
633.01	4079.55
633.20	3397.58
633.39	2985.94
633.58	2172.89
633.77	2772.95
633.96	3979.20
634.15	4487.10
634.34	3956.68
634.53	3049.43
634.72	2234.33
634.91	1884.13
635.10	1708.01
635.29	1546.22
635.48	1517.54
635.67	1454.06
635.86	1439.72
636.05	1423.34
636.24	1327.08
636.43	1452.01
636.62	1296.36
636.81	1302.51
637.00	1316.84
637.19	1335.28
637.38	1286.12
637.57	1279.98
637.76	1318.89
637.95	1308.65
638.14	1353.71
638.33	1331.18
638.52	1286.12
638.71	1277.93
638.89	1290.22
639.08	1296.36
639.27	1366.00
639.46	1339.37
639.65	1290.22
639.84	1284.08
640.03	1284.08
640.22	1306.60
640.41	1286.12
640.60	1239.02
640.79	1296.36
640.98	1327.08
641.17	1325.04
641.36	1261.55
641.55	1337.32
641.74	1257.45
641.92	1263.60
642.11	1279.98
642.30	1298.41
642.49	1253.36
642.68	1253.36
642.87	1284.08
643.06	1329.13
643.25	1298.41
643.44	1267.69
643.63	1279.98
643.82	1277.93
644.00	1241.07
644.19	1361.90
644.38	1355.76
644.57	1269.74
644.76	1236.97
644.95	1239.02
645.14	1290.22
645.33	1282.03
645.52	1341.42
645.71	1263.60
645.89	1284.08
646.08	1304.56
646.27	1208.30
646.46	1222.64
646.65	1279.98
646.84	1300.46
647.03	1271.79
647.22	1314.80
647.40	1322.99
647.59	1216.49
647.78	1245.16
647.97	1294.32
648.16	1302.51
648.35	1314.80
648.54	1245.16
648.73	1337.32
648.91	1271.79
649.10	1286.12
649.29	1292.27
649.48	1318.89
649.67	1263.60
649.86	1343.47
650.05	1265.64
650.23	1251.31
650.42	1312.75
650.61	1263.60
650.80	1318.89
650.99	1210.35
651.18	1232.88
651.36	1173.49
651.55	1308.65
651.74	1259.50
651.93	1286.12
652.12	1288.17
652.31	1271.79
652.49	1249.26
652.68	1298.41
652.87	1263.60
653.06	1277.93
653.25	1359.85
653.44	1263.60
653.62	1273.84
653.81	1284.08
654.00	1232.88
654.19	1286.12
654.38	1265.64
654.56	1341.42
654.75	1327.08
654.94	1288.17
655.13	1320.94
655.32	1294.32
655.51	1294.32
655.69	1302.51
655.88	1288.17
656.07	1349.61
656.26	1165.29
656.45	1267.69
656.63	1353.71
656.82	1257.45
657.01	1312.75
657.20	1286.12
657.38	1286.12
657.57	1325.04
657.76	1312.75
657.95	1241.07
658.14	1277.93
658.32	1331.18
658.51	1292.27
658.70	1298.41
658.89	1275.88
659.08	1306.60
659.26	1314.80
659.45	1232.88
659.64	1329.13
659.83	1290.22
660.01	1255.40
660.20	1218.54
660.39	1282.03
660.58	1204.21
660.76	1327.08
660.95	1265.64
661.14	1277.93
661.33	1279.98
661.51	1306.60
661.70	1255.40
661.89	1265.64
662.08	1234.93
662.26	1359.85
662.45	1212.40
662.64	1255.40
662.83	1236.97
663.01	1249.26
663.20	1236.97
663.39	1282.03
663.58	1271.79
663.76	1292.27
663.95	1294.32
664.14	1232.88
664.32	1220.59
664.51	1249.26
664.70	1290.22
664.89	1271.79
665.07	1306.60
665.26	1249.26
665.45	1279.98
665.64	1294.32
665.82	1284.08
666.01	1255.40
666.20	1286.12
666.38	1302.51
666.57	1292.27
666.76	1230.83
666.95	1198.06
667.13	1290.22
667.32	1271.79
667.51	1271.79
667.69	1263.60
667.88	1216.49
668.07	1333.23
668.25	1275.88
668.44	1263.60
668.63	1292.27
668.81	1290.22
669.00	1236.97
669.19	1286.12
669.38	1304.56
669.56	1220.59
669.75	1263.60
669.94	1325.04
670.12	1279.98
670.31	1241.07
670.50	1290.22
670.68	1243.12
670.87	1271.79
671.06	1271.79
671.24	1218.54
671.43	1257.45
671.62	1286.12
671.80	1210.35
671.99	1310.70
672.18	1253.36
672.36	1331.18
672.55	1224.69
672.74	1230.83
672.92	1267.69
673.11	1296.36
673.29	1296.36
673.48	1292.27
673.67	1320.94
673.85	1277.93
674.04	1257.45
674.23	1249.26
674.41	1279.98
674.60	1208.30
674.79	1251.31
674.97	1265.64
675.16	1239.02
675.34	1230.83
675.53	1279.98
675.72	1269.74
675.90	1306.60
676.09	1206.25
676.28	1316.84
676.46	1316.84
676.65	1251.31
676.83	1239.02
677.02	1271.79
677.21	1273.84
677.39	1245.16
677.58	1275.88
677.77	1241.07
677.95	1298.41
678.14	1196.01
678.32	1286.12
678.51	1253.36
678.70	1312.75
678.88	1189.87
679.07	1232.88
679.25	1222.64
679.44	1220.59
679.63	1306.60
679.81	1314.80
680.00	1249.26
680.18	1314.80
680.37	1298.41
680.55	1196.01
680.74	1175.53
680.93	1247.21
681.11	1269.74
681.30	1255.40
681.48	1312.75
681.67	1296.36
681.85	1277.93
682.04	1241.07
682.23	1261.55
682.41	1249.26
682.60	1259.50
682.78	1298.41
682.97	1329.13
683.15	1253.36
683.34	1232.88
683.53	1304.56
683.71	1226.73
683.90	1275.88
684.08	1279.98
684.27	1282.03
684.45	1245.16
684.64	1265.64
684.82	1269.74
685.01	1247.21
685.19	1198.06
685.38	1296.36
685.57	1316.84
685.75	1249.26
685.94	1265.64
686.12	1279.98
686.31	1214.45
686.49	1230.83
686.68	1304.56
686.86	1279.98
687.05	1279.98
687.23	1263.60
687.42	1236.97
687.60	1282.03
687.79	1316.84
687.97	1212.40
688.16	1273.84
688.34	1277.93
688.53	1187.82
688.71	1366.00
688.90	1226.73
689.08	1308.65
689.27	1271.79
689.45	1312.75
689.64	1284.08
689.82	1220.59
690.01	1230.83
690.19	1259.50
690.38	1253.36
690.56	1380.33
690.75	1277.93
690.93	1300.46
691.12	1261.55
691.30	1288.17
691.49	1359.85
691.67	1243.12
691.86	1269.74
692.04	1216.49
692.23	1314.80
692.41	1290.22
692.60	1312.75
692.78	1282.03
692.97	1251.31
693.15	1220.59
693.34	1234.93
693.52	1271.79
693.71	1196.01
693.89	1339.37
694.08	1210.35
694.26	1241.07
694.44	1271.79
694.63	1275.88
694.81	1294.32
695.00	1224.69
695.18	1243.12
695.37	1329.13
695.55	1247.21
695.74	1189.87
695.92	1228.78
696.10	1265.64
696.29	1271.79
696.47	1269.74
696.66	1269.74
696.84	1279.98
697.03	1273.84
697.21	1265.64
697.40	1263.60
697.58	1288.17
697.76	1284.08
697.95	1298.41
698.13	1271.79
698.32	1267.69
698.50	1335.28
698.68	1218.54
698.87	1269.74
699.05	1234.93
699.24	1296.36
699.42	1251.31
699.61	1273.84
699.79	1282.03
699.97	1200.11
700.16	1234.93
700.34	1261.55
700.53	1265.64
700.71	1296.36
700.89	1277.93
701.08	1279.98
701.26	1267.69
701.45	1318.89
701.63	1249.26
701.81	1318.89
702.00	1216.49
702.18	1251.31
702.37	1257.45
702.55	1243.12
702.73	1230.83
702.92	1286.12
703.10	1222.64
703.28	1300.46
703.47	1232.88
703.65	1216.49
703.84	1277.93
704.02	1239.02
704.20	1210.35
704.39	1216.49
704.57	1247.21
704.75	1261.55
704.94	1255.40
705.12	1263.60
705.30	1306.60
705.49	1245.16
705.67	1361.90
705.86	1286.12
706.04	1298.41
706.22	1241.07
706.41	1236.97
706.59	1302.51
706.77	1279.98
706.96	1273.84
707.14	1277.93
707.32	1271.79
707.51	1230.83
707.69	1241.07
707.87	1261.55
708.06	1298.41
708.24	1282.03
708.42	1239.02
708.61	1239.02
708.79	1261.55
708.97	1298.41
709.16	1269.74
709.34	1206.25
709.52	1241.07
709.71	1331.18
709.89	1345.52
710.07	1288.17
710.26	1308.65
710.44	1234.93
710.62	1251.31
710.80	1181.68
710.99	1214.45
711.17	1210.35
711.35	1269.74
711.54	1306.60
711.72	1222.64
711.90	1255.40
712.09	1222.64
712.27	1288.17
712.45	1234.93
712.63	1279.98
712.82	1298.41
713.00	1279.98
713.18	1277.93
713.37	1277.93
713.55	1224.69
713.73	1282.03
713.91	1220.59
714.10	1243.12
714.28	1267.69
714.46	1290.22
714.65	1331.18
714.83	1185.77
715.01	1189.87
715.19	1275.88
715.38	1310.70
715.56	1357.80
715.74	1216.49
715.92	1269.74
716.11	1253.36
716.29	1271.79
716.47	1245.16
716.65	1271.79
716.84	1257.45
717.02	1269.74
717.20	1277.93
717.38	1228.78
717.57	1275.88
717.75	1322.99
717.93	1224.69
718.11	1232.88
718.30	1296.36
718.48	1310.70
718.66	1284.08
718.84	1353.71
719.03	1204.21
719.21	1288.17
719.39	1232.88
719.57	1329.13
719.75	1267.69
719.94	1269.74
720.12	1298.41
720.30	1343.47
720.48	1208.30
720.67	1298.41
720.85	1279.98
721.03	1310.70
721.21	1226.73
721.39	1259.50
721.58	1294.32
721.76	1359.85
721.94	1255.40
722.12	1261.55
722.30	1257.45
722.49	1277.93
722.67	1310.70
722.85	1263.60
723.03	1273.84
723.21	1263.60
723.40	1257.45
723.58	1222.64
723.76	1218.54
723.94	1296.36
724.12	1218.54
724.30	1363.95
724.49	1167.34
724.67	1220.59
724.85	1200.11
725.03	1351.66
725.21	1241.07
725.40	1265.64
725.58	1290.22
725.76	1241.07
725.94	1261.55
726.12	1298.41
726.30	1277.93
726.49	1234.93
726.67	1247.21
726.85	1269.74
727.03	1202.16
727.21	1249.26
727.39	1292.27
727.57	1310.70
727.76	1159.15
727.94	1316.84
728.12	1331.18
728.30	1218.54
728.48	1345.52
728.66	1257.45
728.84	1251.31
729.03	1234.93
729.21	1234.93
729.39	1265.64
729.57	1232.88
729.75	1376.24
729.93	1282.03
730.11	1279.98
730.30	1284.08
730.48	1275.88
730.66	1236.97
730.84	1286.12
731.02	1284.08
731.20	1341.42
731.38	1327.08
731.56	1265.64
731.74	1249.26
731.93	1247.21
732.11	1208.30
732.29	1206.25
732.47	1335.28
732.65	1273.84
732.83	1310.70
733.01	1269.74
733.19	1234.93
733.37	1345.52
733.56	1265.64
733.74	1302.51
733.92	1224.69
734.10	1206.25
734.28	1243.12
734.46	1247.21
734.64	1218.54
734.82	1286.12
735.00	1259.50
735.18	1279.98
735.36	1247.21
735.54	1247.21
735.73	1198.06
735.91	1282.03
736.09	1267.69
736.27	1218.54
736.45	1206.25
736.63	1312.75
736.81	1216.49
736.99	1302.51
737.17	1265.64
737.35	1155.05
737.53	1298.41
737.71	1298.41
737.89	1312.75
738.07	1257.45
738.25	1296.36
738.43	1284.08
738.61	1261.55
738.80	1271.79
738.98	1263.60
739.16	1290.22
739.34	1265.64
739.52	1318.89
739.70	1255.40
739.88	1214.45
740.06	1288.17
740.24	1239.02
740.42	1183.73
740.60	1183.73
740.78	1239.02
740.96	1175.53
741.14	1284.08
741.32	1222.64
741.50	1286.12
741.68	1257.45
741.86	1304.56
742.04	1245.16
742.22	1355.76
742.40	1241.07
742.58	1239.02
742.76	1259.50
742.94	1245.16
743.12	1198.06
743.30	1216.49
743.48	1232.88
743.66	1224.69
743.84	1282.03
744.02	1253.36
744.20	1271.79
744.38	1273.84
744.56	1298.41
744.74	1175.53
744.92	1355.76
745.10	1243.12
745.28	1255.40
745.46	1241.07
745.64	1206.25
745.82	1298.41
746.00	1220.59
746.18	1359.85
746.36	1290.22
746.54	1298.41
746.72	1222.64
746.90	1249.26
747.08	1255.40
747.26	1302.51
747.44	1148.91
747.62	1288.17
747.80	1261.55
747.98	1234.93
748.15	1255.40
748.33	1331.18
748.51	1265.64
748.69	1318.89
748.87	1277.93
749.05	1234.93
749.23	1228.78
749.41	1267.69
749.59	1302.51
749.77	1239.02
749.95	1200.11
750.13	1204.21
750.31	1179.63
750.49	1234.93
750.67	1304.56
750.85	1265.64
751.03	1269.74
751.20	1271.79
751.38	1279.98
751.56	1191.92
751.74	1267.69
751.92	1331.18
752.10	1247.21
752.28	1345.52
752.46	1277.93
752.64	1226.73
752.82	1224.69
753.00	1275.88
753.18	1308.65
753.35	1290.22
753.53	1257.45
753.71	1290.22
753.89	1257.45
754.07	1245.16
754.25	1228.78
754.43	1243.12
754.61	1245.16
754.79	1234.93
754.97	1325.04
755.14	1247.21
755.32	1247.21
755.50	1247.21
755.68	1282.03
755.86	1300.46
756.04	1304.56
756.22	1255.40
756.40	1275.88
756.57	1253.36
756.75	1263.60
756.93	1247.21
757.11	1312.75
757.29	1259.50
757.47	1331.18
757.65	1304.56
757.82	1286.12
758.00	1245.16
758.18	1302.51
758.36	1204.21
758.54	1337.32
758.72	1218.54
758.90	1224.69
759.07	1288.17
759.25	1290.22
759.43	1306.60
759.61	1296.36
759.79	1304.56
759.97	1279.98
760.15	1232.88
760.32	1271.79
760.50	1245.16
760.68	1253.36
760.86	1245.16
761.04	1290.22
761.22	1300.46
761.39	1265.64
761.57	1296.36
761.75	1292.27
761.93	1243.12
762.11	1257.45
762.28	1279.98
762.46	1318.89
762.64	1277.93
762.82	1191.92
763.00	1337.32
763.18	1208.30
763.35	1265.64
763.53	1396.71
763.71	1318.89
763.89	1279.98
764.07	1251.31
764.24	1261.55
764.42	1255.40
764.60	1306.60
764.78	1263.60
764.96	1257.45
765.13	1243.12
765.31	1222.64
765.49	1318.89
765.67	1314.80
765.84	1232.88
766.02	1275.88
766.20	1261.55
766.38	1224.69
766.56	1216.49
766.73	1269.74
766.91	1294.32
767.09	1310.70
767.27	1286.12
767.44	1273.84
767.62	1282.03
767.80	1269.74
767.98	1230.83
768.15	1208.30
768.33	1337.32
768.51	1255.40
768.69	1351.66
768.87	1294.32
769.04	1212.40
769.22	1335.28
769.40	1259.50
769.58	1322.99
769.75	1224.69
769.93	1290.22
770.11	1286.12
770.28	1261.55
770.46	1259.50
770.64	1277.93
770.82	1150.96
770.99	1290.22
771.17	1269.74
771.35	1255.40
771.53	1196.01
771.70	1286.12
771.88	1267.69
772.06	1263.60
772.23	1263.60
772.41	1277.93
772.59	1271.79
772.77	1279.98
772.94	1261.55
773.12	1245.16
773.30	1202.16
773.47	1230.83
773.65	1261.55
773.83	1259.50
774.01	1277.93
774.18	1249.26
774.36	1234.93
774.54	1222.64
774.71	1255.40
774.89	1296.36
775.07	1298.41
775.24	1251.31
775.42	1282.03
775.60	1273.84
775.78	1304.56
775.95	1294.32
776.13	1271.79
776.31	1288.17
776.48	1273.84
776.66	1298.41
776.84	1222.64
777.01	1263.60
777.19	1282.03
777.37	1288.17
777.54	1226.73
777.72	1306.60
777.90	1216.49
778.07	1226.73
778.25	1282.03
778.43	1273.84
778.60	1204.21
778.78	1257.45
778.96	1243.12
779.13	1327.08
779.31	1253.36
779.49	1312.75
779.66	1308.65
779.84	1275.88
780.01	1185.77
780.19	1271.79
780.37	1255.40
780.54	1204.21
780.72	1222.64
780.90	1257.45
781.07	1177.58
781.25	1343.47
781.43	1304.56
781.60	1247.21
781.78	1294.32
781.95	1236.97
782.13	1271.79
782.31	1263.60
782.48	1271.79
782.66	1304.56
782.83	1302.51
783.01	1259.50
783.19	1253.36
783.36	1255.40
783.54	1273.84
783.72	1310.70
783.89	1239.02
784.07	1277.93
784.24	1286.12
784.42	1290.22
784.60	1257.45
784.77	1288.17
784.95	1255.40
785.12	1304.56
785.30	1279.98
785.47	1253.36
785.65	1257.45
785.83	1263.60
786.00	1284.08
786.18	1284.08
786.35	1261.55
786.53	1208.30
786.71	1296.36
786.88	1226.73
787.06	1253.36
787.23	1224.69
787.41	1216.49
787.58	1302.51
787.76	1292.27
787.94	1230.83
788.11	1271.79
788.29	1275.88
788.46	1267.69
788.64	1275.88
788.81	1267.69
788.99	1294.32
789.16	1224.69
789.34	1249.26
789.52	1245.16
789.69	1382.38
789.87	1247.21
790.04	1261.55
790.22	1282.03
790.39	1292.27
790.57	1216.49
790.74	1286.12
790.92	1298.41
791.09	1286.12
791.27	1333.23
791.44	1310.70
791.62	1263.60
791.79	1265.64
791.97	1255.40
792.15	1331.18
792.32	1222.64
792.50	1292.27
792.67	1308.65
792.85	1206.25
793.02	1253.36
793.20	1259.50
793.37	1255.40
793.55	1271.79
793.72	1355.76
793.90	1314.80
794.07	1263.60
794.25	1279.98
794.42	1189.87
794.60	1290.22
794.77	1245.16
794.95	1239.02
795.12	1255.40
795.30	1251.31
795.47	1302.51
795.65	1277.93
795.82	1232.88
796.00	1255.40
796.17	1282.03
796.34	1298.41
796.52	1245.16
796.69	1226.73
796.87	1290.22
797.04	1277.93
797.22	1234.93
797.39	1222.64
797.57	1327.08
797.74	1282.03
797.92	1314.80
798.09	1236.97
798.27	1318.89
798.44	1282.03
798.62	1339.37
798.79	1218.54
798.96	1261.55
799.14	1247.21
799.31	1329.13
799.49	1259.50
799.66	1302.51
799.84	1296.36
800.01	1232.88
800.19	1347.56
800.36	1263.60
800.53	1304.56
800.71	1236.97
800.88	1253.36
801.06	1257.45
801.23	1327.08
801.41	1218.54
801.58	1236.97
801.75	1261.55
801.93	1302.51
802.10	1253.36
802.28	1251.31
802.45	1245.16
802.63	1202.16
802.80	1312.75
802.97	1249.26
803.15	1216.49
803.32	1226.73
803.50	1271.79
803.67	1292.27
803.84	1263.60
804.02	1302.51
804.19	1277.93
804.37	1271.79
804.54	1292.27
804.71	1269.74
804.89	1249.26
805.06	1230.83
805.24	1273.84
805.41	1343.47
805.58	1255.40
805.76	1296.36
805.93	1282.03
806.10	1341.42
806.28	1185.77
806.45	1239.02
806.63	1345.52
806.80	1255.40
806.97	1267.69
807.15	1304.56
807.32	1335.28
807.49	1339.37
807.67	1273.84
807.84	1212.40
808.01	1247.21
808.19	1300.46
808.36	1269.74
808.54	1275.88
808.71	1159.15
808.88	1228.78
809.06	1230.83
809.23	1378.28
809.40	1239.02
809.58	1245.16
809.75	1345.52
809.92	1253.36
810.10	1292.27
810.27	1241.07
810.44	1306.60
810.62	1206.25
810.79	1251.31
810.96	1241.07
811.14	1265.64
811.31	1335.28
811.48	1236.97
811.66	1265.64
811.83	1253.36
812.00	1286.12
812.18	1232.88
812.35	1241.07
812.52	1232.88
812.69	1329.13
812.87	1222.64
813.04	1314.80
813.21	1255.40
813.39	1302.51
813.56	1253.36
813.73	1296.36
813.91	1282.03
814.08	1288.17
814.25	1261.55
814.42	1216.49
814.60	1243.12
814.77	1208.30
814.94	1273.84
815.12	1277.93
815.29	1327.08
815.46	1294.32
815.63	1343.47
815.81	1277.93
815.98	1286.12
816.15	1288.17
816.33	1267.69
816.50	1224.69
816.67	1247.21
816.84	1282.03
817.02	1200.11
817.19	1245.16
817.36	1298.41
817.53	1296.36
817.71	1218.54
817.88	1286.12
818.05	1216.49
818.22	1150.96
818.40	1308.65
818.57	1216.49
818.74	1253.36
818.91	1249.26
819.09	1322.99
819.26	1325.04
819.43	1312.75
819.60	1271.79
819.78	1296.36
819.95	1210.35
820.12	1284.08
820.29	1308.65
820.47	1251.31
820.64	1267.69
820.81	1275.88
820.98	1175.53
821.15	1304.56
821.33	1306.60
821.50	1304.56
821.67	1222.64
821.84	1341.42
822.02	1257.45
822.19	1210.35
822.36	1327.08
822.53	1193.97
822.70	1226.73
822.88	1224.69
823.05	1249.26
823.22	1232.88
823.39	1236.97
823.56	1247.21
823.74	1202.16
823.91	1277.93
824.08	1232.88
824.25	1288.17
824.42	1259.50
824.60	1210.35
824.77	1249.26
824.94	1275.88
825.11	1222.64
825.28	1218.54
825.45	1275.88
825.63	1288.17
825.80	1259.50
825.97	1271.79
826.14	1253.36
826.31	1290.22
826.48	1269.74
826.66	1294.32
826.83	1314.80
827.00	1296.36
827.17	1277.93
827.34	1308.65
827.51	1329.13
827.69	1208.30
827.86	1339.37
828.03	1230.83
828.20	1298.41
828.37	1288.17
828.54	1226.73
828.71	1234.93
828.89	1228.78
829.06	1275.88
829.23	1230.83
829.40	1222.64
829.57	1263.60
829.74	1304.56
829.91	1243.12
830.09	1279.98
830.26	1316.84
830.43	1230.83
830.60	1318.89
830.77	1286.12
830.94	1216.49
831.11	1265.64
831.28	1279.98
831.46	1271.79
831.63	1241.07
831.80	1263.60
831.97	1253.36
832.14	1298.41
832.31	1273.84
832.48	1251.31
832.65	1333.23
832.82	1232.88
832.99	1277.93
833.17	1253.36
833.34	1306.60
833.51	1273.84
833.68	1230.83
833.85	1241.07
834.02	1247.21
834.19	1239.02
834.36	1282.03
834.53	1259.50
834.70	1294.32
834.87	1288.17
835.04	1273.84
835.22	1271.79
835.39	1294.32
835.56	1249.26
835.73	1292.27
835.90	1310.70
836.07	1294.32
836.24	1261.55
836.41	1255.40
836.58	1177.58
836.75	1230.83
836.92	1232.88
837.09	1271.79
837.26	1239.02
837.43	1216.49
837.60	1265.64
837.77	1306.60
837.94	1228.78
838.12	1300.46
838.29	1327.08
838.46	1339.37
838.63	1279.98
838.80	1290.22
838.97	1251.31
839.14	1284.08
839.31	1259.50
839.48	1282.03
839.65	1265.64
839.82	1345.52
839.99	1253.36
840.16	1249.26
840.33	1267.69
840.50	1314.80
840.67	1239.02
840.84	1226.73
841.01	1284.08
841.18	1316.84
841.35	1269.74
841.52	1236.97
841.69	1261.55
841.86	1347.56
842.03	1249.26
842.20	1265.64
842.37	1296.36
842.54	1230.83
842.71	1329.13
842.88	1269.74
843.05	1251.31
843.22	1284.08
843.39	1325.04
843.56	1312.75
843.73	1265.64
843.90	1222.64
844.07	1288.17
844.24	1310.70
844.41	1269.74
844.58	1181.68
844.75	1212.40
844.92	1384.43
845.09	1206.25
845.26	1298.41
845.43	1255.40
845.60	1257.45
845.77	1241.07
845.94	1253.36
846.10	1224.69
846.27	1288.17
846.44	1273.84
846.61	1267.69
846.78	1296.36
846.95	1275.88
847.12	1185.77
847.29	1224.69
847.46	1271.79
847.63	1273.84
847.80	1239.02
847.97	1257.45
848.14	1200.11
848.31	1292.27
848.48	1296.36
848.65	1298.41
848.82	1255.40
848.98	1222.64
849.15	1230.83
849.32	1275.88
849.49	1224.69
849.66	1279.98
849.83	1306.60
850.00	1236.97
850.17	1267.69
850.34	1236.97
850.51	1269.74
850.68	1212.40
850.85	1327.08
851.01	1228.78
851.18	1261.55
851.35	1267.69
851.52	1284.08
851.69	1290.22
851.86	1277.93
852.03	1247.21
852.20	1245.16
852.37	1327.08
852.53	1202.16
852.70	1271.79
852.87	1247.21
853.04	1267.69
853.21	1196.01
853.38	1224.69
853.55	1265.64
853.72	1253.36
853.89	1306.60
854.05	1218.54
854.22	1259.50
854.39	1296.36
854.56	1267.69
854.73	1228.78
854.90	1222.64
855.07	1304.56
855.23	1273.84
855.40	1245.16
855.57	1271.79
855.74	1214.45
855.91	1208.30
856.08	1325.04
856.25	1249.26
856.41	1228.78
856.58	1275.88
856.75	1181.68
856.92	1216.49
857.09	1265.64
857.26	1314.80
857.42	1239.02
857.59	1308.65
857.76	1200.11
857.93	1300.46
858.10	1273.84
858.27	1218.54
858.43	1314.80
858.60	1286.12
858.77	1329.13
858.94	1277.93
859.11	1286.12
859.27	1224.69
859.44	1232.88
859.61	1306.60
859.78	1267.69
859.95	1284.08
860.12	1259.50
860.28	1320.94
860.45	1273.84
860.62	1286.12
860.79	1251.31
860.95	1327.08
861.12	1253.36
861.29	1329.13
861.46	1286.12
861.63	1282.03
861.79	1214.45
861.96	1269.74
862.13	1249.26
862.30	1187.82
862.47	1224.69
862.63	1222.64
862.80	1349.61
862.97	1322.99
863.14	1312.75
863.30	1243.12
863.47	1345.52
863.64	1267.69
863.81	1282.03
863.97	1273.84
864.14	1232.88
864.31	1239.02
864.48	1214.45
864.65	1265.64
864.81	1337.32
864.98	1236.97
865.15	1288.17
865.32	1288.17
865.48	1269.74
865.65	1296.36
865.82	1304.56
865.98	1204.21
866.15	1236.97
866.32	1239.02
866.49	1193.97
866.65	1267.69
866.82	1277.93
866.99	1300.46
867.16	1253.36
867.32	1261.55
867.49	1249.26
867.66	1216.49
867.83	1218.54
867.99	1243.12
868.16	1300.46
868.33	1296.36
868.49	1251.31
868.66	1212.40
868.83	1322.99
868.99	1282.03
869.16	1322.99
869.33	1273.84
869.50	1251.31
869.66	1271.79
869.83	1253.36
870.00	1216.49
870.16	1304.56
870.33	1271.79
870.50	1290.22
870.66	1284.08
870.83	1290.22
871.00	1224.69
871.17	1288.17
871.33	1273.84
871.50	1228.78
871.67	1368.04
871.83	1206.25
872.00	1269.74
872.17	1251.31
872.33	1251.31
872.50	1314.80
872.67	1318.89
872.83	1300.46
873.00	1282.03
873.17	1273.84
873.33	1249.26
873.50	1267.69
873.67	1267.69
873.83	1329.13
874.00	1267.69
874.16	1257.45
874.33	1294.32
874.50	1271.79
874.66	1224.69
874.83	1298.41
875.00	1298.41
875.16	1255.40
875.33	1271.79
875.50	1314.80
875.66	1300.46
875.83	1316.84
875.99	1361.90
876.16	1306.60
876.33	1265.64
876.49	1257.45
876.66	1241.07
876.83	1255.40
876.99	1202.16
877.16	1292.27
877.32	1277.93
877.49	1312.75
877.66	1177.58
877.82	1343.47
877.99	1222.64
878.15	1228.78
878.32	1271.79
878.49	1234.93
878.65	1329.13
878.82	1265.64
878.98	1265.64
879.15	1310.70
879.32	1273.84
879.48	1232.88
879.65	1314.80
879.81	1282.03
879.98	1265.64
880.15	1230.83
880.31	1277.93
880.48	1325.04
880.64	1292.27
880.81	1241.07
880.97	1216.49
881.14	1261.55
881.31	1200.11
881.47	1275.88
881.64	1224.69
881.80	1271.79
881.97	1251.31
882.13	1265.64
882.30	1314.80
882.47	1251.31
882.63	1222.64
882.80	1249.26
882.96	1230.83
883.13	1239.02
883.29	1247.21
883.46	1286.12
883.62	1232.88
883.79	1228.78
883.95	1239.02
884.12	1273.84
884.29	1312.75
884.45	1241.07
884.62	1263.60
884.78	1230.83
884.95	1300.46
885.11	1206.25
885.28	1212.40
885.44	1271.79
885.61	1206.25
885.77	1255.40
885.94	1277.93
886.10	1249.26
886.27	1257.45
886.43	1361.90
886.60	1275.88
886.76	1349.61
886.93	1271.79
887.09	1232.88
887.26	1228.78
887.42	1185.77
887.59	1304.56
887.75	1269.74
887.92	1335.28
888.08	1220.59
888.25	1255.40
888.41	1245.16
888.58	1212.40
888.74	1269.74
888.91	1257.45
>>>>>End Processed Spectral Data<<<<<
